Created as New Dataset,Sample 151 By Administrator Date Wednesday, September 10 2025
cm-1,A
4000.00,0.0010
3999.00,0.0010
3998.00,0.0010
3997.00,0.0010
3996.00,0.0010
3995.00,0.0010
3994.00,0.0010
3993.00,0.0010
3992.00,0.0010
3991.00,0.0010
3990.00,0.0009
3989.00,0.0009
3988.00,0.0009
3987.00,0.0009
3986.00,0.0009
3985.00,0.0009
3984.00,0.0009
3983.00,0.0009
3982.00,0.0009
3981.00,0.0009
3980.00,0.0009
3979.00,0.0008
3978.00,0.0008
3977.00,0.0008
3976.00,0.0008
3975.00,0.0008
3974.00,0.0008
3973.00,0.0008
3972.00,0.0008
3971.00,0.0008
3970.00,0.0008
3969.00,0.0008
3968.00,0.0008
3967.00,0.0008
3966.00,0.0008
3965.00,0.0008
3964.00,0.0008
3963.00,0.0008
3962.00,0.0008
3961.00,0.0008
3960.00,0.0008
3959.00,0.0008
3958.00,0.0008
3957.00,0.0008
3956.00,0.0008
3955.00,0.0007
3954.00,0.0007
3953.00,0.0007
3952.00,0.0007
3951.00,0.0007
3950.00,0.0007
3949.00,0.0008
3948.00,0.0008
3947.00,0.0008
3946.00,0.0007
3945.00,0.0007
3944.00,0.0007
3943.00,0.0007
3942.00,0.0007
3941.00,0.0007
3940.00,0.0007
3939.00,0.0007
3938.00,0.0007
3937.00,0.0007
3936.00,0.0008
3935.00,0.0008
3934.00,0.0007
3933.00,0.0007
3932.00,0.0007
3931.00,0.0008
3930.00,0.0008
3929.00,0.0008
3928.00,0.0008
3927.00,0.0007
3926.00,0.0007
3925.00,0.0007
3924.00,0.0007
3923.00,0.0008
3922.00,0.0008
3921.00,0.0008
3920.00,0.0008
3919.00,0.0008
3918.00,0.0008
3917.00,0.0008
3916.00,0.0007
3915.00,0.0007
3914.00,0.0007
3913.00,0.0007
3912.00,0.0008
3911.00,0.0008
3910.00,0.0008
3909.00,0.0008
3908.00,0.0008
3907.00,0.0008
3906.00,0.0007
3905.00,0.0007
3904.00,0.0007
3903.00,0.0006
3902.00,0.0006
3901.00,0.0006
3900.00,0.0007
3899.00,0.0006
3898.00,0.0006
3897.00,0.0007
3896.00,0.0007
3895.00,0.0007
3894.00,0.0008
3893.00,0.0008
3892.00,0.0008
3891.00,0.0008
3890.00,0.0007
3889.00,0.0007
3888.00,0.0007
3887.00,0.0007
3886.00,0.0007
3885.00,0.0007
3884.00,0.0006
3883.00,0.0006
3882.00,0.0006
3881.00,0.0007
3880.00,0.0007
3879.00,0.0007
3878.00,0.0007
3877.00,0.0007
3876.00,0.0007
3875.00,0.0007
3874.00,0.0007
3873.00,0.0007
3872.00,0.0007
3871.00,0.0007
3870.00,0.0007
3869.00,0.0007
3868.00,0.0007
3867.00,0.0007
3866.00,0.0006
3865.00,0.0006
3864.00,0.0006
3863.00,0.0006
3862.00,0.0006
3861.00,0.0006
3860.00,0.0006
3859.00,0.0006
3858.00,0.0007
3857.00,0.0008
3856.00,0.0008
3855.00,0.0008
3854.00,0.0007
3853.00,0.0007
3852.00,0.0007
3851.00,0.0006
3850.00,0.0006
3849.00,0.0006
3848.00,0.0006
3847.00,0.0006
3846.00,0.0006
3845.00,0.0006
3844.00,0.0006
3843.00,0.0007
3842.00,0.0007
3841.00,0.0007
3840.00,0.0007
3839.00,0.0007
3838.00,0.0007
3837.00,0.0007
3836.00,0.0007
3835.00,0.0006
3834.00,0.0006
3833.00,0.0006
3832.00,0.0006
3831.00,0.0006
3830.00,0.0006
3829.00,0.0007
3828.00,0.0007
3827.00,0.0008
3826.00,0.0008
3825.00,0.0007
3824.00,0.0007
3823.00,0.0007
3822.00,0.0007
3821.00,0.0008
3820.00,0.0007
3819.00,0.0007
3818.00,0.0007
3817.00,0.0007
3816.00,0.0007
3815.00,0.0007
3814.00,0.0007
3813.00,0.0007
3812.00,0.0007
3811.00,0.0008
3810.00,0.0008
3809.00,0.0008
3808.00,0.0008
3807.00,0.0008
3806.00,0.0008
3805.00,0.0007
3804.00,0.0007
3803.00,0.0007
3802.00,0.0007
3801.00,0.0007
3800.00,0.0007
3799.00,0.0006
3798.00,0.0006
3797.00,0.0006
3796.00,0.0006
3795.00,0.0006
3794.00,0.0007
3793.00,0.0007
3792.00,0.0007
3791.00,0.0008
3790.00,0.0008
3789.00,0.0008
3788.00,0.0007
3787.00,0.0007
3786.00,0.0007
3785.00,0.0007
3784.00,0.0007
3783.00,0.0007
3782.00,0.0007
3781.00,0.0007
3780.00,0.0007
3779.00,0.0007
3778.00,0.0007
3777.00,0.0007
3776.00,0.0007
3775.00,0.0007
3774.00,0.0007
3773.00,0.0007
3772.00,0.0007
3771.00,0.0008
3770.00,0.0008
3769.00,0.0008
3768.00,0.0008
3767.00,0.0008
3766.00,0.0008
3765.00,0.0008
3764.00,0.0008
3763.00,0.0008
3762.00,0.0008
3761.00,0.0008
3760.00,0.0008
3759.00,0.0008
3758.00,0.0008
3757.00,0.0007
3756.00,0.0007
3755.00,0.0007
3754.00,0.0007
3753.00,0.0008
3752.00,0.0008
3751.00,0.0008
3750.00,0.0008
3749.00,0.0008
3748.00,0.0007
3747.00,0.0007
3746.00,0.0007
3745.00,0.0007
3744.00,0.0007
3743.00,0.0006
3742.00,0.0006
3741.00,0.0006
3740.00,0.0006
3739.00,0.0006
3738.00,0.0005
3737.00,0.0005
3736.00,0.0005
3735.00,0.0005
3734.00,0.0005
3733.00,0.0005
3732.00,0.0006
3731.00,0.0006
3730.00,0.0005
3729.00,0.0005
3728.00,0.0005
3727.00,0.0005
3726.00,0.0005
3725.00,0.0005
3724.00,0.0005
3723.00,0.0005
3722.00,0.0005
3721.00,0.0005
3720.00,0.0005
3719.00,0.0005
3718.00,0.0005
3717.00,0.0005
3716.00,0.0005
3715.00,0.0005
3714.00,0.0004
3713.00,0.0004
3712.00,0.0003
3711.00,0.0003
3710.00,0.0004
3709.00,0.0004
3708.00,0.0004
3707.00,0.0005
3706.00,0.0005
3705.00,0.0005
3704.00,0.0005
3703.00,0.0005
3702.00,0.0005
3701.00,0.0006
3700.00,0.0006
3699.00,0.0006
3698.00,0.0006
3697.00,0.0006
3696.00,0.0006
3695.00,0.0006
3694.00,0.0006
3693.00,0.0005
3692.00,0.0005
3691.00,0.0006
3690.00,0.0006
3689.00,0.0006
3688.00,0.0007
3687.00,0.0007
3686.00,0.0006
3685.00,0.0006
3684.00,0.0006
3683.00,0.0006
3682.00,0.0005
3681.00,0.0006
3680.00,0.0006
3679.00,0.0006
3678.00,0.0006
3677.00,0.0006
3676.00,0.0006
3675.00,0.0006
3674.00,0.0006
3673.00,0.0006
3672.00,0.0005
3671.00,0.0006
3670.00,0.0006
3669.00,0.0007
3668.00,0.0006
3667.00,0.0007
3666.00,0.0007
3665.00,0.0007
3664.00,0.0007
3663.00,0.0007
3662.00,0.0006
3661.00,0.0006
3660.00,0.0006
3659.00,0.0006
3658.00,0.0006
3657.00,0.0006
3656.00,0.0006
3655.00,0.0005
3654.00,0.0005
3653.00,0.0005
3652.00,0.0005
3651.00,0.0005
3650.00,0.0005
3649.00,0.0005
3648.00,0.0005
3647.00,0.0005
3646.00,0.0005
3645.00,0.0006
3644.00,0.0006
3643.00,0.0006
3642.00,0.0006
3641.00,0.0006
3640.00,0.0006
3639.00,0.0006
3638.00,0.0007
3637.00,0.0007
3636.00,0.0007
3635.00,0.0007
3634.00,0.0008
3633.00,0.0008
3632.00,0.0007
3631.00,0.0007
3630.00,0.0007
3629.00,0.0007
3628.00,0.0006
3627.00,0.0006
3626.00,0.0005
3625.00,0.0005
3624.00,0.0006
3623.00,0.0006
3622.00,0.0006
3621.00,0.0006
3620.00,0.0006
3619.00,0.0006
3618.00,0.0005
3617.00,0.0005
3616.00,0.0005
3615.00,0.0005
3614.00,0.0005
3613.00,0.0006
3612.00,0.0006
3611.00,0.0006
3610.00,0.0006
3609.00,0.0005
3608.00,0.0005
3607.00,0.0005
3606.00,0.0006
3605.00,0.0006
3604.00,0.0006
3603.00,0.0006
3602.00,0.0006
3601.00,0.0006
3600.00,0.0006
3599.00,0.0007
3598.00,0.0007
3597.00,0.0008
3596.00,0.0008
3595.00,0.0008
3594.00,0.0009
3593.00,0.0009
3592.00,0.0009
3591.00,0.0008
3590.00,0.0008
3589.00,0.0009
3588.00,0.0009
3587.00,0.0009
3586.00,0.0009
3585.00,0.0009
3584.00,0.0009
3583.00,0.0009
3582.00,0.0009
3581.00,0.0009
3580.00,0.0010
3579.00,0.0010
3578.00,0.0010
3577.00,0.0010
3576.00,0.0010
3575.00,0.0010
3574.00,0.0010
3573.00,0.0010
3572.00,0.0011
3571.00,0.0011
3570.00,0.0011
3569.00,0.0011
3568.00,0.0012
3567.00,0.0012
3566.00,0.0012
3565.00,0.0012
3564.00,0.0011
3563.00,0.0011
3562.00,0.0012
3561.00,0.0012
3560.00,0.0012
3559.00,0.0013
3558.00,0.0013
3557.00,0.0014
3556.00,0.0014
3555.00,0.0014
3554.00,0.0015
3553.00,0.0015
3552.00,0.0015
3551.00,0.0015
3550.00,0.0015
3549.00,0.0015
3548.00,0.0015
3547.00,0.0015
3546.00,0.0015
3545.00,0.0015
3544.00,0.0016
3543.00,0.0016
3542.00,0.0016
3541.00,0.0016
3540.00,0.0016
3539.00,0.0017
3538.00,0.0017
3537.00,0.0017
3536.00,0.0017
3535.00,0.0018
3534.00,0.0018
3533.00,0.0019
3532.00,0.0019
3531.00,0.0018
3530.00,0.0018
3529.00,0.0018
3528.00,0.0018
3527.00,0.0019
3526.00,0.0019
3525.00,0.0019
3524.00,0.0019
3523.00,0.0019
3522.00,0.0019
3521.00,0.0019
3520.00,0.0019
3519.00,0.0020
3518.00,0.0020
3517.00,0.0021
3516.00,0.0020
3515.00,0.0020
3514.00,0.0020
3513.00,0.0020
3512.00,0.0020
3511.00,0.0021
3510.00,0.0021
3509.00,0.0021
3508.00,0.0021
3507.00,0.0021
3506.00,0.0021
3505.00,0.0021
3504.00,0.0022
3503.00,0.0022
3502.00,0.0022
3501.00,0.0023
3500.00,0.0023
3499.00,0.0023
3498.00,0.0023
3497.00,0.0023
3496.00,0.0023
3495.00,0.0023
3494.00,0.0023
3493.00,0.0023
3492.00,0.0024
3491.00,0.0024
3490.00,0.0024
3489.00,0.0024
3488.00,0.0024
3487.00,0.0024
3486.00,0.0024
3485.00,0.0024
3484.00,0.0025
3483.00,0.0025
3482.00,0.0025
3481.00,0.0025
3480.00,0.0026
3479.00,0.0026
3478.00,0.0026
3477.00,0.0027
3476.00,0.0027
3475.00,0.0027
3474.00,0.0027
3473.00,0.0027
3472.00,0.0028
3471.00,0.0028
3470.00,0.0028
3469.00,0.0028
3468.00,0.0028
3467.00,0.0028
3466.00,0.0028
3465.00,0.0029
3464.00,0.0029
3463.00,0.0029
3462.00,0.0029
3461.00,0.0029
3460.00,0.0029
3459.00,0.0029
3458.00,0.0029
3457.00,0.0029
3456.00,0.0029
3455.00,0.0029
3454.00,0.0029
3453.00,0.0030
3452.00,0.0030
3451.00,0.0031
3450.00,0.0031
3449.00,0.0032
3448.00,0.0032
3447.00,0.0032
3446.00,0.0032
3445.00,0.0032
3444.00,0.0032
3443.00,0.0032
3442.00,0.0032
3441.00,0.0032
3440.00,0.0032
3439.00,0.0032
3438.00,0.0032
3437.00,0.0032
3436.00,0.0032
3435.00,0.0032
3434.00,0.0033
3433.00,0.0033
3432.00,0.0034
3431.00,0.0034
3430.00,0.0035
3429.00,0.0035
3428.00,0.0035
3427.00,0.0035
3426.00,0.0035
3425.00,0.0035
3424.00,0.0035
3423.00,0.0035
3422.00,0.0035
3421.00,0.0035
3420.00,0.0035
3419.00,0.0035
3418.00,0.0035
3417.00,0.0035
3416.00,0.0036
3415.00,0.0036
3414.00,0.0036
3413.00,0.0036
3412.00,0.0036
3411.00,0.0036
3410.00,0.0036
3409.00,0.0036
3408.00,0.0036
3407.00,0.0036
3406.00,0.0036
3405.00,0.0036
3404.00,0.0036
3403.00,0.0036
3402.00,0.0036
3401.00,0.0036
3400.00,0.0036
3399.00,0.0036
3398.00,0.0036
3397.00,0.0037
3396.00,0.0037
3395.00,0.0037
3394.00,0.0038
3393.00,0.0038
3392.00,0.0038
3391.00,0.0038
3390.00,0.0038
3389.00,0.0038
3388.00,0.0038
3387.00,0.0038
3386.00,0.0037
3385.00,0.0037
3384.00,0.0038
3383.00,0.0038
3382.00,0.0037
3381.00,0.0037
3380.00,0.0037
3379.00,0.0037
3378.00,0.0038
3377.00,0.0038
3376.00,0.0038
3375.00,0.0038
3374.00,0.0038
3373.00,0.0037
3372.00,0.0037
3371.00,0.0037
3370.00,0.0037
3369.00,0.0037
3368.00,0.0038
3367.00,0.0038
3366.00,0.0038
3365.00,0.0038
3364.00,0.0038
3363.00,0.0038
3362.00,0.0038
3361.00,0.0038
3360.00,0.0038
3359.00,0.0039
3358.00,0.0039
3357.00,0.0039
3356.00,0.0039
3355.00,0.0039
3354.00,0.0039
3353.00,0.0039
3352.00,0.0039
3351.00,0.0039
3350.00,0.0039
3349.00,0.0039
3348.00,0.0039
3347.00,0.0039
3346.00,0.0039
3345.00,0.0040
3344.00,0.0039
3343.00,0.0039
3342.00,0.0039
3341.00,0.0039
3340.00,0.0038
3339.00,0.0038
3338.00,0.0038
3337.00,0.0038
3336.00,0.0038
3335.00,0.0037
3334.00,0.0037
3333.00,0.0037
3332.00,0.0038
3331.00,0.0038
3330.00,0.0038
3329.00,0.0037
3328.00,0.0037
3327.00,0.0037
3326.00,0.0036
3325.00,0.0036
3324.00,0.0035
3323.00,0.0035
3322.00,0.0035
3321.00,0.0035
3320.00,0.0035
3319.00,0.0035
3318.00,0.0036
3317.00,0.0036
3316.00,0.0036
3315.00,0.0036
3314.00,0.0036
3313.00,0.0036
3312.00,0.0036
3311.00,0.0036
3310.00,0.0036
3309.00,0.0036
3308.00,0.0036
3307.00,0.0036
3306.00,0.0036
3305.00,0.0037
3304.00,0.0037
3303.00,0.0037
3302.00,0.0037
3301.00,0.0037
3300.00,0.0037
3299.00,0.0037
3298.00,0.0037
3297.00,0.0037
3296.00,0.0037
3295.00,0.0036
3294.00,0.0036
3293.00,0.0036
3292.00,0.0036
3291.00,0.0036
3290.00,0.0035
3289.00,0.0036
3288.00,0.0036
3287.00,0.0036
3286.00,0.0036
3285.00,0.0036
3284.00,0.0036
3283.00,0.0035
3282.00,0.0035
3281.00,0.0035
3280.00,0.0035
3279.00,0.0035
3278.00,0.0035
3277.00,0.0036
3276.00,0.0036
3275.00,0.0035
3274.00,0.0035
3273.00,0.0035
3272.00,0.0035
3271.00,0.0035
3270.00,0.0035
3269.00,0.0035
3268.00,0.0035
3267.00,0.0035
3266.00,0.0035
3265.00,0.0035
3264.00,0.0034
3263.00,0.0034
3262.00,0.0034
3261.00,0.0034
3260.00,0.0034
3259.00,0.0034
3258.00,0.0034
3257.00,0.0034
3256.00,0.0034
3255.00,0.0034
3254.00,0.0034
3253.00,0.0034
3252.00,0.0034
3251.00,0.0033
3250.00,0.0033
3249.00,0.0033
3248.00,0.0032
3247.00,0.0032
3246.00,0.0033
3245.00,0.0033
3244.00,0.0033
3243.00,0.0033
3242.00,0.0033
3241.00,0.0033
3240.00,0.0033
3239.00,0.0033
3238.00,0.0033
3237.00,0.0033
3236.00,0.0033
3235.00,0.0034
3234.00,0.0034
3233.00,0.0034
3232.00,0.0034
3231.00,0.0034
3230.00,0.0034
3229.00,0.0034
3228.00,0.0034
3227.00,0.0035
3226.00,0.0035
3225.00,0.0035
3224.00,0.0035
3223.00,0.0036
3222.00,0.0036
3221.00,0.0036
3220.00,0.0036
3219.00,0.0036
3218.00,0.0036
3217.00,0.0037
3216.00,0.0037
3215.00,0.0038
3214.00,0.0038
3213.00,0.0038
3212.00,0.0038
3211.00,0.0038
3210.00,0.0039
3209.00,0.0039
3208.00,0.0039
3207.00,0.0039
3206.00,0.0039
3205.00,0.0040
3204.00,0.0040
3203.00,0.0040
3202.00,0.0040
3201.00,0.0040
3200.00,0.0040
3199.00,0.0040
3198.00,0.0040
3197.00,0.0040
3196.00,0.0040
3195.00,0.0040
3194.00,0.0040
3193.00,0.0040
3192.00,0.0040
3191.00,0.0039
3190.00,0.0039
3189.00,0.0039
3188.00,0.0039
3187.00,0.0039
3186.00,0.0039
3185.00,0.0039
3184.00,0.0039
3183.00,0.0039
3182.00,0.0039
3181.00,0.0038
3180.00,0.0038
3179.00,0.0038
3178.00,0.0038
3177.00,0.0037
3176.00,0.0037
3175.00,0.0037
3174.00,0.0037
3173.00,0.0037
3172.00,0.0036
3171.00,0.0036
3170.00,0.0035
3169.00,0.0035
3168.00,0.0035
3167.00,0.0035
3166.00,0.0035
3165.00,0.0035
3164.00,0.0035
3163.00,0.0035
3162.00,0.0035
3161.00,0.0035
3160.00,0.0035
3159.00,0.0035
3158.00,0.0035
3157.00,0.0035
3156.00,0.0034
3155.00,0.0034
3154.00,0.0034
3153.00,0.0034
3152.00,0.0034
3151.00,0.0034
3150.00,0.0034
3149.00,0.0034
3148.00,0.0034
3147.00,0.0034
3146.00,0.0034
3145.00,0.0034
3144.00,0.0034
3143.00,0.0034
3142.00,0.0034
3141.00,0.0034
3140.00,0.0034
3139.00,0.0034
3138.00,0.0034
3137.00,0.0034
3136.00,0.0034
3135.00,0.0034
3134.00,0.0034
3133.00,0.0033
3132.00,0.0033
3131.00,0.0033
3130.00,0.0033
3129.00,0.0032
3128.00,0.0032
3127.00,0.0032
3126.00,0.0031
3125.00,0.0031
3124.00,0.0031
3123.00,0.0030
3122.00,0.0030
3121.00,0.0030
3120.00,0.0030
3119.00,0.0030
3118.00,0.0029
3117.00,0.0029
3116.00,0.0029
3115.00,0.0029
3114.00,0.0029
3113.00,0.0029
3112.00,0.0029
3111.00,0.0030
3110.00,0.0029
3109.00,0.0029
3108.00,0.0029
3107.00,0.0028
3106.00,0.0028
3105.00,0.0028
3104.00,0.0028
3103.00,0.0028
3102.00,0.0028
3101.00,0.0028
3100.00,0.0028
3099.00,0.0028
3098.00,0.0028
3097.00,0.0028
3096.00,0.0028
3095.00,0.0028
3094.00,0.0028
3093.00,0.0027
3092.00,0.0027
3091.00,0.0028
3090.00,0.0028
3089.00,0.0027
3088.00,0.0027
3087.00,0.0027
3086.00,0.0027
3085.00,0.0027
3084.00,0.0027
3083.00,0.0028
3082.00,0.0028
3081.00,0.0028
3080.00,0.0028
3079.00,0.0028
3078.00,0.0027
3077.00,0.0027
3076.00,0.0026
3075.00,0.0026
3074.00,0.0026
3073.00,0.0027
3072.00,0.0027
3071.00,0.0027
3070.00,0.0027
3069.00,0.0027
3068.00,0.0027
3067.00,0.0027
3066.00,0.0027
3065.00,0.0028
3064.00,0.0028
3063.00,0.0028
3062.00,0.0028
3061.00,0.0028
3060.00,0.0028
3059.00,0.0029
3058.00,0.0029
3057.00,0.0029
3056.00,0.0029
3055.00,0.0030
3054.00,0.0030
3053.00,0.0030
3052.00,0.0030
3051.00,0.0030
3050.00,0.0031
3049.00,0.0031
3048.00,0.0031
3047.00,0.0031
3046.00,0.0031
3045.00,0.0031
3044.00,0.0031
3043.00,0.0031
3042.00,0.0032
3041.00,0.0032
3040.00,0.0032
3039.00,0.0032
3038.00,0.0033
3037.00,0.0033
3036.00,0.0033
3035.00,0.0034
3034.00,0.0034
3033.00,0.0034
3032.00,0.0034
3031.00,0.0035
3030.00,0.0035
3029.00,0.0036
3028.00,0.0037
3027.00,0.0038
3026.00,0.0038
3025.00,0.0039
3024.00,0.0039
3023.00,0.0040
3022.00,0.0041
3021.00,0.0042
3020.00,0.0042
3019.00,0.0043
3018.00,0.0044
3017.00,0.0045
3016.00,0.0046
3015.00,0.0047
3014.00,0.0049
3013.00,0.0051
3012.00,0.0052
3011.00,0.0054
3010.00,0.0056
3009.00,0.0058
3008.00,0.0060
3007.00,0.0061
3006.00,0.0063
3005.00,0.0065
3004.00,0.0067
3003.00,0.0070
3002.00,0.0073
3001.00,0.0076
3000.00,0.0079
2999.00,0.0083
2998.00,0.0087
2997.00,0.0091
2996.00,0.0095
2995.00,0.0100
2994.00,0.0105
2993.00,0.0110
2992.00,0.0116
2991.00,0.0123
2990.00,0.0130
2989.00,0.0138
2988.00,0.0147
2987.00,0.0158
2986.00,0.0169
2985.00,0.0183
2984.00,0.0197
2983.00,0.0214
2982.00,0.0231
2981.00,0.0251
2980.00,0.0273
2979.00,0.0298
2978.00,0.0325
2977.00,0.0357
2976.00,0.0394
2975.00,0.0437
2974.00,0.0485
2973.00,0.0540
2972.00,0.0603
2971.00,0.0673
2970.00,0.0751
2969.00,0.0838
2968.00,0.0934
2967.00,0.1039
2966.00,0.1151
2965.00,0.1270
2964.00,0.1392
2963.00,0.1513
2962.00,0.1627
2961.00,0.1727
2960.00,0.1809
2959.00,0.1870
2958.00,0.1913
2957.00,0.1942
2956.00,0.1964
2955.00,0.1984
2954.00,0.2008
2953.00,0.2033
2952.00,0.2055
2951.00,0.2065
2950.00,0.2053
2949.00,0.2011
2948.00,0.1936
2947.00,0.1829
2946.00,0.1700
2945.00,0.1560
2944.00,0.1424
2943.00,0.1302
2942.00,0.1203
2941.00,0.1129
2940.00,0.1081
2939.00,0.1057
2938.00,0.1054
2937.00,0.1071
2936.00,0.1104
2935.00,0.1152
2934.00,0.1214
2933.00,0.1288
2932.00,0.1371
2931.00,0.1462
2930.00,0.1557
2929.00,0.1654
2928.00,0.1748
2927.00,0.1837
2926.00,0.1921
2925.00,0.2000
2924.00,0.2074
2923.00,0.2145
2922.00,0.2215
2921.00,0.2281
2920.00,0.2340
2919.00,0.2385
2918.00,0.2411
2917.00,0.2413
2916.00,0.2390
2915.00,0.2346
2914.00,0.2286
2913.00,0.2218
2912.00,0.2150
2911.00,0.2084
2910.00,0.2023
2909.00,0.1967
2908.00,0.1913
2907.00,0.1860
2906.00,0.1804
2905.00,0.1745
2904.00,0.1681
2903.00,0.1614
2902.00,0.1544
2901.00,0.1474
2900.00,0.1405
2899.00,0.1339
2898.00,0.1278
2897.00,0.1222
2896.00,0.1173
2895.00,0.1131
2894.00,0.1096
2893.00,0.1070
2892.00,0.1050
2891.00,0.1037
2890.00,0.1029
2889.00,0.1027
2888.00,0.1029
2887.00,0.1034
2886.00,0.1044
2885.00,0.1057
2884.00,0.1073
2883.00,0.1093
2882.00,0.1117
2881.00,0.1142
2880.00,0.1166
2879.00,0.1185
2878.00,0.1196
2877.00,0.1198
2876.00,0.1193
2875.00,0.1182
2874.00,0.1173
2873.00,0.1169
2872.00,0.1173
2871.00,0.1185
2870.00,0.1202
2869.00,0.1219
2868.00,0.1228
2867.00,0.1222
2866.00,0.1194
2865.00,0.1141
2864.00,0.1066
2863.00,0.0977
2862.00,0.0884
2861.00,0.0796
2860.00,0.0720
2859.00,0.0658
2858.00,0.0610
2857.00,0.0575
2856.00,0.0552
2855.00,0.0538
2854.00,0.0532
2853.00,0.0533
2852.00,0.0541
2851.00,0.0557
2850.00,0.0582
2849.00,0.0615
2848.00,0.0658
2847.00,0.0710
2846.00,0.0772
2845.00,0.0843
2844.00,0.0921
2843.00,0.1006
2842.00,0.1092
2841.00,0.1173
2840.00,0.1242
2839.00,0.1287
2838.00,0.1299
2837.00,0.1274
2836.00,0.1211
2835.00,0.1118
2834.00,0.1005
2833.00,0.0887
2832.00,0.0774
2831.00,0.0673
2830.00,0.0588
2829.00,0.0518
2828.00,0.0462
2827.00,0.0417
2826.00,0.0380
2825.00,0.0349
2824.00,0.0324
2823.00,0.0302
2822.00,0.0284
2821.00,0.0268
2820.00,0.0254
2819.00,0.0242
2818.00,0.0231
2817.00,0.0222
2816.00,0.0214
2815.00,0.0207
2814.00,0.0201
2813.00,0.0195
2812.00,0.0190
2811.00,0.0184
2810.00,0.0179
2809.00,0.0174
2808.00,0.0168
2807.00,0.0162
2806.00,0.0156
2805.00,0.0150
2804.00,0.0143
2803.00,0.0137
2802.00,0.0131
2801.00,0.0127
2800.00,0.0123
2799.00,0.0120
2798.00,0.0118
2797.00,0.0115
2796.00,0.0113
2795.00,0.0110
2794.00,0.0108
2793.00,0.0105
2792.00,0.0101
2791.00,0.0097
2790.00,0.0094
2789.00,0.0090
2788.00,0.0086
2787.00,0.0083
2786.00,0.0080
2785.00,0.0077
2784.00,0.0074
2783.00,0.0072
2782.00,0.0070
2781.00,0.0068
2780.00,0.0066
2779.00,0.0065
2778.00,0.0063
2777.00,0.0062
2776.00,0.0060
2775.00,0.0059
2774.00,0.0058
2773.00,0.0057
2772.00,0.0057
2771.00,0.0056
2770.00,0.0056
2769.00,0.0056
2768.00,0.0055
2767.00,0.0055
2766.00,0.0054
2765.00,0.0054
2764.00,0.0054
2763.00,0.0054
2762.00,0.0053
2761.00,0.0053
2760.00,0.0053
2759.00,0.0053
2758.00,0.0052
2757.00,0.0052
2756.00,0.0052
2755.00,0.0052
2754.00,0.0051
2753.00,0.0051
2752.00,0.0051
2751.00,0.0050
2750.00,0.0050
2749.00,0.0050
2748.00,0.0051
2747.00,0.0051
2746.00,0.0052
2745.00,0.0053
2744.00,0.0053
2743.00,0.0054
2742.00,0.0055
2741.00,0.0056
2740.00,0.0058
2739.00,0.0060
2738.00,0.0061
2737.00,0.0063
2736.00,0.0064
2735.00,0.0065
2734.00,0.0066
2733.00,0.0068
2732.00,0.0070
2731.00,0.0072
2730.00,0.0075
2729.00,0.0077
2728.00,0.0080
2727.00,0.0083
2726.00,0.0086
2725.00,0.0088
2724.00,0.0090
2723.00,0.0090
2722.00,0.0089
2721.00,0.0087
2720.00,0.0084
2719.00,0.0081
2718.00,0.0077
2717.00,0.0074
2716.00,0.0071
2715.00,0.0068
2714.00,0.0066
2713.00,0.0064
2712.00,0.0062
2711.00,0.0060
2710.00,0.0058
2709.00,0.0057
2708.00,0.0056
2707.00,0.0054
2706.00,0.0053
2705.00,0.0051
2704.00,0.0050
2703.00,0.0048
2702.00,0.0047
2701.00,0.0047
2700.00,0.0046
2699.00,0.0046
2698.00,0.0045
2697.00,0.0045
2696.00,0.0045
2695.00,0.0045
2694.00,0.0045
2693.00,0.0045
2692.00,0.0045
2691.00,0.0045
2690.00,0.0045
2689.00,0.0045
2688.00,0.0045
2687.00,0.0045
2686.00,0.0045
2685.00,0.0045
2684.00,0.0045
2683.00,0.0045
2682.00,0.0045
2681.00,0.0046
2680.00,0.0046
2679.00,0.0046
2678.00,0.0046
2677.00,0.0046
2676.00,0.0046
2675.00,0.0046
2674.00,0.0046
2673.00,0.0045
2672.00,0.0045
2671.00,0.0045
2670.00,0.0044
2669.00,0.0044
2668.00,0.0044
2667.00,0.0044
2666.00,0.0045
2665.00,0.0045
2664.00,0.0046
2663.00,0.0047
2662.00,0.0048
2661.00,0.0048
2660.00,0.0048
2659.00,0.0048
2658.00,0.0048
2657.00,0.0048
2656.00,0.0047
2655.00,0.0047
2654.00,0.0046
2653.00,0.0046
2652.00,0.0045
2651.00,0.0045
2650.00,0.0044
2649.00,0.0043
2648.00,0.0043
2647.00,0.0042
2646.00,0.0042
2645.00,0.0042
2644.00,0.0042
2643.00,0.0041
2642.00,0.0041
2641.00,0.0040
2640.00,0.0040
2639.00,0.0040
2638.00,0.0039
2637.00,0.0039
2636.00,0.0039
2635.00,0.0039
2634.00,0.0039
2633.00,0.0039
2632.00,0.0039
2631.00,0.0039
2630.00,0.0039
2629.00,0.0039
2628.00,0.0039
2627.00,0.0039
2626.00,0.0040
2625.00,0.0041
2624.00,0.0041
2623.00,0.0041
2622.00,0.0040
2621.00,0.0040
2620.00,0.0040
2619.00,0.0040
2618.00,0.0040
2617.00,0.0041
2616.00,0.0041
2615.00,0.0041
2614.00,0.0040
2613.00,0.0039
2612.00,0.0039
2611.00,0.0038
2610.00,0.0038
2609.00,0.0037
2608.00,0.0037
2607.00,0.0036
2606.00,0.0035
2605.00,0.0034
2604.00,0.0033
2603.00,0.0033
2602.00,0.0033
2601.00,0.0033
2600.00,0.0033
2599.00,0.0033
2598.00,0.0033
2597.00,0.0033
2596.00,0.0033
2595.00,0.0033
2594.00,0.0033
2593.00,0.0033
2592.00,0.0033
2591.00,0.0034
2590.00,0.0034
2589.00,0.0035
2588.00,0.0036
2587.00,0.0037
2586.00,0.0038
2585.00,0.0039
2584.00,0.0040
2583.00,0.0040
2582.00,0.0040
2581.00,0.0039
2580.00,0.0038
2579.00,0.0037
2578.00,0.0036
2577.00,0.0036
2576.00,0.0035
2575.00,0.0035
2574.00,0.0034
2573.00,0.0033
2572.00,0.0032
2571.00,0.0031
2570.00,0.0031
2569.00,0.0030
2568.00,0.0028
2567.00,0.0027
2566.00,0.0026
2565.00,0.0025
2564.00,0.0025
2563.00,0.0024
2562.00,0.0024
2561.00,0.0024
2560.00,0.0023
2559.00,0.0023
2558.00,0.0023
2557.00,0.0023
2556.00,0.0023
2555.00,0.0022
2554.00,0.0022
2553.00,0.0022
2552.00,0.0022
2551.00,0.0021
2550.00,0.0021
2549.00,0.0021
2548.00,0.0020
2547.00,0.0020
2546.00,0.0019
2545.00,0.0019
2544.00,0.0019
2543.00,0.0019
2542.00,0.0019
2541.00,0.0018
2540.00,0.0018
2539.00,0.0017
2538.00,0.0017
2537.00,0.0016
2536.00,0.0016
2535.00,0.0016
2534.00,0.0016
2533.00,0.0016
2532.00,0.0017
2531.00,0.0017
2530.00,0.0017
2529.00,0.0017
2528.00,0.0016
2527.00,0.0016
2526.00,0.0015
2525.00,0.0015
2524.00,0.0014
2523.00,0.0014
2522.00,0.0014
2521.00,0.0013
2520.00,0.0013
2519.00,0.0013
2518.00,0.0012
2517.00,0.0012
2516.00,0.0012
2515.00,0.0011
2514.00,0.0011
2513.00,0.0011
2512.00,0.0011
2511.00,0.0010
2510.00,0.0010
2509.00,0.0010
2508.00,0.0011
2507.00,0.0011
2506.00,0.0011
2505.00,0.0011
2504.00,0.0011
2503.00,0.0010
2502.00,0.0010
2501.00,0.0010
2500.00,0.0009
2499.00,0.0010
2498.00,0.0010
2497.00,0.0011
2496.00,0.0012
2495.00,0.0012
2494.00,0.0012
2493.00,0.0011
2492.00,0.0011
2491.00,0.0011
2490.00,0.0010
2489.00,0.0010
2488.00,0.0010
2487.00,0.0010
2486.00,0.0010
2485.00,0.0011
2484.00,0.0011
2483.00,0.0011
2482.00,0.0011
2481.00,0.0011
2480.00,0.0011
2479.00,0.0011
2478.00,0.0011
2477.00,0.0011
2476.00,0.0010
2475.00,0.0010
2474.00,0.0009
2473.00,0.0009
2472.00,0.0009
2471.00,0.0009
2470.00,0.0009
2469.00,0.0009
2468.00,0.0008
2467.00,0.0008
2466.00,0.0009
2465.00,0.0009
2464.00,0.0009
2463.00,0.0010
2462.00,0.0011
2461.00,0.0011
2460.00,0.0012
2459.00,0.0012
2458.00,0.0011
2457.00,0.0011
2456.00,0.0012
2455.00,0.0012
2454.00,0.0013
2453.00,0.0013
2452.00,0.0013
2451.00,0.0012
2450.00,0.0012
2449.00,0.0012
2448.00,0.0012
2447.00,0.0012
2446.00,0.0012
2445.00,0.0012
2444.00,0.0012
2443.00,0.0011
2442.00,0.0011
2441.00,0.0011
2440.00,0.0011
2439.00,0.0011
2438.00,0.0011
2437.00,0.0011
2436.00,0.0012
2435.00,0.0012
2434.00,0.0012
2433.00,0.0012
2432.00,0.0013
2431.00,0.0013
2430.00,0.0013
2429.00,0.0013
2428.00,0.0013
2427.00,0.0013
2426.00,0.0013
2425.00,0.0012
2424.00,0.0012
2423.00,0.0011
2422.00,0.0011
2421.00,0.0011
2420.00,0.0011
2419.00,0.0011
2418.00,0.0011
2417.00,0.0011
2416.00,0.0011
2415.00,0.0011
2414.00,0.0011
2413.00,0.0011
2412.00,0.0011
2411.00,0.0011
2410.00,0.0011
2409.00,0.0011
2408.00,0.0010
2407.00,0.0010
2406.00,0.0011
2405.00,0.0011
2404.00,0.0011
2403.00,0.0011
2402.00,0.0011
2401.00,0.0010
2400.00,0.0009
2399.00,0.0009
2398.00,0.0009
2397.00,0.0009
2396.00,0.0009
2395.00,0.0009
2394.00,0.0009
2393.00,0.0009
2392.00,0.0009
2391.00,0.0009
2390.00,0.0009
2389.00,0.0009
2388.00,0.0010
2387.00,0.0010
2386.00,0.0010
2385.00,0.0009
2384.00,0.0009
2383.00,0.0008
2382.00,0.0007
2381.00,0.0006
2380.00,0.0006
2379.00,0.0007
2378.00,0.0008
2377.00,0.0008
2376.00,0.0007
2375.00,0.0007
2374.00,0.0007
2373.00,0.0007
2372.00,0.0007
2371.00,0.0008
2370.00,0.0008
2369.00,0.0008
2368.00,0.0007
2367.00,0.0006
2366.00,0.0007
2365.00,0.0007
2364.00,0.0008
2363.00,0.0008
2362.00,0.0009
2361.00,0.0010
2360.00,0.0010
2359.00,0.0009
2358.00,0.0008
2357.00,0.0007
2356.00,0.0007
2355.00,0.0007
2354.00,0.0007
2353.00,0.0007
2352.00,0.0007
2351.00,0.0007
2350.00,0.0008
2349.00,0.0008
2348.00,0.0009
2347.00,0.0009
2346.00,0.0009
2345.00,0.0009
2344.00,0.0009
2343.00,0.0010
2342.00,0.0010
2341.00,0.0010
2340.00,0.0010
2339.00,0.0010
2338.00,0.0010
2337.00,0.0010
2336.00,0.0010
2335.00,0.0010
2334.00,0.0010
2333.00,0.0009
2332.00,0.0008
2331.00,0.0008
2330.00,0.0008
2329.00,0.0008
2328.00,0.0011
2327.00,0.0014
2326.00,0.0019
2325.00,0.0023
2324.00,0.0025
2323.00,0.0024
2322.00,0.0022
2321.00,0.0019
2320.00,0.0016
2319.00,0.0015
2318.00,0.0014
2317.00,0.0014
2316.00,0.0014
2315.00,0.0013
2314.00,0.0012
2313.00,0.0011
2312.00,0.0011
2311.00,0.0011
2310.00,0.0011
2309.00,0.0011
2308.00,0.0011
2307.00,0.0011
2306.00,0.0011
2305.00,0.0011
2304.00,0.0011
2303.00,0.0011
2302.00,0.0011
2301.00,0.0011
2300.00,0.0011
2299.00,0.0011
2298.00,0.0012
2297.00,0.0012
2296.00,0.0013
2295.00,0.0014
2294.00,0.0014
2293.00,0.0015
2292.00,0.0015
2291.00,0.0015
2290.00,0.0016
2289.00,0.0018
2288.00,0.0019
2287.00,0.0019
2286.00,0.0020
2285.00,0.0020
2284.00,0.0019
2283.00,0.0018
2282.00,0.0017
2281.00,0.0016
2280.00,0.0016
2279.00,0.0016
2278.00,0.0016
2277.00,0.0016
2276.00,0.0016
2275.00,0.0015
2274.00,0.0015
2273.00,0.0014
2272.00,0.0014
2271.00,0.0013
2270.00,0.0013
2269.00,0.0014
2268.00,0.0014
2267.00,0.0013
2266.00,0.0012
2265.00,0.0011
2264.00,0.0011
2263.00,0.0011
2262.00,0.0010
2261.00,0.0009
2260.00,0.0009
2259.00,0.0011
2258.00,0.0012
2257.00,0.0013
2256.00,0.0013
2255.00,0.0013
2254.00,0.0012
2253.00,0.0011
2252.00,0.0010
2251.00,0.0008
2250.00,0.0007
2249.00,0.0006
2248.00,0.0006
2247.00,0.0007
2246.00,0.0009
2245.00,0.0010
2244.00,0.0011
2243.00,0.0011
2242.00,0.0010
2241.00,0.0009
2240.00,0.0009
2239.00,0.0010
2238.00,0.0010
2237.00,0.0009
2236.00,0.0007
2235.00,0.0006
2234.00,0.0005
2233.00,0.0006
2232.00,0.0008
2231.00,0.0009
2230.00,0.0008
2229.00,0.0007
2228.00,0.0006
2227.00,0.0005
2226.00,0.0006
2225.00,0.0007
2224.00,0.0008
2223.00,0.0008
2222.00,0.0008
2221.00,0.0008
2220.00,0.0007
2219.00,0.0005
2218.00,0.0005
2217.00,0.0005
2216.00,0.0007
2215.00,0.0008
2214.00,0.0009
2213.00,0.0009
2212.00,0.0008
2211.00,0.0006
2210.00,0.0005
2209.00,0.0005
2208.00,0.0006
2207.00,0.0007
2206.00,0.0008
2205.00,0.0008
2204.00,0.0009
2203.00,0.0008
2202.00,0.0008
2201.00,0.0008
2200.00,0.0008
2199.00,0.0009
2198.00,0.0009
2197.00,0.0008
2196.00,0.0007
2195.00,0.0007
2194.00,0.0008
2193.00,0.0012
2192.00,0.0014
2191.00,0.0014
2190.00,0.0012
2189.00,0.0009
2188.00,0.0007
2187.00,0.0007
2186.00,0.0009
2185.00,0.0012
2184.00,0.0014
2183.00,0.0014
2182.00,0.0011
2181.00,0.0008
2180.00,0.0006
2179.00,0.0006
2178.00,0.0007
2177.00,0.0006
2176.00,0.0004
2175.00,0.0001
2174.00,-0.0001
2173.00,-0.0002
2172.00,0.0000
2171.00,0.0002
2170.00,0.0006
2169.00,0.0010
2168.00,0.0014
2167.00,0.0016
2166.00,0.0016
2165.00,0.0015
2164.00,0.0016
2163.00,0.0018
2162.00,0.0019
2161.00,0.0015
2160.00,0.0005
2159.00,-0.0010
2158.00,-0.0021
2157.00,-0.0025
2156.00,-0.0024
2155.00,-0.0023
2154.00,-0.0022
2153.00,-0.0021
2152.00,-0.0020
2151.00,-0.0018
2150.00,-0.0018
2149.00,-0.0017
2148.00,-0.0015
2147.00,-0.0015
2146.00,-0.0015
2145.00,-0.0015
2144.00,-0.0015
2143.00,-0.0016
2142.00,-0.0016
2141.00,-0.0016
2140.00,-0.0015
2139.00,-0.0014
2138.00,-0.0012
2137.00,-0.0012
2136.00,-0.0013
2135.00,-0.0016
2134.00,-0.0018
2133.00,-0.0019
2132.00,-0.0018
2131.00,-0.0016
2130.00,-0.0014
2129.00,-0.0011
2128.00,-0.0009
2127.00,-0.0008
2126.00,-0.0007
2125.00,-0.0006
2124.00,-0.0005
2123.00,-0.0003
2122.00,-0.0001
2121.00,-0.0001
2120.00,-0.0001
2119.00,-0.0002
2118.00,-0.0002
2117.00,-0.0001
2116.00,0.0001
2115.00,0.0002
2114.00,0.0003
2113.00,0.0003
2112.00,0.0003
2111.00,0.0003
2110.00,0.0003
2109.00,0.0004
2108.00,0.0004
2107.00,0.0003
2106.00,0.0003
2105.00,0.0002
2104.00,0.0003
2103.00,0.0004
2102.00,0.0006
2101.00,0.0008
2100.00,0.0008
2099.00,0.0006
2098.00,0.0004
2097.00,0.0001
2096.00,-0.0002
2095.00,-0.0004
2094.00,-0.0006
2093.00,-0.0005
2092.00,-0.0004
2091.00,-0.0002
2090.00,-0.0001
2089.00,-0.0001
2088.00,-0.0001
2087.00,-0.0001
2086.00,-0.0001
2085.00,-0.0001
2084.00,-0.0001
2083.00,0.0000
2082.00,0.0002
2081.00,0.0004
2080.00,0.0005
2079.00,0.0004
2078.00,0.0003
2077.00,0.0002
2076.00,0.0002
2075.00,0.0002
2074.00,0.0003
2073.00,0.0003
2072.00,0.0003
2071.00,0.0002
2070.00,0.0001
2069.00,0.0000
2068.00,-0.0000
2067.00,-0.0000
2066.00,-0.0000
2065.00,0.0000
2064.00,0.0001
2063.00,0.0000
2062.00,-0.0001
2061.00,-0.0001
2060.00,-0.0001
2059.00,-0.0000
2058.00,0.0001
2057.00,0.0001
2056.00,0.0001
2055.00,0.0000
2054.00,0.0000
2053.00,0.0003
2052.00,0.0008
2051.00,0.0012
2050.00,0.0013
2049.00,0.0011
2048.00,0.0007
2047.00,0.0003
2046.00,0.0000
2045.00,-0.0001
2044.00,-0.0001
2043.00,-0.0000
2042.00,-0.0000
2041.00,-0.0000
2040.00,-0.0000
2039.00,-0.0000
2038.00,0.0000
2037.00,-0.0000
2036.00,-0.0001
2035.00,-0.0002
2034.00,-0.0003
2033.00,-0.0003
2032.00,-0.0003
2031.00,-0.0005
2030.00,-0.0007
2029.00,-0.0008
2028.00,-0.0010
2027.00,-0.0010
2026.00,-0.0010
2025.00,-0.0009
2024.00,-0.0007
2023.00,-0.0006
2022.00,-0.0006
2021.00,-0.0007
2020.00,-0.0009
2019.00,-0.0012
2018.00,-0.0015
2017.00,-0.0017
2016.00,-0.0017
2015.00,-0.0016
2014.00,-0.0014
2013.00,-0.0011
2012.00,-0.0008
2011.00,-0.0007
2010.00,-0.0009
2009.00,-0.0012
2008.00,-0.0015
2007.00,-0.0017
2006.00,-0.0017
2005.00,-0.0015
2004.00,-0.0013
2003.00,-0.0012
2002.00,-0.0011
2001.00,-0.0011
2000.00,-0.0010
1999.00,-0.0009
1998.00,-0.0009
1997.00,-0.0010
1996.00,-0.0010
1995.00,-0.0010
1994.00,-0.0010
1993.00,-0.0010
1992.00,-0.0009
1991.00,-0.0007
1990.00,-0.0006
1989.00,-0.0004
1988.00,-0.0002
1987.00,-0.0002
1986.00,-0.0001
1985.00,0.0000
1984.00,0.0002
1983.00,0.0004
1982.00,0.0006
1981.00,0.0008
1980.00,0.0008
1979.00,0.0004
1978.00,-0.0004
1977.00,-0.0013
1976.00,-0.0019
1975.00,-0.0022
1974.00,-0.0022
1973.00,-0.0019
1972.00,-0.0016
1971.00,-0.0014
1970.00,-0.0013
1969.00,-0.0013
1968.00,-0.0013
1967.00,-0.0013
1966.00,-0.0015
1965.00,-0.0016
1964.00,-0.0016
1963.00,-0.0016
1962.00,-0.0014
1961.00,-0.0013
1960.00,-0.0013
1959.00,-0.0014
1958.00,-0.0015
1957.00,-0.0016
1956.00,-0.0017
1955.00,-0.0017
1954.00,-0.0017
1953.00,-0.0017
1952.00,-0.0016
1951.00,-0.0015
1950.00,-0.0014
1949.00,-0.0014
1948.00,-0.0014
1947.00,-0.0013
1946.00,-0.0012
1945.00,-0.0011
1944.00,-0.0010
1943.00,-0.0010
1942.00,-0.0012
1941.00,-0.0014
1940.00,-0.0015
1939.00,-0.0015
1938.00,-0.0013
1937.00,-0.0011
1936.00,-0.0009
1935.00,-0.0009
1934.00,-0.0009
1933.00,-0.0009
1932.00,-0.0009
1931.00,-0.0009
1930.00,-0.0009
1929.00,-0.0009
1928.00,-0.0008
1927.00,-0.0007
1926.00,-0.0007
1925.00,-0.0008
1924.00,-0.0008
1923.00,-0.0008
1922.00,-0.0007
1921.00,-0.0005
1920.00,-0.0004
1919.00,-0.0003
1918.00,-0.0002
1917.00,-0.0003
1916.00,-0.0003
1915.00,-0.0004
1914.00,-0.0004
1913.00,-0.0004
1912.00,-0.0004
1911.00,-0.0003
1910.00,-0.0003
1909.00,-0.0002
1908.00,-0.0002
1907.00,-0.0002
1906.00,-0.0002
1905.00,-0.0003
1904.00,-0.0003
1903.00,-0.0003
1902.00,-0.0002
1901.00,-0.0002
1900.00,-0.0001
1899.00,-0.0000
1898.00,-0.0001
1897.00,-0.0001
1896.00,-0.0001
1895.00,-0.0001
1894.00,-0.0001
1893.00,-0.0001
1892.00,-0.0001
1891.00,-0.0001
1890.00,-0.0002
1889.00,-0.0002
1888.00,-0.0002
1887.00,-0.0002
1886.00,-0.0001
1885.00,-0.0000
1884.00,0.0001
1883.00,0.0001
1882.00,0.0001
1881.00,0.0001
1880.00,0.0001
1879.00,0.0001
1878.00,0.0001
1877.00,0.0001
1876.00,0.0001
1875.00,0.0001
1874.00,0.0001
1873.00,0.0000
1872.00,-0.0000
1871.00,-0.0001
1870.00,-0.0001
1869.00,-0.0001
1868.00,-0.0001
1867.00,-0.0001
1866.00,-0.0001
1865.00,-0.0001
1864.00,-0.0001
1863.00,0.0000
1862.00,0.0001
1861.00,0.0002
1860.00,0.0001
1859.00,0.0000
1858.00,-0.0000
1857.00,-0.0000
1856.00,0.0000
1855.00,0.0001
1854.00,0.0001
1853.00,0.0001
1852.00,0.0001
1851.00,0.0000
1850.00,-0.0000
1849.00,0.0000
1848.00,0.0000
1847.00,0.0001
1846.00,0.0001
1845.00,0.0001
1844.00,0.0002
1843.00,0.0002
1842.00,0.0002
1841.00,0.0002
1840.00,0.0002
1839.00,0.0002
1838.00,0.0002
1837.00,0.0002
1836.00,0.0002
1835.00,0.0002
1834.00,0.0002
1833.00,0.0003
1832.00,0.0003
1831.00,0.0004
1830.00,0.0004
1829.00,0.0004
1828.00,0.0003
1827.00,0.0003
1826.00,0.0003
1825.00,0.0003
1824.00,0.0004
1823.00,0.0004
1822.00,0.0004
1821.00,0.0003
1820.00,0.0003
1819.00,0.0002
1818.00,0.0001
1817.00,0.0000
1816.00,-0.0000
1815.00,0.0000
1814.00,0.0001
1813.00,0.0002
1812.00,0.0003
1811.00,0.0003
1810.00,0.0003
1809.00,0.0004
1808.00,0.0004
1807.00,0.0004
1806.00,0.0004
1805.00,0.0004
1804.00,0.0004
1803.00,0.0004
1802.00,0.0004
1801.00,0.0004
1800.00,0.0004
1799.00,0.0005
1798.00,0.0006
1797.00,0.0006
1796.00,0.0006
1795.00,0.0006
1794.00,0.0006
1793.00,0.0006
1792.00,0.0007
1791.00,0.0008
1790.00,0.0008
1789.00,0.0008
1788.00,0.0008
1787.00,0.0008
1786.00,0.0008
1785.00,0.0008
1784.00,0.0008
1783.00,0.0008
1782.00,0.0009
1781.00,0.0008
1780.00,0.0008
1779.00,0.0008
1778.00,0.0008
1777.00,0.0008
1776.00,0.0008
1775.00,0.0008
1774.00,0.0008
1773.00,0.0009
1772.00,0.0009
1771.00,0.0010
1770.00,0.0009
1769.00,0.0009
1768.00,0.0010
1767.00,0.0010
1766.00,0.0010
1765.00,0.0010
1764.00,0.0010
1763.00,0.0010
1762.00,0.0010
1761.00,0.0010
1760.00,0.0010
1759.00,0.0011
1758.00,0.0011
1757.00,0.0011
1756.00,0.0011
1755.00,0.0012
1754.00,0.0011
1753.00,0.0012
1752.00,0.0012
1751.00,0.0014
1750.00,0.0014
1749.00,0.0015
1748.00,0.0015
1747.00,0.0015
1746.00,0.0014
1745.00,0.0014
1744.00,0.0014
1743.00,0.0015
1742.00,0.0015
1741.00,0.0015
1740.00,0.0016
1739.00,0.0017
1738.00,0.0017
1737.00,0.0018
1736.00,0.0018
1735.00,0.0018
1734.00,0.0018
1733.00,0.0018
1732.00,0.0018
1731.00,0.0018
1730.00,0.0018
1729.00,0.0018
1728.00,0.0018
1727.00,0.0019
1726.00,0.0019
1725.00,0.0019
1724.00,0.0019
1723.00,0.0019
1722.00,0.0020
1721.00,0.0020
1720.00,0.0020
1719.00,0.0020
1718.00,0.0020
1717.00,0.0021
1716.00,0.0021
1715.00,0.0021
1714.00,0.0020
1713.00,0.0020
1712.00,0.0020
1711.00,0.0021
1710.00,0.0022
1709.00,0.0023
1708.00,0.0023
1707.00,0.0024
1706.00,0.0025
1705.00,0.0026
1704.00,0.0027
1703.00,0.0027
1702.00,0.0028
1701.00,0.0029
1700.00,0.0030
1699.00,0.0031
1698.00,0.0031
1697.00,0.0032
1696.00,0.0033
1695.00,0.0035
1694.00,0.0036
1693.00,0.0036
1692.00,0.0038
1691.00,0.0039
1690.00,0.0041
1689.00,0.0043
1688.00,0.0046
1687.00,0.0048
1686.00,0.0049
1685.00,0.0051
1684.00,0.0052
1683.00,0.0053
1682.00,0.0054
1681.00,0.0055
1680.00,0.0057
1679.00,0.0058
1678.00,0.0060
1677.00,0.0061
1676.00,0.0062
1675.00,0.0063
1674.00,0.0064
1673.00,0.0064
1672.00,0.0065
1671.00,0.0066
1670.00,0.0066
1669.00,0.0067
1668.00,0.0067
1667.00,0.0068
1666.00,0.0068
1665.00,0.0069
1664.00,0.0069
1663.00,0.0069
1662.00,0.0069
1661.00,0.0069
1660.00,0.0069
1659.00,0.0069
1658.00,0.0069
1657.00,0.0069
1656.00,0.0069
1655.00,0.0069
1654.00,0.0069
1653.00,0.0069
1652.00,0.0069
1651.00,0.0068
1650.00,0.0067
1649.00,0.0067
1648.00,0.0067
1647.00,0.0067
1646.00,0.0067
1645.00,0.0066
1644.00,0.0065
1643.00,0.0064
1642.00,0.0063
1641.00,0.0063
1640.00,0.0063
1639.00,0.0062
1638.00,0.0062
1637.00,0.0061
1636.00,0.0059
1635.00,0.0058
1634.00,0.0058
1633.00,0.0058
1632.00,0.0059
1631.00,0.0058
1630.00,0.0058
1629.00,0.0057
1628.00,0.0057
1627.00,0.0056
1626.00,0.0055
1625.00,0.0054
1624.00,0.0054
1623.00,0.0054
1622.00,0.0054
1621.00,0.0053
1620.00,0.0053
1619.00,0.0053
1618.00,0.0053
1617.00,0.0053
1616.00,0.0052
1615.00,0.0051
1614.00,0.0051
1613.00,0.0051
1612.00,0.0051
1611.00,0.0051
1610.00,0.0051
1609.00,0.0050
1608.00,0.0050
1607.00,0.0049
1606.00,0.0049
1605.00,0.0049
1604.00,0.0049
1603.00,0.0049
1602.00,0.0048
1601.00,0.0048
1600.00,0.0048
1599.00,0.0048
1598.00,0.0048
1597.00,0.0048
1596.00,0.0048
1595.00,0.0048
1594.00,0.0047
1593.00,0.0047
1592.00,0.0047
1591.00,0.0046
1590.00,0.0046
1589.00,0.0046
1588.00,0.0046
1587.00,0.0046
1586.00,0.0045
1585.00,0.0045
1584.00,0.0044
1583.00,0.0044
1582.00,0.0044
1581.00,0.0044
1580.00,0.0044
1579.00,0.0043
1578.00,0.0043
1577.00,0.0043
1576.00,0.0043
1575.00,0.0043
1574.00,0.0043
1573.00,0.0044
1572.00,0.0044
1571.00,0.0044
1570.00,0.0045
1569.00,0.0045
1568.00,0.0046
1567.00,0.0046
1566.00,0.0047
1565.00,0.0048
1564.00,0.0048
1563.00,0.0049
1562.00,0.0049
1561.00,0.0049
1560.00,0.0050
1559.00,0.0049
1558.00,0.0048
1557.00,0.0048
1556.00,0.0049
1555.00,0.0049
1554.00,0.0049
1553.00,0.0050
1552.00,0.0050
1551.00,0.0050
1550.00,0.0050
1549.00,0.0050
1548.00,0.0051
1547.00,0.0050
1546.00,0.0049
1545.00,0.0047
1544.00,0.0046
1543.00,0.0044
1542.00,0.0043
1541.00,0.0043
1540.00,0.0044
1539.00,0.0045
1538.00,0.0045
1537.00,0.0045
1536.00,0.0046
1535.00,0.0046
1534.00,0.0046
1533.00,0.0046
1532.00,0.0047
1531.00,0.0047
1530.00,0.0047
1529.00,0.0048
1528.00,0.0048
1527.00,0.0048
1526.00,0.0049
1525.00,0.0050
1524.00,0.0051
1523.00,0.0051
1522.00,0.0050
1521.00,0.0050
1520.00,0.0050
1519.00,0.0050
1518.00,0.0050
1517.00,0.0051
1516.00,0.0052
1515.00,0.0053
1514.00,0.0053
1513.00,0.0054
1512.00,0.0056
1511.00,0.0056
1510.00,0.0057
1509.00,0.0058
1508.00,0.0061
1507.00,0.0062
1506.00,0.0062
1505.00,0.0064
1504.00,0.0065
1503.00,0.0066
1502.00,0.0067
1501.00,0.0069
1500.00,0.0071
1499.00,0.0073
1498.00,0.0075
1497.00,0.0078
1496.00,0.0082
1495.00,0.0084
1494.00,0.0086
1493.00,0.0089
1492.00,0.0091
1491.00,0.0094
1490.00,0.0097
1489.00,0.0101
1488.00,0.0105
1487.00,0.0110
1486.00,0.0114
1485.00,0.0120
1484.00,0.0126
1483.00,0.0133
1482.00,0.0141
1481.00,0.0151
1480.00,0.0162
1479.00,0.0173
1478.00,0.0187
1477.00,0.0205
1476.00,0.0227
1475.00,0.0252
1474.00,0.0286
1473.00,0.0338
1472.00,0.0402
1471.00,0.0465
1470.00,0.0527
1469.00,0.0591
1468.00,0.0661
1467.00,0.0737
1466.00,0.0825
1465.00,0.0922
1464.00,0.1010
1463.00,0.1074
1462.00,0.1119
1461.00,0.1154
1460.00,0.1182
1459.00,0.1204
1458.00,0.1227
1457.00,0.1250
1456.00,0.1265
1455.00,0.1269
1454.00,0.1267
1453.00,0.1260
1452.00,0.1242
1451.00,0.1211
1450.00,0.1161
1449.00,0.1086
1448.00,0.0987
1447.00,0.0881
1446.00,0.0784
1445.00,0.0700
1444.00,0.0629
1443.00,0.0571
1442.00,0.0527
1441.00,0.0496
1440.00,0.0477
1439.00,0.0467
1438.00,0.0463
1437.00,0.0459
1436.00,0.0444
1435.00,0.0416
1434.00,0.0377
1433.00,0.0331
1432.00,0.0284
1431.00,0.0243
1430.00,0.0212
1429.00,0.0190
1428.00,0.0175
1427.00,0.0165
1426.00,0.0159
1425.00,0.0153
1424.00,0.0148
1423.00,0.0144
1422.00,0.0142
1421.00,0.0139
1420.00,0.0135
1419.00,0.0131
1418.00,0.0129
1417.00,0.0126
1416.00,0.0123
1415.00,0.0122
1414.00,0.0121
1413.00,0.0120
1412.00,0.0118
1411.00,0.0118
1410.00,0.0118
1409.00,0.0117
1408.00,0.0116
1407.00,0.0116
1406.00,0.0117
1405.00,0.0117
1404.00,0.0117
1403.00,0.0118
1402.00,0.0120
1401.00,0.0121
1400.00,0.0122
1399.00,0.0124
1398.00,0.0127
1397.00,0.0129
1396.00,0.0132
1395.00,0.0136
1394.00,0.0142
1393.00,0.0148
1392.00,0.0155
1391.00,0.0165
1390.00,0.0177
1389.00,0.0195
1388.00,0.0222
1387.00,0.0263
1386.00,0.0316
1385.00,0.0383
1384.00,0.0470
1383.00,0.0585
1382.00,0.0733
1381.00,0.0918
1380.00,0.1140
1379.00,0.1389
1378.00,0.1625
1377.00,0.1798
1376.00,0.1857
1375.00,0.1771
1374.00,0.1560
1373.00,0.1300
1372.00,0.1059
1371.00,0.0856
1370.00,0.0692
1369.00,0.0565
1368.00,0.0476
1367.00,0.0420
1366.00,0.0390
1365.00,0.0378
1364.00,0.0381
1363.00,0.0395
1362.00,0.0417
1361.00,0.0440
1360.00,0.0456
1359.00,0.0459
1358.00,0.0446
1357.00,0.0419
1356.00,0.0381
1355.00,0.0339
1354.00,0.0298
1353.00,0.0262
1352.00,0.0234
1351.00,0.0211
1350.00,0.0193
1349.00,0.0178
1348.00,0.0167
1347.00,0.0158
1346.00,0.0150
1345.00,0.0144
1344.00,0.0139
1343.00,0.0135
1342.00,0.0132
1341.00,0.0129
1340.00,0.0126
1339.00,0.0123
1338.00,0.0122
1337.00,0.0121
1336.00,0.0121
1335.00,0.0124
1334.00,0.0127
1333.00,0.0132
1332.00,0.0136
1331.00,0.0140
1330.00,0.0141
1329.00,0.0140
1328.00,0.0137
1327.00,0.0132
1326.00,0.0126
1325.00,0.0120
1324.00,0.0114
1323.00,0.0109
1322.00,0.0104
1321.00,0.0101
1320.00,0.0098
1319.00,0.0096
1318.00,0.0094
1317.00,0.0092
1316.00,0.0090
1315.00,0.0089
1314.00,0.0088
1313.00,0.0089
1312.00,0.0091
1311.00,0.0094
1310.00,0.0100
1309.00,0.0109
1308.00,0.0121
1307.00,0.0136
1306.00,0.0151
1305.00,0.0161
1304.00,0.0165
1303.00,0.0161
1302.00,0.0154
1301.00,0.0146
1300.00,0.0141
1299.00,0.0139
1298.00,0.0139
1297.00,0.0139
1296.00,0.0138
1295.00,0.0136
1294.00,0.0132
1293.00,0.0127
1292.00,0.0122
1291.00,0.0117
1290.00,0.0112
1289.00,0.0108
1288.00,0.0104
1287.00,0.0101
1286.00,0.0098
1285.00,0.0095
1284.00,0.0093
1283.00,0.0090
1282.00,0.0089
1281.00,0.0087
1280.00,0.0086
1279.00,0.0085
1278.00,0.0084
1277.00,0.0083
1276.00,0.0083
1275.00,0.0083
1274.00,0.0083
1273.00,0.0083
1272.00,0.0083
1271.00,0.0084
1270.00,0.0084
1269.00,0.0085
1268.00,0.0085
1267.00,0.0086
1266.00,0.0088
1265.00,0.0090
1264.00,0.0093
1263.00,0.0097
1262.00,0.0101
1261.00,0.0107
1260.00,0.0115
1259.00,0.0124
1258.00,0.0134
1257.00,0.0143
1256.00,0.0147
1255.00,0.0146
1254.00,0.0139
1253.00,0.0128
1252.00,0.0117
1251.00,0.0108
1250.00,0.0102
1249.00,0.0097
1248.00,0.0095
1247.00,0.0092
1246.00,0.0091
1245.00,0.0089
1244.00,0.0088
1243.00,0.0087
1242.00,0.0086
1241.00,0.0084
1240.00,0.0083
1239.00,0.0082
1238.00,0.0081
1237.00,0.0080
1236.00,0.0080
1235.00,0.0079
1234.00,0.0078
1233.00,0.0077
1232.00,0.0076
1231.00,0.0076
1230.00,0.0076
1229.00,0.0077
1228.00,0.0077
1227.00,0.0078
1226.00,0.0079
1225.00,0.0081
1224.00,0.0084
1223.00,0.0087
1222.00,0.0090
1221.00,0.0093
1220.00,0.0094
1219.00,0.0094
1218.00,0.0093
1217.00,0.0092
1216.00,0.0090
1215.00,0.0088
1214.00,0.0085
1213.00,0.0082
1212.00,0.0080
1211.00,0.0077
1210.00,0.0075
1209.00,0.0073
1208.00,0.0071
1207.00,0.0070
1206.00,0.0069
1205.00,0.0068
1204.00,0.0068
1203.00,0.0068
1202.00,0.0067
1201.00,0.0067
1200.00,0.0067
1199.00,0.0067
1198.00,0.0067
1197.00,0.0066
1196.00,0.0066
1195.00,0.0066
1194.00,0.0066
1193.00,0.0067
1192.00,0.0067
1191.00,0.0067
1190.00,0.0067
1189.00,0.0067
1188.00,0.0068
1187.00,0.0069
1186.00,0.0070
1185.00,0.0071
1184.00,0.0072
1183.00,0.0073
1182.00,0.0076
1181.00,0.0080
1180.00,0.0085
1179.00,0.0092
1178.00,0.0101
1177.00,0.0113
1176.00,0.0129
1175.00,0.0149
1174.00,0.0176
1173.00,0.0209
1172.00,0.0249
1171.00,0.0292
1170.00,0.0335
1169.00,0.0371
1168.00,0.0393
1167.00,0.0399
1166.00,0.0389
1165.00,0.0369
1164.00,0.0344
1163.00,0.0318
1162.00,0.0294
1161.00,0.0274
1160.00,0.0258
1159.00,0.0244
1158.00,0.0234
1157.00,0.0226
1156.00,0.0220
1155.00,0.0216
1154.00,0.0212
1153.00,0.0207
1152.00,0.0201
1151.00,0.0193
1150.00,0.0184
1149.00,0.0174
1148.00,0.0164
1147.00,0.0153
1146.00,0.0144
1145.00,0.0135
1144.00,0.0127
1143.00,0.0120
1142.00,0.0114
1141.00,0.0108
1140.00,0.0103
1139.00,0.0097
1138.00,0.0093
1137.00,0.0089
1136.00,0.0086
1135.00,0.0084
1134.00,0.0082
1133.00,0.0081
1132.00,0.0080
1131.00,0.0079
1130.00,0.0078
1129.00,0.0079
1128.00,0.0080
1127.00,0.0081
1126.00,0.0081
1125.00,0.0081
1124.00,0.0081
1123.00,0.0081
1122.00,0.0080
1121.00,0.0080
1120.00,0.0081
1119.00,0.0081
1118.00,0.0082
1117.00,0.0082
1116.00,0.0083
1115.00,0.0083
1114.00,0.0085
1113.00,0.0086
1112.00,0.0088
1111.00,0.0091
1110.00,0.0095
1109.00,0.0100
1108.00,0.0105
1107.00,0.0111
1106.00,0.0118
1105.00,0.0125
1104.00,0.0131
1103.00,0.0135
1102.00,0.0136
1101.00,0.0134
1100.00,0.0130
1099.00,0.0123
1098.00,0.0116
1097.00,0.0109
1096.00,0.0103
1095.00,0.0100
1094.00,0.0097
1093.00,0.0095
1092.00,0.0093
1091.00,0.0091
1090.00,0.0089
1089.00,0.0087
1088.00,0.0086
1087.00,0.0085
1086.00,0.0084
1085.00,0.0084
1084.00,0.0084
1083.00,0.0084
1082.00,0.0083
1081.00,0.0082
1080.00,0.0081
1079.00,0.0080
1078.00,0.0078
1077.00,0.0077
1076.00,0.0076
1075.00,0.0075
1074.00,0.0075
1073.00,0.0074
1072.00,0.0075
1071.00,0.0075
1070.00,0.0075
1069.00,0.0075
1068.00,0.0075
1067.00,0.0076
1066.00,0.0076
1065.00,0.0076
1064.00,0.0077
1063.00,0.0078
1062.00,0.0078
1061.00,0.0078
1060.00,0.0077
1059.00,0.0077
1058.00,0.0078
1057.00,0.0078
1056.00,0.0079
1055.00,0.0080
1054.00,0.0081
1053.00,0.0083
1052.00,0.0085
1051.00,0.0088
1050.00,0.0091
1049.00,0.0095
1048.00,0.0099
1047.00,0.0103
1046.00,0.0106
1045.00,0.0108
1044.00,0.0107
1043.00,0.0104
1042.00,0.0100
1041.00,0.0096
1040.00,0.0092
1039.00,0.0090
1038.00,0.0089
1037.00,0.0089
1036.00,0.0089
1035.00,0.0089
1034.00,0.0089
1033.00,0.0089
1032.00,0.0089
1031.00,0.0089
1030.00,0.0090
1029.00,0.0090
1028.00,0.0090
1027.00,0.0090
1026.00,0.0090
1025.00,0.0090
1024.00,0.0090
1023.00,0.0091
1022.00,0.0092
1021.00,0.0093
1020.00,0.0094
1019.00,0.0095
1018.00,0.0097
1017.00,0.0099
1016.00,0.0101
1015.00,0.0104
1014.00,0.0108
1013.00,0.0112
1012.00,0.0116
1011.00,0.0121
1010.00,0.0125
1009.00,0.0131
1008.00,0.0138
1007.00,0.0148
1006.00,0.0160
1005.00,0.0176
1004.00,0.0196
1003.00,0.0223
1002.00,0.0261
1001.00,0.0307
1000.00,0.0358
999.00,0.0402
998.00,0.0426
997.00,0.0422
996.00,0.0390
995.00,0.0340
994.00,0.0286
993.00,0.0238
992.00,0.0201
991.00,0.0173
990.00,0.0153
989.00,0.0139
988.00,0.0131
987.00,0.0126
986.00,0.0125
985.00,0.0127
984.00,0.0131
983.00,0.0140
982.00,0.0153
981.00,0.0172
980.00,0.0198
979.00,0.0233
978.00,0.0277
977.00,0.0330
976.00,0.0389
975.00,0.0448
974.00,0.0494
973.00,0.0516
972.00,0.0505
971.00,0.0463
970.00,0.0400
969.00,0.0332
968.00,0.0272
967.00,0.0224
966.00,0.0189
965.00,0.0164
964.00,0.0145
963.00,0.0131
962.00,0.0120
961.00,0.0112
960.00,0.0105
959.00,0.0100
958.00,0.0097
957.00,0.0094
956.00,0.0091
955.00,0.0088
954.00,0.0086
953.00,0.0084
952.00,0.0083
951.00,0.0082
950.00,0.0082
949.00,0.0081
948.00,0.0081
947.00,0.0081
946.00,0.0082
945.00,0.0085
944.00,0.0089
943.00,0.0092
942.00,0.0095
941.00,0.0096
940.00,0.0096
939.00,0.0094
938.00,0.0090
937.00,0.0085
936.00,0.0080
935.00,0.0076
934.00,0.0072
933.00,0.0069
932.00,0.0067
931.00,0.0066
930.00,0.0065
929.00,0.0065
928.00,0.0066
927.00,0.0066
926.00,0.0065
925.00,0.0064
924.00,0.0064
923.00,0.0064
922.00,0.0064
921.00,0.0065
920.00,0.0066
919.00,0.0067
918.00,0.0068
917.00,0.0069
916.00,0.0070
915.00,0.0071
914.00,0.0071
913.00,0.0072
912.00,0.0073
911.00,0.0074
910.00,0.0076
909.00,0.0077
908.00,0.0079
907.00,0.0082
906.00,0.0089
905.00,0.0100
904.00,0.0114
903.00,0.0132
902.00,0.0151
901.00,0.0168
900.00,0.0180
899.00,0.0182
898.00,0.0176
897.00,0.0162
896.00,0.0145
895.00,0.0128
894.00,0.0112
893.00,0.0100
892.00,0.0091
891.00,0.0085
890.00,0.0080
889.00,0.0077
888.00,0.0075
887.00,0.0073
886.00,0.0071
885.00,0.0070
884.00,0.0070
883.00,0.0071
882.00,0.0072
881.00,0.0073
880.00,0.0073
879.00,0.0073
878.00,0.0073
877.00,0.0073
876.00,0.0074
875.00,0.0075
874.00,0.0076
873.00,0.0076
872.00,0.0076
871.00,0.0076
870.00,0.0076
869.00,0.0076
868.00,0.0076
867.00,0.0077
866.00,0.0078
865.00,0.0080
864.00,0.0081
863.00,0.0083
862.00,0.0084
861.00,0.0086
860.00,0.0089
859.00,0.0091
858.00,0.0092
857.00,0.0093
856.00,0.0093
855.00,0.0094
854.00,0.0096
853.00,0.0099
852.00,0.0103
851.00,0.0108
850.00,0.0116
849.00,0.0125
848.00,0.0138
847.00,0.0158
846.00,0.0187
845.00,0.0231
844.00,0.0291
843.00,0.0357
842.00,0.0410
841.00,0.0427
840.00,0.0401
839.00,0.0343
838.00,0.0278
837.00,0.0226
836.00,0.0191
835.00,0.0169
834.00,0.0155
833.00,0.0145
832.00,0.0138
831.00,0.0131
830.00,0.0125
829.00,0.0120
828.00,0.0117
827.00,0.0115
826.00,0.0115
825.00,0.0115
824.00,0.0116
823.00,0.0116
822.00,0.0116
821.00,0.0116
820.00,0.0117
819.00,0.0119
818.00,0.0122
817.00,0.0126
816.00,0.0131
815.00,0.0139
814.00,0.0152
813.00,0.0167
812.00,0.0183
811.00,0.0199
810.00,0.0210
809.00,0.0214
808.00,0.0212
807.00,0.0202
806.00,0.0189
805.00,0.0173
804.00,0.0157
803.00,0.0144
802.00,0.0134
801.00,0.0126
800.00,0.0119
799.00,0.0113
798.00,0.0107
797.00,0.0104
796.00,0.0102
795.00,0.0100
794.00,0.0099
793.00,0.0097
792.00,0.0095
791.00,0.0092
790.00,0.0088
789.00,0.0084
788.00,0.0080
787.00,0.0077
786.00,0.0073
785.00,0.0069
784.00,0.0066
783.00,0.0065
782.00,0.0064
781.00,0.0064
780.00,0.0064
779.00,0.0064
778.00,0.0063
777.00,0.0062
776.00,0.0063
775.00,0.0064
774.00,0.0066
773.00,0.0070
772.00,0.0074
771.00,0.0080
770.00,0.0084
769.00,0.0087
768.00,0.0087
767.00,0.0085
766.00,0.0083
765.00,0.0081
764.00,0.0079
763.00,0.0076
762.00,0.0073
761.00,0.0070
760.00,0.0067
759.00,0.0064
758.00,0.0061
757.00,0.0059
756.00,0.0057
755.00,0.0055
754.00,0.0054
753.00,0.0054
752.00,0.0053
751.00,0.0052
750.00,0.0052
749.00,0.0053
748.00,0.0053
747.00,0.0053
746.00,0.0054
745.00,0.0054
744.00,0.0056
743.00,0.0057
742.00,0.0058
741.00,0.0057
740.00,0.0055
739.00,0.0054
738.00,0.0054
737.00,0.0055
736.00,0.0057
735.00,0.0060
734.00,0.0063
733.00,0.0065
732.00,0.0065
731.00,0.0064
730.00,0.0062
729.00,0.0062
728.00,0.0062
727.00,0.0062
726.00,0.0062
725.00,0.0061
724.00,0.0060
723.00,0.0059
722.00,0.0058
721.00,0.0057
720.00,0.0056
719.00,0.0054
718.00,0.0053
717.00,0.0052
716.00,0.0052
715.00,0.0053
714.00,0.0053
713.00,0.0053
712.00,0.0053
711.00,0.0053
710.00,0.0053
709.00,0.0054
708.00,0.0054
707.00,0.0055
706.00,0.0056
705.00,0.0057
704.00,0.0056
703.00,0.0055
702.00,0.0054
701.00,0.0054
700.00,0.0053
699.00,0.0053
698.00,0.0054
697.00,0.0055
696.00,0.0057
695.00,0.0058
694.00,0.0057
693.00,0.0055
692.00,0.0053
691.00,0.0052
690.00,0.0052
689.00,0.0053
688.00,0.0054
687.00,0.0055
686.00,0.0054
685.00,0.0053
684.00,0.0052
683.00,0.0053
682.00,0.0055
681.00,0.0055
680.00,0.0054
679.00,0.0052
678.00,0.0052
677.00,0.0052
676.00,0.0052
675.00,0.0052
674.00,0.0051
673.00,0.0049
672.00,0.0048
671.00,0.0049
670.00,0.0050
669.00,0.0053
668.00,0.0055
667.00,0.0055
666.00,0.0053
665.00,0.0051
664.00,0.0049
663.00,0.0048
662.00,0.0049
661.00,0.0051
660.00,0.0054
659.00,0.0056
658.00,0.0056
657.00,0.0054
656.00,0.0052
655.00,0.0051
654.00,0.0051
653.00,0.0053
652.00,0.0054
651.00,0.0053
650.00,0.0051
649.00,0.0049
648.00,0.0046
647.00,0.0045
646.00,0.0046
645.00,0.0047
644.00,0.0050
643.00,0.0052
642.00,0.0053
641.00,0.0053
640.00,0.0053
639.00,0.0054
638.00,0.0054
637.00,0.0053
636.00,0.0053
635.00,0.0052
634.00,0.0052
633.00,0.0050
632.00,0.0049
631.00,0.0051
630.00,0.0054
629.00,0.0057
628.00,0.0058
627.00,0.0056
626.00,0.0055
625.00,0.0054
624.00,0.0056
623.00,0.0058
622.00,0.0060
621.00,0.0059
620.00,0.0055
619.00,0.0051
618.00,0.0049
617.00,0.0049
616.00,0.0052
615.00,0.0056
614.00,0.0059
613.00,0.0060
612.00,0.0057
611.00,0.0054
610.00,0.0052
609.00,0.0052
608.00,0.0052
607.00,0.0052
606.00,0.0052
605.00,0.0053
604.00,0.0054
603.00,0.0056
602.00,0.0058
601.00,0.0059
600.00,0.0059
599.00,0.0060
598.00,0.0062
597.00,0.0064
596.00,0.0064
595.00,0.0063
594.00,0.0062
593.00,0.0060
592.00,0.0058
591.00,0.0058
590.00,0.0058
589.00,0.0057
588.00,0.0057
587.00,0.0057
586.00,0.0058
585.00,0.0058
584.00,0.0058
583.00,0.0058
582.00,0.0061
581.00,0.0064
580.00,0.0066
579.00,0.0065
578.00,0.0064
577.00,0.0062
576.00,0.0060
575.00,0.0058
574.00,0.0056
573.00,0.0054
572.00,0.0056
571.00,0.0060
570.00,0.0063
569.00,0.0064
568.00,0.0064
567.00,0.0064
566.00,0.0065
565.00,0.0064
564.00,0.0060
563.00,0.0055
562.00,0.0053
561.00,0.0054
560.00,0.0058
559.00,0.0062
558.00,0.0063
557.00,0.0061
556.00,0.0056
555.00,0.0052
554.00,0.0050
553.00,0.0049
552.00,0.0050
551.00,0.0053
550.00,0.0056
549.00,0.0061
548.00,0.0065
547.00,0.0068
546.00,0.0069
545.00,0.0070
544.00,0.0070
543.00,0.0070
542.00,0.0068
541.00,0.0064
540.00,0.0061
539.00,0.0061
538.00,0.0063
537.00,0.0066
536.00,0.0068
535.00,0.0070
534.00,0.0072
533.00,0.0076
532.00,0.0079
531.00,0.0084
530.00,0.0089
529.00,0.0092
528.00,0.0092
527.00,0.0090
526.00,0.0087
525.00,0.0083
524.00,0.0079
523.00,0.0076
522.00,0.0076
521.00,0.0078
520.00,0.0080
519.00,0.0079
518.00,0.0075
517.00,0.0070
516.00,0.0068
515.00,0.0068
514.00,0.0070
513.00,0.0072
512.00,0.0073
511.00,0.0072
510.00,0.0069
509.00,0.0066
508.00,0.0063
507.00,0.0064
506.00,0.0067
505.00,0.0072
504.00,0.0076
503.00,0.0077
502.00,0.0075
501.00,0.0073
500.00,0.0072
499.00,0.0072
498.00,0.0069
497.00,0.0063
496.00,0.0054
495.00,0.0047
494.00,0.0044
493.00,0.0047
492.00,0.0051
491.00,0.0054
490.00,0.0056
489.00,0.0060
488.00,0.0063
487.00,0.0066
486.00,0.0066
485.00,0.0064
484.00,0.0060
483.00,0.0055
482.00,0.0053
481.00,0.0055
480.00,0.0061
479.00,0.0066
478.00,0.0069
477.00,0.0070
476.00,0.0071
475.00,0.0074
474.00,0.0077
473.00,0.0077
472.00,0.0078
471.00,0.0085
470.00,0.0096
469.00,0.0104
468.00,0.0104
467.00,0.0099
466.00,0.0099
465.00,0.0104
464.00,0.0112
463.00,0.0116
462.00,0.0118
461.00,0.0124
460.00,0.0136
459.00,0.0154
458.00,0.0168
457.00,0.0171
456.00,0.0162
455.00,0.0148
454.00,0.0134
453.00,0.0120
452.00,0.0105
451.00,0.0092
450.00,0.0086
