Created as New Dataset,Sample 173 By Administrator Date Wednesday, September 10 2025
cm-1,A
4000.00,0.0009
3999.00,0.0009
3998.00,0.0009
3997.00,0.0008
3996.00,0.0008
3995.00,0.0008
3994.00,0.0008
3993.00,0.0008
3992.00,0.0008
3991.00,0.0008
3990.00,0.0008
3989.00,0.0008
3988.00,0.0008
3987.00,0.0008
3986.00,0.0008
3985.00,0.0008
3984.00,0.0008
3983.00,0.0007
3982.00,0.0007
3981.00,0.0007
3980.00,0.0007
3979.00,0.0007
3978.00,0.0007
3977.00,0.0007
3976.00,0.0007
3975.00,0.0007
3974.00,0.0007
3973.00,0.0007
3972.00,0.0007
3971.00,0.0007
3970.00,0.0007
3969.00,0.0007
3968.00,0.0007
3967.00,0.0007
3966.00,0.0007
3965.00,0.0007
3964.00,0.0007
3963.00,0.0006
3962.00,0.0006
3961.00,0.0006
3960.00,0.0006
3959.00,0.0006
3958.00,0.0006
3957.00,0.0006
3956.00,0.0006
3955.00,0.0006
3954.00,0.0006
3953.00,0.0006
3952.00,0.0007
3951.00,0.0007
3950.00,0.0007
3949.00,0.0007
3948.00,0.0007
3947.00,0.0007
3946.00,0.0007
3945.00,0.0007
3944.00,0.0007
3943.00,0.0007
3942.00,0.0007
3941.00,0.0007
3940.00,0.0006
3939.00,0.0006
3938.00,0.0006
3937.00,0.0006
3936.00,0.0006
3935.00,0.0006
3934.00,0.0006
3933.00,0.0007
3932.00,0.0007
3931.00,0.0008
3930.00,0.0008
3929.00,0.0008
3928.00,0.0008
3927.00,0.0008
3926.00,0.0008
3925.00,0.0007
3924.00,0.0007
3923.00,0.0007
3922.00,0.0006
3921.00,0.0006
3920.00,0.0006
3919.00,0.0007
3918.00,0.0007
3917.00,0.0007
3916.00,0.0007
3915.00,0.0007
3914.00,0.0007
3913.00,0.0007
3912.00,0.0007
3911.00,0.0007
3910.00,0.0007
3909.00,0.0006
3908.00,0.0006
3907.00,0.0006
3906.00,0.0006
3905.00,0.0006
3904.00,0.0006
3903.00,0.0006
3902.00,0.0006
3901.00,0.0006
3900.00,0.0006
3899.00,0.0006
3898.00,0.0006
3897.00,0.0007
3896.00,0.0007
3895.00,0.0007
3894.00,0.0007
3893.00,0.0007
3892.00,0.0006
3891.00,0.0007
3890.00,0.0007
3889.00,0.0007
3888.00,0.0007
3887.00,0.0007
3886.00,0.0007
3885.00,0.0007
3884.00,0.0007
3883.00,0.0007
3882.00,0.0007
3881.00,0.0007
3880.00,0.0007
3879.00,0.0007
3878.00,0.0007
3877.00,0.0007
3876.00,0.0007
3875.00,0.0006
3874.00,0.0006
3873.00,0.0006
3872.00,0.0006
3871.00,0.0006
3870.00,0.0006
3869.00,0.0006
3868.00,0.0006
3867.00,0.0007
3866.00,0.0007
3865.00,0.0007
3864.00,0.0007
3863.00,0.0007
3862.00,0.0006
3861.00,0.0006
3860.00,0.0006
3859.00,0.0006
3858.00,0.0006
3857.00,0.0006
3856.00,0.0006
3855.00,0.0006
3854.00,0.0006
3853.00,0.0006
3852.00,0.0005
3851.00,0.0005
3850.00,0.0005
3849.00,0.0005
3848.00,0.0005
3847.00,0.0005
3846.00,0.0006
3845.00,0.0006
3844.00,0.0006
3843.00,0.0006
3842.00,0.0006
3841.00,0.0006
3840.00,0.0006
3839.00,0.0006
3838.00,0.0006
3837.00,0.0005
3836.00,0.0005
3835.00,0.0005
3834.00,0.0005
3833.00,0.0006
3832.00,0.0006
3831.00,0.0006
3830.00,0.0006
3829.00,0.0006
3828.00,0.0006
3827.00,0.0006
3826.00,0.0006
3825.00,0.0005
3824.00,0.0005
3823.00,0.0005
3822.00,0.0005
3821.00,0.0005
3820.00,0.0005
3819.00,0.0005
3818.00,0.0006
3817.00,0.0007
3816.00,0.0007
3815.00,0.0008
3814.00,0.0007
3813.00,0.0006
3812.00,0.0006
3811.00,0.0006
3810.00,0.0005
3809.00,0.0005
3808.00,0.0005
3807.00,0.0006
3806.00,0.0006
3805.00,0.0006
3804.00,0.0006
3803.00,0.0006
3802.00,0.0007
3801.00,0.0007
3800.00,0.0007
3799.00,0.0006
3798.00,0.0006
3797.00,0.0006
3796.00,0.0006
3795.00,0.0006
3794.00,0.0006
3793.00,0.0006
3792.00,0.0006
3791.00,0.0006
3790.00,0.0006
3789.00,0.0006
3788.00,0.0006
3787.00,0.0006
3786.00,0.0006
3785.00,0.0007
3784.00,0.0007
3783.00,0.0007
3782.00,0.0007
3781.00,0.0007
3780.00,0.0006
3779.00,0.0006
3778.00,0.0006
3777.00,0.0006
3776.00,0.0006
3775.00,0.0006
3774.00,0.0007
3773.00,0.0007
3772.00,0.0007
3771.00,0.0007
3770.00,0.0007
3769.00,0.0006
3768.00,0.0006
3767.00,0.0007
3766.00,0.0007
3765.00,0.0007
3764.00,0.0007
3763.00,0.0007
3762.00,0.0006
3761.00,0.0006
3760.00,0.0006
3759.00,0.0007
3758.00,0.0007
3757.00,0.0007
3756.00,0.0007
3755.00,0.0007
3754.00,0.0007
3753.00,0.0006
3752.00,0.0006
3751.00,0.0005
3750.00,0.0005
3749.00,0.0005
3748.00,0.0005
3747.00,0.0005
3746.00,0.0005
3745.00,0.0005
3744.00,0.0005
3743.00,0.0005
3742.00,0.0005
3741.00,0.0005
3740.00,0.0005
3739.00,0.0005
3738.00,0.0004
3737.00,0.0004
3736.00,0.0005
3735.00,0.0005
3734.00,0.0006
3733.00,0.0006
3732.00,0.0006
3731.00,0.0006
3730.00,0.0006
3729.00,0.0006
3728.00,0.0006
3727.00,0.0007
3726.00,0.0007
3725.00,0.0006
3724.00,0.0006
3723.00,0.0005
3722.00,0.0005
3721.00,0.0004
3720.00,0.0004
3719.00,0.0004
3718.00,0.0005
3717.00,0.0006
3716.00,0.0006
3715.00,0.0006
3714.00,0.0006
3713.00,0.0006
3712.00,0.0005
3711.00,0.0005
3710.00,0.0005
3709.00,0.0005
3708.00,0.0005
3707.00,0.0005
3706.00,0.0005
3705.00,0.0005
3704.00,0.0005
3703.00,0.0005
3702.00,0.0004
3701.00,0.0004
3700.00,0.0004
3699.00,0.0004
3698.00,0.0004
3697.00,0.0004
3696.00,0.0004
3695.00,0.0004
3694.00,0.0004
3693.00,0.0004
3692.00,0.0004
3691.00,0.0004
3690.00,0.0005
3689.00,0.0005
3688.00,0.0005
3687.00,0.0005
3686.00,0.0005
3685.00,0.0005
3684.00,0.0005
3683.00,0.0005
3682.00,0.0005
3681.00,0.0004
3680.00,0.0004
3679.00,0.0004
3678.00,0.0005
3677.00,0.0005
3676.00,0.0006
3675.00,0.0006
3674.00,0.0006
3673.00,0.0006
3672.00,0.0007
3671.00,0.0007
3670.00,0.0006
3669.00,0.0005
3668.00,0.0004
3667.00,0.0003
3666.00,0.0003
3665.00,0.0003
3664.00,0.0003
3663.00,0.0004
3662.00,0.0004
3661.00,0.0004
3660.00,0.0004
3659.00,0.0004
3658.00,0.0005
3657.00,0.0005
3656.00,0.0005
3655.00,0.0005
3654.00,0.0005
3653.00,0.0005
3652.00,0.0005
3651.00,0.0006
3650.00,0.0007
3649.00,0.0007
3648.00,0.0006
3647.00,0.0005
3646.00,0.0004
3645.00,0.0004
3644.00,0.0004
3643.00,0.0004
3642.00,0.0004
3641.00,0.0005
3640.00,0.0005
3639.00,0.0006
3638.00,0.0006
3637.00,0.0005
3636.00,0.0005
3635.00,0.0005
3634.00,0.0005
3633.00,0.0004
3632.00,0.0004
3631.00,0.0004
3630.00,0.0004
3629.00,0.0005
3628.00,0.0006
3627.00,0.0006
3626.00,0.0006
3625.00,0.0006
3624.00,0.0006
3623.00,0.0007
3622.00,0.0007
3621.00,0.0007
3620.00,0.0008
3619.00,0.0008
3618.00,0.0008
3617.00,0.0008
3616.00,0.0008
3615.00,0.0009
3614.00,0.0009
3613.00,0.0009
3612.00,0.0009
3611.00,0.0009
3610.00,0.0009
3609.00,0.0008
3608.00,0.0008
3607.00,0.0007
3606.00,0.0007
3605.00,0.0007
3604.00,0.0007
3603.00,0.0007
3602.00,0.0008
3601.00,0.0008
3600.00,0.0009
3599.00,0.0009
3598.00,0.0009
3597.00,0.0009
3596.00,0.0009
3595.00,0.0009
3594.00,0.0009
3593.00,0.0009
3592.00,0.0009
3591.00,0.0008
3590.00,0.0008
3589.00,0.0009
3588.00,0.0009
3587.00,0.0009
3586.00,0.0009
3585.00,0.0009
3584.00,0.0009
3583.00,0.0010
3582.00,0.0010
3581.00,0.0011
3580.00,0.0011
3579.00,0.0011
3578.00,0.0011
3577.00,0.0011
3576.00,0.0011
3575.00,0.0011
3574.00,0.0011
3573.00,0.0011
3572.00,0.0011
3571.00,0.0011
3570.00,0.0011
3569.00,0.0012
3568.00,0.0013
3567.00,0.0013
3566.00,0.0014
3565.00,0.0014
3564.00,0.0015
3563.00,0.0015
3562.00,0.0015
3561.00,0.0015
3560.00,0.0016
3559.00,0.0016
3558.00,0.0016
3557.00,0.0016
3556.00,0.0016
3555.00,0.0016
3554.00,0.0016
3553.00,0.0016
3552.00,0.0016
3551.00,0.0016
3550.00,0.0017
3549.00,0.0017
3548.00,0.0018
3547.00,0.0019
3546.00,0.0019
3545.00,0.0019
3544.00,0.0018
3543.00,0.0018
3542.00,0.0018
3541.00,0.0017
3540.00,0.0018
3539.00,0.0019
3538.00,0.0019
3537.00,0.0020
3536.00,0.0020
3535.00,0.0020
3534.00,0.0020
3533.00,0.0020
3532.00,0.0020
3531.00,0.0021
3530.00,0.0021
3529.00,0.0021
3528.00,0.0022
3527.00,0.0022
3526.00,0.0022
3525.00,0.0022
3524.00,0.0022
3523.00,0.0022
3522.00,0.0022
3521.00,0.0022
3520.00,0.0022
3519.00,0.0022
3518.00,0.0023
3517.00,0.0023
3516.00,0.0024
3515.00,0.0024
3514.00,0.0025
3513.00,0.0025
3512.00,0.0025
3511.00,0.0025
3510.00,0.0025
3509.00,0.0025
3508.00,0.0025
3507.00,0.0026
3506.00,0.0026
3505.00,0.0027
3504.00,0.0027
3503.00,0.0027
3502.00,0.0027
3501.00,0.0027
3500.00,0.0027
3499.00,0.0027
3498.00,0.0028
3497.00,0.0028
3496.00,0.0028
3495.00,0.0028
3494.00,0.0028
3493.00,0.0028
3492.00,0.0029
3491.00,0.0029
3490.00,0.0030
3489.00,0.0030
3488.00,0.0030
3487.00,0.0030
3486.00,0.0030
3485.00,0.0030
3484.00,0.0030
3483.00,0.0030
3482.00,0.0030
3481.00,0.0030
3480.00,0.0030
3479.00,0.0030
3478.00,0.0031
3477.00,0.0031
3476.00,0.0031
3475.00,0.0031
3474.00,0.0031
3473.00,0.0031
3472.00,0.0031
3471.00,0.0031
3470.00,0.0031
3469.00,0.0032
3468.00,0.0032
3467.00,0.0033
3466.00,0.0033
3465.00,0.0033
3464.00,0.0033
3463.00,0.0033
3462.00,0.0034
3461.00,0.0034
3460.00,0.0034
3459.00,0.0034
3458.00,0.0034
3457.00,0.0034
3456.00,0.0035
3455.00,0.0035
3454.00,0.0036
3453.00,0.0036
3452.00,0.0036
3451.00,0.0036
3450.00,0.0036
3449.00,0.0035
3448.00,0.0035
3447.00,0.0036
3446.00,0.0036
3445.00,0.0037
3444.00,0.0037
3443.00,0.0037
3442.00,0.0038
3441.00,0.0038
3440.00,0.0038
3439.00,0.0038
3438.00,0.0039
3437.00,0.0039
3436.00,0.0039
3435.00,0.0039
3434.00,0.0039
3433.00,0.0039
3432.00,0.0040
3431.00,0.0040
3430.00,0.0040
3429.00,0.0041
3428.00,0.0041
3427.00,0.0040
3426.00,0.0040
3425.00,0.0040
3424.00,0.0041
3423.00,0.0041
3422.00,0.0042
3421.00,0.0042
3420.00,0.0042
3419.00,0.0042
3418.00,0.0042
3417.00,0.0042
3416.00,0.0042
3415.00,0.0043
3414.00,0.0043
3413.00,0.0044
3412.00,0.0044
3411.00,0.0044
3410.00,0.0044
3409.00,0.0044
3408.00,0.0044
3407.00,0.0044
3406.00,0.0044
3405.00,0.0044
3404.00,0.0044
3403.00,0.0044
3402.00,0.0044
3401.00,0.0044
3400.00,0.0044
3399.00,0.0045
3398.00,0.0045
3397.00,0.0045
3396.00,0.0045
3395.00,0.0044
3394.00,0.0044
3393.00,0.0044
3392.00,0.0045
3391.00,0.0045
3390.00,0.0045
3389.00,0.0045
3388.00,0.0045
3387.00,0.0045
3386.00,0.0045
3385.00,0.0044
3384.00,0.0044
3383.00,0.0044
3382.00,0.0044
3381.00,0.0044
3380.00,0.0045
3379.00,0.0045
3378.00,0.0045
3377.00,0.0045
3376.00,0.0045
3375.00,0.0045
3374.00,0.0045
3373.00,0.0046
3372.00,0.0046
3371.00,0.0046
3370.00,0.0046
3369.00,0.0046
3368.00,0.0046
3367.00,0.0045
3366.00,0.0045
3365.00,0.0046
3364.00,0.0046
3363.00,0.0046
3362.00,0.0045
3361.00,0.0045
3360.00,0.0046
3359.00,0.0046
3358.00,0.0046
3357.00,0.0046
3356.00,0.0046
3355.00,0.0047
3354.00,0.0047
3353.00,0.0047
3352.00,0.0047
3351.00,0.0047
3350.00,0.0047
3349.00,0.0047
3348.00,0.0047
3347.00,0.0047
3346.00,0.0047
3345.00,0.0047
3344.00,0.0047
3343.00,0.0047
3342.00,0.0046
3341.00,0.0046
3340.00,0.0046
3339.00,0.0046
3338.00,0.0046
3337.00,0.0045
3336.00,0.0046
3335.00,0.0046
3334.00,0.0046
3333.00,0.0046
3332.00,0.0045
3331.00,0.0045
3330.00,0.0045
3329.00,0.0045
3328.00,0.0045
3327.00,0.0045
3326.00,0.0045
3325.00,0.0045
3324.00,0.0045
3323.00,0.0045
3322.00,0.0044
3321.00,0.0044
3320.00,0.0044
3319.00,0.0044
3318.00,0.0044
3317.00,0.0044
3316.00,0.0044
3315.00,0.0044
3314.00,0.0044
3313.00,0.0043
3312.00,0.0043
3311.00,0.0043
3310.00,0.0044
3309.00,0.0044
3308.00,0.0044
3307.00,0.0044
3306.00,0.0043
3305.00,0.0043
3304.00,0.0043
3303.00,0.0043
3302.00,0.0043
3301.00,0.0043
3300.00,0.0042
3299.00,0.0042
3298.00,0.0042
3297.00,0.0042
3296.00,0.0042
3295.00,0.0042
3294.00,0.0042
3293.00,0.0042
3292.00,0.0042
3291.00,0.0042
3290.00,0.0042
3289.00,0.0042
3288.00,0.0042
3287.00,0.0042
3286.00,0.0042
3285.00,0.0041
3284.00,0.0041
3283.00,0.0041
3282.00,0.0041
3281.00,0.0041
3280.00,0.0041
3279.00,0.0041
3278.00,0.0041
3277.00,0.0041
3276.00,0.0041
3275.00,0.0041
3274.00,0.0040
3273.00,0.0040
3272.00,0.0039
3271.00,0.0039
3270.00,0.0039
3269.00,0.0039
3268.00,0.0039
3267.00,0.0039
3266.00,0.0038
3265.00,0.0038
3264.00,0.0038
3263.00,0.0039
3262.00,0.0039
3261.00,0.0039
3260.00,0.0039
3259.00,0.0039
3258.00,0.0038
3257.00,0.0038
3256.00,0.0038
3255.00,0.0038
3254.00,0.0038
3253.00,0.0037
3252.00,0.0037
3251.00,0.0036
3250.00,0.0036
3249.00,0.0036
3248.00,0.0035
3247.00,0.0035
3246.00,0.0035
3245.00,0.0035
3244.00,0.0035
3243.00,0.0036
3242.00,0.0036
3241.00,0.0037
3240.00,0.0037
3239.00,0.0037
3238.00,0.0037
3237.00,0.0037
3236.00,0.0036
3235.00,0.0036
3234.00,0.0036
3233.00,0.0036
3232.00,0.0036
3231.00,0.0037
3230.00,0.0037
3229.00,0.0037
3228.00,0.0037
3227.00,0.0037
3226.00,0.0037
3225.00,0.0038
3224.00,0.0038
3223.00,0.0038
3222.00,0.0038
3221.00,0.0038
3220.00,0.0038
3219.00,0.0038
3218.00,0.0038
3217.00,0.0038
3216.00,0.0038
3215.00,0.0039
3214.00,0.0039
3213.00,0.0039
3212.00,0.0040
3211.00,0.0040
3210.00,0.0040
3209.00,0.0040
3208.00,0.0040
3207.00,0.0040
3206.00,0.0040
3205.00,0.0040
3204.00,0.0041
3203.00,0.0041
3202.00,0.0040
3201.00,0.0040
3200.00,0.0040
3199.00,0.0040
3198.00,0.0040
3197.00,0.0040
3196.00,0.0040
3195.00,0.0040
3194.00,0.0040
3193.00,0.0040
3192.00,0.0040
3191.00,0.0040
3190.00,0.0040
3189.00,0.0040
3188.00,0.0040
3187.00,0.0039
3186.00,0.0039
3185.00,0.0039
3184.00,0.0038
3183.00,0.0038
3182.00,0.0038
3181.00,0.0037
3180.00,0.0037
3179.00,0.0038
3178.00,0.0038
3177.00,0.0037
3176.00,0.0037
3175.00,0.0036
3174.00,0.0036
3173.00,0.0035
3172.00,0.0035
3171.00,0.0035
3170.00,0.0035
3169.00,0.0035
3168.00,0.0035
3167.00,0.0035
3166.00,0.0035
3165.00,0.0034
3164.00,0.0034
3163.00,0.0034
3162.00,0.0034
3161.00,0.0034
3160.00,0.0034
3159.00,0.0034
3158.00,0.0034
3157.00,0.0034
3156.00,0.0033
3155.00,0.0033
3154.00,0.0034
3153.00,0.0034
3152.00,0.0034
3151.00,0.0034
3150.00,0.0033
3149.00,0.0033
3148.00,0.0033
3147.00,0.0034
3146.00,0.0034
3145.00,0.0034
3144.00,0.0034
3143.00,0.0033
3142.00,0.0033
3141.00,0.0033
3140.00,0.0032
3139.00,0.0032
3138.00,0.0032
3137.00,0.0032
3136.00,0.0032
3135.00,0.0032
3134.00,0.0032
3133.00,0.0032
3132.00,0.0032
3131.00,0.0031
3130.00,0.0031
3129.00,0.0031
3128.00,0.0031
3127.00,0.0030
3126.00,0.0030
3125.00,0.0030
3124.00,0.0029
3123.00,0.0029
3122.00,0.0029
3121.00,0.0029
3120.00,0.0029
3119.00,0.0029
3118.00,0.0029
3117.00,0.0028
3116.00,0.0028
3115.00,0.0028
3114.00,0.0028
3113.00,0.0028
3112.00,0.0028
3111.00,0.0028
3110.00,0.0028
3109.00,0.0027
3108.00,0.0027
3107.00,0.0027
3106.00,0.0027
3105.00,0.0027
3104.00,0.0026
3103.00,0.0026
3102.00,0.0026
3101.00,0.0026
3100.00,0.0026
3099.00,0.0026
3098.00,0.0026
3097.00,0.0025
3096.00,0.0025
3095.00,0.0025
3094.00,0.0025
3093.00,0.0025
3092.00,0.0025
3091.00,0.0025
3090.00,0.0025
3089.00,0.0025
3088.00,0.0025
3087.00,0.0025
3086.00,0.0025
3085.00,0.0025
3084.00,0.0025
3083.00,0.0025
3082.00,0.0024
3081.00,0.0024
3080.00,0.0024
3079.00,0.0024
3078.00,0.0024
3077.00,0.0024
3076.00,0.0025
3075.00,0.0025
3074.00,0.0026
3073.00,0.0026
3072.00,0.0026
3071.00,0.0026
3070.00,0.0026
3069.00,0.0026
3068.00,0.0026
3067.00,0.0027
3066.00,0.0027
3065.00,0.0027
3064.00,0.0027
3063.00,0.0027
3062.00,0.0027
3061.00,0.0028
3060.00,0.0028
3059.00,0.0028
3058.00,0.0028
3057.00,0.0028
3056.00,0.0028
3055.00,0.0028
3054.00,0.0028
3053.00,0.0028
3052.00,0.0028
3051.00,0.0028
3050.00,0.0028
3049.00,0.0028
3048.00,0.0029
3047.00,0.0029
3046.00,0.0030
3045.00,0.0030
3044.00,0.0030
3043.00,0.0030
3042.00,0.0030
3041.00,0.0031
3040.00,0.0031
3039.00,0.0031
3038.00,0.0031
3037.00,0.0032
3036.00,0.0032
3035.00,0.0033
3034.00,0.0033
3033.00,0.0033
3032.00,0.0033
3031.00,0.0034
3030.00,0.0034
3029.00,0.0035
3028.00,0.0036
3027.00,0.0036
3026.00,0.0037
3025.00,0.0037
3024.00,0.0038
3023.00,0.0038
3022.00,0.0039
3021.00,0.0040
3020.00,0.0041
3019.00,0.0042
3018.00,0.0043
3017.00,0.0044
3016.00,0.0044
3015.00,0.0045
3014.00,0.0046
3013.00,0.0047
3012.00,0.0048
3011.00,0.0050
3010.00,0.0052
3009.00,0.0053
3008.00,0.0055
3007.00,0.0056
3006.00,0.0057
3005.00,0.0059
3004.00,0.0061
3003.00,0.0064
3002.00,0.0066
3001.00,0.0069
3000.00,0.0071
2999.00,0.0074
2998.00,0.0077
2997.00,0.0080
2996.00,0.0084
2995.00,0.0088
2994.00,0.0093
2993.00,0.0098
2992.00,0.0103
2991.00,0.0109
2990.00,0.0115
2989.00,0.0122
2988.00,0.0130
2987.00,0.0139
2986.00,0.0148
2985.00,0.0159
2984.00,0.0171
2983.00,0.0185
2982.00,0.0200
2981.00,0.0217
2980.00,0.0236
2979.00,0.0257
2978.00,0.0282
2977.00,0.0310
2976.00,0.0342
2975.00,0.0378
2974.00,0.0420
2973.00,0.0466
2972.00,0.0518
2971.00,0.0576
2970.00,0.0640
2969.00,0.0710
2968.00,0.0785
2967.00,0.0864
2966.00,0.0945
2965.00,0.1026
2964.00,0.1103
2963.00,0.1173
2962.00,0.1234
2961.00,0.1286
2960.00,0.1330
2959.00,0.1372
2958.00,0.1416
2957.00,0.1469
2956.00,0.1534
2955.00,0.1614
2954.00,0.1705
2953.00,0.1802
2952.00,0.1893
2951.00,0.1968
2950.00,0.2011
2949.00,0.2014
2948.00,0.1970
2947.00,0.1882
2946.00,0.1761
2945.00,0.1621
2944.00,0.1480
2943.00,0.1353
2942.00,0.1248
2941.00,0.1171
2940.00,0.1122
2939.00,0.1098
2938.00,0.1097
2937.00,0.1117
2936.00,0.1156
2935.00,0.1212
2934.00,0.1284
2933.00,0.1370
2932.00,0.1468
2931.00,0.1576
2930.00,0.1691
2929.00,0.1811
2928.00,0.1932
2927.00,0.2050
2926.00,0.2164
2925.00,0.2274
2924.00,0.2381
2923.00,0.2486
2922.00,0.2592
2921.00,0.2694
2920.00,0.2789
2919.00,0.2865
2918.00,0.2912
2917.00,0.2920
2916.00,0.2886
2915.00,0.2814
2914.00,0.2714
2913.00,0.2598
2912.00,0.2477
2911.00,0.2359
2910.00,0.2250
2909.00,0.2149
2908.00,0.2056
2907.00,0.1969
2906.00,0.1884
2905.00,0.1802
2904.00,0.1721
2903.00,0.1642
2902.00,0.1566
2901.00,0.1493
2900.00,0.1424
2899.00,0.1359
2898.00,0.1300
2897.00,0.1247
2896.00,0.1200
2895.00,0.1160
2894.00,0.1128
2893.00,0.1103
2892.00,0.1085
2891.00,0.1074
2890.00,0.1069
2889.00,0.1070
2888.00,0.1074
2887.00,0.1083
2886.00,0.1094
2885.00,0.1110
2884.00,0.1130
2883.00,0.1155
2882.00,0.1185
2881.00,0.1219
2880.00,0.1253
2879.00,0.1282
2878.00,0.1303
2877.00,0.1312
2876.00,0.1311
2875.00,0.1304
2874.00,0.1296
2873.00,0.1293
2872.00,0.1299
2871.00,0.1313
2870.00,0.1335
2869.00,0.1359
2868.00,0.1376
2867.00,0.1376
2866.00,0.1351
2865.00,0.1296
2864.00,0.1215
2863.00,0.1116
2862.00,0.1011
2861.00,0.0912
2860.00,0.0827
2859.00,0.0758
2858.00,0.0706
2857.00,0.0667
2856.00,0.0640
2855.00,0.0622
2854.00,0.0612
2853.00,0.0609
2852.00,0.0612
2851.00,0.0622
2850.00,0.0640
2849.00,0.0666
2848.00,0.0699
2847.00,0.0742
2846.00,0.0793
2845.00,0.0854
2844.00,0.0921
2843.00,0.0994
2842.00,0.1068
2841.00,0.1138
2840.00,0.1195
2839.00,0.1232
2838.00,0.1240
2837.00,0.1214
2836.00,0.1154
2835.00,0.1065
2834.00,0.0958
2833.00,0.0846
2832.00,0.0738
2831.00,0.0642
2830.00,0.0560
2829.00,0.0494
2828.00,0.0440
2827.00,0.0397
2826.00,0.0362
2825.00,0.0333
2824.00,0.0309
2823.00,0.0289
2822.00,0.0272
2821.00,0.0257
2820.00,0.0245
2819.00,0.0234
2818.00,0.0224
2817.00,0.0216
2816.00,0.0209
2815.00,0.0202
2814.00,0.0196
2813.00,0.0190
2812.00,0.0185
2811.00,0.0179
2810.00,0.0174
2809.00,0.0168
2808.00,0.0161
2807.00,0.0154
2806.00,0.0147
2805.00,0.0141
2804.00,0.0134
2803.00,0.0128
2802.00,0.0122
2801.00,0.0117
2800.00,0.0113
2799.00,0.0110
2798.00,0.0108
2797.00,0.0105
2796.00,0.0103
2795.00,0.0100
2794.00,0.0097
2793.00,0.0094
2792.00,0.0091
2791.00,0.0088
2790.00,0.0085
2789.00,0.0082
2788.00,0.0080
2787.00,0.0077
2786.00,0.0075
2785.00,0.0073
2784.00,0.0071
2783.00,0.0069
2782.00,0.0067
2781.00,0.0065
2780.00,0.0064
2779.00,0.0062
2778.00,0.0060
2777.00,0.0059
2776.00,0.0058
2775.00,0.0056
2774.00,0.0055
2773.00,0.0055
2772.00,0.0054
2771.00,0.0054
2770.00,0.0054
2769.00,0.0053
2768.00,0.0053
2767.00,0.0053
2766.00,0.0053
2765.00,0.0053
2764.00,0.0052
2763.00,0.0052
2762.00,0.0051
2761.00,0.0051
2760.00,0.0050
2759.00,0.0050
2758.00,0.0050
2757.00,0.0050
2756.00,0.0050
2755.00,0.0050
2754.00,0.0050
2753.00,0.0050
2752.00,0.0050
2751.00,0.0050
2750.00,0.0049
2749.00,0.0049
2748.00,0.0049
2747.00,0.0050
2746.00,0.0051
2745.00,0.0051
2744.00,0.0052
2743.00,0.0053
2742.00,0.0054
2741.00,0.0055
2740.00,0.0056
2739.00,0.0058
2738.00,0.0059
2737.00,0.0061
2736.00,0.0062
2735.00,0.0064
2734.00,0.0066
2733.00,0.0068
2732.00,0.0070
2731.00,0.0072
2730.00,0.0074
2729.00,0.0077
2728.00,0.0080
2727.00,0.0083
2726.00,0.0086
2725.00,0.0089
2724.00,0.0090
2723.00,0.0091
2722.00,0.0090
2721.00,0.0088
2720.00,0.0085
2719.00,0.0081
2718.00,0.0078
2717.00,0.0074
2716.00,0.0071
2715.00,0.0068
2714.00,0.0065
2713.00,0.0062
2712.00,0.0060
2711.00,0.0058
2710.00,0.0056
2709.00,0.0054
2708.00,0.0052
2707.00,0.0051
2706.00,0.0050
2705.00,0.0049
2704.00,0.0048
2703.00,0.0047
2702.00,0.0046
2701.00,0.0046
2700.00,0.0045
2699.00,0.0044
2698.00,0.0044
2697.00,0.0044
2696.00,0.0044
2695.00,0.0044
2694.00,0.0043
2693.00,0.0043
2692.00,0.0042
2691.00,0.0042
2690.00,0.0042
2689.00,0.0042
2688.00,0.0042
2687.00,0.0042
2686.00,0.0042
2685.00,0.0042
2684.00,0.0042
2683.00,0.0043
2682.00,0.0043
2681.00,0.0044
2680.00,0.0044
2679.00,0.0044
2678.00,0.0044
2677.00,0.0044
2676.00,0.0044
2675.00,0.0044
2674.00,0.0044
2673.00,0.0044
2672.00,0.0043
2671.00,0.0043
2670.00,0.0043
2669.00,0.0043
2668.00,0.0043
2667.00,0.0043
2666.00,0.0044
2665.00,0.0044
2664.00,0.0045
2663.00,0.0045
2662.00,0.0046
2661.00,0.0046
2660.00,0.0046
2659.00,0.0046
2658.00,0.0046
2657.00,0.0046
2656.00,0.0046
2655.00,0.0045
2654.00,0.0045
2653.00,0.0044
2652.00,0.0044
2651.00,0.0043
2650.00,0.0042
2649.00,0.0042
2648.00,0.0041
2647.00,0.0041
2646.00,0.0040
2645.00,0.0039
2644.00,0.0039
2643.00,0.0039
2642.00,0.0039
2641.00,0.0038
2640.00,0.0038
2639.00,0.0037
2638.00,0.0037
2637.00,0.0037
2636.00,0.0037
2635.00,0.0037
2634.00,0.0037
2633.00,0.0037
2632.00,0.0036
2631.00,0.0036
2630.00,0.0036
2629.00,0.0037
2628.00,0.0037
2627.00,0.0037
2626.00,0.0038
2625.00,0.0038
2624.00,0.0038
2623.00,0.0038
2622.00,0.0039
2621.00,0.0039
2620.00,0.0039
2619.00,0.0039
2618.00,0.0039
2617.00,0.0038
2616.00,0.0038
2615.00,0.0038
2614.00,0.0038
2613.00,0.0038
2612.00,0.0038
2611.00,0.0038
2610.00,0.0038
2609.00,0.0037
2608.00,0.0036
2607.00,0.0035
2606.00,0.0034
2605.00,0.0033
2604.00,0.0032
2603.00,0.0032
2602.00,0.0031
2601.00,0.0031
2600.00,0.0031
2599.00,0.0031
2598.00,0.0031
2597.00,0.0031
2596.00,0.0031
2595.00,0.0032
2594.00,0.0032
2593.00,0.0033
2592.00,0.0034
2591.00,0.0034
2590.00,0.0035
2589.00,0.0035
2588.00,0.0036
2587.00,0.0036
2586.00,0.0037
2585.00,0.0038
2584.00,0.0040
2583.00,0.0040
2582.00,0.0041
2581.00,0.0040
2580.00,0.0040
2579.00,0.0039
2578.00,0.0038
2577.00,0.0037
2576.00,0.0036
2575.00,0.0035
2574.00,0.0034
2573.00,0.0033
2572.00,0.0032
2571.00,0.0030
2570.00,0.0029
2569.00,0.0028
2568.00,0.0027
2567.00,0.0026
2566.00,0.0026
2565.00,0.0025
2564.00,0.0024
2563.00,0.0024
2562.00,0.0023
2561.00,0.0023
2560.00,0.0023
2559.00,0.0022
2558.00,0.0022
2557.00,0.0022
2556.00,0.0021
2555.00,0.0021
2554.00,0.0021
2553.00,0.0021
2552.00,0.0021
2551.00,0.0020
2550.00,0.0020
2549.00,0.0020
2548.00,0.0019
2547.00,0.0019
2546.00,0.0018
2545.00,0.0017
2544.00,0.0017
2543.00,0.0017
2542.00,0.0017
2541.00,0.0017
2540.00,0.0017
2539.00,0.0016
2538.00,0.0015
2537.00,0.0015
2536.00,0.0014
2535.00,0.0014
2534.00,0.0014
2533.00,0.0014
2532.00,0.0015
2531.00,0.0015
2530.00,0.0016
2529.00,0.0016
2528.00,0.0016
2527.00,0.0015
2526.00,0.0015
2525.00,0.0014
2524.00,0.0013
2523.00,0.0013
2522.00,0.0012
2521.00,0.0012
2520.00,0.0012
2519.00,0.0013
2518.00,0.0013
2517.00,0.0012
2516.00,0.0012
2515.00,0.0011
2514.00,0.0011
2513.00,0.0010
2512.00,0.0010
2511.00,0.0010
2510.00,0.0010
2509.00,0.0010
2508.00,0.0010
2507.00,0.0009
2506.00,0.0009
2505.00,0.0010
2504.00,0.0010
2503.00,0.0011
2502.00,0.0012
2501.00,0.0012
2500.00,0.0012
2499.00,0.0012
2498.00,0.0011
2497.00,0.0011
2496.00,0.0011
2495.00,0.0011
2494.00,0.0011
2493.00,0.0011
2492.00,0.0011
2491.00,0.0011
2490.00,0.0011
2489.00,0.0010
2488.00,0.0010
2487.00,0.0010
2486.00,0.0009
2485.00,0.0010
2484.00,0.0010
2483.00,0.0010
2482.00,0.0010
2481.00,0.0010
2480.00,0.0009
2479.00,0.0009
2478.00,0.0009
2477.00,0.0009
2476.00,0.0009
2475.00,0.0009
2474.00,0.0009
2473.00,0.0009
2472.00,0.0008
2471.00,0.0008
2470.00,0.0009
2469.00,0.0009
2468.00,0.0009
2467.00,0.0009
2466.00,0.0009
2465.00,0.0009
2464.00,0.0010
2463.00,0.0010
2462.00,0.0009
2461.00,0.0009
2460.00,0.0009
2459.00,0.0008
2458.00,0.0009
2457.00,0.0009
2456.00,0.0010
2455.00,0.0010
2454.00,0.0010
2453.00,0.0010
2452.00,0.0011
2451.00,0.0011
2450.00,0.0012
2449.00,0.0012
2448.00,0.0012
2447.00,0.0011
2446.00,0.0010
2445.00,0.0010
2444.00,0.0010
2443.00,0.0009
2442.00,0.0009
2441.00,0.0010
2440.00,0.0010
2439.00,0.0011
2438.00,0.0011
2437.00,0.0011
2436.00,0.0011
2435.00,0.0011
2434.00,0.0011
2433.00,0.0011
2432.00,0.0011
2431.00,0.0012
2430.00,0.0012
2429.00,0.0012
2428.00,0.0013
2427.00,0.0012
2426.00,0.0012
2425.00,0.0012
2424.00,0.0011
2423.00,0.0011
2422.00,0.0010
2421.00,0.0010
2420.00,0.0009
2419.00,0.0008
2418.00,0.0008
2417.00,0.0009
2416.00,0.0009
2415.00,0.0009
2414.00,0.0010
2413.00,0.0010
2412.00,0.0010
2411.00,0.0010
2410.00,0.0010
2409.00,0.0010
2408.00,0.0009
2407.00,0.0009
2406.00,0.0008
2405.00,0.0008
2404.00,0.0009
2403.00,0.0009
2402.00,0.0008
2401.00,0.0008
2400.00,0.0008
2399.00,0.0008
2398.00,0.0008
2397.00,0.0008
2396.00,0.0008
2395.00,0.0007
2394.00,0.0007
2393.00,0.0006
2392.00,0.0006
2391.00,0.0006
2390.00,0.0006
2389.00,0.0006
2388.00,0.0006
2387.00,0.0005
2386.00,0.0005
2385.00,0.0004
2384.00,0.0003
2383.00,0.0002
2382.00,0.0002
2381.00,0.0001
2380.00,0.0001
2379.00,0.0001
2378.00,0.0001
2377.00,0.0001
2376.00,0.0001
2375.00,0.0001
2374.00,0.0002
2373.00,0.0002
2372.00,0.0003
2371.00,0.0003
2370.00,0.0003
2369.00,0.0002
2368.00,0.0002
2367.00,0.0001
2366.00,0.0001
2365.00,0.0000
2364.00,0.0001
2363.00,0.0002
2362.00,0.0003
2361.00,0.0004
2360.00,0.0005
2359.00,0.0006
2358.00,0.0006
2357.00,0.0006
2356.00,0.0005
2355.00,0.0004
2354.00,0.0003
2353.00,0.0002
2352.00,0.0002
2351.00,0.0002
2350.00,0.0003
2349.00,0.0004
2348.00,0.0004
2347.00,0.0004
2346.00,0.0004
2345.00,0.0005
2344.00,0.0005
2343.00,0.0005
2342.00,0.0005
2341.00,0.0004
2340.00,0.0004
2339.00,0.0004
2338.00,0.0005
2337.00,0.0006
2336.00,0.0007
2335.00,0.0007
2334.00,0.0006
2333.00,0.0005
2332.00,0.0004
2331.00,0.0004
2330.00,0.0004
2329.00,0.0005
2328.00,0.0007
2327.00,0.0010
2326.00,0.0014
2325.00,0.0017
2324.00,0.0019
2323.00,0.0018
2322.00,0.0016
2321.00,0.0014
2320.00,0.0012
2319.00,0.0011
2318.00,0.0011
2317.00,0.0011
2316.00,0.0010
2315.00,0.0009
2314.00,0.0008
2313.00,0.0007
2312.00,0.0007
2311.00,0.0008
2310.00,0.0009
2309.00,0.0009
2308.00,0.0010
2307.00,0.0009
2306.00,0.0008
2305.00,0.0008
2304.00,0.0008
2303.00,0.0009
2302.00,0.0009
2301.00,0.0010
2300.00,0.0010
2299.00,0.0011
2298.00,0.0011
2297.00,0.0012
2296.00,0.0012
2295.00,0.0012
2294.00,0.0012
2293.00,0.0012
2292.00,0.0012
2291.00,0.0013
2290.00,0.0014
2289.00,0.0014
2288.00,0.0015
2287.00,0.0015
2286.00,0.0015
2285.00,0.0015
2284.00,0.0015
2283.00,0.0015
2282.00,0.0015
2281.00,0.0014
2280.00,0.0014
2279.00,0.0013
2278.00,0.0013
2277.00,0.0013
2276.00,0.0013
2275.00,0.0013
2274.00,0.0013
2273.00,0.0013
2272.00,0.0012
2271.00,0.0012
2270.00,0.0011
2269.00,0.0011
2268.00,0.0011
2267.00,0.0012
2266.00,0.0013
2265.00,0.0014
2264.00,0.0014
2263.00,0.0013
2262.00,0.0012
2261.00,0.0011
2260.00,0.0011
2259.00,0.0011
2258.00,0.0011
2257.00,0.0011
2256.00,0.0010
2255.00,0.0008
2254.00,0.0007
2253.00,0.0007
2252.00,0.0007
2251.00,0.0008
2250.00,0.0008
2249.00,0.0008
2248.00,0.0007
2247.00,0.0005
2246.00,0.0004
2245.00,0.0003
2244.00,0.0003
2243.00,0.0004
2242.00,0.0005
2241.00,0.0006
2240.00,0.0006
2239.00,0.0006
2238.00,0.0006
2237.00,0.0006
2236.00,0.0007
2235.00,0.0009
2234.00,0.0010
2233.00,0.0012
2232.00,0.0012
2231.00,0.0012
2230.00,0.0011
2229.00,0.0010
2228.00,0.0010
2227.00,0.0009
2226.00,0.0008
2225.00,0.0008
2224.00,0.0008
2223.00,0.0007
2222.00,0.0005
2221.00,0.0003
2220.00,0.0003
2219.00,0.0003
2218.00,0.0003
2217.00,0.0002
2216.00,0.0002
2215.00,0.0002
2214.00,0.0003
2213.00,0.0004
2212.00,0.0004
2211.00,0.0003
2210.00,0.0001
2209.00,0.0000
2208.00,0.0000
2207.00,0.0001
2206.00,0.0001
2205.00,0.0002
2204.00,0.0004
2203.00,0.0006
2202.00,0.0008
2201.00,0.0008
2200.00,0.0009
2199.00,0.0009
2198.00,0.0011
2197.00,0.0012
2196.00,0.0013
2195.00,0.0012
2194.00,0.0011
2193.00,0.0009
2192.00,0.0008
2191.00,0.0008
2190.00,0.0009
2189.00,0.0011
2188.00,0.0011
2187.00,0.0011
2186.00,0.0011
2185.00,0.0011
2184.00,0.0012
2183.00,0.0012
2182.00,0.0012
2181.00,0.0012
2180.00,0.0012
2179.00,0.0012
2178.00,0.0012
2177.00,0.0011
2176.00,0.0009
2175.00,0.0007
2174.00,0.0006
2173.00,0.0007
2172.00,0.0008
2171.00,0.0010
2170.00,0.0013
2169.00,0.0015
2168.00,0.0018
2167.00,0.0019
2166.00,0.0019
2165.00,0.0017
2164.00,0.0015
2163.00,0.0014
2162.00,0.0013
2161.00,0.0008
2160.00,-0.0002
2159.00,-0.0017
2158.00,-0.0028
2157.00,-0.0031
2156.00,-0.0028
2155.00,-0.0024
2154.00,-0.0020
2153.00,-0.0017
2152.00,-0.0016
2151.00,-0.0015
2150.00,-0.0014
2149.00,-0.0012
2148.00,-0.0011
2147.00,-0.0010
2146.00,-0.0011
2145.00,-0.0011
2144.00,-0.0012
2143.00,-0.0011
2142.00,-0.0011
2141.00,-0.0012
2140.00,-0.0014
2139.00,-0.0015
2138.00,-0.0015
2137.00,-0.0015
2136.00,-0.0017
2135.00,-0.0021
2134.00,-0.0023
2133.00,-0.0023
2132.00,-0.0019
2131.00,-0.0015
2130.00,-0.0012
2129.00,-0.0010
2128.00,-0.0009
2127.00,-0.0008
2126.00,-0.0008
2125.00,-0.0007
2124.00,-0.0007
2123.00,-0.0006
2122.00,-0.0006
2121.00,-0.0005
2120.00,-0.0004
2119.00,-0.0003
2118.00,-0.0001
2117.00,0.0001
2116.00,0.0003
2115.00,0.0003
2114.00,0.0003
2113.00,0.0001
2112.00,0.0001
2111.00,0.0000
2110.00,0.0000
2109.00,0.0000
2108.00,0.0000
2107.00,0.0000
2106.00,0.0001
2105.00,0.0001
2104.00,0.0001
2103.00,0.0001
2102.00,0.0001
2101.00,0.0001
2100.00,0.0002
2099.00,0.0002
2098.00,0.0001
2097.00,-0.0002
2096.00,-0.0004
2095.00,-0.0006
2094.00,-0.0005
2093.00,-0.0004
2092.00,-0.0003
2091.00,-0.0002
2090.00,-0.0003
2089.00,-0.0003
2088.00,-0.0002
2087.00,-0.0001
2086.00,-0.0000
2085.00,0.0001
2084.00,0.0002
2083.00,0.0003
2082.00,0.0003
2081.00,0.0003
2080.00,0.0003
2079.00,0.0003
2078.00,0.0002
2077.00,0.0001
2076.00,0.0000
2075.00,0.0000
2074.00,0.0000
2073.00,0.0001
2072.00,0.0001
2071.00,0.0001
2070.00,0.0001
2069.00,0.0001
2068.00,-0.0000
2067.00,-0.0002
2066.00,-0.0004
2065.00,-0.0004
2064.00,-0.0002
2063.00,-0.0000
2062.00,0.0001
2061.00,0.0000
2060.00,-0.0001
2059.00,-0.0003
2058.00,-0.0003
2057.00,-0.0003
2056.00,-0.0002
2055.00,-0.0002
2054.00,-0.0002
2053.00,0.0001
2052.00,0.0005
2051.00,0.0009
2050.00,0.0009
2049.00,0.0007
2048.00,0.0002
2047.00,-0.0001
2046.00,-0.0003
2045.00,-0.0002
2044.00,0.0000
2043.00,0.0003
2042.00,0.0006
2041.00,0.0009
2040.00,0.0011
2039.00,0.0012
2038.00,0.0011
2037.00,0.0008
2036.00,0.0005
2035.00,0.0001
2034.00,-0.0003
2033.00,-0.0005
2032.00,-0.0008
2031.00,-0.0011
2030.00,-0.0014
2029.00,-0.0016
2028.00,-0.0016
2027.00,-0.0015
2026.00,-0.0015
2025.00,-0.0016
2024.00,-0.0018
2023.00,-0.0019
2022.00,-0.0017
2021.00,-0.0015
2020.00,-0.0013
2019.00,-0.0014
2018.00,-0.0015
2017.00,-0.0015
2016.00,-0.0013
2015.00,-0.0012
2014.00,-0.0012
2013.00,-0.0011
2012.00,-0.0010
2011.00,-0.0009
2010.00,-0.0009
2009.00,-0.0010
2008.00,-0.0012
2007.00,-0.0016
2006.00,-0.0019
2005.00,-0.0021
2004.00,-0.0021
2003.00,-0.0019
2002.00,-0.0017
2001.00,-0.0016
2000.00,-0.0014
1999.00,-0.0012
1998.00,-0.0009
1997.00,-0.0008
1996.00,-0.0008
1995.00,-0.0011
1994.00,-0.0015
1993.00,-0.0016
1992.00,-0.0014
1991.00,-0.0011
1990.00,-0.0007
1989.00,-0.0005
1988.00,-0.0004
1987.00,-0.0005
1986.00,-0.0005
1985.00,-0.0006
1984.00,-0.0006
1983.00,-0.0005
1982.00,-0.0001
1981.00,0.0004
1980.00,0.0007
1979.00,0.0006
1978.00,-0.0000
1977.00,-0.0008
1976.00,-0.0013
1975.00,-0.0016
1974.00,-0.0018
1973.00,-0.0018
1972.00,-0.0017
1971.00,-0.0016
1970.00,-0.0014
1969.00,-0.0013
1968.00,-0.0014
1967.00,-0.0018
1966.00,-0.0022
1965.00,-0.0025
1964.00,-0.0025
1963.00,-0.0023
1962.00,-0.0020
1961.00,-0.0019
1960.00,-0.0020
1959.00,-0.0022
1958.00,-0.0022
1957.00,-0.0021
1956.00,-0.0017
1955.00,-0.0014
1954.00,-0.0013
1953.00,-0.0013
1952.00,-0.0013
1951.00,-0.0014
1950.00,-0.0015
1949.00,-0.0017
1948.00,-0.0018
1947.00,-0.0018
1946.00,-0.0016
1945.00,-0.0012
1944.00,-0.0010
1943.00,-0.0010
1942.00,-0.0011
1941.00,-0.0012
1940.00,-0.0012
1939.00,-0.0012
1938.00,-0.0011
1937.00,-0.0012
1936.00,-0.0012
1935.00,-0.0013
1934.00,-0.0013
1933.00,-0.0013
1932.00,-0.0012
1931.00,-0.0012
1930.00,-0.0012
1929.00,-0.0011
1928.00,-0.0010
1927.00,-0.0010
1926.00,-0.0009
1925.00,-0.0008
1924.00,-0.0007
1923.00,-0.0006
1922.00,-0.0006
1921.00,-0.0004
1920.00,-0.0003
1919.00,-0.0003
1918.00,-0.0003
1917.00,-0.0005
1916.00,-0.0006
1915.00,-0.0007
1914.00,-0.0007
1913.00,-0.0007
1912.00,-0.0006
1911.00,-0.0005
1910.00,-0.0005
1909.00,-0.0004
1908.00,-0.0004
1907.00,-0.0004
1906.00,-0.0003
1905.00,-0.0003
1904.00,-0.0003
1903.00,-0.0004
1902.00,-0.0004
1901.00,-0.0005
1900.00,-0.0005
1899.00,-0.0005
1898.00,-0.0005
1897.00,-0.0004
1896.00,-0.0003
1895.00,-0.0002
1894.00,-0.0001
1893.00,-0.0001
1892.00,-0.0001
1891.00,-0.0001
1890.00,-0.0002
1889.00,-0.0003
1888.00,-0.0004
1887.00,-0.0005
1886.00,-0.0006
1885.00,-0.0006
1884.00,-0.0006
1883.00,-0.0005
1882.00,-0.0005
1881.00,-0.0004
1880.00,-0.0003
1879.00,-0.0003
1878.00,-0.0003
1877.00,-0.0003
1876.00,-0.0003
1875.00,-0.0002
1874.00,-0.0002
1873.00,-0.0002
1872.00,-0.0003
1871.00,-0.0004
1870.00,-0.0005
1869.00,-0.0005
1868.00,-0.0004
1867.00,-0.0003
1866.00,-0.0002
1865.00,-0.0001
1864.00,-0.0001
1863.00,-0.0001
1862.00,-0.0002
1861.00,-0.0002
1860.00,-0.0002
1859.00,-0.0001
1858.00,-0.0001
1857.00,-0.0001
1856.00,-0.0001
1855.00,-0.0001
1854.00,-0.0001
1853.00,-0.0001
1852.00,-0.0001
1851.00,-0.0001
1850.00,-0.0001
1849.00,-0.0001
1848.00,-0.0001
1847.00,-0.0001
1846.00,-0.0001
1845.00,-0.0001
1844.00,-0.0001
1843.00,-0.0001
1842.00,-0.0001
1841.00,-0.0001
1840.00,-0.0001
1839.00,0.0000
1838.00,0.0001
1837.00,0.0001
1836.00,0.0001
1835.00,0.0001
1834.00,0.0001
1833.00,0.0001
1832.00,0.0001
1831.00,0.0001
1830.00,0.0001
1829.00,0.0002
1828.00,0.0003
1827.00,0.0003
1826.00,0.0003
1825.00,0.0003
1824.00,0.0003
1823.00,0.0002
1822.00,0.0002
1821.00,0.0001
1820.00,0.0001
1819.00,0.0000
1818.00,-0.0000
1817.00,-0.0001
1816.00,-0.0001
1815.00,-0.0000
1814.00,0.0000
1813.00,0.0001
1812.00,0.0002
1811.00,0.0002
1810.00,0.0002
1809.00,0.0002
1808.00,0.0002
1807.00,0.0002
1806.00,0.0002
1805.00,0.0002
1804.00,0.0002
1803.00,0.0002
1802.00,0.0002
1801.00,0.0003
1800.00,0.0003
1799.00,0.0003
1798.00,0.0003
1797.00,0.0003
1796.00,0.0003
1795.00,0.0003
1794.00,0.0004
1793.00,0.0004
1792.00,0.0004
1791.00,0.0004
1790.00,0.0003
1789.00,0.0003
1788.00,0.0004
1787.00,0.0004
1786.00,0.0005
1785.00,0.0006
1784.00,0.0006
1783.00,0.0006
1782.00,0.0006
1781.00,0.0006
1780.00,0.0006
1779.00,0.0007
1778.00,0.0006
1777.00,0.0006
1776.00,0.0005
1775.00,0.0005
1774.00,0.0005
1773.00,0.0006
1772.00,0.0007
1771.00,0.0006
1770.00,0.0006
1769.00,0.0006
1768.00,0.0007
1767.00,0.0007
1766.00,0.0008
1765.00,0.0008
1764.00,0.0007
1763.00,0.0007
1762.00,0.0007
1761.00,0.0007
1760.00,0.0008
1759.00,0.0009
1758.00,0.0010
1757.00,0.0010
1756.00,0.0011
1755.00,0.0011
1754.00,0.0011
1753.00,0.0012
1752.00,0.0013
1751.00,0.0014
1750.00,0.0014
1749.00,0.0015
1748.00,0.0016
1747.00,0.0017
1746.00,0.0018
1745.00,0.0019
1744.00,0.0019
1743.00,0.0020
1742.00,0.0020
1741.00,0.0021
1740.00,0.0021
1739.00,0.0022
1738.00,0.0023
1737.00,0.0023
1736.00,0.0024
1735.00,0.0024
1734.00,0.0024
1733.00,0.0024
1732.00,0.0024
1731.00,0.0023
1730.00,0.0023
1729.00,0.0023
1728.00,0.0023
1727.00,0.0023
1726.00,0.0024
1725.00,0.0024
1724.00,0.0023
1723.00,0.0023
1722.00,0.0022
1721.00,0.0021
1720.00,0.0021
1719.00,0.0022
1718.00,0.0022
1717.00,0.0022
1716.00,0.0021
1715.00,0.0021
1714.00,0.0021
1713.00,0.0021
1712.00,0.0021
1711.00,0.0021
1710.00,0.0021
1709.00,0.0021
1708.00,0.0022
1707.00,0.0022
1706.00,0.0022
1705.00,0.0023
1704.00,0.0023
1703.00,0.0023
1702.00,0.0024
1701.00,0.0024
1700.00,0.0025
1699.00,0.0025
1698.00,0.0024
1697.00,0.0024
1696.00,0.0024
1695.00,0.0026
1694.00,0.0027
1693.00,0.0029
1692.00,0.0030
1691.00,0.0031
1690.00,0.0032
1689.00,0.0033
1688.00,0.0034
1687.00,0.0034
1686.00,0.0034
1685.00,0.0035
1684.00,0.0036
1683.00,0.0037
1682.00,0.0038
1681.00,0.0040
1680.00,0.0041
1679.00,0.0042
1678.00,0.0043
1677.00,0.0044
1676.00,0.0045
1675.00,0.0046
1674.00,0.0047
1673.00,0.0048
1672.00,0.0049
1671.00,0.0049
1670.00,0.0049
1669.00,0.0049
1668.00,0.0050
1667.00,0.0051
1666.00,0.0051
1665.00,0.0051
1664.00,0.0050
1663.00,0.0050
1662.00,0.0051
1661.00,0.0052
1660.00,0.0052
1659.00,0.0052
1658.00,0.0052
1657.00,0.0051
1656.00,0.0050
1655.00,0.0050
1654.00,0.0049
1653.00,0.0050
1652.00,0.0051
1651.00,0.0052
1650.00,0.0052
1649.00,0.0052
1648.00,0.0052
1647.00,0.0053
1646.00,0.0052
1645.00,0.0052
1644.00,0.0053
1643.00,0.0053
1642.00,0.0053
1641.00,0.0052
1640.00,0.0052
1639.00,0.0051
1638.00,0.0050
1637.00,0.0050
1636.00,0.0050
1635.00,0.0050
1634.00,0.0050
1633.00,0.0051
1632.00,0.0051
1631.00,0.0051
1630.00,0.0051
1629.00,0.0050
1628.00,0.0050
1627.00,0.0049
1626.00,0.0048
1625.00,0.0047
1624.00,0.0047
1623.00,0.0047
1622.00,0.0046
1621.00,0.0047
1620.00,0.0047
1619.00,0.0047
1618.00,0.0046
1617.00,0.0046
1616.00,0.0046
1615.00,0.0046
1614.00,0.0046
1613.00,0.0046
1612.00,0.0046
1611.00,0.0046
1610.00,0.0045
1609.00,0.0045
1608.00,0.0045
1607.00,0.0045
1606.00,0.0045
1605.00,0.0045
1604.00,0.0045
1603.00,0.0045
1602.00,0.0045
1601.00,0.0045
1600.00,0.0045
1599.00,0.0044
1598.00,0.0044
1597.00,0.0043
1596.00,0.0043
1595.00,0.0043
1594.00,0.0043
1593.00,0.0043
1592.00,0.0043
1591.00,0.0043
1590.00,0.0043
1589.00,0.0043
1588.00,0.0043
1587.00,0.0043
1586.00,0.0043
1585.00,0.0043
1584.00,0.0043
1583.00,0.0044
1582.00,0.0044
1581.00,0.0044
1580.00,0.0045
1579.00,0.0045
1578.00,0.0045
1577.00,0.0046
1576.00,0.0046
1575.00,0.0045
1574.00,0.0045
1573.00,0.0045
1572.00,0.0045
1571.00,0.0045
1570.00,0.0045
1569.00,0.0045
1568.00,0.0045
1567.00,0.0046
1566.00,0.0046
1565.00,0.0046
1564.00,0.0046
1563.00,0.0047
1562.00,0.0047
1561.00,0.0047
1560.00,0.0048
1559.00,0.0048
1558.00,0.0047
1557.00,0.0048
1556.00,0.0049
1555.00,0.0049
1554.00,0.0049
1553.00,0.0049
1552.00,0.0050
1551.00,0.0050
1550.00,0.0051
1549.00,0.0051
1548.00,0.0051
1547.00,0.0051
1546.00,0.0051
1545.00,0.0051
1544.00,0.0051
1543.00,0.0051
1542.00,0.0051
1541.00,0.0051
1540.00,0.0050
1539.00,0.0049
1538.00,0.0048
1537.00,0.0048
1536.00,0.0047
1535.00,0.0047
1534.00,0.0046
1533.00,0.0045
1532.00,0.0045
1531.00,0.0045
1530.00,0.0045
1529.00,0.0045
1528.00,0.0044
1527.00,0.0044
1526.00,0.0043
1525.00,0.0044
1524.00,0.0044
1523.00,0.0045
1522.00,0.0044
1521.00,0.0045
1520.00,0.0045
1519.00,0.0045
1518.00,0.0046
1517.00,0.0046
1516.00,0.0047
1515.00,0.0048
1514.00,0.0048
1513.00,0.0049
1512.00,0.0050
1511.00,0.0050
1510.00,0.0051
1509.00,0.0052
1508.00,0.0053
1507.00,0.0053
1506.00,0.0054
1505.00,0.0056
1504.00,0.0058
1503.00,0.0060
1502.00,0.0062
1501.00,0.0065
1500.00,0.0069
1499.00,0.0071
1498.00,0.0073
1497.00,0.0076
1496.00,0.0079
1495.00,0.0081
1494.00,0.0083
1493.00,0.0086
1492.00,0.0089
1491.00,0.0092
1490.00,0.0096
1489.00,0.0101
1488.00,0.0106
1487.00,0.0111
1486.00,0.0116
1485.00,0.0122
1484.00,0.0129
1483.00,0.0136
1482.00,0.0144
1481.00,0.0155
1480.00,0.0166
1479.00,0.0177
1478.00,0.0191
1477.00,0.0210
1476.00,0.0233
1475.00,0.0259
1474.00,0.0295
1473.00,0.0349
1472.00,0.0417
1471.00,0.0484
1470.00,0.0548
1469.00,0.0616
1468.00,0.0689
1467.00,0.0770
1466.00,0.0864
1465.00,0.0968
1464.00,0.1062
1463.00,0.1129
1462.00,0.1175
1461.00,0.1208
1460.00,0.1232
1459.00,0.1247
1458.00,0.1257
1457.00,0.1263
1456.00,0.1260
1455.00,0.1251
1454.00,0.1238
1453.00,0.1219
1452.00,0.1190
1451.00,0.1148
1450.00,0.1090
1449.00,0.1011
1448.00,0.0912
1447.00,0.0809
1446.00,0.0718
1445.00,0.0642
1444.00,0.0579
1443.00,0.0527
1442.00,0.0490
1441.00,0.0466
1440.00,0.0452
1439.00,0.0448
1438.00,0.0453
1437.00,0.0459
1436.00,0.0453
1435.00,0.0427
1434.00,0.0387
1433.00,0.0339
1432.00,0.0289
1431.00,0.0244
1430.00,0.0210
1429.00,0.0186
1428.00,0.0170
1427.00,0.0160
1426.00,0.0154
1425.00,0.0147
1424.00,0.0141
1423.00,0.0136
1422.00,0.0134
1421.00,0.0132
1420.00,0.0128
1419.00,0.0125
1418.00,0.0123
1417.00,0.0120
1416.00,0.0118
1415.00,0.0117
1414.00,0.0117
1413.00,0.0115
1412.00,0.0114
1411.00,0.0114
1410.00,0.0114
1409.00,0.0113
1408.00,0.0113
1407.00,0.0113
1406.00,0.0113
1405.00,0.0113
1404.00,0.0113
1403.00,0.0113
1402.00,0.0115
1401.00,0.0116
1400.00,0.0117
1399.00,0.0119
1398.00,0.0122
1397.00,0.0125
1396.00,0.0127
1395.00,0.0131
1394.00,0.0136
1393.00,0.0142
1392.00,0.0148
1391.00,0.0157
1390.00,0.0169
1389.00,0.0185
1388.00,0.0210
1387.00,0.0248
1386.00,0.0297
1385.00,0.0361
1384.00,0.0445
1383.00,0.0560
1382.00,0.0716
1381.00,0.0920
1380.00,0.1180
1379.00,0.1486
1378.00,0.1800
1377.00,0.2052
1376.00,0.2170
1375.00,0.2099
1374.00,0.1855
1373.00,0.1536
1372.00,0.1235
1371.00,0.0983
1370.00,0.0780
1369.00,0.0625
1368.00,0.0519
1367.00,0.0455
1366.00,0.0420
1365.00,0.0406
1364.00,0.0409
1363.00,0.0426
1362.00,0.0451
1361.00,0.0479
1360.00,0.0500
1359.00,0.0506
1358.00,0.0494
1357.00,0.0463
1356.00,0.0419
1355.00,0.0370
1354.00,0.0323
1353.00,0.0283
1352.00,0.0250
1351.00,0.0224
1350.00,0.0203
1349.00,0.0186
1348.00,0.0172
1347.00,0.0161
1346.00,0.0152
1345.00,0.0145
1344.00,0.0140
1343.00,0.0135
1342.00,0.0131
1341.00,0.0128
1340.00,0.0125
1339.00,0.0123
1338.00,0.0121
1337.00,0.0122
1336.00,0.0123
1335.00,0.0126
1334.00,0.0130
1333.00,0.0134
1332.00,0.0139
1331.00,0.0143
1330.00,0.0144
1329.00,0.0143
1328.00,0.0140
1327.00,0.0134
1326.00,0.0127
1325.00,0.0119
1324.00,0.0112
1323.00,0.0106
1322.00,0.0102
1321.00,0.0099
1320.00,0.0095
1319.00,0.0093
1318.00,0.0090
1317.00,0.0088
1316.00,0.0087
1315.00,0.0085
1314.00,0.0084
1313.00,0.0084
1312.00,0.0085
1311.00,0.0087
1310.00,0.0090
1309.00,0.0095
1308.00,0.0102
1307.00,0.0110
1306.00,0.0118
1305.00,0.0125
1304.00,0.0128
1303.00,0.0128
1302.00,0.0126
1301.00,0.0126
1300.00,0.0127
1299.00,0.0129
1298.00,0.0132
1297.00,0.0134
1296.00,0.0134
1295.00,0.0132
1294.00,0.0127
1293.00,0.0122
1292.00,0.0116
1291.00,0.0111
1290.00,0.0106
1289.00,0.0102
1288.00,0.0098
1287.00,0.0095
1286.00,0.0092
1285.00,0.0089
1284.00,0.0087
1283.00,0.0085
1282.00,0.0083
1281.00,0.0082
1280.00,0.0081
1279.00,0.0080
1278.00,0.0078
1277.00,0.0078
1276.00,0.0078
1275.00,0.0077
1274.00,0.0077
1273.00,0.0076
1272.00,0.0076
1271.00,0.0076
1270.00,0.0076
1269.00,0.0076
1268.00,0.0077
1267.00,0.0078
1266.00,0.0079
1265.00,0.0081
1264.00,0.0083
1263.00,0.0085
1262.00,0.0088
1261.00,0.0091
1260.00,0.0095
1259.00,0.0100
1258.00,0.0106
1257.00,0.0110
1256.00,0.0112
1255.00,0.0111
1254.00,0.0108
1253.00,0.0103
1252.00,0.0098
1251.00,0.0093
1250.00,0.0090
1249.00,0.0088
1248.00,0.0085
1247.00,0.0083
1246.00,0.0081
1245.00,0.0080
1244.00,0.0079
1243.00,0.0079
1242.00,0.0079
1241.00,0.0078
1240.00,0.0078
1239.00,0.0078
1238.00,0.0077
1237.00,0.0077
1236.00,0.0076
1235.00,0.0075
1234.00,0.0075
1233.00,0.0075
1232.00,0.0075
1231.00,0.0075
1230.00,0.0076
1229.00,0.0077
1228.00,0.0078
1227.00,0.0080
1226.00,0.0083
1225.00,0.0085
1224.00,0.0088
1223.00,0.0092
1222.00,0.0096
1221.00,0.0099
1220.00,0.0101
1219.00,0.0102
1218.00,0.0101
1217.00,0.0100
1216.00,0.0098
1215.00,0.0095
1214.00,0.0091
1213.00,0.0088
1212.00,0.0085
1211.00,0.0082
1210.00,0.0080
1209.00,0.0078
1208.00,0.0077
1207.00,0.0075
1206.00,0.0073
1205.00,0.0072
1204.00,0.0072
1203.00,0.0072
1202.00,0.0071
1201.00,0.0071
1200.00,0.0071
1199.00,0.0071
1198.00,0.0071
1197.00,0.0071
1196.00,0.0071
1195.00,0.0071
1194.00,0.0071
1193.00,0.0071
1192.00,0.0071
1191.00,0.0070
1190.00,0.0070
1189.00,0.0070
1188.00,0.0071
1187.00,0.0072
1186.00,0.0073
1185.00,0.0074
1184.00,0.0075
1183.00,0.0077
1182.00,0.0078
1181.00,0.0080
1180.00,0.0082
1179.00,0.0085
1178.00,0.0089
1177.00,0.0096
1176.00,0.0104
1175.00,0.0115
1174.00,0.0130
1173.00,0.0149
1172.00,0.0171
1171.00,0.0195
1170.00,0.0220
1169.00,0.0241
1168.00,0.0255
1167.00,0.0261
1166.00,0.0259
1165.00,0.0250
1164.00,0.0239
1163.00,0.0228
1162.00,0.0218
1161.00,0.0209
1160.00,0.0202
1159.00,0.0197
1158.00,0.0193
1157.00,0.0191
1156.00,0.0189
1155.00,0.0189
1154.00,0.0188
1153.00,0.0186
1152.00,0.0182
1151.00,0.0176
1150.00,0.0168
1149.00,0.0160
1148.00,0.0151
1147.00,0.0143
1146.00,0.0135
1145.00,0.0128
1144.00,0.0120
1143.00,0.0113
1142.00,0.0106
1141.00,0.0100
1140.00,0.0095
1139.00,0.0091
1138.00,0.0088
1137.00,0.0085
1136.00,0.0083
1135.00,0.0081
1134.00,0.0080
1133.00,0.0080
1132.00,0.0079
1131.00,0.0080
1130.00,0.0080
1129.00,0.0081
1128.00,0.0081
1127.00,0.0082
1126.00,0.0082
1125.00,0.0082
1124.00,0.0081
1123.00,0.0081
1122.00,0.0081
1121.00,0.0082
1120.00,0.0083
1119.00,0.0084
1118.00,0.0086
1117.00,0.0087
1116.00,0.0088
1115.00,0.0090
1114.00,0.0091
1113.00,0.0092
1112.00,0.0094
1111.00,0.0096
1110.00,0.0100
1109.00,0.0106
1108.00,0.0112
1107.00,0.0120
1106.00,0.0128
1105.00,0.0135
1104.00,0.0142
1103.00,0.0146
1102.00,0.0147
1101.00,0.0143
1100.00,0.0138
1099.00,0.0131
1098.00,0.0123
1097.00,0.0116
1096.00,0.0109
1095.00,0.0103
1094.00,0.0099
1093.00,0.0096
1092.00,0.0094
1091.00,0.0092
1090.00,0.0090
1089.00,0.0089
1088.00,0.0087
1087.00,0.0086
1086.00,0.0085
1085.00,0.0084
1084.00,0.0084
1083.00,0.0083
1082.00,0.0082
1081.00,0.0080
1080.00,0.0078
1079.00,0.0076
1078.00,0.0074
1077.00,0.0073
1076.00,0.0073
1075.00,0.0074
1074.00,0.0074
1073.00,0.0074
1072.00,0.0074
1071.00,0.0074
1070.00,0.0075
1069.00,0.0076
1068.00,0.0077
1067.00,0.0077
1066.00,0.0077
1065.00,0.0076
1064.00,0.0076
1063.00,0.0076
1062.00,0.0076
1061.00,0.0076
1060.00,0.0077
1059.00,0.0078
1058.00,0.0079
1057.00,0.0079
1056.00,0.0079
1055.00,0.0079
1054.00,0.0078
1053.00,0.0079
1052.00,0.0080
1051.00,0.0082
1050.00,0.0084
1049.00,0.0086
1048.00,0.0088
1047.00,0.0089
1046.00,0.0091
1045.00,0.0091
1044.00,0.0091
1043.00,0.0090
1042.00,0.0089
1041.00,0.0088
1040.00,0.0088
1039.00,0.0087
1038.00,0.0087
1037.00,0.0087
1036.00,0.0087
1035.00,0.0086
1034.00,0.0086
1033.00,0.0086
1032.00,0.0086
1031.00,0.0086
1030.00,0.0086
1029.00,0.0086
1028.00,0.0085
1027.00,0.0085
1026.00,0.0084
1025.00,0.0083
1024.00,0.0083
1023.00,0.0083
1022.00,0.0083
1021.00,0.0083
1020.00,0.0083
1019.00,0.0083
1018.00,0.0084
1017.00,0.0085
1016.00,0.0087
1015.00,0.0089
1014.00,0.0092
1013.00,0.0095
1012.00,0.0097
1011.00,0.0100
1010.00,0.0102
1009.00,0.0105
1008.00,0.0108
1007.00,0.0113
1006.00,0.0119
1005.00,0.0127
1004.00,0.0139
1003.00,0.0156
1002.00,0.0177
1001.00,0.0203
1000.00,0.0229
999.00,0.0249
998.00,0.0259
997.00,0.0253
996.00,0.0234
995.00,0.0206
994.00,0.0177
993.00,0.0152
992.00,0.0133
991.00,0.0119
990.00,0.0110
989.00,0.0105
988.00,0.0101
987.00,0.0099
986.00,0.0100
985.00,0.0102
984.00,0.0107
983.00,0.0114
982.00,0.0125
981.00,0.0139
980.00,0.0159
979.00,0.0183
978.00,0.0212
977.00,0.0245
976.00,0.0280
975.00,0.0311
974.00,0.0333
973.00,0.0338
972.00,0.0325
971.00,0.0294
970.00,0.0255
969.00,0.0215
968.00,0.0181
967.00,0.0156
966.00,0.0138
965.00,0.0125
964.00,0.0115
963.00,0.0107
962.00,0.0101
961.00,0.0096
960.00,0.0092
959.00,0.0088
958.00,0.0086
957.00,0.0084
956.00,0.0082
955.00,0.0080
954.00,0.0079
953.00,0.0078
952.00,0.0077
951.00,0.0076
950.00,0.0077
949.00,0.0078
948.00,0.0079
947.00,0.0081
946.00,0.0084
945.00,0.0087
944.00,0.0090
943.00,0.0093
942.00,0.0096
941.00,0.0098
940.00,0.0097
939.00,0.0094
938.00,0.0089
937.00,0.0083
936.00,0.0078
935.00,0.0073
934.00,0.0070
933.00,0.0067
932.00,0.0065
931.00,0.0064
930.00,0.0063
929.00,0.0062
928.00,0.0062
927.00,0.0062
926.00,0.0062
925.00,0.0062
924.00,0.0062
923.00,0.0062
922.00,0.0063
921.00,0.0063
920.00,0.0064
919.00,0.0064
918.00,0.0065
917.00,0.0066
916.00,0.0068
915.00,0.0069
914.00,0.0070
913.00,0.0070
912.00,0.0070
911.00,0.0071
910.00,0.0072
909.00,0.0074
908.00,0.0077
907.00,0.0082
906.00,0.0091
905.00,0.0103
904.00,0.0119
903.00,0.0140
902.00,0.0163
901.00,0.0185
900.00,0.0200
899.00,0.0203
898.00,0.0195
897.00,0.0178
896.00,0.0157
895.00,0.0136
894.00,0.0118
893.00,0.0102
892.00,0.0091
891.00,0.0083
890.00,0.0078
889.00,0.0075
888.00,0.0073
887.00,0.0072
886.00,0.0072
885.00,0.0071
884.00,0.0071
883.00,0.0071
882.00,0.0070
881.00,0.0069
880.00,0.0068
879.00,0.0068
878.00,0.0068
877.00,0.0070
876.00,0.0071
875.00,0.0073
874.00,0.0074
873.00,0.0075
872.00,0.0074
871.00,0.0073
870.00,0.0072
869.00,0.0071
868.00,0.0070
867.00,0.0070
866.00,0.0071
865.00,0.0072
864.00,0.0072
863.00,0.0073
862.00,0.0075
861.00,0.0077
860.00,0.0078
859.00,0.0080
858.00,0.0081
857.00,0.0083
856.00,0.0083
855.00,0.0084
854.00,0.0086
853.00,0.0087
852.00,0.0089
851.00,0.0091
850.00,0.0095
849.00,0.0100
848.00,0.0107
847.00,0.0116
846.00,0.0130
845.00,0.0151
844.00,0.0180
843.00,0.0212
842.00,0.0235
841.00,0.0240
840.00,0.0224
839.00,0.0195
838.00,0.0166
837.00,0.0142
836.00,0.0128
835.00,0.0119
834.00,0.0114
833.00,0.0111
832.00,0.0108
831.00,0.0105
830.00,0.0102
829.00,0.0100
828.00,0.0098
827.00,0.0097
826.00,0.0098
825.00,0.0099
824.00,0.0099
823.00,0.0099
822.00,0.0098
821.00,0.0099
820.00,0.0101
819.00,0.0104
818.00,0.0109
817.00,0.0117
816.00,0.0127
815.00,0.0140
814.00,0.0156
813.00,0.0173
812.00,0.0191
811.00,0.0209
810.00,0.0223
809.00,0.0230
808.00,0.0228
807.00,0.0217
806.00,0.0200
805.00,0.0181
804.00,0.0162
803.00,0.0146
802.00,0.0133
801.00,0.0123
800.00,0.0116
799.00,0.0111
798.00,0.0107
797.00,0.0103
796.00,0.0098
795.00,0.0093
794.00,0.0088
793.00,0.0084
792.00,0.0082
791.00,0.0081
790.00,0.0079
789.00,0.0078
788.00,0.0075
787.00,0.0072
786.00,0.0070
785.00,0.0068
784.00,0.0067
783.00,0.0064
782.00,0.0062
781.00,0.0060
780.00,0.0059
779.00,0.0058
778.00,0.0058
777.00,0.0058
776.00,0.0058
775.00,0.0060
774.00,0.0061
773.00,0.0063
772.00,0.0064
771.00,0.0065
770.00,0.0066
769.00,0.0067
768.00,0.0068
767.00,0.0068
766.00,0.0067
765.00,0.0066
764.00,0.0065
763.00,0.0063
762.00,0.0061
761.00,0.0059
760.00,0.0057
759.00,0.0055
758.00,0.0054
757.00,0.0053
756.00,0.0052
755.00,0.0052
754.00,0.0053
753.00,0.0053
752.00,0.0052
751.00,0.0052
750.00,0.0052
749.00,0.0052
748.00,0.0053
747.00,0.0054
746.00,0.0056
745.00,0.0057
744.00,0.0058
743.00,0.0060
742.00,0.0062
741.00,0.0063
740.00,0.0064
739.00,0.0066
738.00,0.0068
737.00,0.0070
736.00,0.0072
735.00,0.0075
734.00,0.0078
733.00,0.0080
732.00,0.0080
731.00,0.0079
730.00,0.0077
729.00,0.0075
728.00,0.0073
727.00,0.0071
726.00,0.0069
725.00,0.0066
724.00,0.0064
723.00,0.0063
722.00,0.0061
721.00,0.0059
720.00,0.0057
719.00,0.0056
718.00,0.0056
717.00,0.0056
716.00,0.0057
715.00,0.0057
714.00,0.0056
713.00,0.0055
712.00,0.0053
711.00,0.0052
710.00,0.0052
709.00,0.0053
708.00,0.0054
707.00,0.0056
706.00,0.0057
705.00,0.0058
704.00,0.0057
703.00,0.0057
702.00,0.0057
701.00,0.0056
700.00,0.0056
699.00,0.0056
698.00,0.0056
697.00,0.0056
696.00,0.0056
695.00,0.0055
694.00,0.0055
693.00,0.0054
692.00,0.0052
691.00,0.0050
690.00,0.0048
689.00,0.0047
688.00,0.0048
687.00,0.0049
686.00,0.0050
685.00,0.0050
684.00,0.0050
683.00,0.0049
682.00,0.0049
681.00,0.0049
680.00,0.0049
679.00,0.0049
678.00,0.0048
677.00,0.0048
676.00,0.0047
675.00,0.0047
674.00,0.0048
673.00,0.0050
672.00,0.0053
671.00,0.0055
670.00,0.0056
669.00,0.0054
668.00,0.0051
667.00,0.0049
666.00,0.0049
665.00,0.0050
664.00,0.0051
663.00,0.0051
662.00,0.0051
661.00,0.0052
660.00,0.0052
659.00,0.0053
658.00,0.0053
657.00,0.0052
656.00,0.0052
655.00,0.0051
654.00,0.0051
653.00,0.0052
652.00,0.0053
651.00,0.0054
650.00,0.0054
649.00,0.0053
648.00,0.0053
647.00,0.0052
646.00,0.0052
645.00,0.0051
644.00,0.0050
643.00,0.0050
642.00,0.0051
641.00,0.0052
640.00,0.0052
639.00,0.0050
638.00,0.0049
637.00,0.0047
636.00,0.0046
635.00,0.0046
634.00,0.0046
633.00,0.0046
632.00,0.0047
631.00,0.0050
630.00,0.0055
629.00,0.0059
628.00,0.0061
627.00,0.0061
626.00,0.0058
625.00,0.0055
624.00,0.0052
623.00,0.0051
622.00,0.0053
621.00,0.0055
620.00,0.0057
619.00,0.0057
618.00,0.0056
617.00,0.0055
616.00,0.0055
615.00,0.0055
614.00,0.0054
613.00,0.0053
612.00,0.0053
611.00,0.0052
610.00,0.0053
609.00,0.0054
608.00,0.0056
607.00,0.0057
606.00,0.0058
605.00,0.0059
604.00,0.0059
603.00,0.0060
602.00,0.0062
601.00,0.0062
600.00,0.0061
599.00,0.0058
598.00,0.0056
597.00,0.0054
596.00,0.0054
595.00,0.0055
594.00,0.0056
593.00,0.0056
592.00,0.0056
591.00,0.0055
590.00,0.0055
589.00,0.0055
588.00,0.0056
587.00,0.0057
586.00,0.0057
585.00,0.0055
584.00,0.0053
583.00,0.0053
582.00,0.0054
581.00,0.0056
580.00,0.0056
579.00,0.0055
578.00,0.0054
577.00,0.0054
576.00,0.0055
575.00,0.0058
574.00,0.0060
573.00,0.0060
572.00,0.0058
571.00,0.0057
570.00,0.0058
569.00,0.0059
568.00,0.0060
567.00,0.0060
566.00,0.0060
565.00,0.0060
564.00,0.0061
563.00,0.0063
562.00,0.0065
561.00,0.0065
560.00,0.0064
559.00,0.0062
558.00,0.0061
557.00,0.0060
556.00,0.0060
555.00,0.0059
554.00,0.0058
553.00,0.0056
552.00,0.0056
551.00,0.0059
550.00,0.0064
549.00,0.0066
548.00,0.0064
547.00,0.0061
546.00,0.0060
545.00,0.0064
544.00,0.0069
543.00,0.0074
542.00,0.0077
541.00,0.0079
540.00,0.0079
539.00,0.0077
538.00,0.0074
537.00,0.0070
536.00,0.0068
535.00,0.0071
534.00,0.0076
533.00,0.0080
532.00,0.0082
531.00,0.0084
530.00,0.0085
529.00,0.0086
528.00,0.0085
527.00,0.0083
526.00,0.0082
525.00,0.0080
524.00,0.0080
523.00,0.0081
522.00,0.0083
521.00,0.0083
520.00,0.0080
519.00,0.0074
518.00,0.0069
517.00,0.0065
516.00,0.0062
515.00,0.0062
514.00,0.0065
513.00,0.0068
512.00,0.0067
511.00,0.0062
510.00,0.0058
509.00,0.0056
508.00,0.0056
507.00,0.0056
506.00,0.0057
505.00,0.0061
504.00,0.0066
503.00,0.0068
502.00,0.0066
501.00,0.0063
500.00,0.0060
499.00,0.0058
498.00,0.0057
497.00,0.0055
496.00,0.0053
495.00,0.0053
494.00,0.0058
493.00,0.0066
492.00,0.0072
491.00,0.0077
490.00,0.0081
489.00,0.0082
488.00,0.0082
487.00,0.0081
486.00,0.0079
485.00,0.0080
484.00,0.0084
483.00,0.0089
482.00,0.0093
481.00,0.0093
480.00,0.0088
479.00,0.0079
478.00,0.0066
477.00,0.0055
476.00,0.0048
475.00,0.0047
474.00,0.0051
473.00,0.0059
472.00,0.0066
471.00,0.0069
470.00,0.0068
469.00,0.0066
468.00,0.0066
467.00,0.0073
466.00,0.0086
465.00,0.0103
464.00,0.0121
463.00,0.0140
462.00,0.0159
461.00,0.0177
460.00,0.0193
459.00,0.0202
458.00,0.0200
457.00,0.0188
456.00,0.0170
455.00,0.0152
454.00,0.0134
453.00,0.0119
452.00,0.0110
451.00,0.0106
450.00,0.0103
