Created as New Dataset,Sample 100 By Administrator Date Wednesday, September 10 2025
cm-1,A
4000.00,0.0009
3999.00,0.0009
3998.00,0.0009
3997.00,0.0009
3996.00,0.0009
3995.00,0.0009
3994.00,0.0009
3993.00,0.0010
3992.00,0.0010
3991.00,0.0010
3990.00,0.0009
3989.00,0.0009
3988.00,0.0009
3987.00,0.0009
3986.00,0.0009
3985.00,0.0009
3984.00,0.0009
3983.00,0.0008
3982.00,0.0008
3981.00,0.0008
3980.00,0.0008
3979.00,0.0008
3978.00,0.0007
3977.00,0.0007
3976.00,0.0008
3975.00,0.0008
3974.00,0.0008
3973.00,0.0009
3972.00,0.0008
3971.00,0.0008
3970.00,0.0008
3969.00,0.0008
3968.00,0.0008
3967.00,0.0008
3966.00,0.0008
3965.00,0.0008
3964.00,0.0008
3963.00,0.0008
3962.00,0.0008
3961.00,0.0008
3960.00,0.0007
3959.00,0.0007
3958.00,0.0007
3957.00,0.0007
3956.00,0.0007
3955.00,0.0007
3954.00,0.0007
3953.00,0.0007
3952.00,0.0006
3951.00,0.0006
3950.00,0.0007
3949.00,0.0007
3948.00,0.0007
3947.00,0.0007
3946.00,0.0007
3945.00,0.0007
3944.00,0.0007
3943.00,0.0007
3942.00,0.0007
3941.00,0.0007
3940.00,0.0007
3939.00,0.0007
3938.00,0.0007
3937.00,0.0007
3936.00,0.0007
3935.00,0.0008
3934.00,0.0008
3933.00,0.0008
3932.00,0.0008
3931.00,0.0008
3930.00,0.0008
3929.00,0.0007
3928.00,0.0007
3927.00,0.0007
3926.00,0.0007
3925.00,0.0007
3924.00,0.0007
3923.00,0.0007
3922.00,0.0008
3921.00,0.0008
3920.00,0.0008
3919.00,0.0008
3918.00,0.0008
3917.00,0.0009
3916.00,0.0008
3915.00,0.0008
3914.00,0.0008
3913.00,0.0007
3912.00,0.0007
3911.00,0.0007
3910.00,0.0007
3909.00,0.0007
3908.00,0.0007
3907.00,0.0007
3906.00,0.0007
3905.00,0.0008
3904.00,0.0008
3903.00,0.0007
3902.00,0.0007
3901.00,0.0007
3900.00,0.0007
3899.00,0.0007
3898.00,0.0007
3897.00,0.0007
3896.00,0.0007
3895.00,0.0007
3894.00,0.0007
3893.00,0.0007
3892.00,0.0007
3891.00,0.0007
3890.00,0.0007
3889.00,0.0007
3888.00,0.0007
3887.00,0.0007
3886.00,0.0007
3885.00,0.0007
3884.00,0.0007
3883.00,0.0007
3882.00,0.0008
3881.00,0.0008
3880.00,0.0008
3879.00,0.0007
3878.00,0.0007
3877.00,0.0007
3876.00,0.0007
3875.00,0.0006
3874.00,0.0007
3873.00,0.0006
3872.00,0.0006
3871.00,0.0006
3870.00,0.0006
3869.00,0.0007
3868.00,0.0007
3867.00,0.0007
3866.00,0.0007
3865.00,0.0007
3864.00,0.0007
3863.00,0.0007
3862.00,0.0007
3861.00,0.0007
3860.00,0.0007
3859.00,0.0007
3858.00,0.0007
3857.00,0.0007
3856.00,0.0007
3855.00,0.0007
3854.00,0.0007
3853.00,0.0007
3852.00,0.0007
3851.00,0.0007
3850.00,0.0006
3849.00,0.0006
3848.00,0.0006
3847.00,0.0006
3846.00,0.0005
3845.00,0.0005
3844.00,0.0005
3843.00,0.0005
3842.00,0.0006
3841.00,0.0006
3840.00,0.0006
3839.00,0.0005
3838.00,0.0005
3837.00,0.0005
3836.00,0.0006
3835.00,0.0006
3834.00,0.0007
3833.00,0.0007
3832.00,0.0007
3831.00,0.0007
3830.00,0.0007
3829.00,0.0006
3828.00,0.0006
3827.00,0.0006
3826.00,0.0006
3825.00,0.0006
3824.00,0.0006
3823.00,0.0006
3822.00,0.0005
3821.00,0.0005
3820.00,0.0005
3819.00,0.0005
3818.00,0.0006
3817.00,0.0006
3816.00,0.0007
3815.00,0.0007
3814.00,0.0007
3813.00,0.0007
3812.00,0.0007
3811.00,0.0006
3810.00,0.0006
3809.00,0.0006
3808.00,0.0006
3807.00,0.0006
3806.00,0.0006
3805.00,0.0006
3804.00,0.0006
3803.00,0.0006
3802.00,0.0006
3801.00,0.0006
3800.00,0.0006
3799.00,0.0006
3798.00,0.0005
3797.00,0.0005
3796.00,0.0006
3795.00,0.0006
3794.00,0.0006
3793.00,0.0006
3792.00,0.0006
3791.00,0.0007
3790.00,0.0007
3789.00,0.0007
3788.00,0.0007
3787.00,0.0007
3786.00,0.0007
3785.00,0.0007
3784.00,0.0006
3783.00,0.0006
3782.00,0.0006
3781.00,0.0007
3780.00,0.0007
3779.00,0.0008
3778.00,0.0008
3777.00,0.0008
3776.00,0.0008
3775.00,0.0008
3774.00,0.0008
3773.00,0.0008
3772.00,0.0008
3771.00,0.0007
3770.00,0.0007
3769.00,0.0007
3768.00,0.0007
3767.00,0.0007
3766.00,0.0007
3765.00,0.0007
3764.00,0.0007
3763.00,0.0007
3762.00,0.0007
3761.00,0.0007
3760.00,0.0006
3759.00,0.0006
3758.00,0.0006
3757.00,0.0006
3756.00,0.0006
3755.00,0.0007
3754.00,0.0007
3753.00,0.0008
3752.00,0.0008
3751.00,0.0007
3750.00,0.0006
3749.00,0.0005
3748.00,0.0005
3747.00,0.0005
3746.00,0.0005
3745.00,0.0006
3744.00,0.0007
3743.00,0.0007
3742.00,0.0007
3741.00,0.0007
3740.00,0.0007
3739.00,0.0006
3738.00,0.0006
3737.00,0.0006
3736.00,0.0006
3735.00,0.0006
3734.00,0.0006
3733.00,0.0006
3732.00,0.0007
3731.00,0.0007
3730.00,0.0007
3729.00,0.0007
3728.00,0.0007
3727.00,0.0007
3726.00,0.0007
3725.00,0.0006
3724.00,0.0006
3723.00,0.0006
3722.00,0.0005
3721.00,0.0005
3720.00,0.0005
3719.00,0.0005
3718.00,0.0006
3717.00,0.0006
3716.00,0.0006
3715.00,0.0006
3714.00,0.0007
3713.00,0.0007
3712.00,0.0007
3711.00,0.0007
3710.00,0.0007
3709.00,0.0006
3708.00,0.0006
3707.00,0.0006
3706.00,0.0006
3705.00,0.0006
3704.00,0.0006
3703.00,0.0006
3702.00,0.0006
3701.00,0.0006
3700.00,0.0006
3699.00,0.0006
3698.00,0.0005
3697.00,0.0005
3696.00,0.0005
3695.00,0.0005
3694.00,0.0005
3693.00,0.0006
3692.00,0.0006
3691.00,0.0006
3690.00,0.0006
3689.00,0.0006
3688.00,0.0007
3687.00,0.0007
3686.00,0.0007
3685.00,0.0007
3684.00,0.0007
3683.00,0.0007
3682.00,0.0008
3681.00,0.0007
3680.00,0.0007
3679.00,0.0007
3678.00,0.0007
3677.00,0.0006
3676.00,0.0007
3675.00,0.0007
3674.00,0.0007
3673.00,0.0007
3672.00,0.0006
3671.00,0.0006
3670.00,0.0006
3669.00,0.0006
3668.00,0.0007
3667.00,0.0007
3666.00,0.0007
3665.00,0.0008
3664.00,0.0008
3663.00,0.0008
3662.00,0.0007
3661.00,0.0007
3660.00,0.0007
3659.00,0.0007
3658.00,0.0007
3657.00,0.0008
3656.00,0.0008
3655.00,0.0008
3654.00,0.0008
3653.00,0.0008
3652.00,0.0008
3651.00,0.0007
3650.00,0.0007
3649.00,0.0007
3648.00,0.0006
3647.00,0.0007
3646.00,0.0007
3645.00,0.0008
3644.00,0.0008
3643.00,0.0009
3642.00,0.0009
3641.00,0.0009
3640.00,0.0009
3639.00,0.0009
3638.00,0.0010
3637.00,0.0010
3636.00,0.0010
3635.00,0.0010
3634.00,0.0010
3633.00,0.0010
3632.00,0.0010
3631.00,0.0010
3630.00,0.0010
3629.00,0.0010
3628.00,0.0010
3627.00,0.0010
3626.00,0.0010
3625.00,0.0010
3624.00,0.0010
3623.00,0.0011
3622.00,0.0011
3621.00,0.0011
3620.00,0.0011
3619.00,0.0011
3618.00,0.0011
3617.00,0.0011
3616.00,0.0011
3615.00,0.0011
3614.00,0.0012
3613.00,0.0012
3612.00,0.0013
3611.00,0.0013
3610.00,0.0013
3609.00,0.0013
3608.00,0.0013
3607.00,0.0013
3606.00,0.0014
3605.00,0.0014
3604.00,0.0014
3603.00,0.0013
3602.00,0.0013
3601.00,0.0013
3600.00,0.0013
3599.00,0.0013
3598.00,0.0014
3597.00,0.0014
3596.00,0.0015
3595.00,0.0015
3594.00,0.0015
3593.00,0.0015
3592.00,0.0016
3591.00,0.0016
3590.00,0.0016
3589.00,0.0016
3588.00,0.0016
3587.00,0.0017
3586.00,0.0017
3585.00,0.0017
3584.00,0.0018
3583.00,0.0018
3582.00,0.0018
3581.00,0.0018
3580.00,0.0018
3579.00,0.0018
3578.00,0.0019
3577.00,0.0020
3576.00,0.0020
3575.00,0.0020
3574.00,0.0020
3573.00,0.0021
3572.00,0.0021
3571.00,0.0022
3570.00,0.0022
3569.00,0.0022
3568.00,0.0021
3567.00,0.0021
3566.00,0.0022
3565.00,0.0022
3564.00,0.0023
3563.00,0.0024
3562.00,0.0024
3561.00,0.0024
3560.00,0.0024
3559.00,0.0024
3558.00,0.0024
3557.00,0.0024
3556.00,0.0025
3555.00,0.0025
3554.00,0.0025
3553.00,0.0025
3552.00,0.0026
3551.00,0.0026
3550.00,0.0027
3549.00,0.0028
3548.00,0.0028
3547.00,0.0029
3546.00,0.0029
3545.00,0.0029
3544.00,0.0029
3543.00,0.0030
3542.00,0.0030
3541.00,0.0030
3540.00,0.0031
3539.00,0.0031
3538.00,0.0032
3537.00,0.0033
3536.00,0.0033
3535.00,0.0033
3534.00,0.0033
3533.00,0.0033
3532.00,0.0033
3531.00,0.0034
3530.00,0.0034
3529.00,0.0035
3528.00,0.0035
3527.00,0.0035
3526.00,0.0035
3525.00,0.0035
3524.00,0.0035
3523.00,0.0036
3522.00,0.0036
3521.00,0.0036
3520.00,0.0036
3519.00,0.0037
3518.00,0.0037
3517.00,0.0037
3516.00,0.0038
3515.00,0.0039
3514.00,0.0039
3513.00,0.0040
3512.00,0.0040
3511.00,0.0041
3510.00,0.0041
3509.00,0.0040
3508.00,0.0040
3507.00,0.0040
3506.00,0.0041
3505.00,0.0041
3504.00,0.0042
3503.00,0.0043
3502.00,0.0043
3501.00,0.0044
3500.00,0.0044
3499.00,0.0043
3498.00,0.0043
3497.00,0.0044
3496.00,0.0044
3495.00,0.0044
3494.00,0.0045
3493.00,0.0045
3492.00,0.0045
3491.00,0.0046
3490.00,0.0046
3489.00,0.0046
3488.00,0.0047
3487.00,0.0047
3486.00,0.0047
3485.00,0.0047
3484.00,0.0048
3483.00,0.0048
3482.00,0.0049
3481.00,0.0049
3480.00,0.0049
3479.00,0.0050
3478.00,0.0050
3477.00,0.0050
3476.00,0.0051
3475.00,0.0051
3474.00,0.0051
3473.00,0.0052
3472.00,0.0052
3471.00,0.0052
3470.00,0.0053
3469.00,0.0053
3468.00,0.0053
3467.00,0.0053
3466.00,0.0054
3465.00,0.0054
3464.00,0.0054
3463.00,0.0054
3462.00,0.0054
3461.00,0.0054
3460.00,0.0055
3459.00,0.0056
3458.00,0.0056
3457.00,0.0057
3456.00,0.0057
3455.00,0.0058
3454.00,0.0058
3453.00,0.0057
3452.00,0.0057
3451.00,0.0057
3450.00,0.0057
3449.00,0.0057
3448.00,0.0058
3447.00,0.0058
3446.00,0.0059
3445.00,0.0059
3444.00,0.0060
3443.00,0.0060
3442.00,0.0060
3441.00,0.0061
3440.00,0.0061
3439.00,0.0062
3438.00,0.0062
3437.00,0.0062
3436.00,0.0062
3435.00,0.0063
3434.00,0.0063
3433.00,0.0063
3432.00,0.0063
3431.00,0.0063
3430.00,0.0063
3429.00,0.0064
3428.00,0.0064
3427.00,0.0064
3426.00,0.0065
3425.00,0.0065
3424.00,0.0065
3423.00,0.0065
3422.00,0.0065
3421.00,0.0065
3420.00,0.0065
3419.00,0.0065
3418.00,0.0066
3417.00,0.0066
3416.00,0.0066
3415.00,0.0067
3414.00,0.0067
3413.00,0.0067
3412.00,0.0067
3411.00,0.0067
3410.00,0.0067
3409.00,0.0067
3408.00,0.0068
3407.00,0.0068
3406.00,0.0068
3405.00,0.0069
3404.00,0.0069
3403.00,0.0070
3402.00,0.0070
3401.00,0.0071
3400.00,0.0071
3399.00,0.0071
3398.00,0.0071
3397.00,0.0071
3396.00,0.0071
3395.00,0.0071
3394.00,0.0071
3393.00,0.0072
3392.00,0.0072
3391.00,0.0071
3390.00,0.0071
3389.00,0.0071
3388.00,0.0071
3387.00,0.0071
3386.00,0.0071
3385.00,0.0071
3384.00,0.0071
3383.00,0.0071
3382.00,0.0071
3381.00,0.0071
3380.00,0.0071
3379.00,0.0071
3378.00,0.0070
3377.00,0.0070
3376.00,0.0070
3375.00,0.0070
3374.00,0.0070
3373.00,0.0071
3372.00,0.0071
3371.00,0.0071
3370.00,0.0071
3369.00,0.0071
3368.00,0.0071
3367.00,0.0071
3366.00,0.0071
3365.00,0.0071
3364.00,0.0071
3363.00,0.0071
3362.00,0.0071
3361.00,0.0071
3360.00,0.0071
3359.00,0.0071
3358.00,0.0071
3357.00,0.0071
3356.00,0.0071
3355.00,0.0072
3354.00,0.0072
3353.00,0.0072
3352.00,0.0072
3351.00,0.0072
3350.00,0.0072
3349.00,0.0071
3348.00,0.0071
3347.00,0.0072
3346.00,0.0072
3345.00,0.0072
3344.00,0.0072
3343.00,0.0072
3342.00,0.0072
3341.00,0.0071
3340.00,0.0072
3339.00,0.0072
3338.00,0.0071
3337.00,0.0071
3336.00,0.0070
3335.00,0.0070
3334.00,0.0069
3333.00,0.0069
3332.00,0.0069
3331.00,0.0069
3330.00,0.0069
3329.00,0.0069
3328.00,0.0069
3327.00,0.0069
3326.00,0.0069
3325.00,0.0069
3324.00,0.0069
3323.00,0.0069
3322.00,0.0069
3321.00,0.0069
3320.00,0.0069
3319.00,0.0069
3318.00,0.0069
3317.00,0.0069
3316.00,0.0069
3315.00,0.0068
3314.00,0.0068
3313.00,0.0068
3312.00,0.0068
3311.00,0.0067
3310.00,0.0067
3309.00,0.0067
3308.00,0.0067
3307.00,0.0067
3306.00,0.0067
3305.00,0.0067
3304.00,0.0067
3303.00,0.0067
3302.00,0.0066
3301.00,0.0066
3300.00,0.0066
3299.00,0.0065
3298.00,0.0065
3297.00,0.0065
3296.00,0.0065
3295.00,0.0065
3294.00,0.0064
3293.00,0.0064
3292.00,0.0064
3291.00,0.0064
3290.00,0.0064
3289.00,0.0064
3288.00,0.0064
3287.00,0.0063
3286.00,0.0063
3285.00,0.0063
3284.00,0.0063
3283.00,0.0063
3282.00,0.0063
3281.00,0.0063
3280.00,0.0063
3279.00,0.0063
3278.00,0.0062
3277.00,0.0062
3276.00,0.0062
3275.00,0.0061
3274.00,0.0061
3273.00,0.0061
3272.00,0.0061
3271.00,0.0061
3270.00,0.0061
3269.00,0.0061
3268.00,0.0060
3267.00,0.0060
3266.00,0.0059
3265.00,0.0059
3264.00,0.0059
3263.00,0.0059
3262.00,0.0059
3261.00,0.0059
3260.00,0.0059
3259.00,0.0058
3258.00,0.0058
3257.00,0.0057
3256.00,0.0057
3255.00,0.0057
3254.00,0.0057
3253.00,0.0057
3252.00,0.0057
3251.00,0.0056
3250.00,0.0056
3249.00,0.0056
3248.00,0.0055
3247.00,0.0055
3246.00,0.0055
3245.00,0.0055
3244.00,0.0055
3243.00,0.0055
3242.00,0.0054
3241.00,0.0054
3240.00,0.0054
3239.00,0.0054
3238.00,0.0054
3237.00,0.0054
3236.00,0.0054
3235.00,0.0054
3234.00,0.0054
3233.00,0.0054
3232.00,0.0054
3231.00,0.0054
3230.00,0.0054
3229.00,0.0054
3228.00,0.0054
3227.00,0.0054
3226.00,0.0054
3225.00,0.0055
3224.00,0.0055
3223.00,0.0055
3222.00,0.0055
3221.00,0.0055
3220.00,0.0055
3219.00,0.0055
3218.00,0.0055
3217.00,0.0055
3216.00,0.0056
3215.00,0.0056
3214.00,0.0056
3213.00,0.0057
3212.00,0.0057
3211.00,0.0057
3210.00,0.0057
3209.00,0.0057
3208.00,0.0057
3207.00,0.0057
3206.00,0.0057
3205.00,0.0057
3204.00,0.0058
3203.00,0.0058
3202.00,0.0059
3201.00,0.0059
3200.00,0.0059
3199.00,0.0059
3198.00,0.0058
3197.00,0.0058
3196.00,0.0058
3195.00,0.0057
3194.00,0.0057
3193.00,0.0057
3192.00,0.0057
3191.00,0.0057
3190.00,0.0057
3189.00,0.0057
3188.00,0.0056
3187.00,0.0056
3186.00,0.0056
3185.00,0.0056
3184.00,0.0056
3183.00,0.0056
3182.00,0.0055
3181.00,0.0054
3180.00,0.0054
3179.00,0.0054
3178.00,0.0054
3177.00,0.0054
3176.00,0.0054
3175.00,0.0053
3174.00,0.0053
3173.00,0.0053
3172.00,0.0053
3171.00,0.0052
3170.00,0.0052
3169.00,0.0051
3168.00,0.0051
3167.00,0.0051
3166.00,0.0051
3165.00,0.0050
3164.00,0.0050
3163.00,0.0050
3162.00,0.0049
3161.00,0.0049
3160.00,0.0049
3159.00,0.0049
3158.00,0.0049
3157.00,0.0049
3156.00,0.0049
3155.00,0.0049
3154.00,0.0049
3153.00,0.0049
3152.00,0.0049
3151.00,0.0048
3150.00,0.0048
3149.00,0.0049
3148.00,0.0049
3147.00,0.0049
3146.00,0.0049
3145.00,0.0048
3144.00,0.0048
3143.00,0.0048
3142.00,0.0048
3141.00,0.0048
3140.00,0.0047
3139.00,0.0047
3138.00,0.0046
3137.00,0.0046
3136.00,0.0046
3135.00,0.0045
3134.00,0.0045
3133.00,0.0045
3132.00,0.0045
3131.00,0.0045
3130.00,0.0044
3129.00,0.0044
3128.00,0.0043
3127.00,0.0043
3126.00,0.0043
3125.00,0.0043
3124.00,0.0043
3123.00,0.0043
3122.00,0.0042
3121.00,0.0041
3120.00,0.0041
3119.00,0.0041
3118.00,0.0040
3117.00,0.0040
3116.00,0.0040
3115.00,0.0039
3114.00,0.0039
3113.00,0.0039
3112.00,0.0039
3111.00,0.0039
3110.00,0.0040
3109.00,0.0040
3108.00,0.0040
3107.00,0.0039
3106.00,0.0039
3105.00,0.0039
3104.00,0.0038
3103.00,0.0038
3102.00,0.0037
3101.00,0.0037
3100.00,0.0037
3099.00,0.0037
3098.00,0.0037
3097.00,0.0037
3096.00,0.0037
3095.00,0.0037
3094.00,0.0037
3093.00,0.0037
3092.00,0.0037
3091.00,0.0037
3090.00,0.0037
3089.00,0.0036
3088.00,0.0035
3087.00,0.0035
3086.00,0.0035
3085.00,0.0035
3084.00,0.0035
3083.00,0.0034
3082.00,0.0034
3081.00,0.0034
3080.00,0.0035
3079.00,0.0035
3078.00,0.0036
3077.00,0.0036
3076.00,0.0036
3075.00,0.0036
3074.00,0.0036
3073.00,0.0036
3072.00,0.0036
3071.00,0.0036
3070.00,0.0036
3069.00,0.0037
3068.00,0.0037
3067.00,0.0037
3066.00,0.0037
3065.00,0.0037
3064.00,0.0037
3063.00,0.0037
3062.00,0.0037
3061.00,0.0037
3060.00,0.0037
3059.00,0.0037
3058.00,0.0037
3057.00,0.0037
3056.00,0.0038
3055.00,0.0038
3054.00,0.0039
3053.00,0.0039
3052.00,0.0039
3051.00,0.0039
3050.00,0.0040
3049.00,0.0039
3048.00,0.0039
3047.00,0.0039
3046.00,0.0040
3045.00,0.0040
3044.00,0.0040
3043.00,0.0040
3042.00,0.0041
3041.00,0.0041
3040.00,0.0041
3039.00,0.0042
3038.00,0.0042
3037.00,0.0042
3036.00,0.0042
3035.00,0.0043
3034.00,0.0043
3033.00,0.0043
3032.00,0.0044
3031.00,0.0044
3030.00,0.0045
3029.00,0.0045
3028.00,0.0046
3027.00,0.0046
3026.00,0.0047
3025.00,0.0047
3024.00,0.0048
3023.00,0.0048
3022.00,0.0049
3021.00,0.0050
3020.00,0.0051
3019.00,0.0051
3018.00,0.0052
3017.00,0.0053
3016.00,0.0053
3015.00,0.0054
3014.00,0.0055
3013.00,0.0057
3012.00,0.0058
3011.00,0.0060
3010.00,0.0061
3009.00,0.0063
3008.00,0.0065
3007.00,0.0066
3006.00,0.0068
3005.00,0.0070
3004.00,0.0072
3003.00,0.0074
3002.00,0.0077
3001.00,0.0080
3000.00,0.0083
2999.00,0.0086
2998.00,0.0089
2997.00,0.0091
2996.00,0.0095
2995.00,0.0098
2994.00,0.0102
2993.00,0.0107
2992.00,0.0112
2991.00,0.0118
2990.00,0.0125
2989.00,0.0132
2988.00,0.0140
2987.00,0.0148
2986.00,0.0158
2985.00,0.0170
2984.00,0.0182
2983.00,0.0196
2982.00,0.0211
2981.00,0.0228
2980.00,0.0246
2979.00,0.0267
2978.00,0.0290
2977.00,0.0316
2976.00,0.0347
2975.00,0.0382
2974.00,0.0422
2973.00,0.0467
2972.00,0.0518
2971.00,0.0574
2970.00,0.0636
2969.00,0.0703
2968.00,0.0776
2967.00,0.0852
2966.00,0.0931
2965.00,0.1010
2964.00,0.1086
2963.00,0.1156
2962.00,0.1216
2961.00,0.1268
2960.00,0.1311
2959.00,0.1352
2958.00,0.1394
2957.00,0.1444
2956.00,0.1504
2955.00,0.1577
2954.00,0.1662
2953.00,0.1752
2952.00,0.1839
2951.00,0.1910
2950.00,0.1954
2949.00,0.1961
2948.00,0.1923
2947.00,0.1843
2946.00,0.1728
2945.00,0.1595
2944.00,0.1459
2943.00,0.1336
2942.00,0.1236
2941.00,0.1162
2940.00,0.1116
2939.00,0.1094
2938.00,0.1095
2937.00,0.1117
2936.00,0.1156
2935.00,0.1213
2934.00,0.1284
2933.00,0.1370
2932.00,0.1467
2931.00,0.1575
2930.00,0.1690
2929.00,0.1809
2928.00,0.1928
2927.00,0.2045
2926.00,0.2159
2925.00,0.2268
2924.00,0.2374
2923.00,0.2479
2922.00,0.2584
2921.00,0.2685
2920.00,0.2777
2919.00,0.2850
2918.00,0.2892
2917.00,0.2896
2916.00,0.2857
2915.00,0.2781
2914.00,0.2676
2913.00,0.2556
2912.00,0.2433
2911.00,0.2314
2910.00,0.2204
2909.00,0.2104
2908.00,0.2011
2907.00,0.1925
2906.00,0.1841
2905.00,0.1760
2904.00,0.1681
2903.00,0.1604
2902.00,0.1530
2901.00,0.1458
2900.00,0.1390
2899.00,0.1326
2898.00,0.1268
2897.00,0.1215
2896.00,0.1169
2895.00,0.1130
2894.00,0.1099
2893.00,0.1074
2892.00,0.1057
2891.00,0.1046
2890.00,0.1042
2889.00,0.1042
2888.00,0.1047
2887.00,0.1055
2886.00,0.1067
2885.00,0.1083
2884.00,0.1103
2883.00,0.1129
2882.00,0.1160
2881.00,0.1195
2880.00,0.1231
2879.00,0.1262
2878.00,0.1284
2877.00,0.1295
2876.00,0.1295
2875.00,0.1288
2874.00,0.1280
2873.00,0.1277
2872.00,0.1281
2871.00,0.1295
2870.00,0.1316
2869.00,0.1339
2868.00,0.1357
2867.00,0.1359
2866.00,0.1338
2865.00,0.1287
2864.00,0.1210
2863.00,0.1116
2862.00,0.1016
2861.00,0.0921
2860.00,0.0838
2859.00,0.0771
2858.00,0.0721
2857.00,0.0685
2856.00,0.0660
2855.00,0.0645
2854.00,0.0638
2853.00,0.0638
2852.00,0.0644
2851.00,0.0655
2850.00,0.0672
2849.00,0.0693
2848.00,0.0721
2847.00,0.0755
2846.00,0.0797
2845.00,0.0848
2844.00,0.0908
2843.00,0.0974
2842.00,0.1043
2841.00,0.1110
2840.00,0.1167
2839.00,0.1204
2838.00,0.1214
2837.00,0.1191
2836.00,0.1135
2835.00,0.1049
2834.00,0.0945
2833.00,0.0835
2832.00,0.0730
2831.00,0.0636
2830.00,0.0556
2829.00,0.0491
2828.00,0.0438
2827.00,0.0396
2826.00,0.0361
2825.00,0.0333
2824.00,0.0309
2823.00,0.0289
2822.00,0.0272
2821.00,0.0258
2820.00,0.0245
2819.00,0.0235
2818.00,0.0225
2817.00,0.0217
2816.00,0.0209
2815.00,0.0203
2814.00,0.0197
2813.00,0.0191
2812.00,0.0186
2811.00,0.0181
2810.00,0.0175
2809.00,0.0169
2808.00,0.0163
2807.00,0.0157
2806.00,0.0150
2805.00,0.0144
2804.00,0.0137
2803.00,0.0131
2802.00,0.0125
2801.00,0.0121
2800.00,0.0117
2799.00,0.0113
2798.00,0.0111
2797.00,0.0108
2796.00,0.0106
2795.00,0.0103
2794.00,0.0101
2793.00,0.0098
2792.00,0.0095
2791.00,0.0092
2790.00,0.0089
2789.00,0.0086
2788.00,0.0084
2787.00,0.0081
2786.00,0.0079
2785.00,0.0076
2784.00,0.0074
2783.00,0.0072
2782.00,0.0071
2781.00,0.0069
2780.00,0.0067
2779.00,0.0066
2778.00,0.0064
2777.00,0.0063
2776.00,0.0061
2775.00,0.0060
2774.00,0.0059
2773.00,0.0058
2772.00,0.0058
2771.00,0.0057
2770.00,0.0057
2769.00,0.0057
2768.00,0.0057
2767.00,0.0056
2766.00,0.0056
2765.00,0.0055
2764.00,0.0055
2763.00,0.0055
2762.00,0.0055
2761.00,0.0055
2760.00,0.0054
2759.00,0.0054
2758.00,0.0054
2757.00,0.0053
2756.00,0.0053
2755.00,0.0053
2754.00,0.0053
2753.00,0.0053
2752.00,0.0052
2751.00,0.0052
2750.00,0.0052
2749.00,0.0052
2748.00,0.0052
2747.00,0.0053
2746.00,0.0053
2745.00,0.0054
2744.00,0.0054
2743.00,0.0055
2742.00,0.0056
2741.00,0.0058
2740.00,0.0059
2739.00,0.0060
2738.00,0.0062
2737.00,0.0063
2736.00,0.0065
2735.00,0.0067
2734.00,0.0069
2733.00,0.0071
2732.00,0.0073
2731.00,0.0075
2730.00,0.0077
2729.00,0.0079
2728.00,0.0082
2727.00,0.0085
2726.00,0.0088
2725.00,0.0090
2724.00,0.0092
2723.00,0.0092
2722.00,0.0091
2721.00,0.0089
2720.00,0.0086
2719.00,0.0083
2718.00,0.0079
2717.00,0.0076
2716.00,0.0072
2715.00,0.0070
2714.00,0.0067
2713.00,0.0065
2712.00,0.0063
2711.00,0.0060
2710.00,0.0058
2709.00,0.0057
2708.00,0.0055
2707.00,0.0054
2706.00,0.0052
2705.00,0.0051
2704.00,0.0050
2703.00,0.0049
2702.00,0.0049
2701.00,0.0048
2700.00,0.0047
2699.00,0.0046
2698.00,0.0045
2697.00,0.0045
2696.00,0.0045
2695.00,0.0044
2694.00,0.0044
2693.00,0.0044
2692.00,0.0044
2691.00,0.0045
2690.00,0.0045
2689.00,0.0045
2688.00,0.0045
2687.00,0.0045
2686.00,0.0045
2685.00,0.0045
2684.00,0.0045
2683.00,0.0045
2682.00,0.0045
2681.00,0.0045
2680.00,0.0045
2679.00,0.0045
2678.00,0.0045
2677.00,0.0045
2676.00,0.0045
2675.00,0.0045
2674.00,0.0045
2673.00,0.0045
2672.00,0.0045
2671.00,0.0045
2670.00,0.0045
2669.00,0.0045
2668.00,0.0045
2667.00,0.0045
2666.00,0.0046
2665.00,0.0046
2664.00,0.0047
2663.00,0.0048
2662.00,0.0048
2661.00,0.0048
2660.00,0.0048
2659.00,0.0048
2658.00,0.0048
2657.00,0.0048
2656.00,0.0047
2655.00,0.0046
2654.00,0.0046
2653.00,0.0045
2652.00,0.0045
2651.00,0.0044
2650.00,0.0044
2649.00,0.0044
2648.00,0.0043
2647.00,0.0042
2646.00,0.0042
2645.00,0.0041
2644.00,0.0041
2643.00,0.0041
2642.00,0.0040
2641.00,0.0040
2640.00,0.0039
2639.00,0.0039
2638.00,0.0039
2637.00,0.0039
2636.00,0.0039
2635.00,0.0039
2634.00,0.0039
2633.00,0.0039
2632.00,0.0039
2631.00,0.0039
2630.00,0.0039
2629.00,0.0039
2628.00,0.0039
2627.00,0.0040
2626.00,0.0040
2625.00,0.0040
2624.00,0.0040
2623.00,0.0040
2622.00,0.0040
2621.00,0.0040
2620.00,0.0040
2619.00,0.0040
2618.00,0.0040
2617.00,0.0040
2616.00,0.0041
2615.00,0.0041
2614.00,0.0041
2613.00,0.0040
2612.00,0.0040
2611.00,0.0039
2610.00,0.0039
2609.00,0.0038
2608.00,0.0037
2607.00,0.0036
2606.00,0.0035
2605.00,0.0035
2604.00,0.0034
2603.00,0.0033
2602.00,0.0032
2601.00,0.0031
2600.00,0.0031
2599.00,0.0032
2598.00,0.0032
2597.00,0.0033
2596.00,0.0033
2595.00,0.0033
2594.00,0.0033
2593.00,0.0033
2592.00,0.0034
2591.00,0.0035
2590.00,0.0036
2589.00,0.0037
2588.00,0.0038
2587.00,0.0038
2586.00,0.0039
2585.00,0.0039
2584.00,0.0039
2583.00,0.0039
2582.00,0.0039
2581.00,0.0039
2580.00,0.0039
2579.00,0.0039
2578.00,0.0038
2577.00,0.0037
2576.00,0.0036
2575.00,0.0035
2574.00,0.0034
2573.00,0.0033
2572.00,0.0032
2571.00,0.0031
2570.00,0.0030
2569.00,0.0029
2568.00,0.0028
2567.00,0.0027
2566.00,0.0027
2565.00,0.0027
2564.00,0.0026
2563.00,0.0025
2562.00,0.0025
2561.00,0.0025
2560.00,0.0025
2559.00,0.0025
2558.00,0.0024
2557.00,0.0023
2556.00,0.0023
2555.00,0.0023
2554.00,0.0023
2553.00,0.0023
2552.00,0.0023
2551.00,0.0023
2550.00,0.0022
2549.00,0.0022
2548.00,0.0021
2547.00,0.0020
2546.00,0.0020
2545.00,0.0019
2544.00,0.0019
2543.00,0.0019
2542.00,0.0018
2541.00,0.0018
2540.00,0.0018
2539.00,0.0018
2538.00,0.0018
2537.00,0.0018
2536.00,0.0018
2535.00,0.0018
2534.00,0.0017
2533.00,0.0016
2532.00,0.0016
2531.00,0.0015
2530.00,0.0015
2529.00,0.0015
2528.00,0.0016
2527.00,0.0016
2526.00,0.0015
2525.00,0.0015
2524.00,0.0014
2523.00,0.0014
2522.00,0.0014
2521.00,0.0014
2520.00,0.0014
2519.00,0.0013
2518.00,0.0012
2517.00,0.0012
2516.00,0.0011
2515.00,0.0011
2514.00,0.0011
2513.00,0.0012
2512.00,0.0012
2511.00,0.0012
2510.00,0.0012
2509.00,0.0012
2508.00,0.0012
2507.00,0.0012
2506.00,0.0012
2505.00,0.0012
2504.00,0.0011
2503.00,0.0011
2502.00,0.0010
2501.00,0.0010
2500.00,0.0010
2499.00,0.0010
2498.00,0.0010
2497.00,0.0010
2496.00,0.0010
2495.00,0.0011
2494.00,0.0011
2493.00,0.0011
2492.00,0.0011
2491.00,0.0011
2490.00,0.0011
2489.00,0.0012
2488.00,0.0012
2487.00,0.0012
2486.00,0.0012
2485.00,0.0012
2484.00,0.0011
2483.00,0.0011
2482.00,0.0011
2481.00,0.0011
2480.00,0.0011
2479.00,0.0011
2478.00,0.0011
2477.00,0.0012
2476.00,0.0012
2475.00,0.0012
2474.00,0.0012
2473.00,0.0011
2472.00,0.0010
2471.00,0.0009
2470.00,0.0009
2469.00,0.0009
2468.00,0.0010
2467.00,0.0010
2466.00,0.0011
2465.00,0.0011
2464.00,0.0011
2463.00,0.0011
2462.00,0.0011
2461.00,0.0011
2460.00,0.0011
2459.00,0.0011
2458.00,0.0012
2457.00,0.0013
2456.00,0.0013
2455.00,0.0014
2454.00,0.0013
2453.00,0.0013
2452.00,0.0013
2451.00,0.0013
2450.00,0.0012
2449.00,0.0012
2448.00,0.0011
2447.00,0.0011
2446.00,0.0011
2445.00,0.0011
2444.00,0.0011
2443.00,0.0012
2442.00,0.0012
2441.00,0.0011
2440.00,0.0011
2439.00,0.0011
2438.00,0.0011
2437.00,0.0012
2436.00,0.0012
2435.00,0.0012
2434.00,0.0012
2433.00,0.0011
2432.00,0.0011
2431.00,0.0011
2430.00,0.0012
2429.00,0.0013
2428.00,0.0013
2427.00,0.0013
2426.00,0.0012
2425.00,0.0012
2424.00,0.0011
2423.00,0.0011
2422.00,0.0010
2421.00,0.0010
2420.00,0.0010
2419.00,0.0010
2418.00,0.0010
2417.00,0.0011
2416.00,0.0011
2415.00,0.0011
2414.00,0.0011
2413.00,0.0010
2412.00,0.0010
2411.00,0.0010
2410.00,0.0011
2409.00,0.0011
2408.00,0.0011
2407.00,0.0010
2406.00,0.0010
2405.00,0.0010
2404.00,0.0010
2403.00,0.0010
2402.00,0.0010
2401.00,0.0010
2400.00,0.0009
2399.00,0.0009
2398.00,0.0009
2397.00,0.0009
2396.00,0.0009
2395.00,0.0009
2394.00,0.0009
2393.00,0.0009
2392.00,0.0008
2391.00,0.0008
2390.00,0.0008
2389.00,0.0007
2388.00,0.0007
2387.00,0.0008
2386.00,0.0008
2385.00,0.0008
2384.00,0.0007
2383.00,0.0007
2382.00,0.0006
2381.00,0.0005
2380.00,0.0004
2379.00,0.0004
2378.00,0.0004
2377.00,0.0004
2376.00,0.0005
2375.00,0.0006
2374.00,0.0006
2373.00,0.0006
2372.00,0.0005
2371.00,0.0005
2370.00,0.0005
2369.00,0.0005
2368.00,0.0004
2367.00,0.0004
2366.00,0.0004
2365.00,0.0004
2364.00,0.0005
2363.00,0.0005
2362.00,0.0005
2361.00,0.0005
2360.00,0.0006
2359.00,0.0006
2358.00,0.0007
2357.00,0.0006
2356.00,0.0005
2355.00,0.0004
2354.00,0.0003
2353.00,0.0002
2352.00,0.0001
2351.00,0.0002
2350.00,0.0003
2349.00,0.0005
2348.00,0.0006
2347.00,0.0007
2346.00,0.0006
2345.00,0.0006
2344.00,0.0007
2343.00,0.0007
2342.00,0.0008
2341.00,0.0008
2340.00,0.0008
2339.00,0.0008
2338.00,0.0008
2337.00,0.0007
2336.00,0.0007
2335.00,0.0006
2334.00,0.0006
2333.00,0.0006
2332.00,0.0005
2331.00,0.0005
2330.00,0.0006
2329.00,0.0007
2328.00,0.0009
2327.00,0.0012
2326.00,0.0016
2325.00,0.0019
2324.00,0.0021
2323.00,0.0020
2322.00,0.0017
2321.00,0.0015
2320.00,0.0014
2319.00,0.0013
2318.00,0.0013
2317.00,0.0012
2316.00,0.0012
2315.00,0.0012
2314.00,0.0012
2313.00,0.0012
2312.00,0.0011
2311.00,0.0010
2310.00,0.0009
2309.00,0.0009
2308.00,0.0009
2307.00,0.0009
2306.00,0.0009
2305.00,0.0009
2304.00,0.0009
2303.00,0.0009
2302.00,0.0009
2301.00,0.0009
2300.00,0.0010
2299.00,0.0011
2298.00,0.0011
2297.00,0.0011
2296.00,0.0011
2295.00,0.0012
2294.00,0.0013
2293.00,0.0014
2292.00,0.0015
2291.00,0.0015
2290.00,0.0016
2289.00,0.0017
2288.00,0.0018
2287.00,0.0019
2286.00,0.0020
2285.00,0.0019
2284.00,0.0018
2283.00,0.0016
2282.00,0.0015
2281.00,0.0015
2280.00,0.0015
2279.00,0.0015
2278.00,0.0015
2277.00,0.0015
2276.00,0.0014
2275.00,0.0014
2274.00,0.0014
2273.00,0.0014
2272.00,0.0015
2271.00,0.0014
2270.00,0.0013
2269.00,0.0013
2268.00,0.0013
2267.00,0.0012
2266.00,0.0011
2265.00,0.0009
2264.00,0.0008
2263.00,0.0008
2262.00,0.0009
2261.00,0.0011
2260.00,0.0013
2259.00,0.0014
2258.00,0.0014
2257.00,0.0013
2256.00,0.0012
2255.00,0.0010
2254.00,0.0009
2253.00,0.0009
2252.00,0.0009
2251.00,0.0009
2250.00,0.0009
2249.00,0.0009
2248.00,0.0010
2247.00,0.0010
2246.00,0.0009
2245.00,0.0009
2244.00,0.0009
2243.00,0.0008
2242.00,0.0008
2241.00,0.0009
2240.00,0.0009
2239.00,0.0010
2238.00,0.0010
2237.00,0.0011
2236.00,0.0011
2235.00,0.0011
2234.00,0.0011
2233.00,0.0010
2232.00,0.0008
2231.00,0.0006
2230.00,0.0004
2229.00,0.0003
2228.00,0.0004
2227.00,0.0005
2226.00,0.0007
2225.00,0.0009
2224.00,0.0011
2223.00,0.0012
2222.00,0.0012
2221.00,0.0012
2220.00,0.0012
2219.00,0.0011
2218.00,0.0009
2217.00,0.0006
2216.00,0.0005
2215.00,0.0005
2214.00,0.0006
2213.00,0.0007
2212.00,0.0006
2211.00,0.0005
2210.00,0.0004
2209.00,0.0004
2208.00,0.0005
2207.00,0.0006
2206.00,0.0006
2205.00,0.0006
2204.00,0.0006
2203.00,0.0006
2202.00,0.0005
2201.00,0.0005
2200.00,0.0006
2199.00,0.0007
2198.00,0.0008
2197.00,0.0008
2196.00,0.0008
2195.00,0.0008
2194.00,0.0009
2193.00,0.0012
2192.00,0.0014
2191.00,0.0015
2190.00,0.0013
2189.00,0.0011
2188.00,0.0009
2187.00,0.0008
2186.00,0.0009
2185.00,0.0010
2184.00,0.0009
2183.00,0.0007
2182.00,0.0005
2181.00,0.0004
2180.00,0.0003
2179.00,0.0004
2178.00,0.0005
2177.00,0.0006
2176.00,0.0006
2175.00,0.0005
2174.00,0.0004
2173.00,0.0006
2172.00,0.0010
2171.00,0.0016
2170.00,0.0019
2169.00,0.0021
2168.00,0.0020
2167.00,0.0019
2166.00,0.0019
2165.00,0.0019
2164.00,0.0021
2163.00,0.0023
2162.00,0.0022
2161.00,0.0016
2160.00,0.0004
2159.00,-0.0010
2158.00,-0.0019
2157.00,-0.0022
2156.00,-0.0021
2155.00,-0.0019
2154.00,-0.0016
2153.00,-0.0013
2152.00,-0.0011
2151.00,-0.0009
2150.00,-0.0008
2149.00,-0.0007
2148.00,-0.0008
2147.00,-0.0011
2146.00,-0.0012
2145.00,-0.0012
2144.00,-0.0009
2143.00,-0.0006
2142.00,-0.0005
2141.00,-0.0005
2140.00,-0.0006
2139.00,-0.0007
2138.00,-0.0008
2137.00,-0.0008
2136.00,-0.0010
2135.00,-0.0012
2134.00,-0.0014
2133.00,-0.0013
2132.00,-0.0012
2131.00,-0.0009
2130.00,-0.0008
2129.00,-0.0007
2128.00,-0.0006
2127.00,-0.0005
2126.00,-0.0004
2125.00,-0.0003
2124.00,-0.0002
2123.00,-0.0001
2122.00,-0.0002
2121.00,-0.0003
2120.00,-0.0003
2119.00,-0.0003
2118.00,-0.0001
2117.00,0.0001
2116.00,0.0003
2115.00,0.0005
2114.00,0.0006
2113.00,0.0006
2112.00,0.0005
2111.00,0.0004
2110.00,0.0004
2109.00,0.0004
2108.00,0.0005
2107.00,0.0005
2106.00,0.0005
2105.00,0.0005
2104.00,0.0003
2103.00,0.0002
2102.00,0.0002
2101.00,0.0002
2100.00,0.0003
2099.00,0.0003
2098.00,0.0003
2097.00,0.0002
2096.00,0.0000
2095.00,-0.0002
2094.00,-0.0003
2093.00,-0.0003
2092.00,-0.0002
2091.00,-0.0001
2090.00,0.0001
2089.00,0.0001
2088.00,0.0002
2087.00,0.0003
2086.00,0.0004
2085.00,0.0004
2084.00,0.0005
2083.00,0.0004
2082.00,0.0004
2081.00,0.0004
2080.00,0.0005
2079.00,0.0006
2078.00,0.0008
2077.00,0.0009
2076.00,0.0009
2075.00,0.0008
2074.00,0.0007
2073.00,0.0005
2072.00,0.0004
2071.00,0.0003
2070.00,0.0003
2069.00,0.0003
2068.00,0.0002
2067.00,0.0002
2066.00,0.0003
2065.00,0.0004
2064.00,0.0005
2063.00,0.0005
2062.00,0.0005
2061.00,0.0005
2060.00,0.0004
2059.00,0.0004
2058.00,0.0003
2057.00,0.0002
2056.00,0.0002
2055.00,0.0002
2054.00,0.0003
2053.00,0.0005
2052.00,0.0009
2051.00,0.0012
2050.00,0.0012
2049.00,0.0008
2048.00,0.0002
2047.00,-0.0003
2046.00,-0.0004
2045.00,-0.0002
2044.00,0.0001
2043.00,0.0004
2042.00,0.0006
2041.00,0.0005
2040.00,0.0005
2039.00,0.0006
2038.00,0.0007
2037.00,0.0007
2036.00,0.0005
2035.00,0.0003
2034.00,0.0002
2033.00,0.0002
2032.00,0.0001
2031.00,-0.0002
2030.00,-0.0007
2029.00,-0.0010
2028.00,-0.0010
2027.00,-0.0008
2026.00,-0.0006
2025.00,-0.0006
2024.00,-0.0006
2023.00,-0.0007
2022.00,-0.0007
2021.00,-0.0006
2020.00,-0.0007
2019.00,-0.0008
2018.00,-0.0008
2017.00,-0.0008
2016.00,-0.0006
2015.00,-0.0004
2014.00,-0.0002
2013.00,-0.0001
2012.00,-0.0002
2011.00,-0.0003
2010.00,-0.0005
2009.00,-0.0007
2008.00,-0.0009
2007.00,-0.0012
2006.00,-0.0014
2005.00,-0.0014
2004.00,-0.0013
2003.00,-0.0013
2002.00,-0.0012
2001.00,-0.0012
2000.00,-0.0010
1999.00,-0.0008
1998.00,-0.0005
1997.00,-0.0001
1996.00,0.0003
1995.00,0.0005
1994.00,0.0006
1993.00,0.0006
1992.00,0.0007
1991.00,0.0007
1990.00,0.0007
1989.00,0.0006
1988.00,0.0004
1987.00,0.0002
1986.00,0.0001
1985.00,0.0002
1984.00,0.0005
1983.00,0.0007
1982.00,0.0010
1981.00,0.0013
1980.00,0.0014
1979.00,0.0011
1978.00,0.0005
1977.00,-0.0001
1976.00,-0.0005
1975.00,-0.0006
1974.00,-0.0006
1973.00,-0.0006
1972.00,-0.0005
1971.00,-0.0005
1970.00,-0.0005
1969.00,-0.0007
1968.00,-0.0009
1967.00,-0.0012
1966.00,-0.0014
1965.00,-0.0016
1964.00,-0.0016
1963.00,-0.0017
1962.00,-0.0016
1961.00,-0.0015
1960.00,-0.0013
1959.00,-0.0012
1958.00,-0.0011
1957.00,-0.0010
1956.00,-0.0010
1955.00,-0.0010
1954.00,-0.0011
1953.00,-0.0011
1952.00,-0.0012
1951.00,-0.0013
1950.00,-0.0014
1949.00,-0.0013
1948.00,-0.0012
1947.00,-0.0011
1946.00,-0.0010
1945.00,-0.0009
1944.00,-0.0010
1943.00,-0.0011
1942.00,-0.0010
1941.00,-0.0009
1940.00,-0.0007
1939.00,-0.0005
1938.00,-0.0005
1937.00,-0.0005
1936.00,-0.0005
1935.00,-0.0005
1934.00,-0.0006
1933.00,-0.0006
1932.00,-0.0005
1931.00,-0.0003
1930.00,-0.0002
1929.00,-0.0001
1928.00,-0.0000
1927.00,0.0000
1926.00,0.0000
1925.00,0.0000
1924.00,0.0000
1923.00,0.0000
1922.00,0.0000
1921.00,-0.0000
1920.00,-0.0000
1919.00,-0.0000
1918.00,0.0000
1917.00,0.0001
1916.00,0.0002
1915.00,0.0002
1914.00,0.0002
1913.00,0.0001
1912.00,0.0000
1911.00,-0.0000
1910.00,-0.0000
1909.00,0.0000
1908.00,0.0001
1907.00,0.0002
1906.00,0.0001
1905.00,0.0001
1904.00,0.0000
1903.00,0.0001
1902.00,0.0001
1901.00,0.0002
1900.00,0.0003
1899.00,0.0004
1898.00,0.0003
1897.00,0.0003
1896.00,0.0002
1895.00,0.0002
1894.00,0.0001
1893.00,0.0002
1892.00,0.0002
1891.00,0.0002
1890.00,0.0002
1889.00,0.0001
1888.00,-0.0000
1887.00,-0.0001
1886.00,-0.0002
1885.00,-0.0001
1884.00,0.0001
1883.00,0.0002
1882.00,0.0003
1881.00,0.0003
1880.00,0.0002
1879.00,0.0001
1878.00,0.0001
1877.00,0.0001
1876.00,0.0002
1875.00,0.0002
1874.00,0.0002
1873.00,0.0002
1872.00,0.0002
1871.00,0.0002
1870.00,0.0002
1869.00,0.0002
1868.00,0.0002
1867.00,0.0001
1866.00,0.0001
1865.00,0.0002
1864.00,0.0003
1863.00,0.0003
1862.00,0.0004
1861.00,0.0004
1860.00,0.0004
1859.00,0.0004
1858.00,0.0004
1857.00,0.0004
1856.00,0.0004
1855.00,0.0004
1854.00,0.0004
1853.00,0.0004
1852.00,0.0004
1851.00,0.0004
1850.00,0.0004
1849.00,0.0004
1848.00,0.0004
1847.00,0.0003
1846.00,0.0003
1845.00,0.0004
1844.00,0.0004
1843.00,0.0004
1842.00,0.0003
1841.00,0.0003
1840.00,0.0003
1839.00,0.0003
1838.00,0.0004
1837.00,0.0005
1836.00,0.0005
1835.00,0.0005
1834.00,0.0005
1833.00,0.0005
1832.00,0.0005
1831.00,0.0005
1830.00,0.0005
1829.00,0.0005
1828.00,0.0006
1827.00,0.0007
1826.00,0.0008
1825.00,0.0008
1824.00,0.0007
1823.00,0.0006
1822.00,0.0005
1821.00,0.0005
1820.00,0.0004
1819.00,0.0004
1818.00,0.0003
1817.00,0.0003
1816.00,0.0003
1815.00,0.0004
1814.00,0.0005
1813.00,0.0006
1812.00,0.0006
1811.00,0.0005
1810.00,0.0005
1809.00,0.0005
1808.00,0.0006
1807.00,0.0006
1806.00,0.0006
1805.00,0.0006
1804.00,0.0006
1803.00,0.0007
1802.00,0.0007
1801.00,0.0007
1800.00,0.0007
1799.00,0.0007
1798.00,0.0008
1797.00,0.0008
1796.00,0.0008
1795.00,0.0008
1794.00,0.0008
1793.00,0.0009
1792.00,0.0010
1791.00,0.0010
1790.00,0.0010
1789.00,0.0010
1788.00,0.0011
1787.00,0.0011
1786.00,0.0011
1785.00,0.0011
1784.00,0.0011
1783.00,0.0011
1782.00,0.0011
1781.00,0.0011
1780.00,0.0011
1779.00,0.0011
1778.00,0.0010
1777.00,0.0010
1776.00,0.0010
1775.00,0.0010
1774.00,0.0010
1773.00,0.0011
1772.00,0.0011
1771.00,0.0012
1770.00,0.0011
1769.00,0.0011
1768.00,0.0011
1767.00,0.0011
1766.00,0.0012
1765.00,0.0012
1764.00,0.0013
1763.00,0.0013
1762.00,0.0013
1761.00,0.0013
1760.00,0.0013
1759.00,0.0013
1758.00,0.0014
1757.00,0.0015
1756.00,0.0016
1755.00,0.0016
1754.00,0.0017
1753.00,0.0017
1752.00,0.0018
1751.00,0.0018
1750.00,0.0018
1749.00,0.0019
1748.00,0.0019
1747.00,0.0020
1746.00,0.0020
1745.00,0.0020
1744.00,0.0020
1743.00,0.0021
1742.00,0.0021
1741.00,0.0022
1740.00,0.0022
1739.00,0.0022
1738.00,0.0023
1737.00,0.0024
1736.00,0.0024
1735.00,0.0024
1734.00,0.0024
1733.00,0.0024
1732.00,0.0024
1731.00,0.0025
1730.00,0.0025
1729.00,0.0025
1728.00,0.0024
1727.00,0.0023
1726.00,0.0023
1725.00,0.0023
1724.00,0.0023
1723.00,0.0024
1722.00,0.0024
1721.00,0.0024
1720.00,0.0025
1719.00,0.0025
1718.00,0.0025
1717.00,0.0025
1716.00,0.0024
1715.00,0.0024
1714.00,0.0024
1713.00,0.0024
1712.00,0.0025
1711.00,0.0025
1710.00,0.0025
1709.00,0.0025
1708.00,0.0025
1707.00,0.0026
1706.00,0.0027
1705.00,0.0028
1704.00,0.0028
1703.00,0.0028
1702.00,0.0028
1701.00,0.0029
1700.00,0.0029
1699.00,0.0030
1698.00,0.0030
1697.00,0.0030
1696.00,0.0031
1695.00,0.0032
1694.00,0.0033
1693.00,0.0034
1692.00,0.0035
1691.00,0.0037
1690.00,0.0038
1689.00,0.0038
1688.00,0.0038
1687.00,0.0037
1686.00,0.0036
1685.00,0.0036
1684.00,0.0039
1683.00,0.0042
1682.00,0.0043
1681.00,0.0045
1680.00,0.0046
1679.00,0.0047
1678.00,0.0048
1677.00,0.0049
1676.00,0.0051
1675.00,0.0052
1674.00,0.0052
1673.00,0.0052
1672.00,0.0052
1671.00,0.0052
1670.00,0.0053
1669.00,0.0053
1668.00,0.0054
1667.00,0.0055
1666.00,0.0055
1665.00,0.0056
1664.00,0.0056
1663.00,0.0057
1662.00,0.0057
1661.00,0.0058
1660.00,0.0060
1659.00,0.0061
1658.00,0.0062
1657.00,0.0064
1656.00,0.0065
1655.00,0.0066
1654.00,0.0067
1653.00,0.0067
1652.00,0.0067
1651.00,0.0068
1650.00,0.0070
1649.00,0.0072
1648.00,0.0074
1647.00,0.0076
1646.00,0.0077
1645.00,0.0077
1644.00,0.0076
1643.00,0.0076
1642.00,0.0076
1641.00,0.0076
1640.00,0.0077
1639.00,0.0078
1638.00,0.0078
1637.00,0.0078
1636.00,0.0078
1635.00,0.0077
1634.00,0.0076
1633.00,0.0075
1632.00,0.0076
1631.00,0.0076
1630.00,0.0076
1629.00,0.0075
1628.00,0.0075
1627.00,0.0075
1626.00,0.0075
1625.00,0.0075
1624.00,0.0075
1623.00,0.0074
1622.00,0.0073
1621.00,0.0072
1620.00,0.0072
1619.00,0.0071
1618.00,0.0070
1617.00,0.0070
1616.00,0.0070
1615.00,0.0070
1614.00,0.0071
1613.00,0.0071
1612.00,0.0071
1611.00,0.0071
1610.00,0.0070
1609.00,0.0070
1608.00,0.0069
1607.00,0.0069
1606.00,0.0068
1605.00,0.0068
1604.00,0.0068
1603.00,0.0068
1602.00,0.0068
1601.00,0.0068
1600.00,0.0068
1599.00,0.0067
1598.00,0.0067
1597.00,0.0067
1596.00,0.0067
1595.00,0.0067
1594.00,0.0067
1593.00,0.0067
1592.00,0.0067
1591.00,0.0067
1590.00,0.0067
1589.00,0.0068
1588.00,0.0069
1587.00,0.0070
1586.00,0.0072
1585.00,0.0073
1584.00,0.0075
1583.00,0.0077
1582.00,0.0079
1581.00,0.0082
1580.00,0.0084
1579.00,0.0086
1578.00,0.0087
1577.00,0.0087
1576.00,0.0087
1575.00,0.0086
1574.00,0.0085
1573.00,0.0085
1572.00,0.0084
1571.00,0.0083
1570.00,0.0081
1569.00,0.0079
1568.00,0.0078
1567.00,0.0077
1566.00,0.0076
1565.00,0.0076
1564.00,0.0076
1563.00,0.0076
1562.00,0.0077
1561.00,0.0078
1560.00,0.0079
1559.00,0.0079
1558.00,0.0079
1557.00,0.0079
1556.00,0.0080
1555.00,0.0082
1554.00,0.0083
1553.00,0.0084
1552.00,0.0085
1551.00,0.0086
1550.00,0.0087
1549.00,0.0088
1548.00,0.0090
1547.00,0.0092
1546.00,0.0095
1545.00,0.0098
1544.00,0.0101
1543.00,0.0102
1542.00,0.0102
1541.00,0.0101
1540.00,0.0099
1539.00,0.0096
1538.00,0.0093
1537.00,0.0092
1536.00,0.0091
1535.00,0.0088
1534.00,0.0084
1533.00,0.0080
1532.00,0.0077
1531.00,0.0075
1530.00,0.0073
1529.00,0.0072
1528.00,0.0071
1527.00,0.0070
1526.00,0.0068
1525.00,0.0067
1524.00,0.0066
1523.00,0.0065
1522.00,0.0065
1521.00,0.0065
1520.00,0.0065
1519.00,0.0065
1518.00,0.0066
1517.00,0.0067
1516.00,0.0067
1515.00,0.0067
1514.00,0.0067
1513.00,0.0068
1512.00,0.0068
1511.00,0.0068
1510.00,0.0068
1509.00,0.0069
1508.00,0.0070
1507.00,0.0071
1506.00,0.0071
1505.00,0.0072
1504.00,0.0074
1503.00,0.0075
1502.00,0.0077
1501.00,0.0081
1500.00,0.0084
1499.00,0.0087
1498.00,0.0090
1497.00,0.0094
1496.00,0.0099
1495.00,0.0102
1494.00,0.0105
1493.00,0.0109
1492.00,0.0114
1491.00,0.0119
1490.00,0.0123
1489.00,0.0128
1488.00,0.0133
1487.00,0.0137
1486.00,0.0142
1485.00,0.0149
1484.00,0.0156
1483.00,0.0165
1482.00,0.0174
1481.00,0.0186
1480.00,0.0199
1479.00,0.0212
1478.00,0.0226
1477.00,0.0246
1476.00,0.0269
1475.00,0.0295
1474.00,0.0331
1473.00,0.0385
1472.00,0.0450
1471.00,0.0515
1470.00,0.0578
1469.00,0.0644
1468.00,0.0716
1467.00,0.0796
1466.00,0.0889
1465.00,0.0990
1464.00,0.1080
1463.00,0.1144
1462.00,0.1186
1461.00,0.1217
1460.00,0.1238
1459.00,0.1252
1458.00,0.1261
1457.00,0.1266
1456.00,0.1263
1455.00,0.1253
1454.00,0.1238
1453.00,0.1218
1452.00,0.1187
1451.00,0.1144
1450.00,0.1087
1449.00,0.1010
1448.00,0.0913
1447.00,0.0812
1446.00,0.0723
1445.00,0.0649
1444.00,0.0587
1443.00,0.0537
1442.00,0.0501
1441.00,0.0478
1440.00,0.0466
1439.00,0.0464
1438.00,0.0470
1437.00,0.0475
1436.00,0.0467
1435.00,0.0440
1434.00,0.0399
1433.00,0.0350
1432.00,0.0300
1431.00,0.0256
1430.00,0.0223
1429.00,0.0199
1428.00,0.0183
1427.00,0.0173
1426.00,0.0167
1425.00,0.0161
1424.00,0.0156
1423.00,0.0154
1422.00,0.0152
1421.00,0.0150
1420.00,0.0147
1419.00,0.0145
1418.00,0.0143
1417.00,0.0141
1416.00,0.0138
1415.00,0.0136
1414.00,0.0134
1413.00,0.0132
1412.00,0.0130
1411.00,0.0129
1410.00,0.0129
1409.00,0.0127
1408.00,0.0126
1407.00,0.0126
1406.00,0.0127
1405.00,0.0127
1404.00,0.0127
1403.00,0.0128
1402.00,0.0130
1401.00,0.0130
1400.00,0.0131
1399.00,0.0133
1398.00,0.0136
1397.00,0.0139
1396.00,0.0142
1395.00,0.0146
1394.00,0.0151
1393.00,0.0156
1392.00,0.0161
1391.00,0.0169
1390.00,0.0182
1389.00,0.0199
1388.00,0.0226
1387.00,0.0265
1386.00,0.0316
1385.00,0.0381
1384.00,0.0465
1383.00,0.0580
1382.00,0.0734
1381.00,0.0934
1380.00,0.1189
1379.00,0.1490
1378.00,0.1797
1377.00,0.2043
1376.00,0.2156
1375.00,0.2083
1374.00,0.1841
1373.00,0.1526
1372.00,0.1229
1371.00,0.0981
1370.00,0.0781
1369.00,0.0630
1368.00,0.0526
1367.00,0.0463
1366.00,0.0429
1365.00,0.0416
1364.00,0.0420
1363.00,0.0436
1362.00,0.0461
1361.00,0.0488
1360.00,0.0508
1359.00,0.0513
1358.00,0.0500
1357.00,0.0469
1356.00,0.0425
1355.00,0.0377
1354.00,0.0330
1353.00,0.0290
1352.00,0.0258
1351.00,0.0233
1350.00,0.0212
1349.00,0.0195
1348.00,0.0182
1347.00,0.0172
1346.00,0.0163
1345.00,0.0157
1344.00,0.0152
1343.00,0.0147
1342.00,0.0144
1341.00,0.0141
1340.00,0.0138
1339.00,0.0135
1338.00,0.0133
1337.00,0.0132
1336.00,0.0132
1335.00,0.0134
1334.00,0.0138
1333.00,0.0143
1332.00,0.0148
1331.00,0.0152
1330.00,0.0153
1329.00,0.0151
1328.00,0.0147
1327.00,0.0141
1326.00,0.0134
1325.00,0.0127
1324.00,0.0121
1323.00,0.0115
1322.00,0.0110
1321.00,0.0106
1320.00,0.0104
1319.00,0.0101
1318.00,0.0099
1317.00,0.0096
1316.00,0.0094
1315.00,0.0093
1314.00,0.0092
1313.00,0.0092
1312.00,0.0093
1311.00,0.0094
1310.00,0.0097
1309.00,0.0102
1308.00,0.0108
1307.00,0.0116
1306.00,0.0125
1305.00,0.0131
1304.00,0.0135
1303.00,0.0135
1302.00,0.0134
1301.00,0.0133
1300.00,0.0134
1299.00,0.0136
1298.00,0.0138
1297.00,0.0139
1296.00,0.0139
1295.00,0.0136
1294.00,0.0132
1293.00,0.0126
1292.00,0.0120
1291.00,0.0114
1290.00,0.0109
1289.00,0.0104
1288.00,0.0101
1287.00,0.0098
1286.00,0.0095
1285.00,0.0092
1284.00,0.0090
1283.00,0.0088
1282.00,0.0087
1281.00,0.0086
1280.00,0.0085
1279.00,0.0084
1278.00,0.0084
1277.00,0.0083
1276.00,0.0082
1275.00,0.0082
1274.00,0.0082
1273.00,0.0081
1272.00,0.0082
1271.00,0.0082
1270.00,0.0083
1269.00,0.0084
1268.00,0.0085
1267.00,0.0087
1266.00,0.0090
1265.00,0.0093
1264.00,0.0096
1263.00,0.0099
1262.00,0.0103
1261.00,0.0106
1260.00,0.0111
1259.00,0.0116
1258.00,0.0121
1257.00,0.0125
1256.00,0.0126
1255.00,0.0125
1254.00,0.0120
1253.00,0.0114
1252.00,0.0109
1251.00,0.0105
1250.00,0.0101
1249.00,0.0099
1248.00,0.0097
1247.00,0.0096
1246.00,0.0095
1245.00,0.0094
1244.00,0.0094
1243.00,0.0093
1242.00,0.0093
1241.00,0.0092
1240.00,0.0091
1239.00,0.0090
1238.00,0.0089
1237.00,0.0089
1236.00,0.0089
1235.00,0.0089
1234.00,0.0089
1233.00,0.0089
1232.00,0.0089
1231.00,0.0089
1230.00,0.0090
1229.00,0.0091
1228.00,0.0092
1227.00,0.0093
1226.00,0.0095
1225.00,0.0098
1224.00,0.0101
1223.00,0.0104
1222.00,0.0108
1221.00,0.0112
1220.00,0.0115
1219.00,0.0117
1218.00,0.0117
1217.00,0.0115
1216.00,0.0112
1215.00,0.0108
1214.00,0.0104
1213.00,0.0099
1212.00,0.0096
1211.00,0.0092
1210.00,0.0089
1209.00,0.0087
1208.00,0.0086
1207.00,0.0085
1206.00,0.0084
1205.00,0.0083
1204.00,0.0082
1203.00,0.0082
1202.00,0.0081
1201.00,0.0081
1200.00,0.0080
1199.00,0.0079
1198.00,0.0079
1197.00,0.0079
1196.00,0.0080
1195.00,0.0081
1194.00,0.0081
1193.00,0.0082
1192.00,0.0082
1191.00,0.0082
1190.00,0.0081
1189.00,0.0081
1188.00,0.0080
1187.00,0.0080
1186.00,0.0080
1185.00,0.0080
1184.00,0.0081
1183.00,0.0083
1182.00,0.0085
1181.00,0.0087
1180.00,0.0090
1179.00,0.0093
1178.00,0.0098
1177.00,0.0104
1176.00,0.0113
1175.00,0.0124
1174.00,0.0139
1173.00,0.0157
1172.00,0.0180
1171.00,0.0204
1170.00,0.0228
1169.00,0.0247
1168.00,0.0259
1167.00,0.0264
1166.00,0.0261
1165.00,0.0252
1164.00,0.0242
1163.00,0.0232
1162.00,0.0222
1161.00,0.0215
1160.00,0.0209
1159.00,0.0205
1158.00,0.0203
1157.00,0.0202
1156.00,0.0202
1155.00,0.0201
1154.00,0.0199
1153.00,0.0197
1152.00,0.0193
1151.00,0.0188
1150.00,0.0182
1149.00,0.0175
1148.00,0.0166
1147.00,0.0157
1146.00,0.0149
1145.00,0.0141
1144.00,0.0135
1143.00,0.0128
1142.00,0.0122
1141.00,0.0117
1140.00,0.0113
1139.00,0.0110
1138.00,0.0108
1137.00,0.0105
1136.00,0.0102
1135.00,0.0100
1134.00,0.0098
1133.00,0.0097
1132.00,0.0096
1131.00,0.0097
1130.00,0.0098
1129.00,0.0099
1128.00,0.0100
1127.00,0.0100
1126.00,0.0101
1125.00,0.0101
1124.00,0.0102
1123.00,0.0102
1122.00,0.0102
1121.00,0.0102
1120.00,0.0103
1119.00,0.0104
1118.00,0.0105
1117.00,0.0107
1116.00,0.0108
1115.00,0.0110
1114.00,0.0112
1113.00,0.0115
1112.00,0.0118
1111.00,0.0122
1110.00,0.0125
1109.00,0.0130
1108.00,0.0135
1107.00,0.0142
1106.00,0.0149
1105.00,0.0157
1104.00,0.0163
1103.00,0.0167
1102.00,0.0167
1101.00,0.0163
1100.00,0.0158
1099.00,0.0151
1098.00,0.0144
1097.00,0.0137
1096.00,0.0130
1095.00,0.0124
1094.00,0.0121
1093.00,0.0118
1092.00,0.0116
1091.00,0.0114
1090.00,0.0111
1089.00,0.0109
1088.00,0.0107
1087.00,0.0105
1086.00,0.0104
1085.00,0.0102
1084.00,0.0101
1083.00,0.0100
1082.00,0.0098
1081.00,0.0097
1080.00,0.0095
1079.00,0.0094
1078.00,0.0092
1077.00,0.0091
1076.00,0.0090
1075.00,0.0090
1074.00,0.0090
1073.00,0.0090
1072.00,0.0090
1071.00,0.0089
1070.00,0.0088
1069.00,0.0088
1068.00,0.0088
1067.00,0.0088
1066.00,0.0088
1065.00,0.0088
1064.00,0.0088
1063.00,0.0089
1062.00,0.0089
1061.00,0.0089
1060.00,0.0089
1059.00,0.0089
1058.00,0.0088
1057.00,0.0088
1056.00,0.0088
1055.00,0.0089
1054.00,0.0090
1053.00,0.0092
1052.00,0.0094
1051.00,0.0096
1050.00,0.0097
1049.00,0.0098
1048.00,0.0099
1047.00,0.0100
1046.00,0.0101
1045.00,0.0101
1044.00,0.0101
1043.00,0.0102
1042.00,0.0102
1041.00,0.0102
1040.00,0.0101
1039.00,0.0100
1038.00,0.0100
1037.00,0.0101
1036.00,0.0101
1035.00,0.0102
1034.00,0.0102
1033.00,0.0101
1032.00,0.0100
1031.00,0.0099
1030.00,0.0098
1029.00,0.0098
1028.00,0.0097
1027.00,0.0097
1026.00,0.0097
1025.00,0.0096
1024.00,0.0096
1023.00,0.0095
1022.00,0.0095
1021.00,0.0095
1020.00,0.0096
1019.00,0.0097
1018.00,0.0098
1017.00,0.0099
1016.00,0.0100
1015.00,0.0101
1014.00,0.0104
1013.00,0.0107
1012.00,0.0111
1011.00,0.0113
1010.00,0.0115
1009.00,0.0118
1008.00,0.0121
1007.00,0.0125
1006.00,0.0130
1005.00,0.0138
1004.00,0.0150
1003.00,0.0167
1002.00,0.0187
1001.00,0.0210
1000.00,0.0234
999.00,0.0253
998.00,0.0262
997.00,0.0257
996.00,0.0237
995.00,0.0210
994.00,0.0182
993.00,0.0157
992.00,0.0138
991.00,0.0124
990.00,0.0115
989.00,0.0109
988.00,0.0104
987.00,0.0102
986.00,0.0103
985.00,0.0105
984.00,0.0109
983.00,0.0115
982.00,0.0125
981.00,0.0138
980.00,0.0157
979.00,0.0182
978.00,0.0213
977.00,0.0248
976.00,0.0284
975.00,0.0315
974.00,0.0335
973.00,0.0340
972.00,0.0326
971.00,0.0298
970.00,0.0260
969.00,0.0222
968.00,0.0189
967.00,0.0163
966.00,0.0144
965.00,0.0131
964.00,0.0120
963.00,0.0112
962.00,0.0106
961.00,0.0100
960.00,0.0096
959.00,0.0093
958.00,0.0091
957.00,0.0089
956.00,0.0088
955.00,0.0088
954.00,0.0088
953.00,0.0087
952.00,0.0085
951.00,0.0084
950.00,0.0083
949.00,0.0084
948.00,0.0084
947.00,0.0086
946.00,0.0088
945.00,0.0091
944.00,0.0096
943.00,0.0100
942.00,0.0103
941.00,0.0104
940.00,0.0104
939.00,0.0101
938.00,0.0097
937.00,0.0091
936.00,0.0085
935.00,0.0081
934.00,0.0078
933.00,0.0076
932.00,0.0074
931.00,0.0073
930.00,0.0071
929.00,0.0068
928.00,0.0066
927.00,0.0066
926.00,0.0066
925.00,0.0066
924.00,0.0066
923.00,0.0067
922.00,0.0070
921.00,0.0072
920.00,0.0074
919.00,0.0075
918.00,0.0074
917.00,0.0073
916.00,0.0073
915.00,0.0074
914.00,0.0075
913.00,0.0077
912.00,0.0079
911.00,0.0081
910.00,0.0083
909.00,0.0085
908.00,0.0087
907.00,0.0092
906.00,0.0100
905.00,0.0112
904.00,0.0128
903.00,0.0149
902.00,0.0173
901.00,0.0194
900.00,0.0207
899.00,0.0211
898.00,0.0202
897.00,0.0184
896.00,0.0162
895.00,0.0141
894.00,0.0124
893.00,0.0110
892.00,0.0101
891.00,0.0093
890.00,0.0089
889.00,0.0085
888.00,0.0083
887.00,0.0081
886.00,0.0079
885.00,0.0078
884.00,0.0077
883.00,0.0077
882.00,0.0078
881.00,0.0078
880.00,0.0078
879.00,0.0078
878.00,0.0079
877.00,0.0080
876.00,0.0080
875.00,0.0079
874.00,0.0078
873.00,0.0078
872.00,0.0078
871.00,0.0077
870.00,0.0077
869.00,0.0078
868.00,0.0079
867.00,0.0081
866.00,0.0082
865.00,0.0083
864.00,0.0084
863.00,0.0084
862.00,0.0085
861.00,0.0086
860.00,0.0087
859.00,0.0088
858.00,0.0089
857.00,0.0090
856.00,0.0091
855.00,0.0091
854.00,0.0093
853.00,0.0094
852.00,0.0095
851.00,0.0097
850.00,0.0100
849.00,0.0105
848.00,0.0112
847.00,0.0122
846.00,0.0137
845.00,0.0160
844.00,0.0190
843.00,0.0221
842.00,0.0243
841.00,0.0245
840.00,0.0227
839.00,0.0199
838.00,0.0171
837.00,0.0150
836.00,0.0137
835.00,0.0129
834.00,0.0123
833.00,0.0118
832.00,0.0115
831.00,0.0113
830.00,0.0111
829.00,0.0109
828.00,0.0108
827.00,0.0107
826.00,0.0107
825.00,0.0106
824.00,0.0105
823.00,0.0105
822.00,0.0106
821.00,0.0107
820.00,0.0110
819.00,0.0114
818.00,0.0121
817.00,0.0128
816.00,0.0137
815.00,0.0148
814.00,0.0162
813.00,0.0181
812.00,0.0202
811.00,0.0222
810.00,0.0237
809.00,0.0244
808.00,0.0242
807.00,0.0231
806.00,0.0214
805.00,0.0196
804.00,0.0177
803.00,0.0160
802.00,0.0146
801.00,0.0134
800.00,0.0125
799.00,0.0119
798.00,0.0115
797.00,0.0112
796.00,0.0109
795.00,0.0106
794.00,0.0102
793.00,0.0099
792.00,0.0096
791.00,0.0093
790.00,0.0091
789.00,0.0088
788.00,0.0085
787.00,0.0084
786.00,0.0083
785.00,0.0082
784.00,0.0080
783.00,0.0078
782.00,0.0075
781.00,0.0073
780.00,0.0072
779.00,0.0071
778.00,0.0071
777.00,0.0072
776.00,0.0072
775.00,0.0073
774.00,0.0074
773.00,0.0076
772.00,0.0078
771.00,0.0080
770.00,0.0082
769.00,0.0082
768.00,0.0081
767.00,0.0079
766.00,0.0079
765.00,0.0079
764.00,0.0079
763.00,0.0078
762.00,0.0077
761.00,0.0075
760.00,0.0072
759.00,0.0069
758.00,0.0066
757.00,0.0063
756.00,0.0062
755.00,0.0062
754.00,0.0062
753.00,0.0063
752.00,0.0063
751.00,0.0064
750.00,0.0064
749.00,0.0065
748.00,0.0065
747.00,0.0066
746.00,0.0067
745.00,0.0067
744.00,0.0068
743.00,0.0068
742.00,0.0070
741.00,0.0072
740.00,0.0074
739.00,0.0076
738.00,0.0078
737.00,0.0079
736.00,0.0080
735.00,0.0082
734.00,0.0084
733.00,0.0085
732.00,0.0086
731.00,0.0086
730.00,0.0085
729.00,0.0085
728.00,0.0085
727.00,0.0086
726.00,0.0088
725.00,0.0089
724.00,0.0090
723.00,0.0089
722.00,0.0087
721.00,0.0084
720.00,0.0082
719.00,0.0079
718.00,0.0078
717.00,0.0076
716.00,0.0074
715.00,0.0074
714.00,0.0073
713.00,0.0073
712.00,0.0073
711.00,0.0071
710.00,0.0071
709.00,0.0072
708.00,0.0073
707.00,0.0074
706.00,0.0075
705.00,0.0076
704.00,0.0076
703.00,0.0076
702.00,0.0076
701.00,0.0075
700.00,0.0074
699.00,0.0072
698.00,0.0070
697.00,0.0068
696.00,0.0066
695.00,0.0065
694.00,0.0065
693.00,0.0066
692.00,0.0067
691.00,0.0068
690.00,0.0068
689.00,0.0067
688.00,0.0066
687.00,0.0066
686.00,0.0065
685.00,0.0064
684.00,0.0064
683.00,0.0064
682.00,0.0064
681.00,0.0065
680.00,0.0066
679.00,0.0067
678.00,0.0069
677.00,0.0071
676.00,0.0073
675.00,0.0073
674.00,0.0072
673.00,0.0070
672.00,0.0067
671.00,0.0066
670.00,0.0066
669.00,0.0065
668.00,0.0064
667.00,0.0064
666.00,0.0065
665.00,0.0067
664.00,0.0069
663.00,0.0071
662.00,0.0071
661.00,0.0069
660.00,0.0066
659.00,0.0063
658.00,0.0062
657.00,0.0063
656.00,0.0065
655.00,0.0068
654.00,0.0070
653.00,0.0070
652.00,0.0070
651.00,0.0070
650.00,0.0071
649.00,0.0072
648.00,0.0072
647.00,0.0071
646.00,0.0069
645.00,0.0069
644.00,0.0069
643.00,0.0071
642.00,0.0072
641.00,0.0072
640.00,0.0072
639.00,0.0072
638.00,0.0072
637.00,0.0071
636.00,0.0070
635.00,0.0070
634.00,0.0070
633.00,0.0071
632.00,0.0070
631.00,0.0069
630.00,0.0067
629.00,0.0065
628.00,0.0064
627.00,0.0063
626.00,0.0064
625.00,0.0067
624.00,0.0070
623.00,0.0074
622.00,0.0076
621.00,0.0075
620.00,0.0073
619.00,0.0072
618.00,0.0072
617.00,0.0073
616.00,0.0074
615.00,0.0075
614.00,0.0074
613.00,0.0073
612.00,0.0072
611.00,0.0072
610.00,0.0074
609.00,0.0075
608.00,0.0075
607.00,0.0074
606.00,0.0072
605.00,0.0071
604.00,0.0072
603.00,0.0073
602.00,0.0075
601.00,0.0074
600.00,0.0072
599.00,0.0068
598.00,0.0067
597.00,0.0068
596.00,0.0071
595.00,0.0072
594.00,0.0072
593.00,0.0070
592.00,0.0068
591.00,0.0067
590.00,0.0067
589.00,0.0068
588.00,0.0070
587.00,0.0071
586.00,0.0072
585.00,0.0073
584.00,0.0073
583.00,0.0073
582.00,0.0073
581.00,0.0074
580.00,0.0075
579.00,0.0078
578.00,0.0079
577.00,0.0079
576.00,0.0078
575.00,0.0078
574.00,0.0079
573.00,0.0081
572.00,0.0079
571.00,0.0078
570.00,0.0077
569.00,0.0078
568.00,0.0077
567.00,0.0074
566.00,0.0071
565.00,0.0072
564.00,0.0075
563.00,0.0079
562.00,0.0080
561.00,0.0077
560.00,0.0071
559.00,0.0065
558.00,0.0060
557.00,0.0060
556.00,0.0064
555.00,0.0070
554.00,0.0074
553.00,0.0075
552.00,0.0074
551.00,0.0073
550.00,0.0071
549.00,0.0070
548.00,0.0071
547.00,0.0072
546.00,0.0074
545.00,0.0073
544.00,0.0072
543.00,0.0071
542.00,0.0073
541.00,0.0078
540.00,0.0084
539.00,0.0090
538.00,0.0094
537.00,0.0096
536.00,0.0097
535.00,0.0098
534.00,0.0100
533.00,0.0103
532.00,0.0105
531.00,0.0107
530.00,0.0109
529.00,0.0112
528.00,0.0114
527.00,0.0114
526.00,0.0112
525.00,0.0108
524.00,0.0104
523.00,0.0101
522.00,0.0100
521.00,0.0100
520.00,0.0099
519.00,0.0095
518.00,0.0089
517.00,0.0082
516.00,0.0079
515.00,0.0079
514.00,0.0079
513.00,0.0078
512.00,0.0075
511.00,0.0072
510.00,0.0070
509.00,0.0068
508.00,0.0065
507.00,0.0061
506.00,0.0056
505.00,0.0052
504.00,0.0051
503.00,0.0055
502.00,0.0062
501.00,0.0069
500.00,0.0073
499.00,0.0075
498.00,0.0075
497.00,0.0070
496.00,0.0064
495.00,0.0063
494.00,0.0067
493.00,0.0074
492.00,0.0077
491.00,0.0074
490.00,0.0069
489.00,0.0067
488.00,0.0066
487.00,0.0064
486.00,0.0063
485.00,0.0065
484.00,0.0069
483.00,0.0073
482.00,0.0075
481.00,0.0079
480.00,0.0084
479.00,0.0085
478.00,0.0078
477.00,0.0066
476.00,0.0060
475.00,0.0062
474.00,0.0065
473.00,0.0061
472.00,0.0056
471.00,0.0056
470.00,0.0063
469.00,0.0071
468.00,0.0079
467.00,0.0089
466.00,0.0103
465.00,0.0113
464.00,0.0120
463.00,0.0130
462.00,0.0148
461.00,0.0173
460.00,0.0196
459.00,0.0205
458.00,0.0194
457.00,0.0171
456.00,0.0152
455.00,0.0142
454.00,0.0134
453.00,0.0121
452.00,0.0104
451.00,0.0092
450.00,0.0091
