Created as New Dataset,Sample 189 By Administrator Date Wednesday, September 10 2025
cm-1,A
4000.00,0.0008
3999.00,0.0009
3998.00,0.0009
3997.00,0.0009
3996.00,0.0009
3995.00,0.0009
3994.00,0.0009
3993.00,0.0009
3992.00,0.0009
3991.00,0.0009
3990.00,0.0009
3989.00,0.0009
3988.00,0.0009
3987.00,0.0009
3986.00,0.0009
3985.00,0.0009
3984.00,0.0008
3983.00,0.0008
3982.00,0.0008
3981.00,0.0007
3980.00,0.0007
3979.00,0.0007
3978.00,0.0007
3977.00,0.0007
3976.00,0.0007
3975.00,0.0007
3974.00,0.0007
3973.00,0.0008
3972.00,0.0008
3971.00,0.0008
3970.00,0.0008
3969.00,0.0008
3968.00,0.0008
3967.00,0.0007
3966.00,0.0007
3965.00,0.0007
3964.00,0.0007
3963.00,0.0007
3962.00,0.0007
3961.00,0.0007
3960.00,0.0007
3959.00,0.0007
3958.00,0.0007
3957.00,0.0007
3956.00,0.0007
3955.00,0.0007
3954.00,0.0007
3953.00,0.0007
3952.00,0.0007
3951.00,0.0007
3950.00,0.0007
3949.00,0.0007
3948.00,0.0007
3947.00,0.0008
3946.00,0.0008
3945.00,0.0007
3944.00,0.0007
3943.00,0.0007
3942.00,0.0007
3941.00,0.0007
3940.00,0.0007
3939.00,0.0008
3938.00,0.0008
3937.00,0.0007
3936.00,0.0007
3935.00,0.0007
3934.00,0.0007
3933.00,0.0008
3932.00,0.0008
3931.00,0.0008
3930.00,0.0008
3929.00,0.0008
3928.00,0.0008
3927.00,0.0008
3926.00,0.0007
3925.00,0.0007
3924.00,0.0007
3923.00,0.0007
3922.00,0.0007
3921.00,0.0008
3920.00,0.0008
3919.00,0.0008
3918.00,0.0008
3917.00,0.0008
3916.00,0.0008
3915.00,0.0008
3914.00,0.0008
3913.00,0.0007
3912.00,0.0007
3911.00,0.0008
3910.00,0.0008
3909.00,0.0008
3908.00,0.0008
3907.00,0.0008
3906.00,0.0008
3905.00,0.0008
3904.00,0.0008
3903.00,0.0008
3902.00,0.0007
3901.00,0.0007
3900.00,0.0007
3899.00,0.0007
3898.00,0.0007
3897.00,0.0007
3896.00,0.0007
3895.00,0.0007
3894.00,0.0007
3893.00,0.0007
3892.00,0.0007
3891.00,0.0007
3890.00,0.0007
3889.00,0.0008
3888.00,0.0008
3887.00,0.0007
3886.00,0.0007
3885.00,0.0007
3884.00,0.0007
3883.00,0.0007
3882.00,0.0007
3881.00,0.0007
3880.00,0.0007
3879.00,0.0007
3878.00,0.0007
3877.00,0.0007
3876.00,0.0007
3875.00,0.0007
3874.00,0.0007
3873.00,0.0007
3872.00,0.0007
3871.00,0.0007
3870.00,0.0006
3869.00,0.0006
3868.00,0.0006
3867.00,0.0007
3866.00,0.0007
3865.00,0.0007
3864.00,0.0007
3863.00,0.0007
3862.00,0.0007
3861.00,0.0007
3860.00,0.0007
3859.00,0.0007
3858.00,0.0007
3857.00,0.0007
3856.00,0.0007
3855.00,0.0007
3854.00,0.0006
3853.00,0.0006
3852.00,0.0006
3851.00,0.0006
3850.00,0.0006
3849.00,0.0006
3848.00,0.0006
3847.00,0.0006
3846.00,0.0006
3845.00,0.0006
3844.00,0.0006
3843.00,0.0006
3842.00,0.0006
3841.00,0.0005
3840.00,0.0005
3839.00,0.0005
3838.00,0.0006
3837.00,0.0006
3836.00,0.0006
3835.00,0.0006
3834.00,0.0006
3833.00,0.0006
3832.00,0.0007
3831.00,0.0007
3830.00,0.0006
3829.00,0.0006
3828.00,0.0006
3827.00,0.0006
3826.00,0.0006
3825.00,0.0006
3824.00,0.0006
3823.00,0.0006
3822.00,0.0006
3821.00,0.0006
3820.00,0.0005
3819.00,0.0005
3818.00,0.0006
3817.00,0.0006
3816.00,0.0007
3815.00,0.0007
3814.00,0.0007
3813.00,0.0007
3812.00,0.0007
3811.00,0.0007
3810.00,0.0007
3809.00,0.0007
3808.00,0.0007
3807.00,0.0007
3806.00,0.0007
3805.00,0.0006
3804.00,0.0006
3803.00,0.0007
3802.00,0.0007
3801.00,0.0006
3800.00,0.0006
3799.00,0.0005
3798.00,0.0005
3797.00,0.0005
3796.00,0.0006
3795.00,0.0006
3794.00,0.0006
3793.00,0.0006
3792.00,0.0006
3791.00,0.0006
3790.00,0.0006
3789.00,0.0006
3788.00,0.0006
3787.00,0.0006
3786.00,0.0006
3785.00,0.0007
3784.00,0.0007
3783.00,0.0007
3782.00,0.0007
3781.00,0.0007
3780.00,0.0007
3779.00,0.0007
3778.00,0.0006
3777.00,0.0006
3776.00,0.0006
3775.00,0.0006
3774.00,0.0007
3773.00,0.0007
3772.00,0.0007
3771.00,0.0007
3770.00,0.0007
3769.00,0.0007
3768.00,0.0007
3767.00,0.0007
3766.00,0.0007
3765.00,0.0007
3764.00,0.0007
3763.00,0.0007
3762.00,0.0007
3761.00,0.0007
3760.00,0.0007
3759.00,0.0007
3758.00,0.0007
3757.00,0.0007
3756.00,0.0007
3755.00,0.0007
3754.00,0.0007
3753.00,0.0007
3752.00,0.0007
3751.00,0.0007
3750.00,0.0007
3749.00,0.0006
3748.00,0.0006
3747.00,0.0006
3746.00,0.0006
3745.00,0.0006
3744.00,0.0006
3743.00,0.0006
3742.00,0.0006
3741.00,0.0006
3740.00,0.0006
3739.00,0.0006
3738.00,0.0006
3737.00,0.0005
3736.00,0.0004
3735.00,0.0004
3734.00,0.0005
3733.00,0.0005
3732.00,0.0006
3731.00,0.0006
3730.00,0.0006
3729.00,0.0006
3728.00,0.0006
3727.00,0.0007
3726.00,0.0007
3725.00,0.0006
3724.00,0.0006
3723.00,0.0005
3722.00,0.0004
3721.00,0.0004
3720.00,0.0004
3719.00,0.0004
3718.00,0.0005
3717.00,0.0006
3716.00,0.0006
3715.00,0.0006
3714.00,0.0006
3713.00,0.0006
3712.00,0.0006
3711.00,0.0005
3710.00,0.0006
3709.00,0.0006
3708.00,0.0006
3707.00,0.0006
3706.00,0.0006
3705.00,0.0006
3704.00,0.0005
3703.00,0.0005
3702.00,0.0005
3701.00,0.0004
3700.00,0.0005
3699.00,0.0005
3698.00,0.0005
3697.00,0.0005
3696.00,0.0005
3695.00,0.0005
3694.00,0.0005
3693.00,0.0005
3692.00,0.0005
3691.00,0.0005
3690.00,0.0005
3689.00,0.0006
3688.00,0.0006
3687.00,0.0007
3686.00,0.0007
3685.00,0.0007
3684.00,0.0007
3683.00,0.0006
3682.00,0.0006
3681.00,0.0006
3680.00,0.0006
3679.00,0.0006
3678.00,0.0006
3677.00,0.0006
3676.00,0.0007
3675.00,0.0007
3674.00,0.0007
3673.00,0.0007
3672.00,0.0007
3671.00,0.0008
3670.00,0.0008
3669.00,0.0007
3668.00,0.0007
3667.00,0.0006
3666.00,0.0006
3665.00,0.0006
3664.00,0.0006
3663.00,0.0007
3662.00,0.0007
3661.00,0.0007
3660.00,0.0007
3659.00,0.0008
3658.00,0.0008
3657.00,0.0008
3656.00,0.0008
3655.00,0.0008
3654.00,0.0008
3653.00,0.0008
3652.00,0.0008
3651.00,0.0009
3650.00,0.0009
3649.00,0.0009
3648.00,0.0008
3647.00,0.0008
3646.00,0.0008
3645.00,0.0008
3644.00,0.0008
3643.00,0.0009
3642.00,0.0009
3641.00,0.0010
3640.00,0.0010
3639.00,0.0010
3638.00,0.0011
3637.00,0.0011
3636.00,0.0011
3635.00,0.0011
3634.00,0.0011
3633.00,0.0011
3632.00,0.0012
3631.00,0.0012
3630.00,0.0013
3629.00,0.0013
3628.00,0.0013
3627.00,0.0012
3626.00,0.0012
3625.00,0.0012
3624.00,0.0013
3623.00,0.0013
3622.00,0.0014
3621.00,0.0014
3620.00,0.0014
3619.00,0.0015
3618.00,0.0016
3617.00,0.0016
3616.00,0.0017
3615.00,0.0017
3614.00,0.0018
3613.00,0.0019
3612.00,0.0019
3611.00,0.0019
3610.00,0.0019
3609.00,0.0019
3608.00,0.0018
3607.00,0.0018
3606.00,0.0018
3605.00,0.0018
3604.00,0.0018
3603.00,0.0019
3602.00,0.0019
3601.00,0.0020
3600.00,0.0020
3599.00,0.0021
3598.00,0.0022
3597.00,0.0022
3596.00,0.0022
3595.00,0.0022
3594.00,0.0022
3593.00,0.0023
3592.00,0.0023
3591.00,0.0023
3590.00,0.0023
3589.00,0.0024
3588.00,0.0024
3587.00,0.0024
3586.00,0.0025
3585.00,0.0025
3584.00,0.0026
3583.00,0.0027
3582.00,0.0027
3581.00,0.0028
3580.00,0.0028
3579.00,0.0028
3578.00,0.0028
3577.00,0.0028
3576.00,0.0029
3575.00,0.0029
3574.00,0.0029
3573.00,0.0029
3572.00,0.0030
3571.00,0.0030
3570.00,0.0030
3569.00,0.0030
3568.00,0.0030
3567.00,0.0031
3566.00,0.0032
3565.00,0.0033
3564.00,0.0033
3563.00,0.0034
3562.00,0.0034
3561.00,0.0035
3560.00,0.0035
3559.00,0.0036
3558.00,0.0036
3557.00,0.0037
3556.00,0.0037
3555.00,0.0037
3554.00,0.0037
3553.00,0.0038
3552.00,0.0038
3551.00,0.0038
3550.00,0.0038
3549.00,0.0039
3548.00,0.0039
3547.00,0.0040
3546.00,0.0040
3545.00,0.0040
3544.00,0.0041
3543.00,0.0041
3542.00,0.0041
3541.00,0.0041
3540.00,0.0041
3539.00,0.0042
3538.00,0.0042
3537.00,0.0043
3536.00,0.0043
3535.00,0.0043
3534.00,0.0044
3533.00,0.0044
3532.00,0.0044
3531.00,0.0044
3530.00,0.0045
3529.00,0.0045
3528.00,0.0045
3527.00,0.0046
3526.00,0.0046
3525.00,0.0046
3524.00,0.0046
3523.00,0.0047
3522.00,0.0047
3521.00,0.0047
3520.00,0.0047
3519.00,0.0047
3518.00,0.0047
3517.00,0.0047
3516.00,0.0047
3515.00,0.0048
3514.00,0.0048
3513.00,0.0049
3512.00,0.0049
3511.00,0.0050
3510.00,0.0050
3509.00,0.0051
3508.00,0.0051
3507.00,0.0052
3506.00,0.0052
3505.00,0.0052
3504.00,0.0052
3503.00,0.0052
3502.00,0.0053
3501.00,0.0053
3500.00,0.0053
3499.00,0.0054
3498.00,0.0055
3497.00,0.0055
3496.00,0.0056
3495.00,0.0056
3494.00,0.0056
3493.00,0.0056
3492.00,0.0056
3491.00,0.0057
3490.00,0.0057
3489.00,0.0057
3488.00,0.0058
3487.00,0.0058
3486.00,0.0058
3485.00,0.0058
3484.00,0.0058
3483.00,0.0058
3482.00,0.0059
3481.00,0.0059
3480.00,0.0059
3479.00,0.0059
3478.00,0.0060
3477.00,0.0060
3476.00,0.0060
3475.00,0.0060
3474.00,0.0061
3473.00,0.0061
3472.00,0.0061
3471.00,0.0061
3470.00,0.0062
3469.00,0.0062
3468.00,0.0063
3467.00,0.0064
3466.00,0.0064
3465.00,0.0065
3464.00,0.0065
3463.00,0.0065
3462.00,0.0065
3461.00,0.0065
3460.00,0.0066
3459.00,0.0066
3458.00,0.0066
3457.00,0.0066
3456.00,0.0066
3455.00,0.0067
3454.00,0.0067
3453.00,0.0067
3452.00,0.0067
3451.00,0.0067
3450.00,0.0067
3449.00,0.0068
3448.00,0.0068
3447.00,0.0069
3446.00,0.0069
3445.00,0.0070
3444.00,0.0070
3443.00,0.0071
3442.00,0.0071
3441.00,0.0072
3440.00,0.0072
3439.00,0.0072
3438.00,0.0072
3437.00,0.0072
3436.00,0.0072
3435.00,0.0072
3434.00,0.0072
3433.00,0.0073
3432.00,0.0073
3431.00,0.0074
3430.00,0.0074
3429.00,0.0075
3428.00,0.0075
3427.00,0.0075
3426.00,0.0075
3425.00,0.0075
3424.00,0.0076
3423.00,0.0077
3422.00,0.0077
3421.00,0.0078
3420.00,0.0078
3419.00,0.0078
3418.00,0.0077
3417.00,0.0077
3416.00,0.0077
3415.00,0.0077
3414.00,0.0078
3413.00,0.0078
3412.00,0.0079
3411.00,0.0080
3410.00,0.0080
3409.00,0.0080
3408.00,0.0080
3407.00,0.0081
3406.00,0.0081
3405.00,0.0081
3404.00,0.0081
3403.00,0.0081
3402.00,0.0081
3401.00,0.0081
3400.00,0.0082
3399.00,0.0082
3398.00,0.0082
3397.00,0.0082
3396.00,0.0083
3395.00,0.0083
3394.00,0.0083
3393.00,0.0083
3392.00,0.0083
3391.00,0.0083
3390.00,0.0083
3389.00,0.0083
3388.00,0.0083
3387.00,0.0083
3386.00,0.0083
3385.00,0.0083
3384.00,0.0082
3383.00,0.0083
3382.00,0.0083
3381.00,0.0083
3380.00,0.0083
3379.00,0.0083
3378.00,0.0083
3377.00,0.0083
3376.00,0.0084
3375.00,0.0084
3374.00,0.0083
3373.00,0.0083
3372.00,0.0083
3371.00,0.0084
3370.00,0.0084
3369.00,0.0084
3368.00,0.0084
3367.00,0.0084
3366.00,0.0085
3365.00,0.0085
3364.00,0.0085
3363.00,0.0085
3362.00,0.0085
3361.00,0.0085
3360.00,0.0085
3359.00,0.0086
3358.00,0.0086
3357.00,0.0086
3356.00,0.0086
3355.00,0.0086
3354.00,0.0086
3353.00,0.0086
3352.00,0.0086
3351.00,0.0086
3350.00,0.0086
3349.00,0.0086
3348.00,0.0086
3347.00,0.0086
3346.00,0.0086
3345.00,0.0087
3344.00,0.0087
3343.00,0.0087
3342.00,0.0086
3341.00,0.0086
3340.00,0.0086
3339.00,0.0086
3338.00,0.0086
3337.00,0.0087
3336.00,0.0087
3335.00,0.0086
3334.00,0.0086
3333.00,0.0086
3332.00,0.0086
3331.00,0.0086
3330.00,0.0085
3329.00,0.0085
3328.00,0.0085
3327.00,0.0085
3326.00,0.0085
3325.00,0.0085
3324.00,0.0085
3323.00,0.0085
3322.00,0.0085
3321.00,0.0084
3320.00,0.0084
3319.00,0.0084
3318.00,0.0083
3317.00,0.0084
3316.00,0.0084
3315.00,0.0084
3314.00,0.0084
3313.00,0.0084
3312.00,0.0083
3311.00,0.0083
3310.00,0.0083
3309.00,0.0083
3308.00,0.0083
3307.00,0.0083
3306.00,0.0083
3305.00,0.0083
3304.00,0.0082
3303.00,0.0082
3302.00,0.0082
3301.00,0.0082
3300.00,0.0082
3299.00,0.0082
3298.00,0.0082
3297.00,0.0081
3296.00,0.0081
3295.00,0.0080
3294.00,0.0080
3293.00,0.0080
3292.00,0.0080
3291.00,0.0080
3290.00,0.0080
3289.00,0.0081
3288.00,0.0081
3287.00,0.0080
3286.00,0.0079
3285.00,0.0079
3284.00,0.0079
3283.00,0.0078
3282.00,0.0079
3281.00,0.0079
3280.00,0.0079
3279.00,0.0079
3278.00,0.0078
3277.00,0.0078
3276.00,0.0078
3275.00,0.0077
3274.00,0.0077
3273.00,0.0076
3272.00,0.0076
3271.00,0.0076
3270.00,0.0075
3269.00,0.0075
3268.00,0.0075
3267.00,0.0074
3266.00,0.0074
3265.00,0.0074
3264.00,0.0074
3263.00,0.0074
3262.00,0.0074
3261.00,0.0074
3260.00,0.0073
3259.00,0.0073
3258.00,0.0073
3257.00,0.0073
3256.00,0.0072
3255.00,0.0072
3254.00,0.0071
3253.00,0.0071
3252.00,0.0070
3251.00,0.0070
3250.00,0.0069
3249.00,0.0069
3248.00,0.0069
3247.00,0.0068
3246.00,0.0068
3245.00,0.0069
3244.00,0.0069
3243.00,0.0069
3242.00,0.0069
3241.00,0.0069
3240.00,0.0069
3239.00,0.0069
3238.00,0.0069
3237.00,0.0069
3236.00,0.0068
3235.00,0.0068
3234.00,0.0068
3233.00,0.0068
3232.00,0.0068
3231.00,0.0068
3230.00,0.0068
3229.00,0.0068
3228.00,0.0068
3227.00,0.0068
3226.00,0.0069
3225.00,0.0069
3224.00,0.0069
3223.00,0.0069
3222.00,0.0069
3221.00,0.0069
3220.00,0.0069
3219.00,0.0069
3218.00,0.0069
3217.00,0.0069
3216.00,0.0069
3215.00,0.0069
3214.00,0.0070
3213.00,0.0070
3212.00,0.0070
3211.00,0.0070
3210.00,0.0070
3209.00,0.0071
3208.00,0.0071
3207.00,0.0071
3206.00,0.0071
3205.00,0.0071
3204.00,0.0071
3203.00,0.0071
3202.00,0.0071
3201.00,0.0071
3200.00,0.0071
3199.00,0.0071
3198.00,0.0070
3197.00,0.0070
3196.00,0.0070
3195.00,0.0070
3194.00,0.0070
3193.00,0.0070
3192.00,0.0070
3191.00,0.0070
3190.00,0.0070
3189.00,0.0070
3188.00,0.0069
3187.00,0.0069
3186.00,0.0068
3185.00,0.0068
3184.00,0.0067
3183.00,0.0066
3182.00,0.0066
3181.00,0.0066
3180.00,0.0066
3179.00,0.0066
3178.00,0.0066
3177.00,0.0066
3176.00,0.0066
3175.00,0.0065
3174.00,0.0065
3173.00,0.0064
3172.00,0.0064
3171.00,0.0063
3170.00,0.0063
3169.00,0.0063
3168.00,0.0063
3167.00,0.0063
3166.00,0.0062
3165.00,0.0062
3164.00,0.0062
3163.00,0.0062
3162.00,0.0061
3161.00,0.0061
3160.00,0.0060
3159.00,0.0060
3158.00,0.0059
3157.00,0.0059
3156.00,0.0059
3155.00,0.0059
3154.00,0.0058
3153.00,0.0058
3152.00,0.0058
3151.00,0.0058
3150.00,0.0058
3149.00,0.0058
3148.00,0.0059
3147.00,0.0059
3146.00,0.0058
3145.00,0.0058
3144.00,0.0058
3143.00,0.0057
3142.00,0.0057
3141.00,0.0056
3140.00,0.0056
3139.00,0.0056
3138.00,0.0056
3137.00,0.0056
3136.00,0.0055
3135.00,0.0055
3134.00,0.0056
3133.00,0.0056
3132.00,0.0055
3131.00,0.0055
3130.00,0.0054
3129.00,0.0053
3128.00,0.0052
3127.00,0.0052
3126.00,0.0051
3125.00,0.0051
3124.00,0.0051
3123.00,0.0050
3122.00,0.0050
3121.00,0.0049
3120.00,0.0049
3119.00,0.0048
3118.00,0.0048
3117.00,0.0047
3116.00,0.0047
3115.00,0.0047
3114.00,0.0047
3113.00,0.0048
3112.00,0.0048
3111.00,0.0048
3110.00,0.0048
3109.00,0.0048
3108.00,0.0047
3107.00,0.0047
3106.00,0.0047
3105.00,0.0046
3104.00,0.0046
3103.00,0.0045
3102.00,0.0045
3101.00,0.0045
3100.00,0.0045
3099.00,0.0046
3098.00,0.0045
3097.00,0.0045
3096.00,0.0045
3095.00,0.0044
3094.00,0.0044
3093.00,0.0043
3092.00,0.0043
3091.00,0.0043
3090.00,0.0043
3089.00,0.0044
3088.00,0.0044
3087.00,0.0044
3086.00,0.0044
3085.00,0.0043
3084.00,0.0043
3083.00,0.0043
3082.00,0.0043
3081.00,0.0042
3080.00,0.0042
3079.00,0.0042
3078.00,0.0043
3077.00,0.0043
3076.00,0.0043
3075.00,0.0043
3074.00,0.0044
3073.00,0.0044
3072.00,0.0044
3071.00,0.0043
3070.00,0.0043
3069.00,0.0043
3068.00,0.0043
3067.00,0.0044
3066.00,0.0044
3065.00,0.0045
3064.00,0.0045
3063.00,0.0045
3062.00,0.0045
3061.00,0.0046
3060.00,0.0045
3059.00,0.0045
3058.00,0.0045
3057.00,0.0044
3056.00,0.0044
3055.00,0.0045
3054.00,0.0045
3053.00,0.0045
3052.00,0.0045
3051.00,0.0045
3050.00,0.0045
3049.00,0.0045
3048.00,0.0045
3047.00,0.0045
3046.00,0.0045
3045.00,0.0045
3044.00,0.0045
3043.00,0.0046
3042.00,0.0046
3041.00,0.0047
3040.00,0.0047
3039.00,0.0047
3038.00,0.0047
3037.00,0.0047
3036.00,0.0047
3035.00,0.0047
3034.00,0.0047
3033.00,0.0047
3032.00,0.0048
3031.00,0.0048
3030.00,0.0049
3029.00,0.0049
3028.00,0.0050
3027.00,0.0051
3026.00,0.0051
3025.00,0.0051
3024.00,0.0052
3023.00,0.0052
3022.00,0.0053
3021.00,0.0054
3020.00,0.0055
3019.00,0.0056
3018.00,0.0057
3017.00,0.0057
3016.00,0.0058
3015.00,0.0059
3014.00,0.0059
3013.00,0.0060
3012.00,0.0062
3011.00,0.0063
3010.00,0.0065
3009.00,0.0066
3008.00,0.0067
3007.00,0.0069
3006.00,0.0070
3005.00,0.0071
3004.00,0.0073
3003.00,0.0075
3002.00,0.0077
3001.00,0.0079
3000.00,0.0082
2999.00,0.0084
2998.00,0.0087
2997.00,0.0090
2996.00,0.0094
2995.00,0.0098
2994.00,0.0103
2993.00,0.0108
2992.00,0.0113
2991.00,0.0119
2990.00,0.0125
2989.00,0.0132
2988.00,0.0140
2987.00,0.0149
2986.00,0.0159
2985.00,0.0170
2984.00,0.0182
2983.00,0.0196
2982.00,0.0212
2981.00,0.0230
2980.00,0.0250
2979.00,0.0274
2978.00,0.0300
2977.00,0.0330
2976.00,0.0364
2975.00,0.0403
2974.00,0.0447
2973.00,0.0496
2972.00,0.0553
2971.00,0.0616
2970.00,0.0687
2969.00,0.0766
2968.00,0.0853
2967.00,0.0948
2966.00,0.1051
2965.00,0.1159
2964.00,0.1270
2963.00,0.1380
2962.00,0.1485
2961.00,0.1580
2960.00,0.1659
2959.00,0.1721
2958.00,0.1766
2957.00,0.1798
2956.00,0.1821
2955.00,0.1840
2954.00,0.1860
2953.00,0.1879
2952.00,0.1893
2951.00,0.1896
2950.00,0.1881
2949.00,0.1842
2948.00,0.1775
2947.00,0.1684
2946.00,0.1574
2945.00,0.1457
2944.00,0.1343
2943.00,0.1242
2942.00,0.1160
2941.00,0.1102
2940.00,0.1066
2939.00,0.1051
2938.00,0.1056
2937.00,0.1077
2936.00,0.1114
2935.00,0.1165
2934.00,0.1227
2933.00,0.1300
2932.00,0.1382
2931.00,0.1471
2930.00,0.1565
2929.00,0.1661
2928.00,0.1756
2927.00,0.1849
2926.00,0.1937
2925.00,0.2022
2924.00,0.2104
2923.00,0.2184
2922.00,0.2262
2921.00,0.2336
2920.00,0.2403
2919.00,0.2456
2918.00,0.2486
2917.00,0.2488
2916.00,0.2458
2915.00,0.2401
2914.00,0.2323
2913.00,0.2235
2912.00,0.2146
2911.00,0.2063
2910.00,0.1989
2909.00,0.1924
2908.00,0.1866
2907.00,0.1809
2906.00,0.1753
2905.00,0.1695
2904.00,0.1634
2903.00,0.1572
2902.00,0.1507
2901.00,0.1442
2900.00,0.1378
2899.00,0.1317
2898.00,0.1259
2897.00,0.1207
2896.00,0.1160
2895.00,0.1120
2894.00,0.1086
2893.00,0.1058
2892.00,0.1036
2891.00,0.1020
2890.00,0.1009
2889.00,0.1004
2888.00,0.1001
2887.00,0.1003
2886.00,0.1007
2885.00,0.1015
2884.00,0.1026
2883.00,0.1041
2882.00,0.1059
2881.00,0.1080
2880.00,0.1100
2879.00,0.1117
2878.00,0.1128
2877.00,0.1132
2876.00,0.1130
2875.00,0.1124
2874.00,0.1118
2873.00,0.1116
2872.00,0.1120
2871.00,0.1130
2870.00,0.1144
2869.00,0.1158
2868.00,0.1166
2867.00,0.1162
2866.00,0.1140
2865.00,0.1097
2864.00,0.1036
2863.00,0.0965
2862.00,0.0892
2861.00,0.0825
2860.00,0.0769
2859.00,0.0726
2858.00,0.0696
2857.00,0.0678
2856.00,0.0670
2855.00,0.0672
2854.00,0.0682
2853.00,0.0699
2852.00,0.0723
2851.00,0.0748
2850.00,0.0773
2849.00,0.0795
2848.00,0.0814
2847.00,0.0836
2846.00,0.0863
2845.00,0.0899
2844.00,0.0946
2843.00,0.1002
2842.00,0.1063
2841.00,0.1122
2840.00,0.1173
2839.00,0.1205
2838.00,0.1211
2837.00,0.1185
2836.00,0.1127
2835.00,0.1042
2834.00,0.0939
2833.00,0.0832
2832.00,0.0729
2831.00,0.0637
2830.00,0.0559
2829.00,0.0495
2828.00,0.0443
2827.00,0.0401
2826.00,0.0366
2825.00,0.0338
2824.00,0.0314
2823.00,0.0294
2822.00,0.0277
2821.00,0.0261
2820.00,0.0248
2819.00,0.0237
2818.00,0.0227
2817.00,0.0218
2816.00,0.0211
2815.00,0.0204
2814.00,0.0198
2813.00,0.0193
2812.00,0.0188
2811.00,0.0182
2810.00,0.0177
2809.00,0.0172
2808.00,0.0166
2807.00,0.0160
2806.00,0.0154
2805.00,0.0148
2804.00,0.0142
2803.00,0.0137
2802.00,0.0131
2801.00,0.0127
2800.00,0.0123
2799.00,0.0120
2798.00,0.0118
2797.00,0.0116
2796.00,0.0113
2795.00,0.0111
2794.00,0.0108
2793.00,0.0105
2792.00,0.0102
2791.00,0.0098
2790.00,0.0095
2789.00,0.0091
2788.00,0.0088
2787.00,0.0085
2786.00,0.0082
2785.00,0.0080
2784.00,0.0078
2783.00,0.0075
2782.00,0.0073
2781.00,0.0071
2780.00,0.0069
2779.00,0.0067
2778.00,0.0066
2777.00,0.0064
2776.00,0.0063
2775.00,0.0062
2774.00,0.0061
2773.00,0.0061
2772.00,0.0060
2771.00,0.0060
2770.00,0.0060
2769.00,0.0059
2768.00,0.0059
2767.00,0.0058
2766.00,0.0058
2765.00,0.0057
2764.00,0.0057
2763.00,0.0056
2762.00,0.0056
2761.00,0.0056
2760.00,0.0055
2759.00,0.0054
2758.00,0.0054
2757.00,0.0054
2756.00,0.0054
2755.00,0.0054
2754.00,0.0055
2753.00,0.0055
2752.00,0.0054
2751.00,0.0054
2750.00,0.0054
2749.00,0.0053
2748.00,0.0054
2747.00,0.0054
2746.00,0.0054
2745.00,0.0055
2744.00,0.0056
2743.00,0.0057
2742.00,0.0058
2741.00,0.0059
2740.00,0.0060
2739.00,0.0061
2738.00,0.0062
2737.00,0.0064
2736.00,0.0065
2735.00,0.0066
2734.00,0.0067
2733.00,0.0068
2732.00,0.0070
2731.00,0.0072
2730.00,0.0074
2729.00,0.0076
2728.00,0.0078
2727.00,0.0081
2726.00,0.0084
2725.00,0.0086
2724.00,0.0087
2723.00,0.0087
2722.00,0.0087
2721.00,0.0085
2720.00,0.0082
2719.00,0.0079
2718.00,0.0076
2717.00,0.0073
2716.00,0.0070
2715.00,0.0068
2714.00,0.0065
2713.00,0.0063
2712.00,0.0061
2711.00,0.0059
2710.00,0.0058
2709.00,0.0056
2708.00,0.0055
2707.00,0.0054
2706.00,0.0053
2705.00,0.0052
2704.00,0.0051
2703.00,0.0050
2702.00,0.0050
2701.00,0.0049
2700.00,0.0049
2699.00,0.0048
2698.00,0.0048
2697.00,0.0047
2696.00,0.0047
2695.00,0.0047
2694.00,0.0047
2693.00,0.0047
2692.00,0.0046
2691.00,0.0046
2690.00,0.0046
2689.00,0.0046
2688.00,0.0046
2687.00,0.0046
2686.00,0.0046
2685.00,0.0046
2684.00,0.0047
2683.00,0.0047
2682.00,0.0047
2681.00,0.0047
2680.00,0.0047
2679.00,0.0047
2678.00,0.0047
2677.00,0.0047
2676.00,0.0047
2675.00,0.0047
2674.00,0.0047
2673.00,0.0047
2672.00,0.0047
2671.00,0.0047
2670.00,0.0046
2669.00,0.0046
2668.00,0.0046
2667.00,0.0046
2666.00,0.0046
2665.00,0.0047
2664.00,0.0047
2663.00,0.0048
2662.00,0.0049
2661.00,0.0049
2660.00,0.0049
2659.00,0.0049
2658.00,0.0049
2657.00,0.0049
2656.00,0.0048
2655.00,0.0048
2654.00,0.0047
2653.00,0.0047
2652.00,0.0046
2651.00,0.0046
2650.00,0.0045
2649.00,0.0045
2648.00,0.0044
2647.00,0.0044
2646.00,0.0043
2645.00,0.0043
2644.00,0.0043
2643.00,0.0042
2642.00,0.0042
2641.00,0.0042
2640.00,0.0042
2639.00,0.0042
2638.00,0.0041
2637.00,0.0041
2636.00,0.0041
2635.00,0.0040
2634.00,0.0040
2633.00,0.0040
2632.00,0.0040
2631.00,0.0040
2630.00,0.0040
2629.00,0.0040
2628.00,0.0041
2627.00,0.0041
2626.00,0.0041
2625.00,0.0041
2624.00,0.0041
2623.00,0.0041
2622.00,0.0041
2621.00,0.0041
2620.00,0.0041
2619.00,0.0041
2618.00,0.0041
2617.00,0.0041
2616.00,0.0041
2615.00,0.0040
2614.00,0.0040
2613.00,0.0040
2612.00,0.0040
2611.00,0.0040
2610.00,0.0039
2609.00,0.0039
2608.00,0.0038
2607.00,0.0037
2606.00,0.0036
2605.00,0.0035
2604.00,0.0034
2603.00,0.0033
2602.00,0.0033
2601.00,0.0033
2600.00,0.0033
2599.00,0.0033
2598.00,0.0032
2597.00,0.0032
2596.00,0.0032
2595.00,0.0032
2594.00,0.0032
2593.00,0.0033
2592.00,0.0034
2591.00,0.0035
2590.00,0.0036
2589.00,0.0036
2588.00,0.0037
2587.00,0.0037
2586.00,0.0037
2585.00,0.0038
2584.00,0.0039
2583.00,0.0039
2582.00,0.0039
2581.00,0.0039
2580.00,0.0038
2579.00,0.0037
2578.00,0.0036
2577.00,0.0035
2576.00,0.0034
2575.00,0.0033
2574.00,0.0033
2573.00,0.0032
2572.00,0.0031
2571.00,0.0030
2570.00,0.0029
2569.00,0.0029
2568.00,0.0028
2567.00,0.0027
2566.00,0.0027
2565.00,0.0026
2564.00,0.0026
2563.00,0.0026
2562.00,0.0026
2561.00,0.0025
2560.00,0.0025
2559.00,0.0025
2558.00,0.0024
2557.00,0.0024
2556.00,0.0024
2555.00,0.0024
2554.00,0.0024
2553.00,0.0024
2552.00,0.0023
2551.00,0.0021
2550.00,0.0021
2549.00,0.0020
2548.00,0.0021
2547.00,0.0021
2546.00,0.0020
2545.00,0.0020
2544.00,0.0019
2543.00,0.0019
2542.00,0.0018
2541.00,0.0018
2540.00,0.0018
2539.00,0.0018
2538.00,0.0018
2537.00,0.0018
2536.00,0.0018
2535.00,0.0018
2534.00,0.0018
2533.00,0.0018
2532.00,0.0018
2531.00,0.0018
2530.00,0.0018
2529.00,0.0018
2528.00,0.0017
2527.00,0.0017
2526.00,0.0016
2525.00,0.0016
2524.00,0.0017
2523.00,0.0016
2522.00,0.0016
2521.00,0.0015
2520.00,0.0014
2519.00,0.0014
2518.00,0.0014
2517.00,0.0014
2516.00,0.0013
2515.00,0.0013
2514.00,0.0013
2513.00,0.0013
2512.00,0.0013
2511.00,0.0013
2510.00,0.0013
2509.00,0.0013
2508.00,0.0013
2507.00,0.0012
2506.00,0.0011
2505.00,0.0011
2504.00,0.0012
2503.00,0.0012
2502.00,0.0012
2501.00,0.0013
2500.00,0.0012
2499.00,0.0012
2498.00,0.0013
2497.00,0.0013
2496.00,0.0013
2495.00,0.0013
2494.00,0.0013
2493.00,0.0012
2492.00,0.0012
2491.00,0.0011
2490.00,0.0012
2489.00,0.0012
2488.00,0.0012
2487.00,0.0013
2486.00,0.0013
2485.00,0.0013
2484.00,0.0012
2483.00,0.0012
2482.00,0.0011
2481.00,0.0011
2480.00,0.0011
2479.00,0.0010
2478.00,0.0010
2477.00,0.0010
2476.00,0.0010
2475.00,0.0010
2474.00,0.0010
2473.00,0.0010
2472.00,0.0010
2471.00,0.0011
2470.00,0.0011
2469.00,0.0011
2468.00,0.0011
2467.00,0.0011
2466.00,0.0011
2465.00,0.0011
2464.00,0.0012
2463.00,0.0012
2462.00,0.0012
2461.00,0.0012
2460.00,0.0012
2459.00,0.0011
2458.00,0.0011
2457.00,0.0012
2456.00,0.0012
2455.00,0.0013
2454.00,0.0013
2453.00,0.0013
2452.00,0.0014
2451.00,0.0014
2450.00,0.0013
2449.00,0.0013
2448.00,0.0012
2447.00,0.0012
2446.00,0.0012
2445.00,0.0012
2444.00,0.0012
2443.00,0.0013
2442.00,0.0013
2441.00,0.0013
2440.00,0.0013
2439.00,0.0013
2438.00,0.0012
2437.00,0.0012
2436.00,0.0013
2435.00,0.0013
2434.00,0.0014
2433.00,0.0014
2432.00,0.0014
2431.00,0.0014
2430.00,0.0014
2429.00,0.0013
2428.00,0.0013
2427.00,0.0013
2426.00,0.0013
2425.00,0.0014
2424.00,0.0014
2423.00,0.0013
2422.00,0.0013
2421.00,0.0012
2420.00,0.0011
2419.00,0.0011
2418.00,0.0011
2417.00,0.0011
2416.00,0.0011
2415.00,0.0011
2414.00,0.0011
2413.00,0.0012
2412.00,0.0012
2411.00,0.0013
2410.00,0.0014
2409.00,0.0014
2408.00,0.0013
2407.00,0.0012
2406.00,0.0011
2405.00,0.0010
2404.00,0.0010
2403.00,0.0010
2402.00,0.0010
2401.00,0.0010
2400.00,0.0011
2399.00,0.0011
2398.00,0.0011
2397.00,0.0011
2396.00,0.0011
2395.00,0.0010
2394.00,0.0010
2393.00,0.0010
2392.00,0.0010
2391.00,0.0009
2390.00,0.0009
2389.00,0.0009
2388.00,0.0008
2387.00,0.0008
2386.00,0.0007
2385.00,0.0007
2384.00,0.0007
2383.00,0.0006
2382.00,0.0005
2381.00,0.0004
2380.00,0.0004
2379.00,0.0003
2378.00,0.0003
2377.00,0.0004
2376.00,0.0004
2375.00,0.0004
2374.00,0.0005
2373.00,0.0005
2372.00,0.0005
2371.00,0.0005
2370.00,0.0004
2369.00,0.0003
2368.00,0.0003
2367.00,0.0003
2366.00,0.0002
2365.00,0.0002
2364.00,0.0003
2363.00,0.0004
2362.00,0.0006
2361.00,0.0007
2360.00,0.0007
2359.00,0.0006
2358.00,0.0005
2357.00,0.0005
2356.00,0.0004
2355.00,0.0004
2354.00,0.0003
2353.00,0.0002
2352.00,0.0002
2351.00,0.0003
2350.00,0.0004
2349.00,0.0006
2348.00,0.0006
2347.00,0.0006
2346.00,0.0006
2345.00,0.0006
2344.00,0.0007
2343.00,0.0007
2342.00,0.0007
2341.00,0.0007
2340.00,0.0007
2339.00,0.0007
2338.00,0.0008
2337.00,0.0008
2336.00,0.0009
2335.00,0.0009
2334.00,0.0008
2333.00,0.0007
2332.00,0.0006
2331.00,0.0006
2330.00,0.0006
2329.00,0.0007
2328.00,0.0009
2327.00,0.0012
2326.00,0.0016
2325.00,0.0019
2324.00,0.0021
2323.00,0.0020
2322.00,0.0018
2321.00,0.0017
2320.00,0.0016
2319.00,0.0016
2318.00,0.0016
2317.00,0.0015
2316.00,0.0015
2315.00,0.0014
2314.00,0.0013
2313.00,0.0012
2312.00,0.0011
2311.00,0.0010
2310.00,0.0010
2309.00,0.0011
2308.00,0.0011
2307.00,0.0011
2306.00,0.0011
2305.00,0.0011
2304.00,0.0012
2303.00,0.0012
2302.00,0.0012
2301.00,0.0012
2300.00,0.0013
2299.00,0.0013
2298.00,0.0013
2297.00,0.0014
2296.00,0.0014
2295.00,0.0014
2294.00,0.0014
2293.00,0.0014
2292.00,0.0015
2291.00,0.0016
2290.00,0.0017
2289.00,0.0019
2288.00,0.0020
2287.00,0.0021
2286.00,0.0021
2285.00,0.0020
2284.00,0.0019
2283.00,0.0018
2282.00,0.0017
2281.00,0.0016
2280.00,0.0015
2279.00,0.0014
2278.00,0.0013
2277.00,0.0013
2276.00,0.0013
2275.00,0.0014
2274.00,0.0015
2273.00,0.0015
2272.00,0.0015
2271.00,0.0014
2270.00,0.0014
2269.00,0.0014
2268.00,0.0013
2267.00,0.0013
2266.00,0.0014
2265.00,0.0014
2264.00,0.0015
2263.00,0.0015
2262.00,0.0015
2261.00,0.0014
2260.00,0.0014
2259.00,0.0014
2258.00,0.0013
2257.00,0.0012
2256.00,0.0011
2255.00,0.0010
2254.00,0.0009
2253.00,0.0009
2252.00,0.0009
2251.00,0.0009
2250.00,0.0009
2249.00,0.0009
2248.00,0.0008
2247.00,0.0008
2246.00,0.0007
2245.00,0.0007
2244.00,0.0007
2243.00,0.0006
2242.00,0.0007
2241.00,0.0008
2240.00,0.0009
2239.00,0.0009
2238.00,0.0009
2237.00,0.0008
2236.00,0.0008
2235.00,0.0010
2234.00,0.0011
2233.00,0.0012
2232.00,0.0011
2231.00,0.0010
2230.00,0.0009
2229.00,0.0009
2228.00,0.0010
2227.00,0.0011
2226.00,0.0010
2225.00,0.0009
2224.00,0.0009
2223.00,0.0008
2222.00,0.0007
2221.00,0.0005
2220.00,0.0005
2219.00,0.0004
2218.00,0.0004
2217.00,0.0005
2216.00,0.0005
2215.00,0.0005
2214.00,0.0006
2213.00,0.0006
2212.00,0.0006
2211.00,0.0006
2210.00,0.0004
2209.00,0.0003
2208.00,0.0003
2207.00,0.0003
2206.00,0.0004
2205.00,0.0006
2204.00,0.0009
2203.00,0.0012
2202.00,0.0013
2201.00,0.0011
2200.00,0.0009
2199.00,0.0008
2198.00,0.0010
2197.00,0.0012
2196.00,0.0013
2195.00,0.0013
2194.00,0.0011
2193.00,0.0010
2192.00,0.0009
2191.00,0.0010
2190.00,0.0011
2189.00,0.0014
2188.00,0.0016
2187.00,0.0016
2186.00,0.0014
2185.00,0.0012
2184.00,0.0011
2183.00,0.0010
2182.00,0.0009
2181.00,0.0009
2180.00,0.0009
2179.00,0.0010
2178.00,0.0011
2177.00,0.0011
2176.00,0.0009
2175.00,0.0005
2174.00,0.0003
2173.00,0.0003
2172.00,0.0006
2171.00,0.0009
2170.00,0.0012
2169.00,0.0014
2168.00,0.0016
2167.00,0.0017
2166.00,0.0017
2165.00,0.0017
2164.00,0.0016
2163.00,0.0015
2162.00,0.0013
2161.00,0.0010
2160.00,0.0001
2159.00,-0.0011
2158.00,-0.0021
2157.00,-0.0026
2156.00,-0.0026
2155.00,-0.0023
2154.00,-0.0020
2153.00,-0.0018
2152.00,-0.0016
2151.00,-0.0016
2150.00,-0.0014
2149.00,-0.0011
2148.00,-0.0009
2147.00,-0.0008
2146.00,-0.0009
2145.00,-0.0011
2144.00,-0.0011
2143.00,-0.0011
2142.00,-0.0010
2141.00,-0.0008
2140.00,-0.0008
2139.00,-0.0008
2138.00,-0.0010
2137.00,-0.0013
2136.00,-0.0017
2135.00,-0.0020
2134.00,-0.0022
2133.00,-0.0021
2132.00,-0.0017
2131.00,-0.0013
2130.00,-0.0011
2129.00,-0.0009
2128.00,-0.0008
2127.00,-0.0007
2126.00,-0.0006
2125.00,-0.0004
2124.00,-0.0004
2123.00,-0.0004
2122.00,-0.0004
2121.00,-0.0003
2120.00,-0.0002
2119.00,-0.0000
2118.00,0.0002
2117.00,0.0005
2116.00,0.0007
2115.00,0.0008
2114.00,0.0008
2113.00,0.0008
2112.00,0.0007
2111.00,0.0006
2110.00,0.0004
2109.00,0.0002
2108.00,0.0001
2107.00,0.0001
2106.00,0.0002
2105.00,0.0004
2104.00,0.0005
2103.00,0.0005
2102.00,0.0003
2101.00,0.0002
2100.00,0.0001
2099.00,0.0001
2098.00,0.0000
2097.00,-0.0001
2096.00,-0.0003
2095.00,-0.0005
2094.00,-0.0005
2093.00,-0.0005
2092.00,-0.0004
2091.00,-0.0003
2090.00,-0.0002
2089.00,-0.0002
2088.00,-0.0001
2087.00,-0.0001
2086.00,0.0000
2085.00,0.0002
2084.00,0.0003
2083.00,0.0004
2082.00,0.0005
2081.00,0.0005
2080.00,0.0005
2079.00,0.0005
2078.00,0.0006
2077.00,0.0006
2076.00,0.0005
2075.00,0.0003
2074.00,0.0002
2073.00,0.0001
2072.00,0.0002
2071.00,0.0003
2070.00,0.0003
2069.00,0.0003
2068.00,0.0002
2067.00,0.0000
2066.00,-0.0002
2065.00,-0.0002
2064.00,-0.0002
2063.00,-0.0001
2062.00,-0.0000
2061.00,-0.0000
2060.00,-0.0001
2059.00,-0.0001
2058.00,-0.0001
2057.00,-0.0001
2056.00,-0.0001
2055.00,-0.0001
2054.00,-0.0000
2053.00,0.0003
2052.00,0.0007
2051.00,0.0010
2050.00,0.0009
2049.00,0.0006
2048.00,0.0003
2047.00,0.0001
2046.00,0.0002
2045.00,0.0003
2044.00,0.0004
2043.00,0.0004
2042.00,0.0002
2041.00,0.0002
2040.00,0.0002
2039.00,0.0001
2038.00,0.0000
2037.00,-0.0000
2036.00,-0.0001
2035.00,-0.0002
2034.00,-0.0004
2033.00,-0.0005
2032.00,-0.0007
2031.00,-0.0010
2030.00,-0.0013
2029.00,-0.0014
2028.00,-0.0012
2027.00,-0.0011
2026.00,-0.0010
2025.00,-0.0011
2024.00,-0.0013
2023.00,-0.0014
2022.00,-0.0014
2021.00,-0.0012
2020.00,-0.0012
2019.00,-0.0013
2018.00,-0.0014
2017.00,-0.0014
2016.00,-0.0013
2015.00,-0.0011
2014.00,-0.0010
2013.00,-0.0010
2012.00,-0.0009
2011.00,-0.0010
2010.00,-0.0010
2009.00,-0.0011
2008.00,-0.0012
2007.00,-0.0013
2006.00,-0.0015
2005.00,-0.0015
2004.00,-0.0014
2003.00,-0.0014
2002.00,-0.0014
2001.00,-0.0013
2000.00,-0.0012
1999.00,-0.0012
1998.00,-0.0011
1997.00,-0.0012
1996.00,-0.0014
1995.00,-0.0016
1994.00,-0.0017
1993.00,-0.0015
1992.00,-0.0010
1991.00,-0.0006
1990.00,-0.0004
1989.00,-0.0003
1988.00,-0.0003
1987.00,-0.0003
1986.00,-0.0003
1985.00,-0.0002
1984.00,-0.0001
1983.00,-0.0000
1982.00,0.0002
1981.00,0.0004
1980.00,0.0004
1979.00,0.0002
1978.00,-0.0003
1977.00,-0.0006
1976.00,-0.0007
1975.00,-0.0009
1974.00,-0.0012
1973.00,-0.0015
1972.00,-0.0017
1971.00,-0.0017
1970.00,-0.0015
1969.00,-0.0012
1968.00,-0.0009
1967.00,-0.0011
1966.00,-0.0015
1965.00,-0.0018
1964.00,-0.0020
1963.00,-0.0019
1962.00,-0.0018
1961.00,-0.0019
1960.00,-0.0020
1959.00,-0.0022
1958.00,-0.0022
1957.00,-0.0021
1956.00,-0.0019
1955.00,-0.0017
1954.00,-0.0015
1953.00,-0.0015
1952.00,-0.0015
1951.00,-0.0015
1950.00,-0.0017
1949.00,-0.0018
1948.00,-0.0018
1947.00,-0.0018
1946.00,-0.0017
1945.00,-0.0015
1944.00,-0.0013
1943.00,-0.0013
1942.00,-0.0014
1941.00,-0.0014
1940.00,-0.0013
1939.00,-0.0012
1938.00,-0.0011
1937.00,-0.0011
1936.00,-0.0012
1935.00,-0.0012
1934.00,-0.0012
1933.00,-0.0011
1932.00,-0.0009
1931.00,-0.0008
1930.00,-0.0008
1929.00,-0.0008
1928.00,-0.0008
1927.00,-0.0007
1926.00,-0.0005
1925.00,-0.0003
1924.00,-0.0002
1923.00,-0.0001
1922.00,-0.0001
1921.00,-0.0001
1920.00,-0.0001
1919.00,-0.0001
1918.00,-0.0001
1917.00,-0.0001
1916.00,-0.0002
1915.00,-0.0002
1914.00,-0.0003
1913.00,-0.0004
1912.00,-0.0004
1911.00,-0.0005
1910.00,-0.0005
1909.00,-0.0004
1908.00,-0.0004
1907.00,-0.0003
1906.00,-0.0002
1905.00,-0.0003
1904.00,-0.0003
1903.00,-0.0004
1902.00,-0.0005
1901.00,-0.0005
1900.00,-0.0004
1899.00,-0.0004
1898.00,-0.0004
1897.00,-0.0003
1896.00,-0.0001
1895.00,-0.0000
1894.00,0.0000
1893.00,0.0001
1892.00,0.0001
1891.00,0.0000
1890.00,0.0000
1889.00,0.0000
1888.00,-0.0000
1887.00,-0.0001
1886.00,-0.0002
1885.00,-0.0002
1884.00,-0.0002
1883.00,-0.0003
1882.00,-0.0003
1881.00,-0.0003
1880.00,-0.0002
1879.00,-0.0002
1878.00,-0.0002
1877.00,-0.0001
1876.00,-0.0001
1875.00,0.0000
1874.00,0.0001
1873.00,0.0001
1872.00,0.0000
1871.00,-0.0001
1870.00,-0.0003
1869.00,-0.0004
1868.00,-0.0004
1867.00,-0.0002
1866.00,-0.0001
1865.00,0.0000
1864.00,0.0001
1863.00,0.0000
1862.00,-0.0000
1861.00,-0.0000
1860.00,0.0000
1859.00,0.0001
1858.00,0.0002
1857.00,0.0002
1856.00,0.0002
1855.00,0.0001
1854.00,0.0000
1853.00,0.0001
1852.00,0.0001
1851.00,0.0002
1850.00,0.0002
1849.00,0.0002
1848.00,0.0002
1847.00,0.0002
1846.00,0.0002
1845.00,0.0001
1844.00,0.0001
1843.00,0.0001
1842.00,0.0001
1841.00,0.0002
1840.00,0.0003
1839.00,0.0004
1838.00,0.0004
1837.00,0.0005
1836.00,0.0004
1835.00,0.0004
1834.00,0.0003
1833.00,0.0003
1832.00,0.0003
1831.00,0.0003
1830.00,0.0002
1829.00,0.0002
1828.00,0.0003
1827.00,0.0003
1826.00,0.0003
1825.00,0.0003
1824.00,0.0003
1823.00,0.0003
1822.00,0.0003
1821.00,0.0003
1820.00,0.0003
1819.00,0.0003
1818.00,0.0002
1817.00,0.0001
1816.00,0.0001
1815.00,0.0002
1814.00,0.0002
1813.00,0.0003
1812.00,0.0004
1811.00,0.0004
1810.00,0.0004
1809.00,0.0005
1808.00,0.0006
1807.00,0.0006
1806.00,0.0006
1805.00,0.0006
1804.00,0.0006
1803.00,0.0006
1802.00,0.0006
1801.00,0.0006
1800.00,0.0007
1799.00,0.0007
1798.00,0.0007
1797.00,0.0007
1796.00,0.0007
1795.00,0.0008
1794.00,0.0008
1793.00,0.0009
1792.00,0.0009
1791.00,0.0009
1790.00,0.0009
1789.00,0.0008
1788.00,0.0008
1787.00,0.0009
1786.00,0.0009
1785.00,0.0010
1784.00,0.0010
1783.00,0.0010
1782.00,0.0010
1781.00,0.0010
1780.00,0.0011
1779.00,0.0011
1778.00,0.0011
1777.00,0.0011
1776.00,0.0011
1775.00,0.0012
1774.00,0.0012
1773.00,0.0012
1772.00,0.0013
1771.00,0.0013
1770.00,0.0013
1769.00,0.0013
1768.00,0.0013
1767.00,0.0014
1766.00,0.0014
1765.00,0.0014
1764.00,0.0015
1763.00,0.0016
1762.00,0.0016
1761.00,0.0017
1760.00,0.0017
1759.00,0.0018
1758.00,0.0018
1757.00,0.0019
1756.00,0.0020
1755.00,0.0021
1754.00,0.0022
1753.00,0.0023
1752.00,0.0025
1751.00,0.0026
1750.00,0.0027
1749.00,0.0029
1748.00,0.0030
1747.00,0.0031
1746.00,0.0032
1745.00,0.0033
1744.00,0.0034
1743.00,0.0035
1742.00,0.0035
1741.00,0.0036
1740.00,0.0036
1739.00,0.0036
1738.00,0.0038
1737.00,0.0039
1736.00,0.0040
1735.00,0.0040
1734.00,0.0039
1733.00,0.0038
1732.00,0.0037
1731.00,0.0036
1730.00,0.0035
1729.00,0.0034
1728.00,0.0033
1727.00,0.0033
1726.00,0.0033
1725.00,0.0032
1724.00,0.0032
1723.00,0.0032
1722.00,0.0033
1721.00,0.0033
1720.00,0.0033
1719.00,0.0033
1718.00,0.0033
1717.00,0.0033
1716.00,0.0033
1715.00,0.0032
1714.00,0.0032
1713.00,0.0032
1712.00,0.0032
1711.00,0.0033
1710.00,0.0033
1709.00,0.0034
1708.00,0.0035
1707.00,0.0035
1706.00,0.0036
1705.00,0.0037
1704.00,0.0040
1703.00,0.0042
1702.00,0.0043
1701.00,0.0044
1700.00,0.0044
1699.00,0.0044
1698.00,0.0044
1697.00,0.0044
1696.00,0.0046
1695.00,0.0048
1694.00,0.0050
1693.00,0.0052
1692.00,0.0054
1691.00,0.0057
1690.00,0.0060
1689.00,0.0063
1688.00,0.0065
1687.00,0.0067
1686.00,0.0067
1685.00,0.0069
1684.00,0.0073
1683.00,0.0077
1682.00,0.0080
1681.00,0.0082
1680.00,0.0085
1679.00,0.0087
1678.00,0.0089
1677.00,0.0092
1676.00,0.0095
1675.00,0.0098
1674.00,0.0100
1673.00,0.0103
1672.00,0.0105
1671.00,0.0107
1670.00,0.0109
1669.00,0.0111
1668.00,0.0112
1667.00,0.0112
1666.00,0.0113
1665.00,0.0113
1664.00,0.0114
1663.00,0.0115
1662.00,0.0116
1661.00,0.0118
1660.00,0.0119
1659.00,0.0119
1658.00,0.0120
1657.00,0.0121
1656.00,0.0121
1655.00,0.0121
1654.00,0.0121
1653.00,0.0123
1652.00,0.0124
1651.00,0.0124
1650.00,0.0124
1649.00,0.0125
1648.00,0.0126
1647.00,0.0127
1646.00,0.0126
1645.00,0.0125
1644.00,0.0125
1643.00,0.0124
1642.00,0.0123
1641.00,0.0122
1640.00,0.0122
1639.00,0.0121
1638.00,0.0120
1637.00,0.0120
1636.00,0.0120
1635.00,0.0120
1634.00,0.0119
1633.00,0.0119
1632.00,0.0118
1631.00,0.0118
1630.00,0.0118
1629.00,0.0117
1628.00,0.0117
1627.00,0.0116
1626.00,0.0116
1625.00,0.0115
1624.00,0.0114
1623.00,0.0114
1622.00,0.0113
1621.00,0.0113
1620.00,0.0112
1619.00,0.0112
1618.00,0.0110
1617.00,0.0109
1616.00,0.0109
1615.00,0.0109
1614.00,0.0108
1613.00,0.0108
1612.00,0.0108
1611.00,0.0107
1610.00,0.0107
1609.00,0.0107
1608.00,0.0107
1607.00,0.0107
1606.00,0.0107
1605.00,0.0107
1604.00,0.0108
1603.00,0.0108
1602.00,0.0109
1601.00,0.0109
1600.00,0.0109
1599.00,0.0110
1598.00,0.0110
1597.00,0.0110
1596.00,0.0111
1595.00,0.0112
1594.00,0.0114
1593.00,0.0116
1592.00,0.0119
1591.00,0.0121
1590.00,0.0125
1589.00,0.0129
1588.00,0.0134
1587.00,0.0140
1586.00,0.0147
1585.00,0.0156
1584.00,0.0167
1583.00,0.0178
1582.00,0.0190
1581.00,0.0202
1580.00,0.0213
1579.00,0.0221
1578.00,0.0226
1577.00,0.0227
1576.00,0.0224
1575.00,0.0217
1574.00,0.0210
1573.00,0.0204
1572.00,0.0197
1571.00,0.0188
1570.00,0.0176
1569.00,0.0165
1568.00,0.0157
1567.00,0.0151
1566.00,0.0146
1565.00,0.0142
1564.00,0.0140
1563.00,0.0139
1562.00,0.0139
1561.00,0.0138
1560.00,0.0138
1559.00,0.0140
1558.00,0.0140
1557.00,0.0140
1556.00,0.0142
1555.00,0.0144
1554.00,0.0146
1553.00,0.0149
1552.00,0.0154
1551.00,0.0159
1550.00,0.0167
1549.00,0.0176
1548.00,0.0185
1547.00,0.0194
1546.00,0.0205
1545.00,0.0218
1544.00,0.0232
1543.00,0.0244
1542.00,0.0253
1541.00,0.0256
1540.00,0.0249
1539.00,0.0235
1538.00,0.0222
1537.00,0.0211
1536.00,0.0201
1535.00,0.0187
1534.00,0.0170
1533.00,0.0153
1532.00,0.0141
1531.00,0.0132
1530.00,0.0126
1529.00,0.0121
1528.00,0.0117
1527.00,0.0112
1526.00,0.0109
1525.00,0.0106
1524.00,0.0105
1523.00,0.0103
1522.00,0.0101
1521.00,0.0099
1520.00,0.0098
1519.00,0.0097
1518.00,0.0097
1517.00,0.0097
1516.00,0.0097
1515.00,0.0097
1514.00,0.0096
1513.00,0.0096
1512.00,0.0096
1511.00,0.0096
1510.00,0.0096
1509.00,0.0096
1508.00,0.0097
1507.00,0.0096
1506.00,0.0095
1505.00,0.0096
1504.00,0.0097
1503.00,0.0099
1502.00,0.0101
1501.00,0.0105
1500.00,0.0108
1499.00,0.0111
1498.00,0.0114
1497.00,0.0117
1496.00,0.0121
1495.00,0.0124
1494.00,0.0126
1493.00,0.0130
1492.00,0.0134
1491.00,0.0138
1490.00,0.0143
1489.00,0.0150
1488.00,0.0159
1487.00,0.0167
1486.00,0.0177
1485.00,0.0188
1484.00,0.0201
1483.00,0.0215
1482.00,0.0231
1481.00,0.0251
1480.00,0.0271
1479.00,0.0290
1478.00,0.0310
1477.00,0.0333
1476.00,0.0359
1475.00,0.0387
1474.00,0.0423
1473.00,0.0473
1472.00,0.0530
1471.00,0.0585
1470.00,0.0637
1469.00,0.0694
1468.00,0.0755
1467.00,0.0824
1466.00,0.0902
1465.00,0.0988
1464.00,0.1064
1463.00,0.1118
1462.00,0.1155
1461.00,0.1184
1460.00,0.1206
1459.00,0.1223
1458.00,0.1240
1457.00,0.1258
1456.00,0.1268
1455.00,0.1269
1454.00,0.1266
1453.00,0.1257
1452.00,0.1238
1451.00,0.1207
1450.00,0.1159
1449.00,0.1088
1448.00,0.0994
1447.00,0.0894
1446.00,0.0802
1445.00,0.0724
1444.00,0.0657
1443.00,0.0603
1442.00,0.0563
1441.00,0.0536
1440.00,0.0520
1439.00,0.0512
1438.00,0.0512
1437.00,0.0511
1436.00,0.0498
1435.00,0.0472
1434.00,0.0435
1433.00,0.0392
1432.00,0.0348
1431.00,0.0308
1430.00,0.0277
1429.00,0.0254
1428.00,0.0240
1427.00,0.0231
1426.00,0.0227
1425.00,0.0223
1424.00,0.0220
1423.00,0.0218
1422.00,0.0218
1421.00,0.0215
1420.00,0.0211
1419.00,0.0205
1418.00,0.0200
1417.00,0.0194
1416.00,0.0188
1415.00,0.0184
1414.00,0.0181
1413.00,0.0177
1412.00,0.0174
1411.00,0.0171
1410.00,0.0169
1409.00,0.0167
1408.00,0.0164
1407.00,0.0163
1406.00,0.0162
1405.00,0.0160
1404.00,0.0157
1403.00,0.0156
1402.00,0.0156
1401.00,0.0156
1400.00,0.0156
1399.00,0.0157
1398.00,0.0159
1397.00,0.0160
1396.00,0.0161
1395.00,0.0164
1394.00,0.0168
1393.00,0.0173
1392.00,0.0178
1391.00,0.0185
1390.00,0.0196
1389.00,0.0212
1388.00,0.0236
1387.00,0.0272
1386.00,0.0319
1385.00,0.0379
1384.00,0.0459
1383.00,0.0567
1382.00,0.0709
1381.00,0.0885
1380.00,0.1098
1379.00,0.1333
1378.00,0.1555
1377.00,0.1714
1376.00,0.1765
1375.00,0.1682
1374.00,0.1486
1373.00,0.1245
1372.00,0.1023
1371.00,0.0837
1370.00,0.0685
1369.00,0.0568
1368.00,0.0486
1367.00,0.0435
1366.00,0.0407
1365.00,0.0395
1364.00,0.0396
1363.00,0.0408
1362.00,0.0426
1361.00,0.0446
1360.00,0.0461
1359.00,0.0465
1358.00,0.0455
1357.00,0.0431
1356.00,0.0397
1355.00,0.0359
1354.00,0.0322
1353.00,0.0290
1352.00,0.0264
1351.00,0.0243
1350.00,0.0225
1349.00,0.0211
1348.00,0.0200
1347.00,0.0190
1346.00,0.0182
1345.00,0.0175
1344.00,0.0170
1343.00,0.0166
1342.00,0.0163
1341.00,0.0160
1340.00,0.0158
1339.00,0.0156
1338.00,0.0155
1337.00,0.0155
1336.00,0.0156
1335.00,0.0158
1334.00,0.0160
1333.00,0.0163
1332.00,0.0166
1331.00,0.0168
1330.00,0.0169
1329.00,0.0168
1328.00,0.0165
1327.00,0.0161
1326.00,0.0155
1325.00,0.0149
1324.00,0.0144
1323.00,0.0140
1322.00,0.0137
1321.00,0.0134
1320.00,0.0132
1319.00,0.0130
1318.00,0.0127
1317.00,0.0124
1316.00,0.0121
1315.00,0.0119
1314.00,0.0118
1313.00,0.0118
1312.00,0.0119
1311.00,0.0122
1310.00,0.0127
1309.00,0.0135
1308.00,0.0147
1307.00,0.0161
1306.00,0.0175
1305.00,0.0186
1304.00,0.0190
1303.00,0.0187
1302.00,0.0181
1301.00,0.0174
1300.00,0.0170
1299.00,0.0167
1298.00,0.0165
1297.00,0.0164
1296.00,0.0162
1295.00,0.0160
1294.00,0.0156
1293.00,0.0151
1292.00,0.0146
1291.00,0.0141
1290.00,0.0137
1289.00,0.0133
1288.00,0.0129
1287.00,0.0125
1286.00,0.0122
1285.00,0.0118
1284.00,0.0116
1283.00,0.0114
1282.00,0.0112
1281.00,0.0112
1280.00,0.0111
1279.00,0.0111
1278.00,0.0110
1277.00,0.0109
1276.00,0.0108
1275.00,0.0107
1274.00,0.0107
1273.00,0.0106
1272.00,0.0106
1271.00,0.0107
1270.00,0.0107
1269.00,0.0108
1268.00,0.0110
1267.00,0.0112
1266.00,0.0115
1265.00,0.0117
1264.00,0.0120
1263.00,0.0123
1262.00,0.0128
1261.00,0.0134
1260.00,0.0141
1259.00,0.0151
1258.00,0.0160
1257.00,0.0168
1256.00,0.0171
1255.00,0.0169
1254.00,0.0162
1253.00,0.0152
1252.00,0.0141
1251.00,0.0133
1250.00,0.0127
1249.00,0.0123
1248.00,0.0121
1247.00,0.0119
1246.00,0.0118
1245.00,0.0116
1244.00,0.0115
1243.00,0.0115
1242.00,0.0115
1241.00,0.0115
1240.00,0.0115
1239.00,0.0115
1238.00,0.0116
1237.00,0.0116
1236.00,0.0117
1235.00,0.0117
1234.00,0.0117
1233.00,0.0118
1232.00,0.0118
1231.00,0.0119
1230.00,0.0119
1229.00,0.0121
1228.00,0.0122
1227.00,0.0123
1226.00,0.0125
1225.00,0.0127
1224.00,0.0129
1223.00,0.0132
1222.00,0.0136
1221.00,0.0139
1220.00,0.0141
1219.00,0.0142
1218.00,0.0142
1217.00,0.0141
1216.00,0.0140
1215.00,0.0138
1214.00,0.0135
1213.00,0.0131
1212.00,0.0128
1211.00,0.0125
1210.00,0.0123
1209.00,0.0122
1208.00,0.0121
1207.00,0.0120
1206.00,0.0119
1205.00,0.0118
1204.00,0.0117
1203.00,0.0117
1202.00,0.0118
1201.00,0.0118
1200.00,0.0119
1199.00,0.0120
1198.00,0.0121
1197.00,0.0121
1196.00,0.0122
1195.00,0.0123
1194.00,0.0124
1193.00,0.0124
1192.00,0.0124
1191.00,0.0124
1190.00,0.0125
1189.00,0.0125
1188.00,0.0125
1187.00,0.0126
1186.00,0.0127
1185.00,0.0128
1184.00,0.0130
1183.00,0.0132
1182.00,0.0133
1181.00,0.0136
1180.00,0.0139
1179.00,0.0143
1178.00,0.0150
1177.00,0.0160
1176.00,0.0173
1175.00,0.0191
1174.00,0.0215
1173.00,0.0244
1172.00,0.0279
1171.00,0.0319
1170.00,0.0359
1169.00,0.0393
1168.00,0.0415
1167.00,0.0422
1166.00,0.0415
1165.00,0.0396
1164.00,0.0371
1163.00,0.0345
1162.00,0.0322
1161.00,0.0301
1160.00,0.0284
1159.00,0.0271
1158.00,0.0260
1157.00,0.0251
1156.00,0.0245
1155.00,0.0240
1154.00,0.0236
1153.00,0.0231
1152.00,0.0224
1151.00,0.0216
1150.00,0.0207
1149.00,0.0197
1148.00,0.0187
1147.00,0.0178
1146.00,0.0170
1145.00,0.0163
1144.00,0.0156
1143.00,0.0149
1142.00,0.0143
1141.00,0.0138
1140.00,0.0134
1139.00,0.0130
1138.00,0.0127
1137.00,0.0125
1136.00,0.0123
1135.00,0.0123
1134.00,0.0122
1133.00,0.0122
1132.00,0.0122
1131.00,0.0123
1130.00,0.0125
1129.00,0.0127
1128.00,0.0129
1127.00,0.0131
1126.00,0.0132
1125.00,0.0131
1124.00,0.0130
1123.00,0.0129
1122.00,0.0128
1121.00,0.0128
1120.00,0.0128
1119.00,0.0129
1118.00,0.0131
1117.00,0.0133
1116.00,0.0136
1115.00,0.0138
1114.00,0.0140
1113.00,0.0141
1112.00,0.0142
1111.00,0.0143
1110.00,0.0145
1109.00,0.0149
1108.00,0.0153
1107.00,0.0158
1106.00,0.0163
1105.00,0.0169
1104.00,0.0174
1103.00,0.0177
1102.00,0.0178
1101.00,0.0176
1100.00,0.0171
1099.00,0.0165
1098.00,0.0158
1097.00,0.0151
1096.00,0.0144
1095.00,0.0139
1094.00,0.0135
1093.00,0.0131
1092.00,0.0128
1091.00,0.0125
1090.00,0.0123
1089.00,0.0121
1088.00,0.0119
1087.00,0.0117
1086.00,0.0116
1085.00,0.0115
1084.00,0.0115
1083.00,0.0114
1082.00,0.0112
1081.00,0.0111
1080.00,0.0109
1079.00,0.0108
1078.00,0.0106
1077.00,0.0105
1076.00,0.0105
1075.00,0.0104
1074.00,0.0104
1073.00,0.0104
1072.00,0.0104
1071.00,0.0104
1070.00,0.0104
1069.00,0.0105
1068.00,0.0105
1067.00,0.0105
1066.00,0.0105
1065.00,0.0105
1064.00,0.0105
1063.00,0.0105
1062.00,0.0106
1061.00,0.0106
1060.00,0.0108
1059.00,0.0110
1058.00,0.0112
1057.00,0.0113
1056.00,0.0113
1055.00,0.0113
1054.00,0.0114
1053.00,0.0115
1052.00,0.0117
1051.00,0.0120
1050.00,0.0123
1049.00,0.0127
1048.00,0.0131
1047.00,0.0134
1046.00,0.0138
1045.00,0.0139
1044.00,0.0139
1043.00,0.0138
1042.00,0.0136
1041.00,0.0134
1040.00,0.0134
1039.00,0.0134
1038.00,0.0134
1037.00,0.0135
1036.00,0.0135
1035.00,0.0134
1034.00,0.0132
1033.00,0.0128
1032.00,0.0125
1031.00,0.0122
1030.00,0.0120
1029.00,0.0118
1028.00,0.0117
1027.00,0.0116
1026.00,0.0115
1025.00,0.0113
1024.00,0.0113
1023.00,0.0114
1022.00,0.0115
1021.00,0.0115
1020.00,0.0115
1019.00,0.0116
1018.00,0.0117
1017.00,0.0121
1016.00,0.0125
1015.00,0.0131
1014.00,0.0137
1013.00,0.0144
1012.00,0.0150
1011.00,0.0155
1010.00,0.0158
1009.00,0.0160
1008.00,0.0163
1007.00,0.0168
1006.00,0.0175
1005.00,0.0188
1004.00,0.0206
1003.00,0.0233
1002.00,0.0269
1001.00,0.0313
1000.00,0.0361
999.00,0.0403
998.00,0.0427
997.00,0.0424
996.00,0.0393
995.00,0.0345
994.00,0.0294
993.00,0.0248
992.00,0.0212
991.00,0.0186
990.00,0.0167
989.00,0.0154
988.00,0.0146
987.00,0.0142
986.00,0.0141
985.00,0.0143
984.00,0.0149
983.00,0.0157
982.00,0.0171
981.00,0.0190
980.00,0.0215
979.00,0.0248
978.00,0.0288
977.00,0.0335
976.00,0.0389
975.00,0.0443
974.00,0.0487
973.00,0.0507
972.00,0.0496
971.00,0.0454
970.00,0.0393
969.00,0.0327
968.00,0.0269
967.00,0.0224
966.00,0.0191
965.00,0.0167
964.00,0.0150
963.00,0.0137
962.00,0.0128
961.00,0.0121
960.00,0.0115
959.00,0.0110
958.00,0.0106
957.00,0.0103
956.00,0.0100
955.00,0.0098
954.00,0.0095
953.00,0.0092
952.00,0.0090
951.00,0.0090
950.00,0.0090
949.00,0.0090
948.00,0.0091
947.00,0.0091
946.00,0.0092
945.00,0.0093
944.00,0.0095
943.00,0.0098
942.00,0.0100
941.00,0.0102
940.00,0.0101
939.00,0.0098
938.00,0.0095
937.00,0.0091
936.00,0.0086
935.00,0.0083
934.00,0.0079
933.00,0.0077
932.00,0.0075
931.00,0.0073
930.00,0.0072
929.00,0.0071
928.00,0.0070
927.00,0.0069
926.00,0.0069
925.00,0.0069
924.00,0.0070
923.00,0.0071
922.00,0.0072
921.00,0.0073
920.00,0.0074
919.00,0.0074
918.00,0.0075
917.00,0.0076
916.00,0.0077
915.00,0.0078
914.00,0.0078
913.00,0.0078
912.00,0.0078
911.00,0.0079
910.00,0.0080
909.00,0.0081
908.00,0.0083
907.00,0.0087
906.00,0.0093
905.00,0.0104
904.00,0.0118
903.00,0.0135
902.00,0.0153
901.00,0.0169
900.00,0.0179
899.00,0.0181
898.00,0.0175
897.00,0.0162
896.00,0.0146
895.00,0.0130
894.00,0.0117
893.00,0.0105
892.00,0.0097
891.00,0.0091
890.00,0.0087
889.00,0.0085
888.00,0.0083
887.00,0.0082
886.00,0.0081
885.00,0.0081
884.00,0.0081
883.00,0.0081
882.00,0.0081
881.00,0.0081
880.00,0.0081
879.00,0.0081
878.00,0.0082
877.00,0.0083
876.00,0.0085
875.00,0.0087
874.00,0.0088
873.00,0.0089
872.00,0.0088
871.00,0.0087
870.00,0.0085
869.00,0.0084
868.00,0.0083
867.00,0.0083
866.00,0.0084
865.00,0.0086
864.00,0.0088
863.00,0.0090
862.00,0.0092
861.00,0.0094
860.00,0.0096
859.00,0.0097
858.00,0.0099
857.00,0.0101
856.00,0.0104
855.00,0.0107
854.00,0.0110
853.00,0.0114
852.00,0.0117
851.00,0.0122
850.00,0.0128
849.00,0.0137
848.00,0.0150
847.00,0.0168
846.00,0.0197
845.00,0.0239
844.00,0.0296
843.00,0.0360
842.00,0.0410
841.00,0.0427
840.00,0.0402
839.00,0.0348
838.00,0.0288
837.00,0.0238
836.00,0.0205
835.00,0.0184
834.00,0.0170
833.00,0.0160
832.00,0.0153
831.00,0.0148
830.00,0.0142
829.00,0.0138
828.00,0.0133
827.00,0.0131
826.00,0.0129
825.00,0.0129
824.00,0.0128
823.00,0.0126
822.00,0.0124
821.00,0.0124
820.00,0.0125
819.00,0.0126
818.00,0.0129
817.00,0.0134
816.00,0.0143
815.00,0.0154
814.00,0.0166
813.00,0.0179
812.00,0.0192
811.00,0.0204
810.00,0.0213
809.00,0.0217
808.00,0.0215
807.00,0.0207
806.00,0.0195
805.00,0.0181
804.00,0.0168
803.00,0.0156
802.00,0.0146
801.00,0.0138
800.00,0.0132
799.00,0.0127
798.00,0.0123
797.00,0.0119
796.00,0.0115
795.00,0.0111
794.00,0.0108
793.00,0.0106
792.00,0.0104
791.00,0.0102
790.00,0.0099
789.00,0.0096
788.00,0.0094
787.00,0.0091
786.00,0.0089
785.00,0.0087
784.00,0.0086
783.00,0.0085
782.00,0.0084
781.00,0.0082
780.00,0.0079
779.00,0.0077
778.00,0.0077
777.00,0.0078
776.00,0.0080
775.00,0.0082
774.00,0.0084
773.00,0.0086
772.00,0.0088
771.00,0.0090
770.00,0.0092
769.00,0.0093
768.00,0.0094
767.00,0.0095
766.00,0.0095
765.00,0.0094
764.00,0.0093
763.00,0.0091
762.00,0.0090
761.00,0.0088
760.00,0.0085
759.00,0.0083
758.00,0.0081
757.00,0.0079
756.00,0.0077
755.00,0.0077
754.00,0.0078
753.00,0.0078
752.00,0.0079
751.00,0.0079
750.00,0.0078
749.00,0.0077
748.00,0.0078
747.00,0.0080
746.00,0.0082
745.00,0.0084
744.00,0.0085
743.00,0.0085
742.00,0.0085
741.00,0.0087
740.00,0.0090
739.00,0.0094
738.00,0.0097
737.00,0.0100
736.00,0.0102
735.00,0.0104
734.00,0.0106
733.00,0.0109
732.00,0.0112
731.00,0.0114
730.00,0.0116
729.00,0.0117
728.00,0.0117
727.00,0.0115
726.00,0.0114
725.00,0.0112
724.00,0.0110
723.00,0.0109
722.00,0.0108
721.00,0.0107
720.00,0.0105
719.00,0.0103
718.00,0.0100
717.00,0.0097
716.00,0.0093
715.00,0.0091
714.00,0.0090
713.00,0.0089
712.00,0.0089
711.00,0.0088
710.00,0.0088
709.00,0.0087
708.00,0.0087
707.00,0.0088
706.00,0.0089
705.00,0.0090
704.00,0.0090
703.00,0.0091
702.00,0.0091
701.00,0.0091
700.00,0.0090
699.00,0.0089
698.00,0.0089
697.00,0.0089
696.00,0.0089
695.00,0.0089
694.00,0.0089
693.00,0.0089
692.00,0.0089
691.00,0.0088
690.00,0.0087
689.00,0.0086
688.00,0.0087
687.00,0.0090
686.00,0.0093
685.00,0.0096
684.00,0.0095
683.00,0.0093
682.00,0.0091
681.00,0.0092
680.00,0.0093
679.00,0.0095
678.00,0.0096
677.00,0.0096
676.00,0.0094
675.00,0.0092
674.00,0.0091
673.00,0.0091
672.00,0.0094
671.00,0.0098
670.00,0.0101
669.00,0.0102
668.00,0.0101
667.00,0.0101
666.00,0.0099
665.00,0.0096
664.00,0.0093
663.00,0.0091
662.00,0.0089
661.00,0.0088
660.00,0.0087
659.00,0.0087
658.00,0.0088
657.00,0.0089
656.00,0.0091
655.00,0.0091
654.00,0.0089
653.00,0.0086
652.00,0.0084
651.00,0.0083
650.00,0.0084
649.00,0.0087
648.00,0.0088
647.00,0.0088
646.00,0.0086
645.00,0.0083
644.00,0.0080
643.00,0.0080
642.00,0.0081
641.00,0.0083
640.00,0.0085
639.00,0.0086
638.00,0.0085
637.00,0.0084
636.00,0.0084
635.00,0.0085
634.00,0.0085
633.00,0.0085
632.00,0.0085
631.00,0.0086
630.00,0.0090
629.00,0.0094
628.00,0.0096
627.00,0.0097
626.00,0.0095
625.00,0.0093
624.00,0.0092
623.00,0.0092
622.00,0.0093
621.00,0.0093
620.00,0.0092
619.00,0.0091
618.00,0.0089
617.00,0.0089
616.00,0.0090
615.00,0.0090
614.00,0.0091
613.00,0.0092
612.00,0.0093
611.00,0.0094
610.00,0.0096
609.00,0.0096
608.00,0.0095
607.00,0.0094
606.00,0.0094
605.00,0.0095
604.00,0.0097
603.00,0.0099
602.00,0.0100
601.00,0.0100
600.00,0.0099
599.00,0.0098
598.00,0.0096
597.00,0.0094
596.00,0.0091
595.00,0.0090
594.00,0.0090
593.00,0.0089
592.00,0.0088
591.00,0.0087
590.00,0.0088
589.00,0.0090
588.00,0.0092
587.00,0.0092
586.00,0.0092
585.00,0.0092
584.00,0.0093
583.00,0.0093
582.00,0.0092
581.00,0.0090
580.00,0.0089
579.00,0.0090
578.00,0.0092
577.00,0.0093
576.00,0.0095
575.00,0.0096
574.00,0.0096
573.00,0.0093
572.00,0.0090
571.00,0.0089
570.00,0.0090
569.00,0.0092
568.00,0.0093
567.00,0.0093
566.00,0.0091
565.00,0.0089
564.00,0.0088
563.00,0.0088
562.00,0.0088
561.00,0.0087
560.00,0.0085
559.00,0.0084
558.00,0.0083
557.00,0.0084
556.00,0.0086
555.00,0.0088
554.00,0.0089
553.00,0.0088
552.00,0.0088
551.00,0.0089
550.00,0.0091
549.00,0.0093
548.00,0.0094
547.00,0.0094
546.00,0.0094
545.00,0.0093
544.00,0.0095
543.00,0.0099
542.00,0.0103
541.00,0.0104
540.00,0.0102
539.00,0.0098
538.00,0.0095
537.00,0.0093
536.00,0.0094
535.00,0.0097
534.00,0.0102
533.00,0.0105
532.00,0.0108
531.00,0.0110
530.00,0.0111
529.00,0.0112
528.00,0.0113
527.00,0.0115
526.00,0.0117
525.00,0.0116
524.00,0.0112
523.00,0.0109
522.00,0.0109
521.00,0.0107
520.00,0.0102
519.00,0.0096
518.00,0.0093
517.00,0.0095
516.00,0.0098
515.00,0.0100
514.00,0.0100
513.00,0.0095
512.00,0.0087
511.00,0.0079
510.00,0.0076
509.00,0.0076
508.00,0.0074
507.00,0.0071
506.00,0.0072
505.00,0.0076
504.00,0.0082
503.00,0.0084
502.00,0.0082
501.00,0.0079
500.00,0.0079
499.00,0.0082
498.00,0.0088
497.00,0.0093
496.00,0.0097
495.00,0.0098
494.00,0.0098
493.00,0.0098
492.00,0.0098
491.00,0.0099
490.00,0.0102
489.00,0.0108
488.00,0.0115
487.00,0.0121
486.00,0.0124
485.00,0.0120
484.00,0.0110
483.00,0.0097
482.00,0.0089
481.00,0.0086
480.00,0.0084
479.00,0.0081
478.00,0.0077
477.00,0.0075
476.00,0.0076
475.00,0.0076
474.00,0.0076
473.00,0.0076
472.00,0.0079
471.00,0.0087
470.00,0.0092
469.00,0.0092
468.00,0.0087
467.00,0.0086
466.00,0.0095
465.00,0.0112
464.00,0.0131
463.00,0.0148
462.00,0.0162
461.00,0.0169
460.00,0.0173
459.00,0.0176
458.00,0.0181
457.00,0.0180
456.00,0.0175
455.00,0.0168
454.00,0.0163
453.00,0.0160
452.00,0.0153
451.00,0.0139
450.00,0.0123
