Created as New Dataset,Sample 023 By Administrator Date Wednesday, September 10 2025
cm-1,A
4000.00,0.0010
3999.00,0.0010
3998.00,0.0010
3997.00,0.0010
3996.00,0.0010
3995.00,0.0010
3994.00,0.0010
3993.00,0.0010
3992.00,0.0010
3991.00,0.0010
3990.00,0.0010
3989.00,0.0010
3988.00,0.0010
3987.00,0.0010
3986.00,0.0010
3985.00,0.0010
3984.00,0.0009
3983.00,0.0009
3982.00,0.0009
3981.00,0.0008
3980.00,0.0008
3979.00,0.0008
3978.00,0.0008
3977.00,0.0008
3976.00,0.0008
3975.00,0.0008
3974.00,0.0009
3973.00,0.0009
3972.00,0.0009
3971.00,0.0009
3970.00,0.0009
3969.00,0.0009
3968.00,0.0009
3967.00,0.0009
3966.00,0.0008
3965.00,0.0008
3964.00,0.0008
3963.00,0.0008
3962.00,0.0008
3961.00,0.0008
3960.00,0.0008
3959.00,0.0008
3958.00,0.0008
3957.00,0.0008
3956.00,0.0007
3955.00,0.0007
3954.00,0.0007
3953.00,0.0008
3952.00,0.0008
3951.00,0.0008
3950.00,0.0008
3949.00,0.0008
3948.00,0.0008
3947.00,0.0008
3946.00,0.0008
3945.00,0.0008
3944.00,0.0008
3943.00,0.0007
3942.00,0.0007
3941.00,0.0007
3940.00,0.0007
3939.00,0.0008
3938.00,0.0008
3937.00,0.0008
3936.00,0.0008
3935.00,0.0008
3934.00,0.0008
3933.00,0.0008
3932.00,0.0009
3931.00,0.0009
3930.00,0.0009
3929.00,0.0009
3928.00,0.0009
3927.00,0.0009
3926.00,0.0009
3925.00,0.0009
3924.00,0.0008
3923.00,0.0008
3922.00,0.0008
3921.00,0.0008
3920.00,0.0009
3919.00,0.0009
3918.00,0.0009
3917.00,0.0009
3916.00,0.0009
3915.00,0.0009
3914.00,0.0009
3913.00,0.0009
3912.00,0.0009
3911.00,0.0008
3910.00,0.0008
3909.00,0.0008
3908.00,0.0008
3907.00,0.0008
3906.00,0.0008
3905.00,0.0009
3904.00,0.0009
3903.00,0.0009
3902.00,0.0009
3901.00,0.0010
3900.00,0.0010
3899.00,0.0009
3898.00,0.0009
3897.00,0.0009
3896.00,0.0008
3895.00,0.0008
3894.00,0.0007
3893.00,0.0008
3892.00,0.0008
3891.00,0.0009
3890.00,0.0009
3889.00,0.0009
3888.00,0.0009
3887.00,0.0008
3886.00,0.0008
3885.00,0.0008
3884.00,0.0008
3883.00,0.0008
3882.00,0.0009
3881.00,0.0009
3880.00,0.0009
3879.00,0.0009
3878.00,0.0008
3877.00,0.0008
3876.00,0.0008
3875.00,0.0008
3874.00,0.0008
3873.00,0.0008
3872.00,0.0008
3871.00,0.0008
3870.00,0.0008
3869.00,0.0008
3868.00,0.0008
3867.00,0.0008
3866.00,0.0008
3865.00,0.0008
3864.00,0.0007
3863.00,0.0007
3862.00,0.0007
3861.00,0.0007
3860.00,0.0007
3859.00,0.0007
3858.00,0.0007
3857.00,0.0007
3856.00,0.0007
3855.00,0.0007
3854.00,0.0008
3853.00,0.0008
3852.00,0.0008
3851.00,0.0008
3850.00,0.0007
3849.00,0.0007
3848.00,0.0007
3847.00,0.0007
3846.00,0.0007
3845.00,0.0007
3844.00,0.0007
3843.00,0.0007
3842.00,0.0007
3841.00,0.0007
3840.00,0.0007
3839.00,0.0007
3838.00,0.0007
3837.00,0.0007
3836.00,0.0007
3835.00,0.0008
3834.00,0.0008
3833.00,0.0008
3832.00,0.0008
3831.00,0.0008
3830.00,0.0008
3829.00,0.0008
3828.00,0.0007
3827.00,0.0007
3826.00,0.0007
3825.00,0.0007
3824.00,0.0007
3823.00,0.0007
3822.00,0.0007
3821.00,0.0007
3820.00,0.0007
3819.00,0.0007
3818.00,0.0007
3817.00,0.0008
3816.00,0.0008
3815.00,0.0008
3814.00,0.0008
3813.00,0.0008
3812.00,0.0007
3811.00,0.0007
3810.00,0.0007
3809.00,0.0007
3808.00,0.0007
3807.00,0.0007
3806.00,0.0007
3805.00,0.0007
3804.00,0.0007
3803.00,0.0008
3802.00,0.0008
3801.00,0.0008
3800.00,0.0008
3799.00,0.0008
3798.00,0.0009
3797.00,0.0009
3796.00,0.0009
3795.00,0.0009
3794.00,0.0008
3793.00,0.0008
3792.00,0.0007
3791.00,0.0007
3790.00,0.0007
3789.00,0.0007
3788.00,0.0007
3787.00,0.0007
3786.00,0.0008
3785.00,0.0008
3784.00,0.0009
3783.00,0.0009
3782.00,0.0008
3781.00,0.0008
3780.00,0.0008
3779.00,0.0008
3778.00,0.0008
3777.00,0.0008
3776.00,0.0008
3775.00,0.0008
3774.00,0.0008
3773.00,0.0008
3772.00,0.0008
3771.00,0.0008
3770.00,0.0008
3769.00,0.0008
3768.00,0.0009
3767.00,0.0009
3766.00,0.0009
3765.00,0.0009
3764.00,0.0009
3763.00,0.0008
3762.00,0.0008
3761.00,0.0008
3760.00,0.0008
3759.00,0.0008
3758.00,0.0009
3757.00,0.0009
3756.00,0.0008
3755.00,0.0008
3754.00,0.0008
3753.00,0.0007
3752.00,0.0007
3751.00,0.0007
3750.00,0.0008
3749.00,0.0008
3748.00,0.0009
3747.00,0.0009
3746.00,0.0009
3745.00,0.0009
3744.00,0.0009
3743.00,0.0008
3742.00,0.0008
3741.00,0.0007
3740.00,0.0007
3739.00,0.0007
3738.00,0.0007
3737.00,0.0007
3736.00,0.0007
3735.00,0.0007
3734.00,0.0007
3733.00,0.0007
3732.00,0.0007
3731.00,0.0007
3730.00,0.0007
3729.00,0.0007
3728.00,0.0007
3727.00,0.0007
3726.00,0.0007
3725.00,0.0006
3724.00,0.0006
3723.00,0.0006
3722.00,0.0006
3721.00,0.0007
3720.00,0.0007
3719.00,0.0007
3718.00,0.0007
3717.00,0.0007
3716.00,0.0007
3715.00,0.0007
3714.00,0.0006
3713.00,0.0006
3712.00,0.0006
3711.00,0.0007
3710.00,0.0007
3709.00,0.0007
3708.00,0.0007
3707.00,0.0006
3706.00,0.0005
3705.00,0.0005
3704.00,0.0005
3703.00,0.0005
3702.00,0.0006
3701.00,0.0006
3700.00,0.0006
3699.00,0.0006
3698.00,0.0006
3697.00,0.0006
3696.00,0.0006
3695.00,0.0006
3694.00,0.0006
3693.00,0.0006
3692.00,0.0005
3691.00,0.0005
3690.00,0.0005
3689.00,0.0005
3688.00,0.0005
3687.00,0.0005
3686.00,0.0005
3685.00,0.0005
3684.00,0.0005
3683.00,0.0006
3682.00,0.0006
3681.00,0.0007
3680.00,0.0007
3679.00,0.0007
3678.00,0.0007
3677.00,0.0007
3676.00,0.0006
3675.00,0.0006
3674.00,0.0006
3673.00,0.0007
3672.00,0.0007
3671.00,0.0008
3670.00,0.0008
3669.00,0.0008
3668.00,0.0007
3667.00,0.0007
3666.00,0.0007
3665.00,0.0006
3664.00,0.0006
3663.00,0.0007
3662.00,0.0007
3661.00,0.0007
3660.00,0.0007
3659.00,0.0007
3658.00,0.0007
3657.00,0.0007
3656.00,0.0007
3655.00,0.0007
3654.00,0.0007
3653.00,0.0007
3652.00,0.0007
3651.00,0.0007
3650.00,0.0007
3649.00,0.0007
3648.00,0.0007
3647.00,0.0007
3646.00,0.0007
3645.00,0.0007
3644.00,0.0008
3643.00,0.0008
3642.00,0.0007
3641.00,0.0007
3640.00,0.0006
3639.00,0.0006
3638.00,0.0006
3637.00,0.0007
3636.00,0.0007
3635.00,0.0007
3634.00,0.0007
3633.00,0.0007
3632.00,0.0007
3631.00,0.0007
3630.00,0.0007
3629.00,0.0008
3628.00,0.0008
3627.00,0.0009
3626.00,0.0009
3625.00,0.0010
3624.00,0.0010
3623.00,0.0010
3622.00,0.0010
3621.00,0.0010
3620.00,0.0010
3619.00,0.0010
3618.00,0.0010
3617.00,0.0010
3616.00,0.0011
3615.00,0.0011
3614.00,0.0011
3613.00,0.0012
3612.00,0.0012
3611.00,0.0013
3610.00,0.0013
3609.00,0.0012
3608.00,0.0012
3607.00,0.0011
3606.00,0.0011
3605.00,0.0012
3604.00,0.0012
3603.00,0.0012
3602.00,0.0012
3601.00,0.0012
3600.00,0.0012
3599.00,0.0012
3598.00,0.0011
3597.00,0.0011
3596.00,0.0012
3595.00,0.0012
3594.00,0.0012
3593.00,0.0012
3592.00,0.0013
3591.00,0.0013
3590.00,0.0013
3589.00,0.0014
3588.00,0.0014
3587.00,0.0014
3586.00,0.0014
3585.00,0.0014
3584.00,0.0015
3583.00,0.0015
3582.00,0.0015
3581.00,0.0015
3580.00,0.0015
3579.00,0.0015
3578.00,0.0015
3577.00,0.0016
3576.00,0.0016
3575.00,0.0017
3574.00,0.0017
3573.00,0.0017
3572.00,0.0017
3571.00,0.0018
3570.00,0.0018
3569.00,0.0018
3568.00,0.0018
3567.00,0.0017
3566.00,0.0017
3565.00,0.0017
3564.00,0.0018
3563.00,0.0018
3562.00,0.0018
3561.00,0.0018
3560.00,0.0018
3559.00,0.0018
3558.00,0.0018
3557.00,0.0019
3556.00,0.0020
3555.00,0.0020
3554.00,0.0020
3553.00,0.0021
3552.00,0.0021
3551.00,0.0021
3550.00,0.0021
3549.00,0.0022
3548.00,0.0022
3547.00,0.0023
3546.00,0.0023
3545.00,0.0023
3544.00,0.0023
3543.00,0.0023
3542.00,0.0023
3541.00,0.0023
3540.00,0.0023
3539.00,0.0023
3538.00,0.0024
3537.00,0.0024
3536.00,0.0025
3535.00,0.0025
3534.00,0.0025
3533.00,0.0026
3532.00,0.0026
3531.00,0.0026
3530.00,0.0026
3529.00,0.0027
3528.00,0.0027
3527.00,0.0027
3526.00,0.0028
3525.00,0.0028
3524.00,0.0028
3523.00,0.0028
3522.00,0.0028
3521.00,0.0029
3520.00,0.0029
3519.00,0.0029
3518.00,0.0029
3517.00,0.0029
3516.00,0.0029
3515.00,0.0030
3514.00,0.0030
3513.00,0.0031
3512.00,0.0031
3511.00,0.0031
3510.00,0.0031
3509.00,0.0031
3508.00,0.0031
3507.00,0.0031
3506.00,0.0031
3505.00,0.0031
3504.00,0.0032
3503.00,0.0033
3502.00,0.0033
3501.00,0.0034
3500.00,0.0034
3499.00,0.0034
3498.00,0.0034
3497.00,0.0034
3496.00,0.0034
3495.00,0.0034
3494.00,0.0034
3493.00,0.0034
3492.00,0.0035
3491.00,0.0036
3490.00,0.0036
3489.00,0.0037
3488.00,0.0037
3487.00,0.0036
3486.00,0.0036
3485.00,0.0036
3484.00,0.0037
3483.00,0.0038
3482.00,0.0038
3481.00,0.0039
3480.00,0.0039
3479.00,0.0039
3478.00,0.0039
3477.00,0.0039
3476.00,0.0040
3475.00,0.0040
3474.00,0.0040
3473.00,0.0040
3472.00,0.0040
3471.00,0.0040
3470.00,0.0041
3469.00,0.0041
3468.00,0.0041
3467.00,0.0041
3466.00,0.0041
3465.00,0.0041
3464.00,0.0042
3463.00,0.0043
3462.00,0.0043
3461.00,0.0043
3460.00,0.0042
3459.00,0.0042
3458.00,0.0042
3457.00,0.0043
3456.00,0.0043
3455.00,0.0044
3454.00,0.0044
3453.00,0.0045
3452.00,0.0045
3451.00,0.0044
3450.00,0.0044
3449.00,0.0044
3448.00,0.0044
3447.00,0.0044
3446.00,0.0045
3445.00,0.0045
3444.00,0.0045
3443.00,0.0046
3442.00,0.0046
3441.00,0.0047
3440.00,0.0047
3439.00,0.0047
3438.00,0.0047
3437.00,0.0048
3436.00,0.0048
3435.00,0.0048
3434.00,0.0049
3433.00,0.0049
3432.00,0.0049
3431.00,0.0049
3430.00,0.0049
3429.00,0.0050
3428.00,0.0050
3427.00,0.0051
3426.00,0.0051
3425.00,0.0051
3424.00,0.0051
3423.00,0.0051
3422.00,0.0051
3421.00,0.0051
3420.00,0.0051
3419.00,0.0052
3418.00,0.0052
3417.00,0.0052
3416.00,0.0053
3415.00,0.0053
3414.00,0.0053
3413.00,0.0054
3412.00,0.0054
3411.00,0.0054
3410.00,0.0054
3409.00,0.0054
3408.00,0.0055
3407.00,0.0055
3406.00,0.0055
3405.00,0.0056
3404.00,0.0056
3403.00,0.0056
3402.00,0.0057
3401.00,0.0057
3400.00,0.0057
3399.00,0.0057
3398.00,0.0057
3397.00,0.0057
3396.00,0.0057
3395.00,0.0057
3394.00,0.0058
3393.00,0.0058
3392.00,0.0058
3391.00,0.0058
3390.00,0.0058
3389.00,0.0057
3388.00,0.0057
3387.00,0.0057
3386.00,0.0057
3385.00,0.0057
3384.00,0.0057
3383.00,0.0057
3382.00,0.0057
3381.00,0.0057
3380.00,0.0057
3379.00,0.0057
3378.00,0.0057
3377.00,0.0057
3376.00,0.0058
3375.00,0.0058
3374.00,0.0058
3373.00,0.0058
3372.00,0.0057
3371.00,0.0057
3370.00,0.0057
3369.00,0.0056
3368.00,0.0056
3367.00,0.0056
3366.00,0.0056
3365.00,0.0056
3364.00,0.0057
3363.00,0.0057
3362.00,0.0057
3361.00,0.0057
3360.00,0.0056
3359.00,0.0056
3358.00,0.0056
3357.00,0.0057
3356.00,0.0057
3355.00,0.0058
3354.00,0.0058
3353.00,0.0058
3352.00,0.0058
3351.00,0.0058
3350.00,0.0058
3349.00,0.0058
3348.00,0.0058
3347.00,0.0058
3346.00,0.0058
3345.00,0.0058
3344.00,0.0058
3343.00,0.0058
3342.00,0.0058
3341.00,0.0057
3340.00,0.0057
3339.00,0.0057
3338.00,0.0057
3337.00,0.0057
3336.00,0.0057
3335.00,0.0057
3334.00,0.0056
3333.00,0.0056
3332.00,0.0056
3331.00,0.0055
3330.00,0.0055
3329.00,0.0055
3328.00,0.0056
3327.00,0.0056
3326.00,0.0055
3325.00,0.0055
3324.00,0.0055
3323.00,0.0055
3322.00,0.0055
3321.00,0.0056
3320.00,0.0056
3319.00,0.0056
3318.00,0.0056
3317.00,0.0056
3316.00,0.0056
3315.00,0.0057
3314.00,0.0056
3313.00,0.0056
3312.00,0.0056
3311.00,0.0056
3310.00,0.0055
3309.00,0.0055
3308.00,0.0054
3307.00,0.0054
3306.00,0.0054
3305.00,0.0055
3304.00,0.0055
3303.00,0.0055
3302.00,0.0055
3301.00,0.0055
3300.00,0.0055
3299.00,0.0055
3298.00,0.0054
3297.00,0.0054
3296.00,0.0053
3295.00,0.0053
3294.00,0.0053
3293.00,0.0053
3292.00,0.0053
3291.00,0.0053
3290.00,0.0052
3289.00,0.0052
3288.00,0.0052
3287.00,0.0052
3286.00,0.0052
3285.00,0.0052
3284.00,0.0052
3283.00,0.0052
3282.00,0.0052
3281.00,0.0052
3280.00,0.0052
3279.00,0.0051
3278.00,0.0051
3277.00,0.0051
3276.00,0.0051
3275.00,0.0051
3274.00,0.0051
3273.00,0.0051
3272.00,0.0051
3271.00,0.0051
3270.00,0.0051
3269.00,0.0050
3268.00,0.0050
3267.00,0.0050
3266.00,0.0049
3265.00,0.0049
3264.00,0.0049
3263.00,0.0049
3262.00,0.0049
3261.00,0.0049
3260.00,0.0049
3259.00,0.0048
3258.00,0.0048
3257.00,0.0048
3256.00,0.0048
3255.00,0.0048
3254.00,0.0048
3253.00,0.0048
3252.00,0.0048
3251.00,0.0048
3250.00,0.0047
3249.00,0.0047
3248.00,0.0047
3247.00,0.0047
3246.00,0.0047
3245.00,0.0047
3244.00,0.0046
3243.00,0.0046
3242.00,0.0045
3241.00,0.0045
3240.00,0.0044
3239.00,0.0044
3238.00,0.0045
3237.00,0.0045
3236.00,0.0046
3235.00,0.0046
3234.00,0.0046
3233.00,0.0046
3232.00,0.0046
3231.00,0.0046
3230.00,0.0046
3229.00,0.0047
3228.00,0.0047
3227.00,0.0047
3226.00,0.0047
3225.00,0.0047
3224.00,0.0047
3223.00,0.0047
3222.00,0.0048
3221.00,0.0048
3220.00,0.0049
3219.00,0.0049
3218.00,0.0049
3217.00,0.0049
3216.00,0.0049
3215.00,0.0049
3214.00,0.0049
3213.00,0.0050
3212.00,0.0050
3211.00,0.0050
3210.00,0.0050
3209.00,0.0050
3208.00,0.0050
3207.00,0.0051
3206.00,0.0051
3205.00,0.0051
3204.00,0.0051
3203.00,0.0051
3202.00,0.0051
3201.00,0.0051
3200.00,0.0051
3199.00,0.0051
3198.00,0.0051
3197.00,0.0052
3196.00,0.0052
3195.00,0.0052
3194.00,0.0052
3193.00,0.0051
3192.00,0.0051
3191.00,0.0050
3190.00,0.0050
3189.00,0.0050
3188.00,0.0050
3187.00,0.0050
3186.00,0.0050
3185.00,0.0050
3184.00,0.0049
3183.00,0.0049
3182.00,0.0049
3181.00,0.0048
3180.00,0.0048
3179.00,0.0048
3178.00,0.0048
3177.00,0.0048
3176.00,0.0048
3175.00,0.0048
3174.00,0.0048
3173.00,0.0047
3172.00,0.0046
3171.00,0.0046
3170.00,0.0045
3169.00,0.0045
3168.00,0.0045
3167.00,0.0045
3166.00,0.0045
3165.00,0.0044
3164.00,0.0044
3163.00,0.0043
3162.00,0.0043
3161.00,0.0043
3160.00,0.0043
3159.00,0.0043
3158.00,0.0043
3157.00,0.0043
3156.00,0.0043
3155.00,0.0043
3154.00,0.0043
3153.00,0.0043
3152.00,0.0042
3151.00,0.0042
3150.00,0.0043
3149.00,0.0043
3148.00,0.0043
3147.00,0.0043
3146.00,0.0043
3145.00,0.0042
3144.00,0.0042
3143.00,0.0042
3142.00,0.0041
3141.00,0.0041
3140.00,0.0041
3139.00,0.0041
3138.00,0.0041
3137.00,0.0041
3136.00,0.0041
3135.00,0.0041
3134.00,0.0040
3133.00,0.0040
3132.00,0.0039
3131.00,0.0039
3130.00,0.0039
3129.00,0.0038
3128.00,0.0038
3127.00,0.0038
3126.00,0.0037
3125.00,0.0037
3124.00,0.0037
3123.00,0.0037
3122.00,0.0036
3121.00,0.0036
3120.00,0.0036
3119.00,0.0036
3118.00,0.0036
3117.00,0.0035
3116.00,0.0035
3115.00,0.0035
3114.00,0.0035
3113.00,0.0035
3112.00,0.0035
3111.00,0.0034
3110.00,0.0034
3109.00,0.0034
3108.00,0.0034
3107.00,0.0034
3106.00,0.0034
3105.00,0.0034
3104.00,0.0033
3103.00,0.0033
3102.00,0.0033
3101.00,0.0033
3100.00,0.0033
3099.00,0.0033
3098.00,0.0032
3097.00,0.0032
3096.00,0.0032
3095.00,0.0032
3094.00,0.0032
3093.00,0.0032
3092.00,0.0032
3091.00,0.0032
3090.00,0.0032
3089.00,0.0032
3088.00,0.0032
3087.00,0.0032
3086.00,0.0032
3085.00,0.0032
3084.00,0.0032
3083.00,0.0032
3082.00,0.0032
3081.00,0.0032
3080.00,0.0032
3079.00,0.0032
3078.00,0.0032
3077.00,0.0032
3076.00,0.0032
3075.00,0.0031
3074.00,0.0031
3073.00,0.0031
3072.00,0.0031
3071.00,0.0031
3070.00,0.0032
3069.00,0.0032
3068.00,0.0032
3067.00,0.0032
3066.00,0.0032
3065.00,0.0032
3064.00,0.0033
3063.00,0.0033
3062.00,0.0033
3061.00,0.0033
3060.00,0.0033
3059.00,0.0033
3058.00,0.0033
3057.00,0.0033
3056.00,0.0033
3055.00,0.0033
3054.00,0.0034
3053.00,0.0034
3052.00,0.0034
3051.00,0.0035
3050.00,0.0035
3049.00,0.0035
3048.00,0.0035
3047.00,0.0036
3046.00,0.0036
3045.00,0.0035
3044.00,0.0035
3043.00,0.0035
3042.00,0.0035
3041.00,0.0035
3040.00,0.0035
3039.00,0.0035
3038.00,0.0036
3037.00,0.0036
3036.00,0.0036
3035.00,0.0037
3034.00,0.0037
3033.00,0.0037
3032.00,0.0038
3031.00,0.0038
3030.00,0.0039
3029.00,0.0039
3028.00,0.0040
3027.00,0.0040
3026.00,0.0041
3025.00,0.0041
3024.00,0.0042
3023.00,0.0042
3022.00,0.0043
3021.00,0.0044
3020.00,0.0045
3019.00,0.0046
3018.00,0.0047
3017.00,0.0048
3016.00,0.0049
3015.00,0.0050
3014.00,0.0051
3013.00,0.0052
3012.00,0.0053
3011.00,0.0054
3010.00,0.0055
3009.00,0.0056
3008.00,0.0057
3007.00,0.0058
3006.00,0.0059
3005.00,0.0061
3004.00,0.0063
3003.00,0.0065
3002.00,0.0067
3001.00,0.0069
3000.00,0.0072
2999.00,0.0074
2998.00,0.0077
2997.00,0.0080
2996.00,0.0083
2995.00,0.0087
2994.00,0.0091
2993.00,0.0096
2992.00,0.0100
2991.00,0.0106
2990.00,0.0112
2989.00,0.0119
2988.00,0.0127
2987.00,0.0135
2986.00,0.0145
2985.00,0.0155
2984.00,0.0166
2983.00,0.0179
2982.00,0.0194
2981.00,0.0211
2980.00,0.0230
2979.00,0.0252
2978.00,0.0277
2977.00,0.0305
2976.00,0.0336
2975.00,0.0373
2974.00,0.0414
2973.00,0.0461
2972.00,0.0514
2971.00,0.0573
2970.00,0.0640
2969.00,0.0714
2968.00,0.0794
2967.00,0.0881
2966.00,0.0972
2965.00,0.1066
2964.00,0.1159
2963.00,0.1247
2962.00,0.1327
2961.00,0.1395
2960.00,0.1451
2959.00,0.1494
2958.00,0.1530
2957.00,0.1563
2956.00,0.1599
2955.00,0.1642
2954.00,0.1691
2953.00,0.1744
2952.00,0.1793
2951.00,0.1830
2950.00,0.1844
2949.00,0.1826
2948.00,0.1773
2947.00,0.1686
2946.00,0.1573
2945.00,0.1448
2944.00,0.1323
2943.00,0.1212
2942.00,0.1122
2941.00,0.1057
2940.00,0.1016
2939.00,0.0998
2938.00,0.1001
2937.00,0.1021
2936.00,0.1058
2935.00,0.1109
2934.00,0.1173
2933.00,0.1249
2932.00,0.1334
2931.00,0.1427
2930.00,0.1525
2929.00,0.1625
2928.00,0.1723
2927.00,0.1817
2926.00,0.1906
2925.00,0.1990
2924.00,0.2070
2923.00,0.2147
2922.00,0.2223
2921.00,0.2294
2920.00,0.2358
2919.00,0.2406
2918.00,0.2432
2917.00,0.2430
2916.00,0.2400
2915.00,0.2343
2914.00,0.2268
2913.00,0.2182
2912.00,0.2094
2911.00,0.2009
2910.00,0.1931
2909.00,0.1860
2908.00,0.1793
2907.00,0.1729
2906.00,0.1666
2905.00,0.1602
2904.00,0.1536
2903.00,0.1470
2902.00,0.1404
2901.00,0.1339
2900.00,0.1277
2899.00,0.1218
2898.00,0.1164
2897.00,0.1114
2896.00,0.1071
2895.00,0.1034
2894.00,0.1004
2893.00,0.0981
2892.00,0.0964
2891.00,0.0954
2890.00,0.0948
2889.00,0.0948
2888.00,0.0951
2887.00,0.0957
2886.00,0.0967
2885.00,0.0981
2884.00,0.1000
2883.00,0.1022
2882.00,0.1049
2881.00,0.1079
2880.00,0.1109
2879.00,0.1134
2878.00,0.1152
2877.00,0.1159
2876.00,0.1157
2875.00,0.1149
2874.00,0.1140
2873.00,0.1135
2872.00,0.1138
2871.00,0.1148
2870.00,0.1164
2869.00,0.1181
2868.00,0.1192
2867.00,0.1189
2866.00,0.1165
2865.00,0.1116
2864.00,0.1045
2863.00,0.0960
2862.00,0.0872
2861.00,0.0789
2860.00,0.0718
2859.00,0.0661
2858.00,0.0618
2857.00,0.0587
2856.00,0.0566
2855.00,0.0555
2854.00,0.0551
2853.00,0.0554
2852.00,0.0563
2851.00,0.0577
2850.00,0.0596
2849.00,0.0621
2848.00,0.0650
2847.00,0.0687
2846.00,0.0732
2845.00,0.0785
2844.00,0.0847
2843.00,0.0916
2842.00,0.0988
2841.00,0.1058
2840.00,0.1118
2839.00,0.1159
2838.00,0.1173
2837.00,0.1153
2836.00,0.1099
2835.00,0.1017
2834.00,0.0916
2833.00,0.0808
2832.00,0.0705
2831.00,0.0612
2830.00,0.0534
2829.00,0.0470
2828.00,0.0418
2827.00,0.0377
2826.00,0.0344
2825.00,0.0317
2824.00,0.0294
2823.00,0.0275
2822.00,0.0259
2821.00,0.0244
2820.00,0.0232
2819.00,0.0222
2818.00,0.0212
2817.00,0.0205
2816.00,0.0198
2815.00,0.0191
2814.00,0.0186
2813.00,0.0180
2812.00,0.0175
2811.00,0.0170
2810.00,0.0165
2809.00,0.0160
2808.00,0.0154
2807.00,0.0148
2806.00,0.0142
2805.00,0.0136
2804.00,0.0131
2803.00,0.0125
2802.00,0.0120
2801.00,0.0116
2800.00,0.0112
2799.00,0.0109
2798.00,0.0107
2797.00,0.0104
2796.00,0.0102
2795.00,0.0100
2794.00,0.0098
2793.00,0.0095
2792.00,0.0092
2791.00,0.0089
2790.00,0.0086
2789.00,0.0083
2788.00,0.0080
2787.00,0.0077
2786.00,0.0075
2785.00,0.0072
2784.00,0.0070
2783.00,0.0067
2782.00,0.0065
2781.00,0.0064
2780.00,0.0062
2779.00,0.0061
2778.00,0.0060
2777.00,0.0059
2776.00,0.0057
2775.00,0.0056
2774.00,0.0055
2773.00,0.0055
2772.00,0.0054
2771.00,0.0054
2770.00,0.0054
2769.00,0.0054
2768.00,0.0053
2767.00,0.0053
2766.00,0.0053
2765.00,0.0053
2764.00,0.0053
2763.00,0.0053
2762.00,0.0053
2761.00,0.0052
2760.00,0.0052
2759.00,0.0051
2758.00,0.0050
2757.00,0.0050
2756.00,0.0049
2755.00,0.0049
2754.00,0.0049
2753.00,0.0049
2752.00,0.0049
2751.00,0.0049
2750.00,0.0049
2749.00,0.0050
2748.00,0.0050
2747.00,0.0050
2746.00,0.0051
2745.00,0.0051
2744.00,0.0052
2743.00,0.0052
2742.00,0.0053
2741.00,0.0054
2740.00,0.0055
2739.00,0.0057
2738.00,0.0058
2737.00,0.0059
2736.00,0.0061
2735.00,0.0062
2734.00,0.0064
2733.00,0.0065
2732.00,0.0067
2731.00,0.0068
2730.00,0.0071
2729.00,0.0073
2728.00,0.0075
2727.00,0.0078
2726.00,0.0081
2725.00,0.0084
2724.00,0.0085
2723.00,0.0086
2722.00,0.0085
2721.00,0.0083
2720.00,0.0080
2719.00,0.0077
2718.00,0.0073
2717.00,0.0070
2716.00,0.0067
2715.00,0.0065
2714.00,0.0062
2713.00,0.0060
2712.00,0.0059
2711.00,0.0057
2710.00,0.0055
2709.00,0.0053
2708.00,0.0052
2707.00,0.0050
2706.00,0.0049
2705.00,0.0048
2704.00,0.0047
2703.00,0.0046
2702.00,0.0045
2701.00,0.0045
2700.00,0.0044
2699.00,0.0044
2698.00,0.0044
2697.00,0.0043
2696.00,0.0043
2695.00,0.0043
2694.00,0.0043
2693.00,0.0043
2692.00,0.0043
2691.00,0.0043
2690.00,0.0043
2689.00,0.0043
2688.00,0.0043
2687.00,0.0043
2686.00,0.0043
2685.00,0.0043
2684.00,0.0043
2683.00,0.0044
2682.00,0.0043
2681.00,0.0043
2680.00,0.0043
2679.00,0.0043
2678.00,0.0043
2677.00,0.0043
2676.00,0.0044
2675.00,0.0044
2674.00,0.0044
2673.00,0.0043
2672.00,0.0043
2671.00,0.0042
2670.00,0.0042
2669.00,0.0042
2668.00,0.0043
2667.00,0.0043
2666.00,0.0044
2665.00,0.0044
2664.00,0.0045
2663.00,0.0045
2662.00,0.0045
2661.00,0.0045
2660.00,0.0045
2659.00,0.0045
2658.00,0.0045
2657.00,0.0045
2656.00,0.0044
2655.00,0.0044
2654.00,0.0043
2653.00,0.0043
2652.00,0.0042
2651.00,0.0042
2650.00,0.0041
2649.00,0.0041
2648.00,0.0041
2647.00,0.0040
2646.00,0.0040
2645.00,0.0039
2644.00,0.0039
2643.00,0.0038
2642.00,0.0038
2641.00,0.0038
2640.00,0.0037
2639.00,0.0037
2638.00,0.0036
2637.00,0.0036
2636.00,0.0036
2635.00,0.0036
2634.00,0.0036
2633.00,0.0035
2632.00,0.0036
2631.00,0.0036
2630.00,0.0037
2629.00,0.0037
2628.00,0.0037
2627.00,0.0038
2626.00,0.0038
2625.00,0.0037
2624.00,0.0037
2623.00,0.0037
2622.00,0.0038
2621.00,0.0038
2620.00,0.0039
2619.00,0.0039
2618.00,0.0039
2617.00,0.0039
2616.00,0.0039
2615.00,0.0039
2614.00,0.0039
2613.00,0.0038
2612.00,0.0037
2611.00,0.0036
2610.00,0.0035
2609.00,0.0035
2608.00,0.0034
2607.00,0.0034
2606.00,0.0034
2605.00,0.0033
2604.00,0.0033
2603.00,0.0032
2602.00,0.0031
2601.00,0.0031
2600.00,0.0031
2599.00,0.0031
2598.00,0.0031
2597.00,0.0031
2596.00,0.0031
2595.00,0.0032
2594.00,0.0032
2593.00,0.0033
2592.00,0.0033
2591.00,0.0034
2590.00,0.0034
2589.00,0.0035
2588.00,0.0036
2587.00,0.0037
2586.00,0.0038
2585.00,0.0038
2584.00,0.0038
2583.00,0.0037
2582.00,0.0037
2581.00,0.0038
2580.00,0.0038
2579.00,0.0038
2578.00,0.0037
2577.00,0.0036
2576.00,0.0035
2575.00,0.0034
2574.00,0.0032
2573.00,0.0030
2572.00,0.0029
2571.00,0.0028
2570.00,0.0027
2569.00,0.0027
2568.00,0.0027
2567.00,0.0027
2566.00,0.0026
2565.00,0.0025
2564.00,0.0025
2563.00,0.0024
2562.00,0.0024
2561.00,0.0024
2560.00,0.0023
2559.00,0.0023
2558.00,0.0022
2557.00,0.0022
2556.00,0.0022
2555.00,0.0022
2554.00,0.0021
2553.00,0.0020
2552.00,0.0020
2551.00,0.0020
2550.00,0.0020
2549.00,0.0020
2548.00,0.0020
2547.00,0.0019
2546.00,0.0019
2545.00,0.0019
2544.00,0.0019
2543.00,0.0018
2542.00,0.0018
2541.00,0.0018
2540.00,0.0018
2539.00,0.0018
2538.00,0.0017
2537.00,0.0017
2536.00,0.0017
2535.00,0.0016
2534.00,0.0016
2533.00,0.0016
2532.00,0.0016
2531.00,0.0016
2530.00,0.0016
2529.00,0.0016
2528.00,0.0015
2527.00,0.0015
2526.00,0.0014
2525.00,0.0014
2524.00,0.0014
2523.00,0.0014
2522.00,0.0013
2521.00,0.0012
2520.00,0.0012
2519.00,0.0012
2518.00,0.0012
2517.00,0.0011
2516.00,0.0011
2515.00,0.0011
2514.00,0.0011
2513.00,0.0011
2512.00,0.0011
2511.00,0.0011
2510.00,0.0010
2509.00,0.0010
2508.00,0.0010
2507.00,0.0010
2506.00,0.0011
2505.00,0.0011
2504.00,0.0011
2503.00,0.0011
2502.00,0.0010
2501.00,0.0010
2500.00,0.0010
2499.00,0.0010
2498.00,0.0010
2497.00,0.0010
2496.00,0.0010
2495.00,0.0010
2494.00,0.0011
2493.00,0.0011
2492.00,0.0012
2491.00,0.0012
2490.00,0.0012
2489.00,0.0011
2488.00,0.0011
2487.00,0.0010
2486.00,0.0010
2485.00,0.0010
2484.00,0.0010
2483.00,0.0010
2482.00,0.0010
2481.00,0.0010
2480.00,0.0009
2479.00,0.0009
2478.00,0.0009
2477.00,0.0009
2476.00,0.0009
2475.00,0.0009
2474.00,0.0009
2473.00,0.0009
2472.00,0.0009
2471.00,0.0009
2470.00,0.0010
2469.00,0.0010
2468.00,0.0010
2467.00,0.0010
2466.00,0.0010
2465.00,0.0010
2464.00,0.0010
2463.00,0.0010
2462.00,0.0011
2461.00,0.0012
2460.00,0.0011
2459.00,0.0011
2458.00,0.0010
2457.00,0.0009
2456.00,0.0009
2455.00,0.0009
2454.00,0.0010
2453.00,0.0011
2452.00,0.0012
2451.00,0.0012
2450.00,0.0012
2449.00,0.0011
2448.00,0.0011
2447.00,0.0011
2446.00,0.0012
2445.00,0.0012
2444.00,0.0012
2443.00,0.0012
2442.00,0.0011
2441.00,0.0011
2440.00,0.0011
2439.00,0.0011
2438.00,0.0012
2437.00,0.0012
2436.00,0.0012
2435.00,0.0012
2434.00,0.0012
2433.00,0.0012
2432.00,0.0013
2431.00,0.0013
2430.00,0.0013
2429.00,0.0013
2428.00,0.0013
2427.00,0.0012
2426.00,0.0012
2425.00,0.0012
2424.00,0.0012
2423.00,0.0012
2422.00,0.0012
2421.00,0.0012
2420.00,0.0012
2419.00,0.0011
2418.00,0.0011
2417.00,0.0011
2416.00,0.0011
2415.00,0.0011
2414.00,0.0010
2413.00,0.0011
2412.00,0.0011
2411.00,0.0011
2410.00,0.0011
2409.00,0.0010
2408.00,0.0010
2407.00,0.0009
2406.00,0.0009
2405.00,0.0010
2404.00,0.0010
2403.00,0.0011
2402.00,0.0011
2401.00,0.0010
2400.00,0.0010
2399.00,0.0010
2398.00,0.0010
2397.00,0.0010
2396.00,0.0010
2395.00,0.0010
2394.00,0.0010
2393.00,0.0010
2392.00,0.0010
2391.00,0.0009
2390.00,0.0009
2389.00,0.0009
2388.00,0.0008
2387.00,0.0008
2386.00,0.0007
2385.00,0.0007
2384.00,0.0007
2383.00,0.0007
2382.00,0.0007
2381.00,0.0007
2380.00,0.0006
2379.00,0.0006
2378.00,0.0006
2377.00,0.0005
2376.00,0.0005
2375.00,0.0005
2374.00,0.0005
2373.00,0.0005
2372.00,0.0005
2371.00,0.0005
2370.00,0.0006
2369.00,0.0006
2368.00,0.0006
2367.00,0.0006
2366.00,0.0006
2365.00,0.0006
2364.00,0.0006
2363.00,0.0006
2362.00,0.0006
2361.00,0.0006
2360.00,0.0007
2359.00,0.0008
2358.00,0.0009
2357.00,0.0009
2356.00,0.0009
2355.00,0.0009
2354.00,0.0008
2353.00,0.0008
2352.00,0.0007
2351.00,0.0007
2350.00,0.0007
2349.00,0.0007
2348.00,0.0008
2347.00,0.0008
2346.00,0.0008
2345.00,0.0008
2344.00,0.0008
2343.00,0.0009
2342.00,0.0009
2341.00,0.0009
2340.00,0.0010
2339.00,0.0010
2338.00,0.0010
2337.00,0.0010
2336.00,0.0010
2335.00,0.0010
2334.00,0.0010
2333.00,0.0010
2332.00,0.0009
2331.00,0.0009
2330.00,0.0008
2329.00,0.0009
2328.00,0.0010
2327.00,0.0013
2326.00,0.0017
2325.00,0.0020
2324.00,0.0021
2323.00,0.0020
2322.00,0.0018
2321.00,0.0017
2320.00,0.0016
2319.00,0.0015
2318.00,0.0015
2317.00,0.0014
2316.00,0.0013
2315.00,0.0012
2314.00,0.0012
2313.00,0.0011
2312.00,0.0011
2311.00,0.0011
2310.00,0.0010
2309.00,0.0010
2308.00,0.0010
2307.00,0.0010
2306.00,0.0011
2305.00,0.0011
2304.00,0.0012
2303.00,0.0012
2302.00,0.0012
2301.00,0.0012
2300.00,0.0012
2299.00,0.0012
2298.00,0.0013
2297.00,0.0013
2296.00,0.0013
2295.00,0.0013
2294.00,0.0013
2293.00,0.0014
2292.00,0.0015
2291.00,0.0015
2290.00,0.0015
2289.00,0.0016
2288.00,0.0017
2287.00,0.0017
2286.00,0.0018
2285.00,0.0018
2284.00,0.0018
2283.00,0.0018
2282.00,0.0017
2281.00,0.0017
2280.00,0.0016
2279.00,0.0015
2278.00,0.0014
2277.00,0.0014
2276.00,0.0014
2275.00,0.0014
2274.00,0.0014
2273.00,0.0014
2272.00,0.0015
2271.00,0.0015
2270.00,0.0014
2269.00,0.0013
2268.00,0.0012
2267.00,0.0011
2266.00,0.0010
2265.00,0.0009
2264.00,0.0009
2263.00,0.0009
2262.00,0.0009
2261.00,0.0010
2260.00,0.0010
2259.00,0.0011
2258.00,0.0012
2257.00,0.0013
2256.00,0.0012
2255.00,0.0012
2254.00,0.0011
2253.00,0.0011
2252.00,0.0011
2251.00,0.0012
2250.00,0.0011
2249.00,0.0011
2248.00,0.0011
2247.00,0.0011
2246.00,0.0010
2245.00,0.0010
2244.00,0.0008
2243.00,0.0007
2242.00,0.0007
2241.00,0.0007
2240.00,0.0008
2239.00,0.0009
2238.00,0.0009
2237.00,0.0010
2236.00,0.0010
2235.00,0.0010
2234.00,0.0008
2233.00,0.0007
2232.00,0.0006
2231.00,0.0006
2230.00,0.0007
2229.00,0.0008
2228.00,0.0009
2227.00,0.0009
2226.00,0.0009
2225.00,0.0009
2224.00,0.0009
2223.00,0.0008
2222.00,0.0008
2221.00,0.0007
2220.00,0.0007
2219.00,0.0007
2218.00,0.0007
2217.00,0.0007
2216.00,0.0006
2215.00,0.0007
2214.00,0.0007
2213.00,0.0007
2212.00,0.0007
2211.00,0.0006
2210.00,0.0004
2209.00,0.0003
2208.00,0.0004
2207.00,0.0006
2206.00,0.0008
2205.00,0.0008
2204.00,0.0008
2203.00,0.0008
2202.00,0.0009
2201.00,0.0011
2200.00,0.0013
2199.00,0.0013
2198.00,0.0012
2197.00,0.0011
2196.00,0.0009
2195.00,0.0009
2194.00,0.0009
2193.00,0.0010
2192.00,0.0011
2191.00,0.0011
2190.00,0.0010
2189.00,0.0010
2188.00,0.0011
2187.00,0.0012
2186.00,0.0013
2185.00,0.0014
2184.00,0.0014
2183.00,0.0012
2182.00,0.0009
2181.00,0.0006
2180.00,0.0004
2179.00,0.0004
2178.00,0.0005
2177.00,0.0004
2176.00,0.0003
2175.00,0.0001
2174.00,0.0001
2173.00,0.0003
2172.00,0.0006
2171.00,0.0008
2170.00,0.0011
2169.00,0.0014
2168.00,0.0015
2167.00,0.0015
2166.00,0.0013
2165.00,0.0012
2164.00,0.0014
2163.00,0.0016
2162.00,0.0017
2161.00,0.0013
2160.00,0.0002
2159.00,-0.0013
2158.00,-0.0024
2157.00,-0.0029
2156.00,-0.0029
2155.00,-0.0026
2154.00,-0.0023
2153.00,-0.0019
2152.00,-0.0015
2151.00,-0.0012
2150.00,-0.0011
2149.00,-0.0012
2148.00,-0.0015
2147.00,-0.0016
2146.00,-0.0017
2145.00,-0.0015
2144.00,-0.0012
2143.00,-0.0009
2142.00,-0.0008
2141.00,-0.0009
2140.00,-0.0011
2139.00,-0.0013
2138.00,-0.0014
2137.00,-0.0015
2136.00,-0.0016
2135.00,-0.0016
2134.00,-0.0015
2133.00,-0.0013
2132.00,-0.0010
2131.00,-0.0007
2130.00,-0.0005
2129.00,-0.0003
2128.00,-0.0002
2127.00,-0.0001
2126.00,-0.0001
2125.00,-0.0001
2124.00,-0.0002
2123.00,-0.0002
2122.00,-0.0002
2121.00,-0.0001
2120.00,-0.0000
2119.00,0.0000
2118.00,0.0000
2117.00,0.0000
2116.00,0.0001
2115.00,0.0003
2114.00,0.0004
2113.00,0.0004
2112.00,0.0004
2111.00,0.0004
2110.00,0.0004
2109.00,0.0004
2108.00,0.0004
2107.00,0.0004
2106.00,0.0003
2105.00,0.0003
2104.00,0.0003
2103.00,0.0003
2102.00,0.0004
2101.00,0.0003
2100.00,0.0002
2099.00,0.0000
2098.00,-0.0002
2097.00,-0.0003
2096.00,-0.0004
2095.00,-0.0004
2094.00,-0.0003
2093.00,-0.0001
2092.00,0.0001
2091.00,0.0002
2090.00,0.0003
2089.00,0.0003
2088.00,0.0003
2087.00,0.0003
2086.00,0.0003
2085.00,0.0003
2084.00,0.0003
2083.00,0.0003
2082.00,0.0003
2081.00,0.0004
2080.00,0.0004
2079.00,0.0004
2078.00,0.0004
2077.00,0.0004
2076.00,0.0003
2075.00,0.0002
2074.00,0.0001
2073.00,0.0001
2072.00,0.0001
2071.00,0.0002
2070.00,0.0003
2069.00,0.0005
2068.00,0.0005
2067.00,0.0004
2066.00,0.0003
2065.00,0.0002
2064.00,0.0003
2063.00,0.0004
2062.00,0.0004
2061.00,0.0003
2060.00,0.0002
2059.00,0.0002
2058.00,0.0002
2057.00,0.0003
2056.00,0.0003
2055.00,0.0003
2054.00,0.0004
2053.00,0.0008
2052.00,0.0013
2051.00,0.0016
2050.00,0.0013
2049.00,0.0007
2048.00,0.0002
2047.00,0.0000
2046.00,0.0002
2045.00,0.0004
2044.00,0.0003
2043.00,-0.0000
2042.00,-0.0004
2041.00,-0.0006
2040.00,-0.0004
2039.00,-0.0002
2038.00,-0.0001
2037.00,-0.0000
2036.00,-0.0001
2035.00,-0.0001
2034.00,-0.0002
2033.00,-0.0003
2032.00,-0.0005
2031.00,-0.0007
2030.00,-0.0009
2029.00,-0.0010
2028.00,-0.0009
2027.00,-0.0006
2026.00,-0.0004
2025.00,-0.0003
2024.00,-0.0004
2023.00,-0.0006
2022.00,-0.0008
2021.00,-0.0009
2020.00,-0.0010
2019.00,-0.0011
2018.00,-0.0013
2017.00,-0.0013
2016.00,-0.0012
2015.00,-0.0010
2014.00,-0.0008
2013.00,-0.0009
2012.00,-0.0010
2011.00,-0.0012
2010.00,-0.0011
2009.00,-0.0010
2008.00,-0.0010
2007.00,-0.0011
2006.00,-0.0012
2005.00,-0.0012
2004.00,-0.0011
2003.00,-0.0010
2002.00,-0.0010
2001.00,-0.0010
2000.00,-0.0011
1999.00,-0.0012
1998.00,-0.0013
1997.00,-0.0012
1996.00,-0.0010
1995.00,-0.0009
1994.00,-0.0009
1993.00,-0.0009
1992.00,-0.0008
1991.00,-0.0007
1990.00,-0.0006
1989.00,-0.0003
1988.00,-0.0000
1987.00,0.0001
1986.00,0.0002
1985.00,0.0002
1984.00,0.0002
1983.00,0.0003
1982.00,0.0004
1981.00,0.0005
1980.00,0.0005
1979.00,0.0002
1978.00,-0.0003
1977.00,-0.0008
1976.00,-0.0009
1975.00,-0.0008
1974.00,-0.0006
1973.00,-0.0004
1972.00,-0.0003
1971.00,-0.0002
1970.00,-0.0002
1969.00,-0.0001
1968.00,-0.0001
1967.00,-0.0001
1966.00,-0.0002
1965.00,-0.0004
1964.00,-0.0007
1963.00,-0.0011
1962.00,-0.0013
1961.00,-0.0013
1960.00,-0.0013
1959.00,-0.0013
1958.00,-0.0014
1957.00,-0.0016
1956.00,-0.0016
1955.00,-0.0016
1954.00,-0.0014
1953.00,-0.0013
1952.00,-0.0012
1951.00,-0.0013
1950.00,-0.0013
1949.00,-0.0013
1948.00,-0.0011
1947.00,-0.0010
1946.00,-0.0009
1945.00,-0.0008
1944.00,-0.0009
1943.00,-0.0009
1942.00,-0.0010
1941.00,-0.0010
1940.00,-0.0011
1939.00,-0.0011
1938.00,-0.0011
1937.00,-0.0011
1936.00,-0.0010
1935.00,-0.0009
1934.00,-0.0008
1933.00,-0.0007
1932.00,-0.0007
1931.00,-0.0007
1930.00,-0.0007
1929.00,-0.0008
1928.00,-0.0008
1927.00,-0.0006
1926.00,-0.0004
1925.00,-0.0003
1924.00,-0.0002
1923.00,-0.0002
1922.00,-0.0003
1921.00,-0.0003
1920.00,-0.0002
1919.00,-0.0002
1918.00,-0.0002
1917.00,-0.0003
1916.00,-0.0003
1915.00,-0.0003
1914.00,-0.0003
1913.00,-0.0002
1912.00,-0.0001
1911.00,-0.0000
1910.00,-0.0000
1909.00,-0.0001
1908.00,-0.0001
1907.00,-0.0002
1906.00,-0.0003
1905.00,-0.0004
1904.00,-0.0004
1903.00,-0.0003
1902.00,-0.0002
1901.00,-0.0000
1900.00,0.0001
1899.00,0.0002
1898.00,0.0002
1897.00,0.0002
1896.00,0.0002
1895.00,0.0002
1894.00,0.0003
1893.00,0.0003
1892.00,0.0004
1891.00,0.0003
1890.00,0.0002
1889.00,0.0002
1888.00,0.0001
1887.00,0.0001
1886.00,0.0001
1885.00,0.0000
1884.00,-0.0000
1883.00,-0.0001
1882.00,-0.0002
1881.00,-0.0002
1880.00,-0.0001
1879.00,-0.0000
1878.00,0.0000
1877.00,0.0001
1876.00,0.0001
1875.00,0.0001
1874.00,0.0000
1873.00,-0.0000
1872.00,0.0000
1871.00,0.0001
1870.00,0.0001
1869.00,0.0002
1868.00,0.0002
1867.00,0.0002
1866.00,0.0002
1865.00,0.0002
1864.00,0.0002
1863.00,0.0002
1862.00,0.0002
1861.00,0.0002
1860.00,0.0002
1859.00,0.0002
1858.00,0.0002
1857.00,0.0002
1856.00,0.0001
1855.00,0.0000
1854.00,-0.0000
1853.00,0.0000
1852.00,0.0001
1851.00,0.0002
1850.00,0.0002
1849.00,0.0003
1848.00,0.0003
1847.00,0.0003
1846.00,0.0002
1845.00,0.0001
1844.00,0.0001
1843.00,0.0002
1842.00,0.0003
1841.00,0.0004
1840.00,0.0004
1839.00,0.0005
1838.00,0.0005
1837.00,0.0005
1836.00,0.0004
1835.00,0.0003
1834.00,0.0003
1833.00,0.0003
1832.00,0.0004
1831.00,0.0005
1830.00,0.0006
1829.00,0.0006
1828.00,0.0006
1827.00,0.0006
1826.00,0.0006
1825.00,0.0007
1824.00,0.0007
1823.00,0.0006
1822.00,0.0005
1821.00,0.0004
1820.00,0.0004
1819.00,0.0003
1818.00,0.0002
1817.00,0.0001
1816.00,0.0001
1815.00,0.0001
1814.00,0.0001
1813.00,0.0002
1812.00,0.0003
1811.00,0.0004
1810.00,0.0004
1809.00,0.0005
1808.00,0.0006
1807.00,0.0006
1806.00,0.0006
1805.00,0.0006
1804.00,0.0006
1803.00,0.0006
1802.00,0.0006
1801.00,0.0006
1800.00,0.0006
1799.00,0.0006
1798.00,0.0006
1797.00,0.0005
1796.00,0.0005
1795.00,0.0006
1794.00,0.0006
1793.00,0.0006
1792.00,0.0007
1791.00,0.0007
1790.00,0.0008
1789.00,0.0008
1788.00,0.0008
1787.00,0.0008
1786.00,0.0008
1785.00,0.0008
1784.00,0.0008
1783.00,0.0008
1782.00,0.0009
1781.00,0.0009
1780.00,0.0009
1779.00,0.0010
1778.00,0.0010
1777.00,0.0010
1776.00,0.0010
1775.00,0.0010
1774.00,0.0010
1773.00,0.0010
1772.00,0.0011
1771.00,0.0011
1770.00,0.0011
1769.00,0.0011
1768.00,0.0011
1767.00,0.0011
1766.00,0.0011
1765.00,0.0011
1764.00,0.0011
1763.00,0.0011
1762.00,0.0011
1761.00,0.0012
1760.00,0.0012
1759.00,0.0012
1758.00,0.0013
1757.00,0.0014
1756.00,0.0014
1755.00,0.0014
1754.00,0.0014
1753.00,0.0014
1752.00,0.0015
1751.00,0.0016
1750.00,0.0016
1749.00,0.0017
1748.00,0.0017
1747.00,0.0017
1746.00,0.0017
1745.00,0.0017
1744.00,0.0018
1743.00,0.0018
1742.00,0.0019
1741.00,0.0019
1740.00,0.0019
1739.00,0.0018
1738.00,0.0018
1737.00,0.0018
1736.00,0.0018
1735.00,0.0019
1734.00,0.0019
1733.00,0.0020
1732.00,0.0020
1731.00,0.0020
1730.00,0.0020
1729.00,0.0021
1728.00,0.0021
1727.00,0.0020
1726.00,0.0020
1725.00,0.0020
1724.00,0.0020
1723.00,0.0020
1722.00,0.0021
1721.00,0.0021
1720.00,0.0021
1719.00,0.0021
1718.00,0.0021
1717.00,0.0022
1716.00,0.0022
1715.00,0.0022
1714.00,0.0022
1713.00,0.0022
1712.00,0.0022
1711.00,0.0022
1710.00,0.0022
1709.00,0.0023
1708.00,0.0023
1707.00,0.0024
1706.00,0.0024
1705.00,0.0025
1704.00,0.0026
1703.00,0.0026
1702.00,0.0026
1701.00,0.0027
1700.00,0.0027
1699.00,0.0028
1698.00,0.0028
1697.00,0.0028
1696.00,0.0029
1695.00,0.0030
1694.00,0.0030
1693.00,0.0030
1692.00,0.0031
1691.00,0.0032
1690.00,0.0033
1689.00,0.0033
1688.00,0.0034
1687.00,0.0034
1686.00,0.0034
1685.00,0.0034
1684.00,0.0036
1683.00,0.0037
1682.00,0.0038
1681.00,0.0039
1680.00,0.0040
1679.00,0.0040
1678.00,0.0041
1677.00,0.0042
1676.00,0.0043
1675.00,0.0044
1674.00,0.0045
1673.00,0.0046
1672.00,0.0048
1671.00,0.0048
1670.00,0.0049
1669.00,0.0048
1668.00,0.0048
1667.00,0.0048
1666.00,0.0048
1665.00,0.0049
1664.00,0.0050
1663.00,0.0051
1662.00,0.0053
1661.00,0.0054
1660.00,0.0055
1659.00,0.0055
1658.00,0.0055
1657.00,0.0055
1656.00,0.0056
1655.00,0.0057
1654.00,0.0059
1653.00,0.0062
1652.00,0.0063
1651.00,0.0064
1650.00,0.0065
1649.00,0.0067
1648.00,0.0069
1647.00,0.0071
1646.00,0.0072
1645.00,0.0072
1644.00,0.0071
1643.00,0.0070
1642.00,0.0070
1641.00,0.0069
1640.00,0.0069
1639.00,0.0068
1638.00,0.0068
1637.00,0.0068
1636.00,0.0068
1635.00,0.0069
1634.00,0.0068
1633.00,0.0068
1632.00,0.0068
1631.00,0.0068
1630.00,0.0068
1629.00,0.0068
1628.00,0.0068
1627.00,0.0067
1626.00,0.0067
1625.00,0.0066
1624.00,0.0066
1623.00,0.0065
1622.00,0.0064
1621.00,0.0064
1620.00,0.0064
1619.00,0.0063
1618.00,0.0063
1617.00,0.0063
1616.00,0.0063
1615.00,0.0063
1614.00,0.0063
1613.00,0.0063
1612.00,0.0063
1611.00,0.0062
1610.00,0.0062
1609.00,0.0061
1608.00,0.0061
1607.00,0.0061
1606.00,0.0061
1605.00,0.0061
1604.00,0.0062
1603.00,0.0062
1602.00,0.0061
1601.00,0.0061
1600.00,0.0061
1599.00,0.0061
1598.00,0.0061
1597.00,0.0061
1596.00,0.0061
1595.00,0.0061
1594.00,0.0060
1593.00,0.0060
1592.00,0.0060
1591.00,0.0060
1590.00,0.0060
1589.00,0.0060
1588.00,0.0061
1587.00,0.0062
1586.00,0.0064
1585.00,0.0065
1584.00,0.0067
1583.00,0.0069
1582.00,0.0070
1581.00,0.0072
1580.00,0.0074
1579.00,0.0075
1578.00,0.0076
1577.00,0.0077
1576.00,0.0077
1575.00,0.0076
1574.00,0.0075
1573.00,0.0074
1572.00,0.0072
1571.00,0.0071
1570.00,0.0070
1569.00,0.0069
1568.00,0.0068
1567.00,0.0066
1566.00,0.0066
1565.00,0.0065
1564.00,0.0066
1563.00,0.0066
1562.00,0.0066
1561.00,0.0067
1560.00,0.0067
1559.00,0.0067
1558.00,0.0068
1557.00,0.0068
1556.00,0.0069
1555.00,0.0069
1554.00,0.0070
1553.00,0.0071
1552.00,0.0072
1551.00,0.0073
1550.00,0.0074
1549.00,0.0075
1548.00,0.0076
1547.00,0.0078
1546.00,0.0080
1545.00,0.0084
1544.00,0.0087
1543.00,0.0089
1542.00,0.0090
1541.00,0.0090
1540.00,0.0090
1539.00,0.0087
1538.00,0.0085
1537.00,0.0082
1536.00,0.0081
1535.00,0.0079
1534.00,0.0076
1533.00,0.0073
1532.00,0.0070
1531.00,0.0068
1530.00,0.0066
1529.00,0.0065
1528.00,0.0064
1527.00,0.0063
1526.00,0.0062
1525.00,0.0062
1524.00,0.0062
1523.00,0.0062
1522.00,0.0062
1521.00,0.0062
1520.00,0.0062
1519.00,0.0062
1518.00,0.0061
1517.00,0.0060
1516.00,0.0060
1515.00,0.0059
1514.00,0.0059
1513.00,0.0060
1512.00,0.0061
1511.00,0.0061
1510.00,0.0061
1509.00,0.0062
1508.00,0.0064
1507.00,0.0065
1506.00,0.0066
1505.00,0.0067
1504.00,0.0067
1503.00,0.0068
1502.00,0.0069
1501.00,0.0072
1500.00,0.0075
1499.00,0.0077
1498.00,0.0079
1497.00,0.0083
1496.00,0.0086
1495.00,0.0089
1494.00,0.0091
1493.00,0.0095
1492.00,0.0099
1491.00,0.0103
1490.00,0.0108
1489.00,0.0113
1488.00,0.0117
1487.00,0.0121
1486.00,0.0125
1485.00,0.0131
1484.00,0.0138
1483.00,0.0145
1482.00,0.0154
1481.00,0.0165
1480.00,0.0176
1479.00,0.0188
1478.00,0.0201
1477.00,0.0219
1476.00,0.0240
1475.00,0.0263
1474.00,0.0296
1473.00,0.0347
1472.00,0.0409
1471.00,0.0470
1470.00,0.0528
1469.00,0.0587
1468.00,0.0651
1467.00,0.0723
1466.00,0.0806
1465.00,0.0899
1464.00,0.0983
1463.00,0.1042
1462.00,0.1080
1461.00,0.1106
1460.00,0.1125
1459.00,0.1138
1458.00,0.1153
1457.00,0.1173
1456.00,0.1186
1455.00,0.1186
1454.00,0.1178
1453.00,0.1164
1452.00,0.1141
1451.00,0.1104
1450.00,0.1052
1449.00,0.0980
1448.00,0.0888
1447.00,0.0791
1446.00,0.0704
1445.00,0.0629
1444.00,0.0566
1443.00,0.0515
1442.00,0.0478
1441.00,0.0453
1440.00,0.0439
1439.00,0.0434
1438.00,0.0437
1437.00,0.0440
1436.00,0.0430
1435.00,0.0404
1434.00,0.0366
1433.00,0.0320
1432.00,0.0275
1431.00,0.0236
1430.00,0.0206
1429.00,0.0184
1428.00,0.0169
1427.00,0.0160
1426.00,0.0155
1425.00,0.0150
1424.00,0.0145
1423.00,0.0142
1422.00,0.0141
1421.00,0.0140
1420.00,0.0137
1419.00,0.0135
1418.00,0.0133
1417.00,0.0130
1416.00,0.0128
1415.00,0.0126
1414.00,0.0125
1413.00,0.0123
1412.00,0.0121
1411.00,0.0120
1410.00,0.0119
1409.00,0.0118
1408.00,0.0116
1407.00,0.0116
1406.00,0.0116
1405.00,0.0117
1404.00,0.0116
1403.00,0.0117
1402.00,0.0118
1401.00,0.0118
1400.00,0.0119
1399.00,0.0120
1398.00,0.0122
1397.00,0.0124
1396.00,0.0126
1395.00,0.0129
1394.00,0.0135
1393.00,0.0140
1392.00,0.0146
1391.00,0.0154
1390.00,0.0166
1389.00,0.0183
1388.00,0.0209
1387.00,0.0247
1386.00,0.0297
1385.00,0.0359
1384.00,0.0440
1383.00,0.0550
1382.00,0.0695
1381.00,0.0881
1380.00,0.1111
1379.00,0.1372
1378.00,0.1623
1377.00,0.1805
1376.00,0.1864
1375.00,0.1771
1374.00,0.1551
1373.00,0.1283
1372.00,0.1036
1371.00,0.0832
1370.00,0.0667
1369.00,0.0542
1368.00,0.0456
1367.00,0.0404
1366.00,0.0375
1365.00,0.0365
1364.00,0.0369
1363.00,0.0384
1362.00,0.0407
1361.00,0.0430
1360.00,0.0447
1359.00,0.0450
1358.00,0.0438
1357.00,0.0412
1356.00,0.0374
1355.00,0.0332
1354.00,0.0291
1353.00,0.0257
1352.00,0.0230
1351.00,0.0207
1350.00,0.0189
1349.00,0.0175
1348.00,0.0164
1347.00,0.0155
1346.00,0.0148
1345.00,0.0142
1344.00,0.0137
1343.00,0.0134
1342.00,0.0130
1341.00,0.0127
1340.00,0.0125
1339.00,0.0123
1338.00,0.0121
1337.00,0.0120
1336.00,0.0121
1335.00,0.0123
1334.00,0.0126
1333.00,0.0130
1332.00,0.0134
1331.00,0.0138
1330.00,0.0139
1329.00,0.0138
1328.00,0.0135
1327.00,0.0129
1326.00,0.0123
1325.00,0.0116
1324.00,0.0110
1323.00,0.0105
1322.00,0.0101
1321.00,0.0098
1320.00,0.0095
1319.00,0.0093
1318.00,0.0091
1317.00,0.0089
1316.00,0.0088
1315.00,0.0086
1314.00,0.0086
1313.00,0.0086
1312.00,0.0088
1311.00,0.0090
1310.00,0.0095
1309.00,0.0102
1308.00,0.0113
1307.00,0.0125
1306.00,0.0136
1305.00,0.0144
1304.00,0.0146
1303.00,0.0144
1302.00,0.0139
1301.00,0.0134
1300.00,0.0132
1299.00,0.0131
1298.00,0.0131
1297.00,0.0131
1296.00,0.0129
1295.00,0.0126
1294.00,0.0122
1293.00,0.0117
1292.00,0.0112
1291.00,0.0106
1290.00,0.0101
1289.00,0.0097
1288.00,0.0093
1287.00,0.0090
1286.00,0.0087
1285.00,0.0085
1284.00,0.0083
1283.00,0.0081
1282.00,0.0080
1281.00,0.0079
1280.00,0.0078
1279.00,0.0078
1278.00,0.0077
1277.00,0.0077
1276.00,0.0076
1275.00,0.0076
1274.00,0.0076
1273.00,0.0076
1272.00,0.0076
1271.00,0.0076
1270.00,0.0077
1269.00,0.0078
1268.00,0.0079
1267.00,0.0081
1266.00,0.0083
1265.00,0.0085
1264.00,0.0087
1263.00,0.0090
1262.00,0.0094
1261.00,0.0099
1260.00,0.0105
1259.00,0.0112
1258.00,0.0120
1257.00,0.0126
1256.00,0.0129
1255.00,0.0127
1254.00,0.0122
1253.00,0.0114
1252.00,0.0106
1251.00,0.0100
1250.00,0.0095
1249.00,0.0091
1248.00,0.0089
1247.00,0.0088
1246.00,0.0087
1245.00,0.0086
1244.00,0.0085
1243.00,0.0084
1242.00,0.0083
1241.00,0.0082
1240.00,0.0082
1239.00,0.0081
1238.00,0.0080
1237.00,0.0080
1236.00,0.0080
1235.00,0.0079
1234.00,0.0079
1233.00,0.0079
1232.00,0.0078
1231.00,0.0078
1230.00,0.0079
1229.00,0.0080
1228.00,0.0080
1227.00,0.0082
1226.00,0.0083
1225.00,0.0085
1224.00,0.0089
1223.00,0.0093
1222.00,0.0097
1221.00,0.0100
1220.00,0.0103
1219.00,0.0104
1218.00,0.0103
1217.00,0.0102
1216.00,0.0099
1215.00,0.0095
1214.00,0.0092
1213.00,0.0088
1212.00,0.0085
1211.00,0.0082
1210.00,0.0079
1209.00,0.0077
1208.00,0.0075
1207.00,0.0074
1206.00,0.0073
1205.00,0.0073
1204.00,0.0072
1203.00,0.0072
1202.00,0.0072
1201.00,0.0072
1200.00,0.0072
1199.00,0.0073
1198.00,0.0073
1197.00,0.0074
1196.00,0.0074
1195.00,0.0074
1194.00,0.0073
1193.00,0.0073
1192.00,0.0073
1191.00,0.0073
1190.00,0.0074
1189.00,0.0075
1188.00,0.0075
1187.00,0.0075
1186.00,0.0076
1185.00,0.0076
1184.00,0.0077
1183.00,0.0078
1182.00,0.0080
1181.00,0.0082
1180.00,0.0086
1179.00,0.0091
1178.00,0.0098
1177.00,0.0107
1176.00,0.0119
1175.00,0.0134
1174.00,0.0154
1173.00,0.0179
1172.00,0.0210
1171.00,0.0243
1170.00,0.0275
1169.00,0.0300
1168.00,0.0316
1167.00,0.0320
1166.00,0.0314
1165.00,0.0300
1164.00,0.0282
1163.00,0.0264
1162.00,0.0247
1161.00,0.0233
1160.00,0.0221
1159.00,0.0212
1158.00,0.0205
1157.00,0.0200
1156.00,0.0196
1155.00,0.0193
1154.00,0.0191
1153.00,0.0189
1152.00,0.0186
1151.00,0.0180
1150.00,0.0172
1149.00,0.0162
1148.00,0.0152
1147.00,0.0144
1146.00,0.0137
1145.00,0.0131
1144.00,0.0125
1143.00,0.0119
1142.00,0.0113
1141.00,0.0108
1140.00,0.0104
1139.00,0.0101
1138.00,0.0097
1137.00,0.0094
1136.00,0.0091
1135.00,0.0089
1134.00,0.0088
1133.00,0.0087
1132.00,0.0087
1131.00,0.0087
1130.00,0.0087
1129.00,0.0087
1128.00,0.0088
1127.00,0.0089
1126.00,0.0090
1125.00,0.0091
1124.00,0.0091
1123.00,0.0092
1122.00,0.0092
1121.00,0.0093
1120.00,0.0094
1119.00,0.0095
1118.00,0.0097
1117.00,0.0098
1116.00,0.0100
1115.00,0.0101
1114.00,0.0102
1113.00,0.0103
1112.00,0.0105
1111.00,0.0108
1110.00,0.0111
1109.00,0.0115
1108.00,0.0120
1107.00,0.0126
1106.00,0.0133
1105.00,0.0139
1104.00,0.0144
1103.00,0.0147
1102.00,0.0148
1101.00,0.0146
1100.00,0.0141
1099.00,0.0135
1098.00,0.0129
1097.00,0.0122
1096.00,0.0117
1095.00,0.0113
1094.00,0.0109
1093.00,0.0106
1092.00,0.0103
1091.00,0.0100
1090.00,0.0098
1089.00,0.0096
1088.00,0.0094
1087.00,0.0093
1086.00,0.0093
1085.00,0.0092
1084.00,0.0092
1083.00,0.0092
1082.00,0.0091
1081.00,0.0090
1080.00,0.0089
1079.00,0.0087
1078.00,0.0086
1077.00,0.0084
1076.00,0.0082
1075.00,0.0082
1074.00,0.0083
1073.00,0.0084
1072.00,0.0084
1071.00,0.0084
1070.00,0.0084
1069.00,0.0084
1068.00,0.0084
1067.00,0.0084
1066.00,0.0084
1065.00,0.0083
1064.00,0.0082
1063.00,0.0082
1062.00,0.0082
1061.00,0.0082
1060.00,0.0084
1059.00,0.0086
1058.00,0.0088
1057.00,0.0088
1056.00,0.0089
1055.00,0.0089
1054.00,0.0089
1053.00,0.0090
1052.00,0.0091
1051.00,0.0092
1050.00,0.0094
1049.00,0.0097
1048.00,0.0099
1047.00,0.0103
1046.00,0.0105
1045.00,0.0107
1044.00,0.0107
1043.00,0.0105
1042.00,0.0103
1041.00,0.0100
1040.00,0.0099
1039.00,0.0098
1038.00,0.0098
1037.00,0.0098
1036.00,0.0098
1035.00,0.0097
1034.00,0.0096
1033.00,0.0095
1032.00,0.0094
1031.00,0.0093
1030.00,0.0093
1029.00,0.0093
1028.00,0.0093
1027.00,0.0093
1026.00,0.0093
1025.00,0.0092
1024.00,0.0092
1023.00,0.0092
1022.00,0.0092
1021.00,0.0093
1020.00,0.0094
1019.00,0.0095
1018.00,0.0097
1017.00,0.0098
1016.00,0.0100
1015.00,0.0103
1014.00,0.0106
1013.00,0.0109
1012.00,0.0112
1011.00,0.0116
1010.00,0.0120
1009.00,0.0123
1008.00,0.0128
1007.00,0.0134
1006.00,0.0143
1005.00,0.0155
1004.00,0.0171
1003.00,0.0194
1002.00,0.0223
1001.00,0.0259
1000.00,0.0297
999.00,0.0328
998.00,0.0344
997.00,0.0337
996.00,0.0311
995.00,0.0273
994.00,0.0231
993.00,0.0195
992.00,0.0166
991.00,0.0145
990.00,0.0131
989.00,0.0122
988.00,0.0117
987.00,0.0114
986.00,0.0113
985.00,0.0114
984.00,0.0118
983.00,0.0124
982.00,0.0135
981.00,0.0150
980.00,0.0171
979.00,0.0200
978.00,0.0236
977.00,0.0279
976.00,0.0326
975.00,0.0371
974.00,0.0404
973.00,0.0417
972.00,0.0404
971.00,0.0368
970.00,0.0319
969.00,0.0266
968.00,0.0220
967.00,0.0184
966.00,0.0158
965.00,0.0140
964.00,0.0127
963.00,0.0117
962.00,0.0108
961.00,0.0101
960.00,0.0096
959.00,0.0092
958.00,0.0089
957.00,0.0087
956.00,0.0085
955.00,0.0083
954.00,0.0080
953.00,0.0078
952.00,0.0076
951.00,0.0076
950.00,0.0076
949.00,0.0076
948.00,0.0078
947.00,0.0079
946.00,0.0081
945.00,0.0083
944.00,0.0085
943.00,0.0088
942.00,0.0091
941.00,0.0094
940.00,0.0094
939.00,0.0092
938.00,0.0088
937.00,0.0084
936.00,0.0079
935.00,0.0075
934.00,0.0071
933.00,0.0068
932.00,0.0067
931.00,0.0067
930.00,0.0067
929.00,0.0066
928.00,0.0065
927.00,0.0064
926.00,0.0064
925.00,0.0064
924.00,0.0064
923.00,0.0064
922.00,0.0064
921.00,0.0065
920.00,0.0065
919.00,0.0066
918.00,0.0067
917.00,0.0068
916.00,0.0070
915.00,0.0072
914.00,0.0073
913.00,0.0073
912.00,0.0074
911.00,0.0074
910.00,0.0074
909.00,0.0076
908.00,0.0079
907.00,0.0084
906.00,0.0091
905.00,0.0102
904.00,0.0116
903.00,0.0134
902.00,0.0154
901.00,0.0173
900.00,0.0185
899.00,0.0187
898.00,0.0179
897.00,0.0164
896.00,0.0144
895.00,0.0126
894.00,0.0110
893.00,0.0099
892.00,0.0090
891.00,0.0084
890.00,0.0080
889.00,0.0076
888.00,0.0074
887.00,0.0073
886.00,0.0072
885.00,0.0072
884.00,0.0072
883.00,0.0072
882.00,0.0073
881.00,0.0074
880.00,0.0075
879.00,0.0076
878.00,0.0076
877.00,0.0076
876.00,0.0074
875.00,0.0073
874.00,0.0072
873.00,0.0071
872.00,0.0070
871.00,0.0070
870.00,0.0070
869.00,0.0071
868.00,0.0072
867.00,0.0073
866.00,0.0075
865.00,0.0075
864.00,0.0076
863.00,0.0078
862.00,0.0079
861.00,0.0081
860.00,0.0083
859.00,0.0084
858.00,0.0086
857.00,0.0086
856.00,0.0087
855.00,0.0089
854.00,0.0092
853.00,0.0096
852.00,0.0100
851.00,0.0105
850.00,0.0110
849.00,0.0116
848.00,0.0125
847.00,0.0140
846.00,0.0163
845.00,0.0197
844.00,0.0243
843.00,0.0293
842.00,0.0331
841.00,0.0342
840.00,0.0320
839.00,0.0275
838.00,0.0227
837.00,0.0187
836.00,0.0160
835.00,0.0143
834.00,0.0133
833.00,0.0127
832.00,0.0124
831.00,0.0121
830.00,0.0118
829.00,0.0115
828.00,0.0113
827.00,0.0112
826.00,0.0112
825.00,0.0111
824.00,0.0109
823.00,0.0107
822.00,0.0106
821.00,0.0107
820.00,0.0110
819.00,0.0113
818.00,0.0116
817.00,0.0121
816.00,0.0128
815.00,0.0139
814.00,0.0153
813.00,0.0169
812.00,0.0185
811.00,0.0201
810.00,0.0213
809.00,0.0220
808.00,0.0218
807.00,0.0209
806.00,0.0194
805.00,0.0177
804.00,0.0161
803.00,0.0147
802.00,0.0135
801.00,0.0126
800.00,0.0119
799.00,0.0113
798.00,0.0107
797.00,0.0101
796.00,0.0096
795.00,0.0091
794.00,0.0089
793.00,0.0088
792.00,0.0088
791.00,0.0087
790.00,0.0086
789.00,0.0084
788.00,0.0082
787.00,0.0080
786.00,0.0078
785.00,0.0074
784.00,0.0070
783.00,0.0068
782.00,0.0067
781.00,0.0066
780.00,0.0066
779.00,0.0066
778.00,0.0066
777.00,0.0066
776.00,0.0067
775.00,0.0067
774.00,0.0070
773.00,0.0074
772.00,0.0077
771.00,0.0080
770.00,0.0081
769.00,0.0081
768.00,0.0081
767.00,0.0081
766.00,0.0080
765.00,0.0079
764.00,0.0078
763.00,0.0076
762.00,0.0073
761.00,0.0070
760.00,0.0066
759.00,0.0064
758.00,0.0062
757.00,0.0060
756.00,0.0059
755.00,0.0058
754.00,0.0058
753.00,0.0058
752.00,0.0058
751.00,0.0058
750.00,0.0058
749.00,0.0057
748.00,0.0056
747.00,0.0056
746.00,0.0056
745.00,0.0058
744.00,0.0061
743.00,0.0063
742.00,0.0065
741.00,0.0066
740.00,0.0067
739.00,0.0068
738.00,0.0069
737.00,0.0069
736.00,0.0069
735.00,0.0069
734.00,0.0070
733.00,0.0072
732.00,0.0073
731.00,0.0074
730.00,0.0073
729.00,0.0073
728.00,0.0073
727.00,0.0073
726.00,0.0073
725.00,0.0073
724.00,0.0073
723.00,0.0074
722.00,0.0075
721.00,0.0075
720.00,0.0075
719.00,0.0074
718.00,0.0072
717.00,0.0069
716.00,0.0066
715.00,0.0064
714.00,0.0064
713.00,0.0064
712.00,0.0064
711.00,0.0064
710.00,0.0063
709.00,0.0063
708.00,0.0064
707.00,0.0065
706.00,0.0067
705.00,0.0068
704.00,0.0067
703.00,0.0066
702.00,0.0064
701.00,0.0062
700.00,0.0060
699.00,0.0059
698.00,0.0058
697.00,0.0058
696.00,0.0058
695.00,0.0058
694.00,0.0057
693.00,0.0057
692.00,0.0056
691.00,0.0056
690.00,0.0057
689.00,0.0057
688.00,0.0057
687.00,0.0058
686.00,0.0059
685.00,0.0059
684.00,0.0059
683.00,0.0060
682.00,0.0062
681.00,0.0063
680.00,0.0064
679.00,0.0064
678.00,0.0064
677.00,0.0064
676.00,0.0064
675.00,0.0063
674.00,0.0062
673.00,0.0061
672.00,0.0059
671.00,0.0058
670.00,0.0057
669.00,0.0056
668.00,0.0056
667.00,0.0058
666.00,0.0059
665.00,0.0060
664.00,0.0061
663.00,0.0061
662.00,0.0060
661.00,0.0058
660.00,0.0056
659.00,0.0055
658.00,0.0056
657.00,0.0057
656.00,0.0058
655.00,0.0059
654.00,0.0061
653.00,0.0063
652.00,0.0063
651.00,0.0062
650.00,0.0061
649.00,0.0060
648.00,0.0059
647.00,0.0058
646.00,0.0058
645.00,0.0059
644.00,0.0060
643.00,0.0060
642.00,0.0061
641.00,0.0061
640.00,0.0063
639.00,0.0065
638.00,0.0067
637.00,0.0069
636.00,0.0069
635.00,0.0068
634.00,0.0067
633.00,0.0066
632.00,0.0066
631.00,0.0065
630.00,0.0064
629.00,0.0064
628.00,0.0063
627.00,0.0062
626.00,0.0060
625.00,0.0060
624.00,0.0060
623.00,0.0060
622.00,0.0060
621.00,0.0059
620.00,0.0059
619.00,0.0058
618.00,0.0059
617.00,0.0060
616.00,0.0061
615.00,0.0061
614.00,0.0062
613.00,0.0063
612.00,0.0064
611.00,0.0064
610.00,0.0064
609.00,0.0065
608.00,0.0066
607.00,0.0066
606.00,0.0065
605.00,0.0064
604.00,0.0064
603.00,0.0066
602.00,0.0067
601.00,0.0066
600.00,0.0064
599.00,0.0061
598.00,0.0059
597.00,0.0059
596.00,0.0059
595.00,0.0060
594.00,0.0061
593.00,0.0062
592.00,0.0062
591.00,0.0062
590.00,0.0062
589.00,0.0063
588.00,0.0064
587.00,0.0064
586.00,0.0064
585.00,0.0062
584.00,0.0061
583.00,0.0060
582.00,0.0061
581.00,0.0064
580.00,0.0066
579.00,0.0067
578.00,0.0066
577.00,0.0066
576.00,0.0065
575.00,0.0064
574.00,0.0063
573.00,0.0061
572.00,0.0060
571.00,0.0059
570.00,0.0059
569.00,0.0059
568.00,0.0061
567.00,0.0064
566.00,0.0068
565.00,0.0072
564.00,0.0073
563.00,0.0073
562.00,0.0071
561.00,0.0069
560.00,0.0066
559.00,0.0063
558.00,0.0062
557.00,0.0062
556.00,0.0064
555.00,0.0068
554.00,0.0070
553.00,0.0070
552.00,0.0069
551.00,0.0069
550.00,0.0069
549.00,0.0071
548.00,0.0073
547.00,0.0076
546.00,0.0078
545.00,0.0077
544.00,0.0073
543.00,0.0071
542.00,0.0070
541.00,0.0069
540.00,0.0068
539.00,0.0068
538.00,0.0070
537.00,0.0073
536.00,0.0076
535.00,0.0079
534.00,0.0081
533.00,0.0081
532.00,0.0080
531.00,0.0078
530.00,0.0077
529.00,0.0078
528.00,0.0078
527.00,0.0078
526.00,0.0079
525.00,0.0080
524.00,0.0081
523.00,0.0083
522.00,0.0085
521.00,0.0085
520.00,0.0083
519.00,0.0078
518.00,0.0074
517.00,0.0073
516.00,0.0073
515.00,0.0074
514.00,0.0075
513.00,0.0076
512.00,0.0077
511.00,0.0078
510.00,0.0079
509.00,0.0076
508.00,0.0070
507.00,0.0064
506.00,0.0061
505.00,0.0061
504.00,0.0061
503.00,0.0061
502.00,0.0062
501.00,0.0067
500.00,0.0073
499.00,0.0074
498.00,0.0071
497.00,0.0062
496.00,0.0054
495.00,0.0050
494.00,0.0052
493.00,0.0060
492.00,0.0067
491.00,0.0070
490.00,0.0070
489.00,0.0067
488.00,0.0063
487.00,0.0058
486.00,0.0053
485.00,0.0053
484.00,0.0059
483.00,0.0069
482.00,0.0075
481.00,0.0077
480.00,0.0074
479.00,0.0069
478.00,0.0064
477.00,0.0060
476.00,0.0061
475.00,0.0067
474.00,0.0077
473.00,0.0088
472.00,0.0096
471.00,0.0101
470.00,0.0099
469.00,0.0092
468.00,0.0083
467.00,0.0076
466.00,0.0076
465.00,0.0081
464.00,0.0089
463.00,0.0099
462.00,0.0111
461.00,0.0123
460.00,0.0135
459.00,0.0139
458.00,0.0131
457.00,0.0115
456.00,0.0102
455.00,0.0096
454.00,0.0095
453.00,0.0096
452.00,0.0100
451.00,0.0108
450.00,0.0113
