Created as New Dataset,Sample 001 By Administrator Date Wednesday, September 10 2025
cm-1,A
4000.00,0.0009
3999.00,0.0009
3998.00,0.0008
3997.00,0.0008
3996.00,0.0008
3995.00,0.0008
3994.00,0.0008
3993.00,0.0009
3992.00,0.0009
3991.00,0.0009
3990.00,0.0009
3989.00,0.0008
3988.00,0.0008
3987.00,0.0008
3986.00,0.0007
3985.00,0.0007
3984.00,0.0006
3983.00,0.0006
3982.00,0.0006
3981.00,0.0006
3980.00,0.0007
3979.00,0.0007
3978.00,0.0007
3977.00,0.0007
3976.00,0.0007
3975.00,0.0007
3974.00,0.0007
3973.00,0.0006
3972.00,0.0006
3971.00,0.0006
3970.00,0.0006
3969.00,0.0006
3968.00,0.0006
3967.00,0.0006
3966.00,0.0006
3965.00,0.0005
3964.00,0.0006
3963.00,0.0006
3962.00,0.0006
3961.00,0.0006
3960.00,0.0006
3959.00,0.0006
3958.00,0.0005
3957.00,0.0005
3956.00,0.0005
3955.00,0.0005
3954.00,0.0005
3953.00,0.0005
3952.00,0.0005
3951.00,0.0005
3950.00,0.0005
3949.00,0.0005
3948.00,0.0005
3947.00,0.0005
3946.00,0.0005
3945.00,0.0006
3944.00,0.0006
3943.00,0.0006
3942.00,0.0006
3941.00,0.0006
3940.00,0.0006
3939.00,0.0006
3938.00,0.0006
3937.00,0.0007
3936.00,0.0007
3935.00,0.0007
3934.00,0.0007
3933.00,0.0007
3932.00,0.0006
3931.00,0.0006
3930.00,0.0006
3929.00,0.0005
3928.00,0.0005
3927.00,0.0005
3926.00,0.0005
3925.00,0.0005
3924.00,0.0006
3923.00,0.0006
3922.00,0.0006
3921.00,0.0006
3920.00,0.0006
3919.00,0.0006
3918.00,0.0006
3917.00,0.0006
3916.00,0.0006
3915.00,0.0006
3914.00,0.0006
3913.00,0.0007
3912.00,0.0007
3911.00,0.0007
3910.00,0.0007
3909.00,0.0007
3908.00,0.0007
3907.00,0.0006
3906.00,0.0006
3905.00,0.0006
3904.00,0.0005
3903.00,0.0005
3902.00,0.0006
3901.00,0.0006
3900.00,0.0006
3899.00,0.0006
3898.00,0.0006
3897.00,0.0006
3896.00,0.0006
3895.00,0.0007
3894.00,0.0007
3893.00,0.0006
3892.00,0.0006
3891.00,0.0006
3890.00,0.0006
3889.00,0.0006
3888.00,0.0006
3887.00,0.0006
3886.00,0.0006
3885.00,0.0006
3884.00,0.0006
3883.00,0.0006
3882.00,0.0006
3881.00,0.0006
3880.00,0.0006
3879.00,0.0006
3878.00,0.0006
3877.00,0.0006
3876.00,0.0006
3875.00,0.0006
3874.00,0.0006
3873.00,0.0006
3872.00,0.0006
3871.00,0.0006
3870.00,0.0005
3869.00,0.0005
3868.00,0.0005
3867.00,0.0006
3866.00,0.0006
3865.00,0.0006
3864.00,0.0006
3863.00,0.0006
3862.00,0.0006
3861.00,0.0006
3860.00,0.0006
3859.00,0.0006
3858.00,0.0006
3857.00,0.0006
3856.00,0.0006
3855.00,0.0006
3854.00,0.0006
3853.00,0.0006
3852.00,0.0006
3851.00,0.0006
3850.00,0.0006
3849.00,0.0005
3848.00,0.0005
3847.00,0.0006
3846.00,0.0006
3845.00,0.0006
3844.00,0.0006
3843.00,0.0005
3842.00,0.0005
3841.00,0.0006
3840.00,0.0006
3839.00,0.0006
3838.00,0.0006
3837.00,0.0006
3836.00,0.0006
3835.00,0.0006
3834.00,0.0006
3833.00,0.0007
3832.00,0.0007
3831.00,0.0006
3830.00,0.0006
3829.00,0.0006
3828.00,0.0006
3827.00,0.0006
3826.00,0.0006
3825.00,0.0006
3824.00,0.0007
3823.00,0.0007
3822.00,0.0007
3821.00,0.0007
3820.00,0.0007
3819.00,0.0007
3818.00,0.0007
3817.00,0.0007
3816.00,0.0006
3815.00,0.0006
3814.00,0.0006
3813.00,0.0006
3812.00,0.0005
3811.00,0.0005
3810.00,0.0005
3809.00,0.0005
3808.00,0.0005
3807.00,0.0006
3806.00,0.0006
3805.00,0.0006
3804.00,0.0007
3803.00,0.0007
3802.00,0.0007
3801.00,0.0007
3800.00,0.0007
3799.00,0.0006
3798.00,0.0006
3797.00,0.0006
3796.00,0.0006
3795.00,0.0006
3794.00,0.0006
3793.00,0.0006
3792.00,0.0006
3791.00,0.0006
3790.00,0.0006
3789.00,0.0006
3788.00,0.0005
3787.00,0.0005
3786.00,0.0005
3785.00,0.0005
3784.00,0.0005
3783.00,0.0005
3782.00,0.0005
3781.00,0.0006
3780.00,0.0006
3779.00,0.0006
3778.00,0.0006
3777.00,0.0006
3776.00,0.0006
3775.00,0.0006
3774.00,0.0007
3773.00,0.0007
3772.00,0.0007
3771.00,0.0007
3770.00,0.0007
3769.00,0.0007
3768.00,0.0007
3767.00,0.0007
3766.00,0.0007
3765.00,0.0007
3764.00,0.0007
3763.00,0.0007
3762.00,0.0007
3761.00,0.0007
3760.00,0.0007
3759.00,0.0007
3758.00,0.0007
3757.00,0.0007
3756.00,0.0007
3755.00,0.0007
3754.00,0.0007
3753.00,0.0008
3752.00,0.0007
3751.00,0.0007
3750.00,0.0006
3749.00,0.0006
3748.00,0.0007
3747.00,0.0007
3746.00,0.0008
3745.00,0.0008
3744.00,0.0008
3743.00,0.0008
3742.00,0.0007
3741.00,0.0006
3740.00,0.0006
3739.00,0.0006
3738.00,0.0006
3737.00,0.0006
3736.00,0.0005
3735.00,0.0005
3734.00,0.0005
3733.00,0.0005
3732.00,0.0005
3731.00,0.0005
3730.00,0.0005
3729.00,0.0005
3728.00,0.0004
3727.00,0.0004
3726.00,0.0004
3725.00,0.0004
3724.00,0.0004
3723.00,0.0004
3722.00,0.0004
3721.00,0.0004
3720.00,0.0004
3719.00,0.0004
3718.00,0.0004
3717.00,0.0005
3716.00,0.0005
3715.00,0.0005
3714.00,0.0005
3713.00,0.0006
3712.00,0.0005
3711.00,0.0005
3710.00,0.0005
3709.00,0.0005
3708.00,0.0005
3707.00,0.0005
3706.00,0.0004
3705.00,0.0004
3704.00,0.0003
3703.00,0.0003
3702.00,0.0003
3701.00,0.0003
3700.00,0.0003
3699.00,0.0003
3698.00,0.0002
3697.00,0.0002
3696.00,0.0003
3695.00,0.0003
3694.00,0.0004
3693.00,0.0004
3692.00,0.0005
3691.00,0.0005
3690.00,0.0004
3689.00,0.0003
3688.00,0.0003
3687.00,0.0004
3686.00,0.0004
3685.00,0.0004
3684.00,0.0004
3683.00,0.0003
3682.00,0.0003
3681.00,0.0003
3680.00,0.0004
3679.00,0.0004
3678.00,0.0004
3677.00,0.0004
3676.00,0.0003
3675.00,0.0003
3674.00,0.0003
3673.00,0.0003
3672.00,0.0003
3671.00,0.0003
3670.00,0.0003
3669.00,0.0003
3668.00,0.0003
3667.00,0.0003
3666.00,0.0003
3665.00,0.0003
3664.00,0.0003
3663.00,0.0003
3662.00,0.0004
3661.00,0.0004
3660.00,0.0004
3659.00,0.0004
3658.00,0.0004
3657.00,0.0003
3656.00,0.0003
3655.00,0.0003
3654.00,0.0003
3653.00,0.0003
3652.00,0.0004
3651.00,0.0004
3650.00,0.0005
3649.00,0.0005
3648.00,0.0004
3647.00,0.0004
3646.00,0.0003
3645.00,0.0003
3644.00,0.0002
3643.00,0.0002
3642.00,0.0003
3641.00,0.0003
3640.00,0.0003
3639.00,0.0004
3638.00,0.0004
3637.00,0.0005
3636.00,0.0005
3635.00,0.0005
3634.00,0.0005
3633.00,0.0004
3632.00,0.0004
3631.00,0.0004
3630.00,0.0004
3629.00,0.0004
3628.00,0.0004
3627.00,0.0004
3626.00,0.0004
3625.00,0.0004
3624.00,0.0004
3623.00,0.0004
3622.00,0.0004
3621.00,0.0004
3620.00,0.0004
3619.00,0.0004
3618.00,0.0004
3617.00,0.0004
3616.00,0.0004
3615.00,0.0004
3614.00,0.0004
3613.00,0.0004
3612.00,0.0004
3611.00,0.0005
3610.00,0.0005
3609.00,0.0005
3608.00,0.0005
3607.00,0.0005
3606.00,0.0005
3605.00,0.0005
3604.00,0.0005
3603.00,0.0005
3602.00,0.0005
3601.00,0.0005
3600.00,0.0005
3599.00,0.0005
3598.00,0.0004
3597.00,0.0004
3596.00,0.0004
3595.00,0.0004
3594.00,0.0004
3593.00,0.0005
3592.00,0.0006
3591.00,0.0006
3590.00,0.0006
3589.00,0.0006
3588.00,0.0006
3587.00,0.0006
3586.00,0.0007
3585.00,0.0007
3584.00,0.0007
3583.00,0.0007
3582.00,0.0006
3581.00,0.0006
3580.00,0.0006
3579.00,0.0006
3578.00,0.0006
3577.00,0.0006
3576.00,0.0006
3575.00,0.0007
3574.00,0.0007
3573.00,0.0008
3572.00,0.0008
3571.00,0.0008
3570.00,0.0008
3569.00,0.0008
3568.00,0.0008
3567.00,0.0008
3566.00,0.0008
3565.00,0.0008
3564.00,0.0009
3563.00,0.0009
3562.00,0.0009
3561.00,0.0009
3560.00,0.0010
3559.00,0.0010
3558.00,0.0010
3557.00,0.0011
3556.00,0.0011
3555.00,0.0011
3554.00,0.0010
3553.00,0.0010
3552.00,0.0011
3551.00,0.0011
3550.00,0.0011
3549.00,0.0012
3548.00,0.0012
3547.00,0.0012
3546.00,0.0012
3545.00,0.0012
3544.00,0.0012
3543.00,0.0013
3542.00,0.0013
3541.00,0.0014
3540.00,0.0014
3539.00,0.0014
3538.00,0.0015
3537.00,0.0015
3536.00,0.0015
3535.00,0.0016
3534.00,0.0015
3533.00,0.0015
3532.00,0.0015
3531.00,0.0015
3530.00,0.0015
3529.00,0.0015
3528.00,0.0015
3527.00,0.0016
3526.00,0.0016
3525.00,0.0016
3524.00,0.0015
3523.00,0.0015
3522.00,0.0015
3521.00,0.0016
3520.00,0.0016
3519.00,0.0016
3518.00,0.0017
3517.00,0.0017
3516.00,0.0017
3515.00,0.0018
3514.00,0.0018
3513.00,0.0018
3512.00,0.0019
3511.00,0.0019
3510.00,0.0019
3509.00,0.0018
3508.00,0.0018
3507.00,0.0019
3506.00,0.0019
3505.00,0.0019
3504.00,0.0019
3503.00,0.0019
3502.00,0.0019
3501.00,0.0020
3500.00,0.0020
3499.00,0.0020
3498.00,0.0020
3497.00,0.0021
3496.00,0.0021
3495.00,0.0021
3494.00,0.0021
3493.00,0.0022
3492.00,0.0022
3491.00,0.0023
3490.00,0.0023
3489.00,0.0023
3488.00,0.0023
3487.00,0.0023
3486.00,0.0023
3485.00,0.0023
3484.00,0.0023
3483.00,0.0023
3482.00,0.0023
3481.00,0.0023
3480.00,0.0023
3479.00,0.0023
3478.00,0.0023
3477.00,0.0023
3476.00,0.0024
3475.00,0.0024
3474.00,0.0024
3473.00,0.0024
3472.00,0.0024
3471.00,0.0024
3470.00,0.0025
3469.00,0.0025
3468.00,0.0025
3467.00,0.0026
3466.00,0.0026
3465.00,0.0026
3464.00,0.0025
3463.00,0.0026
3462.00,0.0026
3461.00,0.0027
3460.00,0.0027
3459.00,0.0027
3458.00,0.0027
3457.00,0.0027
3456.00,0.0027
3455.00,0.0027
3454.00,0.0027
3453.00,0.0027
3452.00,0.0027
3451.00,0.0027
3450.00,0.0027
3449.00,0.0027
3448.00,0.0027
3447.00,0.0027
3446.00,0.0028
3445.00,0.0028
3444.00,0.0028
3443.00,0.0028
3442.00,0.0029
3441.00,0.0030
3440.00,0.0030
3439.00,0.0030
3438.00,0.0031
3437.00,0.0030
3436.00,0.0030
3435.00,0.0030
3434.00,0.0030
3433.00,0.0030
3432.00,0.0030
3431.00,0.0031
3430.00,0.0031
3429.00,0.0031
3428.00,0.0031
3427.00,0.0031
3426.00,0.0032
3425.00,0.0032
3424.00,0.0032
3423.00,0.0032
3422.00,0.0032
3421.00,0.0031
3420.00,0.0031
3419.00,0.0032
3418.00,0.0032
3417.00,0.0032
3416.00,0.0032
3415.00,0.0032
3414.00,0.0033
3413.00,0.0033
3412.00,0.0033
3411.00,0.0034
3410.00,0.0033
3409.00,0.0033
3408.00,0.0033
3407.00,0.0033
3406.00,0.0033
3405.00,0.0033
3404.00,0.0033
3403.00,0.0033
3402.00,0.0033
3401.00,0.0032
3400.00,0.0032
3399.00,0.0033
3398.00,0.0033
3397.00,0.0033
3396.00,0.0033
3395.00,0.0033
3394.00,0.0033
3393.00,0.0033
3392.00,0.0033
3391.00,0.0033
3390.00,0.0034
3389.00,0.0034
3388.00,0.0034
3387.00,0.0034
3386.00,0.0033
3385.00,0.0033
3384.00,0.0034
3383.00,0.0034
3382.00,0.0034
3381.00,0.0034
3380.00,0.0034
3379.00,0.0034
3378.00,0.0034
3377.00,0.0034
3376.00,0.0034
3375.00,0.0034
3374.00,0.0034
3373.00,0.0034
3372.00,0.0035
3371.00,0.0035
3370.00,0.0035
3369.00,0.0035
3368.00,0.0035
3367.00,0.0035
3366.00,0.0035
3365.00,0.0034
3364.00,0.0034
3363.00,0.0034
3362.00,0.0034
3361.00,0.0033
3360.00,0.0033
3359.00,0.0033
3358.00,0.0033
3357.00,0.0034
3356.00,0.0034
3355.00,0.0034
3354.00,0.0034
3353.00,0.0034
3352.00,0.0034
3351.00,0.0034
3350.00,0.0034
3349.00,0.0034
3348.00,0.0034
3347.00,0.0034
3346.00,0.0034
3345.00,0.0034
3344.00,0.0034
3343.00,0.0034
3342.00,0.0034
3341.00,0.0034
3340.00,0.0033
3339.00,0.0033
3338.00,0.0033
3337.00,0.0033
3336.00,0.0033
3335.00,0.0033
3334.00,0.0033
3333.00,0.0033
3332.00,0.0033
3331.00,0.0033
3330.00,0.0033
3329.00,0.0033
3328.00,0.0032
3327.00,0.0033
3326.00,0.0033
3325.00,0.0033
3324.00,0.0033
3323.00,0.0033
3322.00,0.0033
3321.00,0.0032
3320.00,0.0032
3319.00,0.0032
3318.00,0.0032
3317.00,0.0032
3316.00,0.0032
3315.00,0.0032
3314.00,0.0032
3313.00,0.0031
3312.00,0.0031
3311.00,0.0031
3310.00,0.0032
3309.00,0.0032
3308.00,0.0032
3307.00,0.0032
3306.00,0.0032
3305.00,0.0032
3304.00,0.0032
3303.00,0.0032
3302.00,0.0032
3301.00,0.0032
3300.00,0.0031
3299.00,0.0031
3298.00,0.0031
3297.00,0.0031
3296.00,0.0032
3295.00,0.0032
3294.00,0.0032
3293.00,0.0032
3292.00,0.0031
3291.00,0.0031
3290.00,0.0030
3289.00,0.0030
3288.00,0.0030
3287.00,0.0030
3286.00,0.0030
3285.00,0.0030
3284.00,0.0031
3283.00,0.0031
3282.00,0.0031
3281.00,0.0030
3280.00,0.0030
3279.00,0.0030
3278.00,0.0030
3277.00,0.0029
3276.00,0.0030
3275.00,0.0030
3274.00,0.0030
3273.00,0.0030
3272.00,0.0030
3271.00,0.0030
3270.00,0.0029
3269.00,0.0029
3268.00,0.0029
3267.00,0.0029
3266.00,0.0029
3265.00,0.0029
3264.00,0.0029
3263.00,0.0029
3262.00,0.0029
3261.00,0.0029
3260.00,0.0028
3259.00,0.0028
3258.00,0.0028
3257.00,0.0028
3256.00,0.0028
3255.00,0.0028
3254.00,0.0028
3253.00,0.0027
3252.00,0.0027
3251.00,0.0027
3250.00,0.0027
3249.00,0.0027
3248.00,0.0027
3247.00,0.0027
3246.00,0.0027
3245.00,0.0027
3244.00,0.0027
3243.00,0.0027
3242.00,0.0027
3241.00,0.0027
3240.00,0.0027
3239.00,0.0027
3238.00,0.0027
3237.00,0.0027
3236.00,0.0028
3235.00,0.0028
3234.00,0.0028
3233.00,0.0028
3232.00,0.0028
3231.00,0.0028
3230.00,0.0028
3229.00,0.0028
3228.00,0.0028
3227.00,0.0029
3226.00,0.0029
3225.00,0.0029
3224.00,0.0029
3223.00,0.0029
3222.00,0.0029
3221.00,0.0029
3220.00,0.0029
3219.00,0.0029
3218.00,0.0030
3217.00,0.0030
3216.00,0.0030
3215.00,0.0031
3214.00,0.0031
3213.00,0.0031
3212.00,0.0031
3211.00,0.0031
3210.00,0.0031
3209.00,0.0032
3208.00,0.0032
3207.00,0.0032
3206.00,0.0033
3205.00,0.0033
3204.00,0.0032
3203.00,0.0032
3202.00,0.0032
3201.00,0.0032
3200.00,0.0032
3199.00,0.0032
3198.00,0.0032
3197.00,0.0032
3196.00,0.0031
3195.00,0.0031
3194.00,0.0031
3193.00,0.0031
3192.00,0.0031
3191.00,0.0031
3190.00,0.0032
3189.00,0.0032
3188.00,0.0032
3187.00,0.0031
3186.00,0.0031
3185.00,0.0031
3184.00,0.0031
3183.00,0.0031
3182.00,0.0031
3181.00,0.0030
3180.00,0.0030
3179.00,0.0030
3178.00,0.0029
3177.00,0.0028
3176.00,0.0028
3175.00,0.0028
3174.00,0.0028
3173.00,0.0028
3172.00,0.0028
3171.00,0.0028
3170.00,0.0028
3169.00,0.0028
3168.00,0.0028
3167.00,0.0028
3166.00,0.0029
3165.00,0.0029
3164.00,0.0029
3163.00,0.0029
3162.00,0.0029
3161.00,0.0029
3160.00,0.0029
3159.00,0.0029
3158.00,0.0028
3157.00,0.0028
3156.00,0.0029
3155.00,0.0029
3154.00,0.0029
3153.00,0.0029
3152.00,0.0029
3151.00,0.0028
3150.00,0.0028
3149.00,0.0028
3148.00,0.0028
3147.00,0.0028
3146.00,0.0028
3145.00,0.0028
3144.00,0.0028
3143.00,0.0028
3142.00,0.0028
3141.00,0.0028
3140.00,0.0027
3139.00,0.0027
3138.00,0.0027
3137.00,0.0027
3136.00,0.0027
3135.00,0.0027
3134.00,0.0028
3133.00,0.0027
3132.00,0.0027
3131.00,0.0027
3130.00,0.0026
3129.00,0.0026
3128.00,0.0026
3127.00,0.0025
3126.00,0.0025
3125.00,0.0025
3124.00,0.0025
3123.00,0.0024
3122.00,0.0024
3121.00,0.0024
3120.00,0.0024
3119.00,0.0024
3118.00,0.0024
3117.00,0.0024
3116.00,0.0024
3115.00,0.0024
3114.00,0.0023
3113.00,0.0023
3112.00,0.0023
3111.00,0.0023
3110.00,0.0023
3109.00,0.0023
3108.00,0.0023
3107.00,0.0023
3106.00,0.0022
3105.00,0.0022
3104.00,0.0022
3103.00,0.0022
3102.00,0.0022
3101.00,0.0022
3100.00,0.0022
3099.00,0.0022
3098.00,0.0022
3097.00,0.0023
3096.00,0.0023
3095.00,0.0023
3094.00,0.0023
3093.00,0.0023
3092.00,0.0022
3091.00,0.0022
3090.00,0.0022
3089.00,0.0022
3088.00,0.0022
3087.00,0.0022
3086.00,0.0022
3085.00,0.0022
3084.00,0.0022
3083.00,0.0022
3082.00,0.0022
3081.00,0.0022
3080.00,0.0022
3079.00,0.0022
3078.00,0.0022
3077.00,0.0022
3076.00,0.0022
3075.00,0.0022
3074.00,0.0022
3073.00,0.0022
3072.00,0.0022
3071.00,0.0022
3070.00,0.0022
3069.00,0.0023
3068.00,0.0023
3067.00,0.0023
3066.00,0.0024
3065.00,0.0024
3064.00,0.0025
3063.00,0.0025
3062.00,0.0025
3061.00,0.0025
3060.00,0.0025
3059.00,0.0025
3058.00,0.0025
3057.00,0.0025
3056.00,0.0025
3055.00,0.0025
3054.00,0.0025
3053.00,0.0025
3052.00,0.0026
3051.00,0.0026
3050.00,0.0026
3049.00,0.0026
3048.00,0.0027
3047.00,0.0027
3046.00,0.0027
3045.00,0.0027
3044.00,0.0027
3043.00,0.0028
3042.00,0.0028
3041.00,0.0028
3040.00,0.0029
3039.00,0.0029
3038.00,0.0030
3037.00,0.0030
3036.00,0.0030
3035.00,0.0030
3034.00,0.0030
3033.00,0.0030
3032.00,0.0031
3031.00,0.0031
3030.00,0.0032
3029.00,0.0032
3028.00,0.0033
3027.00,0.0034
3026.00,0.0035
3025.00,0.0035
3024.00,0.0036
3023.00,0.0037
3022.00,0.0037
3021.00,0.0038
3020.00,0.0038
3019.00,0.0039
3018.00,0.0040
3017.00,0.0041
3016.00,0.0042
3015.00,0.0043
3014.00,0.0044
3013.00,0.0045
3012.00,0.0046
3011.00,0.0048
3010.00,0.0049
3009.00,0.0051
3008.00,0.0052
3007.00,0.0054
3006.00,0.0056
3005.00,0.0057
3004.00,0.0059
3003.00,0.0061
3002.00,0.0064
3001.00,0.0066
3000.00,0.0069
2999.00,0.0073
2998.00,0.0076
2997.00,0.0079
2996.00,0.0083
2995.00,0.0086
2994.00,0.0091
2993.00,0.0095
2992.00,0.0100
2991.00,0.0106
2990.00,0.0113
2989.00,0.0120
2988.00,0.0128
2987.00,0.0137
2986.00,0.0148
2985.00,0.0159
2984.00,0.0172
2983.00,0.0186
2982.00,0.0202
2981.00,0.0219
2980.00,0.0239
2979.00,0.0262
2978.00,0.0287
2977.00,0.0316
2976.00,0.0349
2975.00,0.0386
2974.00,0.0429
2973.00,0.0477
2972.00,0.0531
2971.00,0.0592
2970.00,0.0659
2969.00,0.0733
2968.00,0.0812
2967.00,0.0896
2966.00,0.0982
2965.00,0.1068
2964.00,0.1151
2963.00,0.1227
2962.00,0.1293
2961.00,0.1349
2960.00,0.1396
2959.00,0.1439
2958.00,0.1483
2957.00,0.1534
2956.00,0.1596
2955.00,0.1672
2954.00,0.1760
2953.00,0.1854
2952.00,0.1944
2951.00,0.2018
2950.00,0.2061
2949.00,0.2063
2948.00,0.2016
2947.00,0.1924
2946.00,0.1797
2945.00,0.1650
2944.00,0.1503
2943.00,0.1369
2942.00,0.1260
2941.00,0.1179
2940.00,0.1128
2939.00,0.1103
2938.00,0.1102
2937.00,0.1122
2936.00,0.1161
2935.00,0.1217
2934.00,0.1289
2933.00,0.1376
2932.00,0.1476
2931.00,0.1586
2930.00,0.1704
2929.00,0.1826
2928.00,0.1949
2927.00,0.2069
2926.00,0.2184
2925.00,0.2295
2924.00,0.2403
2923.00,0.2510
2922.00,0.2616
2921.00,0.2720
2920.00,0.2814
2919.00,0.2889
2918.00,0.2934
2917.00,0.2939
2916.00,0.2900
2915.00,0.2824
2914.00,0.2720
2913.00,0.2601
2912.00,0.2478
2911.00,0.2361
2910.00,0.2252
2909.00,0.2153
2908.00,0.2061
2907.00,0.1974
2906.00,0.1890
2905.00,0.1807
2904.00,0.1726
2903.00,0.1646
2902.00,0.1568
2901.00,0.1492
2900.00,0.1421
2899.00,0.1354
2898.00,0.1293
2897.00,0.1239
2896.00,0.1191
2895.00,0.1152
2894.00,0.1120
2893.00,0.1095
2892.00,0.1078
2891.00,0.1068
2890.00,0.1064
2889.00,0.1065
2888.00,0.1071
2887.00,0.1081
2886.00,0.1094
2885.00,0.1112
2884.00,0.1134
2883.00,0.1162
2882.00,0.1196
2881.00,0.1232
2880.00,0.1269
2879.00,0.1300
2878.00,0.1322
2877.00,0.1332
2876.00,0.1330
2875.00,0.1321
2874.00,0.1312
2873.00,0.1307
2872.00,0.1311
2871.00,0.1325
2870.00,0.1347
2869.00,0.1371
2868.00,0.1388
2867.00,0.1389
2866.00,0.1363
2865.00,0.1307
2864.00,0.1222
2863.00,0.1118
2862.00,0.1008
2861.00,0.0903
2860.00,0.0812
2859.00,0.0738
2858.00,0.0681
2857.00,0.0640
2856.00,0.0611
2855.00,0.0593
2854.00,0.0583
2853.00,0.0582
2852.00,0.0587
2851.00,0.0600
2850.00,0.0621
2849.00,0.0649
2848.00,0.0686
2847.00,0.0732
2846.00,0.0787
2845.00,0.0851
2844.00,0.0923
2843.00,0.1001
2842.00,0.1080
2841.00,0.1156
2840.00,0.1220
2839.00,0.1262
2838.00,0.1274
2837.00,0.1249
2836.00,0.1188
2835.00,0.1097
2834.00,0.0986
2833.00,0.0870
2832.00,0.0758
2831.00,0.0659
2830.00,0.0575
2829.00,0.0506
2828.00,0.0450
2827.00,0.0405
2826.00,0.0369
2825.00,0.0339
2824.00,0.0314
2823.00,0.0293
2822.00,0.0276
2821.00,0.0261
2820.00,0.0248
2819.00,0.0237
2818.00,0.0227
2817.00,0.0219
2816.00,0.0212
2815.00,0.0205
2814.00,0.0199
2813.00,0.0193
2812.00,0.0187
2811.00,0.0181
2810.00,0.0175
2809.00,0.0169
2808.00,0.0163
2807.00,0.0156
2806.00,0.0149
2805.00,0.0142
2804.00,0.0135
2803.00,0.0129
2802.00,0.0123
2801.00,0.0118
2800.00,0.0114
2799.00,0.0111
2798.00,0.0108
2797.00,0.0106
2796.00,0.0103
2795.00,0.0101
2794.00,0.0098
2793.00,0.0095
2792.00,0.0093
2791.00,0.0090
2790.00,0.0087
2789.00,0.0083
2788.00,0.0080
2787.00,0.0077
2786.00,0.0075
2785.00,0.0072
2784.00,0.0070
2783.00,0.0069
2782.00,0.0067
2781.00,0.0065
2780.00,0.0063
2779.00,0.0062
2778.00,0.0060
2777.00,0.0059
2776.00,0.0057
2775.00,0.0056
2774.00,0.0055
2773.00,0.0055
2772.00,0.0054
2771.00,0.0054
2770.00,0.0054
2769.00,0.0053
2768.00,0.0053
2767.00,0.0053
2766.00,0.0052
2765.00,0.0052
2764.00,0.0052
2763.00,0.0052
2762.00,0.0051
2761.00,0.0051
2760.00,0.0050
2759.00,0.0050
2758.00,0.0050
2757.00,0.0050
2756.00,0.0049
2755.00,0.0049
2754.00,0.0049
2753.00,0.0048
2752.00,0.0048
2751.00,0.0048
2750.00,0.0048
2749.00,0.0048
2748.00,0.0049
2747.00,0.0049
2746.00,0.0050
2745.00,0.0050
2744.00,0.0051
2743.00,0.0052
2742.00,0.0053
2741.00,0.0054
2740.00,0.0055
2739.00,0.0057
2738.00,0.0059
2737.00,0.0060
2736.00,0.0062
2735.00,0.0064
2734.00,0.0065
2733.00,0.0067
2732.00,0.0069
2731.00,0.0071
2730.00,0.0074
2729.00,0.0077
2728.00,0.0080
2727.00,0.0084
2726.00,0.0087
2725.00,0.0090
2724.00,0.0091
2723.00,0.0091
2722.00,0.0090
2721.00,0.0088
2720.00,0.0085
2719.00,0.0081
2718.00,0.0078
2717.00,0.0075
2716.00,0.0071
2715.00,0.0068
2714.00,0.0065
2713.00,0.0063
2712.00,0.0060
2711.00,0.0058
2710.00,0.0056
2709.00,0.0054
2708.00,0.0052
2707.00,0.0051
2706.00,0.0050
2705.00,0.0048
2704.00,0.0047
2703.00,0.0046
2702.00,0.0046
2701.00,0.0045
2700.00,0.0044
2699.00,0.0043
2698.00,0.0042
2697.00,0.0042
2696.00,0.0041
2695.00,0.0041
2694.00,0.0041
2693.00,0.0041
2692.00,0.0042
2691.00,0.0042
2690.00,0.0042
2689.00,0.0042
2688.00,0.0042
2687.00,0.0042
2686.00,0.0042
2685.00,0.0042
2684.00,0.0042
2683.00,0.0042
2682.00,0.0042
2681.00,0.0042
2680.00,0.0042
2679.00,0.0042
2678.00,0.0043
2677.00,0.0043
2676.00,0.0044
2675.00,0.0044
2674.00,0.0044
2673.00,0.0043
2672.00,0.0043
2671.00,0.0042
2670.00,0.0042
2669.00,0.0042
2668.00,0.0042
2667.00,0.0042
2666.00,0.0043
2665.00,0.0043
2664.00,0.0044
2663.00,0.0045
2662.00,0.0046
2661.00,0.0046
2660.00,0.0046
2659.00,0.0046
2658.00,0.0046
2657.00,0.0046
2656.00,0.0046
2655.00,0.0045
2654.00,0.0045
2653.00,0.0044
2652.00,0.0043
2651.00,0.0042
2650.00,0.0042
2649.00,0.0041
2648.00,0.0041
2647.00,0.0040
2646.00,0.0040
2645.00,0.0040
2644.00,0.0039
2643.00,0.0039
2642.00,0.0038
2641.00,0.0038
2640.00,0.0037
2639.00,0.0037
2638.00,0.0037
2637.00,0.0037
2636.00,0.0037
2635.00,0.0036
2634.00,0.0036
2633.00,0.0037
2632.00,0.0037
2631.00,0.0037
2630.00,0.0037
2629.00,0.0037
2628.00,0.0037
2627.00,0.0038
2626.00,0.0038
2625.00,0.0039
2624.00,0.0039
2623.00,0.0040
2622.00,0.0040
2621.00,0.0039
2620.00,0.0039
2619.00,0.0040
2618.00,0.0040
2617.00,0.0040
2616.00,0.0041
2615.00,0.0040
2614.00,0.0039
2613.00,0.0038
2612.00,0.0038
2611.00,0.0037
2610.00,0.0037
2609.00,0.0036
2608.00,0.0036
2607.00,0.0035
2606.00,0.0034
2605.00,0.0033
2604.00,0.0032
2603.00,0.0032
2602.00,0.0031
2601.00,0.0031
2600.00,0.0031
2599.00,0.0031
2598.00,0.0031
2597.00,0.0032
2596.00,0.0033
2595.00,0.0033
2594.00,0.0034
2593.00,0.0034
2592.00,0.0033
2591.00,0.0033
2590.00,0.0033
2589.00,0.0034
2588.00,0.0035
2587.00,0.0036
2586.00,0.0038
2585.00,0.0039
2584.00,0.0040
2583.00,0.0040
2582.00,0.0040
2581.00,0.0039
2580.00,0.0039
2579.00,0.0038
2578.00,0.0037
2577.00,0.0036
2576.00,0.0034
2575.00,0.0033
2574.00,0.0032
2573.00,0.0031
2572.00,0.0030
2571.00,0.0030
2570.00,0.0029
2569.00,0.0028
2568.00,0.0027
2567.00,0.0027
2566.00,0.0026
2565.00,0.0025
2564.00,0.0025
2563.00,0.0024
2562.00,0.0024
2561.00,0.0024
2560.00,0.0023
2559.00,0.0023
2558.00,0.0022
2557.00,0.0022
2556.00,0.0021
2555.00,0.0021
2554.00,0.0021
2553.00,0.0021
2552.00,0.0021
2551.00,0.0021
2550.00,0.0020
2549.00,0.0020
2548.00,0.0019
2547.00,0.0018
2546.00,0.0017
2545.00,0.0017
2544.00,0.0017
2543.00,0.0017
2542.00,0.0017
2541.00,0.0017
2540.00,0.0016
2539.00,0.0015
2538.00,0.0015
2537.00,0.0015
2536.00,0.0015
2535.00,0.0015
2534.00,0.0015
2533.00,0.0014
2532.00,0.0014
2531.00,0.0013
2530.00,0.0012
2529.00,0.0012
2528.00,0.0012
2527.00,0.0013
2526.00,0.0013
2525.00,0.0013
2524.00,0.0012
2523.00,0.0012
2522.00,0.0011
2521.00,0.0011
2520.00,0.0010
2519.00,0.0010
2518.00,0.0010
2517.00,0.0010
2516.00,0.0010
2515.00,0.0009
2514.00,0.0009
2513.00,0.0008
2512.00,0.0009
2511.00,0.0009
2510.00,0.0009
2509.00,0.0009
2508.00,0.0010
2507.00,0.0010
2506.00,0.0009
2505.00,0.0009
2504.00,0.0009
2503.00,0.0008
2502.00,0.0007
2501.00,0.0007
2500.00,0.0007
2499.00,0.0007
2498.00,0.0008
2497.00,0.0009
2496.00,0.0009
2495.00,0.0010
2494.00,0.0010
2493.00,0.0010
2492.00,0.0010
2491.00,0.0010
2490.00,0.0010
2489.00,0.0010
2488.00,0.0009
2487.00,0.0009
2486.00,0.0009
2485.00,0.0008
2484.00,0.0008
2483.00,0.0008
2482.00,0.0008
2481.00,0.0008
2480.00,0.0008
2479.00,0.0008
2478.00,0.0008
2477.00,0.0008
2476.00,0.0007
2475.00,0.0006
2474.00,0.0006
2473.00,0.0007
2472.00,0.0007
2471.00,0.0007
2470.00,0.0008
2469.00,0.0008
2468.00,0.0008
2467.00,0.0008
2466.00,0.0008
2465.00,0.0008
2464.00,0.0008
2463.00,0.0008
2462.00,0.0008
2461.00,0.0008
2460.00,0.0008
2459.00,0.0008
2458.00,0.0008
2457.00,0.0009
2456.00,0.0010
2455.00,0.0011
2454.00,0.0011
2453.00,0.0011
2452.00,0.0011
2451.00,0.0011
2450.00,0.0010
2449.00,0.0009
2448.00,0.0009
2447.00,0.0009
2446.00,0.0009
2445.00,0.0009
2444.00,0.0010
2443.00,0.0010
2442.00,0.0009
2441.00,0.0009
2440.00,0.0008
2439.00,0.0008
2438.00,0.0007
2437.00,0.0008
2436.00,0.0009
2435.00,0.0009
2434.00,0.0010
2433.00,0.0010
2432.00,0.0010
2431.00,0.0011
2430.00,0.0011
2429.00,0.0010
2428.00,0.0010
2427.00,0.0010
2426.00,0.0011
2425.00,0.0011
2424.00,0.0011
2423.00,0.0011
2422.00,0.0011
2421.00,0.0011
2420.00,0.0010
2419.00,0.0010
2418.00,0.0009
2417.00,0.0009
2416.00,0.0009
2415.00,0.0009
2414.00,0.0009
2413.00,0.0009
2412.00,0.0008
2411.00,0.0008
2410.00,0.0009
2409.00,0.0008
2408.00,0.0008
2407.00,0.0008
2406.00,0.0007
2405.00,0.0006
2404.00,0.0006
2403.00,0.0006
2402.00,0.0007
2401.00,0.0007
2400.00,0.0006
2399.00,0.0006
2398.00,0.0006
2397.00,0.0006
2396.00,0.0006
2395.00,0.0006
2394.00,0.0006
2393.00,0.0006
2392.00,0.0006
2391.00,0.0006
2390.00,0.0006
2389.00,0.0006
2388.00,0.0006
2387.00,0.0006
2386.00,0.0006
2385.00,0.0005
2384.00,0.0005
2383.00,0.0004
2382.00,0.0003
2381.00,0.0002
2380.00,0.0001
2379.00,0.0001
2378.00,0.0001
2377.00,0.0001
2376.00,0.0001
2375.00,0.0001
2374.00,0.0001
2373.00,0.0002
2372.00,0.0002
2371.00,0.0002
2370.00,0.0002
2369.00,0.0001
2368.00,-0.0000
2367.00,-0.0001
2366.00,-0.0002
2365.00,-0.0002
2364.00,-0.0001
2363.00,-0.0001
2362.00,-0.0000
2361.00,0.0000
2360.00,0.0001
2359.00,0.0000
2358.00,0.0000
2357.00,0.0000
2356.00,0.0001
2355.00,0.0002
2354.00,0.0002
2353.00,0.0002
2352.00,0.0002
2351.00,0.0002
2350.00,0.0002
2349.00,0.0001
2348.00,0.0002
2347.00,0.0002
2346.00,0.0002
2345.00,0.0002
2344.00,0.0001
2343.00,0.0001
2342.00,0.0001
2341.00,0.0002
2340.00,0.0004
2339.00,0.0005
2338.00,0.0005
2337.00,0.0005
2336.00,0.0005
2335.00,0.0005
2334.00,0.0005
2333.00,0.0006
2332.00,0.0006
2331.00,0.0005
2330.00,0.0005
2329.00,0.0005
2328.00,0.0006
2327.00,0.0009
2326.00,0.0014
2325.00,0.0018
2324.00,0.0020
2323.00,0.0019
2322.00,0.0017
2321.00,0.0015
2320.00,0.0013
2319.00,0.0012
2318.00,0.0011
2317.00,0.0010
2316.00,0.0009
2315.00,0.0008
2314.00,0.0008
2313.00,0.0007
2312.00,0.0007
2311.00,0.0006
2310.00,0.0005
2309.00,0.0005
2308.00,0.0006
2307.00,0.0007
2306.00,0.0007
2305.00,0.0007
2304.00,0.0008
2303.00,0.0008
2302.00,0.0008
2301.00,0.0008
2300.00,0.0009
2299.00,0.0009
2298.00,0.0010
2297.00,0.0010
2296.00,0.0011
2295.00,0.0011
2294.00,0.0012
2293.00,0.0013
2292.00,0.0014
2291.00,0.0015
2290.00,0.0016
2289.00,0.0016
2288.00,0.0016
2287.00,0.0016
2286.00,0.0017
2285.00,0.0017
2284.00,0.0018
2283.00,0.0017
2282.00,0.0016
2281.00,0.0015
2280.00,0.0014
2279.00,0.0013
2278.00,0.0013
2277.00,0.0013
2276.00,0.0013
2275.00,0.0012
2274.00,0.0011
2273.00,0.0011
2272.00,0.0012
2271.00,0.0012
2270.00,0.0013
2269.00,0.0012
2268.00,0.0012
2267.00,0.0011
2266.00,0.0011
2265.00,0.0011
2264.00,0.0010
2263.00,0.0009
2262.00,0.0008
2261.00,0.0008
2260.00,0.0009
2259.00,0.0010
2258.00,0.0011
2257.00,0.0011
2256.00,0.0009
2255.00,0.0007
2254.00,0.0006
2253.00,0.0005
2252.00,0.0006
2251.00,0.0006
2250.00,0.0007
2249.00,0.0007
2248.00,0.0008
2247.00,0.0009
2246.00,0.0009
2245.00,0.0010
2244.00,0.0010
2243.00,0.0009
2242.00,0.0009
2241.00,0.0010
2240.00,0.0011
2239.00,0.0012
2238.00,0.0012
2237.00,0.0012
2236.00,0.0012
2235.00,0.0011
2234.00,0.0011
2233.00,0.0010
2232.00,0.0009
2231.00,0.0009
2230.00,0.0008
2229.00,0.0007
2228.00,0.0006
2227.00,0.0005
2226.00,0.0004
2225.00,0.0005
2224.00,0.0005
2223.00,0.0004
2222.00,0.0004
2221.00,0.0003
2220.00,0.0003
2219.00,0.0004
2218.00,0.0006
2217.00,0.0006
2216.00,0.0006
2215.00,0.0005
2214.00,0.0005
2213.00,0.0004
2212.00,0.0004
2211.00,0.0004
2210.00,0.0004
2209.00,0.0003
2208.00,0.0004
2207.00,0.0004
2206.00,0.0005
2205.00,0.0007
2204.00,0.0008
2203.00,0.0008
2202.00,0.0009
2201.00,0.0009
2200.00,0.0010
2199.00,0.0010
2198.00,0.0009
2197.00,0.0007
2196.00,0.0006
2195.00,0.0006
2194.00,0.0007
2193.00,0.0008
2192.00,0.0009
2191.00,0.0009
2190.00,0.0010
2189.00,0.0010
2188.00,0.0010
2187.00,0.0010
2186.00,0.0009
2185.00,0.0009
2184.00,0.0008
2183.00,0.0007
2182.00,0.0005
2181.00,0.0004
2180.00,0.0002
2179.00,0.0002
2178.00,0.0002
2177.00,0.0001
2176.00,0.0001
2175.00,0.0000
2174.00,0.0000
2173.00,0.0001
2172.00,0.0003
2171.00,0.0004
2170.00,0.0007
2169.00,0.0010
2168.00,0.0015
2167.00,0.0017
2166.00,0.0018
2165.00,0.0017
2164.00,0.0016
2163.00,0.0017
2162.00,0.0017
2161.00,0.0012
2160.00,0.0001
2159.00,-0.0014
2158.00,-0.0028
2157.00,-0.0034
2156.00,-0.0034
2155.00,-0.0031
2154.00,-0.0026
2153.00,-0.0021
2152.00,-0.0018
2151.00,-0.0016
2150.00,-0.0016
2149.00,-0.0017
2148.00,-0.0018
2147.00,-0.0019
2146.00,-0.0020
2145.00,-0.0020
2144.00,-0.0019
2143.00,-0.0017
2142.00,-0.0015
2141.00,-0.0014
2140.00,-0.0012
2139.00,-0.0011
2138.00,-0.0012
2137.00,-0.0013
2136.00,-0.0016
2135.00,-0.0018
2134.00,-0.0018
2133.00,-0.0018
2132.00,-0.0016
2131.00,-0.0014
2130.00,-0.0013
2129.00,-0.0012
2128.00,-0.0012
2127.00,-0.0013
2126.00,-0.0014
2125.00,-0.0013
2124.00,-0.0012
2123.00,-0.0009
2122.00,-0.0007
2121.00,-0.0005
2120.00,-0.0004
2119.00,-0.0004
2118.00,-0.0002
2117.00,0.0000
2116.00,0.0003
2115.00,0.0004
2114.00,0.0003
2113.00,0.0002
2112.00,0.0002
2111.00,0.0002
2110.00,0.0003
2109.00,0.0004
2108.00,0.0004
2107.00,0.0003
2106.00,0.0002
2105.00,0.0002
2104.00,0.0002
2103.00,0.0001
2102.00,-0.0000
2101.00,-0.0001
2100.00,-0.0001
2099.00,-0.0000
2098.00,0.0001
2097.00,0.0001
2096.00,0.0001
2095.00,-0.0001
2094.00,-0.0002
2093.00,-0.0003
2092.00,-0.0002
2091.00,-0.0001
2090.00,-0.0000
2089.00,0.0001
2088.00,0.0001
2087.00,0.0001
2086.00,0.0000
2085.00,-0.0001
2084.00,-0.0002
2083.00,-0.0002
2082.00,-0.0001
2081.00,-0.0001
2080.00,-0.0001
2079.00,-0.0001
2078.00,-0.0001
2077.00,-0.0002
2076.00,-0.0002
2075.00,-0.0001
2074.00,-0.0001
2073.00,0.0000
2072.00,0.0000
2071.00,-0.0000
2070.00,-0.0001
2069.00,-0.0003
2068.00,-0.0003
2067.00,-0.0003
2066.00,-0.0001
2065.00,-0.0000
2064.00,0.0000
2063.00,-0.0000
2062.00,-0.0001
2061.00,-0.0000
2060.00,0.0000
2059.00,0.0001
2058.00,0.0002
2057.00,0.0003
2056.00,0.0003
2055.00,0.0002
2054.00,0.0004
2053.00,0.0008
2052.00,0.0013
2051.00,0.0015
2050.00,0.0014
2049.00,0.0009
2048.00,0.0004
2047.00,0.0001
2046.00,-0.0000
2045.00,0.0000
2044.00,0.0000
2043.00,-0.0000
2042.00,-0.0001
2041.00,-0.0002
2040.00,-0.0003
2039.00,-0.0004
2038.00,-0.0005
2037.00,-0.0005
2036.00,-0.0004
2035.00,-0.0002
2034.00,-0.0001
2033.00,-0.0001
2032.00,-0.0002
2031.00,-0.0004
2030.00,-0.0006
2029.00,-0.0007
2028.00,-0.0007
2027.00,-0.0007
2026.00,-0.0009
2025.00,-0.0012
2024.00,-0.0015
2023.00,-0.0017
2022.00,-0.0017
2021.00,-0.0015
2020.00,-0.0013
2019.00,-0.0010
2018.00,-0.0008
2017.00,-0.0006
2016.00,-0.0006
2015.00,-0.0007
2014.00,-0.0009
2013.00,-0.0010
2012.00,-0.0010
2011.00,-0.0009
2010.00,-0.0010
2009.00,-0.0012
2008.00,-0.0015
2007.00,-0.0018
2006.00,-0.0019
2005.00,-0.0018
2004.00,-0.0015
2003.00,-0.0013
2002.00,-0.0012
2001.00,-0.0011
2000.00,-0.0009
1999.00,-0.0008
1998.00,-0.0008
1997.00,-0.0009
1996.00,-0.0010
1995.00,-0.0010
1994.00,-0.0009
1993.00,-0.0009
1992.00,-0.0010
1991.00,-0.0010
1990.00,-0.0009
1989.00,-0.0007
1988.00,-0.0005
1987.00,-0.0003
1986.00,-0.0002
1985.00,-0.0000
1984.00,0.0001
1983.00,0.0003
1982.00,0.0006
1981.00,0.0009
1980.00,0.0011
1979.00,0.0008
1978.00,0.0002
1977.00,-0.0004
1976.00,-0.0008
1975.00,-0.0010
1974.00,-0.0013
1973.00,-0.0017
1972.00,-0.0021
1971.00,-0.0024
1970.00,-0.0024
1969.00,-0.0022
1968.00,-0.0019
1967.00,-0.0018
1966.00,-0.0018
1965.00,-0.0019
1964.00,-0.0021
1963.00,-0.0022
1962.00,-0.0022
1961.00,-0.0020
1960.00,-0.0018
1959.00,-0.0017
1958.00,-0.0017
1957.00,-0.0017
1956.00,-0.0018
1955.00,-0.0019
1954.00,-0.0020
1953.00,-0.0020
1952.00,-0.0021
1951.00,-0.0022
1950.00,-0.0022
1949.00,-0.0022
1948.00,-0.0020
1947.00,-0.0020
1946.00,-0.0020
1945.00,-0.0021
1944.00,-0.0020
1943.00,-0.0019
1942.00,-0.0016
1941.00,-0.0015
1940.00,-0.0015
1939.00,-0.0015
1938.00,-0.0016
1937.00,-0.0015
1936.00,-0.0014
1935.00,-0.0014
1934.00,-0.0013
1933.00,-0.0012
1932.00,-0.0011
1931.00,-0.0009
1930.00,-0.0009
1929.00,-0.0008
1928.00,-0.0007
1927.00,-0.0007
1926.00,-0.0008
1925.00,-0.0009
1924.00,-0.0010
1923.00,-0.0009
1922.00,-0.0008
1921.00,-0.0006
1920.00,-0.0005
1919.00,-0.0004
1918.00,-0.0004
1917.00,-0.0004
1916.00,-0.0003
1915.00,-0.0002
1914.00,-0.0002
1913.00,-0.0003
1912.00,-0.0004
1911.00,-0.0004
1910.00,-0.0005
1909.00,-0.0005
1908.00,-0.0005
1907.00,-0.0005
1906.00,-0.0005
1905.00,-0.0005
1904.00,-0.0004
1903.00,-0.0003
1902.00,-0.0002
1901.00,-0.0002
1900.00,-0.0003
1899.00,-0.0003
1898.00,-0.0003
1897.00,-0.0003
1896.00,-0.0003
1895.00,-0.0003
1894.00,-0.0004
1893.00,-0.0004
1892.00,-0.0004
1891.00,-0.0004
1890.00,-0.0005
1889.00,-0.0005
1888.00,-0.0006
1887.00,-0.0006
1886.00,-0.0005
1885.00,-0.0005
1884.00,-0.0005
1883.00,-0.0004
1882.00,-0.0005
1881.00,-0.0004
1880.00,-0.0004
1879.00,-0.0003
1878.00,-0.0003
1877.00,-0.0003
1876.00,-0.0004
1875.00,-0.0004
1874.00,-0.0004
1873.00,-0.0004
1872.00,-0.0003
1871.00,-0.0003
1870.00,-0.0003
1869.00,-0.0002
1868.00,-0.0002
1867.00,-0.0003
1866.00,-0.0003
1865.00,-0.0003
1864.00,-0.0003
1863.00,-0.0003
1862.00,-0.0003
1861.00,-0.0003
1860.00,-0.0003
1859.00,-0.0003
1858.00,-0.0003
1857.00,-0.0003
1856.00,-0.0002
1855.00,-0.0002
1854.00,-0.0001
1853.00,-0.0000
1852.00,0.0000
1851.00,0.0000
1850.00,0.0000
1849.00,0.0000
1848.00,0.0000
1847.00,-0.0000
1846.00,-0.0001
1845.00,-0.0002
1844.00,-0.0002
1843.00,-0.0002
1842.00,-0.0001
1841.00,-0.0001
1840.00,-0.0000
1839.00,0.0001
1838.00,0.0001
1837.00,0.0001
1836.00,0.0001
1835.00,0.0001
1834.00,0.0001
1833.00,0.0000
1832.00,0.0001
1831.00,0.0001
1830.00,0.0001
1829.00,0.0002
1828.00,0.0003
1827.00,0.0002
1826.00,0.0002
1825.00,0.0002
1824.00,0.0002
1823.00,0.0002
1822.00,0.0002
1821.00,0.0002
1820.00,0.0001
1819.00,-0.0000
1818.00,-0.0002
1817.00,-0.0002
1816.00,-0.0001
1815.00,-0.0001
1814.00,-0.0000
1813.00,0.0000
1812.00,-0.0000
1811.00,-0.0000
1810.00,-0.0000
1809.00,0.0000
1808.00,0.0001
1807.00,0.0001
1806.00,0.0001
1805.00,0.0001
1804.00,0.0001
1803.00,0.0001
1802.00,0.0001
1801.00,0.0001
1800.00,0.0002
1799.00,0.0002
1798.00,0.0003
1797.00,0.0003
1796.00,0.0003
1795.00,0.0003
1794.00,0.0003
1793.00,0.0002
1792.00,0.0003
1791.00,0.0003
1790.00,0.0003
1789.00,0.0003
1788.00,0.0004
1787.00,0.0004
1786.00,0.0004
1785.00,0.0005
1784.00,0.0005
1783.00,0.0005
1782.00,0.0005
1781.00,0.0005
1780.00,0.0005
1779.00,0.0005
1778.00,0.0004
1777.00,0.0004
1776.00,0.0005
1775.00,0.0005
1774.00,0.0005
1773.00,0.0006
1772.00,0.0006
1771.00,0.0007
1770.00,0.0007
1769.00,0.0008
1768.00,0.0008
1767.00,0.0009
1766.00,0.0009
1765.00,0.0009
1764.00,0.0009
1763.00,0.0009
1762.00,0.0009
1761.00,0.0008
1760.00,0.0008
1759.00,0.0009
1758.00,0.0009
1757.00,0.0009
1756.00,0.0010
1755.00,0.0010
1754.00,0.0010
1753.00,0.0011
1752.00,0.0011
1751.00,0.0011
1750.00,0.0012
1749.00,0.0012
1748.00,0.0013
1747.00,0.0013
1746.00,0.0013
1745.00,0.0014
1744.00,0.0014
1743.00,0.0015
1742.00,0.0015
1741.00,0.0015
1740.00,0.0015
1739.00,0.0015
1738.00,0.0015
1737.00,0.0016
1736.00,0.0016
1735.00,0.0016
1734.00,0.0016
1733.00,0.0016
1732.00,0.0016
1731.00,0.0016
1730.00,0.0016
1729.00,0.0016
1728.00,0.0016
1727.00,0.0016
1726.00,0.0016
1725.00,0.0016
1724.00,0.0016
1723.00,0.0016
1722.00,0.0016
1721.00,0.0017
1720.00,0.0017
1719.00,0.0017
1718.00,0.0017
1717.00,0.0017
1716.00,0.0018
1715.00,0.0018
1714.00,0.0018
1713.00,0.0018
1712.00,0.0018
1711.00,0.0019
1710.00,0.0019
1709.00,0.0019
1708.00,0.0019
1707.00,0.0019
1706.00,0.0019
1705.00,0.0019
1704.00,0.0019
1703.00,0.0020
1702.00,0.0020
1701.00,0.0020
1700.00,0.0021
1699.00,0.0022
1698.00,0.0022
1697.00,0.0022
1696.00,0.0022
1695.00,0.0023
1694.00,0.0024
1693.00,0.0024
1692.00,0.0024
1691.00,0.0024
1690.00,0.0024
1689.00,0.0024
1688.00,0.0024
1687.00,0.0024
1686.00,0.0024
1685.00,0.0024
1684.00,0.0024
1683.00,0.0024
1682.00,0.0024
1681.00,0.0025
1680.00,0.0026
1679.00,0.0026
1678.00,0.0027
1677.00,0.0027
1676.00,0.0027
1675.00,0.0027
1674.00,0.0027
1673.00,0.0027
1672.00,0.0028
1671.00,0.0029
1670.00,0.0030
1669.00,0.0030
1668.00,0.0030
1667.00,0.0030
1666.00,0.0030
1665.00,0.0030
1664.00,0.0030
1663.00,0.0030
1662.00,0.0030
1661.00,0.0030
1660.00,0.0031
1659.00,0.0032
1658.00,0.0032
1657.00,0.0033
1656.00,0.0034
1655.00,0.0035
1654.00,0.0035
1653.00,0.0035
1652.00,0.0035
1651.00,0.0035
1650.00,0.0035
1649.00,0.0035
1648.00,0.0036
1647.00,0.0036
1646.00,0.0037
1645.00,0.0037
1644.00,0.0038
1643.00,0.0038
1642.00,0.0038
1641.00,0.0039
1640.00,0.0039
1639.00,0.0039
1638.00,0.0040
1637.00,0.0040
1636.00,0.0040
1635.00,0.0041
1634.00,0.0041
1633.00,0.0040
1632.00,0.0040
1631.00,0.0040
1630.00,0.0040
1629.00,0.0040
1628.00,0.0040
1627.00,0.0040
1626.00,0.0040
1625.00,0.0040
1624.00,0.0039
1623.00,0.0039
1622.00,0.0038
1621.00,0.0038
1620.00,0.0039
1619.00,0.0039
1618.00,0.0038
1617.00,0.0038
1616.00,0.0038
1615.00,0.0037
1614.00,0.0037
1613.00,0.0037
1612.00,0.0037
1611.00,0.0037
1610.00,0.0037
1609.00,0.0037
1608.00,0.0036
1607.00,0.0036
1606.00,0.0036
1605.00,0.0036
1604.00,0.0036
1603.00,0.0036
1602.00,0.0036
1601.00,0.0036
1600.00,0.0036
1599.00,0.0036
1598.00,0.0036
1597.00,0.0036
1596.00,0.0036
1595.00,0.0035
1594.00,0.0035
1593.00,0.0034
1592.00,0.0034
1591.00,0.0034
1590.00,0.0034
1589.00,0.0035
1588.00,0.0035
1587.00,0.0035
1586.00,0.0035
1585.00,0.0035
1584.00,0.0035
1583.00,0.0035
1582.00,0.0036
1581.00,0.0037
1580.00,0.0037
1579.00,0.0038
1578.00,0.0038
1577.00,0.0037
1576.00,0.0037
1575.00,0.0037
1574.00,0.0037
1573.00,0.0037
1572.00,0.0037
1571.00,0.0037
1570.00,0.0037
1569.00,0.0037
1568.00,0.0038
1567.00,0.0038
1566.00,0.0038
1565.00,0.0038
1564.00,0.0039
1563.00,0.0039
1562.00,0.0039
1561.00,0.0039
1560.00,0.0040
1559.00,0.0040
1558.00,0.0041
1557.00,0.0042
1556.00,0.0042
1555.00,0.0042
1554.00,0.0043
1553.00,0.0043
1552.00,0.0043
1551.00,0.0043
1550.00,0.0043
1549.00,0.0043
1548.00,0.0044
1547.00,0.0044
1546.00,0.0045
1545.00,0.0046
1544.00,0.0047
1543.00,0.0047
1542.00,0.0048
1541.00,0.0048
1540.00,0.0048
1539.00,0.0047
1538.00,0.0046
1537.00,0.0045
1536.00,0.0046
1535.00,0.0045
1534.00,0.0045
1533.00,0.0044
1532.00,0.0044
1531.00,0.0043
1530.00,0.0042
1529.00,0.0042
1528.00,0.0042
1527.00,0.0041
1526.00,0.0041
1525.00,0.0041
1524.00,0.0042
1523.00,0.0043
1522.00,0.0043
1521.00,0.0043
1520.00,0.0044
1519.00,0.0044
1518.00,0.0044
1517.00,0.0045
1516.00,0.0045
1515.00,0.0045
1514.00,0.0045
1513.00,0.0047
1512.00,0.0048
1511.00,0.0049
1510.00,0.0049
1509.00,0.0049
1508.00,0.0051
1507.00,0.0052
1506.00,0.0054
1505.00,0.0055
1504.00,0.0056
1503.00,0.0057
1502.00,0.0058
1501.00,0.0060
1500.00,0.0062
1499.00,0.0064
1498.00,0.0066
1497.00,0.0069
1496.00,0.0073
1495.00,0.0076
1494.00,0.0079
1493.00,0.0082
1492.00,0.0086
1491.00,0.0090
1490.00,0.0094
1489.00,0.0099
1488.00,0.0103
1487.00,0.0107
1486.00,0.0111
1485.00,0.0116
1484.00,0.0122
1483.00,0.0129
1482.00,0.0137
1481.00,0.0148
1480.00,0.0159
1479.00,0.0171
1478.00,0.0185
1477.00,0.0203
1476.00,0.0226
1475.00,0.0252
1474.00,0.0288
1473.00,0.0343
1472.00,0.0412
1471.00,0.0479
1470.00,0.0544
1469.00,0.0613
1468.00,0.0688
1467.00,0.0771
1466.00,0.0867
1465.00,0.0972
1464.00,0.1066
1463.00,0.1133
1462.00,0.1178
1461.00,0.1210
1460.00,0.1232
1459.00,0.1247
1458.00,0.1258
1457.00,0.1266
1456.00,0.1266
1455.00,0.1258
1454.00,0.1247
1453.00,0.1229
1452.00,0.1201
1451.00,0.1158
1450.00,0.1100
1449.00,0.1019
1448.00,0.0919
1447.00,0.0814
1446.00,0.0722
1445.00,0.0643
1444.00,0.0578
1443.00,0.0525
1442.00,0.0486
1441.00,0.0462
1440.00,0.0448
1439.00,0.0444
1438.00,0.0449
1437.00,0.0454
1436.00,0.0445
1435.00,0.0418
1434.00,0.0376
1433.00,0.0327
1432.00,0.0275
1431.00,0.0230
1430.00,0.0196
1429.00,0.0171
1428.00,0.0155
1427.00,0.0145
1426.00,0.0138
1425.00,0.0132
1424.00,0.0126
1423.00,0.0123
1422.00,0.0122
1421.00,0.0119
1420.00,0.0115
1419.00,0.0113
1418.00,0.0111
1417.00,0.0109
1416.00,0.0107
1415.00,0.0106
1414.00,0.0106
1413.00,0.0105
1412.00,0.0104
1411.00,0.0103
1410.00,0.0104
1409.00,0.0103
1408.00,0.0103
1407.00,0.0103
1406.00,0.0104
1405.00,0.0104
1404.00,0.0103
1403.00,0.0104
1402.00,0.0106
1401.00,0.0108
1400.00,0.0109
1399.00,0.0111
1398.00,0.0114
1397.00,0.0116
1396.00,0.0118
1395.00,0.0123
1394.00,0.0129
1393.00,0.0135
1392.00,0.0142
1391.00,0.0151
1390.00,0.0164
1389.00,0.0182
1388.00,0.0210
1387.00,0.0250
1386.00,0.0304
1385.00,0.0370
1384.00,0.0458
1383.00,0.0577
1382.00,0.0735
1381.00,0.0940
1380.00,0.1199
1379.00,0.1506
1378.00,0.1818
1377.00,0.2068
1376.00,0.2182
1375.00,0.2105
1374.00,0.1857
1373.00,0.1535
1372.00,0.1232
1371.00,0.0979
1370.00,0.0776
1369.00,0.0622
1368.00,0.0515
1367.00,0.0450
1366.00,0.0415
1365.00,0.0403
1364.00,0.0407
1363.00,0.0425
1362.00,0.0451
1361.00,0.0479
1360.00,0.0499
1359.00,0.0505
1358.00,0.0492
1357.00,0.0460
1356.00,0.0415
1355.00,0.0364
1354.00,0.0315
1353.00,0.0274
1352.00,0.0241
1351.00,0.0215
1350.00,0.0195
1349.00,0.0178
1348.00,0.0165
1347.00,0.0154
1346.00,0.0145
1345.00,0.0138
1344.00,0.0133
1343.00,0.0130
1342.00,0.0126
1341.00,0.0123
1340.00,0.0121
1339.00,0.0118
1338.00,0.0117
1337.00,0.0116
1336.00,0.0117
1335.00,0.0119
1334.00,0.0123
1333.00,0.0128
1332.00,0.0133
1331.00,0.0137
1330.00,0.0138
1329.00,0.0136
1328.00,0.0132
1327.00,0.0125
1326.00,0.0118
1325.00,0.0111
1324.00,0.0104
1323.00,0.0098
1322.00,0.0094
1321.00,0.0090
1320.00,0.0087
1319.00,0.0085
1318.00,0.0082
1317.00,0.0080
1316.00,0.0078
1315.00,0.0077
1314.00,0.0076
1313.00,0.0077
1312.00,0.0078
1311.00,0.0080
1310.00,0.0084
1309.00,0.0089
1308.00,0.0097
1307.00,0.0106
1306.00,0.0116
1305.00,0.0123
1304.00,0.0126
1303.00,0.0125
1302.00,0.0123
1301.00,0.0121
1300.00,0.0121
1299.00,0.0122
1298.00,0.0125
1297.00,0.0126
1296.00,0.0125
1295.00,0.0123
1294.00,0.0119
1293.00,0.0113
1292.00,0.0107
1291.00,0.0101
1290.00,0.0096
1289.00,0.0091
1288.00,0.0088
1287.00,0.0085
1286.00,0.0082
1285.00,0.0080
1284.00,0.0079
1283.00,0.0077
1282.00,0.0075
1281.00,0.0074
1280.00,0.0073
1279.00,0.0071
1278.00,0.0070
1277.00,0.0069
1276.00,0.0069
1275.00,0.0069
1274.00,0.0069
1273.00,0.0069
1272.00,0.0070
1271.00,0.0070
1270.00,0.0069
1269.00,0.0069
1268.00,0.0069
1267.00,0.0070
1266.00,0.0071
1265.00,0.0073
1264.00,0.0075
1263.00,0.0078
1262.00,0.0081
1261.00,0.0085
1260.00,0.0090
1259.00,0.0095
1258.00,0.0101
1257.00,0.0106
1256.00,0.0108
1255.00,0.0108
1254.00,0.0104
1253.00,0.0098
1252.00,0.0092
1251.00,0.0087
1250.00,0.0083
1249.00,0.0081
1248.00,0.0079
1247.00,0.0078
1246.00,0.0077
1245.00,0.0076
1244.00,0.0075
1243.00,0.0075
1242.00,0.0074
1241.00,0.0074
1240.00,0.0073
1239.00,0.0072
1238.00,0.0071
1237.00,0.0070
1236.00,0.0070
1235.00,0.0070
1234.00,0.0070
1233.00,0.0070
1232.00,0.0070
1231.00,0.0071
1230.00,0.0071
1229.00,0.0072
1228.00,0.0073
1227.00,0.0074
1226.00,0.0077
1225.00,0.0080
1224.00,0.0083
1223.00,0.0086
1222.00,0.0090
1221.00,0.0093
1220.00,0.0095
1219.00,0.0096
1218.00,0.0095
1217.00,0.0094
1216.00,0.0091
1215.00,0.0088
1214.00,0.0085
1213.00,0.0081
1212.00,0.0078
1211.00,0.0075
1210.00,0.0073
1209.00,0.0071
1208.00,0.0069
1207.00,0.0067
1206.00,0.0066
1205.00,0.0066
1204.00,0.0066
1203.00,0.0066
1202.00,0.0065
1201.00,0.0065
1200.00,0.0064
1199.00,0.0063
1198.00,0.0063
1197.00,0.0063
1196.00,0.0063
1195.00,0.0064
1194.00,0.0064
1193.00,0.0064
1192.00,0.0063
1191.00,0.0063
1190.00,0.0062
1189.00,0.0062
1188.00,0.0062
1187.00,0.0063
1186.00,0.0064
1185.00,0.0064
1184.00,0.0065
1183.00,0.0066
1182.00,0.0068
1181.00,0.0070
1180.00,0.0074
1179.00,0.0078
1178.00,0.0083
1177.00,0.0091
1176.00,0.0101
1175.00,0.0114
1174.00,0.0131
1173.00,0.0151
1172.00,0.0175
1171.00,0.0201
1170.00,0.0227
1169.00,0.0247
1168.00,0.0261
1167.00,0.0265
1166.00,0.0260
1165.00,0.0251
1164.00,0.0239
1163.00,0.0226
1162.00,0.0215
1161.00,0.0205
1160.00,0.0198
1159.00,0.0192
1158.00,0.0188
1157.00,0.0185
1156.00,0.0183
1155.00,0.0182
1154.00,0.0181
1153.00,0.0180
1152.00,0.0177
1151.00,0.0172
1150.00,0.0164
1149.00,0.0155
1148.00,0.0145
1147.00,0.0136
1146.00,0.0128
1145.00,0.0120
1144.00,0.0113
1143.00,0.0106
1142.00,0.0100
1141.00,0.0094
1140.00,0.0090
1139.00,0.0086
1138.00,0.0082
1137.00,0.0079
1136.00,0.0076
1135.00,0.0074
1134.00,0.0072
1133.00,0.0070
1132.00,0.0069
1131.00,0.0068
1130.00,0.0069
1129.00,0.0070
1128.00,0.0071
1127.00,0.0073
1126.00,0.0074
1125.00,0.0074
1124.00,0.0074
1123.00,0.0075
1122.00,0.0075
1121.00,0.0075
1120.00,0.0075
1119.00,0.0075
1118.00,0.0075
1117.00,0.0076
1116.00,0.0077
1115.00,0.0078
1114.00,0.0080
1113.00,0.0082
1112.00,0.0083
1111.00,0.0086
1110.00,0.0090
1109.00,0.0095
1108.00,0.0101
1107.00,0.0109
1106.00,0.0117
1105.00,0.0125
1104.00,0.0131
1103.00,0.0134
1102.00,0.0134
1101.00,0.0131
1100.00,0.0125
1099.00,0.0118
1098.00,0.0111
1097.00,0.0104
1096.00,0.0098
1095.00,0.0093
1094.00,0.0089
1093.00,0.0085
1092.00,0.0083
1091.00,0.0081
1090.00,0.0079
1089.00,0.0077
1088.00,0.0074
1087.00,0.0072
1086.00,0.0071
1085.00,0.0070
1084.00,0.0070
1083.00,0.0069
1082.00,0.0068
1081.00,0.0067
1080.00,0.0066
1079.00,0.0066
1078.00,0.0065
1077.00,0.0064
1076.00,0.0063
1075.00,0.0062
1074.00,0.0062
1073.00,0.0063
1072.00,0.0064
1071.00,0.0065
1070.00,0.0065
1069.00,0.0065
1068.00,0.0065
1067.00,0.0064
1066.00,0.0063
1065.00,0.0062
1064.00,0.0061
1063.00,0.0062
1062.00,0.0064
1061.00,0.0065
1060.00,0.0067
1059.00,0.0068
1058.00,0.0068
1057.00,0.0068
1056.00,0.0067
1055.00,0.0067
1054.00,0.0066
1053.00,0.0066
1052.00,0.0067
1051.00,0.0069
1050.00,0.0071
1049.00,0.0072
1048.00,0.0074
1047.00,0.0076
1046.00,0.0077
1045.00,0.0078
1044.00,0.0078
1043.00,0.0078
1042.00,0.0078
1041.00,0.0077
1040.00,0.0076
1039.00,0.0076
1038.00,0.0075
1037.00,0.0075
1036.00,0.0076
1035.00,0.0076
1034.00,0.0076
1033.00,0.0076
1032.00,0.0075
1031.00,0.0075
1030.00,0.0074
1029.00,0.0073
1028.00,0.0073
1027.00,0.0072
1026.00,0.0071
1025.00,0.0071
1024.00,0.0071
1023.00,0.0072
1022.00,0.0072
1021.00,0.0073
1020.00,0.0074
1019.00,0.0074
1018.00,0.0076
1017.00,0.0078
1016.00,0.0080
1015.00,0.0083
1014.00,0.0085
1013.00,0.0087
1012.00,0.0090
1011.00,0.0093
1010.00,0.0097
1009.00,0.0100
1008.00,0.0105
1007.00,0.0111
1006.00,0.0119
1005.00,0.0129
1004.00,0.0142
1003.00,0.0159
1002.00,0.0182
1001.00,0.0210
1000.00,0.0238
999.00,0.0261
998.00,0.0272
997.00,0.0266
996.00,0.0244
995.00,0.0214
994.00,0.0183
993.00,0.0156
992.00,0.0135
991.00,0.0120
990.00,0.0110
989.00,0.0102
988.00,0.0097
987.00,0.0095
986.00,0.0095
985.00,0.0097
984.00,0.0101
983.00,0.0107
982.00,0.0117
981.00,0.0132
980.00,0.0153
979.00,0.0180
978.00,0.0213
977.00,0.0250
976.00,0.0289
975.00,0.0323
974.00,0.0347
973.00,0.0353
972.00,0.0339
971.00,0.0308
970.00,0.0266
969.00,0.0224
968.00,0.0188
967.00,0.0160
966.00,0.0140
965.00,0.0125
964.00,0.0113
963.00,0.0105
962.00,0.0099
961.00,0.0094
960.00,0.0090
959.00,0.0087
958.00,0.0084
957.00,0.0082
956.00,0.0079
955.00,0.0077
954.00,0.0075
953.00,0.0073
952.00,0.0072
951.00,0.0071
950.00,0.0071
949.00,0.0071
948.00,0.0072
947.00,0.0074
946.00,0.0077
945.00,0.0081
944.00,0.0084
943.00,0.0088
942.00,0.0091
941.00,0.0093
940.00,0.0093
939.00,0.0090
938.00,0.0085
937.00,0.0079
936.00,0.0075
935.00,0.0071
934.00,0.0068
933.00,0.0065
932.00,0.0063
931.00,0.0061
930.00,0.0060
929.00,0.0060
928.00,0.0059
927.00,0.0059
926.00,0.0059
925.00,0.0059
924.00,0.0060
923.00,0.0061
922.00,0.0062
921.00,0.0063
920.00,0.0064
919.00,0.0065
918.00,0.0066
917.00,0.0067
916.00,0.0068
915.00,0.0069
914.00,0.0070
913.00,0.0070
912.00,0.0070
911.00,0.0071
910.00,0.0072
909.00,0.0075
908.00,0.0078
907.00,0.0083
906.00,0.0091
905.00,0.0102
904.00,0.0118
903.00,0.0138
902.00,0.0160
901.00,0.0182
900.00,0.0198
899.00,0.0202
898.00,0.0194
897.00,0.0177
896.00,0.0154
895.00,0.0132
894.00,0.0114
893.00,0.0099
892.00,0.0089
891.00,0.0082
890.00,0.0077
889.00,0.0074
888.00,0.0071
887.00,0.0070
886.00,0.0069
885.00,0.0069
884.00,0.0069
883.00,0.0068
882.00,0.0068
881.00,0.0067
880.00,0.0067
879.00,0.0067
878.00,0.0067
877.00,0.0068
876.00,0.0068
875.00,0.0067
874.00,0.0066
873.00,0.0065
872.00,0.0065
871.00,0.0065
870.00,0.0066
869.00,0.0067
868.00,0.0068
867.00,0.0070
866.00,0.0072
865.00,0.0073
864.00,0.0073
863.00,0.0074
862.00,0.0075
861.00,0.0076
860.00,0.0077
859.00,0.0079
858.00,0.0080
857.00,0.0082
856.00,0.0082
855.00,0.0083
854.00,0.0084
853.00,0.0086
852.00,0.0088
851.00,0.0090
850.00,0.0095
849.00,0.0100
848.00,0.0109
847.00,0.0120
846.00,0.0137
845.00,0.0161
844.00,0.0194
843.00,0.0229
842.00,0.0255
841.00,0.0259
840.00,0.0242
839.00,0.0210
838.00,0.0176
837.00,0.0149
836.00,0.0132
835.00,0.0121
834.00,0.0115
833.00,0.0110
832.00,0.0107
831.00,0.0104
830.00,0.0102
829.00,0.0100
828.00,0.0098
827.00,0.0097
826.00,0.0097
825.00,0.0098
824.00,0.0098
823.00,0.0097
822.00,0.0096
821.00,0.0095
820.00,0.0096
819.00,0.0100
818.00,0.0105
817.00,0.0112
816.00,0.0121
815.00,0.0134
814.00,0.0150
813.00,0.0169
812.00,0.0191
811.00,0.0210
810.00,0.0224
809.00,0.0230
808.00,0.0228
807.00,0.0217
806.00,0.0201
805.00,0.0182
804.00,0.0162
803.00,0.0145
802.00,0.0131
801.00,0.0120
800.00,0.0112
799.00,0.0105
798.00,0.0100
797.00,0.0095
796.00,0.0092
795.00,0.0090
794.00,0.0088
793.00,0.0085
792.00,0.0082
791.00,0.0079
790.00,0.0078
789.00,0.0077
788.00,0.0075
787.00,0.0073
786.00,0.0071
785.00,0.0068
784.00,0.0067
783.00,0.0065
782.00,0.0063
781.00,0.0059
780.00,0.0056
779.00,0.0055
778.00,0.0055
777.00,0.0057
776.00,0.0059
775.00,0.0062
774.00,0.0065
773.00,0.0066
772.00,0.0067
771.00,0.0068
770.00,0.0068
769.00,0.0068
768.00,0.0068
767.00,0.0068
766.00,0.0067
765.00,0.0065
764.00,0.0063
763.00,0.0061
762.00,0.0059
761.00,0.0058
760.00,0.0057
759.00,0.0055
758.00,0.0054
757.00,0.0052
756.00,0.0050
755.00,0.0048
754.00,0.0046
753.00,0.0045
752.00,0.0045
751.00,0.0045
750.00,0.0046
749.00,0.0048
748.00,0.0049
747.00,0.0050
746.00,0.0050
745.00,0.0050
744.00,0.0051
743.00,0.0051
742.00,0.0051
741.00,0.0050
740.00,0.0050
739.00,0.0051
738.00,0.0053
737.00,0.0056
736.00,0.0058
735.00,0.0059
734.00,0.0061
733.00,0.0062
732.00,0.0062
731.00,0.0061
730.00,0.0059
729.00,0.0058
728.00,0.0057
727.00,0.0057
726.00,0.0058
725.00,0.0059
724.00,0.0060
723.00,0.0060
722.00,0.0061
721.00,0.0060
720.00,0.0060
719.00,0.0058
718.00,0.0056
717.00,0.0054
716.00,0.0053
715.00,0.0054
714.00,0.0055
713.00,0.0054
712.00,0.0054
711.00,0.0053
710.00,0.0053
709.00,0.0053
708.00,0.0053
707.00,0.0053
706.00,0.0053
705.00,0.0053
704.00,0.0052
703.00,0.0050
702.00,0.0047
701.00,0.0046
700.00,0.0047
699.00,0.0047
698.00,0.0047
697.00,0.0045
696.00,0.0043
695.00,0.0043
694.00,0.0044
693.00,0.0045
692.00,0.0046
691.00,0.0047
690.00,0.0048
689.00,0.0048
688.00,0.0047
687.00,0.0046
686.00,0.0044
685.00,0.0042
684.00,0.0040
683.00,0.0041
682.00,0.0042
681.00,0.0045
680.00,0.0046
679.00,0.0047
678.00,0.0047
677.00,0.0047
676.00,0.0046
675.00,0.0045
674.00,0.0044
673.00,0.0042
672.00,0.0042
671.00,0.0043
670.00,0.0047
669.00,0.0052
668.00,0.0055
667.00,0.0057
666.00,0.0054
665.00,0.0050
664.00,0.0048
663.00,0.0047
662.00,0.0048
661.00,0.0049
660.00,0.0049
659.00,0.0049
658.00,0.0048
657.00,0.0047
656.00,0.0046
655.00,0.0045
654.00,0.0042
653.00,0.0040
652.00,0.0040
651.00,0.0041
650.00,0.0043
649.00,0.0046
648.00,0.0048
647.00,0.0048
646.00,0.0048
645.00,0.0049
644.00,0.0049
643.00,0.0049
642.00,0.0048
641.00,0.0048
640.00,0.0048
639.00,0.0049
638.00,0.0049
637.00,0.0048
636.00,0.0047
635.00,0.0046
634.00,0.0045
633.00,0.0044
632.00,0.0043
631.00,0.0042
630.00,0.0042
629.00,0.0043
628.00,0.0045
627.00,0.0047
626.00,0.0049
625.00,0.0050
624.00,0.0049
623.00,0.0049
622.00,0.0049
621.00,0.0048
620.00,0.0046
619.00,0.0046
618.00,0.0047
617.00,0.0049
616.00,0.0049
615.00,0.0049
614.00,0.0048
613.00,0.0049
612.00,0.0049
611.00,0.0048
610.00,0.0048
609.00,0.0050
608.00,0.0053
607.00,0.0055
606.00,0.0055
605.00,0.0054
604.00,0.0053
603.00,0.0054
602.00,0.0054
601.00,0.0055
600.00,0.0054
599.00,0.0052
598.00,0.0049
597.00,0.0046
596.00,0.0046
595.00,0.0048
594.00,0.0052
593.00,0.0054
592.00,0.0054
591.00,0.0052
590.00,0.0050
589.00,0.0049
588.00,0.0050
587.00,0.0053
586.00,0.0056
585.00,0.0057
584.00,0.0055
583.00,0.0051
582.00,0.0046
581.00,0.0045
580.00,0.0047
579.00,0.0051
578.00,0.0055
577.00,0.0056
576.00,0.0054
575.00,0.0051
574.00,0.0050
573.00,0.0051
572.00,0.0051
571.00,0.0050
570.00,0.0049
569.00,0.0049
568.00,0.0052
567.00,0.0055
566.00,0.0057
565.00,0.0057
564.00,0.0056
563.00,0.0056
562.00,0.0056
561.00,0.0055
560.00,0.0053
559.00,0.0051
558.00,0.0051
557.00,0.0052
556.00,0.0053
555.00,0.0054
554.00,0.0054
553.00,0.0054
552.00,0.0054
551.00,0.0055
550.00,0.0055
549.00,0.0056
548.00,0.0056
547.00,0.0058
546.00,0.0060
545.00,0.0061
544.00,0.0059
543.00,0.0057
542.00,0.0057
541.00,0.0058
540.00,0.0060
539.00,0.0062
538.00,0.0063
537.00,0.0065
536.00,0.0066
535.00,0.0066
534.00,0.0067
533.00,0.0069
532.00,0.0071
531.00,0.0074
530.00,0.0077
529.00,0.0081
528.00,0.0085
527.00,0.0088
526.00,0.0090
525.00,0.0091
524.00,0.0088
523.00,0.0081
522.00,0.0070
521.00,0.0061
520.00,0.0056
519.00,0.0057
518.00,0.0059
517.00,0.0061
516.00,0.0061
515.00,0.0063
514.00,0.0067
513.00,0.0070
512.00,0.0070
511.00,0.0067
510.00,0.0061
509.00,0.0057
508.00,0.0058
507.00,0.0061
506.00,0.0062
505.00,0.0058
504.00,0.0051
503.00,0.0044
502.00,0.0040
501.00,0.0039
500.00,0.0042
499.00,0.0049
498.00,0.0057
497.00,0.0063
496.00,0.0066
495.00,0.0065
494.00,0.0062
493.00,0.0059
492.00,0.0058
491.00,0.0058
490.00,0.0058
489.00,0.0059
488.00,0.0061
487.00,0.0063
486.00,0.0064
485.00,0.0063
484.00,0.0063
483.00,0.0066
482.00,0.0072
481.00,0.0075
480.00,0.0074
479.00,0.0073
478.00,0.0073
477.00,0.0076
476.00,0.0079
475.00,0.0078
474.00,0.0074
473.00,0.0068
472.00,0.0066
471.00,0.0072
470.00,0.0084
469.00,0.0098
468.00,0.0107
467.00,0.0110
466.00,0.0109
465.00,0.0109
464.00,0.0113
463.00,0.0121
462.00,0.0132
461.00,0.0144
460.00,0.0158
459.00,0.0172
458.00,0.0177
457.00,0.0166
456.00,0.0144
455.00,0.0122
454.00,0.0111
453.00,0.0111
452.00,0.0118
451.00,0.0124
450.00,0.0123
