Created as New Dataset,Sample 140 By Administrator Date Wednesday, September 10 2025
cm-1,A
4000.00,0.0010
3999.00,0.0010
3998.00,0.0010
3997.00,0.0009
3996.00,0.0009
3995.00,0.0009
3994.00,0.0009
3993.00,0.0009
3992.00,0.0009
3991.00,0.0009
3990.00,0.0009
3989.00,0.0009
3988.00,0.0009
3987.00,0.0008
3986.00,0.0008
3985.00,0.0008
3984.00,0.0008
3983.00,0.0008
3982.00,0.0007
3981.00,0.0007
3980.00,0.0007
3979.00,0.0007
3978.00,0.0008
3977.00,0.0007
3976.00,0.0007
3975.00,0.0007
3974.00,0.0006
3973.00,0.0006
3972.00,0.0007
3971.00,0.0007
3970.00,0.0007
3969.00,0.0007
3968.00,0.0007
3967.00,0.0007
3966.00,0.0007
3965.00,0.0007
3964.00,0.0007
3963.00,0.0007
3962.00,0.0007
3961.00,0.0007
3960.00,0.0007
3959.00,0.0007
3958.00,0.0007
3957.00,0.0007
3956.00,0.0007
3955.00,0.0007
3954.00,0.0007
3953.00,0.0007
3952.00,0.0007
3951.00,0.0007
3950.00,0.0007
3949.00,0.0007
3948.00,0.0006
3947.00,0.0006
3946.00,0.0006
3945.00,0.0006
3944.00,0.0006
3943.00,0.0006
3942.00,0.0007
3941.00,0.0007
3940.00,0.0007
3939.00,0.0007
3938.00,0.0007
3937.00,0.0007
3936.00,0.0007
3935.00,0.0007
3934.00,0.0007
3933.00,0.0007
3932.00,0.0007
3931.00,0.0007
3930.00,0.0007
3929.00,0.0007
3928.00,0.0007
3927.00,0.0007
3926.00,0.0007
3925.00,0.0007
3924.00,0.0007
3923.00,0.0007
3922.00,0.0007
3921.00,0.0007
3920.00,0.0007
3919.00,0.0007
3918.00,0.0007
3917.00,0.0007
3916.00,0.0007
3915.00,0.0007
3914.00,0.0007
3913.00,0.0007
3912.00,0.0007
3911.00,0.0007
3910.00,0.0007
3909.00,0.0006
3908.00,0.0006
3907.00,0.0006
3906.00,0.0006
3905.00,0.0007
3904.00,0.0007
3903.00,0.0006
3902.00,0.0006
3901.00,0.0006
3900.00,0.0006
3899.00,0.0006
3898.00,0.0006
3897.00,0.0006
3896.00,0.0006
3895.00,0.0006
3894.00,0.0006
3893.00,0.0006
3892.00,0.0006
3891.00,0.0006
3890.00,0.0006
3889.00,0.0006
3888.00,0.0007
3887.00,0.0006
3886.00,0.0006
3885.00,0.0006
3884.00,0.0005
3883.00,0.0005
3882.00,0.0005
3881.00,0.0006
3880.00,0.0006
3879.00,0.0005
3878.00,0.0005
3877.00,0.0005
3876.00,0.0005
3875.00,0.0006
3874.00,0.0007
3873.00,0.0007
3872.00,0.0007
3871.00,0.0007
3870.00,0.0006
3869.00,0.0006
3868.00,0.0006
3867.00,0.0006
3866.00,0.0006
3865.00,0.0005
3864.00,0.0005
3863.00,0.0005
3862.00,0.0005
3861.00,0.0005
3860.00,0.0005
3859.00,0.0005
3858.00,0.0005
3857.00,0.0005
3856.00,0.0005
3855.00,0.0006
3854.00,0.0007
3853.00,0.0007
3852.00,0.0007
3851.00,0.0007
3850.00,0.0006
3849.00,0.0006
3848.00,0.0006
3847.00,0.0005
3846.00,0.0005
3845.00,0.0006
3844.00,0.0006
3843.00,0.0006
3842.00,0.0006
3841.00,0.0006
3840.00,0.0006
3839.00,0.0006
3838.00,0.0006
3837.00,0.0006
3836.00,0.0006
3835.00,0.0006
3834.00,0.0006
3833.00,0.0006
3832.00,0.0005
3831.00,0.0005
3830.00,0.0005
3829.00,0.0006
3828.00,0.0006
3827.00,0.0007
3826.00,0.0007
3825.00,0.0006
3824.00,0.0006
3823.00,0.0006
3822.00,0.0006
3821.00,0.0006
3820.00,0.0006
3819.00,0.0006
3818.00,0.0007
3817.00,0.0007
3816.00,0.0007
3815.00,0.0007
3814.00,0.0007
3813.00,0.0007
3812.00,0.0007
3811.00,0.0007
3810.00,0.0007
3809.00,0.0007
3808.00,0.0007
3807.00,0.0006
3806.00,0.0006
3805.00,0.0006
3804.00,0.0006
3803.00,0.0006
3802.00,0.0006
3801.00,0.0006
3800.00,0.0006
3799.00,0.0006
3798.00,0.0005
3797.00,0.0005
3796.00,0.0006
3795.00,0.0006
3794.00,0.0006
3793.00,0.0007
3792.00,0.0007
3791.00,0.0007
3790.00,0.0007
3789.00,0.0006
3788.00,0.0006
3787.00,0.0006
3786.00,0.0005
3785.00,0.0006
3784.00,0.0006
3783.00,0.0006
3782.00,0.0006
3781.00,0.0006
3780.00,0.0006
3779.00,0.0007
3778.00,0.0007
3777.00,0.0007
3776.00,0.0007
3775.00,0.0007
3774.00,0.0007
3773.00,0.0007
3772.00,0.0008
3771.00,0.0008
3770.00,0.0007
3769.00,0.0007
3768.00,0.0007
3767.00,0.0007
3766.00,0.0007
3765.00,0.0008
3764.00,0.0008
3763.00,0.0008
3762.00,0.0008
3761.00,0.0008
3760.00,0.0008
3759.00,0.0007
3758.00,0.0007
3757.00,0.0007
3756.00,0.0006
3755.00,0.0006
3754.00,0.0006
3753.00,0.0006
3752.00,0.0006
3751.00,0.0006
3750.00,0.0006
3749.00,0.0005
3748.00,0.0005
3747.00,0.0005
3746.00,0.0005
3745.00,0.0005
3744.00,0.0005
3743.00,0.0005
3742.00,0.0005
3741.00,0.0005
3740.00,0.0005
3739.00,0.0005
3738.00,0.0005
3737.00,0.0005
3736.00,0.0005
3735.00,0.0005
3734.00,0.0004
3733.00,0.0004
3732.00,0.0004
3731.00,0.0004
3730.00,0.0005
3729.00,0.0005
3728.00,0.0005
3727.00,0.0005
3726.00,0.0006
3725.00,0.0006
3724.00,0.0006
3723.00,0.0006
3722.00,0.0005
3721.00,0.0005
3720.00,0.0006
3719.00,0.0006
3718.00,0.0006
3717.00,0.0006
3716.00,0.0005
3715.00,0.0005
3714.00,0.0005
3713.00,0.0004
3712.00,0.0004
3711.00,0.0003
3710.00,0.0003
3709.00,0.0003
3708.00,0.0003
3707.00,0.0003
3706.00,0.0003
3705.00,0.0003
3704.00,0.0004
3703.00,0.0004
3702.00,0.0004
3701.00,0.0004
3700.00,0.0004
3699.00,0.0004
3698.00,0.0004
3697.00,0.0004
3696.00,0.0004
3695.00,0.0004
3694.00,0.0005
3693.00,0.0005
3692.00,0.0005
3691.00,0.0005
3690.00,0.0005
3689.00,0.0005
3688.00,0.0005
3687.00,0.0004
3686.00,0.0004
3685.00,0.0004
3684.00,0.0004
3683.00,0.0005
3682.00,0.0005
3681.00,0.0005
3680.00,0.0005
3679.00,0.0004
3678.00,0.0004
3677.00,0.0004
3676.00,0.0004
3675.00,0.0004
3674.00,0.0004
3673.00,0.0005
3672.00,0.0005
3671.00,0.0006
3670.00,0.0006
3669.00,0.0005
3668.00,0.0005
3667.00,0.0005
3666.00,0.0005
3665.00,0.0005
3664.00,0.0005
3663.00,0.0005
3662.00,0.0005
3661.00,0.0004
3660.00,0.0004
3659.00,0.0004
3658.00,0.0004
3657.00,0.0005
3656.00,0.0005
3655.00,0.0004
3654.00,0.0004
3653.00,0.0004
3652.00,0.0004
3651.00,0.0004
3650.00,0.0004
3649.00,0.0005
3648.00,0.0005
3647.00,0.0005
3646.00,0.0006
3645.00,0.0006
3644.00,0.0006
3643.00,0.0006
3642.00,0.0006
3641.00,0.0006
3640.00,0.0006
3639.00,0.0005
3638.00,0.0005
3637.00,0.0005
3636.00,0.0005
3635.00,0.0005
3634.00,0.0005
3633.00,0.0005
3632.00,0.0006
3631.00,0.0006
3630.00,0.0006
3629.00,0.0006
3628.00,0.0005
3627.00,0.0004
3626.00,0.0005
3625.00,0.0005
3624.00,0.0005
3623.00,0.0005
3622.00,0.0005
3621.00,0.0005
3620.00,0.0005
3619.00,0.0005
3618.00,0.0006
3617.00,0.0006
3616.00,0.0006
3615.00,0.0007
3614.00,0.0007
3613.00,0.0007
3612.00,0.0007
3611.00,0.0007
3610.00,0.0007
3609.00,0.0007
3608.00,0.0007
3607.00,0.0007
3606.00,0.0006
3605.00,0.0006
3604.00,0.0006
3603.00,0.0006
3602.00,0.0006
3601.00,0.0007
3600.00,0.0007
3599.00,0.0007
3598.00,0.0007
3597.00,0.0008
3596.00,0.0008
3595.00,0.0008
3594.00,0.0008
3593.00,0.0008
3592.00,0.0008
3591.00,0.0008
3590.00,0.0009
3589.00,0.0010
3588.00,0.0010
3587.00,0.0010
3586.00,0.0010
3585.00,0.0010
3584.00,0.0010
3583.00,0.0010
3582.00,0.0010
3581.00,0.0010
3580.00,0.0010
3579.00,0.0011
3578.00,0.0011
3577.00,0.0011
3576.00,0.0011
3575.00,0.0011
3574.00,0.0011
3573.00,0.0011
3572.00,0.0011
3571.00,0.0011
3570.00,0.0011
3569.00,0.0011
3568.00,0.0011
3567.00,0.0011
3566.00,0.0011
3565.00,0.0012
3564.00,0.0012
3563.00,0.0013
3562.00,0.0013
3561.00,0.0014
3560.00,0.0014
3559.00,0.0015
3558.00,0.0015
3557.00,0.0014
3556.00,0.0014
3555.00,0.0015
3554.00,0.0015
3553.00,0.0015
3552.00,0.0015
3551.00,0.0016
3550.00,0.0016
3549.00,0.0016
3548.00,0.0016
3547.00,0.0016
3546.00,0.0016
3545.00,0.0016
3544.00,0.0016
3543.00,0.0016
3542.00,0.0017
3541.00,0.0017
3540.00,0.0018
3539.00,0.0018
3538.00,0.0019
3537.00,0.0018
3536.00,0.0018
3535.00,0.0018
3534.00,0.0018
3533.00,0.0018
3532.00,0.0018
3531.00,0.0018
3530.00,0.0018
3529.00,0.0019
3528.00,0.0019
3527.00,0.0020
3526.00,0.0020
3525.00,0.0020
3524.00,0.0020
3523.00,0.0020
3522.00,0.0020
3521.00,0.0020
3520.00,0.0021
3519.00,0.0021
3518.00,0.0021
3517.00,0.0022
3516.00,0.0022
3515.00,0.0022
3514.00,0.0023
3513.00,0.0023
3512.00,0.0023
3511.00,0.0023
3510.00,0.0023
3509.00,0.0023
3508.00,0.0022
3507.00,0.0023
3506.00,0.0023
3505.00,0.0023
3504.00,0.0024
3503.00,0.0024
3502.00,0.0024
3501.00,0.0024
3500.00,0.0023
3499.00,0.0023
3498.00,0.0024
3497.00,0.0024
3496.00,0.0024
3495.00,0.0025
3494.00,0.0025
3493.00,0.0025
3492.00,0.0025
3491.00,0.0025
3490.00,0.0025
3489.00,0.0026
3488.00,0.0026
3487.00,0.0027
3486.00,0.0027
3485.00,0.0028
3484.00,0.0028
3483.00,0.0028
3482.00,0.0028
3481.00,0.0028
3480.00,0.0028
3479.00,0.0028
3478.00,0.0028
3477.00,0.0028
3476.00,0.0029
3475.00,0.0029
3474.00,0.0029
3473.00,0.0028
3472.00,0.0028
3471.00,0.0028
3470.00,0.0028
3469.00,0.0028
3468.00,0.0029
3467.00,0.0029
3466.00,0.0029
3465.00,0.0030
3464.00,0.0030
3463.00,0.0030
3462.00,0.0030
3461.00,0.0031
3460.00,0.0031
3459.00,0.0031
3458.00,0.0031
3457.00,0.0031
3456.00,0.0032
3455.00,0.0032
3454.00,0.0032
3453.00,0.0032
3452.00,0.0032
3451.00,0.0032
3450.00,0.0032
3449.00,0.0032
3448.00,0.0032
3447.00,0.0032
3446.00,0.0033
3445.00,0.0033
3444.00,0.0034
3443.00,0.0034
3442.00,0.0034
3441.00,0.0034
3440.00,0.0035
3439.00,0.0035
3438.00,0.0035
3437.00,0.0034
3436.00,0.0034
3435.00,0.0034
3434.00,0.0034
3433.00,0.0034
3432.00,0.0034
3431.00,0.0034
3430.00,0.0035
3429.00,0.0035
3428.00,0.0035
3427.00,0.0035
3426.00,0.0035
3425.00,0.0035
3424.00,0.0036
3423.00,0.0036
3422.00,0.0036
3421.00,0.0036
3420.00,0.0036
3419.00,0.0037
3418.00,0.0037
3417.00,0.0037
3416.00,0.0037
3415.00,0.0037
3414.00,0.0037
3413.00,0.0037
3412.00,0.0038
3411.00,0.0038
3410.00,0.0038
3409.00,0.0038
3408.00,0.0038
3407.00,0.0038
3406.00,0.0039
3405.00,0.0039
3404.00,0.0039
3403.00,0.0039
3402.00,0.0039
3401.00,0.0038
3400.00,0.0038
3399.00,0.0038
3398.00,0.0039
3397.00,0.0039
3396.00,0.0040
3395.00,0.0040
3394.00,0.0040
3393.00,0.0040
3392.00,0.0039
3391.00,0.0039
3390.00,0.0039
3389.00,0.0040
3388.00,0.0040
3387.00,0.0040
3386.00,0.0040
3385.00,0.0040
3384.00,0.0040
3383.00,0.0040
3382.00,0.0041
3381.00,0.0041
3380.00,0.0041
3379.00,0.0041
3378.00,0.0040
3377.00,0.0040
3376.00,0.0040
3375.00,0.0040
3374.00,0.0040
3373.00,0.0040
3372.00,0.0041
3371.00,0.0041
3370.00,0.0041
3369.00,0.0040
3368.00,0.0040
3367.00,0.0040
3366.00,0.0041
3365.00,0.0041
3364.00,0.0041
3363.00,0.0042
3362.00,0.0041
3361.00,0.0041
3360.00,0.0041
3359.00,0.0041
3358.00,0.0041
3357.00,0.0041
3356.00,0.0041
3355.00,0.0041
3354.00,0.0041
3353.00,0.0041
3352.00,0.0041
3351.00,0.0042
3350.00,0.0042
3349.00,0.0042
3348.00,0.0042
3347.00,0.0042
3346.00,0.0042
3345.00,0.0042
3344.00,0.0041
3343.00,0.0041
3342.00,0.0042
3341.00,0.0042
3340.00,0.0042
3339.00,0.0042
3338.00,0.0041
3337.00,0.0041
3336.00,0.0041
3335.00,0.0040
3334.00,0.0041
3333.00,0.0041
3332.00,0.0041
3331.00,0.0041
3330.00,0.0041
3329.00,0.0040
3328.00,0.0040
3327.00,0.0039
3326.00,0.0039
3325.00,0.0039
3324.00,0.0040
3323.00,0.0040
3322.00,0.0040
3321.00,0.0040
3320.00,0.0040
3319.00,0.0039
3318.00,0.0039
3317.00,0.0039
3316.00,0.0039
3315.00,0.0039
3314.00,0.0039
3313.00,0.0038
3312.00,0.0038
3311.00,0.0038
3310.00,0.0038
3309.00,0.0038
3308.00,0.0039
3307.00,0.0039
3306.00,0.0038
3305.00,0.0038
3304.00,0.0038
3303.00,0.0038
3302.00,0.0038
3301.00,0.0038
3300.00,0.0038
3299.00,0.0039
3298.00,0.0039
3297.00,0.0039
3296.00,0.0038
3295.00,0.0038
3294.00,0.0038
3293.00,0.0038
3292.00,0.0038
3291.00,0.0038
3290.00,0.0038
3289.00,0.0038
3288.00,0.0038
3287.00,0.0037
3286.00,0.0037
3285.00,0.0037
3284.00,0.0038
3283.00,0.0038
3282.00,0.0038
3281.00,0.0038
3280.00,0.0037
3279.00,0.0037
3278.00,0.0037
3277.00,0.0037
3276.00,0.0037
3275.00,0.0037
3274.00,0.0037
3273.00,0.0036
3272.00,0.0036
3271.00,0.0036
3270.00,0.0036
3269.00,0.0036
3268.00,0.0036
3267.00,0.0036
3266.00,0.0036
3265.00,0.0036
3264.00,0.0035
3263.00,0.0035
3262.00,0.0035
3261.00,0.0035
3260.00,0.0035
3259.00,0.0035
3258.00,0.0034
3257.00,0.0034
3256.00,0.0034
3255.00,0.0034
3254.00,0.0034
3253.00,0.0034
3252.00,0.0034
3251.00,0.0034
3250.00,0.0033
3249.00,0.0033
3248.00,0.0034
3247.00,0.0034
3246.00,0.0034
3245.00,0.0033
3244.00,0.0033
3243.00,0.0033
3242.00,0.0033
3241.00,0.0033
3240.00,0.0033
3239.00,0.0033
3238.00,0.0033
3237.00,0.0033
3236.00,0.0033
3235.00,0.0034
3234.00,0.0034
3233.00,0.0034
3232.00,0.0035
3231.00,0.0034
3230.00,0.0034
3229.00,0.0034
3228.00,0.0034
3227.00,0.0034
3226.00,0.0035
3225.00,0.0035
3224.00,0.0035
3223.00,0.0035
3222.00,0.0035
3221.00,0.0035
3220.00,0.0035
3219.00,0.0035
3218.00,0.0035
3217.00,0.0035
3216.00,0.0036
3215.00,0.0036
3214.00,0.0036
3213.00,0.0035
3212.00,0.0036
3211.00,0.0036
3210.00,0.0036
3209.00,0.0037
3208.00,0.0037
3207.00,0.0037
3206.00,0.0037
3205.00,0.0037
3204.00,0.0037
3203.00,0.0037
3202.00,0.0037
3201.00,0.0037
3200.00,0.0038
3199.00,0.0038
3198.00,0.0038
3197.00,0.0038
3196.00,0.0038
3195.00,0.0038
3194.00,0.0038
3193.00,0.0038
3192.00,0.0037
3191.00,0.0037
3190.00,0.0037
3189.00,0.0036
3188.00,0.0036
3187.00,0.0036
3186.00,0.0035
3185.00,0.0035
3184.00,0.0035
3183.00,0.0035
3182.00,0.0035
3181.00,0.0035
3180.00,0.0035
3179.00,0.0034
3178.00,0.0034
3177.00,0.0033
3176.00,0.0033
3175.00,0.0033
3174.00,0.0033
3173.00,0.0033
3172.00,0.0033
3171.00,0.0033
3170.00,0.0033
3169.00,0.0033
3168.00,0.0033
3167.00,0.0033
3166.00,0.0033
3165.00,0.0033
3164.00,0.0033
3163.00,0.0033
3162.00,0.0033
3161.00,0.0032
3160.00,0.0032
3159.00,0.0032
3158.00,0.0032
3157.00,0.0032
3156.00,0.0032
3155.00,0.0032
3154.00,0.0032
3153.00,0.0032
3152.00,0.0032
3151.00,0.0032
3150.00,0.0032
3149.00,0.0032
3148.00,0.0032
3147.00,0.0032
3146.00,0.0032
3145.00,0.0032
3144.00,0.0032
3143.00,0.0032
3142.00,0.0032
3141.00,0.0032
3140.00,0.0031
3139.00,0.0031
3138.00,0.0031
3137.00,0.0030
3136.00,0.0030
3135.00,0.0030
3134.00,0.0029
3133.00,0.0029
3132.00,0.0029
3131.00,0.0029
3130.00,0.0029
3129.00,0.0029
3128.00,0.0029
3127.00,0.0030
3126.00,0.0029
3125.00,0.0029
3124.00,0.0029
3123.00,0.0028
3122.00,0.0028
3121.00,0.0027
3120.00,0.0027
3119.00,0.0027
3118.00,0.0027
3117.00,0.0027
3116.00,0.0027
3115.00,0.0026
3114.00,0.0026
3113.00,0.0026
3112.00,0.0026
3111.00,0.0025
3110.00,0.0025
3109.00,0.0025
3108.00,0.0025
3107.00,0.0025
3106.00,0.0026
3105.00,0.0026
3104.00,0.0026
3103.00,0.0025
3102.00,0.0025
3101.00,0.0024
3100.00,0.0024
3099.00,0.0024
3098.00,0.0024
3097.00,0.0025
3096.00,0.0025
3095.00,0.0025
3094.00,0.0025
3093.00,0.0024
3092.00,0.0024
3091.00,0.0024
3090.00,0.0025
3089.00,0.0025
3088.00,0.0025
3087.00,0.0025
3086.00,0.0025
3085.00,0.0025
3084.00,0.0024
3083.00,0.0024
3082.00,0.0024
3081.00,0.0024
3080.00,0.0024
3079.00,0.0024
3078.00,0.0025
3077.00,0.0025
3076.00,0.0025
3075.00,0.0025
3074.00,0.0025
3073.00,0.0026
3072.00,0.0026
3071.00,0.0026
3070.00,0.0026
3069.00,0.0025
3068.00,0.0026
3067.00,0.0026
3066.00,0.0026
3065.00,0.0026
3064.00,0.0026
3063.00,0.0026
3062.00,0.0026
3061.00,0.0026
3060.00,0.0027
3059.00,0.0027
3058.00,0.0027
3057.00,0.0027
3056.00,0.0027
3055.00,0.0027
3054.00,0.0027
3053.00,0.0027
3052.00,0.0027
3051.00,0.0028
3050.00,0.0028
3049.00,0.0029
3048.00,0.0029
3047.00,0.0029
3046.00,0.0029
3045.00,0.0029
3044.00,0.0030
3043.00,0.0030
3042.00,0.0030
3041.00,0.0031
3040.00,0.0031
3039.00,0.0031
3038.00,0.0031
3037.00,0.0032
3036.00,0.0032
3035.00,0.0032
3034.00,0.0032
3033.00,0.0032
3032.00,0.0033
3031.00,0.0034
3030.00,0.0034
3029.00,0.0035
3028.00,0.0036
3027.00,0.0036
3026.00,0.0036
3025.00,0.0037
3024.00,0.0037
3023.00,0.0038
3022.00,0.0039
3021.00,0.0040
3020.00,0.0040
3019.00,0.0041
3018.00,0.0042
3017.00,0.0043
3016.00,0.0044
3015.00,0.0045
3014.00,0.0045
3013.00,0.0046
3012.00,0.0047
3011.00,0.0049
3010.00,0.0050
3009.00,0.0052
3008.00,0.0053
3007.00,0.0055
3006.00,0.0057
3005.00,0.0059
3004.00,0.0061
3003.00,0.0063
3002.00,0.0066
3001.00,0.0068
3000.00,0.0071
2999.00,0.0073
2998.00,0.0076
2997.00,0.0079
2996.00,0.0083
2995.00,0.0087
2994.00,0.0091
2993.00,0.0097
2992.00,0.0102
2991.00,0.0108
2990.00,0.0114
2989.00,0.0122
2988.00,0.0130
2987.00,0.0139
2986.00,0.0149
2985.00,0.0160
2984.00,0.0173
2983.00,0.0187
2982.00,0.0202
2981.00,0.0219
2980.00,0.0239
2979.00,0.0261
2978.00,0.0286
2977.00,0.0316
2976.00,0.0350
2975.00,0.0388
2974.00,0.0432
2973.00,0.0481
2972.00,0.0536
2971.00,0.0598
2970.00,0.0667
2969.00,0.0743
2968.00,0.0825
2967.00,0.0915
2966.00,0.1009
2965.00,0.1106
2964.00,0.1202
2963.00,0.1293
2962.00,0.1375
2961.00,0.1444
2960.00,0.1500
2959.00,0.1544
2958.00,0.1581
2957.00,0.1616
2956.00,0.1655
2955.00,0.1702
2954.00,0.1757
2953.00,0.1815
2952.00,0.1868
2951.00,0.1907
2950.00,0.1920
2949.00,0.1901
2948.00,0.1843
2947.00,0.1751
2946.00,0.1633
2945.00,0.1504
2944.00,0.1376
2943.00,0.1262
2942.00,0.1170
2941.00,0.1103
2940.00,0.1061
2939.00,0.1042
2938.00,0.1044
2937.00,0.1065
2936.00,0.1103
2935.00,0.1155
2934.00,0.1221
2933.00,0.1299
2932.00,0.1387
2931.00,0.1484
2930.00,0.1586
2929.00,0.1690
2928.00,0.1792
2927.00,0.1891
2926.00,0.1984
2925.00,0.2071
2924.00,0.2155
2923.00,0.2236
2922.00,0.2315
2921.00,0.2390
2920.00,0.2457
2919.00,0.2508
2918.00,0.2536
2917.00,0.2535
2916.00,0.2503
2915.00,0.2444
2914.00,0.2365
2913.00,0.2275
2912.00,0.2185
2911.00,0.2099
2910.00,0.2020
2909.00,0.1949
2908.00,0.1882
2907.00,0.1818
2906.00,0.1754
2905.00,0.1688
2904.00,0.1621
2903.00,0.1553
2902.00,0.1485
2901.00,0.1419
2900.00,0.1354
2899.00,0.1294
2898.00,0.1237
2897.00,0.1186
2896.00,0.1141
2895.00,0.1102
2894.00,0.1071
2893.00,0.1046
2892.00,0.1028
2891.00,0.1016
2890.00,0.1009
2889.00,0.1007
2888.00,0.1008
2887.00,0.1013
2886.00,0.1022
2885.00,0.1034
2884.00,0.1051
2883.00,0.1072
2882.00,0.1097
2881.00,0.1124
2880.00,0.1150
2879.00,0.1172
2878.00,0.1186
2877.00,0.1191
2876.00,0.1188
2875.00,0.1180
2874.00,0.1173
2873.00,0.1170
2872.00,0.1175
2871.00,0.1188
2870.00,0.1206
2869.00,0.1224
2868.00,0.1234
2867.00,0.1230
2866.00,0.1203
2865.00,0.1151
2864.00,0.1078
2863.00,0.0992
2862.00,0.0903
2861.00,0.0821
2860.00,0.0751
2859.00,0.0695
2858.00,0.0653
2857.00,0.0624
2856.00,0.0604
2855.00,0.0592
2854.00,0.0587
2853.00,0.0588
2852.00,0.0596
2851.00,0.0610
2850.00,0.0629
2849.00,0.0655
2848.00,0.0687
2847.00,0.0728
2846.00,0.0776
2845.00,0.0834
2844.00,0.0898
2843.00,0.0968
2842.00,0.1040
2841.00,0.1108
2840.00,0.1165
2839.00,0.1201
2838.00,0.1208
2837.00,0.1182
2836.00,0.1122
2835.00,0.1035
2834.00,0.0930
2833.00,0.0820
2832.00,0.0715
2831.00,0.0622
2830.00,0.0544
2829.00,0.0480
2828.00,0.0428
2827.00,0.0386
2826.00,0.0352
2825.00,0.0324
2824.00,0.0301
2823.00,0.0281
2822.00,0.0265
2821.00,0.0250
2820.00,0.0238
2819.00,0.0227
2818.00,0.0218
2817.00,0.0210
2816.00,0.0203
2815.00,0.0196
2814.00,0.0190
2813.00,0.0184
2812.00,0.0179
2811.00,0.0174
2810.00,0.0168
2809.00,0.0163
2808.00,0.0157
2807.00,0.0151
2806.00,0.0144
2805.00,0.0138
2804.00,0.0132
2803.00,0.0127
2802.00,0.0122
2801.00,0.0117
2800.00,0.0113
2799.00,0.0110
2798.00,0.0107
2797.00,0.0105
2796.00,0.0103
2795.00,0.0101
2794.00,0.0098
2793.00,0.0096
2792.00,0.0093
2791.00,0.0090
2790.00,0.0087
2789.00,0.0084
2788.00,0.0081
2787.00,0.0078
2786.00,0.0076
2785.00,0.0073
2784.00,0.0071
2783.00,0.0068
2782.00,0.0066
2781.00,0.0064
2780.00,0.0062
2779.00,0.0060
2778.00,0.0059
2777.00,0.0058
2776.00,0.0057
2775.00,0.0057
2774.00,0.0056
2773.00,0.0055
2772.00,0.0054
2771.00,0.0054
2770.00,0.0053
2769.00,0.0053
2768.00,0.0052
2767.00,0.0052
2766.00,0.0052
2765.00,0.0052
2764.00,0.0052
2763.00,0.0051
2762.00,0.0051
2761.00,0.0051
2760.00,0.0050
2759.00,0.0050
2758.00,0.0050
2757.00,0.0050
2756.00,0.0050
2755.00,0.0049
2754.00,0.0049
2753.00,0.0049
2752.00,0.0049
2751.00,0.0048
2750.00,0.0049
2749.00,0.0049
2748.00,0.0049
2747.00,0.0050
2746.00,0.0050
2745.00,0.0050
2744.00,0.0051
2743.00,0.0052
2742.00,0.0053
2741.00,0.0054
2740.00,0.0055
2739.00,0.0056
2738.00,0.0058
2737.00,0.0059
2736.00,0.0061
2735.00,0.0063
2734.00,0.0064
2733.00,0.0066
2732.00,0.0068
2731.00,0.0069
2730.00,0.0071
2729.00,0.0074
2728.00,0.0076
2727.00,0.0079
2726.00,0.0082
2725.00,0.0084
2724.00,0.0086
2723.00,0.0086
2722.00,0.0085
2721.00,0.0083
2720.00,0.0081
2719.00,0.0077
2718.00,0.0074
2717.00,0.0070
2716.00,0.0067
2715.00,0.0064
2714.00,0.0062
2713.00,0.0060
2712.00,0.0058
2711.00,0.0057
2710.00,0.0056
2709.00,0.0054
2708.00,0.0053
2707.00,0.0051
2706.00,0.0050
2705.00,0.0049
2704.00,0.0048
2703.00,0.0047
2702.00,0.0046
2701.00,0.0045
2700.00,0.0044
2699.00,0.0043
2698.00,0.0043
2697.00,0.0043
2696.00,0.0043
2695.00,0.0043
2694.00,0.0043
2693.00,0.0043
2692.00,0.0043
2691.00,0.0043
2690.00,0.0043
2689.00,0.0042
2688.00,0.0042
2687.00,0.0042
2686.00,0.0042
2685.00,0.0042
2684.00,0.0042
2683.00,0.0043
2682.00,0.0043
2681.00,0.0043
2680.00,0.0043
2679.00,0.0043
2678.00,0.0043
2677.00,0.0044
2676.00,0.0044
2675.00,0.0043
2674.00,0.0043
2673.00,0.0043
2672.00,0.0042
2671.00,0.0042
2670.00,0.0042
2669.00,0.0042
2668.00,0.0043
2667.00,0.0043
2666.00,0.0043
2665.00,0.0043
2664.00,0.0044
2663.00,0.0044
2662.00,0.0045
2661.00,0.0045
2660.00,0.0046
2659.00,0.0046
2658.00,0.0045
2657.00,0.0045
2656.00,0.0045
2655.00,0.0045
2654.00,0.0044
2653.00,0.0043
2652.00,0.0043
2651.00,0.0042
2650.00,0.0041
2649.00,0.0041
2648.00,0.0041
2647.00,0.0041
2646.00,0.0040
2645.00,0.0040
2644.00,0.0039
2643.00,0.0039
2642.00,0.0038
2641.00,0.0037
2640.00,0.0037
2639.00,0.0037
2638.00,0.0036
2637.00,0.0036
2636.00,0.0036
2635.00,0.0036
2634.00,0.0036
2633.00,0.0036
2632.00,0.0036
2631.00,0.0036
2630.00,0.0037
2629.00,0.0037
2628.00,0.0037
2627.00,0.0037
2626.00,0.0037
2625.00,0.0037
2624.00,0.0037
2623.00,0.0038
2622.00,0.0038
2621.00,0.0038
2620.00,0.0039
2619.00,0.0039
2618.00,0.0040
2617.00,0.0040
2616.00,0.0040
2615.00,0.0039
2614.00,0.0039
2613.00,0.0038
2612.00,0.0038
2611.00,0.0037
2610.00,0.0036
2609.00,0.0036
2608.00,0.0035
2607.00,0.0034
2606.00,0.0033
2605.00,0.0032
2604.00,0.0032
2603.00,0.0031
2602.00,0.0031
2601.00,0.0031
2600.00,0.0031
2599.00,0.0030
2598.00,0.0030
2597.00,0.0030
2596.00,0.0031
2595.00,0.0031
2594.00,0.0032
2593.00,0.0032
2592.00,0.0032
2591.00,0.0032
2590.00,0.0033
2589.00,0.0034
2588.00,0.0035
2587.00,0.0036
2586.00,0.0037
2585.00,0.0038
2584.00,0.0039
2583.00,0.0039
2582.00,0.0039
2581.00,0.0039
2580.00,0.0039
2579.00,0.0039
2578.00,0.0038
2577.00,0.0037
2576.00,0.0035
2575.00,0.0034
2574.00,0.0032
2573.00,0.0030
2572.00,0.0029
2571.00,0.0028
2570.00,0.0027
2569.00,0.0027
2568.00,0.0026
2567.00,0.0025
2566.00,0.0025
2565.00,0.0024
2564.00,0.0023
2563.00,0.0023
2562.00,0.0023
2561.00,0.0022
2560.00,0.0022
2559.00,0.0021
2558.00,0.0021
2557.00,0.0021
2556.00,0.0021
2555.00,0.0021
2554.00,0.0022
2553.00,0.0022
2552.00,0.0022
2551.00,0.0023
2550.00,0.0022
2549.00,0.0022
2548.00,0.0021
2547.00,0.0019
2546.00,0.0018
2545.00,0.0018
2544.00,0.0018
2543.00,0.0018
2542.00,0.0018
2541.00,0.0018
2540.00,0.0018
2539.00,0.0018
2538.00,0.0018
2537.00,0.0017
2536.00,0.0017
2535.00,0.0016
2534.00,0.0015
2533.00,0.0015
2532.00,0.0014
2531.00,0.0014
2530.00,0.0014
2529.00,0.0014
2528.00,0.0014
2527.00,0.0014
2526.00,0.0013
2525.00,0.0013
2524.00,0.0013
2523.00,0.0013
2522.00,0.0013
2521.00,0.0013
2520.00,0.0013
2519.00,0.0013
2518.00,0.0012
2517.00,0.0011
2516.00,0.0011
2515.00,0.0010
2514.00,0.0010
2513.00,0.0010
2512.00,0.0009
2511.00,0.0009
2510.00,0.0010
2509.00,0.0010
2508.00,0.0010
2507.00,0.0010
2506.00,0.0009
2505.00,0.0009
2504.00,0.0009
2503.00,0.0010
2502.00,0.0010
2501.00,0.0010
2500.00,0.0010
2499.00,0.0010
2498.00,0.0010
2497.00,0.0010
2496.00,0.0010
2495.00,0.0010
2494.00,0.0009
2493.00,0.0008
2492.00,0.0008
2491.00,0.0009
2490.00,0.0009
2489.00,0.0010
2488.00,0.0010
2487.00,0.0010
2486.00,0.0010
2485.00,0.0010
2484.00,0.0010
2483.00,0.0010
2482.00,0.0009
2481.00,0.0008
2480.00,0.0007
2479.00,0.0007
2478.00,0.0008
2477.00,0.0008
2476.00,0.0009
2475.00,0.0009
2474.00,0.0009
2473.00,0.0009
2472.00,0.0009
2471.00,0.0009
2470.00,0.0009
2469.00,0.0010
2468.00,0.0010
2467.00,0.0010
2466.00,0.0009
2465.00,0.0009
2464.00,0.0009
2463.00,0.0009
2462.00,0.0009
2461.00,0.0009
2460.00,0.0009
2459.00,0.0009
2458.00,0.0009
2457.00,0.0010
2456.00,0.0011
2455.00,0.0011
2454.00,0.0011
2453.00,0.0011
2452.00,0.0011
2451.00,0.0011
2450.00,0.0011
2449.00,0.0011
2448.00,0.0011
2447.00,0.0011
2446.00,0.0010
2445.00,0.0010
2444.00,0.0009
2443.00,0.0009
2442.00,0.0010
2441.00,0.0010
2440.00,0.0011
2439.00,0.0011
2438.00,0.0011
2437.00,0.0011
2436.00,0.0011
2435.00,0.0011
2434.00,0.0011
2433.00,0.0012
2432.00,0.0012
2431.00,0.0012
2430.00,0.0012
2429.00,0.0012
2428.00,0.0012
2427.00,0.0011
2426.00,0.0011
2425.00,0.0011
2424.00,0.0011
2423.00,0.0011
2422.00,0.0011
2421.00,0.0011
2420.00,0.0010
2419.00,0.0010
2418.00,0.0010
2417.00,0.0010
2416.00,0.0010
2415.00,0.0010
2414.00,0.0010
2413.00,0.0010
2412.00,0.0010
2411.00,0.0010
2410.00,0.0010
2409.00,0.0010
2408.00,0.0010
2407.00,0.0009
2406.00,0.0009
2405.00,0.0008
2404.00,0.0008
2403.00,0.0008
2402.00,0.0008
2401.00,0.0008
2400.00,0.0008
2399.00,0.0009
2398.00,0.0009
2397.00,0.0009
2396.00,0.0009
2395.00,0.0009
2394.00,0.0008
2393.00,0.0007
2392.00,0.0007
2391.00,0.0007
2390.00,0.0007
2389.00,0.0007
2388.00,0.0007
2387.00,0.0006
2386.00,0.0006
2385.00,0.0006
2384.00,0.0006
2383.00,0.0005
2382.00,0.0005
2381.00,0.0004
2380.00,0.0004
2379.00,0.0004
2378.00,0.0004
2377.00,0.0005
2376.00,0.0006
2375.00,0.0006
2374.00,0.0006
2373.00,0.0005
2372.00,0.0005
2371.00,0.0004
2370.00,0.0004
2369.00,0.0004
2368.00,0.0003
2367.00,0.0003
2366.00,0.0003
2365.00,0.0004
2364.00,0.0004
2363.00,0.0005
2362.00,0.0005
2361.00,0.0005
2360.00,0.0005
2359.00,0.0005
2358.00,0.0006
2357.00,0.0006
2356.00,0.0006
2355.00,0.0006
2354.00,0.0005
2353.00,0.0005
2352.00,0.0005
2351.00,0.0005
2350.00,0.0006
2349.00,0.0006
2348.00,0.0006
2347.00,0.0006
2346.00,0.0006
2345.00,0.0007
2344.00,0.0007
2343.00,0.0008
2342.00,0.0009
2341.00,0.0009
2340.00,0.0009
2339.00,0.0009
2338.00,0.0008
2337.00,0.0008
2336.00,0.0007
2335.00,0.0007
2334.00,0.0007
2333.00,0.0007
2332.00,0.0007
2331.00,0.0007
2330.00,0.0008
2329.00,0.0008
2328.00,0.0010
2327.00,0.0014
2326.00,0.0018
2325.00,0.0021
2324.00,0.0023
2323.00,0.0023
2322.00,0.0021
2321.00,0.0019
2320.00,0.0017
2319.00,0.0015
2318.00,0.0014
2317.00,0.0014
2316.00,0.0013
2315.00,0.0012
2314.00,0.0012
2313.00,0.0011
2312.00,0.0011
2311.00,0.0010
2310.00,0.0010
2309.00,0.0010
2308.00,0.0010
2307.00,0.0011
2306.00,0.0011
2305.00,0.0011
2304.00,0.0010
2303.00,0.0010
2302.00,0.0009
2301.00,0.0010
2300.00,0.0011
2299.00,0.0012
2298.00,0.0013
2297.00,0.0013
2296.00,0.0013
2295.00,0.0013
2294.00,0.0014
2293.00,0.0015
2292.00,0.0016
2291.00,0.0017
2290.00,0.0017
2289.00,0.0017
2288.00,0.0018
2287.00,0.0018
2286.00,0.0018
2285.00,0.0018
2284.00,0.0018
2283.00,0.0017
2282.00,0.0016
2281.00,0.0015
2280.00,0.0015
2279.00,0.0014
2278.00,0.0014
2277.00,0.0013
2276.00,0.0012
2275.00,0.0011
2274.00,0.0011
2273.00,0.0010
2272.00,0.0009
2271.00,0.0009
2270.00,0.0008
2269.00,0.0008
2268.00,0.0008
2267.00,0.0009
2266.00,0.0010
2265.00,0.0012
2264.00,0.0012
2263.00,0.0011
2262.00,0.0010
2261.00,0.0010
2260.00,0.0009
2259.00,0.0008
2258.00,0.0008
2257.00,0.0007
2256.00,0.0005
2255.00,0.0005
2254.00,0.0004
2253.00,0.0005
2252.00,0.0005
2251.00,0.0006
2250.00,0.0007
2249.00,0.0008
2248.00,0.0008
2247.00,0.0008
2246.00,0.0007
2245.00,0.0006
2244.00,0.0006
2243.00,0.0007
2242.00,0.0008
2241.00,0.0008
2240.00,0.0008
2239.00,0.0008
2238.00,0.0008
2237.00,0.0008
2236.00,0.0010
2235.00,0.0011
2234.00,0.0012
2233.00,0.0012
2232.00,0.0012
2231.00,0.0012
2230.00,0.0011
2229.00,0.0011
2228.00,0.0011
2227.00,0.0011
2226.00,0.0011
2225.00,0.0011
2224.00,0.0010
2223.00,0.0009
2222.00,0.0007
2221.00,0.0006
2220.00,0.0004
2219.00,0.0003
2218.00,0.0001
2217.00,0.0002
2216.00,0.0003
2215.00,0.0003
2214.00,0.0004
2213.00,0.0004
2212.00,0.0004
2211.00,0.0005
2210.00,0.0006
2209.00,0.0007
2208.00,0.0007
2207.00,0.0007
2206.00,0.0006
2205.00,0.0005
2204.00,0.0005
2203.00,0.0006
2202.00,0.0008
2201.00,0.0010
2200.00,0.0011
2199.00,0.0009
2198.00,0.0007
2197.00,0.0004
2196.00,0.0004
2195.00,0.0005
2194.00,0.0007
2193.00,0.0009
2192.00,0.0011
2191.00,0.0011
2190.00,0.0010
2189.00,0.0010
2188.00,0.0008
2187.00,0.0006
2186.00,0.0004
2185.00,0.0002
2184.00,0.0001
2183.00,0.0000
2182.00,-0.0002
2181.00,-0.0003
2180.00,-0.0003
2179.00,-0.0000
2178.00,0.0004
2177.00,0.0006
2176.00,0.0007
2175.00,0.0006
2174.00,0.0006
2173.00,0.0007
2172.00,0.0010
2171.00,0.0010
2170.00,0.0010
2169.00,0.0011
2168.00,0.0014
2167.00,0.0018
2166.00,0.0022
2165.00,0.0022
2164.00,0.0021
2163.00,0.0020
2162.00,0.0017
2161.00,0.0012
2160.00,0.0000
2159.00,-0.0015
2158.00,-0.0027
2157.00,-0.0032
2156.00,-0.0030
2155.00,-0.0024
2154.00,-0.0018
2153.00,-0.0015
2152.00,-0.0014
2151.00,-0.0015
2150.00,-0.0016
2149.00,-0.0017
2148.00,-0.0017
2147.00,-0.0017
2146.00,-0.0015
2145.00,-0.0013
2144.00,-0.0012
2143.00,-0.0012
2142.00,-0.0011
2141.00,-0.0011
2140.00,-0.0010
2139.00,-0.0010
2138.00,-0.0009
2137.00,-0.0009
2136.00,-0.0010
2135.00,-0.0012
2134.00,-0.0013
2133.00,-0.0014
2132.00,-0.0013
2131.00,-0.0013
2130.00,-0.0012
2129.00,-0.0011
2128.00,-0.0011
2127.00,-0.0011
2126.00,-0.0010
2125.00,-0.0010
2124.00,-0.0009
2123.00,-0.0009
2122.00,-0.0008
2121.00,-0.0006
2120.00,-0.0004
2119.00,-0.0003
2118.00,-0.0002
2117.00,-0.0001
2116.00,0.0001
2115.00,0.0002
2114.00,0.0003
2113.00,0.0002
2112.00,0.0001
2111.00,-0.0000
2110.00,-0.0001
2109.00,-0.0002
2108.00,-0.0002
2107.00,-0.0001
2106.00,0.0000
2105.00,0.0002
2104.00,0.0003
2103.00,0.0003
2102.00,0.0002
2101.00,0.0001
2100.00,0.0000
2099.00,0.0000
2098.00,-0.0000
2097.00,-0.0001
2096.00,-0.0003
2095.00,-0.0004
2094.00,-0.0004
2093.00,-0.0004
2092.00,-0.0003
2091.00,-0.0002
2090.00,-0.0001
2089.00,0.0001
2088.00,0.0002
2087.00,0.0003
2086.00,0.0002
2085.00,0.0001
2084.00,0.0000
2083.00,0.0000
2082.00,0.0001
2081.00,0.0003
2080.00,0.0003
2079.00,0.0004
2078.00,0.0003
2077.00,0.0003
2076.00,0.0002
2075.00,0.0001
2074.00,-0.0001
2073.00,-0.0001
2072.00,0.0001
2071.00,0.0002
2070.00,0.0003
2069.00,0.0004
2068.00,0.0004
2067.00,0.0002
2066.00,0.0000
2065.00,-0.0000
2064.00,-0.0000
2063.00,0.0000
2062.00,0.0000
2061.00,0.0000
2060.00,-0.0000
2059.00,-0.0000
2058.00,0.0000
2057.00,0.0002
2056.00,0.0003
2055.00,0.0005
2054.00,0.0007
2053.00,0.0010
2052.00,0.0014
2051.00,0.0017
2050.00,0.0017
2049.00,0.0014
2048.00,0.0009
2047.00,0.0004
2046.00,0.0000
2045.00,-0.0002
2044.00,-0.0003
2043.00,-0.0003
2042.00,-0.0002
2041.00,-0.0001
2040.00,-0.0001
2039.00,-0.0000
2038.00,-0.0000
2037.00,0.0000
2036.00,0.0001
2035.00,0.0001
2034.00,0.0001
2033.00,0.0000
2032.00,-0.0002
2031.00,-0.0005
2030.00,-0.0006
2029.00,-0.0006
2028.00,-0.0005
2027.00,-0.0005
2026.00,-0.0006
2025.00,-0.0008
2024.00,-0.0011
2023.00,-0.0013
2022.00,-0.0013
2021.00,-0.0010
2020.00,-0.0006
2019.00,-0.0003
2018.00,-0.0001
2017.00,-0.0002
2016.00,-0.0004
2015.00,-0.0007
2014.00,-0.0009
2013.00,-0.0009
2012.00,-0.0010
2011.00,-0.0012
2010.00,-0.0013
2009.00,-0.0015
2008.00,-0.0016
2007.00,-0.0017
2006.00,-0.0018
2005.00,-0.0018
2004.00,-0.0016
2003.00,-0.0015
2002.00,-0.0012
2001.00,-0.0011
2000.00,-0.0010
1999.00,-0.0010
1998.00,-0.0009
1997.00,-0.0008
1996.00,-0.0008
1995.00,-0.0009
1994.00,-0.0012
1993.00,-0.0013
1992.00,-0.0012
1991.00,-0.0008
1990.00,-0.0003
1989.00,0.0002
1988.00,0.0004
1987.00,0.0004
1986.00,0.0001
1985.00,0.0000
1984.00,0.0001
1983.00,0.0004
1982.00,0.0007
1981.00,0.0009
1980.00,0.0008
1979.00,0.0003
1978.00,-0.0005
1977.00,-0.0012
1976.00,-0.0018
1975.00,-0.0022
1974.00,-0.0023
1973.00,-0.0022
1972.00,-0.0020
1971.00,-0.0018
1970.00,-0.0018
1969.00,-0.0019
1968.00,-0.0018
1967.00,-0.0016
1966.00,-0.0013
1965.00,-0.0009
1964.00,-0.0008
1963.00,-0.0008
1962.00,-0.0011
1961.00,-0.0016
1960.00,-0.0019
1959.00,-0.0020
1958.00,-0.0020
1957.00,-0.0018
1956.00,-0.0016
1955.00,-0.0015
1954.00,-0.0013
1953.00,-0.0013
1952.00,-0.0015
1951.00,-0.0018
1950.00,-0.0020
1949.00,-0.0022
1948.00,-0.0021
1947.00,-0.0020
1946.00,-0.0018
1945.00,-0.0017
1944.00,-0.0016
1943.00,-0.0014
1942.00,-0.0012
1941.00,-0.0010
1940.00,-0.0009
1939.00,-0.0009
1938.00,-0.0010
1937.00,-0.0010
1936.00,-0.0009
1935.00,-0.0009
1934.00,-0.0009
1933.00,-0.0010
1932.00,-0.0010
1931.00,-0.0010
1930.00,-0.0010
1929.00,-0.0009
1928.00,-0.0008
1927.00,-0.0008
1926.00,-0.0008
1925.00,-0.0008
1924.00,-0.0007
1923.00,-0.0007
1922.00,-0.0007
1921.00,-0.0006
1920.00,-0.0005
1919.00,-0.0004
1918.00,-0.0003
1917.00,-0.0003
1916.00,-0.0003
1915.00,-0.0003
1914.00,-0.0004
1913.00,-0.0004
1912.00,-0.0003
1911.00,-0.0002
1910.00,-0.0001
1909.00,-0.0000
1908.00,-0.0000
1907.00,-0.0001
1906.00,-0.0002
1905.00,-0.0003
1904.00,-0.0003
1903.00,-0.0004
1902.00,-0.0004
1901.00,-0.0003
1900.00,-0.0002
1899.00,-0.0002
1898.00,-0.0002
1897.00,-0.0002
1896.00,-0.0003
1895.00,-0.0003
1894.00,-0.0003
1893.00,-0.0002
1892.00,-0.0002
1891.00,-0.0002
1890.00,-0.0002
1889.00,-0.0002
1888.00,-0.0002
1887.00,-0.0001
1886.00,-0.0001
1885.00,-0.0001
1884.00,0.0000
1883.00,0.0001
1882.00,0.0001
1881.00,0.0001
1880.00,0.0001
1879.00,0.0000
1878.00,-0.0001
1877.00,-0.0001
1876.00,-0.0001
1875.00,-0.0000
1874.00,0.0000
1873.00,0.0000
1872.00,0.0000
1871.00,0.0000
1870.00,-0.0000
1869.00,-0.0001
1868.00,-0.0001
1867.00,-0.0001
1866.00,-0.0001
1865.00,-0.0001
1864.00,-0.0001
1863.00,-0.0001
1862.00,-0.0002
1861.00,-0.0002
1860.00,-0.0001
1859.00,0.0000
1858.00,0.0001
1857.00,0.0001
1856.00,0.0001
1855.00,0.0001
1854.00,0.0001
1853.00,0.0001
1852.00,0.0001
1851.00,0.0001
1850.00,0.0001
1849.00,0.0001
1848.00,0.0001
1847.00,0.0001
1846.00,0.0001
1845.00,0.0002
1844.00,0.0003
1843.00,0.0003
1842.00,0.0003
1841.00,0.0003
1840.00,0.0002
1839.00,0.0003
1838.00,0.0003
1837.00,0.0004
1836.00,0.0004
1835.00,0.0004
1834.00,0.0004
1833.00,0.0004
1832.00,0.0004
1831.00,0.0004
1830.00,0.0004
1829.00,0.0004
1828.00,0.0003
1827.00,0.0002
1826.00,0.0002
1825.00,0.0002
1824.00,0.0003
1823.00,0.0003
1822.00,0.0003
1821.00,0.0002
1820.00,0.0002
1819.00,0.0001
1818.00,0.0000
1817.00,-0.0000
1816.00,0.0000
1815.00,0.0000
1814.00,0.0001
1813.00,0.0001
1812.00,0.0002
1811.00,0.0003
1810.00,0.0004
1809.00,0.0004
1808.00,0.0004
1807.00,0.0003
1806.00,0.0003
1805.00,0.0004
1804.00,0.0004
1803.00,0.0005
1802.00,0.0005
1801.00,0.0005
1800.00,0.0005
1799.00,0.0005
1798.00,0.0005
1797.00,0.0005
1796.00,0.0005
1795.00,0.0005
1794.00,0.0005
1793.00,0.0005
1792.00,0.0005
1791.00,0.0005
1790.00,0.0006
1789.00,0.0006
1788.00,0.0006
1787.00,0.0007
1786.00,0.0007
1785.00,0.0007
1784.00,0.0007
1783.00,0.0008
1782.00,0.0008
1781.00,0.0008
1780.00,0.0008
1779.00,0.0007
1778.00,0.0007
1777.00,0.0007
1776.00,0.0007
1775.00,0.0007
1774.00,0.0007
1773.00,0.0008
1772.00,0.0009
1771.00,0.0010
1770.00,0.0010
1769.00,0.0009
1768.00,0.0009
1767.00,0.0010
1766.00,0.0011
1765.00,0.0012
1764.00,0.0012
1763.00,0.0012
1762.00,0.0012
1761.00,0.0013
1760.00,0.0013
1759.00,0.0013
1758.00,0.0013
1757.00,0.0013
1756.00,0.0014
1755.00,0.0015
1754.00,0.0015
1753.00,0.0016
1752.00,0.0018
1751.00,0.0020
1750.00,0.0021
1749.00,0.0021
1748.00,0.0022
1747.00,0.0022
1746.00,0.0023
1745.00,0.0024
1744.00,0.0025
1743.00,0.0026
1742.00,0.0027
1741.00,0.0027
1740.00,0.0028
1739.00,0.0028
1738.00,0.0028
1737.00,0.0028
1736.00,0.0028
1735.00,0.0029
1734.00,0.0029
1733.00,0.0028
1732.00,0.0028
1731.00,0.0028
1730.00,0.0027
1729.00,0.0027
1728.00,0.0026
1727.00,0.0025
1726.00,0.0024
1725.00,0.0024
1724.00,0.0025
1723.00,0.0025
1722.00,0.0025
1721.00,0.0025
1720.00,0.0024
1719.00,0.0024
1718.00,0.0024
1717.00,0.0023
1716.00,0.0023
1715.00,0.0023
1714.00,0.0023
1713.00,0.0022
1712.00,0.0023
1711.00,0.0023
1710.00,0.0023
1709.00,0.0022
1708.00,0.0022
1707.00,0.0022
1706.00,0.0022
1705.00,0.0022
1704.00,0.0023
1703.00,0.0023
1702.00,0.0024
1701.00,0.0024
1700.00,0.0024
1699.00,0.0024
1698.00,0.0023
1697.00,0.0023
1696.00,0.0024
1695.00,0.0025
1694.00,0.0026
1693.00,0.0026
1692.00,0.0026
1691.00,0.0027
1690.00,0.0027
1689.00,0.0028
1688.00,0.0028
1687.00,0.0028
1686.00,0.0027
1685.00,0.0028
1684.00,0.0029
1683.00,0.0029
1682.00,0.0029
1681.00,0.0030
1680.00,0.0030
1679.00,0.0031
1678.00,0.0031
1677.00,0.0031
1676.00,0.0031
1675.00,0.0031
1674.00,0.0031
1673.00,0.0032
1672.00,0.0032
1671.00,0.0033
1670.00,0.0033
1669.00,0.0034
1668.00,0.0034
1667.00,0.0034
1666.00,0.0034
1665.00,0.0035
1664.00,0.0035
1663.00,0.0036
1662.00,0.0036
1661.00,0.0036
1660.00,0.0036
1659.00,0.0037
1658.00,0.0037
1657.00,0.0037
1656.00,0.0038
1655.00,0.0038
1654.00,0.0039
1653.00,0.0039
1652.00,0.0040
1651.00,0.0040
1650.00,0.0040
1649.00,0.0040
1648.00,0.0040
1647.00,0.0039
1646.00,0.0039
1645.00,0.0040
1644.00,0.0040
1643.00,0.0041
1642.00,0.0041
1641.00,0.0042
1640.00,0.0042
1639.00,0.0043
1638.00,0.0043
1637.00,0.0043
1636.00,0.0043
1635.00,0.0042
1634.00,0.0042
1633.00,0.0043
1632.00,0.0044
1631.00,0.0044
1630.00,0.0044
1629.00,0.0043
1628.00,0.0043
1627.00,0.0043
1626.00,0.0043
1625.00,0.0043
1624.00,0.0044
1623.00,0.0044
1622.00,0.0043
1621.00,0.0043
1620.00,0.0043
1619.00,0.0042
1618.00,0.0042
1617.00,0.0041
1616.00,0.0041
1615.00,0.0041
1614.00,0.0041
1613.00,0.0041
1612.00,0.0041
1611.00,0.0041
1610.00,0.0041
1609.00,0.0042
1608.00,0.0042
1607.00,0.0041
1606.00,0.0041
1605.00,0.0041
1604.00,0.0041
1603.00,0.0041
1602.00,0.0041
1601.00,0.0040
1600.00,0.0040
1599.00,0.0040
1598.00,0.0040
1597.00,0.0041
1596.00,0.0041
1595.00,0.0041
1594.00,0.0041
1593.00,0.0042
1592.00,0.0042
1591.00,0.0043
1590.00,0.0043
1589.00,0.0044
1588.00,0.0045
1587.00,0.0046
1586.00,0.0047
1585.00,0.0049
1584.00,0.0050
1583.00,0.0052
1582.00,0.0053
1581.00,0.0055
1580.00,0.0056
1579.00,0.0057
1578.00,0.0057
1577.00,0.0057
1576.00,0.0057
1575.00,0.0056
1574.00,0.0055
1573.00,0.0054
1572.00,0.0053
1571.00,0.0052
1570.00,0.0050
1569.00,0.0049
1568.00,0.0048
1567.00,0.0048
1566.00,0.0047
1565.00,0.0047
1564.00,0.0048
1563.00,0.0048
1562.00,0.0047
1561.00,0.0048
1560.00,0.0048
1559.00,0.0048
1558.00,0.0048
1557.00,0.0048
1556.00,0.0049
1555.00,0.0050
1554.00,0.0050
1553.00,0.0051
1552.00,0.0052
1551.00,0.0052
1550.00,0.0053
1549.00,0.0054
1548.00,0.0056
1547.00,0.0058
1546.00,0.0060
1545.00,0.0062
1544.00,0.0065
1543.00,0.0066
1542.00,0.0067
1541.00,0.0066
1540.00,0.0065
1539.00,0.0062
1538.00,0.0059
1537.00,0.0058
1536.00,0.0057
1535.00,0.0055
1534.00,0.0052
1533.00,0.0050
1532.00,0.0049
1531.00,0.0047
1530.00,0.0046
1529.00,0.0046
1528.00,0.0046
1527.00,0.0046
1526.00,0.0046
1525.00,0.0046
1524.00,0.0047
1523.00,0.0047
1522.00,0.0047
1521.00,0.0048
1520.00,0.0048
1519.00,0.0048
1518.00,0.0048
1517.00,0.0049
1516.00,0.0050
1515.00,0.0050
1514.00,0.0050
1513.00,0.0051
1512.00,0.0052
1511.00,0.0053
1510.00,0.0054
1509.00,0.0055
1508.00,0.0057
1507.00,0.0057
1506.00,0.0057
1505.00,0.0058
1504.00,0.0060
1503.00,0.0061
1502.00,0.0062
1501.00,0.0064
1500.00,0.0067
1499.00,0.0069
1498.00,0.0070
1497.00,0.0074
1496.00,0.0077
1495.00,0.0080
1494.00,0.0082
1493.00,0.0085
1492.00,0.0089
1491.00,0.0092
1490.00,0.0096
1489.00,0.0101
1488.00,0.0106
1487.00,0.0111
1486.00,0.0116
1485.00,0.0122
1484.00,0.0128
1483.00,0.0136
1482.00,0.0145
1481.00,0.0156
1480.00,0.0168
1479.00,0.0180
1478.00,0.0194
1477.00,0.0213
1476.00,0.0235
1475.00,0.0259
1474.00,0.0294
1473.00,0.0346
1472.00,0.0409
1471.00,0.0471
1470.00,0.0531
1469.00,0.0593
1468.00,0.0660
1467.00,0.0735
1466.00,0.0822
1465.00,0.0918
1464.00,0.1004
1463.00,0.1065
1462.00,0.1105
1461.00,0.1133
1460.00,0.1153
1459.00,0.1167
1458.00,0.1180
1457.00,0.1196
1456.00,0.1207
1455.00,0.1206
1454.00,0.1199
1453.00,0.1186
1452.00,0.1162
1451.00,0.1126
1450.00,0.1074
1449.00,0.0999
1448.00,0.0904
1447.00,0.0804
1446.00,0.0714
1445.00,0.0638
1444.00,0.0574
1443.00,0.0521
1442.00,0.0482
1441.00,0.0455
1440.00,0.0439
1439.00,0.0433
1438.00,0.0434
1437.00,0.0436
1436.00,0.0426
1435.00,0.0400
1434.00,0.0363
1433.00,0.0318
1432.00,0.0271
1431.00,0.0231
1430.00,0.0199
1429.00,0.0177
1428.00,0.0161
1427.00,0.0152
1426.00,0.0146
1425.00,0.0141
1424.00,0.0136
1423.00,0.0132
1422.00,0.0131
1421.00,0.0129
1420.00,0.0126
1419.00,0.0123
1418.00,0.0122
1417.00,0.0119
1416.00,0.0117
1415.00,0.0115
1414.00,0.0114
1413.00,0.0112
1412.00,0.0111
1411.00,0.0110
1410.00,0.0111
1409.00,0.0110
1408.00,0.0109
1407.00,0.0109
1406.00,0.0109
1405.00,0.0109
1404.00,0.0109
1403.00,0.0110
1402.00,0.0112
1401.00,0.0113
1400.00,0.0114
1399.00,0.0116
1398.00,0.0119
1397.00,0.0121
1396.00,0.0124
1395.00,0.0128
1394.00,0.0133
1393.00,0.0137
1392.00,0.0143
1391.00,0.0151
1390.00,0.0163
1389.00,0.0180
1388.00,0.0205
1387.00,0.0242
1386.00,0.0291
1385.00,0.0353
1384.00,0.0435
1383.00,0.0547
1382.00,0.0695
1381.00,0.0884
1380.00,0.1119
1379.00,0.1386
1378.00,0.1646
1377.00,0.1839
1376.00,0.1910
1375.00,0.1822
1374.00,0.1601
1373.00,0.1326
1372.00,0.1072
1371.00,0.0860
1370.00,0.0689
1369.00,0.0559
1368.00,0.0470
1367.00,0.0415
1366.00,0.0385
1365.00,0.0373
1364.00,0.0376
1363.00,0.0390
1362.00,0.0413
1361.00,0.0436
1360.00,0.0453
1359.00,0.0458
1358.00,0.0446
1357.00,0.0419
1356.00,0.0381
1355.00,0.0338
1354.00,0.0297
1353.00,0.0262
1352.00,0.0233
1351.00,0.0210
1350.00,0.0192
1349.00,0.0177
1348.00,0.0165
1347.00,0.0156
1346.00,0.0148
1345.00,0.0142
1344.00,0.0137
1343.00,0.0133
1342.00,0.0130
1341.00,0.0128
1340.00,0.0125
1339.00,0.0123
1338.00,0.0121
1337.00,0.0120
1336.00,0.0121
1335.00,0.0123
1334.00,0.0126
1333.00,0.0130
1332.00,0.0135
1331.00,0.0138
1330.00,0.0140
1329.00,0.0138
1328.00,0.0135
1327.00,0.0130
1326.00,0.0123
1325.00,0.0117
1324.00,0.0111
1323.00,0.0106
1322.00,0.0101
1321.00,0.0098
1320.00,0.0095
1319.00,0.0093
1318.00,0.0091
1317.00,0.0090
1316.00,0.0088
1315.00,0.0087
1314.00,0.0087
1313.00,0.0087
1312.00,0.0089
1311.00,0.0091
1310.00,0.0096
1309.00,0.0102
1308.00,0.0111
1307.00,0.0122
1306.00,0.0133
1305.00,0.0142
1304.00,0.0145
1303.00,0.0144
1302.00,0.0139
1301.00,0.0135
1300.00,0.0133
1299.00,0.0132
1298.00,0.0132
1297.00,0.0131
1296.00,0.0130
1295.00,0.0127
1294.00,0.0123
1293.00,0.0117
1292.00,0.0112
1291.00,0.0107
1290.00,0.0102
1289.00,0.0098
1288.00,0.0094
1287.00,0.0091
1286.00,0.0089
1285.00,0.0087
1284.00,0.0086
1283.00,0.0085
1282.00,0.0083
1281.00,0.0082
1280.00,0.0080
1279.00,0.0079
1278.00,0.0078
1277.00,0.0077
1276.00,0.0077
1275.00,0.0077
1274.00,0.0077
1273.00,0.0077
1272.00,0.0078
1271.00,0.0078
1270.00,0.0079
1269.00,0.0080
1268.00,0.0081
1267.00,0.0083
1266.00,0.0084
1265.00,0.0086
1264.00,0.0088
1263.00,0.0091
1262.00,0.0095
1261.00,0.0100
1260.00,0.0106
1259.00,0.0113
1258.00,0.0121
1257.00,0.0127
1256.00,0.0130
1255.00,0.0129
1254.00,0.0124
1253.00,0.0116
1252.00,0.0107
1251.00,0.0100
1250.00,0.0095
1249.00,0.0092
1248.00,0.0089
1247.00,0.0087
1246.00,0.0086
1245.00,0.0085
1244.00,0.0084
1243.00,0.0084
1242.00,0.0083
1241.00,0.0082
1240.00,0.0082
1239.00,0.0081
1238.00,0.0081
1237.00,0.0081
1236.00,0.0081
1235.00,0.0081
1234.00,0.0082
1233.00,0.0082
1232.00,0.0081
1231.00,0.0081
1230.00,0.0081
1229.00,0.0081
1228.00,0.0083
1227.00,0.0085
1226.00,0.0088
1225.00,0.0091
1224.00,0.0093
1223.00,0.0096
1222.00,0.0098
1221.00,0.0100
1220.00,0.0102
1219.00,0.0102
1218.00,0.0102
1217.00,0.0101
1216.00,0.0099
1215.00,0.0096
1214.00,0.0094
1213.00,0.0091
1212.00,0.0088
1211.00,0.0086
1210.00,0.0084
1209.00,0.0082
1208.00,0.0081
1207.00,0.0080
1206.00,0.0080
1205.00,0.0080
1204.00,0.0080
1203.00,0.0079
1202.00,0.0079
1201.00,0.0078
1200.00,0.0077
1199.00,0.0077
1198.00,0.0077
1197.00,0.0077
1196.00,0.0077
1195.00,0.0078
1194.00,0.0079
1193.00,0.0079
1192.00,0.0079
1191.00,0.0079
1190.00,0.0079
1189.00,0.0080
1188.00,0.0080
1187.00,0.0081
1186.00,0.0082
1185.00,0.0082
1184.00,0.0084
1183.00,0.0085
1182.00,0.0087
1181.00,0.0089
1180.00,0.0092
1179.00,0.0097
1178.00,0.0103
1177.00,0.0111
1176.00,0.0123
1175.00,0.0138
1174.00,0.0159
1173.00,0.0184
1172.00,0.0214
1171.00,0.0247
1170.00,0.0280
1169.00,0.0307
1168.00,0.0324
1167.00,0.0329
1166.00,0.0323
1165.00,0.0308
1164.00,0.0289
1163.00,0.0271
1162.00,0.0254
1161.00,0.0239
1160.00,0.0228
1159.00,0.0219
1158.00,0.0212
1157.00,0.0206
1156.00,0.0203
1155.00,0.0201
1154.00,0.0198
1153.00,0.0194
1152.00,0.0188
1151.00,0.0182
1150.00,0.0174
1149.00,0.0166
1148.00,0.0156
1147.00,0.0147
1146.00,0.0138
1145.00,0.0130
1144.00,0.0122
1143.00,0.0116
1142.00,0.0110
1141.00,0.0104
1140.00,0.0099
1139.00,0.0094
1138.00,0.0090
1137.00,0.0087
1136.00,0.0084
1135.00,0.0082
1134.00,0.0081
1133.00,0.0080
1132.00,0.0081
1131.00,0.0081
1130.00,0.0082
1129.00,0.0083
1128.00,0.0085
1127.00,0.0086
1126.00,0.0087
1125.00,0.0087
1124.00,0.0087
1123.00,0.0086
1122.00,0.0086
1121.00,0.0085
1120.00,0.0085
1119.00,0.0085
1118.00,0.0086
1117.00,0.0088
1116.00,0.0089
1115.00,0.0091
1114.00,0.0093
1113.00,0.0094
1112.00,0.0096
1111.00,0.0097
1110.00,0.0099
1109.00,0.0103
1108.00,0.0108
1107.00,0.0115
1106.00,0.0123
1105.00,0.0129
1104.00,0.0135
1103.00,0.0139
1102.00,0.0140
1101.00,0.0137
1100.00,0.0131
1099.00,0.0124
1098.00,0.0116
1097.00,0.0110
1096.00,0.0104
1095.00,0.0099
1094.00,0.0095
1093.00,0.0092
1092.00,0.0089
1091.00,0.0087
1090.00,0.0086
1089.00,0.0085
1088.00,0.0084
1087.00,0.0083
1086.00,0.0083
1085.00,0.0082
1084.00,0.0081
1083.00,0.0080
1082.00,0.0079
1081.00,0.0077
1080.00,0.0076
1079.00,0.0076
1078.00,0.0075
1077.00,0.0075
1076.00,0.0074
1075.00,0.0074
1074.00,0.0074
1073.00,0.0074
1072.00,0.0075
1071.00,0.0075
1070.00,0.0076
1069.00,0.0077
1068.00,0.0078
1067.00,0.0078
1066.00,0.0077
1065.00,0.0076
1064.00,0.0075
1063.00,0.0075
1062.00,0.0076
1061.00,0.0077
1060.00,0.0078
1059.00,0.0079
1058.00,0.0079
1057.00,0.0080
1056.00,0.0081
1055.00,0.0082
1054.00,0.0083
1053.00,0.0085
1052.00,0.0086
1051.00,0.0087
1050.00,0.0088
1049.00,0.0090
1048.00,0.0093
1047.00,0.0095
1046.00,0.0098
1045.00,0.0099
1044.00,0.0099
1043.00,0.0098
1042.00,0.0096
1041.00,0.0093
1040.00,0.0091
1039.00,0.0091
1038.00,0.0091
1037.00,0.0092
1036.00,0.0093
1035.00,0.0093
1034.00,0.0093
1033.00,0.0093
1032.00,0.0093
1031.00,0.0093
1030.00,0.0093
1029.00,0.0091
1028.00,0.0089
1027.00,0.0087
1026.00,0.0086
1025.00,0.0085
1024.00,0.0085
1023.00,0.0086
1022.00,0.0086
1021.00,0.0087
1020.00,0.0088
1019.00,0.0089
1018.00,0.0090
1017.00,0.0093
1016.00,0.0095
1015.00,0.0098
1014.00,0.0102
1013.00,0.0106
1012.00,0.0110
1011.00,0.0113
1010.00,0.0117
1009.00,0.0121
1008.00,0.0126
1007.00,0.0132
1006.00,0.0140
1005.00,0.0152
1004.00,0.0168
1003.00,0.0190
1002.00,0.0221
1001.00,0.0257
1000.00,0.0296
999.00,0.0328
998.00,0.0344
997.00,0.0338
996.00,0.0311
995.00,0.0273
994.00,0.0233
993.00,0.0198
992.00,0.0170
991.00,0.0150
990.00,0.0135
989.00,0.0126
988.00,0.0120
987.00,0.0118
986.00,0.0119
985.00,0.0122
984.00,0.0128
983.00,0.0137
982.00,0.0149
981.00,0.0166
980.00,0.0188
979.00,0.0216
978.00,0.0250
977.00,0.0292
976.00,0.0337
975.00,0.0381
974.00,0.0413
973.00,0.0426
972.00,0.0412
971.00,0.0374
970.00,0.0323
969.00,0.0270
968.00,0.0225
967.00,0.0189
966.00,0.0164
965.00,0.0145
964.00,0.0131
963.00,0.0120
962.00,0.0112
961.00,0.0106
960.00,0.0100
959.00,0.0096
958.00,0.0092
957.00,0.0090
956.00,0.0088
955.00,0.0086
954.00,0.0085
953.00,0.0084
952.00,0.0083
951.00,0.0083
950.00,0.0083
949.00,0.0083
948.00,0.0083
947.00,0.0083
946.00,0.0085
945.00,0.0087
944.00,0.0090
943.00,0.0093
942.00,0.0095
941.00,0.0095
940.00,0.0094
939.00,0.0091
938.00,0.0087
937.00,0.0082
936.00,0.0077
935.00,0.0072
934.00,0.0069
933.00,0.0067
932.00,0.0066
931.00,0.0065
930.00,0.0065
929.00,0.0065
928.00,0.0064
927.00,0.0063
926.00,0.0063
925.00,0.0063
924.00,0.0063
923.00,0.0064
922.00,0.0064
921.00,0.0065
920.00,0.0066
919.00,0.0066
918.00,0.0067
917.00,0.0068
916.00,0.0068
915.00,0.0069
914.00,0.0070
913.00,0.0071
912.00,0.0073
911.00,0.0074
910.00,0.0076
909.00,0.0078
908.00,0.0081
907.00,0.0085
906.00,0.0092
905.00,0.0102
904.00,0.0115
903.00,0.0133
902.00,0.0153
901.00,0.0171
900.00,0.0184
899.00,0.0187
898.00,0.0180
897.00,0.0164
896.00,0.0145
895.00,0.0126
894.00,0.0110
893.00,0.0098
892.00,0.0090
891.00,0.0084
890.00,0.0079
889.00,0.0074
888.00,0.0072
887.00,0.0072
886.00,0.0072
885.00,0.0073
884.00,0.0074
883.00,0.0074
882.00,0.0074
881.00,0.0074
880.00,0.0074
879.00,0.0075
878.00,0.0075
877.00,0.0074
876.00,0.0073
875.00,0.0071
874.00,0.0071
873.00,0.0071
872.00,0.0072
871.00,0.0074
870.00,0.0075
869.00,0.0075
868.00,0.0074
867.00,0.0074
866.00,0.0074
865.00,0.0074
864.00,0.0074
863.00,0.0075
862.00,0.0077
861.00,0.0079
860.00,0.0082
859.00,0.0083
858.00,0.0085
857.00,0.0085
856.00,0.0086
855.00,0.0088
854.00,0.0091
853.00,0.0095
852.00,0.0099
851.00,0.0102
850.00,0.0106
849.00,0.0112
848.00,0.0123
847.00,0.0138
846.00,0.0162
845.00,0.0195
844.00,0.0241
843.00,0.0290
842.00,0.0328
841.00,0.0338
840.00,0.0316
839.00,0.0272
838.00,0.0223
837.00,0.0184
836.00,0.0158
835.00,0.0143
834.00,0.0134
833.00,0.0128
832.00,0.0122
831.00,0.0116
830.00,0.0111
829.00,0.0106
828.00,0.0103
827.00,0.0101
826.00,0.0102
825.00,0.0103
824.00,0.0104
823.00,0.0104
822.00,0.0104
821.00,0.0104
820.00,0.0105
819.00,0.0107
818.00,0.0111
817.00,0.0118
816.00,0.0126
815.00,0.0136
814.00,0.0148
813.00,0.0162
812.00,0.0177
811.00,0.0193
810.00,0.0206
809.00,0.0212
808.00,0.0211
807.00,0.0201
806.00,0.0187
805.00,0.0170
804.00,0.0154
803.00,0.0140
802.00,0.0129
801.00,0.0120
800.00,0.0112
799.00,0.0106
798.00,0.0101
797.00,0.0097
796.00,0.0094
795.00,0.0092
794.00,0.0090
793.00,0.0088
792.00,0.0086
791.00,0.0082
790.00,0.0079
789.00,0.0077
788.00,0.0075
787.00,0.0073
786.00,0.0071
785.00,0.0068
784.00,0.0065
783.00,0.0063
782.00,0.0062
781.00,0.0061
780.00,0.0061
779.00,0.0060
778.00,0.0060
777.00,0.0060
776.00,0.0059
775.00,0.0058
774.00,0.0059
773.00,0.0061
772.00,0.0064
771.00,0.0068
770.00,0.0071
769.00,0.0074
768.00,0.0076
767.00,0.0077
766.00,0.0075
765.00,0.0073
764.00,0.0071
763.00,0.0068
762.00,0.0066
761.00,0.0063
760.00,0.0062
759.00,0.0061
758.00,0.0059
757.00,0.0056
756.00,0.0054
755.00,0.0052
754.00,0.0051
753.00,0.0051
752.00,0.0052
751.00,0.0052
750.00,0.0051
749.00,0.0051
748.00,0.0052
747.00,0.0054
746.00,0.0056
745.00,0.0059
744.00,0.0061
743.00,0.0063
742.00,0.0063
741.00,0.0063
740.00,0.0063
739.00,0.0063
738.00,0.0065
737.00,0.0068
736.00,0.0070
735.00,0.0072
734.00,0.0073
733.00,0.0074
732.00,0.0075
731.00,0.0076
730.00,0.0077
729.00,0.0077
728.00,0.0076
727.00,0.0075
726.00,0.0073
725.00,0.0072
724.00,0.0071
723.00,0.0070
722.00,0.0068
721.00,0.0065
720.00,0.0063
719.00,0.0061
718.00,0.0059
717.00,0.0058
716.00,0.0058
715.00,0.0058
714.00,0.0058
713.00,0.0058
712.00,0.0058
711.00,0.0058
710.00,0.0059
709.00,0.0060
708.00,0.0061
707.00,0.0061
706.00,0.0061
705.00,0.0060
704.00,0.0060
703.00,0.0059
702.00,0.0058
701.00,0.0057
700.00,0.0055
699.00,0.0055
698.00,0.0054
697.00,0.0053
696.00,0.0052
695.00,0.0052
694.00,0.0053
693.00,0.0055
692.00,0.0055
691.00,0.0054
690.00,0.0052
689.00,0.0050
688.00,0.0049
687.00,0.0050
686.00,0.0052
685.00,0.0054
684.00,0.0055
683.00,0.0055
682.00,0.0055
681.00,0.0055
680.00,0.0055
679.00,0.0055
678.00,0.0054
677.00,0.0054
676.00,0.0054
675.00,0.0055
674.00,0.0055
673.00,0.0055
672.00,0.0054
671.00,0.0054
670.00,0.0056
669.00,0.0060
668.00,0.0063
667.00,0.0063
666.00,0.0059
665.00,0.0056
664.00,0.0053
663.00,0.0051
662.00,0.0049
661.00,0.0049
660.00,0.0049
659.00,0.0051
658.00,0.0053
657.00,0.0054
656.00,0.0054
655.00,0.0053
654.00,0.0052
653.00,0.0053
652.00,0.0054
651.00,0.0055
650.00,0.0054
649.00,0.0054
648.00,0.0053
647.00,0.0054
646.00,0.0056
645.00,0.0057
644.00,0.0057
643.00,0.0057
642.00,0.0058
641.00,0.0059
640.00,0.0062
639.00,0.0063
638.00,0.0062
637.00,0.0059
636.00,0.0057
635.00,0.0056
634.00,0.0057
633.00,0.0058
632.00,0.0057
631.00,0.0056
630.00,0.0054
629.00,0.0052
628.00,0.0051
627.00,0.0049
626.00,0.0048
625.00,0.0048
624.00,0.0050
623.00,0.0052
622.00,0.0055
621.00,0.0059
620.00,0.0063
619.00,0.0065
618.00,0.0066
617.00,0.0066
616.00,0.0064
615.00,0.0062
614.00,0.0060
613.00,0.0057
612.00,0.0056
611.00,0.0056
610.00,0.0058
609.00,0.0061
608.00,0.0062
607.00,0.0060
606.00,0.0057
605.00,0.0053
604.00,0.0052
603.00,0.0053
602.00,0.0055
601.00,0.0058
600.00,0.0059
599.00,0.0060
598.00,0.0060
597.00,0.0061
596.00,0.0063
595.00,0.0064
594.00,0.0064
593.00,0.0064
592.00,0.0064
591.00,0.0062
590.00,0.0059
589.00,0.0057
588.00,0.0057
587.00,0.0058
586.00,0.0060
585.00,0.0061
584.00,0.0064
583.00,0.0068
582.00,0.0070
581.00,0.0069
580.00,0.0066
579.00,0.0063
578.00,0.0061
577.00,0.0062
576.00,0.0063
575.00,0.0064
574.00,0.0065
573.00,0.0065
572.00,0.0063
571.00,0.0060
570.00,0.0056
569.00,0.0056
568.00,0.0059
567.00,0.0063
566.00,0.0065
565.00,0.0065
564.00,0.0064
563.00,0.0062
562.00,0.0060
561.00,0.0060
560.00,0.0062
559.00,0.0065
558.00,0.0068
557.00,0.0067
556.00,0.0066
555.00,0.0065
554.00,0.0065
553.00,0.0065
552.00,0.0064
551.00,0.0062
550.00,0.0062
549.00,0.0063
548.00,0.0066
547.00,0.0070
546.00,0.0073
545.00,0.0074
544.00,0.0072
543.00,0.0067
542.00,0.0063
541.00,0.0061
540.00,0.0062
539.00,0.0063
538.00,0.0064
537.00,0.0068
536.00,0.0073
535.00,0.0077
534.00,0.0079
533.00,0.0078
532.00,0.0079
531.00,0.0082
530.00,0.0084
529.00,0.0084
528.00,0.0082
527.00,0.0080
526.00,0.0078
525.00,0.0078
524.00,0.0077
523.00,0.0077
522.00,0.0077
521.00,0.0076
520.00,0.0076
519.00,0.0078
518.00,0.0080
517.00,0.0079
516.00,0.0077
515.00,0.0075
514.00,0.0074
513.00,0.0072
512.00,0.0071
511.00,0.0070
510.00,0.0070
509.00,0.0070
508.00,0.0069
507.00,0.0067
506.00,0.0065
505.00,0.0063
504.00,0.0066
503.00,0.0073
502.00,0.0081
501.00,0.0083
500.00,0.0078
499.00,0.0068
498.00,0.0060
497.00,0.0057
496.00,0.0057
495.00,0.0059
494.00,0.0062
493.00,0.0066
492.00,0.0067
491.00,0.0066
490.00,0.0063
489.00,0.0063
488.00,0.0066
487.00,0.0072
486.00,0.0078
485.00,0.0079
484.00,0.0074
483.00,0.0066
482.00,0.0058
481.00,0.0054
480.00,0.0053
479.00,0.0051
478.00,0.0049
477.00,0.0048
476.00,0.0052
475.00,0.0060
474.00,0.0069
473.00,0.0076
472.00,0.0078
471.00,0.0079
470.00,0.0079
469.00,0.0080
468.00,0.0083
467.00,0.0088
466.00,0.0096
465.00,0.0104
464.00,0.0110
463.00,0.0112
462.00,0.0117
461.00,0.0126
460.00,0.0142
459.00,0.0157
458.00,0.0164
457.00,0.0158
456.00,0.0142
455.00,0.0123
454.00,0.0108
453.00,0.0099
452.00,0.0094
451.00,0.0087
450.00,0.0077
