Created as New Dataset,Sample 022 By Administrator Date Wednesday, September 10 2025
cm-1,A
4000.00,0.0025
3999.00,0.0025
3998.00,0.0025
3997.00,0.0024
3996.00,0.0024
3995.00,0.0024
3994.00,0.0024
3993.00,0.0024
3992.00,0.0024
3991.00,0.0024
3990.00,0.0024
3989.00,0.0024
3988.00,0.0024
3987.00,0.0024
3986.00,0.0024
3985.00,0.0024
3984.00,0.0023
3983.00,0.0023
3982.00,0.0023
3981.00,0.0022
3980.00,0.0022
3979.00,0.0022
3978.00,0.0022
3977.00,0.0022
3976.00,0.0022
3975.00,0.0023
3974.00,0.0023
3973.00,0.0023
3972.00,0.0023
3971.00,0.0023
3970.00,0.0023
3969.00,0.0023
3968.00,0.0023
3967.00,0.0023
3966.00,0.0023
3965.00,0.0023
3964.00,0.0023
3963.00,0.0023
3962.00,0.0023
3961.00,0.0023
3960.00,0.0023
3959.00,0.0023
3958.00,0.0023
3957.00,0.0023
3956.00,0.0023
3955.00,0.0023
3954.00,0.0022
3953.00,0.0022
3952.00,0.0022
3951.00,0.0022
3950.00,0.0022
3949.00,0.0022
3948.00,0.0022
3947.00,0.0022
3946.00,0.0022
3945.00,0.0022
3944.00,0.0022
3943.00,0.0022
3942.00,0.0022
3941.00,0.0022
3940.00,0.0022
3939.00,0.0022
3938.00,0.0022
3937.00,0.0022
3936.00,0.0022
3935.00,0.0022
3934.00,0.0022
3933.00,0.0022
3932.00,0.0023
3931.00,0.0023
3930.00,0.0023
3929.00,0.0023
3928.00,0.0023
3927.00,0.0022
3926.00,0.0022
3925.00,0.0022
3924.00,0.0022
3923.00,0.0022
3922.00,0.0022
3921.00,0.0022
3920.00,0.0022
3919.00,0.0022
3918.00,0.0022
3917.00,0.0022
3916.00,0.0022
3915.00,0.0023
3914.00,0.0023
3913.00,0.0023
3912.00,0.0024
3911.00,0.0024
3910.00,0.0023
3909.00,0.0023
3908.00,0.0023
3907.00,0.0023
3906.00,0.0023
3905.00,0.0023
3904.00,0.0023
3903.00,0.0023
3902.00,0.0023
3901.00,0.0023
3900.00,0.0023
3899.00,0.0023
3898.00,0.0023
3897.00,0.0023
3896.00,0.0022
3895.00,0.0022
3894.00,0.0022
3893.00,0.0022
3892.00,0.0022
3891.00,0.0023
3890.00,0.0023
3889.00,0.0023
3888.00,0.0023
3887.00,0.0023
3886.00,0.0023
3885.00,0.0023
3884.00,0.0023
3883.00,0.0023
3882.00,0.0023
3881.00,0.0023
3880.00,0.0023
3879.00,0.0023
3878.00,0.0023
3877.00,0.0023
3876.00,0.0022
3875.00,0.0022
3874.00,0.0023
3873.00,0.0023
3872.00,0.0023
3871.00,0.0023
3870.00,0.0023
3869.00,0.0024
3868.00,0.0024
3867.00,0.0024
3866.00,0.0024
3865.00,0.0023
3864.00,0.0023
3863.00,0.0022
3862.00,0.0022
3861.00,0.0022
3860.00,0.0022
3859.00,0.0023
3858.00,0.0024
3857.00,0.0024
3856.00,0.0024
3855.00,0.0024
3854.00,0.0025
3853.00,0.0025
3852.00,0.0025
3851.00,0.0024
3850.00,0.0023
3849.00,0.0023
3848.00,0.0023
3847.00,0.0022
3846.00,0.0023
3845.00,0.0023
3844.00,0.0023
3843.00,0.0024
3842.00,0.0024
3841.00,0.0025
3840.00,0.0025
3839.00,0.0025
3838.00,0.0025
3837.00,0.0025
3836.00,0.0024
3835.00,0.0024
3834.00,0.0024
3833.00,0.0023
3832.00,0.0023
3831.00,0.0023
3830.00,0.0023
3829.00,0.0023
3828.00,0.0023
3827.00,0.0023
3826.00,0.0023
3825.00,0.0023
3824.00,0.0023
3823.00,0.0023
3822.00,0.0024
3821.00,0.0024
3820.00,0.0024
3819.00,0.0024
3818.00,0.0024
3817.00,0.0023
3816.00,0.0023
3815.00,0.0024
3814.00,0.0023
3813.00,0.0023
3812.00,0.0023
3811.00,0.0023
3810.00,0.0023
3809.00,0.0023
3808.00,0.0023
3807.00,0.0024
3806.00,0.0024
3805.00,0.0024
3804.00,0.0024
3803.00,0.0024
3802.00,0.0025
3801.00,0.0025
3800.00,0.0025
3799.00,0.0024
3798.00,0.0024
3797.00,0.0023
3796.00,0.0023
3795.00,0.0023
3794.00,0.0022
3793.00,0.0022
3792.00,0.0022
3791.00,0.0022
3790.00,0.0022
3789.00,0.0022
3788.00,0.0023
3787.00,0.0023
3786.00,0.0023
3785.00,0.0023
3784.00,0.0023
3783.00,0.0024
3782.00,0.0023
3781.00,0.0023
3780.00,0.0023
3779.00,0.0023
3778.00,0.0023
3777.00,0.0022
3776.00,0.0022
3775.00,0.0022
3774.00,0.0023
3773.00,0.0023
3772.00,0.0023
3771.00,0.0023
3770.00,0.0023
3769.00,0.0023
3768.00,0.0024
3767.00,0.0024
3766.00,0.0024
3765.00,0.0024
3764.00,0.0025
3763.00,0.0025
3762.00,0.0024
3761.00,0.0024
3760.00,0.0025
3759.00,0.0025
3758.00,0.0025
3757.00,0.0025
3756.00,0.0025
3755.00,0.0025
3754.00,0.0026
3753.00,0.0026
3752.00,0.0026
3751.00,0.0026
3750.00,0.0025
3749.00,0.0025
3748.00,0.0025
3747.00,0.0025
3746.00,0.0024
3745.00,0.0024
3744.00,0.0024
3743.00,0.0024
3742.00,0.0023
3741.00,0.0023
3740.00,0.0023
3739.00,0.0023
3738.00,0.0024
3737.00,0.0024
3736.00,0.0024
3735.00,0.0023
3734.00,0.0022
3733.00,0.0022
3732.00,0.0022
3731.00,0.0022
3730.00,0.0022
3729.00,0.0022
3728.00,0.0022
3727.00,0.0021
3726.00,0.0021
3725.00,0.0021
3724.00,0.0021
3723.00,0.0021
3722.00,0.0022
3721.00,0.0022
3720.00,0.0022
3719.00,0.0022
3718.00,0.0022
3717.00,0.0022
3716.00,0.0022
3715.00,0.0022
3714.00,0.0022
3713.00,0.0022
3712.00,0.0022
3711.00,0.0022
3710.00,0.0022
3709.00,0.0022
3708.00,0.0021
3707.00,0.0020
3706.00,0.0020
3705.00,0.0020
3704.00,0.0020
3703.00,0.0020
3702.00,0.0020
3701.00,0.0020
3700.00,0.0020
3699.00,0.0020
3698.00,0.0021
3697.00,0.0021
3696.00,0.0022
3695.00,0.0022
3694.00,0.0023
3693.00,0.0023
3692.00,0.0023
3691.00,0.0022
3690.00,0.0022
3689.00,0.0022
3688.00,0.0022
3687.00,0.0021
3686.00,0.0021
3685.00,0.0021
3684.00,0.0020
3683.00,0.0021
3682.00,0.0021
3681.00,0.0022
3680.00,0.0023
3679.00,0.0024
3678.00,0.0024
3677.00,0.0024
3676.00,0.0024
3675.00,0.0023
3674.00,0.0023
3673.00,0.0023
3672.00,0.0023
3671.00,0.0023
3670.00,0.0022
3669.00,0.0022
3668.00,0.0021
3667.00,0.0021
3666.00,0.0021
3665.00,0.0021
3664.00,0.0022
3663.00,0.0022
3662.00,0.0022
3661.00,0.0022
3660.00,0.0022
3659.00,0.0022
3658.00,0.0021
3657.00,0.0022
3656.00,0.0022
3655.00,0.0022
3654.00,0.0022
3653.00,0.0022
3652.00,0.0023
3651.00,0.0023
3650.00,0.0023
3649.00,0.0023
3648.00,0.0023
3647.00,0.0022
3646.00,0.0022
3645.00,0.0022
3644.00,0.0022
3643.00,0.0023
3642.00,0.0023
3641.00,0.0022
3640.00,0.0022
3639.00,0.0022
3638.00,0.0022
3637.00,0.0022
3636.00,0.0023
3635.00,0.0023
3634.00,0.0023
3633.00,0.0024
3632.00,0.0023
3631.00,0.0023
3630.00,0.0022
3629.00,0.0022
3628.00,0.0023
3627.00,0.0023
3626.00,0.0023
3625.00,0.0024
3624.00,0.0024
3623.00,0.0024
3622.00,0.0025
3621.00,0.0025
3620.00,0.0024
3619.00,0.0024
3618.00,0.0024
3617.00,0.0024
3616.00,0.0024
3615.00,0.0024
3614.00,0.0025
3613.00,0.0025
3612.00,0.0026
3611.00,0.0026
3610.00,0.0026
3609.00,0.0026
3608.00,0.0025
3607.00,0.0025
3606.00,0.0025
3605.00,0.0025
3604.00,0.0026
3603.00,0.0026
3602.00,0.0027
3601.00,0.0027
3600.00,0.0028
3599.00,0.0028
3598.00,0.0028
3597.00,0.0028
3596.00,0.0028
3595.00,0.0028
3594.00,0.0027
3593.00,0.0027
3592.00,0.0027
3591.00,0.0027
3590.00,0.0028
3589.00,0.0028
3588.00,0.0028
3587.00,0.0029
3586.00,0.0029
3585.00,0.0029
3584.00,0.0029
3583.00,0.0030
3582.00,0.0030
3581.00,0.0030
3580.00,0.0029
3579.00,0.0029
3578.00,0.0030
3577.00,0.0030
3576.00,0.0031
3575.00,0.0031
3574.00,0.0031
3573.00,0.0031
3572.00,0.0032
3571.00,0.0032
3570.00,0.0032
3569.00,0.0032
3568.00,0.0032
3567.00,0.0032
3566.00,0.0032
3565.00,0.0032
3564.00,0.0033
3563.00,0.0033
3562.00,0.0033
3561.00,0.0034
3560.00,0.0034
3559.00,0.0034
3558.00,0.0034
3557.00,0.0034
3556.00,0.0035
3555.00,0.0035
3554.00,0.0036
3553.00,0.0037
3552.00,0.0037
3551.00,0.0037
3550.00,0.0037
3549.00,0.0037
3548.00,0.0037
3547.00,0.0038
3546.00,0.0038
3545.00,0.0038
3544.00,0.0038
3543.00,0.0038
3542.00,0.0038
3541.00,0.0038
3540.00,0.0038
3539.00,0.0039
3538.00,0.0040
3537.00,0.0040
3536.00,0.0041
3535.00,0.0041
3534.00,0.0041
3533.00,0.0042
3532.00,0.0042
3531.00,0.0042
3530.00,0.0042
3529.00,0.0042
3528.00,0.0042
3527.00,0.0043
3526.00,0.0043
3525.00,0.0043
3524.00,0.0043
3523.00,0.0043
3522.00,0.0044
3521.00,0.0044
3520.00,0.0045
3519.00,0.0045
3518.00,0.0045
3517.00,0.0045
3516.00,0.0045
3515.00,0.0045
3514.00,0.0045
3513.00,0.0046
3512.00,0.0046
3511.00,0.0047
3510.00,0.0048
3509.00,0.0048
3508.00,0.0048
3507.00,0.0048
3506.00,0.0048
3505.00,0.0048
3504.00,0.0048
3503.00,0.0048
3502.00,0.0049
3501.00,0.0049
3500.00,0.0049
3499.00,0.0049
3498.00,0.0050
3497.00,0.0050
3496.00,0.0051
3495.00,0.0051
3494.00,0.0051
3493.00,0.0051
3492.00,0.0051
3491.00,0.0052
3490.00,0.0052
3489.00,0.0052
3488.00,0.0052
3487.00,0.0052
3486.00,0.0052
3485.00,0.0052
3484.00,0.0053
3483.00,0.0053
3482.00,0.0054
3481.00,0.0054
3480.00,0.0055
3479.00,0.0055
3478.00,0.0055
3477.00,0.0055
3476.00,0.0055
3475.00,0.0056
3474.00,0.0056
3473.00,0.0056
3472.00,0.0056
3471.00,0.0056
3470.00,0.0057
3469.00,0.0057
3468.00,0.0057
3467.00,0.0057
3466.00,0.0058
3465.00,0.0058
3464.00,0.0059
3463.00,0.0059
3462.00,0.0059
3461.00,0.0060
3460.00,0.0060
3459.00,0.0060
3458.00,0.0060
3457.00,0.0060
3456.00,0.0060
3455.00,0.0061
3454.00,0.0061
3453.00,0.0062
3452.00,0.0062
3451.00,0.0062
3450.00,0.0062
3449.00,0.0062
3448.00,0.0062
3447.00,0.0062
3446.00,0.0063
3445.00,0.0063
3444.00,0.0063
3443.00,0.0064
3442.00,0.0064
3441.00,0.0065
3440.00,0.0065
3439.00,0.0065
3438.00,0.0065
3437.00,0.0066
3436.00,0.0066
3435.00,0.0066
3434.00,0.0066
3433.00,0.0066
3432.00,0.0065
3431.00,0.0066
3430.00,0.0066
3429.00,0.0067
3428.00,0.0068
3427.00,0.0069
3426.00,0.0069
3425.00,0.0070
3424.00,0.0070
3423.00,0.0070
3422.00,0.0070
3421.00,0.0070
3420.00,0.0070
3419.00,0.0070
3418.00,0.0071
3417.00,0.0071
3416.00,0.0071
3415.00,0.0071
3414.00,0.0071
3413.00,0.0072
3412.00,0.0072
3411.00,0.0072
3410.00,0.0072
3409.00,0.0072
3408.00,0.0073
3407.00,0.0073
3406.00,0.0074
3405.00,0.0074
3404.00,0.0075
3403.00,0.0075
3402.00,0.0075
3401.00,0.0075
3400.00,0.0074
3399.00,0.0074
3398.00,0.0074
3397.00,0.0074
3396.00,0.0075
3395.00,0.0075
3394.00,0.0076
3393.00,0.0076
3392.00,0.0077
3391.00,0.0077
3390.00,0.0077
3389.00,0.0077
3388.00,0.0077
3387.00,0.0077
3386.00,0.0077
3385.00,0.0077
3384.00,0.0076
3383.00,0.0076
3382.00,0.0076
3381.00,0.0076
3380.00,0.0076
3379.00,0.0077
3378.00,0.0077
3377.00,0.0077
3376.00,0.0077
3375.00,0.0078
3374.00,0.0078
3373.00,0.0078
3372.00,0.0078
3371.00,0.0077
3370.00,0.0077
3369.00,0.0077
3368.00,0.0077
3367.00,0.0077
3366.00,0.0077
3365.00,0.0078
3364.00,0.0078
3363.00,0.0078
3362.00,0.0078
3361.00,0.0078
3360.00,0.0078
3359.00,0.0078
3358.00,0.0078
3357.00,0.0079
3356.00,0.0079
3355.00,0.0079
3354.00,0.0079
3353.00,0.0079
3352.00,0.0079
3351.00,0.0079
3350.00,0.0079
3349.00,0.0079
3348.00,0.0079
3347.00,0.0079
3346.00,0.0079
3345.00,0.0080
3344.00,0.0080
3343.00,0.0080
3342.00,0.0079
3341.00,0.0079
3340.00,0.0079
3339.00,0.0080
3338.00,0.0080
3337.00,0.0079
3336.00,0.0079
3335.00,0.0079
3334.00,0.0079
3333.00,0.0079
3332.00,0.0079
3331.00,0.0079
3330.00,0.0079
3329.00,0.0079
3328.00,0.0079
3327.00,0.0079
3326.00,0.0079
3325.00,0.0079
3324.00,0.0079
3323.00,0.0079
3322.00,0.0079
3321.00,0.0079
3320.00,0.0079
3319.00,0.0079
3318.00,0.0080
3317.00,0.0080
3316.00,0.0080
3315.00,0.0080
3314.00,0.0080
3313.00,0.0079
3312.00,0.0079
3311.00,0.0078
3310.00,0.0078
3309.00,0.0078
3308.00,0.0079
3307.00,0.0079
3306.00,0.0079
3305.00,0.0079
3304.00,0.0079
3303.00,0.0079
3302.00,0.0079
3301.00,0.0079
3300.00,0.0079
3299.00,0.0079
3298.00,0.0078
3297.00,0.0078
3296.00,0.0078
3295.00,0.0078
3294.00,0.0077
3293.00,0.0077
3292.00,0.0077
3291.00,0.0077
3290.00,0.0077
3289.00,0.0077
3288.00,0.0076
3287.00,0.0076
3286.00,0.0076
3285.00,0.0076
3284.00,0.0076
3283.00,0.0076
3282.00,0.0076
3281.00,0.0076
3280.00,0.0076
3279.00,0.0076
3278.00,0.0076
3277.00,0.0075
3276.00,0.0075
3275.00,0.0075
3274.00,0.0075
3273.00,0.0075
3272.00,0.0075
3271.00,0.0074
3270.00,0.0074
3269.00,0.0074
3268.00,0.0074
3267.00,0.0074
3266.00,0.0073
3265.00,0.0073
3264.00,0.0073
3263.00,0.0072
3262.00,0.0072
3261.00,0.0072
3260.00,0.0071
3259.00,0.0071
3258.00,0.0071
3257.00,0.0071
3256.00,0.0071
3255.00,0.0071
3254.00,0.0070
3253.00,0.0070
3252.00,0.0070
3251.00,0.0070
3250.00,0.0070
3249.00,0.0070
3248.00,0.0070
3247.00,0.0070
3246.00,0.0070
3245.00,0.0069
3244.00,0.0069
3243.00,0.0068
3242.00,0.0068
3241.00,0.0067
3240.00,0.0067
3239.00,0.0067
3238.00,0.0067
3237.00,0.0068
3236.00,0.0068
3235.00,0.0068
3234.00,0.0068
3233.00,0.0068
3232.00,0.0068
3231.00,0.0068
3230.00,0.0068
3229.00,0.0069
3228.00,0.0069
3227.00,0.0069
3226.00,0.0069
3225.00,0.0069
3224.00,0.0069
3223.00,0.0069
3222.00,0.0069
3221.00,0.0069
3220.00,0.0070
3219.00,0.0070
3218.00,0.0070
3217.00,0.0070
3216.00,0.0070
3215.00,0.0070
3214.00,0.0070
3213.00,0.0070
3212.00,0.0070
3211.00,0.0070
3210.00,0.0070
3209.00,0.0070
3208.00,0.0071
3207.00,0.0071
3206.00,0.0071
3205.00,0.0071
3204.00,0.0071
3203.00,0.0071
3202.00,0.0071
3201.00,0.0071
3200.00,0.0071
3199.00,0.0071
3198.00,0.0071
3197.00,0.0071
3196.00,0.0071
3195.00,0.0071
3194.00,0.0071
3193.00,0.0071
3192.00,0.0071
3191.00,0.0070
3190.00,0.0070
3189.00,0.0069
3188.00,0.0069
3187.00,0.0069
3186.00,0.0069
3185.00,0.0068
3184.00,0.0068
3183.00,0.0068
3182.00,0.0067
3181.00,0.0067
3180.00,0.0067
3179.00,0.0067
3178.00,0.0067
3177.00,0.0067
3176.00,0.0066
3175.00,0.0066
3174.00,0.0066
3173.00,0.0065
3172.00,0.0065
3171.00,0.0065
3170.00,0.0064
3169.00,0.0063
3168.00,0.0063
3167.00,0.0063
3166.00,0.0063
3165.00,0.0063
3164.00,0.0062
3163.00,0.0062
3162.00,0.0062
3161.00,0.0062
3160.00,0.0062
3159.00,0.0061
3158.00,0.0061
3157.00,0.0061
3156.00,0.0060
3155.00,0.0060
3154.00,0.0060
3153.00,0.0060
3152.00,0.0060
3151.00,0.0060
3150.00,0.0061
3149.00,0.0061
3148.00,0.0061
3147.00,0.0061
3146.00,0.0061
3145.00,0.0060
3144.00,0.0060
3143.00,0.0060
3142.00,0.0060
3141.00,0.0059
3140.00,0.0059
3139.00,0.0059
3138.00,0.0059
3137.00,0.0059
3136.00,0.0059
3135.00,0.0059
3134.00,0.0058
3133.00,0.0058
3132.00,0.0058
3131.00,0.0057
3130.00,0.0056
3129.00,0.0056
3128.00,0.0056
3127.00,0.0056
3126.00,0.0056
3125.00,0.0055
3124.00,0.0055
3123.00,0.0055
3122.00,0.0054
3121.00,0.0054
3120.00,0.0054
3119.00,0.0054
3118.00,0.0053
3117.00,0.0053
3116.00,0.0053
3115.00,0.0053
3114.00,0.0053
3113.00,0.0053
3112.00,0.0053
3111.00,0.0053
3110.00,0.0052
3109.00,0.0052
3108.00,0.0051
3107.00,0.0051
3106.00,0.0051
3105.00,0.0050
3104.00,0.0050
3103.00,0.0050
3102.00,0.0050
3101.00,0.0050
3100.00,0.0050
3099.00,0.0050
3098.00,0.0050
3097.00,0.0050
3096.00,0.0050
3095.00,0.0050
3094.00,0.0050
3093.00,0.0049
3092.00,0.0049
3091.00,0.0049
3090.00,0.0049
3089.00,0.0049
3088.00,0.0048
3087.00,0.0048
3086.00,0.0047
3085.00,0.0047
3084.00,0.0047
3083.00,0.0047
3082.00,0.0047
3081.00,0.0048
3080.00,0.0048
3079.00,0.0049
3078.00,0.0049
3077.00,0.0049
3076.00,0.0048
3075.00,0.0048
3074.00,0.0047
3073.00,0.0047
3072.00,0.0047
3071.00,0.0047
3070.00,0.0048
3069.00,0.0048
3068.00,0.0048
3067.00,0.0048
3066.00,0.0048
3065.00,0.0048
3064.00,0.0048
3063.00,0.0048
3062.00,0.0048
3061.00,0.0048
3060.00,0.0048
3059.00,0.0048
3058.00,0.0048
3057.00,0.0048
3056.00,0.0048
3055.00,0.0048
3054.00,0.0048
3053.00,0.0049
3052.00,0.0049
3051.00,0.0049
3050.00,0.0049
3049.00,0.0049
3048.00,0.0049
3047.00,0.0049
3046.00,0.0049
3045.00,0.0049
3044.00,0.0050
3043.00,0.0050
3042.00,0.0050
3041.00,0.0050
3040.00,0.0050
3039.00,0.0050
3038.00,0.0050
3037.00,0.0050
3036.00,0.0050
3035.00,0.0051
3034.00,0.0051
3033.00,0.0051
3032.00,0.0051
3031.00,0.0052
3030.00,0.0052
3029.00,0.0053
3028.00,0.0053
3027.00,0.0054
3026.00,0.0054
3025.00,0.0054
3024.00,0.0055
3023.00,0.0056
3022.00,0.0057
3021.00,0.0058
3020.00,0.0058
3019.00,0.0059
3018.00,0.0060
3017.00,0.0060
3016.00,0.0061
3015.00,0.0061
3014.00,0.0062
3013.00,0.0063
3012.00,0.0064
3011.00,0.0065
3010.00,0.0067
3009.00,0.0068
3008.00,0.0070
3007.00,0.0071
3006.00,0.0073
3005.00,0.0074
3004.00,0.0076
3003.00,0.0078
3002.00,0.0079
3001.00,0.0082
3000.00,0.0084
2999.00,0.0086
2998.00,0.0089
2997.00,0.0093
2996.00,0.0096
2995.00,0.0100
2994.00,0.0105
2993.00,0.0109
2992.00,0.0114
2991.00,0.0120
2990.00,0.0127
2989.00,0.0134
2988.00,0.0142
2987.00,0.0151
2986.00,0.0161
2985.00,0.0172
2984.00,0.0184
2983.00,0.0198
2982.00,0.0214
2981.00,0.0232
2980.00,0.0252
2979.00,0.0276
2978.00,0.0302
2977.00,0.0331
2976.00,0.0365
2975.00,0.0402
2974.00,0.0445
2973.00,0.0492
2972.00,0.0544
2971.00,0.0602
2970.00,0.0665
2969.00,0.0734
2968.00,0.0808
2967.00,0.0887
2966.00,0.0969
2965.00,0.1053
2964.00,0.1136
2963.00,0.1214
2962.00,0.1283
2961.00,0.1340
2960.00,0.1384
2959.00,0.1418
2958.00,0.1446
2957.00,0.1472
2956.00,0.1500
2955.00,0.1535
2954.00,0.1575
2953.00,0.1615
2952.00,0.1651
2951.00,0.1673
2950.00,0.1674
2949.00,0.1647
2948.00,0.1591
2947.00,0.1509
2946.00,0.1409
2945.00,0.1301
2944.00,0.1196
2943.00,0.1104
2942.00,0.1030
2941.00,0.0977
2940.00,0.0944
2939.00,0.0931
2938.00,0.0935
2937.00,0.0955
2936.00,0.0988
2935.00,0.1033
2934.00,0.1090
2933.00,0.1155
2932.00,0.1229
2931.00,0.1308
2930.00,0.1392
2929.00,0.1476
2928.00,0.1558
2927.00,0.1637
2926.00,0.1712
2925.00,0.1782
2924.00,0.1849
2923.00,0.1915
2922.00,0.1978
2921.00,0.2038
2920.00,0.2090
2919.00,0.2129
2918.00,0.2151
2917.00,0.2151
2916.00,0.2129
2915.00,0.2087
2914.00,0.2032
2913.00,0.1968
2912.00,0.1903
2911.00,0.1840
2910.00,0.1781
2909.00,0.1727
2908.00,0.1675
2907.00,0.1625
2906.00,0.1573
2905.00,0.1520
2904.00,0.1465
2903.00,0.1409
2902.00,0.1352
2901.00,0.1295
2900.00,0.1240
2899.00,0.1188
2898.00,0.1138
2897.00,0.1093
2896.00,0.1053
2895.00,0.1019
2894.00,0.0991
2893.00,0.0968
2892.00,0.0951
2891.00,0.0938
2890.00,0.0930
2889.00,0.0926
2888.00,0.0926
2887.00,0.0929
2886.00,0.0935
2885.00,0.0944
2884.00,0.0957
2883.00,0.0973
2882.00,0.0992
2881.00,0.1011
2880.00,0.1030
2879.00,0.1045
2878.00,0.1053
2877.00,0.1054
2876.00,0.1050
2875.00,0.1044
2874.00,0.1039
2873.00,0.1040
2872.00,0.1046
2871.00,0.1058
2870.00,0.1073
2869.00,0.1086
2868.00,0.1092
2867.00,0.1084
2866.00,0.1058
2865.00,0.1012
2864.00,0.0949
2863.00,0.0875
2862.00,0.0800
2861.00,0.0730
2860.00,0.0670
2859.00,0.0622
2858.00,0.0586
2857.00,0.0561
2856.00,0.0545
2855.00,0.0537
2854.00,0.0535
2853.00,0.0540
2852.00,0.0549
2851.00,0.0564
2850.00,0.0584
2849.00,0.0609
2848.00,0.0639
2847.00,0.0677
2846.00,0.0721
2845.00,0.0772
2844.00,0.0829
2843.00,0.0889
2842.00,0.0949
2841.00,0.1003
2840.00,0.1046
2839.00,0.1069
2838.00,0.1069
2837.00,0.1041
2836.00,0.0987
2835.00,0.0912
2834.00,0.0825
2833.00,0.0735
2832.00,0.0649
2831.00,0.0573
2830.00,0.0508
2829.00,0.0455
2828.00,0.0411
2827.00,0.0376
2826.00,0.0347
2825.00,0.0323
2824.00,0.0302
2823.00,0.0285
2822.00,0.0270
2821.00,0.0257
2820.00,0.0246
2819.00,0.0236
2818.00,0.0227
2817.00,0.0219
2816.00,0.0212
2815.00,0.0206
2814.00,0.0200
2813.00,0.0195
2812.00,0.0190
2811.00,0.0185
2810.00,0.0181
2809.00,0.0176
2808.00,0.0170
2807.00,0.0165
2806.00,0.0159
2805.00,0.0153
2804.00,0.0148
2803.00,0.0143
2802.00,0.0138
2801.00,0.0134
2800.00,0.0130
2799.00,0.0127
2798.00,0.0125
2797.00,0.0122
2796.00,0.0120
2795.00,0.0118
2794.00,0.0116
2793.00,0.0113
2792.00,0.0110
2791.00,0.0107
2790.00,0.0105
2789.00,0.0102
2788.00,0.0099
2787.00,0.0097
2786.00,0.0094
2785.00,0.0091
2784.00,0.0088
2783.00,0.0086
2782.00,0.0084
2781.00,0.0083
2780.00,0.0081
2779.00,0.0080
2778.00,0.0079
2777.00,0.0078
2776.00,0.0077
2775.00,0.0075
2774.00,0.0075
2773.00,0.0074
2772.00,0.0074
2771.00,0.0073
2770.00,0.0073
2769.00,0.0072
2768.00,0.0072
2767.00,0.0072
2766.00,0.0071
2765.00,0.0071
2764.00,0.0071
2763.00,0.0070
2762.00,0.0070
2761.00,0.0069
2760.00,0.0069
2759.00,0.0069
2758.00,0.0068
2757.00,0.0068
2756.00,0.0067
2755.00,0.0067
2754.00,0.0067
2753.00,0.0067
2752.00,0.0067
2751.00,0.0067
2750.00,0.0067
2749.00,0.0067
2748.00,0.0068
2747.00,0.0068
2746.00,0.0068
2745.00,0.0069
2744.00,0.0069
2743.00,0.0070
2742.00,0.0070
2741.00,0.0071
2740.00,0.0072
2739.00,0.0073
2738.00,0.0074
2737.00,0.0076
2736.00,0.0077
2735.00,0.0078
2734.00,0.0079
2733.00,0.0081
2732.00,0.0082
2731.00,0.0084
2730.00,0.0086
2729.00,0.0088
2728.00,0.0090
2727.00,0.0093
2726.00,0.0095
2725.00,0.0097
2724.00,0.0098
2723.00,0.0099
2722.00,0.0098
2721.00,0.0096
2720.00,0.0093
2719.00,0.0091
2718.00,0.0088
2717.00,0.0085
2716.00,0.0082
2715.00,0.0080
2714.00,0.0078
2713.00,0.0076
2712.00,0.0074
2711.00,0.0072
2710.00,0.0071
2709.00,0.0069
2708.00,0.0068
2707.00,0.0067
2706.00,0.0066
2705.00,0.0065
2704.00,0.0064
2703.00,0.0063
2702.00,0.0063
2701.00,0.0062
2700.00,0.0062
2699.00,0.0061
2698.00,0.0060
2697.00,0.0060
2696.00,0.0060
2695.00,0.0060
2694.00,0.0060
2693.00,0.0060
2692.00,0.0060
2691.00,0.0060
2690.00,0.0060
2689.00,0.0060
2688.00,0.0060
2687.00,0.0060
2686.00,0.0060
2685.00,0.0060
2684.00,0.0060
2683.00,0.0060
2682.00,0.0060
2681.00,0.0060
2680.00,0.0060
2679.00,0.0060
2678.00,0.0060
2677.00,0.0060
2676.00,0.0060
2675.00,0.0060
2674.00,0.0060
2673.00,0.0059
2672.00,0.0059
2671.00,0.0059
2670.00,0.0059
2669.00,0.0059
2668.00,0.0059
2667.00,0.0060
2666.00,0.0060
2665.00,0.0061
2664.00,0.0061
2663.00,0.0062
2662.00,0.0062
2661.00,0.0063
2660.00,0.0063
2659.00,0.0063
2658.00,0.0063
2657.00,0.0062
2656.00,0.0062
2655.00,0.0062
2654.00,0.0062
2653.00,0.0061
2652.00,0.0061
2651.00,0.0060
2650.00,0.0060
2649.00,0.0060
2648.00,0.0060
2647.00,0.0060
2646.00,0.0059
2645.00,0.0059
2644.00,0.0058
2643.00,0.0057
2642.00,0.0057
2641.00,0.0056
2640.00,0.0056
2639.00,0.0055
2638.00,0.0055
2637.00,0.0055
2636.00,0.0055
2635.00,0.0055
2634.00,0.0055
2633.00,0.0055
2632.00,0.0055
2631.00,0.0055
2630.00,0.0055
2629.00,0.0055
2628.00,0.0056
2627.00,0.0056
2626.00,0.0056
2625.00,0.0056
2624.00,0.0056
2623.00,0.0056
2622.00,0.0056
2621.00,0.0056
2620.00,0.0056
2619.00,0.0056
2618.00,0.0056
2617.00,0.0056
2616.00,0.0056
2615.00,0.0056
2614.00,0.0056
2613.00,0.0056
2612.00,0.0055
2611.00,0.0055
2610.00,0.0054
2609.00,0.0053
2608.00,0.0052
2607.00,0.0051
2606.00,0.0050
2605.00,0.0049
2604.00,0.0049
2603.00,0.0049
2602.00,0.0049
2601.00,0.0049
2600.00,0.0049
2599.00,0.0049
2598.00,0.0048
2597.00,0.0048
2596.00,0.0048
2595.00,0.0049
2594.00,0.0049
2593.00,0.0049
2592.00,0.0050
2591.00,0.0050
2590.00,0.0051
2589.00,0.0052
2588.00,0.0052
2587.00,0.0053
2586.00,0.0053
2585.00,0.0053
2584.00,0.0053
2583.00,0.0053
2582.00,0.0053
2581.00,0.0053
2580.00,0.0053
2579.00,0.0052
2578.00,0.0052
2577.00,0.0052
2576.00,0.0051
2575.00,0.0050
2574.00,0.0048
2573.00,0.0046
2572.00,0.0045
2571.00,0.0045
2570.00,0.0045
2569.00,0.0044
2568.00,0.0044
2567.00,0.0044
2566.00,0.0044
2565.00,0.0044
2564.00,0.0043
2563.00,0.0043
2562.00,0.0042
2561.00,0.0041
2560.00,0.0041
2559.00,0.0040
2558.00,0.0041
2557.00,0.0041
2556.00,0.0041
2555.00,0.0040
2554.00,0.0039
2553.00,0.0038
2552.00,0.0037
2551.00,0.0037
2550.00,0.0037
2549.00,0.0037
2548.00,0.0037
2547.00,0.0037
2546.00,0.0037
2545.00,0.0038
2544.00,0.0037
2543.00,0.0037
2542.00,0.0035
2541.00,0.0034
2540.00,0.0033
2539.00,0.0033
2538.00,0.0033
2537.00,0.0033
2536.00,0.0033
2535.00,0.0034
2534.00,0.0034
2533.00,0.0034
2532.00,0.0035
2531.00,0.0035
2530.00,0.0034
2529.00,0.0034
2528.00,0.0033
2527.00,0.0033
2526.00,0.0033
2525.00,0.0032
2524.00,0.0032
2523.00,0.0032
2522.00,0.0032
2521.00,0.0031
2520.00,0.0031
2519.00,0.0031
2518.00,0.0031
2517.00,0.0031
2516.00,0.0031
2515.00,0.0030
2514.00,0.0030
2513.00,0.0030
2512.00,0.0030
2511.00,0.0029
2510.00,0.0029
2509.00,0.0029
2508.00,0.0029
2507.00,0.0029
2506.00,0.0029
2505.00,0.0029
2504.00,0.0029
2503.00,0.0028
2502.00,0.0027
2501.00,0.0027
2500.00,0.0028
2499.00,0.0029
2498.00,0.0030
2497.00,0.0030
2496.00,0.0030
2495.00,0.0029
2494.00,0.0029
2493.00,0.0030
2492.00,0.0030
2491.00,0.0030
2490.00,0.0028
2489.00,0.0027
2488.00,0.0026
2487.00,0.0025
2486.00,0.0026
2485.00,0.0026
2484.00,0.0027
2483.00,0.0028
2482.00,0.0028
2481.00,0.0027
2480.00,0.0027
2479.00,0.0027
2478.00,0.0027
2477.00,0.0026
2476.00,0.0025
2475.00,0.0026
2474.00,0.0026
2473.00,0.0027
2472.00,0.0027
2471.00,0.0027
2470.00,0.0027
2469.00,0.0027
2468.00,0.0027
2467.00,0.0027
2466.00,0.0027
2465.00,0.0028
2464.00,0.0028
2463.00,0.0028
2462.00,0.0028
2461.00,0.0028
2460.00,0.0028
2459.00,0.0027
2458.00,0.0027
2457.00,0.0027
2456.00,0.0027
2455.00,0.0028
2454.00,0.0028
2453.00,0.0028
2452.00,0.0028
2451.00,0.0028
2450.00,0.0028
2449.00,0.0027
2448.00,0.0027
2447.00,0.0028
2446.00,0.0028
2445.00,0.0029
2444.00,0.0029
2443.00,0.0030
2442.00,0.0030
2441.00,0.0029
2440.00,0.0029
2439.00,0.0028
2438.00,0.0028
2437.00,0.0028
2436.00,0.0028
2435.00,0.0028
2434.00,0.0028
2433.00,0.0029
2432.00,0.0029
2431.00,0.0029
2430.00,0.0029
2429.00,0.0029
2428.00,0.0028
2427.00,0.0028
2426.00,0.0027
2425.00,0.0027
2424.00,0.0027
2423.00,0.0026
2422.00,0.0026
2421.00,0.0026
2420.00,0.0026
2419.00,0.0026
2418.00,0.0026
2417.00,0.0026
2416.00,0.0026
2415.00,0.0026
2414.00,0.0027
2413.00,0.0027
2412.00,0.0027
2411.00,0.0027
2410.00,0.0026
2409.00,0.0026
2408.00,0.0026
2407.00,0.0025
2406.00,0.0025
2405.00,0.0025
2404.00,0.0025
2403.00,0.0025
2402.00,0.0025
2401.00,0.0025
2400.00,0.0024
2399.00,0.0024
2398.00,0.0024
2397.00,0.0025
2396.00,0.0025
2395.00,0.0025
2394.00,0.0025
2393.00,0.0025
2392.00,0.0025
2391.00,0.0025
2390.00,0.0025
2389.00,0.0025
2388.00,0.0024
2387.00,0.0023
2386.00,0.0022
2385.00,0.0022
2384.00,0.0022
2383.00,0.0021
2382.00,0.0021
2381.00,0.0020
2380.00,0.0020
2379.00,0.0020
2378.00,0.0020
2377.00,0.0020
2376.00,0.0020
2375.00,0.0021
2374.00,0.0021
2373.00,0.0021
2372.00,0.0021
2371.00,0.0021
2370.00,0.0021
2369.00,0.0021
2368.00,0.0020
2367.00,0.0020
2366.00,0.0020
2365.00,0.0021
2364.00,0.0021
2363.00,0.0021
2362.00,0.0021
2361.00,0.0021
2360.00,0.0022
2359.00,0.0023
2358.00,0.0023
2357.00,0.0023
2356.00,0.0023
2355.00,0.0022
2354.00,0.0022
2353.00,0.0021
2352.00,0.0022
2351.00,0.0022
2350.00,0.0022
2349.00,0.0022
2348.00,0.0022
2347.00,0.0022
2346.00,0.0023
2345.00,0.0024
2344.00,0.0024
2343.00,0.0025
2342.00,0.0025
2341.00,0.0025
2340.00,0.0025
2339.00,0.0025
2338.00,0.0025
2337.00,0.0025
2336.00,0.0025
2335.00,0.0025
2334.00,0.0025
2333.00,0.0025
2332.00,0.0025
2331.00,0.0024
2330.00,0.0024
2329.00,0.0025
2328.00,0.0026
2327.00,0.0030
2326.00,0.0035
2325.00,0.0040
2324.00,0.0041
2323.00,0.0040
2322.00,0.0038
2321.00,0.0036
2320.00,0.0035
2319.00,0.0034
2318.00,0.0033
2317.00,0.0032
2316.00,0.0031
2315.00,0.0030
2314.00,0.0030
2313.00,0.0030
2312.00,0.0030
2311.00,0.0030
2310.00,0.0030
2309.00,0.0030
2308.00,0.0029
2307.00,0.0029
2306.00,0.0029
2305.00,0.0029
2304.00,0.0030
2303.00,0.0030
2302.00,0.0031
2301.00,0.0031
2300.00,0.0031
2299.00,0.0031
2298.00,0.0031
2297.00,0.0031
2296.00,0.0031
2295.00,0.0031
2294.00,0.0032
2293.00,0.0033
2292.00,0.0034
2291.00,0.0035
2290.00,0.0035
2289.00,0.0036
2288.00,0.0037
2287.00,0.0038
2286.00,0.0038
2285.00,0.0038
2284.00,0.0037
2283.00,0.0037
2282.00,0.0036
2281.00,0.0035
2280.00,0.0035
2279.00,0.0034
2278.00,0.0033
2277.00,0.0032
2276.00,0.0032
2275.00,0.0032
2274.00,0.0033
2273.00,0.0032
2272.00,0.0032
2271.00,0.0031
2270.00,0.0030
2269.00,0.0030
2268.00,0.0029
2267.00,0.0028
2266.00,0.0028
2265.00,0.0027
2264.00,0.0026
2263.00,0.0026
2262.00,0.0027
2261.00,0.0028
2260.00,0.0030
2259.00,0.0033
2258.00,0.0034
2257.00,0.0035
2256.00,0.0033
2255.00,0.0031
2254.00,0.0029
2253.00,0.0029
2252.00,0.0029
2251.00,0.0029
2250.00,0.0029
2249.00,0.0029
2248.00,0.0028
2247.00,0.0027
2246.00,0.0027
2245.00,0.0026
2244.00,0.0026
2243.00,0.0025
2242.00,0.0024
2241.00,0.0024
2240.00,0.0024
2239.00,0.0024
2238.00,0.0024
2237.00,0.0025
2236.00,0.0026
2235.00,0.0027
2234.00,0.0028
2233.00,0.0028
2232.00,0.0027
2231.00,0.0026
2230.00,0.0026
2229.00,0.0026
2228.00,0.0027
2227.00,0.0028
2226.00,0.0028
2225.00,0.0028
2224.00,0.0028
2223.00,0.0027
2222.00,0.0026
2221.00,0.0026
2220.00,0.0025
2219.00,0.0023
2218.00,0.0023
2217.00,0.0023
2216.00,0.0024
2215.00,0.0025
2214.00,0.0026
2213.00,0.0025
2212.00,0.0025
2211.00,0.0024
2210.00,0.0023
2209.00,0.0023
2208.00,0.0024
2207.00,0.0025
2206.00,0.0025
2205.00,0.0025
2204.00,0.0024
2203.00,0.0023
2202.00,0.0023
2201.00,0.0024
2200.00,0.0025
2199.00,0.0025
2198.00,0.0024
2197.00,0.0024
2196.00,0.0024
2195.00,0.0024
2194.00,0.0024
2193.00,0.0025
2192.00,0.0025
2191.00,0.0027
2190.00,0.0028
2189.00,0.0030
2188.00,0.0031
2187.00,0.0032
2186.00,0.0032
2185.00,0.0033
2184.00,0.0031
2183.00,0.0028
2182.00,0.0023
2181.00,0.0019
2180.00,0.0017
2179.00,0.0017
2178.00,0.0016
2177.00,0.0014
2176.00,0.0012
2175.00,0.0011
2174.00,0.0014
2173.00,0.0017
2172.00,0.0021
2171.00,0.0025
2170.00,0.0030
2169.00,0.0036
2168.00,0.0040
2167.00,0.0042
2166.00,0.0040
2165.00,0.0038
2164.00,0.0035
2163.00,0.0035
2162.00,0.0035
2161.00,0.0032
2160.00,0.0022
2159.00,0.0005
2158.00,-0.0010
2157.00,-0.0020
2156.00,-0.0022
2155.00,-0.0020
2154.00,-0.0017
2153.00,-0.0012
2152.00,-0.0007
2151.00,-0.0004
2150.00,-0.0003
2149.00,-0.0004
2148.00,-0.0005
2147.00,-0.0007
2146.00,-0.0006
2145.00,-0.0005
2144.00,-0.0002
2143.00,-0.0001
2142.00,0.0000
2141.00,0.0000
2140.00,0.0001
2139.00,0.0002
2138.00,0.0002
2137.00,0.0002
2136.00,0.0000
2135.00,-0.0002
2134.00,-0.0004
2133.00,-0.0005
2132.00,-0.0004
2131.00,-0.0002
2130.00,0.0000
2129.00,0.0003
2128.00,0.0006
2127.00,0.0008
2126.00,0.0009
2125.00,0.0009
2124.00,0.0009
2123.00,0.0008
2122.00,0.0008
2121.00,0.0010
2120.00,0.0011
2119.00,0.0013
2118.00,0.0014
2117.00,0.0016
2116.00,0.0017
2115.00,0.0018
2114.00,0.0019
2113.00,0.0019
2112.00,0.0019
2111.00,0.0020
2110.00,0.0020
2109.00,0.0020
2108.00,0.0019
2107.00,0.0019
2106.00,0.0020
2105.00,0.0020
2104.00,0.0021
2103.00,0.0021
2102.00,0.0021
2101.00,0.0021
2100.00,0.0019
2099.00,0.0017
2098.00,0.0014
2097.00,0.0012
2096.00,0.0011
2095.00,0.0010
2094.00,0.0011
2093.00,0.0013
2092.00,0.0015
2091.00,0.0016
2090.00,0.0017
2089.00,0.0018
2088.00,0.0019
2087.00,0.0019
2086.00,0.0020
2085.00,0.0020
2084.00,0.0019
2083.00,0.0019
2082.00,0.0020
2081.00,0.0021
2080.00,0.0022
2079.00,0.0022
2078.00,0.0021
2077.00,0.0019
2076.00,0.0018
2075.00,0.0018
2074.00,0.0018
2073.00,0.0019
2072.00,0.0019
2071.00,0.0019
2070.00,0.0020
2069.00,0.0021
2068.00,0.0020
2067.00,0.0019
2066.00,0.0017
2065.00,0.0017
2064.00,0.0018
2063.00,0.0019
2062.00,0.0018
2061.00,0.0016
2060.00,0.0015
2059.00,0.0015
2058.00,0.0017
2057.00,0.0019
2056.00,0.0020
2055.00,0.0020
2054.00,0.0020
2053.00,0.0023
2052.00,0.0029
2051.00,0.0032
2050.00,0.0030
2049.00,0.0026
2048.00,0.0021
2047.00,0.0020
2046.00,0.0020
2045.00,0.0020
2044.00,0.0019
2043.00,0.0016
2042.00,0.0015
2041.00,0.0015
2040.00,0.0017
2039.00,0.0017
2038.00,0.0017
2037.00,0.0016
2036.00,0.0015
2035.00,0.0013
2034.00,0.0010
2033.00,0.0008
2032.00,0.0008
2031.00,0.0009
2030.00,0.0011
2029.00,0.0012
2028.00,0.0013
2027.00,0.0012
2026.00,0.0010
2025.00,0.0008
2024.00,0.0007
2023.00,0.0007
2022.00,0.0007
2021.00,0.0006
2020.00,0.0005
2019.00,0.0002
2018.00,-0.0000
2017.00,-0.0000
2016.00,0.0001
2015.00,0.0003
2014.00,0.0004
2013.00,0.0004
2012.00,0.0003
2011.00,0.0002
2010.00,0.0004
2009.00,0.0004
2008.00,0.0002
2007.00,-0.0002
2006.00,-0.0005
2005.00,-0.0004
2004.00,0.0001
2003.00,0.0006
2002.00,0.0009
2001.00,0.0009
2000.00,0.0007
1999.00,0.0004
1998.00,0.0003
1997.00,0.0003
1996.00,0.0005
1995.00,0.0007
1994.00,0.0006
1993.00,0.0005
1992.00,0.0004
1991.00,0.0003
1990.00,0.0005
1989.00,0.0010
1988.00,0.0015
1987.00,0.0018
1986.00,0.0020
1985.00,0.0021
1984.00,0.0021
1983.00,0.0022
1982.00,0.0023
1981.00,0.0024
1980.00,0.0025
1979.00,0.0020
1978.00,0.0013
1977.00,0.0008
1976.00,0.0006
1975.00,0.0006
1974.00,0.0005
1973.00,0.0003
1972.00,0.0002
1971.00,0.0001
1970.00,0.0002
1969.00,0.0003
1968.00,0.0003
1967.00,0.0002
1966.00,0.0002
1965.00,0.0001
1964.00,0.0000
1963.00,-0.0002
1962.00,-0.0004
1961.00,-0.0004
1960.00,-0.0003
1959.00,-0.0003
1958.00,-0.0003
1957.00,-0.0002
1956.00,-0.0001
1955.00,-0.0001
1954.00,-0.0002
1953.00,-0.0002
1952.00,-0.0003
1951.00,-0.0004
1950.00,-0.0005
1949.00,-0.0005
1948.00,-0.0004
1947.00,-0.0002
1946.00,-0.0001
1945.00,-0.0001
1944.00,-0.0001
1943.00,-0.0000
1942.00,0.0001
1941.00,0.0003
1940.00,0.0005
1939.00,0.0005
1938.00,0.0005
1937.00,0.0005
1936.00,0.0006
1935.00,0.0007
1934.00,0.0007
1933.00,0.0006
1932.00,0.0006
1931.00,0.0006
1930.00,0.0006
1929.00,0.0007
1928.00,0.0007
1927.00,0.0008
1926.00,0.0009
1925.00,0.0010
1924.00,0.0010
1923.00,0.0010
1922.00,0.0010
1921.00,0.0010
1920.00,0.0011
1919.00,0.0011
1918.00,0.0011
1917.00,0.0010
1916.00,0.0010
1915.00,0.0010
1914.00,0.0011
1913.00,0.0012
1912.00,0.0014
1911.00,0.0014
1910.00,0.0014
1909.00,0.0012
1908.00,0.0011
1907.00,0.0011
1906.00,0.0011
1905.00,0.0011
1904.00,0.0012
1903.00,0.0013
1902.00,0.0014
1901.00,0.0015
1900.00,0.0015
1899.00,0.0016
1898.00,0.0016
1897.00,0.0016
1896.00,0.0016
1895.00,0.0015
1894.00,0.0015
1893.00,0.0015
1892.00,0.0016
1891.00,0.0016
1890.00,0.0016
1889.00,0.0016
1888.00,0.0016
1887.00,0.0015
1886.00,0.0015
1885.00,0.0016
1884.00,0.0016
1883.00,0.0016
1882.00,0.0015
1881.00,0.0014
1880.00,0.0015
1879.00,0.0015
1878.00,0.0016
1877.00,0.0015
1876.00,0.0015
1875.00,0.0014
1874.00,0.0013
1873.00,0.0013
1872.00,0.0014
1871.00,0.0014
1870.00,0.0015
1869.00,0.0016
1868.00,0.0016
1867.00,0.0017
1866.00,0.0017
1865.00,0.0017
1864.00,0.0016
1863.00,0.0016
1862.00,0.0015
1861.00,0.0015
1860.00,0.0015
1859.00,0.0015
1858.00,0.0016
1857.00,0.0016
1856.00,0.0017
1855.00,0.0017
1854.00,0.0017
1853.00,0.0017
1852.00,0.0017
1851.00,0.0016
1850.00,0.0015
1849.00,0.0015
1848.00,0.0015
1847.00,0.0016
1846.00,0.0017
1845.00,0.0017
1844.00,0.0017
1843.00,0.0017
1842.00,0.0017
1841.00,0.0018
1840.00,0.0018
1839.00,0.0018
1838.00,0.0018
1837.00,0.0018
1836.00,0.0017
1835.00,0.0017
1834.00,0.0017
1833.00,0.0018
1832.00,0.0019
1831.00,0.0019
1830.00,0.0019
1829.00,0.0019
1828.00,0.0020
1827.00,0.0021
1826.00,0.0021
1825.00,0.0020
1824.00,0.0020
1823.00,0.0019
1822.00,0.0018
1821.00,0.0017
1820.00,0.0017
1819.00,0.0016
1818.00,0.0015
1817.00,0.0015
1816.00,0.0014
1815.00,0.0015
1814.00,0.0015
1813.00,0.0016
1812.00,0.0017
1811.00,0.0017
1810.00,0.0018
1809.00,0.0019
1808.00,0.0020
1807.00,0.0020
1806.00,0.0020
1805.00,0.0021
1804.00,0.0021
1803.00,0.0021
1802.00,0.0021
1801.00,0.0021
1800.00,0.0022
1799.00,0.0022
1798.00,0.0023
1797.00,0.0023
1796.00,0.0023
1795.00,0.0023
1794.00,0.0023
1793.00,0.0024
1792.00,0.0024
1791.00,0.0024
1790.00,0.0024
1789.00,0.0024
1788.00,0.0023
1787.00,0.0023
1786.00,0.0023
1785.00,0.0023
1784.00,0.0023
1783.00,0.0024
1782.00,0.0024
1781.00,0.0024
1780.00,0.0025
1779.00,0.0025
1778.00,0.0025
1777.00,0.0026
1776.00,0.0026
1775.00,0.0026
1774.00,0.0025
1773.00,0.0025
1772.00,0.0025
1771.00,0.0026
1770.00,0.0025
1769.00,0.0026
1768.00,0.0026
1767.00,0.0026
1766.00,0.0026
1765.00,0.0026
1764.00,0.0027
1763.00,0.0027
1762.00,0.0028
1761.00,0.0028
1760.00,0.0028
1759.00,0.0028
1758.00,0.0028
1757.00,0.0029
1756.00,0.0029
1755.00,0.0029
1754.00,0.0029
1753.00,0.0030
1752.00,0.0030
1751.00,0.0031
1750.00,0.0031
1749.00,0.0031
1748.00,0.0032
1747.00,0.0032
1746.00,0.0032
1745.00,0.0033
1744.00,0.0033
1743.00,0.0034
1742.00,0.0034
1741.00,0.0034
1740.00,0.0035
1739.00,0.0034
1738.00,0.0034
1737.00,0.0034
1736.00,0.0034
1735.00,0.0034
1734.00,0.0034
1733.00,0.0035
1732.00,0.0036
1731.00,0.0036
1730.00,0.0036
1729.00,0.0036
1728.00,0.0036
1727.00,0.0036
1726.00,0.0036
1725.00,0.0036
1724.00,0.0036
1723.00,0.0036
1722.00,0.0036
1721.00,0.0037
1720.00,0.0037
1719.00,0.0037
1718.00,0.0037
1717.00,0.0037
1716.00,0.0037
1715.00,0.0037
1714.00,0.0037
1713.00,0.0037
1712.00,0.0036
1711.00,0.0037
1710.00,0.0037
1709.00,0.0039
1708.00,0.0040
1707.00,0.0041
1706.00,0.0041
1705.00,0.0041
1704.00,0.0042
1703.00,0.0042
1702.00,0.0042
1701.00,0.0043
1700.00,0.0044
1699.00,0.0044
1698.00,0.0044
1697.00,0.0045
1696.00,0.0046
1695.00,0.0047
1694.00,0.0047
1693.00,0.0047
1692.00,0.0048
1691.00,0.0049
1690.00,0.0049
1689.00,0.0050
1688.00,0.0050
1687.00,0.0050
1686.00,0.0051
1685.00,0.0052
1684.00,0.0053
1683.00,0.0055
1682.00,0.0056
1681.00,0.0056
1680.00,0.0057
1679.00,0.0058
1678.00,0.0058
1677.00,0.0060
1676.00,0.0061
1675.00,0.0062
1674.00,0.0063
1673.00,0.0064
1672.00,0.0065
1671.00,0.0066
1670.00,0.0067
1669.00,0.0067
1668.00,0.0068
1667.00,0.0068
1666.00,0.0068
1665.00,0.0069
1664.00,0.0070
1663.00,0.0071
1662.00,0.0072
1661.00,0.0073
1660.00,0.0074
1659.00,0.0075
1658.00,0.0075
1657.00,0.0076
1656.00,0.0076
1655.00,0.0077
1654.00,0.0079
1653.00,0.0082
1652.00,0.0084
1651.00,0.0085
1650.00,0.0085
1649.00,0.0086
1648.00,0.0087
1647.00,0.0089
1646.00,0.0089
1645.00,0.0090
1644.00,0.0090
1643.00,0.0089
1642.00,0.0089
1641.00,0.0089
1640.00,0.0089
1639.00,0.0088
1638.00,0.0088
1637.00,0.0088
1636.00,0.0089
1635.00,0.0089
1634.00,0.0088
1633.00,0.0088
1632.00,0.0087
1631.00,0.0087
1630.00,0.0087
1629.00,0.0086
1628.00,0.0086
1627.00,0.0086
1626.00,0.0086
1625.00,0.0086
1624.00,0.0085
1623.00,0.0085
1622.00,0.0084
1621.00,0.0083
1620.00,0.0083
1619.00,0.0083
1618.00,0.0084
1617.00,0.0084
1616.00,0.0084
1615.00,0.0084
1614.00,0.0084
1613.00,0.0084
1612.00,0.0084
1611.00,0.0085
1610.00,0.0084
1609.00,0.0084
1608.00,0.0085
1607.00,0.0085
1606.00,0.0085
1605.00,0.0086
1604.00,0.0086
1603.00,0.0086
1602.00,0.0085
1601.00,0.0085
1600.00,0.0085
1599.00,0.0085
1598.00,0.0085
1597.00,0.0085
1596.00,0.0085
1595.00,0.0085
1594.00,0.0085
1593.00,0.0085
1592.00,0.0085
1591.00,0.0085
1590.00,0.0085
1589.00,0.0085
1588.00,0.0085
1587.00,0.0086
1586.00,0.0086
1585.00,0.0087
1584.00,0.0087
1583.00,0.0087
1582.00,0.0088
1581.00,0.0088
1580.00,0.0089
1579.00,0.0089
1578.00,0.0089
1577.00,0.0089
1576.00,0.0088
1575.00,0.0088
1574.00,0.0087
1573.00,0.0087
1572.00,0.0086
1571.00,0.0086
1570.00,0.0086
1569.00,0.0087
1568.00,0.0087
1567.00,0.0087
1566.00,0.0087
1565.00,0.0088
1564.00,0.0088
1563.00,0.0089
1562.00,0.0089
1561.00,0.0090
1560.00,0.0090
1559.00,0.0089
1558.00,0.0091
1557.00,0.0092
1556.00,0.0093
1555.00,0.0094
1554.00,0.0094
1553.00,0.0095
1552.00,0.0096
1551.00,0.0096
1550.00,0.0097
1549.00,0.0099
1548.00,0.0100
1547.00,0.0101
1546.00,0.0102
1545.00,0.0104
1544.00,0.0105
1543.00,0.0106
1542.00,0.0105
1541.00,0.0105
1540.00,0.0106
1539.00,0.0106
1538.00,0.0105
1537.00,0.0104
1536.00,0.0103
1535.00,0.0103
1534.00,0.0102
1533.00,0.0101
1532.00,0.0100
1531.00,0.0099
1530.00,0.0098
1529.00,0.0098
1528.00,0.0098
1527.00,0.0097
1526.00,0.0097
1525.00,0.0098
1524.00,0.0099
1523.00,0.0100
1522.00,0.0100
1521.00,0.0102
1520.00,0.0103
1519.00,0.0103
1518.00,0.0103
1517.00,0.0104
1516.00,0.0105
1515.00,0.0105
1514.00,0.0106
1513.00,0.0107
1512.00,0.0109
1511.00,0.0110
1510.00,0.0111
1509.00,0.0113
1508.00,0.0116
1507.00,0.0120
1506.00,0.0123
1505.00,0.0125
1504.00,0.0126
1503.00,0.0126
1502.00,0.0128
1501.00,0.0130
1500.00,0.0133
1499.00,0.0136
1498.00,0.0139
1497.00,0.0143
1496.00,0.0149
1495.00,0.0153
1494.00,0.0156
1493.00,0.0159
1492.00,0.0163
1491.00,0.0167
1490.00,0.0172
1489.00,0.0178
1488.00,0.0183
1487.00,0.0188
1486.00,0.0192
1485.00,0.0198
1484.00,0.0204
1483.00,0.0211
1482.00,0.0219
1481.00,0.0230
1480.00,0.0241
1479.00,0.0252
1478.00,0.0266
1477.00,0.0284
1476.00,0.0305
1475.00,0.0328
1474.00,0.0361
1473.00,0.0412
1472.00,0.0475
1471.00,0.0534
1470.00,0.0588
1469.00,0.0643
1468.00,0.0701
1467.00,0.0765
1466.00,0.0841
1465.00,0.0927
1464.00,0.1004
1463.00,0.1058
1462.00,0.1093
1461.00,0.1117
1460.00,0.1136
1459.00,0.1152
1458.00,0.1174
1457.00,0.1204
1456.00,0.1223
1455.00,0.1224
1454.00,0.1215
1453.00,0.1201
1452.00,0.1181
1451.00,0.1151
1450.00,0.1109
1449.00,0.1051
1448.00,0.0977
1447.00,0.0897
1446.00,0.0823
1445.00,0.0757
1444.00,0.0700
1443.00,0.0653
1442.00,0.0618
1441.00,0.0593
1440.00,0.0577
1439.00,0.0569
1438.00,0.0568
1437.00,0.0571
1436.00,0.0565
1435.00,0.0544
1434.00,0.0510
1433.00,0.0468
1432.00,0.0426
1431.00,0.0390
1430.00,0.0363
1429.00,0.0343
1428.00,0.0329
1427.00,0.0320
1426.00,0.0312
1425.00,0.0306
1424.00,0.0300
1423.00,0.0296
1422.00,0.0293
1421.00,0.0289
1420.00,0.0285
1419.00,0.0281
1418.00,0.0277
1417.00,0.0272
1416.00,0.0267
1415.00,0.0261
1414.00,0.0257
1413.00,0.0251
1412.00,0.0245
1411.00,0.0239
1410.00,0.0234
1409.00,0.0229
1408.00,0.0223
1407.00,0.0219
1406.00,0.0217
1405.00,0.0213
1404.00,0.0210
1403.00,0.0208
1402.00,0.0206
1401.00,0.0204
1400.00,0.0202
1399.00,0.0201
1398.00,0.0201
1397.00,0.0199
1396.00,0.0198
1395.00,0.0199
1394.00,0.0201
1393.00,0.0203
1392.00,0.0206
1391.00,0.0211
1390.00,0.0219
1389.00,0.0232
1388.00,0.0254
1387.00,0.0287
1386.00,0.0332
1385.00,0.0389
1384.00,0.0463
1383.00,0.0562
1382.00,0.0692
1381.00,0.0853
1380.00,0.1049
1379.00,0.1269
1378.00,0.1482
1377.00,0.1640
1376.00,0.1699
1375.00,0.1633
1374.00,0.1455
1373.00,0.1229
1372.00,0.1014
1371.00,0.0829
1370.00,0.0678
1369.00,0.0561
1368.00,0.0479
1367.00,0.0428
1366.00,0.0400
1365.00,0.0387
1364.00,0.0388
1363.00,0.0400
1362.00,0.0419
1361.00,0.0439
1360.00,0.0452
1359.00,0.0454
1358.00,0.0441
1357.00,0.0415
1356.00,0.0380
1355.00,0.0341
1354.00,0.0304
1353.00,0.0273
1352.00,0.0248
1351.00,0.0228
1350.00,0.0211
1349.00,0.0198
1348.00,0.0188
1347.00,0.0179
1346.00,0.0172
1345.00,0.0167
1344.00,0.0162
1343.00,0.0158
1342.00,0.0155
1341.00,0.0151
1340.00,0.0149
1339.00,0.0146
1338.00,0.0145
1337.00,0.0144
1336.00,0.0145
1335.00,0.0146
1334.00,0.0148
1333.00,0.0152
1332.00,0.0155
1331.00,0.0158
1330.00,0.0159
1329.00,0.0158
1328.00,0.0155
1327.00,0.0150
1326.00,0.0144
1325.00,0.0139
1324.00,0.0133
1323.00,0.0129
1322.00,0.0126
1321.00,0.0123
1320.00,0.0120
1319.00,0.0117
1318.00,0.0115
1317.00,0.0113
1316.00,0.0112
1315.00,0.0111
1314.00,0.0110
1313.00,0.0111
1312.00,0.0112
1311.00,0.0114
1310.00,0.0118
1309.00,0.0124
1308.00,0.0133
1307.00,0.0144
1306.00,0.0154
1305.00,0.0161
1304.00,0.0163
1303.00,0.0160
1302.00,0.0155
1301.00,0.0150
1300.00,0.0146
1299.00,0.0145
1298.00,0.0144
1297.00,0.0144
1296.00,0.0143
1295.00,0.0141
1294.00,0.0138
1293.00,0.0133
1292.00,0.0128
1291.00,0.0123
1290.00,0.0118
1289.00,0.0115
1288.00,0.0112
1287.00,0.0110
1286.00,0.0108
1285.00,0.0107
1284.00,0.0105
1283.00,0.0103
1282.00,0.0102
1281.00,0.0101
1280.00,0.0100
1279.00,0.0099
1278.00,0.0099
1277.00,0.0098
1276.00,0.0097
1275.00,0.0097
1274.00,0.0097
1273.00,0.0098
1272.00,0.0098
1271.00,0.0098
1270.00,0.0098
1269.00,0.0099
1268.00,0.0100
1267.00,0.0101
1266.00,0.0102
1265.00,0.0104
1264.00,0.0106
1263.00,0.0109
1262.00,0.0112
1261.00,0.0117
1260.00,0.0123
1259.00,0.0129
1258.00,0.0136
1257.00,0.0142
1256.00,0.0145
1255.00,0.0145
1254.00,0.0140
1253.00,0.0133
1252.00,0.0126
1251.00,0.0120
1250.00,0.0115
1249.00,0.0112
1248.00,0.0110
1247.00,0.0109
1246.00,0.0108
1245.00,0.0107
1244.00,0.0106
1243.00,0.0105
1242.00,0.0105
1241.00,0.0104
1240.00,0.0103
1239.00,0.0103
1238.00,0.0102
1237.00,0.0102
1236.00,0.0101
1235.00,0.0100
1234.00,0.0099
1233.00,0.0099
1232.00,0.0099
1231.00,0.0099
1230.00,0.0099
1229.00,0.0099
1228.00,0.0100
1227.00,0.0101
1226.00,0.0102
1225.00,0.0103
1224.00,0.0106
1223.00,0.0109
1222.00,0.0112
1221.00,0.0114
1220.00,0.0116
1219.00,0.0116
1218.00,0.0116
1217.00,0.0114
1216.00,0.0112
1215.00,0.0109
1214.00,0.0107
1213.00,0.0105
1212.00,0.0102
1211.00,0.0100
1210.00,0.0098
1209.00,0.0097
1208.00,0.0095
1207.00,0.0094
1206.00,0.0093
1205.00,0.0092
1204.00,0.0091
1203.00,0.0090
1202.00,0.0090
1201.00,0.0089
1200.00,0.0089
1199.00,0.0089
1198.00,0.0090
1197.00,0.0090
1196.00,0.0090
1195.00,0.0090
1194.00,0.0089
1193.00,0.0089
1192.00,0.0089
1191.00,0.0090
1190.00,0.0090
1189.00,0.0091
1188.00,0.0091
1187.00,0.0091
1186.00,0.0091
1185.00,0.0092
1184.00,0.0092
1183.00,0.0094
1182.00,0.0096
1181.00,0.0099
1180.00,0.0103
1179.00,0.0108
1178.00,0.0116
1177.00,0.0125
1176.00,0.0137
1175.00,0.0153
1174.00,0.0173
1173.00,0.0197
1172.00,0.0226
1171.00,0.0258
1170.00,0.0289
1169.00,0.0315
1168.00,0.0331
1167.00,0.0337
1166.00,0.0333
1165.00,0.0321
1164.00,0.0306
1163.00,0.0289
1162.00,0.0274
1161.00,0.0260
1160.00,0.0250
1159.00,0.0241
1158.00,0.0234
1157.00,0.0229
1156.00,0.0225
1155.00,0.0222
1154.00,0.0219
1153.00,0.0216
1152.00,0.0212
1151.00,0.0206
1150.00,0.0198
1149.00,0.0189
1148.00,0.0180
1147.00,0.0171
1146.00,0.0164
1145.00,0.0156
1144.00,0.0150
1143.00,0.0145
1142.00,0.0140
1141.00,0.0135
1140.00,0.0131
1139.00,0.0127
1138.00,0.0123
1137.00,0.0120
1136.00,0.0117
1135.00,0.0114
1134.00,0.0113
1133.00,0.0112
1132.00,0.0112
1131.00,0.0113
1130.00,0.0114
1129.00,0.0116
1128.00,0.0117
1127.00,0.0119
1126.00,0.0120
1125.00,0.0120
1124.00,0.0120
1123.00,0.0120
1122.00,0.0120
1121.00,0.0121
1120.00,0.0123
1119.00,0.0125
1118.00,0.0127
1117.00,0.0129
1116.00,0.0130
1115.00,0.0132
1114.00,0.0133
1113.00,0.0134
1112.00,0.0136
1111.00,0.0139
1110.00,0.0142
1109.00,0.0146
1108.00,0.0150
1107.00,0.0155
1106.00,0.0161
1105.00,0.0167
1104.00,0.0171
1103.00,0.0173
1102.00,0.0173
1101.00,0.0171
1100.00,0.0167
1099.00,0.0162
1098.00,0.0157
1097.00,0.0151
1096.00,0.0146
1095.00,0.0142
1094.00,0.0139
1093.00,0.0136
1092.00,0.0134
1091.00,0.0132
1090.00,0.0131
1089.00,0.0129
1088.00,0.0128
1087.00,0.0127
1086.00,0.0127
1085.00,0.0127
1084.00,0.0127
1083.00,0.0127
1082.00,0.0127
1081.00,0.0126
1080.00,0.0125
1079.00,0.0123
1078.00,0.0121
1077.00,0.0119
1076.00,0.0118
1075.00,0.0117
1074.00,0.0118
1073.00,0.0118
1072.00,0.0118
1071.00,0.0119
1070.00,0.0120
1069.00,0.0120
1068.00,0.0121
1067.00,0.0121
1066.00,0.0121
1065.00,0.0120
1064.00,0.0120
1063.00,0.0121
1062.00,0.0121
1061.00,0.0122
1060.00,0.0124
1059.00,0.0125
1058.00,0.0125
1057.00,0.0125
1056.00,0.0126
1055.00,0.0127
1054.00,0.0128
1053.00,0.0128
1052.00,0.0130
1051.00,0.0131
1050.00,0.0134
1049.00,0.0137
1048.00,0.0139
1047.00,0.0142
1046.00,0.0144
1045.00,0.0144
1044.00,0.0143
1043.00,0.0140
1042.00,0.0138
1041.00,0.0135
1040.00,0.0134
1039.00,0.0133
1038.00,0.0133
1037.00,0.0133
1036.00,0.0133
1035.00,0.0133
1034.00,0.0133
1033.00,0.0133
1032.00,0.0134
1031.00,0.0134
1030.00,0.0134
1029.00,0.0133
1028.00,0.0132
1027.00,0.0130
1026.00,0.0130
1025.00,0.0131
1024.00,0.0132
1023.00,0.0132
1022.00,0.0133
1021.00,0.0134
1020.00,0.0134
1019.00,0.0134
1018.00,0.0134
1017.00,0.0135
1016.00,0.0137
1015.00,0.0139
1014.00,0.0141
1013.00,0.0143
1012.00,0.0145
1011.00,0.0149
1010.00,0.0152
1009.00,0.0157
1008.00,0.0161
1007.00,0.0168
1006.00,0.0176
1005.00,0.0188
1004.00,0.0203
1003.00,0.0224
1002.00,0.0252
1001.00,0.0286
1000.00,0.0322
999.00,0.0351
998.00,0.0366
997.00,0.0359
996.00,0.0333
995.00,0.0295
994.00,0.0256
993.00,0.0221
992.00,0.0194
991.00,0.0174
990.00,0.0160
989.00,0.0151
988.00,0.0145
987.00,0.0142
986.00,0.0141
985.00,0.0143
984.00,0.0147
983.00,0.0154
982.00,0.0165
981.00,0.0180
980.00,0.0200
979.00,0.0228
978.00,0.0262
977.00,0.0304
976.00,0.0348
975.00,0.0390
974.00,0.0421
973.00,0.0431
972.00,0.0418
971.00,0.0384
970.00,0.0336
969.00,0.0287
968.00,0.0244
967.00,0.0210
966.00,0.0185
965.00,0.0167
964.00,0.0153
963.00,0.0142
962.00,0.0133
961.00,0.0126
960.00,0.0121
959.00,0.0117
958.00,0.0114
957.00,0.0111
956.00,0.0108
955.00,0.0105
954.00,0.0102
953.00,0.0099
952.00,0.0098
951.00,0.0097
950.00,0.0096
949.00,0.0096
948.00,0.0096
947.00,0.0096
946.00,0.0098
945.00,0.0099
944.00,0.0101
943.00,0.0103
942.00,0.0105
941.00,0.0106
940.00,0.0106
939.00,0.0105
938.00,0.0102
937.00,0.0099
936.00,0.0095
935.00,0.0091
934.00,0.0088
933.00,0.0085
932.00,0.0083
931.00,0.0082
930.00,0.0082
929.00,0.0081
928.00,0.0079
927.00,0.0079
926.00,0.0079
925.00,0.0079
924.00,0.0079
923.00,0.0080
922.00,0.0081
921.00,0.0082
920.00,0.0083
919.00,0.0084
918.00,0.0086
917.00,0.0087
916.00,0.0088
915.00,0.0089
914.00,0.0088
913.00,0.0088
912.00,0.0088
911.00,0.0088
910.00,0.0089
909.00,0.0090
908.00,0.0093
907.00,0.0098
906.00,0.0106
905.00,0.0116
904.00,0.0129
903.00,0.0145
902.00,0.0163
901.00,0.0179
900.00,0.0190
899.00,0.0192
898.00,0.0186
897.00,0.0174
896.00,0.0157
895.00,0.0140
894.00,0.0126
893.00,0.0115
892.00,0.0107
891.00,0.0101
890.00,0.0097
889.00,0.0094
888.00,0.0093
887.00,0.0093
886.00,0.0096
885.00,0.0099
884.00,0.0104
883.00,0.0108
882.00,0.0114
881.00,0.0122
880.00,0.0131
879.00,0.0140
878.00,0.0148
877.00,0.0151
876.00,0.0150
875.00,0.0147
874.00,0.0141
873.00,0.0133
872.00,0.0123
871.00,0.0113
870.00,0.0105
869.00,0.0099
868.00,0.0097
867.00,0.0096
866.00,0.0096
865.00,0.0096
864.00,0.0096
863.00,0.0097
862.00,0.0098
861.00,0.0099
860.00,0.0101
859.00,0.0103
858.00,0.0105
857.00,0.0106
856.00,0.0108
855.00,0.0110
854.00,0.0112
853.00,0.0114
852.00,0.0116
851.00,0.0120
850.00,0.0125
849.00,0.0132
848.00,0.0142
847.00,0.0157
846.00,0.0178
845.00,0.0209
844.00,0.0250
843.00,0.0294
842.00,0.0328
841.00,0.0336
840.00,0.0315
839.00,0.0274
838.00,0.0230
837.00,0.0194
836.00,0.0170
835.00,0.0156
834.00,0.0147
833.00,0.0142
832.00,0.0139
831.00,0.0135
830.00,0.0130
829.00,0.0126
828.00,0.0124
827.00,0.0123
826.00,0.0124
825.00,0.0123
824.00,0.0122
823.00,0.0120
822.00,0.0119
821.00,0.0121
820.00,0.0123
819.00,0.0126
818.00,0.0128
817.00,0.0133
816.00,0.0139
815.00,0.0148
814.00,0.0160
813.00,0.0174
812.00,0.0188
811.00,0.0202
810.00,0.0211
809.00,0.0216
808.00,0.0214
807.00,0.0205
806.00,0.0192
805.00,0.0177
804.00,0.0163
803.00,0.0152
802.00,0.0143
801.00,0.0136
800.00,0.0131
799.00,0.0126
798.00,0.0122
797.00,0.0116
796.00,0.0111
795.00,0.0107
794.00,0.0104
793.00,0.0102
792.00,0.0101
791.00,0.0099
790.00,0.0099
789.00,0.0099
788.00,0.0098
787.00,0.0097
786.00,0.0095
785.00,0.0091
784.00,0.0088
783.00,0.0084
782.00,0.0082
781.00,0.0081
780.00,0.0080
779.00,0.0081
778.00,0.0081
777.00,0.0082
776.00,0.0083
775.00,0.0084
774.00,0.0086
773.00,0.0089
772.00,0.0093
771.00,0.0096
770.00,0.0098
769.00,0.0099
768.00,0.0099
767.00,0.0099
766.00,0.0098
765.00,0.0097
764.00,0.0094
763.00,0.0091
762.00,0.0087
761.00,0.0084
760.00,0.0082
759.00,0.0082
758.00,0.0081
757.00,0.0079
756.00,0.0078
755.00,0.0077
754.00,0.0077
753.00,0.0077
752.00,0.0076
751.00,0.0075
750.00,0.0074
749.00,0.0074
748.00,0.0074
747.00,0.0075
746.00,0.0075
745.00,0.0075
744.00,0.0076
743.00,0.0078
742.00,0.0080
741.00,0.0081
740.00,0.0082
739.00,0.0083
738.00,0.0083
737.00,0.0084
736.00,0.0084
735.00,0.0085
734.00,0.0087
733.00,0.0088
732.00,0.0089
731.00,0.0089
730.00,0.0088
729.00,0.0087
728.00,0.0088
727.00,0.0089
726.00,0.0091
725.00,0.0092
724.00,0.0093
723.00,0.0092
722.00,0.0092
721.00,0.0092
720.00,0.0092
719.00,0.0092
718.00,0.0093
717.00,0.0093
716.00,0.0094
715.00,0.0095
714.00,0.0096
713.00,0.0095
712.00,0.0093
711.00,0.0092
710.00,0.0091
709.00,0.0091
708.00,0.0089
707.00,0.0086
706.00,0.0084
705.00,0.0084
704.00,0.0084
703.00,0.0084
702.00,0.0084
701.00,0.0082
700.00,0.0081
699.00,0.0079
698.00,0.0078
697.00,0.0077
696.00,0.0076
695.00,0.0075
694.00,0.0075
693.00,0.0075
692.00,0.0076
691.00,0.0078
690.00,0.0078
689.00,0.0078
688.00,0.0077
687.00,0.0077
686.00,0.0076
685.00,0.0076
684.00,0.0075
683.00,0.0076
682.00,0.0079
681.00,0.0082
680.00,0.0083
679.00,0.0082
678.00,0.0080
677.00,0.0079
676.00,0.0080
675.00,0.0082
674.00,0.0083
673.00,0.0082
672.00,0.0079
671.00,0.0077
670.00,0.0076
669.00,0.0076
668.00,0.0079
667.00,0.0082
666.00,0.0081
665.00,0.0081
664.00,0.0081
663.00,0.0083
662.00,0.0085
661.00,0.0086
660.00,0.0084
659.00,0.0081
658.00,0.0079
657.00,0.0077
656.00,0.0077
655.00,0.0078
654.00,0.0080
653.00,0.0080
652.00,0.0081
651.00,0.0082
650.00,0.0083
649.00,0.0084
648.00,0.0082
647.00,0.0080
646.00,0.0080
645.00,0.0083
644.00,0.0085
643.00,0.0086
642.00,0.0087
641.00,0.0087
640.00,0.0086
639.00,0.0086
638.00,0.0085
637.00,0.0085
636.00,0.0085
635.00,0.0086
634.00,0.0088
633.00,0.0090
632.00,0.0091
631.00,0.0090
630.00,0.0087
629.00,0.0086
628.00,0.0086
627.00,0.0087
626.00,0.0089
625.00,0.0090
624.00,0.0090
623.00,0.0090
622.00,0.0090
621.00,0.0089
620.00,0.0088
619.00,0.0087
618.00,0.0087
617.00,0.0087
616.00,0.0088
615.00,0.0089
614.00,0.0091
613.00,0.0092
612.00,0.0093
611.00,0.0094
610.00,0.0095
609.00,0.0095
608.00,0.0094
607.00,0.0091
606.00,0.0089
605.00,0.0087
604.00,0.0086
603.00,0.0084
602.00,0.0084
601.00,0.0085
600.00,0.0086
599.00,0.0086
598.00,0.0086
597.00,0.0085
596.00,0.0085
595.00,0.0086
594.00,0.0089
593.00,0.0091
592.00,0.0092
591.00,0.0091
590.00,0.0091
589.00,0.0092
588.00,0.0095
587.00,0.0098
586.00,0.0100
585.00,0.0101
584.00,0.0099
583.00,0.0095
582.00,0.0093
581.00,0.0094
580.00,0.0096
579.00,0.0098
578.00,0.0098
577.00,0.0098
576.00,0.0095
575.00,0.0093
574.00,0.0091
573.00,0.0090
572.00,0.0090
571.00,0.0091
570.00,0.0091
569.00,0.0091
568.00,0.0091
567.00,0.0091
566.00,0.0091
565.00,0.0091
564.00,0.0091
563.00,0.0091
562.00,0.0091
561.00,0.0090
560.00,0.0089
559.00,0.0088
558.00,0.0088
557.00,0.0090
556.00,0.0092
555.00,0.0095
554.00,0.0096
553.00,0.0095
552.00,0.0094
551.00,0.0093
550.00,0.0091
549.00,0.0091
548.00,0.0091
547.00,0.0092
546.00,0.0092
545.00,0.0092
544.00,0.0092
543.00,0.0092
542.00,0.0092
541.00,0.0092
540.00,0.0093
539.00,0.0097
538.00,0.0102
537.00,0.0106
536.00,0.0107
535.00,0.0107
534.00,0.0106
533.00,0.0107
532.00,0.0108
531.00,0.0110
530.00,0.0108
529.00,0.0104
528.00,0.0098
527.00,0.0094
526.00,0.0094
525.00,0.0097
524.00,0.0102
523.00,0.0106
522.00,0.0106
521.00,0.0101
520.00,0.0091
519.00,0.0082
518.00,0.0078
517.00,0.0081
516.00,0.0088
515.00,0.0096
514.00,0.0101
513.00,0.0100
512.00,0.0095
511.00,0.0092
510.00,0.0092
509.00,0.0092
508.00,0.0090
507.00,0.0086
506.00,0.0082
505.00,0.0080
504.00,0.0080
503.00,0.0081
502.00,0.0083
501.00,0.0086
500.00,0.0087
499.00,0.0084
498.00,0.0077
497.00,0.0070
496.00,0.0068
495.00,0.0072
494.00,0.0079
493.00,0.0084
492.00,0.0086
491.00,0.0087
490.00,0.0089
489.00,0.0091
488.00,0.0091
487.00,0.0092
486.00,0.0097
485.00,0.0107
484.00,0.0116
483.00,0.0119
482.00,0.0114
481.00,0.0102
480.00,0.0091
479.00,0.0084
478.00,0.0082
477.00,0.0082
476.00,0.0084
475.00,0.0088
474.00,0.0093
473.00,0.0097
472.00,0.0099
471.00,0.0102
470.00,0.0104
469.00,0.0102
468.00,0.0096
467.00,0.0092
466.00,0.0094
465.00,0.0102
464.00,0.0112
463.00,0.0126
462.00,0.0143
461.00,0.0159
460.00,0.0167
459.00,0.0165
458.00,0.0155
457.00,0.0145
456.00,0.0142
455.00,0.0142
454.00,0.0139
453.00,0.0134
452.00,0.0129
451.00,0.0126
450.00,0.0121
