Created as New Dataset,Sample 102 By Administrator Date Wednesday, September 10 2025
cm-1,A
4000.00,0.0009
3999.00,0.0009
3998.00,0.0009
3997.00,0.0009
3996.00,0.0009
3995.00,0.0009
3994.00,0.0009
3993.00,0.0009
3992.00,0.0009
3991.00,0.0009
3990.00,0.0008
3989.00,0.0008
3988.00,0.0008
3987.00,0.0009
3986.00,0.0009
3985.00,0.0009
3984.00,0.0008
3983.00,0.0008
3982.00,0.0008
3981.00,0.0007
3980.00,0.0007
3979.00,0.0007
3978.00,0.0008
3977.00,0.0008
3976.00,0.0008
3975.00,0.0008
3974.00,0.0008
3973.00,0.0008
3972.00,0.0007
3971.00,0.0007
3970.00,0.0007
3969.00,0.0007
3968.00,0.0007
3967.00,0.0007
3966.00,0.0007
3965.00,0.0007
3964.00,0.0007
3963.00,0.0007
3962.00,0.0007
3961.00,0.0007
3960.00,0.0007
3959.00,0.0007
3958.00,0.0007
3957.00,0.0006
3956.00,0.0006
3955.00,0.0006
3954.00,0.0006
3953.00,0.0006
3952.00,0.0005
3951.00,0.0005
3950.00,0.0005
3949.00,0.0006
3948.00,0.0006
3947.00,0.0007
3946.00,0.0007
3945.00,0.0007
3944.00,0.0007
3943.00,0.0007
3942.00,0.0007
3941.00,0.0007
3940.00,0.0007
3939.00,0.0007
3938.00,0.0007
3937.00,0.0007
3936.00,0.0007
3935.00,0.0007
3934.00,0.0007
3933.00,0.0007
3932.00,0.0007
3931.00,0.0007
3930.00,0.0007
3929.00,0.0007
3928.00,0.0007
3927.00,0.0007
3926.00,0.0006
3925.00,0.0006
3924.00,0.0007
3923.00,0.0007
3922.00,0.0007
3921.00,0.0008
3920.00,0.0008
3919.00,0.0007
3918.00,0.0007
3917.00,0.0007
3916.00,0.0007
3915.00,0.0007
3914.00,0.0007
3913.00,0.0006
3912.00,0.0006
3911.00,0.0006
3910.00,0.0006
3909.00,0.0006
3908.00,0.0006
3907.00,0.0006
3906.00,0.0006
3905.00,0.0006
3904.00,0.0006
3903.00,0.0006
3902.00,0.0005
3901.00,0.0005
3900.00,0.0005
3899.00,0.0006
3898.00,0.0006
3897.00,0.0006
3896.00,0.0006
3895.00,0.0007
3894.00,0.0007
3893.00,0.0007
3892.00,0.0006
3891.00,0.0006
3890.00,0.0006
3889.00,0.0006
3888.00,0.0005
3887.00,0.0005
3886.00,0.0005
3885.00,0.0005
3884.00,0.0006
3883.00,0.0006
3882.00,0.0006
3881.00,0.0006
3880.00,0.0006
3879.00,0.0006
3878.00,0.0006
3877.00,0.0006
3876.00,0.0005
3875.00,0.0005
3874.00,0.0005
3873.00,0.0005
3872.00,0.0005
3871.00,0.0005
3870.00,0.0005
3869.00,0.0005
3868.00,0.0005
3867.00,0.0005
3866.00,0.0006
3865.00,0.0006
3864.00,0.0006
3863.00,0.0006
3862.00,0.0006
3861.00,0.0006
3860.00,0.0006
3859.00,0.0006
3858.00,0.0006
3857.00,0.0006
3856.00,0.0006
3855.00,0.0006
3854.00,0.0005
3853.00,0.0005
3852.00,0.0005
3851.00,0.0005
3850.00,0.0005
3849.00,0.0005
3848.00,0.0005
3847.00,0.0005
3846.00,0.0005
3845.00,0.0005
3844.00,0.0005
3843.00,0.0005
3842.00,0.0004
3841.00,0.0004
3840.00,0.0004
3839.00,0.0004
3838.00,0.0004
3837.00,0.0004
3836.00,0.0005
3835.00,0.0005
3834.00,0.0006
3833.00,0.0006
3832.00,0.0006
3831.00,0.0006
3830.00,0.0006
3829.00,0.0006
3828.00,0.0006
3827.00,0.0006
3826.00,0.0006
3825.00,0.0006
3824.00,0.0006
3823.00,0.0007
3822.00,0.0007
3821.00,0.0006
3820.00,0.0006
3819.00,0.0005
3818.00,0.0005
3817.00,0.0005
3816.00,0.0005
3815.00,0.0005
3814.00,0.0006
3813.00,0.0006
3812.00,0.0006
3811.00,0.0006
3810.00,0.0006
3809.00,0.0006
3808.00,0.0006
3807.00,0.0006
3806.00,0.0006
3805.00,0.0006
3804.00,0.0006
3803.00,0.0006
3802.00,0.0006
3801.00,0.0006
3800.00,0.0005
3799.00,0.0005
3798.00,0.0005
3797.00,0.0005
3796.00,0.0005
3795.00,0.0006
3794.00,0.0006
3793.00,0.0007
3792.00,0.0007
3791.00,0.0007
3790.00,0.0007
3789.00,0.0007
3788.00,0.0007
3787.00,0.0007
3786.00,0.0007
3785.00,0.0006
3784.00,0.0006
3783.00,0.0006
3782.00,0.0007
3781.00,0.0007
3780.00,0.0007
3779.00,0.0007
3778.00,0.0006
3777.00,0.0006
3776.00,0.0006
3775.00,0.0007
3774.00,0.0007
3773.00,0.0007
3772.00,0.0007
3771.00,0.0007
3770.00,0.0007
3769.00,0.0007
3768.00,0.0007
3767.00,0.0006
3766.00,0.0006
3765.00,0.0006
3764.00,0.0006
3763.00,0.0006
3762.00,0.0006
3761.00,0.0006
3760.00,0.0006
3759.00,0.0006
3758.00,0.0006
3757.00,0.0006
3756.00,0.0006
3755.00,0.0006
3754.00,0.0006
3753.00,0.0007
3752.00,0.0007
3751.00,0.0007
3750.00,0.0007
3749.00,0.0006
3748.00,0.0005
3747.00,0.0005
3746.00,0.0005
3745.00,0.0005
3744.00,0.0005
3743.00,0.0006
3742.00,0.0006
3741.00,0.0006
3740.00,0.0006
3739.00,0.0006
3738.00,0.0006
3737.00,0.0006
3736.00,0.0006
3735.00,0.0005
3734.00,0.0005
3733.00,0.0005
3732.00,0.0005
3731.00,0.0005
3730.00,0.0005
3729.00,0.0006
3728.00,0.0006
3727.00,0.0006
3726.00,0.0006
3725.00,0.0005
3724.00,0.0005
3723.00,0.0005
3722.00,0.0004
3721.00,0.0004
3720.00,0.0005
3719.00,0.0005
3718.00,0.0005
3717.00,0.0006
3716.00,0.0006
3715.00,0.0006
3714.00,0.0006
3713.00,0.0006
3712.00,0.0006
3711.00,0.0005
3710.00,0.0005
3709.00,0.0005
3708.00,0.0004
3707.00,0.0004
3706.00,0.0004
3705.00,0.0005
3704.00,0.0005
3703.00,0.0005
3702.00,0.0005
3701.00,0.0005
3700.00,0.0006
3699.00,0.0006
3698.00,0.0005
3697.00,0.0005
3696.00,0.0005
3695.00,0.0005
3694.00,0.0005
3693.00,0.0005
3692.00,0.0005
3691.00,0.0004
3690.00,0.0004
3689.00,0.0005
3688.00,0.0005
3687.00,0.0006
3686.00,0.0006
3685.00,0.0006
3684.00,0.0006
3683.00,0.0007
3682.00,0.0007
3681.00,0.0007
3680.00,0.0006
3679.00,0.0006
3678.00,0.0005
3677.00,0.0005
3676.00,0.0005
3675.00,0.0005
3674.00,0.0004
3673.00,0.0004
3672.00,0.0005
3671.00,0.0005
3670.00,0.0005
3669.00,0.0005
3668.00,0.0005
3667.00,0.0006
3666.00,0.0006
3665.00,0.0007
3664.00,0.0007
3663.00,0.0007
3662.00,0.0007
3661.00,0.0007
3660.00,0.0006
3659.00,0.0006
3658.00,0.0006
3657.00,0.0006
3656.00,0.0006
3655.00,0.0006
3654.00,0.0005
3653.00,0.0005
3652.00,0.0005
3651.00,0.0004
3650.00,0.0005
3649.00,0.0005
3648.00,0.0006
3647.00,0.0006
3646.00,0.0006
3645.00,0.0007
3644.00,0.0007
3643.00,0.0007
3642.00,0.0007
3641.00,0.0008
3640.00,0.0008
3639.00,0.0008
3638.00,0.0008
3637.00,0.0009
3636.00,0.0009
3635.00,0.0009
3634.00,0.0008
3633.00,0.0008
3632.00,0.0008
3631.00,0.0008
3630.00,0.0008
3629.00,0.0008
3628.00,0.0008
3627.00,0.0009
3626.00,0.0009
3625.00,0.0009
3624.00,0.0009
3623.00,0.0009
3622.00,0.0009
3621.00,0.0009
3620.00,0.0009
3619.00,0.0010
3618.00,0.0010
3617.00,0.0010
3616.00,0.0010
3615.00,0.0010
3614.00,0.0010
3613.00,0.0010
3612.00,0.0011
3611.00,0.0011
3610.00,0.0012
3609.00,0.0012
3608.00,0.0012
3607.00,0.0012
3606.00,0.0012
3605.00,0.0012
3604.00,0.0013
3603.00,0.0012
3602.00,0.0012
3601.00,0.0012
3600.00,0.0012
3599.00,0.0012
3598.00,0.0012
3597.00,0.0012
3596.00,0.0013
3595.00,0.0013
3594.00,0.0014
3593.00,0.0014
3592.00,0.0014
3591.00,0.0015
3590.00,0.0014
3589.00,0.0014
3588.00,0.0015
3587.00,0.0015
3586.00,0.0016
3585.00,0.0016
3584.00,0.0016
3583.00,0.0017
3582.00,0.0017
3581.00,0.0017
3580.00,0.0017
3579.00,0.0017
3578.00,0.0017
3577.00,0.0018
3576.00,0.0018
3575.00,0.0018
3574.00,0.0018
3573.00,0.0018
3572.00,0.0019
3571.00,0.0019
3570.00,0.0019
3569.00,0.0019
3568.00,0.0019
3567.00,0.0019
3566.00,0.0020
3565.00,0.0020
3564.00,0.0021
3563.00,0.0022
3562.00,0.0022
3561.00,0.0022
3560.00,0.0022
3559.00,0.0023
3558.00,0.0023
3557.00,0.0023
3556.00,0.0023
3555.00,0.0023
3554.00,0.0023
3553.00,0.0023
3552.00,0.0023
3551.00,0.0024
3550.00,0.0024
3549.00,0.0024
3548.00,0.0025
3547.00,0.0025
3546.00,0.0026
3545.00,0.0026
3544.00,0.0027
3543.00,0.0027
3542.00,0.0027
3541.00,0.0028
3540.00,0.0028
3539.00,0.0028
3538.00,0.0029
3537.00,0.0029
3536.00,0.0029
3535.00,0.0030
3534.00,0.0030
3533.00,0.0030
3532.00,0.0030
3531.00,0.0030
3530.00,0.0030
3529.00,0.0031
3528.00,0.0031
3527.00,0.0031
3526.00,0.0031
3525.00,0.0031
3524.00,0.0031
3523.00,0.0031
3522.00,0.0032
3521.00,0.0032
3520.00,0.0033
3519.00,0.0033
3518.00,0.0034
3517.00,0.0034
3516.00,0.0034
3515.00,0.0035
3514.00,0.0035
3513.00,0.0035
3512.00,0.0035
3511.00,0.0035
3510.00,0.0035
3509.00,0.0035
3508.00,0.0035
3507.00,0.0036
3506.00,0.0036
3505.00,0.0037
3504.00,0.0037
3503.00,0.0038
3502.00,0.0038
3501.00,0.0038
3500.00,0.0038
3499.00,0.0038
3498.00,0.0038
3497.00,0.0038
3496.00,0.0039
3495.00,0.0039
3494.00,0.0040
3493.00,0.0040
3492.00,0.0040
3491.00,0.0041
3490.00,0.0041
3489.00,0.0042
3488.00,0.0042
3487.00,0.0042
3486.00,0.0042
3485.00,0.0042
3484.00,0.0042
3483.00,0.0043
3482.00,0.0044
3481.00,0.0044
3480.00,0.0044
3479.00,0.0044
3478.00,0.0044
3477.00,0.0044
3476.00,0.0044
3475.00,0.0044
3474.00,0.0044
3473.00,0.0045
3472.00,0.0045
3471.00,0.0046
3470.00,0.0046
3469.00,0.0046
3468.00,0.0047
3467.00,0.0047
3466.00,0.0047
3465.00,0.0047
3464.00,0.0047
3463.00,0.0047
3462.00,0.0047
3461.00,0.0047
3460.00,0.0048
3459.00,0.0048
3458.00,0.0049
3457.00,0.0049
3456.00,0.0050
3455.00,0.0050
3454.00,0.0051
3453.00,0.0051
3452.00,0.0051
3451.00,0.0051
3450.00,0.0051
3449.00,0.0051
3448.00,0.0051
3447.00,0.0051
3446.00,0.0051
3445.00,0.0052
3444.00,0.0052
3443.00,0.0053
3442.00,0.0053
3441.00,0.0054
3440.00,0.0054
3439.00,0.0054
3438.00,0.0054
3437.00,0.0054
3436.00,0.0054
3435.00,0.0054
3434.00,0.0054
3433.00,0.0055
3432.00,0.0055
3431.00,0.0056
3430.00,0.0056
3429.00,0.0056
3428.00,0.0056
3427.00,0.0056
3426.00,0.0056
3425.00,0.0056
3424.00,0.0056
3423.00,0.0057
3422.00,0.0057
3421.00,0.0057
3420.00,0.0057
3419.00,0.0057
3418.00,0.0057
3417.00,0.0057
3416.00,0.0058
3415.00,0.0058
3414.00,0.0059
3413.00,0.0059
3412.00,0.0059
3411.00,0.0060
3410.00,0.0060
3409.00,0.0060
3408.00,0.0060
3407.00,0.0060
3406.00,0.0060
3405.00,0.0060
3404.00,0.0061
3403.00,0.0061
3402.00,0.0061
3401.00,0.0062
3400.00,0.0062
3399.00,0.0062
3398.00,0.0062
3397.00,0.0062
3396.00,0.0062
3395.00,0.0062
3394.00,0.0062
3393.00,0.0062
3392.00,0.0062
3391.00,0.0062
3390.00,0.0061
3389.00,0.0062
3388.00,0.0062
3387.00,0.0062
3386.00,0.0062
3385.00,0.0062
3384.00,0.0062
3383.00,0.0062
3382.00,0.0062
3381.00,0.0063
3380.00,0.0063
3379.00,0.0063
3378.00,0.0063
3377.00,0.0063
3376.00,0.0062
3375.00,0.0062
3374.00,0.0062
3373.00,0.0062
3372.00,0.0063
3371.00,0.0063
3370.00,0.0063
3369.00,0.0063
3368.00,0.0063
3367.00,0.0063
3366.00,0.0063
3365.00,0.0062
3364.00,0.0063
3363.00,0.0063
3362.00,0.0063
3361.00,0.0063
3360.00,0.0063
3359.00,0.0063
3358.00,0.0063
3357.00,0.0063
3356.00,0.0063
3355.00,0.0063
3354.00,0.0063
3353.00,0.0064
3352.00,0.0064
3351.00,0.0064
3350.00,0.0064
3349.00,0.0064
3348.00,0.0064
3347.00,0.0064
3346.00,0.0064
3345.00,0.0064
3344.00,0.0064
3343.00,0.0064
3342.00,0.0063
3341.00,0.0063
3340.00,0.0063
3339.00,0.0064
3338.00,0.0064
3337.00,0.0063
3336.00,0.0063
3335.00,0.0062
3334.00,0.0062
3333.00,0.0062
3332.00,0.0062
3331.00,0.0062
3330.00,0.0062
3329.00,0.0062
3328.00,0.0062
3327.00,0.0062
3326.00,0.0062
3325.00,0.0062
3324.00,0.0062
3323.00,0.0061
3322.00,0.0061
3321.00,0.0061
3320.00,0.0061
3319.00,0.0062
3318.00,0.0062
3317.00,0.0062
3316.00,0.0062
3315.00,0.0062
3314.00,0.0061
3313.00,0.0061
3312.00,0.0061
3311.00,0.0061
3310.00,0.0061
3309.00,0.0061
3308.00,0.0061
3307.00,0.0061
3306.00,0.0061
3305.00,0.0061
3304.00,0.0061
3303.00,0.0060
3302.00,0.0060
3301.00,0.0060
3300.00,0.0060
3299.00,0.0060
3298.00,0.0060
3297.00,0.0060
3296.00,0.0060
3295.00,0.0059
3294.00,0.0059
3293.00,0.0058
3292.00,0.0058
3291.00,0.0058
3290.00,0.0059
3289.00,0.0059
3288.00,0.0059
3287.00,0.0058
3286.00,0.0058
3285.00,0.0058
3284.00,0.0058
3283.00,0.0058
3282.00,0.0058
3281.00,0.0057
3280.00,0.0057
3279.00,0.0057
3278.00,0.0056
3277.00,0.0056
3276.00,0.0056
3275.00,0.0056
3274.00,0.0056
3273.00,0.0056
3272.00,0.0055
3271.00,0.0055
3270.00,0.0055
3269.00,0.0055
3268.00,0.0055
3267.00,0.0054
3266.00,0.0054
3265.00,0.0053
3264.00,0.0053
3263.00,0.0053
3262.00,0.0054
3261.00,0.0054
3260.00,0.0053
3259.00,0.0053
3258.00,0.0053
3257.00,0.0052
3256.00,0.0052
3255.00,0.0052
3254.00,0.0052
3253.00,0.0052
3252.00,0.0052
3251.00,0.0052
3250.00,0.0052
3249.00,0.0052
3248.00,0.0051
3247.00,0.0051
3246.00,0.0051
3245.00,0.0051
3244.00,0.0050
3243.00,0.0050
3242.00,0.0050
3241.00,0.0050
3240.00,0.0050
3239.00,0.0050
3238.00,0.0050
3237.00,0.0050
3236.00,0.0050
3235.00,0.0050
3234.00,0.0051
3233.00,0.0051
3232.00,0.0051
3231.00,0.0051
3230.00,0.0050
3229.00,0.0050
3228.00,0.0050
3227.00,0.0050
3226.00,0.0050
3225.00,0.0050
3224.00,0.0051
3223.00,0.0051
3222.00,0.0051
3221.00,0.0052
3220.00,0.0052
3219.00,0.0052
3218.00,0.0052
3217.00,0.0052
3216.00,0.0052
3215.00,0.0052
3214.00,0.0052
3213.00,0.0052
3212.00,0.0053
3211.00,0.0053
3210.00,0.0053
3209.00,0.0053
3208.00,0.0053
3207.00,0.0053
3206.00,0.0053
3205.00,0.0053
3204.00,0.0053
3203.00,0.0054
3202.00,0.0054
3201.00,0.0054
3200.00,0.0054
3199.00,0.0054
3198.00,0.0054
3197.00,0.0054
3196.00,0.0054
3195.00,0.0054
3194.00,0.0054
3193.00,0.0054
3192.00,0.0054
3191.00,0.0054
3190.00,0.0053
3189.00,0.0053
3188.00,0.0053
3187.00,0.0052
3186.00,0.0053
3185.00,0.0053
3184.00,0.0053
3183.00,0.0053
3182.00,0.0052
3181.00,0.0052
3180.00,0.0051
3179.00,0.0051
3178.00,0.0050
3177.00,0.0050
3176.00,0.0050
3175.00,0.0050
3174.00,0.0050
3173.00,0.0050
3172.00,0.0049
3171.00,0.0049
3170.00,0.0049
3169.00,0.0049
3168.00,0.0049
3167.00,0.0049
3166.00,0.0049
3165.00,0.0048
3164.00,0.0047
3163.00,0.0046
3162.00,0.0046
3161.00,0.0046
3160.00,0.0046
3159.00,0.0046
3158.00,0.0046
3157.00,0.0047
3156.00,0.0046
3155.00,0.0046
3154.00,0.0046
3153.00,0.0046
3152.00,0.0045
3151.00,0.0045
3150.00,0.0045
3149.00,0.0045
3148.00,0.0045
3147.00,0.0046
3146.00,0.0046
3145.00,0.0046
3144.00,0.0045
3143.00,0.0045
3142.00,0.0045
3141.00,0.0044
3140.00,0.0044
3139.00,0.0044
3138.00,0.0043
3137.00,0.0043
3136.00,0.0043
3135.00,0.0043
3134.00,0.0043
3133.00,0.0043
3132.00,0.0042
3131.00,0.0042
3130.00,0.0042
3129.00,0.0041
3128.00,0.0041
3127.00,0.0041
3126.00,0.0041
3125.00,0.0040
3124.00,0.0040
3123.00,0.0040
3122.00,0.0039
3121.00,0.0039
3120.00,0.0038
3119.00,0.0038
3118.00,0.0038
3117.00,0.0037
3116.00,0.0037
3115.00,0.0037
3114.00,0.0037
3113.00,0.0037
3112.00,0.0038
3111.00,0.0038
3110.00,0.0038
3109.00,0.0038
3108.00,0.0038
3107.00,0.0038
3106.00,0.0037
3105.00,0.0037
3104.00,0.0037
3103.00,0.0036
3102.00,0.0035
3101.00,0.0035
3100.00,0.0035
3099.00,0.0035
3098.00,0.0035
3097.00,0.0035
3096.00,0.0035
3095.00,0.0035
3094.00,0.0035
3093.00,0.0035
3092.00,0.0034
3091.00,0.0034
3090.00,0.0034
3089.00,0.0034
3088.00,0.0034
3087.00,0.0033
3086.00,0.0033
3085.00,0.0033
3084.00,0.0033
3083.00,0.0033
3082.00,0.0033
3081.00,0.0033
3080.00,0.0033
3079.00,0.0034
3078.00,0.0034
3077.00,0.0035
3076.00,0.0035
3075.00,0.0035
3074.00,0.0035
3073.00,0.0034
3072.00,0.0034
3071.00,0.0034
3070.00,0.0034
3069.00,0.0034
3068.00,0.0034
3067.00,0.0034
3066.00,0.0035
3065.00,0.0035
3064.00,0.0035
3063.00,0.0035
3062.00,0.0034
3061.00,0.0034
3060.00,0.0035
3059.00,0.0035
3058.00,0.0035
3057.00,0.0035
3056.00,0.0036
3055.00,0.0036
3054.00,0.0036
3053.00,0.0037
3052.00,0.0037
3051.00,0.0038
3050.00,0.0038
3049.00,0.0038
3048.00,0.0039
3047.00,0.0039
3046.00,0.0039
3045.00,0.0039
3044.00,0.0039
3043.00,0.0039
3042.00,0.0039
3041.00,0.0039
3040.00,0.0039
3039.00,0.0039
3038.00,0.0040
3037.00,0.0040
3036.00,0.0041
3035.00,0.0041
3034.00,0.0041
3033.00,0.0042
3032.00,0.0042
3031.00,0.0042
3030.00,0.0043
3029.00,0.0044
3028.00,0.0044
3027.00,0.0045
3026.00,0.0046
3025.00,0.0046
3024.00,0.0047
3023.00,0.0047
3022.00,0.0047
3021.00,0.0048
3020.00,0.0048
3019.00,0.0049
3018.00,0.0050
3017.00,0.0051
3016.00,0.0052
3015.00,0.0053
3014.00,0.0054
3013.00,0.0056
3012.00,0.0057
3011.00,0.0058
3010.00,0.0059
3009.00,0.0061
3008.00,0.0062
3007.00,0.0064
3006.00,0.0066
3005.00,0.0068
3004.00,0.0071
3003.00,0.0073
3002.00,0.0076
3001.00,0.0078
3000.00,0.0081
2999.00,0.0084
2998.00,0.0087
2997.00,0.0090
2996.00,0.0094
2995.00,0.0099
2994.00,0.0103
2993.00,0.0108
2992.00,0.0113
2991.00,0.0119
2990.00,0.0126
2989.00,0.0133
2988.00,0.0142
2987.00,0.0151
2986.00,0.0161
2985.00,0.0173
2984.00,0.0187
2983.00,0.0201
2982.00,0.0217
2981.00,0.0235
2980.00,0.0255
2979.00,0.0277
2978.00,0.0302
2977.00,0.0331
2976.00,0.0363
2975.00,0.0400
2974.00,0.0442
2973.00,0.0491
2972.00,0.0545
2971.00,0.0606
2970.00,0.0673
2969.00,0.0748
2968.00,0.0829
2967.00,0.0915
2966.00,0.1005
2965.00,0.1098
2964.00,0.1188
2963.00,0.1272
2962.00,0.1346
2961.00,0.1408
2960.00,0.1458
2959.00,0.1499
2958.00,0.1536
2957.00,0.1575
2956.00,0.1621
2955.00,0.1678
2954.00,0.1745
2953.00,0.1816
2952.00,0.1885
2951.00,0.1939
2950.00,0.1966
2949.00,0.1958
2948.00,0.1910
2947.00,0.1822
2946.00,0.1706
2945.00,0.1573
2944.00,0.1441
2943.00,0.1321
2942.00,0.1224
2941.00,0.1153
2940.00,0.1108
2939.00,0.1088
2938.00,0.1090
2937.00,0.1111
2936.00,0.1150
2935.00,0.1205
2934.00,0.1274
2933.00,0.1357
2932.00,0.1450
2931.00,0.1553
2930.00,0.1663
2929.00,0.1776
2928.00,0.1889
2927.00,0.1999
2926.00,0.2106
2925.00,0.2208
2924.00,0.2307
2923.00,0.2404
2922.00,0.2500
2921.00,0.2592
2920.00,0.2674
2919.00,0.2737
2918.00,0.2773
2917.00,0.2772
2916.00,0.2733
2915.00,0.2661
2914.00,0.2564
2913.00,0.2456
2912.00,0.2345
2911.00,0.2241
2910.00,0.2146
2909.00,0.2059
2908.00,0.1979
2907.00,0.1904
2906.00,0.1831
2905.00,0.1758
2904.00,0.1685
2903.00,0.1611
2902.00,0.1539
2901.00,0.1468
2900.00,0.1400
2899.00,0.1336
2898.00,0.1276
2897.00,0.1222
2896.00,0.1175
2895.00,0.1135
2894.00,0.1102
2893.00,0.1076
2892.00,0.1057
2891.00,0.1045
2890.00,0.1039
2889.00,0.1037
2888.00,0.1040
2887.00,0.1047
2886.00,0.1057
2885.00,0.1071
2884.00,0.1089
2883.00,0.1112
2882.00,0.1140
2881.00,0.1170
2880.00,0.1201
2879.00,0.1228
2878.00,0.1247
2877.00,0.1256
2876.00,0.1254
2875.00,0.1247
2874.00,0.1239
2873.00,0.1236
2872.00,0.1240
2871.00,0.1253
2870.00,0.1272
2869.00,0.1292
2868.00,0.1306
2867.00,0.1306
2866.00,0.1283
2865.00,0.1234
2864.00,0.1160
2863.00,0.1071
2862.00,0.0977
2861.00,0.0889
2860.00,0.0812
2859.00,0.0750
2858.00,0.0704
2857.00,0.0672
2856.00,0.0651
2855.00,0.0641
2854.00,0.0638
2853.00,0.0642
2852.00,0.0653
2851.00,0.0668
2850.00,0.0688
2849.00,0.0711
2848.00,0.0738
2847.00,0.0771
2846.00,0.0813
2845.00,0.0863
2844.00,0.0922
2843.00,0.0989
2842.00,0.1059
2841.00,0.1127
2840.00,0.1184
2839.00,0.1221
2838.00,0.1230
2837.00,0.1206
2836.00,0.1147
2835.00,0.1060
2834.00,0.0955
2833.00,0.0845
2832.00,0.0738
2831.00,0.0643
2830.00,0.0563
2829.00,0.0497
2828.00,0.0444
2827.00,0.0401
2826.00,0.0366
2825.00,0.0337
2824.00,0.0313
2823.00,0.0293
2822.00,0.0276
2821.00,0.0261
2820.00,0.0249
2819.00,0.0238
2818.00,0.0228
2817.00,0.0219
2816.00,0.0211
2815.00,0.0204
2814.00,0.0198
2813.00,0.0192
2812.00,0.0187
2811.00,0.0182
2810.00,0.0176
2809.00,0.0170
2808.00,0.0165
2807.00,0.0158
2806.00,0.0152
2805.00,0.0145
2804.00,0.0139
2803.00,0.0133
2802.00,0.0128
2801.00,0.0123
2800.00,0.0119
2799.00,0.0116
2798.00,0.0113
2797.00,0.0111
2796.00,0.0108
2795.00,0.0106
2794.00,0.0103
2793.00,0.0100
2792.00,0.0097
2791.00,0.0094
2790.00,0.0090
2789.00,0.0088
2788.00,0.0085
2787.00,0.0082
2786.00,0.0079
2785.00,0.0077
2784.00,0.0075
2783.00,0.0073
2782.00,0.0071
2781.00,0.0069
2780.00,0.0067
2779.00,0.0066
2778.00,0.0064
2777.00,0.0063
2776.00,0.0061
2775.00,0.0060
2774.00,0.0059
2773.00,0.0058
2772.00,0.0058
2771.00,0.0058
2770.00,0.0058
2769.00,0.0057
2768.00,0.0057
2767.00,0.0056
2766.00,0.0055
2765.00,0.0055
2764.00,0.0055
2763.00,0.0054
2762.00,0.0054
2761.00,0.0054
2760.00,0.0054
2759.00,0.0053
2758.00,0.0053
2757.00,0.0053
2756.00,0.0053
2755.00,0.0053
2754.00,0.0053
2753.00,0.0052
2752.00,0.0052
2751.00,0.0052
2750.00,0.0052
2749.00,0.0052
2748.00,0.0052
2747.00,0.0052
2746.00,0.0053
2745.00,0.0054
2744.00,0.0055
2743.00,0.0056
2742.00,0.0057
2741.00,0.0058
2740.00,0.0059
2739.00,0.0060
2738.00,0.0061
2737.00,0.0062
2736.00,0.0064
2735.00,0.0066
2734.00,0.0068
2733.00,0.0070
2732.00,0.0071
2731.00,0.0073
2730.00,0.0075
2729.00,0.0078
2728.00,0.0080
2727.00,0.0083
2726.00,0.0086
2725.00,0.0089
2724.00,0.0090
2723.00,0.0091
2722.00,0.0090
2721.00,0.0088
2720.00,0.0085
2719.00,0.0082
2718.00,0.0079
2717.00,0.0075
2716.00,0.0072
2715.00,0.0069
2714.00,0.0067
2713.00,0.0064
2712.00,0.0062
2711.00,0.0060
2710.00,0.0058
2709.00,0.0056
2708.00,0.0055
2707.00,0.0053
2706.00,0.0052
2705.00,0.0051
2704.00,0.0050
2703.00,0.0049
2702.00,0.0048
2701.00,0.0047
2700.00,0.0047
2699.00,0.0046
2698.00,0.0046
2697.00,0.0045
2696.00,0.0045
2695.00,0.0045
2694.00,0.0045
2693.00,0.0045
2692.00,0.0045
2691.00,0.0045
2690.00,0.0045
2689.00,0.0045
2688.00,0.0044
2687.00,0.0044
2686.00,0.0044
2685.00,0.0045
2684.00,0.0045
2683.00,0.0045
2682.00,0.0045
2681.00,0.0045
2680.00,0.0046
2679.00,0.0046
2678.00,0.0046
2677.00,0.0046
2676.00,0.0045
2675.00,0.0045
2674.00,0.0045
2673.00,0.0045
2672.00,0.0045
2671.00,0.0045
2670.00,0.0045
2669.00,0.0045
2668.00,0.0045
2667.00,0.0045
2666.00,0.0046
2665.00,0.0046
2664.00,0.0047
2663.00,0.0048
2662.00,0.0048
2661.00,0.0049
2660.00,0.0049
2659.00,0.0048
2658.00,0.0048
2657.00,0.0047
2656.00,0.0047
2655.00,0.0046
2654.00,0.0045
2653.00,0.0045
2652.00,0.0044
2651.00,0.0044
2650.00,0.0044
2649.00,0.0044
2648.00,0.0043
2647.00,0.0043
2646.00,0.0042
2645.00,0.0042
2644.00,0.0041
2643.00,0.0041
2642.00,0.0040
2641.00,0.0040
2640.00,0.0039
2639.00,0.0039
2638.00,0.0039
2637.00,0.0038
2636.00,0.0038
2635.00,0.0038
2634.00,0.0038
2633.00,0.0038
2632.00,0.0038
2631.00,0.0039
2630.00,0.0039
2629.00,0.0040
2628.00,0.0040
2627.00,0.0040
2626.00,0.0040
2625.00,0.0040
2624.00,0.0040
2623.00,0.0040
2622.00,0.0040
2621.00,0.0040
2620.00,0.0040
2619.00,0.0040
2618.00,0.0040
2617.00,0.0041
2616.00,0.0041
2615.00,0.0041
2614.00,0.0040
2613.00,0.0040
2612.00,0.0039
2611.00,0.0038
2610.00,0.0037
2609.00,0.0037
2608.00,0.0036
2607.00,0.0036
2606.00,0.0035
2605.00,0.0034
2604.00,0.0033
2603.00,0.0032
2602.00,0.0032
2601.00,0.0032
2600.00,0.0032
2599.00,0.0032
2598.00,0.0033
2597.00,0.0033
2596.00,0.0033
2595.00,0.0033
2594.00,0.0033
2593.00,0.0033
2592.00,0.0034
2591.00,0.0034
2590.00,0.0035
2589.00,0.0036
2588.00,0.0037
2587.00,0.0037
2586.00,0.0038
2585.00,0.0038
2584.00,0.0039
2583.00,0.0039
2582.00,0.0039
2581.00,0.0039
2580.00,0.0039
2579.00,0.0039
2578.00,0.0038
2577.00,0.0037
2576.00,0.0036
2575.00,0.0035
2574.00,0.0033
2573.00,0.0032
2572.00,0.0031
2571.00,0.0030
2570.00,0.0029
2569.00,0.0028
2568.00,0.0027
2567.00,0.0026
2566.00,0.0026
2565.00,0.0026
2564.00,0.0025
2563.00,0.0025
2562.00,0.0026
2561.00,0.0026
2560.00,0.0026
2559.00,0.0025
2558.00,0.0024
2557.00,0.0023
2556.00,0.0023
2555.00,0.0023
2554.00,0.0023
2553.00,0.0023
2552.00,0.0023
2551.00,0.0022
2550.00,0.0021
2549.00,0.0020
2548.00,0.0020
2547.00,0.0020
2546.00,0.0020
2545.00,0.0021
2544.00,0.0020
2543.00,0.0020
2542.00,0.0020
2541.00,0.0019
2540.00,0.0019
2539.00,0.0018
2538.00,0.0017
2537.00,0.0017
2536.00,0.0016
2535.00,0.0016
2534.00,0.0016
2533.00,0.0016
2532.00,0.0016
2531.00,0.0016
2530.00,0.0017
2529.00,0.0017
2528.00,0.0017
2527.00,0.0017
2526.00,0.0016
2525.00,0.0016
2524.00,0.0015
2523.00,0.0015
2522.00,0.0014
2521.00,0.0014
2520.00,0.0014
2519.00,0.0013
2518.00,0.0013
2517.00,0.0012
2516.00,0.0012
2515.00,0.0012
2514.00,0.0012
2513.00,0.0012
2512.00,0.0012
2511.00,0.0012
2510.00,0.0012
2509.00,0.0013
2508.00,0.0013
2507.00,0.0013
2506.00,0.0013
2505.00,0.0012
2504.00,0.0012
2503.00,0.0011
2502.00,0.0011
2501.00,0.0011
2500.00,0.0011
2499.00,0.0011
2498.00,0.0011
2497.00,0.0011
2496.00,0.0011
2495.00,0.0011
2494.00,0.0011
2493.00,0.0011
2492.00,0.0010
2491.00,0.0010
2490.00,0.0011
2489.00,0.0011
2488.00,0.0011
2487.00,0.0012
2486.00,0.0012
2485.00,0.0011
2484.00,0.0011
2483.00,0.0011
2482.00,0.0011
2481.00,0.0011
2480.00,0.0011
2479.00,0.0011
2478.00,0.0011
2477.00,0.0011
2476.00,0.0011
2475.00,0.0011
2474.00,0.0011
2473.00,0.0011
2472.00,0.0010
2471.00,0.0009
2470.00,0.0009
2469.00,0.0009
2468.00,0.0010
2467.00,0.0011
2466.00,0.0011
2465.00,0.0012
2464.00,0.0012
2463.00,0.0011
2462.00,0.0011
2461.00,0.0011
2460.00,0.0010
2459.00,0.0010
2458.00,0.0011
2457.00,0.0012
2456.00,0.0013
2455.00,0.0013
2454.00,0.0013
2453.00,0.0013
2452.00,0.0012
2451.00,0.0012
2450.00,0.0012
2449.00,0.0012
2448.00,0.0013
2447.00,0.0013
2446.00,0.0012
2445.00,0.0012
2444.00,0.0011
2443.00,0.0011
2442.00,0.0011
2441.00,0.0010
2440.00,0.0009
2439.00,0.0009
2438.00,0.0009
2437.00,0.0010
2436.00,0.0011
2435.00,0.0012
2434.00,0.0012
2433.00,0.0013
2432.00,0.0013
2431.00,0.0013
2430.00,0.0013
2429.00,0.0013
2428.00,0.0013
2427.00,0.0013
2426.00,0.0013
2425.00,0.0013
2424.00,0.0012
2423.00,0.0011
2422.00,0.0010
2421.00,0.0010
2420.00,0.0010
2419.00,0.0010
2418.00,0.0010
2417.00,0.0011
2416.00,0.0011
2415.00,0.0011
2414.00,0.0011
2413.00,0.0011
2412.00,0.0011
2411.00,0.0010
2410.00,0.0010
2409.00,0.0010
2408.00,0.0010
2407.00,0.0010
2406.00,0.0010
2405.00,0.0010
2404.00,0.0010
2403.00,0.0010
2402.00,0.0010
2401.00,0.0010
2400.00,0.0009
2399.00,0.0008
2398.00,0.0008
2397.00,0.0008
2396.00,0.0008
2395.00,0.0009
2394.00,0.0009
2393.00,0.0008
2392.00,0.0008
2391.00,0.0008
2390.00,0.0007
2389.00,0.0007
2388.00,0.0007
2387.00,0.0008
2386.00,0.0007
2385.00,0.0007
2384.00,0.0007
2383.00,0.0006
2382.00,0.0006
2381.00,0.0005
2380.00,0.0005
2379.00,0.0004
2378.00,0.0004
2377.00,0.0004
2376.00,0.0005
2375.00,0.0005
2374.00,0.0006
2373.00,0.0006
2372.00,0.0006
2371.00,0.0006
2370.00,0.0005
2369.00,0.0005
2368.00,0.0005
2367.00,0.0005
2366.00,0.0005
2365.00,0.0006
2364.00,0.0006
2363.00,0.0005
2362.00,0.0005
2361.00,0.0006
2360.00,0.0006
2359.00,0.0007
2358.00,0.0008
2357.00,0.0007
2356.00,0.0007
2355.00,0.0006
2354.00,0.0005
2353.00,0.0004
2352.00,0.0003
2351.00,0.0003
2350.00,0.0005
2349.00,0.0006
2348.00,0.0008
2347.00,0.0008
2346.00,0.0008
2345.00,0.0007
2344.00,0.0008
2343.00,0.0008
2342.00,0.0009
2341.00,0.0009
2340.00,0.0009
2339.00,0.0008
2338.00,0.0008
2337.00,0.0007
2336.00,0.0007
2335.00,0.0007
2334.00,0.0007
2333.00,0.0007
2332.00,0.0006
2331.00,0.0006
2330.00,0.0006
2329.00,0.0007
2328.00,0.0010
2327.00,0.0014
2326.00,0.0019
2325.00,0.0022
2324.00,0.0023
2323.00,0.0021
2322.00,0.0018
2321.00,0.0016
2320.00,0.0014
2319.00,0.0014
2318.00,0.0014
2317.00,0.0013
2316.00,0.0013
2315.00,0.0012
2314.00,0.0011
2313.00,0.0010
2312.00,0.0010
2311.00,0.0009
2310.00,0.0009
2309.00,0.0009
2308.00,0.0009
2307.00,0.0009
2306.00,0.0010
2305.00,0.0010
2304.00,0.0010
2303.00,0.0010
2302.00,0.0010
2301.00,0.0010
2300.00,0.0011
2299.00,0.0012
2298.00,0.0012
2297.00,0.0012
2296.00,0.0012
2295.00,0.0013
2294.00,0.0013
2293.00,0.0014
2292.00,0.0015
2291.00,0.0016
2290.00,0.0018
2289.00,0.0019
2288.00,0.0020
2287.00,0.0021
2286.00,0.0021
2285.00,0.0020
2284.00,0.0018
2283.00,0.0016
2282.00,0.0015
2281.00,0.0015
2280.00,0.0015
2279.00,0.0016
2278.00,0.0016
2277.00,0.0016
2276.00,0.0015
2275.00,0.0014
2274.00,0.0014
2273.00,0.0014
2272.00,0.0015
2271.00,0.0014
2270.00,0.0014
2269.00,0.0013
2268.00,0.0012
2267.00,0.0011
2266.00,0.0010
2265.00,0.0010
2264.00,0.0010
2263.00,0.0010
2262.00,0.0012
2261.00,0.0013
2260.00,0.0014
2259.00,0.0015
2258.00,0.0015
2257.00,0.0014
2256.00,0.0013
2255.00,0.0012
2254.00,0.0011
2253.00,0.0011
2252.00,0.0011
2251.00,0.0010
2250.00,0.0010
2249.00,0.0009
2248.00,0.0009
2247.00,0.0008
2246.00,0.0007
2245.00,0.0007
2244.00,0.0006
2243.00,0.0005
2242.00,0.0005
2241.00,0.0005
2240.00,0.0006
2239.00,0.0007
2238.00,0.0007
2237.00,0.0008
2236.00,0.0008
2235.00,0.0009
2234.00,0.0009
2233.00,0.0009
2232.00,0.0009
2231.00,0.0007
2230.00,0.0005
2229.00,0.0004
2228.00,0.0004
2227.00,0.0004
2226.00,0.0004
2225.00,0.0005
2224.00,0.0006
2223.00,0.0007
2222.00,0.0008
2221.00,0.0009
2220.00,0.0010
2219.00,0.0009
2218.00,0.0006
2217.00,0.0004
2216.00,0.0003
2215.00,0.0003
2214.00,0.0004
2213.00,0.0006
2212.00,0.0006
2211.00,0.0006
2210.00,0.0005
2209.00,0.0005
2208.00,0.0006
2207.00,0.0007
2206.00,0.0007
2205.00,0.0007
2204.00,0.0007
2203.00,0.0005
2202.00,0.0004
2201.00,0.0004
2200.00,0.0006
2199.00,0.0007
2198.00,0.0009
2197.00,0.0009
2196.00,0.0008
2195.00,0.0008
2194.00,0.0009
2193.00,0.0011
2192.00,0.0013
2191.00,0.0013
2190.00,0.0011
2189.00,0.0008
2188.00,0.0006
2187.00,0.0005
2186.00,0.0006
2185.00,0.0008
2184.00,0.0009
2183.00,0.0007
2182.00,0.0005
2181.00,0.0004
2180.00,0.0004
2179.00,0.0006
2178.00,0.0009
2177.00,0.0010
2176.00,0.0009
2175.00,0.0006
2174.00,0.0004
2173.00,0.0005
2172.00,0.0008
2171.00,0.0012
2170.00,0.0016
2169.00,0.0019
2168.00,0.0019
2167.00,0.0017
2166.00,0.0015
2165.00,0.0015
2164.00,0.0017
2163.00,0.0020
2162.00,0.0021
2161.00,0.0015
2160.00,0.0003
2159.00,-0.0012
2158.00,-0.0023
2157.00,-0.0027
2156.00,-0.0026
2155.00,-0.0025
2154.00,-0.0021
2153.00,-0.0017
2152.00,-0.0011
2151.00,-0.0007
2150.00,-0.0005
2149.00,-0.0005
2148.00,-0.0007
2147.00,-0.0010
2146.00,-0.0011
2145.00,-0.0010
2144.00,-0.0007
2143.00,-0.0006
2142.00,-0.0006
2141.00,-0.0008
2140.00,-0.0009
2139.00,-0.0009
2138.00,-0.0009
2137.00,-0.0009
2136.00,-0.0010
2135.00,-0.0013
2134.00,-0.0015
2133.00,-0.0015
2132.00,-0.0013
2131.00,-0.0011
2130.00,-0.0009
2129.00,-0.0009
2128.00,-0.0008
2127.00,-0.0009
2126.00,-0.0008
2125.00,-0.0007
2124.00,-0.0005
2123.00,-0.0003
2122.00,-0.0002
2121.00,-0.0002
2120.00,-0.0002
2119.00,-0.0002
2118.00,-0.0001
2117.00,-0.0000
2116.00,0.0002
2115.00,0.0003
2114.00,0.0005
2113.00,0.0006
2112.00,0.0006
2111.00,0.0006
2110.00,0.0006
2109.00,0.0006
2108.00,0.0007
2107.00,0.0007
2106.00,0.0007
2105.00,0.0004
2104.00,0.0002
2103.00,-0.0000
2102.00,-0.0000
2101.00,0.0002
2100.00,0.0004
2099.00,0.0005
2098.00,0.0005
2097.00,0.0004
2096.00,0.0002
2095.00,0.0000
2094.00,-0.0001
2093.00,-0.0002
2092.00,-0.0001
2091.00,0.0000
2090.00,0.0002
2089.00,0.0004
2088.00,0.0005
2087.00,0.0005
2086.00,0.0005
2085.00,0.0005
2084.00,0.0004
2083.00,0.0004
2082.00,0.0003
2081.00,0.0003
2080.00,0.0004
2079.00,0.0005
2078.00,0.0005
2077.00,0.0005
2076.00,0.0005
2075.00,0.0004
2074.00,0.0004
2073.00,0.0003
2072.00,0.0002
2071.00,0.0002
2070.00,0.0001
2069.00,0.0001
2068.00,0.0001
2067.00,0.0002
2066.00,0.0004
2065.00,0.0005
2064.00,0.0005
2063.00,0.0003
2062.00,0.0002
2061.00,0.0002
2060.00,0.0002
2059.00,0.0002
2058.00,0.0002
2057.00,0.0003
2056.00,0.0002
2055.00,0.0001
2054.00,0.0000
2053.00,0.0002
2052.00,0.0006
2051.00,0.0010
2050.00,0.0010
2049.00,0.0007
2048.00,0.0005
2047.00,0.0004
2046.00,0.0003
2045.00,0.0003
2044.00,0.0001
2043.00,-0.0001
2042.00,-0.0003
2041.00,-0.0004
2040.00,-0.0002
2039.00,0.0001
2038.00,0.0003
2037.00,0.0003
2036.00,0.0001
2035.00,-0.0001
2034.00,-0.0004
2033.00,-0.0005
2032.00,-0.0006
2031.00,-0.0007
2030.00,-0.0009
2029.00,-0.0010
2028.00,-0.0011
2027.00,-0.0010
2026.00,-0.0009
2025.00,-0.0008
2024.00,-0.0008
2023.00,-0.0010
2022.00,-0.0011
2021.00,-0.0012
2020.00,-0.0012
2019.00,-0.0012
2018.00,-0.0012
2017.00,-0.0010
2016.00,-0.0007
2015.00,-0.0004
2014.00,-0.0003
2013.00,-0.0003
2012.00,-0.0003
2011.00,-0.0003
2010.00,-0.0004
2009.00,-0.0006
2008.00,-0.0009
2007.00,-0.0013
2006.00,-0.0015
2005.00,-0.0015
2004.00,-0.0014
2003.00,-0.0012
2002.00,-0.0011
2001.00,-0.0011
2000.00,-0.0012
1999.00,-0.0013
1998.00,-0.0013
1997.00,-0.0011
1996.00,-0.0009
1995.00,-0.0007
1994.00,-0.0005
1993.00,-0.0002
1992.00,-0.0000
1991.00,0.0000
1990.00,-0.0000
1989.00,-0.0002
1988.00,-0.0004
1987.00,-0.0005
1986.00,-0.0004
1985.00,-0.0002
1984.00,0.0000
1983.00,0.0001
1982.00,0.0004
1981.00,0.0008
1980.00,0.0012
1979.00,0.0013
1978.00,0.0009
1977.00,0.0003
1976.00,-0.0002
1975.00,-0.0007
1974.00,-0.0011
1973.00,-0.0014
1972.00,-0.0014
1971.00,-0.0012
1970.00,-0.0008
1969.00,-0.0005
1968.00,-0.0005
1967.00,-0.0008
1966.00,-0.0011
1965.00,-0.0014
1964.00,-0.0015
1963.00,-0.0016
1962.00,-0.0015
1961.00,-0.0014
1960.00,-0.0013
1959.00,-0.0013
1958.00,-0.0013
1957.00,-0.0012
1956.00,-0.0012
1955.00,-0.0013
1954.00,-0.0014
1953.00,-0.0014
1952.00,-0.0013
1951.00,-0.0011
1950.00,-0.0010
1949.00,-0.0009
1948.00,-0.0009
1947.00,-0.0010
1946.00,-0.0011
1945.00,-0.0012
1944.00,-0.0013
1943.00,-0.0013
1942.00,-0.0014
1941.00,-0.0014
1940.00,-0.0013
1939.00,-0.0013
1938.00,-0.0012
1937.00,-0.0011
1936.00,-0.0009
1935.00,-0.0007
1934.00,-0.0007
1933.00,-0.0006
1932.00,-0.0004
1931.00,-0.0003
1930.00,-0.0002
1929.00,-0.0002
1928.00,-0.0003
1927.00,-0.0004
1926.00,-0.0005
1925.00,-0.0005
1924.00,-0.0005
1923.00,-0.0005
1922.00,-0.0005
1921.00,-0.0004
1920.00,-0.0003
1919.00,-0.0002
1918.00,-0.0001
1917.00,-0.0001
1916.00,-0.0000
1915.00,-0.0000
1914.00,-0.0001
1913.00,-0.0001
1912.00,-0.0001
1911.00,-0.0001
1910.00,0.0000
1909.00,0.0002
1908.00,0.0002
1907.00,0.0001
1906.00,-0.0000
1905.00,-0.0001
1904.00,-0.0001
1903.00,-0.0000
1902.00,0.0001
1901.00,0.0002
1900.00,0.0003
1899.00,0.0003
1898.00,0.0002
1897.00,0.0001
1896.00,0.0001
1895.00,0.0001
1894.00,0.0001
1893.00,0.0002
1892.00,0.0002
1891.00,0.0002
1890.00,0.0003
1889.00,0.0002
1888.00,0.0002
1887.00,0.0001
1886.00,-0.0000
1885.00,-0.0001
1884.00,0.0000
1883.00,0.0001
1882.00,0.0002
1881.00,0.0002
1880.00,0.0002
1879.00,0.0001
1878.00,-0.0001
1877.00,-0.0001
1876.00,-0.0002
1875.00,-0.0001
1874.00,-0.0001
1873.00,-0.0001
1872.00,0.0000
1871.00,0.0001
1870.00,0.0001
1869.00,0.0002
1868.00,0.0002
1867.00,0.0002
1866.00,0.0001
1865.00,0.0001
1864.00,0.0002
1863.00,0.0002
1862.00,0.0002
1861.00,0.0002
1860.00,0.0003
1859.00,0.0003
1858.00,0.0003
1857.00,0.0003
1856.00,0.0003
1855.00,0.0003
1854.00,0.0003
1853.00,0.0003
1852.00,0.0003
1851.00,0.0003
1850.00,0.0003
1849.00,0.0004
1848.00,0.0003
1847.00,0.0003
1846.00,0.0003
1845.00,0.0003
1844.00,0.0004
1843.00,0.0004
1842.00,0.0003
1841.00,0.0003
1840.00,0.0003
1839.00,0.0003
1838.00,0.0004
1837.00,0.0004
1836.00,0.0005
1835.00,0.0005
1834.00,0.0005
1833.00,0.0006
1832.00,0.0005
1831.00,0.0004
1830.00,0.0004
1829.00,0.0004
1828.00,0.0004
1827.00,0.0004
1826.00,0.0005
1825.00,0.0005
1824.00,0.0004
1823.00,0.0004
1822.00,0.0003
1821.00,0.0002
1820.00,0.0002
1819.00,0.0002
1818.00,0.0002
1817.00,0.0002
1816.00,0.0003
1815.00,0.0004
1814.00,0.0005
1813.00,0.0005
1812.00,0.0005
1811.00,0.0005
1810.00,0.0004
1809.00,0.0004
1808.00,0.0005
1807.00,0.0005
1806.00,0.0005
1805.00,0.0005
1804.00,0.0005
1803.00,0.0005
1802.00,0.0004
1801.00,0.0004
1800.00,0.0004
1799.00,0.0005
1798.00,0.0005
1797.00,0.0006
1796.00,0.0006
1795.00,0.0006
1794.00,0.0007
1793.00,0.0008
1792.00,0.0009
1791.00,0.0009
1790.00,0.0008
1789.00,0.0008
1788.00,0.0008
1787.00,0.0009
1786.00,0.0010
1785.00,0.0010
1784.00,0.0010
1783.00,0.0010
1782.00,0.0010
1781.00,0.0010
1780.00,0.0009
1779.00,0.0009
1778.00,0.0009
1777.00,0.0009
1776.00,0.0010
1775.00,0.0010
1774.00,0.0010
1773.00,0.0010
1772.00,0.0011
1771.00,0.0011
1770.00,0.0011
1769.00,0.0011
1768.00,0.0011
1767.00,0.0011
1766.00,0.0011
1765.00,0.0012
1764.00,0.0013
1763.00,0.0013
1762.00,0.0013
1761.00,0.0014
1760.00,0.0014
1759.00,0.0014
1758.00,0.0015
1757.00,0.0015
1756.00,0.0016
1755.00,0.0017
1754.00,0.0017
1753.00,0.0018
1752.00,0.0019
1751.00,0.0019
1750.00,0.0019
1749.00,0.0019
1748.00,0.0020
1747.00,0.0021
1746.00,0.0021
1745.00,0.0022
1744.00,0.0022
1743.00,0.0023
1742.00,0.0024
1741.00,0.0024
1740.00,0.0025
1739.00,0.0025
1738.00,0.0026
1737.00,0.0027
1736.00,0.0027
1735.00,0.0027
1734.00,0.0026
1733.00,0.0025
1732.00,0.0025
1731.00,0.0025
1730.00,0.0025
1729.00,0.0025
1728.00,0.0024
1727.00,0.0024
1726.00,0.0023
1725.00,0.0024
1724.00,0.0024
1723.00,0.0025
1722.00,0.0025
1721.00,0.0024
1720.00,0.0024
1719.00,0.0023
1718.00,0.0024
1717.00,0.0024
1716.00,0.0024
1715.00,0.0024
1714.00,0.0024
1713.00,0.0024
1712.00,0.0024
1711.00,0.0024
1710.00,0.0024
1709.00,0.0024
1708.00,0.0024
1707.00,0.0025
1706.00,0.0025
1705.00,0.0026
1704.00,0.0027
1703.00,0.0027
1702.00,0.0027
1701.00,0.0028
1700.00,0.0028
1699.00,0.0029
1698.00,0.0029
1697.00,0.0030
1696.00,0.0031
1695.00,0.0032
1694.00,0.0032
1693.00,0.0033
1692.00,0.0034
1691.00,0.0035
1690.00,0.0036
1689.00,0.0037
1688.00,0.0037
1687.00,0.0036
1686.00,0.0036
1685.00,0.0036
1684.00,0.0038
1683.00,0.0040
1682.00,0.0042
1681.00,0.0043
1680.00,0.0044
1679.00,0.0045
1678.00,0.0046
1677.00,0.0047
1676.00,0.0048
1675.00,0.0049
1674.00,0.0050
1673.00,0.0050
1672.00,0.0050
1671.00,0.0051
1670.00,0.0051
1669.00,0.0052
1668.00,0.0053
1667.00,0.0054
1666.00,0.0055
1665.00,0.0056
1664.00,0.0056
1663.00,0.0057
1662.00,0.0057
1661.00,0.0058
1660.00,0.0058
1659.00,0.0059
1658.00,0.0060
1657.00,0.0061
1656.00,0.0063
1655.00,0.0064
1654.00,0.0064
1653.00,0.0065
1652.00,0.0066
1651.00,0.0066
1650.00,0.0067
1649.00,0.0069
1648.00,0.0071
1647.00,0.0072
1646.00,0.0074
1645.00,0.0074
1644.00,0.0074
1643.00,0.0074
1642.00,0.0074
1641.00,0.0074
1640.00,0.0075
1639.00,0.0075
1638.00,0.0075
1637.00,0.0075
1636.00,0.0075
1635.00,0.0074
1634.00,0.0074
1633.00,0.0074
1632.00,0.0075
1631.00,0.0075
1630.00,0.0075
1629.00,0.0075
1628.00,0.0075
1627.00,0.0075
1626.00,0.0074
1625.00,0.0074
1624.00,0.0074
1623.00,0.0073
1622.00,0.0073
1621.00,0.0072
1620.00,0.0072
1619.00,0.0072
1618.00,0.0071
1617.00,0.0070
1616.00,0.0070
1615.00,0.0070
1614.00,0.0071
1613.00,0.0071
1612.00,0.0071
1611.00,0.0071
1610.00,0.0070
1609.00,0.0069
1608.00,0.0069
1607.00,0.0068
1606.00,0.0068
1605.00,0.0069
1604.00,0.0069
1603.00,0.0069
1602.00,0.0069
1601.00,0.0069
1600.00,0.0069
1599.00,0.0069
1598.00,0.0069
1597.00,0.0069
1596.00,0.0069
1595.00,0.0069
1594.00,0.0069
1593.00,0.0070
1592.00,0.0071
1591.00,0.0072
1590.00,0.0073
1589.00,0.0074
1588.00,0.0076
1587.00,0.0079
1586.00,0.0081
1585.00,0.0084
1584.00,0.0087
1583.00,0.0091
1582.00,0.0095
1581.00,0.0098
1580.00,0.0102
1579.00,0.0104
1578.00,0.0105
1577.00,0.0105
1576.00,0.0104
1575.00,0.0102
1574.00,0.0100
1573.00,0.0099
1572.00,0.0097
1571.00,0.0094
1570.00,0.0090
1569.00,0.0087
1568.00,0.0085
1567.00,0.0083
1566.00,0.0081
1565.00,0.0081
1564.00,0.0081
1563.00,0.0081
1562.00,0.0081
1561.00,0.0082
1560.00,0.0082
1559.00,0.0083
1558.00,0.0083
1557.00,0.0083
1556.00,0.0085
1555.00,0.0087
1554.00,0.0089
1553.00,0.0090
1552.00,0.0092
1551.00,0.0094
1550.00,0.0096
1549.00,0.0099
1548.00,0.0101
1547.00,0.0104
1546.00,0.0108
1545.00,0.0112
1544.00,0.0117
1543.00,0.0121
1542.00,0.0123
1541.00,0.0124
1540.00,0.0121
1539.00,0.0116
1538.00,0.0111
1537.00,0.0107
1536.00,0.0103
1535.00,0.0098
1534.00,0.0092
1533.00,0.0087
1532.00,0.0083
1531.00,0.0079
1530.00,0.0077
1529.00,0.0075
1528.00,0.0074
1527.00,0.0072
1526.00,0.0070
1525.00,0.0068
1524.00,0.0067
1523.00,0.0066
1522.00,0.0066
1521.00,0.0066
1520.00,0.0066
1519.00,0.0066
1518.00,0.0066
1517.00,0.0066
1516.00,0.0067
1515.00,0.0068
1514.00,0.0068
1513.00,0.0068
1512.00,0.0069
1511.00,0.0070
1510.00,0.0070
1509.00,0.0070
1508.00,0.0071
1507.00,0.0072
1506.00,0.0072
1505.00,0.0073
1504.00,0.0075
1503.00,0.0076
1502.00,0.0077
1501.00,0.0080
1500.00,0.0083
1499.00,0.0085
1498.00,0.0088
1497.00,0.0093
1496.00,0.0097
1495.00,0.0100
1494.00,0.0103
1493.00,0.0107
1492.00,0.0111
1491.00,0.0115
1490.00,0.0120
1489.00,0.0125
1488.00,0.0131
1487.00,0.0136
1486.00,0.0142
1485.00,0.0150
1484.00,0.0158
1483.00,0.0167
1482.00,0.0178
1481.00,0.0191
1480.00,0.0205
1479.00,0.0219
1478.00,0.0235
1477.00,0.0254
1476.00,0.0277
1475.00,0.0304
1474.00,0.0339
1473.00,0.0392
1472.00,0.0456
1471.00,0.0518
1470.00,0.0579
1469.00,0.0644
1468.00,0.0714
1467.00,0.0792
1466.00,0.0881
1465.00,0.0980
1464.00,0.1067
1463.00,0.1129
1462.00,0.1171
1461.00,0.1201
1460.00,0.1224
1459.00,0.1241
1458.00,0.1254
1457.00,0.1265
1456.00,0.1265
1455.00,0.1258
1454.00,0.1248
1453.00,0.1232
1452.00,0.1206
1451.00,0.1168
1450.00,0.1112
1449.00,0.1036
1448.00,0.0938
1447.00,0.0835
1446.00,0.0744
1445.00,0.0667
1444.00,0.0602
1443.00,0.0550
1442.00,0.0512
1441.00,0.0487
1440.00,0.0472
1439.00,0.0468
1438.00,0.0471
1437.00,0.0474
1436.00,0.0464
1435.00,0.0437
1434.00,0.0397
1433.00,0.0349
1432.00,0.0300
1431.00,0.0257
1430.00,0.0224
1429.00,0.0200
1428.00,0.0184
1427.00,0.0175
1426.00,0.0168
1425.00,0.0163
1424.00,0.0158
1423.00,0.0155
1422.00,0.0154
1421.00,0.0152
1420.00,0.0149
1419.00,0.0146
1418.00,0.0144
1417.00,0.0141
1416.00,0.0138
1415.00,0.0136
1414.00,0.0135
1413.00,0.0133
1412.00,0.0130
1411.00,0.0129
1410.00,0.0128
1409.00,0.0127
1408.00,0.0126
1407.00,0.0126
1406.00,0.0126
1405.00,0.0126
1404.00,0.0126
1403.00,0.0127
1402.00,0.0128
1401.00,0.0129
1400.00,0.0130
1399.00,0.0132
1398.00,0.0135
1397.00,0.0137
1396.00,0.0139
1395.00,0.0143
1394.00,0.0149
1393.00,0.0154
1392.00,0.0160
1391.00,0.0169
1390.00,0.0181
1389.00,0.0199
1388.00,0.0225
1387.00,0.0264
1386.00,0.0316
1385.00,0.0380
1384.00,0.0465
1383.00,0.0579
1382.00,0.0730
1381.00,0.0923
1380.00,0.1165
1379.00,0.1447
1378.00,0.1728
1377.00,0.1947
1376.00,0.2040
1375.00,0.1962
1374.00,0.1733
1373.00,0.1441
1372.00,0.1167
1371.00,0.0937
1370.00,0.0752
1369.00,0.0610
1368.00,0.0511
1367.00,0.0451
1366.00,0.0418
1365.00,0.0405
1364.00,0.0408
1363.00,0.0423
1362.00,0.0447
1361.00,0.0471
1360.00,0.0490
1359.00,0.0494
1358.00,0.0482
1357.00,0.0453
1356.00,0.0412
1355.00,0.0366
1354.00,0.0322
1353.00,0.0284
1352.00,0.0253
1351.00,0.0229
1350.00,0.0209
1349.00,0.0193
1348.00,0.0180
1347.00,0.0170
1346.00,0.0162
1345.00,0.0155
1344.00,0.0150
1343.00,0.0147
1342.00,0.0143
1341.00,0.0141
1340.00,0.0138
1339.00,0.0136
1338.00,0.0134
1337.00,0.0133
1336.00,0.0133
1335.00,0.0134
1334.00,0.0137
1333.00,0.0142
1332.00,0.0146
1331.00,0.0150
1330.00,0.0152
1329.00,0.0150
1328.00,0.0146
1327.00,0.0140
1326.00,0.0134
1325.00,0.0127
1324.00,0.0121
1323.00,0.0116
1322.00,0.0111
1321.00,0.0107
1320.00,0.0105
1319.00,0.0102
1318.00,0.0100
1317.00,0.0098
1316.00,0.0096
1315.00,0.0095
1314.00,0.0094
1313.00,0.0095
1312.00,0.0096
1311.00,0.0098
1310.00,0.0101
1309.00,0.0107
1308.00,0.0115
1307.00,0.0126
1306.00,0.0137
1305.00,0.0145
1304.00,0.0148
1303.00,0.0147
1302.00,0.0143
1301.00,0.0140
1300.00,0.0138
1299.00,0.0138
1298.00,0.0139
1297.00,0.0140
1296.00,0.0139
1295.00,0.0136
1294.00,0.0133
1293.00,0.0128
1292.00,0.0122
1291.00,0.0116
1290.00,0.0111
1289.00,0.0106
1288.00,0.0102
1287.00,0.0099
1286.00,0.0096
1285.00,0.0093
1284.00,0.0091
1283.00,0.0090
1282.00,0.0089
1281.00,0.0089
1280.00,0.0088
1279.00,0.0087
1278.00,0.0086
1277.00,0.0085
1276.00,0.0084
1275.00,0.0084
1274.00,0.0084
1273.00,0.0084
1272.00,0.0084
1271.00,0.0085
1270.00,0.0085
1269.00,0.0087
1268.00,0.0088
1267.00,0.0090
1266.00,0.0092
1265.00,0.0095
1264.00,0.0098
1263.00,0.0102
1262.00,0.0106
1261.00,0.0110
1260.00,0.0115
1259.00,0.0122
1258.00,0.0128
1257.00,0.0134
1256.00,0.0137
1255.00,0.0136
1254.00,0.0130
1253.00,0.0123
1252.00,0.0115
1251.00,0.0109
1250.00,0.0105
1249.00,0.0101
1248.00,0.0099
1247.00,0.0097
1246.00,0.0097
1245.00,0.0096
1244.00,0.0096
1243.00,0.0096
1242.00,0.0095
1241.00,0.0094
1240.00,0.0094
1239.00,0.0093
1238.00,0.0092
1237.00,0.0092
1236.00,0.0091
1235.00,0.0091
1234.00,0.0091
1233.00,0.0091
1232.00,0.0091
1231.00,0.0091
1230.00,0.0091
1229.00,0.0092
1228.00,0.0094
1227.00,0.0095
1226.00,0.0098
1225.00,0.0100
1224.00,0.0102
1223.00,0.0106
1222.00,0.0110
1221.00,0.0114
1220.00,0.0116
1219.00,0.0118
1218.00,0.0117
1217.00,0.0115
1216.00,0.0112
1215.00,0.0108
1214.00,0.0105
1213.00,0.0102
1212.00,0.0099
1211.00,0.0096
1210.00,0.0093
1209.00,0.0091
1208.00,0.0089
1207.00,0.0088
1206.00,0.0087
1205.00,0.0086
1204.00,0.0085
1203.00,0.0085
1202.00,0.0085
1201.00,0.0085
1200.00,0.0085
1199.00,0.0085
1198.00,0.0085
1197.00,0.0085
1196.00,0.0085
1195.00,0.0085
1194.00,0.0085
1193.00,0.0085
1192.00,0.0086
1191.00,0.0086
1190.00,0.0087
1189.00,0.0087
1188.00,0.0087
1187.00,0.0087
1186.00,0.0087
1185.00,0.0088
1184.00,0.0089
1183.00,0.0090
1182.00,0.0092
1181.00,0.0095
1180.00,0.0098
1179.00,0.0102
1178.00,0.0108
1177.00,0.0115
1176.00,0.0126
1175.00,0.0140
1174.00,0.0159
1173.00,0.0183
1172.00,0.0212
1171.00,0.0243
1170.00,0.0273
1169.00,0.0298
1168.00,0.0313
1167.00,0.0317
1166.00,0.0311
1165.00,0.0299
1164.00,0.0283
1163.00,0.0267
1162.00,0.0252
1161.00,0.0240
1160.00,0.0230
1159.00,0.0223
1158.00,0.0219
1157.00,0.0216
1156.00,0.0214
1155.00,0.0212
1154.00,0.0210
1153.00,0.0207
1152.00,0.0202
1151.00,0.0196
1150.00,0.0189
1149.00,0.0180
1148.00,0.0171
1147.00,0.0162
1146.00,0.0153
1145.00,0.0145
1144.00,0.0138
1143.00,0.0132
1142.00,0.0126
1141.00,0.0121
1140.00,0.0117
1139.00,0.0114
1138.00,0.0111
1137.00,0.0107
1136.00,0.0104
1135.00,0.0102
1134.00,0.0099
1133.00,0.0098
1132.00,0.0097
1131.00,0.0098
1130.00,0.0099
1129.00,0.0100
1128.00,0.0101
1127.00,0.0103
1126.00,0.0104
1125.00,0.0105
1124.00,0.0105
1123.00,0.0105
1122.00,0.0105
1121.00,0.0105
1120.00,0.0106
1119.00,0.0107
1118.00,0.0108
1117.00,0.0109
1116.00,0.0111
1115.00,0.0112
1114.00,0.0114
1113.00,0.0116
1112.00,0.0118
1111.00,0.0121
1110.00,0.0124
1109.00,0.0129
1108.00,0.0134
1107.00,0.0140
1106.00,0.0147
1105.00,0.0153
1104.00,0.0159
1103.00,0.0163
1102.00,0.0164
1101.00,0.0161
1100.00,0.0156
1099.00,0.0149
1098.00,0.0142
1097.00,0.0136
1096.00,0.0130
1095.00,0.0125
1094.00,0.0121
1093.00,0.0118
1092.00,0.0115
1091.00,0.0112
1090.00,0.0109
1089.00,0.0107
1088.00,0.0105
1087.00,0.0104
1086.00,0.0103
1085.00,0.0102
1084.00,0.0101
1083.00,0.0100
1082.00,0.0098
1081.00,0.0096
1080.00,0.0094
1079.00,0.0092
1078.00,0.0091
1077.00,0.0090
1076.00,0.0091
1075.00,0.0091
1074.00,0.0092
1073.00,0.0092
1072.00,0.0092
1071.00,0.0091
1070.00,0.0090
1069.00,0.0088
1068.00,0.0087
1067.00,0.0087
1066.00,0.0088
1065.00,0.0088
1064.00,0.0089
1063.00,0.0090
1062.00,0.0090
1061.00,0.0090
1060.00,0.0089
1059.00,0.0089
1058.00,0.0088
1057.00,0.0088
1056.00,0.0088
1055.00,0.0088
1054.00,0.0089
1053.00,0.0091
1052.00,0.0093
1051.00,0.0096
1050.00,0.0097
1049.00,0.0099
1048.00,0.0102
1047.00,0.0104
1046.00,0.0106
1045.00,0.0107
1044.00,0.0108
1043.00,0.0107
1042.00,0.0105
1041.00,0.0104
1040.00,0.0102
1039.00,0.0102
1038.00,0.0102
1037.00,0.0104
1036.00,0.0105
1035.00,0.0105
1034.00,0.0105
1033.00,0.0103
1032.00,0.0102
1031.00,0.0100
1030.00,0.0099
1029.00,0.0099
1028.00,0.0099
1027.00,0.0098
1026.00,0.0098
1025.00,0.0097
1024.00,0.0096
1023.00,0.0096
1022.00,0.0097
1021.00,0.0098
1020.00,0.0099
1019.00,0.0101
1018.00,0.0102
1017.00,0.0104
1016.00,0.0106
1015.00,0.0108
1014.00,0.0111
1013.00,0.0114
1012.00,0.0118
1011.00,0.0121
1010.00,0.0125
1009.00,0.0129
1008.00,0.0133
1007.00,0.0138
1006.00,0.0145
1005.00,0.0156
1004.00,0.0170
1003.00,0.0191
1002.00,0.0217
1001.00,0.0248
1000.00,0.0282
999.00,0.0309
998.00,0.0323
997.00,0.0316
996.00,0.0291
995.00,0.0255
994.00,0.0218
993.00,0.0186
992.00,0.0160
991.00,0.0142
990.00,0.0129
989.00,0.0120
988.00,0.0114
987.00,0.0111
986.00,0.0111
985.00,0.0114
984.00,0.0118
983.00,0.0126
982.00,0.0136
981.00,0.0151
980.00,0.0171
979.00,0.0199
978.00,0.0235
977.00,0.0277
976.00,0.0321
975.00,0.0362
974.00,0.0392
973.00,0.0403
972.00,0.0390
971.00,0.0355
970.00,0.0308
969.00,0.0259
968.00,0.0217
967.00,0.0184
966.00,0.0159
965.00,0.0141
964.00,0.0128
963.00,0.0119
962.00,0.0111
961.00,0.0105
960.00,0.0100
959.00,0.0097
958.00,0.0094
957.00,0.0092
956.00,0.0090
955.00,0.0089
954.00,0.0088
953.00,0.0087
952.00,0.0085
951.00,0.0084
950.00,0.0084
949.00,0.0084
948.00,0.0085
947.00,0.0085
946.00,0.0087
945.00,0.0089
944.00,0.0093
943.00,0.0097
942.00,0.0101
941.00,0.0102
940.00,0.0102
939.00,0.0099
938.00,0.0095
937.00,0.0090
936.00,0.0085
935.00,0.0080
934.00,0.0077
933.00,0.0074
932.00,0.0073
931.00,0.0071
930.00,0.0070
929.00,0.0068
928.00,0.0066
927.00,0.0065
926.00,0.0065
925.00,0.0065
924.00,0.0067
923.00,0.0068
922.00,0.0070
921.00,0.0072
920.00,0.0072
919.00,0.0072
918.00,0.0072
917.00,0.0072
916.00,0.0072
915.00,0.0073
914.00,0.0074
913.00,0.0075
912.00,0.0077
911.00,0.0079
910.00,0.0081
909.00,0.0083
908.00,0.0085
907.00,0.0089
906.00,0.0097
905.00,0.0108
904.00,0.0124
903.00,0.0144
902.00,0.0166
901.00,0.0186
900.00,0.0200
899.00,0.0204
898.00,0.0196
897.00,0.0178
896.00,0.0157
895.00,0.0136
894.00,0.0119
893.00,0.0107
892.00,0.0097
891.00,0.0091
890.00,0.0086
889.00,0.0083
888.00,0.0081
887.00,0.0080
886.00,0.0078
885.00,0.0077
884.00,0.0077
883.00,0.0077
882.00,0.0077
881.00,0.0077
880.00,0.0077
879.00,0.0077
878.00,0.0076
877.00,0.0076
876.00,0.0076
875.00,0.0076
874.00,0.0076
873.00,0.0075
872.00,0.0075
871.00,0.0075
870.00,0.0075
869.00,0.0076
868.00,0.0077
867.00,0.0078
866.00,0.0079
865.00,0.0081
864.00,0.0082
863.00,0.0082
862.00,0.0084
861.00,0.0085
860.00,0.0087
859.00,0.0089
858.00,0.0091
857.00,0.0091
856.00,0.0091
855.00,0.0091
854.00,0.0093
853.00,0.0095
852.00,0.0097
851.00,0.0101
850.00,0.0106
849.00,0.0114
848.00,0.0124
847.00,0.0137
846.00,0.0158
845.00,0.0188
844.00,0.0229
843.00,0.0274
842.00,0.0306
841.00,0.0311
840.00,0.0288
839.00,0.0248
838.00,0.0207
837.00,0.0176
836.00,0.0156
835.00,0.0144
834.00,0.0135
833.00,0.0130
832.00,0.0126
831.00,0.0123
830.00,0.0121
829.00,0.0119
828.00,0.0118
827.00,0.0116
826.00,0.0114
825.00,0.0111
824.00,0.0110
823.00,0.0108
822.00,0.0108
821.00,0.0109
820.00,0.0113
819.00,0.0117
818.00,0.0122
817.00,0.0127
816.00,0.0135
815.00,0.0146
814.00,0.0161
813.00,0.0178
812.00,0.0197
811.00,0.0214
810.00,0.0226
809.00,0.0231
808.00,0.0228
807.00,0.0218
806.00,0.0204
805.00,0.0187
804.00,0.0171
803.00,0.0156
802.00,0.0143
801.00,0.0133
800.00,0.0125
799.00,0.0119
798.00,0.0113
797.00,0.0108
796.00,0.0104
795.00,0.0101
794.00,0.0098
793.00,0.0096
792.00,0.0093
791.00,0.0091
790.00,0.0088
789.00,0.0086
788.00,0.0084
787.00,0.0083
786.00,0.0081
785.00,0.0079
784.00,0.0077
783.00,0.0074
782.00,0.0072
781.00,0.0070
780.00,0.0069
779.00,0.0070
778.00,0.0070
777.00,0.0070
776.00,0.0070
775.00,0.0071
774.00,0.0074
773.00,0.0077
772.00,0.0080
771.00,0.0083
770.00,0.0086
769.00,0.0086
768.00,0.0085
767.00,0.0084
766.00,0.0083
765.00,0.0081
764.00,0.0080
763.00,0.0078
762.00,0.0077
761.00,0.0076
760.00,0.0075
759.00,0.0072
758.00,0.0069
757.00,0.0066
756.00,0.0064
755.00,0.0062
754.00,0.0061
753.00,0.0061
752.00,0.0061
751.00,0.0061
750.00,0.0063
749.00,0.0064
748.00,0.0065
747.00,0.0066
746.00,0.0066
745.00,0.0066
744.00,0.0067
743.00,0.0068
742.00,0.0069
741.00,0.0069
740.00,0.0069
739.00,0.0070
738.00,0.0072
737.00,0.0074
736.00,0.0077
735.00,0.0079
734.00,0.0080
733.00,0.0081
732.00,0.0082
731.00,0.0082
730.00,0.0081
729.00,0.0080
728.00,0.0080
727.00,0.0081
726.00,0.0082
725.00,0.0084
724.00,0.0085
723.00,0.0085
722.00,0.0085
721.00,0.0084
720.00,0.0083
719.00,0.0081
718.00,0.0078
717.00,0.0075
716.00,0.0071
715.00,0.0068
714.00,0.0068
713.00,0.0068
712.00,0.0070
711.00,0.0071
710.00,0.0072
709.00,0.0072
708.00,0.0073
707.00,0.0074
706.00,0.0074
705.00,0.0073
704.00,0.0073
703.00,0.0073
702.00,0.0074
701.00,0.0074
700.00,0.0072
699.00,0.0070
698.00,0.0067
697.00,0.0066
696.00,0.0064
695.00,0.0063
694.00,0.0063
693.00,0.0063
692.00,0.0064
691.00,0.0065
690.00,0.0065
689.00,0.0063
688.00,0.0062
687.00,0.0060
686.00,0.0060
685.00,0.0060
684.00,0.0060
683.00,0.0060
682.00,0.0061
681.00,0.0064
680.00,0.0067
679.00,0.0070
678.00,0.0073
677.00,0.0075
676.00,0.0075
675.00,0.0074
674.00,0.0072
673.00,0.0068
672.00,0.0064
671.00,0.0063
670.00,0.0062
669.00,0.0063
668.00,0.0064
667.00,0.0067
666.00,0.0069
665.00,0.0069
664.00,0.0068
663.00,0.0068
662.00,0.0069
661.00,0.0070
660.00,0.0070
659.00,0.0069
658.00,0.0067
657.00,0.0066
656.00,0.0066
655.00,0.0065
654.00,0.0066
653.00,0.0068
652.00,0.0069
651.00,0.0068
650.00,0.0066
649.00,0.0065
648.00,0.0064
647.00,0.0064
646.00,0.0064
645.00,0.0064
644.00,0.0064
643.00,0.0064
642.00,0.0063
641.00,0.0063
640.00,0.0064
639.00,0.0067
638.00,0.0070
637.00,0.0072
636.00,0.0072
635.00,0.0070
634.00,0.0068
633.00,0.0066
632.00,0.0065
631.00,0.0066
630.00,0.0065
629.00,0.0064
628.00,0.0063
627.00,0.0061
626.00,0.0062
625.00,0.0064
624.00,0.0066
623.00,0.0066
622.00,0.0066
621.00,0.0065
620.00,0.0066
619.00,0.0067
618.00,0.0070
617.00,0.0072
616.00,0.0072
615.00,0.0069
614.00,0.0067
613.00,0.0067
612.00,0.0070
611.00,0.0072
610.00,0.0072
609.00,0.0070
608.00,0.0067
607.00,0.0066
606.00,0.0066
605.00,0.0067
604.00,0.0068
603.00,0.0068
602.00,0.0068
601.00,0.0069
600.00,0.0071
599.00,0.0074
598.00,0.0079
597.00,0.0084
596.00,0.0086
595.00,0.0084
594.00,0.0081
593.00,0.0079
592.00,0.0076
591.00,0.0073
590.00,0.0071
589.00,0.0068
588.00,0.0067
587.00,0.0067
586.00,0.0069
585.00,0.0071
584.00,0.0072
583.00,0.0070
582.00,0.0067
581.00,0.0064
580.00,0.0066
579.00,0.0071
578.00,0.0077
577.00,0.0083
576.00,0.0086
575.00,0.0085
574.00,0.0083
573.00,0.0081
572.00,0.0079
571.00,0.0076
570.00,0.0075
569.00,0.0073
568.00,0.0072
567.00,0.0070
566.00,0.0069
565.00,0.0070
564.00,0.0073
563.00,0.0074
562.00,0.0074
561.00,0.0073
560.00,0.0072
559.00,0.0072
558.00,0.0073
557.00,0.0074
556.00,0.0076
555.00,0.0078
554.00,0.0079
553.00,0.0079
552.00,0.0078
551.00,0.0074
550.00,0.0071
549.00,0.0071
548.00,0.0074
547.00,0.0078
546.00,0.0080
545.00,0.0078
544.00,0.0076
543.00,0.0074
542.00,0.0074
541.00,0.0075
540.00,0.0077
539.00,0.0081
538.00,0.0085
537.00,0.0087
536.00,0.0086
535.00,0.0085
534.00,0.0084
533.00,0.0087
532.00,0.0091
531.00,0.0094
530.00,0.0095
529.00,0.0096
528.00,0.0097
527.00,0.0097
526.00,0.0097
525.00,0.0095
524.00,0.0091
523.00,0.0084
522.00,0.0079
521.00,0.0078
520.00,0.0083
519.00,0.0090
518.00,0.0095
517.00,0.0096
516.00,0.0094
515.00,0.0092
514.00,0.0088
513.00,0.0082
512.00,0.0074
511.00,0.0065
510.00,0.0059
509.00,0.0056
508.00,0.0057
507.00,0.0059
506.00,0.0060
505.00,0.0059
504.00,0.0058
503.00,0.0059
502.00,0.0063
501.00,0.0066
500.00,0.0065
499.00,0.0062
498.00,0.0058
497.00,0.0057
496.00,0.0061
495.00,0.0069
494.00,0.0079
493.00,0.0089
492.00,0.0094
491.00,0.0092
490.00,0.0083
489.00,0.0074
488.00,0.0070
487.00,0.0075
486.00,0.0084
485.00,0.0089
484.00,0.0087
483.00,0.0082
482.00,0.0077
481.00,0.0073
480.00,0.0070
479.00,0.0069
478.00,0.0067
477.00,0.0066
476.00,0.0070
475.00,0.0076
474.00,0.0076
473.00,0.0068
472.00,0.0057
471.00,0.0056
470.00,0.0064
469.00,0.0072
468.00,0.0074
467.00,0.0074
466.00,0.0077
465.00,0.0084
464.00,0.0094
463.00,0.0110
462.00,0.0133
461.00,0.0159
460.00,0.0179
459.00,0.0185
458.00,0.0177
457.00,0.0163
456.00,0.0151
455.00,0.0146
454.00,0.0143
453.00,0.0137
452.00,0.0128
451.00,0.0121
450.00,0.0117
