Created as New Dataset,Sample 101 By Administrator Date Friday, September 05 2025
cm-1,A
4000.00,0.0015
3999.00,0.0015
3998.00,0.0015
3997.00,0.0015
3996.00,0.0016
3995.00,0.0016
3994.00,0.0015
3993.00,0.0015
3992.00,0.0015
3991.00,0.0015
3990.00,0.0015
3989.00,0.0015
3988.00,0.0015
3987.00,0.0015
3986.00,0.0014
3985.00,0.0014
3984.00,0.0014
3983.00,0.0014
3982.00,0.0014
3981.00,0.0014
3980.00,0.0013
3979.00,0.0013
3978.00,0.0013
3977.00,0.0013
3976.00,0.0013
3975.00,0.0013
3974.00,0.0013
3973.00,0.0013
3972.00,0.0013
3971.00,0.0013
3970.00,0.0013
3969.00,0.0013
3968.00,0.0013
3967.00,0.0013
3966.00,0.0013
3965.00,0.0013
3964.00,0.0013
3963.00,0.0013
3962.00,0.0013
3961.00,0.0013
3960.00,0.0013
3959.00,0.0013
3958.00,0.0013
3957.00,0.0013
3956.00,0.0013
3955.00,0.0013
3954.00,0.0013
3953.00,0.0013
3952.00,0.0013
3951.00,0.0013
3950.00,0.0012
3949.00,0.0012
3948.00,0.0012
3947.00,0.0012
3946.00,0.0012
3945.00,0.0013
3944.00,0.0013
3943.00,0.0013
3942.00,0.0013
3941.00,0.0013
3940.00,0.0013
3939.00,0.0013
3938.00,0.0013
3937.00,0.0013
3936.00,0.0013
3935.00,0.0013
3934.00,0.0013
3933.00,0.0013
3932.00,0.0013
3931.00,0.0013
3930.00,0.0013
3929.00,0.0013
3928.00,0.0013
3927.00,0.0013
3926.00,0.0013
3925.00,0.0013
3924.00,0.0013
3923.00,0.0013
3922.00,0.0012
3921.00,0.0012
3920.00,0.0012
3919.00,0.0012
3918.00,0.0012
3917.00,0.0012
3916.00,0.0013
3915.00,0.0013
3914.00,0.0013
3913.00,0.0013
3912.00,0.0013
3911.00,0.0013
3910.00,0.0012
3909.00,0.0012
3908.00,0.0012
3907.00,0.0011
3906.00,0.0011
3905.00,0.0010
3904.00,0.0010
3903.00,0.0010
3902.00,0.0010
3901.00,0.0011
3900.00,0.0011
3899.00,0.0012
3898.00,0.0012
3897.00,0.0012
3896.00,0.0012
3895.00,0.0012
3894.00,0.0012
3893.00,0.0012
3892.00,0.0011
3891.00,0.0011
3890.00,0.0011
3889.00,0.0011
3888.00,0.0011
3887.00,0.0012
3886.00,0.0012
3885.00,0.0012
3884.00,0.0012
3883.00,0.0012
3882.00,0.0012
3881.00,0.0012
3880.00,0.0012
3879.00,0.0012
3878.00,0.0012
3877.00,0.0012
3876.00,0.0012
3875.00,0.0012
3874.00,0.0012
3873.00,0.0012
3872.00,0.0012
3871.00,0.0013
3870.00,0.0013
3869.00,0.0013
3868.00,0.0012
3867.00,0.0012
3866.00,0.0011
3865.00,0.0011
3864.00,0.0011
3863.00,0.0011
3862.00,0.0011
3861.00,0.0012
3860.00,0.0012
3859.00,0.0012
3858.00,0.0013
3857.00,0.0013
3856.00,0.0013
3855.00,0.0012
3854.00,0.0012
3853.00,0.0012
3852.00,0.0011
3851.00,0.0011
3850.00,0.0011
3849.00,0.0011
3848.00,0.0011
3847.00,0.0012
3846.00,0.0012
3845.00,0.0011
3844.00,0.0011
3843.00,0.0011
3842.00,0.0011
3841.00,0.0011
3840.00,0.0012
3839.00,0.0012
3838.00,0.0012
3837.00,0.0012
3836.00,0.0012
3835.00,0.0012
3834.00,0.0011
3833.00,0.0011
3832.00,0.0010
3831.00,0.0011
3830.00,0.0011
3829.00,0.0011
3828.00,0.0011
3827.00,0.0011
3826.00,0.0011
3825.00,0.0011
3824.00,0.0011
3823.00,0.0011
3822.00,0.0012
3821.00,0.0012
3820.00,0.0012
3819.00,0.0012
3818.00,0.0012
3817.00,0.0012
3816.00,0.0012
3815.00,0.0012
3814.00,0.0012
3813.00,0.0011
3812.00,0.0011
3811.00,0.0011
3810.00,0.0011
3809.00,0.0012
3808.00,0.0012
3807.00,0.0013
3806.00,0.0013
3805.00,0.0013
3804.00,0.0013
3803.00,0.0013
3802.00,0.0013
3801.00,0.0013
3800.00,0.0013
3799.00,0.0012
3798.00,0.0012
3797.00,0.0012
3796.00,0.0012
3795.00,0.0011
3794.00,0.0011
3793.00,0.0011
3792.00,0.0011
3791.00,0.0012
3790.00,0.0012
3789.00,0.0012
3788.00,0.0012
3787.00,0.0012
3786.00,0.0012
3785.00,0.0012
3784.00,0.0012
3783.00,0.0012
3782.00,0.0012
3781.00,0.0012
3780.00,0.0012
3779.00,0.0012
3778.00,0.0012
3777.00,0.0011
3776.00,0.0011
3775.00,0.0011
3774.00,0.0011
3773.00,0.0011
3772.00,0.0011
3771.00,0.0011
3770.00,0.0012
3769.00,0.0012
3768.00,0.0012
3767.00,0.0012
3766.00,0.0012
3765.00,0.0012
3764.00,0.0012
3763.00,0.0013
3762.00,0.0013
3761.00,0.0013
3760.00,0.0013
3759.00,0.0012
3758.00,0.0012
3757.00,0.0012
3756.00,0.0011
3755.00,0.0011
3754.00,0.0011
3753.00,0.0011
3752.00,0.0011
3751.00,0.0011
3750.00,0.0011
3749.00,0.0011
3748.00,0.0012
3747.00,0.0012
3746.00,0.0012
3745.00,0.0012
3744.00,0.0012
3743.00,0.0011
3742.00,0.0011
3741.00,0.0011
3740.00,0.0010
3739.00,0.0010
3738.00,0.0009
3737.00,0.0009
3736.00,0.0009
3735.00,0.0010
3734.00,0.0010
3733.00,0.0011
3732.00,0.0011
3731.00,0.0011
3730.00,0.0012
3729.00,0.0012
3728.00,0.0011
3727.00,0.0011
3726.00,0.0010
3725.00,0.0010
3724.00,0.0011
3723.00,0.0011
3722.00,0.0012
3721.00,0.0012
3720.00,0.0012
3719.00,0.0012
3718.00,0.0011
3717.00,0.0011
3716.00,0.0011
3715.00,0.0010
3714.00,0.0010
3713.00,0.0010
3712.00,0.0010
3711.00,0.0010
3710.00,0.0010
3709.00,0.0010
3708.00,0.0010
3707.00,0.0010
3706.00,0.0011
3705.00,0.0011
3704.00,0.0011
3703.00,0.0011
3702.00,0.0011
3701.00,0.0010
3700.00,0.0010
3699.00,0.0010
3698.00,0.0010
3697.00,0.0011
3696.00,0.0011
3695.00,0.0011
3694.00,0.0011
3693.00,0.0010
3692.00,0.0010
3691.00,0.0010
3690.00,0.0010
3689.00,0.0010
3688.00,0.0010
3687.00,0.0011
3686.00,0.0011
3685.00,0.0011
3684.00,0.0011
3683.00,0.0011
3682.00,0.0011
3681.00,0.0010
3680.00,0.0010
3679.00,0.0010
3678.00,0.0010
3677.00,0.0010
3676.00,0.0010
3675.00,0.0011
3674.00,0.0011
3673.00,0.0011
3672.00,0.0011
3671.00,0.0011
3670.00,0.0010
3669.00,0.0010
3668.00,0.0010
3667.00,0.0010
3666.00,0.0010
3665.00,0.0010
3664.00,0.0010
3663.00,0.0010
3662.00,0.0010
3661.00,0.0010
3660.00,0.0010
3659.00,0.0010
3658.00,0.0010
3657.00,0.0010
3656.00,0.0010
3655.00,0.0010
3654.00,0.0010
3653.00,0.0009
3652.00,0.0009
3651.00,0.0010
3650.00,0.0010
3649.00,0.0011
3648.00,0.0011
3647.00,0.0011
3646.00,0.0011
3645.00,0.0011
3644.00,0.0012
3643.00,0.0012
3642.00,0.0012
3641.00,0.0012
3640.00,0.0012
3639.00,0.0012
3638.00,0.0012
3637.00,0.0012
3636.00,0.0011
3635.00,0.0011
3634.00,0.0012
3633.00,0.0011
3632.00,0.0011
3631.00,0.0011
3630.00,0.0011
3629.00,0.0012
3628.00,0.0012
3627.00,0.0012
3626.00,0.0012
3625.00,0.0012
3624.00,0.0012
3623.00,0.0012
3622.00,0.0013
3621.00,0.0013
3620.00,0.0013
3619.00,0.0013
3618.00,0.0013
3617.00,0.0013
3616.00,0.0014
3615.00,0.0014
3614.00,0.0014
3613.00,0.0014
3612.00,0.0014
3611.00,0.0014
3610.00,0.0014
3609.00,0.0014
3608.00,0.0014
3607.00,0.0015
3606.00,0.0015
3605.00,0.0015
3604.00,0.0015
3603.00,0.0016
3602.00,0.0016
3601.00,0.0017
3600.00,0.0017
3599.00,0.0018
3598.00,0.0018
3597.00,0.0017
3596.00,0.0017
3595.00,0.0017
3594.00,0.0017
3593.00,0.0017
3592.00,0.0017
3591.00,0.0017
3590.00,0.0017
3589.00,0.0017
3588.00,0.0018
3587.00,0.0018
3586.00,0.0018
3585.00,0.0018
3584.00,0.0018
3583.00,0.0018
3582.00,0.0018
3581.00,0.0019
3580.00,0.0019
3579.00,0.0019
3578.00,0.0019
3577.00,0.0020
3576.00,0.0020
3575.00,0.0020
3574.00,0.0020
3573.00,0.0020
3572.00,0.0020
3571.00,0.0020
3570.00,0.0020
3569.00,0.0021
3568.00,0.0021
3567.00,0.0022
3566.00,0.0022
3565.00,0.0023
3564.00,0.0023
3563.00,0.0023
3562.00,0.0023
3561.00,0.0023
3560.00,0.0023
3559.00,0.0023
3558.00,0.0024
3557.00,0.0024
3556.00,0.0024
3555.00,0.0024
3554.00,0.0024
3553.00,0.0024
3552.00,0.0024
3551.00,0.0025
3550.00,0.0025
3549.00,0.0025
3548.00,0.0025
3547.00,0.0025
3546.00,0.0026
3545.00,0.0026
3544.00,0.0026
3543.00,0.0026
3542.00,0.0026
3541.00,0.0026
3540.00,0.0026
3539.00,0.0026
3538.00,0.0026
3537.00,0.0026
3536.00,0.0027
3535.00,0.0027
3534.00,0.0027
3533.00,0.0027
3532.00,0.0028
3531.00,0.0028
3530.00,0.0028
3529.00,0.0029
3528.00,0.0029
3527.00,0.0030
3526.00,0.0030
3525.00,0.0029
3524.00,0.0029
3523.00,0.0029
3522.00,0.0029
3521.00,0.0029
3520.00,0.0029
3519.00,0.0030
3518.00,0.0030
3517.00,0.0031
3516.00,0.0031
3515.00,0.0032
3514.00,0.0032
3513.00,0.0032
3512.00,0.0032
3511.00,0.0031
3510.00,0.0031
3509.00,0.0031
3508.00,0.0031
3507.00,0.0031
3506.00,0.0031
3505.00,0.0032
3504.00,0.0032
3503.00,0.0032
3502.00,0.0033
3501.00,0.0033
3500.00,0.0033
3499.00,0.0033
3498.00,0.0033
3497.00,0.0033
3496.00,0.0033
3495.00,0.0034
3494.00,0.0034
3493.00,0.0035
3492.00,0.0035
3491.00,0.0036
3490.00,0.0036
3489.00,0.0036
3488.00,0.0036
3487.00,0.0035
3486.00,0.0035
3485.00,0.0035
3484.00,0.0035
3483.00,0.0035
3482.00,0.0036
3481.00,0.0036
3480.00,0.0037
3479.00,0.0037
3478.00,0.0037
3477.00,0.0037
3476.00,0.0038
3475.00,0.0038
3474.00,0.0038
3473.00,0.0038
3472.00,0.0039
3471.00,0.0039
3470.00,0.0039
3469.00,0.0039
3468.00,0.0039
3467.00,0.0039
3466.00,0.0039
3465.00,0.0040
3464.00,0.0040
3463.00,0.0040
3462.00,0.0040
3461.00,0.0040
3460.00,0.0040
3459.00,0.0041
3458.00,0.0041
3457.00,0.0041
3456.00,0.0041
3455.00,0.0041
3454.00,0.0041
3453.00,0.0041
3452.00,0.0041
3451.00,0.0042
3450.00,0.0042
3449.00,0.0042
3448.00,0.0043
3447.00,0.0043
3446.00,0.0043
3445.00,0.0043
3444.00,0.0043
3443.00,0.0044
3442.00,0.0044
3441.00,0.0044
3440.00,0.0044
3439.00,0.0044
3438.00,0.0044
3437.00,0.0044
3436.00,0.0044
3435.00,0.0045
3434.00,0.0045
3433.00,0.0046
3432.00,0.0046
3431.00,0.0046
3430.00,0.0046
3429.00,0.0046
3428.00,0.0046
3427.00,0.0046
3426.00,0.0046
3425.00,0.0047
3424.00,0.0047
3423.00,0.0048
3422.00,0.0048
3421.00,0.0048
3420.00,0.0048
3419.00,0.0047
3418.00,0.0047
3417.00,0.0048
3416.00,0.0049
3415.00,0.0049
3414.00,0.0050
3413.00,0.0050
3412.00,0.0050
3411.00,0.0051
3410.00,0.0051
3409.00,0.0051
3408.00,0.0051
3407.00,0.0051
3406.00,0.0051
3405.00,0.0051
3404.00,0.0052
3403.00,0.0052
3402.00,0.0052
3401.00,0.0052
3400.00,0.0052
3399.00,0.0052
3398.00,0.0053
3397.00,0.0053
3396.00,0.0053
3395.00,0.0053
3394.00,0.0053
3393.00,0.0053
3392.00,0.0053
3391.00,0.0053
3390.00,0.0053
3389.00,0.0053
3388.00,0.0053
3387.00,0.0053
3386.00,0.0053
3385.00,0.0053
3384.00,0.0053
3383.00,0.0053
3382.00,0.0053
3381.00,0.0053
3380.00,0.0053
3379.00,0.0053
3378.00,0.0053
3377.00,0.0053
3376.00,0.0053
3375.00,0.0053
3374.00,0.0053
3373.00,0.0053
3372.00,0.0053
3371.00,0.0053
3370.00,0.0053
3369.00,0.0053
3368.00,0.0054
3367.00,0.0054
3366.00,0.0055
3365.00,0.0055
3364.00,0.0055
3363.00,0.0055
3362.00,0.0054
3361.00,0.0054
3360.00,0.0054
3359.00,0.0054
3358.00,0.0054
3357.00,0.0055
3356.00,0.0055
3355.00,0.0056
3354.00,0.0056
3353.00,0.0057
3352.00,0.0057
3351.00,0.0057
3350.00,0.0056
3349.00,0.0056
3348.00,0.0056
3347.00,0.0056
3346.00,0.0056
3345.00,0.0056
3344.00,0.0056
3343.00,0.0056
3342.00,0.0056
3341.00,0.0056
3340.00,0.0057
3339.00,0.0057
3338.00,0.0057
3337.00,0.0057
3336.00,0.0057
3335.00,0.0057
3334.00,0.0057
3333.00,0.0057
3332.00,0.0057
3331.00,0.0057
3330.00,0.0058
3329.00,0.0058
3328.00,0.0058
3327.00,0.0058
3326.00,0.0058
3325.00,0.0058
3324.00,0.0058
3323.00,0.0058
3322.00,0.0058
3321.00,0.0059
3320.00,0.0059
3319.00,0.0059
3318.00,0.0059
3317.00,0.0059
3316.00,0.0059
3315.00,0.0059
3314.00,0.0059
3313.00,0.0059
3312.00,0.0059
3311.00,0.0059
3310.00,0.0059
3309.00,0.0059
3308.00,0.0059
3307.00,0.0059
3306.00,0.0059
3305.00,0.0059
3304.00,0.0059
3303.00,0.0059
3302.00,0.0059
3301.00,0.0059
3300.00,0.0059
3299.00,0.0059
3298.00,0.0058
3297.00,0.0058
3296.00,0.0057
3295.00,0.0057
3294.00,0.0057
3293.00,0.0058
3292.00,0.0058
3291.00,0.0058
3290.00,0.0058
3289.00,0.0058
3288.00,0.0058
3287.00,0.0058
3286.00,0.0057
3285.00,0.0057
3284.00,0.0057
3283.00,0.0056
3282.00,0.0056
3281.00,0.0055
3280.00,0.0055
3279.00,0.0055
3278.00,0.0055
3277.00,0.0055
3276.00,0.0054
3275.00,0.0054
3274.00,0.0054
3273.00,0.0054
3272.00,0.0053
3271.00,0.0053
3270.00,0.0053
3269.00,0.0053
3268.00,0.0053
3267.00,0.0053
3266.00,0.0053
3265.00,0.0052
3264.00,0.0052
3263.00,0.0052
3262.00,0.0052
3261.00,0.0052
3260.00,0.0052
3259.00,0.0051
3258.00,0.0051
3257.00,0.0051
3256.00,0.0050
3255.00,0.0050
3254.00,0.0049
3253.00,0.0049
3252.00,0.0049
3251.00,0.0049
3250.00,0.0048
3249.00,0.0048
3248.00,0.0048
3247.00,0.0048
3246.00,0.0048
3245.00,0.0049
3244.00,0.0048
3243.00,0.0048
3242.00,0.0048
3241.00,0.0048
3240.00,0.0049
3239.00,0.0049
3238.00,0.0049
3237.00,0.0049
3236.00,0.0048
3235.00,0.0048
3234.00,0.0048
3233.00,0.0049
3232.00,0.0050
3231.00,0.0050
3230.00,0.0050
3229.00,0.0050
3228.00,0.0050
3227.00,0.0050
3226.00,0.0050
3225.00,0.0050
3224.00,0.0050
3223.00,0.0050
3222.00,0.0050
3221.00,0.0051
3220.00,0.0051
3219.00,0.0051
3218.00,0.0052
3217.00,0.0052
3216.00,0.0053
3215.00,0.0053
3214.00,0.0054
3213.00,0.0054
3212.00,0.0055
3211.00,0.0055
3210.00,0.0055
3209.00,0.0055
3208.00,0.0056
3207.00,0.0056
3206.00,0.0056
3205.00,0.0056
3204.00,0.0056
3203.00,0.0056
3202.00,0.0056
3201.00,0.0056
3200.00,0.0056
3199.00,0.0055
3198.00,0.0055
3197.00,0.0056
3196.00,0.0056
3195.00,0.0056
3194.00,0.0056
3193.00,0.0056
3192.00,0.0056
3191.00,0.0055
3190.00,0.0055
3189.00,0.0055
3188.00,0.0054
3187.00,0.0054
3186.00,0.0054
3185.00,0.0053
3184.00,0.0053
3183.00,0.0053
3182.00,0.0053
3181.00,0.0052
3180.00,0.0052
3179.00,0.0052
3178.00,0.0051
3177.00,0.0051
3176.00,0.0051
3175.00,0.0050
3174.00,0.0050
3173.00,0.0050
3172.00,0.0050
3171.00,0.0050
3170.00,0.0050
3169.00,0.0049
3168.00,0.0049
3167.00,0.0049
3166.00,0.0049
3165.00,0.0048
3164.00,0.0048
3163.00,0.0048
3162.00,0.0048
3161.00,0.0048
3160.00,0.0048
3159.00,0.0048
3158.00,0.0048
3157.00,0.0048
3156.00,0.0048
3155.00,0.0048
3154.00,0.0048
3153.00,0.0047
3152.00,0.0047
3151.00,0.0047
3150.00,0.0047
3149.00,0.0047
3148.00,0.0047
3147.00,0.0047
3146.00,0.0047
3145.00,0.0047
3144.00,0.0047
3143.00,0.0047
3142.00,0.0046
3141.00,0.0046
3140.00,0.0046
3139.00,0.0045
3138.00,0.0045
3137.00,0.0045
3136.00,0.0045
3135.00,0.0045
3134.00,0.0044
3133.00,0.0044
3132.00,0.0044
3131.00,0.0045
3130.00,0.0045
3129.00,0.0045
3128.00,0.0044
3127.00,0.0044
3126.00,0.0043
3125.00,0.0043
3124.00,0.0043
3123.00,0.0042
3122.00,0.0042
3121.00,0.0041
3120.00,0.0041
3119.00,0.0041
3118.00,0.0041
3117.00,0.0042
3116.00,0.0042
3115.00,0.0042
3114.00,0.0042
3113.00,0.0042
3112.00,0.0041
3111.00,0.0041
3110.00,0.0040
3109.00,0.0040
3108.00,0.0040
3107.00,0.0040
3106.00,0.0040
3105.00,0.0040
3104.00,0.0040
3103.00,0.0039
3102.00,0.0039
3101.00,0.0039
3100.00,0.0039
3099.00,0.0038
3098.00,0.0038
3097.00,0.0038
3096.00,0.0038
3095.00,0.0039
3094.00,0.0039
3093.00,0.0038
3092.00,0.0038
3091.00,0.0038
3090.00,0.0038
3089.00,0.0038
3088.00,0.0038
3087.00,0.0038
3086.00,0.0038
3085.00,0.0038
3084.00,0.0038
3083.00,0.0038
3082.00,0.0038
3081.00,0.0038
3080.00,0.0038
3079.00,0.0038
3078.00,0.0038
3077.00,0.0038
3076.00,0.0039
3075.00,0.0039
3074.00,0.0039
3073.00,0.0039
3072.00,0.0039
3071.00,0.0039
3070.00,0.0039
3069.00,0.0040
3068.00,0.0040
3067.00,0.0040
3066.00,0.0040
3065.00,0.0040
3064.00,0.0040
3063.00,0.0040
3062.00,0.0040
3061.00,0.0040
3060.00,0.0040
3059.00,0.0040
3058.00,0.0040
3057.00,0.0040
3056.00,0.0040
3055.00,0.0040
3054.00,0.0040
3053.00,0.0040
3052.00,0.0040
3051.00,0.0041
3050.00,0.0041
3049.00,0.0041
3048.00,0.0041
3047.00,0.0041
3046.00,0.0042
3045.00,0.0042
3044.00,0.0042
3043.00,0.0042
3042.00,0.0042
3041.00,0.0043
3040.00,0.0043
3039.00,0.0043
3038.00,0.0043
3037.00,0.0044
3036.00,0.0044
3035.00,0.0045
3034.00,0.0045
3033.00,0.0046
3032.00,0.0046
3031.00,0.0046
3030.00,0.0047
3029.00,0.0047
3028.00,0.0048
3027.00,0.0048
3026.00,0.0049
3025.00,0.0049
3024.00,0.0049
3023.00,0.0050
3022.00,0.0050
3021.00,0.0051
3020.00,0.0051
3019.00,0.0052
3018.00,0.0053
3017.00,0.0053
3016.00,0.0055
3015.00,0.0056
3014.00,0.0057
3013.00,0.0059
3012.00,0.0060
3011.00,0.0061
3010.00,0.0062
3009.00,0.0064
3008.00,0.0065
3007.00,0.0067
3006.00,0.0068
3005.00,0.0070
3004.00,0.0071
3003.00,0.0073
3002.00,0.0076
3001.00,0.0078
3000.00,0.0081
2999.00,0.0084
2998.00,0.0087
2997.00,0.0090
2996.00,0.0093
2995.00,0.0096
2994.00,0.0100
2993.00,0.0105
2992.00,0.0110
2991.00,0.0116
2990.00,0.0122
2989.00,0.0129
2988.00,0.0136
2987.00,0.0144
2986.00,0.0153
2985.00,0.0163
2984.00,0.0174
2983.00,0.0187
2982.00,0.0201
2981.00,0.0217
2980.00,0.0236
2979.00,0.0256
2978.00,0.0280
2977.00,0.0306
2976.00,0.0337
2975.00,0.0372
2974.00,0.0412
2973.00,0.0457
2972.00,0.0508
2971.00,0.0565
2970.00,0.0627
2969.00,0.0696
2968.00,0.0769
2967.00,0.0847
2966.00,0.0928
2965.00,0.1008
2964.00,0.1085
2963.00,0.1156
2962.00,0.1218
2961.00,0.1270
2960.00,0.1315
2959.00,0.1357
2958.00,0.1400
2957.00,0.1449
2956.00,0.1508
2955.00,0.1578
2954.00,0.1657
2953.00,0.1738
2952.00,0.1812
2951.00,0.1867
2950.00,0.1891
2949.00,0.1877
2948.00,0.1821
2947.00,0.1729
2946.00,0.1612
2945.00,0.1483
2944.00,0.1359
2943.00,0.1250
2942.00,0.1164
2941.00,0.1103
2940.00,0.1068
2939.00,0.1056
2938.00,0.1066
2937.00,0.1094
2936.00,0.1138
2935.00,0.1198
2934.00,0.1272
2933.00,0.1359
2932.00,0.1458
2931.00,0.1566
2930.00,0.1681
2929.00,0.1799
2928.00,0.1918
2927.00,0.2034
2926.00,0.2147
2925.00,0.2258
2924.00,0.2368
2923.00,0.2478
2922.00,0.2589
2921.00,0.2696
2920.00,0.2794
2919.00,0.2871
2918.00,0.2914
2917.00,0.2915
2916.00,0.2870
2915.00,0.2785
2914.00,0.2673
2913.00,0.2548
2912.00,0.2422
2911.00,0.2304
2910.00,0.2198
2909.00,0.2103
2908.00,0.2017
2907.00,0.1937
2906.00,0.1861
2905.00,0.1785
2904.00,0.1711
2903.00,0.1639
2902.00,0.1569
2901.00,0.1501
2900.00,0.1436
2899.00,0.1375
2898.00,0.1318
2897.00,0.1266
2896.00,0.1220
2895.00,0.1180
2894.00,0.1146
2893.00,0.1119
2892.00,0.1098
2891.00,0.1083
2890.00,0.1073
2889.00,0.1068
2888.00,0.1066
2887.00,0.1068
2886.00,0.1074
2885.00,0.1083
2884.00,0.1097
2883.00,0.1117
2882.00,0.1142
2881.00,0.1170
2880.00,0.1199
2879.00,0.1224
2878.00,0.1241
2877.00,0.1249
2876.00,0.1247
2875.00,0.1240
2874.00,0.1232
2873.00,0.1229
2872.00,0.1234
2871.00,0.1247
2870.00,0.1265
2869.00,0.1283
2868.00,0.1294
2867.00,0.1289
2866.00,0.1262
2865.00,0.1210
2864.00,0.1138
2863.00,0.1055
2862.00,0.0972
2861.00,0.0898
2860.00,0.0838
2859.00,0.0795
2858.00,0.0769
2857.00,0.0756
2856.00,0.0756
2855.00,0.0765
2854.00,0.0782
2853.00,0.0804
2852.00,0.0828
2851.00,0.0850
2850.00,0.0868
2849.00,0.0880
2848.00,0.0889
2847.00,0.0900
2846.00,0.0918
2845.00,0.0947
2844.00,0.0988
2843.00,0.1037
2842.00,0.1092
2841.00,0.1145
2840.00,0.1189
2839.00,0.1216
2838.00,0.1217
2837.00,0.1188
2836.00,0.1129
2835.00,0.1043
2834.00,0.0941
2833.00,0.0834
2832.00,0.0731
2831.00,0.0639
2830.00,0.0560
2829.00,0.0495
2828.00,0.0443
2827.00,0.0401
2826.00,0.0366
2825.00,0.0338
2824.00,0.0315
2823.00,0.0295
2822.00,0.0278
2821.00,0.0264
2820.00,0.0251
2819.00,0.0240
2818.00,0.0231
2817.00,0.0223
2816.00,0.0216
2815.00,0.0209
2814.00,0.0203
2813.00,0.0197
2812.00,0.0191
2811.00,0.0186
2810.00,0.0180
2809.00,0.0173
2808.00,0.0167
2807.00,0.0161
2806.00,0.0154
2805.00,0.0147
2804.00,0.0141
2803.00,0.0135
2802.00,0.0129
2801.00,0.0125
2800.00,0.0122
2799.00,0.0119
2798.00,0.0116
2797.00,0.0113
2796.00,0.0111
2795.00,0.0109
2794.00,0.0106
2793.00,0.0104
2792.00,0.0101
2791.00,0.0098
2790.00,0.0095
2789.00,0.0092
2788.00,0.0089
2787.00,0.0087
2786.00,0.0084
2785.00,0.0081
2784.00,0.0079
2783.00,0.0077
2782.00,0.0075
2781.00,0.0073
2780.00,0.0071
2779.00,0.0069
2778.00,0.0068
2777.00,0.0067
2776.00,0.0066
2775.00,0.0065
2774.00,0.0064
2773.00,0.0064
2772.00,0.0063
2771.00,0.0062
2770.00,0.0062
2769.00,0.0062
2768.00,0.0061
2767.00,0.0061
2766.00,0.0060
2765.00,0.0060
2764.00,0.0059
2763.00,0.0059
2762.00,0.0059
2761.00,0.0059
2760.00,0.0058
2759.00,0.0058
2758.00,0.0058
2757.00,0.0058
2756.00,0.0058
2755.00,0.0058
2754.00,0.0058
2753.00,0.0057
2752.00,0.0057
2751.00,0.0057
2750.00,0.0057
2749.00,0.0056
2748.00,0.0057
2747.00,0.0057
2746.00,0.0058
2745.00,0.0058
2744.00,0.0059
2743.00,0.0060
2742.00,0.0061
2741.00,0.0063
2740.00,0.0064
2739.00,0.0065
2738.00,0.0066
2737.00,0.0067
2736.00,0.0068
2735.00,0.0069
2734.00,0.0070
2733.00,0.0072
2732.00,0.0074
2731.00,0.0076
2730.00,0.0078
2729.00,0.0081
2728.00,0.0084
2727.00,0.0086
2726.00,0.0089
2725.00,0.0092
2724.00,0.0094
2723.00,0.0094
2722.00,0.0093
2721.00,0.0091
2720.00,0.0088
2719.00,0.0085
2718.00,0.0081
2717.00,0.0078
2716.00,0.0075
2715.00,0.0073
2714.00,0.0071
2713.00,0.0069
2712.00,0.0067
2711.00,0.0065
2710.00,0.0063
2709.00,0.0061
2708.00,0.0060
2707.00,0.0058
2706.00,0.0057
2705.00,0.0055
2704.00,0.0054
2703.00,0.0053
2702.00,0.0052
2701.00,0.0052
2700.00,0.0051
2699.00,0.0051
2698.00,0.0050
2697.00,0.0050
2696.00,0.0050
2695.00,0.0050
2694.00,0.0049
2693.00,0.0049
2692.00,0.0049
2691.00,0.0049
2690.00,0.0049
2689.00,0.0049
2688.00,0.0049
2687.00,0.0049
2686.00,0.0049
2685.00,0.0049
2684.00,0.0049
2683.00,0.0049
2682.00,0.0049
2681.00,0.0050
2680.00,0.0050
2679.00,0.0050
2678.00,0.0050
2677.00,0.0050
2676.00,0.0050
2675.00,0.0050
2674.00,0.0050
2673.00,0.0050
2672.00,0.0050
2671.00,0.0050
2670.00,0.0050
2669.00,0.0050
2668.00,0.0050
2667.00,0.0050
2666.00,0.0050
2665.00,0.0051
2664.00,0.0051
2663.00,0.0052
2662.00,0.0052
2661.00,0.0053
2660.00,0.0053
2659.00,0.0052
2658.00,0.0052
2657.00,0.0052
2656.00,0.0051
2655.00,0.0051
2654.00,0.0051
2653.00,0.0050
2652.00,0.0049
2651.00,0.0049
2650.00,0.0048
2649.00,0.0048
2648.00,0.0048
2647.00,0.0047
2646.00,0.0047
2645.00,0.0046
2644.00,0.0045
2643.00,0.0045
2642.00,0.0045
2641.00,0.0044
2640.00,0.0044
2639.00,0.0043
2638.00,0.0043
2637.00,0.0042
2636.00,0.0042
2635.00,0.0042
2634.00,0.0042
2633.00,0.0042
2632.00,0.0042
2631.00,0.0042
2630.00,0.0043
2629.00,0.0043
2628.00,0.0043
2627.00,0.0043
2626.00,0.0043
2625.00,0.0043
2624.00,0.0044
2623.00,0.0044
2622.00,0.0044
2621.00,0.0044
2620.00,0.0044
2619.00,0.0044
2618.00,0.0044
2617.00,0.0044
2616.00,0.0044
2615.00,0.0044
2614.00,0.0044
2613.00,0.0044
2612.00,0.0044
2611.00,0.0043
2610.00,0.0042
2609.00,0.0041
2608.00,0.0040
2607.00,0.0039
2606.00,0.0039
2605.00,0.0038
2604.00,0.0038
2603.00,0.0038
2602.00,0.0038
2601.00,0.0037
2600.00,0.0037
2599.00,0.0037
2598.00,0.0037
2597.00,0.0037
2596.00,0.0037
2595.00,0.0038
2594.00,0.0038
2593.00,0.0038
2592.00,0.0038
2591.00,0.0038
2590.00,0.0039
2589.00,0.0040
2588.00,0.0040
2587.00,0.0041
2586.00,0.0042
2585.00,0.0044
2584.00,0.0044
2583.00,0.0045
2582.00,0.0044
2581.00,0.0044
2580.00,0.0044
2579.00,0.0043
2578.00,0.0042
2577.00,0.0041
2576.00,0.0040
2575.00,0.0038
2574.00,0.0037
2573.00,0.0036
2572.00,0.0035
2571.00,0.0034
2570.00,0.0033
2569.00,0.0032
2568.00,0.0032
2567.00,0.0031
2566.00,0.0031
2565.00,0.0030
2564.00,0.0029
2563.00,0.0028
2562.00,0.0028
2561.00,0.0028
2560.00,0.0028
2559.00,0.0028
2558.00,0.0027
2557.00,0.0027
2556.00,0.0026
2555.00,0.0026
2554.00,0.0026
2553.00,0.0026
2552.00,0.0026
2551.00,0.0026
2550.00,0.0026
2549.00,0.0026
2548.00,0.0025
2547.00,0.0025
2546.00,0.0024
2545.00,0.0023
2544.00,0.0023
2543.00,0.0023
2542.00,0.0023
2541.00,0.0023
2540.00,0.0022
2539.00,0.0021
2538.00,0.0021
2537.00,0.0021
2536.00,0.0021
2535.00,0.0021
2534.00,0.0021
2533.00,0.0021
2532.00,0.0021
2531.00,0.0021
2530.00,0.0021
2529.00,0.0021
2528.00,0.0021
2527.00,0.0020
2526.00,0.0020
2525.00,0.0019
2524.00,0.0018
2523.00,0.0017
2522.00,0.0017
2521.00,0.0017
2520.00,0.0017
2519.00,0.0018
2518.00,0.0019
2517.00,0.0019
2516.00,0.0018
2515.00,0.0017
2514.00,0.0017
2513.00,0.0016
2512.00,0.0016
2511.00,0.0016
2510.00,0.0016
2509.00,0.0016
2508.00,0.0016
2507.00,0.0016
2506.00,0.0015
2505.00,0.0015
2504.00,0.0015
2503.00,0.0015
2502.00,0.0014
2501.00,0.0014
2500.00,0.0014
2499.00,0.0014
2498.00,0.0014
2497.00,0.0014
2496.00,0.0014
2495.00,0.0015
2494.00,0.0015
2493.00,0.0015
2492.00,0.0014
2491.00,0.0013
2490.00,0.0013
2489.00,0.0013
2488.00,0.0014
2487.00,0.0015
2486.00,0.0015
2485.00,0.0016
2484.00,0.0016
2483.00,0.0015
2482.00,0.0014
2481.00,0.0013
2480.00,0.0012
2479.00,0.0012
2478.00,0.0012
2477.00,0.0013
2476.00,0.0013
2475.00,0.0014
2474.00,0.0014
2473.00,0.0014
2472.00,0.0014
2471.00,0.0014
2470.00,0.0015
2469.00,0.0015
2468.00,0.0015
2467.00,0.0015
2466.00,0.0015
2465.00,0.0015
2464.00,0.0015
2463.00,0.0015
2462.00,0.0015
2461.00,0.0015
2460.00,0.0015
2459.00,0.0016
2458.00,0.0017
2457.00,0.0018
2456.00,0.0018
2455.00,0.0017
2454.00,0.0017
2453.00,0.0017
2452.00,0.0017
2451.00,0.0017
2450.00,0.0017
2449.00,0.0017
2448.00,0.0017
2447.00,0.0017
2446.00,0.0017
2445.00,0.0016
2444.00,0.0015
2443.00,0.0014
2442.00,0.0014
2441.00,0.0014
2440.00,0.0015
2439.00,0.0016
2438.00,0.0016
2437.00,0.0016
2436.00,0.0016
2435.00,0.0016
2434.00,0.0016
2433.00,0.0016
2432.00,0.0015
2431.00,0.0015
2430.00,0.0015
2429.00,0.0015
2428.00,0.0016
2427.00,0.0016
2426.00,0.0016
2425.00,0.0016
2424.00,0.0016
2423.00,0.0015
2422.00,0.0015
2421.00,0.0015
2420.00,0.0015
2419.00,0.0014
2418.00,0.0013
2417.00,0.0013
2416.00,0.0013
2415.00,0.0013
2414.00,0.0013
2413.00,0.0013
2412.00,0.0013
2411.00,0.0014
2410.00,0.0014
2409.00,0.0014
2408.00,0.0014
2407.00,0.0014
2406.00,0.0014
2405.00,0.0013
2404.00,0.0013
2403.00,0.0013
2402.00,0.0013
2401.00,0.0014
2400.00,0.0014
2399.00,0.0014
2398.00,0.0014
2397.00,0.0014
2396.00,0.0013
2395.00,0.0013
2394.00,0.0012
2393.00,0.0012
2392.00,0.0013
2391.00,0.0013
2390.00,0.0013
2389.00,0.0012
2388.00,0.0012
2387.00,0.0012
2386.00,0.0012
2385.00,0.0012
2384.00,0.0011
2383.00,0.0010
2382.00,0.0010
2381.00,0.0009
2380.00,0.0009
2379.00,0.0008
2378.00,0.0008
2377.00,0.0008
2376.00,0.0008
2375.00,0.0008
2374.00,0.0009
2373.00,0.0009
2372.00,0.0009
2371.00,0.0009
2370.00,0.0009
2369.00,0.0009
2368.00,0.0009
2367.00,0.0009
2366.00,0.0009
2365.00,0.0010
2364.00,0.0010
2363.00,0.0010
2362.00,0.0010
2361.00,0.0010
2360.00,0.0009
2359.00,0.0009
2358.00,0.0009
2357.00,0.0009
2356.00,0.0010
2355.00,0.0010
2354.00,0.0009
2353.00,0.0009
2352.00,0.0008
2351.00,0.0009
2350.00,0.0010
2349.00,0.0011
2348.00,0.0011
2347.00,0.0011
2346.00,0.0011
2345.00,0.0012
2344.00,0.0012
2343.00,0.0012
2342.00,0.0012
2341.00,0.0012
2340.00,0.0012
2339.00,0.0013
2338.00,0.0012
2337.00,0.0012
2336.00,0.0012
2335.00,0.0011
2334.00,0.0011
2333.00,0.0011
2332.00,0.0011
2331.00,0.0012
2330.00,0.0012
2329.00,0.0013
2328.00,0.0014
2327.00,0.0016
2326.00,0.0020
2325.00,0.0022
2324.00,0.0023
2323.00,0.0023
2322.00,0.0021
2321.00,0.0019
2320.00,0.0018
2319.00,0.0017
2318.00,0.0017
2317.00,0.0016
2316.00,0.0016
2315.00,0.0016
2314.00,0.0015
2313.00,0.0015
2312.00,0.0015
2311.00,0.0014
2310.00,0.0013
2309.00,0.0013
2308.00,0.0013
2307.00,0.0013
2306.00,0.0013
2305.00,0.0014
2304.00,0.0014
2303.00,0.0015
2302.00,0.0016
2301.00,0.0016
2300.00,0.0016
2299.00,0.0015
2298.00,0.0015
2297.00,0.0016
2296.00,0.0016
2295.00,0.0017
2294.00,0.0017
2293.00,0.0017
2292.00,0.0017
2291.00,0.0018
2290.00,0.0018
2289.00,0.0019
2288.00,0.0020
2287.00,0.0021
2286.00,0.0022
2285.00,0.0023
2284.00,0.0023
2283.00,0.0022
2282.00,0.0021
2281.00,0.0019
2280.00,0.0018
2279.00,0.0017
2278.00,0.0016
2277.00,0.0016
2276.00,0.0016
2275.00,0.0017
2274.00,0.0017
2273.00,0.0017
2272.00,0.0017
2271.00,0.0016
2270.00,0.0015
2269.00,0.0015
2268.00,0.0015
2267.00,0.0014
2266.00,0.0012
2265.00,0.0011
2264.00,0.0011
2263.00,0.0012
2262.00,0.0013
2261.00,0.0014
2260.00,0.0014
2259.00,0.0014
2258.00,0.0015
2257.00,0.0016
2256.00,0.0016
2255.00,0.0015
2254.00,0.0014
2253.00,0.0012
2252.00,0.0011
2251.00,0.0011
2250.00,0.0011
2249.00,0.0012
2248.00,0.0013
2247.00,0.0014
2246.00,0.0014
2245.00,0.0013
2244.00,0.0012
2243.00,0.0012
2242.00,0.0012
2241.00,0.0012
2240.00,0.0012
2239.00,0.0012
2238.00,0.0011
2237.00,0.0011
2236.00,0.0010
2235.00,0.0010
2234.00,0.0010
2233.00,0.0011
2232.00,0.0011
2231.00,0.0011
2230.00,0.0012
2229.00,0.0013
2228.00,0.0014
2227.00,0.0014
2226.00,0.0014
2225.00,0.0013
2224.00,0.0013
2223.00,0.0012
2222.00,0.0011
2221.00,0.0011
2220.00,0.0010
2219.00,0.0010
2218.00,0.0010
2217.00,0.0011
2216.00,0.0011
2215.00,0.0011
2214.00,0.0010
2213.00,0.0010
2212.00,0.0009
2211.00,0.0009
2210.00,0.0010
2209.00,0.0010
2208.00,0.0011
2207.00,0.0012
2206.00,0.0012
2205.00,0.0013
2204.00,0.0013
2203.00,0.0012
2202.00,0.0010
2201.00,0.0009
2200.00,0.0009
2199.00,0.0010
2198.00,0.0011
2197.00,0.0012
2196.00,0.0013
2195.00,0.0013
2194.00,0.0012
2193.00,0.0011
2192.00,0.0011
2191.00,0.0011
2190.00,0.0011
2189.00,0.0011
2188.00,0.0011
2187.00,0.0011
2186.00,0.0009
2185.00,0.0008
2184.00,0.0007
2183.00,0.0005
2182.00,0.0004
2181.00,0.0004
2180.00,0.0006
2179.00,0.0008
2178.00,0.0009
2177.00,0.0008
2176.00,0.0005
2175.00,0.0003
2174.00,0.0002
2173.00,0.0003
2172.00,0.0005
2171.00,0.0009
2170.00,0.0012
2169.00,0.0015
2168.00,0.0017
2167.00,0.0018
2166.00,0.0019
2165.00,0.0022
2164.00,0.0025
2163.00,0.0028
2162.00,0.0027
2161.00,0.0020
2160.00,0.0007
2159.00,-0.0008
2158.00,-0.0018
2157.00,-0.0020
2156.00,-0.0017
2155.00,-0.0014
2154.00,-0.0012
2153.00,-0.0011
2152.00,-0.0010
2151.00,-0.0008
2150.00,-0.0006
2149.00,-0.0004
2148.00,-0.0004
2147.00,-0.0004
2146.00,-0.0004
2145.00,-0.0005
2144.00,-0.0005
2143.00,-0.0005
2142.00,-0.0006
2141.00,-0.0005
2140.00,-0.0005
2139.00,-0.0005
2138.00,-0.0005
2137.00,-0.0005
2136.00,-0.0006
2135.00,-0.0007
2134.00,-0.0008
2133.00,-0.0008
2132.00,-0.0007
2131.00,-0.0006
2130.00,-0.0005
2129.00,-0.0004
2128.00,-0.0003
2127.00,-0.0003
2126.00,-0.0001
2125.00,0.0001
2124.00,0.0002
2123.00,0.0002
2122.00,0.0003
2121.00,0.0003
2120.00,0.0004
2119.00,0.0004
2118.00,0.0004
2117.00,0.0005
2116.00,0.0006
2115.00,0.0006
2114.00,0.0006
2113.00,0.0005
2112.00,0.0005
2111.00,0.0004
2110.00,0.0004
2109.00,0.0005
2108.00,0.0006
2107.00,0.0006
2106.00,0.0007
2105.00,0.0008
2104.00,0.0009
2103.00,0.0008
2102.00,0.0007
2101.00,0.0005
2100.00,0.0004
2099.00,0.0004
2098.00,0.0004
2097.00,0.0004
2096.00,0.0004
2095.00,0.0003
2094.00,0.0004
2093.00,0.0004
2092.00,0.0006
2091.00,0.0006
2090.00,0.0006
2089.00,0.0006
2088.00,0.0005
2087.00,0.0005
2086.00,0.0005
2085.00,0.0006
2084.00,0.0008
2083.00,0.0008
2082.00,0.0008
2081.00,0.0007
2080.00,0.0007
2079.00,0.0007
2078.00,0.0007
2077.00,0.0007
2076.00,0.0008
2075.00,0.0009
2074.00,0.0009
2073.00,0.0008
2072.00,0.0007
2071.00,0.0006
2070.00,0.0005
2069.00,0.0005
2068.00,0.0004
2067.00,0.0003
2066.00,0.0003
2065.00,0.0004
2064.00,0.0004
2063.00,0.0005
2062.00,0.0004
2061.00,0.0004
2060.00,0.0004
2059.00,0.0005
2058.00,0.0006
2057.00,0.0006
2056.00,0.0004
2055.00,0.0003
2054.00,0.0004
2053.00,0.0007
2052.00,0.0012
2051.00,0.0017
2050.00,0.0019
2049.00,0.0018
2048.00,0.0015
2047.00,0.0012
2046.00,0.0009
2045.00,0.0008
2044.00,0.0009
2043.00,0.0010
2042.00,0.0010
2041.00,0.0008
2040.00,0.0006
2039.00,0.0004
2038.00,0.0003
2037.00,0.0003
2036.00,0.0002
2035.00,0.0001
2034.00,-0.0001
2033.00,-0.0003
2032.00,-0.0004
2031.00,-0.0004
2030.00,-0.0003
2029.00,-0.0003
2028.00,-0.0003
2027.00,-0.0005
2026.00,-0.0004
2025.00,-0.0002
2024.00,-0.0001
2023.00,-0.0001
2022.00,-0.0004
2021.00,-0.0005
2020.00,-0.0006
2019.00,-0.0006
2018.00,-0.0005
2017.00,-0.0003
2016.00,-0.0002
2015.00,-0.0001
2014.00,-0.0002
2013.00,-0.0003
2012.00,-0.0004
2011.00,-0.0005
2010.00,-0.0006
2009.00,-0.0006
2008.00,-0.0008
2007.00,-0.0011
2006.00,-0.0016
2005.00,-0.0017
2004.00,-0.0015
2003.00,-0.0011
2002.00,-0.0008
2001.00,-0.0007
2000.00,-0.0007
1999.00,-0.0007
1998.00,-0.0007
1997.00,-0.0006
1996.00,-0.0006
1995.00,-0.0005
1994.00,-0.0006
1993.00,-0.0006
1992.00,-0.0006
1991.00,-0.0006
1990.00,-0.0005
1989.00,-0.0004
1988.00,-0.0003
1987.00,-0.0003
1986.00,-0.0004
1985.00,-0.0003
1984.00,-0.0001
1983.00,0.0005
1982.00,0.0011
1981.00,0.0016
1980.00,0.0018
1979.00,0.0016
1978.00,0.0010
1977.00,0.0005
1976.00,0.0002
1975.00,0.0001
1974.00,0.0001
1973.00,0.0002
1972.00,0.0001
1971.00,-0.0001
1970.00,-0.0004
1969.00,-0.0006
1968.00,-0.0006
1967.00,-0.0005
1966.00,-0.0005
1965.00,-0.0007
1964.00,-0.0009
1963.00,-0.0011
1962.00,-0.0012
1961.00,-0.0011
1960.00,-0.0010
1959.00,-0.0010
1958.00,-0.0010
1957.00,-0.0009
1956.00,-0.0009
1955.00,-0.0010
1954.00,-0.0013
1953.00,-0.0014
1952.00,-0.0014
1951.00,-0.0013
1950.00,-0.0011
1949.00,-0.0009
1948.00,-0.0007
1947.00,-0.0006
1946.00,-0.0006
1945.00,-0.0006
1944.00,-0.0006
1943.00,-0.0006
1942.00,-0.0005
1941.00,-0.0005
1940.00,-0.0005
1939.00,-0.0005
1938.00,-0.0005
1937.00,-0.0004
1936.00,-0.0003
1935.00,-0.0003
1934.00,-0.0004
1933.00,-0.0005
1932.00,-0.0005
1931.00,-0.0005
1930.00,-0.0004
1929.00,-0.0003
1928.00,-0.0002
1927.00,-0.0002
1926.00,-0.0002
1925.00,-0.0001
1924.00,-0.0001
1923.00,0.0000
1922.00,0.0002
1921.00,0.0003
1920.00,0.0005
1919.00,0.0005
1918.00,0.0005
1917.00,0.0004
1916.00,0.0004
1915.00,0.0003
1914.00,0.0002
1913.00,0.0001
1912.00,0.0000
1911.00,-0.0000
1910.00,-0.0000
1909.00,0.0000
1908.00,0.0001
1907.00,0.0002
1906.00,0.0003
1905.00,0.0004
1904.00,0.0004
1903.00,0.0005
1902.00,0.0006
1901.00,0.0006
1900.00,0.0005
1899.00,0.0005
1898.00,0.0004
1897.00,0.0004
1896.00,0.0003
1895.00,0.0003
1894.00,0.0004
1893.00,0.0005
1892.00,0.0007
1891.00,0.0008
1890.00,0.0007
1889.00,0.0005
1888.00,0.0004
1887.00,0.0003
1886.00,0.0002
1885.00,0.0002
1884.00,0.0002
1883.00,0.0003
1882.00,0.0003
1881.00,0.0003
1880.00,0.0003
1879.00,0.0004
1878.00,0.0004
1877.00,0.0004
1876.00,0.0004
1875.00,0.0004
1874.00,0.0004
1873.00,0.0005
1872.00,0.0006
1871.00,0.0006
1870.00,0.0006
1869.00,0.0006
1868.00,0.0007
1867.00,0.0007
1866.00,0.0006
1865.00,0.0005
1864.00,0.0004
1863.00,0.0004
1862.00,0.0004
1861.00,0.0005
1860.00,0.0006
1859.00,0.0005
1858.00,0.0005
1857.00,0.0004
1856.00,0.0004
1855.00,0.0004
1854.00,0.0005
1853.00,0.0006
1852.00,0.0006
1851.00,0.0006
1850.00,0.0005
1849.00,0.0005
1848.00,0.0005
1847.00,0.0006
1846.00,0.0006
1845.00,0.0007
1844.00,0.0008
1843.00,0.0009
1842.00,0.0009
1841.00,0.0009
1840.00,0.0009
1839.00,0.0008
1838.00,0.0009
1837.00,0.0009
1836.00,0.0009
1835.00,0.0009
1834.00,0.0008
1833.00,0.0008
1832.00,0.0008
1831.00,0.0008
1830.00,0.0008
1829.00,0.0009
1828.00,0.0009
1827.00,0.0009
1826.00,0.0008
1825.00,0.0008
1824.00,0.0008
1823.00,0.0008
1822.00,0.0008
1821.00,0.0007
1820.00,0.0006
1819.00,0.0005
1818.00,0.0003
1817.00,0.0002
1816.00,0.0002
1815.00,0.0003
1814.00,0.0005
1813.00,0.0006
1812.00,0.0007
1811.00,0.0008
1810.00,0.0008
1809.00,0.0008
1808.00,0.0008
1807.00,0.0009
1806.00,0.0010
1805.00,0.0010
1804.00,0.0011
1803.00,0.0011
1802.00,0.0010
1801.00,0.0010
1800.00,0.0010
1799.00,0.0010
1798.00,0.0010
1797.00,0.0010
1796.00,0.0010
1795.00,0.0010
1794.00,0.0010
1793.00,0.0010
1792.00,0.0011
1791.00,0.0011
1790.00,0.0011
1789.00,0.0011
1788.00,0.0011
1787.00,0.0012
1786.00,0.0012
1785.00,0.0013
1784.00,0.0013
1783.00,0.0013
1782.00,0.0013
1781.00,0.0013
1780.00,0.0014
1779.00,0.0014
1778.00,0.0014
1777.00,0.0014
1776.00,0.0014
1775.00,0.0013
1774.00,0.0013
1773.00,0.0013
1772.00,0.0013
1771.00,0.0014
1770.00,0.0014
1769.00,0.0014
1768.00,0.0015
1767.00,0.0016
1766.00,0.0017
1765.00,0.0017
1764.00,0.0017
1763.00,0.0018
1762.00,0.0019
1761.00,0.0021
1760.00,0.0021
1759.00,0.0022
1758.00,0.0022
1757.00,0.0023
1756.00,0.0024
1755.00,0.0026
1754.00,0.0027
1753.00,0.0027
1752.00,0.0028
1751.00,0.0029
1750.00,0.0030
1749.00,0.0032
1748.00,0.0032
1747.00,0.0033
1746.00,0.0033
1745.00,0.0033
1744.00,0.0033
1743.00,0.0032
1742.00,0.0032
1741.00,0.0032
1740.00,0.0032
1739.00,0.0032
1738.00,0.0032
1737.00,0.0032
1736.00,0.0030
1735.00,0.0029
1734.00,0.0028
1733.00,0.0029
1732.00,0.0029
1731.00,0.0029
1730.00,0.0029
1729.00,0.0030
1728.00,0.0031
1727.00,0.0031
1726.00,0.0031
1725.00,0.0031
1724.00,0.0031
1723.00,0.0031
1722.00,0.0031
1721.00,0.0031
1720.00,0.0031
1719.00,0.0032
1718.00,0.0031
1717.00,0.0031
1716.00,0.0031
1715.00,0.0031
1714.00,0.0031
1713.00,0.0031
1712.00,0.0032
1711.00,0.0032
1710.00,0.0032
1709.00,0.0033
1708.00,0.0033
1707.00,0.0034
1706.00,0.0034
1705.00,0.0035
1704.00,0.0036
1703.00,0.0036
1702.00,0.0036
1701.00,0.0037
1700.00,0.0039
1699.00,0.0040
1698.00,0.0039
1697.00,0.0039
1696.00,0.0040
1695.00,0.0041
1694.00,0.0042
1693.00,0.0042
1692.00,0.0043
1691.00,0.0043
1690.00,0.0045
1689.00,0.0046
1688.00,0.0047
1687.00,0.0047
1686.00,0.0047
1685.00,0.0048
1684.00,0.0051
1683.00,0.0053
1682.00,0.0054
1681.00,0.0054
1680.00,0.0055
1679.00,0.0056
1678.00,0.0057
1677.00,0.0058
1676.00,0.0060
1675.00,0.0062
1674.00,0.0063
1673.00,0.0064
1672.00,0.0064
1671.00,0.0064
1670.00,0.0065
1669.00,0.0067
1668.00,0.0068
1667.00,0.0069
1666.00,0.0069
1665.00,0.0070
1664.00,0.0071
1663.00,0.0071
1662.00,0.0073
1661.00,0.0074
1660.00,0.0076
1659.00,0.0078
1658.00,0.0079
1657.00,0.0081
1656.00,0.0083
1655.00,0.0084
1654.00,0.0084
1653.00,0.0086
1652.00,0.0090
1651.00,0.0092
1650.00,0.0093
1649.00,0.0094
1648.00,0.0096
1647.00,0.0097
1646.00,0.0099
1645.00,0.0100
1644.00,0.0100
1643.00,0.0100
1642.00,0.0099
1641.00,0.0099
1640.00,0.0099
1639.00,0.0098
1638.00,0.0098
1637.00,0.0097
1636.00,0.0096
1635.00,0.0096
1634.00,0.0096
1633.00,0.0095
1632.00,0.0095
1631.00,0.0094
1630.00,0.0093
1629.00,0.0093
1628.00,0.0092
1627.00,0.0091
1626.00,0.0090
1625.00,0.0089
1624.00,0.0088
1623.00,0.0087
1622.00,0.0086
1621.00,0.0085
1620.00,0.0084
1619.00,0.0082
1618.00,0.0081
1617.00,0.0081
1616.00,0.0081
1615.00,0.0081
1614.00,0.0080
1613.00,0.0080
1612.00,0.0079
1611.00,0.0079
1610.00,0.0078
1609.00,0.0079
1608.00,0.0079
1607.00,0.0079
1606.00,0.0078
1605.00,0.0078
1604.00,0.0078
1603.00,0.0078
1602.00,0.0078
1601.00,0.0078
1600.00,0.0078
1599.00,0.0078
1598.00,0.0078
1597.00,0.0078
1596.00,0.0079
1595.00,0.0079
1594.00,0.0079
1593.00,0.0080
1592.00,0.0081
1591.00,0.0081
1590.00,0.0082
1589.00,0.0083
1588.00,0.0085
1587.00,0.0087
1586.00,0.0089
1585.00,0.0092
1584.00,0.0095
1583.00,0.0098
1582.00,0.0102
1581.00,0.0105
1580.00,0.0108
1579.00,0.0111
1578.00,0.0112
1577.00,0.0112
1576.00,0.0111
1575.00,0.0109
1574.00,0.0107
1573.00,0.0105
1572.00,0.0102
1571.00,0.0100
1570.00,0.0096
1569.00,0.0093
1568.00,0.0091
1567.00,0.0090
1566.00,0.0088
1565.00,0.0088
1564.00,0.0087
1563.00,0.0087
1562.00,0.0087
1561.00,0.0088
1560.00,0.0089
1559.00,0.0089
1558.00,0.0088
1557.00,0.0089
1556.00,0.0089
1555.00,0.0090
1554.00,0.0091
1553.00,0.0092
1552.00,0.0094
1551.00,0.0097
1550.00,0.0099
1549.00,0.0103
1548.00,0.0107
1547.00,0.0111
1546.00,0.0115
1545.00,0.0121
1544.00,0.0128
1543.00,0.0133
1542.00,0.0137
1541.00,0.0140
1540.00,0.0141
1539.00,0.0139
1538.00,0.0136
1537.00,0.0134
1536.00,0.0131
1535.00,0.0127
1534.00,0.0122
1533.00,0.0117
1532.00,0.0113
1531.00,0.0109
1530.00,0.0106
1529.00,0.0104
1528.00,0.0101
1527.00,0.0098
1526.00,0.0095
1525.00,0.0094
1524.00,0.0093
1523.00,0.0091
1522.00,0.0089
1521.00,0.0087
1520.00,0.0087
1519.00,0.0087
1518.00,0.0086
1517.00,0.0086
1516.00,0.0085
1515.00,0.0084
1514.00,0.0083
1513.00,0.0083
1512.00,0.0084
1511.00,0.0084
1510.00,0.0084
1509.00,0.0084
1508.00,0.0084
1507.00,0.0084
1506.00,0.0085
1505.00,0.0087
1504.00,0.0089
1503.00,0.0090
1502.00,0.0091
1501.00,0.0094
1500.00,0.0097
1499.00,0.0101
1498.00,0.0106
1497.00,0.0112
1496.00,0.0118
1495.00,0.0122
1494.00,0.0125
1493.00,0.0129
1492.00,0.0132
1491.00,0.0135
1490.00,0.0137
1489.00,0.0141
1488.00,0.0146
1487.00,0.0150
1486.00,0.0155
1485.00,0.0162
1484.00,0.0170
1483.00,0.0178
1482.00,0.0188
1481.00,0.0201
1480.00,0.0214
1479.00,0.0227
1478.00,0.0243
1477.00,0.0264
1476.00,0.0290
1475.00,0.0319
1474.00,0.0359
1473.00,0.0417
1472.00,0.0484
1471.00,0.0549
1470.00,0.0611
1469.00,0.0676
1468.00,0.0746
1467.00,0.0824
1466.00,0.0915
1465.00,0.1013
1464.00,0.1100
1463.00,0.1159
1462.00,0.1196
1461.00,0.1220
1460.00,0.1236
1459.00,0.1245
1458.00,0.1249
1457.00,0.1249
1456.00,0.1241
1455.00,0.1228
1454.00,0.1211
1453.00,0.1189
1452.00,0.1156
1451.00,0.1112
1450.00,0.1056
1449.00,0.0982
1448.00,0.0892
1447.00,0.0799
1446.00,0.0717
1445.00,0.0648
1444.00,0.0590
1443.00,0.0542
1442.00,0.0506
1441.00,0.0482
1440.00,0.0469
1439.00,0.0465
1438.00,0.0469
1437.00,0.0475
1436.00,0.0469
1435.00,0.0447
1434.00,0.0411
1433.00,0.0367
1432.00,0.0321
1431.00,0.0279
1430.00,0.0247
1429.00,0.0223
1428.00,0.0207
1427.00,0.0197
1426.00,0.0191
1425.00,0.0185
1424.00,0.0180
1423.00,0.0177
1422.00,0.0176
1421.00,0.0174
1420.00,0.0171
1419.00,0.0169
1418.00,0.0167
1417.00,0.0164
1416.00,0.0161
1415.00,0.0158
1414.00,0.0156
1413.00,0.0154
1412.00,0.0150
1411.00,0.0148
1410.00,0.0147
1409.00,0.0145
1408.00,0.0143
1407.00,0.0143
1406.00,0.0143
1405.00,0.0142
1404.00,0.0141
1403.00,0.0141
1402.00,0.0141
1401.00,0.0141
1400.00,0.0141
1399.00,0.0143
1398.00,0.0145
1397.00,0.0147
1396.00,0.0149
1395.00,0.0153
1394.00,0.0158
1393.00,0.0163
1392.00,0.0168
1391.00,0.0176
1390.00,0.0187
1389.00,0.0201
1388.00,0.0223
1387.00,0.0255
1386.00,0.0298
1385.00,0.0355
1384.00,0.0434
1383.00,0.0548
1382.00,0.0704
1381.00,0.0908
1380.00,0.1163
1379.00,0.1456
1378.00,0.1740
1377.00,0.1949
1376.00,0.2020
1375.00,0.1917
1374.00,0.1670
1373.00,0.1375
1372.00,0.1107
1371.00,0.0888
1370.00,0.0715
1369.00,0.0583
1368.00,0.0492
1367.00,0.0437
1366.00,0.0406
1365.00,0.0394
1364.00,0.0396
1363.00,0.0410
1362.00,0.0433
1361.00,0.0457
1360.00,0.0476
1359.00,0.0482
1358.00,0.0472
1357.00,0.0446
1356.00,0.0408
1355.00,0.0366
1354.00,0.0325
1353.00,0.0290
1352.00,0.0262
1351.00,0.0239
1350.00,0.0220
1349.00,0.0205
1348.00,0.0192
1347.00,0.0181
1346.00,0.0172
1345.00,0.0164
1344.00,0.0158
1343.00,0.0152
1342.00,0.0148
1341.00,0.0145
1340.00,0.0142
1339.00,0.0140
1338.00,0.0139
1337.00,0.0139
1336.00,0.0140
1335.00,0.0141
1334.00,0.0144
1333.00,0.0148
1332.00,0.0152
1331.00,0.0155
1330.00,0.0156
1329.00,0.0154
1328.00,0.0150
1327.00,0.0145
1326.00,0.0139
1325.00,0.0133
1324.00,0.0128
1323.00,0.0123
1322.00,0.0119
1321.00,0.0116
1320.00,0.0114
1319.00,0.0112
1318.00,0.0110
1317.00,0.0108
1316.00,0.0106
1315.00,0.0105
1314.00,0.0104
1313.00,0.0104
1312.00,0.0105
1311.00,0.0106
1310.00,0.0109
1309.00,0.0114
1308.00,0.0121
1307.00,0.0130
1306.00,0.0139
1305.00,0.0145
1304.00,0.0149
1303.00,0.0148
1302.00,0.0146
1301.00,0.0144
1300.00,0.0143
1299.00,0.0144
1298.00,0.0145
1297.00,0.0146
1296.00,0.0145
1295.00,0.0143
1294.00,0.0139
1293.00,0.0134
1292.00,0.0129
1291.00,0.0124
1290.00,0.0119
1289.00,0.0115
1288.00,0.0112
1287.00,0.0108
1286.00,0.0106
1285.00,0.0103
1284.00,0.0101
1283.00,0.0099
1282.00,0.0098
1281.00,0.0097
1280.00,0.0096
1279.00,0.0096
1278.00,0.0095
1277.00,0.0095
1276.00,0.0094
1275.00,0.0094
1274.00,0.0093
1273.00,0.0093
1272.00,0.0093
1271.00,0.0094
1270.00,0.0095
1269.00,0.0096
1268.00,0.0098
1267.00,0.0101
1266.00,0.0104
1265.00,0.0107
1264.00,0.0110
1263.00,0.0113
1262.00,0.0116
1261.00,0.0120
1260.00,0.0124
1259.00,0.0130
1258.00,0.0135
1257.00,0.0140
1256.00,0.0142
1255.00,0.0140
1254.00,0.0135
1253.00,0.0128
1252.00,0.0121
1251.00,0.0115
1250.00,0.0111
1249.00,0.0108
1248.00,0.0105
1247.00,0.0102
1246.00,0.0100
1245.00,0.0099
1244.00,0.0098
1243.00,0.0098
1242.00,0.0097
1241.00,0.0097
1240.00,0.0097
1239.00,0.0096
1238.00,0.0095
1237.00,0.0094
1236.00,0.0093
1235.00,0.0093
1234.00,0.0094
1233.00,0.0094
1232.00,0.0095
1231.00,0.0096
1230.00,0.0097
1229.00,0.0098
1228.00,0.0099
1227.00,0.0101
1226.00,0.0103
1225.00,0.0106
1224.00,0.0110
1223.00,0.0114
1222.00,0.0117
1221.00,0.0120
1220.00,0.0121
1219.00,0.0121
1218.00,0.0120
1217.00,0.0119
1216.00,0.0116
1215.00,0.0112
1214.00,0.0108
1213.00,0.0104
1212.00,0.0101
1211.00,0.0099
1210.00,0.0097
1209.00,0.0095
1208.00,0.0094
1207.00,0.0093
1206.00,0.0092
1205.00,0.0091
1204.00,0.0090
1203.00,0.0090
1202.00,0.0090
1201.00,0.0090
1200.00,0.0090
1199.00,0.0090
1198.00,0.0090
1197.00,0.0091
1196.00,0.0091
1195.00,0.0091
1194.00,0.0091
1193.00,0.0092
1192.00,0.0092
1191.00,0.0092
1190.00,0.0092
1189.00,0.0092
1188.00,0.0092
1187.00,0.0092
1186.00,0.0092
1185.00,0.0092
1184.00,0.0093
1183.00,0.0095
1182.00,0.0097
1181.00,0.0099
1180.00,0.0102
1179.00,0.0106
1178.00,0.0111
1177.00,0.0118
1176.00,0.0127
1175.00,0.0139
1174.00,0.0155
1173.00,0.0175
1172.00,0.0198
1171.00,0.0224
1170.00,0.0248
1169.00,0.0267
1168.00,0.0279
1167.00,0.0281
1166.00,0.0276
1165.00,0.0266
1164.00,0.0254
1163.00,0.0243
1162.00,0.0234
1161.00,0.0226
1160.00,0.0221
1159.00,0.0217
1158.00,0.0214
1157.00,0.0212
1156.00,0.0212
1155.00,0.0212
1154.00,0.0211
1153.00,0.0209
1152.00,0.0205
1151.00,0.0199
1150.00,0.0191
1149.00,0.0182
1148.00,0.0173
1147.00,0.0164
1146.00,0.0155
1145.00,0.0148
1144.00,0.0141
1143.00,0.0135
1142.00,0.0129
1141.00,0.0124
1140.00,0.0120
1139.00,0.0116
1138.00,0.0112
1137.00,0.0109
1136.00,0.0106
1135.00,0.0103
1134.00,0.0101
1133.00,0.0100
1132.00,0.0099
1131.00,0.0099
1130.00,0.0099
1129.00,0.0100
1128.00,0.0101
1127.00,0.0102
1126.00,0.0102
1125.00,0.0103
1124.00,0.0103
1123.00,0.0104
1122.00,0.0105
1121.00,0.0105
1120.00,0.0106
1119.00,0.0107
1118.00,0.0109
1117.00,0.0111
1116.00,0.0113
1115.00,0.0115
1114.00,0.0116
1113.00,0.0117
1112.00,0.0118
1111.00,0.0120
1110.00,0.0124
1109.00,0.0128
1108.00,0.0133
1107.00,0.0139
1106.00,0.0145
1105.00,0.0152
1104.00,0.0157
1103.00,0.0159
1102.00,0.0159
1101.00,0.0156
1100.00,0.0151
1099.00,0.0145
1098.00,0.0139
1097.00,0.0134
1096.00,0.0129
1095.00,0.0126
1094.00,0.0122
1093.00,0.0119
1092.00,0.0115
1091.00,0.0113
1090.00,0.0111
1089.00,0.0109
1088.00,0.0108
1087.00,0.0108
1086.00,0.0108
1085.00,0.0107
1084.00,0.0107
1083.00,0.0106
1082.00,0.0104
1081.00,0.0102
1080.00,0.0100
1079.00,0.0099
1078.00,0.0099
1077.00,0.0098
1076.00,0.0098
1075.00,0.0097
1074.00,0.0096
1073.00,0.0094
1072.00,0.0093
1071.00,0.0093
1070.00,0.0093
1069.00,0.0092
1068.00,0.0092
1067.00,0.0092
1066.00,0.0092
1065.00,0.0092
1064.00,0.0092
1063.00,0.0092
1062.00,0.0093
1061.00,0.0093
1060.00,0.0092
1059.00,0.0092
1058.00,0.0091
1057.00,0.0090
1056.00,0.0090
1055.00,0.0091
1054.00,0.0092
1053.00,0.0093
1052.00,0.0095
1051.00,0.0097
1050.00,0.0099
1049.00,0.0100
1048.00,0.0102
1047.00,0.0103
1046.00,0.0105
1045.00,0.0107
1044.00,0.0107
1043.00,0.0106
1042.00,0.0105
1041.00,0.0105
1040.00,0.0104
1039.00,0.0105
1038.00,0.0106
1037.00,0.0107
1036.00,0.0107
1035.00,0.0106
1034.00,0.0104
1033.00,0.0102
1032.00,0.0099
1031.00,0.0097
1030.00,0.0096
1029.00,0.0095
1028.00,0.0095
1027.00,0.0095
1026.00,0.0095
1025.00,0.0095
1024.00,0.0096
1023.00,0.0096
1022.00,0.0097
1021.00,0.0098
1020.00,0.0097
1019.00,0.0097
1018.00,0.0097
1017.00,0.0098
1016.00,0.0100
1015.00,0.0102
1014.00,0.0105
1013.00,0.0107
1012.00,0.0109
1011.00,0.0112
1010.00,0.0114
1009.00,0.0116
1008.00,0.0118
1007.00,0.0121
1006.00,0.0127
1005.00,0.0136
1004.00,0.0148
1003.00,0.0165
1002.00,0.0189
1001.00,0.0217
1000.00,0.0246
999.00,0.0269
998.00,0.0280
997.00,0.0273
996.00,0.0252
995.00,0.0223
994.00,0.0193
993.00,0.0167
992.00,0.0147
991.00,0.0132
990.00,0.0121
989.00,0.0114
988.00,0.0110
987.00,0.0108
986.00,0.0107
985.00,0.0109
984.00,0.0112
983.00,0.0119
982.00,0.0130
981.00,0.0146
980.00,0.0167
979.00,0.0194
978.00,0.0227
977.00,0.0264
976.00,0.0303
975.00,0.0336
974.00,0.0357
973.00,0.0360
972.00,0.0343
971.00,0.0309
970.00,0.0266
969.00,0.0225
968.00,0.0191
967.00,0.0165
966.00,0.0147
965.00,0.0133
964.00,0.0122
963.00,0.0114
962.00,0.0107
961.00,0.0102
960.00,0.0098
959.00,0.0095
958.00,0.0092
957.00,0.0090
956.00,0.0088
955.00,0.0086
954.00,0.0085
953.00,0.0084
952.00,0.0082
951.00,0.0081
950.00,0.0081
949.00,0.0081
948.00,0.0082
947.00,0.0084
946.00,0.0086
945.00,0.0089
944.00,0.0093
943.00,0.0097
942.00,0.0101
941.00,0.0104
940.00,0.0105
939.00,0.0102
938.00,0.0097
937.00,0.0091
936.00,0.0084
935.00,0.0079
934.00,0.0076
933.00,0.0074
932.00,0.0072
931.00,0.0071
930.00,0.0070
929.00,0.0069
928.00,0.0068
927.00,0.0067
926.00,0.0067
925.00,0.0068
924.00,0.0067
923.00,0.0067
922.00,0.0067
921.00,0.0067
920.00,0.0066
919.00,0.0066
918.00,0.0066
917.00,0.0066
916.00,0.0067
915.00,0.0068
914.00,0.0070
913.00,0.0071
912.00,0.0073
911.00,0.0074
910.00,0.0076
909.00,0.0079
908.00,0.0083
907.00,0.0089
906.00,0.0097
905.00,0.0108
904.00,0.0124
903.00,0.0143
902.00,0.0165
901.00,0.0184
900.00,0.0196
899.00,0.0197
898.00,0.0188
897.00,0.0172
896.00,0.0152
895.00,0.0133
894.00,0.0117
893.00,0.0104
892.00,0.0096
891.00,0.0090
890.00,0.0087
889.00,0.0085
888.00,0.0083
887.00,0.0080
886.00,0.0079
885.00,0.0078
884.00,0.0078
883.00,0.0078
882.00,0.0079
881.00,0.0081
880.00,0.0084
879.00,0.0086
878.00,0.0089
877.00,0.0089
876.00,0.0089
875.00,0.0089
874.00,0.0089
873.00,0.0088
872.00,0.0087
871.00,0.0086
870.00,0.0085
869.00,0.0084
868.00,0.0083
867.00,0.0082
866.00,0.0083
865.00,0.0084
864.00,0.0085
863.00,0.0086
862.00,0.0087
861.00,0.0088
860.00,0.0090
859.00,0.0092
858.00,0.0095
857.00,0.0096
856.00,0.0097
855.00,0.0096
854.00,0.0096
853.00,0.0098
852.00,0.0100
851.00,0.0104
850.00,0.0108
849.00,0.0112
848.00,0.0118
847.00,0.0127
846.00,0.0143
845.00,0.0167
844.00,0.0201
843.00,0.0237
842.00,0.0264
841.00,0.0269
840.00,0.0250
839.00,0.0216
838.00,0.0181
837.00,0.0155
836.00,0.0138
835.00,0.0128
834.00,0.0121
833.00,0.0116
832.00,0.0113
831.00,0.0111
830.00,0.0110
829.00,0.0110
828.00,0.0110
827.00,0.0109
826.00,0.0108
825.00,0.0107
824.00,0.0106
823.00,0.0106
822.00,0.0106
821.00,0.0106
820.00,0.0108
819.00,0.0112
818.00,0.0117
817.00,0.0125
816.00,0.0135
815.00,0.0147
814.00,0.0163
813.00,0.0183
812.00,0.0204
811.00,0.0223
810.00,0.0237
809.00,0.0243
808.00,0.0239
807.00,0.0227
806.00,0.0208
805.00,0.0187
804.00,0.0168
803.00,0.0152
802.00,0.0140
801.00,0.0130
800.00,0.0122
799.00,0.0116
798.00,0.0112
797.00,0.0109
796.00,0.0107
795.00,0.0104
794.00,0.0102
793.00,0.0099
792.00,0.0096
791.00,0.0093
790.00,0.0090
789.00,0.0088
788.00,0.0086
787.00,0.0083
786.00,0.0081
785.00,0.0077
784.00,0.0073
783.00,0.0070
782.00,0.0068
781.00,0.0067
780.00,0.0067
779.00,0.0067
778.00,0.0067
777.00,0.0067
776.00,0.0067
775.00,0.0066
774.00,0.0066
773.00,0.0065
772.00,0.0064
771.00,0.0064
770.00,0.0066
769.00,0.0067
768.00,0.0069
767.00,0.0069
766.00,0.0069
765.00,0.0068
764.00,0.0068
763.00,0.0069
762.00,0.0071
761.00,0.0072
760.00,0.0073
759.00,0.0074
758.00,0.0074
757.00,0.0073
756.00,0.0072
755.00,0.0072
754.00,0.0072
753.00,0.0073
752.00,0.0074
751.00,0.0075
750.00,0.0076
749.00,0.0077
748.00,0.0077
747.00,0.0077
746.00,0.0077
745.00,0.0078
744.00,0.0079
743.00,0.0080
742.00,0.0082
741.00,0.0084
740.00,0.0086
739.00,0.0089
738.00,0.0092
737.00,0.0094
736.00,0.0097
735.00,0.0101
734.00,0.0106
733.00,0.0112
732.00,0.0120
731.00,0.0127
730.00,0.0134
729.00,0.0139
728.00,0.0140
727.00,0.0140
726.00,0.0141
725.00,0.0143
724.00,0.0146
723.00,0.0152
722.00,0.0157
721.00,0.0161
720.00,0.0159
719.00,0.0152
718.00,0.0141
717.00,0.0128
716.00,0.0119
715.00,0.0112
714.00,0.0108
713.00,0.0105
712.00,0.0103
711.00,0.0102
710.00,0.0100
709.00,0.0097
708.00,0.0093
707.00,0.0090
706.00,0.0089
705.00,0.0088
704.00,0.0086
703.00,0.0084
702.00,0.0082
701.00,0.0080
700.00,0.0078
699.00,0.0076
698.00,0.0074
697.00,0.0073
696.00,0.0072
695.00,0.0072
694.00,0.0072
693.00,0.0072
692.00,0.0072
691.00,0.0071
690.00,0.0070
689.00,0.0070
688.00,0.0071
687.00,0.0072
686.00,0.0073
685.00,0.0073
684.00,0.0072
683.00,0.0072
682.00,0.0072
681.00,0.0073
680.00,0.0073
679.00,0.0072
678.00,0.0070
677.00,0.0068
676.00,0.0068
675.00,0.0069
674.00,0.0071
673.00,0.0073
672.00,0.0074
671.00,0.0075
670.00,0.0076
669.00,0.0078
668.00,0.0080
667.00,0.0080
666.00,0.0078
665.00,0.0074
664.00,0.0071
663.00,0.0070
662.00,0.0071
661.00,0.0072
660.00,0.0073
659.00,0.0073
658.00,0.0071
657.00,0.0069
656.00,0.0069
655.00,0.0069
654.00,0.0070
653.00,0.0071
652.00,0.0072
651.00,0.0073
650.00,0.0072
649.00,0.0069
648.00,0.0067
647.00,0.0065
646.00,0.0066
645.00,0.0068
644.00,0.0070
643.00,0.0071
642.00,0.0073
641.00,0.0073
640.00,0.0074
639.00,0.0074
638.00,0.0074
637.00,0.0074
636.00,0.0072
635.00,0.0072
634.00,0.0072
633.00,0.0073
632.00,0.0073
631.00,0.0073
630.00,0.0073
629.00,0.0072
628.00,0.0071
627.00,0.0068
626.00,0.0066
625.00,0.0067
624.00,0.0070
623.00,0.0075
622.00,0.0079
621.00,0.0080
620.00,0.0080
619.00,0.0078
618.00,0.0076
617.00,0.0073
616.00,0.0070
615.00,0.0068
614.00,0.0070
613.00,0.0071
612.00,0.0072
611.00,0.0071
610.00,0.0069
609.00,0.0066
608.00,0.0065
607.00,0.0064
606.00,0.0063
605.00,0.0063
604.00,0.0063
603.00,0.0065
602.00,0.0068
601.00,0.0071
600.00,0.0073
599.00,0.0074
598.00,0.0075
597.00,0.0075
596.00,0.0076
595.00,0.0077
594.00,0.0080
593.00,0.0081
592.00,0.0081
591.00,0.0079
590.00,0.0077
589.00,0.0077
588.00,0.0078
587.00,0.0079
586.00,0.0079
585.00,0.0078
584.00,0.0077
583.00,0.0078
582.00,0.0079
581.00,0.0081
580.00,0.0081
579.00,0.0081
578.00,0.0081
577.00,0.0081
576.00,0.0081
575.00,0.0081
574.00,0.0081
573.00,0.0081
572.00,0.0080
571.00,0.0080
570.00,0.0079
569.00,0.0078
568.00,0.0075
567.00,0.0071
566.00,0.0069
565.00,0.0069
564.00,0.0071
563.00,0.0073
562.00,0.0073
561.00,0.0071
560.00,0.0069
559.00,0.0069
558.00,0.0072
557.00,0.0075
556.00,0.0077
555.00,0.0076
554.00,0.0075
553.00,0.0075
552.00,0.0077
551.00,0.0079
550.00,0.0080
549.00,0.0080
548.00,0.0079
547.00,0.0079
546.00,0.0081
545.00,0.0085
544.00,0.0085
543.00,0.0082
542.00,0.0076
541.00,0.0073
540.00,0.0074
539.00,0.0078
538.00,0.0080
537.00,0.0080
536.00,0.0081
535.00,0.0084
534.00,0.0086
533.00,0.0087
532.00,0.0089
531.00,0.0091
530.00,0.0092
529.00,0.0091
528.00,0.0089
527.00,0.0089
526.00,0.0092
525.00,0.0096
524.00,0.0100
523.00,0.0101
522.00,0.0100
521.00,0.0097
520.00,0.0093
519.00,0.0091
518.00,0.0090
517.00,0.0088
516.00,0.0084
515.00,0.0082
514.00,0.0082
513.00,0.0083
512.00,0.0083
511.00,0.0080
510.00,0.0079
509.00,0.0078
508.00,0.0079
507.00,0.0079
506.00,0.0079
505.00,0.0078
504.00,0.0079
503.00,0.0080
502.00,0.0083
501.00,0.0084
500.00,0.0083
499.00,0.0078
498.00,0.0075
497.00,0.0076
496.00,0.0081
495.00,0.0090
494.00,0.0098
493.00,0.0102
492.00,0.0099
491.00,0.0093
490.00,0.0088
489.00,0.0086
488.00,0.0087
487.00,0.0088
486.00,0.0087
485.00,0.0085
484.00,0.0083
483.00,0.0085
482.00,0.0092
481.00,0.0101
480.00,0.0102
479.00,0.0093
478.00,0.0081
477.00,0.0074
476.00,0.0077
475.00,0.0085
474.00,0.0091
473.00,0.0091
472.00,0.0087
471.00,0.0084
470.00,0.0087
469.00,0.0093
468.00,0.0100
467.00,0.0102
466.00,0.0102
465.00,0.0104
464.00,0.0112
463.00,0.0129
462.00,0.0151
461.00,0.0172
460.00,0.0186
459.00,0.0187
458.00,0.0174
457.00,0.0151
456.00,0.0133
455.00,0.0133
454.00,0.0142
453.00,0.0150
452.00,0.0145
451.00,0.0131
450.00,0.0115
