Created as New Dataset,Sample 026 By Administrator Date Wednesday, September 10 2025
cm-1,A
4000.00,0.0009
3999.00,0.0009
3998.00,0.0009
3997.00,0.0009
3996.00,0.0009
3995.00,0.0008
3994.00,0.0008
3993.00,0.0008
3992.00,0.0009
3991.00,0.0009
3990.00,0.0009
3989.00,0.0009
3988.00,0.0009
3987.00,0.0009
3986.00,0.0009
3985.00,0.0009
3984.00,0.0009
3983.00,0.0008
3982.00,0.0008
3981.00,0.0008
3980.00,0.0007
3979.00,0.0007
3978.00,0.0008
3977.00,0.0008
3976.00,0.0008
3975.00,0.0008
3974.00,0.0008
3973.00,0.0008
3972.00,0.0008
3971.00,0.0008
3970.00,0.0008
3969.00,0.0008
3968.00,0.0008
3967.00,0.0008
3966.00,0.0008
3965.00,0.0008
3964.00,0.0008
3963.00,0.0008
3962.00,0.0008
3961.00,0.0008
3960.00,0.0008
3959.00,0.0008
3958.00,0.0008
3957.00,0.0008
3956.00,0.0008
3955.00,0.0008
3954.00,0.0008
3953.00,0.0008
3952.00,0.0008
3951.00,0.0008
3950.00,0.0007
3949.00,0.0007
3948.00,0.0007
3947.00,0.0007
3946.00,0.0007
3945.00,0.0007
3944.00,0.0006
3943.00,0.0006
3942.00,0.0007
3941.00,0.0007
3940.00,0.0008
3939.00,0.0008
3938.00,0.0008
3937.00,0.0007
3936.00,0.0007
3935.00,0.0006
3934.00,0.0006
3933.00,0.0007
3932.00,0.0007
3931.00,0.0007
3930.00,0.0007
3929.00,0.0007
3928.00,0.0007
3927.00,0.0007
3926.00,0.0007
3925.00,0.0007
3924.00,0.0007
3923.00,0.0007
3922.00,0.0007
3921.00,0.0007
3920.00,0.0007
3919.00,0.0007
3918.00,0.0007
3917.00,0.0007
3916.00,0.0007
3915.00,0.0007
3914.00,0.0007
3913.00,0.0007
3912.00,0.0008
3911.00,0.0008
3910.00,0.0007
3909.00,0.0007
3908.00,0.0007
3907.00,0.0007
3906.00,0.0007
3905.00,0.0007
3904.00,0.0007
3903.00,0.0007
3902.00,0.0008
3901.00,0.0008
3900.00,0.0007
3899.00,0.0007
3898.00,0.0007
3897.00,0.0007
3896.00,0.0007
3895.00,0.0006
3894.00,0.0006
3893.00,0.0006
3892.00,0.0006
3891.00,0.0007
3890.00,0.0007
3889.00,0.0007
3888.00,0.0007
3887.00,0.0006
3886.00,0.0006
3885.00,0.0006
3884.00,0.0006
3883.00,0.0006
3882.00,0.0006
3881.00,0.0006
3880.00,0.0007
3879.00,0.0007
3878.00,0.0007
3877.00,0.0006
3876.00,0.0006
3875.00,0.0006
3874.00,0.0006
3873.00,0.0007
3872.00,0.0007
3871.00,0.0007
3870.00,0.0007
3869.00,0.0007
3868.00,0.0008
3867.00,0.0007
3866.00,0.0007
3865.00,0.0006
3864.00,0.0006
3863.00,0.0006
3862.00,0.0006
3861.00,0.0006
3860.00,0.0006
3859.00,0.0007
3858.00,0.0007
3857.00,0.0008
3856.00,0.0008
3855.00,0.0007
3854.00,0.0007
3853.00,0.0007
3852.00,0.0007
3851.00,0.0007
3850.00,0.0007
3849.00,0.0006
3848.00,0.0006
3847.00,0.0006
3846.00,0.0006
3845.00,0.0006
3844.00,0.0006
3843.00,0.0006
3842.00,0.0007
3841.00,0.0007
3840.00,0.0007
3839.00,0.0007
3838.00,0.0008
3837.00,0.0008
3836.00,0.0008
3835.00,0.0008
3834.00,0.0007
3833.00,0.0007
3832.00,0.0007
3831.00,0.0007
3830.00,0.0007
3829.00,0.0007
3828.00,0.0006
3827.00,0.0006
3826.00,0.0006
3825.00,0.0007
3824.00,0.0007
3823.00,0.0007
3822.00,0.0006
3821.00,0.0007
3820.00,0.0007
3819.00,0.0007
3818.00,0.0007
3817.00,0.0007
3816.00,0.0007
3815.00,0.0008
3814.00,0.0008
3813.00,0.0007
3812.00,0.0007
3811.00,0.0007
3810.00,0.0007
3809.00,0.0007
3808.00,0.0006
3807.00,0.0006
3806.00,0.0006
3805.00,0.0006
3804.00,0.0006
3803.00,0.0006
3802.00,0.0007
3801.00,0.0008
3800.00,0.0008
3799.00,0.0008
3798.00,0.0008
3797.00,0.0007
3796.00,0.0007
3795.00,0.0007
3794.00,0.0006
3793.00,0.0006
3792.00,0.0006
3791.00,0.0006
3790.00,0.0006
3789.00,0.0006
3788.00,0.0007
3787.00,0.0007
3786.00,0.0007
3785.00,0.0007
3784.00,0.0007
3783.00,0.0007
3782.00,0.0007
3781.00,0.0007
3780.00,0.0007
3779.00,0.0007
3778.00,0.0006
3777.00,0.0006
3776.00,0.0006
3775.00,0.0006
3774.00,0.0006
3773.00,0.0007
3772.00,0.0007
3771.00,0.0007
3770.00,0.0007
3769.00,0.0007
3768.00,0.0007
3767.00,0.0007
3766.00,0.0007
3765.00,0.0008
3764.00,0.0008
3763.00,0.0008
3762.00,0.0008
3761.00,0.0008
3760.00,0.0008
3759.00,0.0008
3758.00,0.0008
3757.00,0.0007
3756.00,0.0007
3755.00,0.0007
3754.00,0.0007
3753.00,0.0007
3752.00,0.0007
3751.00,0.0007
3750.00,0.0008
3749.00,0.0009
3748.00,0.0009
3747.00,0.0009
3746.00,0.0008
3745.00,0.0008
3744.00,0.0008
3743.00,0.0008
3742.00,0.0007
3741.00,0.0006
3740.00,0.0006
3739.00,0.0006
3738.00,0.0006
3737.00,0.0006
3736.00,0.0006
3735.00,0.0006
3734.00,0.0006
3733.00,0.0006
3732.00,0.0006
3731.00,0.0007
3730.00,0.0007
3729.00,0.0006
3728.00,0.0006
3727.00,0.0006
3726.00,0.0006
3725.00,0.0005
3724.00,0.0005
3723.00,0.0005
3722.00,0.0005
3721.00,0.0005
3720.00,0.0006
3719.00,0.0006
3718.00,0.0006
3717.00,0.0006
3716.00,0.0006
3715.00,0.0005
3714.00,0.0005
3713.00,0.0005
3712.00,0.0005
3711.00,0.0006
3710.00,0.0006
3709.00,0.0006
3708.00,0.0005
3707.00,0.0004
3706.00,0.0004
3705.00,0.0004
3704.00,0.0004
3703.00,0.0005
3702.00,0.0006
3701.00,0.0006
3700.00,0.0006
3699.00,0.0006
3698.00,0.0006
3697.00,0.0005
3696.00,0.0005
3695.00,0.0005
3694.00,0.0004
3693.00,0.0004
3692.00,0.0004
3691.00,0.0004
3690.00,0.0004
3689.00,0.0004
3688.00,0.0005
3687.00,0.0005
3686.00,0.0004
3685.00,0.0004
3684.00,0.0004
3683.00,0.0005
3682.00,0.0005
3681.00,0.0006
3680.00,0.0006
3679.00,0.0007
3678.00,0.0006
3677.00,0.0006
3676.00,0.0006
3675.00,0.0006
3674.00,0.0006
3673.00,0.0006
3672.00,0.0005
3671.00,0.0005
3670.00,0.0005
3669.00,0.0005
3668.00,0.0005
3667.00,0.0005
3666.00,0.0005
3665.00,0.0005
3664.00,0.0005
3663.00,0.0005
3662.00,0.0006
3661.00,0.0006
3660.00,0.0006
3659.00,0.0006
3658.00,0.0006
3657.00,0.0006
3656.00,0.0006
3655.00,0.0006
3654.00,0.0006
3653.00,0.0005
3652.00,0.0005
3651.00,0.0005
3650.00,0.0006
3649.00,0.0006
3648.00,0.0005
3647.00,0.0005
3646.00,0.0005
3645.00,0.0005
3644.00,0.0006
3643.00,0.0006
3642.00,0.0006
3641.00,0.0006
3640.00,0.0006
3639.00,0.0006
3638.00,0.0006
3637.00,0.0006
3636.00,0.0006
3635.00,0.0006
3634.00,0.0007
3633.00,0.0007
3632.00,0.0007
3631.00,0.0006
3630.00,0.0006
3629.00,0.0006
3628.00,0.0007
3627.00,0.0008
3626.00,0.0009
3625.00,0.0009
3624.00,0.0009
3623.00,0.0009
3622.00,0.0009
3621.00,0.0009
3620.00,0.0009
3619.00,0.0009
3618.00,0.0009
3617.00,0.0009
3616.00,0.0009
3615.00,0.0009
3614.00,0.0010
3613.00,0.0010
3612.00,0.0011
3611.00,0.0011
3610.00,0.0011
3609.00,0.0011
3608.00,0.0010
3607.00,0.0010
3606.00,0.0009
3605.00,0.0010
3604.00,0.0010
3603.00,0.0010
3602.00,0.0011
3601.00,0.0011
3600.00,0.0011
3599.00,0.0012
3598.00,0.0012
3597.00,0.0012
3596.00,0.0012
3595.00,0.0012
3594.00,0.0012
3593.00,0.0012
3592.00,0.0012
3591.00,0.0013
3590.00,0.0013
3589.00,0.0013
3588.00,0.0014
3587.00,0.0014
3586.00,0.0015
3585.00,0.0015
3584.00,0.0015
3583.00,0.0015
3582.00,0.0014
3581.00,0.0014
3580.00,0.0014
3579.00,0.0014
3578.00,0.0015
3577.00,0.0015
3576.00,0.0016
3575.00,0.0016
3574.00,0.0016
3573.00,0.0016
3572.00,0.0016
3571.00,0.0016
3570.00,0.0017
3569.00,0.0017
3568.00,0.0016
3567.00,0.0016
3566.00,0.0017
3565.00,0.0017
3564.00,0.0017
3563.00,0.0018
3562.00,0.0019
3561.00,0.0019
3560.00,0.0019
3559.00,0.0019
3558.00,0.0020
3557.00,0.0020
3556.00,0.0020
3555.00,0.0021
3554.00,0.0021
3553.00,0.0022
3552.00,0.0022
3551.00,0.0022
3550.00,0.0022
3549.00,0.0022
3548.00,0.0022
3547.00,0.0023
3546.00,0.0023
3545.00,0.0024
3544.00,0.0024
3543.00,0.0024
3542.00,0.0023
3541.00,0.0023
3540.00,0.0024
3539.00,0.0024
3538.00,0.0025
3537.00,0.0026
3536.00,0.0026
3535.00,0.0027
3534.00,0.0027
3533.00,0.0027
3532.00,0.0027
3531.00,0.0027
3530.00,0.0027
3529.00,0.0027
3528.00,0.0027
3527.00,0.0028
3526.00,0.0028
3525.00,0.0029
3524.00,0.0029
3523.00,0.0029
3522.00,0.0029
3521.00,0.0029
3520.00,0.0029
3519.00,0.0030
3518.00,0.0030
3517.00,0.0031
3516.00,0.0031
3515.00,0.0032
3514.00,0.0032
3513.00,0.0032
3512.00,0.0033
3511.00,0.0033
3510.00,0.0033
3509.00,0.0033
3508.00,0.0033
3507.00,0.0033
3506.00,0.0033
3505.00,0.0033
3504.00,0.0034
3503.00,0.0034
3502.00,0.0035
3501.00,0.0035
3500.00,0.0035
3499.00,0.0035
3498.00,0.0035
3497.00,0.0035
3496.00,0.0035
3495.00,0.0035
3494.00,0.0036
3493.00,0.0036
3492.00,0.0036
3491.00,0.0036
3490.00,0.0037
3489.00,0.0037
3488.00,0.0038
3487.00,0.0038
3486.00,0.0039
3485.00,0.0039
3484.00,0.0039
3483.00,0.0040
3482.00,0.0040
3481.00,0.0041
3480.00,0.0041
3479.00,0.0041
3478.00,0.0041
3477.00,0.0040
3476.00,0.0040
3475.00,0.0041
3474.00,0.0041
3473.00,0.0041
3472.00,0.0042
3471.00,0.0042
3470.00,0.0043
3469.00,0.0043
3468.00,0.0043
3467.00,0.0043
3466.00,0.0044
3465.00,0.0044
3464.00,0.0045
3463.00,0.0045
3462.00,0.0045
3461.00,0.0045
3460.00,0.0045
3459.00,0.0045
3458.00,0.0045
3457.00,0.0046
3456.00,0.0046
3455.00,0.0046
3454.00,0.0047
3453.00,0.0047
3452.00,0.0047
3451.00,0.0047
3450.00,0.0047
3449.00,0.0048
3448.00,0.0048
3447.00,0.0048
3446.00,0.0049
3445.00,0.0049
3444.00,0.0049
3443.00,0.0050
3442.00,0.0050
3441.00,0.0050
3440.00,0.0051
3439.00,0.0051
3438.00,0.0051
3437.00,0.0051
3436.00,0.0051
3435.00,0.0051
3434.00,0.0051
3433.00,0.0051
3432.00,0.0052
3431.00,0.0052
3430.00,0.0053
3429.00,0.0053
3428.00,0.0054
3427.00,0.0055
3426.00,0.0056
3425.00,0.0056
3424.00,0.0056
3423.00,0.0056
3422.00,0.0056
3421.00,0.0056
3420.00,0.0056
3419.00,0.0057
3418.00,0.0057
3417.00,0.0057
3416.00,0.0058
3415.00,0.0058
3414.00,0.0058
3413.00,0.0059
3412.00,0.0059
3411.00,0.0060
3410.00,0.0060
3409.00,0.0061
3408.00,0.0061
3407.00,0.0062
3406.00,0.0063
3405.00,0.0064
3404.00,0.0064
3403.00,0.0065
3402.00,0.0066
3401.00,0.0066
3400.00,0.0067
3399.00,0.0067
3398.00,0.0068
3397.00,0.0068
3396.00,0.0069
3395.00,0.0069
3394.00,0.0070
3393.00,0.0070
3392.00,0.0069
3391.00,0.0069
3390.00,0.0068
3389.00,0.0067
3388.00,0.0067
3387.00,0.0066
3386.00,0.0066
3385.00,0.0065
3384.00,0.0065
3383.00,0.0064
3382.00,0.0064
3381.00,0.0064
3380.00,0.0064
3379.00,0.0064
3378.00,0.0065
3377.00,0.0065
3376.00,0.0065
3375.00,0.0065
3374.00,0.0064
3373.00,0.0064
3372.00,0.0063
3371.00,0.0063
3370.00,0.0062
3369.00,0.0062
3368.00,0.0062
3367.00,0.0062
3366.00,0.0062
3365.00,0.0062
3364.00,0.0063
3363.00,0.0063
3362.00,0.0063
3361.00,0.0063
3360.00,0.0064
3359.00,0.0064
3358.00,0.0064
3357.00,0.0064
3356.00,0.0064
3355.00,0.0064
3354.00,0.0064
3353.00,0.0064
3352.00,0.0064
3351.00,0.0064
3350.00,0.0064
3349.00,0.0064
3348.00,0.0065
3347.00,0.0065
3346.00,0.0065
3345.00,0.0065
3344.00,0.0064
3343.00,0.0064
3342.00,0.0063
3341.00,0.0063
3340.00,0.0063
3339.00,0.0062
3338.00,0.0062
3337.00,0.0062
3336.00,0.0062
3335.00,0.0062
3334.00,0.0062
3333.00,0.0062
3332.00,0.0062
3331.00,0.0062
3330.00,0.0062
3329.00,0.0062
3328.00,0.0062
3327.00,0.0062
3326.00,0.0062
3325.00,0.0062
3324.00,0.0062
3323.00,0.0062
3322.00,0.0061
3321.00,0.0061
3320.00,0.0061
3319.00,0.0062
3318.00,0.0062
3317.00,0.0062
3316.00,0.0063
3315.00,0.0063
3314.00,0.0063
3313.00,0.0062
3312.00,0.0062
3311.00,0.0062
3310.00,0.0062
3309.00,0.0061
3308.00,0.0061
3307.00,0.0061
3306.00,0.0062
3305.00,0.0062
3304.00,0.0062
3303.00,0.0062
3302.00,0.0062
3301.00,0.0061
3300.00,0.0061
3299.00,0.0061
3298.00,0.0061
3297.00,0.0061
3296.00,0.0061
3295.00,0.0061
3294.00,0.0060
3293.00,0.0060
3292.00,0.0059
3291.00,0.0059
3290.00,0.0059
3289.00,0.0059
3288.00,0.0059
3287.00,0.0060
3286.00,0.0060
3285.00,0.0059
3284.00,0.0059
3283.00,0.0058
3282.00,0.0058
3281.00,0.0058
3280.00,0.0058
3279.00,0.0058
3278.00,0.0057
3277.00,0.0057
3276.00,0.0057
3275.00,0.0056
3274.00,0.0056
3273.00,0.0056
3272.00,0.0056
3271.00,0.0056
3270.00,0.0056
3269.00,0.0056
3268.00,0.0056
3267.00,0.0056
3266.00,0.0056
3265.00,0.0055
3264.00,0.0055
3263.00,0.0055
3262.00,0.0055
3261.00,0.0055
3260.00,0.0055
3259.00,0.0055
3258.00,0.0054
3257.00,0.0054
3256.00,0.0054
3255.00,0.0054
3254.00,0.0053
3253.00,0.0053
3252.00,0.0053
3251.00,0.0053
3250.00,0.0052
3249.00,0.0052
3248.00,0.0052
3247.00,0.0052
3246.00,0.0052
3245.00,0.0052
3244.00,0.0052
3243.00,0.0051
3242.00,0.0051
3241.00,0.0051
3240.00,0.0051
3239.00,0.0051
3238.00,0.0051
3237.00,0.0051
3236.00,0.0051
3235.00,0.0051
3234.00,0.0051
3233.00,0.0051
3232.00,0.0052
3231.00,0.0052
3230.00,0.0053
3229.00,0.0053
3228.00,0.0053
3227.00,0.0053
3226.00,0.0054
3225.00,0.0054
3224.00,0.0054
3223.00,0.0054
3222.00,0.0054
3221.00,0.0055
3220.00,0.0055
3219.00,0.0056
3218.00,0.0056
3217.00,0.0056
3216.00,0.0057
3215.00,0.0057
3214.00,0.0057
3213.00,0.0057
3212.00,0.0057
3211.00,0.0057
3210.00,0.0058
3209.00,0.0059
3208.00,0.0059
3207.00,0.0059
3206.00,0.0059
3205.00,0.0059
3204.00,0.0059
3203.00,0.0059
3202.00,0.0059
3201.00,0.0059
3200.00,0.0060
3199.00,0.0060
3198.00,0.0060
3197.00,0.0060
3196.00,0.0060
3195.00,0.0061
3194.00,0.0061
3193.00,0.0061
3192.00,0.0060
3191.00,0.0060
3190.00,0.0060
3189.00,0.0060
3188.00,0.0060
3187.00,0.0060
3186.00,0.0060
3185.00,0.0060
3184.00,0.0060
3183.00,0.0059
3182.00,0.0059
3181.00,0.0059
3180.00,0.0058
3179.00,0.0058
3178.00,0.0057
3177.00,0.0057
3176.00,0.0056
3175.00,0.0056
3174.00,0.0056
3173.00,0.0055
3172.00,0.0055
3171.00,0.0054
3170.00,0.0054
3169.00,0.0053
3168.00,0.0053
3167.00,0.0053
3166.00,0.0052
3165.00,0.0052
3164.00,0.0051
3163.00,0.0051
3162.00,0.0050
3161.00,0.0050
3160.00,0.0049
3159.00,0.0049
3158.00,0.0049
3157.00,0.0048
3156.00,0.0048
3155.00,0.0048
3154.00,0.0048
3153.00,0.0048
3152.00,0.0048
3151.00,0.0049
3150.00,0.0049
3149.00,0.0049
3148.00,0.0049
3147.00,0.0049
3146.00,0.0049
3145.00,0.0048
3144.00,0.0048
3143.00,0.0048
3142.00,0.0048
3141.00,0.0047
3140.00,0.0047
3139.00,0.0047
3138.00,0.0046
3137.00,0.0046
3136.00,0.0046
3135.00,0.0046
3134.00,0.0045
3133.00,0.0045
3132.00,0.0044
3131.00,0.0044
3130.00,0.0043
3129.00,0.0042
3128.00,0.0042
3127.00,0.0042
3126.00,0.0042
3125.00,0.0042
3124.00,0.0041
3123.00,0.0041
3122.00,0.0040
3121.00,0.0040
3120.00,0.0040
3119.00,0.0040
3118.00,0.0040
3117.00,0.0040
3116.00,0.0040
3115.00,0.0040
3114.00,0.0040
3113.00,0.0039
3112.00,0.0039
3111.00,0.0039
3110.00,0.0038
3109.00,0.0038
3108.00,0.0038
3107.00,0.0038
3106.00,0.0038
3105.00,0.0038
3104.00,0.0038
3103.00,0.0038
3102.00,0.0037
3101.00,0.0037
3100.00,0.0037
3099.00,0.0036
3098.00,0.0036
3097.00,0.0036
3096.00,0.0036
3095.00,0.0036
3094.00,0.0036
3093.00,0.0036
3092.00,0.0036
3091.00,0.0036
3090.00,0.0036
3089.00,0.0036
3088.00,0.0035
3087.00,0.0035
3086.00,0.0035
3085.00,0.0035
3084.00,0.0035
3083.00,0.0035
3082.00,0.0035
3081.00,0.0035
3080.00,0.0035
3079.00,0.0035
3078.00,0.0035
3077.00,0.0035
3076.00,0.0035
3075.00,0.0035
3074.00,0.0034
3073.00,0.0034
3072.00,0.0034
3071.00,0.0035
3070.00,0.0035
3069.00,0.0036
3068.00,0.0036
3067.00,0.0036
3066.00,0.0036
3065.00,0.0037
3064.00,0.0037
3063.00,0.0037
3062.00,0.0037
3061.00,0.0037
3060.00,0.0036
3059.00,0.0036
3058.00,0.0036
3057.00,0.0036
3056.00,0.0036
3055.00,0.0036
3054.00,0.0037
3053.00,0.0037
3052.00,0.0038
3051.00,0.0038
3050.00,0.0038
3049.00,0.0038
3048.00,0.0038
3047.00,0.0038
3046.00,0.0038
3045.00,0.0038
3044.00,0.0039
3043.00,0.0039
3042.00,0.0039
3041.00,0.0039
3040.00,0.0039
3039.00,0.0039
3038.00,0.0039
3037.00,0.0040
3036.00,0.0040
3035.00,0.0041
3034.00,0.0041
3033.00,0.0041
3032.00,0.0042
3031.00,0.0042
3030.00,0.0043
3029.00,0.0043
3028.00,0.0044
3027.00,0.0044
3026.00,0.0045
3025.00,0.0046
3024.00,0.0047
3023.00,0.0047
3022.00,0.0048
3021.00,0.0048
3020.00,0.0049
3019.00,0.0050
3018.00,0.0051
3017.00,0.0052
3016.00,0.0053
3015.00,0.0054
3014.00,0.0055
3013.00,0.0056
3012.00,0.0057
3011.00,0.0058
3010.00,0.0060
3009.00,0.0061
3008.00,0.0063
3007.00,0.0064
3006.00,0.0065
3005.00,0.0066
3004.00,0.0068
3003.00,0.0070
3002.00,0.0072
3001.00,0.0074
3000.00,0.0077
2999.00,0.0079
2998.00,0.0082
2997.00,0.0085
2996.00,0.0088
2995.00,0.0092
2994.00,0.0097
2993.00,0.0102
2992.00,0.0108
2991.00,0.0114
2990.00,0.0121
2989.00,0.0128
2988.00,0.0136
2987.00,0.0145
2986.00,0.0155
2985.00,0.0166
2984.00,0.0179
2983.00,0.0193
2982.00,0.0209
2981.00,0.0228
2980.00,0.0249
2979.00,0.0274
2978.00,0.0302
2977.00,0.0334
2976.00,0.0370
2975.00,0.0411
2974.00,0.0457
2973.00,0.0510
2972.00,0.0570
2971.00,0.0637
2970.00,0.0713
2969.00,0.0798
2968.00,0.0891
2967.00,0.0993
2966.00,0.1104
2965.00,0.1220
2964.00,0.1340
2963.00,0.1461
2962.00,0.1576
2961.00,0.1680
2960.00,0.1769
2959.00,0.1838
2958.00,0.1889
2957.00,0.1922
2956.00,0.1944
2955.00,0.1961
2954.00,0.1977
2953.00,0.1992
2952.00,0.2003
2951.00,0.2003
2950.00,0.1986
2949.00,0.1942
2948.00,0.1869
2947.00,0.1768
2946.00,0.1647
2945.00,0.1517
2944.00,0.1391
2943.00,0.1278
2942.00,0.1186
2941.00,0.1119
2940.00,0.1077
2939.00,0.1057
2938.00,0.1059
2937.00,0.1078
2936.00,0.1114
2935.00,0.1164
2934.00,0.1226
2933.00,0.1300
2932.00,0.1383
2931.00,0.1473
2930.00,0.1567
2929.00,0.1662
2928.00,0.1756
2927.00,0.1845
2926.00,0.1929
2925.00,0.2007
2924.00,0.2082
2923.00,0.2153
2922.00,0.2221
2921.00,0.2285
2920.00,0.2341
2919.00,0.2383
2918.00,0.2406
2917.00,0.2406
2916.00,0.2381
2915.00,0.2335
2914.00,0.2272
2913.00,0.2201
2912.00,0.2128
2911.00,0.2059
2910.00,0.1996
2909.00,0.1939
2908.00,0.1884
2907.00,0.1831
2906.00,0.1776
2905.00,0.1717
2904.00,0.1654
2903.00,0.1588
2902.00,0.1519
2901.00,0.1451
2900.00,0.1383
2899.00,0.1318
2898.00,0.1258
2897.00,0.1203
2896.00,0.1155
2895.00,0.1114
2894.00,0.1079
2893.00,0.1052
2892.00,0.1031
2891.00,0.1017
2890.00,0.1008
2889.00,0.1005
2888.00,0.1006
2887.00,0.1010
2886.00,0.1019
2885.00,0.1030
2884.00,0.1045
2883.00,0.1065
2882.00,0.1088
2881.00,0.1113
2880.00,0.1137
2879.00,0.1157
2878.00,0.1170
2877.00,0.1174
2876.00,0.1170
2875.00,0.1162
2874.00,0.1154
2873.00,0.1150
2872.00,0.1153
2871.00,0.1164
2870.00,0.1179
2869.00,0.1195
2868.00,0.1205
2867.00,0.1200
2866.00,0.1175
2865.00,0.1128
2864.00,0.1059
2863.00,0.0978
2862.00,0.0894
2861.00,0.0814
2860.00,0.0745
2859.00,0.0690
2858.00,0.0649
2857.00,0.0621
2856.00,0.0603
2855.00,0.0594
2854.00,0.0593
2853.00,0.0598
2852.00,0.0610
2851.00,0.0628
2850.00,0.0650
2849.00,0.0677
2848.00,0.0710
2847.00,0.0749
2846.00,0.0797
2845.00,0.0855
2844.00,0.0922
2843.00,0.0996
2842.00,0.1075
2841.00,0.1152
2840.00,0.1218
2839.00,0.1263
2838.00,0.1279
2837.00,0.1258
2836.00,0.1200
2835.00,0.1110
2834.00,0.1001
2833.00,0.0884
2832.00,0.0772
2831.00,0.0672
2830.00,0.0587
2829.00,0.0517
2828.00,0.0461
2827.00,0.0416
2826.00,0.0379
2825.00,0.0349
2824.00,0.0323
2823.00,0.0302
2822.00,0.0283
2821.00,0.0267
2820.00,0.0254
2819.00,0.0242
2818.00,0.0231
2817.00,0.0222
2816.00,0.0214
2815.00,0.0206
2814.00,0.0200
2813.00,0.0195
2812.00,0.0190
2811.00,0.0185
2810.00,0.0180
2809.00,0.0174
2808.00,0.0169
2807.00,0.0162
2806.00,0.0156
2805.00,0.0150
2804.00,0.0143
2803.00,0.0138
2802.00,0.0132
2801.00,0.0128
2800.00,0.0124
2799.00,0.0120
2798.00,0.0118
2797.00,0.0116
2796.00,0.0113
2795.00,0.0111
2794.00,0.0109
2793.00,0.0106
2792.00,0.0102
2791.00,0.0099
2790.00,0.0095
2789.00,0.0091
2788.00,0.0088
2787.00,0.0084
2786.00,0.0081
2785.00,0.0079
2784.00,0.0076
2783.00,0.0074
2782.00,0.0071
2781.00,0.0069
2780.00,0.0067
2779.00,0.0066
2778.00,0.0065
2777.00,0.0064
2776.00,0.0062
2775.00,0.0061
2774.00,0.0060
2773.00,0.0059
2772.00,0.0059
2771.00,0.0058
2770.00,0.0058
2769.00,0.0057
2768.00,0.0057
2767.00,0.0056
2766.00,0.0056
2765.00,0.0056
2764.00,0.0056
2763.00,0.0056
2762.00,0.0055
2761.00,0.0055
2760.00,0.0055
2759.00,0.0054
2758.00,0.0054
2757.00,0.0053
2756.00,0.0053
2755.00,0.0052
2754.00,0.0052
2753.00,0.0052
2752.00,0.0052
2751.00,0.0052
2750.00,0.0052
2749.00,0.0052
2748.00,0.0053
2747.00,0.0053
2746.00,0.0053
2745.00,0.0054
2744.00,0.0055
2743.00,0.0056
2742.00,0.0057
2741.00,0.0058
2740.00,0.0059
2739.00,0.0060
2738.00,0.0061
2737.00,0.0062
2736.00,0.0063
2735.00,0.0065
2734.00,0.0066
2733.00,0.0068
2732.00,0.0070
2731.00,0.0072
2730.00,0.0074
2729.00,0.0076
2728.00,0.0079
2727.00,0.0082
2726.00,0.0085
2725.00,0.0087
2724.00,0.0089
2723.00,0.0089
2722.00,0.0088
2721.00,0.0086
2720.00,0.0083
2719.00,0.0080
2718.00,0.0076
2717.00,0.0073
2716.00,0.0070
2715.00,0.0068
2714.00,0.0065
2713.00,0.0064
2712.00,0.0062
2711.00,0.0060
2710.00,0.0058
2709.00,0.0056
2708.00,0.0054
2707.00,0.0053
2706.00,0.0052
2705.00,0.0051
2704.00,0.0050
2703.00,0.0049
2702.00,0.0048
2701.00,0.0048
2700.00,0.0047
2699.00,0.0046
2698.00,0.0046
2697.00,0.0045
2696.00,0.0045
2695.00,0.0046
2694.00,0.0046
2693.00,0.0046
2692.00,0.0046
2691.00,0.0046
2690.00,0.0046
2689.00,0.0046
2688.00,0.0046
2687.00,0.0046
2686.00,0.0046
2685.00,0.0046
2684.00,0.0046
2683.00,0.0046
2682.00,0.0046
2681.00,0.0046
2680.00,0.0046
2679.00,0.0046
2678.00,0.0046
2677.00,0.0046
2676.00,0.0046
2675.00,0.0046
2674.00,0.0046
2673.00,0.0046
2672.00,0.0046
2671.00,0.0045
2670.00,0.0045
2669.00,0.0045
2668.00,0.0045
2667.00,0.0045
2666.00,0.0046
2665.00,0.0046
2664.00,0.0047
2663.00,0.0047
2662.00,0.0047
2661.00,0.0047
2660.00,0.0048
2659.00,0.0048
2658.00,0.0048
2657.00,0.0047
2656.00,0.0046
2655.00,0.0046
2654.00,0.0045
2653.00,0.0044
2652.00,0.0044
2651.00,0.0043
2650.00,0.0043
2649.00,0.0043
2648.00,0.0043
2647.00,0.0043
2646.00,0.0042
2645.00,0.0042
2644.00,0.0041
2643.00,0.0041
2642.00,0.0041
2641.00,0.0040
2640.00,0.0039
2639.00,0.0039
2638.00,0.0038
2637.00,0.0038
2636.00,0.0038
2635.00,0.0038
2634.00,0.0037
2633.00,0.0037
2632.00,0.0038
2631.00,0.0038
2630.00,0.0038
2629.00,0.0038
2628.00,0.0039
2627.00,0.0039
2626.00,0.0039
2625.00,0.0040
2624.00,0.0040
2623.00,0.0040
2622.00,0.0040
2621.00,0.0041
2620.00,0.0041
2619.00,0.0041
2618.00,0.0041
2617.00,0.0041
2616.00,0.0041
2615.00,0.0041
2614.00,0.0040
2613.00,0.0039
2612.00,0.0039
2611.00,0.0038
2610.00,0.0037
2609.00,0.0037
2608.00,0.0036
2607.00,0.0035
2606.00,0.0034
2605.00,0.0033
2604.00,0.0032
2603.00,0.0032
2602.00,0.0032
2601.00,0.0032
2600.00,0.0032
2599.00,0.0032
2598.00,0.0032
2597.00,0.0032
2596.00,0.0032
2595.00,0.0032
2594.00,0.0032
2593.00,0.0033
2592.00,0.0033
2591.00,0.0034
2590.00,0.0035
2589.00,0.0035
2588.00,0.0036
2587.00,0.0036
2586.00,0.0037
2585.00,0.0037
2584.00,0.0037
2583.00,0.0037
2582.00,0.0037
2581.00,0.0037
2580.00,0.0037
2579.00,0.0037
2578.00,0.0037
2577.00,0.0036
2576.00,0.0036
2575.00,0.0034
2574.00,0.0033
2573.00,0.0031
2572.00,0.0030
2571.00,0.0029
2570.00,0.0029
2569.00,0.0028
2568.00,0.0028
2567.00,0.0027
2566.00,0.0026
2565.00,0.0026
2564.00,0.0026
2563.00,0.0025
2562.00,0.0025
2561.00,0.0024
2560.00,0.0024
2559.00,0.0024
2558.00,0.0024
2557.00,0.0023
2556.00,0.0023
2555.00,0.0023
2554.00,0.0022
2553.00,0.0021
2552.00,0.0020
2551.00,0.0019
2550.00,0.0019
2549.00,0.0019
2548.00,0.0019
2547.00,0.0019
2546.00,0.0019
2545.00,0.0019
2544.00,0.0020
2543.00,0.0019
2542.00,0.0019
2541.00,0.0018
2540.00,0.0017
2539.00,0.0016
2538.00,0.0016
2537.00,0.0016
2536.00,0.0016
2535.00,0.0016
2534.00,0.0016
2533.00,0.0016
2532.00,0.0016
2531.00,0.0016
2530.00,0.0016
2529.00,0.0015
2528.00,0.0015
2527.00,0.0014
2526.00,0.0014
2525.00,0.0014
2524.00,0.0014
2523.00,0.0014
2522.00,0.0013
2521.00,0.0013
2520.00,0.0012
2519.00,0.0012
2518.00,0.0013
2517.00,0.0013
2516.00,0.0013
2515.00,0.0013
2514.00,0.0012
2513.00,0.0011
2512.00,0.0010
2511.00,0.0009
2510.00,0.0009
2509.00,0.0009
2508.00,0.0010
2507.00,0.0010
2506.00,0.0011
2505.00,0.0012
2504.00,0.0011
2503.00,0.0011
2502.00,0.0010
2501.00,0.0010
2500.00,0.0010
2499.00,0.0010
2498.00,0.0011
2497.00,0.0011
2496.00,0.0010
2495.00,0.0010
2494.00,0.0010
2493.00,0.0010
2492.00,0.0010
2491.00,0.0010
2490.00,0.0010
2489.00,0.0010
2488.00,0.0010
2487.00,0.0010
2486.00,0.0010
2485.00,0.0010
2484.00,0.0011
2483.00,0.0011
2482.00,0.0012
2481.00,0.0012
2480.00,0.0011
2479.00,0.0011
2478.00,0.0010
2477.00,0.0010
2476.00,0.0009
2475.00,0.0009
2474.00,0.0009
2473.00,0.0009
2472.00,0.0010
2471.00,0.0010
2470.00,0.0009
2469.00,0.0009
2468.00,0.0009
2467.00,0.0010
2466.00,0.0010
2465.00,0.0010
2464.00,0.0010
2463.00,0.0009
2462.00,0.0009
2461.00,0.0010
2460.00,0.0010
2459.00,0.0010
2458.00,0.0010
2457.00,0.0010
2456.00,0.0009
2455.00,0.0009
2454.00,0.0009
2453.00,0.0010
2452.00,0.0011
2451.00,0.0011
2450.00,0.0011
2449.00,0.0011
2448.00,0.0010
2447.00,0.0010
2446.00,0.0010
2445.00,0.0010
2444.00,0.0011
2443.00,0.0011
2442.00,0.0012
2441.00,0.0012
2440.00,0.0012
2439.00,0.0012
2438.00,0.0012
2437.00,0.0012
2436.00,0.0013
2435.00,0.0013
2434.00,0.0013
2433.00,0.0013
2432.00,0.0013
2431.00,0.0013
2430.00,0.0013
2429.00,0.0013
2428.00,0.0013
2427.00,0.0013
2426.00,0.0013
2425.00,0.0013
2424.00,0.0013
2423.00,0.0013
2422.00,0.0013
2421.00,0.0013
2420.00,0.0012
2419.00,0.0012
2418.00,0.0012
2417.00,0.0012
2416.00,0.0012
2415.00,0.0011
2414.00,0.0011
2413.00,0.0011
2412.00,0.0011
2411.00,0.0011
2410.00,0.0010
2409.00,0.0010
2408.00,0.0009
2407.00,0.0009
2406.00,0.0009
2405.00,0.0010
2404.00,0.0011
2403.00,0.0011
2402.00,0.0011
2401.00,0.0010
2400.00,0.0009
2399.00,0.0009
2398.00,0.0009
2397.00,0.0009
2396.00,0.0009
2395.00,0.0009
2394.00,0.0009
2393.00,0.0009
2392.00,0.0009
2391.00,0.0009
2390.00,0.0009
2389.00,0.0009
2388.00,0.0009
2387.00,0.0008
2386.00,0.0008
2385.00,0.0008
2384.00,0.0008
2383.00,0.0008
2382.00,0.0008
2381.00,0.0008
2380.00,0.0008
2379.00,0.0008
2378.00,0.0007
2377.00,0.0007
2376.00,0.0007
2375.00,0.0007
2374.00,0.0007
2373.00,0.0008
2372.00,0.0008
2371.00,0.0007
2370.00,0.0007
2369.00,0.0007
2368.00,0.0008
2367.00,0.0008
2366.00,0.0008
2365.00,0.0008
2364.00,0.0008
2363.00,0.0008
2362.00,0.0007
2361.00,0.0007
2360.00,0.0007
2359.00,0.0008
2358.00,0.0008
2357.00,0.0008
2356.00,0.0008
2355.00,0.0007
2354.00,0.0006
2353.00,0.0006
2352.00,0.0006
2351.00,0.0008
2350.00,0.0008
2349.00,0.0008
2348.00,0.0007
2347.00,0.0006
2346.00,0.0007
2345.00,0.0008
2344.00,0.0009
2343.00,0.0010
2342.00,0.0010
2341.00,0.0010
2340.00,0.0010
2339.00,0.0010
2338.00,0.0010
2337.00,0.0010
2336.00,0.0010
2335.00,0.0011
2334.00,0.0011
2333.00,0.0011
2332.00,0.0011
2331.00,0.0011
2330.00,0.0010
2329.00,0.0010
2328.00,0.0012
2327.00,0.0014
2326.00,0.0018
2325.00,0.0022
2324.00,0.0023
2323.00,0.0022
2322.00,0.0020
2321.00,0.0018
2320.00,0.0017
2319.00,0.0017
2318.00,0.0017
2317.00,0.0016
2316.00,0.0015
2315.00,0.0014
2314.00,0.0013
2313.00,0.0013
2312.00,0.0013
2311.00,0.0013
2310.00,0.0012
2309.00,0.0012
2308.00,0.0012
2307.00,0.0012
2306.00,0.0012
2305.00,0.0012
2304.00,0.0012
2303.00,0.0012
2302.00,0.0013
2301.00,0.0014
2300.00,0.0014
2299.00,0.0014
2298.00,0.0015
2297.00,0.0015
2296.00,0.0015
2295.00,0.0016
2294.00,0.0016
2293.00,0.0017
2292.00,0.0017
2291.00,0.0017
2290.00,0.0016
2289.00,0.0016
2288.00,0.0017
2287.00,0.0017
2286.00,0.0017
2285.00,0.0017
2284.00,0.0017
2283.00,0.0017
2282.00,0.0016
2281.00,0.0016
2280.00,0.0015
2279.00,0.0014
2278.00,0.0014
2277.00,0.0014
2276.00,0.0014
2275.00,0.0014
2274.00,0.0014
2273.00,0.0014
2272.00,0.0014
2271.00,0.0012
2270.00,0.0011
2269.00,0.0011
2268.00,0.0012
2267.00,0.0012
2266.00,0.0012
2265.00,0.0011
2264.00,0.0010
2263.00,0.0010
2262.00,0.0010
2261.00,0.0012
2260.00,0.0014
2259.00,0.0015
2258.00,0.0017
2257.00,0.0017
2256.00,0.0016
2255.00,0.0015
2254.00,0.0013
2253.00,0.0012
2252.00,0.0012
2251.00,0.0012
2250.00,0.0012
2249.00,0.0012
2248.00,0.0012
2247.00,0.0011
2246.00,0.0011
2245.00,0.0010
2244.00,0.0009
2243.00,0.0007
2242.00,0.0005
2241.00,0.0005
2240.00,0.0005
2239.00,0.0006
2238.00,0.0007
2237.00,0.0008
2236.00,0.0009
2235.00,0.0010
2234.00,0.0011
2233.00,0.0011
2232.00,0.0010
2231.00,0.0010
2230.00,0.0009
2229.00,0.0009
2228.00,0.0010
2227.00,0.0009
2226.00,0.0009
2225.00,0.0009
2224.00,0.0010
2223.00,0.0009
2222.00,0.0009
2221.00,0.0009
2220.00,0.0010
2219.00,0.0009
2218.00,0.0008
2217.00,0.0006
2216.00,0.0004
2215.00,0.0003
2214.00,0.0002
2213.00,0.0003
2212.00,0.0003
2211.00,0.0003
2210.00,0.0001
2209.00,0.0000
2208.00,0.0001
2207.00,0.0002
2206.00,0.0004
2205.00,0.0005
2204.00,0.0006
2203.00,0.0007
2202.00,0.0007
2201.00,0.0009
2200.00,0.0010
2199.00,0.0011
2198.00,0.0011
2197.00,0.0010
2196.00,0.0008
2195.00,0.0007
2194.00,0.0006
2193.00,0.0006
2192.00,0.0006
2191.00,0.0007
2190.00,0.0009
2189.00,0.0011
2188.00,0.0012
2187.00,0.0013
2186.00,0.0013
2185.00,0.0013
2184.00,0.0012
2183.00,0.0011
2182.00,0.0009
2181.00,0.0006
2180.00,0.0003
2179.00,0.0000
2178.00,-0.0001
2177.00,-0.0002
2176.00,-0.0002
2175.00,-0.0002
2174.00,-0.0001
2173.00,0.0002
2172.00,0.0004
2171.00,0.0007
2170.00,0.0011
2169.00,0.0015
2168.00,0.0020
2167.00,0.0023
2166.00,0.0023
2165.00,0.0019
2164.00,0.0015
2163.00,0.0012
2162.00,0.0012
2161.00,0.0010
2160.00,0.0004
2159.00,-0.0008
2158.00,-0.0020
2157.00,-0.0028
2156.00,-0.0030
2155.00,-0.0028
2154.00,-0.0025
2153.00,-0.0021
2152.00,-0.0018
2151.00,-0.0016
2150.00,-0.0015
2149.00,-0.0015
2148.00,-0.0015
2147.00,-0.0015
2146.00,-0.0016
2145.00,-0.0014
2144.00,-0.0012
2143.00,-0.0010
2142.00,-0.0009
2141.00,-0.0009
2140.00,-0.0010
2139.00,-0.0012
2138.00,-0.0013
2137.00,-0.0013
2136.00,-0.0013
2135.00,-0.0012
2134.00,-0.0012
2133.00,-0.0012
2132.00,-0.0012
2131.00,-0.0012
2130.00,-0.0011
2129.00,-0.0008
2128.00,-0.0006
2127.00,-0.0004
2126.00,-0.0003
2125.00,-0.0002
2124.00,-0.0002
2123.00,-0.0002
2122.00,-0.0002
2121.00,-0.0002
2120.00,-0.0002
2119.00,-0.0001
2118.00,-0.0001
2117.00,0.0000
2116.00,0.0001
2115.00,0.0002
2114.00,0.0002
2113.00,0.0002
2112.00,0.0002
2111.00,0.0002
2110.00,0.0003
2109.00,0.0003
2108.00,0.0004
2107.00,0.0004
2106.00,0.0003
2105.00,0.0003
2104.00,0.0002
2103.00,0.0001
2102.00,0.0002
2101.00,0.0003
2100.00,0.0003
2099.00,0.0002
2098.00,0.0000
2097.00,-0.0001
2096.00,-0.0002
2095.00,-0.0003
2094.00,-0.0003
2093.00,-0.0003
2092.00,-0.0001
2091.00,-0.0000
2090.00,0.0001
2089.00,0.0003
2088.00,0.0004
2087.00,0.0004
2086.00,0.0004
2085.00,0.0003
2084.00,0.0003
2083.00,0.0003
2082.00,0.0003
2081.00,0.0003
2080.00,0.0003
2079.00,0.0003
2078.00,0.0003
2077.00,0.0003
2076.00,0.0003
2075.00,0.0003
2074.00,0.0003
2073.00,0.0002
2072.00,0.0002
2071.00,0.0002
2070.00,0.0003
2069.00,0.0004
2068.00,0.0004
2067.00,0.0003
2066.00,0.0001
2065.00,0.0001
2064.00,0.0002
2063.00,0.0002
2062.00,0.0002
2061.00,0.0002
2060.00,0.0002
2059.00,0.0002
2058.00,0.0002
2057.00,0.0002
2056.00,0.0001
2055.00,0.0001
2054.00,0.0001
2053.00,0.0004
2052.00,0.0008
2051.00,0.0012
2050.00,0.0012
2049.00,0.0009
2048.00,0.0005
2047.00,0.0003
2046.00,0.0003
2045.00,0.0005
2044.00,0.0005
2043.00,0.0005
2042.00,0.0002
2041.00,-0.0000
2040.00,-0.0002
2039.00,-0.0003
2038.00,-0.0004
2037.00,-0.0003
2036.00,-0.0003
2035.00,-0.0003
2034.00,-0.0004
2033.00,-0.0006
2032.00,-0.0007
2031.00,-0.0006
2030.00,-0.0004
2029.00,-0.0002
2028.00,0.0000
2027.00,0.0002
2026.00,0.0002
2025.00,0.0000
2024.00,-0.0002
2023.00,-0.0005
2022.00,-0.0007
2021.00,-0.0008
2020.00,-0.0008
2019.00,-0.0010
2018.00,-0.0010
2017.00,-0.0008
2016.00,-0.0005
2015.00,-0.0003
2014.00,-0.0002
2013.00,-0.0003
2012.00,-0.0003
2011.00,-0.0004
2010.00,-0.0005
2009.00,-0.0008
2008.00,-0.0012
2007.00,-0.0016
2006.00,-0.0018
2005.00,-0.0016
2004.00,-0.0012
2003.00,-0.0008
2002.00,-0.0006
2001.00,-0.0007
2000.00,-0.0010
1999.00,-0.0013
1998.00,-0.0015
1997.00,-0.0014
1996.00,-0.0012
1995.00,-0.0010
1994.00,-0.0009
1993.00,-0.0008
1992.00,-0.0007
1991.00,-0.0006
1990.00,-0.0005
1989.00,-0.0004
1988.00,-0.0003
1987.00,-0.0002
1986.00,-0.0001
1985.00,0.0001
1984.00,0.0002
1983.00,0.0003
1982.00,0.0003
1981.00,0.0003
1980.00,0.0003
1979.00,0.0001
1978.00,-0.0002
1977.00,-0.0006
1976.00,-0.0008
1975.00,-0.0009
1974.00,-0.0009
1973.00,-0.0010
1972.00,-0.0010
1971.00,-0.0011
1970.00,-0.0011
1969.00,-0.0011
1968.00,-0.0012
1967.00,-0.0013
1966.00,-0.0013
1965.00,-0.0012
1964.00,-0.0013
1963.00,-0.0015
1962.00,-0.0016
1961.00,-0.0016
1960.00,-0.0015
1959.00,-0.0014
1958.00,-0.0014
1957.00,-0.0014
1956.00,-0.0015
1955.00,-0.0015
1954.00,-0.0016
1953.00,-0.0016
1952.00,-0.0017
1951.00,-0.0017
1950.00,-0.0018
1949.00,-0.0018
1948.00,-0.0017
1947.00,-0.0016
1946.00,-0.0016
1945.00,-0.0016
1944.00,-0.0016
1943.00,-0.0016
1942.00,-0.0015
1941.00,-0.0013
1940.00,-0.0011
1939.00,-0.0009
1938.00,-0.0008
1937.00,-0.0009
1936.00,-0.0009
1935.00,-0.0010
1934.00,-0.0011
1933.00,-0.0010
1932.00,-0.0009
1931.00,-0.0008
1930.00,-0.0007
1929.00,-0.0008
1928.00,-0.0008
1927.00,-0.0007
1926.00,-0.0005
1925.00,-0.0004
1924.00,-0.0004
1923.00,-0.0004
1922.00,-0.0005
1921.00,-0.0005
1920.00,-0.0005
1919.00,-0.0005
1918.00,-0.0004
1917.00,-0.0004
1916.00,-0.0002
1915.00,-0.0002
1914.00,-0.0001
1913.00,-0.0001
1912.00,-0.0001
1911.00,-0.0002
1910.00,-0.0003
1909.00,-0.0004
1908.00,-0.0005
1907.00,-0.0005
1906.00,-0.0005
1905.00,-0.0005
1904.00,-0.0004
1903.00,-0.0003
1902.00,-0.0002
1901.00,-0.0000
1900.00,0.0001
1899.00,0.0002
1898.00,0.0003
1897.00,0.0002
1896.00,0.0002
1895.00,0.0001
1894.00,0.0000
1893.00,0.0001
1892.00,0.0001
1891.00,0.0000
1890.00,-0.0001
1889.00,-0.0002
1888.00,-0.0002
1887.00,-0.0002
1886.00,-0.0002
1885.00,-0.0002
1884.00,-0.0002
1883.00,-0.0003
1882.00,-0.0002
1881.00,-0.0002
1880.00,-0.0001
1879.00,-0.0001
1878.00,-0.0001
1877.00,-0.0000
1876.00,0.0000
1875.00,0.0000
1874.00,-0.0000
1873.00,-0.0001
1872.00,-0.0002
1871.00,-0.0002
1870.00,-0.0002
1869.00,-0.0002
1868.00,-0.0001
1867.00,-0.0000
1866.00,0.0000
1865.00,0.0001
1864.00,0.0001
1863.00,0.0001
1862.00,0.0001
1861.00,0.0001
1860.00,0.0001
1859.00,0.0000
1858.00,-0.0000
1857.00,0.0000
1856.00,0.0000
1855.00,0.0000
1854.00,0.0000
1853.00,0.0000
1852.00,0.0000
1851.00,-0.0001
1850.00,-0.0001
1849.00,-0.0001
1848.00,-0.0000
1847.00,0.0000
1846.00,0.0001
1845.00,0.0002
1844.00,0.0003
1843.00,0.0003
1842.00,0.0003
1841.00,0.0003
1840.00,0.0003
1839.00,0.0004
1838.00,0.0004
1837.00,0.0004
1836.00,0.0004
1835.00,0.0003
1834.00,0.0003
1833.00,0.0003
1832.00,0.0004
1831.00,0.0005
1830.00,0.0005
1829.00,0.0005
1828.00,0.0005
1827.00,0.0005
1826.00,0.0006
1825.00,0.0006
1824.00,0.0005
1823.00,0.0004
1822.00,0.0004
1821.00,0.0003
1820.00,0.0003
1819.00,0.0002
1818.00,0.0001
1817.00,0.0001
1816.00,0.0000
1815.00,0.0001
1814.00,0.0001
1813.00,0.0002
1812.00,0.0002
1811.00,0.0002
1810.00,0.0002
1809.00,0.0003
1808.00,0.0004
1807.00,0.0005
1806.00,0.0006
1805.00,0.0006
1804.00,0.0006
1803.00,0.0006
1802.00,0.0006
1801.00,0.0005
1800.00,0.0005
1799.00,0.0005
1798.00,0.0004
1797.00,0.0005
1796.00,0.0005
1795.00,0.0005
1794.00,0.0006
1793.00,0.0006
1792.00,0.0007
1791.00,0.0007
1790.00,0.0007
1789.00,0.0007
1788.00,0.0007
1787.00,0.0007
1786.00,0.0007
1785.00,0.0007
1784.00,0.0007
1783.00,0.0007
1782.00,0.0007
1781.00,0.0008
1780.00,0.0009
1779.00,0.0009
1778.00,0.0010
1777.00,0.0010
1776.00,0.0009
1775.00,0.0008
1774.00,0.0008
1773.00,0.0008
1772.00,0.0009
1771.00,0.0009
1770.00,0.0010
1769.00,0.0011
1768.00,0.0011
1767.00,0.0011
1766.00,0.0011
1765.00,0.0010
1764.00,0.0010
1763.00,0.0011
1762.00,0.0011
1761.00,0.0012
1760.00,0.0012
1759.00,0.0012
1758.00,0.0013
1757.00,0.0014
1756.00,0.0015
1755.00,0.0015
1754.00,0.0015
1753.00,0.0016
1752.00,0.0017
1751.00,0.0018
1750.00,0.0018
1749.00,0.0018
1748.00,0.0018
1747.00,0.0018
1746.00,0.0018
1745.00,0.0019
1744.00,0.0019
1743.00,0.0020
1742.00,0.0020
1741.00,0.0021
1740.00,0.0021
1739.00,0.0021
1738.00,0.0021
1737.00,0.0020
1736.00,0.0020
1735.00,0.0021
1734.00,0.0021
1733.00,0.0022
1732.00,0.0022
1731.00,0.0022
1730.00,0.0022
1729.00,0.0022
1728.00,0.0022
1727.00,0.0022
1726.00,0.0022
1725.00,0.0022
1724.00,0.0022
1723.00,0.0022
1722.00,0.0022
1721.00,0.0022
1720.00,0.0022
1719.00,0.0022
1718.00,0.0022
1717.00,0.0022
1716.00,0.0023
1715.00,0.0023
1714.00,0.0023
1713.00,0.0023
1712.00,0.0023
1711.00,0.0023
1710.00,0.0024
1709.00,0.0024
1708.00,0.0025
1707.00,0.0025
1706.00,0.0026
1705.00,0.0027
1704.00,0.0027
1703.00,0.0027
1702.00,0.0027
1701.00,0.0028
1700.00,0.0028
1699.00,0.0028
1698.00,0.0028
1697.00,0.0029
1696.00,0.0031
1695.00,0.0033
1694.00,0.0033
1693.00,0.0033
1692.00,0.0034
1691.00,0.0036
1690.00,0.0037
1689.00,0.0038
1688.00,0.0038
1687.00,0.0039
1686.00,0.0039
1685.00,0.0040
1684.00,0.0042
1683.00,0.0043
1682.00,0.0044
1681.00,0.0045
1680.00,0.0046
1679.00,0.0047
1678.00,0.0047
1677.00,0.0048
1676.00,0.0050
1675.00,0.0051
1674.00,0.0052
1673.00,0.0053
1672.00,0.0053
1671.00,0.0054
1670.00,0.0055
1669.00,0.0056
1668.00,0.0057
1667.00,0.0058
1666.00,0.0058
1665.00,0.0059
1664.00,0.0059
1663.00,0.0061
1662.00,0.0062
1661.00,0.0064
1660.00,0.0065
1659.00,0.0066
1658.00,0.0066
1657.00,0.0067
1656.00,0.0068
1655.00,0.0069
1654.00,0.0072
1653.00,0.0076
1652.00,0.0080
1651.00,0.0082
1650.00,0.0084
1649.00,0.0086
1648.00,0.0091
1647.00,0.0095
1646.00,0.0098
1645.00,0.0098
1644.00,0.0097
1643.00,0.0094
1642.00,0.0091
1641.00,0.0089
1640.00,0.0086
1639.00,0.0084
1638.00,0.0083
1637.00,0.0082
1636.00,0.0082
1635.00,0.0082
1634.00,0.0082
1633.00,0.0082
1632.00,0.0082
1631.00,0.0082
1630.00,0.0081
1629.00,0.0081
1628.00,0.0080
1627.00,0.0080
1626.00,0.0079
1625.00,0.0078
1624.00,0.0077
1623.00,0.0076
1622.00,0.0074
1621.00,0.0073
1620.00,0.0072
1619.00,0.0072
1618.00,0.0072
1617.00,0.0072
1616.00,0.0072
1615.00,0.0072
1614.00,0.0071
1613.00,0.0071
1612.00,0.0072
1611.00,0.0072
1610.00,0.0071
1609.00,0.0071
1608.00,0.0070
1607.00,0.0070
1606.00,0.0070
1605.00,0.0070
1604.00,0.0071
1603.00,0.0071
1602.00,0.0070
1601.00,0.0070
1600.00,0.0069
1599.00,0.0069
1598.00,0.0068
1597.00,0.0068
1596.00,0.0069
1595.00,0.0069
1594.00,0.0069
1593.00,0.0069
1592.00,0.0069
1591.00,0.0069
1590.00,0.0069
1589.00,0.0069
1588.00,0.0070
1587.00,0.0071
1586.00,0.0072
1585.00,0.0074
1584.00,0.0075
1583.00,0.0077
1582.00,0.0078
1581.00,0.0080
1580.00,0.0082
1579.00,0.0083
1578.00,0.0084
1577.00,0.0084
1576.00,0.0084
1575.00,0.0083
1574.00,0.0081
1573.00,0.0080
1572.00,0.0078
1571.00,0.0077
1570.00,0.0075
1569.00,0.0074
1568.00,0.0073
1567.00,0.0073
1566.00,0.0072
1565.00,0.0071
1564.00,0.0071
1563.00,0.0072
1562.00,0.0072
1561.00,0.0073
1560.00,0.0074
1559.00,0.0073
1558.00,0.0073
1557.00,0.0074
1556.00,0.0075
1555.00,0.0076
1554.00,0.0078
1553.00,0.0079
1552.00,0.0080
1551.00,0.0081
1550.00,0.0082
1549.00,0.0083
1548.00,0.0085
1547.00,0.0086
1546.00,0.0089
1545.00,0.0091
1544.00,0.0094
1543.00,0.0095
1542.00,0.0095
1541.00,0.0095
1540.00,0.0094
1539.00,0.0092
1538.00,0.0090
1537.00,0.0089
1536.00,0.0087
1535.00,0.0086
1534.00,0.0083
1533.00,0.0080
1532.00,0.0077
1531.00,0.0074
1530.00,0.0072
1529.00,0.0071
1528.00,0.0070
1527.00,0.0069
1526.00,0.0067
1525.00,0.0066
1524.00,0.0066
1523.00,0.0066
1522.00,0.0065
1521.00,0.0065
1520.00,0.0066
1519.00,0.0065
1518.00,0.0065
1517.00,0.0065
1516.00,0.0065
1515.00,0.0065
1514.00,0.0065
1513.00,0.0065
1512.00,0.0066
1511.00,0.0066
1510.00,0.0066
1509.00,0.0067
1508.00,0.0069
1507.00,0.0069
1506.00,0.0070
1505.00,0.0071
1504.00,0.0072
1503.00,0.0072
1502.00,0.0073
1501.00,0.0076
1500.00,0.0078
1499.00,0.0081
1498.00,0.0084
1497.00,0.0087
1496.00,0.0092
1495.00,0.0095
1494.00,0.0097
1493.00,0.0100
1492.00,0.0104
1491.00,0.0108
1490.00,0.0111
1489.00,0.0116
1488.00,0.0121
1487.00,0.0126
1486.00,0.0131
1485.00,0.0137
1484.00,0.0144
1483.00,0.0152
1482.00,0.0161
1481.00,0.0172
1480.00,0.0184
1479.00,0.0196
1478.00,0.0210
1477.00,0.0228
1476.00,0.0250
1475.00,0.0275
1474.00,0.0310
1473.00,0.0362
1472.00,0.0426
1471.00,0.0490
1470.00,0.0550
1469.00,0.0613
1468.00,0.0679
1467.00,0.0752
1466.00,0.0836
1465.00,0.0927
1464.00,0.1009
1463.00,0.1070
1462.00,0.1111
1461.00,0.1143
1460.00,0.1169
1459.00,0.1191
1458.00,0.1214
1457.00,0.1238
1456.00,0.1253
1455.00,0.1257
1454.00,0.1255
1453.00,0.1248
1452.00,0.1231
1451.00,0.1200
1450.00,0.1150
1449.00,0.1076
1448.00,0.0979
1447.00,0.0873
1446.00,0.0777
1445.00,0.0695
1444.00,0.0624
1443.00,0.0567
1442.00,0.0524
1441.00,0.0494
1440.00,0.0476
1439.00,0.0467
1438.00,0.0464
1437.00,0.0461
1436.00,0.0446
1435.00,0.0417
1434.00,0.0379
1433.00,0.0335
1432.00,0.0289
1431.00,0.0249
1430.00,0.0219
1429.00,0.0197
1428.00,0.0182
1427.00,0.0173
1426.00,0.0168
1425.00,0.0162
1424.00,0.0157
1423.00,0.0155
1422.00,0.0154
1421.00,0.0153
1420.00,0.0151
1419.00,0.0149
1418.00,0.0147
1417.00,0.0143
1416.00,0.0139
1415.00,0.0137
1414.00,0.0135
1413.00,0.0133
1412.00,0.0131
1411.00,0.0129
1410.00,0.0128
1409.00,0.0127
1408.00,0.0126
1407.00,0.0126
1406.00,0.0126
1405.00,0.0126
1404.00,0.0125
1403.00,0.0125
1402.00,0.0126
1401.00,0.0126
1400.00,0.0127
1399.00,0.0128
1398.00,0.0130
1397.00,0.0132
1396.00,0.0134
1395.00,0.0138
1394.00,0.0143
1393.00,0.0149
1392.00,0.0154
1391.00,0.0163
1390.00,0.0175
1389.00,0.0193
1388.00,0.0219
1387.00,0.0259
1386.00,0.0311
1385.00,0.0376
1384.00,0.0461
1383.00,0.0574
1382.00,0.0720
1381.00,0.0901
1380.00,0.1119
1379.00,0.1359
1378.00,0.1586
1377.00,0.1746
1376.00,0.1796
1375.00,0.1707
1374.00,0.1502
1373.00,0.1253
1372.00,0.1023
1371.00,0.0830
1370.00,0.0674
1369.00,0.0553
1368.00,0.0468
1367.00,0.0415
1366.00,0.0386
1365.00,0.0374
1364.00,0.0377
1363.00,0.0390
1362.00,0.0410
1361.00,0.0432
1360.00,0.0448
1359.00,0.0452
1358.00,0.0442
1357.00,0.0416
1356.00,0.0380
1355.00,0.0339
1354.00,0.0300
1353.00,0.0265
1352.00,0.0238
1351.00,0.0216
1350.00,0.0198
1349.00,0.0184
1348.00,0.0173
1347.00,0.0164
1346.00,0.0156
1345.00,0.0150
1344.00,0.0145
1343.00,0.0141
1342.00,0.0138
1341.00,0.0136
1340.00,0.0133
1339.00,0.0131
1338.00,0.0129
1337.00,0.0128
1336.00,0.0127
1335.00,0.0129
1334.00,0.0132
1333.00,0.0136
1332.00,0.0140
1331.00,0.0144
1330.00,0.0145
1329.00,0.0144
1328.00,0.0141
1327.00,0.0136
1326.00,0.0131
1325.00,0.0125
1324.00,0.0119
1323.00,0.0114
1322.00,0.0109
1321.00,0.0106
1320.00,0.0103
1319.00,0.0100
1318.00,0.0098
1317.00,0.0096
1316.00,0.0095
1315.00,0.0094
1314.00,0.0094
1313.00,0.0095
1312.00,0.0097
1311.00,0.0100
1310.00,0.0106
1309.00,0.0115
1308.00,0.0128
1307.00,0.0143
1306.00,0.0158
1305.00,0.0169
1304.00,0.0172
1303.00,0.0168
1302.00,0.0160
1301.00,0.0153
1300.00,0.0147
1299.00,0.0144
1298.00,0.0142
1297.00,0.0141
1296.00,0.0138
1295.00,0.0135
1294.00,0.0131
1293.00,0.0125
1292.00,0.0119
1291.00,0.0113
1290.00,0.0108
1289.00,0.0104
1288.00,0.0101
1287.00,0.0098
1286.00,0.0095
1285.00,0.0092
1284.00,0.0090
1283.00,0.0088
1282.00,0.0087
1281.00,0.0086
1280.00,0.0085
1279.00,0.0084
1278.00,0.0083
1277.00,0.0083
1276.00,0.0082
1275.00,0.0082
1274.00,0.0082
1273.00,0.0082
1272.00,0.0083
1271.00,0.0083
1270.00,0.0084
1269.00,0.0085
1268.00,0.0087
1267.00,0.0089
1266.00,0.0091
1265.00,0.0094
1264.00,0.0097
1263.00,0.0101
1262.00,0.0106
1261.00,0.0112
1260.00,0.0119
1259.00,0.0128
1258.00,0.0139
1257.00,0.0148
1256.00,0.0152
1255.00,0.0150
1254.00,0.0143
1253.00,0.0133
1252.00,0.0123
1251.00,0.0114
1250.00,0.0107
1249.00,0.0102
1248.00,0.0099
1247.00,0.0097
1246.00,0.0096
1245.00,0.0095
1244.00,0.0094
1243.00,0.0093
1242.00,0.0092
1241.00,0.0091
1240.00,0.0090
1239.00,0.0089
1238.00,0.0089
1237.00,0.0088
1236.00,0.0088
1235.00,0.0087
1234.00,0.0086
1233.00,0.0086
1232.00,0.0085
1231.00,0.0086
1230.00,0.0086
1229.00,0.0087
1228.00,0.0088
1227.00,0.0089
1226.00,0.0091
1225.00,0.0093
1224.00,0.0095
1223.00,0.0099
1222.00,0.0102
1221.00,0.0105
1220.00,0.0107
1219.00,0.0108
1218.00,0.0108
1217.00,0.0106
1216.00,0.0104
1215.00,0.0101
1214.00,0.0098
1213.00,0.0096
1212.00,0.0093
1211.00,0.0090
1210.00,0.0088
1209.00,0.0085
1208.00,0.0084
1207.00,0.0083
1206.00,0.0082
1205.00,0.0082
1204.00,0.0082
1203.00,0.0081
1202.00,0.0081
1201.00,0.0081
1200.00,0.0080
1199.00,0.0080
1198.00,0.0080
1197.00,0.0081
1196.00,0.0081
1195.00,0.0081
1194.00,0.0081
1193.00,0.0081
1192.00,0.0081
1191.00,0.0081
1190.00,0.0082
1189.00,0.0083
1188.00,0.0084
1187.00,0.0084
1186.00,0.0084
1185.00,0.0085
1184.00,0.0086
1183.00,0.0088
1182.00,0.0090
1181.00,0.0093
1180.00,0.0098
1179.00,0.0105
1178.00,0.0114
1177.00,0.0125
1176.00,0.0140
1175.00,0.0159
1174.00,0.0185
1173.00,0.0218
1172.00,0.0257
1171.00,0.0301
1170.00,0.0343
1169.00,0.0378
1168.00,0.0399
1167.00,0.0405
1166.00,0.0397
1165.00,0.0377
1164.00,0.0352
1163.00,0.0326
1162.00,0.0301
1161.00,0.0280
1160.00,0.0263
1159.00,0.0250
1158.00,0.0239
1157.00,0.0231
1156.00,0.0224
1155.00,0.0218
1154.00,0.0214
1153.00,0.0210
1152.00,0.0205
1151.00,0.0198
1150.00,0.0188
1149.00,0.0178
1148.00,0.0167
1147.00,0.0158
1146.00,0.0150
1145.00,0.0143
1144.00,0.0136
1143.00,0.0130
1142.00,0.0123
1141.00,0.0118
1140.00,0.0113
1139.00,0.0109
1138.00,0.0106
1137.00,0.0102
1136.00,0.0099
1135.00,0.0096
1134.00,0.0094
1133.00,0.0093
1132.00,0.0092
1131.00,0.0092
1130.00,0.0093
1129.00,0.0093
1128.00,0.0094
1127.00,0.0096
1126.00,0.0097
1125.00,0.0098
1124.00,0.0099
1123.00,0.0099
1122.00,0.0100
1121.00,0.0101
1120.00,0.0102
1119.00,0.0103
1118.00,0.0104
1117.00,0.0105
1116.00,0.0107
1115.00,0.0108
1114.00,0.0110
1113.00,0.0111
1112.00,0.0112
1111.00,0.0115
1110.00,0.0118
1109.00,0.0121
1108.00,0.0126
1107.00,0.0132
1106.00,0.0139
1105.00,0.0146
1104.00,0.0151
1103.00,0.0154
1102.00,0.0155
1101.00,0.0152
1100.00,0.0147
1099.00,0.0141
1098.00,0.0134
1097.00,0.0127
1096.00,0.0121
1095.00,0.0117
1094.00,0.0114
1093.00,0.0111
1092.00,0.0108
1091.00,0.0106
1090.00,0.0104
1089.00,0.0101
1088.00,0.0099
1087.00,0.0098
1086.00,0.0097
1085.00,0.0097
1084.00,0.0097
1083.00,0.0096
1082.00,0.0096
1081.00,0.0095
1080.00,0.0095
1079.00,0.0094
1078.00,0.0092
1077.00,0.0091
1076.00,0.0090
1075.00,0.0090
1074.00,0.0089
1073.00,0.0089
1072.00,0.0088
1071.00,0.0088
1070.00,0.0089
1069.00,0.0089
1068.00,0.0089
1067.00,0.0089
1066.00,0.0088
1065.00,0.0088
1064.00,0.0088
1063.00,0.0088
1062.00,0.0088
1061.00,0.0089
1060.00,0.0091
1059.00,0.0092
1058.00,0.0093
1057.00,0.0093
1056.00,0.0093
1055.00,0.0094
1054.00,0.0095
1053.00,0.0097
1052.00,0.0100
1051.00,0.0102
1050.00,0.0105
1049.00,0.0108
1048.00,0.0111
1047.00,0.0115
1046.00,0.0118
1045.00,0.0120
1044.00,0.0120
1043.00,0.0118
1042.00,0.0115
1041.00,0.0112
1040.00,0.0110
1039.00,0.0109
1038.00,0.0108
1037.00,0.0107
1036.00,0.0106
1035.00,0.0105
1034.00,0.0104
1033.00,0.0103
1032.00,0.0102
1031.00,0.0101
1030.00,0.0101
1029.00,0.0100
1028.00,0.0099
1027.00,0.0099
1026.00,0.0098
1025.00,0.0098
1024.00,0.0099
1023.00,0.0100
1022.00,0.0101
1021.00,0.0103
1020.00,0.0104
1019.00,0.0105
1018.00,0.0106
1017.00,0.0108
1016.00,0.0110
1015.00,0.0114
1014.00,0.0118
1013.00,0.0122
1012.00,0.0127
1011.00,0.0132
1010.00,0.0137
1009.00,0.0143
1008.00,0.0149
1007.00,0.0158
1006.00,0.0169
1005.00,0.0185
1004.00,0.0206
1003.00,0.0233
1002.00,0.0270
1001.00,0.0316
1000.00,0.0366
999.00,0.0411
998.00,0.0436
997.00,0.0433
996.00,0.0401
995.00,0.0352
994.00,0.0297
993.00,0.0248
992.00,0.0209
991.00,0.0180
990.00,0.0160
989.00,0.0147
988.00,0.0139
987.00,0.0135
986.00,0.0133
985.00,0.0134
984.00,0.0138
983.00,0.0146
982.00,0.0158
981.00,0.0176
980.00,0.0201
979.00,0.0235
978.00,0.0278
977.00,0.0332
976.00,0.0391
975.00,0.0450
974.00,0.0497
973.00,0.0520
972.00,0.0510
971.00,0.0468
970.00,0.0406
969.00,0.0338
968.00,0.0277
967.00,0.0228
966.00,0.0192
965.00,0.0166
964.00,0.0147
963.00,0.0133
962.00,0.0122
961.00,0.0114
960.00,0.0107
959.00,0.0101
958.00,0.0097
957.00,0.0094
956.00,0.0091
955.00,0.0088
954.00,0.0085
953.00,0.0082
952.00,0.0080
951.00,0.0079
950.00,0.0079
949.00,0.0080
948.00,0.0080
947.00,0.0080
946.00,0.0081
945.00,0.0083
944.00,0.0085
943.00,0.0088
942.00,0.0092
941.00,0.0094
940.00,0.0094
939.00,0.0092
938.00,0.0088
937.00,0.0084
936.00,0.0079
935.00,0.0075
934.00,0.0072
933.00,0.0069
932.00,0.0068
931.00,0.0068
930.00,0.0068
929.00,0.0067
928.00,0.0065
927.00,0.0064
926.00,0.0064
925.00,0.0064
924.00,0.0064
923.00,0.0065
922.00,0.0066
921.00,0.0067
920.00,0.0068
919.00,0.0069
918.00,0.0071
917.00,0.0073
916.00,0.0074
915.00,0.0074
914.00,0.0074
913.00,0.0074
912.00,0.0074
911.00,0.0076
910.00,0.0077
909.00,0.0078
908.00,0.0081
907.00,0.0085
906.00,0.0092
905.00,0.0101
904.00,0.0115
903.00,0.0132
902.00,0.0151
901.00,0.0168
900.00,0.0180
899.00,0.0183
898.00,0.0177
897.00,0.0163
896.00,0.0145
895.00,0.0127
894.00,0.0112
893.00,0.0101
892.00,0.0092
891.00,0.0086
890.00,0.0082
889.00,0.0078
888.00,0.0076
887.00,0.0076
886.00,0.0076
885.00,0.0075
884.00,0.0075
883.00,0.0075
882.00,0.0075
881.00,0.0076
880.00,0.0076
879.00,0.0077
878.00,0.0077
877.00,0.0076
876.00,0.0075
875.00,0.0074
874.00,0.0074
873.00,0.0075
872.00,0.0076
871.00,0.0076
870.00,0.0077
869.00,0.0077
868.00,0.0078
867.00,0.0079
866.00,0.0080
865.00,0.0080
864.00,0.0081
863.00,0.0081
862.00,0.0082
861.00,0.0084
860.00,0.0087
859.00,0.0090
858.00,0.0092
857.00,0.0093
856.00,0.0094
855.00,0.0096
854.00,0.0099
853.00,0.0104
852.00,0.0109
851.00,0.0115
850.00,0.0122
849.00,0.0132
848.00,0.0145
847.00,0.0164
846.00,0.0194
845.00,0.0239
844.00,0.0300
843.00,0.0368
842.00,0.0422
841.00,0.0441
840.00,0.0415
839.00,0.0357
838.00,0.0290
837.00,0.0235
836.00,0.0196
835.00,0.0173
834.00,0.0160
833.00,0.0152
832.00,0.0145
831.00,0.0139
830.00,0.0133
829.00,0.0129
828.00,0.0125
827.00,0.0124
826.00,0.0123
825.00,0.0121
824.00,0.0119
823.00,0.0116
822.00,0.0116
821.00,0.0117
820.00,0.0120
819.00,0.0124
818.00,0.0127
817.00,0.0131
816.00,0.0138
815.00,0.0147
814.00,0.0158
813.00,0.0172
812.00,0.0186
811.00,0.0200
810.00,0.0212
809.00,0.0218
808.00,0.0215
807.00,0.0206
806.00,0.0191
805.00,0.0175
804.00,0.0161
803.00,0.0148
802.00,0.0138
801.00,0.0130
800.00,0.0123
799.00,0.0118
798.00,0.0113
797.00,0.0108
796.00,0.0103
795.00,0.0098
794.00,0.0095
793.00,0.0093
792.00,0.0092
791.00,0.0091
790.00,0.0090
789.00,0.0090
788.00,0.0089
787.00,0.0087
786.00,0.0085
785.00,0.0082
784.00,0.0079
783.00,0.0077
782.00,0.0075
781.00,0.0074
780.00,0.0073
779.00,0.0072
778.00,0.0071
777.00,0.0070
776.00,0.0071
775.00,0.0073
774.00,0.0077
773.00,0.0081
772.00,0.0086
771.00,0.0088
770.00,0.0090
769.00,0.0091
768.00,0.0091
767.00,0.0092
766.00,0.0091
765.00,0.0090
764.00,0.0088
763.00,0.0084
762.00,0.0079
761.00,0.0075
760.00,0.0071
759.00,0.0069
758.00,0.0067
757.00,0.0066
756.00,0.0065
755.00,0.0065
754.00,0.0064
753.00,0.0064
752.00,0.0063
751.00,0.0062
750.00,0.0061
749.00,0.0061
748.00,0.0062
747.00,0.0063
746.00,0.0064
745.00,0.0064
744.00,0.0064
743.00,0.0064
742.00,0.0064
741.00,0.0066
740.00,0.0068
739.00,0.0071
738.00,0.0073
737.00,0.0074
736.00,0.0075
735.00,0.0076
734.00,0.0078
733.00,0.0079
732.00,0.0079
731.00,0.0079
730.00,0.0078
729.00,0.0077
728.00,0.0077
727.00,0.0077
726.00,0.0078
725.00,0.0079
724.00,0.0080
723.00,0.0081
722.00,0.0081
721.00,0.0081
720.00,0.0080
719.00,0.0077
718.00,0.0074
717.00,0.0071
716.00,0.0069
715.00,0.0068
714.00,0.0068
713.00,0.0068
712.00,0.0068
711.00,0.0068
710.00,0.0067
709.00,0.0067
708.00,0.0068
707.00,0.0069
706.00,0.0070
705.00,0.0069
704.00,0.0068
703.00,0.0067
702.00,0.0067
701.00,0.0066
700.00,0.0066
699.00,0.0066
698.00,0.0065
697.00,0.0064
696.00,0.0063
695.00,0.0061
694.00,0.0059
693.00,0.0057
692.00,0.0056
691.00,0.0057
690.00,0.0058
689.00,0.0059
688.00,0.0059
687.00,0.0058
686.00,0.0059
685.00,0.0059
684.00,0.0060
683.00,0.0061
682.00,0.0063
681.00,0.0064
680.00,0.0065
679.00,0.0064
678.00,0.0064
677.00,0.0065
676.00,0.0066
675.00,0.0067
674.00,0.0067
673.00,0.0065
672.00,0.0062
671.00,0.0061
670.00,0.0061
669.00,0.0061
668.00,0.0063
667.00,0.0065
666.00,0.0066
665.00,0.0066
664.00,0.0067
663.00,0.0068
662.00,0.0068
661.00,0.0066
660.00,0.0063
659.00,0.0061
658.00,0.0061
657.00,0.0063
656.00,0.0064
655.00,0.0065
654.00,0.0066
653.00,0.0068
652.00,0.0069
651.00,0.0069
650.00,0.0069
649.00,0.0070
648.00,0.0070
647.00,0.0070
646.00,0.0071
645.00,0.0071
644.00,0.0072
643.00,0.0071
642.00,0.0069
641.00,0.0066
640.00,0.0065
639.00,0.0066
638.00,0.0068
637.00,0.0071
636.00,0.0073
635.00,0.0073
634.00,0.0072
633.00,0.0071
632.00,0.0070
631.00,0.0067
630.00,0.0064
629.00,0.0062
628.00,0.0062
627.00,0.0062
626.00,0.0061
625.00,0.0061
624.00,0.0061
623.00,0.0062
622.00,0.0061
621.00,0.0060
620.00,0.0059
619.00,0.0062
618.00,0.0065
617.00,0.0067
616.00,0.0068
615.00,0.0071
614.00,0.0074
613.00,0.0076
612.00,0.0073
611.00,0.0070
610.00,0.0071
609.00,0.0073
608.00,0.0074
607.00,0.0073
606.00,0.0073
605.00,0.0073
604.00,0.0073
603.00,0.0071
602.00,0.0068
601.00,0.0064
600.00,0.0061
599.00,0.0059
598.00,0.0058
597.00,0.0059
596.00,0.0058
595.00,0.0058
594.00,0.0060
593.00,0.0063
592.00,0.0065
591.00,0.0064
590.00,0.0061
589.00,0.0061
588.00,0.0064
587.00,0.0069
586.00,0.0072
585.00,0.0072
584.00,0.0072
583.00,0.0071
582.00,0.0070
581.00,0.0069
580.00,0.0070
579.00,0.0072
578.00,0.0074
577.00,0.0075
576.00,0.0073
575.00,0.0070
574.00,0.0066
573.00,0.0064
572.00,0.0064
571.00,0.0067
570.00,0.0071
569.00,0.0072
568.00,0.0072
567.00,0.0072
566.00,0.0072
565.00,0.0071
564.00,0.0070
563.00,0.0070
562.00,0.0070
561.00,0.0070
560.00,0.0069
559.00,0.0069
558.00,0.0070
557.00,0.0071
556.00,0.0070
555.00,0.0068
554.00,0.0068
553.00,0.0072
552.00,0.0077
551.00,0.0081
550.00,0.0083
549.00,0.0083
548.00,0.0080
547.00,0.0077
546.00,0.0074
545.00,0.0073
544.00,0.0075
543.00,0.0078
542.00,0.0079
541.00,0.0076
540.00,0.0070
539.00,0.0067
538.00,0.0068
537.00,0.0072
536.00,0.0073
535.00,0.0072
534.00,0.0072
533.00,0.0076
532.00,0.0081
531.00,0.0083
530.00,0.0080
529.00,0.0074
528.00,0.0070
527.00,0.0070
526.00,0.0071
525.00,0.0072
524.00,0.0073
523.00,0.0077
522.00,0.0084
521.00,0.0088
520.00,0.0087
519.00,0.0082
518.00,0.0080
517.00,0.0083
516.00,0.0088
515.00,0.0090
514.00,0.0088
513.00,0.0085
512.00,0.0080
511.00,0.0076
510.00,0.0073
509.00,0.0072
508.00,0.0072
507.00,0.0071
506.00,0.0070
505.00,0.0068
504.00,0.0066
503.00,0.0063
502.00,0.0062
501.00,0.0067
500.00,0.0073
499.00,0.0076
498.00,0.0073
497.00,0.0065
496.00,0.0057
495.00,0.0056
494.00,0.0062
493.00,0.0071
492.00,0.0076
491.00,0.0075
490.00,0.0070
489.00,0.0066
488.00,0.0066
487.00,0.0066
486.00,0.0064
485.00,0.0063
484.00,0.0068
483.00,0.0079
482.00,0.0090
481.00,0.0094
480.00,0.0090
479.00,0.0082
478.00,0.0073
477.00,0.0064
476.00,0.0057
475.00,0.0056
474.00,0.0061
473.00,0.0068
472.00,0.0075
471.00,0.0082
470.00,0.0085
469.00,0.0083
468.00,0.0077
467.00,0.0078
466.00,0.0089
465.00,0.0103
464.00,0.0114
463.00,0.0119
462.00,0.0126
461.00,0.0138
460.00,0.0151
459.00,0.0159
458.00,0.0157
457.00,0.0150
456.00,0.0142
455.00,0.0135
454.00,0.0129
453.00,0.0124
452.00,0.0122
451.00,0.0119
450.00,0.0113
