Created as New Dataset,Sample 157 By Administrator Date Wednesday, September 10 2025
cm-1,A
4000.00,0.0009
3999.00,0.0009
3998.00,0.0009
3997.00,0.0009
3996.00,0.0009
3995.00,0.0009
3994.00,0.0009
3993.00,0.0009
3992.00,0.0009
3991.00,0.0009
3990.00,0.0009
3989.00,0.0008
3988.00,0.0008
3987.00,0.0008
3986.00,0.0008
3985.00,0.0007
3984.00,0.0007
3983.00,0.0007
3982.00,0.0007
3981.00,0.0007
3980.00,0.0007
3979.00,0.0007
3978.00,0.0008
3977.00,0.0008
3976.00,0.0008
3975.00,0.0008
3974.00,0.0007
3973.00,0.0007
3972.00,0.0007
3971.00,0.0007
3970.00,0.0007
3969.00,0.0007
3968.00,0.0007
3967.00,0.0007
3966.00,0.0007
3965.00,0.0007
3964.00,0.0007
3963.00,0.0007
3962.00,0.0007
3961.00,0.0007
3960.00,0.0006
3959.00,0.0007
3958.00,0.0007
3957.00,0.0007
3956.00,0.0008
3955.00,0.0008
3954.00,0.0008
3953.00,0.0007
3952.00,0.0007
3951.00,0.0007
3950.00,0.0007
3949.00,0.0007
3948.00,0.0007
3947.00,0.0007
3946.00,0.0007
3945.00,0.0007
3944.00,0.0007
3943.00,0.0007
3942.00,0.0007
3941.00,0.0006
3940.00,0.0006
3939.00,0.0006
3938.00,0.0006
3937.00,0.0007
3936.00,0.0007
3935.00,0.0007
3934.00,0.0007
3933.00,0.0007
3932.00,0.0007
3931.00,0.0007
3930.00,0.0007
3929.00,0.0007
3928.00,0.0007
3927.00,0.0007
3926.00,0.0007
3925.00,0.0007
3924.00,0.0007
3923.00,0.0007
3922.00,0.0007
3921.00,0.0007
3920.00,0.0007
3919.00,0.0007
3918.00,0.0007
3917.00,0.0007
3916.00,0.0006
3915.00,0.0006
3914.00,0.0006
3913.00,0.0007
3912.00,0.0007
3911.00,0.0007
3910.00,0.0007
3909.00,0.0007
3908.00,0.0007
3907.00,0.0007
3906.00,0.0006
3905.00,0.0006
3904.00,0.0005
3903.00,0.0005
3902.00,0.0005
3901.00,0.0005
3900.00,0.0005
3899.00,0.0005
3898.00,0.0006
3897.00,0.0006
3896.00,0.0006
3895.00,0.0006
3894.00,0.0006
3893.00,0.0006
3892.00,0.0006
3891.00,0.0006
3890.00,0.0006
3889.00,0.0006
3888.00,0.0006
3887.00,0.0006
3886.00,0.0006
3885.00,0.0006
3884.00,0.0006
3883.00,0.0006
3882.00,0.0006
3881.00,0.0006
3880.00,0.0006
3879.00,0.0006
3878.00,0.0006
3877.00,0.0006
3876.00,0.0006
3875.00,0.0006
3874.00,0.0006
3873.00,0.0006
3872.00,0.0006
3871.00,0.0006
3870.00,0.0006
3869.00,0.0006
3868.00,0.0007
3867.00,0.0006
3866.00,0.0006
3865.00,0.0006
3864.00,0.0006
3863.00,0.0005
3862.00,0.0005
3861.00,0.0005
3860.00,0.0005
3859.00,0.0005
3858.00,0.0005
3857.00,0.0005
3856.00,0.0005
3855.00,0.0005
3854.00,0.0005
3853.00,0.0005
3852.00,0.0005
3851.00,0.0005
3850.00,0.0005
3849.00,0.0005
3848.00,0.0005
3847.00,0.0005
3846.00,0.0005
3845.00,0.0006
3844.00,0.0006
3843.00,0.0006
3842.00,0.0007
3841.00,0.0007
3840.00,0.0007
3839.00,0.0006
3838.00,0.0006
3837.00,0.0006
3836.00,0.0005
3835.00,0.0005
3834.00,0.0005
3833.00,0.0005
3832.00,0.0006
3831.00,0.0006
3830.00,0.0006
3829.00,0.0006
3828.00,0.0006
3827.00,0.0006
3826.00,0.0007
3825.00,0.0007
3824.00,0.0007
3823.00,0.0007
3822.00,0.0007
3821.00,0.0007
3820.00,0.0007
3819.00,0.0007
3818.00,0.0007
3817.00,0.0007
3816.00,0.0007
3815.00,0.0007
3814.00,0.0007
3813.00,0.0006
3812.00,0.0006
3811.00,0.0006
3810.00,0.0006
3809.00,0.0006
3808.00,0.0006
3807.00,0.0006
3806.00,0.0006
3805.00,0.0006
3804.00,0.0006
3803.00,0.0006
3802.00,0.0006
3801.00,0.0006
3800.00,0.0006
3799.00,0.0006
3798.00,0.0006
3797.00,0.0006
3796.00,0.0006
3795.00,0.0006
3794.00,0.0006
3793.00,0.0006
3792.00,0.0007
3791.00,0.0007
3790.00,0.0007
3789.00,0.0007
3788.00,0.0007
3787.00,0.0007
3786.00,0.0007
3785.00,0.0007
3784.00,0.0007
3783.00,0.0007
3782.00,0.0007
3781.00,0.0007
3780.00,0.0007
3779.00,0.0007
3778.00,0.0006
3777.00,0.0006
3776.00,0.0006
3775.00,0.0007
3774.00,0.0007
3773.00,0.0007
3772.00,0.0007
3771.00,0.0007
3770.00,0.0007
3769.00,0.0007
3768.00,0.0007
3767.00,0.0007
3766.00,0.0007
3765.00,0.0008
3764.00,0.0008
3763.00,0.0008
3762.00,0.0008
3761.00,0.0008
3760.00,0.0007
3759.00,0.0007
3758.00,0.0006
3757.00,0.0006
3756.00,0.0006
3755.00,0.0006
3754.00,0.0007
3753.00,0.0007
3752.00,0.0007
3751.00,0.0007
3750.00,0.0007
3749.00,0.0007
3748.00,0.0007
3747.00,0.0006
3746.00,0.0006
3745.00,0.0006
3744.00,0.0006
3743.00,0.0007
3742.00,0.0007
3741.00,0.0007
3740.00,0.0007
3739.00,0.0007
3738.00,0.0006
3737.00,0.0006
3736.00,0.0006
3735.00,0.0005
3734.00,0.0005
3733.00,0.0005
3732.00,0.0005
3731.00,0.0005
3730.00,0.0005
3729.00,0.0005
3728.00,0.0005
3727.00,0.0005
3726.00,0.0005
3725.00,0.0005
3724.00,0.0005
3723.00,0.0005
3722.00,0.0005
3721.00,0.0005
3720.00,0.0005
3719.00,0.0005
3718.00,0.0005
3717.00,0.0006
3716.00,0.0006
3715.00,0.0005
3714.00,0.0005
3713.00,0.0005
3712.00,0.0004
3711.00,0.0004
3710.00,0.0004
3709.00,0.0004
3708.00,0.0004
3707.00,0.0005
3706.00,0.0005
3705.00,0.0005
3704.00,0.0005
3703.00,0.0005
3702.00,0.0005
3701.00,0.0005
3700.00,0.0004
3699.00,0.0004
3698.00,0.0004
3697.00,0.0005
3696.00,0.0005
3695.00,0.0005
3694.00,0.0006
3693.00,0.0006
3692.00,0.0006
3691.00,0.0006
3690.00,0.0006
3689.00,0.0006
3688.00,0.0006
3687.00,0.0006
3686.00,0.0006
3685.00,0.0006
3684.00,0.0006
3683.00,0.0006
3682.00,0.0006
3681.00,0.0006
3680.00,0.0006
3679.00,0.0006
3678.00,0.0006
3677.00,0.0007
3676.00,0.0007
3675.00,0.0007
3674.00,0.0007
3673.00,0.0006
3672.00,0.0006
3671.00,0.0006
3670.00,0.0006
3669.00,0.0006
3668.00,0.0006
3667.00,0.0006
3666.00,0.0006
3665.00,0.0006
3664.00,0.0007
3663.00,0.0007
3662.00,0.0007
3661.00,0.0008
3660.00,0.0007
3659.00,0.0007
3658.00,0.0007
3657.00,0.0007
3656.00,0.0007
3655.00,0.0007
3654.00,0.0007
3653.00,0.0007
3652.00,0.0007
3651.00,0.0008
3650.00,0.0008
3649.00,0.0008
3648.00,0.0008
3647.00,0.0008
3646.00,0.0008
3645.00,0.0008
3644.00,0.0008
3643.00,0.0007
3642.00,0.0007
3641.00,0.0007
3640.00,0.0008
3639.00,0.0008
3638.00,0.0009
3637.00,0.0009
3636.00,0.0009
3635.00,0.0008
3634.00,0.0008
3633.00,0.0008
3632.00,0.0007
3631.00,0.0007
3630.00,0.0007
3629.00,0.0007
3628.00,0.0007
3627.00,0.0008
3626.00,0.0008
3625.00,0.0008
3624.00,0.0009
3623.00,0.0009
3622.00,0.0010
3621.00,0.0010
3620.00,0.0010
3619.00,0.0010
3618.00,0.0010
3617.00,0.0010
3616.00,0.0010
3615.00,0.0010
3614.00,0.0010
3613.00,0.0010
3612.00,0.0010
3611.00,0.0009
3610.00,0.0009
3609.00,0.0009
3608.00,0.0009
3607.00,0.0010
3606.00,0.0011
3605.00,0.0011
3604.00,0.0012
3603.00,0.0012
3602.00,0.0012
3601.00,0.0012
3600.00,0.0012
3599.00,0.0012
3598.00,0.0012
3597.00,0.0013
3596.00,0.0013
3595.00,0.0014
3594.00,0.0014
3593.00,0.0014
3592.00,0.0014
3591.00,0.0014
3590.00,0.0014
3589.00,0.0014
3588.00,0.0015
3587.00,0.0015
3586.00,0.0015
3585.00,0.0015
3584.00,0.0016
3583.00,0.0016
3582.00,0.0016
3581.00,0.0017
3580.00,0.0017
3579.00,0.0017
3578.00,0.0017
3577.00,0.0016
3576.00,0.0016
3575.00,0.0016
3574.00,0.0017
3573.00,0.0017
3572.00,0.0018
3571.00,0.0018
3570.00,0.0018
3569.00,0.0019
3568.00,0.0020
3567.00,0.0020
3566.00,0.0020
3565.00,0.0020
3564.00,0.0020
3563.00,0.0020
3562.00,0.0020
3561.00,0.0021
3560.00,0.0021
3559.00,0.0021
3558.00,0.0021
3557.00,0.0022
3556.00,0.0022
3555.00,0.0022
3554.00,0.0022
3553.00,0.0022
3552.00,0.0022
3551.00,0.0023
3550.00,0.0023
3549.00,0.0023
3548.00,0.0023
3547.00,0.0024
3546.00,0.0024
3545.00,0.0025
3544.00,0.0026
3543.00,0.0027
3542.00,0.0027
3541.00,0.0027
3540.00,0.0026
3539.00,0.0026
3538.00,0.0027
3537.00,0.0027
3536.00,0.0027
3535.00,0.0028
3534.00,0.0028
3533.00,0.0029
3532.00,0.0029
3531.00,0.0029
3530.00,0.0028
3529.00,0.0028
3528.00,0.0029
3527.00,0.0030
3526.00,0.0030
3525.00,0.0030
3524.00,0.0030
3523.00,0.0030
3522.00,0.0030
3521.00,0.0031
3520.00,0.0031
3519.00,0.0031
3518.00,0.0031
3517.00,0.0031
3516.00,0.0031
3515.00,0.0031
3514.00,0.0031
3513.00,0.0031
3512.00,0.0032
3511.00,0.0032
3510.00,0.0032
3509.00,0.0032
3508.00,0.0032
3507.00,0.0033
3506.00,0.0033
3505.00,0.0034
3504.00,0.0034
3503.00,0.0035
3502.00,0.0035
3501.00,0.0035
3500.00,0.0035
3499.00,0.0035
3498.00,0.0035
3497.00,0.0035
3496.00,0.0036
3495.00,0.0036
3494.00,0.0036
3493.00,0.0037
3492.00,0.0037
3491.00,0.0037
3490.00,0.0037
3489.00,0.0038
3488.00,0.0038
3487.00,0.0039
3486.00,0.0039
3485.00,0.0039
3484.00,0.0040
3483.00,0.0040
3482.00,0.0039
3481.00,0.0039
3480.00,0.0039
3479.00,0.0039
3478.00,0.0039
3477.00,0.0040
3476.00,0.0040
3475.00,0.0041
3474.00,0.0041
3473.00,0.0041
3472.00,0.0041
3471.00,0.0041
3470.00,0.0041
3469.00,0.0042
3468.00,0.0042
3467.00,0.0043
3466.00,0.0043
3465.00,0.0043
3464.00,0.0043
3463.00,0.0043
3462.00,0.0044
3461.00,0.0044
3460.00,0.0043
3459.00,0.0044
3458.00,0.0044
3457.00,0.0044
3456.00,0.0044
3455.00,0.0044
3454.00,0.0044
3453.00,0.0044
3452.00,0.0044
3451.00,0.0045
3450.00,0.0046
3449.00,0.0047
3448.00,0.0047
3447.00,0.0046
3446.00,0.0046
3445.00,0.0046
3444.00,0.0046
3443.00,0.0047
3442.00,0.0047
3441.00,0.0047
3440.00,0.0047
3439.00,0.0047
3438.00,0.0047
3437.00,0.0047
3436.00,0.0048
3435.00,0.0048
3434.00,0.0049
3433.00,0.0049
3432.00,0.0049
3431.00,0.0049
3430.00,0.0049
3429.00,0.0050
3428.00,0.0050
3427.00,0.0050
3426.00,0.0050
3425.00,0.0051
3424.00,0.0051
3423.00,0.0051
3422.00,0.0051
3421.00,0.0051
3420.00,0.0051
3419.00,0.0050
3418.00,0.0051
3417.00,0.0051
3416.00,0.0051
3415.00,0.0051
3414.00,0.0051
3413.00,0.0051
3412.00,0.0051
3411.00,0.0051
3410.00,0.0051
3409.00,0.0051
3408.00,0.0052
3407.00,0.0052
3406.00,0.0052
3405.00,0.0052
3404.00,0.0052
3403.00,0.0052
3402.00,0.0052
3401.00,0.0052
3400.00,0.0052
3399.00,0.0052
3398.00,0.0052
3397.00,0.0052
3396.00,0.0052
3395.00,0.0052
3394.00,0.0053
3393.00,0.0053
3392.00,0.0053
3391.00,0.0052
3390.00,0.0052
3389.00,0.0052
3388.00,0.0052
3387.00,0.0052
3386.00,0.0052
3385.00,0.0052
3384.00,0.0052
3383.00,0.0052
3382.00,0.0052
3381.00,0.0053
3380.00,0.0053
3379.00,0.0053
3378.00,0.0053
3377.00,0.0053
3376.00,0.0053
3375.00,0.0053
3374.00,0.0053
3373.00,0.0053
3372.00,0.0053
3371.00,0.0053
3370.00,0.0053
3369.00,0.0053
3368.00,0.0053
3367.00,0.0054
3366.00,0.0054
3365.00,0.0054
3364.00,0.0053
3363.00,0.0053
3362.00,0.0053
3361.00,0.0054
3360.00,0.0054
3359.00,0.0054
3358.00,0.0054
3357.00,0.0055
3356.00,0.0055
3355.00,0.0055
3354.00,0.0055
3353.00,0.0055
3352.00,0.0054
3351.00,0.0054
3350.00,0.0054
3349.00,0.0054
3348.00,0.0055
3347.00,0.0055
3346.00,0.0055
3345.00,0.0055
3344.00,0.0055
3343.00,0.0055
3342.00,0.0054
3341.00,0.0054
3340.00,0.0054
3339.00,0.0053
3338.00,0.0053
3337.00,0.0053
3336.00,0.0053
3335.00,0.0053
3334.00,0.0053
3333.00,0.0053
3332.00,0.0053
3331.00,0.0053
3330.00,0.0053
3329.00,0.0053
3328.00,0.0053
3327.00,0.0052
3326.00,0.0052
3325.00,0.0052
3324.00,0.0052
3323.00,0.0052
3322.00,0.0052
3321.00,0.0052
3320.00,0.0052
3319.00,0.0052
3318.00,0.0051
3317.00,0.0051
3316.00,0.0051
3315.00,0.0051
3314.00,0.0051
3313.00,0.0051
3312.00,0.0050
3311.00,0.0050
3310.00,0.0050
3309.00,0.0050
3308.00,0.0050
3307.00,0.0050
3306.00,0.0050
3305.00,0.0050
3304.00,0.0050
3303.00,0.0051
3302.00,0.0051
3301.00,0.0051
3300.00,0.0051
3299.00,0.0051
3298.00,0.0051
3297.00,0.0051
3296.00,0.0051
3295.00,0.0051
3294.00,0.0051
3293.00,0.0051
3292.00,0.0051
3291.00,0.0051
3290.00,0.0051
3289.00,0.0050
3288.00,0.0050
3287.00,0.0050
3286.00,0.0049
3285.00,0.0049
3284.00,0.0049
3283.00,0.0049
3282.00,0.0048
3281.00,0.0048
3280.00,0.0048
3279.00,0.0049
3278.00,0.0049
3277.00,0.0049
3276.00,0.0049
3275.00,0.0049
3274.00,0.0048
3273.00,0.0048
3272.00,0.0047
3271.00,0.0047
3270.00,0.0047
3269.00,0.0047
3268.00,0.0047
3267.00,0.0047
3266.00,0.0047
3265.00,0.0047
3264.00,0.0047
3263.00,0.0047
3262.00,0.0047
3261.00,0.0047
3260.00,0.0046
3259.00,0.0046
3258.00,0.0046
3257.00,0.0046
3256.00,0.0045
3255.00,0.0045
3254.00,0.0044
3253.00,0.0044
3252.00,0.0044
3251.00,0.0044
3250.00,0.0044
3249.00,0.0044
3248.00,0.0044
3247.00,0.0044
3246.00,0.0044
3245.00,0.0044
3244.00,0.0044
3243.00,0.0044
3242.00,0.0044
3241.00,0.0044
3240.00,0.0044
3239.00,0.0044
3238.00,0.0044
3237.00,0.0044
3236.00,0.0044
3235.00,0.0044
3234.00,0.0044
3233.00,0.0044
3232.00,0.0045
3231.00,0.0045
3230.00,0.0045
3229.00,0.0045
3228.00,0.0045
3227.00,0.0045
3226.00,0.0045
3225.00,0.0045
3224.00,0.0045
3223.00,0.0045
3222.00,0.0045
3221.00,0.0045
3220.00,0.0045
3219.00,0.0046
3218.00,0.0046
3217.00,0.0046
3216.00,0.0047
3215.00,0.0047
3214.00,0.0047
3213.00,0.0048
3212.00,0.0048
3211.00,0.0048
3210.00,0.0048
3209.00,0.0048
3208.00,0.0048
3207.00,0.0048
3206.00,0.0048
3205.00,0.0048
3204.00,0.0048
3203.00,0.0048
3202.00,0.0048
3201.00,0.0048
3200.00,0.0048
3199.00,0.0048
3198.00,0.0047
3197.00,0.0047
3196.00,0.0047
3195.00,0.0047
3194.00,0.0048
3193.00,0.0048
3192.00,0.0047
3191.00,0.0047
3190.00,0.0047
3189.00,0.0047
3188.00,0.0047
3187.00,0.0046
3186.00,0.0046
3185.00,0.0046
3184.00,0.0046
3183.00,0.0046
3182.00,0.0046
3181.00,0.0046
3180.00,0.0046
3179.00,0.0045
3178.00,0.0045
3177.00,0.0044
3176.00,0.0043
3175.00,0.0043
3174.00,0.0043
3173.00,0.0042
3172.00,0.0042
3171.00,0.0042
3170.00,0.0042
3169.00,0.0042
3168.00,0.0042
3167.00,0.0042
3166.00,0.0042
3165.00,0.0042
3164.00,0.0042
3163.00,0.0041
3162.00,0.0041
3161.00,0.0041
3160.00,0.0041
3159.00,0.0041
3158.00,0.0041
3157.00,0.0041
3156.00,0.0040
3155.00,0.0040
3154.00,0.0040
3153.00,0.0040
3152.00,0.0040
3151.00,0.0040
3150.00,0.0041
3149.00,0.0041
3148.00,0.0041
3147.00,0.0041
3146.00,0.0041
3145.00,0.0041
3144.00,0.0041
3143.00,0.0041
3142.00,0.0041
3141.00,0.0040
3140.00,0.0040
3139.00,0.0040
3138.00,0.0039
3137.00,0.0039
3136.00,0.0039
3135.00,0.0039
3134.00,0.0039
3133.00,0.0039
3132.00,0.0038
3131.00,0.0038
3130.00,0.0038
3129.00,0.0037
3128.00,0.0037
3127.00,0.0037
3126.00,0.0037
3125.00,0.0037
3124.00,0.0037
3123.00,0.0036
3122.00,0.0036
3121.00,0.0035
3120.00,0.0035
3119.00,0.0035
3118.00,0.0035
3117.00,0.0035
3116.00,0.0035
3115.00,0.0034
3114.00,0.0034
3113.00,0.0034
3112.00,0.0034
3111.00,0.0034
3110.00,0.0034
3109.00,0.0034
3108.00,0.0034
3107.00,0.0033
3106.00,0.0033
3105.00,0.0033
3104.00,0.0033
3103.00,0.0033
3102.00,0.0033
3101.00,0.0033
3100.00,0.0032
3099.00,0.0032
3098.00,0.0033
3097.00,0.0033
3096.00,0.0033
3095.00,0.0033
3094.00,0.0033
3093.00,0.0033
3092.00,0.0033
3091.00,0.0032
3090.00,0.0032
3089.00,0.0032
3088.00,0.0032
3087.00,0.0031
3086.00,0.0031
3085.00,0.0031
3084.00,0.0031
3083.00,0.0032
3082.00,0.0032
3081.00,0.0032
3080.00,0.0032
3079.00,0.0032
3078.00,0.0031
3077.00,0.0031
3076.00,0.0031
3075.00,0.0031
3074.00,0.0031
3073.00,0.0031
3072.00,0.0031
3071.00,0.0031
3070.00,0.0031
3069.00,0.0031
3068.00,0.0031
3067.00,0.0032
3066.00,0.0032
3065.00,0.0032
3064.00,0.0032
3063.00,0.0033
3062.00,0.0033
3061.00,0.0033
3060.00,0.0034
3059.00,0.0034
3058.00,0.0034
3057.00,0.0034
3056.00,0.0034
3055.00,0.0034
3054.00,0.0034
3053.00,0.0034
3052.00,0.0034
3051.00,0.0035
3050.00,0.0035
3049.00,0.0036
3048.00,0.0036
3047.00,0.0036
3046.00,0.0036
3045.00,0.0036
3044.00,0.0035
3043.00,0.0035
3042.00,0.0035
3041.00,0.0036
3040.00,0.0036
3039.00,0.0036
3038.00,0.0037
3037.00,0.0037
3036.00,0.0037
3035.00,0.0038
3034.00,0.0038
3033.00,0.0038
3032.00,0.0038
3031.00,0.0039
3030.00,0.0040
3029.00,0.0041
3028.00,0.0041
3027.00,0.0042
3026.00,0.0043
3025.00,0.0043
3024.00,0.0044
3023.00,0.0044
3022.00,0.0045
3021.00,0.0045
3020.00,0.0046
3019.00,0.0047
3018.00,0.0048
3017.00,0.0049
3016.00,0.0050
3015.00,0.0052
3014.00,0.0053
3013.00,0.0054
3012.00,0.0056
3011.00,0.0057
3010.00,0.0058
3009.00,0.0060
3008.00,0.0062
3007.00,0.0064
3006.00,0.0066
3005.00,0.0068
3004.00,0.0070
3003.00,0.0073
3002.00,0.0075
3001.00,0.0078
3000.00,0.0081
2999.00,0.0084
2998.00,0.0088
2997.00,0.0092
2996.00,0.0096
2995.00,0.0101
2994.00,0.0105
2993.00,0.0110
2992.00,0.0116
2991.00,0.0122
2990.00,0.0129
2989.00,0.0136
2988.00,0.0145
2987.00,0.0155
2986.00,0.0166
2985.00,0.0178
2984.00,0.0191
2983.00,0.0206
2982.00,0.0223
2981.00,0.0241
2980.00,0.0262
2979.00,0.0286
2978.00,0.0312
2977.00,0.0343
2976.00,0.0377
2975.00,0.0417
2974.00,0.0462
2973.00,0.0513
2972.00,0.0570
2971.00,0.0635
2970.00,0.0708
2969.00,0.0788
2968.00,0.0876
2967.00,0.0972
2966.00,0.1074
2965.00,0.1179
2964.00,0.1285
2963.00,0.1388
2962.00,0.1481
2961.00,0.1560
2960.00,0.1624
2959.00,0.1673
2958.00,0.1711
2957.00,0.1744
2956.00,0.1777
2955.00,0.1815
2954.00,0.1860
2953.00,0.1909
2952.00,0.1955
2951.00,0.1988
2950.00,0.1998
2949.00,0.1974
2948.00,0.1913
2947.00,0.1816
2946.00,0.1694
2945.00,0.1559
2944.00,0.1426
2943.00,0.1306
2942.00,0.1209
2941.00,0.1137
2940.00,0.1091
2939.00,0.1070
2938.00,0.1070
2937.00,0.1089
2936.00,0.1126
2935.00,0.1178
2934.00,0.1243
2933.00,0.1321
2932.00,0.1409
2931.00,0.1506
2930.00,0.1608
2929.00,0.1712
2928.00,0.1815
2927.00,0.1914
2926.00,0.2009
2925.00,0.2098
2924.00,0.2183
2923.00,0.2266
2922.00,0.2346
2921.00,0.2422
2920.00,0.2489
2919.00,0.2540
2918.00,0.2568
2917.00,0.2567
2916.00,0.2535
2915.00,0.2477
2914.00,0.2399
2913.00,0.2313
2912.00,0.2224
2911.00,0.2140
2910.00,0.2063
2909.00,0.1993
2908.00,0.1928
2907.00,0.1865
2906.00,0.1802
2905.00,0.1736
2904.00,0.1668
2903.00,0.1598
2902.00,0.1527
2901.00,0.1458
2900.00,0.1390
2899.00,0.1326
2898.00,0.1267
2897.00,0.1212
2896.00,0.1164
2895.00,0.1123
2894.00,0.1089
2893.00,0.1064
2892.00,0.1045
2891.00,0.1032
2890.00,0.1026
2889.00,0.1024
2888.00,0.1026
2887.00,0.1032
2886.00,0.1041
2885.00,0.1055
2884.00,0.1073
2883.00,0.1095
2882.00,0.1121
2881.00,0.1149
2880.00,0.1176
2879.00,0.1199
2878.00,0.1215
2877.00,0.1220
2876.00,0.1217
2875.00,0.1208
2874.00,0.1200
2873.00,0.1196
2872.00,0.1200
2871.00,0.1211
2870.00,0.1229
2869.00,0.1247
2868.00,0.1259
2867.00,0.1256
2866.00,0.1231
2865.00,0.1180
2864.00,0.1106
2863.00,0.1018
2862.00,0.0925
2861.00,0.0837
2860.00,0.0761
2859.00,0.0700
2858.00,0.0654
2857.00,0.0621
2856.00,0.0599
2855.00,0.0586
2854.00,0.0582
2853.00,0.0584
2852.00,0.0593
2851.00,0.0609
2850.00,0.0630
2849.00,0.0657
2848.00,0.0692
2847.00,0.0735
2846.00,0.0786
2845.00,0.0847
2844.00,0.0915
2843.00,0.0991
2842.00,0.1068
2841.00,0.1143
2840.00,0.1205
2839.00,0.1247
2838.00,0.1259
2837.00,0.1235
2836.00,0.1175
2835.00,0.1086
2834.00,0.0978
2833.00,0.0863
2832.00,0.0754
2831.00,0.0656
2830.00,0.0574
2829.00,0.0506
2828.00,0.0451
2827.00,0.0407
2826.00,0.0371
2825.00,0.0342
2824.00,0.0317
2823.00,0.0296
2822.00,0.0278
2821.00,0.0263
2820.00,0.0250
2819.00,0.0238
2818.00,0.0228
2817.00,0.0219
2816.00,0.0211
2815.00,0.0205
2814.00,0.0199
2813.00,0.0193
2812.00,0.0188
2811.00,0.0182
2810.00,0.0177
2809.00,0.0171
2808.00,0.0166
2807.00,0.0159
2806.00,0.0153
2805.00,0.0147
2804.00,0.0141
2803.00,0.0135
2802.00,0.0129
2801.00,0.0124
2800.00,0.0120
2799.00,0.0117
2798.00,0.0115
2797.00,0.0112
2796.00,0.0110
2795.00,0.0108
2794.00,0.0105
2793.00,0.0102
2792.00,0.0098
2791.00,0.0095
2790.00,0.0091
2789.00,0.0088
2788.00,0.0085
2787.00,0.0082
2786.00,0.0079
2785.00,0.0076
2784.00,0.0074
2783.00,0.0072
2782.00,0.0070
2781.00,0.0068
2780.00,0.0066
2779.00,0.0064
2778.00,0.0063
2777.00,0.0061
2776.00,0.0060
2775.00,0.0059
2774.00,0.0058
2773.00,0.0057
2772.00,0.0057
2771.00,0.0056
2770.00,0.0056
2769.00,0.0056
2768.00,0.0055
2767.00,0.0055
2766.00,0.0055
2765.00,0.0054
2764.00,0.0054
2763.00,0.0054
2762.00,0.0053
2761.00,0.0053
2760.00,0.0053
2759.00,0.0052
2758.00,0.0052
2757.00,0.0052
2756.00,0.0052
2755.00,0.0052
2754.00,0.0052
2753.00,0.0052
2752.00,0.0052
2751.00,0.0052
2750.00,0.0051
2749.00,0.0052
2748.00,0.0052
2747.00,0.0052
2746.00,0.0052
2745.00,0.0053
2744.00,0.0054
2743.00,0.0054
2742.00,0.0056
2741.00,0.0057
2740.00,0.0059
2739.00,0.0060
2738.00,0.0062
2737.00,0.0063
2736.00,0.0064
2735.00,0.0065
2734.00,0.0066
2733.00,0.0068
2732.00,0.0070
2731.00,0.0072
2730.00,0.0074
2729.00,0.0077
2728.00,0.0079
2727.00,0.0082
2726.00,0.0085
2725.00,0.0088
2724.00,0.0089
2723.00,0.0089
2722.00,0.0089
2721.00,0.0087
2720.00,0.0084
2719.00,0.0081
2718.00,0.0077
2717.00,0.0074
2716.00,0.0070
2715.00,0.0067
2714.00,0.0065
2713.00,0.0063
2712.00,0.0061
2711.00,0.0059
2710.00,0.0058
2709.00,0.0056
2708.00,0.0055
2707.00,0.0054
2706.00,0.0052
2705.00,0.0051
2704.00,0.0050
2703.00,0.0049
2702.00,0.0048
2701.00,0.0047
2700.00,0.0047
2699.00,0.0047
2698.00,0.0046
2697.00,0.0046
2696.00,0.0046
2695.00,0.0045
2694.00,0.0045
2693.00,0.0045
2692.00,0.0045
2691.00,0.0045
2690.00,0.0045
2689.00,0.0045
2688.00,0.0045
2687.00,0.0045
2686.00,0.0045
2685.00,0.0045
2684.00,0.0045
2683.00,0.0045
2682.00,0.0045
2681.00,0.0045
2680.00,0.0045
2679.00,0.0046
2678.00,0.0046
2677.00,0.0046
2676.00,0.0046
2675.00,0.0045
2674.00,0.0045
2673.00,0.0045
2672.00,0.0044
2671.00,0.0044
2670.00,0.0044
2669.00,0.0044
2668.00,0.0044
2667.00,0.0045
2666.00,0.0045
2665.00,0.0046
2664.00,0.0046
2663.00,0.0047
2662.00,0.0048
2661.00,0.0048
2660.00,0.0048
2659.00,0.0048
2658.00,0.0048
2657.00,0.0047
2656.00,0.0047
2655.00,0.0047
2654.00,0.0046
2653.00,0.0045
2652.00,0.0045
2651.00,0.0044
2650.00,0.0044
2649.00,0.0044
2648.00,0.0044
2647.00,0.0043
2646.00,0.0043
2645.00,0.0042
2644.00,0.0041
2643.00,0.0040
2642.00,0.0040
2641.00,0.0039
2640.00,0.0039
2639.00,0.0039
2638.00,0.0039
2637.00,0.0039
2636.00,0.0038
2635.00,0.0038
2634.00,0.0039
2633.00,0.0039
2632.00,0.0039
2631.00,0.0039
2630.00,0.0039
2629.00,0.0040
2628.00,0.0040
2627.00,0.0040
2626.00,0.0040
2625.00,0.0040
2624.00,0.0041
2623.00,0.0040
2622.00,0.0040
2621.00,0.0040
2620.00,0.0039
2619.00,0.0039
2618.00,0.0039
2617.00,0.0039
2616.00,0.0039
2615.00,0.0039
2614.00,0.0039
2613.00,0.0039
2612.00,0.0039
2611.00,0.0039
2610.00,0.0039
2609.00,0.0038
2608.00,0.0037
2607.00,0.0036
2606.00,0.0035
2605.00,0.0034
2604.00,0.0033
2603.00,0.0033
2602.00,0.0033
2601.00,0.0032
2600.00,0.0032
2599.00,0.0031
2598.00,0.0031
2597.00,0.0032
2596.00,0.0032
2595.00,0.0032
2594.00,0.0032
2593.00,0.0032
2592.00,0.0032
2591.00,0.0033
2590.00,0.0034
2589.00,0.0035
2588.00,0.0036
2587.00,0.0036
2586.00,0.0037
2585.00,0.0038
2584.00,0.0039
2583.00,0.0039
2582.00,0.0039
2581.00,0.0039
2580.00,0.0038
2579.00,0.0037
2578.00,0.0036
2577.00,0.0035
2576.00,0.0035
2575.00,0.0034
2574.00,0.0033
2573.00,0.0032
2572.00,0.0031
2571.00,0.0030
2570.00,0.0029
2569.00,0.0028
2568.00,0.0028
2567.00,0.0027
2566.00,0.0026
2565.00,0.0026
2564.00,0.0025
2563.00,0.0025
2562.00,0.0024
2561.00,0.0024
2560.00,0.0023
2559.00,0.0023
2558.00,0.0023
2557.00,0.0023
2556.00,0.0022
2555.00,0.0022
2554.00,0.0021
2553.00,0.0021
2552.00,0.0021
2551.00,0.0021
2550.00,0.0021
2549.00,0.0020
2548.00,0.0019
2547.00,0.0018
2546.00,0.0018
2545.00,0.0018
2544.00,0.0018
2543.00,0.0018
2542.00,0.0018
2541.00,0.0019
2540.00,0.0019
2539.00,0.0018
2538.00,0.0017
2537.00,0.0016
2536.00,0.0015
2535.00,0.0014
2534.00,0.0015
2533.00,0.0016
2532.00,0.0016
2531.00,0.0016
2530.00,0.0015
2529.00,0.0015
2528.00,0.0014
2527.00,0.0014
2526.00,0.0014
2525.00,0.0014
2524.00,0.0013
2523.00,0.0013
2522.00,0.0013
2521.00,0.0013
2520.00,0.0014
2519.00,0.0014
2518.00,0.0013
2517.00,0.0012
2516.00,0.0011
2515.00,0.0010
2514.00,0.0010
2513.00,0.0010
2512.00,0.0010
2511.00,0.0010
2510.00,0.0010
2509.00,0.0010
2508.00,0.0010
2507.00,0.0010
2506.00,0.0010
2505.00,0.0010
2504.00,0.0010
2503.00,0.0010
2502.00,0.0010
2501.00,0.0009
2500.00,0.0009
2499.00,0.0009
2498.00,0.0009
2497.00,0.0009
2496.00,0.0010
2495.00,0.0010
2494.00,0.0011
2493.00,0.0011
2492.00,0.0011
2491.00,0.0010
2490.00,0.0010
2489.00,0.0010
2488.00,0.0010
2487.00,0.0010
2486.00,0.0010
2485.00,0.0010
2484.00,0.0010
2483.00,0.0009
2482.00,0.0009
2481.00,0.0009
2480.00,0.0009
2479.00,0.0009
2478.00,0.0009
2477.00,0.0009
2476.00,0.0009
2475.00,0.0009
2474.00,0.0009
2473.00,0.0009
2472.00,0.0009
2471.00,0.0009
2470.00,0.0008
2469.00,0.0008
2468.00,0.0007
2467.00,0.0007
2466.00,0.0007
2465.00,0.0008
2464.00,0.0008
2463.00,0.0009
2462.00,0.0010
2461.00,0.0010
2460.00,0.0010
2459.00,0.0010
2458.00,0.0010
2457.00,0.0010
2456.00,0.0011
2455.00,0.0011
2454.00,0.0011
2453.00,0.0011
2452.00,0.0011
2451.00,0.0011
2450.00,0.0011
2449.00,0.0011
2448.00,0.0011
2447.00,0.0011
2446.00,0.0011
2445.00,0.0011
2444.00,0.0011
2443.00,0.0011
2442.00,0.0010
2441.00,0.0010
2440.00,0.0010
2439.00,0.0010
2438.00,0.0011
2437.00,0.0010
2436.00,0.0010
2435.00,0.0010
2434.00,0.0010
2433.00,0.0011
2432.00,0.0012
2431.00,0.0012
2430.00,0.0013
2429.00,0.0013
2428.00,0.0013
2427.00,0.0014
2426.00,0.0013
2425.00,0.0013
2424.00,0.0012
2423.00,0.0011
2422.00,0.0011
2421.00,0.0011
2420.00,0.0011
2419.00,0.0011
2418.00,0.0010
2417.00,0.0010
2416.00,0.0010
2415.00,0.0010
2414.00,0.0010
2413.00,0.0010
2412.00,0.0010
2411.00,0.0010
2410.00,0.0010
2409.00,0.0010
2408.00,0.0010
2407.00,0.0009
2406.00,0.0009
2405.00,0.0009
2404.00,0.0009
2403.00,0.0009
2402.00,0.0009
2401.00,0.0009
2400.00,0.0009
2399.00,0.0009
2398.00,0.0009
2397.00,0.0009
2396.00,0.0009
2395.00,0.0009
2394.00,0.0008
2393.00,0.0008
2392.00,0.0008
2391.00,0.0008
2390.00,0.0008
2389.00,0.0009
2388.00,0.0009
2387.00,0.0010
2386.00,0.0010
2385.00,0.0009
2384.00,0.0009
2383.00,0.0007
2382.00,0.0006
2381.00,0.0006
2380.00,0.0005
2379.00,0.0005
2378.00,0.0005
2377.00,0.0006
2376.00,0.0006
2375.00,0.0006
2374.00,0.0005
2373.00,0.0005
2372.00,0.0005
2371.00,0.0005
2370.00,0.0005
2369.00,0.0004
2368.00,0.0004
2367.00,0.0004
2366.00,0.0005
2365.00,0.0006
2364.00,0.0006
2363.00,0.0006
2362.00,0.0005
2361.00,0.0005
2360.00,0.0004
2359.00,0.0004
2358.00,0.0004
2357.00,0.0004
2356.00,0.0005
2355.00,0.0005
2354.00,0.0005
2353.00,0.0005
2352.00,0.0004
2351.00,0.0004
2350.00,0.0005
2349.00,0.0006
2348.00,0.0007
2347.00,0.0007
2346.00,0.0007
2345.00,0.0007
2344.00,0.0007
2343.00,0.0007
2342.00,0.0007
2341.00,0.0007
2340.00,0.0007
2339.00,0.0008
2338.00,0.0008
2337.00,0.0009
2336.00,0.0009
2335.00,0.0009
2334.00,0.0008
2333.00,0.0008
2332.00,0.0007
2331.00,0.0007
2330.00,0.0007
2329.00,0.0008
2328.00,0.0010
2327.00,0.0013
2326.00,0.0017
2325.00,0.0020
2324.00,0.0022
2323.00,0.0022
2322.00,0.0020
2321.00,0.0018
2320.00,0.0017
2319.00,0.0016
2318.00,0.0015
2317.00,0.0014
2316.00,0.0013
2315.00,0.0013
2314.00,0.0012
2313.00,0.0012
2312.00,0.0011
2311.00,0.0011
2310.00,0.0011
2309.00,0.0011
2308.00,0.0011
2307.00,0.0011
2306.00,0.0011
2305.00,0.0012
2304.00,0.0012
2303.00,0.0012
2302.00,0.0012
2301.00,0.0012
2300.00,0.0012
2299.00,0.0013
2298.00,0.0013
2297.00,0.0014
2296.00,0.0014
2295.00,0.0014
2294.00,0.0014
2293.00,0.0015
2292.00,0.0015
2291.00,0.0016
2290.00,0.0016
2289.00,0.0017
2288.00,0.0018
2287.00,0.0019
2286.00,0.0019
2285.00,0.0019
2284.00,0.0018
2283.00,0.0017
2282.00,0.0016
2281.00,0.0016
2280.00,0.0017
2279.00,0.0017
2278.00,0.0017
2277.00,0.0016
2276.00,0.0016
2275.00,0.0014
2274.00,0.0013
2273.00,0.0012
2272.00,0.0011
2271.00,0.0011
2270.00,0.0011
2269.00,0.0012
2268.00,0.0012
2267.00,0.0012
2266.00,0.0011
2265.00,0.0010
2264.00,0.0010
2263.00,0.0010
2262.00,0.0010
2261.00,0.0010
2260.00,0.0010
2259.00,0.0010
2258.00,0.0010
2257.00,0.0009
2256.00,0.0009
2255.00,0.0009
2254.00,0.0009
2253.00,0.0009
2252.00,0.0009
2251.00,0.0008
2250.00,0.0007
2249.00,0.0006
2248.00,0.0007
2247.00,0.0007
2246.00,0.0008
2245.00,0.0009
2244.00,0.0010
2243.00,0.0010
2242.00,0.0010
2241.00,0.0009
2240.00,0.0009
2239.00,0.0008
2238.00,0.0007
2237.00,0.0006
2236.00,0.0005
2235.00,0.0004
2234.00,0.0005
2233.00,0.0006
2232.00,0.0007
2231.00,0.0008
2230.00,0.0007
2229.00,0.0005
2228.00,0.0004
2227.00,0.0004
2226.00,0.0004
2225.00,0.0005
2224.00,0.0006
2223.00,0.0007
2222.00,0.0008
2221.00,0.0010
2220.00,0.0010
2219.00,0.0007
2218.00,0.0004
2217.00,0.0002
2216.00,0.0001
2215.00,0.0001
2214.00,0.0003
2213.00,0.0005
2212.00,0.0006
2211.00,0.0006
2210.00,0.0004
2209.00,0.0003
2208.00,0.0003
2207.00,0.0003
2206.00,0.0005
2205.00,0.0007
2204.00,0.0009
2203.00,0.0009
2202.00,0.0009
2201.00,0.0007
2200.00,0.0006
2199.00,0.0006
2198.00,0.0006
2197.00,0.0007
2196.00,0.0008
2195.00,0.0008
2194.00,0.0009
2193.00,0.0009
2192.00,0.0009
2191.00,0.0009
2190.00,0.0007
2189.00,0.0006
2188.00,0.0004
2187.00,0.0004
2186.00,0.0005
2185.00,0.0008
2184.00,0.0009
2183.00,0.0008
2182.00,0.0005
2181.00,0.0003
2180.00,0.0003
2179.00,0.0003
2178.00,0.0003
2177.00,0.0002
2176.00,-0.0001
2175.00,-0.0003
2174.00,-0.0004
2173.00,-0.0002
2172.00,0.0000
2171.00,0.0003
2170.00,0.0005
2169.00,0.0007
2168.00,0.0011
2167.00,0.0013
2166.00,0.0014
2165.00,0.0014
2164.00,0.0014
2163.00,0.0014
2162.00,0.0014
2161.00,0.0011
2160.00,0.0002
2159.00,-0.0012
2158.00,-0.0025
2157.00,-0.0030
2156.00,-0.0029
2155.00,-0.0026
2154.00,-0.0023
2153.00,-0.0020
2152.00,-0.0017
2151.00,-0.0015
2150.00,-0.0015
2149.00,-0.0016
2148.00,-0.0017
2147.00,-0.0017
2146.00,-0.0016
2145.00,-0.0015
2144.00,-0.0013
2143.00,-0.0012
2142.00,-0.0012
2141.00,-0.0012
2140.00,-0.0012
2139.00,-0.0011
2138.00,-0.0010
2137.00,-0.0010
2136.00,-0.0012
2135.00,-0.0015
2134.00,-0.0017
2133.00,-0.0017
2132.00,-0.0015
2131.00,-0.0014
2130.00,-0.0012
2129.00,-0.0012
2128.00,-0.0011
2127.00,-0.0009
2126.00,-0.0008
2125.00,-0.0006
2124.00,-0.0004
2123.00,-0.0003
2122.00,-0.0002
2121.00,-0.0001
2120.00,-0.0001
2119.00,-0.0000
2118.00,0.0000
2117.00,0.0001
2116.00,0.0002
2115.00,0.0003
2114.00,0.0004
2113.00,0.0004
2112.00,0.0004
2111.00,0.0004
2110.00,0.0003
2109.00,0.0003
2108.00,0.0003
2107.00,0.0003
2106.00,0.0002
2105.00,0.0002
2104.00,0.0001
2103.00,0.0002
2102.00,0.0004
2101.00,0.0005
2100.00,0.0006
2099.00,0.0005
2098.00,0.0003
2097.00,0.0000
2096.00,-0.0002
2095.00,-0.0004
2094.00,-0.0004
2093.00,-0.0002
2092.00,-0.0001
2091.00,0.0001
2090.00,0.0001
2089.00,0.0001
2088.00,0.0001
2087.00,0.0000
2086.00,-0.0001
2085.00,-0.0001
2084.00,-0.0000
2083.00,0.0000
2082.00,0.0002
2081.00,0.0003
2080.00,0.0003
2079.00,0.0004
2078.00,0.0005
2077.00,0.0005
2076.00,0.0005
2075.00,0.0004
2074.00,0.0003
2073.00,0.0003
2072.00,0.0004
2071.00,0.0004
2070.00,0.0003
2069.00,0.0003
2068.00,0.0004
2067.00,0.0005
2066.00,0.0005
2065.00,0.0005
2064.00,0.0004
2063.00,0.0002
2062.00,0.0001
2061.00,0.0000
2060.00,0.0000
2059.00,0.0001
2058.00,0.0003
2057.00,0.0005
2056.00,0.0006
2055.00,0.0006
2054.00,0.0006
2053.00,0.0007
2052.00,0.0009
2051.00,0.0012
2050.00,0.0012
2049.00,0.0009
2048.00,0.0006
2047.00,0.0003
2046.00,0.0001
2045.00,-0.0000
2044.00,-0.0002
2043.00,-0.0003
2042.00,-0.0005
2041.00,-0.0006
2040.00,-0.0006
2039.00,-0.0006
2038.00,-0.0005
2037.00,-0.0005
2036.00,-0.0004
2035.00,-0.0004
2034.00,-0.0004
2033.00,-0.0005
2032.00,-0.0007
2031.00,-0.0008
2030.00,-0.0009
2029.00,-0.0010
2028.00,-0.0011
2027.00,-0.0012
2026.00,-0.0013
2025.00,-0.0013
2024.00,-0.0012
2023.00,-0.0012
2022.00,-0.0012
2021.00,-0.0012
2020.00,-0.0012
2019.00,-0.0013
2018.00,-0.0015
2017.00,-0.0015
2016.00,-0.0015
2015.00,-0.0015
2014.00,-0.0013
2013.00,-0.0011
2012.00,-0.0010
2011.00,-0.0010
2010.00,-0.0012
2009.00,-0.0014
2008.00,-0.0018
2007.00,-0.0023
2006.00,-0.0025
2005.00,-0.0023
2004.00,-0.0018
2003.00,-0.0013
2002.00,-0.0009
2001.00,-0.0008
2000.00,-0.0008
1999.00,-0.0009
1998.00,-0.0010
1997.00,-0.0010
1996.00,-0.0010
1995.00,-0.0009
1994.00,-0.0008
1993.00,-0.0006
1992.00,-0.0004
1991.00,-0.0003
1990.00,-0.0004
1989.00,-0.0005
1988.00,-0.0006
1987.00,-0.0006
1986.00,-0.0005
1985.00,-0.0003
1984.00,0.0001
1983.00,0.0005
1982.00,0.0009
1981.00,0.0010
1980.00,0.0008
1979.00,0.0002
1978.00,-0.0007
1977.00,-0.0013
1976.00,-0.0015
1975.00,-0.0014
1974.00,-0.0013
1973.00,-0.0014
1972.00,-0.0015
1971.00,-0.0016
1970.00,-0.0016
1969.00,-0.0015
1968.00,-0.0013
1967.00,-0.0011
1966.00,-0.0011
1965.00,-0.0012
1964.00,-0.0012
1963.00,-0.0011
1962.00,-0.0011
1961.00,-0.0011
1960.00,-0.0012
1959.00,-0.0014
1958.00,-0.0015
1957.00,-0.0015
1956.00,-0.0014
1955.00,-0.0013
1954.00,-0.0013
1953.00,-0.0012
1952.00,-0.0012
1951.00,-0.0012
1950.00,-0.0013
1949.00,-0.0014
1948.00,-0.0014
1947.00,-0.0015
1946.00,-0.0015
1945.00,-0.0014
1944.00,-0.0013
1943.00,-0.0012
1942.00,-0.0011
1941.00,-0.0011
1940.00,-0.0010
1939.00,-0.0010
1938.00,-0.0010
1937.00,-0.0010
1936.00,-0.0010
1935.00,-0.0010
1934.00,-0.0010
1933.00,-0.0008
1932.00,-0.0007
1931.00,-0.0006
1930.00,-0.0007
1929.00,-0.0008
1928.00,-0.0008
1927.00,-0.0007
1926.00,-0.0006
1925.00,-0.0004
1924.00,-0.0004
1923.00,-0.0003
1922.00,-0.0003
1921.00,-0.0002
1920.00,-0.0002
1919.00,-0.0002
1918.00,-0.0002
1917.00,-0.0002
1916.00,-0.0002
1915.00,-0.0002
1914.00,-0.0001
1913.00,-0.0001
1912.00,-0.0001
1911.00,-0.0002
1910.00,-0.0003
1909.00,-0.0003
1908.00,-0.0002
1907.00,-0.0003
1906.00,-0.0004
1905.00,-0.0005
1904.00,-0.0005
1903.00,-0.0005
1902.00,-0.0003
1901.00,-0.0002
1900.00,-0.0001
1899.00,0.0000
1898.00,0.0001
1897.00,0.0001
1896.00,0.0001
1895.00,0.0001
1894.00,0.0001
1893.00,0.0001
1892.00,0.0001
1891.00,0.0001
1890.00,0.0000
1889.00,0.0000
1888.00,0.0000
1887.00,-0.0000
1886.00,-0.0001
1885.00,-0.0001
1884.00,-0.0001
1883.00,-0.0000
1882.00,0.0001
1881.00,0.0002
1880.00,0.0002
1879.00,0.0002
1878.00,0.0002
1877.00,0.0001
1876.00,0.0001
1875.00,0.0002
1874.00,0.0002
1873.00,0.0002
1872.00,0.0001
1871.00,0.0000
1870.00,0.0000
1869.00,0.0000
1868.00,0.0001
1867.00,0.0000
1866.00,-0.0000
1865.00,-0.0000
1864.00,0.0000
1863.00,0.0002
1862.00,0.0002
1861.00,0.0002
1860.00,0.0002
1859.00,0.0000
1858.00,-0.0000
1857.00,0.0000
1856.00,0.0001
1855.00,0.0002
1854.00,0.0002
1853.00,0.0002
1852.00,0.0003
1851.00,0.0003
1850.00,0.0002
1849.00,0.0002
1848.00,0.0002
1847.00,0.0003
1846.00,0.0002
1845.00,0.0003
1844.00,0.0003
1843.00,0.0003
1842.00,0.0003
1841.00,0.0003
1840.00,0.0004
1839.00,0.0004
1838.00,0.0004
1837.00,0.0004
1836.00,0.0004
1835.00,0.0003
1834.00,0.0003
1833.00,0.0004
1832.00,0.0004
1831.00,0.0004
1830.00,0.0004
1829.00,0.0004
1828.00,0.0004
1827.00,0.0005
1826.00,0.0005
1825.00,0.0005
1824.00,0.0005
1823.00,0.0005
1822.00,0.0004
1821.00,0.0004
1820.00,0.0004
1819.00,0.0003
1818.00,0.0003
1817.00,0.0002
1816.00,0.0001
1815.00,0.0002
1814.00,0.0002
1813.00,0.0003
1812.00,0.0004
1811.00,0.0004
1810.00,0.0004
1809.00,0.0004
1808.00,0.0005
1807.00,0.0005
1806.00,0.0005
1805.00,0.0006
1804.00,0.0006
1803.00,0.0006
1802.00,0.0005
1801.00,0.0005
1800.00,0.0006
1799.00,0.0006
1798.00,0.0007
1797.00,0.0007
1796.00,0.0007
1795.00,0.0008
1794.00,0.0009
1793.00,0.0009
1792.00,0.0010
1791.00,0.0010
1790.00,0.0010
1789.00,0.0010
1788.00,0.0010
1787.00,0.0010
1786.00,0.0010
1785.00,0.0010
1784.00,0.0010
1783.00,0.0010
1782.00,0.0010
1781.00,0.0010
1780.00,0.0010
1779.00,0.0009
1778.00,0.0009
1777.00,0.0009
1776.00,0.0009
1775.00,0.0009
1774.00,0.0008
1773.00,0.0009
1772.00,0.0011
1771.00,0.0012
1770.00,0.0013
1769.00,0.0013
1768.00,0.0013
1767.00,0.0013
1766.00,0.0013
1765.00,0.0013
1764.00,0.0013
1763.00,0.0014
1762.00,0.0014
1761.00,0.0015
1760.00,0.0016
1759.00,0.0017
1758.00,0.0018
1757.00,0.0019
1756.00,0.0020
1755.00,0.0021
1754.00,0.0022
1753.00,0.0023
1752.00,0.0024
1751.00,0.0026
1750.00,0.0027
1749.00,0.0029
1748.00,0.0030
1747.00,0.0031
1746.00,0.0032
1745.00,0.0033
1744.00,0.0033
1743.00,0.0034
1742.00,0.0034
1741.00,0.0034
1740.00,0.0034
1739.00,0.0035
1738.00,0.0035
1737.00,0.0035
1736.00,0.0034
1735.00,0.0034
1734.00,0.0033
1733.00,0.0032
1732.00,0.0031
1731.00,0.0030
1730.00,0.0029
1729.00,0.0028
1728.00,0.0028
1727.00,0.0027
1726.00,0.0027
1725.00,0.0026
1724.00,0.0026
1723.00,0.0026
1722.00,0.0026
1721.00,0.0026
1720.00,0.0026
1719.00,0.0025
1718.00,0.0025
1717.00,0.0025
1716.00,0.0026
1715.00,0.0026
1714.00,0.0025
1713.00,0.0025
1712.00,0.0026
1711.00,0.0026
1710.00,0.0026
1709.00,0.0027
1708.00,0.0027
1707.00,0.0028
1706.00,0.0028
1705.00,0.0029
1704.00,0.0031
1703.00,0.0032
1702.00,0.0032
1701.00,0.0033
1700.00,0.0035
1699.00,0.0035
1698.00,0.0035
1697.00,0.0036
1696.00,0.0038
1695.00,0.0041
1694.00,0.0043
1693.00,0.0044
1692.00,0.0046
1691.00,0.0048
1690.00,0.0050
1689.00,0.0053
1688.00,0.0056
1687.00,0.0058
1686.00,0.0059
1685.00,0.0062
1684.00,0.0066
1683.00,0.0069
1682.00,0.0071
1681.00,0.0073
1680.00,0.0075
1679.00,0.0078
1678.00,0.0080
1677.00,0.0082
1676.00,0.0083
1675.00,0.0085
1674.00,0.0086
1673.00,0.0086
1672.00,0.0086
1671.00,0.0088
1670.00,0.0089
1669.00,0.0091
1668.00,0.0093
1667.00,0.0093
1666.00,0.0093
1665.00,0.0093
1664.00,0.0094
1663.00,0.0094
1662.00,0.0094
1661.00,0.0094
1660.00,0.0094
1659.00,0.0094
1658.00,0.0094
1657.00,0.0093
1656.00,0.0093
1655.00,0.0091
1654.00,0.0089
1653.00,0.0089
1652.00,0.0089
1651.00,0.0088
1650.00,0.0087
1649.00,0.0085
1648.00,0.0083
1647.00,0.0083
1646.00,0.0082
1645.00,0.0082
1644.00,0.0081
1643.00,0.0081
1642.00,0.0080
1641.00,0.0079
1640.00,0.0079
1639.00,0.0078
1638.00,0.0077
1637.00,0.0075
1636.00,0.0074
1635.00,0.0074
1634.00,0.0073
1633.00,0.0073
1632.00,0.0073
1631.00,0.0073
1630.00,0.0072
1629.00,0.0072
1628.00,0.0071
1627.00,0.0070
1626.00,0.0069
1625.00,0.0069
1624.00,0.0069
1623.00,0.0069
1622.00,0.0069
1621.00,0.0068
1620.00,0.0067
1619.00,0.0066
1618.00,0.0065
1617.00,0.0065
1616.00,0.0065
1615.00,0.0065
1614.00,0.0065
1613.00,0.0065
1612.00,0.0065
1611.00,0.0065
1610.00,0.0064
1609.00,0.0064
1608.00,0.0065
1607.00,0.0065
1606.00,0.0064
1605.00,0.0064
1604.00,0.0064
1603.00,0.0064
1602.00,0.0064
1601.00,0.0064
1600.00,0.0064
1599.00,0.0064
1598.00,0.0064
1597.00,0.0064
1596.00,0.0065
1595.00,0.0065
1594.00,0.0065
1593.00,0.0065
1592.00,0.0065
1591.00,0.0065
1590.00,0.0066
1589.00,0.0066
1588.00,0.0067
1587.00,0.0068
1586.00,0.0069
1585.00,0.0071
1584.00,0.0073
1583.00,0.0075
1582.00,0.0077
1581.00,0.0079
1580.00,0.0081
1579.00,0.0081
1578.00,0.0081
1577.00,0.0080
1576.00,0.0079
1575.00,0.0078
1574.00,0.0077
1573.00,0.0077
1572.00,0.0076
1571.00,0.0074
1570.00,0.0073
1569.00,0.0071
1568.00,0.0070
1567.00,0.0069
1566.00,0.0068
1565.00,0.0068
1564.00,0.0068
1563.00,0.0068
1562.00,0.0068
1561.00,0.0068
1560.00,0.0068
1559.00,0.0068
1558.00,0.0068
1557.00,0.0068
1556.00,0.0068
1555.00,0.0069
1554.00,0.0069
1553.00,0.0071
1552.00,0.0072
1551.00,0.0074
1550.00,0.0075
1549.00,0.0077
1548.00,0.0080
1547.00,0.0082
1546.00,0.0083
1545.00,0.0085
1544.00,0.0086
1543.00,0.0087
1542.00,0.0086
1541.00,0.0085
1540.00,0.0083
1539.00,0.0081
1538.00,0.0078
1537.00,0.0077
1536.00,0.0075
1535.00,0.0073
1534.00,0.0070
1533.00,0.0067
1532.00,0.0065
1531.00,0.0063
1530.00,0.0062
1529.00,0.0062
1528.00,0.0062
1527.00,0.0061
1526.00,0.0060
1525.00,0.0060
1524.00,0.0060
1523.00,0.0060
1522.00,0.0059
1521.00,0.0059
1520.00,0.0059
1519.00,0.0059
1518.00,0.0059
1517.00,0.0060
1516.00,0.0061
1515.00,0.0062
1514.00,0.0062
1513.00,0.0063
1512.00,0.0065
1511.00,0.0065
1510.00,0.0066
1509.00,0.0066
1508.00,0.0067
1507.00,0.0067
1506.00,0.0068
1505.00,0.0069
1504.00,0.0071
1503.00,0.0072
1502.00,0.0074
1501.00,0.0076
1500.00,0.0078
1499.00,0.0080
1498.00,0.0083
1497.00,0.0086
1496.00,0.0090
1495.00,0.0093
1494.00,0.0095
1493.00,0.0098
1492.00,0.0101
1491.00,0.0105
1490.00,0.0108
1489.00,0.0112
1488.00,0.0117
1487.00,0.0122
1486.00,0.0127
1485.00,0.0134
1484.00,0.0142
1483.00,0.0150
1482.00,0.0159
1481.00,0.0171
1480.00,0.0184
1479.00,0.0197
1478.00,0.0212
1477.00,0.0231
1476.00,0.0254
1475.00,0.0280
1474.00,0.0315
1473.00,0.0368
1472.00,0.0432
1471.00,0.0495
1470.00,0.0556
1469.00,0.0621
1468.00,0.0690
1467.00,0.0767
1466.00,0.0856
1465.00,0.0954
1464.00,0.1041
1463.00,0.1104
1462.00,0.1146
1461.00,0.1178
1460.00,0.1202
1459.00,0.1221
1458.00,0.1239
1457.00,0.1256
1456.00,0.1264
1455.00,0.1263
1454.00,0.1258
1453.00,0.1246
1452.00,0.1225
1451.00,0.1190
1450.00,0.1138
1449.00,0.1063
1448.00,0.0966
1447.00,0.0862
1446.00,0.0768
1445.00,0.0688
1444.00,0.0620
1443.00,0.0565
1442.00,0.0524
1441.00,0.0497
1440.00,0.0481
1439.00,0.0474
1438.00,0.0474
1437.00,0.0473
1436.00,0.0461
1435.00,0.0432
1434.00,0.0393
1433.00,0.0346
1432.00,0.0298
1431.00,0.0257
1430.00,0.0225
1429.00,0.0202
1428.00,0.0187
1427.00,0.0178
1426.00,0.0172
1425.00,0.0166
1424.00,0.0161
1423.00,0.0158
1422.00,0.0156
1421.00,0.0153
1420.00,0.0149
1419.00,0.0145
1418.00,0.0142
1417.00,0.0138
1416.00,0.0134
1415.00,0.0132
1414.00,0.0131
1413.00,0.0129
1412.00,0.0127
1411.00,0.0126
1410.00,0.0126
1409.00,0.0125
1408.00,0.0124
1407.00,0.0123
1406.00,0.0124
1405.00,0.0123
1404.00,0.0123
1403.00,0.0123
1402.00,0.0125
1401.00,0.0126
1400.00,0.0127
1399.00,0.0129
1398.00,0.0132
1397.00,0.0134
1396.00,0.0136
1395.00,0.0140
1394.00,0.0146
1393.00,0.0152
1392.00,0.0158
1391.00,0.0167
1390.00,0.0180
1389.00,0.0198
1388.00,0.0225
1387.00,0.0265
1386.00,0.0318
1385.00,0.0383
1384.00,0.0468
1383.00,0.0583
1382.00,0.0733
1381.00,0.0923
1380.00,0.1155
1379.00,0.1419
1378.00,0.1676
1377.00,0.1869
1376.00,0.1941
1375.00,0.1856
1374.00,0.1635
1373.00,0.1360
1372.00,0.1104
1371.00,0.0889
1370.00,0.0716
1369.00,0.0583
1368.00,0.0491
1367.00,0.0434
1366.00,0.0403
1365.00,0.0391
1364.00,0.0393
1363.00,0.0408
1362.00,0.0431
1361.00,0.0454
1360.00,0.0471
1359.00,0.0475
1358.00,0.0463
1357.00,0.0435
1356.00,0.0397
1355.00,0.0353
1354.00,0.0311
1353.00,0.0274
1352.00,0.0245
1351.00,0.0221
1350.00,0.0202
1349.00,0.0187
1348.00,0.0174
1347.00,0.0165
1346.00,0.0157
1345.00,0.0151
1344.00,0.0146
1343.00,0.0142
1342.00,0.0139
1341.00,0.0136
1340.00,0.0133
1339.00,0.0131
1338.00,0.0129
1337.00,0.0129
1336.00,0.0130
1335.00,0.0132
1334.00,0.0135
1333.00,0.0140
1332.00,0.0144
1331.00,0.0148
1330.00,0.0149
1329.00,0.0148
1328.00,0.0144
1327.00,0.0139
1326.00,0.0133
1325.00,0.0127
1324.00,0.0121
1323.00,0.0116
1322.00,0.0112
1321.00,0.0109
1320.00,0.0106
1319.00,0.0105
1318.00,0.0103
1317.00,0.0101
1316.00,0.0098
1315.00,0.0097
1314.00,0.0096
1313.00,0.0096
1312.00,0.0097
1311.00,0.0100
1310.00,0.0105
1309.00,0.0113
1308.00,0.0124
1307.00,0.0137
1306.00,0.0150
1305.00,0.0159
1304.00,0.0162
1303.00,0.0160
1302.00,0.0155
1301.00,0.0150
1300.00,0.0147
1299.00,0.0147
1298.00,0.0149
1297.00,0.0150
1296.00,0.0150
1295.00,0.0148
1294.00,0.0145
1293.00,0.0140
1292.00,0.0134
1291.00,0.0129
1290.00,0.0125
1289.00,0.0120
1288.00,0.0116
1287.00,0.0112
1286.00,0.0109
1285.00,0.0106
1284.00,0.0103
1283.00,0.0101
1282.00,0.0099
1281.00,0.0097
1280.00,0.0096
1279.00,0.0095
1278.00,0.0094
1277.00,0.0093
1276.00,0.0093
1275.00,0.0092
1274.00,0.0093
1273.00,0.0093
1272.00,0.0093
1271.00,0.0093
1270.00,0.0093
1269.00,0.0093
1268.00,0.0094
1267.00,0.0095
1266.00,0.0096
1265.00,0.0097
1264.00,0.0100
1263.00,0.0104
1262.00,0.0108
1261.00,0.0114
1260.00,0.0120
1259.00,0.0128
1258.00,0.0137
1257.00,0.0144
1256.00,0.0148
1255.00,0.0146
1254.00,0.0140
1253.00,0.0130
1252.00,0.0121
1251.00,0.0113
1250.00,0.0107
1249.00,0.0104
1248.00,0.0101
1247.00,0.0099
1246.00,0.0098
1245.00,0.0097
1244.00,0.0096
1243.00,0.0096
1242.00,0.0095
1241.00,0.0094
1240.00,0.0094
1239.00,0.0093
1238.00,0.0092
1237.00,0.0091
1236.00,0.0091
1235.00,0.0090
1234.00,0.0089
1233.00,0.0089
1232.00,0.0089
1231.00,0.0089
1230.00,0.0090
1229.00,0.0091
1228.00,0.0092
1227.00,0.0093
1226.00,0.0094
1225.00,0.0097
1224.00,0.0099
1223.00,0.0103
1222.00,0.0106
1221.00,0.0109
1220.00,0.0111
1219.00,0.0112
1218.00,0.0111
1217.00,0.0110
1216.00,0.0107
1215.00,0.0105
1214.00,0.0102
1213.00,0.0098
1212.00,0.0095
1211.00,0.0092
1210.00,0.0090
1209.00,0.0088
1208.00,0.0087
1207.00,0.0085
1206.00,0.0084
1205.00,0.0083
1204.00,0.0082
1203.00,0.0081
1202.00,0.0081
1201.00,0.0081
1200.00,0.0082
1199.00,0.0082
1198.00,0.0082
1197.00,0.0082
1196.00,0.0083
1195.00,0.0083
1194.00,0.0083
1193.00,0.0083
1192.00,0.0083
1191.00,0.0082
1190.00,0.0082
1189.00,0.0083
1188.00,0.0084
1187.00,0.0084
1186.00,0.0085
1185.00,0.0086
1184.00,0.0087
1183.00,0.0089
1182.00,0.0092
1181.00,0.0095
1180.00,0.0100
1179.00,0.0107
1178.00,0.0114
1177.00,0.0124
1176.00,0.0136
1175.00,0.0153
1174.00,0.0176
1173.00,0.0205
1172.00,0.0239
1171.00,0.0278
1170.00,0.0314
1169.00,0.0344
1168.00,0.0361
1167.00,0.0366
1166.00,0.0358
1165.00,0.0342
1164.00,0.0320
1163.00,0.0298
1162.00,0.0279
1161.00,0.0263
1160.00,0.0250
1159.00,0.0239
1158.00,0.0231
1157.00,0.0225
1156.00,0.0221
1155.00,0.0218
1154.00,0.0216
1153.00,0.0212
1152.00,0.0207
1151.00,0.0199
1150.00,0.0191
1149.00,0.0181
1148.00,0.0171
1147.00,0.0161
1146.00,0.0151
1145.00,0.0143
1144.00,0.0137
1143.00,0.0131
1142.00,0.0125
1141.00,0.0120
1140.00,0.0114
1139.00,0.0109
1138.00,0.0105
1137.00,0.0101
1136.00,0.0097
1135.00,0.0094
1134.00,0.0092
1133.00,0.0091
1132.00,0.0091
1131.00,0.0092
1130.00,0.0092
1129.00,0.0093
1128.00,0.0094
1127.00,0.0096
1126.00,0.0096
1125.00,0.0097
1124.00,0.0098
1123.00,0.0097
1122.00,0.0097
1121.00,0.0096
1120.00,0.0096
1119.00,0.0097
1118.00,0.0098
1117.00,0.0099
1116.00,0.0100
1115.00,0.0102
1114.00,0.0103
1113.00,0.0105
1112.00,0.0107
1111.00,0.0110
1110.00,0.0113
1109.00,0.0117
1108.00,0.0122
1107.00,0.0128
1106.00,0.0135
1105.00,0.0142
1104.00,0.0148
1103.00,0.0153
1102.00,0.0154
1101.00,0.0152
1100.00,0.0147
1099.00,0.0140
1098.00,0.0132
1097.00,0.0125
1096.00,0.0119
1095.00,0.0114
1094.00,0.0111
1093.00,0.0108
1092.00,0.0105
1091.00,0.0103
1090.00,0.0101
1089.00,0.0100
1088.00,0.0098
1087.00,0.0097
1086.00,0.0096
1085.00,0.0096
1084.00,0.0095
1083.00,0.0094
1082.00,0.0092
1081.00,0.0091
1080.00,0.0090
1079.00,0.0089
1078.00,0.0088
1077.00,0.0087
1076.00,0.0087
1075.00,0.0086
1074.00,0.0086
1073.00,0.0086
1072.00,0.0085
1071.00,0.0084
1070.00,0.0083
1069.00,0.0083
1068.00,0.0083
1067.00,0.0084
1066.00,0.0085
1065.00,0.0086
1064.00,0.0087
1063.00,0.0087
1062.00,0.0087
1061.00,0.0086
1060.00,0.0086
1059.00,0.0087
1058.00,0.0088
1057.00,0.0088
1056.00,0.0088
1055.00,0.0089
1054.00,0.0090
1053.00,0.0091
1052.00,0.0093
1051.00,0.0096
1050.00,0.0099
1049.00,0.0102
1048.00,0.0106
1047.00,0.0109
1046.00,0.0112
1045.00,0.0113
1044.00,0.0113
1043.00,0.0112
1042.00,0.0109
1041.00,0.0105
1040.00,0.0103
1039.00,0.0101
1038.00,0.0100
1037.00,0.0100
1036.00,0.0101
1035.00,0.0102
1034.00,0.0102
1033.00,0.0101
1032.00,0.0100
1031.00,0.0100
1030.00,0.0099
1029.00,0.0099
1028.00,0.0098
1027.00,0.0097
1026.00,0.0097
1025.00,0.0096
1024.00,0.0096
1023.00,0.0096
1022.00,0.0097
1021.00,0.0099
1020.00,0.0101
1019.00,0.0103
1018.00,0.0105
1017.00,0.0106
1016.00,0.0108
1015.00,0.0112
1014.00,0.0116
1013.00,0.0120
1012.00,0.0124
1011.00,0.0127
1010.00,0.0130
1009.00,0.0133
1008.00,0.0138
1007.00,0.0145
1006.00,0.0155
1005.00,0.0169
1004.00,0.0187
1003.00,0.0212
1002.00,0.0244
1001.00,0.0283
1000.00,0.0326
999.00,0.0362
998.00,0.0380
997.00,0.0374
996.00,0.0345
995.00,0.0302
994.00,0.0257
993.00,0.0216
992.00,0.0184
991.00,0.0160
990.00,0.0144
989.00,0.0133
988.00,0.0126
987.00,0.0123
986.00,0.0122
985.00,0.0123
984.00,0.0126
983.00,0.0134
982.00,0.0146
981.00,0.0164
980.00,0.0188
979.00,0.0219
978.00,0.0259
977.00,0.0306
976.00,0.0358
975.00,0.0408
974.00,0.0445
973.00,0.0461
972.00,0.0448
971.00,0.0408
970.00,0.0353
969.00,0.0294
968.00,0.0243
967.00,0.0203
966.00,0.0174
965.00,0.0153
964.00,0.0137
963.00,0.0126
962.00,0.0117
961.00,0.0109
960.00,0.0104
959.00,0.0099
958.00,0.0095
957.00,0.0093
956.00,0.0090
955.00,0.0088
954.00,0.0085
953.00,0.0083
952.00,0.0082
951.00,0.0081
950.00,0.0081
949.00,0.0082
948.00,0.0084
947.00,0.0085
946.00,0.0087
945.00,0.0089
944.00,0.0092
943.00,0.0096
942.00,0.0098
941.00,0.0099
940.00,0.0098
939.00,0.0095
938.00,0.0091
937.00,0.0087
936.00,0.0082
935.00,0.0078
934.00,0.0075
933.00,0.0072
932.00,0.0070
931.00,0.0068
930.00,0.0067
929.00,0.0067
928.00,0.0066
927.00,0.0066
926.00,0.0066
925.00,0.0066
924.00,0.0066
923.00,0.0066
922.00,0.0066
921.00,0.0067
920.00,0.0067
919.00,0.0069
918.00,0.0070
917.00,0.0072
916.00,0.0073
915.00,0.0074
914.00,0.0074
913.00,0.0074
912.00,0.0075
911.00,0.0076
910.00,0.0078
909.00,0.0080
908.00,0.0082
907.00,0.0087
906.00,0.0094
905.00,0.0104
904.00,0.0119
903.00,0.0137
902.00,0.0157
901.00,0.0175
900.00,0.0188
899.00,0.0191
898.00,0.0185
897.00,0.0170
896.00,0.0151
895.00,0.0132
894.00,0.0115
893.00,0.0102
892.00,0.0093
891.00,0.0088
890.00,0.0084
889.00,0.0081
888.00,0.0078
887.00,0.0075
886.00,0.0073
885.00,0.0072
884.00,0.0072
883.00,0.0073
882.00,0.0074
881.00,0.0074
880.00,0.0074
879.00,0.0073
878.00,0.0073
877.00,0.0073
876.00,0.0073
875.00,0.0074
874.00,0.0074
873.00,0.0073
872.00,0.0073
871.00,0.0074
870.00,0.0075
869.00,0.0076
868.00,0.0078
867.00,0.0079
866.00,0.0080
865.00,0.0081
864.00,0.0082
863.00,0.0084
862.00,0.0085
861.00,0.0088
860.00,0.0090
859.00,0.0092
858.00,0.0093
857.00,0.0093
856.00,0.0092
855.00,0.0093
854.00,0.0094
853.00,0.0097
852.00,0.0101
851.00,0.0106
850.00,0.0113
849.00,0.0122
848.00,0.0134
847.00,0.0151
846.00,0.0177
845.00,0.0215
844.00,0.0265
843.00,0.0320
842.00,0.0361
841.00,0.0373
840.00,0.0349
839.00,0.0301
838.00,0.0248
837.00,0.0205
836.00,0.0175
835.00,0.0156
834.00,0.0145
833.00,0.0137
832.00,0.0132
831.00,0.0128
830.00,0.0124
829.00,0.0120
828.00,0.0117
827.00,0.0116
826.00,0.0115
825.00,0.0116
824.00,0.0116
823.00,0.0116
822.00,0.0116
821.00,0.0117
820.00,0.0118
819.00,0.0119
818.00,0.0122
817.00,0.0127
816.00,0.0134
815.00,0.0143
814.00,0.0156
813.00,0.0171
812.00,0.0188
811.00,0.0204
810.00,0.0217
809.00,0.0223
808.00,0.0221
807.00,0.0212
806.00,0.0197
805.00,0.0180
804.00,0.0163
803.00,0.0149
802.00,0.0138
801.00,0.0130
800.00,0.0123
799.00,0.0116
798.00,0.0112
797.00,0.0108
796.00,0.0106
795.00,0.0102
794.00,0.0099
793.00,0.0094
792.00,0.0091
791.00,0.0089
790.00,0.0088
789.00,0.0087
788.00,0.0085
787.00,0.0082
786.00,0.0079
785.00,0.0075
784.00,0.0072
783.00,0.0070
782.00,0.0069
781.00,0.0069
780.00,0.0069
779.00,0.0068
778.00,0.0068
777.00,0.0068
776.00,0.0069
775.00,0.0071
774.00,0.0073
773.00,0.0076
772.00,0.0079
771.00,0.0082
770.00,0.0084
769.00,0.0085
768.00,0.0086
767.00,0.0085
766.00,0.0084
765.00,0.0083
764.00,0.0081
763.00,0.0079
762.00,0.0076
761.00,0.0074
760.00,0.0073
759.00,0.0070
758.00,0.0067
757.00,0.0064
756.00,0.0061
755.00,0.0060
754.00,0.0060
753.00,0.0060
752.00,0.0060
751.00,0.0061
750.00,0.0061
749.00,0.0061
748.00,0.0061
747.00,0.0060
746.00,0.0060
745.00,0.0061
744.00,0.0063
743.00,0.0065
742.00,0.0066
741.00,0.0067
740.00,0.0068
739.00,0.0068
738.00,0.0068
737.00,0.0070
736.00,0.0071
735.00,0.0073
734.00,0.0073
733.00,0.0073
732.00,0.0074
731.00,0.0075
730.00,0.0076
729.00,0.0076
728.00,0.0076
727.00,0.0076
726.00,0.0076
725.00,0.0075
724.00,0.0074
723.00,0.0073
722.00,0.0073
721.00,0.0072
720.00,0.0071
719.00,0.0069
718.00,0.0067
717.00,0.0065
716.00,0.0065
715.00,0.0064
714.00,0.0062
713.00,0.0060
712.00,0.0059
711.00,0.0059
710.00,0.0061
709.00,0.0064
708.00,0.0066
707.00,0.0067
706.00,0.0067
705.00,0.0067
704.00,0.0066
703.00,0.0064
702.00,0.0063
701.00,0.0063
700.00,0.0063
699.00,0.0063
698.00,0.0064
697.00,0.0065
696.00,0.0065
695.00,0.0065
694.00,0.0064
693.00,0.0062
692.00,0.0061
691.00,0.0060
690.00,0.0060
689.00,0.0061
688.00,0.0061
687.00,0.0062
686.00,0.0062
685.00,0.0063
684.00,0.0064
683.00,0.0065
682.00,0.0065
681.00,0.0065
680.00,0.0064
679.00,0.0062
678.00,0.0060
677.00,0.0059
676.00,0.0058
675.00,0.0059
674.00,0.0061
673.00,0.0061
672.00,0.0061
671.00,0.0061
670.00,0.0060
669.00,0.0061
668.00,0.0064
667.00,0.0067
666.00,0.0067
665.00,0.0067
664.00,0.0065
663.00,0.0063
662.00,0.0061
661.00,0.0062
660.00,0.0063
659.00,0.0064
658.00,0.0064
657.00,0.0062
656.00,0.0061
655.00,0.0060
654.00,0.0061
653.00,0.0062
652.00,0.0064
651.00,0.0063
650.00,0.0061
649.00,0.0059
648.00,0.0057
647.00,0.0057
646.00,0.0057
645.00,0.0057
644.00,0.0057
643.00,0.0059
642.00,0.0061
641.00,0.0063
640.00,0.0064
639.00,0.0064
638.00,0.0064
637.00,0.0063
636.00,0.0063
635.00,0.0063
634.00,0.0063
633.00,0.0063
632.00,0.0063
631.00,0.0064
630.00,0.0064
629.00,0.0065
628.00,0.0066
627.00,0.0067
626.00,0.0067
625.00,0.0067
624.00,0.0066
623.00,0.0066
622.00,0.0064
621.00,0.0062
620.00,0.0061
619.00,0.0061
618.00,0.0062
617.00,0.0064
616.00,0.0065
615.00,0.0067
614.00,0.0068
613.00,0.0070
612.00,0.0070
611.00,0.0070
610.00,0.0070
609.00,0.0072
608.00,0.0073
607.00,0.0072
606.00,0.0069
605.00,0.0065
604.00,0.0060
603.00,0.0057
602.00,0.0057
601.00,0.0060
600.00,0.0065
599.00,0.0070
598.00,0.0072
597.00,0.0073
596.00,0.0072
595.00,0.0071
594.00,0.0068
593.00,0.0066
592.00,0.0065
591.00,0.0065
590.00,0.0065
589.00,0.0064
588.00,0.0064
587.00,0.0064
586.00,0.0064
585.00,0.0064
584.00,0.0066
583.00,0.0068
582.00,0.0070
581.00,0.0071
580.00,0.0072
579.00,0.0074
578.00,0.0076
577.00,0.0078
576.00,0.0077
575.00,0.0074
574.00,0.0070
573.00,0.0069
572.00,0.0070
571.00,0.0072
570.00,0.0073
569.00,0.0071
568.00,0.0068
567.00,0.0068
566.00,0.0068
565.00,0.0066
564.00,0.0063
563.00,0.0060
562.00,0.0059
561.00,0.0061
560.00,0.0065
559.00,0.0067
558.00,0.0066
557.00,0.0064
556.00,0.0061
555.00,0.0061
554.00,0.0064
553.00,0.0066
552.00,0.0068
551.00,0.0069
550.00,0.0070
549.00,0.0071
548.00,0.0072
547.00,0.0072
546.00,0.0071
545.00,0.0073
544.00,0.0075
543.00,0.0076
542.00,0.0076
541.00,0.0074
540.00,0.0072
539.00,0.0071
538.00,0.0070
537.00,0.0068
536.00,0.0068
535.00,0.0072
534.00,0.0078
533.00,0.0086
532.00,0.0093
531.00,0.0099
530.00,0.0102
529.00,0.0104
528.00,0.0104
527.00,0.0103
526.00,0.0102
525.00,0.0100
524.00,0.0097
523.00,0.0092
522.00,0.0088
521.00,0.0084
520.00,0.0081
519.00,0.0078
518.00,0.0077
517.00,0.0075
516.00,0.0072
515.00,0.0068
514.00,0.0067
513.00,0.0070
512.00,0.0077
511.00,0.0084
510.00,0.0087
509.00,0.0085
508.00,0.0079
507.00,0.0075
506.00,0.0075
505.00,0.0079
504.00,0.0083
503.00,0.0085
502.00,0.0082
501.00,0.0078
500.00,0.0074
499.00,0.0069
498.00,0.0063
497.00,0.0058
496.00,0.0056
495.00,0.0058
494.00,0.0061
493.00,0.0065
492.00,0.0068
491.00,0.0071
490.00,0.0075
489.00,0.0079
488.00,0.0080
487.00,0.0075
486.00,0.0067
485.00,0.0060
484.00,0.0059
483.00,0.0063
482.00,0.0067
481.00,0.0069
480.00,0.0072
479.00,0.0075
478.00,0.0076
477.00,0.0073
476.00,0.0074
475.00,0.0079
474.00,0.0085
473.00,0.0084
472.00,0.0080
471.00,0.0083
470.00,0.0094
469.00,0.0107
468.00,0.0117
467.00,0.0124
466.00,0.0131
465.00,0.0139
464.00,0.0144
463.00,0.0144
462.00,0.0143
461.00,0.0146
460.00,0.0157
459.00,0.0174
458.00,0.0184
457.00,0.0177
456.00,0.0158
455.00,0.0141
454.00,0.0131
453.00,0.0126
452.00,0.0115
451.00,0.0098
450.00,0.0081
