Created as New Dataset,Sample 108 By Administrator Date Wednesday, September 10 2025
cm-1,A
4000.00,0.0011
3999.00,0.0011
3998.00,0.0011
3997.00,0.0011
3996.00,0.0010
3995.00,0.0010
3994.00,0.0010
3993.00,0.0009
3992.00,0.0009
3991.00,0.0010
3990.00,0.0010
3989.00,0.0010
3988.00,0.0010
3987.00,0.0010
3986.00,0.0010
3985.00,0.0010
3984.00,0.0009
3983.00,0.0009
3982.00,0.0009
3981.00,0.0009
3980.00,0.0009
3979.00,0.0009
3978.00,0.0009
3977.00,0.0009
3976.00,0.0009
3975.00,0.0009
3974.00,0.0009
3973.00,0.0009
3972.00,0.0009
3971.00,0.0009
3970.00,0.0008
3969.00,0.0008
3968.00,0.0008
3967.00,0.0008
3966.00,0.0008
3965.00,0.0008
3964.00,0.0008
3963.00,0.0008
3962.00,0.0008
3961.00,0.0008
3960.00,0.0008
3959.00,0.0008
3958.00,0.0008
3957.00,0.0007
3956.00,0.0007
3955.00,0.0007
3954.00,0.0008
3953.00,0.0008
3952.00,0.0008
3951.00,0.0008
3950.00,0.0008
3949.00,0.0008
3948.00,0.0008
3947.00,0.0008
3946.00,0.0008
3945.00,0.0008
3944.00,0.0007
3943.00,0.0007
3942.00,0.0007
3941.00,0.0007
3940.00,0.0007
3939.00,0.0007
3938.00,0.0008
3937.00,0.0008
3936.00,0.0008
3935.00,0.0008
3934.00,0.0008
3933.00,0.0009
3932.00,0.0008
3931.00,0.0008
3930.00,0.0008
3929.00,0.0008
3928.00,0.0008
3927.00,0.0008
3926.00,0.0008
3925.00,0.0008
3924.00,0.0008
3923.00,0.0009
3922.00,0.0009
3921.00,0.0009
3920.00,0.0009
3919.00,0.0009
3918.00,0.0009
3917.00,0.0009
3916.00,0.0009
3915.00,0.0008
3914.00,0.0008
3913.00,0.0008
3912.00,0.0007
3911.00,0.0007
3910.00,0.0007
3909.00,0.0008
3908.00,0.0008
3907.00,0.0008
3906.00,0.0008
3905.00,0.0008
3904.00,0.0009
3903.00,0.0009
3902.00,0.0009
3901.00,0.0009
3900.00,0.0009
3899.00,0.0009
3898.00,0.0009
3897.00,0.0008
3896.00,0.0008
3895.00,0.0009
3894.00,0.0009
3893.00,0.0008
3892.00,0.0008
3891.00,0.0008
3890.00,0.0008
3889.00,0.0008
3888.00,0.0008
3887.00,0.0008
3886.00,0.0008
3885.00,0.0008
3884.00,0.0008
3883.00,0.0008
3882.00,0.0008
3881.00,0.0008
3880.00,0.0008
3879.00,0.0008
3878.00,0.0008
3877.00,0.0008
3876.00,0.0008
3875.00,0.0008
3874.00,0.0008
3873.00,0.0008
3872.00,0.0008
3871.00,0.0008
3870.00,0.0008
3869.00,0.0009
3868.00,0.0009
3867.00,0.0009
3866.00,0.0009
3865.00,0.0008
3864.00,0.0008
3863.00,0.0008
3862.00,0.0008
3861.00,0.0008
3860.00,0.0008
3859.00,0.0008
3858.00,0.0008
3857.00,0.0008
3856.00,0.0008
3855.00,0.0007
3854.00,0.0007
3853.00,0.0007
3852.00,0.0007
3851.00,0.0007
3850.00,0.0007
3849.00,0.0007
3848.00,0.0007
3847.00,0.0007
3846.00,0.0007
3845.00,0.0007
3844.00,0.0007
3843.00,0.0008
3842.00,0.0008
3841.00,0.0007
3840.00,0.0006
3839.00,0.0006
3838.00,0.0006
3837.00,0.0006
3836.00,0.0007
3835.00,0.0008
3834.00,0.0008
3833.00,0.0008
3832.00,0.0008
3831.00,0.0008
3830.00,0.0007
3829.00,0.0007
3828.00,0.0007
3827.00,0.0007
3826.00,0.0007
3825.00,0.0007
3824.00,0.0008
3823.00,0.0007
3822.00,0.0007
3821.00,0.0007
3820.00,0.0007
3819.00,0.0007
3818.00,0.0007
3817.00,0.0007
3816.00,0.0008
3815.00,0.0008
3814.00,0.0008
3813.00,0.0008
3812.00,0.0008
3811.00,0.0008
3810.00,0.0008
3809.00,0.0008
3808.00,0.0008
3807.00,0.0007
3806.00,0.0007
3805.00,0.0007
3804.00,0.0007
3803.00,0.0007
3802.00,0.0007
3801.00,0.0007
3800.00,0.0007
3799.00,0.0007
3798.00,0.0007
3797.00,0.0007
3796.00,0.0008
3795.00,0.0008
3794.00,0.0008
3793.00,0.0008
3792.00,0.0008
3791.00,0.0008
3790.00,0.0008
3789.00,0.0008
3788.00,0.0008
3787.00,0.0008
3786.00,0.0008
3785.00,0.0008
3784.00,0.0008
3783.00,0.0008
3782.00,0.0008
3781.00,0.0008
3780.00,0.0008
3779.00,0.0008
3778.00,0.0007
3777.00,0.0007
3776.00,0.0007
3775.00,0.0007
3774.00,0.0007
3773.00,0.0008
3772.00,0.0008
3771.00,0.0008
3770.00,0.0008
3769.00,0.0008
3768.00,0.0008
3767.00,0.0009
3766.00,0.0009
3765.00,0.0009
3764.00,0.0009
3763.00,0.0009
3762.00,0.0009
3761.00,0.0009
3760.00,0.0009
3759.00,0.0010
3758.00,0.0009
3757.00,0.0009
3756.00,0.0009
3755.00,0.0009
3754.00,0.0009
3753.00,0.0009
3752.00,0.0009
3751.00,0.0009
3750.00,0.0010
3749.00,0.0010
3748.00,0.0009
3747.00,0.0009
3746.00,0.0008
3745.00,0.0008
3744.00,0.0008
3743.00,0.0008
3742.00,0.0008
3741.00,0.0008
3740.00,0.0009
3739.00,0.0009
3738.00,0.0009
3737.00,0.0010
3736.00,0.0009
3735.00,0.0009
3734.00,0.0008
3733.00,0.0007
3732.00,0.0007
3731.00,0.0007
3730.00,0.0007
3729.00,0.0007
3728.00,0.0007
3727.00,0.0007
3726.00,0.0008
3725.00,0.0008
3724.00,0.0008
3723.00,0.0008
3722.00,0.0008
3721.00,0.0008
3720.00,0.0007
3719.00,0.0007
3718.00,0.0007
3717.00,0.0007
3716.00,0.0008
3715.00,0.0008
3714.00,0.0008
3713.00,0.0007
3712.00,0.0007
3711.00,0.0007
3710.00,0.0006
3709.00,0.0006
3708.00,0.0006
3707.00,0.0006
3706.00,0.0006
3705.00,0.0006
3704.00,0.0006
3703.00,0.0006
3702.00,0.0007
3701.00,0.0007
3700.00,0.0007
3699.00,0.0007
3698.00,0.0007
3697.00,0.0007
3696.00,0.0007
3695.00,0.0007
3694.00,0.0007
3693.00,0.0007
3692.00,0.0007
3691.00,0.0007
3690.00,0.0007
3689.00,0.0007
3688.00,0.0007
3687.00,0.0007
3686.00,0.0007
3685.00,0.0007
3684.00,0.0007
3683.00,0.0007
3682.00,0.0008
3681.00,0.0008
3680.00,0.0009
3679.00,0.0010
3678.00,0.0011
3677.00,0.0011
3676.00,0.0012
3675.00,0.0011
3674.00,0.0011
3673.00,0.0009
3672.00,0.0009
3671.00,0.0008
3670.00,0.0008
3669.00,0.0008
3668.00,0.0008
3667.00,0.0008
3666.00,0.0008
3665.00,0.0008
3664.00,0.0009
3663.00,0.0009
3662.00,0.0009
3661.00,0.0009
3660.00,0.0009
3659.00,0.0009
3658.00,0.0009
3657.00,0.0009
3656.00,0.0009
3655.00,0.0009
3654.00,0.0009
3653.00,0.0009
3652.00,0.0009
3651.00,0.0009
3650.00,0.0010
3649.00,0.0010
3648.00,0.0010
3647.00,0.0010
3646.00,0.0010
3645.00,0.0010
3644.00,0.0010
3643.00,0.0010
3642.00,0.0010
3641.00,0.0010
3640.00,0.0010
3639.00,0.0010
3638.00,0.0010
3637.00,0.0010
3636.00,0.0010
3635.00,0.0011
3634.00,0.0011
3633.00,0.0011
3632.00,0.0011
3631.00,0.0011
3630.00,0.0011
3629.00,0.0012
3628.00,0.0011
3627.00,0.0011
3626.00,0.0011
3625.00,0.0011
3624.00,0.0011
3623.00,0.0011
3622.00,0.0011
3621.00,0.0011
3620.00,0.0012
3619.00,0.0012
3618.00,0.0013
3617.00,0.0013
3616.00,0.0014
3615.00,0.0014
3614.00,0.0014
3613.00,0.0015
3612.00,0.0015
3611.00,0.0015
3610.00,0.0015
3609.00,0.0016
3608.00,0.0016
3607.00,0.0016
3606.00,0.0015
3605.00,0.0015
3604.00,0.0015
3603.00,0.0015
3602.00,0.0016
3601.00,0.0016
3600.00,0.0016
3599.00,0.0016
3598.00,0.0016
3597.00,0.0016
3596.00,0.0017
3595.00,0.0018
3594.00,0.0018
3593.00,0.0019
3592.00,0.0019
3591.00,0.0019
3590.00,0.0019
3589.00,0.0020
3588.00,0.0020
3587.00,0.0021
3586.00,0.0022
3585.00,0.0022
3584.00,0.0022
3583.00,0.0021
3582.00,0.0021
3581.00,0.0021
3580.00,0.0022
3579.00,0.0022
3578.00,0.0022
3577.00,0.0023
3576.00,0.0023
3575.00,0.0023
3574.00,0.0023
3573.00,0.0023
3572.00,0.0024
3571.00,0.0024
3570.00,0.0024
3569.00,0.0025
3568.00,0.0025
3567.00,0.0026
3566.00,0.0027
3565.00,0.0027
3564.00,0.0027
3563.00,0.0027
3562.00,0.0028
3561.00,0.0028
3560.00,0.0028
3559.00,0.0028
3558.00,0.0029
3557.00,0.0029
3556.00,0.0030
3555.00,0.0030
3554.00,0.0030
3553.00,0.0031
3552.00,0.0031
3551.00,0.0032
3550.00,0.0032
3549.00,0.0032
3548.00,0.0033
3547.00,0.0033
3546.00,0.0033
3545.00,0.0033
3544.00,0.0033
3543.00,0.0033
3542.00,0.0034
3541.00,0.0035
3540.00,0.0035
3539.00,0.0036
3538.00,0.0036
3537.00,0.0037
3536.00,0.0037
3535.00,0.0038
3534.00,0.0038
3533.00,0.0039
3532.00,0.0039
3531.00,0.0039
3530.00,0.0039
3529.00,0.0040
3528.00,0.0040
3527.00,0.0041
3526.00,0.0042
3525.00,0.0042
3524.00,0.0042
3523.00,0.0042
3522.00,0.0042
3521.00,0.0042
3520.00,0.0042
3519.00,0.0043
3518.00,0.0043
3517.00,0.0044
3516.00,0.0044
3515.00,0.0044
3514.00,0.0045
3513.00,0.0045
3512.00,0.0046
3511.00,0.0046
3510.00,0.0047
3509.00,0.0048
3508.00,0.0048
3507.00,0.0048
3506.00,0.0048
3505.00,0.0049
3504.00,0.0049
3503.00,0.0049
3502.00,0.0050
3501.00,0.0051
3500.00,0.0051
3499.00,0.0052
3498.00,0.0052
3497.00,0.0052
3496.00,0.0052
3495.00,0.0052
3494.00,0.0052
3493.00,0.0052
3492.00,0.0052
3491.00,0.0053
3490.00,0.0054
3489.00,0.0054
3488.00,0.0055
3487.00,0.0056
3486.00,0.0056
3485.00,0.0057
3484.00,0.0057
3483.00,0.0057
3482.00,0.0058
3481.00,0.0058
3480.00,0.0059
3479.00,0.0060
3478.00,0.0060
3477.00,0.0061
3476.00,0.0061
3475.00,0.0062
3474.00,0.0062
3473.00,0.0062
3472.00,0.0062
3471.00,0.0062
3470.00,0.0061
3469.00,0.0061
3468.00,0.0061
3467.00,0.0062
3466.00,0.0062
3465.00,0.0063
3464.00,0.0063
3463.00,0.0064
3462.00,0.0064
3461.00,0.0065
3460.00,0.0065
3459.00,0.0065
3458.00,0.0065
3457.00,0.0065
3456.00,0.0065
3455.00,0.0066
3454.00,0.0066
3453.00,0.0067
3452.00,0.0067
3451.00,0.0068
3450.00,0.0068
3449.00,0.0069
3448.00,0.0069
3447.00,0.0070
3446.00,0.0070
3445.00,0.0070
3444.00,0.0071
3443.00,0.0071
3442.00,0.0071
3441.00,0.0071
3440.00,0.0071
3439.00,0.0071
3438.00,0.0072
3437.00,0.0072
3436.00,0.0072
3435.00,0.0073
3434.00,0.0073
3433.00,0.0073
3432.00,0.0073
3431.00,0.0074
3430.00,0.0074
3429.00,0.0074
3428.00,0.0074
3427.00,0.0074
3426.00,0.0074
3425.00,0.0075
3424.00,0.0076
3423.00,0.0076
3422.00,0.0077
3421.00,0.0077
3420.00,0.0077
3419.00,0.0077
3418.00,0.0077
3417.00,0.0077
3416.00,0.0078
3415.00,0.0078
3414.00,0.0078
3413.00,0.0078
3412.00,0.0078
3411.00,0.0079
3410.00,0.0079
3409.00,0.0080
3408.00,0.0080
3407.00,0.0080
3406.00,0.0080
3405.00,0.0080
3404.00,0.0080
3403.00,0.0080
3402.00,0.0080
3401.00,0.0080
3400.00,0.0081
3399.00,0.0081
3398.00,0.0081
3397.00,0.0081
3396.00,0.0082
3395.00,0.0082
3394.00,0.0082
3393.00,0.0082
3392.00,0.0082
3391.00,0.0082
3390.00,0.0082
3389.00,0.0082
3388.00,0.0082
3387.00,0.0082
3386.00,0.0083
3385.00,0.0083
3384.00,0.0083
3383.00,0.0083
3382.00,0.0083
3381.00,0.0083
3380.00,0.0083
3379.00,0.0083
3378.00,0.0083
3377.00,0.0083
3376.00,0.0083
3375.00,0.0083
3374.00,0.0083
3373.00,0.0084
3372.00,0.0084
3371.00,0.0084
3370.00,0.0084
3369.00,0.0084
3368.00,0.0084
3367.00,0.0085
3366.00,0.0085
3365.00,0.0084
3364.00,0.0084
3363.00,0.0084
3362.00,0.0084
3361.00,0.0085
3360.00,0.0085
3359.00,0.0085
3358.00,0.0085
3357.00,0.0084
3356.00,0.0084
3355.00,0.0084
3354.00,0.0084
3353.00,0.0085
3352.00,0.0085
3351.00,0.0085
3350.00,0.0085
3349.00,0.0084
3348.00,0.0084
3347.00,0.0084
3346.00,0.0084
3345.00,0.0084
3344.00,0.0084
3343.00,0.0084
3342.00,0.0084
3341.00,0.0084
3340.00,0.0084
3339.00,0.0084
3338.00,0.0084
3337.00,0.0084
3336.00,0.0084
3335.00,0.0083
3334.00,0.0083
3333.00,0.0083
3332.00,0.0083
3331.00,0.0082
3330.00,0.0082
3329.00,0.0082
3328.00,0.0082
3327.00,0.0082
3326.00,0.0082
3325.00,0.0082
3324.00,0.0082
3323.00,0.0082
3322.00,0.0082
3321.00,0.0082
3320.00,0.0082
3319.00,0.0082
3318.00,0.0082
3317.00,0.0082
3316.00,0.0082
3315.00,0.0081
3314.00,0.0081
3313.00,0.0081
3312.00,0.0081
3311.00,0.0081
3310.00,0.0081
3309.00,0.0080
3308.00,0.0080
3307.00,0.0080
3306.00,0.0080
3305.00,0.0080
3304.00,0.0080
3303.00,0.0080
3302.00,0.0080
3301.00,0.0080
3300.00,0.0080
3299.00,0.0079
3298.00,0.0079
3297.00,0.0079
3296.00,0.0079
3295.00,0.0079
3294.00,0.0079
3293.00,0.0079
3292.00,0.0078
3291.00,0.0078
3290.00,0.0078
3289.00,0.0078
3288.00,0.0077
3287.00,0.0077
3286.00,0.0076
3285.00,0.0076
3284.00,0.0076
3283.00,0.0076
3282.00,0.0076
3281.00,0.0076
3280.00,0.0075
3279.00,0.0075
3278.00,0.0075
3277.00,0.0074
3276.00,0.0074
3275.00,0.0073
3274.00,0.0073
3273.00,0.0072
3272.00,0.0072
3271.00,0.0072
3270.00,0.0072
3269.00,0.0072
3268.00,0.0072
3267.00,0.0071
3266.00,0.0071
3265.00,0.0071
3264.00,0.0071
3263.00,0.0071
3262.00,0.0070
3261.00,0.0070
3260.00,0.0069
3259.00,0.0069
3258.00,0.0069
3257.00,0.0069
3256.00,0.0069
3255.00,0.0069
3254.00,0.0069
3253.00,0.0069
3252.00,0.0069
3251.00,0.0068
3250.00,0.0068
3249.00,0.0068
3248.00,0.0067
3247.00,0.0067
3246.00,0.0067
3245.00,0.0066
3244.00,0.0066
3243.00,0.0066
3242.00,0.0066
3241.00,0.0066
3240.00,0.0065
3239.00,0.0065
3238.00,0.0065
3237.00,0.0066
3236.00,0.0066
3235.00,0.0066
3234.00,0.0066
3233.00,0.0066
3232.00,0.0066
3231.00,0.0066
3230.00,0.0066
3229.00,0.0066
3228.00,0.0066
3227.00,0.0066
3226.00,0.0066
3225.00,0.0066
3224.00,0.0067
3223.00,0.0067
3222.00,0.0067
3221.00,0.0066
3220.00,0.0066
3219.00,0.0066
3218.00,0.0066
3217.00,0.0066
3216.00,0.0067
3215.00,0.0067
3214.00,0.0067
3213.00,0.0068
3212.00,0.0068
3211.00,0.0067
3210.00,0.0067
3209.00,0.0067
3208.00,0.0067
3207.00,0.0067
3206.00,0.0067
3205.00,0.0067
3204.00,0.0068
3203.00,0.0068
3202.00,0.0068
3201.00,0.0068
3200.00,0.0068
3199.00,0.0069
3198.00,0.0068
3197.00,0.0068
3196.00,0.0068
3195.00,0.0068
3194.00,0.0068
3193.00,0.0068
3192.00,0.0067
3191.00,0.0067
3190.00,0.0067
3189.00,0.0067
3188.00,0.0067
3187.00,0.0067
3186.00,0.0066
3185.00,0.0066
3184.00,0.0066
3183.00,0.0066
3182.00,0.0066
3181.00,0.0065
3180.00,0.0065
3179.00,0.0064
3178.00,0.0064
3177.00,0.0063
3176.00,0.0062
3175.00,0.0062
3174.00,0.0062
3173.00,0.0061
3172.00,0.0061
3171.00,0.0061
3170.00,0.0061
3169.00,0.0060
3168.00,0.0060
3167.00,0.0060
3166.00,0.0060
3165.00,0.0060
3164.00,0.0059
3163.00,0.0059
3162.00,0.0059
3161.00,0.0059
3160.00,0.0059
3159.00,0.0059
3158.00,0.0058
3157.00,0.0058
3156.00,0.0058
3155.00,0.0058
3154.00,0.0058
3153.00,0.0058
3152.00,0.0058
3151.00,0.0058
3150.00,0.0058
3149.00,0.0058
3148.00,0.0058
3147.00,0.0058
3146.00,0.0058
3145.00,0.0057
3144.00,0.0057
3143.00,0.0056
3142.00,0.0056
3141.00,0.0055
3140.00,0.0055
3139.00,0.0055
3138.00,0.0055
3137.00,0.0055
3136.00,0.0054
3135.00,0.0054
3134.00,0.0054
3133.00,0.0053
3132.00,0.0053
3131.00,0.0053
3130.00,0.0052
3129.00,0.0052
3128.00,0.0052
3127.00,0.0051
3126.00,0.0051
3125.00,0.0051
3124.00,0.0051
3123.00,0.0050
3122.00,0.0050
3121.00,0.0050
3120.00,0.0049
3119.00,0.0049
3118.00,0.0049
3117.00,0.0048
3116.00,0.0047
3115.00,0.0047
3114.00,0.0046
3113.00,0.0047
3112.00,0.0047
3111.00,0.0047
3110.00,0.0047
3109.00,0.0047
3108.00,0.0047
3107.00,0.0046
3106.00,0.0046
3105.00,0.0045
3104.00,0.0045
3103.00,0.0045
3102.00,0.0044
3101.00,0.0044
3100.00,0.0044
3099.00,0.0044
3098.00,0.0044
3097.00,0.0044
3096.00,0.0044
3095.00,0.0044
3094.00,0.0043
3093.00,0.0043
3092.00,0.0042
3091.00,0.0042
3090.00,0.0042
3089.00,0.0042
3088.00,0.0042
3087.00,0.0042
3086.00,0.0042
3085.00,0.0041
3084.00,0.0041
3083.00,0.0041
3082.00,0.0041
3081.00,0.0041
3080.00,0.0041
3079.00,0.0041
3078.00,0.0041
3077.00,0.0041
3076.00,0.0041
3075.00,0.0041
3074.00,0.0041
3073.00,0.0041
3072.00,0.0041
3071.00,0.0041
3070.00,0.0041
3069.00,0.0041
3068.00,0.0041
3067.00,0.0042
3066.00,0.0042
3065.00,0.0042
3064.00,0.0042
3063.00,0.0043
3062.00,0.0043
3061.00,0.0042
3060.00,0.0043
3059.00,0.0043
3058.00,0.0043
3057.00,0.0042
3056.00,0.0043
3055.00,0.0043
3054.00,0.0043
3053.00,0.0044
3052.00,0.0044
3051.00,0.0044
3050.00,0.0045
3049.00,0.0045
3048.00,0.0045
3047.00,0.0044
3046.00,0.0044
3045.00,0.0044
3044.00,0.0044
3043.00,0.0044
3042.00,0.0045
3041.00,0.0045
3040.00,0.0046
3039.00,0.0046
3038.00,0.0046
3037.00,0.0047
3036.00,0.0047
3035.00,0.0047
3034.00,0.0048
3033.00,0.0048
3032.00,0.0048
3031.00,0.0049
3030.00,0.0049
3029.00,0.0050
3028.00,0.0050
3027.00,0.0051
3026.00,0.0051
3025.00,0.0052
3024.00,0.0053
3023.00,0.0053
3022.00,0.0053
3021.00,0.0054
3020.00,0.0054
3019.00,0.0055
3018.00,0.0056
3017.00,0.0057
3016.00,0.0058
3015.00,0.0059
3014.00,0.0061
3013.00,0.0062
3012.00,0.0063
3011.00,0.0064
3010.00,0.0065
3009.00,0.0066
3008.00,0.0068
3007.00,0.0070
3006.00,0.0072
3005.00,0.0074
3004.00,0.0076
3003.00,0.0078
3002.00,0.0080
3001.00,0.0083
3000.00,0.0085
2999.00,0.0088
2998.00,0.0091
2997.00,0.0095
2996.00,0.0099
2995.00,0.0104
2994.00,0.0108
2993.00,0.0113
2992.00,0.0119
2991.00,0.0125
2990.00,0.0132
2989.00,0.0140
2988.00,0.0148
2987.00,0.0157
2986.00,0.0167
2985.00,0.0179
2984.00,0.0192
2983.00,0.0207
2982.00,0.0224
2981.00,0.0242
2980.00,0.0263
2979.00,0.0287
2978.00,0.0314
2977.00,0.0345
2976.00,0.0381
2975.00,0.0421
2974.00,0.0467
2973.00,0.0520
2972.00,0.0579
2971.00,0.0646
2970.00,0.0720
2969.00,0.0803
2968.00,0.0894
2967.00,0.0994
2966.00,0.1102
2965.00,0.1216
2964.00,0.1333
2963.00,0.1448
2962.00,0.1556
2961.00,0.1651
2960.00,0.1729
2959.00,0.1789
2958.00,0.1831
2957.00,0.1860
2956.00,0.1883
2955.00,0.1903
2954.00,0.1926
2953.00,0.1950
2952.00,0.1970
2951.00,0.1978
2950.00,0.1966
2949.00,0.1927
2948.00,0.1857
2947.00,0.1759
2946.00,0.1641
2945.00,0.1513
2944.00,0.1389
2943.00,0.1279
2942.00,0.1190
2941.00,0.1124
2940.00,0.1083
2939.00,0.1065
2938.00,0.1067
2937.00,0.1087
2936.00,0.1123
2935.00,0.1172
2934.00,0.1235
2933.00,0.1308
2932.00,0.1391
2931.00,0.1481
2930.00,0.1576
2929.00,0.1671
2928.00,0.1764
2927.00,0.1853
2926.00,0.1937
2925.00,0.2015
2924.00,0.2088
2923.00,0.2158
2922.00,0.2225
2921.00,0.2287
2920.00,0.2341
2919.00,0.2382
2918.00,0.2403
2917.00,0.2401
2916.00,0.2373
2915.00,0.2324
2914.00,0.2259
2913.00,0.2187
2912.00,0.2115
2911.00,0.2046
2910.00,0.1984
2909.00,0.1928
2908.00,0.1874
2907.00,0.1822
2906.00,0.1768
2905.00,0.1711
2904.00,0.1649
2903.00,0.1585
2902.00,0.1518
2901.00,0.1451
2900.00,0.1385
2899.00,0.1321
2898.00,0.1262
2897.00,0.1209
2896.00,0.1161
2895.00,0.1121
2894.00,0.1087
2893.00,0.1060
2892.00,0.1039
2891.00,0.1025
2890.00,0.1017
2889.00,0.1013
2888.00,0.1013
2887.00,0.1016
2886.00,0.1023
2885.00,0.1033
2884.00,0.1048
2883.00,0.1066
2882.00,0.1087
2881.00,0.1110
2880.00,0.1132
2879.00,0.1150
2878.00,0.1161
2877.00,0.1164
2876.00,0.1160
2875.00,0.1152
2874.00,0.1145
2873.00,0.1143
2872.00,0.1148
2871.00,0.1160
2870.00,0.1177
2869.00,0.1193
2868.00,0.1204
2867.00,0.1200
2866.00,0.1177
2865.00,0.1130
2864.00,0.1065
2863.00,0.0986
2862.00,0.0905
2861.00,0.0828
2860.00,0.0763
2859.00,0.0710
2858.00,0.0671
2857.00,0.0644
2856.00,0.0626
2855.00,0.0616
2854.00,0.0614
2853.00,0.0616
2852.00,0.0624
2851.00,0.0638
2850.00,0.0656
2849.00,0.0680
2848.00,0.0711
2847.00,0.0750
2846.00,0.0798
2845.00,0.0855
2844.00,0.0922
2843.00,0.0994
2842.00,0.1069
2841.00,0.1141
2840.00,0.1200
2839.00,0.1238
2838.00,0.1247
2837.00,0.1222
2836.00,0.1162
2835.00,0.1073
2834.00,0.0967
2833.00,0.0855
2832.00,0.0748
2831.00,0.0653
2830.00,0.0573
2829.00,0.0507
2828.00,0.0454
2827.00,0.0410
2826.00,0.0375
2825.00,0.0346
2824.00,0.0321
2823.00,0.0301
2822.00,0.0283
2821.00,0.0268
2820.00,0.0255
2819.00,0.0243
2818.00,0.0232
2817.00,0.0223
2816.00,0.0215
2815.00,0.0208
2814.00,0.0202
2813.00,0.0196
2812.00,0.0191
2811.00,0.0186
2810.00,0.0180
2809.00,0.0175
2808.00,0.0170
2807.00,0.0164
2806.00,0.0158
2805.00,0.0151
2804.00,0.0145
2803.00,0.0139
2802.00,0.0133
2801.00,0.0129
2800.00,0.0126
2799.00,0.0123
2798.00,0.0120
2797.00,0.0117
2796.00,0.0115
2795.00,0.0112
2794.00,0.0110
2793.00,0.0107
2792.00,0.0104
2791.00,0.0100
2790.00,0.0097
2789.00,0.0093
2788.00,0.0090
2787.00,0.0087
2786.00,0.0084
2785.00,0.0081
2784.00,0.0079
2783.00,0.0076
2782.00,0.0074
2781.00,0.0072
2780.00,0.0070
2779.00,0.0068
2778.00,0.0067
2777.00,0.0065
2776.00,0.0064
2775.00,0.0063
2774.00,0.0061
2773.00,0.0061
2772.00,0.0060
2771.00,0.0059
2770.00,0.0059
2769.00,0.0059
2768.00,0.0059
2767.00,0.0058
2766.00,0.0058
2765.00,0.0058
2764.00,0.0057
2763.00,0.0057
2762.00,0.0057
2761.00,0.0057
2760.00,0.0057
2759.00,0.0056
2758.00,0.0056
2757.00,0.0055
2756.00,0.0055
2755.00,0.0055
2754.00,0.0054
2753.00,0.0054
2752.00,0.0053
2751.00,0.0053
2750.00,0.0053
2749.00,0.0053
2748.00,0.0054
2747.00,0.0054
2746.00,0.0055
2745.00,0.0055
2744.00,0.0056
2743.00,0.0057
2742.00,0.0058
2741.00,0.0059
2740.00,0.0060
2739.00,0.0062
2738.00,0.0063
2737.00,0.0065
2736.00,0.0066
2735.00,0.0068
2734.00,0.0069
2733.00,0.0070
2732.00,0.0072
2731.00,0.0073
2730.00,0.0075
2729.00,0.0078
2728.00,0.0080
2727.00,0.0083
2726.00,0.0085
2725.00,0.0087
2724.00,0.0089
2723.00,0.0089
2722.00,0.0088
2721.00,0.0086
2720.00,0.0083
2719.00,0.0080
2718.00,0.0077
2717.00,0.0074
2716.00,0.0072
2715.00,0.0069
2714.00,0.0067
2713.00,0.0065
2712.00,0.0063
2711.00,0.0061
2710.00,0.0059
2709.00,0.0058
2708.00,0.0056
2707.00,0.0055
2706.00,0.0054
2705.00,0.0053
2704.00,0.0052
2703.00,0.0052
2702.00,0.0051
2701.00,0.0050
2700.00,0.0050
2699.00,0.0049
2698.00,0.0048
2697.00,0.0048
2696.00,0.0048
2695.00,0.0048
2694.00,0.0048
2693.00,0.0048
2692.00,0.0048
2691.00,0.0048
2690.00,0.0048
2689.00,0.0047
2688.00,0.0047
2687.00,0.0047
2686.00,0.0047
2685.00,0.0047
2684.00,0.0047
2683.00,0.0047
2682.00,0.0047
2681.00,0.0048
2680.00,0.0048
2679.00,0.0048
2678.00,0.0048
2677.00,0.0048
2676.00,0.0047
2675.00,0.0047
2674.00,0.0047
2673.00,0.0047
2672.00,0.0047
2671.00,0.0047
2670.00,0.0047
2669.00,0.0046
2668.00,0.0046
2667.00,0.0046
2666.00,0.0046
2665.00,0.0047
2664.00,0.0048
2663.00,0.0048
2662.00,0.0049
2661.00,0.0049
2660.00,0.0049
2659.00,0.0049
2658.00,0.0049
2657.00,0.0049
2656.00,0.0049
2655.00,0.0048
2654.00,0.0047
2653.00,0.0047
2652.00,0.0046
2651.00,0.0046
2650.00,0.0045
2649.00,0.0045
2648.00,0.0045
2647.00,0.0044
2646.00,0.0044
2645.00,0.0044
2644.00,0.0043
2643.00,0.0043
2642.00,0.0043
2641.00,0.0042
2640.00,0.0041
2639.00,0.0041
2638.00,0.0040
2637.00,0.0040
2636.00,0.0040
2635.00,0.0040
2634.00,0.0040
2633.00,0.0039
2632.00,0.0039
2631.00,0.0040
2630.00,0.0040
2629.00,0.0040
2628.00,0.0041
2627.00,0.0040
2626.00,0.0040
2625.00,0.0041
2624.00,0.0041
2623.00,0.0042
2622.00,0.0042
2621.00,0.0043
2620.00,0.0043
2619.00,0.0043
2618.00,0.0043
2617.00,0.0042
2616.00,0.0042
2615.00,0.0041
2614.00,0.0041
2613.00,0.0040
2612.00,0.0039
2611.00,0.0039
2610.00,0.0039
2609.00,0.0038
2608.00,0.0038
2607.00,0.0037
2606.00,0.0036
2605.00,0.0035
2604.00,0.0035
2603.00,0.0034
2602.00,0.0034
2601.00,0.0034
2600.00,0.0033
2599.00,0.0034
2598.00,0.0034
2597.00,0.0034
2596.00,0.0034
2595.00,0.0033
2594.00,0.0032
2593.00,0.0033
2592.00,0.0034
2591.00,0.0035
2590.00,0.0036
2589.00,0.0037
2588.00,0.0038
2587.00,0.0038
2586.00,0.0038
2585.00,0.0038
2584.00,0.0039
2583.00,0.0039
2582.00,0.0040
2581.00,0.0040
2580.00,0.0040
2579.00,0.0039
2578.00,0.0039
2577.00,0.0037
2576.00,0.0036
2575.00,0.0034
2574.00,0.0033
2573.00,0.0032
2572.00,0.0031
2571.00,0.0030
2570.00,0.0029
2569.00,0.0028
2568.00,0.0028
2567.00,0.0028
2566.00,0.0027
2565.00,0.0027
2564.00,0.0026
2563.00,0.0026
2562.00,0.0026
2561.00,0.0026
2560.00,0.0026
2559.00,0.0026
2558.00,0.0026
2557.00,0.0027
2556.00,0.0026
2555.00,0.0026
2554.00,0.0025
2553.00,0.0024
2552.00,0.0023
2551.00,0.0023
2550.00,0.0022
2549.00,0.0022
2548.00,0.0021
2547.00,0.0021
2546.00,0.0020
2545.00,0.0019
2544.00,0.0019
2543.00,0.0018
2542.00,0.0018
2541.00,0.0018
2540.00,0.0019
2539.00,0.0019
2538.00,0.0020
2537.00,0.0020
2536.00,0.0019
2535.00,0.0019
2534.00,0.0018
2533.00,0.0018
2532.00,0.0017
2531.00,0.0017
2530.00,0.0016
2529.00,0.0016
2528.00,0.0016
2527.00,0.0016
2526.00,0.0016
2525.00,0.0016
2524.00,0.0016
2523.00,0.0015
2522.00,0.0015
2521.00,0.0015
2520.00,0.0015
2519.00,0.0015
2518.00,0.0014
2517.00,0.0014
2516.00,0.0013
2515.00,0.0013
2514.00,0.0013
2513.00,0.0013
2512.00,0.0013
2511.00,0.0012
2510.00,0.0011
2509.00,0.0011
2508.00,0.0011
2507.00,0.0012
2506.00,0.0012
2505.00,0.0012
2504.00,0.0011
2503.00,0.0011
2502.00,0.0011
2501.00,0.0012
2500.00,0.0012
2499.00,0.0011
2498.00,0.0011
2497.00,0.0011
2496.00,0.0012
2495.00,0.0012
2494.00,0.0012
2493.00,0.0013
2492.00,0.0013
2491.00,0.0012
2490.00,0.0012
2489.00,0.0012
2488.00,0.0012
2487.00,0.0012
2486.00,0.0012
2485.00,0.0012
2484.00,0.0012
2483.00,0.0012
2482.00,0.0012
2481.00,0.0012
2480.00,0.0012
2479.00,0.0012
2478.00,0.0012
2477.00,0.0012
2476.00,0.0011
2475.00,0.0011
2474.00,0.0011
2473.00,0.0011
2472.00,0.0011
2471.00,0.0011
2470.00,0.0010
2469.00,0.0010
2468.00,0.0009
2467.00,0.0009
2466.00,0.0009
2465.00,0.0009
2464.00,0.0010
2463.00,0.0011
2462.00,0.0011
2461.00,0.0011
2460.00,0.0011
2459.00,0.0012
2458.00,0.0012
2457.00,0.0012
2456.00,0.0013
2455.00,0.0013
2454.00,0.0013
2453.00,0.0013
2452.00,0.0013
2451.00,0.0012
2450.00,0.0012
2449.00,0.0012
2448.00,0.0013
2447.00,0.0013
2446.00,0.0012
2445.00,0.0012
2444.00,0.0012
2443.00,0.0012
2442.00,0.0012
2441.00,0.0012
2440.00,0.0012
2439.00,0.0012
2438.00,0.0012
2437.00,0.0013
2436.00,0.0014
2435.00,0.0015
2434.00,0.0015
2433.00,0.0015
2432.00,0.0014
2431.00,0.0014
2430.00,0.0013
2429.00,0.0013
2428.00,0.0014
2427.00,0.0014
2426.00,0.0014
2425.00,0.0013
2424.00,0.0013
2423.00,0.0012
2422.00,0.0012
2421.00,0.0012
2420.00,0.0012
2419.00,0.0013
2418.00,0.0013
2417.00,0.0012
2416.00,0.0012
2415.00,0.0011
2414.00,0.0010
2413.00,0.0010
2412.00,0.0011
2411.00,0.0011
2410.00,0.0011
2409.00,0.0011
2408.00,0.0010
2407.00,0.0009
2406.00,0.0009
2405.00,0.0009
2404.00,0.0010
2403.00,0.0011
2402.00,0.0011
2401.00,0.0010
2400.00,0.0010
2399.00,0.0010
2398.00,0.0010
2397.00,0.0010
2396.00,0.0010
2395.00,0.0009
2394.00,0.0009
2393.00,0.0009
2392.00,0.0009
2391.00,0.0009
2390.00,0.0009
2389.00,0.0009
2388.00,0.0008
2387.00,0.0008
2386.00,0.0008
2385.00,0.0007
2384.00,0.0007
2383.00,0.0006
2382.00,0.0005
2381.00,0.0004
2380.00,0.0004
2379.00,0.0003
2378.00,0.0004
2377.00,0.0004
2376.00,0.0005
2375.00,0.0006
2374.00,0.0005
2373.00,0.0004
2372.00,0.0003
2371.00,0.0003
2370.00,0.0003
2369.00,0.0003
2368.00,0.0003
2367.00,0.0003
2366.00,0.0003
2365.00,0.0003
2364.00,0.0004
2363.00,0.0004
2362.00,0.0005
2361.00,0.0005
2360.00,0.0005
2359.00,0.0005
2358.00,0.0004
2357.00,0.0004
2356.00,0.0004
2355.00,0.0004
2354.00,0.0005
2353.00,0.0005
2352.00,0.0004
2351.00,0.0003
2350.00,0.0003
2349.00,0.0003
2348.00,0.0004
2347.00,0.0005
2346.00,0.0006
2345.00,0.0006
2344.00,0.0006
2343.00,0.0007
2342.00,0.0007
2341.00,0.0007
2340.00,0.0007
2339.00,0.0006
2338.00,0.0006
2337.00,0.0006
2336.00,0.0006
2335.00,0.0007
2334.00,0.0007
2333.00,0.0007
2332.00,0.0007
2331.00,0.0006
2330.00,0.0006
2329.00,0.0006
2328.00,0.0008
2327.00,0.0012
2326.00,0.0016
2325.00,0.0020
2324.00,0.0022
2323.00,0.0021
2322.00,0.0019
2321.00,0.0016
2320.00,0.0014
2319.00,0.0013
2318.00,0.0012
2317.00,0.0012
2316.00,0.0012
2315.00,0.0013
2314.00,0.0013
2313.00,0.0012
2312.00,0.0011
2311.00,0.0010
2310.00,0.0010
2309.00,0.0010
2308.00,0.0010
2307.00,0.0011
2306.00,0.0011
2305.00,0.0011
2304.00,0.0011
2303.00,0.0011
2302.00,0.0012
2301.00,0.0012
2300.00,0.0013
2299.00,0.0013
2298.00,0.0012
2297.00,0.0012
2296.00,0.0012
2295.00,0.0012
2294.00,0.0014
2293.00,0.0015
2292.00,0.0017
2291.00,0.0018
2290.00,0.0019
2289.00,0.0019
2288.00,0.0019
2287.00,0.0019
2286.00,0.0019
2285.00,0.0019
2284.00,0.0019
2283.00,0.0019
2282.00,0.0019
2281.00,0.0018
2280.00,0.0018
2279.00,0.0017
2278.00,0.0017
2277.00,0.0016
2276.00,0.0015
2275.00,0.0014
2274.00,0.0015
2273.00,0.0016
2272.00,0.0017
2271.00,0.0017
2270.00,0.0016
2269.00,0.0016
2268.00,0.0016
2267.00,0.0015
2266.00,0.0015
2265.00,0.0014
2264.00,0.0013
2263.00,0.0013
2262.00,0.0013
2261.00,0.0013
2260.00,0.0013
2259.00,0.0013
2258.00,0.0012
2257.00,0.0012
2256.00,0.0011
2255.00,0.0010
2254.00,0.0009
2253.00,0.0009
2252.00,0.0009
2251.00,0.0010
2250.00,0.0011
2249.00,0.0011
2248.00,0.0011
2247.00,0.0010
2246.00,0.0009
2245.00,0.0009
2244.00,0.0009
2243.00,0.0009
2242.00,0.0010
2241.00,0.0010
2240.00,0.0010
2239.00,0.0010
2238.00,0.0009
2237.00,0.0009
2236.00,0.0009
2235.00,0.0011
2234.00,0.0013
2233.00,0.0014
2232.00,0.0015
2231.00,0.0015
2230.00,0.0014
2229.00,0.0013
2228.00,0.0012
2227.00,0.0010
2226.00,0.0008
2225.00,0.0007
2224.00,0.0007
2223.00,0.0007
2222.00,0.0007
2221.00,0.0007
2220.00,0.0008
2219.00,0.0008
2218.00,0.0007
2217.00,0.0007
2216.00,0.0007
2215.00,0.0006
2214.00,0.0006
2213.00,0.0007
2212.00,0.0007
2211.00,0.0008
2210.00,0.0008
2209.00,0.0008
2208.00,0.0008
2207.00,0.0007
2206.00,0.0007
2205.00,0.0007
2204.00,0.0007
2203.00,0.0007
2202.00,0.0007
2201.00,0.0007
2200.00,0.0008
2199.00,0.0008
2198.00,0.0009
2197.00,0.0010
2196.00,0.0012
2195.00,0.0012
2194.00,0.0011
2193.00,0.0010
2192.00,0.0010
2191.00,0.0011
2190.00,0.0012
2189.00,0.0014
2188.00,0.0015
2187.00,0.0015
2186.00,0.0014
2185.00,0.0012
2184.00,0.0010
2183.00,0.0008
2182.00,0.0008
2181.00,0.0009
2180.00,0.0011
2179.00,0.0012
2178.00,0.0013
2177.00,0.0012
2176.00,0.0010
2175.00,0.0009
2174.00,0.0008
2173.00,0.0009
2172.00,0.0012
2171.00,0.0014
2170.00,0.0016
2169.00,0.0017
2168.00,0.0017
2167.00,0.0018
2166.00,0.0018
2165.00,0.0018
2164.00,0.0018
2163.00,0.0019
2162.00,0.0021
2161.00,0.0019
2160.00,0.0008
2159.00,-0.0008
2158.00,-0.0021
2157.00,-0.0027
2156.00,-0.0027
2155.00,-0.0024
2154.00,-0.0020
2153.00,-0.0015
2152.00,-0.0011
2151.00,-0.0008
2150.00,-0.0006
2149.00,-0.0007
2148.00,-0.0009
2147.00,-0.0011
2146.00,-0.0013
2145.00,-0.0014
2144.00,-0.0013
2143.00,-0.0012
2142.00,-0.0011
2141.00,-0.0010
2140.00,-0.0010
2139.00,-0.0011
2138.00,-0.0012
2137.00,-0.0012
2136.00,-0.0013
2135.00,-0.0014
2134.00,-0.0015
2133.00,-0.0014
2132.00,-0.0012
2131.00,-0.0011
2130.00,-0.0010
2129.00,-0.0009
2128.00,-0.0008
2127.00,-0.0007
2126.00,-0.0006
2125.00,-0.0005
2124.00,-0.0004
2123.00,-0.0004
2122.00,-0.0003
2121.00,-0.0002
2120.00,-0.0001
2119.00,-0.0000
2118.00,0.0000
2117.00,0.0002
2116.00,0.0004
2115.00,0.0006
2114.00,0.0007
2113.00,0.0007
2112.00,0.0006
2111.00,0.0005
2110.00,0.0004
2109.00,0.0004
2108.00,0.0005
2107.00,0.0005
2106.00,0.0006
2105.00,0.0006
2104.00,0.0005
2103.00,0.0005
2102.00,0.0004
2101.00,0.0004
2100.00,0.0005
2099.00,0.0005
2098.00,0.0005
2097.00,0.0004
2096.00,0.0003
2095.00,0.0000
2094.00,-0.0002
2093.00,-0.0003
2092.00,-0.0004
2091.00,-0.0003
2090.00,-0.0002
2089.00,-0.0001
2088.00,0.0001
2087.00,0.0002
2086.00,0.0004
2085.00,0.0004
2084.00,0.0004
2083.00,0.0004
2082.00,0.0003
2081.00,0.0003
2080.00,0.0003
2079.00,0.0004
2078.00,0.0006
2077.00,0.0008
2076.00,0.0009
2075.00,0.0010
2074.00,0.0009
2073.00,0.0007
2072.00,0.0005
2071.00,0.0002
2070.00,0.0001
2069.00,-0.0000
2068.00,-0.0000
2067.00,-0.0001
2066.00,-0.0001
2065.00,-0.0002
2064.00,-0.0001
2063.00,-0.0000
2062.00,0.0001
2061.00,0.0002
2060.00,0.0004
2059.00,0.0005
2058.00,0.0006
2057.00,0.0008
2056.00,0.0008
2055.00,0.0008
2054.00,0.0008
2053.00,0.0010
2052.00,0.0014
2051.00,0.0017
2050.00,0.0017
2049.00,0.0014
2048.00,0.0010
2047.00,0.0006
2046.00,0.0003
2045.00,0.0002
2044.00,0.0003
2043.00,0.0005
2042.00,0.0004
2041.00,0.0003
2040.00,0.0001
2039.00,0.0001
2038.00,0.0001
2037.00,0.0002
2036.00,-0.0000
2035.00,-0.0004
2034.00,-0.0008
2033.00,-0.0008
2032.00,-0.0006
2031.00,-0.0002
2030.00,0.0001
2029.00,0.0002
2028.00,0.0001
2027.00,-0.0000
2026.00,-0.0002
2025.00,-0.0004
2024.00,-0.0005
2023.00,-0.0006
2022.00,-0.0006
2021.00,-0.0006
2020.00,-0.0007
2019.00,-0.0008
2018.00,-0.0008
2017.00,-0.0006
2016.00,-0.0005
2015.00,-0.0005
2014.00,-0.0007
2013.00,-0.0009
2012.00,-0.0010
2011.00,-0.0009
2010.00,-0.0008
2009.00,-0.0009
2008.00,-0.0011
2007.00,-0.0015
2006.00,-0.0017
2005.00,-0.0017
2004.00,-0.0015
2003.00,-0.0014
2002.00,-0.0013
2001.00,-0.0012
2000.00,-0.0012
1999.00,-0.0013
1998.00,-0.0013
1997.00,-0.0013
1996.00,-0.0013
1995.00,-0.0013
1994.00,-0.0012
1993.00,-0.0012
1992.00,-0.0011
1991.00,-0.0010
1990.00,-0.0009
1989.00,-0.0007
1988.00,-0.0005
1987.00,-0.0003
1986.00,-0.0001
1985.00,0.0000
1984.00,0.0001
1983.00,0.0003
1982.00,0.0004
1981.00,0.0006
1980.00,0.0006
1979.00,0.0004
1978.00,-0.0002
1977.00,-0.0007
1976.00,-0.0012
1975.00,-0.0015
1974.00,-0.0017
1973.00,-0.0017
1972.00,-0.0015
1971.00,-0.0011
1970.00,-0.0008
1969.00,-0.0005
1968.00,-0.0005
1967.00,-0.0006
1966.00,-0.0006
1965.00,-0.0007
1964.00,-0.0007
1963.00,-0.0009
1962.00,-0.0012
1961.00,-0.0014
1960.00,-0.0016
1959.00,-0.0017
1958.00,-0.0017
1957.00,-0.0017
1956.00,-0.0016
1955.00,-0.0015
1954.00,-0.0014
1953.00,-0.0013
1952.00,-0.0012
1951.00,-0.0010
1950.00,-0.0009
1949.00,-0.0010
1948.00,-0.0011
1947.00,-0.0012
1946.00,-0.0014
1945.00,-0.0015
1944.00,-0.0017
1943.00,-0.0017
1942.00,-0.0017
1941.00,-0.0015
1940.00,-0.0014
1939.00,-0.0013
1938.00,-0.0011
1937.00,-0.0010
1936.00,-0.0010
1935.00,-0.0011
1934.00,-0.0011
1933.00,-0.0009
1932.00,-0.0007
1931.00,-0.0006
1930.00,-0.0006
1929.00,-0.0007
1928.00,-0.0008
1927.00,-0.0008
1926.00,-0.0007
1925.00,-0.0006
1924.00,-0.0005
1923.00,-0.0005
1922.00,-0.0005
1921.00,-0.0005
1920.00,-0.0005
1919.00,-0.0005
1918.00,-0.0004
1917.00,-0.0003
1916.00,-0.0002
1915.00,-0.0002
1914.00,-0.0002
1913.00,-0.0003
1912.00,-0.0003
1911.00,-0.0003
1910.00,-0.0002
1909.00,-0.0001
1908.00,0.0000
1907.00,0.0001
1906.00,0.0001
1905.00,0.0000
1904.00,-0.0000
1903.00,-0.0001
1902.00,-0.0002
1901.00,-0.0002
1900.00,-0.0001
1899.00,-0.0001
1898.00,-0.0002
1897.00,-0.0002
1896.00,-0.0003
1895.00,-0.0003
1894.00,-0.0003
1893.00,-0.0002
1892.00,-0.0001
1891.00,0.0000
1890.00,0.0001
1889.00,0.0001
1888.00,0.0001
1887.00,0.0000
1886.00,-0.0000
1885.00,-0.0000
1884.00,0.0000
1883.00,0.0001
1882.00,0.0002
1881.00,0.0002
1880.00,0.0002
1879.00,0.0000
1878.00,-0.0001
1877.00,-0.0001
1876.00,-0.0001
1875.00,0.0000
1874.00,0.0001
1873.00,0.0002
1872.00,0.0003
1871.00,0.0002
1870.00,0.0001
1869.00,0.0001
1868.00,0.0001
1867.00,0.0001
1866.00,0.0001
1865.00,0.0000
1864.00,0.0001
1863.00,0.0001
1862.00,0.0001
1861.00,0.0001
1860.00,0.0001
1859.00,0.0002
1858.00,0.0002
1857.00,0.0002
1856.00,0.0002
1855.00,0.0001
1854.00,0.0000
1853.00,0.0001
1852.00,0.0001
1851.00,0.0002
1850.00,0.0002
1849.00,0.0002
1848.00,0.0003
1847.00,0.0003
1846.00,0.0004
1845.00,0.0004
1844.00,0.0004
1843.00,0.0004
1842.00,0.0004
1841.00,0.0004
1840.00,0.0004
1839.00,0.0005
1838.00,0.0005
1837.00,0.0006
1836.00,0.0006
1835.00,0.0005
1834.00,0.0004
1833.00,0.0004
1832.00,0.0003
1831.00,0.0003
1830.00,0.0004
1829.00,0.0004
1828.00,0.0004
1827.00,0.0003
1826.00,0.0003
1825.00,0.0004
1824.00,0.0006
1823.00,0.0006
1822.00,0.0006
1821.00,0.0006
1820.00,0.0005
1819.00,0.0004
1818.00,0.0003
1817.00,0.0002
1816.00,0.0002
1815.00,0.0002
1814.00,0.0003
1813.00,0.0003
1812.00,0.0003
1811.00,0.0004
1810.00,0.0004
1809.00,0.0005
1808.00,0.0006
1807.00,0.0006
1806.00,0.0005
1805.00,0.0004
1804.00,0.0004
1803.00,0.0004
1802.00,0.0004
1801.00,0.0005
1800.00,0.0005
1799.00,0.0006
1798.00,0.0007
1797.00,0.0007
1796.00,0.0007
1795.00,0.0007
1794.00,0.0007
1793.00,0.0007
1792.00,0.0008
1791.00,0.0008
1790.00,0.0008
1789.00,0.0008
1788.00,0.0009
1787.00,0.0010
1786.00,0.0010
1785.00,0.0010
1784.00,0.0010
1783.00,0.0010
1782.00,0.0010
1781.00,0.0010
1780.00,0.0010
1779.00,0.0010
1778.00,0.0010
1777.00,0.0010
1776.00,0.0010
1775.00,0.0010
1774.00,0.0010
1773.00,0.0010
1772.00,0.0010
1771.00,0.0010
1770.00,0.0010
1769.00,0.0010
1768.00,0.0011
1767.00,0.0011
1766.00,0.0011
1765.00,0.0012
1764.00,0.0012
1763.00,0.0012
1762.00,0.0013
1761.00,0.0013
1760.00,0.0014
1759.00,0.0014
1758.00,0.0015
1757.00,0.0015
1756.00,0.0016
1755.00,0.0016
1754.00,0.0016
1753.00,0.0017
1752.00,0.0018
1751.00,0.0019
1750.00,0.0020
1749.00,0.0020
1748.00,0.0021
1747.00,0.0021
1746.00,0.0021
1745.00,0.0022
1744.00,0.0023
1743.00,0.0023
1742.00,0.0024
1741.00,0.0024
1740.00,0.0025
1739.00,0.0025
1738.00,0.0025
1737.00,0.0026
1736.00,0.0027
1735.00,0.0027
1734.00,0.0027
1733.00,0.0026
1732.00,0.0026
1731.00,0.0025
1730.00,0.0025
1729.00,0.0026
1728.00,0.0026
1727.00,0.0026
1726.00,0.0026
1725.00,0.0026
1724.00,0.0027
1723.00,0.0027
1722.00,0.0026
1721.00,0.0025
1720.00,0.0025
1719.00,0.0025
1718.00,0.0025
1717.00,0.0025
1716.00,0.0026
1715.00,0.0026
1714.00,0.0026
1713.00,0.0027
1712.00,0.0027
1711.00,0.0027
1710.00,0.0027
1709.00,0.0027
1708.00,0.0028
1707.00,0.0028
1706.00,0.0028
1705.00,0.0029
1704.00,0.0030
1703.00,0.0031
1702.00,0.0031
1701.00,0.0032
1700.00,0.0033
1699.00,0.0033
1698.00,0.0033
1697.00,0.0034
1696.00,0.0035
1695.00,0.0036
1694.00,0.0037
1693.00,0.0038
1692.00,0.0038
1691.00,0.0039
1690.00,0.0041
1689.00,0.0042
1688.00,0.0043
1687.00,0.0043
1686.00,0.0044
1685.00,0.0045
1684.00,0.0047
1683.00,0.0048
1682.00,0.0050
1681.00,0.0051
1680.00,0.0053
1679.00,0.0054
1678.00,0.0056
1677.00,0.0057
1676.00,0.0058
1675.00,0.0059
1674.00,0.0060
1673.00,0.0061
1672.00,0.0062
1671.00,0.0064
1670.00,0.0065
1669.00,0.0067
1668.00,0.0068
1667.00,0.0069
1666.00,0.0069
1665.00,0.0069
1664.00,0.0070
1663.00,0.0072
1662.00,0.0073
1661.00,0.0074
1660.00,0.0076
1659.00,0.0077
1658.00,0.0077
1657.00,0.0078
1656.00,0.0079
1655.00,0.0079
1654.00,0.0079
1653.00,0.0080
1652.00,0.0082
1651.00,0.0084
1650.00,0.0085
1649.00,0.0086
1648.00,0.0088
1647.00,0.0089
1646.00,0.0090
1645.00,0.0090
1644.00,0.0090
1643.00,0.0091
1642.00,0.0091
1641.00,0.0091
1640.00,0.0092
1639.00,0.0092
1638.00,0.0092
1637.00,0.0092
1636.00,0.0092
1635.00,0.0092
1634.00,0.0092
1633.00,0.0091
1632.00,0.0091
1631.00,0.0091
1630.00,0.0090
1629.00,0.0090
1628.00,0.0090
1627.00,0.0090
1626.00,0.0090
1625.00,0.0090
1624.00,0.0089
1623.00,0.0088
1622.00,0.0088
1621.00,0.0087
1620.00,0.0087
1619.00,0.0086
1618.00,0.0086
1617.00,0.0086
1616.00,0.0087
1615.00,0.0087
1614.00,0.0087
1613.00,0.0086
1612.00,0.0086
1611.00,0.0086
1610.00,0.0086
1609.00,0.0086
1608.00,0.0087
1607.00,0.0088
1606.00,0.0088
1605.00,0.0087
1604.00,0.0087
1603.00,0.0087
1602.00,0.0086
1601.00,0.0086
1600.00,0.0086
1599.00,0.0085
1598.00,0.0085
1597.00,0.0084
1596.00,0.0084
1595.00,0.0083
1594.00,0.0083
1593.00,0.0082
1592.00,0.0082
1591.00,0.0081
1590.00,0.0081
1589.00,0.0081
1588.00,0.0082
1587.00,0.0082
1586.00,0.0083
1585.00,0.0083
1584.00,0.0084
1583.00,0.0085
1582.00,0.0086
1581.00,0.0087
1580.00,0.0088
1579.00,0.0088
1578.00,0.0089
1577.00,0.0088
1576.00,0.0088
1575.00,0.0087
1574.00,0.0087
1573.00,0.0086
1572.00,0.0086
1571.00,0.0086
1570.00,0.0085
1569.00,0.0085
1568.00,0.0085
1567.00,0.0084
1566.00,0.0084
1565.00,0.0084
1564.00,0.0084
1563.00,0.0085
1562.00,0.0085
1561.00,0.0086
1560.00,0.0088
1559.00,0.0089
1558.00,0.0089
1557.00,0.0090
1556.00,0.0092
1555.00,0.0093
1554.00,0.0094
1553.00,0.0095
1552.00,0.0096
1551.00,0.0096
1550.00,0.0097
1549.00,0.0098
1548.00,0.0100
1547.00,0.0101
1546.00,0.0102
1545.00,0.0104
1544.00,0.0106
1543.00,0.0106
1542.00,0.0106
1541.00,0.0104
1540.00,0.0101
1539.00,0.0098
1538.00,0.0096
1537.00,0.0095
1536.00,0.0094
1535.00,0.0092
1534.00,0.0089
1533.00,0.0086
1532.00,0.0083
1531.00,0.0082
1530.00,0.0080
1529.00,0.0079
1528.00,0.0079
1527.00,0.0077
1526.00,0.0075
1525.00,0.0074
1524.00,0.0073
1523.00,0.0072
1522.00,0.0070
1521.00,0.0069
1520.00,0.0069
1519.00,0.0069
1518.00,0.0069
1517.00,0.0070
1516.00,0.0070
1515.00,0.0070
1514.00,0.0070
1513.00,0.0070
1512.00,0.0070
1511.00,0.0070
1510.00,0.0070
1509.00,0.0070
1508.00,0.0071
1507.00,0.0072
1506.00,0.0072
1505.00,0.0074
1504.00,0.0075
1503.00,0.0077
1502.00,0.0078
1501.00,0.0081
1500.00,0.0084
1499.00,0.0087
1498.00,0.0091
1497.00,0.0096
1496.00,0.0101
1495.00,0.0105
1494.00,0.0109
1493.00,0.0112
1492.00,0.0116
1491.00,0.0119
1490.00,0.0122
1489.00,0.0126
1488.00,0.0131
1487.00,0.0135
1486.00,0.0139
1485.00,0.0145
1484.00,0.0151
1483.00,0.0158
1482.00,0.0166
1481.00,0.0177
1480.00,0.0188
1479.00,0.0200
1478.00,0.0214
1477.00,0.0233
1476.00,0.0256
1475.00,0.0282
1474.00,0.0316
1473.00,0.0368
1472.00,0.0430
1471.00,0.0492
1470.00,0.0551
1469.00,0.0613
1468.00,0.0679
1467.00,0.0752
1466.00,0.0835
1465.00,0.0927
1464.00,0.1009
1463.00,0.1070
1462.00,0.1112
1461.00,0.1145
1460.00,0.1170
1459.00,0.1190
1458.00,0.1212
1457.00,0.1235
1456.00,0.1249
1455.00,0.1252
1454.00,0.1250
1453.00,0.1242
1452.00,0.1223
1451.00,0.1192
1450.00,0.1143
1449.00,0.1071
1448.00,0.0975
1447.00,0.0871
1446.00,0.0777
1445.00,0.0696
1444.00,0.0627
1443.00,0.0570
1442.00,0.0528
1441.00,0.0498
1440.00,0.0479
1439.00,0.0469
1438.00,0.0466
1437.00,0.0461
1436.00,0.0445
1435.00,0.0416
1434.00,0.0378
1433.00,0.0333
1432.00,0.0287
1431.00,0.0247
1430.00,0.0216
1429.00,0.0194
1428.00,0.0179
1427.00,0.0171
1426.00,0.0165
1425.00,0.0160
1424.00,0.0155
1423.00,0.0153
1422.00,0.0151
1421.00,0.0150
1420.00,0.0147
1419.00,0.0145
1418.00,0.0143
1417.00,0.0140
1416.00,0.0137
1415.00,0.0135
1414.00,0.0134
1413.00,0.0133
1412.00,0.0131
1411.00,0.0130
1410.00,0.0130
1409.00,0.0129
1408.00,0.0128
1407.00,0.0128
1406.00,0.0129
1405.00,0.0129
1404.00,0.0129
1403.00,0.0130
1402.00,0.0132
1401.00,0.0133
1400.00,0.0134
1399.00,0.0135
1398.00,0.0138
1397.00,0.0139
1396.00,0.0141
1395.00,0.0144
1394.00,0.0149
1393.00,0.0154
1392.00,0.0161
1391.00,0.0170
1390.00,0.0183
1389.00,0.0200
1388.00,0.0226
1387.00,0.0264
1386.00,0.0315
1385.00,0.0379
1384.00,0.0463
1383.00,0.0575
1382.00,0.0719
1381.00,0.0897
1380.00,0.1112
1379.00,0.1350
1378.00,0.1577
1377.00,0.1741
1376.00,0.1797
1375.00,0.1713
1374.00,0.1512
1373.00,0.1265
1372.00,0.1035
1371.00,0.0841
1370.00,0.0684
1369.00,0.0563
1368.00,0.0478
1367.00,0.0425
1366.00,0.0396
1365.00,0.0384
1364.00,0.0385
1363.00,0.0398
1362.00,0.0419
1361.00,0.0441
1360.00,0.0456
1359.00,0.0460
1358.00,0.0449
1357.00,0.0423
1356.00,0.0387
1355.00,0.0347
1354.00,0.0308
1353.00,0.0274
1352.00,0.0247
1351.00,0.0225
1350.00,0.0208
1349.00,0.0194
1348.00,0.0183
1347.00,0.0174
1346.00,0.0167
1345.00,0.0162
1344.00,0.0157
1343.00,0.0152
1342.00,0.0148
1341.00,0.0145
1340.00,0.0143
1339.00,0.0140
1338.00,0.0138
1337.00,0.0137
1336.00,0.0136
1335.00,0.0137
1334.00,0.0140
1333.00,0.0143
1332.00,0.0147
1331.00,0.0151
1330.00,0.0152
1329.00,0.0151
1328.00,0.0147
1327.00,0.0142
1326.00,0.0135
1325.00,0.0129
1324.00,0.0123
1323.00,0.0119
1322.00,0.0115
1321.00,0.0112
1320.00,0.0109
1319.00,0.0107
1318.00,0.0105
1317.00,0.0103
1316.00,0.0101
1315.00,0.0099
1314.00,0.0099
1313.00,0.0100
1312.00,0.0101
1311.00,0.0105
1310.00,0.0111
1309.00,0.0119
1308.00,0.0132
1307.00,0.0147
1306.00,0.0161
1305.00,0.0171
1304.00,0.0174
1303.00,0.0170
1302.00,0.0162
1301.00,0.0155
1300.00,0.0150
1299.00,0.0147
1298.00,0.0146
1297.00,0.0145
1296.00,0.0143
1295.00,0.0140
1294.00,0.0136
1293.00,0.0131
1292.00,0.0126
1291.00,0.0121
1290.00,0.0116
1289.00,0.0112
1288.00,0.0108
1287.00,0.0105
1286.00,0.0103
1285.00,0.0101
1284.00,0.0099
1283.00,0.0097
1282.00,0.0096
1281.00,0.0094
1280.00,0.0093
1279.00,0.0092
1278.00,0.0091
1277.00,0.0091
1276.00,0.0091
1275.00,0.0091
1274.00,0.0092
1273.00,0.0092
1272.00,0.0093
1271.00,0.0094
1270.00,0.0095
1269.00,0.0097
1268.00,0.0099
1267.00,0.0101
1266.00,0.0105
1265.00,0.0108
1264.00,0.0112
1263.00,0.0116
1262.00,0.0121
1261.00,0.0127
1260.00,0.0135
1259.00,0.0144
1258.00,0.0153
1257.00,0.0161
1256.00,0.0165
1255.00,0.0163
1254.00,0.0155
1253.00,0.0144
1252.00,0.0133
1251.00,0.0124
1250.00,0.0117
1249.00,0.0112
1248.00,0.0109
1247.00,0.0107
1246.00,0.0105
1245.00,0.0104
1244.00,0.0103
1243.00,0.0103
1242.00,0.0102
1241.00,0.0101
1240.00,0.0100
1239.00,0.0099
1238.00,0.0097
1237.00,0.0095
1236.00,0.0094
1235.00,0.0093
1234.00,0.0093
1233.00,0.0093
1232.00,0.0092
1231.00,0.0092
1230.00,0.0092
1229.00,0.0092
1228.00,0.0094
1227.00,0.0095
1226.00,0.0097
1225.00,0.0100
1224.00,0.0103
1223.00,0.0106
1222.00,0.0108
1221.00,0.0111
1220.00,0.0112
1219.00,0.0114
1218.00,0.0114
1217.00,0.0112
1216.00,0.0109
1215.00,0.0106
1214.00,0.0102
1213.00,0.0099
1212.00,0.0096
1211.00,0.0094
1210.00,0.0092
1209.00,0.0090
1208.00,0.0089
1207.00,0.0088
1206.00,0.0087
1205.00,0.0086
1204.00,0.0085
1203.00,0.0085
1202.00,0.0085
1201.00,0.0084
1200.00,0.0084
1199.00,0.0084
1198.00,0.0084
1197.00,0.0084
1196.00,0.0084
1195.00,0.0084
1194.00,0.0085
1193.00,0.0085
1192.00,0.0086
1191.00,0.0087
1190.00,0.0087
1189.00,0.0086
1188.00,0.0086
1187.00,0.0087
1186.00,0.0089
1185.00,0.0090
1184.00,0.0092
1183.00,0.0095
1182.00,0.0097
1181.00,0.0100
1180.00,0.0105
1179.00,0.0111
1178.00,0.0120
1177.00,0.0131
1176.00,0.0146
1175.00,0.0165
1174.00,0.0190
1173.00,0.0222
1172.00,0.0261
1171.00,0.0303
1170.00,0.0345
1169.00,0.0380
1168.00,0.0402
1167.00,0.0409
1166.00,0.0401
1165.00,0.0382
1164.00,0.0358
1163.00,0.0333
1162.00,0.0311
1161.00,0.0291
1160.00,0.0274
1159.00,0.0261
1158.00,0.0251
1157.00,0.0244
1156.00,0.0238
1155.00,0.0234
1154.00,0.0231
1153.00,0.0226
1152.00,0.0221
1151.00,0.0215
1150.00,0.0207
1149.00,0.0198
1148.00,0.0188
1147.00,0.0179
1146.00,0.0170
1145.00,0.0162
1144.00,0.0155
1143.00,0.0148
1142.00,0.0142
1141.00,0.0137
1140.00,0.0132
1139.00,0.0127
1138.00,0.0123
1137.00,0.0121
1136.00,0.0119
1135.00,0.0118
1134.00,0.0117
1133.00,0.0116
1132.00,0.0115
1131.00,0.0115
1130.00,0.0115
1129.00,0.0117
1128.00,0.0118
1127.00,0.0120
1126.00,0.0122
1125.00,0.0123
1124.00,0.0124
1123.00,0.0126
1122.00,0.0127
1121.00,0.0129
1120.00,0.0130
1119.00,0.0132
1118.00,0.0134
1117.00,0.0135
1116.00,0.0136
1115.00,0.0138
1114.00,0.0139
1113.00,0.0140
1112.00,0.0142
1111.00,0.0144
1110.00,0.0148
1109.00,0.0152
1108.00,0.0156
1107.00,0.0161
1106.00,0.0167
1105.00,0.0173
1104.00,0.0178
1103.00,0.0181
1102.00,0.0182
1101.00,0.0180
1100.00,0.0176
1099.00,0.0171
1098.00,0.0164
1097.00,0.0158
1096.00,0.0152
1095.00,0.0147
1094.00,0.0143
1093.00,0.0140
1092.00,0.0136
1091.00,0.0133
1090.00,0.0130
1089.00,0.0127
1088.00,0.0125
1087.00,0.0124
1086.00,0.0123
1085.00,0.0122
1084.00,0.0121
1083.00,0.0120
1082.00,0.0119
1081.00,0.0117
1080.00,0.0115
1079.00,0.0113
1078.00,0.0111
1077.00,0.0109
1076.00,0.0108
1075.00,0.0108
1074.00,0.0108
1073.00,0.0108
1072.00,0.0108
1071.00,0.0108
1070.00,0.0107
1069.00,0.0107
1068.00,0.0106
1067.00,0.0106
1066.00,0.0106
1065.00,0.0106
1064.00,0.0106
1063.00,0.0106
1062.00,0.0106
1061.00,0.0106
1060.00,0.0106
1059.00,0.0107
1058.00,0.0108
1057.00,0.0109
1056.00,0.0109
1055.00,0.0110
1054.00,0.0111
1053.00,0.0112
1052.00,0.0114
1051.00,0.0116
1050.00,0.0119
1049.00,0.0122
1048.00,0.0126
1047.00,0.0129
1046.00,0.0131
1045.00,0.0132
1044.00,0.0132
1043.00,0.0131
1042.00,0.0128
1041.00,0.0126
1040.00,0.0124
1039.00,0.0122
1038.00,0.0121
1037.00,0.0120
1036.00,0.0120
1035.00,0.0119
1034.00,0.0118
1033.00,0.0117
1032.00,0.0117
1031.00,0.0116
1030.00,0.0115
1029.00,0.0115
1028.00,0.0114
1027.00,0.0114
1026.00,0.0115
1025.00,0.0115
1024.00,0.0116
1023.00,0.0116
1022.00,0.0117
1021.00,0.0117
1020.00,0.0117
1019.00,0.0118
1018.00,0.0119
1017.00,0.0121
1016.00,0.0124
1015.00,0.0127
1014.00,0.0130
1013.00,0.0133
1012.00,0.0137
1011.00,0.0141
1010.00,0.0145
1009.00,0.0151
1008.00,0.0157
1007.00,0.0166
1006.00,0.0177
1005.00,0.0191
1004.00,0.0211
1003.00,0.0238
1002.00,0.0274
1001.00,0.0318
1000.00,0.0366
999.00,0.0408
998.00,0.0432
997.00,0.0428
996.00,0.0398
995.00,0.0351
994.00,0.0298
993.00,0.0251
992.00,0.0214
991.00,0.0186
990.00,0.0166
989.00,0.0152
988.00,0.0144
987.00,0.0139
986.00,0.0138
985.00,0.0139
984.00,0.0143
983.00,0.0150
982.00,0.0163
981.00,0.0181
980.00,0.0207
979.00,0.0240
978.00,0.0283
977.00,0.0334
976.00,0.0391
975.00,0.0448
974.00,0.0493
973.00,0.0516
972.00,0.0507
971.00,0.0467
970.00,0.0406
969.00,0.0340
968.00,0.0281
967.00,0.0234
966.00,0.0199
965.00,0.0173
964.00,0.0154
963.00,0.0140
962.00,0.0129
961.00,0.0121
960.00,0.0114
959.00,0.0108
958.00,0.0104
957.00,0.0101
956.00,0.0098
955.00,0.0096
954.00,0.0094
953.00,0.0093
952.00,0.0092
951.00,0.0092
950.00,0.0092
949.00,0.0091
948.00,0.0091
947.00,0.0092
946.00,0.0093
945.00,0.0094
944.00,0.0096
943.00,0.0099
942.00,0.0101
941.00,0.0103
940.00,0.0103
939.00,0.0101
938.00,0.0098
937.00,0.0093
936.00,0.0089
935.00,0.0084
934.00,0.0081
933.00,0.0079
932.00,0.0078
931.00,0.0077
930.00,0.0076
929.00,0.0075
928.00,0.0074
927.00,0.0072
926.00,0.0072
925.00,0.0072
924.00,0.0073
923.00,0.0073
922.00,0.0074
921.00,0.0075
920.00,0.0076
919.00,0.0077
918.00,0.0079
917.00,0.0080
916.00,0.0080
915.00,0.0080
914.00,0.0080
913.00,0.0081
912.00,0.0083
911.00,0.0084
910.00,0.0085
909.00,0.0086
908.00,0.0087
907.00,0.0091
906.00,0.0098
905.00,0.0108
904.00,0.0122
903.00,0.0139
902.00,0.0157
901.00,0.0173
900.00,0.0185
899.00,0.0189
898.00,0.0183
897.00,0.0170
896.00,0.0152
895.00,0.0134
894.00,0.0119
893.00,0.0108
892.00,0.0099
891.00,0.0093
890.00,0.0088
889.00,0.0085
888.00,0.0083
887.00,0.0082
886.00,0.0082
885.00,0.0082
884.00,0.0081
883.00,0.0080
882.00,0.0079
881.00,0.0080
880.00,0.0082
879.00,0.0084
878.00,0.0085
877.00,0.0086
876.00,0.0086
875.00,0.0085
874.00,0.0085
873.00,0.0085
872.00,0.0085
871.00,0.0085
870.00,0.0086
869.00,0.0086
868.00,0.0086
867.00,0.0087
866.00,0.0088
865.00,0.0090
864.00,0.0091
863.00,0.0092
862.00,0.0092
861.00,0.0093
860.00,0.0093
859.00,0.0094
858.00,0.0094
857.00,0.0095
856.00,0.0097
855.00,0.0101
854.00,0.0104
853.00,0.0108
852.00,0.0112
851.00,0.0118
850.00,0.0125
849.00,0.0134
848.00,0.0148
847.00,0.0168
846.00,0.0198
845.00,0.0241
844.00,0.0299
843.00,0.0364
842.00,0.0416
841.00,0.0433
840.00,0.0408
839.00,0.0353
838.00,0.0291
837.00,0.0240
836.00,0.0204
835.00,0.0181
834.00,0.0167
833.00,0.0157
832.00,0.0150
831.00,0.0146
830.00,0.0142
829.00,0.0138
828.00,0.0136
827.00,0.0133
826.00,0.0132
825.00,0.0130
824.00,0.0129
823.00,0.0128
822.00,0.0127
821.00,0.0128
820.00,0.0129
819.00,0.0130
818.00,0.0133
817.00,0.0137
816.00,0.0144
815.00,0.0155
814.00,0.0168
813.00,0.0184
812.00,0.0200
811.00,0.0214
810.00,0.0224
809.00,0.0228
808.00,0.0224
807.00,0.0215
806.00,0.0203
805.00,0.0189
804.00,0.0175
803.00,0.0163
802.00,0.0153
801.00,0.0145
800.00,0.0139
799.00,0.0132
798.00,0.0126
797.00,0.0121
796.00,0.0116
795.00,0.0111
794.00,0.0108
793.00,0.0104
792.00,0.0101
791.00,0.0099
790.00,0.0097
789.00,0.0095
788.00,0.0093
787.00,0.0091
786.00,0.0088
785.00,0.0086
784.00,0.0084
783.00,0.0082
782.00,0.0079
781.00,0.0077
780.00,0.0075
779.00,0.0075
778.00,0.0076
777.00,0.0076
776.00,0.0077
775.00,0.0078
774.00,0.0079
773.00,0.0082
772.00,0.0086
771.00,0.0091
770.00,0.0095
769.00,0.0098
768.00,0.0098
767.00,0.0097
766.00,0.0094
765.00,0.0091
764.00,0.0087
763.00,0.0084
762.00,0.0080
761.00,0.0077
760.00,0.0074
759.00,0.0072
758.00,0.0071
757.00,0.0069
756.00,0.0067
755.00,0.0066
754.00,0.0066
753.00,0.0067
752.00,0.0068
751.00,0.0069
750.00,0.0069
749.00,0.0068
748.00,0.0068
747.00,0.0069
746.00,0.0070
745.00,0.0071
744.00,0.0072
743.00,0.0074
742.00,0.0075
741.00,0.0077
740.00,0.0078
739.00,0.0079
738.00,0.0079
737.00,0.0081
736.00,0.0083
735.00,0.0085
734.00,0.0088
733.00,0.0090
732.00,0.0091
731.00,0.0093
730.00,0.0093
729.00,0.0092
728.00,0.0090
727.00,0.0088
726.00,0.0087
725.00,0.0087
724.00,0.0086
723.00,0.0086
722.00,0.0086
721.00,0.0087
720.00,0.0086
719.00,0.0085
718.00,0.0083
717.00,0.0080
716.00,0.0076
715.00,0.0073
714.00,0.0072
713.00,0.0073
712.00,0.0075
711.00,0.0077
710.00,0.0078
709.00,0.0080
708.00,0.0081
707.00,0.0081
706.00,0.0081
705.00,0.0081
704.00,0.0081
703.00,0.0081
702.00,0.0080
701.00,0.0079
700.00,0.0076
699.00,0.0074
698.00,0.0072
697.00,0.0071
696.00,0.0071
695.00,0.0070
694.00,0.0070
693.00,0.0070
692.00,0.0070
691.00,0.0070
690.00,0.0070
689.00,0.0069
688.00,0.0069
687.00,0.0068
686.00,0.0067
685.00,0.0066
684.00,0.0067
683.00,0.0068
682.00,0.0068
681.00,0.0067
680.00,0.0066
679.00,0.0065
678.00,0.0067
677.00,0.0070
676.00,0.0073
675.00,0.0075
674.00,0.0076
673.00,0.0074
672.00,0.0071
671.00,0.0069
670.00,0.0069
669.00,0.0070
668.00,0.0070
667.00,0.0069
666.00,0.0068
665.00,0.0068
664.00,0.0068
663.00,0.0069
662.00,0.0070
661.00,0.0069
660.00,0.0069
659.00,0.0069
658.00,0.0070
657.00,0.0070
656.00,0.0069
655.00,0.0067
654.00,0.0066
653.00,0.0065
652.00,0.0066
651.00,0.0067
650.00,0.0069
649.00,0.0070
648.00,0.0071
647.00,0.0070
646.00,0.0069
645.00,0.0068
644.00,0.0067
643.00,0.0068
642.00,0.0068
641.00,0.0070
640.00,0.0071
639.00,0.0072
638.00,0.0072
637.00,0.0072
636.00,0.0072
635.00,0.0074
634.00,0.0075
633.00,0.0075
632.00,0.0074
631.00,0.0073
630.00,0.0073
629.00,0.0072
628.00,0.0072
627.00,0.0071
626.00,0.0069
625.00,0.0068
624.00,0.0068
623.00,0.0071
622.00,0.0074
621.00,0.0076
620.00,0.0078
619.00,0.0079
618.00,0.0080
617.00,0.0080
616.00,0.0078
615.00,0.0076
614.00,0.0074
613.00,0.0074
612.00,0.0075
611.00,0.0075
610.00,0.0075
609.00,0.0075
608.00,0.0075
607.00,0.0075
606.00,0.0075
605.00,0.0075
604.00,0.0076
603.00,0.0077
602.00,0.0078
601.00,0.0077
600.00,0.0077
599.00,0.0077
598.00,0.0076
597.00,0.0074
596.00,0.0071
595.00,0.0069
594.00,0.0069
593.00,0.0071
592.00,0.0072
591.00,0.0073
590.00,0.0074
589.00,0.0077
588.00,0.0082
587.00,0.0088
586.00,0.0090
585.00,0.0089
584.00,0.0088
583.00,0.0086
582.00,0.0084
581.00,0.0083
580.00,0.0081
579.00,0.0081
578.00,0.0082
577.00,0.0083
576.00,0.0081
575.00,0.0079
574.00,0.0078
573.00,0.0079
572.00,0.0079
571.00,0.0077
570.00,0.0073
569.00,0.0070
568.00,0.0069
567.00,0.0069
566.00,0.0071
565.00,0.0073
564.00,0.0076
563.00,0.0079
562.00,0.0080
561.00,0.0079
560.00,0.0077
559.00,0.0076
558.00,0.0079
557.00,0.0082
556.00,0.0084
555.00,0.0084
554.00,0.0083
553.00,0.0081
552.00,0.0080
551.00,0.0080
550.00,0.0081
549.00,0.0083
548.00,0.0085
547.00,0.0086
546.00,0.0088
545.00,0.0089
544.00,0.0089
543.00,0.0088
542.00,0.0086
541.00,0.0086
540.00,0.0087
539.00,0.0089
538.00,0.0092
537.00,0.0097
536.00,0.0100
535.00,0.0100
534.00,0.0099
533.00,0.0099
532.00,0.0101
531.00,0.0105
530.00,0.0109
529.00,0.0111
528.00,0.0110
527.00,0.0107
526.00,0.0105
525.00,0.0104
524.00,0.0104
523.00,0.0105
522.00,0.0105
521.00,0.0103
520.00,0.0098
519.00,0.0092
518.00,0.0089
517.00,0.0089
516.00,0.0090
515.00,0.0089
514.00,0.0085
513.00,0.0082
512.00,0.0081
511.00,0.0082
510.00,0.0080
509.00,0.0075
508.00,0.0071
507.00,0.0069
506.00,0.0067
505.00,0.0063
504.00,0.0059
503.00,0.0057
502.00,0.0060
501.00,0.0066
500.00,0.0069
499.00,0.0069
498.00,0.0068
497.00,0.0069
496.00,0.0073
495.00,0.0080
494.00,0.0085
493.00,0.0085
492.00,0.0083
491.00,0.0080
490.00,0.0077
489.00,0.0075
488.00,0.0072
487.00,0.0071
486.00,0.0073
485.00,0.0076
484.00,0.0077
483.00,0.0077
482.00,0.0077
481.00,0.0080
480.00,0.0084
479.00,0.0085
478.00,0.0086
477.00,0.0087
476.00,0.0087
475.00,0.0089
474.00,0.0092
473.00,0.0098
472.00,0.0101
471.00,0.0096
470.00,0.0088
469.00,0.0080
468.00,0.0078
467.00,0.0082
466.00,0.0090
465.00,0.0101
464.00,0.0114
463.00,0.0129
462.00,0.0141
461.00,0.0151
460.00,0.0160
459.00,0.0167
458.00,0.0174
457.00,0.0171
456.00,0.0169
455.00,0.0170
454.00,0.0174
453.00,0.0172
452.00,0.0160
451.00,0.0143
450.00,0.0128
