Created as New Dataset,Sample 127 By Administrator Date Wednesday, September 10 2025
cm-1,A
4000.00,0.0007
3999.00,0.0007
3998.00,0.0008
3997.00,0.0008
3996.00,0.0009
3995.00,0.0009
3994.00,0.0009
3993.00,0.0009
3992.00,0.0009
3991.00,0.0008
3990.00,0.0008
3989.00,0.0008
3988.00,0.0008
3987.00,0.0008
3986.00,0.0007
3985.00,0.0007
3984.00,0.0007
3983.00,0.0007
3982.00,0.0007
3981.00,0.0007
3980.00,0.0007
3979.00,0.0008
3978.00,0.0008
3977.00,0.0008
3976.00,0.0007
3975.00,0.0007
3974.00,0.0007
3973.00,0.0007
3972.00,0.0007
3971.00,0.0007
3970.00,0.0007
3969.00,0.0007
3968.00,0.0007
3967.00,0.0007
3966.00,0.0007
3965.00,0.0007
3964.00,0.0007
3963.00,0.0007
3962.00,0.0006
3961.00,0.0006
3960.00,0.0006
3959.00,0.0006
3958.00,0.0006
3957.00,0.0006
3956.00,0.0005
3955.00,0.0005
3954.00,0.0005
3953.00,0.0005
3952.00,0.0005
3951.00,0.0005
3950.00,0.0006
3949.00,0.0006
3948.00,0.0006
3947.00,0.0007
3946.00,0.0007
3945.00,0.0007
3944.00,0.0006
3943.00,0.0006
3942.00,0.0006
3941.00,0.0006
3940.00,0.0007
3939.00,0.0007
3938.00,0.0007
3937.00,0.0007
3936.00,0.0006
3935.00,0.0006
3934.00,0.0006
3933.00,0.0006
3932.00,0.0006
3931.00,0.0007
3930.00,0.0007
3929.00,0.0007
3928.00,0.0007
3927.00,0.0006
3926.00,0.0006
3925.00,0.0006
3924.00,0.0006
3923.00,0.0006
3922.00,0.0006
3921.00,0.0006
3920.00,0.0006
3919.00,0.0006
3918.00,0.0006
3917.00,0.0006
3916.00,0.0006
3915.00,0.0006
3914.00,0.0006
3913.00,0.0006
3912.00,0.0006
3911.00,0.0006
3910.00,0.0006
3909.00,0.0005
3908.00,0.0005
3907.00,0.0005
3906.00,0.0005
3905.00,0.0004
3904.00,0.0004
3903.00,0.0004
3902.00,0.0004
3901.00,0.0004
3900.00,0.0004
3899.00,0.0005
3898.00,0.0006
3897.00,0.0006
3896.00,0.0007
3895.00,0.0007
3894.00,0.0007
3893.00,0.0006
3892.00,0.0006
3891.00,0.0006
3890.00,0.0006
3889.00,0.0006
3888.00,0.0005
3887.00,0.0005
3886.00,0.0004
3885.00,0.0005
3884.00,0.0005
3883.00,0.0005
3882.00,0.0005
3881.00,0.0005
3880.00,0.0005
3879.00,0.0005
3878.00,0.0005
3877.00,0.0005
3876.00,0.0005
3875.00,0.0005
3874.00,0.0006
3873.00,0.0006
3872.00,0.0006
3871.00,0.0005
3870.00,0.0005
3869.00,0.0005
3868.00,0.0005
3867.00,0.0005
3866.00,0.0005
3865.00,0.0005
3864.00,0.0005
3863.00,0.0005
3862.00,0.0005
3861.00,0.0005
3860.00,0.0005
3859.00,0.0005
3858.00,0.0005
3857.00,0.0005
3856.00,0.0004
3855.00,0.0004
3854.00,0.0005
3853.00,0.0005
3852.00,0.0005
3851.00,0.0005
3850.00,0.0005
3849.00,0.0005
3848.00,0.0005
3847.00,0.0005
3846.00,0.0005
3845.00,0.0006
3844.00,0.0006
3843.00,0.0006
3842.00,0.0007
3841.00,0.0007
3840.00,0.0006
3839.00,0.0006
3838.00,0.0006
3837.00,0.0006
3836.00,0.0006
3835.00,0.0005
3834.00,0.0005
3833.00,0.0005
3832.00,0.0005
3831.00,0.0005
3830.00,0.0006
3829.00,0.0006
3828.00,0.0005
3827.00,0.0005
3826.00,0.0005
3825.00,0.0006
3824.00,0.0006
3823.00,0.0005
3822.00,0.0005
3821.00,0.0006
3820.00,0.0006
3819.00,0.0006
3818.00,0.0005
3817.00,0.0005
3816.00,0.0006
3815.00,0.0006
3814.00,0.0006
3813.00,0.0006
3812.00,0.0006
3811.00,0.0007
3810.00,0.0007
3809.00,0.0007
3808.00,0.0006
3807.00,0.0006
3806.00,0.0006
3805.00,0.0006
3804.00,0.0005
3803.00,0.0005
3802.00,0.0005
3801.00,0.0006
3800.00,0.0006
3799.00,0.0006
3798.00,0.0005
3797.00,0.0005
3796.00,0.0005
3795.00,0.0005
3794.00,0.0005
3793.00,0.0005
3792.00,0.0005
3791.00,0.0005
3790.00,0.0005
3789.00,0.0005
3788.00,0.0005
3787.00,0.0005
3786.00,0.0005
3785.00,0.0005
3784.00,0.0006
3783.00,0.0006
3782.00,0.0006
3781.00,0.0006
3780.00,0.0005
3779.00,0.0005
3778.00,0.0005
3777.00,0.0005
3776.00,0.0006
3775.00,0.0006
3774.00,0.0007
3773.00,0.0007
3772.00,0.0007
3771.00,0.0007
3770.00,0.0007
3769.00,0.0008
3768.00,0.0008
3767.00,0.0007
3766.00,0.0007
3765.00,0.0007
3764.00,0.0007
3763.00,0.0006
3762.00,0.0006
3761.00,0.0006
3760.00,0.0006
3759.00,0.0006
3758.00,0.0006
3757.00,0.0007
3756.00,0.0007
3755.00,0.0007
3754.00,0.0007
3753.00,0.0007
3752.00,0.0007
3751.00,0.0007
3750.00,0.0006
3749.00,0.0006
3748.00,0.0006
3747.00,0.0006
3746.00,0.0006
3745.00,0.0006
3744.00,0.0006
3743.00,0.0006
3742.00,0.0006
3741.00,0.0005
3740.00,0.0005
3739.00,0.0005
3738.00,0.0005
3737.00,0.0005
3736.00,0.0004
3735.00,0.0004
3734.00,0.0004
3733.00,0.0004
3732.00,0.0004
3731.00,0.0004
3730.00,0.0004
3729.00,0.0003
3728.00,0.0003
3727.00,0.0002
3726.00,0.0002
3725.00,0.0002
3724.00,0.0002
3723.00,0.0003
3722.00,0.0003
3721.00,0.0004
3720.00,0.0004
3719.00,0.0004
3718.00,0.0004
3717.00,0.0005
3716.00,0.0005
3715.00,0.0005
3714.00,0.0004
3713.00,0.0004
3712.00,0.0003
3711.00,0.0003
3710.00,0.0003
3709.00,0.0003
3708.00,0.0004
3707.00,0.0004
3706.00,0.0004
3705.00,0.0004
3704.00,0.0004
3703.00,0.0004
3702.00,0.0004
3701.00,0.0004
3700.00,0.0004
3699.00,0.0004
3698.00,0.0004
3697.00,0.0004
3696.00,0.0004
3695.00,0.0004
3694.00,0.0004
3693.00,0.0004
3692.00,0.0004
3691.00,0.0004
3690.00,0.0004
3689.00,0.0004
3688.00,0.0004
3687.00,0.0004
3686.00,0.0004
3685.00,0.0004
3684.00,0.0005
3683.00,0.0005
3682.00,0.0005
3681.00,0.0005
3680.00,0.0005
3679.00,0.0005
3678.00,0.0005
3677.00,0.0005
3676.00,0.0005
3675.00,0.0005
3674.00,0.0005
3673.00,0.0004
3672.00,0.0004
3671.00,0.0004
3670.00,0.0004
3669.00,0.0005
3668.00,0.0005
3667.00,0.0004
3666.00,0.0004
3665.00,0.0004
3664.00,0.0005
3663.00,0.0005
3662.00,0.0005
3661.00,0.0005
3660.00,0.0005
3659.00,0.0005
3658.00,0.0004
3657.00,0.0004
3656.00,0.0004
3655.00,0.0004
3654.00,0.0004
3653.00,0.0004
3652.00,0.0003
3651.00,0.0003
3650.00,0.0003
3649.00,0.0003
3648.00,0.0003
3647.00,0.0004
3646.00,0.0004
3645.00,0.0004
3644.00,0.0004
3643.00,0.0004
3642.00,0.0004
3641.00,0.0004
3640.00,0.0005
3639.00,0.0005
3638.00,0.0005
3637.00,0.0006
3636.00,0.0006
3635.00,0.0005
3634.00,0.0005
3633.00,0.0005
3632.00,0.0004
3631.00,0.0004
3630.00,0.0004
3629.00,0.0004
3628.00,0.0004
3627.00,0.0005
3626.00,0.0005
3625.00,0.0005
3624.00,0.0005
3623.00,0.0005
3622.00,0.0005
3621.00,0.0005
3620.00,0.0005
3619.00,0.0005
3618.00,0.0005
3617.00,0.0005
3616.00,0.0005
3615.00,0.0005
3614.00,0.0005
3613.00,0.0006
3612.00,0.0006
3611.00,0.0006
3610.00,0.0006
3609.00,0.0006
3608.00,0.0006
3607.00,0.0006
3606.00,0.0006
3605.00,0.0006
3604.00,0.0007
3603.00,0.0007
3602.00,0.0007
3601.00,0.0007
3600.00,0.0006
3599.00,0.0006
3598.00,0.0006
3597.00,0.0006
3596.00,0.0007
3595.00,0.0007
3594.00,0.0007
3593.00,0.0008
3592.00,0.0008
3591.00,0.0008
3590.00,0.0008
3589.00,0.0008
3588.00,0.0008
3587.00,0.0009
3586.00,0.0009
3585.00,0.0009
3584.00,0.0009
3583.00,0.0010
3582.00,0.0010
3581.00,0.0010
3580.00,0.0010
3579.00,0.0010
3578.00,0.0011
3577.00,0.0011
3576.00,0.0011
3575.00,0.0011
3574.00,0.0011
3573.00,0.0011
3572.00,0.0012
3571.00,0.0012
3570.00,0.0012
3569.00,0.0012
3568.00,0.0012
3567.00,0.0012
3566.00,0.0012
3565.00,0.0012
3564.00,0.0012
3563.00,0.0013
3562.00,0.0013
3561.00,0.0014
3560.00,0.0014
3559.00,0.0014
3558.00,0.0014
3557.00,0.0014
3556.00,0.0014
3555.00,0.0015
3554.00,0.0015
3553.00,0.0015
3552.00,0.0015
3551.00,0.0015
3550.00,0.0015
3549.00,0.0016
3548.00,0.0016
3547.00,0.0017
3546.00,0.0017
3545.00,0.0018
3544.00,0.0018
3543.00,0.0018
3542.00,0.0018
3541.00,0.0018
3540.00,0.0018
3539.00,0.0019
3538.00,0.0019
3537.00,0.0020
3536.00,0.0020
3535.00,0.0020
3534.00,0.0020
3533.00,0.0020
3532.00,0.0020
3531.00,0.0020
3530.00,0.0020
3529.00,0.0020
3528.00,0.0021
3527.00,0.0021
3526.00,0.0021
3525.00,0.0021
3524.00,0.0021
3523.00,0.0021
3522.00,0.0021
3521.00,0.0022
3520.00,0.0022
3519.00,0.0023
3518.00,0.0023
3517.00,0.0023
3516.00,0.0023
3515.00,0.0024
3514.00,0.0024
3513.00,0.0024
3512.00,0.0024
3511.00,0.0024
3510.00,0.0024
3509.00,0.0024
3508.00,0.0025
3507.00,0.0025
3506.00,0.0025
3505.00,0.0026
3504.00,0.0026
3503.00,0.0026
3502.00,0.0026
3501.00,0.0026
3500.00,0.0026
3499.00,0.0026
3498.00,0.0026
3497.00,0.0026
3496.00,0.0027
3495.00,0.0027
3494.00,0.0027
3493.00,0.0028
3492.00,0.0028
3491.00,0.0028
3490.00,0.0028
3489.00,0.0029
3488.00,0.0029
3487.00,0.0029
3486.00,0.0029
3485.00,0.0029
3484.00,0.0029
3483.00,0.0029
3482.00,0.0029
3481.00,0.0029
3480.00,0.0029
3479.00,0.0029
3478.00,0.0029
3477.00,0.0029
3476.00,0.0030
3475.00,0.0031
3474.00,0.0031
3473.00,0.0032
3472.00,0.0032
3471.00,0.0032
3470.00,0.0032
3469.00,0.0032
3468.00,0.0033
3467.00,0.0033
3466.00,0.0033
3465.00,0.0033
3464.00,0.0033
3463.00,0.0033
3462.00,0.0033
3461.00,0.0033
3460.00,0.0034
3459.00,0.0034
3458.00,0.0034
3457.00,0.0034
3456.00,0.0034
3455.00,0.0035
3454.00,0.0035
3453.00,0.0035
3452.00,0.0036
3451.00,0.0036
3450.00,0.0036
3449.00,0.0036
3448.00,0.0036
3447.00,0.0036
3446.00,0.0036
3445.00,0.0036
3444.00,0.0036
3443.00,0.0037
3442.00,0.0037
3441.00,0.0038
3440.00,0.0038
3439.00,0.0039
3438.00,0.0039
3437.00,0.0039
3436.00,0.0039
3435.00,0.0039
3434.00,0.0039
3433.00,0.0039
3432.00,0.0040
3431.00,0.0040
3430.00,0.0041
3429.00,0.0041
3428.00,0.0041
3427.00,0.0041
3426.00,0.0041
3425.00,0.0042
3424.00,0.0042
3423.00,0.0042
3422.00,0.0042
3421.00,0.0042
3420.00,0.0042
3419.00,0.0042
3418.00,0.0042
3417.00,0.0042
3416.00,0.0042
3415.00,0.0042
3414.00,0.0042
3413.00,0.0043
3412.00,0.0043
3411.00,0.0043
3410.00,0.0044
3409.00,0.0044
3408.00,0.0044
3407.00,0.0045
3406.00,0.0045
3405.00,0.0046
3404.00,0.0046
3403.00,0.0046
3402.00,0.0046
3401.00,0.0046
3400.00,0.0047
3399.00,0.0047
3398.00,0.0047
3397.00,0.0046
3396.00,0.0046
3395.00,0.0046
3394.00,0.0046
3393.00,0.0046
3392.00,0.0046
3391.00,0.0046
3390.00,0.0046
3389.00,0.0046
3388.00,0.0046
3387.00,0.0046
3386.00,0.0046
3385.00,0.0046
3384.00,0.0046
3383.00,0.0047
3382.00,0.0047
3381.00,0.0047
3380.00,0.0047
3379.00,0.0047
3378.00,0.0047
3377.00,0.0047
3376.00,0.0047
3375.00,0.0047
3374.00,0.0047
3373.00,0.0047
3372.00,0.0047
3371.00,0.0047
3370.00,0.0047
3369.00,0.0047
3368.00,0.0048
3367.00,0.0048
3366.00,0.0048
3365.00,0.0048
3364.00,0.0048
3363.00,0.0048
3362.00,0.0048
3361.00,0.0048
3360.00,0.0048
3359.00,0.0048
3358.00,0.0048
3357.00,0.0048
3356.00,0.0048
3355.00,0.0048
3354.00,0.0048
3353.00,0.0048
3352.00,0.0048
3351.00,0.0049
3350.00,0.0049
3349.00,0.0049
3348.00,0.0049
3347.00,0.0050
3346.00,0.0050
3345.00,0.0049
3344.00,0.0049
3343.00,0.0049
3342.00,0.0049
3341.00,0.0049
3340.00,0.0049
3339.00,0.0049
3338.00,0.0048
3337.00,0.0048
3336.00,0.0048
3335.00,0.0048
3334.00,0.0048
3333.00,0.0048
3332.00,0.0047
3331.00,0.0047
3330.00,0.0047
3329.00,0.0046
3328.00,0.0046
3327.00,0.0046
3326.00,0.0046
3325.00,0.0046
3324.00,0.0046
3323.00,0.0045
3322.00,0.0045
3321.00,0.0046
3320.00,0.0046
3319.00,0.0046
3318.00,0.0046
3317.00,0.0046
3316.00,0.0046
3315.00,0.0046
3314.00,0.0046
3313.00,0.0046
3312.00,0.0046
3311.00,0.0046
3310.00,0.0046
3309.00,0.0046
3308.00,0.0046
3307.00,0.0046
3306.00,0.0045
3305.00,0.0045
3304.00,0.0045
3303.00,0.0046
3302.00,0.0046
3301.00,0.0046
3300.00,0.0045
3299.00,0.0045
3298.00,0.0045
3297.00,0.0045
3296.00,0.0045
3295.00,0.0044
3294.00,0.0044
3293.00,0.0044
3292.00,0.0044
3291.00,0.0045
3290.00,0.0044
3289.00,0.0044
3288.00,0.0044
3287.00,0.0044
3286.00,0.0044
3285.00,0.0044
3284.00,0.0044
3283.00,0.0044
3282.00,0.0044
3281.00,0.0044
3280.00,0.0044
3279.00,0.0044
3278.00,0.0043
3277.00,0.0043
3276.00,0.0043
3275.00,0.0043
3274.00,0.0042
3273.00,0.0042
3272.00,0.0042
3271.00,0.0042
3270.00,0.0042
3269.00,0.0042
3268.00,0.0042
3267.00,0.0042
3266.00,0.0042
3265.00,0.0042
3264.00,0.0041
3263.00,0.0041
3262.00,0.0041
3261.00,0.0041
3260.00,0.0041
3259.00,0.0041
3258.00,0.0041
3257.00,0.0040
3256.00,0.0040
3255.00,0.0040
3254.00,0.0040
3253.00,0.0040
3252.00,0.0040
3251.00,0.0040
3250.00,0.0039
3249.00,0.0039
3248.00,0.0039
3247.00,0.0039
3246.00,0.0039
3245.00,0.0039
3244.00,0.0039
3243.00,0.0039
3242.00,0.0038
3241.00,0.0038
3240.00,0.0039
3239.00,0.0039
3238.00,0.0039
3237.00,0.0040
3236.00,0.0039
3235.00,0.0039
3234.00,0.0039
3233.00,0.0039
3232.00,0.0039
3231.00,0.0040
3230.00,0.0040
3229.00,0.0040
3228.00,0.0040
3227.00,0.0041
3226.00,0.0041
3225.00,0.0041
3224.00,0.0041
3223.00,0.0042
3222.00,0.0042
3221.00,0.0042
3220.00,0.0042
3219.00,0.0042
3218.00,0.0042
3217.00,0.0042
3216.00,0.0042
3215.00,0.0042
3214.00,0.0042
3213.00,0.0042
3212.00,0.0042
3211.00,0.0042
3210.00,0.0042
3209.00,0.0042
3208.00,0.0042
3207.00,0.0042
3206.00,0.0043
3205.00,0.0043
3204.00,0.0043
3203.00,0.0043
3202.00,0.0043
3201.00,0.0044
3200.00,0.0044
3199.00,0.0044
3198.00,0.0044
3197.00,0.0044
3196.00,0.0044
3195.00,0.0044
3194.00,0.0043
3193.00,0.0043
3192.00,0.0043
3191.00,0.0043
3190.00,0.0043
3189.00,0.0043
3188.00,0.0043
3187.00,0.0043
3186.00,0.0043
3185.00,0.0042
3184.00,0.0042
3183.00,0.0042
3182.00,0.0041
3181.00,0.0041
3180.00,0.0040
3179.00,0.0040
3178.00,0.0040
3177.00,0.0039
3176.00,0.0039
3175.00,0.0039
3174.00,0.0040
3173.00,0.0040
3172.00,0.0040
3171.00,0.0040
3170.00,0.0040
3169.00,0.0040
3168.00,0.0039
3167.00,0.0039
3166.00,0.0038
3165.00,0.0038
3164.00,0.0037
3163.00,0.0038
3162.00,0.0038
3161.00,0.0038
3160.00,0.0038
3159.00,0.0037
3158.00,0.0037
3157.00,0.0036
3156.00,0.0036
3155.00,0.0036
3154.00,0.0036
3153.00,0.0036
3152.00,0.0037
3151.00,0.0037
3150.00,0.0037
3149.00,0.0037
3148.00,0.0037
3147.00,0.0037
3146.00,0.0038
3145.00,0.0038
3144.00,0.0038
3143.00,0.0037
3142.00,0.0037
3141.00,0.0036
3140.00,0.0036
3139.00,0.0036
3138.00,0.0036
3137.00,0.0035
3136.00,0.0035
3135.00,0.0034
3134.00,0.0034
3133.00,0.0033
3132.00,0.0034
3131.00,0.0034
3130.00,0.0034
3129.00,0.0033
3128.00,0.0033
3127.00,0.0033
3126.00,0.0033
3125.00,0.0033
3124.00,0.0033
3123.00,0.0033
3122.00,0.0032
3121.00,0.0032
3120.00,0.0031
3119.00,0.0031
3118.00,0.0030
3117.00,0.0030
3116.00,0.0030
3115.00,0.0030
3114.00,0.0029
3113.00,0.0029
3112.00,0.0029
3111.00,0.0030
3110.00,0.0030
3109.00,0.0030
3108.00,0.0030
3107.00,0.0030
3106.00,0.0029
3105.00,0.0029
3104.00,0.0029
3103.00,0.0029
3102.00,0.0028
3101.00,0.0028
3100.00,0.0028
3099.00,0.0028
3098.00,0.0028
3097.00,0.0028
3096.00,0.0028
3095.00,0.0028
3094.00,0.0028
3093.00,0.0028
3092.00,0.0027
3091.00,0.0027
3090.00,0.0027
3089.00,0.0027
3088.00,0.0027
3087.00,0.0028
3086.00,0.0028
3085.00,0.0028
3084.00,0.0027
3083.00,0.0027
3082.00,0.0027
3081.00,0.0027
3080.00,0.0027
3079.00,0.0027
3078.00,0.0028
3077.00,0.0028
3076.00,0.0028
3075.00,0.0028
3074.00,0.0028
3073.00,0.0028
3072.00,0.0028
3071.00,0.0028
3070.00,0.0028
3069.00,0.0029
3068.00,0.0029
3067.00,0.0029
3066.00,0.0029
3065.00,0.0029
3064.00,0.0029
3063.00,0.0029
3062.00,0.0029
3061.00,0.0029
3060.00,0.0030
3059.00,0.0030
3058.00,0.0030
3057.00,0.0030
3056.00,0.0030
3055.00,0.0030
3054.00,0.0030
3053.00,0.0030
3052.00,0.0030
3051.00,0.0030
3050.00,0.0030
3049.00,0.0030
3048.00,0.0031
3047.00,0.0031
3046.00,0.0031
3045.00,0.0031
3044.00,0.0031
3043.00,0.0031
3042.00,0.0032
3041.00,0.0032
3040.00,0.0033
3039.00,0.0033
3038.00,0.0033
3037.00,0.0033
3036.00,0.0033
3035.00,0.0034
3034.00,0.0034
3033.00,0.0035
3032.00,0.0035
3031.00,0.0035
3030.00,0.0036
3029.00,0.0036
3028.00,0.0037
3027.00,0.0038
3026.00,0.0039
3025.00,0.0039
3024.00,0.0040
3023.00,0.0040
3022.00,0.0041
3021.00,0.0042
3020.00,0.0042
3019.00,0.0043
3018.00,0.0044
3017.00,0.0045
3016.00,0.0046
3015.00,0.0047
3014.00,0.0049
3013.00,0.0050
3012.00,0.0051
3011.00,0.0052
3010.00,0.0054
3009.00,0.0055
3008.00,0.0057
3007.00,0.0058
3006.00,0.0060
3005.00,0.0062
3004.00,0.0064
3003.00,0.0066
3002.00,0.0069
3001.00,0.0072
3000.00,0.0074
2999.00,0.0077
2998.00,0.0080
2997.00,0.0084
2996.00,0.0087
2995.00,0.0091
2994.00,0.0096
2993.00,0.0101
2992.00,0.0106
2991.00,0.0112
2990.00,0.0118
2989.00,0.0125
2988.00,0.0133
2987.00,0.0142
2986.00,0.0152
2985.00,0.0164
2984.00,0.0176
2983.00,0.0191
2982.00,0.0207
2981.00,0.0225
2980.00,0.0244
2979.00,0.0267
2978.00,0.0293
2977.00,0.0322
2976.00,0.0356
2975.00,0.0394
2974.00,0.0438
2973.00,0.0488
2972.00,0.0543
2971.00,0.0605
2970.00,0.0674
2969.00,0.0750
2968.00,0.0833
2967.00,0.0921
2966.00,0.1013
2965.00,0.1106
2964.00,0.1197
2963.00,0.1282
2962.00,0.1356
2961.00,0.1417
2960.00,0.1466
2959.00,0.1508
2958.00,0.1546
2957.00,0.1588
2956.00,0.1640
2955.00,0.1704
2954.00,0.1778
2953.00,0.1858
2952.00,0.1933
2951.00,0.1992
2950.00,0.2022
2949.00,0.2013
2948.00,0.1960
2947.00,0.1867
2946.00,0.1743
2945.00,0.1604
2944.00,0.1466
2943.00,0.1341
2942.00,0.1238
2941.00,0.1163
2940.00,0.1115
2939.00,0.1092
2938.00,0.1091
2937.00,0.1111
2936.00,0.1149
2935.00,0.1203
2934.00,0.1272
2933.00,0.1355
2932.00,0.1450
2931.00,0.1555
2930.00,0.1666
2929.00,0.1781
2928.00,0.1895
2927.00,0.2007
2926.00,0.2113
2925.00,0.2215
2924.00,0.2313
2923.00,0.2408
2922.00,0.2503
2921.00,0.2593
2920.00,0.2675
2919.00,0.2739
2918.00,0.2776
2917.00,0.2778
2916.00,0.2743
2915.00,0.2675
2914.00,0.2584
2913.00,0.2480
2912.00,0.2374
2911.00,0.2272
2910.00,0.2178
2909.00,0.2092
2908.00,0.2012
2907.00,0.1936
2906.00,0.1862
2905.00,0.1787
2904.00,0.1712
2903.00,0.1637
2902.00,0.1563
2901.00,0.1491
2900.00,0.1423
2899.00,0.1358
2898.00,0.1299
2897.00,0.1245
2896.00,0.1198
2895.00,0.1158
2894.00,0.1125
2893.00,0.1100
2892.00,0.1081
2891.00,0.1070
2890.00,0.1063
2889.00,0.1062
2888.00,0.1065
2887.00,0.1071
2886.00,0.1081
2885.00,0.1095
2884.00,0.1114
2883.00,0.1137
2882.00,0.1165
2881.00,0.1195
2880.00,0.1225
2879.00,0.1251
2878.00,0.1268
2877.00,0.1274
2876.00,0.1271
2875.00,0.1263
2874.00,0.1255
2873.00,0.1253
2872.00,0.1259
2871.00,0.1273
2870.00,0.1294
2869.00,0.1316
2868.00,0.1331
2867.00,0.1329
2866.00,0.1303
2865.00,0.1249
2864.00,0.1170
2863.00,0.1075
2862.00,0.0976
2861.00,0.0882
2860.00,0.0802
2859.00,0.0738
2858.00,0.0689
2857.00,0.0654
2856.00,0.0629
2855.00,0.0613
2854.00,0.0604
2853.00,0.0603
2852.00,0.0609
2851.00,0.0621
2850.00,0.0641
2849.00,0.0668
2848.00,0.0704
2847.00,0.0748
2846.00,0.0801
2845.00,0.0863
2844.00,0.0932
2843.00,0.1007
2842.00,0.1083
2841.00,0.1154
2840.00,0.1213
2839.00,0.1250
2838.00,0.1257
2837.00,0.1230
2836.00,0.1168
2835.00,0.1078
2834.00,0.0969
2833.00,0.0855
2832.00,0.0747
2831.00,0.0650
2830.00,0.0568
2829.00,0.0500
2828.00,0.0446
2827.00,0.0402
2826.00,0.0367
2825.00,0.0338
2824.00,0.0314
2823.00,0.0294
2822.00,0.0276
2821.00,0.0261
2820.00,0.0248
2819.00,0.0237
2818.00,0.0227
2817.00,0.0218
2816.00,0.0211
2815.00,0.0204
2814.00,0.0198
2813.00,0.0193
2812.00,0.0187
2811.00,0.0182
2810.00,0.0176
2809.00,0.0170
2808.00,0.0164
2807.00,0.0157
2806.00,0.0151
2805.00,0.0144
2804.00,0.0137
2803.00,0.0131
2802.00,0.0126
2801.00,0.0121
2800.00,0.0117
2799.00,0.0114
2798.00,0.0111
2797.00,0.0109
2796.00,0.0106
2795.00,0.0104
2794.00,0.0102
2793.00,0.0099
2792.00,0.0096
2791.00,0.0093
2790.00,0.0089
2789.00,0.0086
2788.00,0.0083
2787.00,0.0081
2786.00,0.0078
2785.00,0.0075
2784.00,0.0073
2783.00,0.0071
2782.00,0.0069
2781.00,0.0067
2780.00,0.0065
2779.00,0.0063
2778.00,0.0062
2777.00,0.0060
2776.00,0.0059
2775.00,0.0058
2774.00,0.0058
2773.00,0.0057
2772.00,0.0057
2771.00,0.0056
2770.00,0.0056
2769.00,0.0055
2768.00,0.0055
2767.00,0.0054
2766.00,0.0054
2765.00,0.0054
2764.00,0.0053
2763.00,0.0053
2762.00,0.0053
2761.00,0.0052
2760.00,0.0052
2759.00,0.0052
2758.00,0.0052
2757.00,0.0051
2756.00,0.0051
2755.00,0.0051
2754.00,0.0051
2753.00,0.0051
2752.00,0.0051
2751.00,0.0051
2750.00,0.0050
2749.00,0.0050
2748.00,0.0050
2747.00,0.0051
2746.00,0.0051
2745.00,0.0052
2744.00,0.0053
2743.00,0.0053
2742.00,0.0055
2741.00,0.0056
2740.00,0.0057
2739.00,0.0058
2738.00,0.0060
2737.00,0.0061
2736.00,0.0063
2735.00,0.0065
2734.00,0.0066
2733.00,0.0068
2732.00,0.0070
2731.00,0.0072
2730.00,0.0074
2729.00,0.0077
2728.00,0.0080
2727.00,0.0083
2726.00,0.0085
2725.00,0.0088
2724.00,0.0090
2723.00,0.0090
2722.00,0.0090
2721.00,0.0088
2720.00,0.0085
2719.00,0.0081
2718.00,0.0077
2717.00,0.0074
2716.00,0.0070
2715.00,0.0067
2714.00,0.0065
2713.00,0.0063
2712.00,0.0060
2711.00,0.0058
2710.00,0.0057
2709.00,0.0055
2708.00,0.0054
2707.00,0.0052
2706.00,0.0051
2705.00,0.0050
2704.00,0.0048
2703.00,0.0047
2702.00,0.0046
2701.00,0.0046
2700.00,0.0045
2699.00,0.0045
2698.00,0.0045
2697.00,0.0044
2696.00,0.0044
2695.00,0.0044
2694.00,0.0044
2693.00,0.0044
2692.00,0.0044
2691.00,0.0044
2690.00,0.0044
2689.00,0.0044
2688.00,0.0044
2687.00,0.0044
2686.00,0.0043
2685.00,0.0043
2684.00,0.0043
2683.00,0.0044
2682.00,0.0044
2681.00,0.0044
2680.00,0.0044
2679.00,0.0044
2678.00,0.0044
2677.00,0.0044
2676.00,0.0044
2675.00,0.0044
2674.00,0.0044
2673.00,0.0044
2672.00,0.0043
2671.00,0.0043
2670.00,0.0043
2669.00,0.0043
2668.00,0.0043
2667.00,0.0044
2666.00,0.0044
2665.00,0.0045
2664.00,0.0045
2663.00,0.0045
2662.00,0.0046
2661.00,0.0046
2660.00,0.0047
2659.00,0.0047
2658.00,0.0047
2657.00,0.0047
2656.00,0.0046
2655.00,0.0046
2654.00,0.0045
2653.00,0.0045
2652.00,0.0044
2651.00,0.0044
2650.00,0.0043
2649.00,0.0042
2648.00,0.0041
2647.00,0.0041
2646.00,0.0041
2645.00,0.0041
2644.00,0.0041
2643.00,0.0040
2642.00,0.0040
2641.00,0.0040
2640.00,0.0039
2639.00,0.0039
2638.00,0.0038
2637.00,0.0038
2636.00,0.0037
2635.00,0.0037
2634.00,0.0037
2633.00,0.0037
2632.00,0.0037
2631.00,0.0037
2630.00,0.0038
2629.00,0.0038
2628.00,0.0038
2627.00,0.0039
2626.00,0.0039
2625.00,0.0039
2624.00,0.0039
2623.00,0.0039
2622.00,0.0040
2621.00,0.0040
2620.00,0.0040
2619.00,0.0040
2618.00,0.0039
2617.00,0.0040
2616.00,0.0040
2615.00,0.0040
2614.00,0.0040
2613.00,0.0040
2612.00,0.0039
2611.00,0.0038
2610.00,0.0037
2609.00,0.0036
2608.00,0.0035
2607.00,0.0034
2606.00,0.0034
2605.00,0.0033
2604.00,0.0032
2603.00,0.0032
2602.00,0.0031
2601.00,0.0031
2600.00,0.0031
2599.00,0.0031
2598.00,0.0030
2597.00,0.0030
2596.00,0.0030
2595.00,0.0031
2594.00,0.0031
2593.00,0.0032
2592.00,0.0033
2591.00,0.0034
2590.00,0.0034
2589.00,0.0035
2588.00,0.0036
2587.00,0.0038
2586.00,0.0039
2585.00,0.0040
2584.00,0.0040
2583.00,0.0041
2582.00,0.0040
2581.00,0.0040
2580.00,0.0040
2579.00,0.0039
2578.00,0.0038
2577.00,0.0037
2576.00,0.0035
2575.00,0.0034
2574.00,0.0032
2573.00,0.0030
2572.00,0.0029
2571.00,0.0029
2570.00,0.0028
2569.00,0.0027
2568.00,0.0026
2567.00,0.0026
2566.00,0.0025
2565.00,0.0025
2564.00,0.0025
2563.00,0.0024
2562.00,0.0023
2561.00,0.0023
2560.00,0.0023
2559.00,0.0023
2558.00,0.0023
2557.00,0.0023
2556.00,0.0022
2555.00,0.0022
2554.00,0.0021
2553.00,0.0021
2552.00,0.0021
2551.00,0.0020
2550.00,0.0020
2549.00,0.0020
2548.00,0.0019
2547.00,0.0019
2546.00,0.0018
2545.00,0.0017
2544.00,0.0017
2543.00,0.0017
2542.00,0.0017
2541.00,0.0016
2540.00,0.0016
2539.00,0.0015
2538.00,0.0015
2537.00,0.0015
2536.00,0.0016
2535.00,0.0016
2534.00,0.0017
2533.00,0.0017
2532.00,0.0017
2531.00,0.0016
2530.00,0.0016
2529.00,0.0015
2528.00,0.0014
2527.00,0.0013
2526.00,0.0013
2525.00,0.0013
2524.00,0.0012
2523.00,0.0012
2522.00,0.0012
2521.00,0.0012
2520.00,0.0012
2519.00,0.0012
2518.00,0.0012
2517.00,0.0012
2516.00,0.0012
2515.00,0.0012
2514.00,0.0011
2513.00,0.0011
2512.00,0.0011
2511.00,0.0011
2510.00,0.0010
2509.00,0.0010
2508.00,0.0010
2507.00,0.0010
2506.00,0.0010
2505.00,0.0010
2504.00,0.0010
2503.00,0.0009
2502.00,0.0009
2501.00,0.0009
2500.00,0.0009
2499.00,0.0009
2498.00,0.0009
2497.00,0.0009
2496.00,0.0010
2495.00,0.0010
2494.00,0.0010
2493.00,0.0010
2492.00,0.0011
2491.00,0.0011
2490.00,0.0011
2489.00,0.0010
2488.00,0.0010
2487.00,0.0009
2486.00,0.0009
2485.00,0.0009
2484.00,0.0009
2483.00,0.0010
2482.00,0.0010
2481.00,0.0011
2480.00,0.0010
2479.00,0.0010
2478.00,0.0009
2477.00,0.0008
2476.00,0.0008
2475.00,0.0008
2474.00,0.0008
2473.00,0.0008
2472.00,0.0008
2471.00,0.0008
2470.00,0.0009
2469.00,0.0010
2468.00,0.0010
2467.00,0.0009
2466.00,0.0009
2465.00,0.0009
2464.00,0.0009
2463.00,0.0010
2462.00,0.0010
2461.00,0.0011
2460.00,0.0012
2459.00,0.0011
2458.00,0.0011
2457.00,0.0011
2456.00,0.0010
2455.00,0.0010
2454.00,0.0010
2453.00,0.0010
2452.00,0.0010
2451.00,0.0010
2450.00,0.0010
2449.00,0.0010
2448.00,0.0010
2447.00,0.0010
2446.00,0.0010
2445.00,0.0010
2444.00,0.0010
2443.00,0.0010
2442.00,0.0010
2441.00,0.0010
2440.00,0.0011
2439.00,0.0011
2438.00,0.0012
2437.00,0.0012
2436.00,0.0012
2435.00,0.0012
2434.00,0.0012
2433.00,0.0012
2432.00,0.0011
2431.00,0.0011
2430.00,0.0011
2429.00,0.0012
2428.00,0.0012
2427.00,0.0012
2426.00,0.0012
2425.00,0.0012
2424.00,0.0012
2423.00,0.0012
2422.00,0.0011
2421.00,0.0011
2420.00,0.0011
2419.00,0.0010
2418.00,0.0010
2417.00,0.0011
2416.00,0.0011
2415.00,0.0011
2414.00,0.0011
2413.00,0.0010
2412.00,0.0010
2411.00,0.0010
2410.00,0.0010
2409.00,0.0010
2408.00,0.0009
2407.00,0.0008
2406.00,0.0008
2405.00,0.0008
2404.00,0.0008
2403.00,0.0008
2402.00,0.0008
2401.00,0.0009
2400.00,0.0008
2399.00,0.0008
2398.00,0.0008
2397.00,0.0007
2396.00,0.0007
2395.00,0.0007
2394.00,0.0007
2393.00,0.0007
2392.00,0.0008
2391.00,0.0008
2390.00,0.0008
2389.00,0.0007
2388.00,0.0006
2387.00,0.0005
2386.00,0.0005
2385.00,0.0004
2384.00,0.0003
2383.00,0.0003
2382.00,0.0002
2381.00,0.0001
2380.00,0.0001
2379.00,0.0001
2378.00,0.0002
2377.00,0.0002
2376.00,0.0002
2375.00,0.0002
2374.00,0.0001
2373.00,0.0000
2372.00,-0.0001
2371.00,-0.0001
2370.00,-0.0002
2369.00,-0.0002
2368.00,-0.0003
2367.00,-0.0003
2366.00,-0.0003
2365.00,-0.0003
2364.00,-0.0002
2363.00,-0.0001
2362.00,0.0000
2361.00,0.0001
2360.00,0.0000
2359.00,-0.0000
2358.00,-0.0000
2357.00,0.0000
2356.00,0.0001
2355.00,0.0001
2354.00,0.0001
2353.00,0.0001
2352.00,0.0000
2351.00,0.0000
2350.00,0.0000
2349.00,0.0001
2348.00,0.0001
2347.00,0.0001
2346.00,0.0001
2345.00,0.0001
2344.00,0.0001
2343.00,0.0001
2342.00,0.0002
2341.00,0.0003
2340.00,0.0004
2339.00,0.0004
2338.00,0.0004
2337.00,0.0004
2336.00,0.0004
2335.00,0.0004
2334.00,0.0003
2333.00,0.0002
2332.00,0.0002
2331.00,0.0002
2330.00,0.0002
2329.00,0.0003
2328.00,0.0005
2327.00,0.0009
2326.00,0.0014
2325.00,0.0017
2324.00,0.0019
2323.00,0.0018
2322.00,0.0016
2321.00,0.0013
2320.00,0.0012
2319.00,0.0011
2318.00,0.0010
2317.00,0.0009
2316.00,0.0009
2315.00,0.0008
2314.00,0.0008
2313.00,0.0007
2312.00,0.0006
2311.00,0.0006
2310.00,0.0006
2309.00,0.0005
2308.00,0.0005
2307.00,0.0005
2306.00,0.0006
2305.00,0.0006
2304.00,0.0006
2303.00,0.0007
2302.00,0.0007
2301.00,0.0007
2300.00,0.0008
2299.00,0.0009
2298.00,0.0010
2297.00,0.0010
2296.00,0.0010
2295.00,0.0011
2294.00,0.0012
2293.00,0.0013
2292.00,0.0014
2291.00,0.0015
2290.00,0.0016
2289.00,0.0016
2288.00,0.0017
2287.00,0.0017
2286.00,0.0018
2285.00,0.0018
2284.00,0.0018
2283.00,0.0017
2282.00,0.0016
2281.00,0.0014
2280.00,0.0013
2279.00,0.0012
2278.00,0.0011
2277.00,0.0011
2276.00,0.0012
2275.00,0.0013
2274.00,0.0013
2273.00,0.0014
2272.00,0.0015
2271.00,0.0016
2270.00,0.0016
2269.00,0.0016
2268.00,0.0016
2267.00,0.0014
2266.00,0.0012
2265.00,0.0010
2264.00,0.0009
2263.00,0.0009
2262.00,0.0009
2261.00,0.0010
2260.00,0.0010
2259.00,0.0010
2258.00,0.0010
2257.00,0.0011
2256.00,0.0011
2255.00,0.0010
2254.00,0.0010
2253.00,0.0009
2252.00,0.0009
2251.00,0.0010
2250.00,0.0010
2249.00,0.0010
2248.00,0.0009
2247.00,0.0009
2246.00,0.0009
2245.00,0.0009
2244.00,0.0008
2243.00,0.0006
2242.00,0.0004
2241.00,0.0003
2240.00,0.0002
2239.00,0.0004
2238.00,0.0006
2237.00,0.0008
2236.00,0.0010
2235.00,0.0009
2234.00,0.0009
2233.00,0.0008
2232.00,0.0008
2231.00,0.0007
2230.00,0.0007
2229.00,0.0006
2228.00,0.0005
2227.00,0.0004
2226.00,0.0003
2225.00,0.0002
2224.00,0.0002
2223.00,0.0002
2222.00,0.0003
2221.00,0.0003
2220.00,0.0003
2219.00,0.0004
2218.00,0.0005
2217.00,0.0006
2216.00,0.0006
2215.00,0.0006
2214.00,0.0005
2213.00,0.0004
2212.00,0.0003
2211.00,0.0003
2210.00,0.0004
2209.00,0.0006
2208.00,0.0008
2207.00,0.0009
2206.00,0.0008
2205.00,0.0006
2204.00,0.0005
2203.00,0.0005
2202.00,0.0005
2201.00,0.0006
2200.00,0.0008
2199.00,0.0010
2198.00,0.0010
2197.00,0.0010
2196.00,0.0009
2195.00,0.0008
2194.00,0.0008
2193.00,0.0010
2192.00,0.0013
2191.00,0.0014
2190.00,0.0014
2189.00,0.0013
2188.00,0.0013
2187.00,0.0013
2186.00,0.0015
2185.00,0.0017
2184.00,0.0017
2183.00,0.0014
2182.00,0.0008
2181.00,0.0002
2180.00,-0.0001
2179.00,-0.0002
2178.00,-0.0001
2177.00,0.0000
2176.00,0.0000
2175.00,-0.0001
2174.00,-0.0001
2173.00,0.0002
2172.00,0.0006
2171.00,0.0011
2170.00,0.0013
2169.00,0.0014
2168.00,0.0014
2167.00,0.0012
2166.00,0.0011
2165.00,0.0012
2164.00,0.0015
2163.00,0.0018
2162.00,0.0019
2161.00,0.0013
2160.00,0.0001
2159.00,-0.0014
2158.00,-0.0027
2157.00,-0.0032
2156.00,-0.0029
2155.00,-0.0023
2154.00,-0.0018
2153.00,-0.0014
2152.00,-0.0012
2151.00,-0.0011
2150.00,-0.0011
2149.00,-0.0011
2148.00,-0.0012
2147.00,-0.0012
2146.00,-0.0013
2145.00,-0.0014
2144.00,-0.0015
2143.00,-0.0015
2142.00,-0.0015
2141.00,-0.0015
2140.00,-0.0014
2139.00,-0.0014
2138.00,-0.0014
2137.00,-0.0014
2136.00,-0.0015
2135.00,-0.0017
2134.00,-0.0019
2133.00,-0.0019
2132.00,-0.0017
2131.00,-0.0015
2130.00,-0.0012
2129.00,-0.0009
2128.00,-0.0007
2127.00,-0.0006
2126.00,-0.0005
2125.00,-0.0005
2124.00,-0.0004
2123.00,-0.0004
2122.00,-0.0005
2121.00,-0.0004
2120.00,-0.0003
2119.00,-0.0002
2118.00,-0.0000
2117.00,0.0001
2116.00,0.0003
2115.00,0.0004
2114.00,0.0006
2113.00,0.0007
2112.00,0.0007
2111.00,0.0006
2110.00,0.0005
2109.00,0.0003
2108.00,0.0002
2107.00,0.0001
2106.00,0.0001
2105.00,0.0003
2104.00,0.0004
2103.00,0.0004
2102.00,0.0003
2101.00,0.0003
2100.00,0.0003
2099.00,0.0002
2098.00,0.0001
2097.00,0.0000
2096.00,-0.0002
2095.00,-0.0004
2094.00,-0.0005
2093.00,-0.0004
2092.00,-0.0002
2091.00,-0.0000
2090.00,0.0001
2089.00,0.0002
2088.00,0.0002
2087.00,0.0001
2086.00,0.0002
2085.00,0.0002
2084.00,0.0003
2083.00,0.0003
2082.00,0.0003
2081.00,0.0003
2080.00,0.0002
2079.00,0.0001
2078.00,0.0001
2077.00,0.0001
2076.00,0.0003
2075.00,0.0005
2074.00,0.0006
2073.00,0.0006
2072.00,0.0005
2071.00,0.0004
2070.00,0.0004
2069.00,0.0004
2068.00,0.0004
2067.00,0.0003
2066.00,0.0002
2065.00,0.0001
2064.00,-0.0001
2063.00,-0.0002
2062.00,-0.0003
2061.00,-0.0003
2060.00,-0.0003
2059.00,-0.0003
2058.00,-0.0002
2057.00,-0.0001
2056.00,0.0001
2055.00,0.0002
2054.00,0.0003
2053.00,0.0005
2052.00,0.0007
2051.00,0.0010
2050.00,0.0011
2049.00,0.0010
2048.00,0.0009
2047.00,0.0007
2046.00,0.0005
2045.00,0.0003
2044.00,0.0001
2043.00,0.0000
2042.00,-0.0000
2041.00,-0.0001
2040.00,-0.0003
2039.00,-0.0005
2038.00,-0.0006
2037.00,-0.0008
2036.00,-0.0010
2035.00,-0.0011
2034.00,-0.0012
2033.00,-0.0011
2032.00,-0.0011
2031.00,-0.0011
2030.00,-0.0011
2029.00,-0.0011
2028.00,-0.0011
2027.00,-0.0010
2026.00,-0.0010
2025.00,-0.0009
2024.00,-0.0009
2023.00,-0.0010
2022.00,-0.0012
2021.00,-0.0014
2020.00,-0.0015
2019.00,-0.0014
2018.00,-0.0011
2017.00,-0.0009
2016.00,-0.0009
2015.00,-0.0009
2014.00,-0.0009
2013.00,-0.0009
2012.00,-0.0009
2011.00,-0.0009
2010.00,-0.0009
2009.00,-0.0010
2008.00,-0.0012
2007.00,-0.0015
2006.00,-0.0018
2005.00,-0.0018
2004.00,-0.0017
2003.00,-0.0015
2002.00,-0.0014
2001.00,-0.0013
2000.00,-0.0014
1999.00,-0.0013
1998.00,-0.0012
1997.00,-0.0010
1996.00,-0.0010
1995.00,-0.0011
1994.00,-0.0011
1993.00,-0.0009
1992.00,-0.0007
1991.00,-0.0005
1990.00,-0.0004
1989.00,-0.0002
1988.00,0.0000
1987.00,0.0003
1986.00,0.0004
1985.00,0.0005
1984.00,0.0006
1983.00,0.0006
1982.00,0.0008
1981.00,0.0011
1980.00,0.0014
1979.00,0.0012
1978.00,0.0006
1977.00,-0.0001
1976.00,-0.0007
1975.00,-0.0010
1974.00,-0.0014
1973.00,-0.0017
1972.00,-0.0018
1971.00,-0.0019
1970.00,-0.0018
1969.00,-0.0018
1968.00,-0.0017
1967.00,-0.0017
1966.00,-0.0018
1965.00,-0.0018
1964.00,-0.0018
1963.00,-0.0017
1962.00,-0.0016
1961.00,-0.0016
1960.00,-0.0018
1959.00,-0.0021
1958.00,-0.0023
1957.00,-0.0022
1956.00,-0.0019
1955.00,-0.0015
1954.00,-0.0013
1953.00,-0.0012
1952.00,-0.0014
1951.00,-0.0016
1950.00,-0.0017
1949.00,-0.0017
1948.00,-0.0017
1947.00,-0.0016
1946.00,-0.0015
1945.00,-0.0015
1944.00,-0.0014
1943.00,-0.0014
1942.00,-0.0014
1941.00,-0.0014
1940.00,-0.0015
1939.00,-0.0015
1938.00,-0.0015
1937.00,-0.0014
1936.00,-0.0012
1935.00,-0.0012
1934.00,-0.0011
1933.00,-0.0011
1932.00,-0.0010
1931.00,-0.0009
1930.00,-0.0008
1929.00,-0.0008
1928.00,-0.0008
1927.00,-0.0009
1926.00,-0.0009
1925.00,-0.0009
1924.00,-0.0008
1923.00,-0.0006
1922.00,-0.0005
1921.00,-0.0003
1920.00,-0.0003
1919.00,-0.0003
1918.00,-0.0004
1917.00,-0.0005
1916.00,-0.0004
1915.00,-0.0003
1914.00,-0.0002
1913.00,-0.0002
1912.00,-0.0002
1911.00,-0.0002
1910.00,-0.0003
1909.00,-0.0003
1908.00,-0.0003
1907.00,-0.0003
1906.00,-0.0003
1905.00,-0.0004
1904.00,-0.0004
1903.00,-0.0004
1902.00,-0.0004
1901.00,-0.0004
1900.00,-0.0004
1899.00,-0.0003
1898.00,-0.0003
1897.00,-0.0002
1896.00,-0.0001
1895.00,-0.0000
1894.00,-0.0000
1893.00,-0.0000
1892.00,-0.0001
1891.00,-0.0001
1890.00,-0.0001
1889.00,-0.0001
1888.00,-0.0001
1887.00,-0.0001
1886.00,-0.0001
1885.00,-0.0001
1884.00,-0.0002
1883.00,-0.0003
1882.00,-0.0004
1881.00,-0.0004
1880.00,-0.0004
1879.00,-0.0004
1878.00,-0.0004
1877.00,-0.0003
1876.00,-0.0003
1875.00,-0.0003
1874.00,-0.0003
1873.00,-0.0003
1872.00,-0.0003
1871.00,-0.0002
1870.00,-0.0002
1869.00,-0.0002
1868.00,-0.0001
1867.00,-0.0001
1866.00,-0.0002
1865.00,-0.0002
1864.00,-0.0002
1863.00,-0.0001
1862.00,-0.0001
1861.00,-0.0000
1860.00,0.0001
1859.00,0.0001
1858.00,0.0001
1857.00,0.0000
1856.00,0.0000
1855.00,0.0000
1854.00,-0.0000
1853.00,-0.0000
1852.00,-0.0000
1851.00,-0.0000
1850.00,0.0000
1849.00,0.0001
1848.00,0.0002
1847.00,0.0002
1846.00,0.0002
1845.00,0.0002
1844.00,0.0001
1843.00,0.0001
1842.00,0.0001
1841.00,0.0001
1840.00,0.0000
1839.00,-0.0000
1838.00,-0.0000
1837.00,0.0000
1836.00,0.0001
1835.00,0.0001
1834.00,0.0002
1833.00,0.0002
1832.00,0.0002
1831.00,0.0002
1830.00,0.0002
1829.00,0.0001
1828.00,0.0000
1827.00,-0.0000
1826.00,0.0000
1825.00,0.0001
1824.00,0.0001
1823.00,0.0002
1822.00,0.0002
1821.00,0.0002
1820.00,0.0001
1819.00,0.0001
1818.00,-0.0001
1817.00,-0.0002
1816.00,-0.0002
1815.00,-0.0001
1814.00,-0.0000
1813.00,0.0001
1812.00,0.0001
1811.00,0.0002
1810.00,0.0002
1809.00,0.0002
1808.00,0.0003
1807.00,0.0003
1806.00,0.0004
1805.00,0.0004
1804.00,0.0004
1803.00,0.0003
1802.00,0.0003
1801.00,0.0003
1800.00,0.0004
1799.00,0.0004
1798.00,0.0004
1797.00,0.0003
1796.00,0.0003
1795.00,0.0004
1794.00,0.0004
1793.00,0.0005
1792.00,0.0005
1791.00,0.0006
1790.00,0.0006
1789.00,0.0007
1788.00,0.0008
1787.00,0.0008
1786.00,0.0008
1785.00,0.0007
1784.00,0.0007
1783.00,0.0006
1782.00,0.0006
1781.00,0.0006
1780.00,0.0006
1779.00,0.0006
1778.00,0.0006
1777.00,0.0006
1776.00,0.0006
1775.00,0.0007
1774.00,0.0007
1773.00,0.0008
1772.00,0.0008
1771.00,0.0008
1770.00,0.0008
1769.00,0.0007
1768.00,0.0007
1767.00,0.0008
1766.00,0.0009
1765.00,0.0010
1764.00,0.0011
1763.00,0.0011
1762.00,0.0010
1761.00,0.0010
1760.00,0.0010
1759.00,0.0010
1758.00,0.0011
1757.00,0.0011
1756.00,0.0011
1755.00,0.0011
1754.00,0.0011
1753.00,0.0012
1752.00,0.0013
1751.00,0.0013
1750.00,0.0014
1749.00,0.0014
1748.00,0.0015
1747.00,0.0016
1746.00,0.0017
1745.00,0.0018
1744.00,0.0019
1743.00,0.0020
1742.00,0.0020
1741.00,0.0020
1740.00,0.0021
1739.00,0.0021
1738.00,0.0022
1737.00,0.0023
1736.00,0.0023
1735.00,0.0024
1734.00,0.0024
1733.00,0.0024
1732.00,0.0023
1731.00,0.0023
1730.00,0.0023
1729.00,0.0023
1728.00,0.0023
1727.00,0.0024
1726.00,0.0024
1725.00,0.0024
1724.00,0.0024
1723.00,0.0023
1722.00,0.0022
1721.00,0.0021
1720.00,0.0021
1719.00,0.0020
1718.00,0.0020
1717.00,0.0020
1716.00,0.0021
1715.00,0.0022
1714.00,0.0023
1713.00,0.0023
1712.00,0.0023
1711.00,0.0023
1710.00,0.0023
1709.00,0.0023
1708.00,0.0023
1707.00,0.0023
1706.00,0.0024
1705.00,0.0024
1704.00,0.0024
1703.00,0.0025
1702.00,0.0024
1701.00,0.0024
1700.00,0.0025
1699.00,0.0025
1698.00,0.0025
1697.00,0.0025
1696.00,0.0026
1695.00,0.0027
1694.00,0.0028
1693.00,0.0029
1692.00,0.0029
1691.00,0.0030
1690.00,0.0030
1689.00,0.0030
1688.00,0.0030
1687.00,0.0029
1686.00,0.0029
1685.00,0.0029
1684.00,0.0030
1683.00,0.0031
1682.00,0.0032
1681.00,0.0033
1680.00,0.0035
1679.00,0.0035
1678.00,0.0036
1677.00,0.0037
1676.00,0.0037
1675.00,0.0038
1674.00,0.0039
1673.00,0.0039
1672.00,0.0039
1671.00,0.0039
1670.00,0.0039
1669.00,0.0040
1668.00,0.0041
1667.00,0.0042
1666.00,0.0043
1665.00,0.0043
1664.00,0.0043
1663.00,0.0044
1662.00,0.0044
1661.00,0.0045
1660.00,0.0046
1659.00,0.0046
1658.00,0.0047
1657.00,0.0047
1656.00,0.0048
1655.00,0.0048
1654.00,0.0049
1653.00,0.0050
1652.00,0.0051
1651.00,0.0052
1650.00,0.0053
1649.00,0.0055
1648.00,0.0056
1647.00,0.0058
1646.00,0.0058
1645.00,0.0058
1644.00,0.0058
1643.00,0.0058
1642.00,0.0058
1641.00,0.0058
1640.00,0.0058
1639.00,0.0057
1638.00,0.0057
1637.00,0.0056
1636.00,0.0056
1635.00,0.0056
1634.00,0.0056
1633.00,0.0056
1632.00,0.0056
1631.00,0.0056
1630.00,0.0056
1629.00,0.0056
1628.00,0.0055
1627.00,0.0055
1626.00,0.0054
1625.00,0.0053
1624.00,0.0053
1623.00,0.0052
1622.00,0.0052
1621.00,0.0052
1620.00,0.0052
1619.00,0.0052
1618.00,0.0052
1617.00,0.0052
1616.00,0.0052
1615.00,0.0052
1614.00,0.0052
1613.00,0.0052
1612.00,0.0052
1611.00,0.0052
1610.00,0.0051
1609.00,0.0051
1608.00,0.0051
1607.00,0.0051
1606.00,0.0051
1605.00,0.0051
1604.00,0.0051
1603.00,0.0051
1602.00,0.0051
1601.00,0.0051
1600.00,0.0051
1599.00,0.0050
1598.00,0.0050
1597.00,0.0050
1596.00,0.0050
1595.00,0.0050
1594.00,0.0050
1593.00,0.0050
1592.00,0.0051
1591.00,0.0051
1590.00,0.0051
1589.00,0.0051
1588.00,0.0051
1587.00,0.0051
1586.00,0.0051
1585.00,0.0052
1584.00,0.0053
1583.00,0.0053
1582.00,0.0054
1581.00,0.0054
1580.00,0.0055
1579.00,0.0056
1578.00,0.0057
1577.00,0.0058
1576.00,0.0058
1575.00,0.0057
1574.00,0.0056
1573.00,0.0056
1572.00,0.0056
1571.00,0.0055
1570.00,0.0055
1569.00,0.0054
1568.00,0.0055
1567.00,0.0054
1566.00,0.0054
1565.00,0.0054
1564.00,0.0055
1563.00,0.0055
1562.00,0.0055
1561.00,0.0055
1560.00,0.0055
1559.00,0.0055
1558.00,0.0055
1557.00,0.0055
1556.00,0.0056
1555.00,0.0057
1554.00,0.0058
1553.00,0.0059
1552.00,0.0060
1551.00,0.0060
1550.00,0.0060
1549.00,0.0061
1548.00,0.0061
1547.00,0.0061
1546.00,0.0062
1545.00,0.0063
1544.00,0.0064
1543.00,0.0064
1542.00,0.0064
1541.00,0.0064
1540.00,0.0063
1539.00,0.0060
1538.00,0.0059
1537.00,0.0058
1536.00,0.0058
1535.00,0.0057
1534.00,0.0055
1533.00,0.0053
1532.00,0.0053
1531.00,0.0052
1530.00,0.0051
1529.00,0.0051
1528.00,0.0050
1527.00,0.0048
1526.00,0.0047
1525.00,0.0047
1524.00,0.0048
1523.00,0.0049
1522.00,0.0049
1521.00,0.0050
1520.00,0.0050
1519.00,0.0050
1518.00,0.0050
1517.00,0.0051
1516.00,0.0052
1515.00,0.0052
1514.00,0.0053
1513.00,0.0054
1512.00,0.0055
1511.00,0.0055
1510.00,0.0055
1509.00,0.0055
1508.00,0.0056
1507.00,0.0056
1506.00,0.0056
1505.00,0.0058
1504.00,0.0061
1503.00,0.0062
1502.00,0.0064
1501.00,0.0066
1500.00,0.0068
1499.00,0.0070
1498.00,0.0071
1497.00,0.0074
1496.00,0.0078
1495.00,0.0081
1494.00,0.0083
1493.00,0.0085
1492.00,0.0089
1491.00,0.0092
1490.00,0.0096
1489.00,0.0100
1488.00,0.0106
1487.00,0.0111
1486.00,0.0117
1485.00,0.0123
1484.00,0.0130
1483.00,0.0137
1482.00,0.0146
1481.00,0.0156
1480.00,0.0167
1479.00,0.0179
1478.00,0.0193
1477.00,0.0212
1476.00,0.0235
1475.00,0.0261
1474.00,0.0296
1473.00,0.0350
1472.00,0.0416
1471.00,0.0482
1470.00,0.0545
1469.00,0.0611
1468.00,0.0683
1467.00,0.0763
1466.00,0.0855
1465.00,0.0956
1464.00,0.1046
1463.00,0.1111
1462.00,0.1155
1461.00,0.1186
1460.00,0.1209
1459.00,0.1226
1458.00,0.1242
1457.00,0.1254
1456.00,0.1258
1455.00,0.1253
1454.00,0.1244
1453.00,0.1230
1452.00,0.1205
1451.00,0.1166
1450.00,0.1111
1449.00,0.1033
1448.00,0.0933
1447.00,0.0828
1446.00,0.0735
1445.00,0.0656
1444.00,0.0590
1443.00,0.0536
1442.00,0.0496
1441.00,0.0469
1440.00,0.0454
1439.00,0.0449
1438.00,0.0452
1437.00,0.0455
1436.00,0.0447
1435.00,0.0421
1434.00,0.0381
1433.00,0.0333
1432.00,0.0284
1431.00,0.0240
1430.00,0.0207
1429.00,0.0183
1428.00,0.0167
1427.00,0.0157
1426.00,0.0151
1425.00,0.0145
1424.00,0.0140
1423.00,0.0137
1422.00,0.0135
1421.00,0.0133
1420.00,0.0129
1419.00,0.0127
1418.00,0.0125
1417.00,0.0122
1416.00,0.0120
1415.00,0.0119
1414.00,0.0118
1413.00,0.0117
1412.00,0.0115
1411.00,0.0115
1410.00,0.0115
1409.00,0.0114
1408.00,0.0114
1407.00,0.0114
1406.00,0.0115
1405.00,0.0114
1404.00,0.0114
1403.00,0.0115
1402.00,0.0117
1401.00,0.0118
1400.00,0.0119
1399.00,0.0121
1398.00,0.0123
1397.00,0.0125
1396.00,0.0128
1395.00,0.0133
1394.00,0.0138
1393.00,0.0144
1392.00,0.0150
1391.00,0.0159
1390.00,0.0171
1389.00,0.0188
1388.00,0.0213
1387.00,0.0250
1386.00,0.0300
1385.00,0.0363
1384.00,0.0446
1383.00,0.0561
1382.00,0.0714
1381.00,0.0912
1380.00,0.1161
1379.00,0.1452
1378.00,0.1744
1377.00,0.1972
1376.00,0.2071
1375.00,0.1994
1374.00,0.1759
1373.00,0.1458
1372.00,0.1176
1371.00,0.0940
1370.00,0.0750
1369.00,0.0605
1368.00,0.0505
1367.00,0.0443
1366.00,0.0410
1365.00,0.0397
1364.00,0.0399
1363.00,0.0415
1362.00,0.0440
1361.00,0.0466
1360.00,0.0485
1359.00,0.0491
1358.00,0.0479
1357.00,0.0449
1356.00,0.0407
1355.00,0.0360
1354.00,0.0314
1353.00,0.0276
1352.00,0.0244
1351.00,0.0220
1350.00,0.0200
1349.00,0.0184
1348.00,0.0172
1347.00,0.0162
1346.00,0.0153
1345.00,0.0147
1344.00,0.0141
1343.00,0.0137
1342.00,0.0133
1341.00,0.0130
1340.00,0.0127
1339.00,0.0124
1338.00,0.0123
1337.00,0.0122
1336.00,0.0124
1335.00,0.0126
1334.00,0.0130
1333.00,0.0135
1332.00,0.0140
1331.00,0.0144
1330.00,0.0146
1329.00,0.0144
1328.00,0.0140
1327.00,0.0134
1326.00,0.0127
1325.00,0.0120
1324.00,0.0113
1323.00,0.0108
1322.00,0.0103
1321.00,0.0099
1320.00,0.0096
1319.00,0.0093
1318.00,0.0091
1317.00,0.0090
1316.00,0.0089
1315.00,0.0088
1314.00,0.0087
1313.00,0.0087
1312.00,0.0088
1311.00,0.0091
1310.00,0.0095
1309.00,0.0102
1308.00,0.0110
1307.00,0.0120
1306.00,0.0130
1305.00,0.0137
1304.00,0.0140
1303.00,0.0139
1302.00,0.0136
1301.00,0.0133
1300.00,0.0131
1299.00,0.0131
1298.00,0.0132
1297.00,0.0132
1296.00,0.0131
1295.00,0.0129
1294.00,0.0124
1293.00,0.0119
1292.00,0.0113
1291.00,0.0108
1290.00,0.0103
1289.00,0.0099
1288.00,0.0095
1287.00,0.0092
1286.00,0.0090
1285.00,0.0088
1284.00,0.0086
1283.00,0.0085
1282.00,0.0083
1281.00,0.0082
1280.00,0.0081
1279.00,0.0080
1278.00,0.0079
1277.00,0.0079
1276.00,0.0078
1275.00,0.0078
1274.00,0.0077
1273.00,0.0077
1272.00,0.0078
1271.00,0.0078
1270.00,0.0079
1269.00,0.0080
1268.00,0.0081
1267.00,0.0082
1266.00,0.0083
1265.00,0.0085
1264.00,0.0087
1263.00,0.0090
1262.00,0.0093
1261.00,0.0098
1260.00,0.0103
1259.00,0.0110
1258.00,0.0117
1257.00,0.0123
1256.00,0.0126
1255.00,0.0125
1254.00,0.0120
1253.00,0.0112
1252.00,0.0105
1251.00,0.0100
1250.00,0.0096
1249.00,0.0092
1248.00,0.0090
1247.00,0.0088
1246.00,0.0087
1245.00,0.0086
1244.00,0.0085
1243.00,0.0084
1242.00,0.0083
1241.00,0.0083
1240.00,0.0083
1239.00,0.0083
1238.00,0.0083
1237.00,0.0082
1236.00,0.0081
1235.00,0.0080
1234.00,0.0079
1233.00,0.0078
1232.00,0.0078
1231.00,0.0078
1230.00,0.0079
1229.00,0.0081
1228.00,0.0082
1227.00,0.0083
1226.00,0.0085
1225.00,0.0087
1224.00,0.0090
1223.00,0.0094
1222.00,0.0098
1221.00,0.0101
1220.00,0.0103
1219.00,0.0104
1218.00,0.0103
1217.00,0.0102
1216.00,0.0099
1215.00,0.0096
1214.00,0.0094
1213.00,0.0091
1212.00,0.0088
1211.00,0.0086
1210.00,0.0084
1209.00,0.0082
1208.00,0.0081
1207.00,0.0079
1206.00,0.0078
1205.00,0.0076
1204.00,0.0076
1203.00,0.0075
1202.00,0.0075
1201.00,0.0075
1200.00,0.0075
1199.00,0.0075
1198.00,0.0075
1197.00,0.0074
1196.00,0.0074
1195.00,0.0073
1194.00,0.0073
1193.00,0.0072
1192.00,0.0073
1191.00,0.0074
1190.00,0.0075
1189.00,0.0076
1188.00,0.0076
1187.00,0.0077
1186.00,0.0079
1185.00,0.0080
1184.00,0.0081
1183.00,0.0083
1182.00,0.0084
1181.00,0.0085
1180.00,0.0088
1179.00,0.0092
1178.00,0.0099
1177.00,0.0106
1176.00,0.0117
1175.00,0.0131
1174.00,0.0150
1173.00,0.0174
1172.00,0.0203
1171.00,0.0234
1170.00,0.0264
1169.00,0.0289
1168.00,0.0304
1167.00,0.0309
1166.00,0.0303
1165.00,0.0291
1164.00,0.0276
1163.00,0.0260
1162.00,0.0246
1161.00,0.0233
1160.00,0.0223
1159.00,0.0215
1158.00,0.0209
1157.00,0.0204
1156.00,0.0201
1155.00,0.0199
1154.00,0.0197
1153.00,0.0194
1152.00,0.0190
1151.00,0.0184
1150.00,0.0176
1149.00,0.0167
1148.00,0.0158
1147.00,0.0149
1146.00,0.0141
1145.00,0.0134
1144.00,0.0127
1143.00,0.0120
1142.00,0.0113
1141.00,0.0107
1140.00,0.0101
1139.00,0.0096
1138.00,0.0093
1137.00,0.0090
1136.00,0.0088
1135.00,0.0087
1134.00,0.0085
1133.00,0.0084
1132.00,0.0084
1131.00,0.0083
1130.00,0.0083
1129.00,0.0083
1128.00,0.0083
1127.00,0.0084
1126.00,0.0085
1125.00,0.0086
1124.00,0.0087
1123.00,0.0087
1122.00,0.0087
1121.00,0.0087
1120.00,0.0087
1119.00,0.0088
1118.00,0.0089
1117.00,0.0090
1116.00,0.0092
1115.00,0.0094
1114.00,0.0095
1113.00,0.0097
1112.00,0.0099
1111.00,0.0101
1110.00,0.0105
1109.00,0.0110
1108.00,0.0116
1107.00,0.0123
1106.00,0.0130
1105.00,0.0137
1104.00,0.0143
1103.00,0.0146
1102.00,0.0147
1101.00,0.0144
1100.00,0.0139
1099.00,0.0132
1098.00,0.0125
1097.00,0.0118
1096.00,0.0112
1095.00,0.0107
1094.00,0.0104
1093.00,0.0101
1092.00,0.0099
1091.00,0.0097
1090.00,0.0094
1089.00,0.0092
1088.00,0.0090
1087.00,0.0088
1086.00,0.0087
1085.00,0.0086
1084.00,0.0085
1083.00,0.0085
1082.00,0.0084
1081.00,0.0083
1080.00,0.0082
1079.00,0.0081
1078.00,0.0080
1077.00,0.0080
1076.00,0.0080
1075.00,0.0080
1074.00,0.0080
1073.00,0.0080
1072.00,0.0080
1071.00,0.0080
1070.00,0.0080
1069.00,0.0079
1068.00,0.0079
1067.00,0.0079
1066.00,0.0080
1065.00,0.0080
1064.00,0.0081
1063.00,0.0081
1062.00,0.0081
1061.00,0.0082
1060.00,0.0082
1059.00,0.0082
1058.00,0.0082
1057.00,0.0082
1056.00,0.0082
1055.00,0.0083
1054.00,0.0084
1053.00,0.0086
1052.00,0.0087
1051.00,0.0088
1050.00,0.0090
1049.00,0.0091
1048.00,0.0093
1047.00,0.0096
1046.00,0.0098
1045.00,0.0100
1044.00,0.0100
1043.00,0.0098
1042.00,0.0095
1041.00,0.0092
1040.00,0.0090
1039.00,0.0089
1038.00,0.0089
1037.00,0.0089
1036.00,0.0090
1035.00,0.0090
1034.00,0.0089
1033.00,0.0089
1032.00,0.0089
1031.00,0.0089
1030.00,0.0088
1029.00,0.0088
1028.00,0.0087
1027.00,0.0086
1026.00,0.0086
1025.00,0.0086
1024.00,0.0087
1023.00,0.0087
1022.00,0.0087
1021.00,0.0087
1020.00,0.0087
1019.00,0.0087
1018.00,0.0088
1017.00,0.0090
1016.00,0.0092
1015.00,0.0095
1014.00,0.0098
1013.00,0.0101
1012.00,0.0104
1011.00,0.0106
1010.00,0.0109
1009.00,0.0113
1008.00,0.0117
1007.00,0.0124
1006.00,0.0133
1005.00,0.0144
1004.00,0.0158
1003.00,0.0178
1002.00,0.0205
1001.00,0.0237
1000.00,0.0272
999.00,0.0301
998.00,0.0316
997.00,0.0310
996.00,0.0286
995.00,0.0251
994.00,0.0214
993.00,0.0181
992.00,0.0156
991.00,0.0138
990.00,0.0126
989.00,0.0117
988.00,0.0112
987.00,0.0109
986.00,0.0110
985.00,0.0113
984.00,0.0119
983.00,0.0128
982.00,0.0140
981.00,0.0155
980.00,0.0176
979.00,0.0203
978.00,0.0237
977.00,0.0276
976.00,0.0319
975.00,0.0358
974.00,0.0386
973.00,0.0395
972.00,0.0380
971.00,0.0345
970.00,0.0299
969.00,0.0251
968.00,0.0209
967.00,0.0177
966.00,0.0154
965.00,0.0137
964.00,0.0125
963.00,0.0115
962.00,0.0107
961.00,0.0100
960.00,0.0096
959.00,0.0092
958.00,0.0088
957.00,0.0085
956.00,0.0082
955.00,0.0081
954.00,0.0080
953.00,0.0079
952.00,0.0079
951.00,0.0078
950.00,0.0078
949.00,0.0079
948.00,0.0079
947.00,0.0081
946.00,0.0084
945.00,0.0087
944.00,0.0090
943.00,0.0094
942.00,0.0096
941.00,0.0097
940.00,0.0095
939.00,0.0092
938.00,0.0088
937.00,0.0083
936.00,0.0079
935.00,0.0075
934.00,0.0072
933.00,0.0070
932.00,0.0069
931.00,0.0067
930.00,0.0066
929.00,0.0064
928.00,0.0063
927.00,0.0061
926.00,0.0061
925.00,0.0061
924.00,0.0061
923.00,0.0062
922.00,0.0063
921.00,0.0065
920.00,0.0066
919.00,0.0066
918.00,0.0066
917.00,0.0067
916.00,0.0067
915.00,0.0068
914.00,0.0069
913.00,0.0070
912.00,0.0071
911.00,0.0072
910.00,0.0074
909.00,0.0077
908.00,0.0080
907.00,0.0085
906.00,0.0092
905.00,0.0103
904.00,0.0119
903.00,0.0139
902.00,0.0161
901.00,0.0182
900.00,0.0196
899.00,0.0199
898.00,0.0191
897.00,0.0175
896.00,0.0155
895.00,0.0134
894.00,0.0117
893.00,0.0104
892.00,0.0094
891.00,0.0087
890.00,0.0082
889.00,0.0079
888.00,0.0076
887.00,0.0074
886.00,0.0072
885.00,0.0070
884.00,0.0069
883.00,0.0069
882.00,0.0069
881.00,0.0069
880.00,0.0069
879.00,0.0069
878.00,0.0070
877.00,0.0071
876.00,0.0073
875.00,0.0074
874.00,0.0075
873.00,0.0074
872.00,0.0073
871.00,0.0072
870.00,0.0072
869.00,0.0072
868.00,0.0072
867.00,0.0073
866.00,0.0073
865.00,0.0073
864.00,0.0073
863.00,0.0074
862.00,0.0075
861.00,0.0077
860.00,0.0079
859.00,0.0080
858.00,0.0082
857.00,0.0084
856.00,0.0087
855.00,0.0089
854.00,0.0090
853.00,0.0092
852.00,0.0095
851.00,0.0099
850.00,0.0105
849.00,0.0112
848.00,0.0121
847.00,0.0135
846.00,0.0155
845.00,0.0184
844.00,0.0223
843.00,0.0264
842.00,0.0294
841.00,0.0300
840.00,0.0279
839.00,0.0241
838.00,0.0201
837.00,0.0169
836.00,0.0147
835.00,0.0134
834.00,0.0126
833.00,0.0119
832.00,0.0113
831.00,0.0108
830.00,0.0106
829.00,0.0106
828.00,0.0105
827.00,0.0104
826.00,0.0102
825.00,0.0101
824.00,0.0101
823.00,0.0101
822.00,0.0101
821.00,0.0102
820.00,0.0104
819.00,0.0107
818.00,0.0112
817.00,0.0119
816.00,0.0128
815.00,0.0139
814.00,0.0153
813.00,0.0169
812.00,0.0187
811.00,0.0203
810.00,0.0215
809.00,0.0221
808.00,0.0219
807.00,0.0210
806.00,0.0196
805.00,0.0179
804.00,0.0162
803.00,0.0146
802.00,0.0134
801.00,0.0125
800.00,0.0118
799.00,0.0112
798.00,0.0107
797.00,0.0104
796.00,0.0100
795.00,0.0097
794.00,0.0093
793.00,0.0089
792.00,0.0087
791.00,0.0085
790.00,0.0083
789.00,0.0081
788.00,0.0079
787.00,0.0076
786.00,0.0073
785.00,0.0070
784.00,0.0067
783.00,0.0065
782.00,0.0063
781.00,0.0062
780.00,0.0061
779.00,0.0060
778.00,0.0060
777.00,0.0060
776.00,0.0060
775.00,0.0061
774.00,0.0061
773.00,0.0063
772.00,0.0065
771.00,0.0067
770.00,0.0070
769.00,0.0072
768.00,0.0073
767.00,0.0073
766.00,0.0072
765.00,0.0069
764.00,0.0066
763.00,0.0064
762.00,0.0062
761.00,0.0060
760.00,0.0058
759.00,0.0056
758.00,0.0055
757.00,0.0055
756.00,0.0056
755.00,0.0057
754.00,0.0058
753.00,0.0057
752.00,0.0056
751.00,0.0054
750.00,0.0053
749.00,0.0053
748.00,0.0053
747.00,0.0053
746.00,0.0054
745.00,0.0054
744.00,0.0054
743.00,0.0056
742.00,0.0058
741.00,0.0060
740.00,0.0063
739.00,0.0065
738.00,0.0068
737.00,0.0071
736.00,0.0074
735.00,0.0077
734.00,0.0079
733.00,0.0081
732.00,0.0081
731.00,0.0081
730.00,0.0080
729.00,0.0079
728.00,0.0078
727.00,0.0077
726.00,0.0075
725.00,0.0074
724.00,0.0072
723.00,0.0070
722.00,0.0069
721.00,0.0067
720.00,0.0065
719.00,0.0062
718.00,0.0060
717.00,0.0057
716.00,0.0056
715.00,0.0055
714.00,0.0056
713.00,0.0057
712.00,0.0058
711.00,0.0058
710.00,0.0057
709.00,0.0056
708.00,0.0055
707.00,0.0056
706.00,0.0057
705.00,0.0057
704.00,0.0056
703.00,0.0056
702.00,0.0056
701.00,0.0056
700.00,0.0056
699.00,0.0055
698.00,0.0053
697.00,0.0052
696.00,0.0052
695.00,0.0053
694.00,0.0055
693.00,0.0055
692.00,0.0055
691.00,0.0054
690.00,0.0054
689.00,0.0053
688.00,0.0053
687.00,0.0052
686.00,0.0051
685.00,0.0051
684.00,0.0051
683.00,0.0053
682.00,0.0054
681.00,0.0054
680.00,0.0054
679.00,0.0053
678.00,0.0051
677.00,0.0050
676.00,0.0049
675.00,0.0049
674.00,0.0049
673.00,0.0050
672.00,0.0051
671.00,0.0052
670.00,0.0053
669.00,0.0054
668.00,0.0053
667.00,0.0051
666.00,0.0049
665.00,0.0050
664.00,0.0053
663.00,0.0055
662.00,0.0055
661.00,0.0054
660.00,0.0053
659.00,0.0053
658.00,0.0052
657.00,0.0051
656.00,0.0051
655.00,0.0051
654.00,0.0051
653.00,0.0051
652.00,0.0051
651.00,0.0052
650.00,0.0053
649.00,0.0055
648.00,0.0056
647.00,0.0058
646.00,0.0058
645.00,0.0057
644.00,0.0055
643.00,0.0054
642.00,0.0053
641.00,0.0054
640.00,0.0054
639.00,0.0054
638.00,0.0054
637.00,0.0053
636.00,0.0053
635.00,0.0054
634.00,0.0056
633.00,0.0058
632.00,0.0059
631.00,0.0057
630.00,0.0055
629.00,0.0053
628.00,0.0054
627.00,0.0056
626.00,0.0057
625.00,0.0058
624.00,0.0058
623.00,0.0058
622.00,0.0057
621.00,0.0055
620.00,0.0053
619.00,0.0054
618.00,0.0056
617.00,0.0058
616.00,0.0061
615.00,0.0061
614.00,0.0060
613.00,0.0058
612.00,0.0057
611.00,0.0057
610.00,0.0057
609.00,0.0057
608.00,0.0055
607.00,0.0055
606.00,0.0057
605.00,0.0060
604.00,0.0063
603.00,0.0063
602.00,0.0059
601.00,0.0055
600.00,0.0051
599.00,0.0050
598.00,0.0052
597.00,0.0055
596.00,0.0057
595.00,0.0059
594.00,0.0060
593.00,0.0061
592.00,0.0063
591.00,0.0065
590.00,0.0065
589.00,0.0064
588.00,0.0062
587.00,0.0059
586.00,0.0056
585.00,0.0054
584.00,0.0055
583.00,0.0059
582.00,0.0064
581.00,0.0070
580.00,0.0072
579.00,0.0071
578.00,0.0067
577.00,0.0064
576.00,0.0062
575.00,0.0062
574.00,0.0062
573.00,0.0060
572.00,0.0057
571.00,0.0056
570.00,0.0057
569.00,0.0060
568.00,0.0060
567.00,0.0056
566.00,0.0053
565.00,0.0052
564.00,0.0055
563.00,0.0060
562.00,0.0063
561.00,0.0063
560.00,0.0060
559.00,0.0057
558.00,0.0056
557.00,0.0058
556.00,0.0062
555.00,0.0066
554.00,0.0069
553.00,0.0068
552.00,0.0066
551.00,0.0065
550.00,0.0065
549.00,0.0066
548.00,0.0064
547.00,0.0063
546.00,0.0063
545.00,0.0066
544.00,0.0070
543.00,0.0073
542.00,0.0073
541.00,0.0073
540.00,0.0072
539.00,0.0073
538.00,0.0073
537.00,0.0072
536.00,0.0071
535.00,0.0071
534.00,0.0071
533.00,0.0071
532.00,0.0071
531.00,0.0073
530.00,0.0077
529.00,0.0080
528.00,0.0083
527.00,0.0085
526.00,0.0088
525.00,0.0090
524.00,0.0090
523.00,0.0087
522.00,0.0083
521.00,0.0080
520.00,0.0077
519.00,0.0073
518.00,0.0070
517.00,0.0068
516.00,0.0070
515.00,0.0072
514.00,0.0075
513.00,0.0077
512.00,0.0076
511.00,0.0074
510.00,0.0072
509.00,0.0072
508.00,0.0074
507.00,0.0077
506.00,0.0079
505.00,0.0081
504.00,0.0082
503.00,0.0081
502.00,0.0078
501.00,0.0074
500.00,0.0073
499.00,0.0073
498.00,0.0075
497.00,0.0078
496.00,0.0081
495.00,0.0080
494.00,0.0077
493.00,0.0074
492.00,0.0074
491.00,0.0077
490.00,0.0081
489.00,0.0082
488.00,0.0078
487.00,0.0069
486.00,0.0057
485.00,0.0047
484.00,0.0044
483.00,0.0048
482.00,0.0058
481.00,0.0067
480.00,0.0072
479.00,0.0070
478.00,0.0063
477.00,0.0058
476.00,0.0063
475.00,0.0076
474.00,0.0083
473.00,0.0079
472.00,0.0067
471.00,0.0062
470.00,0.0068
469.00,0.0080
468.00,0.0088
467.00,0.0093
466.00,0.0098
465.00,0.0110
464.00,0.0130
463.00,0.0152
462.00,0.0172
461.00,0.0185
460.00,0.0193
459.00,0.0195
458.00,0.0187
457.00,0.0169
456.00,0.0148
455.00,0.0126
454.00,0.0107
453.00,0.0094
452.00,0.0089
451.00,0.0090
450.00,0.0090
