Created as New Dataset,Sample 112 By Administrator Date Wednesday, September 10 2025
cm-1,A
4000.00,0.0009
3999.00,0.0009
3998.00,0.0009
3997.00,0.0009
3996.00,0.0009
3995.00,0.0009
3994.00,0.0009
3993.00,0.0010
3992.00,0.0010
3991.00,0.0010
3990.00,0.0010
3989.00,0.0010
3988.00,0.0010
3987.00,0.0010
3986.00,0.0010
3985.00,0.0010
3984.00,0.0010
3983.00,0.0009
3982.00,0.0009
3981.00,0.0009
3980.00,0.0009
3979.00,0.0010
3978.00,0.0010
3977.00,0.0010
3976.00,0.0010
3975.00,0.0009
3974.00,0.0009
3973.00,0.0009
3972.00,0.0009
3971.00,0.0009
3970.00,0.0009
3969.00,0.0009
3968.00,0.0009
3967.00,0.0008
3966.00,0.0008
3965.00,0.0008
3964.00,0.0008
3963.00,0.0008
3962.00,0.0008
3961.00,0.0008
3960.00,0.0008
3959.00,0.0008
3958.00,0.0008
3957.00,0.0008
3956.00,0.0008
3955.00,0.0007
3954.00,0.0007
3953.00,0.0007
3952.00,0.0007
3951.00,0.0007
3950.00,0.0008
3949.00,0.0008
3948.00,0.0008
3947.00,0.0008
3946.00,0.0008
3945.00,0.0007
3944.00,0.0007
3943.00,0.0007
3942.00,0.0007
3941.00,0.0007
3940.00,0.0007
3939.00,0.0008
3938.00,0.0008
3937.00,0.0008
3936.00,0.0009
3935.00,0.0009
3934.00,0.0009
3933.00,0.0009
3932.00,0.0008
3931.00,0.0008
3930.00,0.0008
3929.00,0.0008
3928.00,0.0008
3927.00,0.0008
3926.00,0.0008
3925.00,0.0009
3924.00,0.0009
3923.00,0.0009
3922.00,0.0009
3921.00,0.0009
3920.00,0.0009
3919.00,0.0009
3918.00,0.0009
3917.00,0.0009
3916.00,0.0009
3915.00,0.0009
3914.00,0.0008
3913.00,0.0008
3912.00,0.0008
3911.00,0.0008
3910.00,0.0008
3909.00,0.0008
3908.00,0.0008
3907.00,0.0008
3906.00,0.0008
3905.00,0.0008
3904.00,0.0009
3903.00,0.0009
3902.00,0.0010
3901.00,0.0009
3900.00,0.0009
3899.00,0.0009
3898.00,0.0008
3897.00,0.0008
3896.00,0.0009
3895.00,0.0009
3894.00,0.0009
3893.00,0.0008
3892.00,0.0008
3891.00,0.0008
3890.00,0.0008
3889.00,0.0008
3888.00,0.0008
3887.00,0.0008
3886.00,0.0008
3885.00,0.0008
3884.00,0.0008
3883.00,0.0008
3882.00,0.0008
3881.00,0.0008
3880.00,0.0008
3879.00,0.0008
3878.00,0.0008
3877.00,0.0008
3876.00,0.0007
3875.00,0.0007
3874.00,0.0007
3873.00,0.0007
3872.00,0.0007
3871.00,0.0008
3870.00,0.0008
3869.00,0.0008
3868.00,0.0008
3867.00,0.0008
3866.00,0.0007
3865.00,0.0007
3864.00,0.0007
3863.00,0.0007
3862.00,0.0007
3861.00,0.0007
3860.00,0.0007
3859.00,0.0008
3858.00,0.0008
3857.00,0.0008
3856.00,0.0008
3855.00,0.0008
3854.00,0.0008
3853.00,0.0008
3852.00,0.0007
3851.00,0.0007
3850.00,0.0006
3849.00,0.0006
3848.00,0.0006
3847.00,0.0006
3846.00,0.0006
3845.00,0.0006
3844.00,0.0007
3843.00,0.0007
3842.00,0.0008
3841.00,0.0008
3840.00,0.0008
3839.00,0.0007
3838.00,0.0007
3837.00,0.0007
3836.00,0.0007
3835.00,0.0007
3834.00,0.0007
3833.00,0.0008
3832.00,0.0008
3831.00,0.0008
3830.00,0.0008
3829.00,0.0007
3828.00,0.0007
3827.00,0.0007
3826.00,0.0008
3825.00,0.0008
3824.00,0.0008
3823.00,0.0008
3822.00,0.0007
3821.00,0.0007
3820.00,0.0008
3819.00,0.0007
3818.00,0.0007
3817.00,0.0007
3816.00,0.0007
3815.00,0.0008
3814.00,0.0008
3813.00,0.0008
3812.00,0.0008
3811.00,0.0008
3810.00,0.0007
3809.00,0.0007
3808.00,0.0008
3807.00,0.0008
3806.00,0.0009
3805.00,0.0009
3804.00,0.0009
3803.00,0.0008
3802.00,0.0009
3801.00,0.0009
3800.00,0.0009
3799.00,0.0008
3798.00,0.0008
3797.00,0.0008
3796.00,0.0008
3795.00,0.0008
3794.00,0.0008
3793.00,0.0007
3792.00,0.0007
3791.00,0.0007
3790.00,0.0008
3789.00,0.0008
3788.00,0.0008
3787.00,0.0007
3786.00,0.0007
3785.00,0.0008
3784.00,0.0008
3783.00,0.0008
3782.00,0.0007
3781.00,0.0007
3780.00,0.0007
3779.00,0.0007
3778.00,0.0007
3777.00,0.0007
3776.00,0.0007
3775.00,0.0007
3774.00,0.0008
3773.00,0.0008
3772.00,0.0008
3771.00,0.0008
3770.00,0.0009
3769.00,0.0009
3768.00,0.0009
3767.00,0.0009
3766.00,0.0009
3765.00,0.0009
3764.00,0.0009
3763.00,0.0009
3762.00,0.0009
3761.00,0.0009
3760.00,0.0009
3759.00,0.0009
3758.00,0.0010
3757.00,0.0010
3756.00,0.0010
3755.00,0.0010
3754.00,0.0010
3753.00,0.0010
3752.00,0.0011
3751.00,0.0011
3750.00,0.0011
3749.00,0.0011
3748.00,0.0010
3747.00,0.0010
3746.00,0.0009
3745.00,0.0009
3744.00,0.0009
3743.00,0.0009
3742.00,0.0009
3741.00,0.0009
3740.00,0.0009
3739.00,0.0009
3738.00,0.0009
3737.00,0.0009
3736.00,0.0008
3735.00,0.0007
3734.00,0.0007
3733.00,0.0007
3732.00,0.0007
3731.00,0.0007
3730.00,0.0007
3729.00,0.0006
3728.00,0.0006
3727.00,0.0007
3726.00,0.0007
3725.00,0.0007
3724.00,0.0007
3723.00,0.0007
3722.00,0.0006
3721.00,0.0007
3720.00,0.0007
3719.00,0.0007
3718.00,0.0006
3717.00,0.0006
3716.00,0.0006
3715.00,0.0006
3714.00,0.0007
3713.00,0.0007
3712.00,0.0006
3711.00,0.0006
3710.00,0.0005
3709.00,0.0005
3708.00,0.0005
3707.00,0.0006
3706.00,0.0006
3705.00,0.0006
3704.00,0.0006
3703.00,0.0006
3702.00,0.0006
3701.00,0.0006
3700.00,0.0006
3699.00,0.0006
3698.00,0.0006
3697.00,0.0006
3696.00,0.0006
3695.00,0.0006
3694.00,0.0006
3693.00,0.0006
3692.00,0.0007
3691.00,0.0007
3690.00,0.0008
3689.00,0.0008
3688.00,0.0008
3687.00,0.0008
3686.00,0.0007
3685.00,0.0007
3684.00,0.0007
3683.00,0.0007
3682.00,0.0007
3681.00,0.0008
3680.00,0.0009
3679.00,0.0010
3678.00,0.0010
3677.00,0.0010
3676.00,0.0010
3675.00,0.0009
3674.00,0.0009
3673.00,0.0008
3672.00,0.0008
3671.00,0.0008
3670.00,0.0008
3669.00,0.0008
3668.00,0.0008
3667.00,0.0008
3666.00,0.0008
3665.00,0.0008
3664.00,0.0008
3663.00,0.0008
3662.00,0.0008
3661.00,0.0008
3660.00,0.0008
3659.00,0.0008
3658.00,0.0008
3657.00,0.0008
3656.00,0.0008
3655.00,0.0008
3654.00,0.0009
3653.00,0.0009
3652.00,0.0009
3651.00,0.0009
3650.00,0.0009
3649.00,0.0009
3648.00,0.0009
3647.00,0.0009
3646.00,0.0009
3645.00,0.0009
3644.00,0.0010
3643.00,0.0010
3642.00,0.0010
3641.00,0.0010
3640.00,0.0010
3639.00,0.0010
3638.00,0.0010
3637.00,0.0011
3636.00,0.0011
3635.00,0.0011
3634.00,0.0011
3633.00,0.0011
3632.00,0.0012
3631.00,0.0012
3630.00,0.0013
3629.00,0.0013
3628.00,0.0013
3627.00,0.0012
3626.00,0.0012
3625.00,0.0011
3624.00,0.0011
3623.00,0.0012
3622.00,0.0012
3621.00,0.0012
3620.00,0.0012
3619.00,0.0013
3618.00,0.0014
3617.00,0.0014
3616.00,0.0015
3615.00,0.0015
3614.00,0.0016
3613.00,0.0017
3612.00,0.0017
3611.00,0.0017
3610.00,0.0017
3609.00,0.0016
3608.00,0.0016
3607.00,0.0016
3606.00,0.0017
3605.00,0.0017
3604.00,0.0017
3603.00,0.0017
3602.00,0.0017
3601.00,0.0017
3600.00,0.0017
3599.00,0.0018
3598.00,0.0018
3597.00,0.0018
3596.00,0.0019
3595.00,0.0019
3594.00,0.0019
3593.00,0.0019
3592.00,0.0019
3591.00,0.0020
3590.00,0.0020
3589.00,0.0021
3588.00,0.0021
3587.00,0.0022
3586.00,0.0022
3585.00,0.0023
3584.00,0.0023
3583.00,0.0022
3582.00,0.0022
3581.00,0.0022
3580.00,0.0022
3579.00,0.0022
3578.00,0.0023
3577.00,0.0024
3576.00,0.0024
3575.00,0.0024
3574.00,0.0025
3573.00,0.0025
3572.00,0.0025
3571.00,0.0025
3570.00,0.0024
3569.00,0.0024
3568.00,0.0025
3567.00,0.0026
3566.00,0.0027
3565.00,0.0028
3564.00,0.0029
3563.00,0.0030
3562.00,0.0030
3561.00,0.0030
3560.00,0.0030
3559.00,0.0030
3558.00,0.0031
3557.00,0.0031
3556.00,0.0032
3555.00,0.0032
3554.00,0.0032
3553.00,0.0032
3552.00,0.0032
3551.00,0.0032
3550.00,0.0033
3549.00,0.0034
3548.00,0.0034
3547.00,0.0035
3546.00,0.0036
3545.00,0.0036
3544.00,0.0037
3543.00,0.0037
3542.00,0.0038
3541.00,0.0038
3540.00,0.0039
3539.00,0.0039
3538.00,0.0039
3537.00,0.0039
3536.00,0.0040
3535.00,0.0040
3534.00,0.0040
3533.00,0.0041
3532.00,0.0041
3531.00,0.0041
3530.00,0.0041
3529.00,0.0041
3528.00,0.0042
3527.00,0.0042
3526.00,0.0043
3525.00,0.0044
3524.00,0.0045
3523.00,0.0045
3522.00,0.0045
3521.00,0.0045
3520.00,0.0046
3519.00,0.0046
3518.00,0.0047
3517.00,0.0047
3516.00,0.0047
3515.00,0.0048
3514.00,0.0048
3513.00,0.0048
3512.00,0.0049
3511.00,0.0049
3510.00,0.0050
3509.00,0.0051
3508.00,0.0051
3507.00,0.0051
3506.00,0.0052
3505.00,0.0052
3504.00,0.0052
3503.00,0.0053
3502.00,0.0053
3501.00,0.0054
3500.00,0.0054
3499.00,0.0054
3498.00,0.0055
3497.00,0.0055
3496.00,0.0056
3495.00,0.0056
3494.00,0.0056
3493.00,0.0056
3492.00,0.0057
3491.00,0.0057
3490.00,0.0057
3489.00,0.0058
3488.00,0.0058
3487.00,0.0058
3486.00,0.0059
3485.00,0.0059
3484.00,0.0060
3483.00,0.0060
3482.00,0.0061
3481.00,0.0061
3480.00,0.0062
3479.00,0.0062
3478.00,0.0062
3477.00,0.0063
3476.00,0.0063
3475.00,0.0063
3474.00,0.0064
3473.00,0.0064
3472.00,0.0064
3471.00,0.0064
3470.00,0.0064
3469.00,0.0065
3468.00,0.0065
3467.00,0.0066
3466.00,0.0066
3465.00,0.0066
3464.00,0.0067
3463.00,0.0067
3462.00,0.0068
3461.00,0.0069
3460.00,0.0069
3459.00,0.0070
3458.00,0.0070
3457.00,0.0070
3456.00,0.0070
3455.00,0.0070
3454.00,0.0070
3453.00,0.0071
3452.00,0.0071
3451.00,0.0071
3450.00,0.0071
3449.00,0.0072
3448.00,0.0072
3447.00,0.0073
3446.00,0.0074
3445.00,0.0074
3444.00,0.0074
3443.00,0.0075
3442.00,0.0075
3441.00,0.0075
3440.00,0.0075
3439.00,0.0075
3438.00,0.0076
3437.00,0.0076
3436.00,0.0076
3435.00,0.0077
3434.00,0.0077
3433.00,0.0077
3432.00,0.0077
3431.00,0.0078
3430.00,0.0078
3429.00,0.0078
3428.00,0.0078
3427.00,0.0078
3426.00,0.0078
3425.00,0.0079
3424.00,0.0080
3423.00,0.0080
3422.00,0.0081
3421.00,0.0081
3420.00,0.0081
3419.00,0.0081
3418.00,0.0081
3417.00,0.0082
3416.00,0.0083
3415.00,0.0083
3414.00,0.0083
3413.00,0.0083
3412.00,0.0084
3411.00,0.0084
3410.00,0.0084
3409.00,0.0084
3408.00,0.0084
3407.00,0.0084
3406.00,0.0084
3405.00,0.0084
3404.00,0.0084
3403.00,0.0085
3402.00,0.0085
3401.00,0.0085
3400.00,0.0086
3399.00,0.0086
3398.00,0.0087
3397.00,0.0087
3396.00,0.0087
3395.00,0.0087
3394.00,0.0087
3393.00,0.0086
3392.00,0.0086
3391.00,0.0086
3390.00,0.0086
3389.00,0.0087
3388.00,0.0087
3387.00,0.0087
3386.00,0.0087
3385.00,0.0087
3384.00,0.0087
3383.00,0.0087
3382.00,0.0087
3381.00,0.0087
3380.00,0.0087
3379.00,0.0088
3378.00,0.0088
3377.00,0.0088
3376.00,0.0088
3375.00,0.0088
3374.00,0.0088
3373.00,0.0088
3372.00,0.0088
3371.00,0.0089
3370.00,0.0089
3369.00,0.0089
3368.00,0.0089
3367.00,0.0089
3366.00,0.0089
3365.00,0.0088
3364.00,0.0088
3363.00,0.0088
3362.00,0.0088
3361.00,0.0089
3360.00,0.0089
3359.00,0.0089
3358.00,0.0089
3357.00,0.0089
3356.00,0.0089
3355.00,0.0089
3354.00,0.0088
3353.00,0.0088
3352.00,0.0088
3351.00,0.0088
3350.00,0.0089
3349.00,0.0089
3348.00,0.0089
3347.00,0.0089
3346.00,0.0089
3345.00,0.0089
3344.00,0.0088
3343.00,0.0088
3342.00,0.0088
3341.00,0.0088
3340.00,0.0088
3339.00,0.0088
3338.00,0.0088
3337.00,0.0088
3336.00,0.0088
3335.00,0.0088
3334.00,0.0088
3333.00,0.0087
3332.00,0.0087
3331.00,0.0087
3330.00,0.0087
3329.00,0.0086
3328.00,0.0086
3327.00,0.0086
3326.00,0.0086
3325.00,0.0086
3324.00,0.0086
3323.00,0.0086
3322.00,0.0086
3321.00,0.0086
3320.00,0.0086
3319.00,0.0086
3318.00,0.0086
3317.00,0.0086
3316.00,0.0085
3315.00,0.0085
3314.00,0.0085
3313.00,0.0085
3312.00,0.0085
3311.00,0.0084
3310.00,0.0084
3309.00,0.0084
3308.00,0.0084
3307.00,0.0084
3306.00,0.0084
3305.00,0.0084
3304.00,0.0084
3303.00,0.0084
3302.00,0.0084
3301.00,0.0084
3300.00,0.0084
3299.00,0.0084
3298.00,0.0083
3297.00,0.0083
3296.00,0.0083
3295.00,0.0083
3294.00,0.0083
3293.00,0.0082
3292.00,0.0082
3291.00,0.0081
3290.00,0.0081
3289.00,0.0081
3288.00,0.0081
3287.00,0.0081
3286.00,0.0080
3285.00,0.0080
3284.00,0.0080
3283.00,0.0079
3282.00,0.0079
3281.00,0.0079
3280.00,0.0079
3279.00,0.0079
3278.00,0.0079
3277.00,0.0079
3276.00,0.0078
3275.00,0.0077
3274.00,0.0077
3273.00,0.0076
3272.00,0.0076
3271.00,0.0076
3270.00,0.0076
3269.00,0.0076
3268.00,0.0075
3267.00,0.0075
3266.00,0.0075
3265.00,0.0075
3264.00,0.0075
3263.00,0.0075
3262.00,0.0074
3261.00,0.0074
3260.00,0.0074
3259.00,0.0073
3258.00,0.0073
3257.00,0.0073
3256.00,0.0072
3255.00,0.0072
3254.00,0.0072
3253.00,0.0072
3252.00,0.0072
3251.00,0.0072
3250.00,0.0071
3249.00,0.0071
3248.00,0.0070
3247.00,0.0070
3246.00,0.0070
3245.00,0.0070
3244.00,0.0070
3243.00,0.0070
3242.00,0.0069
3241.00,0.0069
3240.00,0.0068
3239.00,0.0068
3238.00,0.0068
3237.00,0.0069
3236.00,0.0069
3235.00,0.0069
3234.00,0.0069
3233.00,0.0069
3232.00,0.0069
3231.00,0.0068
3230.00,0.0068
3229.00,0.0069
3228.00,0.0069
3227.00,0.0069
3226.00,0.0069
3225.00,0.0068
3224.00,0.0069
3223.00,0.0069
3222.00,0.0069
3221.00,0.0069
3220.00,0.0070
3219.00,0.0070
3218.00,0.0070
3217.00,0.0070
3216.00,0.0070
3215.00,0.0070
3214.00,0.0070
3213.00,0.0070
3212.00,0.0070
3211.00,0.0071
3210.00,0.0071
3209.00,0.0071
3208.00,0.0071
3207.00,0.0071
3206.00,0.0072
3205.00,0.0072
3204.00,0.0072
3203.00,0.0072
3202.00,0.0071
3201.00,0.0071
3200.00,0.0071
3199.00,0.0071
3198.00,0.0071
3197.00,0.0071
3196.00,0.0071
3195.00,0.0071
3194.00,0.0070
3193.00,0.0070
3192.00,0.0070
3191.00,0.0070
3190.00,0.0070
3189.00,0.0071
3188.00,0.0071
3187.00,0.0070
3186.00,0.0070
3185.00,0.0069
3184.00,0.0069
3183.00,0.0069
3182.00,0.0068
3181.00,0.0068
3180.00,0.0068
3179.00,0.0067
3178.00,0.0066
3177.00,0.0066
3176.00,0.0065
3175.00,0.0065
3174.00,0.0065
3173.00,0.0064
3172.00,0.0064
3171.00,0.0064
3170.00,0.0063
3169.00,0.0063
3168.00,0.0063
3167.00,0.0063
3166.00,0.0063
3165.00,0.0063
3164.00,0.0062
3163.00,0.0062
3162.00,0.0062
3161.00,0.0061
3160.00,0.0061
3159.00,0.0060
3158.00,0.0060
3157.00,0.0060
3156.00,0.0060
3155.00,0.0060
3154.00,0.0060
3153.00,0.0061
3152.00,0.0061
3151.00,0.0060
3150.00,0.0060
3149.00,0.0060
3148.00,0.0060
3147.00,0.0060
3146.00,0.0060
3145.00,0.0059
3144.00,0.0059
3143.00,0.0058
3142.00,0.0058
3141.00,0.0058
3140.00,0.0057
3139.00,0.0058
3138.00,0.0058
3137.00,0.0058
3136.00,0.0058
3135.00,0.0058
3134.00,0.0057
3133.00,0.0057
3132.00,0.0056
3131.00,0.0056
3130.00,0.0055
3129.00,0.0054
3128.00,0.0054
3127.00,0.0053
3126.00,0.0053
3125.00,0.0053
3124.00,0.0053
3123.00,0.0052
3122.00,0.0052
3121.00,0.0051
3120.00,0.0051
3119.00,0.0051
3118.00,0.0051
3117.00,0.0050
3116.00,0.0050
3115.00,0.0049
3114.00,0.0049
3113.00,0.0049
3112.00,0.0049
3111.00,0.0049
3110.00,0.0049
3109.00,0.0048
3108.00,0.0048
3107.00,0.0048
3106.00,0.0048
3105.00,0.0048
3104.00,0.0048
3103.00,0.0048
3102.00,0.0047
3101.00,0.0047
3100.00,0.0046
3099.00,0.0046
3098.00,0.0046
3097.00,0.0046
3096.00,0.0046
3095.00,0.0046
3094.00,0.0045
3093.00,0.0045
3092.00,0.0045
3091.00,0.0044
3090.00,0.0044
3089.00,0.0044
3088.00,0.0044
3087.00,0.0044
3086.00,0.0044
3085.00,0.0044
3084.00,0.0043
3083.00,0.0043
3082.00,0.0043
3081.00,0.0043
3080.00,0.0043
3079.00,0.0042
3078.00,0.0042
3077.00,0.0042
3076.00,0.0043
3075.00,0.0043
3074.00,0.0043
3073.00,0.0043
3072.00,0.0044
3071.00,0.0044
3070.00,0.0044
3069.00,0.0044
3068.00,0.0044
3067.00,0.0044
3066.00,0.0044
3065.00,0.0044
3064.00,0.0044
3063.00,0.0044
3062.00,0.0044
3061.00,0.0044
3060.00,0.0044
3059.00,0.0044
3058.00,0.0043
3057.00,0.0043
3056.00,0.0043
3055.00,0.0044
3054.00,0.0044
3053.00,0.0044
3052.00,0.0045
3051.00,0.0045
3050.00,0.0045
3049.00,0.0045
3048.00,0.0045
3047.00,0.0045
3046.00,0.0045
3045.00,0.0046
3044.00,0.0046
3043.00,0.0046
3042.00,0.0047
3041.00,0.0047
3040.00,0.0048
3039.00,0.0048
3038.00,0.0048
3037.00,0.0047
3036.00,0.0048
3035.00,0.0048
3034.00,0.0049
3033.00,0.0049
3032.00,0.0050
3031.00,0.0050
3030.00,0.0051
3029.00,0.0051
3028.00,0.0051
3027.00,0.0052
3026.00,0.0052
3025.00,0.0052
3024.00,0.0053
3023.00,0.0053
3022.00,0.0054
3021.00,0.0054
3020.00,0.0055
3019.00,0.0057
3018.00,0.0058
3017.00,0.0059
3016.00,0.0060
3015.00,0.0061
3014.00,0.0062
3013.00,0.0063
3012.00,0.0064
3011.00,0.0065
3010.00,0.0066
3009.00,0.0067
3008.00,0.0068
3007.00,0.0070
3006.00,0.0072
3005.00,0.0074
3004.00,0.0076
3003.00,0.0078
3002.00,0.0080
3001.00,0.0083
3000.00,0.0085
2999.00,0.0088
2998.00,0.0092
2997.00,0.0095
2996.00,0.0099
2995.00,0.0103
2994.00,0.0107
2993.00,0.0112
2992.00,0.0118
2991.00,0.0124
2990.00,0.0131
2989.00,0.0139
2988.00,0.0147
2987.00,0.0155
2986.00,0.0165
2985.00,0.0177
2984.00,0.0189
2983.00,0.0204
2982.00,0.0220
2981.00,0.0239
2980.00,0.0260
2979.00,0.0283
2978.00,0.0310
2977.00,0.0341
2976.00,0.0376
2975.00,0.0416
2974.00,0.0462
2973.00,0.0514
2972.00,0.0573
2971.00,0.0639
2970.00,0.0713
2969.00,0.0795
2968.00,0.0885
2967.00,0.0984
2966.00,0.1090
2965.00,0.1202
2964.00,0.1317
2963.00,0.1429
2962.00,0.1535
2961.00,0.1628
2960.00,0.1704
2959.00,0.1762
2958.00,0.1804
2957.00,0.1833
2956.00,0.1857
2955.00,0.1880
2954.00,0.1906
2953.00,0.1933
2952.00,0.1956
2951.00,0.1969
2950.00,0.1960
2949.00,0.1924
2948.00,0.1857
2947.00,0.1761
2946.00,0.1644
2945.00,0.1517
2944.00,0.1393
2943.00,0.1282
2942.00,0.1193
2941.00,0.1127
2940.00,0.1087
2939.00,0.1068
2938.00,0.1070
2937.00,0.1089
2936.00,0.1124
2935.00,0.1174
2934.00,0.1236
2933.00,0.1311
2932.00,0.1395
2931.00,0.1486
2930.00,0.1581
2929.00,0.1678
2928.00,0.1772
2927.00,0.1862
2926.00,0.1947
2925.00,0.2026
2924.00,0.2101
2923.00,0.2173
2922.00,0.2241
2921.00,0.2305
2920.00,0.2360
2919.00,0.2402
2918.00,0.2423
2917.00,0.2419
2916.00,0.2390
2915.00,0.2339
2914.00,0.2273
2913.00,0.2199
2912.00,0.2125
2911.00,0.2055
2910.00,0.1991
2909.00,0.1933
2908.00,0.1878
2907.00,0.1824
2906.00,0.1769
2905.00,0.1710
2904.00,0.1648
2903.00,0.1583
2902.00,0.1516
2901.00,0.1448
2900.00,0.1382
2899.00,0.1319
2898.00,0.1260
2897.00,0.1207
2896.00,0.1159
2895.00,0.1119
2894.00,0.1086
2893.00,0.1059
2892.00,0.1039
2891.00,0.1025
2890.00,0.1017
2889.00,0.1014
2888.00,0.1014
2887.00,0.1018
2886.00,0.1025
2885.00,0.1035
2884.00,0.1049
2883.00,0.1068
2882.00,0.1090
2881.00,0.1114
2880.00,0.1137
2879.00,0.1157
2878.00,0.1169
2877.00,0.1172
2876.00,0.1168
2875.00,0.1160
2874.00,0.1153
2873.00,0.1151
2872.00,0.1155
2871.00,0.1167
2870.00,0.1183
2869.00,0.1200
2868.00,0.1210
2867.00,0.1207
2866.00,0.1184
2865.00,0.1138
2864.00,0.1072
2863.00,0.0993
2862.00,0.0911
2861.00,0.0834
2860.00,0.0767
2859.00,0.0714
2858.00,0.0673
2857.00,0.0645
2856.00,0.0626
2855.00,0.0616
2854.00,0.0613
2853.00,0.0616
2852.00,0.0624
2851.00,0.0637
2850.00,0.0655
2849.00,0.0679
2848.00,0.0710
2847.00,0.0748
2846.00,0.0796
2845.00,0.0853
2844.00,0.0918
2843.00,0.0990
2842.00,0.1065
2841.00,0.1137
2840.00,0.1197
2839.00,0.1237
2838.00,0.1247
2837.00,0.1222
2836.00,0.1163
2835.00,0.1075
2834.00,0.0969
2833.00,0.0857
2832.00,0.0750
2831.00,0.0655
2830.00,0.0574
2829.00,0.0508
2828.00,0.0455
2827.00,0.0411
2826.00,0.0376
2825.00,0.0347
2824.00,0.0322
2823.00,0.0301
2822.00,0.0284
2821.00,0.0268
2820.00,0.0255
2819.00,0.0244
2818.00,0.0233
2817.00,0.0224
2816.00,0.0216
2815.00,0.0209
2814.00,0.0202
2813.00,0.0196
2812.00,0.0191
2811.00,0.0186
2810.00,0.0181
2809.00,0.0175
2808.00,0.0170
2807.00,0.0164
2806.00,0.0158
2805.00,0.0151
2804.00,0.0145
2803.00,0.0139
2802.00,0.0134
2801.00,0.0129
2800.00,0.0126
2799.00,0.0122
2798.00,0.0120
2797.00,0.0117
2796.00,0.0115
2795.00,0.0112
2794.00,0.0110
2793.00,0.0107
2792.00,0.0104
2791.00,0.0100
2790.00,0.0097
2789.00,0.0093
2788.00,0.0090
2787.00,0.0087
2786.00,0.0084
2785.00,0.0081
2784.00,0.0078
2783.00,0.0076
2782.00,0.0074
2781.00,0.0072
2780.00,0.0071
2779.00,0.0069
2778.00,0.0067
2777.00,0.0066
2776.00,0.0064
2775.00,0.0063
2774.00,0.0062
2773.00,0.0061
2772.00,0.0061
2771.00,0.0060
2770.00,0.0060
2769.00,0.0060
2768.00,0.0060
2767.00,0.0059
2766.00,0.0059
2765.00,0.0058
2764.00,0.0058
2763.00,0.0057
2762.00,0.0057
2761.00,0.0057
2760.00,0.0056
2759.00,0.0056
2758.00,0.0056
2757.00,0.0055
2756.00,0.0055
2755.00,0.0055
2754.00,0.0055
2753.00,0.0055
2752.00,0.0054
2751.00,0.0054
2750.00,0.0054
2749.00,0.0054
2748.00,0.0054
2747.00,0.0054
2746.00,0.0055
2745.00,0.0056
2744.00,0.0056
2743.00,0.0057
2742.00,0.0058
2741.00,0.0060
2740.00,0.0061
2739.00,0.0063
2738.00,0.0064
2737.00,0.0066
2736.00,0.0067
2735.00,0.0068
2734.00,0.0069
2733.00,0.0071
2732.00,0.0072
2731.00,0.0074
2730.00,0.0076
2729.00,0.0078
2728.00,0.0081
2727.00,0.0084
2726.00,0.0086
2725.00,0.0088
2724.00,0.0089
2723.00,0.0090
2722.00,0.0089
2721.00,0.0087
2720.00,0.0085
2719.00,0.0082
2718.00,0.0079
2717.00,0.0075
2716.00,0.0073
2715.00,0.0070
2714.00,0.0067
2713.00,0.0065
2712.00,0.0063
2711.00,0.0061
2710.00,0.0060
2709.00,0.0058
2708.00,0.0057
2707.00,0.0056
2706.00,0.0055
2705.00,0.0053
2704.00,0.0052
2703.00,0.0051
2702.00,0.0050
2701.00,0.0050
2700.00,0.0049
2699.00,0.0049
2698.00,0.0048
2697.00,0.0048
2696.00,0.0047
2695.00,0.0047
2694.00,0.0048
2693.00,0.0048
2692.00,0.0048
2691.00,0.0048
2690.00,0.0048
2689.00,0.0048
2688.00,0.0047
2687.00,0.0047
2686.00,0.0047
2685.00,0.0047
2684.00,0.0047
2683.00,0.0048
2682.00,0.0048
2681.00,0.0048
2680.00,0.0049
2679.00,0.0049
2678.00,0.0049
2677.00,0.0049
2676.00,0.0048
2675.00,0.0048
2674.00,0.0047
2673.00,0.0047
2672.00,0.0046
2671.00,0.0046
2670.00,0.0046
2669.00,0.0046
2668.00,0.0045
2667.00,0.0046
2666.00,0.0046
2665.00,0.0046
2664.00,0.0047
2663.00,0.0048
2662.00,0.0048
2661.00,0.0049
2660.00,0.0049
2659.00,0.0049
2658.00,0.0049
2657.00,0.0048
2656.00,0.0048
2655.00,0.0048
2654.00,0.0047
2653.00,0.0047
2652.00,0.0046
2651.00,0.0045
2650.00,0.0045
2649.00,0.0045
2648.00,0.0044
2647.00,0.0044
2646.00,0.0044
2645.00,0.0044
2644.00,0.0043
2643.00,0.0043
2642.00,0.0042
2641.00,0.0042
2640.00,0.0041
2639.00,0.0040
2638.00,0.0040
2637.00,0.0040
2636.00,0.0039
2635.00,0.0039
2634.00,0.0039
2633.00,0.0039
2632.00,0.0039
2631.00,0.0039
2630.00,0.0040
2629.00,0.0040
2628.00,0.0040
2627.00,0.0041
2626.00,0.0041
2625.00,0.0041
2624.00,0.0041
2623.00,0.0042
2622.00,0.0042
2621.00,0.0043
2620.00,0.0043
2619.00,0.0043
2618.00,0.0043
2617.00,0.0043
2616.00,0.0042
2615.00,0.0042
2614.00,0.0041
2613.00,0.0041
2612.00,0.0040
2611.00,0.0040
2610.00,0.0039
2609.00,0.0039
2608.00,0.0038
2607.00,0.0037
2606.00,0.0036
2605.00,0.0036
2604.00,0.0035
2603.00,0.0034
2602.00,0.0033
2601.00,0.0033
2600.00,0.0032
2599.00,0.0033
2598.00,0.0033
2597.00,0.0034
2596.00,0.0033
2595.00,0.0033
2594.00,0.0033
2593.00,0.0034
2592.00,0.0035
2591.00,0.0036
2590.00,0.0036
2589.00,0.0037
2588.00,0.0038
2587.00,0.0038
2586.00,0.0039
2585.00,0.0039
2584.00,0.0039
2583.00,0.0040
2582.00,0.0040
2581.00,0.0040
2580.00,0.0040
2579.00,0.0039
2578.00,0.0038
2577.00,0.0037
2576.00,0.0035
2575.00,0.0034
2574.00,0.0032
2573.00,0.0031
2572.00,0.0030
2571.00,0.0029
2570.00,0.0028
2569.00,0.0028
2568.00,0.0027
2567.00,0.0027
2566.00,0.0026
2565.00,0.0026
2564.00,0.0025
2563.00,0.0025
2562.00,0.0024
2561.00,0.0024
2560.00,0.0025
2559.00,0.0025
2558.00,0.0026
2557.00,0.0027
2556.00,0.0027
2555.00,0.0027
2554.00,0.0026
2553.00,0.0024
2552.00,0.0023
2551.00,0.0023
2550.00,0.0022
2549.00,0.0022
2548.00,0.0022
2547.00,0.0022
2546.00,0.0021
2545.00,0.0021
2544.00,0.0020
2543.00,0.0020
2542.00,0.0020
2541.00,0.0020
2540.00,0.0020
2539.00,0.0020
2538.00,0.0019
2537.00,0.0019
2536.00,0.0019
2535.00,0.0018
2534.00,0.0017
2533.00,0.0017
2532.00,0.0016
2531.00,0.0016
2530.00,0.0016
2529.00,0.0016
2528.00,0.0015
2527.00,0.0015
2526.00,0.0015
2525.00,0.0015
2524.00,0.0014
2523.00,0.0014
2522.00,0.0015
2521.00,0.0015
2520.00,0.0015
2519.00,0.0015
2518.00,0.0014
2517.00,0.0014
2516.00,0.0014
2515.00,0.0014
2514.00,0.0013
2513.00,0.0013
2512.00,0.0013
2511.00,0.0013
2510.00,0.0012
2509.00,0.0012
2508.00,0.0012
2507.00,0.0012
2506.00,0.0012
2505.00,0.0012
2504.00,0.0012
2503.00,0.0012
2502.00,0.0011
2501.00,0.0011
2500.00,0.0011
2499.00,0.0012
2498.00,0.0012
2497.00,0.0012
2496.00,0.0012
2495.00,0.0012
2494.00,0.0012
2493.00,0.0012
2492.00,0.0012
2491.00,0.0012
2490.00,0.0012
2489.00,0.0011
2488.00,0.0011
2487.00,0.0011
2486.00,0.0011
2485.00,0.0011
2484.00,0.0011
2483.00,0.0011
2482.00,0.0011
2481.00,0.0012
2480.00,0.0012
2479.00,0.0012
2478.00,0.0011
2477.00,0.0011
2476.00,0.0010
2475.00,0.0010
2474.00,0.0010
2473.00,0.0010
2472.00,0.0010
2471.00,0.0010
2470.00,0.0010
2469.00,0.0010
2468.00,0.0010
2467.00,0.0010
2466.00,0.0010
2465.00,0.0010
2464.00,0.0010
2463.00,0.0010
2462.00,0.0010
2461.00,0.0010
2460.00,0.0010
2459.00,0.0010
2458.00,0.0012
2457.00,0.0013
2456.00,0.0013
2455.00,0.0014
2454.00,0.0014
2453.00,0.0014
2452.00,0.0014
2451.00,0.0014
2450.00,0.0013
2449.00,0.0013
2448.00,0.0013
2447.00,0.0013
2446.00,0.0012
2445.00,0.0012
2444.00,0.0011
2443.00,0.0010
2442.00,0.0010
2441.00,0.0010
2440.00,0.0011
2439.00,0.0011
2438.00,0.0011
2437.00,0.0012
2436.00,0.0013
2435.00,0.0014
2434.00,0.0015
2433.00,0.0015
2432.00,0.0015
2431.00,0.0014
2430.00,0.0014
2429.00,0.0014
2428.00,0.0014
2427.00,0.0014
2426.00,0.0013
2425.00,0.0013
2424.00,0.0012
2423.00,0.0012
2422.00,0.0012
2421.00,0.0011
2420.00,0.0011
2419.00,0.0011
2418.00,0.0011
2417.00,0.0011
2416.00,0.0010
2415.00,0.0010
2414.00,0.0009
2413.00,0.0009
2412.00,0.0010
2411.00,0.0011
2410.00,0.0011
2409.00,0.0012
2408.00,0.0011
2407.00,0.0011
2406.00,0.0011
2405.00,0.0011
2404.00,0.0011
2403.00,0.0010
2402.00,0.0010
2401.00,0.0010
2400.00,0.0010
2399.00,0.0010
2398.00,0.0010
2397.00,0.0010
2396.00,0.0010
2395.00,0.0009
2394.00,0.0009
2393.00,0.0008
2392.00,0.0008
2391.00,0.0008
2390.00,0.0008
2389.00,0.0008
2388.00,0.0008
2387.00,0.0008
2386.00,0.0008
2385.00,0.0007
2384.00,0.0006
2383.00,0.0005
2382.00,0.0004
2381.00,0.0002
2380.00,0.0002
2379.00,0.0001
2378.00,0.0000
2377.00,-0.0000
2376.00,-0.0000
2375.00,-0.0000
2374.00,-0.0000
2373.00,-0.0000
2372.00,0.0000
2371.00,0.0001
2370.00,0.0001
2369.00,0.0001
2368.00,-0.0000
2367.00,-0.0001
2366.00,-0.0002
2365.00,-0.0002
2364.00,-0.0001
2363.00,-0.0001
2362.00,0.0000
2361.00,0.0001
2360.00,0.0001
2359.00,0.0001
2358.00,0.0001
2357.00,0.0001
2356.00,0.0001
2355.00,0.0001
2354.00,-0.0000
2353.00,-0.0001
2352.00,-0.0002
2351.00,-0.0004
2350.00,-0.0005
2349.00,-0.0004
2348.00,-0.0002
2347.00,0.0000
2346.00,0.0002
2345.00,0.0002
2344.00,0.0002
2343.00,0.0002
2342.00,0.0002
2341.00,0.0003
2340.00,0.0003
2339.00,0.0003
2338.00,0.0003
2337.00,0.0004
2336.00,0.0004
2335.00,0.0004
2334.00,0.0005
2333.00,0.0004
2332.00,0.0004
2331.00,0.0003
2330.00,0.0002
2329.00,0.0002
2328.00,0.0004
2327.00,0.0007
2326.00,0.0012
2325.00,0.0015
2324.00,0.0017
2323.00,0.0016
2322.00,0.0014
2321.00,0.0012
2320.00,0.0011
2319.00,0.0010
2318.00,0.0010
2317.00,0.0010
2316.00,0.0010
2315.00,0.0009
2314.00,0.0008
2313.00,0.0007
2312.00,0.0007
2311.00,0.0006
2310.00,0.0006
2309.00,0.0007
2308.00,0.0008
2307.00,0.0008
2306.00,0.0009
2305.00,0.0008
2304.00,0.0008
2303.00,0.0008
2302.00,0.0009
2301.00,0.0009
2300.00,0.0010
2299.00,0.0011
2298.00,0.0011
2297.00,0.0012
2296.00,0.0013
2295.00,0.0013
2294.00,0.0014
2293.00,0.0015
2292.00,0.0016
2291.00,0.0017
2290.00,0.0018
2289.00,0.0018
2288.00,0.0019
2287.00,0.0019
2286.00,0.0019
2285.00,0.0019
2284.00,0.0019
2283.00,0.0018
2282.00,0.0017
2281.00,0.0016
2280.00,0.0016
2279.00,0.0015
2278.00,0.0015
2277.00,0.0015
2276.00,0.0015
2275.00,0.0015
2274.00,0.0015
2273.00,0.0015
2272.00,0.0015
2271.00,0.0015
2270.00,0.0015
2269.00,0.0015
2268.00,0.0015
2267.00,0.0015
2266.00,0.0014
2265.00,0.0013
2264.00,0.0011
2263.00,0.0010
2262.00,0.0010
2261.00,0.0011
2260.00,0.0012
2259.00,0.0013
2258.00,0.0013
2257.00,0.0014
2256.00,0.0013
2255.00,0.0012
2254.00,0.0011
2253.00,0.0011
2252.00,0.0011
2251.00,0.0012
2250.00,0.0012
2249.00,0.0011
2248.00,0.0009
2247.00,0.0009
2246.00,0.0009
2245.00,0.0010
2244.00,0.0011
2243.00,0.0011
2242.00,0.0011
2241.00,0.0009
2240.00,0.0008
2239.00,0.0007
2238.00,0.0006
2237.00,0.0006
2236.00,0.0007
2235.00,0.0008
2234.00,0.0009
2233.00,0.0010
2232.00,0.0010
2231.00,0.0009
2230.00,0.0009
2229.00,0.0009
2228.00,0.0008
2227.00,0.0007
2226.00,0.0006
2225.00,0.0006
2224.00,0.0008
2223.00,0.0009
2222.00,0.0009
2221.00,0.0009
2220.00,0.0008
2219.00,0.0006
2218.00,0.0006
2217.00,0.0006
2216.00,0.0006
2215.00,0.0006
2214.00,0.0007
2213.00,0.0008
2212.00,0.0009
2211.00,0.0008
2210.00,0.0007
2209.00,0.0006
2208.00,0.0006
2207.00,0.0006
2206.00,0.0006
2205.00,0.0006
2204.00,0.0006
2203.00,0.0007
2202.00,0.0006
2201.00,0.0006
2200.00,0.0006
2199.00,0.0006
2198.00,0.0005
2197.00,0.0006
2196.00,0.0007
2195.00,0.0009
2194.00,0.0010
2193.00,0.0010
2192.00,0.0010
2191.00,0.0010
2190.00,0.0010
2189.00,0.0010
2188.00,0.0011
2187.00,0.0011
2186.00,0.0010
2185.00,0.0009
2184.00,0.0007
2183.00,0.0007
2182.00,0.0009
2181.00,0.0012
2180.00,0.0015
2179.00,0.0016
2178.00,0.0016
2177.00,0.0014
2176.00,0.0012
2175.00,0.0011
2174.00,0.0011
2173.00,0.0011
2172.00,0.0011
2171.00,0.0012
2170.00,0.0015
2169.00,0.0018
2168.00,0.0020
2167.00,0.0022
2166.00,0.0021
2165.00,0.0021
2164.00,0.0020
2163.00,0.0020
2162.00,0.0019
2161.00,0.0014
2160.00,0.0002
2159.00,-0.0011
2158.00,-0.0021
2157.00,-0.0024
2156.00,-0.0021
2155.00,-0.0017
2154.00,-0.0014
2153.00,-0.0010
2152.00,-0.0009
2151.00,-0.0009
2150.00,-0.0010
2149.00,-0.0011
2148.00,-0.0011
2147.00,-0.0012
2146.00,-0.0013
2145.00,-0.0014
2144.00,-0.0015
2143.00,-0.0014
2142.00,-0.0013
2141.00,-0.0011
2140.00,-0.0011
2139.00,-0.0011
2138.00,-0.0012
2137.00,-0.0014
2136.00,-0.0016
2135.00,-0.0019
2134.00,-0.0020
2133.00,-0.0020
2132.00,-0.0019
2131.00,-0.0017
2130.00,-0.0015
2129.00,-0.0012
2128.00,-0.0009
2127.00,-0.0006
2126.00,-0.0005
2125.00,-0.0004
2124.00,-0.0004
2123.00,-0.0003
2122.00,-0.0002
2121.00,0.0001
2120.00,0.0002
2119.00,0.0003
2118.00,0.0003
2117.00,0.0004
2116.00,0.0006
2115.00,0.0007
2114.00,0.0008
2113.00,0.0008
2112.00,0.0006
2111.00,0.0005
2110.00,0.0003
2109.00,0.0003
2108.00,0.0003
2107.00,0.0004
2106.00,0.0003
2105.00,0.0002
2104.00,0.0002
2103.00,0.0002
2102.00,0.0003
2101.00,0.0003
2100.00,0.0003
2099.00,0.0003
2098.00,0.0003
2097.00,0.0002
2096.00,0.0001
2095.00,-0.0001
2094.00,-0.0003
2093.00,-0.0004
2092.00,-0.0003
2091.00,-0.0003
2090.00,-0.0002
2089.00,-0.0001
2088.00,0.0001
2087.00,0.0002
2086.00,0.0003
2085.00,0.0004
2084.00,0.0004
2083.00,0.0004
2082.00,0.0004
2081.00,0.0004
2080.00,0.0006
2079.00,0.0007
2078.00,0.0007
2077.00,0.0008
2076.00,0.0009
2075.00,0.0009
2074.00,0.0008
2073.00,0.0007
2072.00,0.0005
2071.00,0.0003
2070.00,0.0002
2069.00,0.0001
2068.00,0.0000
2067.00,-0.0002
2066.00,-0.0004
2065.00,-0.0003
2064.00,-0.0002
2063.00,-0.0000
2062.00,0.0000
2061.00,0.0001
2060.00,0.0002
2059.00,0.0003
2058.00,0.0005
2057.00,0.0006
2056.00,0.0007
2055.00,0.0007
2054.00,0.0007
2053.00,0.0009
2052.00,0.0013
2051.00,0.0015
2050.00,0.0015
2049.00,0.0011
2048.00,0.0006
2047.00,0.0002
2046.00,0.0001
2045.00,0.0002
2044.00,0.0004
2043.00,0.0006
2042.00,0.0006
2041.00,0.0005
2040.00,0.0003
2039.00,-0.0000
2038.00,-0.0003
2037.00,-0.0005
2036.00,-0.0007
2035.00,-0.0009
2034.00,-0.0008
2033.00,-0.0005
2032.00,-0.0002
2031.00,-0.0002
2030.00,-0.0003
2029.00,-0.0005
2028.00,-0.0006
2027.00,-0.0006
2026.00,-0.0007
2025.00,-0.0006
2024.00,-0.0005
2023.00,-0.0003
2022.00,-0.0001
2021.00,-0.0001
2020.00,-0.0002
2019.00,-0.0002
2018.00,-0.0001
2017.00,-0.0000
2016.00,-0.0001
2015.00,-0.0005
2014.00,-0.0009
2013.00,-0.0011
2012.00,-0.0010
2011.00,-0.0008
2010.00,-0.0007
2009.00,-0.0010
2008.00,-0.0014
2007.00,-0.0019
2006.00,-0.0022
2005.00,-0.0023
2004.00,-0.0022
2003.00,-0.0019
2002.00,-0.0017
2001.00,-0.0014
2000.00,-0.0013
1999.00,-0.0012
1998.00,-0.0013
1997.00,-0.0013
1996.00,-0.0013
1995.00,-0.0012
1994.00,-0.0012
1993.00,-0.0011
1992.00,-0.0010
1991.00,-0.0009
1990.00,-0.0008
1989.00,-0.0006
1988.00,-0.0004
1987.00,-0.0002
1986.00,-0.0001
1985.00,0.0002
1984.00,0.0005
1983.00,0.0008
1982.00,0.0011
1981.00,0.0012
1980.00,0.0011
1979.00,0.0007
1978.00,0.0002
1977.00,-0.0003
1976.00,-0.0006
1975.00,-0.0008
1974.00,-0.0010
1973.00,-0.0010
1972.00,-0.0010
1971.00,-0.0010
1970.00,-0.0009
1969.00,-0.0009
1968.00,-0.0009
1967.00,-0.0007
1966.00,-0.0006
1965.00,-0.0005
1964.00,-0.0006
1963.00,-0.0009
1962.00,-0.0012
1961.00,-0.0015
1960.00,-0.0015
1959.00,-0.0015
1958.00,-0.0015
1957.00,-0.0015
1956.00,-0.0014
1955.00,-0.0013
1954.00,-0.0013
1953.00,-0.0012
1952.00,-0.0011
1951.00,-0.0010
1950.00,-0.0010
1949.00,-0.0011
1948.00,-0.0012
1947.00,-0.0014
1946.00,-0.0014
1945.00,-0.0014
1944.00,-0.0014
1943.00,-0.0014
1942.00,-0.0013
1941.00,-0.0012
1940.00,-0.0011
1939.00,-0.0011
1938.00,-0.0010
1937.00,-0.0009
1936.00,-0.0009
1935.00,-0.0008
1934.00,-0.0008
1933.00,-0.0006
1932.00,-0.0005
1931.00,-0.0004
1930.00,-0.0004
1929.00,-0.0004
1928.00,-0.0004
1927.00,-0.0004
1926.00,-0.0004
1925.00,-0.0004
1924.00,-0.0004
1923.00,-0.0004
1922.00,-0.0005
1921.00,-0.0005
1920.00,-0.0004
1919.00,-0.0003
1918.00,-0.0002
1917.00,-0.0002
1916.00,-0.0001
1915.00,-0.0001
1914.00,-0.0002
1913.00,-0.0002
1912.00,-0.0003
1911.00,-0.0003
1910.00,-0.0002
1909.00,-0.0000
1908.00,0.0001
1907.00,0.0001
1906.00,0.0000
1905.00,-0.0000
1904.00,-0.0000
1903.00,0.0000
1902.00,0.0001
1901.00,0.0000
1900.00,-0.0001
1899.00,-0.0001
1898.00,-0.0002
1897.00,-0.0002
1896.00,-0.0002
1895.00,-0.0001
1894.00,-0.0001
1893.00,-0.0000
1892.00,0.0001
1891.00,0.0001
1890.00,0.0002
1889.00,0.0002
1888.00,0.0002
1887.00,0.0001
1886.00,0.0000
1885.00,-0.0001
1884.00,-0.0001
1883.00,-0.0000
1882.00,0.0001
1881.00,0.0001
1880.00,0.0002
1879.00,0.0002
1878.00,0.0001
1877.00,0.0001
1876.00,0.0001
1875.00,0.0001
1874.00,0.0001
1873.00,0.0002
1872.00,0.0002
1871.00,0.0001
1870.00,0.0001
1869.00,0.0001
1868.00,0.0001
1867.00,0.0000
1866.00,0.0000
1865.00,0.0001
1864.00,0.0001
1863.00,0.0002
1862.00,0.0002
1861.00,0.0002
1860.00,0.0002
1859.00,0.0003
1858.00,0.0003
1857.00,0.0004
1856.00,0.0004
1855.00,0.0004
1854.00,0.0003
1853.00,0.0003
1852.00,0.0002
1851.00,0.0002
1850.00,0.0001
1849.00,0.0001
1848.00,0.0002
1847.00,0.0002
1846.00,0.0003
1845.00,0.0004
1844.00,0.0005
1843.00,0.0005
1842.00,0.0005
1841.00,0.0005
1840.00,0.0004
1839.00,0.0004
1838.00,0.0005
1837.00,0.0005
1836.00,0.0005
1835.00,0.0005
1834.00,0.0005
1833.00,0.0004
1832.00,0.0004
1831.00,0.0004
1830.00,0.0004
1829.00,0.0004
1828.00,0.0004
1827.00,0.0004
1826.00,0.0004
1825.00,0.0004
1824.00,0.0005
1823.00,0.0005
1822.00,0.0005
1821.00,0.0005
1820.00,0.0005
1819.00,0.0004
1818.00,0.0003
1817.00,0.0002
1816.00,0.0002
1815.00,0.0002
1814.00,0.0002
1813.00,0.0003
1812.00,0.0004
1811.00,0.0005
1810.00,0.0006
1809.00,0.0006
1808.00,0.0006
1807.00,0.0005
1806.00,0.0005
1805.00,0.0005
1804.00,0.0006
1803.00,0.0006
1802.00,0.0006
1801.00,0.0006
1800.00,0.0006
1799.00,0.0006
1798.00,0.0006
1797.00,0.0007
1796.00,0.0007
1795.00,0.0008
1794.00,0.0009
1793.00,0.0009
1792.00,0.0008
1791.00,0.0007
1790.00,0.0007
1789.00,0.0008
1788.00,0.0009
1787.00,0.0009
1786.00,0.0009
1785.00,0.0010
1784.00,0.0010
1783.00,0.0010
1782.00,0.0010
1781.00,0.0010
1780.00,0.0011
1779.00,0.0011
1778.00,0.0010
1777.00,0.0010
1776.00,0.0010
1775.00,0.0010
1774.00,0.0010
1773.00,0.0010
1772.00,0.0011
1771.00,0.0011
1770.00,0.0012
1769.00,0.0012
1768.00,0.0012
1767.00,0.0012
1766.00,0.0012
1765.00,0.0012
1764.00,0.0013
1763.00,0.0013
1762.00,0.0014
1761.00,0.0015
1760.00,0.0015
1759.00,0.0015
1758.00,0.0016
1757.00,0.0016
1756.00,0.0017
1755.00,0.0018
1754.00,0.0018
1753.00,0.0019
1752.00,0.0019
1751.00,0.0020
1750.00,0.0021
1749.00,0.0021
1748.00,0.0022
1747.00,0.0023
1746.00,0.0023
1745.00,0.0024
1744.00,0.0024
1743.00,0.0025
1742.00,0.0025
1741.00,0.0026
1740.00,0.0027
1739.00,0.0027
1738.00,0.0027
1737.00,0.0027
1736.00,0.0028
1735.00,0.0028
1734.00,0.0028
1733.00,0.0028
1732.00,0.0027
1731.00,0.0026
1730.00,0.0026
1729.00,0.0026
1728.00,0.0026
1727.00,0.0026
1726.00,0.0026
1725.00,0.0027
1724.00,0.0028
1723.00,0.0028
1722.00,0.0027
1721.00,0.0027
1720.00,0.0026
1719.00,0.0025
1718.00,0.0025
1717.00,0.0025
1716.00,0.0026
1715.00,0.0026
1714.00,0.0026
1713.00,0.0027
1712.00,0.0027
1711.00,0.0028
1710.00,0.0028
1709.00,0.0029
1708.00,0.0029
1707.00,0.0029
1706.00,0.0030
1705.00,0.0030
1704.00,0.0031
1703.00,0.0032
1702.00,0.0032
1701.00,0.0033
1700.00,0.0034
1699.00,0.0035
1698.00,0.0035
1697.00,0.0036
1696.00,0.0036
1695.00,0.0037
1694.00,0.0038
1693.00,0.0038
1692.00,0.0039
1691.00,0.0041
1690.00,0.0042
1689.00,0.0044
1688.00,0.0045
1687.00,0.0045
1686.00,0.0045
1685.00,0.0046
1684.00,0.0049
1683.00,0.0051
1682.00,0.0053
1681.00,0.0054
1680.00,0.0055
1679.00,0.0056
1678.00,0.0058
1677.00,0.0059
1676.00,0.0061
1675.00,0.0063
1674.00,0.0064
1673.00,0.0065
1672.00,0.0065
1671.00,0.0066
1670.00,0.0068
1669.00,0.0069
1668.00,0.0070
1667.00,0.0070
1666.00,0.0071
1665.00,0.0072
1664.00,0.0073
1663.00,0.0075
1662.00,0.0076
1661.00,0.0077
1660.00,0.0078
1659.00,0.0080
1658.00,0.0081
1657.00,0.0082
1656.00,0.0082
1655.00,0.0083
1654.00,0.0083
1653.00,0.0084
1652.00,0.0086
1651.00,0.0088
1650.00,0.0090
1649.00,0.0092
1648.00,0.0094
1647.00,0.0095
1646.00,0.0097
1645.00,0.0097
1644.00,0.0098
1643.00,0.0098
1642.00,0.0098
1641.00,0.0098
1640.00,0.0098
1639.00,0.0098
1638.00,0.0097
1637.00,0.0097
1636.00,0.0097
1635.00,0.0096
1634.00,0.0096
1633.00,0.0096
1632.00,0.0096
1631.00,0.0096
1630.00,0.0095
1629.00,0.0095
1628.00,0.0095
1627.00,0.0095
1626.00,0.0095
1625.00,0.0094
1624.00,0.0094
1623.00,0.0093
1622.00,0.0092
1621.00,0.0092
1620.00,0.0091
1619.00,0.0091
1618.00,0.0091
1617.00,0.0091
1616.00,0.0091
1615.00,0.0091
1614.00,0.0091
1613.00,0.0091
1612.00,0.0091
1611.00,0.0091
1610.00,0.0091
1609.00,0.0091
1608.00,0.0092
1607.00,0.0092
1606.00,0.0092
1605.00,0.0092
1604.00,0.0092
1603.00,0.0091
1602.00,0.0090
1601.00,0.0090
1600.00,0.0089
1599.00,0.0089
1598.00,0.0089
1597.00,0.0088
1596.00,0.0088
1595.00,0.0087
1594.00,0.0087
1593.00,0.0086
1592.00,0.0086
1591.00,0.0086
1590.00,0.0086
1589.00,0.0086
1588.00,0.0087
1587.00,0.0087
1586.00,0.0087
1585.00,0.0088
1584.00,0.0089
1583.00,0.0090
1582.00,0.0090
1581.00,0.0091
1580.00,0.0092
1579.00,0.0092
1578.00,0.0092
1577.00,0.0092
1576.00,0.0092
1575.00,0.0091
1574.00,0.0091
1573.00,0.0090
1572.00,0.0090
1571.00,0.0089
1570.00,0.0088
1569.00,0.0087
1568.00,0.0087
1567.00,0.0087
1566.00,0.0086
1565.00,0.0087
1564.00,0.0087
1563.00,0.0088
1562.00,0.0088
1561.00,0.0090
1560.00,0.0092
1559.00,0.0094
1558.00,0.0094
1557.00,0.0094
1556.00,0.0095
1555.00,0.0095
1554.00,0.0096
1553.00,0.0096
1552.00,0.0097
1551.00,0.0098
1550.00,0.0100
1549.00,0.0101
1548.00,0.0102
1547.00,0.0104
1546.00,0.0105
1545.00,0.0107
1544.00,0.0109
1543.00,0.0110
1542.00,0.0110
1541.00,0.0110
1540.00,0.0109
1539.00,0.0105
1538.00,0.0103
1537.00,0.0101
1536.00,0.0100
1535.00,0.0098
1534.00,0.0095
1533.00,0.0092
1532.00,0.0089
1531.00,0.0087
1530.00,0.0085
1529.00,0.0084
1528.00,0.0083
1527.00,0.0082
1526.00,0.0080
1525.00,0.0079
1524.00,0.0078
1523.00,0.0076
1522.00,0.0075
1521.00,0.0074
1520.00,0.0074
1519.00,0.0074
1518.00,0.0073
1517.00,0.0073
1516.00,0.0073
1515.00,0.0073
1514.00,0.0072
1513.00,0.0073
1512.00,0.0073
1511.00,0.0073
1510.00,0.0073
1509.00,0.0073
1508.00,0.0074
1507.00,0.0074
1506.00,0.0075
1505.00,0.0076
1504.00,0.0078
1503.00,0.0079
1502.00,0.0081
1501.00,0.0084
1500.00,0.0087
1499.00,0.0090
1498.00,0.0094
1497.00,0.0100
1496.00,0.0105
1495.00,0.0110
1494.00,0.0113
1493.00,0.0117
1492.00,0.0120
1491.00,0.0123
1490.00,0.0126
1489.00,0.0130
1488.00,0.0134
1487.00,0.0138
1486.00,0.0143
1485.00,0.0148
1484.00,0.0154
1483.00,0.0161
1482.00,0.0169
1481.00,0.0180
1480.00,0.0191
1479.00,0.0203
1478.00,0.0217
1477.00,0.0236
1476.00,0.0258
1475.00,0.0283
1474.00,0.0317
1473.00,0.0369
1472.00,0.0432
1471.00,0.0495
1470.00,0.0555
1469.00,0.0617
1468.00,0.0684
1467.00,0.0757
1466.00,0.0841
1465.00,0.0933
1464.00,0.1016
1463.00,0.1077
1462.00,0.1119
1461.00,0.1152
1460.00,0.1178
1459.00,0.1199
1458.00,0.1220
1457.00,0.1241
1456.00,0.1253
1455.00,0.1255
1454.00,0.1253
1453.00,0.1245
1452.00,0.1226
1451.00,0.1194
1450.00,0.1144
1449.00,0.1072
1448.00,0.0976
1447.00,0.0872
1446.00,0.0778
1445.00,0.0697
1444.00,0.0628
1443.00,0.0571
1442.00,0.0529
1441.00,0.0500
1440.00,0.0481
1439.00,0.0471
1438.00,0.0468
1437.00,0.0464
1436.00,0.0450
1435.00,0.0421
1434.00,0.0382
1433.00,0.0337
1432.00,0.0291
1431.00,0.0251
1430.00,0.0220
1429.00,0.0198
1428.00,0.0183
1427.00,0.0174
1426.00,0.0169
1425.00,0.0164
1424.00,0.0159
1423.00,0.0157
1422.00,0.0155
1421.00,0.0153
1420.00,0.0151
1419.00,0.0149
1418.00,0.0147
1417.00,0.0145
1416.00,0.0142
1415.00,0.0140
1414.00,0.0139
1413.00,0.0137
1412.00,0.0134
1411.00,0.0133
1410.00,0.0132
1409.00,0.0132
1408.00,0.0131
1407.00,0.0131
1406.00,0.0131
1405.00,0.0131
1404.00,0.0131
1403.00,0.0132
1402.00,0.0133
1401.00,0.0134
1400.00,0.0134
1399.00,0.0136
1398.00,0.0138
1397.00,0.0139
1396.00,0.0141
1395.00,0.0145
1394.00,0.0150
1393.00,0.0155
1392.00,0.0161
1391.00,0.0170
1390.00,0.0183
1389.00,0.0200
1388.00,0.0227
1387.00,0.0266
1386.00,0.0317
1385.00,0.0381
1384.00,0.0464
1383.00,0.0576
1382.00,0.0719
1381.00,0.0899
1380.00,0.1116
1379.00,0.1358
1378.00,0.1590
1377.00,0.1759
1376.00,0.1817
1375.00,0.1734
1374.00,0.1531
1373.00,0.1280
1372.00,0.1046
1371.00,0.0849
1370.00,0.0689
1369.00,0.0566
1368.00,0.0480
1367.00,0.0427
1366.00,0.0397
1365.00,0.0385
1364.00,0.0387
1363.00,0.0400
1362.00,0.0421
1361.00,0.0443
1360.00,0.0459
1359.00,0.0463
1358.00,0.0452
1357.00,0.0427
1356.00,0.0391
1355.00,0.0350
1354.00,0.0311
1353.00,0.0276
1352.00,0.0248
1351.00,0.0226
1350.00,0.0208
1349.00,0.0194
1348.00,0.0183
1347.00,0.0174
1346.00,0.0167
1345.00,0.0161
1344.00,0.0157
1343.00,0.0152
1342.00,0.0148
1341.00,0.0144
1340.00,0.0141
1339.00,0.0139
1338.00,0.0137
1337.00,0.0136
1336.00,0.0136
1335.00,0.0138
1334.00,0.0141
1333.00,0.0145
1332.00,0.0149
1331.00,0.0152
1330.00,0.0153
1329.00,0.0152
1328.00,0.0148
1327.00,0.0143
1326.00,0.0137
1325.00,0.0130
1324.00,0.0124
1323.00,0.0119
1322.00,0.0115
1321.00,0.0112
1320.00,0.0110
1319.00,0.0107
1318.00,0.0105
1317.00,0.0103
1316.00,0.0102
1315.00,0.0101
1314.00,0.0101
1313.00,0.0101
1312.00,0.0103
1311.00,0.0106
1310.00,0.0111
1309.00,0.0120
1308.00,0.0131
1307.00,0.0146
1306.00,0.0160
1305.00,0.0170
1304.00,0.0173
1303.00,0.0169
1302.00,0.0162
1301.00,0.0155
1300.00,0.0150
1299.00,0.0147
1298.00,0.0146
1297.00,0.0145
1296.00,0.0144
1295.00,0.0141
1294.00,0.0137
1293.00,0.0132
1292.00,0.0127
1291.00,0.0122
1290.00,0.0118
1289.00,0.0113
1288.00,0.0110
1287.00,0.0106
1286.00,0.0104
1285.00,0.0101
1284.00,0.0100
1283.00,0.0098
1282.00,0.0097
1281.00,0.0096
1280.00,0.0095
1279.00,0.0094
1278.00,0.0093
1277.00,0.0092
1276.00,0.0091
1275.00,0.0091
1274.00,0.0092
1273.00,0.0092
1272.00,0.0093
1271.00,0.0094
1270.00,0.0095
1269.00,0.0096
1268.00,0.0098
1267.00,0.0101
1266.00,0.0104
1265.00,0.0108
1264.00,0.0111
1263.00,0.0116
1262.00,0.0121
1261.00,0.0127
1260.00,0.0134
1259.00,0.0143
1258.00,0.0152
1257.00,0.0159
1256.00,0.0163
1255.00,0.0161
1254.00,0.0153
1253.00,0.0142
1252.00,0.0131
1251.00,0.0122
1250.00,0.0116
1249.00,0.0112
1248.00,0.0109
1247.00,0.0107
1246.00,0.0106
1245.00,0.0105
1244.00,0.0104
1243.00,0.0103
1242.00,0.0102
1241.00,0.0101
1240.00,0.0100
1239.00,0.0099
1238.00,0.0097
1237.00,0.0096
1236.00,0.0094
1235.00,0.0093
1234.00,0.0092
1233.00,0.0092
1232.00,0.0092
1231.00,0.0092
1230.00,0.0092
1229.00,0.0092
1228.00,0.0093
1227.00,0.0095
1226.00,0.0097
1225.00,0.0099
1224.00,0.0102
1223.00,0.0104
1222.00,0.0107
1221.00,0.0110
1220.00,0.0112
1219.00,0.0114
1218.00,0.0114
1217.00,0.0112
1216.00,0.0109
1215.00,0.0106
1214.00,0.0102
1213.00,0.0099
1212.00,0.0096
1211.00,0.0094
1210.00,0.0091
1209.00,0.0089
1208.00,0.0088
1207.00,0.0087
1206.00,0.0087
1205.00,0.0086
1204.00,0.0085
1203.00,0.0085
1202.00,0.0085
1201.00,0.0085
1200.00,0.0086
1199.00,0.0086
1198.00,0.0086
1197.00,0.0085
1196.00,0.0085
1195.00,0.0085
1194.00,0.0085
1193.00,0.0085
1192.00,0.0085
1191.00,0.0086
1190.00,0.0086
1189.00,0.0086
1188.00,0.0086
1187.00,0.0087
1186.00,0.0088
1185.00,0.0089
1184.00,0.0091
1183.00,0.0093
1182.00,0.0095
1181.00,0.0099
1180.00,0.0104
1179.00,0.0111
1178.00,0.0119
1177.00,0.0130
1176.00,0.0144
1175.00,0.0164
1174.00,0.0189
1173.00,0.0221
1172.00,0.0259
1171.00,0.0300
1170.00,0.0341
1169.00,0.0375
1168.00,0.0397
1167.00,0.0403
1166.00,0.0394
1165.00,0.0375
1164.00,0.0351
1163.00,0.0326
1162.00,0.0304
1161.00,0.0286
1160.00,0.0271
1159.00,0.0259
1158.00,0.0250
1157.00,0.0243
1156.00,0.0237
1155.00,0.0233
1154.00,0.0230
1153.00,0.0226
1152.00,0.0222
1151.00,0.0215
1150.00,0.0207
1149.00,0.0197
1148.00,0.0188
1147.00,0.0178
1146.00,0.0169
1145.00,0.0161
1144.00,0.0154
1143.00,0.0148
1142.00,0.0143
1141.00,0.0137
1140.00,0.0132
1139.00,0.0128
1138.00,0.0124
1137.00,0.0121
1136.00,0.0119
1135.00,0.0118
1134.00,0.0117
1133.00,0.0116
1132.00,0.0116
1131.00,0.0115
1130.00,0.0116
1129.00,0.0116
1128.00,0.0118
1127.00,0.0120
1126.00,0.0122
1125.00,0.0124
1124.00,0.0125
1123.00,0.0127
1122.00,0.0128
1121.00,0.0130
1120.00,0.0132
1119.00,0.0134
1118.00,0.0135
1117.00,0.0136
1116.00,0.0138
1115.00,0.0139
1114.00,0.0140
1113.00,0.0141
1112.00,0.0143
1111.00,0.0145
1110.00,0.0149
1109.00,0.0154
1108.00,0.0159
1107.00,0.0165
1106.00,0.0171
1105.00,0.0176
1104.00,0.0181
1103.00,0.0183
1102.00,0.0184
1101.00,0.0182
1100.00,0.0177
1099.00,0.0171
1098.00,0.0164
1097.00,0.0158
1096.00,0.0153
1095.00,0.0149
1094.00,0.0146
1093.00,0.0143
1092.00,0.0140
1091.00,0.0136
1090.00,0.0133
1089.00,0.0130
1088.00,0.0128
1087.00,0.0127
1086.00,0.0126
1085.00,0.0124
1084.00,0.0123
1083.00,0.0122
1082.00,0.0121
1081.00,0.0120
1080.00,0.0118
1079.00,0.0117
1078.00,0.0115
1077.00,0.0113
1076.00,0.0111
1075.00,0.0111
1074.00,0.0110
1073.00,0.0110
1072.00,0.0110
1071.00,0.0110
1070.00,0.0110
1069.00,0.0109
1068.00,0.0109
1067.00,0.0109
1066.00,0.0108
1065.00,0.0107
1064.00,0.0107
1063.00,0.0108
1062.00,0.0108
1061.00,0.0109
1060.00,0.0109
1059.00,0.0109
1058.00,0.0109
1057.00,0.0109
1056.00,0.0109
1055.00,0.0110
1054.00,0.0112
1053.00,0.0113
1052.00,0.0114
1051.00,0.0117
1050.00,0.0120
1049.00,0.0123
1048.00,0.0127
1047.00,0.0130
1046.00,0.0133
1045.00,0.0135
1044.00,0.0135
1043.00,0.0135
1042.00,0.0133
1041.00,0.0130
1040.00,0.0128
1039.00,0.0126
1038.00,0.0125
1037.00,0.0124
1036.00,0.0123
1035.00,0.0122
1034.00,0.0121
1033.00,0.0120
1032.00,0.0120
1031.00,0.0119
1030.00,0.0118
1029.00,0.0118
1028.00,0.0118
1027.00,0.0118
1026.00,0.0117
1025.00,0.0116
1024.00,0.0116
1023.00,0.0116
1022.00,0.0117
1021.00,0.0118
1020.00,0.0118
1019.00,0.0119
1018.00,0.0120
1017.00,0.0121
1016.00,0.0123
1015.00,0.0126
1014.00,0.0130
1013.00,0.0134
1012.00,0.0139
1011.00,0.0143
1010.00,0.0147
1009.00,0.0151
1008.00,0.0157
1007.00,0.0165
1006.00,0.0175
1005.00,0.0189
1004.00,0.0208
1003.00,0.0235
1002.00,0.0271
1001.00,0.0316
1000.00,0.0364
999.00,0.0405
998.00,0.0427
997.00,0.0422
996.00,0.0391
995.00,0.0344
994.00,0.0292
993.00,0.0246
992.00,0.0209
991.00,0.0182
990.00,0.0163
989.00,0.0150
988.00,0.0142
987.00,0.0138
986.00,0.0137
985.00,0.0138
984.00,0.0142
983.00,0.0149
982.00,0.0161
981.00,0.0179
980.00,0.0204
979.00,0.0238
978.00,0.0280
977.00,0.0331
976.00,0.0387
975.00,0.0441
974.00,0.0486
973.00,0.0507
972.00,0.0498
971.00,0.0458
970.00,0.0398
969.00,0.0332
968.00,0.0274
967.00,0.0228
966.00,0.0194
965.00,0.0170
964.00,0.0152
963.00,0.0139
962.00,0.0129
961.00,0.0121
960.00,0.0114
959.00,0.0109
958.00,0.0104
957.00,0.0101
956.00,0.0098
955.00,0.0096
954.00,0.0094
953.00,0.0092
952.00,0.0091
951.00,0.0090
950.00,0.0089
949.00,0.0088
948.00,0.0088
947.00,0.0090
946.00,0.0092
945.00,0.0094
944.00,0.0096
943.00,0.0099
942.00,0.0102
941.00,0.0104
940.00,0.0104
939.00,0.0102
938.00,0.0098
937.00,0.0093
936.00,0.0088
935.00,0.0084
934.00,0.0081
933.00,0.0079
932.00,0.0078
931.00,0.0077
930.00,0.0076
929.00,0.0076
928.00,0.0075
927.00,0.0075
926.00,0.0075
925.00,0.0074
924.00,0.0074
923.00,0.0074
922.00,0.0075
921.00,0.0076
920.00,0.0077
919.00,0.0077
918.00,0.0078
917.00,0.0078
916.00,0.0079
915.00,0.0079
914.00,0.0081
913.00,0.0082
912.00,0.0083
911.00,0.0083
910.00,0.0084
909.00,0.0085
908.00,0.0088
907.00,0.0092
906.00,0.0099
905.00,0.0110
904.00,0.0123
903.00,0.0140
902.00,0.0159
901.00,0.0176
900.00,0.0188
899.00,0.0192
898.00,0.0187
897.00,0.0172
896.00,0.0154
895.00,0.0135
894.00,0.0120
893.00,0.0108
892.00,0.0099
891.00,0.0094
890.00,0.0090
889.00,0.0087
888.00,0.0086
887.00,0.0084
886.00,0.0083
885.00,0.0083
884.00,0.0082
883.00,0.0081
882.00,0.0081
881.00,0.0081
880.00,0.0082
879.00,0.0083
878.00,0.0084
877.00,0.0084
876.00,0.0085
875.00,0.0085
874.00,0.0084
873.00,0.0084
872.00,0.0083
871.00,0.0083
870.00,0.0084
869.00,0.0085
868.00,0.0087
867.00,0.0088
866.00,0.0089
865.00,0.0089
864.00,0.0089
863.00,0.0090
862.00,0.0091
861.00,0.0094
860.00,0.0096
859.00,0.0098
858.00,0.0098
857.00,0.0098
856.00,0.0099
855.00,0.0101
854.00,0.0104
853.00,0.0108
852.00,0.0113
851.00,0.0120
850.00,0.0127
849.00,0.0135
848.00,0.0148
847.00,0.0167
846.00,0.0196
845.00,0.0239
844.00,0.0297
843.00,0.0362
842.00,0.0412
841.00,0.0428
840.00,0.0401
839.00,0.0345
838.00,0.0284
837.00,0.0233
836.00,0.0199
835.00,0.0178
834.00,0.0165
833.00,0.0156
832.00,0.0149
831.00,0.0144
830.00,0.0140
829.00,0.0137
828.00,0.0134
827.00,0.0132
826.00,0.0131
825.00,0.0130
824.00,0.0130
823.00,0.0130
822.00,0.0130
821.00,0.0130
820.00,0.0130
819.00,0.0130
818.00,0.0132
817.00,0.0136
816.00,0.0142
815.00,0.0151
814.00,0.0165
813.00,0.0181
812.00,0.0198
811.00,0.0213
810.00,0.0223
809.00,0.0227
808.00,0.0224
807.00,0.0214
806.00,0.0200
805.00,0.0185
804.00,0.0172
803.00,0.0161
802.00,0.0153
801.00,0.0146
800.00,0.0139
799.00,0.0133
798.00,0.0128
797.00,0.0122
796.00,0.0118
795.00,0.0115
794.00,0.0112
793.00,0.0109
792.00,0.0106
791.00,0.0103
790.00,0.0101
789.00,0.0098
788.00,0.0095
787.00,0.0092
786.00,0.0088
785.00,0.0085
784.00,0.0084
783.00,0.0082
782.00,0.0080
781.00,0.0077
780.00,0.0075
779.00,0.0074
778.00,0.0076
777.00,0.0079
776.00,0.0081
775.00,0.0081
774.00,0.0081
773.00,0.0081
772.00,0.0083
771.00,0.0087
770.00,0.0092
769.00,0.0096
768.00,0.0098
767.00,0.0098
766.00,0.0097
765.00,0.0094
764.00,0.0090
763.00,0.0086
762.00,0.0082
761.00,0.0079
760.00,0.0077
759.00,0.0075
758.00,0.0073
757.00,0.0071
756.00,0.0069
755.00,0.0068
754.00,0.0068
753.00,0.0069
752.00,0.0069
751.00,0.0070
750.00,0.0071
749.00,0.0070
748.00,0.0070
747.00,0.0071
746.00,0.0072
745.00,0.0074
744.00,0.0076
743.00,0.0078
742.00,0.0079
741.00,0.0080
740.00,0.0080
739.00,0.0080
738.00,0.0081
737.00,0.0082
736.00,0.0084
735.00,0.0086
734.00,0.0089
733.00,0.0091
732.00,0.0093
731.00,0.0093
730.00,0.0093
729.00,0.0092
728.00,0.0090
727.00,0.0089
726.00,0.0088
725.00,0.0086
724.00,0.0085
723.00,0.0085
722.00,0.0086
721.00,0.0088
720.00,0.0088
719.00,0.0088
718.00,0.0087
717.00,0.0085
716.00,0.0082
715.00,0.0079
714.00,0.0077
713.00,0.0076
712.00,0.0077
711.00,0.0079
710.00,0.0080
709.00,0.0080
708.00,0.0080
707.00,0.0080
706.00,0.0079
705.00,0.0078
704.00,0.0077
703.00,0.0077
702.00,0.0077
701.00,0.0077
700.00,0.0076
699.00,0.0075
698.00,0.0072
697.00,0.0071
696.00,0.0069
695.00,0.0069
694.00,0.0068
693.00,0.0068
692.00,0.0069
691.00,0.0070
690.00,0.0071
689.00,0.0071
688.00,0.0071
687.00,0.0070
686.00,0.0070
685.00,0.0069
684.00,0.0069
683.00,0.0069
682.00,0.0069
681.00,0.0067
680.00,0.0065
679.00,0.0064
678.00,0.0066
677.00,0.0069
676.00,0.0073
675.00,0.0075
674.00,0.0075
673.00,0.0072
672.00,0.0068
671.00,0.0065
670.00,0.0063
669.00,0.0063
668.00,0.0065
667.00,0.0069
666.00,0.0072
665.00,0.0072
664.00,0.0073
663.00,0.0073
662.00,0.0072
661.00,0.0070
660.00,0.0068
659.00,0.0068
658.00,0.0070
657.00,0.0073
656.00,0.0074
655.00,0.0073
654.00,0.0073
653.00,0.0073
652.00,0.0074
651.00,0.0073
650.00,0.0071
649.00,0.0070
648.00,0.0070
647.00,0.0071
646.00,0.0071
645.00,0.0070
644.00,0.0068
643.00,0.0067
642.00,0.0067
641.00,0.0068
640.00,0.0069
639.00,0.0070
638.00,0.0071
637.00,0.0071
636.00,0.0072
635.00,0.0072
634.00,0.0072
633.00,0.0071
632.00,0.0071
631.00,0.0070
630.00,0.0071
629.00,0.0072
628.00,0.0074
627.00,0.0074
626.00,0.0074
625.00,0.0073
624.00,0.0074
623.00,0.0075
622.00,0.0077
621.00,0.0079
620.00,0.0079
619.00,0.0077
618.00,0.0074
617.00,0.0073
616.00,0.0074
615.00,0.0074
614.00,0.0075
613.00,0.0075
612.00,0.0077
611.00,0.0079
610.00,0.0083
609.00,0.0086
608.00,0.0087
607.00,0.0086
606.00,0.0082
605.00,0.0079
604.00,0.0078
603.00,0.0077
602.00,0.0077
601.00,0.0077
600.00,0.0078
599.00,0.0080
598.00,0.0082
597.00,0.0081
596.00,0.0077
595.00,0.0073
594.00,0.0071
593.00,0.0071
592.00,0.0072
591.00,0.0075
590.00,0.0079
589.00,0.0084
588.00,0.0090
587.00,0.0094
586.00,0.0095
585.00,0.0093
584.00,0.0090
583.00,0.0087
582.00,0.0085
581.00,0.0083
580.00,0.0082
579.00,0.0082
578.00,0.0082
577.00,0.0080
576.00,0.0078
575.00,0.0076
574.00,0.0077
573.00,0.0080
572.00,0.0081
571.00,0.0079
570.00,0.0074
569.00,0.0069
568.00,0.0068
567.00,0.0069
566.00,0.0071
565.00,0.0074
564.00,0.0077
563.00,0.0080
562.00,0.0081
561.00,0.0080
560.00,0.0079
559.00,0.0079
558.00,0.0081
557.00,0.0084
556.00,0.0086
555.00,0.0086
554.00,0.0084
553.00,0.0081
552.00,0.0078
551.00,0.0076
550.00,0.0075
549.00,0.0076
548.00,0.0077
547.00,0.0081
546.00,0.0087
545.00,0.0091
544.00,0.0094
543.00,0.0093
542.00,0.0090
541.00,0.0088
540.00,0.0087
539.00,0.0089
538.00,0.0093
537.00,0.0098
536.00,0.0100
535.00,0.0100
534.00,0.0098
533.00,0.0098
532.00,0.0098
531.00,0.0099
530.00,0.0101
529.00,0.0104
528.00,0.0108
527.00,0.0109
526.00,0.0107
525.00,0.0102
524.00,0.0096
523.00,0.0093
522.00,0.0094
521.00,0.0095
520.00,0.0095
519.00,0.0092
518.00,0.0090
517.00,0.0091
516.00,0.0094
515.00,0.0096
514.00,0.0094
513.00,0.0090
512.00,0.0083
511.00,0.0077
510.00,0.0071
509.00,0.0067
508.00,0.0065
507.00,0.0066
506.00,0.0067
505.00,0.0064
504.00,0.0059
503.00,0.0058
502.00,0.0063
501.00,0.0071
500.00,0.0076
499.00,0.0076
498.00,0.0076
497.00,0.0078
496.00,0.0081
495.00,0.0082
494.00,0.0082
493.00,0.0082
492.00,0.0084
491.00,0.0087
490.00,0.0089
489.00,0.0089
488.00,0.0085
487.00,0.0078
486.00,0.0074
485.00,0.0074
484.00,0.0078
483.00,0.0082
482.00,0.0085
481.00,0.0087
480.00,0.0088
479.00,0.0088
478.00,0.0085
477.00,0.0085
476.00,0.0090
475.00,0.0099
474.00,0.0105
473.00,0.0106
472.00,0.0102
471.00,0.0092
470.00,0.0082
469.00,0.0077
468.00,0.0078
467.00,0.0084
466.00,0.0094
465.00,0.0106
464.00,0.0119
463.00,0.0133
462.00,0.0145
461.00,0.0153
460.00,0.0156
459.00,0.0154
458.00,0.0143
457.00,0.0133
456.00,0.0133
455.00,0.0134
454.00,0.0140
453.00,0.0143
452.00,0.0140
451.00,0.0131
450.00,0.0119
