Created as New Dataset,Sample 081 By Administrator Date Friday, September 05 2025
cm-1,A
4000.00,0.0024
3999.00,0.0024
3998.00,0.0024
3997.00,0.0025
3996.00,0.0025
3995.00,0.0025
3994.00,0.0025
3993.00,0.0025
3992.00,0.0024
3991.00,0.0024
3990.00,0.0024
3989.00,0.0024
3988.00,0.0024
3987.00,0.0024
3986.00,0.0024
3985.00,0.0023
3984.00,0.0023
3983.00,0.0023
3982.00,0.0023
3981.00,0.0023
3980.00,0.0023
3979.00,0.0023
3978.00,0.0023
3977.00,0.0023
3976.00,0.0023
3975.00,0.0023
3974.00,0.0023
3973.00,0.0023
3972.00,0.0023
3971.00,0.0023
3970.00,0.0023
3969.00,0.0023
3968.00,0.0023
3967.00,0.0023
3966.00,0.0023
3965.00,0.0023
3964.00,0.0023
3963.00,0.0023
3962.00,0.0023
3961.00,0.0023
3960.00,0.0023
3959.00,0.0022
3958.00,0.0022
3957.00,0.0022
3956.00,0.0022
3955.00,0.0022
3954.00,0.0022
3953.00,0.0022
3952.00,0.0022
3951.00,0.0022
3950.00,0.0022
3949.00,0.0022
3948.00,0.0022
3947.00,0.0022
3946.00,0.0023
3945.00,0.0023
3944.00,0.0023
3943.00,0.0023
3942.00,0.0023
3941.00,0.0023
3940.00,0.0022
3939.00,0.0022
3938.00,0.0022
3937.00,0.0022
3936.00,0.0022
3935.00,0.0022
3934.00,0.0022
3933.00,0.0022
3932.00,0.0022
3931.00,0.0022
3930.00,0.0022
3929.00,0.0022
3928.00,0.0021
3927.00,0.0021
3926.00,0.0021
3925.00,0.0021
3924.00,0.0021
3923.00,0.0021
3922.00,0.0021
3921.00,0.0022
3920.00,0.0022
3919.00,0.0022
3918.00,0.0023
3917.00,0.0023
3916.00,0.0023
3915.00,0.0022
3914.00,0.0022
3913.00,0.0022
3912.00,0.0022
3911.00,0.0022
3910.00,0.0022
3909.00,0.0022
3908.00,0.0022
3907.00,0.0022
3906.00,0.0022
3905.00,0.0022
3904.00,0.0022
3903.00,0.0022
3902.00,0.0022
3901.00,0.0022
3900.00,0.0022
3899.00,0.0022
3898.00,0.0022
3897.00,0.0022
3896.00,0.0022
3895.00,0.0022
3894.00,0.0021
3893.00,0.0021
3892.00,0.0021
3891.00,0.0021
3890.00,0.0021
3889.00,0.0021
3888.00,0.0020
3887.00,0.0020
3886.00,0.0020
3885.00,0.0020
3884.00,0.0020
3883.00,0.0021
3882.00,0.0021
3881.00,0.0021
3880.00,0.0022
3879.00,0.0022
3878.00,0.0022
3877.00,0.0022
3876.00,0.0022
3875.00,0.0021
3874.00,0.0021
3873.00,0.0021
3872.00,0.0021
3871.00,0.0021
3870.00,0.0022
3869.00,0.0022
3868.00,0.0022
3867.00,0.0022
3866.00,0.0021
3865.00,0.0021
3864.00,0.0021
3863.00,0.0022
3862.00,0.0022
3861.00,0.0022
3860.00,0.0022
3859.00,0.0022
3858.00,0.0021
3857.00,0.0021
3856.00,0.0020
3855.00,0.0020
3854.00,0.0020
3853.00,0.0020
3852.00,0.0021
3851.00,0.0020
3850.00,0.0020
3849.00,0.0020
3848.00,0.0021
3847.00,0.0021
3846.00,0.0021
3845.00,0.0021
3844.00,0.0021
3843.00,0.0021
3842.00,0.0021
3841.00,0.0021
3840.00,0.0021
3839.00,0.0021
3838.00,0.0021
3837.00,0.0021
3836.00,0.0021
3835.00,0.0021
3834.00,0.0021
3833.00,0.0021
3832.00,0.0021
3831.00,0.0021
3830.00,0.0021
3829.00,0.0021
3828.00,0.0021
3827.00,0.0020
3826.00,0.0021
3825.00,0.0021
3824.00,0.0021
3823.00,0.0022
3822.00,0.0022
3821.00,0.0022
3820.00,0.0022
3819.00,0.0022
3818.00,0.0021
3817.00,0.0021
3816.00,0.0020
3815.00,0.0020
3814.00,0.0020
3813.00,0.0020
3812.00,0.0020
3811.00,0.0021
3810.00,0.0021
3809.00,0.0021
3808.00,0.0021
3807.00,0.0022
3806.00,0.0022
3805.00,0.0022
3804.00,0.0021
3803.00,0.0021
3802.00,0.0020
3801.00,0.0020
3800.00,0.0020
3799.00,0.0021
3798.00,0.0021
3797.00,0.0021
3796.00,0.0021
3795.00,0.0021
3794.00,0.0021
3793.00,0.0021
3792.00,0.0021
3791.00,0.0021
3790.00,0.0021
3789.00,0.0021
3788.00,0.0021
3787.00,0.0021
3786.00,0.0021
3785.00,0.0021
3784.00,0.0021
3783.00,0.0020
3782.00,0.0020
3781.00,0.0020
3780.00,0.0021
3779.00,0.0021
3778.00,0.0021
3777.00,0.0021
3776.00,0.0021
3775.00,0.0021
3774.00,0.0021
3773.00,0.0021
3772.00,0.0021
3771.00,0.0021
3770.00,0.0021
3769.00,0.0021
3768.00,0.0021
3767.00,0.0020
3766.00,0.0020
3765.00,0.0021
3764.00,0.0021
3763.00,0.0021
3762.00,0.0022
3761.00,0.0022
3760.00,0.0021
3759.00,0.0021
3758.00,0.0021
3757.00,0.0021
3756.00,0.0021
3755.00,0.0020
3754.00,0.0020
3753.00,0.0020
3752.00,0.0019
3751.00,0.0019
3750.00,0.0018
3749.00,0.0019
3748.00,0.0019
3747.00,0.0020
3746.00,0.0020
3745.00,0.0020
3744.00,0.0019
3743.00,0.0018
3742.00,0.0018
3741.00,0.0018
3740.00,0.0018
3739.00,0.0018
3738.00,0.0019
3737.00,0.0019
3736.00,0.0019
3735.00,0.0019
3734.00,0.0019
3733.00,0.0019
3732.00,0.0019
3731.00,0.0020
3730.00,0.0020
3729.00,0.0020
3728.00,0.0020
3727.00,0.0020
3726.00,0.0019
3725.00,0.0019
3724.00,0.0019
3723.00,0.0019
3722.00,0.0019
3721.00,0.0020
3720.00,0.0020
3719.00,0.0020
3718.00,0.0019
3717.00,0.0019
3716.00,0.0019
3715.00,0.0018
3714.00,0.0018
3713.00,0.0018
3712.00,0.0018
3711.00,0.0018
3710.00,0.0018
3709.00,0.0018
3708.00,0.0018
3707.00,0.0018
3706.00,0.0018
3705.00,0.0018
3704.00,0.0018
3703.00,0.0018
3702.00,0.0018
3701.00,0.0018
3700.00,0.0019
3699.00,0.0019
3698.00,0.0019
3697.00,0.0018
3696.00,0.0018
3695.00,0.0018
3694.00,0.0017
3693.00,0.0017
3692.00,0.0017
3691.00,0.0016
3690.00,0.0016
3689.00,0.0016
3688.00,0.0016
3687.00,0.0017
3686.00,0.0017
3685.00,0.0018
3684.00,0.0018
3683.00,0.0018
3682.00,0.0017
3681.00,0.0017
3680.00,0.0017
3679.00,0.0017
3678.00,0.0017
3677.00,0.0017
3676.00,0.0017
3675.00,0.0017
3674.00,0.0018
3673.00,0.0018
3672.00,0.0018
3671.00,0.0019
3670.00,0.0019
3669.00,0.0019
3668.00,0.0019
3667.00,0.0019
3666.00,0.0018
3665.00,0.0018
3664.00,0.0017
3663.00,0.0017
3662.00,0.0017
3661.00,0.0017
3660.00,0.0017
3659.00,0.0017
3658.00,0.0017
3657.00,0.0017
3656.00,0.0016
3655.00,0.0017
3654.00,0.0017
3653.00,0.0017
3652.00,0.0018
3651.00,0.0018
3650.00,0.0018
3649.00,0.0019
3648.00,0.0019
3647.00,0.0019
3646.00,0.0018
3645.00,0.0018
3644.00,0.0017
3643.00,0.0017
3642.00,0.0017
3641.00,0.0017
3640.00,0.0017
3639.00,0.0017
3638.00,0.0017
3637.00,0.0017
3636.00,0.0017
3635.00,0.0017
3634.00,0.0017
3633.00,0.0017
3632.00,0.0017
3631.00,0.0017
3630.00,0.0018
3629.00,0.0018
3628.00,0.0018
3627.00,0.0018
3626.00,0.0018
3625.00,0.0017
3624.00,0.0017
3623.00,0.0017
3622.00,0.0017
3621.00,0.0016
3620.00,0.0016
3619.00,0.0016
3618.00,0.0017
3617.00,0.0017
3616.00,0.0018
3615.00,0.0018
3614.00,0.0019
3613.00,0.0019
3612.00,0.0019
3611.00,0.0019
3610.00,0.0018
3609.00,0.0018
3608.00,0.0018
3607.00,0.0018
3606.00,0.0018
3605.00,0.0018
3604.00,0.0018
3603.00,0.0018
3602.00,0.0018
3601.00,0.0018
3600.00,0.0018
3599.00,0.0018
3598.00,0.0018
3597.00,0.0018
3596.00,0.0018
3595.00,0.0018
3594.00,0.0019
3593.00,0.0019
3592.00,0.0019
3591.00,0.0019
3590.00,0.0019
3589.00,0.0019
3588.00,0.0020
3587.00,0.0019
3586.00,0.0019
3585.00,0.0019
3584.00,0.0019
3583.00,0.0019
3582.00,0.0019
3581.00,0.0019
3580.00,0.0019
3579.00,0.0019
3578.00,0.0019
3577.00,0.0019
3576.00,0.0019
3575.00,0.0019
3574.00,0.0019
3573.00,0.0018
3572.00,0.0018
3571.00,0.0018
3570.00,0.0018
3569.00,0.0019
3568.00,0.0019
3567.00,0.0020
3566.00,0.0021
3565.00,0.0021
3564.00,0.0021
3563.00,0.0021
3562.00,0.0021
3561.00,0.0021
3560.00,0.0022
3559.00,0.0022
3558.00,0.0022
3557.00,0.0022
3556.00,0.0022
3555.00,0.0022
3554.00,0.0022
3553.00,0.0023
3552.00,0.0023
3551.00,0.0023
3550.00,0.0023
3549.00,0.0023
3548.00,0.0023
3547.00,0.0023
3546.00,0.0023
3545.00,0.0022
3544.00,0.0022
3543.00,0.0022
3542.00,0.0022
3541.00,0.0022
3540.00,0.0023
3539.00,0.0023
3538.00,0.0023
3537.00,0.0023
3536.00,0.0023
3535.00,0.0023
3534.00,0.0023
3533.00,0.0024
3532.00,0.0024
3531.00,0.0024
3530.00,0.0024
3529.00,0.0025
3528.00,0.0025
3527.00,0.0025
3526.00,0.0024
3525.00,0.0024
3524.00,0.0024
3523.00,0.0024
3522.00,0.0024
3521.00,0.0024
3520.00,0.0024
3519.00,0.0024
3518.00,0.0025
3517.00,0.0025
3516.00,0.0025
3515.00,0.0025
3514.00,0.0025
3513.00,0.0026
3512.00,0.0026
3511.00,0.0025
3510.00,0.0025
3509.00,0.0024
3508.00,0.0024
3507.00,0.0024
3506.00,0.0025
3505.00,0.0025
3504.00,0.0025
3503.00,0.0025
3502.00,0.0025
3501.00,0.0025
3500.00,0.0026
3499.00,0.0025
3498.00,0.0025
3497.00,0.0025
3496.00,0.0025
3495.00,0.0025
3494.00,0.0025
3493.00,0.0026
3492.00,0.0026
3491.00,0.0027
3490.00,0.0027
3489.00,0.0027
3488.00,0.0027
3487.00,0.0027
3486.00,0.0026
3485.00,0.0026
3484.00,0.0026
3483.00,0.0027
3482.00,0.0027
3481.00,0.0027
3480.00,0.0027
3479.00,0.0028
3478.00,0.0028
3477.00,0.0028
3476.00,0.0028
3475.00,0.0028
3474.00,0.0028
3473.00,0.0028
3472.00,0.0028
3471.00,0.0028
3470.00,0.0028
3469.00,0.0028
3468.00,0.0028
3467.00,0.0028
3466.00,0.0028
3465.00,0.0029
3464.00,0.0029
3463.00,0.0029
3462.00,0.0029
3461.00,0.0029
3460.00,0.0029
3459.00,0.0029
3458.00,0.0029
3457.00,0.0029
3456.00,0.0029
3455.00,0.0028
3454.00,0.0028
3453.00,0.0028
3452.00,0.0028
3451.00,0.0029
3450.00,0.0029
3449.00,0.0029
3448.00,0.0030
3447.00,0.0030
3446.00,0.0030
3445.00,0.0031
3444.00,0.0031
3443.00,0.0031
3442.00,0.0031
3441.00,0.0031
3440.00,0.0031
3439.00,0.0031
3438.00,0.0031
3437.00,0.0031
3436.00,0.0031
3435.00,0.0031
3434.00,0.0032
3433.00,0.0032
3432.00,0.0032
3431.00,0.0032
3430.00,0.0032
3429.00,0.0032
3428.00,0.0032
3427.00,0.0031
3426.00,0.0031
3425.00,0.0031
3424.00,0.0032
3423.00,0.0032
3422.00,0.0032
3421.00,0.0032
3420.00,0.0032
3419.00,0.0032
3418.00,0.0032
3417.00,0.0032
3416.00,0.0033
3415.00,0.0033
3414.00,0.0033
3413.00,0.0033
3412.00,0.0033
3411.00,0.0033
3410.00,0.0033
3409.00,0.0033
3408.00,0.0033
3407.00,0.0033
3406.00,0.0034
3405.00,0.0034
3404.00,0.0034
3403.00,0.0034
3402.00,0.0034
3401.00,0.0033
3400.00,0.0033
3399.00,0.0033
3398.00,0.0033
3397.00,0.0034
3396.00,0.0034
3395.00,0.0034
3394.00,0.0034
3393.00,0.0033
3392.00,0.0033
3391.00,0.0033
3390.00,0.0033
3389.00,0.0033
3388.00,0.0033
3387.00,0.0033
3386.00,0.0033
3385.00,0.0033
3384.00,0.0033
3383.00,0.0033
3382.00,0.0033
3381.00,0.0033
3380.00,0.0034
3379.00,0.0034
3378.00,0.0034
3377.00,0.0034
3376.00,0.0034
3375.00,0.0034
3374.00,0.0034
3373.00,0.0034
3372.00,0.0034
3371.00,0.0034
3370.00,0.0034
3369.00,0.0034
3368.00,0.0034
3367.00,0.0034
3366.00,0.0034
3365.00,0.0034
3364.00,0.0034
3363.00,0.0034
3362.00,0.0034
3361.00,0.0034
3360.00,0.0034
3359.00,0.0034
3358.00,0.0034
3357.00,0.0034
3356.00,0.0034
3355.00,0.0035
3354.00,0.0035
3353.00,0.0035
3352.00,0.0035
3351.00,0.0035
3350.00,0.0035
3349.00,0.0034
3348.00,0.0034
3347.00,0.0034
3346.00,0.0033
3345.00,0.0034
3344.00,0.0034
3343.00,0.0034
3342.00,0.0034
3341.00,0.0034
3340.00,0.0034
3339.00,0.0035
3338.00,0.0035
3337.00,0.0035
3336.00,0.0035
3335.00,0.0034
3334.00,0.0034
3333.00,0.0034
3332.00,0.0034
3331.00,0.0034
3330.00,0.0034
3329.00,0.0034
3328.00,0.0034
3327.00,0.0034
3326.00,0.0034
3325.00,0.0033
3324.00,0.0033
3323.00,0.0033
3322.00,0.0034
3321.00,0.0034
3320.00,0.0034
3319.00,0.0034
3318.00,0.0033
3317.00,0.0033
3316.00,0.0033
3315.00,0.0033
3314.00,0.0034
3313.00,0.0034
3312.00,0.0033
3311.00,0.0033
3310.00,0.0033
3309.00,0.0033
3308.00,0.0033
3307.00,0.0033
3306.00,0.0033
3305.00,0.0033
3304.00,0.0033
3303.00,0.0033
3302.00,0.0033
3301.00,0.0033
3300.00,0.0033
3299.00,0.0034
3298.00,0.0034
3297.00,0.0034
3296.00,0.0034
3295.00,0.0034
3294.00,0.0034
3293.00,0.0034
3292.00,0.0034
3291.00,0.0034
3290.00,0.0034
3289.00,0.0034
3288.00,0.0034
3287.00,0.0034
3286.00,0.0034
3285.00,0.0033
3284.00,0.0033
3283.00,0.0032
3282.00,0.0032
3281.00,0.0032
3280.00,0.0033
3279.00,0.0033
3278.00,0.0033
3277.00,0.0033
3276.00,0.0032
3275.00,0.0032
3274.00,0.0032
3273.00,0.0032
3272.00,0.0032
3271.00,0.0032
3270.00,0.0032
3269.00,0.0032
3268.00,0.0032
3267.00,0.0033
3266.00,0.0033
3265.00,0.0033
3264.00,0.0032
3263.00,0.0032
3262.00,0.0032
3261.00,0.0032
3260.00,0.0032
3259.00,0.0031
3258.00,0.0031
3257.00,0.0031
3256.00,0.0031
3255.00,0.0030
3254.00,0.0030
3253.00,0.0030
3252.00,0.0030
3251.00,0.0030
3250.00,0.0030
3249.00,0.0030
3248.00,0.0030
3247.00,0.0030
3246.00,0.0030
3245.00,0.0030
3244.00,0.0030
3243.00,0.0030
3242.00,0.0030
3241.00,0.0030
3240.00,0.0030
3239.00,0.0030
3238.00,0.0030
3237.00,0.0030
3236.00,0.0031
3235.00,0.0031
3234.00,0.0031
3233.00,0.0032
3232.00,0.0033
3231.00,0.0033
3230.00,0.0033
3229.00,0.0033
3228.00,0.0033
3227.00,0.0033
3226.00,0.0033
3225.00,0.0033
3224.00,0.0033
3223.00,0.0033
3222.00,0.0033
3221.00,0.0033
3220.00,0.0033
3219.00,0.0034
3218.00,0.0034
3217.00,0.0035
3216.00,0.0035
3215.00,0.0036
3214.00,0.0036
3213.00,0.0037
3212.00,0.0037
3211.00,0.0037
3210.00,0.0037
3209.00,0.0037
3208.00,0.0037
3207.00,0.0037
3206.00,0.0037
3205.00,0.0037
3204.00,0.0037
3203.00,0.0037
3202.00,0.0037
3201.00,0.0037
3200.00,0.0037
3199.00,0.0037
3198.00,0.0037
3197.00,0.0038
3196.00,0.0038
3195.00,0.0038
3194.00,0.0038
3193.00,0.0039
3192.00,0.0038
3191.00,0.0038
3190.00,0.0038
3189.00,0.0038
3188.00,0.0038
3187.00,0.0038
3186.00,0.0038
3185.00,0.0038
3184.00,0.0037
3183.00,0.0037
3182.00,0.0037
3181.00,0.0037
3180.00,0.0036
3179.00,0.0036
3178.00,0.0036
3177.00,0.0036
3176.00,0.0036
3175.00,0.0035
3174.00,0.0035
3173.00,0.0035
3172.00,0.0035
3171.00,0.0035
3170.00,0.0035
3169.00,0.0035
3168.00,0.0035
3167.00,0.0036
3166.00,0.0036
3165.00,0.0035
3164.00,0.0035
3163.00,0.0035
3162.00,0.0035
3161.00,0.0035
3160.00,0.0035
3159.00,0.0035
3158.00,0.0035
3157.00,0.0036
3156.00,0.0036
3155.00,0.0036
3154.00,0.0036
3153.00,0.0036
3152.00,0.0036
3151.00,0.0036
3150.00,0.0035
3149.00,0.0035
3148.00,0.0035
3147.00,0.0035
3146.00,0.0035
3145.00,0.0035
3144.00,0.0035
3143.00,0.0035
3142.00,0.0035
3141.00,0.0035
3140.00,0.0035
3139.00,0.0035
3138.00,0.0035
3137.00,0.0035
3136.00,0.0035
3135.00,0.0034
3134.00,0.0034
3133.00,0.0034
3132.00,0.0034
3131.00,0.0034
3130.00,0.0034
3129.00,0.0034
3128.00,0.0034
3127.00,0.0034
3126.00,0.0034
3125.00,0.0033
3124.00,0.0033
3123.00,0.0032
3122.00,0.0032
3121.00,0.0032
3120.00,0.0032
3119.00,0.0032
3118.00,0.0032
3117.00,0.0032
3116.00,0.0032
3115.00,0.0032
3114.00,0.0032
3113.00,0.0032
3112.00,0.0031
3111.00,0.0031
3110.00,0.0031
3109.00,0.0030
3108.00,0.0030
3107.00,0.0030
3106.00,0.0031
3105.00,0.0031
3104.00,0.0031
3103.00,0.0031
3102.00,0.0031
3101.00,0.0031
3100.00,0.0031
3099.00,0.0030
3098.00,0.0030
3097.00,0.0030
3096.00,0.0030
3095.00,0.0031
3094.00,0.0031
3093.00,0.0031
3092.00,0.0030
3091.00,0.0030
3090.00,0.0030
3089.00,0.0030
3088.00,0.0031
3087.00,0.0031
3086.00,0.0031
3085.00,0.0031
3084.00,0.0031
3083.00,0.0031
3082.00,0.0031
3081.00,0.0031
3080.00,0.0031
3079.00,0.0031
3078.00,0.0031
3077.00,0.0031
3076.00,0.0031
3075.00,0.0031
3074.00,0.0031
3073.00,0.0031
3072.00,0.0031
3071.00,0.0031
3070.00,0.0032
3069.00,0.0032
3068.00,0.0032
3067.00,0.0032
3066.00,0.0032
3065.00,0.0032
3064.00,0.0032
3063.00,0.0032
3062.00,0.0032
3061.00,0.0033
3060.00,0.0033
3059.00,0.0034
3058.00,0.0034
3057.00,0.0034
3056.00,0.0033
3055.00,0.0033
3054.00,0.0034
3053.00,0.0034
3052.00,0.0034
3051.00,0.0035
3050.00,0.0035
3049.00,0.0035
3048.00,0.0035
3047.00,0.0035
3046.00,0.0035
3045.00,0.0035
3044.00,0.0035
3043.00,0.0036
3042.00,0.0036
3041.00,0.0036
3040.00,0.0036
3039.00,0.0036
3038.00,0.0037
3037.00,0.0037
3036.00,0.0037
3035.00,0.0037
3034.00,0.0038
3033.00,0.0038
3032.00,0.0039
3031.00,0.0039
3030.00,0.0040
3029.00,0.0040
3028.00,0.0041
3027.00,0.0041
3026.00,0.0041
3025.00,0.0042
3024.00,0.0042
3023.00,0.0042
3022.00,0.0043
3021.00,0.0044
3020.00,0.0044
3019.00,0.0045
3018.00,0.0046
3017.00,0.0047
3016.00,0.0048
3015.00,0.0049
3014.00,0.0050
3013.00,0.0051
3012.00,0.0053
3011.00,0.0054
3010.00,0.0055
3009.00,0.0057
3008.00,0.0058
3007.00,0.0060
3006.00,0.0062
3005.00,0.0063
3004.00,0.0065
3003.00,0.0067
3002.00,0.0069
3001.00,0.0072
3000.00,0.0074
2999.00,0.0077
2998.00,0.0080
2997.00,0.0083
2996.00,0.0087
2995.00,0.0091
2994.00,0.0095
2993.00,0.0100
2992.00,0.0105
2991.00,0.0111
2990.00,0.0118
2989.00,0.0125
2988.00,0.0132
2987.00,0.0140
2986.00,0.0150
2985.00,0.0161
2984.00,0.0173
2983.00,0.0187
2982.00,0.0202
2981.00,0.0219
2980.00,0.0239
2979.00,0.0261
2978.00,0.0287
2977.00,0.0316
2976.00,0.0349
2975.00,0.0388
2974.00,0.0432
2973.00,0.0482
2972.00,0.0539
2971.00,0.0603
2970.00,0.0676
2969.00,0.0756
2968.00,0.0845
2967.00,0.0941
2966.00,0.1045
2965.00,0.1153
2964.00,0.1262
2963.00,0.1368
2962.00,0.1465
2961.00,0.1548
2960.00,0.1615
2959.00,0.1664
2958.00,0.1700
2957.00,0.1727
2956.00,0.1750
2955.00,0.1776
2954.00,0.1805
2953.00,0.1834
2952.00,0.1857
2951.00,0.1865
2950.00,0.1849
2949.00,0.1803
2948.00,0.1727
2947.00,0.1625
2946.00,0.1506
2945.00,0.1383
2944.00,0.1266
2943.00,0.1165
2942.00,0.1086
2941.00,0.1030
2940.00,0.0997
2939.00,0.0985
2938.00,0.0993
2937.00,0.1017
2936.00,0.1057
2935.00,0.1110
2934.00,0.1175
2933.00,0.1251
2932.00,0.1337
2931.00,0.1430
2930.00,0.1527
2929.00,0.1626
2928.00,0.1723
2927.00,0.1816
2926.00,0.1904
2925.00,0.1988
2924.00,0.2068
2923.00,0.2145
2922.00,0.2220
2921.00,0.2291
2920.00,0.2351
2919.00,0.2395
2918.00,0.2415
2917.00,0.2408
2916.00,0.2373
2915.00,0.2314
2914.00,0.2240
2913.00,0.2161
2912.00,0.2082
2911.00,0.2011
2910.00,0.1947
2909.00,0.1890
2908.00,0.1839
2907.00,0.1789
2906.00,0.1738
2905.00,0.1684
2904.00,0.1627
2903.00,0.1567
2902.00,0.1505
2901.00,0.1442
2900.00,0.1380
2899.00,0.1321
2898.00,0.1265
2897.00,0.1213
2896.00,0.1167
2895.00,0.1127
2894.00,0.1092
2893.00,0.1063
2892.00,0.1041
2891.00,0.1024
2890.00,0.1012
2889.00,0.1004
2888.00,0.1000
2887.00,0.0999
2886.00,0.1002
2885.00,0.1008
2884.00,0.1017
2883.00,0.1031
2882.00,0.1048
2881.00,0.1067
2880.00,0.1085
2879.00,0.1100
2878.00,0.1108
2877.00,0.1109
2876.00,0.1103
2875.00,0.1094
2874.00,0.1088
2873.00,0.1086
2872.00,0.1091
2871.00,0.1103
2870.00,0.1118
2869.00,0.1132
2868.00,0.1138
2867.00,0.1130
2866.00,0.1102
2865.00,0.1053
2864.00,0.0989
2863.00,0.0917
2862.00,0.0845
2861.00,0.0782
2860.00,0.0732
2859.00,0.0697
2858.00,0.0677
2857.00,0.0668
2856.00,0.0669
2855.00,0.0678
2854.00,0.0693
2853.00,0.0711
2852.00,0.0731
2851.00,0.0751
2850.00,0.0770
2849.00,0.0787
2848.00,0.0804
2847.00,0.0827
2846.00,0.0857
2845.00,0.0898
2844.00,0.0949
2843.00,0.1009
2842.00,0.1072
2841.00,0.1133
2840.00,0.1183
2839.00,0.1213
2838.00,0.1217
2837.00,0.1189
2836.00,0.1129
2835.00,0.1043
2834.00,0.0941
2833.00,0.0833
2832.00,0.0730
2831.00,0.0637
2830.00,0.0559
2829.00,0.0494
2828.00,0.0442
2827.00,0.0400
2826.00,0.0366
2825.00,0.0338
2824.00,0.0314
2823.00,0.0294
2822.00,0.0277
2821.00,0.0262
2820.00,0.0249
2819.00,0.0238
2818.00,0.0228
2817.00,0.0219
2816.00,0.0211
2815.00,0.0205
2814.00,0.0199
2813.00,0.0193
2812.00,0.0188
2811.00,0.0183
2810.00,0.0178
2809.00,0.0173
2808.00,0.0167
2807.00,0.0161
2806.00,0.0155
2805.00,0.0149
2804.00,0.0142
2803.00,0.0137
2802.00,0.0132
2801.00,0.0128
2800.00,0.0124
2799.00,0.0121
2798.00,0.0119
2797.00,0.0117
2796.00,0.0115
2795.00,0.0113
2794.00,0.0111
2793.00,0.0108
2792.00,0.0105
2791.00,0.0101
2790.00,0.0098
2789.00,0.0095
2788.00,0.0091
2787.00,0.0088
2786.00,0.0085
2785.00,0.0082
2784.00,0.0080
2783.00,0.0078
2782.00,0.0076
2781.00,0.0074
2780.00,0.0072
2779.00,0.0071
2778.00,0.0069
2777.00,0.0068
2776.00,0.0067
2775.00,0.0066
2774.00,0.0065
2773.00,0.0064
2772.00,0.0064
2771.00,0.0063
2770.00,0.0063
2769.00,0.0062
2768.00,0.0062
2767.00,0.0061
2766.00,0.0060
2765.00,0.0060
2764.00,0.0060
2763.00,0.0060
2762.00,0.0060
2761.00,0.0060
2760.00,0.0059
2759.00,0.0059
2758.00,0.0058
2757.00,0.0058
2756.00,0.0058
2755.00,0.0058
2754.00,0.0058
2753.00,0.0058
2752.00,0.0058
2751.00,0.0057
2750.00,0.0057
2749.00,0.0057
2748.00,0.0057
2747.00,0.0057
2746.00,0.0058
2745.00,0.0058
2744.00,0.0059
2743.00,0.0061
2742.00,0.0062
2741.00,0.0063
2740.00,0.0064
2739.00,0.0065
2738.00,0.0066
2737.00,0.0067
2736.00,0.0068
2735.00,0.0069
2734.00,0.0071
2733.00,0.0072
2732.00,0.0074
2731.00,0.0075
2730.00,0.0077
2729.00,0.0080
2728.00,0.0082
2727.00,0.0085
2726.00,0.0087
2725.00,0.0090
2724.00,0.0091
2723.00,0.0091
2722.00,0.0091
2721.00,0.0089
2720.00,0.0086
2719.00,0.0083
2718.00,0.0080
2717.00,0.0077
2716.00,0.0074
2715.00,0.0072
2714.00,0.0070
2713.00,0.0068
2712.00,0.0067
2711.00,0.0065
2710.00,0.0064
2709.00,0.0062
2708.00,0.0061
2707.00,0.0060
2706.00,0.0059
2705.00,0.0058
2704.00,0.0057
2703.00,0.0056
2702.00,0.0055
2701.00,0.0054
2700.00,0.0054
2699.00,0.0053
2698.00,0.0053
2697.00,0.0053
2696.00,0.0052
2695.00,0.0052
2694.00,0.0052
2693.00,0.0051
2692.00,0.0051
2691.00,0.0051
2690.00,0.0051
2689.00,0.0052
2688.00,0.0052
2687.00,0.0052
2686.00,0.0052
2685.00,0.0052
2684.00,0.0052
2683.00,0.0052
2682.00,0.0052
2681.00,0.0052
2680.00,0.0052
2679.00,0.0053
2678.00,0.0053
2677.00,0.0052
2676.00,0.0052
2675.00,0.0052
2674.00,0.0052
2673.00,0.0052
2672.00,0.0052
2671.00,0.0052
2670.00,0.0052
2669.00,0.0052
2668.00,0.0052
2667.00,0.0052
2666.00,0.0052
2665.00,0.0052
2664.00,0.0053
2663.00,0.0053
2662.00,0.0054
2661.00,0.0054
2660.00,0.0054
2659.00,0.0053
2658.00,0.0053
2657.00,0.0053
2656.00,0.0053
2655.00,0.0052
2654.00,0.0052
2653.00,0.0051
2652.00,0.0050
2651.00,0.0050
2650.00,0.0050
2649.00,0.0050
2648.00,0.0049
2647.00,0.0049
2646.00,0.0048
2645.00,0.0048
2644.00,0.0047
2643.00,0.0046
2642.00,0.0046
2641.00,0.0046
2640.00,0.0045
2639.00,0.0045
2638.00,0.0045
2637.00,0.0045
2636.00,0.0045
2635.00,0.0044
2634.00,0.0044
2633.00,0.0044
2632.00,0.0044
2631.00,0.0044
2630.00,0.0044
2629.00,0.0044
2628.00,0.0044
2627.00,0.0044
2626.00,0.0045
2625.00,0.0045
2624.00,0.0045
2623.00,0.0046
2622.00,0.0046
2621.00,0.0046
2620.00,0.0046
2619.00,0.0046
2618.00,0.0046
2617.00,0.0046
2616.00,0.0046
2615.00,0.0046
2614.00,0.0046
2613.00,0.0046
2612.00,0.0045
2611.00,0.0045
2610.00,0.0044
2609.00,0.0042
2608.00,0.0041
2607.00,0.0040
2606.00,0.0040
2605.00,0.0039
2604.00,0.0039
2603.00,0.0038
2602.00,0.0038
2601.00,0.0038
2600.00,0.0038
2599.00,0.0039
2598.00,0.0039
2597.00,0.0039
2596.00,0.0039
2595.00,0.0039
2594.00,0.0038
2593.00,0.0038
2592.00,0.0038
2591.00,0.0039
2590.00,0.0039
2589.00,0.0040
2588.00,0.0041
2587.00,0.0042
2586.00,0.0043
2585.00,0.0044
2584.00,0.0045
2583.00,0.0045
2582.00,0.0045
2581.00,0.0044
2580.00,0.0044
2579.00,0.0043
2578.00,0.0042
2577.00,0.0041
2576.00,0.0040
2575.00,0.0038
2574.00,0.0037
2573.00,0.0037
2572.00,0.0036
2571.00,0.0036
2570.00,0.0035
2569.00,0.0034
2568.00,0.0033
2567.00,0.0032
2566.00,0.0032
2565.00,0.0031
2564.00,0.0031
2563.00,0.0031
2562.00,0.0031
2561.00,0.0031
2560.00,0.0031
2559.00,0.0030
2558.00,0.0030
2557.00,0.0029
2556.00,0.0028
2555.00,0.0028
2554.00,0.0029
2553.00,0.0029
2552.00,0.0030
2551.00,0.0030
2550.00,0.0029
2549.00,0.0028
2548.00,0.0028
2547.00,0.0027
2546.00,0.0026
2545.00,0.0026
2544.00,0.0025
2543.00,0.0025
2542.00,0.0025
2541.00,0.0024
2540.00,0.0024
2539.00,0.0024
2538.00,0.0023
2537.00,0.0023
2536.00,0.0023
2535.00,0.0023
2534.00,0.0023
2533.00,0.0024
2532.00,0.0023
2531.00,0.0023
2530.00,0.0022
2529.00,0.0022
2528.00,0.0022
2527.00,0.0022
2526.00,0.0022
2525.00,0.0022
2524.00,0.0021
2523.00,0.0020
2522.00,0.0019
2521.00,0.0019
2520.00,0.0019
2519.00,0.0019
2518.00,0.0020
2517.00,0.0020
2516.00,0.0020
2515.00,0.0019
2514.00,0.0019
2513.00,0.0019
2512.00,0.0019
2511.00,0.0019
2510.00,0.0019
2509.00,0.0019
2508.00,0.0018
2507.00,0.0018
2506.00,0.0018
2505.00,0.0018
2504.00,0.0018
2503.00,0.0018
2502.00,0.0017
2501.00,0.0016
2500.00,0.0017
2499.00,0.0017
2498.00,0.0017
2497.00,0.0017
2496.00,0.0017
2495.00,0.0018
2494.00,0.0018
2493.00,0.0018
2492.00,0.0018
2491.00,0.0018
2490.00,0.0018
2489.00,0.0018
2488.00,0.0018
2487.00,0.0018
2486.00,0.0019
2485.00,0.0019
2484.00,0.0018
2483.00,0.0017
2482.00,0.0016
2481.00,0.0015
2480.00,0.0015
2479.00,0.0016
2478.00,0.0016
2477.00,0.0016
2476.00,0.0015
2475.00,0.0015
2474.00,0.0015
2473.00,0.0015
2472.00,0.0016
2471.00,0.0016
2470.00,0.0017
2469.00,0.0018
2468.00,0.0017
2467.00,0.0017
2466.00,0.0016
2465.00,0.0016
2464.00,0.0016
2463.00,0.0016
2462.00,0.0015
2461.00,0.0016
2460.00,0.0016
2459.00,0.0017
2458.00,0.0018
2457.00,0.0019
2456.00,0.0020
2455.00,0.0020
2454.00,0.0020
2453.00,0.0019
2452.00,0.0019
2451.00,0.0018
2450.00,0.0018
2449.00,0.0018
2448.00,0.0019
2447.00,0.0019
2446.00,0.0019
2445.00,0.0019
2444.00,0.0018
2443.00,0.0018
2442.00,0.0018
2441.00,0.0018
2440.00,0.0017
2439.00,0.0017
2438.00,0.0017
2437.00,0.0017
2436.00,0.0018
2435.00,0.0018
2434.00,0.0018
2433.00,0.0018
2432.00,0.0018
2431.00,0.0018
2430.00,0.0018
2429.00,0.0018
2428.00,0.0019
2427.00,0.0019
2426.00,0.0019
2425.00,0.0019
2424.00,0.0019
2423.00,0.0018
2422.00,0.0018
2421.00,0.0017
2420.00,0.0017
2419.00,0.0017
2418.00,0.0016
2417.00,0.0016
2416.00,0.0016
2415.00,0.0016
2414.00,0.0016
2413.00,0.0016
2412.00,0.0016
2411.00,0.0016
2410.00,0.0016
2409.00,0.0015
2408.00,0.0015
2407.00,0.0015
2406.00,0.0015
2405.00,0.0015
2404.00,0.0015
2403.00,0.0015
2402.00,0.0015
2401.00,0.0015
2400.00,0.0015
2399.00,0.0015
2398.00,0.0016
2397.00,0.0016
2396.00,0.0016
2395.00,0.0016
2394.00,0.0015
2393.00,0.0015
2392.00,0.0015
2391.00,0.0015
2390.00,0.0015
2389.00,0.0015
2388.00,0.0015
2387.00,0.0015
2386.00,0.0015
2385.00,0.0015
2384.00,0.0014
2383.00,0.0013
2382.00,0.0012
2381.00,0.0012
2380.00,0.0011
2379.00,0.0011
2378.00,0.0010
2377.00,0.0010
2376.00,0.0011
2375.00,0.0011
2374.00,0.0011
2373.00,0.0011
2372.00,0.0011
2371.00,0.0010
2370.00,0.0010
2369.00,0.0010
2368.00,0.0010
2367.00,0.0011
2366.00,0.0011
2365.00,0.0010
2364.00,0.0010
2363.00,0.0010
2362.00,0.0010
2361.00,0.0010
2360.00,0.0010
2359.00,0.0010
2358.00,0.0010
2357.00,0.0011
2356.00,0.0012
2355.00,0.0012
2354.00,0.0012
2353.00,0.0011
2352.00,0.0010
2351.00,0.0009
2350.00,0.0009
2349.00,0.0010
2348.00,0.0011
2347.00,0.0012
2346.00,0.0013
2345.00,0.0012
2344.00,0.0011
2343.00,0.0011
2342.00,0.0011
2341.00,0.0011
2340.00,0.0012
2339.00,0.0013
2338.00,0.0013
2337.00,0.0013
2336.00,0.0013
2335.00,0.0013
2334.00,0.0013
2333.00,0.0013
2332.00,0.0012
2331.00,0.0012
2330.00,0.0012
2329.00,0.0012
2328.00,0.0014
2327.00,0.0016
2326.00,0.0020
2325.00,0.0023
2324.00,0.0024
2323.00,0.0023
2322.00,0.0021
2321.00,0.0019
2320.00,0.0018
2319.00,0.0017
2318.00,0.0017
2317.00,0.0016
2316.00,0.0016
2315.00,0.0015
2314.00,0.0015
2313.00,0.0015
2312.00,0.0014
2311.00,0.0013
2310.00,0.0013
2309.00,0.0012
2308.00,0.0012
2307.00,0.0012
2306.00,0.0013
2305.00,0.0013
2304.00,0.0014
2303.00,0.0014
2302.00,0.0015
2301.00,0.0015
2300.00,0.0014
2299.00,0.0014
2298.00,0.0015
2297.00,0.0016
2296.00,0.0016
2295.00,0.0017
2294.00,0.0017
2293.00,0.0018
2292.00,0.0018
2291.00,0.0019
2290.00,0.0020
2289.00,0.0021
2288.00,0.0022
2287.00,0.0022
2286.00,0.0023
2285.00,0.0023
2284.00,0.0023
2283.00,0.0022
2282.00,0.0021
2281.00,0.0021
2280.00,0.0020
2279.00,0.0019
2278.00,0.0018
2277.00,0.0017
2276.00,0.0017
2275.00,0.0017
2274.00,0.0017
2273.00,0.0018
2272.00,0.0018
2271.00,0.0018
2270.00,0.0017
2269.00,0.0016
2268.00,0.0015
2267.00,0.0014
2266.00,0.0014
2265.00,0.0015
2264.00,0.0016
2263.00,0.0017
2262.00,0.0017
2261.00,0.0017
2260.00,0.0017
2259.00,0.0016
2258.00,0.0016
2257.00,0.0016
2256.00,0.0016
2255.00,0.0016
2254.00,0.0016
2253.00,0.0016
2252.00,0.0015
2251.00,0.0014
2250.00,0.0015
2249.00,0.0016
2248.00,0.0017
2247.00,0.0017
2246.00,0.0016
2245.00,0.0014
2244.00,0.0013
2243.00,0.0011
2242.00,0.0011
2241.00,0.0012
2240.00,0.0014
2239.00,0.0014
2238.00,0.0014
2237.00,0.0013
2236.00,0.0012
2235.00,0.0011
2234.00,0.0010
2233.00,0.0009
2232.00,0.0010
2231.00,0.0010
2230.00,0.0012
2229.00,0.0013
2228.00,0.0014
2227.00,0.0014
2226.00,0.0014
2225.00,0.0013
2224.00,0.0013
2223.00,0.0013
2222.00,0.0015
2221.00,0.0016
2220.00,0.0016
2219.00,0.0014
2218.00,0.0013
2217.00,0.0012
2216.00,0.0012
2215.00,0.0012
2214.00,0.0011
2213.00,0.0011
2212.00,0.0010
2211.00,0.0011
2210.00,0.0012
2209.00,0.0012
2208.00,0.0012
2207.00,0.0011
2206.00,0.0010
2205.00,0.0010
2204.00,0.0011
2203.00,0.0011
2202.00,0.0012
2201.00,0.0013
2200.00,0.0014
2199.00,0.0014
2198.00,0.0014
2197.00,0.0014
2196.00,0.0013
2195.00,0.0013
2194.00,0.0012
2193.00,0.0012
2192.00,0.0013
2191.00,0.0013
2190.00,0.0014
2189.00,0.0014
2188.00,0.0014
2187.00,0.0014
2186.00,0.0013
2185.00,0.0012
2184.00,0.0009
2183.00,0.0007
2182.00,0.0006
2181.00,0.0006
2180.00,0.0008
2179.00,0.0009
2178.00,0.0008
2177.00,0.0007
2176.00,0.0005
2175.00,0.0004
2174.00,0.0004
2173.00,0.0005
2172.00,0.0008
2171.00,0.0011
2170.00,0.0015
2169.00,0.0019
2168.00,0.0021
2167.00,0.0020
2166.00,0.0020
2165.00,0.0022
2164.00,0.0025
2163.00,0.0028
2162.00,0.0027
2161.00,0.0023
2160.00,0.0013
2159.00,0.0001
2158.00,-0.0009
2157.00,-0.0015
2156.00,-0.0017
2155.00,-0.0017
2154.00,-0.0015
2153.00,-0.0014
2152.00,-0.0012
2151.00,-0.0010
2150.00,-0.0008
2149.00,-0.0007
2148.00,-0.0006
2147.00,-0.0005
2146.00,-0.0005
2145.00,-0.0004
2144.00,-0.0004
2143.00,-0.0003
2142.00,-0.0003
2141.00,-0.0002
2140.00,-0.0002
2139.00,-0.0002
2138.00,-0.0002
2137.00,-0.0003
2136.00,-0.0005
2135.00,-0.0007
2134.00,-0.0009
2133.00,-0.0009
2132.00,-0.0008
2131.00,-0.0007
2130.00,-0.0006
2129.00,-0.0005
2128.00,-0.0003
2127.00,-0.0002
2126.00,-0.0001
2125.00,-0.0001
2124.00,0.0000
2123.00,0.0001
2122.00,0.0002
2121.00,0.0004
2120.00,0.0004
2119.00,0.0004
2118.00,0.0004
2117.00,0.0005
2116.00,0.0006
2115.00,0.0007
2114.00,0.0007
2113.00,0.0006
2112.00,0.0005
2111.00,0.0005
2110.00,0.0005
2109.00,0.0005
2108.00,0.0005
2107.00,0.0006
2106.00,0.0006
2105.00,0.0007
2104.00,0.0008
2103.00,0.0008
2102.00,0.0008
2101.00,0.0007
2100.00,0.0006
2099.00,0.0005
2098.00,0.0004
2097.00,0.0004
2096.00,0.0003
2095.00,0.0002
2094.00,0.0002
2093.00,0.0002
2092.00,0.0003
2091.00,0.0004
2090.00,0.0005
2089.00,0.0005
2088.00,0.0006
2087.00,0.0005
2086.00,0.0005
2085.00,0.0005
2084.00,0.0007
2083.00,0.0009
2082.00,0.0010
2081.00,0.0010
2080.00,0.0009
2079.00,0.0008
2078.00,0.0008
2077.00,0.0008
2076.00,0.0008
2075.00,0.0008
2074.00,0.0008
2073.00,0.0007
2072.00,0.0006
2071.00,0.0005
2070.00,0.0005
2069.00,0.0005
2068.00,0.0004
2067.00,0.0004
2066.00,0.0004
2065.00,0.0005
2064.00,0.0005
2063.00,0.0005
2062.00,0.0004
2061.00,0.0003
2060.00,0.0004
2059.00,0.0005
2058.00,0.0007
2057.00,0.0009
2056.00,0.0011
2055.00,0.0011
2054.00,0.0011
2053.00,0.0012
2052.00,0.0013
2051.00,0.0014
2050.00,0.0012
2049.00,0.0010
2048.00,0.0009
2047.00,0.0008
2046.00,0.0009
2045.00,0.0010
2044.00,0.0012
2043.00,0.0012
2042.00,0.0011
2041.00,0.0009
2040.00,0.0007
2039.00,0.0005
2038.00,0.0005
2037.00,0.0004
2036.00,0.0002
2035.00,-0.0000
2034.00,-0.0004
2033.00,-0.0007
2032.00,-0.0008
2031.00,-0.0007
2030.00,-0.0006
2029.00,-0.0004
2028.00,-0.0003
2027.00,-0.0003
2026.00,-0.0004
2025.00,-0.0004
2024.00,-0.0005
2023.00,-0.0006
2022.00,-0.0008
2021.00,-0.0009
2020.00,-0.0008
2019.00,-0.0007
2018.00,-0.0005
2017.00,-0.0004
2016.00,-0.0002
2015.00,-0.0001
2014.00,-0.0001
2013.00,-0.0002
2012.00,-0.0003
2011.00,-0.0003
2010.00,-0.0001
2009.00,0.0002
2008.00,0.0001
2007.00,-0.0004
2006.00,-0.0010
2005.00,-0.0014
2004.00,-0.0013
2003.00,-0.0011
2002.00,-0.0010
2001.00,-0.0010
2000.00,-0.0011
1999.00,-0.0012
1998.00,-0.0012
1997.00,-0.0011
1996.00,-0.0010
1995.00,-0.0009
1994.00,-0.0007
1993.00,-0.0006
1992.00,-0.0004
1991.00,-0.0003
1990.00,-0.0002
1989.00,-0.0000
1988.00,0.0001
1987.00,0.0002
1986.00,0.0002
1985.00,0.0003
1984.00,0.0005
1983.00,0.0007
1982.00,0.0008
1981.00,0.0008
1980.00,0.0007
1979.00,0.0005
1978.00,0.0001
1977.00,-0.0005
1976.00,-0.0010
1975.00,-0.0014
1974.00,-0.0015
1973.00,-0.0013
1972.00,-0.0011
1971.00,-0.0010
1970.00,-0.0011
1969.00,-0.0012
1968.00,-0.0012
1967.00,-0.0012
1966.00,-0.0011
1965.00,-0.0010
1964.00,-0.0010
1963.00,-0.0010
1962.00,-0.0009
1961.00,-0.0009
1960.00,-0.0008
1959.00,-0.0008
1958.00,-0.0008
1957.00,-0.0008
1956.00,-0.0008
1955.00,-0.0010
1954.00,-0.0013
1953.00,-0.0016
1952.00,-0.0018
1951.00,-0.0017
1950.00,-0.0016
1949.00,-0.0013
1948.00,-0.0011
1947.00,-0.0009
1946.00,-0.0009
1945.00,-0.0010
1944.00,-0.0010
1943.00,-0.0011
1942.00,-0.0011
1941.00,-0.0011
1940.00,-0.0010
1939.00,-0.0009
1938.00,-0.0007
1937.00,-0.0006
1936.00,-0.0004
1935.00,-0.0004
1934.00,-0.0004
1933.00,-0.0004
1932.00,-0.0004
1931.00,-0.0004
1930.00,-0.0004
1929.00,-0.0003
1928.00,-0.0002
1927.00,-0.0002
1926.00,-0.0003
1925.00,-0.0004
1924.00,-0.0003
1923.00,-0.0001
1922.00,0.0000
1921.00,0.0002
1920.00,0.0003
1919.00,0.0003
1918.00,0.0003
1917.00,0.0003
1916.00,0.0003
1915.00,0.0003
1914.00,0.0003
1913.00,0.0003
1912.00,0.0002
1911.00,0.0001
1910.00,0.0000
1909.00,-0.0000
1908.00,0.0000
1907.00,0.0001
1906.00,0.0002
1905.00,0.0002
1904.00,0.0002
1903.00,0.0002
1902.00,0.0003
1901.00,0.0003
1900.00,0.0003
1899.00,0.0004
1898.00,0.0004
1897.00,0.0004
1896.00,0.0004
1895.00,0.0004
1894.00,0.0005
1893.00,0.0006
1892.00,0.0006
1891.00,0.0005
1890.00,0.0004
1889.00,0.0002
1888.00,0.0001
1887.00,0.0001
1886.00,0.0001
1885.00,0.0001
1884.00,0.0001
1883.00,0.0002
1882.00,0.0001
1881.00,0.0002
1880.00,0.0002
1879.00,0.0002
1878.00,0.0003
1877.00,0.0003
1876.00,0.0003
1875.00,0.0003
1874.00,0.0004
1873.00,0.0005
1872.00,0.0006
1871.00,0.0006
1870.00,0.0005
1869.00,0.0005
1868.00,0.0004
1867.00,0.0005
1866.00,0.0005
1865.00,0.0004
1864.00,0.0004
1863.00,0.0004
1862.00,0.0004
1861.00,0.0006
1860.00,0.0006
1859.00,0.0006
1858.00,0.0006
1857.00,0.0005
1856.00,0.0004
1855.00,0.0004
1854.00,0.0004
1853.00,0.0004
1852.00,0.0005
1851.00,0.0004
1850.00,0.0004
1849.00,0.0004
1848.00,0.0003
1847.00,0.0004
1846.00,0.0004
1845.00,0.0005
1844.00,0.0006
1843.00,0.0007
1842.00,0.0007
1841.00,0.0007
1840.00,0.0007
1839.00,0.0006
1838.00,0.0006
1837.00,0.0006
1836.00,0.0007
1835.00,0.0007
1834.00,0.0007
1833.00,0.0007
1832.00,0.0006
1831.00,0.0006
1830.00,0.0006
1829.00,0.0006
1828.00,0.0007
1827.00,0.0007
1826.00,0.0008
1825.00,0.0008
1824.00,0.0008
1823.00,0.0008
1822.00,0.0008
1821.00,0.0007
1820.00,0.0006
1819.00,0.0004
1818.00,0.0003
1817.00,0.0002
1816.00,0.0002
1815.00,0.0003
1814.00,0.0004
1813.00,0.0005
1812.00,0.0006
1811.00,0.0007
1810.00,0.0007
1809.00,0.0007
1808.00,0.0007
1807.00,0.0007
1806.00,0.0007
1805.00,0.0008
1804.00,0.0008
1803.00,0.0008
1802.00,0.0009
1801.00,0.0009
1800.00,0.0009
1799.00,0.0009
1798.00,0.0009
1797.00,0.0009
1796.00,0.0010
1795.00,0.0010
1794.00,0.0010
1793.00,0.0010
1792.00,0.0010
1791.00,0.0010
1790.00,0.0010
1789.00,0.0011
1788.00,0.0011
1787.00,0.0011
1786.00,0.0012
1785.00,0.0012
1784.00,0.0013
1783.00,0.0013
1782.00,0.0012
1781.00,0.0012
1780.00,0.0011
1779.00,0.0011
1778.00,0.0011
1777.00,0.0011
1776.00,0.0011
1775.00,0.0011
1774.00,0.0011
1773.00,0.0011
1772.00,0.0011
1771.00,0.0011
1770.00,0.0012
1769.00,0.0012
1768.00,0.0013
1767.00,0.0014
1766.00,0.0014
1765.00,0.0014
1764.00,0.0014
1763.00,0.0015
1762.00,0.0015
1761.00,0.0016
1760.00,0.0016
1759.00,0.0016
1758.00,0.0016
1757.00,0.0016
1756.00,0.0017
1755.00,0.0017
1754.00,0.0018
1753.00,0.0018
1752.00,0.0019
1751.00,0.0019
1750.00,0.0019
1749.00,0.0020
1748.00,0.0020
1747.00,0.0020
1746.00,0.0021
1745.00,0.0021
1744.00,0.0021
1743.00,0.0021
1742.00,0.0021
1741.00,0.0022
1740.00,0.0022
1739.00,0.0022
1738.00,0.0022
1737.00,0.0021
1736.00,0.0020
1735.00,0.0019
1734.00,0.0019
1733.00,0.0020
1732.00,0.0021
1731.00,0.0022
1730.00,0.0022
1729.00,0.0022
1728.00,0.0022
1727.00,0.0022
1726.00,0.0022
1725.00,0.0022
1724.00,0.0022
1723.00,0.0022
1722.00,0.0022
1721.00,0.0022
1720.00,0.0022
1719.00,0.0022
1718.00,0.0022
1717.00,0.0022
1716.00,0.0023
1715.00,0.0023
1714.00,0.0023
1713.00,0.0023
1712.00,0.0023
1711.00,0.0023
1710.00,0.0023
1709.00,0.0023
1708.00,0.0023
1707.00,0.0024
1706.00,0.0024
1705.00,0.0024
1704.00,0.0025
1703.00,0.0025
1702.00,0.0025
1701.00,0.0026
1700.00,0.0027
1699.00,0.0027
1698.00,0.0027
1697.00,0.0027
1696.00,0.0028
1695.00,0.0028
1694.00,0.0028
1693.00,0.0029
1692.00,0.0029
1691.00,0.0029
1690.00,0.0030
1689.00,0.0030
1688.00,0.0030
1687.00,0.0029
1686.00,0.0029
1685.00,0.0028
1684.00,0.0029
1683.00,0.0030
1682.00,0.0031
1681.00,0.0031
1680.00,0.0032
1679.00,0.0032
1678.00,0.0032
1677.00,0.0033
1676.00,0.0033
1675.00,0.0033
1674.00,0.0034
1673.00,0.0034
1672.00,0.0034
1671.00,0.0034
1670.00,0.0034
1669.00,0.0035
1668.00,0.0036
1667.00,0.0037
1666.00,0.0037
1665.00,0.0038
1664.00,0.0039
1663.00,0.0039
1662.00,0.0039
1661.00,0.0039
1660.00,0.0039
1659.00,0.0040
1658.00,0.0040
1657.00,0.0041
1656.00,0.0042
1655.00,0.0042
1654.00,0.0042
1653.00,0.0042
1652.00,0.0043
1651.00,0.0044
1650.00,0.0045
1649.00,0.0046
1648.00,0.0047
1647.00,0.0048
1646.00,0.0049
1645.00,0.0049
1644.00,0.0048
1643.00,0.0048
1642.00,0.0048
1641.00,0.0048
1640.00,0.0048
1639.00,0.0049
1638.00,0.0049
1637.00,0.0049
1636.00,0.0048
1635.00,0.0048
1634.00,0.0048
1633.00,0.0049
1632.00,0.0049
1631.00,0.0049
1630.00,0.0049
1629.00,0.0049
1628.00,0.0049
1627.00,0.0049
1626.00,0.0049
1625.00,0.0048
1624.00,0.0048
1623.00,0.0048
1622.00,0.0047
1621.00,0.0047
1620.00,0.0047
1619.00,0.0047
1618.00,0.0047
1617.00,0.0047
1616.00,0.0047
1615.00,0.0047
1614.00,0.0047
1613.00,0.0047
1612.00,0.0047
1611.00,0.0047
1610.00,0.0047
1609.00,0.0047
1608.00,0.0048
1607.00,0.0048
1606.00,0.0047
1605.00,0.0047
1604.00,0.0048
1603.00,0.0048
1602.00,0.0048
1601.00,0.0047
1600.00,0.0047
1599.00,0.0047
1598.00,0.0047
1597.00,0.0047
1596.00,0.0048
1595.00,0.0048
1594.00,0.0049
1593.00,0.0050
1592.00,0.0050
1591.00,0.0050
1590.00,0.0050
1589.00,0.0050
1588.00,0.0050
1587.00,0.0050
1586.00,0.0051
1585.00,0.0052
1584.00,0.0053
1583.00,0.0054
1582.00,0.0054
1581.00,0.0055
1580.00,0.0057
1579.00,0.0058
1578.00,0.0059
1577.00,0.0060
1576.00,0.0060
1575.00,0.0058
1574.00,0.0057
1573.00,0.0055
1572.00,0.0055
1571.00,0.0054
1570.00,0.0052
1569.00,0.0052
1568.00,0.0051
1567.00,0.0051
1566.00,0.0051
1565.00,0.0050
1564.00,0.0050
1563.00,0.0050
1562.00,0.0050
1561.00,0.0051
1560.00,0.0051
1559.00,0.0050
1558.00,0.0049
1557.00,0.0049
1556.00,0.0049
1555.00,0.0049
1554.00,0.0049
1553.00,0.0050
1552.00,0.0051
1551.00,0.0051
1550.00,0.0052
1549.00,0.0053
1548.00,0.0054
1547.00,0.0055
1546.00,0.0056
1545.00,0.0058
1544.00,0.0059
1543.00,0.0061
1542.00,0.0062
1541.00,0.0064
1540.00,0.0064
1539.00,0.0063
1538.00,0.0062
1537.00,0.0061
1536.00,0.0061
1535.00,0.0061
1534.00,0.0059
1533.00,0.0058
1532.00,0.0057
1531.00,0.0057
1530.00,0.0056
1529.00,0.0057
1528.00,0.0057
1527.00,0.0057
1526.00,0.0057
1525.00,0.0056
1524.00,0.0056
1523.00,0.0056
1522.00,0.0056
1521.00,0.0055
1520.00,0.0055
1519.00,0.0055
1518.00,0.0056
1517.00,0.0056
1516.00,0.0057
1515.00,0.0058
1514.00,0.0058
1513.00,0.0059
1512.00,0.0060
1511.00,0.0060
1510.00,0.0061
1509.00,0.0062
1508.00,0.0063
1507.00,0.0064
1506.00,0.0065
1505.00,0.0067
1504.00,0.0069
1503.00,0.0070
1502.00,0.0071
1501.00,0.0073
1500.00,0.0075
1499.00,0.0077
1498.00,0.0079
1497.00,0.0083
1496.00,0.0088
1495.00,0.0091
1494.00,0.0094
1493.00,0.0097
1492.00,0.0100
1491.00,0.0103
1490.00,0.0107
1489.00,0.0112
1488.00,0.0117
1487.00,0.0122
1486.00,0.0126
1485.00,0.0132
1484.00,0.0139
1483.00,0.0146
1482.00,0.0154
1481.00,0.0164
1480.00,0.0175
1479.00,0.0187
1478.00,0.0201
1477.00,0.0220
1476.00,0.0243
1475.00,0.0271
1474.00,0.0309
1473.00,0.0364
1472.00,0.0428
1471.00,0.0489
1470.00,0.0548
1469.00,0.0609
1468.00,0.0675
1467.00,0.0748
1466.00,0.0832
1465.00,0.0923
1464.00,0.1004
1463.00,0.1061
1462.00,0.1099
1461.00,0.1126
1460.00,0.1147
1459.00,0.1163
1458.00,0.1177
1457.00,0.1190
1456.00,0.1195
1455.00,0.1192
1454.00,0.1185
1453.00,0.1172
1452.00,0.1150
1451.00,0.1116
1450.00,0.1068
1449.00,0.0999
1448.00,0.0910
1447.00,0.0815
1446.00,0.0730
1445.00,0.0657
1444.00,0.0593
1443.00,0.0540
1442.00,0.0500
1441.00,0.0471
1440.00,0.0453
1439.00,0.0444
1438.00,0.0442
1437.00,0.0439
1436.00,0.0427
1435.00,0.0403
1434.00,0.0370
1433.00,0.0331
1432.00,0.0290
1431.00,0.0253
1430.00,0.0224
1429.00,0.0202
1428.00,0.0186
1427.00,0.0176
1426.00,0.0170
1425.00,0.0164
1424.00,0.0157
1423.00,0.0153
1422.00,0.0151
1421.00,0.0148
1420.00,0.0145
1419.00,0.0142
1418.00,0.0139
1417.00,0.0137
1416.00,0.0134
1415.00,0.0132
1414.00,0.0131
1413.00,0.0128
1412.00,0.0125
1411.00,0.0123
1410.00,0.0123
1409.00,0.0121
1408.00,0.0120
1407.00,0.0120
1406.00,0.0120
1405.00,0.0120
1404.00,0.0119
1403.00,0.0120
1402.00,0.0121
1401.00,0.0121
1400.00,0.0121
1399.00,0.0123
1398.00,0.0125
1397.00,0.0128
1396.00,0.0130
1395.00,0.0134
1394.00,0.0139
1393.00,0.0144
1392.00,0.0149
1391.00,0.0157
1390.00,0.0168
1389.00,0.0183
1388.00,0.0204
1387.00,0.0237
1386.00,0.0280
1385.00,0.0337
1384.00,0.0415
1383.00,0.0524
1382.00,0.0671
1381.00,0.0857
1380.00,0.1081
1379.00,0.1327
1378.00,0.1552
1377.00,0.1704
1376.00,0.1737
1375.00,0.1629
1374.00,0.1412
1373.00,0.1163
1372.00,0.0941
1371.00,0.0761
1370.00,0.0618
1369.00,0.0508
1368.00,0.0432
1367.00,0.0384
1366.00,0.0358
1365.00,0.0348
1364.00,0.0349
1363.00,0.0361
1362.00,0.0378
1361.00,0.0398
1360.00,0.0412
1359.00,0.0416
1358.00,0.0407
1357.00,0.0384
1356.00,0.0352
1355.00,0.0316
1354.00,0.0281
1353.00,0.0251
1352.00,0.0226
1351.00,0.0206
1350.00,0.0190
1349.00,0.0176
1348.00,0.0165
1347.00,0.0155
1346.00,0.0146
1345.00,0.0139
1344.00,0.0133
1343.00,0.0129
1342.00,0.0125
1341.00,0.0122
1340.00,0.0120
1339.00,0.0118
1338.00,0.0117
1337.00,0.0117
1336.00,0.0117
1335.00,0.0119
1334.00,0.0121
1333.00,0.0125
1332.00,0.0128
1331.00,0.0131
1330.00,0.0132
1329.00,0.0131
1328.00,0.0128
1327.00,0.0124
1326.00,0.0119
1325.00,0.0113
1324.00,0.0107
1323.00,0.0103
1322.00,0.0099
1321.00,0.0096
1320.00,0.0094
1319.00,0.0093
1318.00,0.0091
1317.00,0.0090
1316.00,0.0089
1315.00,0.0088
1314.00,0.0087
1313.00,0.0087
1312.00,0.0089
1311.00,0.0091
1310.00,0.0096
1309.00,0.0104
1308.00,0.0115
1307.00,0.0128
1306.00,0.0141
1305.00,0.0151
1304.00,0.0154
1303.00,0.0151
1302.00,0.0144
1301.00,0.0137
1300.00,0.0132
1299.00,0.0130
1298.00,0.0128
1297.00,0.0127
1296.00,0.0125
1295.00,0.0122
1294.00,0.0117
1293.00,0.0112
1292.00,0.0108
1291.00,0.0104
1290.00,0.0100
1289.00,0.0097
1288.00,0.0094
1287.00,0.0091
1286.00,0.0088
1285.00,0.0086
1284.00,0.0084
1283.00,0.0082
1282.00,0.0081
1281.00,0.0080
1280.00,0.0079
1279.00,0.0078
1278.00,0.0077
1277.00,0.0076
1276.00,0.0076
1275.00,0.0075
1274.00,0.0075
1273.00,0.0076
1272.00,0.0076
1271.00,0.0076
1270.00,0.0077
1269.00,0.0078
1268.00,0.0080
1267.00,0.0082
1266.00,0.0084
1265.00,0.0086
1264.00,0.0088
1263.00,0.0092
1262.00,0.0096
1261.00,0.0102
1260.00,0.0109
1259.00,0.0119
1258.00,0.0129
1257.00,0.0138
1256.00,0.0142
1255.00,0.0141
1254.00,0.0133
1253.00,0.0123
1252.00,0.0113
1251.00,0.0104
1250.00,0.0097
1249.00,0.0091
1248.00,0.0087
1247.00,0.0084
1246.00,0.0082
1245.00,0.0080
1244.00,0.0078
1243.00,0.0077
1242.00,0.0076
1241.00,0.0075
1240.00,0.0075
1239.00,0.0074
1238.00,0.0074
1237.00,0.0074
1236.00,0.0073
1235.00,0.0073
1234.00,0.0073
1233.00,0.0073
1232.00,0.0074
1231.00,0.0074
1230.00,0.0075
1229.00,0.0076
1228.00,0.0076
1227.00,0.0077
1226.00,0.0079
1225.00,0.0082
1224.00,0.0085
1223.00,0.0088
1222.00,0.0090
1221.00,0.0092
1220.00,0.0092
1219.00,0.0093
1218.00,0.0092
1217.00,0.0091
1216.00,0.0089
1215.00,0.0087
1214.00,0.0084
1213.00,0.0081
1212.00,0.0078
1211.00,0.0077
1210.00,0.0076
1209.00,0.0075
1208.00,0.0075
1207.00,0.0074
1206.00,0.0073
1205.00,0.0072
1204.00,0.0071
1203.00,0.0071
1202.00,0.0072
1201.00,0.0072
1200.00,0.0072
1199.00,0.0072
1198.00,0.0071
1197.00,0.0071
1196.00,0.0071
1195.00,0.0071
1194.00,0.0071
1193.00,0.0071
1192.00,0.0071
1191.00,0.0072
1190.00,0.0072
1189.00,0.0073
1188.00,0.0074
1187.00,0.0075
1186.00,0.0076
1185.00,0.0077
1184.00,0.0079
1183.00,0.0081
1182.00,0.0084
1181.00,0.0087
1180.00,0.0091
1179.00,0.0097
1178.00,0.0105
1177.00,0.0115
1176.00,0.0129
1175.00,0.0148
1174.00,0.0172
1173.00,0.0203
1172.00,0.0239
1171.00,0.0278
1170.00,0.0315
1169.00,0.0345
1168.00,0.0361
1167.00,0.0363
1166.00,0.0351
1165.00,0.0331
1164.00,0.0308
1163.00,0.0285
1162.00,0.0264
1161.00,0.0248
1160.00,0.0235
1159.00,0.0225
1158.00,0.0218
1157.00,0.0211
1156.00,0.0207
1155.00,0.0203
1154.00,0.0201
1153.00,0.0197
1152.00,0.0191
1151.00,0.0184
1150.00,0.0175
1149.00,0.0165
1148.00,0.0155
1147.00,0.0146
1146.00,0.0137
1145.00,0.0129
1144.00,0.0121
1143.00,0.0114
1142.00,0.0108
1141.00,0.0102
1140.00,0.0097
1139.00,0.0092
1138.00,0.0088
1137.00,0.0085
1136.00,0.0082
1135.00,0.0079
1134.00,0.0076
1133.00,0.0075
1132.00,0.0073
1131.00,0.0073
1130.00,0.0072
1129.00,0.0071
1128.00,0.0071
1127.00,0.0070
1126.00,0.0071
1125.00,0.0071
1124.00,0.0071
1123.00,0.0070
1122.00,0.0070
1121.00,0.0069
1120.00,0.0069
1119.00,0.0070
1118.00,0.0072
1117.00,0.0074
1116.00,0.0076
1115.00,0.0077
1114.00,0.0078
1113.00,0.0079
1112.00,0.0081
1111.00,0.0083
1110.00,0.0085
1109.00,0.0089
1108.00,0.0093
1107.00,0.0097
1106.00,0.0103
1105.00,0.0109
1104.00,0.0113
1103.00,0.0115
1102.00,0.0114
1101.00,0.0111
1100.00,0.0107
1099.00,0.0103
1098.00,0.0098
1097.00,0.0093
1096.00,0.0089
1095.00,0.0086
1094.00,0.0083
1093.00,0.0080
1092.00,0.0078
1091.00,0.0076
1090.00,0.0075
1089.00,0.0074
1088.00,0.0074
1087.00,0.0074
1086.00,0.0074
1085.00,0.0075
1084.00,0.0075
1083.00,0.0074
1082.00,0.0073
1081.00,0.0071
1080.00,0.0069
1079.00,0.0068
1078.00,0.0067
1077.00,0.0067
1076.00,0.0066
1075.00,0.0066
1074.00,0.0066
1073.00,0.0066
1072.00,0.0065
1071.00,0.0065
1070.00,0.0065
1069.00,0.0065
1068.00,0.0065
1067.00,0.0066
1066.00,0.0066
1065.00,0.0066
1064.00,0.0066
1063.00,0.0066
1062.00,0.0067
1061.00,0.0068
1060.00,0.0068
1059.00,0.0068
1058.00,0.0068
1057.00,0.0068
1056.00,0.0068
1055.00,0.0069
1054.00,0.0070
1053.00,0.0072
1052.00,0.0074
1051.00,0.0076
1050.00,0.0078
1049.00,0.0080
1048.00,0.0084
1047.00,0.0088
1046.00,0.0092
1045.00,0.0094
1044.00,0.0094
1043.00,0.0092
1042.00,0.0089
1041.00,0.0085
1040.00,0.0082
1039.00,0.0081
1038.00,0.0081
1037.00,0.0081
1036.00,0.0081
1035.00,0.0080
1034.00,0.0078
1033.00,0.0075
1032.00,0.0073
1031.00,0.0072
1030.00,0.0071
1029.00,0.0071
1028.00,0.0072
1027.00,0.0072
1026.00,0.0073
1025.00,0.0073
1024.00,0.0073
1023.00,0.0074
1022.00,0.0075
1021.00,0.0075
1020.00,0.0076
1019.00,0.0077
1018.00,0.0078
1017.00,0.0079
1016.00,0.0080
1015.00,0.0083
1014.00,0.0086
1013.00,0.0090
1012.00,0.0094
1011.00,0.0098
1010.00,0.0102
1009.00,0.0107
1008.00,0.0113
1007.00,0.0121
1006.00,0.0131
1005.00,0.0146
1004.00,0.0166
1003.00,0.0194
1002.00,0.0233
1001.00,0.0281
1000.00,0.0333
999.00,0.0378
998.00,0.0402
997.00,0.0397
996.00,0.0365
995.00,0.0316
994.00,0.0265
993.00,0.0220
992.00,0.0186
991.00,0.0162
990.00,0.0144
989.00,0.0132
988.00,0.0124
987.00,0.0119
986.00,0.0117
985.00,0.0118
984.00,0.0122
983.00,0.0131
982.00,0.0145
981.00,0.0163
980.00,0.0189
979.00,0.0223
978.00,0.0267
977.00,0.0319
976.00,0.0375
975.00,0.0429
974.00,0.0469
973.00,0.0484
972.00,0.0467
971.00,0.0420
970.00,0.0357
969.00,0.0291
968.00,0.0235
967.00,0.0193
966.00,0.0163
965.00,0.0142
964.00,0.0127
963.00,0.0116
962.00,0.0108
961.00,0.0101
960.00,0.0096
959.00,0.0091
958.00,0.0088
957.00,0.0085
956.00,0.0083
955.00,0.0081
954.00,0.0080
953.00,0.0078
952.00,0.0076
951.00,0.0075
950.00,0.0074
949.00,0.0073
948.00,0.0073
947.00,0.0073
946.00,0.0075
945.00,0.0077
944.00,0.0079
943.00,0.0082
942.00,0.0085
941.00,0.0088
940.00,0.0089
939.00,0.0086
938.00,0.0082
937.00,0.0076
936.00,0.0071
935.00,0.0067
934.00,0.0065
933.00,0.0063
932.00,0.0061
931.00,0.0060
930.00,0.0059
929.00,0.0058
928.00,0.0058
927.00,0.0059
926.00,0.0059
925.00,0.0059
924.00,0.0058
923.00,0.0057
922.00,0.0057
921.00,0.0057
920.00,0.0057
919.00,0.0057
918.00,0.0057
917.00,0.0057
916.00,0.0057
915.00,0.0059
914.00,0.0061
913.00,0.0062
912.00,0.0063
911.00,0.0063
910.00,0.0064
909.00,0.0066
908.00,0.0069
907.00,0.0075
906.00,0.0083
905.00,0.0093
904.00,0.0106
903.00,0.0122
902.00,0.0138
901.00,0.0153
900.00,0.0163
899.00,0.0165
898.00,0.0158
897.00,0.0144
896.00,0.0127
895.00,0.0111
894.00,0.0098
893.00,0.0088
892.00,0.0081
891.00,0.0077
890.00,0.0075
889.00,0.0074
888.00,0.0074
887.00,0.0073
886.00,0.0071
885.00,0.0070
884.00,0.0069
883.00,0.0069
882.00,0.0070
881.00,0.0072
880.00,0.0076
879.00,0.0080
878.00,0.0082
877.00,0.0084
876.00,0.0084
875.00,0.0083
874.00,0.0082
873.00,0.0081
872.00,0.0079
871.00,0.0077
870.00,0.0076
869.00,0.0075
868.00,0.0074
867.00,0.0074
866.00,0.0075
865.00,0.0076
864.00,0.0078
863.00,0.0080
862.00,0.0081
861.00,0.0082
860.00,0.0084
859.00,0.0086
858.00,0.0089
857.00,0.0090
856.00,0.0091
855.00,0.0092
854.00,0.0094
853.00,0.0096
852.00,0.0100
851.00,0.0104
850.00,0.0110
849.00,0.0117
848.00,0.0128
847.00,0.0145
846.00,0.0172
845.00,0.0214
844.00,0.0273
843.00,0.0340
842.00,0.0394
841.00,0.0411
840.00,0.0382
839.00,0.0321
838.00,0.0255
837.00,0.0202
836.00,0.0167
835.00,0.0146
834.00,0.0131
833.00,0.0121
832.00,0.0114
831.00,0.0110
830.00,0.0108
829.00,0.0105
828.00,0.0103
827.00,0.0099
826.00,0.0096
825.00,0.0094
824.00,0.0093
823.00,0.0093
822.00,0.0093
821.00,0.0093
820.00,0.0095
819.00,0.0097
818.00,0.0101
817.00,0.0107
816.00,0.0115
815.00,0.0125
814.00,0.0137
813.00,0.0152
812.00,0.0168
811.00,0.0184
810.00,0.0195
809.00,0.0200
808.00,0.0197
807.00,0.0187
806.00,0.0171
805.00,0.0155
804.00,0.0140
803.00,0.0128
802.00,0.0119
801.00,0.0112
800.00,0.0105
799.00,0.0099
798.00,0.0095
797.00,0.0092
796.00,0.0090
795.00,0.0088
794.00,0.0086
793.00,0.0083
792.00,0.0081
791.00,0.0079
790.00,0.0076
789.00,0.0074
788.00,0.0071
787.00,0.0068
786.00,0.0065
785.00,0.0062
784.00,0.0058
783.00,0.0055
782.00,0.0053
781.00,0.0053
780.00,0.0053
779.00,0.0053
778.00,0.0053
777.00,0.0053
776.00,0.0054
775.00,0.0055
774.00,0.0055
773.00,0.0055
772.00,0.0054
771.00,0.0054
770.00,0.0053
769.00,0.0053
768.00,0.0053
767.00,0.0053
766.00,0.0054
765.00,0.0055
764.00,0.0056
763.00,0.0058
762.00,0.0059
761.00,0.0060
760.00,0.0060
759.00,0.0060
758.00,0.0060
757.00,0.0059
756.00,0.0059
755.00,0.0059
754.00,0.0058
753.00,0.0057
752.00,0.0057
751.00,0.0058
750.00,0.0058
749.00,0.0058
748.00,0.0058
747.00,0.0058
746.00,0.0059
745.00,0.0060
744.00,0.0061
743.00,0.0064
742.00,0.0066
741.00,0.0067
740.00,0.0068
739.00,0.0069
738.00,0.0072
737.00,0.0074
736.00,0.0077
735.00,0.0081
734.00,0.0084
733.00,0.0089
732.00,0.0095
731.00,0.0101
730.00,0.0107
729.00,0.0110
728.00,0.0112
727.00,0.0112
726.00,0.0113
725.00,0.0115
724.00,0.0118
723.00,0.0123
722.00,0.0127
721.00,0.0130
720.00,0.0129
719.00,0.0123
718.00,0.0115
717.00,0.0106
716.00,0.0099
715.00,0.0092
714.00,0.0087
713.00,0.0082
712.00,0.0078
711.00,0.0076
710.00,0.0073
709.00,0.0070
708.00,0.0067
707.00,0.0065
706.00,0.0064
705.00,0.0063
704.00,0.0061
703.00,0.0059
702.00,0.0057
701.00,0.0056
700.00,0.0055
699.00,0.0054
698.00,0.0054
697.00,0.0053
696.00,0.0053
695.00,0.0052
694.00,0.0051
693.00,0.0051
692.00,0.0050
691.00,0.0049
690.00,0.0048
689.00,0.0048
688.00,0.0048
687.00,0.0049
686.00,0.0049
685.00,0.0049
684.00,0.0048
683.00,0.0047
682.00,0.0047
681.00,0.0048
680.00,0.0049
679.00,0.0049
678.00,0.0048
677.00,0.0047
676.00,0.0046
675.00,0.0047
674.00,0.0048
673.00,0.0048
672.00,0.0048
671.00,0.0048
670.00,0.0048
669.00,0.0049
668.00,0.0050
667.00,0.0051
666.00,0.0051
665.00,0.0049
664.00,0.0047
663.00,0.0046
662.00,0.0047
661.00,0.0048
660.00,0.0050
659.00,0.0051
658.00,0.0051
657.00,0.0050
656.00,0.0050
655.00,0.0051
654.00,0.0051
653.00,0.0051
652.00,0.0051
651.00,0.0051
650.00,0.0051
649.00,0.0050
648.00,0.0049
647.00,0.0049
646.00,0.0048
645.00,0.0046
644.00,0.0045
643.00,0.0044
642.00,0.0045
641.00,0.0047
640.00,0.0049
639.00,0.0051
638.00,0.0052
637.00,0.0053
636.00,0.0053
635.00,0.0053
634.00,0.0052
633.00,0.0051
632.00,0.0049
631.00,0.0047
630.00,0.0046
629.00,0.0045
628.00,0.0044
627.00,0.0043
626.00,0.0043
625.00,0.0045
624.00,0.0048
623.00,0.0050
622.00,0.0050
621.00,0.0050
620.00,0.0051
619.00,0.0052
618.00,0.0052
617.00,0.0051
616.00,0.0049
615.00,0.0048
614.00,0.0049
613.00,0.0051
612.00,0.0050
611.00,0.0048
610.00,0.0045
609.00,0.0043
608.00,0.0043
607.00,0.0043
606.00,0.0044
605.00,0.0046
604.00,0.0048
603.00,0.0051
602.00,0.0055
601.00,0.0056
600.00,0.0056
599.00,0.0054
598.00,0.0053
597.00,0.0053
596.00,0.0054
595.00,0.0055
594.00,0.0055
593.00,0.0054
592.00,0.0052
591.00,0.0052
590.00,0.0052
589.00,0.0053
588.00,0.0052
587.00,0.0051
586.00,0.0051
585.00,0.0053
584.00,0.0055
583.00,0.0059
582.00,0.0062
581.00,0.0063
580.00,0.0063
579.00,0.0062
578.00,0.0061
577.00,0.0061
576.00,0.0061
575.00,0.0061
574.00,0.0060
573.00,0.0058
572.00,0.0054
571.00,0.0050
570.00,0.0046
569.00,0.0044
568.00,0.0044
567.00,0.0045
566.00,0.0046
565.00,0.0047
564.00,0.0049
563.00,0.0051
562.00,0.0053
561.00,0.0053
560.00,0.0053
559.00,0.0053
558.00,0.0054
557.00,0.0055
556.00,0.0056
555.00,0.0056
554.00,0.0057
553.00,0.0058
552.00,0.0059
551.00,0.0059
550.00,0.0059
549.00,0.0059
548.00,0.0059
547.00,0.0058
546.00,0.0057
545.00,0.0058
544.00,0.0059
543.00,0.0059
542.00,0.0058
541.00,0.0056
540.00,0.0057
539.00,0.0058
538.00,0.0058
537.00,0.0058
536.00,0.0059
535.00,0.0061
534.00,0.0065
533.00,0.0067
532.00,0.0069
531.00,0.0070
530.00,0.0071
529.00,0.0072
528.00,0.0071
527.00,0.0069
526.00,0.0066
525.00,0.0062
524.00,0.0061
523.00,0.0064
522.00,0.0068
521.00,0.0070
520.00,0.0070
519.00,0.0069
518.00,0.0067
517.00,0.0064
516.00,0.0063
515.00,0.0066
514.00,0.0072
513.00,0.0078
512.00,0.0078
511.00,0.0074
510.00,0.0066
509.00,0.0060
508.00,0.0055
507.00,0.0054
506.00,0.0053
505.00,0.0053
504.00,0.0054
503.00,0.0056
502.00,0.0061
501.00,0.0065
500.00,0.0067
499.00,0.0067
498.00,0.0065
497.00,0.0061
496.00,0.0057
495.00,0.0054
494.00,0.0054
493.00,0.0055
492.00,0.0054
491.00,0.0053
490.00,0.0053
489.00,0.0057
488.00,0.0062
487.00,0.0067
486.00,0.0070
485.00,0.0070
484.00,0.0066
483.00,0.0062
482.00,0.0065
481.00,0.0071
480.00,0.0075
479.00,0.0072
478.00,0.0067
477.00,0.0065
476.00,0.0070
475.00,0.0080
474.00,0.0084
473.00,0.0078
472.00,0.0068
471.00,0.0065
470.00,0.0070
469.00,0.0076
468.00,0.0080
467.00,0.0086
466.00,0.0094
465.00,0.0103
464.00,0.0109
463.00,0.0114
462.00,0.0124
461.00,0.0137
460.00,0.0148
459.00,0.0150
458.00,0.0141
457.00,0.0126
456.00,0.0117
455.00,0.0118
454.00,0.0124
453.00,0.0127
452.00,0.0119
451.00,0.0104
450.00,0.0090
