Created as New Dataset,Sample 105 By Administrator Date Wednesday, September 10 2025
cm-1,A
4000.00,0.0010
3999.00,0.0010
3998.00,0.0010
3997.00,0.0010
3996.00,0.0010
3995.00,0.0010
3994.00,0.0009
3993.00,0.0009
3992.00,0.0009
3991.00,0.0009
3990.00,0.0010
3989.00,0.0010
3988.00,0.0010
3987.00,0.0010
3986.00,0.0010
3985.00,0.0010
3984.00,0.0010
3983.00,0.0009
3982.00,0.0009
3981.00,0.0009
3980.00,0.0009
3979.00,0.0009
3978.00,0.0009
3977.00,0.0009
3976.00,0.0008
3975.00,0.0008
3974.00,0.0009
3973.00,0.0009
3972.00,0.0009
3971.00,0.0008
3970.00,0.0008
3969.00,0.0008
3968.00,0.0008
3967.00,0.0008
3966.00,0.0008
3965.00,0.0008
3964.00,0.0008
3963.00,0.0008
3962.00,0.0008
3961.00,0.0008
3960.00,0.0008
3959.00,0.0008
3958.00,0.0008
3957.00,0.0007
3956.00,0.0007
3955.00,0.0007
3954.00,0.0007
3953.00,0.0008
3952.00,0.0008
3951.00,0.0008
3950.00,0.0009
3949.00,0.0009
3948.00,0.0009
3947.00,0.0009
3946.00,0.0008
3945.00,0.0008
3944.00,0.0008
3943.00,0.0008
3942.00,0.0007
3941.00,0.0007
3940.00,0.0007
3939.00,0.0007
3938.00,0.0008
3937.00,0.0008
3936.00,0.0008
3935.00,0.0008
3934.00,0.0008
3933.00,0.0008
3932.00,0.0008
3931.00,0.0008
3930.00,0.0008
3929.00,0.0008
3928.00,0.0008
3927.00,0.0008
3926.00,0.0009
3925.00,0.0009
3924.00,0.0009
3923.00,0.0009
3922.00,0.0009
3921.00,0.0008
3920.00,0.0008
3919.00,0.0008
3918.00,0.0008
3917.00,0.0008
3916.00,0.0008
3915.00,0.0008
3914.00,0.0008
3913.00,0.0008
3912.00,0.0008
3911.00,0.0008
3910.00,0.0008
3909.00,0.0008
3908.00,0.0008
3907.00,0.0007
3906.00,0.0007
3905.00,0.0007
3904.00,0.0007
3903.00,0.0007
3902.00,0.0008
3901.00,0.0008
3900.00,0.0008
3899.00,0.0008
3898.00,0.0008
3897.00,0.0008
3896.00,0.0008
3895.00,0.0008
3894.00,0.0008
3893.00,0.0008
3892.00,0.0009
3891.00,0.0009
3890.00,0.0008
3889.00,0.0008
3888.00,0.0008
3887.00,0.0008
3886.00,0.0008
3885.00,0.0008
3884.00,0.0008
3883.00,0.0008
3882.00,0.0008
3881.00,0.0008
3880.00,0.0008
3879.00,0.0008
3878.00,0.0008
3877.00,0.0008
3876.00,0.0007
3875.00,0.0007
3874.00,0.0007
3873.00,0.0007
3872.00,0.0006
3871.00,0.0007
3870.00,0.0007
3869.00,0.0008
3868.00,0.0008
3867.00,0.0007
3866.00,0.0007
3865.00,0.0007
3864.00,0.0007
3863.00,0.0007
3862.00,0.0007
3861.00,0.0007
3860.00,0.0007
3859.00,0.0007
3858.00,0.0007
3857.00,0.0007
3856.00,0.0007
3855.00,0.0007
3854.00,0.0007
3853.00,0.0007
3852.00,0.0006
3851.00,0.0006
3850.00,0.0006
3849.00,0.0007
3848.00,0.0007
3847.00,0.0007
3846.00,0.0007
3845.00,0.0007
3844.00,0.0008
3843.00,0.0008
3842.00,0.0008
3841.00,0.0007
3840.00,0.0006
3839.00,0.0005
3838.00,0.0005
3837.00,0.0005
3836.00,0.0005
3835.00,0.0006
3834.00,0.0007
3833.00,0.0007
3832.00,0.0007
3831.00,0.0007
3830.00,0.0007
3829.00,0.0007
3828.00,0.0007
3827.00,0.0007
3826.00,0.0007
3825.00,0.0007
3824.00,0.0007
3823.00,0.0007
3822.00,0.0007
3821.00,0.0007
3820.00,0.0007
3819.00,0.0007
3818.00,0.0007
3817.00,0.0007
3816.00,0.0007
3815.00,0.0007
3814.00,0.0007
3813.00,0.0007
3812.00,0.0008
3811.00,0.0008
3810.00,0.0008
3809.00,0.0008
3808.00,0.0008
3807.00,0.0008
3806.00,0.0007
3805.00,0.0007
3804.00,0.0007
3803.00,0.0007
3802.00,0.0007
3801.00,0.0007
3800.00,0.0007
3799.00,0.0007
3798.00,0.0007
3797.00,0.0007
3796.00,0.0007
3795.00,0.0007
3794.00,0.0007
3793.00,0.0007
3792.00,0.0007
3791.00,0.0007
3790.00,0.0007
3789.00,0.0007
3788.00,0.0008
3787.00,0.0008
3786.00,0.0008
3785.00,0.0008
3784.00,0.0008
3783.00,0.0008
3782.00,0.0007
3781.00,0.0007
3780.00,0.0007
3779.00,0.0007
3778.00,0.0007
3777.00,0.0007
3776.00,0.0007
3775.00,0.0007
3774.00,0.0007
3773.00,0.0007
3772.00,0.0007
3771.00,0.0008
3770.00,0.0008
3769.00,0.0009
3768.00,0.0009
3767.00,0.0009
3766.00,0.0009
3765.00,0.0009
3764.00,0.0008
3763.00,0.0008
3762.00,0.0008
3761.00,0.0008
3760.00,0.0009
3759.00,0.0009
3758.00,0.0009
3757.00,0.0009
3756.00,0.0009
3755.00,0.0009
3754.00,0.0009
3753.00,0.0009
3752.00,0.0009
3751.00,0.0008
3750.00,0.0008
3749.00,0.0007
3748.00,0.0007
3747.00,0.0006
3746.00,0.0005
3745.00,0.0005
3744.00,0.0005
3743.00,0.0006
3742.00,0.0007
3741.00,0.0008
3740.00,0.0008
3739.00,0.0008
3738.00,0.0008
3737.00,0.0007
3736.00,0.0007
3735.00,0.0006
3734.00,0.0006
3733.00,0.0006
3732.00,0.0006
3731.00,0.0006
3730.00,0.0006
3729.00,0.0006
3728.00,0.0006
3727.00,0.0006
3726.00,0.0007
3725.00,0.0007
3724.00,0.0007
3723.00,0.0007
3722.00,0.0007
3721.00,0.0007
3720.00,0.0007
3719.00,0.0007
3718.00,0.0007
3717.00,0.0007
3716.00,0.0007
3715.00,0.0007
3714.00,0.0007
3713.00,0.0006
3712.00,0.0006
3711.00,0.0005
3710.00,0.0005
3709.00,0.0005
3708.00,0.0005
3707.00,0.0006
3706.00,0.0006
3705.00,0.0006
3704.00,0.0006
3703.00,0.0006
3702.00,0.0006
3701.00,0.0006
3700.00,0.0006
3699.00,0.0007
3698.00,0.0007
3697.00,0.0007
3696.00,0.0007
3695.00,0.0007
3694.00,0.0006
3693.00,0.0006
3692.00,0.0006
3691.00,0.0006
3690.00,0.0007
3689.00,0.0007
3688.00,0.0007
3687.00,0.0007
3686.00,0.0007
3685.00,0.0007
3684.00,0.0008
3683.00,0.0008
3682.00,0.0008
3681.00,0.0009
3680.00,0.0009
3679.00,0.0010
3678.00,0.0009
3677.00,0.0009
3676.00,0.0009
3675.00,0.0009
3674.00,0.0008
3673.00,0.0008
3672.00,0.0008
3671.00,0.0009
3670.00,0.0009
3669.00,0.0009
3668.00,0.0009
3667.00,0.0009
3666.00,0.0010
3665.00,0.0010
3664.00,0.0010
3663.00,0.0010
3662.00,0.0010
3661.00,0.0010
3660.00,0.0010
3659.00,0.0010
3658.00,0.0009
3657.00,0.0009
3656.00,0.0010
3655.00,0.0010
3654.00,0.0011
3653.00,0.0011
3652.00,0.0011
3651.00,0.0011
3650.00,0.0011
3649.00,0.0011
3648.00,0.0011
3647.00,0.0011
3646.00,0.0011
3645.00,0.0011
3644.00,0.0011
3643.00,0.0011
3642.00,0.0011
3641.00,0.0011
3640.00,0.0011
3639.00,0.0011
3638.00,0.0011
3637.00,0.0012
3636.00,0.0012
3635.00,0.0012
3634.00,0.0013
3633.00,0.0013
3632.00,0.0013
3631.00,0.0013
3630.00,0.0013
3629.00,0.0013
3628.00,0.0012
3627.00,0.0012
3626.00,0.0012
3625.00,0.0013
3624.00,0.0014
3623.00,0.0014
3622.00,0.0014
3621.00,0.0015
3620.00,0.0015
3619.00,0.0016
3618.00,0.0016
3617.00,0.0017
3616.00,0.0017
3615.00,0.0018
3614.00,0.0018
3613.00,0.0019
3612.00,0.0019
3611.00,0.0019
3610.00,0.0019
3609.00,0.0019
3608.00,0.0019
3607.00,0.0019
3606.00,0.0019
3605.00,0.0019
3604.00,0.0020
3603.00,0.0020
3602.00,0.0020
3601.00,0.0021
3600.00,0.0021
3599.00,0.0021
3598.00,0.0022
3597.00,0.0022
3596.00,0.0022
3595.00,0.0022
3594.00,0.0022
3593.00,0.0023
3592.00,0.0023
3591.00,0.0024
3590.00,0.0025
3589.00,0.0025
3588.00,0.0026
3587.00,0.0026
3586.00,0.0026
3585.00,0.0027
3584.00,0.0027
3583.00,0.0027
3582.00,0.0027
3581.00,0.0027
3580.00,0.0027
3579.00,0.0028
3578.00,0.0029
3577.00,0.0030
3576.00,0.0030
3575.00,0.0030
3574.00,0.0030
3573.00,0.0030
3572.00,0.0031
3571.00,0.0031
3570.00,0.0031
3569.00,0.0031
3568.00,0.0032
3567.00,0.0032
3566.00,0.0033
3565.00,0.0033
3564.00,0.0034
3563.00,0.0035
3562.00,0.0036
3561.00,0.0037
3560.00,0.0037
3559.00,0.0037
3558.00,0.0038
3557.00,0.0038
3556.00,0.0039
3555.00,0.0039
3554.00,0.0039
3553.00,0.0040
3552.00,0.0040
3551.00,0.0041
3550.00,0.0041
3549.00,0.0042
3548.00,0.0043
3547.00,0.0044
3546.00,0.0044
3545.00,0.0044
3544.00,0.0044
3543.00,0.0045
3542.00,0.0045
3541.00,0.0046
3540.00,0.0047
3539.00,0.0047
3538.00,0.0047
3537.00,0.0048
3536.00,0.0049
3535.00,0.0049
3534.00,0.0050
3533.00,0.0050
3532.00,0.0051
3531.00,0.0051
3530.00,0.0052
3529.00,0.0052
3528.00,0.0053
3527.00,0.0053
3526.00,0.0054
3525.00,0.0055
3524.00,0.0055
3523.00,0.0055
3522.00,0.0055
3521.00,0.0055
3520.00,0.0056
3519.00,0.0057
3518.00,0.0058
3517.00,0.0059
3516.00,0.0060
3515.00,0.0060
3514.00,0.0061
3513.00,0.0061
3512.00,0.0062
3511.00,0.0063
3510.00,0.0064
3509.00,0.0064
3508.00,0.0065
3507.00,0.0065
3506.00,0.0066
3505.00,0.0066
3504.00,0.0067
3503.00,0.0067
3502.00,0.0068
3501.00,0.0068
3500.00,0.0068
3499.00,0.0069
3498.00,0.0069
3497.00,0.0070
3496.00,0.0070
3495.00,0.0070
3494.00,0.0070
3493.00,0.0071
3492.00,0.0071
3491.00,0.0072
3490.00,0.0073
3489.00,0.0074
3488.00,0.0074
3487.00,0.0075
3486.00,0.0076
3485.00,0.0076
3484.00,0.0076
3483.00,0.0077
3482.00,0.0077
3481.00,0.0078
3480.00,0.0078
3479.00,0.0079
3478.00,0.0080
3477.00,0.0080
3476.00,0.0081
3475.00,0.0082
3474.00,0.0082
3473.00,0.0082
3472.00,0.0083
3471.00,0.0083
3470.00,0.0083
3469.00,0.0084
3468.00,0.0084
3467.00,0.0084
3466.00,0.0085
3465.00,0.0085
3464.00,0.0086
3463.00,0.0087
3462.00,0.0087
3461.00,0.0088
3460.00,0.0088
3459.00,0.0089
3458.00,0.0089
3457.00,0.0089
3456.00,0.0089
3455.00,0.0090
3454.00,0.0090
3453.00,0.0090
3452.00,0.0091
3451.00,0.0091
3450.00,0.0092
3449.00,0.0093
3448.00,0.0093
3447.00,0.0093
3446.00,0.0094
3445.00,0.0094
3444.00,0.0095
3443.00,0.0095
3442.00,0.0096
3441.00,0.0095
3440.00,0.0095
3439.00,0.0096
3438.00,0.0096
3437.00,0.0097
3436.00,0.0097
3435.00,0.0098
3434.00,0.0098
3433.00,0.0098
3432.00,0.0099
3431.00,0.0099
3430.00,0.0100
3429.00,0.0100
3428.00,0.0100
3427.00,0.0100
3426.00,0.0101
3425.00,0.0102
3424.00,0.0102
3423.00,0.0103
3422.00,0.0103
3421.00,0.0103
3420.00,0.0102
3419.00,0.0103
3418.00,0.0103
3417.00,0.0104
3416.00,0.0104
3415.00,0.0105
3414.00,0.0105
3413.00,0.0105
3412.00,0.0105
3411.00,0.0106
3410.00,0.0106
3409.00,0.0107
3408.00,0.0106
3407.00,0.0106
3406.00,0.0106
3405.00,0.0107
3404.00,0.0107
3403.00,0.0107
3402.00,0.0108
3401.00,0.0108
3400.00,0.0108
3399.00,0.0108
3398.00,0.0108
3397.00,0.0108
3396.00,0.0108
3395.00,0.0108
3394.00,0.0109
3393.00,0.0109
3392.00,0.0109
3391.00,0.0109
3390.00,0.0109
3389.00,0.0109
3388.00,0.0110
3387.00,0.0110
3386.00,0.0110
3385.00,0.0110
3384.00,0.0110
3383.00,0.0111
3382.00,0.0111
3381.00,0.0110
3380.00,0.0110
3379.00,0.0110
3378.00,0.0110
3377.00,0.0110
3376.00,0.0110
3375.00,0.0110
3374.00,0.0110
3373.00,0.0110
3372.00,0.0111
3371.00,0.0111
3370.00,0.0111
3369.00,0.0111
3368.00,0.0111
3367.00,0.0111
3366.00,0.0111
3365.00,0.0111
3364.00,0.0111
3363.00,0.0111
3362.00,0.0111
3361.00,0.0112
3360.00,0.0112
3359.00,0.0112
3358.00,0.0111
3357.00,0.0111
3356.00,0.0110
3355.00,0.0110
3354.00,0.0110
3353.00,0.0110
3352.00,0.0111
3351.00,0.0111
3350.00,0.0111
3349.00,0.0111
3348.00,0.0111
3347.00,0.0110
3346.00,0.0110
3345.00,0.0110
3344.00,0.0110
3343.00,0.0110
3342.00,0.0110
3341.00,0.0110
3340.00,0.0110
3339.00,0.0110
3338.00,0.0110
3337.00,0.0109
3336.00,0.0109
3335.00,0.0108
3334.00,0.0108
3333.00,0.0108
3332.00,0.0107
3331.00,0.0107
3330.00,0.0107
3329.00,0.0106
3328.00,0.0106
3327.00,0.0105
3326.00,0.0105
3325.00,0.0105
3324.00,0.0105
3323.00,0.0106
3322.00,0.0105
3321.00,0.0105
3320.00,0.0105
3319.00,0.0105
3318.00,0.0105
3317.00,0.0104
3316.00,0.0104
3315.00,0.0104
3314.00,0.0103
3313.00,0.0103
3312.00,0.0103
3311.00,0.0103
3310.00,0.0102
3309.00,0.0102
3308.00,0.0102
3307.00,0.0102
3306.00,0.0102
3305.00,0.0102
3304.00,0.0102
3303.00,0.0102
3302.00,0.0102
3301.00,0.0101
3300.00,0.0101
3299.00,0.0101
3298.00,0.0100
3297.00,0.0100
3296.00,0.0100
3295.00,0.0100
3294.00,0.0099
3293.00,0.0099
3292.00,0.0098
3291.00,0.0098
3290.00,0.0097
3289.00,0.0097
3288.00,0.0097
3287.00,0.0097
3286.00,0.0097
3285.00,0.0096
3284.00,0.0096
3283.00,0.0095
3282.00,0.0095
3281.00,0.0095
3280.00,0.0095
3279.00,0.0095
3278.00,0.0094
3277.00,0.0093
3276.00,0.0093
3275.00,0.0092
3274.00,0.0091
3273.00,0.0091
3272.00,0.0091
3271.00,0.0091
3270.00,0.0091
3269.00,0.0091
3268.00,0.0091
3267.00,0.0090
3266.00,0.0090
3265.00,0.0090
3264.00,0.0090
3263.00,0.0089
3262.00,0.0089
3261.00,0.0089
3260.00,0.0089
3259.00,0.0088
3258.00,0.0088
3257.00,0.0088
3256.00,0.0087
3255.00,0.0086
3254.00,0.0086
3253.00,0.0086
3252.00,0.0085
3251.00,0.0085
3250.00,0.0084
3249.00,0.0084
3248.00,0.0084
3247.00,0.0083
3246.00,0.0083
3245.00,0.0083
3244.00,0.0082
3243.00,0.0082
3242.00,0.0082
3241.00,0.0082
3240.00,0.0081
3239.00,0.0081
3238.00,0.0081
3237.00,0.0081
3236.00,0.0081
3235.00,0.0081
3234.00,0.0081
3233.00,0.0081
3232.00,0.0081
3231.00,0.0081
3230.00,0.0080
3229.00,0.0080
3228.00,0.0080
3227.00,0.0080
3226.00,0.0080
3225.00,0.0080
3224.00,0.0080
3223.00,0.0081
3222.00,0.0081
3221.00,0.0080
3220.00,0.0081
3219.00,0.0081
3218.00,0.0081
3217.00,0.0081
3216.00,0.0081
3215.00,0.0081
3214.00,0.0081
3213.00,0.0081
3212.00,0.0081
3211.00,0.0081
3210.00,0.0081
3209.00,0.0081
3208.00,0.0081
3207.00,0.0081
3206.00,0.0081
3205.00,0.0081
3204.00,0.0081
3203.00,0.0081
3202.00,0.0081
3201.00,0.0081
3200.00,0.0081
3199.00,0.0080
3198.00,0.0080
3197.00,0.0079
3196.00,0.0079
3195.00,0.0079
3194.00,0.0079
3193.00,0.0078
3192.00,0.0078
3191.00,0.0078
3190.00,0.0079
3189.00,0.0079
3188.00,0.0079
3187.00,0.0078
3186.00,0.0078
3185.00,0.0077
3184.00,0.0077
3183.00,0.0077
3182.00,0.0077
3181.00,0.0076
3180.00,0.0076
3179.00,0.0075
3178.00,0.0075
3177.00,0.0074
3176.00,0.0074
3175.00,0.0073
3174.00,0.0073
3173.00,0.0073
3172.00,0.0072
3171.00,0.0072
3170.00,0.0071
3169.00,0.0071
3168.00,0.0071
3167.00,0.0070
3166.00,0.0070
3165.00,0.0070
3164.00,0.0070
3163.00,0.0069
3162.00,0.0069
3161.00,0.0069
3160.00,0.0069
3159.00,0.0069
3158.00,0.0068
3157.00,0.0068
3156.00,0.0068
3155.00,0.0068
3154.00,0.0068
3153.00,0.0068
3152.00,0.0068
3151.00,0.0068
3150.00,0.0067
3149.00,0.0067
3148.00,0.0067
3147.00,0.0066
3146.00,0.0066
3145.00,0.0066
3144.00,0.0066
3143.00,0.0065
3142.00,0.0065
3141.00,0.0065
3140.00,0.0064
3139.00,0.0064
3138.00,0.0063
3137.00,0.0063
3136.00,0.0063
3135.00,0.0063
3134.00,0.0063
3133.00,0.0062
3132.00,0.0061
3131.00,0.0061
3130.00,0.0060
3129.00,0.0060
3128.00,0.0060
3127.00,0.0060
3126.00,0.0060
3125.00,0.0060
3124.00,0.0059
3123.00,0.0058
3122.00,0.0058
3121.00,0.0057
3120.00,0.0057
3119.00,0.0056
3118.00,0.0056
3117.00,0.0056
3116.00,0.0055
3115.00,0.0055
3114.00,0.0055
3113.00,0.0055
3112.00,0.0055
3111.00,0.0055
3110.00,0.0054
3109.00,0.0054
3108.00,0.0053
3107.00,0.0053
3106.00,0.0053
3105.00,0.0053
3104.00,0.0052
3103.00,0.0052
3102.00,0.0051
3101.00,0.0051
3100.00,0.0051
3099.00,0.0050
3098.00,0.0050
3097.00,0.0050
3096.00,0.0050
3095.00,0.0050
3094.00,0.0050
3093.00,0.0050
3092.00,0.0049
3091.00,0.0049
3090.00,0.0048
3089.00,0.0048
3088.00,0.0048
3087.00,0.0048
3086.00,0.0047
3085.00,0.0047
3084.00,0.0047
3083.00,0.0047
3082.00,0.0047
3081.00,0.0047
3080.00,0.0047
3079.00,0.0047
3078.00,0.0046
3077.00,0.0046
3076.00,0.0047
3075.00,0.0047
3074.00,0.0047
3073.00,0.0048
3072.00,0.0048
3071.00,0.0048
3070.00,0.0048
3069.00,0.0048
3068.00,0.0048
3067.00,0.0049
3066.00,0.0049
3065.00,0.0049
3064.00,0.0049
3063.00,0.0049
3062.00,0.0049
3061.00,0.0048
3060.00,0.0048
3059.00,0.0047
3058.00,0.0047
3057.00,0.0047
3056.00,0.0048
3055.00,0.0048
3054.00,0.0049
3053.00,0.0049
3052.00,0.0049
3051.00,0.0049
3050.00,0.0049
3049.00,0.0050
3048.00,0.0050
3047.00,0.0050
3046.00,0.0050
3045.00,0.0050
3044.00,0.0050
3043.00,0.0050
3042.00,0.0051
3041.00,0.0051
3040.00,0.0052
3039.00,0.0053
3038.00,0.0053
3037.00,0.0053
3036.00,0.0053
3035.00,0.0053
3034.00,0.0053
3033.00,0.0054
3032.00,0.0054
3031.00,0.0055
3030.00,0.0055
3029.00,0.0056
3028.00,0.0057
3027.00,0.0057
3026.00,0.0057
3025.00,0.0058
3024.00,0.0058
3023.00,0.0058
3022.00,0.0059
3021.00,0.0059
3020.00,0.0060
3019.00,0.0061
3018.00,0.0062
3017.00,0.0063
3016.00,0.0064
3015.00,0.0064
3014.00,0.0065
3013.00,0.0067
3012.00,0.0068
3011.00,0.0069
3010.00,0.0070
3009.00,0.0071
3008.00,0.0072
3007.00,0.0074
3006.00,0.0076
3005.00,0.0078
3004.00,0.0080
3003.00,0.0082
3002.00,0.0084
3001.00,0.0087
3000.00,0.0089
2999.00,0.0092
2998.00,0.0095
2997.00,0.0098
2996.00,0.0102
2995.00,0.0107
2994.00,0.0111
2993.00,0.0116
2992.00,0.0121
2991.00,0.0127
2990.00,0.0133
2989.00,0.0140
2988.00,0.0148
2987.00,0.0156
2986.00,0.0166
2985.00,0.0177
2984.00,0.0190
2983.00,0.0204
2982.00,0.0219
2981.00,0.0236
2980.00,0.0256
2979.00,0.0278
2978.00,0.0303
2977.00,0.0332
2976.00,0.0365
2975.00,0.0402
2974.00,0.0445
2973.00,0.0493
2972.00,0.0547
2971.00,0.0609
2970.00,0.0677
2969.00,0.0752
2968.00,0.0835
2967.00,0.0924
2966.00,0.1019
2965.00,0.1118
2964.00,0.1216
2963.00,0.1310
2962.00,0.1394
2961.00,0.1465
2960.00,0.1522
2959.00,0.1566
2958.00,0.1600
2957.00,0.1632
2956.00,0.1666
2955.00,0.1706
2954.00,0.1754
2953.00,0.1806
2952.00,0.1854
2951.00,0.1890
2950.00,0.1903
2949.00,0.1885
2948.00,0.1832
2947.00,0.1746
2946.00,0.1636
2945.00,0.1513
2944.00,0.1392
2943.00,0.1284
2942.00,0.1197
2941.00,0.1134
2940.00,0.1095
2939.00,0.1079
2938.00,0.1083
2937.00,0.1105
2936.00,0.1144
2935.00,0.1197
2934.00,0.1263
2933.00,0.1341
2932.00,0.1429
2931.00,0.1525
2930.00,0.1626
2929.00,0.1729
2928.00,0.1830
2927.00,0.1928
2926.00,0.2020
2925.00,0.2107
2924.00,0.2188
2923.00,0.2266
2922.00,0.2340
2921.00,0.2410
2920.00,0.2470
2919.00,0.2514
2918.00,0.2535
2917.00,0.2528
2916.00,0.2493
2915.00,0.2433
2914.00,0.2355
2913.00,0.2268
2912.00,0.2181
2911.00,0.2098
2910.00,0.2022
2909.00,0.1952
2908.00,0.1887
2907.00,0.1825
2906.00,0.1762
2905.00,0.1698
2904.00,0.1632
2903.00,0.1565
2902.00,0.1497
2901.00,0.1431
2900.00,0.1367
2899.00,0.1305
2898.00,0.1248
2897.00,0.1196
2896.00,0.1151
2895.00,0.1111
2894.00,0.1079
2893.00,0.1054
2892.00,0.1035
2891.00,0.1023
2890.00,0.1015
2889.00,0.1013
2888.00,0.1014
2887.00,0.1019
2886.00,0.1026
2885.00,0.1038
2884.00,0.1053
2883.00,0.1073
2882.00,0.1097
2881.00,0.1124
2880.00,0.1151
2879.00,0.1174
2878.00,0.1191
2877.00,0.1197
2876.00,0.1195
2875.00,0.1189
2874.00,0.1182
2873.00,0.1179
2872.00,0.1184
2871.00,0.1197
2870.00,0.1214
2869.00,0.1233
2868.00,0.1245
2867.00,0.1245
2866.00,0.1224
2865.00,0.1180
2864.00,0.1115
2863.00,0.1037
2862.00,0.0954
2861.00,0.0877
2860.00,0.0810
2859.00,0.0758
2858.00,0.0718
2857.00,0.0690
2856.00,0.0671
2855.00,0.0659
2854.00,0.0653
2853.00,0.0652
2852.00,0.0654
2851.00,0.0662
2850.00,0.0674
2849.00,0.0693
2848.00,0.0718
2847.00,0.0752
2846.00,0.0794
2845.00,0.0845
2844.00,0.0905
2843.00,0.0971
2842.00,0.1039
2841.00,0.1105
2840.00,0.1160
2839.00,0.1197
2838.00,0.1205
2837.00,0.1182
2836.00,0.1125
2835.00,0.1040
2834.00,0.0938
2833.00,0.0831
2832.00,0.0728
2831.00,0.0637
2830.00,0.0559
2829.00,0.0495
2828.00,0.0443
2827.00,0.0401
2826.00,0.0366
2825.00,0.0338
2824.00,0.0315
2823.00,0.0295
2822.00,0.0278
2821.00,0.0264
2820.00,0.0251
2819.00,0.0240
2818.00,0.0230
2817.00,0.0221
2816.00,0.0214
2815.00,0.0207
2814.00,0.0200
2813.00,0.0194
2812.00,0.0189
2811.00,0.0184
2810.00,0.0179
2809.00,0.0174
2808.00,0.0168
2807.00,0.0162
2806.00,0.0155
2805.00,0.0149
2804.00,0.0143
2803.00,0.0137
2802.00,0.0132
2801.00,0.0128
2800.00,0.0124
2799.00,0.0121
2798.00,0.0118
2797.00,0.0115
2796.00,0.0113
2795.00,0.0111
2794.00,0.0108
2793.00,0.0106
2792.00,0.0103
2791.00,0.0099
2790.00,0.0096
2789.00,0.0092
2788.00,0.0089
2787.00,0.0086
2786.00,0.0084
2785.00,0.0081
2784.00,0.0079
2783.00,0.0076
2782.00,0.0074
2781.00,0.0073
2780.00,0.0071
2779.00,0.0069
2778.00,0.0068
2777.00,0.0067
2776.00,0.0066
2775.00,0.0064
2774.00,0.0063
2773.00,0.0062
2772.00,0.0062
2771.00,0.0062
2770.00,0.0061
2769.00,0.0061
2768.00,0.0061
2767.00,0.0061
2766.00,0.0060
2765.00,0.0059
2764.00,0.0059
2763.00,0.0058
2762.00,0.0058
2761.00,0.0058
2760.00,0.0057
2759.00,0.0057
2758.00,0.0057
2757.00,0.0056
2756.00,0.0056
2755.00,0.0056
2754.00,0.0056
2753.00,0.0056
2752.00,0.0055
2751.00,0.0055
2750.00,0.0055
2749.00,0.0055
2748.00,0.0055
2747.00,0.0056
2746.00,0.0056
2745.00,0.0057
2744.00,0.0057
2743.00,0.0058
2742.00,0.0059
2741.00,0.0060
2740.00,0.0061
2739.00,0.0063
2738.00,0.0064
2737.00,0.0065
2736.00,0.0067
2735.00,0.0068
2734.00,0.0069
2733.00,0.0071
2732.00,0.0073
2731.00,0.0075
2730.00,0.0077
2729.00,0.0079
2728.00,0.0082
2727.00,0.0084
2726.00,0.0087
2725.00,0.0089
2724.00,0.0090
2723.00,0.0090
2722.00,0.0089
2721.00,0.0087
2720.00,0.0085
2719.00,0.0082
2718.00,0.0078
2717.00,0.0075
2716.00,0.0072
2715.00,0.0069
2714.00,0.0067
2713.00,0.0065
2712.00,0.0063
2711.00,0.0061
2710.00,0.0060
2709.00,0.0058
2708.00,0.0057
2707.00,0.0055
2706.00,0.0054
2705.00,0.0053
2704.00,0.0052
2703.00,0.0051
2702.00,0.0050
2701.00,0.0050
2700.00,0.0049
2699.00,0.0049
2698.00,0.0048
2697.00,0.0048
2696.00,0.0048
2695.00,0.0048
2694.00,0.0048
2693.00,0.0048
2692.00,0.0048
2691.00,0.0047
2690.00,0.0047
2689.00,0.0047
2688.00,0.0047
2687.00,0.0047
2686.00,0.0047
2685.00,0.0047
2684.00,0.0047
2683.00,0.0047
2682.00,0.0048
2681.00,0.0048
2680.00,0.0048
2679.00,0.0048
2678.00,0.0048
2677.00,0.0048
2676.00,0.0047
2675.00,0.0047
2674.00,0.0047
2673.00,0.0047
2672.00,0.0047
2671.00,0.0047
2670.00,0.0046
2669.00,0.0046
2668.00,0.0046
2667.00,0.0046
2666.00,0.0046
2665.00,0.0047
2664.00,0.0047
2663.00,0.0048
2662.00,0.0048
2661.00,0.0049
2660.00,0.0049
2659.00,0.0049
2658.00,0.0049
2657.00,0.0049
2656.00,0.0048
2655.00,0.0048
2654.00,0.0047
2653.00,0.0047
2652.00,0.0046
2651.00,0.0045
2650.00,0.0045
2649.00,0.0045
2648.00,0.0045
2647.00,0.0044
2646.00,0.0044
2645.00,0.0043
2644.00,0.0043
2643.00,0.0042
2642.00,0.0042
2641.00,0.0042
2640.00,0.0041
2639.00,0.0041
2638.00,0.0041
2637.00,0.0040
2636.00,0.0040
2635.00,0.0040
2634.00,0.0040
2633.00,0.0040
2632.00,0.0040
2631.00,0.0040
2630.00,0.0040
2629.00,0.0040
2628.00,0.0040
2627.00,0.0040
2626.00,0.0040
2625.00,0.0040
2624.00,0.0040
2623.00,0.0041
2622.00,0.0042
2621.00,0.0042
2620.00,0.0043
2619.00,0.0042
2618.00,0.0042
2617.00,0.0041
2616.00,0.0041
2615.00,0.0041
2614.00,0.0041
2613.00,0.0040
2612.00,0.0040
2611.00,0.0039
2610.00,0.0039
2609.00,0.0039
2608.00,0.0038
2607.00,0.0037
2606.00,0.0036
2605.00,0.0035
2604.00,0.0035
2603.00,0.0034
2602.00,0.0033
2601.00,0.0033
2600.00,0.0033
2599.00,0.0033
2598.00,0.0034
2597.00,0.0034
2596.00,0.0034
2595.00,0.0034
2594.00,0.0034
2593.00,0.0034
2592.00,0.0034
2591.00,0.0035
2590.00,0.0036
2589.00,0.0037
2588.00,0.0039
2587.00,0.0040
2586.00,0.0040
2585.00,0.0040
2584.00,0.0041
2583.00,0.0041
2582.00,0.0041
2581.00,0.0041
2580.00,0.0040
2579.00,0.0040
2578.00,0.0039
2577.00,0.0037
2576.00,0.0036
2575.00,0.0035
2574.00,0.0033
2573.00,0.0032
2572.00,0.0031
2571.00,0.0030
2570.00,0.0029
2569.00,0.0028
2568.00,0.0028
2567.00,0.0028
2566.00,0.0027
2565.00,0.0026
2564.00,0.0026
2563.00,0.0025
2562.00,0.0025
2561.00,0.0026
2560.00,0.0026
2559.00,0.0026
2558.00,0.0027
2557.00,0.0027
2556.00,0.0027
2555.00,0.0026
2554.00,0.0025
2553.00,0.0024
2552.00,0.0023
2551.00,0.0023
2550.00,0.0022
2549.00,0.0022
2548.00,0.0022
2547.00,0.0021
2546.00,0.0020
2545.00,0.0019
2544.00,0.0019
2543.00,0.0018
2542.00,0.0018
2541.00,0.0019
2540.00,0.0019
2539.00,0.0019
2538.00,0.0019
2537.00,0.0019
2536.00,0.0019
2535.00,0.0019
2534.00,0.0019
2533.00,0.0018
2532.00,0.0017
2531.00,0.0017
2530.00,0.0017
2529.00,0.0017
2528.00,0.0017
2527.00,0.0017
2526.00,0.0017
2525.00,0.0017
2524.00,0.0017
2523.00,0.0017
2522.00,0.0017
2521.00,0.0016
2520.00,0.0016
2519.00,0.0015
2518.00,0.0014
2517.00,0.0014
2516.00,0.0013
2515.00,0.0013
2514.00,0.0013
2513.00,0.0013
2512.00,0.0013
2511.00,0.0012
2510.00,0.0012
2509.00,0.0012
2508.00,0.0013
2507.00,0.0013
2506.00,0.0013
2505.00,0.0013
2504.00,0.0013
2503.00,0.0012
2502.00,0.0012
2501.00,0.0012
2500.00,0.0012
2499.00,0.0012
2498.00,0.0012
2497.00,0.0012
2496.00,0.0012
2495.00,0.0013
2494.00,0.0013
2493.00,0.0013
2492.00,0.0013
2491.00,0.0013
2490.00,0.0013
2489.00,0.0013
2488.00,0.0013
2487.00,0.0013
2486.00,0.0013
2485.00,0.0013
2484.00,0.0013
2483.00,0.0012
2482.00,0.0012
2481.00,0.0012
2480.00,0.0012
2479.00,0.0013
2478.00,0.0013
2477.00,0.0013
2476.00,0.0013
2475.00,0.0012
2474.00,0.0012
2473.00,0.0012
2472.00,0.0011
2471.00,0.0011
2470.00,0.0011
2469.00,0.0011
2468.00,0.0011
2467.00,0.0011
2466.00,0.0011
2465.00,0.0012
2464.00,0.0012
2463.00,0.0012
2462.00,0.0012
2461.00,0.0012
2460.00,0.0012
2459.00,0.0013
2458.00,0.0013
2457.00,0.0013
2456.00,0.0013
2455.00,0.0013
2454.00,0.0014
2453.00,0.0014
2452.00,0.0014
2451.00,0.0014
2450.00,0.0015
2449.00,0.0015
2448.00,0.0014
2447.00,0.0014
2446.00,0.0013
2445.00,0.0013
2444.00,0.0012
2443.00,0.0012
2442.00,0.0012
2441.00,0.0013
2440.00,0.0013
2439.00,0.0012
2438.00,0.0012
2437.00,0.0013
2436.00,0.0013
2435.00,0.0014
2434.00,0.0014
2433.00,0.0014
2432.00,0.0014
2431.00,0.0014
2430.00,0.0013
2429.00,0.0014
2428.00,0.0014
2427.00,0.0015
2426.00,0.0015
2425.00,0.0015
2424.00,0.0014
2423.00,0.0013
2422.00,0.0012
2421.00,0.0012
2420.00,0.0012
2419.00,0.0012
2418.00,0.0013
2417.00,0.0013
2416.00,0.0013
2415.00,0.0012
2414.00,0.0012
2413.00,0.0011
2412.00,0.0012
2411.00,0.0012
2410.00,0.0012
2409.00,0.0012
2408.00,0.0011
2407.00,0.0010
2406.00,0.0010
2405.00,0.0010
2404.00,0.0010
2403.00,0.0011
2402.00,0.0011
2401.00,0.0011
2400.00,0.0011
2399.00,0.0011
2398.00,0.0010
2397.00,0.0010
2396.00,0.0009
2395.00,0.0009
2394.00,0.0009
2393.00,0.0009
2392.00,0.0009
2391.00,0.0009
2390.00,0.0008
2389.00,0.0008
2388.00,0.0008
2387.00,0.0007
2386.00,0.0007
2385.00,0.0007
2384.00,0.0006
2383.00,0.0004
2382.00,0.0003
2381.00,0.0001
2380.00,0.0001
2379.00,0.0000
2378.00,0.0001
2377.00,0.0002
2376.00,0.0002
2375.00,0.0003
2374.00,0.0003
2373.00,0.0003
2372.00,0.0002
2371.00,0.0002
2370.00,0.0002
2369.00,0.0002
2368.00,0.0001
2367.00,0.0001
2366.00,0.0000
2365.00,0.0000
2364.00,0.0001
2363.00,0.0002
2362.00,0.0002
2361.00,0.0002
2360.00,0.0002
2359.00,0.0001
2358.00,0.0001
2357.00,0.0001
2356.00,0.0001
2355.00,0.0002
2354.00,0.0001
2353.00,0.0001
2352.00,0.0000
2351.00,0.0000
2350.00,0.0001
2349.00,0.0002
2348.00,0.0002
2347.00,0.0002
2346.00,0.0002
2345.00,0.0002
2344.00,0.0002
2343.00,0.0003
2342.00,0.0004
2341.00,0.0004
2340.00,0.0004
2339.00,0.0004
2338.00,0.0003
2337.00,0.0003
2336.00,0.0003
2335.00,0.0003
2334.00,0.0003
2333.00,0.0003
2332.00,0.0003
2331.00,0.0004
2330.00,0.0004
2329.00,0.0004
2328.00,0.0005
2327.00,0.0008
2326.00,0.0012
2325.00,0.0016
2324.00,0.0017
2323.00,0.0016
2322.00,0.0014
2321.00,0.0012
2320.00,0.0011
2319.00,0.0010
2318.00,0.0009
2317.00,0.0009
2316.00,0.0009
2315.00,0.0009
2314.00,0.0009
2313.00,0.0009
2312.00,0.0008
2311.00,0.0007
2310.00,0.0007
2309.00,0.0008
2308.00,0.0009
2307.00,0.0009
2306.00,0.0009
2305.00,0.0009
2304.00,0.0008
2303.00,0.0008
2302.00,0.0009
2301.00,0.0010
2300.00,0.0010
2299.00,0.0011
2298.00,0.0011
2297.00,0.0012
2296.00,0.0013
2295.00,0.0014
2294.00,0.0015
2293.00,0.0015
2292.00,0.0016
2291.00,0.0017
2290.00,0.0018
2289.00,0.0018
2288.00,0.0019
2287.00,0.0019
2286.00,0.0019
2285.00,0.0019
2284.00,0.0019
2283.00,0.0019
2282.00,0.0018
2281.00,0.0017
2280.00,0.0017
2279.00,0.0016
2278.00,0.0016
2277.00,0.0016
2276.00,0.0015
2275.00,0.0015
2274.00,0.0015
2273.00,0.0015
2272.00,0.0016
2271.00,0.0017
2270.00,0.0018
2269.00,0.0018
2268.00,0.0018
2267.00,0.0017
2266.00,0.0015
2265.00,0.0014
2264.00,0.0013
2263.00,0.0013
2262.00,0.0014
2261.00,0.0015
2260.00,0.0015
2259.00,0.0015
2258.00,0.0015
2257.00,0.0015
2256.00,0.0014
2255.00,0.0012
2254.00,0.0010
2253.00,0.0010
2252.00,0.0010
2251.00,0.0011
2250.00,0.0011
2249.00,0.0011
2248.00,0.0010
2247.00,0.0009
2246.00,0.0010
2245.00,0.0011
2244.00,0.0012
2243.00,0.0013
2242.00,0.0012
2241.00,0.0011
2240.00,0.0010
2239.00,0.0010
2238.00,0.0010
2237.00,0.0010
2236.00,0.0011
2235.00,0.0012
2234.00,0.0012
2233.00,0.0013
2232.00,0.0013
2231.00,0.0014
2230.00,0.0014
2229.00,0.0013
2228.00,0.0012
2227.00,0.0010
2226.00,0.0008
2225.00,0.0007
2224.00,0.0007
2223.00,0.0007
2222.00,0.0007
2221.00,0.0008
2220.00,0.0009
2219.00,0.0010
2218.00,0.0011
2217.00,0.0011
2216.00,0.0011
2215.00,0.0012
2214.00,0.0012
2213.00,0.0012
2212.00,0.0012
2211.00,0.0011
2210.00,0.0010
2209.00,0.0009
2208.00,0.0008
2207.00,0.0008
2206.00,0.0009
2205.00,0.0009
2204.00,0.0009
2203.00,0.0008
2202.00,0.0007
2201.00,0.0007
2200.00,0.0007
2199.00,0.0008
2198.00,0.0008
2197.00,0.0009
2196.00,0.0009
2195.00,0.0009
2194.00,0.0009
2193.00,0.0010
2192.00,0.0012
2191.00,0.0013
2190.00,0.0014
2189.00,0.0015
2188.00,0.0017
2187.00,0.0017
2186.00,0.0016
2185.00,0.0014
2184.00,0.0013
2183.00,0.0013
2182.00,0.0014
2181.00,0.0017
2180.00,0.0019
2179.00,0.0020
2178.00,0.0020
2177.00,0.0018
2176.00,0.0015
2175.00,0.0012
2174.00,0.0011
2173.00,0.0012
2172.00,0.0013
2171.00,0.0015
2170.00,0.0017
2169.00,0.0019
2168.00,0.0023
2167.00,0.0025
2166.00,0.0026
2165.00,0.0024
2164.00,0.0022
2163.00,0.0021
2162.00,0.0020
2161.00,0.0017
2160.00,0.0006
2159.00,-0.0009
2158.00,-0.0023
2157.00,-0.0030
2156.00,-0.0029
2155.00,-0.0023
2154.00,-0.0017
2153.00,-0.0011
2152.00,-0.0008
2151.00,-0.0005
2150.00,-0.0004
2149.00,-0.0004
2148.00,-0.0005
2147.00,-0.0007
2146.00,-0.0009
2145.00,-0.0010
2144.00,-0.0010
2143.00,-0.0009
2142.00,-0.0008
2141.00,-0.0007
2140.00,-0.0006
2139.00,-0.0006
2138.00,-0.0008
2137.00,-0.0009
2136.00,-0.0010
2135.00,-0.0011
2134.00,-0.0012
2133.00,-0.0012
2132.00,-0.0011
2131.00,-0.0010
2130.00,-0.0009
2129.00,-0.0009
2128.00,-0.0008
2127.00,-0.0007
2126.00,-0.0005
2125.00,-0.0004
2124.00,-0.0003
2123.00,-0.0002
2122.00,0.0000
2121.00,0.0002
2120.00,0.0003
2119.00,0.0002
2118.00,0.0002
2117.00,0.0003
2116.00,0.0005
2115.00,0.0007
2114.00,0.0008
2113.00,0.0009
2112.00,0.0008
2111.00,0.0008
2110.00,0.0007
2109.00,0.0007
2108.00,0.0007
2107.00,0.0008
2106.00,0.0007
2105.00,0.0007
2104.00,0.0005
2103.00,0.0004
2102.00,0.0004
2101.00,0.0005
2100.00,0.0006
2099.00,0.0006
2098.00,0.0006
2097.00,0.0005
2096.00,0.0003
2095.00,0.0001
2094.00,-0.0001
2093.00,-0.0001
2092.00,-0.0001
2091.00,-0.0000
2090.00,-0.0000
2089.00,-0.0000
2088.00,0.0000
2087.00,0.0001
2086.00,0.0002
2085.00,0.0003
2084.00,0.0004
2083.00,0.0004
2082.00,0.0004
2081.00,0.0004
2080.00,0.0005
2079.00,0.0007
2078.00,0.0008
2077.00,0.0009
2076.00,0.0009
2075.00,0.0008
2074.00,0.0007
2073.00,0.0007
2072.00,0.0006
2071.00,0.0005
2070.00,0.0004
2069.00,0.0003
2068.00,0.0001
2067.00,-0.0001
2066.00,-0.0002
2065.00,-0.0003
2064.00,-0.0001
2063.00,0.0000
2062.00,0.0001
2061.00,0.0002
2060.00,0.0001
2059.00,0.0002
2058.00,0.0003
2057.00,0.0005
2056.00,0.0006
2055.00,0.0005
2054.00,0.0005
2053.00,0.0007
2052.00,0.0012
2051.00,0.0016
2050.00,0.0017
2049.00,0.0015
2048.00,0.0010
2047.00,0.0004
2046.00,0.0000
2045.00,-0.0001
2044.00,-0.0001
2043.00,0.0000
2042.00,0.0000
2041.00,-0.0001
2040.00,-0.0002
2039.00,-0.0003
2038.00,-0.0002
2037.00,-0.0001
2036.00,-0.0001
2035.00,-0.0002
2034.00,-0.0003
2033.00,-0.0001
2032.00,0.0003
2031.00,0.0005
2030.00,0.0003
2029.00,-0.0001
2028.00,-0.0004
2027.00,-0.0006
2026.00,-0.0006
2025.00,-0.0006
2024.00,-0.0005
2023.00,-0.0004
2022.00,-0.0005
2021.00,-0.0007
2020.00,-0.0008
2019.00,-0.0008
2018.00,-0.0008
2017.00,-0.0007
2016.00,-0.0008
2015.00,-0.0009
2014.00,-0.0010
2013.00,-0.0010
2012.00,-0.0009
2011.00,-0.0006
2010.00,-0.0003
2009.00,-0.0003
2008.00,-0.0006
2007.00,-0.0012
2006.00,-0.0018
2005.00,-0.0021
2004.00,-0.0021
2003.00,-0.0019
2002.00,-0.0016
2001.00,-0.0014
2000.00,-0.0013
1999.00,-0.0013
1998.00,-0.0013
1997.00,-0.0014
1996.00,-0.0015
1995.00,-0.0016
1994.00,-0.0016
1993.00,-0.0014
1992.00,-0.0012
1991.00,-0.0010
1990.00,-0.0008
1989.00,-0.0005
1988.00,-0.0003
1987.00,-0.0001
1986.00,-0.0001
1985.00,-0.0001
1984.00,-0.0000
1983.00,0.0001
1982.00,0.0003
1981.00,0.0005
1980.00,0.0005
1979.00,0.0002
1978.00,-0.0003
1977.00,-0.0007
1976.00,-0.0010
1975.00,-0.0013
1974.00,-0.0016
1973.00,-0.0019
1972.00,-0.0021
1971.00,-0.0020
1970.00,-0.0018
1969.00,-0.0014
1968.00,-0.0011
1967.00,-0.0009
1966.00,-0.0009
1965.00,-0.0007
1964.00,-0.0007
1963.00,-0.0008
1962.00,-0.0010
1961.00,-0.0013
1960.00,-0.0014
1959.00,-0.0014
1958.00,-0.0014
1957.00,-0.0014
1956.00,-0.0014
1955.00,-0.0014
1954.00,-0.0013
1953.00,-0.0011
1952.00,-0.0011
1951.00,-0.0011
1950.00,-0.0012
1949.00,-0.0012
1948.00,-0.0013
1947.00,-0.0014
1946.00,-0.0015
1945.00,-0.0015
1944.00,-0.0015
1943.00,-0.0014
1942.00,-0.0012
1941.00,-0.0011
1940.00,-0.0010
1939.00,-0.0009
1938.00,-0.0009
1937.00,-0.0009
1936.00,-0.0009
1935.00,-0.0009
1934.00,-0.0008
1933.00,-0.0007
1932.00,-0.0005
1931.00,-0.0005
1930.00,-0.0004
1929.00,-0.0004
1928.00,-0.0004
1927.00,-0.0004
1926.00,-0.0004
1925.00,-0.0005
1924.00,-0.0005
1923.00,-0.0004
1922.00,-0.0004
1921.00,-0.0003
1920.00,-0.0002
1919.00,-0.0002
1918.00,-0.0003
1917.00,-0.0003
1916.00,-0.0002
1915.00,-0.0001
1914.00,-0.0001
1913.00,-0.0002
1912.00,-0.0003
1911.00,-0.0004
1910.00,-0.0004
1909.00,-0.0003
1908.00,-0.0003
1907.00,-0.0003
1906.00,-0.0004
1905.00,-0.0003
1904.00,-0.0002
1903.00,-0.0001
1902.00,-0.0001
1901.00,-0.0001
1900.00,-0.0001
1899.00,-0.0002
1898.00,-0.0003
1897.00,-0.0003
1896.00,-0.0002
1895.00,-0.0002
1894.00,-0.0001
1893.00,-0.0001
1892.00,-0.0000
1891.00,0.0001
1890.00,0.0001
1889.00,0.0002
1888.00,0.0001
1887.00,0.0000
1886.00,-0.0001
1885.00,-0.0001
1884.00,-0.0001
1883.00,0.0000
1882.00,0.0001
1881.00,0.0001
1880.00,-0.0000
1879.00,-0.0001
1878.00,-0.0002
1877.00,-0.0002
1876.00,-0.0000
1875.00,0.0001
1874.00,0.0002
1873.00,0.0002
1872.00,0.0001
1871.00,0.0000
1870.00,0.0000
1869.00,0.0001
1868.00,0.0002
1867.00,0.0001
1866.00,0.0000
1865.00,-0.0000
1864.00,-0.0000
1863.00,0.0000
1862.00,-0.0000
1861.00,-0.0000
1860.00,-0.0000
1859.00,0.0000
1858.00,0.0002
1857.00,0.0002
1856.00,0.0002
1855.00,0.0002
1854.00,0.0001
1853.00,0.0001
1852.00,0.0001
1851.00,0.0001
1850.00,0.0001
1849.00,0.0001
1848.00,0.0002
1847.00,0.0003
1846.00,0.0003
1845.00,0.0003
1844.00,0.0003
1843.00,0.0003
1842.00,0.0003
1841.00,0.0003
1840.00,0.0004
1839.00,0.0004
1838.00,0.0004
1837.00,0.0004
1836.00,0.0004
1835.00,0.0004
1834.00,0.0004
1833.00,0.0004
1832.00,0.0003
1831.00,0.0003
1830.00,0.0003
1829.00,0.0004
1828.00,0.0003
1827.00,0.0003
1826.00,0.0003
1825.00,0.0004
1824.00,0.0006
1823.00,0.0006
1822.00,0.0007
1821.00,0.0006
1820.00,0.0005
1819.00,0.0004
1818.00,0.0003
1817.00,0.0002
1816.00,0.0002
1815.00,0.0002
1814.00,0.0002
1813.00,0.0003
1812.00,0.0003
1811.00,0.0004
1810.00,0.0005
1809.00,0.0006
1808.00,0.0006
1807.00,0.0006
1806.00,0.0005
1805.00,0.0005
1804.00,0.0005
1803.00,0.0005
1802.00,0.0005
1801.00,0.0005
1800.00,0.0006
1799.00,0.0006
1798.00,0.0006
1797.00,0.0007
1796.00,0.0007
1795.00,0.0007
1794.00,0.0008
1793.00,0.0008
1792.00,0.0008
1791.00,0.0008
1790.00,0.0008
1789.00,0.0008
1788.00,0.0008
1787.00,0.0009
1786.00,0.0009
1785.00,0.0010
1784.00,0.0010
1783.00,0.0010
1782.00,0.0010
1781.00,0.0010
1780.00,0.0010
1779.00,0.0010
1778.00,0.0010
1777.00,0.0010
1776.00,0.0010
1775.00,0.0010
1774.00,0.0010
1773.00,0.0010
1772.00,0.0010
1771.00,0.0011
1770.00,0.0011
1769.00,0.0012
1768.00,0.0012
1767.00,0.0012
1766.00,0.0012
1765.00,0.0012
1764.00,0.0012
1763.00,0.0013
1762.00,0.0014
1761.00,0.0014
1760.00,0.0014
1759.00,0.0014
1758.00,0.0015
1757.00,0.0015
1756.00,0.0016
1755.00,0.0017
1754.00,0.0017
1753.00,0.0017
1752.00,0.0018
1751.00,0.0019
1750.00,0.0020
1749.00,0.0021
1748.00,0.0022
1747.00,0.0022
1746.00,0.0022
1745.00,0.0023
1744.00,0.0024
1743.00,0.0025
1742.00,0.0026
1741.00,0.0027
1740.00,0.0028
1739.00,0.0028
1738.00,0.0029
1737.00,0.0029
1736.00,0.0029
1735.00,0.0030
1734.00,0.0030
1733.00,0.0030
1732.00,0.0029
1731.00,0.0029
1730.00,0.0028
1729.00,0.0029
1728.00,0.0029
1727.00,0.0029
1726.00,0.0029
1725.00,0.0029
1724.00,0.0029
1723.00,0.0029
1722.00,0.0028
1721.00,0.0027
1720.00,0.0026
1719.00,0.0026
1718.00,0.0026
1717.00,0.0027
1716.00,0.0027
1715.00,0.0027
1714.00,0.0027
1713.00,0.0027
1712.00,0.0028
1711.00,0.0028
1710.00,0.0028
1709.00,0.0029
1708.00,0.0029
1707.00,0.0029
1706.00,0.0030
1705.00,0.0030
1704.00,0.0031
1703.00,0.0032
1702.00,0.0032
1701.00,0.0033
1700.00,0.0034
1699.00,0.0035
1698.00,0.0036
1697.00,0.0037
1696.00,0.0038
1695.00,0.0039
1694.00,0.0040
1693.00,0.0040
1692.00,0.0041
1691.00,0.0042
1690.00,0.0043
1689.00,0.0044
1688.00,0.0045
1687.00,0.0045
1686.00,0.0046
1685.00,0.0048
1684.00,0.0050
1683.00,0.0052
1682.00,0.0054
1681.00,0.0055
1680.00,0.0057
1679.00,0.0059
1678.00,0.0060
1677.00,0.0062
1676.00,0.0063
1675.00,0.0065
1674.00,0.0066
1673.00,0.0066
1672.00,0.0068
1671.00,0.0069
1670.00,0.0071
1669.00,0.0072
1668.00,0.0074
1667.00,0.0074
1666.00,0.0075
1665.00,0.0076
1664.00,0.0078
1663.00,0.0079
1662.00,0.0080
1661.00,0.0082
1660.00,0.0083
1659.00,0.0084
1658.00,0.0085
1657.00,0.0086
1656.00,0.0087
1655.00,0.0087
1654.00,0.0087
1653.00,0.0088
1652.00,0.0090
1651.00,0.0092
1650.00,0.0093
1649.00,0.0095
1648.00,0.0097
1647.00,0.0098
1646.00,0.0099
1645.00,0.0099
1644.00,0.0100
1643.00,0.0101
1642.00,0.0102
1641.00,0.0102
1640.00,0.0103
1639.00,0.0103
1638.00,0.0103
1637.00,0.0103
1636.00,0.0103
1635.00,0.0102
1634.00,0.0102
1633.00,0.0102
1632.00,0.0103
1631.00,0.0102
1630.00,0.0102
1629.00,0.0101
1628.00,0.0101
1627.00,0.0101
1626.00,0.0101
1625.00,0.0101
1624.00,0.0101
1623.00,0.0100
1622.00,0.0100
1621.00,0.0099
1620.00,0.0099
1619.00,0.0098
1618.00,0.0098
1617.00,0.0097
1616.00,0.0097
1615.00,0.0097
1614.00,0.0097
1613.00,0.0097
1612.00,0.0098
1611.00,0.0098
1610.00,0.0098
1609.00,0.0099
1608.00,0.0099
1607.00,0.0099
1606.00,0.0099
1605.00,0.0098
1604.00,0.0098
1603.00,0.0097
1602.00,0.0096
1601.00,0.0095
1600.00,0.0095
1599.00,0.0094
1598.00,0.0094
1597.00,0.0093
1596.00,0.0092
1595.00,0.0091
1594.00,0.0091
1593.00,0.0090
1592.00,0.0090
1591.00,0.0089
1590.00,0.0089
1589.00,0.0088
1588.00,0.0088
1587.00,0.0088
1586.00,0.0088
1585.00,0.0088
1584.00,0.0088
1583.00,0.0088
1582.00,0.0088
1581.00,0.0089
1580.00,0.0089
1579.00,0.0089
1578.00,0.0089
1577.00,0.0088
1576.00,0.0088
1575.00,0.0088
1574.00,0.0088
1573.00,0.0089
1572.00,0.0089
1571.00,0.0090
1570.00,0.0089
1569.00,0.0089
1568.00,0.0090
1567.00,0.0090
1566.00,0.0090
1565.00,0.0091
1564.00,0.0093
1563.00,0.0094
1562.00,0.0095
1561.00,0.0096
1560.00,0.0098
1559.00,0.0099
1558.00,0.0099
1557.00,0.0100
1556.00,0.0102
1555.00,0.0103
1554.00,0.0104
1553.00,0.0105
1552.00,0.0106
1551.00,0.0107
1550.00,0.0108
1549.00,0.0109
1548.00,0.0110
1547.00,0.0111
1546.00,0.0112
1545.00,0.0112
1544.00,0.0113
1543.00,0.0112
1542.00,0.0111
1541.00,0.0108
1540.00,0.0105
1539.00,0.0102
1538.00,0.0101
1537.00,0.0101
1536.00,0.0101
1535.00,0.0099
1534.00,0.0097
1533.00,0.0093
1532.00,0.0091
1531.00,0.0089
1530.00,0.0088
1529.00,0.0087
1528.00,0.0087
1527.00,0.0085
1526.00,0.0083
1525.00,0.0082
1524.00,0.0081
1523.00,0.0079
1522.00,0.0077
1521.00,0.0075
1520.00,0.0074
1519.00,0.0074
1518.00,0.0073
1517.00,0.0073
1516.00,0.0073
1515.00,0.0073
1514.00,0.0073
1513.00,0.0073
1512.00,0.0074
1511.00,0.0074
1510.00,0.0073
1509.00,0.0074
1508.00,0.0075
1507.00,0.0075
1506.00,0.0076
1505.00,0.0078
1504.00,0.0080
1503.00,0.0081
1502.00,0.0083
1501.00,0.0087
1500.00,0.0090
1499.00,0.0094
1498.00,0.0098
1497.00,0.0104
1496.00,0.0111
1495.00,0.0117
1494.00,0.0122
1493.00,0.0127
1492.00,0.0132
1491.00,0.0135
1490.00,0.0138
1489.00,0.0142
1488.00,0.0146
1487.00,0.0150
1486.00,0.0154
1485.00,0.0159
1484.00,0.0165
1483.00,0.0171
1482.00,0.0179
1481.00,0.0188
1480.00,0.0198
1479.00,0.0209
1478.00,0.0223
1477.00,0.0242
1476.00,0.0264
1475.00,0.0289
1474.00,0.0323
1473.00,0.0375
1472.00,0.0439
1471.00,0.0502
1470.00,0.0563
1469.00,0.0627
1468.00,0.0695
1467.00,0.0770
1466.00,0.0855
1465.00,0.0948
1464.00,0.1032
1463.00,0.1093
1462.00,0.1135
1461.00,0.1166
1460.00,0.1189
1459.00,0.1207
1458.00,0.1224
1457.00,0.1240
1456.00,0.1248
1455.00,0.1246
1454.00,0.1239
1453.00,0.1227
1452.00,0.1203
1451.00,0.1167
1450.00,0.1115
1449.00,0.1041
1448.00,0.0946
1447.00,0.0846
1446.00,0.0755
1445.00,0.0678
1444.00,0.0612
1443.00,0.0559
1442.00,0.0519
1441.00,0.0492
1440.00,0.0476
1439.00,0.0468
1438.00,0.0468
1437.00,0.0467
1436.00,0.0454
1435.00,0.0426
1434.00,0.0387
1433.00,0.0341
1432.00,0.0294
1431.00,0.0253
1430.00,0.0222
1429.00,0.0200
1428.00,0.0185
1427.00,0.0175
1426.00,0.0169
1425.00,0.0164
1424.00,0.0159
1423.00,0.0157
1422.00,0.0156
1421.00,0.0154
1420.00,0.0152
1419.00,0.0151
1418.00,0.0149
1417.00,0.0147
1416.00,0.0144
1415.00,0.0143
1414.00,0.0142
1413.00,0.0140
1412.00,0.0138
1411.00,0.0137
1410.00,0.0137
1409.00,0.0136
1408.00,0.0135
1407.00,0.0135
1406.00,0.0135
1405.00,0.0135
1404.00,0.0135
1403.00,0.0136
1402.00,0.0138
1401.00,0.0140
1400.00,0.0141
1399.00,0.0143
1398.00,0.0145
1397.00,0.0147
1396.00,0.0148
1395.00,0.0151
1394.00,0.0156
1393.00,0.0161
1392.00,0.0168
1391.00,0.0177
1390.00,0.0189
1389.00,0.0206
1388.00,0.0232
1387.00,0.0269
1386.00,0.0319
1385.00,0.0382
1384.00,0.0465
1383.00,0.0576
1382.00,0.0721
1381.00,0.0905
1380.00,0.1132
1379.00,0.1392
1378.00,0.1645
1377.00,0.1837
1376.00,0.1910
1375.00,0.1830
1374.00,0.1616
1373.00,0.1348
1372.00,0.1097
1371.00,0.0887
1370.00,0.0717
1369.00,0.0587
1368.00,0.0496
1367.00,0.0441
1366.00,0.0411
1365.00,0.0398
1364.00,0.0401
1363.00,0.0415
1362.00,0.0437
1361.00,0.0460
1360.00,0.0476
1359.00,0.0481
1358.00,0.0470
1357.00,0.0443
1356.00,0.0406
1355.00,0.0364
1354.00,0.0322
1353.00,0.0287
1352.00,0.0258
1351.00,0.0235
1350.00,0.0217
1349.00,0.0203
1348.00,0.0192
1347.00,0.0183
1346.00,0.0176
1345.00,0.0170
1344.00,0.0165
1343.00,0.0160
1342.00,0.0156
1341.00,0.0151
1340.00,0.0148
1339.00,0.0145
1338.00,0.0142
1337.00,0.0141
1336.00,0.0141
1335.00,0.0143
1334.00,0.0145
1333.00,0.0149
1332.00,0.0153
1331.00,0.0156
1330.00,0.0157
1329.00,0.0156
1328.00,0.0152
1327.00,0.0146
1326.00,0.0140
1325.00,0.0133
1324.00,0.0127
1323.00,0.0121
1322.00,0.0117
1321.00,0.0114
1320.00,0.0112
1319.00,0.0110
1318.00,0.0108
1317.00,0.0106
1316.00,0.0105
1315.00,0.0104
1314.00,0.0103
1313.00,0.0103
1312.00,0.0105
1311.00,0.0108
1310.00,0.0113
1309.00,0.0120
1308.00,0.0130
1307.00,0.0142
1306.00,0.0154
1305.00,0.0162
1304.00,0.0165
1303.00,0.0163
1302.00,0.0158
1301.00,0.0153
1300.00,0.0150
1299.00,0.0148
1298.00,0.0148
1297.00,0.0148
1296.00,0.0147
1295.00,0.0145
1294.00,0.0141
1293.00,0.0136
1292.00,0.0130
1291.00,0.0125
1290.00,0.0121
1289.00,0.0117
1288.00,0.0113
1287.00,0.0110
1286.00,0.0107
1285.00,0.0105
1284.00,0.0102
1283.00,0.0101
1282.00,0.0099
1281.00,0.0098
1280.00,0.0097
1279.00,0.0096
1278.00,0.0096
1277.00,0.0095
1276.00,0.0094
1275.00,0.0094
1274.00,0.0094
1273.00,0.0094
1272.00,0.0095
1271.00,0.0096
1270.00,0.0098
1269.00,0.0100
1268.00,0.0102
1267.00,0.0105
1266.00,0.0108
1265.00,0.0112
1264.00,0.0116
1263.00,0.0121
1262.00,0.0125
1261.00,0.0130
1260.00,0.0136
1259.00,0.0143
1258.00,0.0150
1257.00,0.0156
1256.00,0.0158
1255.00,0.0156
1254.00,0.0150
1253.00,0.0141
1252.00,0.0132
1251.00,0.0124
1250.00,0.0119
1249.00,0.0115
1248.00,0.0112
1247.00,0.0110
1246.00,0.0109
1245.00,0.0108
1244.00,0.0107
1243.00,0.0107
1242.00,0.0106
1241.00,0.0104
1240.00,0.0103
1239.00,0.0102
1238.00,0.0100
1237.00,0.0099
1236.00,0.0098
1235.00,0.0097
1234.00,0.0096
1233.00,0.0096
1232.00,0.0095
1231.00,0.0095
1230.00,0.0096
1229.00,0.0096
1228.00,0.0097
1227.00,0.0099
1226.00,0.0101
1225.00,0.0104
1224.00,0.0107
1223.00,0.0111
1222.00,0.0114
1221.00,0.0117
1220.00,0.0119
1219.00,0.0121
1218.00,0.0121
1217.00,0.0119
1216.00,0.0116
1215.00,0.0113
1214.00,0.0109
1213.00,0.0105
1212.00,0.0102
1211.00,0.0099
1210.00,0.0097
1209.00,0.0094
1208.00,0.0092
1207.00,0.0091
1206.00,0.0090
1205.00,0.0089
1204.00,0.0088
1203.00,0.0087
1202.00,0.0087
1201.00,0.0087
1200.00,0.0087
1199.00,0.0088
1198.00,0.0088
1197.00,0.0088
1196.00,0.0088
1195.00,0.0087
1194.00,0.0087
1193.00,0.0088
1192.00,0.0088
1191.00,0.0089
1190.00,0.0089
1189.00,0.0089
1188.00,0.0089
1187.00,0.0089
1186.00,0.0090
1185.00,0.0092
1184.00,0.0094
1183.00,0.0096
1182.00,0.0098
1181.00,0.0101
1180.00,0.0104
1179.00,0.0109
1178.00,0.0117
1177.00,0.0126
1176.00,0.0139
1175.00,0.0156
1174.00,0.0177
1173.00,0.0205
1172.00,0.0237
1171.00,0.0273
1170.00,0.0307
1169.00,0.0335
1168.00,0.0353
1167.00,0.0357
1166.00,0.0349
1165.00,0.0334
1164.00,0.0316
1163.00,0.0298
1162.00,0.0282
1161.00,0.0269
1160.00,0.0258
1159.00,0.0249
1158.00,0.0243
1157.00,0.0238
1156.00,0.0235
1155.00,0.0233
1154.00,0.0231
1153.00,0.0228
1152.00,0.0225
1151.00,0.0219
1150.00,0.0211
1149.00,0.0202
1148.00,0.0193
1147.00,0.0184
1146.00,0.0177
1145.00,0.0170
1144.00,0.0164
1143.00,0.0159
1142.00,0.0154
1141.00,0.0149
1140.00,0.0143
1139.00,0.0138
1138.00,0.0134
1137.00,0.0132
1136.00,0.0131
1135.00,0.0130
1134.00,0.0130
1133.00,0.0129
1132.00,0.0129
1131.00,0.0131
1130.00,0.0132
1129.00,0.0133
1128.00,0.0135
1127.00,0.0136
1126.00,0.0138
1125.00,0.0140
1124.00,0.0142
1123.00,0.0144
1122.00,0.0147
1121.00,0.0149
1120.00,0.0152
1119.00,0.0154
1118.00,0.0155
1117.00,0.0156
1116.00,0.0156
1115.00,0.0156
1114.00,0.0157
1113.00,0.0158
1112.00,0.0159
1111.00,0.0162
1110.00,0.0165
1109.00,0.0169
1108.00,0.0174
1107.00,0.0180
1106.00,0.0187
1105.00,0.0192
1104.00,0.0197
1103.00,0.0200
1102.00,0.0201
1101.00,0.0199
1100.00,0.0195
1099.00,0.0189
1098.00,0.0182
1097.00,0.0175
1096.00,0.0169
1095.00,0.0164
1094.00,0.0160
1093.00,0.0157
1092.00,0.0153
1091.00,0.0149
1090.00,0.0146
1089.00,0.0143
1088.00,0.0142
1087.00,0.0140
1086.00,0.0138
1085.00,0.0136
1084.00,0.0134
1083.00,0.0133
1082.00,0.0132
1081.00,0.0131
1080.00,0.0130
1079.00,0.0128
1078.00,0.0126
1077.00,0.0124
1076.00,0.0122
1075.00,0.0120
1074.00,0.0119
1073.00,0.0118
1072.00,0.0118
1071.00,0.0118
1070.00,0.0118
1069.00,0.0118
1068.00,0.0119
1067.00,0.0119
1066.00,0.0118
1065.00,0.0118
1064.00,0.0118
1063.00,0.0118
1062.00,0.0117
1061.00,0.0117
1060.00,0.0116
1059.00,0.0116
1058.00,0.0116
1057.00,0.0116
1056.00,0.0116
1055.00,0.0116
1054.00,0.0117
1053.00,0.0118
1052.00,0.0120
1051.00,0.0122
1050.00,0.0124
1049.00,0.0127
1048.00,0.0129
1047.00,0.0132
1046.00,0.0134
1045.00,0.0135
1044.00,0.0135
1043.00,0.0134
1042.00,0.0132
1041.00,0.0130
1040.00,0.0128
1039.00,0.0128
1038.00,0.0127
1037.00,0.0126
1036.00,0.0126
1035.00,0.0125
1034.00,0.0125
1033.00,0.0124
1032.00,0.0123
1031.00,0.0122
1030.00,0.0122
1029.00,0.0121
1028.00,0.0121
1027.00,0.0121
1026.00,0.0121
1025.00,0.0121
1024.00,0.0121
1023.00,0.0121
1022.00,0.0121
1021.00,0.0121
1020.00,0.0120
1019.00,0.0121
1018.00,0.0121
1017.00,0.0123
1016.00,0.0125
1015.00,0.0128
1014.00,0.0130
1013.00,0.0133
1012.00,0.0137
1011.00,0.0140
1010.00,0.0144
1009.00,0.0148
1008.00,0.0153
1007.00,0.0159
1006.00,0.0168
1005.00,0.0179
1004.00,0.0196
1003.00,0.0218
1002.00,0.0249
1001.00,0.0286
1000.00,0.0325
999.00,0.0358
998.00,0.0375
997.00,0.0368
996.00,0.0341
995.00,0.0301
994.00,0.0258
993.00,0.0220
992.00,0.0189
991.00,0.0167
990.00,0.0151
989.00,0.0141
988.00,0.0135
987.00,0.0132
986.00,0.0131
985.00,0.0133
984.00,0.0136
983.00,0.0142
982.00,0.0153
981.00,0.0169
980.00,0.0192
979.00,0.0222
978.00,0.0260
977.00,0.0306
976.00,0.0355
975.00,0.0402
974.00,0.0437
973.00,0.0452
972.00,0.0439
971.00,0.0402
970.00,0.0349
969.00,0.0295
968.00,0.0247
967.00,0.0209
966.00,0.0182
965.00,0.0163
964.00,0.0148
963.00,0.0137
962.00,0.0127
961.00,0.0119
960.00,0.0113
959.00,0.0109
958.00,0.0106
957.00,0.0103
956.00,0.0100
955.00,0.0098
954.00,0.0096
953.00,0.0096
952.00,0.0095
951.00,0.0095
950.00,0.0095
949.00,0.0095
948.00,0.0095
947.00,0.0096
946.00,0.0098
945.00,0.0101
944.00,0.0104
943.00,0.0107
942.00,0.0109
941.00,0.0111
940.00,0.0112
939.00,0.0110
938.00,0.0105
937.00,0.0100
936.00,0.0095
935.00,0.0091
934.00,0.0088
933.00,0.0085
932.00,0.0084
931.00,0.0083
930.00,0.0082
929.00,0.0081
928.00,0.0080
927.00,0.0079
926.00,0.0078
925.00,0.0078
924.00,0.0078
923.00,0.0078
922.00,0.0079
921.00,0.0080
920.00,0.0082
919.00,0.0084
918.00,0.0085
917.00,0.0085
916.00,0.0085
915.00,0.0085
914.00,0.0086
913.00,0.0087
912.00,0.0088
911.00,0.0089
910.00,0.0090
909.00,0.0092
908.00,0.0094
907.00,0.0099
906.00,0.0106
905.00,0.0117
904.00,0.0131
903.00,0.0149
902.00,0.0169
901.00,0.0187
900.00,0.0201
899.00,0.0206
898.00,0.0200
897.00,0.0185
896.00,0.0165
895.00,0.0146
894.00,0.0129
893.00,0.0117
892.00,0.0107
891.00,0.0101
890.00,0.0097
889.00,0.0094
888.00,0.0092
887.00,0.0091
886.00,0.0090
885.00,0.0090
884.00,0.0089
883.00,0.0087
882.00,0.0086
881.00,0.0087
880.00,0.0088
879.00,0.0089
878.00,0.0090
877.00,0.0091
876.00,0.0091
875.00,0.0093
874.00,0.0093
873.00,0.0093
872.00,0.0092
871.00,0.0091
870.00,0.0090
869.00,0.0090
868.00,0.0091
867.00,0.0091
866.00,0.0091
865.00,0.0090
864.00,0.0091
863.00,0.0092
862.00,0.0093
861.00,0.0096
860.00,0.0098
859.00,0.0100
858.00,0.0101
857.00,0.0101
856.00,0.0102
855.00,0.0104
854.00,0.0106
853.00,0.0109
852.00,0.0113
851.00,0.0118
850.00,0.0124
849.00,0.0132
848.00,0.0142
847.00,0.0157
846.00,0.0181
845.00,0.0216
844.00,0.0264
843.00,0.0317
842.00,0.0357
841.00,0.0368
840.00,0.0344
839.00,0.0298
838.00,0.0248
837.00,0.0208
836.00,0.0182
835.00,0.0166
834.00,0.0155
833.00,0.0148
832.00,0.0142
831.00,0.0138
830.00,0.0136
829.00,0.0134
828.00,0.0133
827.00,0.0131
826.00,0.0130
825.00,0.0129
824.00,0.0129
823.00,0.0129
822.00,0.0129
821.00,0.0129
820.00,0.0129
819.00,0.0131
818.00,0.0134
817.00,0.0139
816.00,0.0148
815.00,0.0159
814.00,0.0174
813.00,0.0193
812.00,0.0212
811.00,0.0228
810.00,0.0239
809.00,0.0242
808.00,0.0238
807.00,0.0228
806.00,0.0213
805.00,0.0198
804.00,0.0184
803.00,0.0171
802.00,0.0161
801.00,0.0153
800.00,0.0145
799.00,0.0138
798.00,0.0133
797.00,0.0128
796.00,0.0124
795.00,0.0121
794.00,0.0118
793.00,0.0115
792.00,0.0111
791.00,0.0107
790.00,0.0104
789.00,0.0102
788.00,0.0100
787.00,0.0097
786.00,0.0094
785.00,0.0092
784.00,0.0090
783.00,0.0088
782.00,0.0086
781.00,0.0084
780.00,0.0083
779.00,0.0082
778.00,0.0083
777.00,0.0084
776.00,0.0086
775.00,0.0087
774.00,0.0087
773.00,0.0088
772.00,0.0090
771.00,0.0093
770.00,0.0097
769.00,0.0101
768.00,0.0102
767.00,0.0102
766.00,0.0100
765.00,0.0098
764.00,0.0094
763.00,0.0091
762.00,0.0087
761.00,0.0085
760.00,0.0083
759.00,0.0082
758.00,0.0081
757.00,0.0079
756.00,0.0078
755.00,0.0076
754.00,0.0076
753.00,0.0076
752.00,0.0078
751.00,0.0079
750.00,0.0080
749.00,0.0081
748.00,0.0081
747.00,0.0082
746.00,0.0084
745.00,0.0085
744.00,0.0086
743.00,0.0087
742.00,0.0087
741.00,0.0088
740.00,0.0089
739.00,0.0089
738.00,0.0090
737.00,0.0092
736.00,0.0095
735.00,0.0099
734.00,0.0102
733.00,0.0104
732.00,0.0106
731.00,0.0108
730.00,0.0109
729.00,0.0108
728.00,0.0107
727.00,0.0105
726.00,0.0105
725.00,0.0104
724.00,0.0103
723.00,0.0103
722.00,0.0103
721.00,0.0102
720.00,0.0100
719.00,0.0097
718.00,0.0094
717.00,0.0091
716.00,0.0088
715.00,0.0086
714.00,0.0085
713.00,0.0084
712.00,0.0085
711.00,0.0087
710.00,0.0089
709.00,0.0092
708.00,0.0095
707.00,0.0098
706.00,0.0099
705.00,0.0098
704.00,0.0097
703.00,0.0095
702.00,0.0093
701.00,0.0091
700.00,0.0089
699.00,0.0085
698.00,0.0081
697.00,0.0078
696.00,0.0075
695.00,0.0074
694.00,0.0073
693.00,0.0073
692.00,0.0073
691.00,0.0075
690.00,0.0077
689.00,0.0078
688.00,0.0078
687.00,0.0079
686.00,0.0080
685.00,0.0081
684.00,0.0081
683.00,0.0081
682.00,0.0080
681.00,0.0078
680.00,0.0076
679.00,0.0075
678.00,0.0074
677.00,0.0075
676.00,0.0076
675.00,0.0078
674.00,0.0079
673.00,0.0078
672.00,0.0077
671.00,0.0076
670.00,0.0077
669.00,0.0079
668.00,0.0080
667.00,0.0081
666.00,0.0079
665.00,0.0078
664.00,0.0077
663.00,0.0077
662.00,0.0077
661.00,0.0078
660.00,0.0079
659.00,0.0081
658.00,0.0082
657.00,0.0082
656.00,0.0081
655.00,0.0079
654.00,0.0078
653.00,0.0078
652.00,0.0079
651.00,0.0080
650.00,0.0080
649.00,0.0079
648.00,0.0078
647.00,0.0076
646.00,0.0075
645.00,0.0073
644.00,0.0072
643.00,0.0072
642.00,0.0074
641.00,0.0077
640.00,0.0079
639.00,0.0080
638.00,0.0080
637.00,0.0080
636.00,0.0079
635.00,0.0079
634.00,0.0080
633.00,0.0082
632.00,0.0083
631.00,0.0083
630.00,0.0082
629.00,0.0083
628.00,0.0083
627.00,0.0082
626.00,0.0080
625.00,0.0078
624.00,0.0077
623.00,0.0079
622.00,0.0082
621.00,0.0085
620.00,0.0085
619.00,0.0084
618.00,0.0084
617.00,0.0085
616.00,0.0087
615.00,0.0087
614.00,0.0086
613.00,0.0086
612.00,0.0087
611.00,0.0089
610.00,0.0090
609.00,0.0091
608.00,0.0091
607.00,0.0090
606.00,0.0089
605.00,0.0088
604.00,0.0086
603.00,0.0086
602.00,0.0089
601.00,0.0094
600.00,0.0098
599.00,0.0098
598.00,0.0097
597.00,0.0095
596.00,0.0093
595.00,0.0091
594.00,0.0088
593.00,0.0087
592.00,0.0086
591.00,0.0087
590.00,0.0088
589.00,0.0090
588.00,0.0093
587.00,0.0095
586.00,0.0096
585.00,0.0095
584.00,0.0095
583.00,0.0094
582.00,0.0092
581.00,0.0091
580.00,0.0091
579.00,0.0093
578.00,0.0096
577.00,0.0096
576.00,0.0093
575.00,0.0091
574.00,0.0091
573.00,0.0093
572.00,0.0094
571.00,0.0093
570.00,0.0091
569.00,0.0088
568.00,0.0085
567.00,0.0083
566.00,0.0082
565.00,0.0083
564.00,0.0087
563.00,0.0091
562.00,0.0093
561.00,0.0092
560.00,0.0089
559.00,0.0087
558.00,0.0089
557.00,0.0091
556.00,0.0092
555.00,0.0092
554.00,0.0091
553.00,0.0089
552.00,0.0088
551.00,0.0090
550.00,0.0093
549.00,0.0096
548.00,0.0095
547.00,0.0091
546.00,0.0087
545.00,0.0086
544.00,0.0089
543.00,0.0093
542.00,0.0095
541.00,0.0096
540.00,0.0096
539.00,0.0098
538.00,0.0099
537.00,0.0101
536.00,0.0104
535.00,0.0106
534.00,0.0108
533.00,0.0108
532.00,0.0108
531.00,0.0110
530.00,0.0115
529.00,0.0120
528.00,0.0124
527.00,0.0124
526.00,0.0119
525.00,0.0113
524.00,0.0109
523.00,0.0110
522.00,0.0115
521.00,0.0119
520.00,0.0120
519.00,0.0116
518.00,0.0110
517.00,0.0106
516.00,0.0104
515.00,0.0103
514.00,0.0101
513.00,0.0096
512.00,0.0088
511.00,0.0078
510.00,0.0067
509.00,0.0061
508.00,0.0061
507.00,0.0067
506.00,0.0073
505.00,0.0076
504.00,0.0073
503.00,0.0071
502.00,0.0073
501.00,0.0080
500.00,0.0085
499.00,0.0087
498.00,0.0090
497.00,0.0095
496.00,0.0102
495.00,0.0103
494.00,0.0097
493.00,0.0086
492.00,0.0075
491.00,0.0067
490.00,0.0062
489.00,0.0062
488.00,0.0066
487.00,0.0074
486.00,0.0080
485.00,0.0084
484.00,0.0088
483.00,0.0091
482.00,0.0091
481.00,0.0088
480.00,0.0084
479.00,0.0082
478.00,0.0085
477.00,0.0090
476.00,0.0096
475.00,0.0099
474.00,0.0103
473.00,0.0109
472.00,0.0113
471.00,0.0110
470.00,0.0100
469.00,0.0091
468.00,0.0088
467.00,0.0092
466.00,0.0101
465.00,0.0113
464.00,0.0127
463.00,0.0139
462.00,0.0146
461.00,0.0152
460.00,0.0162
459.00,0.0173
458.00,0.0175
457.00,0.0169
456.00,0.0165
455.00,0.0164
454.00,0.0162
453.00,0.0155
452.00,0.0146
451.00,0.0138
450.00,0.0131
