Created as New Dataset,Sample 008 By Administrator Date Wednesday, September 10 2025
cm-1,A
4000.00,0.0010
3999.00,0.0010
3998.00,0.0010
3997.00,0.0010
3996.00,0.0010
3995.00,0.0009
3994.00,0.0009
3993.00,0.0009
3992.00,0.0009
3991.00,0.0009
3990.00,0.0009
3989.00,0.0009
3988.00,0.0009
3987.00,0.0010
3986.00,0.0010
3985.00,0.0010
3984.00,0.0009
3983.00,0.0009
3982.00,0.0009
3981.00,0.0008
3980.00,0.0008
3979.00,0.0008
3978.00,0.0008
3977.00,0.0008
3976.00,0.0007
3975.00,0.0007
3974.00,0.0008
3973.00,0.0008
3972.00,0.0008
3971.00,0.0008
3970.00,0.0008
3969.00,0.0007
3968.00,0.0007
3967.00,0.0007
3966.00,0.0007
3965.00,0.0008
3964.00,0.0008
3963.00,0.0008
3962.00,0.0008
3961.00,0.0008
3960.00,0.0008
3959.00,0.0007
3958.00,0.0007
3957.00,0.0007
3956.00,0.0007
3955.00,0.0007
3954.00,0.0007
3953.00,0.0007
3952.00,0.0008
3951.00,0.0008
3950.00,0.0008
3949.00,0.0008
3948.00,0.0008
3947.00,0.0008
3946.00,0.0008
3945.00,0.0008
3944.00,0.0008
3943.00,0.0008
3942.00,0.0008
3941.00,0.0008
3940.00,0.0008
3939.00,0.0008
3938.00,0.0008
3937.00,0.0007
3936.00,0.0007
3935.00,0.0007
3934.00,0.0007
3933.00,0.0007
3932.00,0.0007
3931.00,0.0007
3930.00,0.0007
3929.00,0.0007
3928.00,0.0007
3927.00,0.0007
3926.00,0.0007
3925.00,0.0007
3924.00,0.0007
3923.00,0.0007
3922.00,0.0008
3921.00,0.0008
3920.00,0.0008
3919.00,0.0008
3918.00,0.0008
3917.00,0.0008
3916.00,0.0008
3915.00,0.0008
3914.00,0.0008
3913.00,0.0007
3912.00,0.0007
3911.00,0.0007
3910.00,0.0007
3909.00,0.0007
3908.00,0.0007
3907.00,0.0008
3906.00,0.0008
3905.00,0.0008
3904.00,0.0007
3903.00,0.0007
3902.00,0.0008
3901.00,0.0008
3900.00,0.0008
3899.00,0.0008
3898.00,0.0008
3897.00,0.0008
3896.00,0.0008
3895.00,0.0009
3894.00,0.0009
3893.00,0.0009
3892.00,0.0009
3891.00,0.0008
3890.00,0.0008
3889.00,0.0008
3888.00,0.0008
3887.00,0.0008
3886.00,0.0008
3885.00,0.0008
3884.00,0.0008
3883.00,0.0008
3882.00,0.0008
3881.00,0.0008
3880.00,0.0007
3879.00,0.0007
3878.00,0.0007
3877.00,0.0007
3876.00,0.0007
3875.00,0.0007
3874.00,0.0008
3873.00,0.0008
3872.00,0.0008
3871.00,0.0008
3870.00,0.0008
3869.00,0.0008
3868.00,0.0007
3867.00,0.0007
3866.00,0.0007
3865.00,0.0006
3864.00,0.0006
3863.00,0.0005
3862.00,0.0006
3861.00,0.0006
3860.00,0.0006
3859.00,0.0007
3858.00,0.0007
3857.00,0.0007
3856.00,0.0008
3855.00,0.0008
3854.00,0.0008
3853.00,0.0008
3852.00,0.0008
3851.00,0.0008
3850.00,0.0007
3849.00,0.0007
3848.00,0.0007
3847.00,0.0007
3846.00,0.0006
3845.00,0.0006
3844.00,0.0006
3843.00,0.0006
3842.00,0.0006
3841.00,0.0006
3840.00,0.0007
3839.00,0.0007
3838.00,0.0008
3837.00,0.0008
3836.00,0.0007
3835.00,0.0006
3834.00,0.0006
3833.00,0.0006
3832.00,0.0006
3831.00,0.0006
3830.00,0.0007
3829.00,0.0007
3828.00,0.0007
3827.00,0.0007
3826.00,0.0007
3825.00,0.0007
3824.00,0.0006
3823.00,0.0006
3822.00,0.0006
3821.00,0.0005
3820.00,0.0005
3819.00,0.0006
3818.00,0.0006
3817.00,0.0007
3816.00,0.0007
3815.00,0.0007
3814.00,0.0007
3813.00,0.0007
3812.00,0.0007
3811.00,0.0007
3810.00,0.0007
3809.00,0.0007
3808.00,0.0006
3807.00,0.0006
3806.00,0.0005
3805.00,0.0005
3804.00,0.0006
3803.00,0.0006
3802.00,0.0007
3801.00,0.0007
3800.00,0.0007
3799.00,0.0007
3798.00,0.0007
3797.00,0.0007
3796.00,0.0007
3795.00,0.0007
3794.00,0.0007
3793.00,0.0007
3792.00,0.0007
3791.00,0.0007
3790.00,0.0007
3789.00,0.0007
3788.00,0.0007
3787.00,0.0007
3786.00,0.0007
3785.00,0.0007
3784.00,0.0006
3783.00,0.0007
3782.00,0.0007
3781.00,0.0007
3780.00,0.0007
3779.00,0.0007
3778.00,0.0007
3777.00,0.0008
3776.00,0.0008
3775.00,0.0008
3774.00,0.0007
3773.00,0.0007
3772.00,0.0007
3771.00,0.0007
3770.00,0.0007
3769.00,0.0007
3768.00,0.0007
3767.00,0.0007
3766.00,0.0007
3765.00,0.0007
3764.00,0.0007
3763.00,0.0007
3762.00,0.0007
3761.00,0.0007
3760.00,0.0007
3759.00,0.0007
3758.00,0.0007
3757.00,0.0007
3756.00,0.0007
3755.00,0.0006
3754.00,0.0007
3753.00,0.0007
3752.00,0.0007
3751.00,0.0007
3750.00,0.0007
3749.00,0.0007
3748.00,0.0007
3747.00,0.0007
3746.00,0.0007
3745.00,0.0006
3744.00,0.0006
3743.00,0.0006
3742.00,0.0007
3741.00,0.0008
3740.00,0.0008
3739.00,0.0008
3738.00,0.0008
3737.00,0.0007
3736.00,0.0007
3735.00,0.0007
3734.00,0.0008
3733.00,0.0008
3732.00,0.0008
3731.00,0.0007
3730.00,0.0006
3729.00,0.0006
3728.00,0.0007
3727.00,0.0007
3726.00,0.0008
3725.00,0.0008
3724.00,0.0008
3723.00,0.0008
3722.00,0.0007
3721.00,0.0007
3720.00,0.0006
3719.00,0.0006
3718.00,0.0006
3717.00,0.0006
3716.00,0.0006
3715.00,0.0006
3714.00,0.0006
3713.00,0.0006
3712.00,0.0006
3711.00,0.0007
3710.00,0.0007
3709.00,0.0007
3708.00,0.0007
3707.00,0.0006
3706.00,0.0006
3705.00,0.0006
3704.00,0.0005
3703.00,0.0005
3702.00,0.0005
3701.00,0.0006
3700.00,0.0006
3699.00,0.0006
3698.00,0.0006
3697.00,0.0006
3696.00,0.0006
3695.00,0.0006
3694.00,0.0006
3693.00,0.0006
3692.00,0.0006
3691.00,0.0006
3690.00,0.0006
3689.00,0.0005
3688.00,0.0005
3687.00,0.0005
3686.00,0.0006
3685.00,0.0006
3684.00,0.0007
3683.00,0.0007
3682.00,0.0007
3681.00,0.0008
3680.00,0.0008
3679.00,0.0008
3678.00,0.0008
3677.00,0.0008
3676.00,0.0008
3675.00,0.0008
3674.00,0.0008
3673.00,0.0008
3672.00,0.0008
3671.00,0.0009
3670.00,0.0008
3669.00,0.0008
3668.00,0.0008
3667.00,0.0009
3666.00,0.0009
3665.00,0.0009
3664.00,0.0010
3663.00,0.0010
3662.00,0.0010
3661.00,0.0010
3660.00,0.0010
3659.00,0.0010
3658.00,0.0010
3657.00,0.0011
3656.00,0.0011
3655.00,0.0012
3654.00,0.0012
3653.00,0.0012
3652.00,0.0013
3651.00,0.0013
3650.00,0.0013
3649.00,0.0013
3648.00,0.0012
3647.00,0.0012
3646.00,0.0011
3645.00,0.0011
3644.00,0.0011
3643.00,0.0011
3642.00,0.0011
3641.00,0.0011
3640.00,0.0011
3639.00,0.0010
3638.00,0.0010
3637.00,0.0010
3636.00,0.0010
3635.00,0.0009
3634.00,0.0009
3633.00,0.0009
3632.00,0.0009
3631.00,0.0010
3630.00,0.0011
3629.00,0.0011
3628.00,0.0011
3627.00,0.0011
3626.00,0.0011
3625.00,0.0010
3624.00,0.0010
3623.00,0.0010
3622.00,0.0010
3621.00,0.0011
3620.00,0.0011
3619.00,0.0011
3618.00,0.0011
3617.00,0.0012
3616.00,0.0012
3615.00,0.0012
3614.00,0.0012
3613.00,0.0012
3612.00,0.0012
3611.00,0.0012
3610.00,0.0011
3609.00,0.0011
3608.00,0.0012
3607.00,0.0012
3606.00,0.0012
3605.00,0.0013
3604.00,0.0013
3603.00,0.0013
3602.00,0.0013
3601.00,0.0013
3600.00,0.0013
3599.00,0.0014
3598.00,0.0014
3597.00,0.0014
3596.00,0.0015
3595.00,0.0014
3594.00,0.0015
3593.00,0.0015
3592.00,0.0015
3591.00,0.0015
3590.00,0.0015
3589.00,0.0015
3588.00,0.0016
3587.00,0.0016
3586.00,0.0016
3585.00,0.0016
3584.00,0.0016
3583.00,0.0016
3582.00,0.0016
3581.00,0.0016
3580.00,0.0016
3579.00,0.0016
3578.00,0.0017
3577.00,0.0017
3576.00,0.0017
3575.00,0.0017
3574.00,0.0018
3573.00,0.0018
3572.00,0.0018
3571.00,0.0019
3570.00,0.0019
3569.00,0.0019
3568.00,0.0020
3567.00,0.0020
3566.00,0.0021
3565.00,0.0022
3564.00,0.0022
3563.00,0.0022
3562.00,0.0022
3561.00,0.0021
3560.00,0.0021
3559.00,0.0022
3558.00,0.0022
3557.00,0.0023
3556.00,0.0023
3555.00,0.0022
3554.00,0.0022
3553.00,0.0022
3552.00,0.0022
3551.00,0.0022
3550.00,0.0023
3549.00,0.0023
3548.00,0.0024
3547.00,0.0024
3546.00,0.0025
3545.00,0.0025
3544.00,0.0025
3543.00,0.0025
3542.00,0.0025
3541.00,0.0025
3540.00,0.0025
3539.00,0.0025
3538.00,0.0025
3537.00,0.0025
3536.00,0.0025
3535.00,0.0025
3534.00,0.0025
3533.00,0.0025
3532.00,0.0026
3531.00,0.0026
3530.00,0.0026
3529.00,0.0027
3528.00,0.0027
3527.00,0.0028
3526.00,0.0028
3525.00,0.0028
3524.00,0.0028
3523.00,0.0028
3522.00,0.0028
3521.00,0.0028
3520.00,0.0028
3519.00,0.0028
3518.00,0.0028
3517.00,0.0029
3516.00,0.0029
3515.00,0.0029
3514.00,0.0029
3513.00,0.0029
3512.00,0.0029
3511.00,0.0029
3510.00,0.0030
3509.00,0.0030
3508.00,0.0030
3507.00,0.0031
3506.00,0.0031
3505.00,0.0031
3504.00,0.0032
3503.00,0.0032
3502.00,0.0032
3501.00,0.0032
3500.00,0.0033
3499.00,0.0033
3498.00,0.0033
3497.00,0.0033
3496.00,0.0033
3495.00,0.0033
3494.00,0.0033
3493.00,0.0034
3492.00,0.0034
3491.00,0.0034
3490.00,0.0034
3489.00,0.0034
3488.00,0.0035
3487.00,0.0035
3486.00,0.0035
3485.00,0.0035
3484.00,0.0035
3483.00,0.0036
3482.00,0.0036
3481.00,0.0036
3480.00,0.0036
3479.00,0.0036
3478.00,0.0036
3477.00,0.0037
3476.00,0.0037
3475.00,0.0037
3474.00,0.0037
3473.00,0.0038
3472.00,0.0038
3471.00,0.0038
3470.00,0.0038
3469.00,0.0039
3468.00,0.0039
3467.00,0.0039
3466.00,0.0039
3465.00,0.0040
3464.00,0.0040
3463.00,0.0040
3462.00,0.0040
3461.00,0.0040
3460.00,0.0040
3459.00,0.0040
3458.00,0.0040
3457.00,0.0040
3456.00,0.0040
3455.00,0.0040
3454.00,0.0040
3453.00,0.0040
3452.00,0.0040
3451.00,0.0040
3450.00,0.0041
3449.00,0.0042
3448.00,0.0042
3447.00,0.0042
3446.00,0.0043
3445.00,0.0043
3444.00,0.0043
3443.00,0.0043
3442.00,0.0043
3441.00,0.0043
3440.00,0.0043
3439.00,0.0043
3438.00,0.0043
3437.00,0.0043
3436.00,0.0043
3435.00,0.0044
3434.00,0.0045
3433.00,0.0045
3432.00,0.0046
3431.00,0.0046
3430.00,0.0046
3429.00,0.0046
3428.00,0.0046
3427.00,0.0046
3426.00,0.0046
3425.00,0.0046
3424.00,0.0046
3423.00,0.0046
3422.00,0.0046
3421.00,0.0047
3420.00,0.0048
3419.00,0.0049
3418.00,0.0049
3417.00,0.0049
3416.00,0.0049
3415.00,0.0049
3414.00,0.0049
3413.00,0.0049
3412.00,0.0050
3411.00,0.0050
3410.00,0.0050
3409.00,0.0051
3408.00,0.0051
3407.00,0.0051
3406.00,0.0051
3405.00,0.0051
3404.00,0.0052
3403.00,0.0052
3402.00,0.0053
3401.00,0.0053
3400.00,0.0054
3399.00,0.0054
3398.00,0.0055
3397.00,0.0055
3396.00,0.0055
3395.00,0.0055
3394.00,0.0055
3393.00,0.0055
3392.00,0.0055
3391.00,0.0054
3390.00,0.0054
3389.00,0.0054
3388.00,0.0053
3387.00,0.0053
3386.00,0.0053
3385.00,0.0053
3384.00,0.0053
3383.00,0.0053
3382.00,0.0053
3381.00,0.0053
3380.00,0.0053
3379.00,0.0053
3378.00,0.0053
3377.00,0.0053
3376.00,0.0053
3375.00,0.0053
3374.00,0.0054
3373.00,0.0054
3372.00,0.0054
3371.00,0.0053
3370.00,0.0053
3369.00,0.0053
3368.00,0.0053
3367.00,0.0053
3366.00,0.0053
3365.00,0.0053
3364.00,0.0053
3363.00,0.0053
3362.00,0.0053
3361.00,0.0053
3360.00,0.0054
3359.00,0.0054
3358.00,0.0054
3357.00,0.0054
3356.00,0.0054
3355.00,0.0054
3354.00,0.0054
3353.00,0.0055
3352.00,0.0055
3351.00,0.0055
3350.00,0.0055
3349.00,0.0055
3348.00,0.0055
3347.00,0.0054
3346.00,0.0054
3345.00,0.0054
3344.00,0.0054
3343.00,0.0054
3342.00,0.0054
3341.00,0.0054
3340.00,0.0055
3339.00,0.0055
3338.00,0.0055
3337.00,0.0054
3336.00,0.0054
3335.00,0.0054
3334.00,0.0054
3333.00,0.0054
3332.00,0.0053
3331.00,0.0053
3330.00,0.0053
3329.00,0.0053
3328.00,0.0053
3327.00,0.0054
3326.00,0.0054
3325.00,0.0054
3324.00,0.0054
3323.00,0.0054
3322.00,0.0054
3321.00,0.0053
3320.00,0.0053
3319.00,0.0053
3318.00,0.0053
3317.00,0.0053
3316.00,0.0053
3315.00,0.0054
3314.00,0.0054
3313.00,0.0054
3312.00,0.0054
3311.00,0.0054
3310.00,0.0054
3309.00,0.0054
3308.00,0.0054
3307.00,0.0054
3306.00,0.0054
3305.00,0.0053
3304.00,0.0053
3303.00,0.0053
3302.00,0.0053
3301.00,0.0053
3300.00,0.0053
3299.00,0.0052
3298.00,0.0052
3297.00,0.0052
3296.00,0.0052
3295.00,0.0052
3294.00,0.0052
3293.00,0.0053
3292.00,0.0053
3291.00,0.0052
3290.00,0.0052
3289.00,0.0051
3288.00,0.0051
3287.00,0.0051
3286.00,0.0051
3285.00,0.0051
3284.00,0.0050
3283.00,0.0050
3282.00,0.0050
3281.00,0.0050
3280.00,0.0050
3279.00,0.0050
3278.00,0.0050
3277.00,0.0049
3276.00,0.0049
3275.00,0.0049
3274.00,0.0049
3273.00,0.0049
3272.00,0.0049
3271.00,0.0049
3270.00,0.0048
3269.00,0.0048
3268.00,0.0048
3267.00,0.0048
3266.00,0.0048
3265.00,0.0048
3264.00,0.0048
3263.00,0.0048
3262.00,0.0048
3261.00,0.0047
3260.00,0.0047
3259.00,0.0047
3258.00,0.0046
3257.00,0.0046
3256.00,0.0046
3255.00,0.0046
3254.00,0.0046
3253.00,0.0046
3252.00,0.0046
3251.00,0.0046
3250.00,0.0046
3249.00,0.0046
3248.00,0.0046
3247.00,0.0045
3246.00,0.0045
3245.00,0.0045
3244.00,0.0045
3243.00,0.0045
3242.00,0.0046
3241.00,0.0046
3240.00,0.0046
3239.00,0.0045
3238.00,0.0045
3237.00,0.0045
3236.00,0.0045
3235.00,0.0045
3234.00,0.0045
3233.00,0.0045
3232.00,0.0046
3231.00,0.0046
3230.00,0.0046
3229.00,0.0046
3228.00,0.0046
3227.00,0.0046
3226.00,0.0046
3225.00,0.0046
3224.00,0.0047
3223.00,0.0048
3222.00,0.0048
3221.00,0.0049
3220.00,0.0049
3219.00,0.0048
3218.00,0.0048
3217.00,0.0048
3216.00,0.0049
3215.00,0.0049
3214.00,0.0049
3213.00,0.0049
3212.00,0.0049
3211.00,0.0049
3210.00,0.0050
3209.00,0.0050
3208.00,0.0050
3207.00,0.0051
3206.00,0.0051
3205.00,0.0051
3204.00,0.0051
3203.00,0.0051
3202.00,0.0051
3201.00,0.0051
3200.00,0.0051
3199.00,0.0051
3198.00,0.0052
3197.00,0.0052
3196.00,0.0052
3195.00,0.0052
3194.00,0.0051
3193.00,0.0051
3192.00,0.0051
3191.00,0.0051
3190.00,0.0051
3189.00,0.0051
3188.00,0.0051
3187.00,0.0050
3186.00,0.0050
3185.00,0.0049
3184.00,0.0049
3183.00,0.0048
3182.00,0.0048
3181.00,0.0048
3180.00,0.0048
3179.00,0.0048
3178.00,0.0048
3177.00,0.0048
3176.00,0.0047
3175.00,0.0046
3174.00,0.0046
3173.00,0.0045
3172.00,0.0045
3171.00,0.0045
3170.00,0.0046
3169.00,0.0046
3168.00,0.0045
3167.00,0.0045
3166.00,0.0044
3165.00,0.0044
3164.00,0.0044
3163.00,0.0044
3162.00,0.0044
3161.00,0.0044
3160.00,0.0045
3159.00,0.0044
3158.00,0.0044
3157.00,0.0043
3156.00,0.0043
3155.00,0.0042
3154.00,0.0042
3153.00,0.0042
3152.00,0.0042
3151.00,0.0042
3150.00,0.0042
3149.00,0.0042
3148.00,0.0042
3147.00,0.0042
3146.00,0.0042
3145.00,0.0042
3144.00,0.0042
3143.00,0.0042
3142.00,0.0042
3141.00,0.0041
3140.00,0.0041
3139.00,0.0041
3138.00,0.0041
3137.00,0.0040
3136.00,0.0040
3135.00,0.0040
3134.00,0.0040
3133.00,0.0039
3132.00,0.0039
3131.00,0.0038
3130.00,0.0038
3129.00,0.0038
3128.00,0.0038
3127.00,0.0037
3126.00,0.0037
3125.00,0.0037
3124.00,0.0036
3123.00,0.0036
3122.00,0.0036
3121.00,0.0036
3120.00,0.0035
3119.00,0.0035
3118.00,0.0035
3117.00,0.0035
3116.00,0.0035
3115.00,0.0035
3114.00,0.0035
3113.00,0.0035
3112.00,0.0035
3111.00,0.0035
3110.00,0.0035
3109.00,0.0035
3108.00,0.0034
3107.00,0.0034
3106.00,0.0034
3105.00,0.0034
3104.00,0.0034
3103.00,0.0034
3102.00,0.0034
3101.00,0.0034
3100.00,0.0033
3099.00,0.0033
3098.00,0.0033
3097.00,0.0034
3096.00,0.0034
3095.00,0.0033
3094.00,0.0033
3093.00,0.0033
3092.00,0.0033
3091.00,0.0033
3090.00,0.0033
3089.00,0.0033
3088.00,0.0033
3087.00,0.0033
3086.00,0.0033
3085.00,0.0032
3084.00,0.0032
3083.00,0.0032
3082.00,0.0032
3081.00,0.0032
3080.00,0.0032
3079.00,0.0032
3078.00,0.0032
3077.00,0.0033
3076.00,0.0033
3075.00,0.0033
3074.00,0.0033
3073.00,0.0033
3072.00,0.0033
3071.00,0.0033
3070.00,0.0033
3069.00,0.0033
3068.00,0.0033
3067.00,0.0033
3066.00,0.0034
3065.00,0.0034
3064.00,0.0034
3063.00,0.0034
3062.00,0.0034
3061.00,0.0034
3060.00,0.0035
3059.00,0.0035
3058.00,0.0036
3057.00,0.0036
3056.00,0.0036
3055.00,0.0036
3054.00,0.0036
3053.00,0.0036
3052.00,0.0036
3051.00,0.0036
3050.00,0.0037
3049.00,0.0037
3048.00,0.0037
3047.00,0.0037
3046.00,0.0037
3045.00,0.0037
3044.00,0.0037
3043.00,0.0038
3042.00,0.0038
3041.00,0.0038
3040.00,0.0038
3039.00,0.0039
3038.00,0.0039
3037.00,0.0039
3036.00,0.0039
3035.00,0.0039
3034.00,0.0039
3033.00,0.0040
3032.00,0.0040
3031.00,0.0041
3030.00,0.0041
3029.00,0.0042
3028.00,0.0043
3027.00,0.0044
3026.00,0.0044
3025.00,0.0045
3024.00,0.0046
3023.00,0.0047
3022.00,0.0047
3021.00,0.0048
3020.00,0.0049
3019.00,0.0050
3018.00,0.0052
3017.00,0.0053
3016.00,0.0055
3015.00,0.0057
3014.00,0.0058
3013.00,0.0060
3012.00,0.0063
3011.00,0.0065
3010.00,0.0067
3009.00,0.0070
3008.00,0.0072
3007.00,0.0074
3006.00,0.0077
3005.00,0.0080
3004.00,0.0083
3003.00,0.0086
3002.00,0.0089
3001.00,0.0092
3000.00,0.0095
2999.00,0.0099
2998.00,0.0103
2997.00,0.0107
2996.00,0.0111
2995.00,0.0116
2994.00,0.0121
2993.00,0.0126
2992.00,0.0131
2991.00,0.0137
2990.00,0.0144
2989.00,0.0152
2988.00,0.0161
2987.00,0.0171
2986.00,0.0183
2985.00,0.0196
2984.00,0.0212
2983.00,0.0229
2982.00,0.0247
2981.00,0.0264
2980.00,0.0282
2979.00,0.0302
2978.00,0.0325
2977.00,0.0351
2976.00,0.0382
2975.00,0.0419
2974.00,0.0461
2973.00,0.0509
2972.00,0.0562
2971.00,0.0621
2970.00,0.0686
2969.00,0.0757
2968.00,0.0834
2967.00,0.0917
2966.00,0.1005
2965.00,0.1094
2964.00,0.1181
2963.00,0.1262
2962.00,0.1334
2961.00,0.1394
2960.00,0.1442
2959.00,0.1481
2958.00,0.1518
2957.00,0.1556
2956.00,0.1603
2955.00,0.1660
2954.00,0.1727
2953.00,0.1798
2952.00,0.1866
2951.00,0.1920
2950.00,0.1948
2949.00,0.1940
2948.00,0.1892
2947.00,0.1806
2946.00,0.1691
2945.00,0.1561
2944.00,0.1431
2943.00,0.1315
2942.00,0.1220
2941.00,0.1151
2940.00,0.1107
2939.00,0.1088
2938.00,0.1090
2937.00,0.1112
2936.00,0.1150
2935.00,0.1205
2934.00,0.1274
2933.00,0.1357
2932.00,0.1450
2931.00,0.1553
2930.00,0.1663
2929.00,0.1777
2928.00,0.1891
2927.00,0.2003
2926.00,0.2112
2925.00,0.2218
2924.00,0.2321
2923.00,0.2423
2922.00,0.2523
2921.00,0.2621
2920.00,0.2708
2919.00,0.2777
2918.00,0.2817
2917.00,0.2819
2916.00,0.2780
2915.00,0.2706
2914.00,0.2605
2913.00,0.2490
2912.00,0.2373
2911.00,0.2263
2910.00,0.2162
2909.00,0.2071
2908.00,0.1988
2907.00,0.1910
2906.00,0.1835
2905.00,0.1760
2904.00,0.1686
2903.00,0.1612
2902.00,0.1539
2901.00,0.1468
2900.00,0.1401
2899.00,0.1337
2898.00,0.1278
2897.00,0.1225
2896.00,0.1178
2895.00,0.1138
2894.00,0.1105
2893.00,0.1079
2892.00,0.1060
2891.00,0.1047
2890.00,0.1040
2889.00,0.1038
2888.00,0.1041
2887.00,0.1047
2886.00,0.1056
2885.00,0.1070
2884.00,0.1087
2883.00,0.1109
2882.00,0.1135
2881.00,0.1165
2880.00,0.1194
2879.00,0.1219
2878.00,0.1237
2877.00,0.1245
2876.00,0.1244
2875.00,0.1237
2874.00,0.1230
2873.00,0.1227
2872.00,0.1231
2871.00,0.1244
2870.00,0.1263
2869.00,0.1283
2868.00,0.1298
2867.00,0.1298
2866.00,0.1276
2865.00,0.1229
2864.00,0.1158
2863.00,0.1072
2862.00,0.0980
2861.00,0.0894
2860.00,0.0819
2859.00,0.0760
2858.00,0.0716
2857.00,0.0686
2856.00,0.0668
2855.00,0.0661
2854.00,0.0662
2853.00,0.0670
2852.00,0.0685
2851.00,0.0703
2850.00,0.0723
2849.00,0.0744
2848.00,0.0767
2847.00,0.0794
2846.00,0.0829
2845.00,0.0874
2844.00,0.0928
2843.00,0.0990
2842.00,0.1057
2841.00,0.1121
2840.00,0.1175
2839.00,0.1210
2838.00,0.1218
2837.00,0.1193
2836.00,0.1135
2835.00,0.1049
2834.00,0.0946
2833.00,0.0836
2832.00,0.0731
2831.00,0.0638
2830.00,0.0559
2829.00,0.0494
2828.00,0.0441
2827.00,0.0399
2826.00,0.0365
2825.00,0.0336
2824.00,0.0312
2823.00,0.0292
2822.00,0.0275
2821.00,0.0260
2820.00,0.0247
2819.00,0.0236
2818.00,0.0226
2817.00,0.0218
2816.00,0.0210
2815.00,0.0204
2814.00,0.0198
2813.00,0.0193
2812.00,0.0187
2811.00,0.0182
2810.00,0.0176
2809.00,0.0170
2808.00,0.0164
2807.00,0.0158
2806.00,0.0151
2805.00,0.0145
2804.00,0.0139
2803.00,0.0133
2802.00,0.0127
2801.00,0.0123
2800.00,0.0119
2799.00,0.0116
2798.00,0.0113
2797.00,0.0110
2796.00,0.0108
2795.00,0.0105
2794.00,0.0103
2793.00,0.0100
2792.00,0.0097
2791.00,0.0094
2790.00,0.0091
2789.00,0.0088
2788.00,0.0085
2787.00,0.0082
2786.00,0.0080
2785.00,0.0078
2784.00,0.0076
2783.00,0.0073
2782.00,0.0071
2781.00,0.0069
2780.00,0.0067
2779.00,0.0066
2778.00,0.0065
2777.00,0.0063
2776.00,0.0062
2775.00,0.0061
2774.00,0.0060
2773.00,0.0060
2772.00,0.0059
2771.00,0.0059
2770.00,0.0058
2769.00,0.0058
2768.00,0.0057
2767.00,0.0057
2766.00,0.0057
2765.00,0.0057
2764.00,0.0056
2763.00,0.0056
2762.00,0.0055
2761.00,0.0055
2760.00,0.0054
2759.00,0.0054
2758.00,0.0054
2757.00,0.0054
2756.00,0.0054
2755.00,0.0054
2754.00,0.0053
2753.00,0.0053
2752.00,0.0052
2751.00,0.0052
2750.00,0.0052
2749.00,0.0052
2748.00,0.0052
2747.00,0.0053
2746.00,0.0053
2745.00,0.0054
2744.00,0.0055
2743.00,0.0056
2742.00,0.0057
2741.00,0.0058
2740.00,0.0059
2739.00,0.0061
2738.00,0.0062
2737.00,0.0064
2736.00,0.0065
2735.00,0.0066
2734.00,0.0068
2733.00,0.0069
2732.00,0.0071
2731.00,0.0073
2730.00,0.0075
2729.00,0.0078
2728.00,0.0081
2727.00,0.0084
2726.00,0.0087
2725.00,0.0089
2724.00,0.0090
2723.00,0.0091
2722.00,0.0090
2721.00,0.0087
2720.00,0.0084
2719.00,0.0081
2718.00,0.0077
2717.00,0.0074
2716.00,0.0071
2715.00,0.0068
2714.00,0.0066
2713.00,0.0064
2712.00,0.0062
2711.00,0.0060
2710.00,0.0058
2709.00,0.0057
2708.00,0.0055
2707.00,0.0054
2706.00,0.0052
2705.00,0.0051
2704.00,0.0050
2703.00,0.0049
2702.00,0.0048
2701.00,0.0048
2700.00,0.0047
2699.00,0.0047
2698.00,0.0047
2697.00,0.0046
2696.00,0.0046
2695.00,0.0046
2694.00,0.0045
2693.00,0.0045
2692.00,0.0045
2691.00,0.0045
2690.00,0.0045
2689.00,0.0045
2688.00,0.0045
2687.00,0.0045
2686.00,0.0045
2685.00,0.0045
2684.00,0.0045
2683.00,0.0045
2682.00,0.0045
2681.00,0.0045
2680.00,0.0045
2679.00,0.0045
2678.00,0.0046
2677.00,0.0046
2676.00,0.0046
2675.00,0.0046
2674.00,0.0046
2673.00,0.0046
2672.00,0.0046
2671.00,0.0046
2670.00,0.0046
2669.00,0.0045
2668.00,0.0045
2667.00,0.0045
2666.00,0.0046
2665.00,0.0047
2664.00,0.0047
2663.00,0.0048
2662.00,0.0048
2661.00,0.0049
2660.00,0.0049
2659.00,0.0049
2658.00,0.0049
2657.00,0.0049
2656.00,0.0048
2655.00,0.0048
2654.00,0.0047
2653.00,0.0047
2652.00,0.0046
2651.00,0.0045
2650.00,0.0045
2649.00,0.0044
2648.00,0.0044
2647.00,0.0043
2646.00,0.0042
2645.00,0.0042
2644.00,0.0042
2643.00,0.0041
2642.00,0.0041
2641.00,0.0041
2640.00,0.0041
2639.00,0.0040
2638.00,0.0040
2637.00,0.0039
2636.00,0.0039
2635.00,0.0039
2634.00,0.0040
2633.00,0.0040
2632.00,0.0040
2631.00,0.0040
2630.00,0.0040
2629.00,0.0040
2628.00,0.0040
2627.00,0.0040
2626.00,0.0041
2625.00,0.0041
2624.00,0.0041
2623.00,0.0040
2622.00,0.0040
2621.00,0.0040
2620.00,0.0041
2619.00,0.0041
2618.00,0.0042
2617.00,0.0042
2616.00,0.0042
2615.00,0.0041
2614.00,0.0041
2613.00,0.0040
2612.00,0.0039
2611.00,0.0039
2610.00,0.0038
2609.00,0.0037
2608.00,0.0037
2607.00,0.0036
2606.00,0.0036
2605.00,0.0035
2604.00,0.0035
2603.00,0.0034
2602.00,0.0034
2601.00,0.0034
2600.00,0.0033
2599.00,0.0033
2598.00,0.0033
2597.00,0.0032
2596.00,0.0033
2595.00,0.0033
2594.00,0.0033
2593.00,0.0033
2592.00,0.0034
2591.00,0.0034
2590.00,0.0035
2589.00,0.0035
2588.00,0.0036
2587.00,0.0037
2586.00,0.0038
2585.00,0.0040
2584.00,0.0041
2583.00,0.0041
2582.00,0.0041
2581.00,0.0041
2580.00,0.0040
2579.00,0.0039
2578.00,0.0038
2577.00,0.0037
2576.00,0.0035
2575.00,0.0034
2574.00,0.0034
2573.00,0.0033
2572.00,0.0032
2571.00,0.0031
2570.00,0.0030
2569.00,0.0029
2568.00,0.0028
2567.00,0.0028
2566.00,0.0027
2565.00,0.0027
2564.00,0.0026
2563.00,0.0026
2562.00,0.0025
2561.00,0.0025
2560.00,0.0025
2559.00,0.0025
2558.00,0.0025
2557.00,0.0024
2556.00,0.0023
2555.00,0.0023
2554.00,0.0022
2553.00,0.0022
2552.00,0.0022
2551.00,0.0022
2550.00,0.0022
2549.00,0.0022
2548.00,0.0021
2547.00,0.0020
2546.00,0.0020
2545.00,0.0020
2544.00,0.0019
2543.00,0.0018
2542.00,0.0017
2541.00,0.0017
2540.00,0.0017
2539.00,0.0017
2538.00,0.0017
2537.00,0.0017
2536.00,0.0017
2535.00,0.0017
2534.00,0.0016
2533.00,0.0016
2532.00,0.0015
2531.00,0.0015
2530.00,0.0016
2529.00,0.0016
2528.00,0.0016
2527.00,0.0016
2526.00,0.0016
2525.00,0.0016
2524.00,0.0015
2523.00,0.0015
2522.00,0.0014
2521.00,0.0014
2520.00,0.0013
2519.00,0.0012
2518.00,0.0011
2517.00,0.0010
2516.00,0.0010
2515.00,0.0010
2514.00,0.0011
2513.00,0.0011
2512.00,0.0011
2511.00,0.0010
2510.00,0.0010
2509.00,0.0010
2508.00,0.0010
2507.00,0.0011
2506.00,0.0011
2505.00,0.0011
2504.00,0.0011
2503.00,0.0011
2502.00,0.0011
2501.00,0.0011
2500.00,0.0011
2499.00,0.0010
2498.00,0.0010
2497.00,0.0010
2496.00,0.0011
2495.00,0.0011
2494.00,0.0012
2493.00,0.0012
2492.00,0.0012
2491.00,0.0012
2490.00,0.0011
2489.00,0.0011
2488.00,0.0011
2487.00,0.0011
2486.00,0.0010
2485.00,0.0010
2484.00,0.0009
2483.00,0.0010
2482.00,0.0010
2481.00,0.0011
2480.00,0.0012
2479.00,0.0012
2478.00,0.0011
2477.00,0.0011
2476.00,0.0011
2475.00,0.0010
2474.00,0.0010
2473.00,0.0009
2472.00,0.0009
2471.00,0.0008
2470.00,0.0008
2469.00,0.0008
2468.00,0.0009
2467.00,0.0010
2466.00,0.0011
2465.00,0.0011
2464.00,0.0011
2463.00,0.0011
2462.00,0.0010
2461.00,0.0011
2460.00,0.0011
2459.00,0.0012
2458.00,0.0013
2457.00,0.0013
2456.00,0.0013
2455.00,0.0013
2454.00,0.0012
2453.00,0.0012
2452.00,0.0012
2451.00,0.0012
2450.00,0.0012
2449.00,0.0012
2448.00,0.0012
2447.00,0.0013
2446.00,0.0013
2445.00,0.0013
2444.00,0.0013
2443.00,0.0012
2442.00,0.0011
2441.00,0.0011
2440.00,0.0011
2439.00,0.0011
2438.00,0.0012
2437.00,0.0012
2436.00,0.0013
2435.00,0.0013
2434.00,0.0013
2433.00,0.0013
2432.00,0.0013
2431.00,0.0012
2430.00,0.0012
2429.00,0.0012
2428.00,0.0012
2427.00,0.0013
2426.00,0.0013
2425.00,0.0013
2424.00,0.0013
2423.00,0.0013
2422.00,0.0012
2421.00,0.0012
2420.00,0.0011
2419.00,0.0011
2418.00,0.0011
2417.00,0.0010
2416.00,0.0010
2415.00,0.0010
2414.00,0.0010
2413.00,0.0010
2412.00,0.0010
2411.00,0.0010
2410.00,0.0010
2409.00,0.0011
2408.00,0.0011
2407.00,0.0011
2406.00,0.0011
2405.00,0.0010
2404.00,0.0010
2403.00,0.0009
2402.00,0.0009
2401.00,0.0009
2400.00,0.0009
2399.00,0.0009
2398.00,0.0008
2397.00,0.0008
2396.00,0.0008
2395.00,0.0008
2394.00,0.0008
2393.00,0.0009
2392.00,0.0009
2391.00,0.0010
2390.00,0.0009
2389.00,0.0009
2388.00,0.0009
2387.00,0.0008
2386.00,0.0008
2385.00,0.0007
2384.00,0.0006
2383.00,0.0005
2382.00,0.0005
2381.00,0.0004
2380.00,0.0004
2379.00,0.0004
2378.00,0.0004
2377.00,0.0004
2376.00,0.0003
2375.00,0.0003
2374.00,0.0002
2373.00,0.0002
2372.00,0.0002
2371.00,0.0002
2370.00,0.0002
2369.00,0.0002
2368.00,0.0002
2367.00,0.0001
2366.00,0.0001
2365.00,0.0002
2364.00,0.0002
2363.00,0.0002
2362.00,0.0002
2361.00,0.0002
2360.00,0.0002
2359.00,0.0002
2358.00,0.0002
2357.00,0.0002
2356.00,0.0002
2355.00,0.0002
2354.00,0.0002
2353.00,0.0003
2352.00,0.0004
2351.00,0.0004
2350.00,0.0004
2349.00,0.0003
2348.00,0.0003
2347.00,0.0003
2346.00,0.0004
2345.00,0.0003
2344.00,0.0003
2343.00,0.0002
2342.00,0.0002
2341.00,0.0003
2340.00,0.0004
2339.00,0.0005
2338.00,0.0006
2337.00,0.0006
2336.00,0.0006
2335.00,0.0006
2334.00,0.0006
2333.00,0.0005
2332.00,0.0005
2331.00,0.0005
2330.00,0.0005
2329.00,0.0006
2328.00,0.0007
2327.00,0.0010
2326.00,0.0015
2325.00,0.0018
2324.00,0.0020
2323.00,0.0020
2322.00,0.0018
2321.00,0.0016
2320.00,0.0015
2319.00,0.0014
2318.00,0.0013
2317.00,0.0013
2316.00,0.0012
2315.00,0.0011
2314.00,0.0011
2313.00,0.0010
2312.00,0.0010
2311.00,0.0009
2310.00,0.0009
2309.00,0.0009
2308.00,0.0009
2307.00,0.0009
2306.00,0.0009
2305.00,0.0009
2304.00,0.0009
2303.00,0.0010
2302.00,0.0010
2301.00,0.0011
2300.00,0.0011
2299.00,0.0011
2298.00,0.0011
2297.00,0.0013
2296.00,0.0014
2295.00,0.0015
2294.00,0.0016
2293.00,0.0016
2292.00,0.0017
2291.00,0.0017
2290.00,0.0017
2289.00,0.0018
2288.00,0.0019
2287.00,0.0019
2286.00,0.0019
2285.00,0.0018
2284.00,0.0017
2283.00,0.0016
2282.00,0.0016
2281.00,0.0016
2280.00,0.0016
2279.00,0.0016
2278.00,0.0016
2277.00,0.0015
2276.00,0.0014
2275.00,0.0012
2274.00,0.0011
2273.00,0.0012
2272.00,0.0013
2271.00,0.0014
2270.00,0.0015
2269.00,0.0015
2268.00,0.0014
2267.00,0.0013
2266.00,0.0012
2265.00,0.0012
2264.00,0.0012
2263.00,0.0012
2262.00,0.0012
2261.00,0.0011
2260.00,0.0011
2259.00,0.0010
2258.00,0.0010
2257.00,0.0010
2256.00,0.0010
2255.00,0.0009
2254.00,0.0009
2253.00,0.0009
2252.00,0.0010
2251.00,0.0010
2250.00,0.0010
2249.00,0.0010
2248.00,0.0009
2247.00,0.0009
2246.00,0.0008
2245.00,0.0009
2244.00,0.0009
2243.00,0.0010
2242.00,0.0010
2241.00,0.0010
2240.00,0.0010
2239.00,0.0010
2238.00,0.0010
2237.00,0.0011
2236.00,0.0010
2235.00,0.0009
2234.00,0.0009
2233.00,0.0009
2232.00,0.0010
2231.00,0.0009
2230.00,0.0010
2229.00,0.0010
2228.00,0.0010
2227.00,0.0009
2226.00,0.0006
2225.00,0.0005
2224.00,0.0005
2223.00,0.0007
2222.00,0.0009
2221.00,0.0009
2220.00,0.0008
2219.00,0.0008
2218.00,0.0008
2217.00,0.0009
2216.00,0.0010
2215.00,0.0010
2214.00,0.0009
2213.00,0.0008
2212.00,0.0009
2211.00,0.0009
2210.00,0.0010
2209.00,0.0010
2208.00,0.0009
2207.00,0.0008
2206.00,0.0007
2205.00,0.0006
2204.00,0.0004
2203.00,0.0003
2202.00,0.0001
2201.00,0.0000
2200.00,0.0001
2199.00,0.0002
2198.00,0.0003
2197.00,0.0005
2196.00,0.0008
2195.00,0.0010
2194.00,0.0012
2193.00,0.0012
2192.00,0.0012
2191.00,0.0010
2190.00,0.0008
2189.00,0.0006
2188.00,0.0007
2187.00,0.0008
2186.00,0.0011
2185.00,0.0014
2184.00,0.0014
2183.00,0.0012
2182.00,0.0007
2181.00,0.0003
2180.00,0.0001
2179.00,0.0001
2178.00,0.0003
2177.00,0.0006
2176.00,0.0008
2175.00,0.0009
2174.00,0.0008
2173.00,0.0008
2172.00,0.0007
2171.00,0.0008
2170.00,0.0008
2169.00,0.0010
2168.00,0.0012
2167.00,0.0014
2166.00,0.0015
2165.00,0.0015
2164.00,0.0016
2163.00,0.0018
2162.00,0.0018
2161.00,0.0014
2160.00,0.0005
2159.00,-0.0008
2158.00,-0.0018
2157.00,-0.0022
2156.00,-0.0021
2155.00,-0.0021
2154.00,-0.0022
2153.00,-0.0022
2152.00,-0.0020
2151.00,-0.0017
2150.00,-0.0014
2149.00,-0.0013
2148.00,-0.0013
2147.00,-0.0013
2146.00,-0.0014
2145.00,-0.0013
2144.00,-0.0013
2143.00,-0.0013
2142.00,-0.0013
2141.00,-0.0013
2140.00,-0.0011
2139.00,-0.0009
2138.00,-0.0008
2137.00,-0.0010
2136.00,-0.0013
2135.00,-0.0015
2134.00,-0.0016
2133.00,-0.0016
2132.00,-0.0015
2131.00,-0.0014
2130.00,-0.0013
2129.00,-0.0012
2128.00,-0.0010
2127.00,-0.0009
2126.00,-0.0008
2125.00,-0.0007
2124.00,-0.0006
2123.00,-0.0006
2122.00,-0.0005
2121.00,-0.0004
2120.00,-0.0003
2119.00,-0.0002
2118.00,-0.0001
2117.00,-0.0000
2116.00,0.0001
2115.00,0.0001
2114.00,0.0001
2113.00,0.0000
2112.00,-0.0000
2111.00,-0.0000
2110.00,0.0001
2109.00,0.0002
2108.00,0.0003
2107.00,0.0003
2106.00,0.0003
2105.00,0.0002
2104.00,0.0002
2103.00,0.0002
2102.00,0.0002
2101.00,0.0002
2100.00,0.0002
2099.00,0.0002
2098.00,0.0002
2097.00,0.0001
2096.00,-0.0000
2095.00,-0.0002
2094.00,-0.0003
2093.00,-0.0003
2092.00,-0.0002
2091.00,-0.0000
2090.00,0.0001
2089.00,0.0003
2088.00,0.0005
2087.00,0.0007
2086.00,0.0007
2085.00,0.0007
2084.00,0.0005
2083.00,0.0005
2082.00,0.0005
2081.00,0.0006
2080.00,0.0007
2079.00,0.0007
2078.00,0.0006
2077.00,0.0005
2076.00,0.0004
2075.00,0.0003
2074.00,0.0004
2073.00,0.0003
2072.00,0.0002
2071.00,0.0001
2070.00,0.0000
2069.00,0.0001
2068.00,0.0003
2067.00,0.0005
2066.00,0.0006
2065.00,0.0005
2064.00,0.0003
2063.00,0.0002
2062.00,0.0002
2061.00,0.0001
2060.00,0.0001
2059.00,0.0000
2058.00,0.0001
2057.00,0.0002
2056.00,0.0003
2055.00,0.0003
2054.00,0.0005
2053.00,0.0008
2052.00,0.0012
2051.00,0.0014
2050.00,0.0012
2049.00,0.0007
2048.00,0.0003
2047.00,0.0001
2046.00,0.0000
2045.00,-0.0001
2044.00,-0.0002
2043.00,-0.0003
2042.00,-0.0002
2041.00,-0.0000
2040.00,0.0002
2039.00,0.0003
2038.00,0.0003
2037.00,0.0001
2036.00,-0.0002
2035.00,-0.0006
2034.00,-0.0009
2033.00,-0.0010
2032.00,-0.0010
2031.00,-0.0008
2030.00,-0.0007
2029.00,-0.0006
2028.00,-0.0006
2027.00,-0.0007
2026.00,-0.0008
2025.00,-0.0008
2024.00,-0.0006
2023.00,-0.0004
2022.00,-0.0005
2021.00,-0.0008
2020.00,-0.0012
2019.00,-0.0015
2018.00,-0.0015
2017.00,-0.0013
2016.00,-0.0011
2015.00,-0.0010
2014.00,-0.0010
2013.00,-0.0009
2012.00,-0.0008
2011.00,-0.0006
2010.00,-0.0006
2009.00,-0.0007
2008.00,-0.0010
2007.00,-0.0012
2006.00,-0.0014
2005.00,-0.0013
2004.00,-0.0012
2003.00,-0.0009
2002.00,-0.0007
2001.00,-0.0005
2000.00,-0.0005
1999.00,-0.0008
1998.00,-0.0011
1997.00,-0.0013
1996.00,-0.0013
1995.00,-0.0011
1994.00,-0.0008
1993.00,-0.0005
1992.00,-0.0003
1991.00,-0.0003
1990.00,-0.0003
1989.00,-0.0003
1988.00,-0.0002
1987.00,-0.0001
1986.00,-0.0001
1985.00,-0.0001
1984.00,0.0000
1983.00,0.0003
1982.00,0.0008
1981.00,0.0011
1980.00,0.0011
1979.00,0.0006
1978.00,-0.0001
1977.00,-0.0007
1976.00,-0.0009
1975.00,-0.0011
1974.00,-0.0013
1973.00,-0.0015
1972.00,-0.0016
1971.00,-0.0015
1970.00,-0.0013
1969.00,-0.0010
1968.00,-0.0008
1967.00,-0.0009
1966.00,-0.0012
1965.00,-0.0014
1964.00,-0.0016
1963.00,-0.0018
1962.00,-0.0020
1961.00,-0.0022
1960.00,-0.0022
1959.00,-0.0021
1958.00,-0.0019
1957.00,-0.0017
1956.00,-0.0016
1955.00,-0.0016
1954.00,-0.0016
1953.00,-0.0016
1952.00,-0.0015
1951.00,-0.0015
1950.00,-0.0015
1949.00,-0.0016
1948.00,-0.0016
1947.00,-0.0017
1946.00,-0.0017
1945.00,-0.0017
1944.00,-0.0017
1943.00,-0.0017
1942.00,-0.0016
1941.00,-0.0014
1940.00,-0.0012
1939.00,-0.0010
1938.00,-0.0009
1937.00,-0.0009
1936.00,-0.0008
1935.00,-0.0008
1934.00,-0.0008
1933.00,-0.0008
1932.00,-0.0009
1931.00,-0.0009
1930.00,-0.0009
1929.00,-0.0008
1928.00,-0.0008
1927.00,-0.0009
1926.00,-0.0010
1925.00,-0.0010
1924.00,-0.0009
1923.00,-0.0009
1922.00,-0.0008
1921.00,-0.0007
1920.00,-0.0006
1919.00,-0.0005
1918.00,-0.0005
1917.00,-0.0004
1916.00,-0.0004
1915.00,-0.0003
1914.00,-0.0003
1913.00,-0.0003
1912.00,-0.0002
1911.00,-0.0002
1910.00,-0.0001
1909.00,-0.0001
1908.00,-0.0000
1907.00,-0.0000
1906.00,-0.0001
1905.00,-0.0002
1904.00,-0.0002
1903.00,-0.0002
1902.00,-0.0002
1901.00,-0.0001
1900.00,-0.0000
1899.00,0.0000
1898.00,0.0000
1897.00,0.0001
1896.00,0.0001
1895.00,0.0001
1894.00,0.0001
1893.00,0.0001
1892.00,0.0000
1891.00,-0.0000
1890.00,-0.0001
1889.00,-0.0001
1888.00,-0.0000
1887.00,0.0001
1886.00,0.0001
1885.00,0.0002
1884.00,0.0002
1883.00,0.0001
1882.00,0.0001
1881.00,0.0000
1880.00,0.0001
1879.00,0.0001
1878.00,0.0001
1877.00,0.0002
1876.00,0.0002
1875.00,0.0002
1874.00,0.0001
1873.00,0.0001
1872.00,0.0000
1871.00,0.0000
1870.00,0.0000
1869.00,0.0000
1868.00,0.0001
1867.00,0.0001
1866.00,0.0001
1865.00,0.0002
1864.00,0.0002
1863.00,0.0002
1862.00,0.0002
1861.00,0.0001
1860.00,0.0002
1859.00,0.0002
1858.00,0.0002
1857.00,0.0002
1856.00,0.0003
1855.00,0.0003
1854.00,0.0004
1853.00,0.0004
1852.00,0.0004
1851.00,0.0003
1850.00,0.0002
1849.00,0.0002
1848.00,0.0003
1847.00,0.0003
1846.00,0.0003
1845.00,0.0003
1844.00,0.0003
1843.00,0.0002
1842.00,0.0002
1841.00,0.0002
1840.00,0.0003
1839.00,0.0003
1838.00,0.0003
1837.00,0.0004
1836.00,0.0005
1835.00,0.0005
1834.00,0.0005
1833.00,0.0004
1832.00,0.0004
1831.00,0.0004
1830.00,0.0004
1829.00,0.0004
1828.00,0.0004
1827.00,0.0005
1826.00,0.0005
1825.00,0.0005
1824.00,0.0005
1823.00,0.0005
1822.00,0.0004
1821.00,0.0004
1820.00,0.0003
1819.00,0.0002
1818.00,0.0001
1817.00,0.0001
1816.00,0.0001
1815.00,0.0002
1814.00,0.0003
1813.00,0.0003
1812.00,0.0004
1811.00,0.0004
1810.00,0.0005
1809.00,0.0005
1808.00,0.0005
1807.00,0.0004
1806.00,0.0004
1805.00,0.0004
1804.00,0.0005
1803.00,0.0005
1802.00,0.0006
1801.00,0.0007
1800.00,0.0007
1799.00,0.0007
1798.00,0.0008
1797.00,0.0008
1796.00,0.0008
1795.00,0.0008
1794.00,0.0008
1793.00,0.0009
1792.00,0.0009
1791.00,0.0009
1790.00,0.0009
1789.00,0.0009
1788.00,0.0009
1787.00,0.0009
1786.00,0.0010
1785.00,0.0010
1784.00,0.0010
1783.00,0.0010
1782.00,0.0010
1781.00,0.0010
1780.00,0.0010
1779.00,0.0011
1778.00,0.0011
1777.00,0.0012
1776.00,0.0012
1775.00,0.0012
1774.00,0.0013
1773.00,0.0013
1772.00,0.0013
1771.00,0.0014
1770.00,0.0014
1769.00,0.0014
1768.00,0.0015
1767.00,0.0015
1766.00,0.0016
1765.00,0.0017
1764.00,0.0018
1763.00,0.0020
1762.00,0.0021
1761.00,0.0022
1760.00,0.0024
1759.00,0.0026
1758.00,0.0028
1757.00,0.0031
1756.00,0.0034
1755.00,0.0037
1754.00,0.0040
1753.00,0.0043
1752.00,0.0046
1751.00,0.0050
1750.00,0.0052
1749.00,0.0055
1748.00,0.0057
1747.00,0.0058
1746.00,0.0058
1745.00,0.0059
1744.00,0.0058
1743.00,0.0058
1742.00,0.0056
1741.00,0.0055
1740.00,0.0053
1739.00,0.0052
1738.00,0.0051
1737.00,0.0050
1736.00,0.0049
1735.00,0.0047
1734.00,0.0044
1733.00,0.0042
1732.00,0.0041
1731.00,0.0039
1730.00,0.0038
1729.00,0.0036
1728.00,0.0035
1727.00,0.0034
1726.00,0.0034
1725.00,0.0034
1724.00,0.0033
1723.00,0.0032
1722.00,0.0032
1721.00,0.0032
1720.00,0.0032
1719.00,0.0032
1718.00,0.0031
1717.00,0.0030
1716.00,0.0030
1715.00,0.0030
1714.00,0.0031
1713.00,0.0031
1712.00,0.0032
1711.00,0.0032
1710.00,0.0032
1709.00,0.0032
1708.00,0.0032
1707.00,0.0032
1706.00,0.0033
1705.00,0.0033
1704.00,0.0034
1703.00,0.0034
1702.00,0.0035
1701.00,0.0036
1700.00,0.0036
1699.00,0.0037
1698.00,0.0038
1697.00,0.0038
1696.00,0.0039
1695.00,0.0039
1694.00,0.0040
1693.00,0.0041
1692.00,0.0041
1691.00,0.0042
1690.00,0.0042
1689.00,0.0042
1688.00,0.0043
1687.00,0.0045
1686.00,0.0047
1685.00,0.0048
1684.00,0.0050
1683.00,0.0050
1682.00,0.0051
1681.00,0.0052
1680.00,0.0053
1679.00,0.0053
1678.00,0.0054
1677.00,0.0055
1676.00,0.0056
1675.00,0.0057
1674.00,0.0058
1673.00,0.0059
1672.00,0.0060
1671.00,0.0061
1670.00,0.0061
1669.00,0.0062
1668.00,0.0062
1667.00,0.0063
1666.00,0.0063
1665.00,0.0064
1664.00,0.0065
1663.00,0.0065
1662.00,0.0066
1661.00,0.0067
1660.00,0.0068
1659.00,0.0068
1658.00,0.0069
1657.00,0.0071
1656.00,0.0073
1655.00,0.0075
1654.00,0.0078
1653.00,0.0080
1652.00,0.0081
1651.00,0.0082
1650.00,0.0082
1649.00,0.0083
1648.00,0.0086
1647.00,0.0088
1646.00,0.0089
1645.00,0.0089
1644.00,0.0088
1643.00,0.0087
1642.00,0.0085
1641.00,0.0084
1640.00,0.0083
1639.00,0.0082
1638.00,0.0082
1637.00,0.0083
1636.00,0.0083
1635.00,0.0083
1634.00,0.0082
1633.00,0.0081
1632.00,0.0081
1631.00,0.0080
1630.00,0.0080
1629.00,0.0080
1628.00,0.0081
1627.00,0.0080
1626.00,0.0080
1625.00,0.0079
1624.00,0.0078
1623.00,0.0076
1622.00,0.0075
1621.00,0.0075
1620.00,0.0074
1619.00,0.0074
1618.00,0.0074
1617.00,0.0073
1616.00,0.0072
1615.00,0.0071
1614.00,0.0070
1613.00,0.0070
1612.00,0.0070
1611.00,0.0070
1610.00,0.0070
1609.00,0.0070
1608.00,0.0070
1607.00,0.0069
1606.00,0.0069
1605.00,0.0069
1604.00,0.0069
1603.00,0.0069
1602.00,0.0070
1601.00,0.0070
1600.00,0.0071
1599.00,0.0071
1598.00,0.0071
1597.00,0.0071
1596.00,0.0072
1595.00,0.0072
1594.00,0.0073
1593.00,0.0075
1592.00,0.0076
1591.00,0.0078
1590.00,0.0080
1589.00,0.0083
1588.00,0.0086
1587.00,0.0090
1586.00,0.0094
1585.00,0.0100
1584.00,0.0106
1583.00,0.0113
1582.00,0.0120
1581.00,0.0127
1580.00,0.0133
1579.00,0.0138
1578.00,0.0140
1577.00,0.0140
1576.00,0.0137
1575.00,0.0132
1574.00,0.0128
1573.00,0.0124
1572.00,0.0120
1571.00,0.0115
1570.00,0.0109
1569.00,0.0102
1568.00,0.0098
1567.00,0.0095
1566.00,0.0092
1565.00,0.0090
1564.00,0.0088
1563.00,0.0087
1562.00,0.0087
1561.00,0.0087
1560.00,0.0089
1559.00,0.0089
1558.00,0.0089
1557.00,0.0090
1556.00,0.0091
1555.00,0.0091
1554.00,0.0093
1553.00,0.0095
1552.00,0.0098
1551.00,0.0102
1550.00,0.0106
1549.00,0.0111
1548.00,0.0117
1547.00,0.0123
1546.00,0.0130
1545.00,0.0139
1544.00,0.0148
1543.00,0.0156
1542.00,0.0161
1541.00,0.0164
1540.00,0.0160
1539.00,0.0153
1538.00,0.0145
1537.00,0.0138
1536.00,0.0131
1535.00,0.0123
1534.00,0.0114
1533.00,0.0106
1532.00,0.0100
1531.00,0.0096
1530.00,0.0093
1529.00,0.0090
1528.00,0.0088
1527.00,0.0085
1526.00,0.0082
1525.00,0.0081
1524.00,0.0080
1523.00,0.0080
1522.00,0.0079
1521.00,0.0078
1520.00,0.0078
1519.00,0.0078
1518.00,0.0077
1517.00,0.0077
1516.00,0.0077
1515.00,0.0076
1514.00,0.0076
1513.00,0.0077
1512.00,0.0078
1511.00,0.0078
1510.00,0.0079
1509.00,0.0080
1508.00,0.0082
1507.00,0.0082
1506.00,0.0083
1505.00,0.0084
1504.00,0.0084
1503.00,0.0085
1502.00,0.0086
1501.00,0.0088
1500.00,0.0092
1499.00,0.0096
1498.00,0.0099
1497.00,0.0103
1496.00,0.0107
1495.00,0.0110
1494.00,0.0112
1493.00,0.0115
1492.00,0.0119
1491.00,0.0123
1490.00,0.0128
1489.00,0.0134
1488.00,0.0140
1487.00,0.0147
1486.00,0.0153
1485.00,0.0162
1484.00,0.0172
1483.00,0.0182
1482.00,0.0195
1481.00,0.0211
1480.00,0.0227
1479.00,0.0243
1478.00,0.0261
1477.00,0.0282
1476.00,0.0307
1475.00,0.0335
1474.00,0.0372
1473.00,0.0425
1472.00,0.0488
1471.00,0.0549
1470.00,0.0608
1469.00,0.0670
1468.00,0.0738
1467.00,0.0813
1466.00,0.0901
1465.00,0.0997
1464.00,0.1082
1463.00,0.1142
1462.00,0.1182
1461.00,0.1211
1460.00,0.1233
1459.00,0.1248
1458.00,0.1261
1457.00,0.1269
1456.00,0.1268
1455.00,0.1261
1454.00,0.1252
1453.00,0.1238
1452.00,0.1214
1451.00,0.1177
1450.00,0.1123
1449.00,0.1047
1448.00,0.0951
1447.00,0.0849
1446.00,0.0759
1445.00,0.0682
1444.00,0.0617
1443.00,0.0565
1442.00,0.0527
1441.00,0.0502
1440.00,0.0488
1439.00,0.0484
1438.00,0.0488
1437.00,0.0492
1436.00,0.0484
1435.00,0.0459
1434.00,0.0420
1433.00,0.0373
1432.00,0.0325
1431.00,0.0282
1430.00,0.0249
1429.00,0.0225
1428.00,0.0210
1427.00,0.0201
1426.00,0.0195
1425.00,0.0191
1424.00,0.0187
1423.00,0.0185
1422.00,0.0184
1421.00,0.0183
1420.00,0.0180
1419.00,0.0176
1418.00,0.0173
1417.00,0.0169
1416.00,0.0165
1415.00,0.0162
1414.00,0.0160
1413.00,0.0158
1412.00,0.0155
1411.00,0.0153
1410.00,0.0152
1409.00,0.0150
1408.00,0.0148
1407.00,0.0147
1406.00,0.0147
1405.00,0.0146
1404.00,0.0145
1403.00,0.0146
1402.00,0.0147
1401.00,0.0148
1400.00,0.0148
1399.00,0.0150
1398.00,0.0153
1397.00,0.0156
1396.00,0.0159
1395.00,0.0163
1394.00,0.0169
1393.00,0.0174
1392.00,0.0180
1391.00,0.0189
1390.00,0.0201
1389.00,0.0218
1388.00,0.0243
1387.00,0.0281
1386.00,0.0332
1385.00,0.0395
1384.00,0.0478
1383.00,0.0592
1382.00,0.0741
1381.00,0.0933
1380.00,0.1174
1379.00,0.1454
1378.00,0.1734
1377.00,0.1953
1376.00,0.2047
1375.00,0.1970
1374.00,0.1741
1373.00,0.1449
1372.00,0.1174
1371.00,0.0944
1370.00,0.0759
1369.00,0.0618
1368.00,0.0520
1367.00,0.0460
1366.00,0.0427
1365.00,0.0414
1364.00,0.0416
1363.00,0.0431
1362.00,0.0455
1361.00,0.0480
1360.00,0.0499
1359.00,0.0504
1358.00,0.0492
1357.00,0.0463
1356.00,0.0422
1355.00,0.0376
1354.00,0.0331
1353.00,0.0293
1352.00,0.0262
1351.00,0.0238
1350.00,0.0218
1349.00,0.0202
1348.00,0.0189
1347.00,0.0178
1346.00,0.0169
1345.00,0.0162
1344.00,0.0157
1343.00,0.0153
1342.00,0.0150
1341.00,0.0147
1340.00,0.0145
1339.00,0.0142
1338.00,0.0140
1337.00,0.0140
1336.00,0.0140
1335.00,0.0142
1334.00,0.0145
1333.00,0.0149
1332.00,0.0154
1331.00,0.0158
1330.00,0.0159
1329.00,0.0158
1328.00,0.0154
1327.00,0.0148
1326.00,0.0142
1325.00,0.0135
1324.00,0.0129
1323.00,0.0124
1322.00,0.0120
1321.00,0.0116
1320.00,0.0114
1319.00,0.0111
1318.00,0.0109
1317.00,0.0106
1316.00,0.0104
1315.00,0.0102
1314.00,0.0101
1313.00,0.0101
1312.00,0.0101
1311.00,0.0104
1310.00,0.0108
1309.00,0.0114
1308.00,0.0122
1307.00,0.0133
1306.00,0.0144
1305.00,0.0151
1304.00,0.0155
1303.00,0.0153
1302.00,0.0149
1301.00,0.0146
1300.00,0.0144
1299.00,0.0144
1298.00,0.0145
1297.00,0.0146
1296.00,0.0145
1295.00,0.0143
1294.00,0.0139
1293.00,0.0134
1292.00,0.0128
1291.00,0.0123
1290.00,0.0118
1289.00,0.0114
1288.00,0.0110
1287.00,0.0107
1286.00,0.0105
1285.00,0.0103
1284.00,0.0101
1283.00,0.0099
1282.00,0.0098
1281.00,0.0097
1280.00,0.0096
1279.00,0.0096
1278.00,0.0096
1277.00,0.0095
1276.00,0.0095
1275.00,0.0095
1274.00,0.0096
1273.00,0.0096
1272.00,0.0097
1271.00,0.0098
1270.00,0.0099
1269.00,0.0101
1268.00,0.0103
1267.00,0.0105
1266.00,0.0107
1265.00,0.0110
1264.00,0.0113
1263.00,0.0117
1262.00,0.0122
1261.00,0.0126
1260.00,0.0131
1259.00,0.0138
1258.00,0.0144
1257.00,0.0149
1256.00,0.0151
1255.00,0.0150
1254.00,0.0145
1253.00,0.0138
1252.00,0.0131
1251.00,0.0125
1250.00,0.0121
1249.00,0.0118
1248.00,0.0116
1247.00,0.0114
1246.00,0.0113
1245.00,0.0113
1244.00,0.0112
1243.00,0.0111
1242.00,0.0111
1241.00,0.0110
1240.00,0.0109
1239.00,0.0109
1238.00,0.0109
1237.00,0.0109
1236.00,0.0109
1235.00,0.0109
1234.00,0.0109
1233.00,0.0109
1232.00,0.0109
1231.00,0.0110
1230.00,0.0110
1229.00,0.0111
1228.00,0.0112
1227.00,0.0114
1226.00,0.0115
1225.00,0.0117
1224.00,0.0120
1223.00,0.0123
1222.00,0.0127
1221.00,0.0130
1220.00,0.0132
1219.00,0.0132
1218.00,0.0132
1217.00,0.0130
1216.00,0.0128
1215.00,0.0125
1214.00,0.0122
1213.00,0.0118
1212.00,0.0115
1211.00,0.0112
1210.00,0.0110
1209.00,0.0107
1208.00,0.0105
1207.00,0.0103
1206.00,0.0102
1205.00,0.0101
1204.00,0.0101
1203.00,0.0102
1202.00,0.0102
1201.00,0.0102
1200.00,0.0103
1199.00,0.0103
1198.00,0.0103
1197.00,0.0103
1196.00,0.0104
1195.00,0.0104
1194.00,0.0105
1193.00,0.0105
1192.00,0.0106
1191.00,0.0106
1190.00,0.0106
1189.00,0.0107
1188.00,0.0107
1187.00,0.0108
1186.00,0.0109
1185.00,0.0110
1184.00,0.0112
1183.00,0.0113
1182.00,0.0116
1181.00,0.0119
1180.00,0.0122
1179.00,0.0126
1178.00,0.0132
1177.00,0.0140
1176.00,0.0151
1175.00,0.0166
1174.00,0.0185
1173.00,0.0208
1172.00,0.0236
1171.00,0.0266
1170.00,0.0297
1169.00,0.0322
1168.00,0.0338
1167.00,0.0344
1166.00,0.0339
1165.00,0.0326
1164.00,0.0310
1163.00,0.0294
1162.00,0.0278
1161.00,0.0266
1160.00,0.0256
1159.00,0.0248
1158.00,0.0242
1157.00,0.0237
1156.00,0.0234
1155.00,0.0232
1154.00,0.0229
1153.00,0.0226
1152.00,0.0221
1151.00,0.0215
1150.00,0.0207
1149.00,0.0198
1148.00,0.0189
1147.00,0.0179
1146.00,0.0170
1145.00,0.0161
1144.00,0.0154
1143.00,0.0147
1142.00,0.0141
1141.00,0.0136
1140.00,0.0131
1139.00,0.0126
1138.00,0.0122
1137.00,0.0118
1136.00,0.0115
1135.00,0.0112
1134.00,0.0111
1133.00,0.0110
1132.00,0.0109
1131.00,0.0110
1130.00,0.0111
1129.00,0.0112
1128.00,0.0113
1127.00,0.0114
1126.00,0.0114
1125.00,0.0114
1124.00,0.0113
1123.00,0.0113
1122.00,0.0114
1121.00,0.0114
1120.00,0.0115
1119.00,0.0116
1118.00,0.0116
1117.00,0.0117
1116.00,0.0118
1115.00,0.0120
1114.00,0.0122
1113.00,0.0124
1112.00,0.0126
1111.00,0.0128
1110.00,0.0131
1109.00,0.0135
1108.00,0.0140
1107.00,0.0147
1106.00,0.0155
1105.00,0.0162
1104.00,0.0168
1103.00,0.0171
1102.00,0.0170
1101.00,0.0167
1100.00,0.0162
1099.00,0.0157
1098.00,0.0151
1097.00,0.0145
1096.00,0.0139
1095.00,0.0134
1094.00,0.0131
1093.00,0.0128
1092.00,0.0125
1091.00,0.0122
1090.00,0.0119
1089.00,0.0117
1088.00,0.0115
1087.00,0.0114
1086.00,0.0113
1085.00,0.0113
1084.00,0.0113
1083.00,0.0113
1082.00,0.0111
1081.00,0.0109
1080.00,0.0107
1079.00,0.0105
1078.00,0.0104
1077.00,0.0104
1076.00,0.0103
1075.00,0.0102
1074.00,0.0102
1073.00,0.0103
1072.00,0.0103
1071.00,0.0102
1070.00,0.0101
1069.00,0.0100
1068.00,0.0100
1067.00,0.0099
1066.00,0.0099
1065.00,0.0099
1064.00,0.0100
1063.00,0.0101
1062.00,0.0102
1061.00,0.0102
1060.00,0.0101
1059.00,0.0100
1058.00,0.0100
1057.00,0.0100
1056.00,0.0100
1055.00,0.0100
1054.00,0.0100
1053.00,0.0100
1052.00,0.0100
1051.00,0.0100
1050.00,0.0101
1049.00,0.0104
1048.00,0.0108
1047.00,0.0111
1046.00,0.0114
1045.00,0.0116
1044.00,0.0116
1043.00,0.0115
1042.00,0.0113
1041.00,0.0112
1040.00,0.0111
1039.00,0.0112
1038.00,0.0112
1037.00,0.0113
1036.00,0.0114
1035.00,0.0115
1034.00,0.0114
1033.00,0.0112
1032.00,0.0110
1031.00,0.0107
1030.00,0.0106
1029.00,0.0104
1028.00,0.0104
1027.00,0.0103
1026.00,0.0103
1025.00,0.0102
1024.00,0.0102
1023.00,0.0102
1022.00,0.0102
1021.00,0.0102
1020.00,0.0102
1019.00,0.0104
1018.00,0.0106
1017.00,0.0109
1016.00,0.0112
1015.00,0.0115
1014.00,0.0119
1013.00,0.0123
1012.00,0.0128
1011.00,0.0131
1010.00,0.0135
1009.00,0.0137
1008.00,0.0139
1007.00,0.0142
1006.00,0.0148
1005.00,0.0157
1004.00,0.0171
1003.00,0.0191
1002.00,0.0216
1001.00,0.0248
1000.00,0.0281
999.00,0.0308
998.00,0.0323
997.00,0.0318
996.00,0.0296
995.00,0.0261
994.00,0.0223
993.00,0.0189
992.00,0.0162
991.00,0.0143
990.00,0.0130
989.00,0.0121
988.00,0.0116
987.00,0.0114
986.00,0.0114
985.00,0.0116
984.00,0.0120
983.00,0.0127
982.00,0.0137
981.00,0.0153
980.00,0.0175
979.00,0.0203
978.00,0.0238
977.00,0.0278
976.00,0.0322
975.00,0.0363
974.00,0.0394
973.00,0.0406
972.00,0.0395
971.00,0.0362
970.00,0.0317
969.00,0.0270
968.00,0.0228
967.00,0.0196
966.00,0.0171
965.00,0.0153
964.00,0.0140
963.00,0.0130
962.00,0.0122
961.00,0.0116
960.00,0.0112
959.00,0.0110
958.00,0.0109
957.00,0.0107
956.00,0.0104
955.00,0.0100
954.00,0.0097
953.00,0.0096
952.00,0.0095
951.00,0.0094
950.00,0.0095
949.00,0.0095
948.00,0.0096
947.00,0.0096
946.00,0.0097
945.00,0.0099
944.00,0.0101
943.00,0.0105
942.00,0.0108
941.00,0.0110
940.00,0.0110
939.00,0.0107
938.00,0.0102
937.00,0.0097
936.00,0.0092
935.00,0.0088
934.00,0.0084
933.00,0.0081
932.00,0.0077
931.00,0.0074
930.00,0.0072
929.00,0.0071
928.00,0.0071
927.00,0.0070
926.00,0.0069
925.00,0.0069
924.00,0.0068
923.00,0.0069
922.00,0.0070
921.00,0.0072
920.00,0.0073
919.00,0.0074
918.00,0.0075
917.00,0.0074
916.00,0.0074
915.00,0.0075
914.00,0.0075
913.00,0.0076
912.00,0.0076
911.00,0.0077
910.00,0.0078
909.00,0.0080
908.00,0.0082
907.00,0.0086
906.00,0.0094
905.00,0.0105
904.00,0.0121
903.00,0.0141
902.00,0.0163
901.00,0.0183
900.00,0.0197
899.00,0.0200
898.00,0.0193
897.00,0.0177
896.00,0.0156
895.00,0.0135
894.00,0.0117
893.00,0.0104
892.00,0.0096
891.00,0.0090
890.00,0.0085
889.00,0.0080
888.00,0.0077
887.00,0.0075
886.00,0.0075
885.00,0.0075
884.00,0.0076
883.00,0.0077
882.00,0.0078
881.00,0.0078
880.00,0.0078
879.00,0.0079
878.00,0.0080
877.00,0.0081
876.00,0.0082
875.00,0.0083
874.00,0.0082
873.00,0.0081
872.00,0.0080
871.00,0.0078
870.00,0.0077
869.00,0.0077
868.00,0.0076
867.00,0.0077
866.00,0.0078
865.00,0.0079
864.00,0.0080
863.00,0.0081
862.00,0.0083
861.00,0.0085
860.00,0.0087
859.00,0.0088
858.00,0.0090
857.00,0.0091
856.00,0.0092
855.00,0.0093
854.00,0.0096
853.00,0.0099
852.00,0.0103
851.00,0.0107
850.00,0.0111
849.00,0.0117
848.00,0.0126
847.00,0.0139
846.00,0.0157
845.00,0.0185
844.00,0.0224
843.00,0.0267
842.00,0.0300
841.00,0.0309
840.00,0.0290
839.00,0.0252
838.00,0.0212
837.00,0.0180
836.00,0.0159
835.00,0.0147
834.00,0.0139
833.00,0.0133
832.00,0.0129
831.00,0.0126
830.00,0.0123
829.00,0.0120
828.00,0.0118
827.00,0.0117
826.00,0.0116
825.00,0.0116
824.00,0.0115
823.00,0.0114
822.00,0.0114
821.00,0.0115
820.00,0.0117
819.00,0.0120
818.00,0.0124
817.00,0.0131
816.00,0.0139
815.00,0.0150
814.00,0.0164
813.00,0.0181
812.00,0.0201
811.00,0.0219
810.00,0.0233
809.00,0.0240
808.00,0.0238
807.00,0.0228
806.00,0.0211
805.00,0.0192
804.00,0.0173
803.00,0.0157
802.00,0.0145
801.00,0.0136
800.00,0.0129
799.00,0.0123
798.00,0.0118
797.00,0.0113
796.00,0.0109
795.00,0.0105
794.00,0.0102
793.00,0.0099
792.00,0.0096
791.00,0.0094
790.00,0.0092
789.00,0.0091
788.00,0.0088
787.00,0.0086
786.00,0.0083
785.00,0.0080
784.00,0.0077
783.00,0.0075
782.00,0.0073
781.00,0.0071
780.00,0.0069
779.00,0.0067
778.00,0.0066
777.00,0.0067
776.00,0.0069
775.00,0.0071
774.00,0.0074
773.00,0.0077
772.00,0.0080
771.00,0.0082
770.00,0.0083
769.00,0.0084
768.00,0.0086
767.00,0.0086
766.00,0.0086
765.00,0.0084
764.00,0.0081
763.00,0.0079
762.00,0.0077
761.00,0.0076
760.00,0.0075
759.00,0.0072
758.00,0.0069
757.00,0.0066
756.00,0.0064
755.00,0.0062
754.00,0.0061
753.00,0.0062
752.00,0.0063
751.00,0.0064
750.00,0.0065
749.00,0.0065
748.00,0.0065
747.00,0.0065
746.00,0.0065
745.00,0.0066
744.00,0.0067
743.00,0.0068
742.00,0.0069
741.00,0.0071
740.00,0.0072
739.00,0.0073
738.00,0.0073
737.00,0.0073
736.00,0.0074
735.00,0.0077
734.00,0.0080
733.00,0.0083
732.00,0.0085
731.00,0.0086
730.00,0.0087
729.00,0.0087
728.00,0.0087
727.00,0.0086
726.00,0.0086
725.00,0.0086
724.00,0.0086
723.00,0.0086
722.00,0.0088
721.00,0.0088
720.00,0.0087
719.00,0.0084
718.00,0.0080
717.00,0.0076
716.00,0.0075
715.00,0.0076
714.00,0.0076
713.00,0.0075
712.00,0.0073
711.00,0.0072
710.00,0.0070
709.00,0.0069
708.00,0.0069
707.00,0.0070
706.00,0.0071
705.00,0.0071
704.00,0.0072
703.00,0.0072
702.00,0.0072
701.00,0.0071
700.00,0.0069
699.00,0.0066
698.00,0.0063
697.00,0.0062
696.00,0.0063
695.00,0.0065
694.00,0.0067
693.00,0.0069
692.00,0.0070
691.00,0.0071
690.00,0.0071
689.00,0.0071
688.00,0.0071
687.00,0.0071
686.00,0.0072
685.00,0.0072
684.00,0.0072
683.00,0.0071
682.00,0.0070
681.00,0.0069
680.00,0.0068
679.00,0.0067
678.00,0.0066
677.00,0.0066
676.00,0.0065
675.00,0.0064
674.00,0.0065
673.00,0.0067
672.00,0.0069
671.00,0.0070
670.00,0.0071
669.00,0.0072
668.00,0.0073
667.00,0.0075
666.00,0.0075
665.00,0.0073
664.00,0.0072
663.00,0.0071
662.00,0.0071
661.00,0.0070
660.00,0.0069
659.00,0.0068
658.00,0.0067
657.00,0.0068
656.00,0.0069
655.00,0.0069
654.00,0.0068
653.00,0.0067
652.00,0.0067
651.00,0.0067
650.00,0.0066
649.00,0.0066
648.00,0.0066
647.00,0.0067
646.00,0.0068
645.00,0.0069
644.00,0.0070
643.00,0.0071
642.00,0.0071
641.00,0.0071
640.00,0.0071
639.00,0.0071
638.00,0.0071
637.00,0.0071
636.00,0.0072
635.00,0.0073
634.00,0.0072
633.00,0.0071
632.00,0.0070
631.00,0.0073
630.00,0.0077
629.00,0.0080
628.00,0.0081
627.00,0.0080
626.00,0.0078
625.00,0.0075
624.00,0.0073
623.00,0.0072
622.00,0.0073
621.00,0.0074
620.00,0.0073
619.00,0.0071
618.00,0.0070
617.00,0.0069
616.00,0.0070
615.00,0.0072
614.00,0.0074
613.00,0.0075
612.00,0.0075
611.00,0.0074
610.00,0.0072
609.00,0.0071
608.00,0.0071
607.00,0.0072
606.00,0.0072
605.00,0.0069
604.00,0.0066
603.00,0.0064
602.00,0.0065
601.00,0.0070
600.00,0.0075
599.00,0.0078
598.00,0.0078
597.00,0.0076
596.00,0.0073
595.00,0.0072
594.00,0.0072
593.00,0.0072
592.00,0.0071
591.00,0.0071
590.00,0.0069
589.00,0.0067
588.00,0.0066
587.00,0.0067
586.00,0.0070
585.00,0.0071
584.00,0.0071
583.00,0.0069
582.00,0.0070
581.00,0.0074
580.00,0.0079
579.00,0.0082
578.00,0.0081
577.00,0.0079
576.00,0.0076
575.00,0.0074
574.00,0.0072
573.00,0.0070
572.00,0.0068
571.00,0.0065
570.00,0.0065
569.00,0.0067
568.00,0.0071
567.00,0.0072
566.00,0.0071
565.00,0.0068
564.00,0.0066
563.00,0.0065
562.00,0.0066
561.00,0.0069
560.00,0.0072
559.00,0.0073
558.00,0.0071
557.00,0.0071
556.00,0.0072
555.00,0.0075
554.00,0.0076
553.00,0.0077
552.00,0.0078
551.00,0.0080
550.00,0.0081
549.00,0.0081
548.00,0.0080
547.00,0.0080
546.00,0.0079
545.00,0.0078
544.00,0.0078
543.00,0.0079
542.00,0.0081
541.00,0.0081
540.00,0.0080
539.00,0.0078
538.00,0.0079
537.00,0.0081
536.00,0.0084
535.00,0.0084
534.00,0.0084
533.00,0.0085
532.00,0.0090
531.00,0.0096
530.00,0.0100
529.00,0.0099
528.00,0.0094
527.00,0.0088
526.00,0.0083
525.00,0.0079
524.00,0.0076
523.00,0.0073
522.00,0.0071
521.00,0.0073
520.00,0.0078
519.00,0.0084
518.00,0.0085
517.00,0.0081
516.00,0.0074
515.00,0.0068
514.00,0.0066
513.00,0.0066
512.00,0.0067
511.00,0.0067
510.00,0.0065
509.00,0.0062
508.00,0.0062
507.00,0.0066
506.00,0.0069
505.00,0.0068
504.00,0.0062
503.00,0.0060
502.00,0.0064
501.00,0.0072
500.00,0.0078
499.00,0.0080
498.00,0.0081
497.00,0.0082
496.00,0.0083
495.00,0.0080
494.00,0.0075
493.00,0.0071
492.00,0.0071
491.00,0.0077
490.00,0.0084
489.00,0.0087
488.00,0.0085
487.00,0.0077
486.00,0.0068
485.00,0.0060
484.00,0.0058
483.00,0.0062
482.00,0.0068
481.00,0.0073
480.00,0.0076
479.00,0.0079
478.00,0.0082
477.00,0.0087
476.00,0.0089
475.00,0.0087
474.00,0.0082
473.00,0.0077
472.00,0.0073
471.00,0.0074
470.00,0.0078
469.00,0.0083
468.00,0.0085
467.00,0.0084
466.00,0.0083
465.00,0.0090
464.00,0.0105
463.00,0.0126
462.00,0.0147
461.00,0.0162
460.00,0.0169
459.00,0.0164
458.00,0.0150
457.00,0.0138
456.00,0.0135
455.00,0.0140
454.00,0.0143
453.00,0.0138
452.00,0.0125
451.00,0.0110
450.00,0.0096
