Created as New Dataset,Sample 090 By Administrator Date Friday, September 05 2025
cm-1,A
4000.00,0.0015
3999.00,0.0015
3998.00,0.0015
3997.00,0.0015
3996.00,0.0016
3995.00,0.0016
3994.00,0.0016
3993.00,0.0016
3992.00,0.0016
3991.00,0.0016
3990.00,0.0016
3989.00,0.0016
3988.00,0.0016
3987.00,0.0016
3986.00,0.0015
3985.00,0.0015
3984.00,0.0015
3983.00,0.0015
3982.00,0.0015
3981.00,0.0015
3980.00,0.0015
3979.00,0.0015
3978.00,0.0015
3977.00,0.0015
3976.00,0.0015
3975.00,0.0015
3974.00,0.0015
3973.00,0.0015
3972.00,0.0015
3971.00,0.0015
3970.00,0.0015
3969.00,0.0015
3968.00,0.0015
3967.00,0.0015
3966.00,0.0015
3965.00,0.0015
3964.00,0.0015
3963.00,0.0015
3962.00,0.0016
3961.00,0.0016
3960.00,0.0015
3959.00,0.0015
3958.00,0.0015
3957.00,0.0015
3956.00,0.0016
3955.00,0.0016
3954.00,0.0016
3953.00,0.0016
3952.00,0.0016
3951.00,0.0016
3950.00,0.0015
3949.00,0.0015
3948.00,0.0015
3947.00,0.0015
3946.00,0.0015
3945.00,0.0015
3944.00,0.0015
3943.00,0.0015
3942.00,0.0015
3941.00,0.0015
3940.00,0.0015
3939.00,0.0015
3938.00,0.0014
3937.00,0.0014
3936.00,0.0014
3935.00,0.0014
3934.00,0.0014
3933.00,0.0014
3932.00,0.0014
3931.00,0.0014
3930.00,0.0014
3929.00,0.0014
3928.00,0.0014
3927.00,0.0014
3926.00,0.0014
3925.00,0.0014
3924.00,0.0015
3923.00,0.0015
3922.00,0.0014
3921.00,0.0014
3920.00,0.0014
3919.00,0.0014
3918.00,0.0014
3917.00,0.0015
3916.00,0.0015
3915.00,0.0015
3914.00,0.0015
3913.00,0.0015
3912.00,0.0015
3911.00,0.0015
3910.00,0.0014
3909.00,0.0014
3908.00,0.0014
3907.00,0.0014
3906.00,0.0014
3905.00,0.0014
3904.00,0.0014
3903.00,0.0014
3902.00,0.0014
3901.00,0.0014
3900.00,0.0014
3899.00,0.0014
3898.00,0.0014
3897.00,0.0015
3896.00,0.0015
3895.00,0.0015
3894.00,0.0014
3893.00,0.0014
3892.00,0.0014
3891.00,0.0014
3890.00,0.0014
3889.00,0.0014
3888.00,0.0014
3887.00,0.0014
3886.00,0.0014
3885.00,0.0014
3884.00,0.0014
3883.00,0.0014
3882.00,0.0014
3881.00,0.0015
3880.00,0.0015
3879.00,0.0015
3878.00,0.0014
3877.00,0.0014
3876.00,0.0014
3875.00,0.0014
3874.00,0.0014
3873.00,0.0014
3872.00,0.0015
3871.00,0.0015
3870.00,0.0015
3869.00,0.0015
3868.00,0.0014
3867.00,0.0014
3866.00,0.0013
3865.00,0.0014
3864.00,0.0014
3863.00,0.0015
3862.00,0.0015
3861.00,0.0015
3860.00,0.0015
3859.00,0.0015
3858.00,0.0015
3857.00,0.0015
3856.00,0.0015
3855.00,0.0015
3854.00,0.0014
3853.00,0.0014
3852.00,0.0014
3851.00,0.0015
3850.00,0.0015
3849.00,0.0015
3848.00,0.0015
3847.00,0.0015
3846.00,0.0015
3845.00,0.0015
3844.00,0.0014
3843.00,0.0014
3842.00,0.0014
3841.00,0.0014
3840.00,0.0015
3839.00,0.0015
3838.00,0.0016
3837.00,0.0016
3836.00,0.0015
3835.00,0.0015
3834.00,0.0015
3833.00,0.0014
3832.00,0.0014
3831.00,0.0014
3830.00,0.0014
3829.00,0.0014
3828.00,0.0014
3827.00,0.0014
3826.00,0.0014
3825.00,0.0014
3824.00,0.0014
3823.00,0.0014
3822.00,0.0014
3821.00,0.0014
3820.00,0.0014
3819.00,0.0014
3818.00,0.0015
3817.00,0.0015
3816.00,0.0015
3815.00,0.0015
3814.00,0.0015
3813.00,0.0015
3812.00,0.0014
3811.00,0.0014
3810.00,0.0014
3809.00,0.0014
3808.00,0.0014
3807.00,0.0015
3806.00,0.0015
3805.00,0.0015
3804.00,0.0015
3803.00,0.0014
3802.00,0.0014
3801.00,0.0014
3800.00,0.0014
3799.00,0.0015
3798.00,0.0015
3797.00,0.0015
3796.00,0.0014
3795.00,0.0014
3794.00,0.0014
3793.00,0.0014
3792.00,0.0014
3791.00,0.0015
3790.00,0.0015
3789.00,0.0015
3788.00,0.0015
3787.00,0.0015
3786.00,0.0015
3785.00,0.0015
3784.00,0.0015
3783.00,0.0014
3782.00,0.0014
3781.00,0.0014
3780.00,0.0014
3779.00,0.0014
3778.00,0.0014
3777.00,0.0014
3776.00,0.0014
3775.00,0.0013
3774.00,0.0013
3773.00,0.0013
3772.00,0.0014
3771.00,0.0014
3770.00,0.0014
3769.00,0.0015
3768.00,0.0014
3767.00,0.0014
3766.00,0.0014
3765.00,0.0014
3764.00,0.0015
3763.00,0.0015
3762.00,0.0015
3761.00,0.0015
3760.00,0.0015
3759.00,0.0015
3758.00,0.0014
3757.00,0.0014
3756.00,0.0014
3755.00,0.0014
3754.00,0.0014
3753.00,0.0014
3752.00,0.0013
3751.00,0.0013
3750.00,0.0013
3749.00,0.0013
3748.00,0.0014
3747.00,0.0014
3746.00,0.0015
3745.00,0.0015
3744.00,0.0014
3743.00,0.0014
3742.00,0.0014
3741.00,0.0013
3740.00,0.0013
3739.00,0.0013
3738.00,0.0012
3737.00,0.0012
3736.00,0.0013
3735.00,0.0014
3734.00,0.0014
3733.00,0.0015
3732.00,0.0015
3731.00,0.0015
3730.00,0.0015
3729.00,0.0015
3728.00,0.0014
3727.00,0.0014
3726.00,0.0014
3725.00,0.0013
3724.00,0.0013
3723.00,0.0013
3722.00,0.0014
3721.00,0.0014
3720.00,0.0014
3719.00,0.0013
3718.00,0.0013
3717.00,0.0012
3716.00,0.0012
3715.00,0.0013
3714.00,0.0013
3713.00,0.0013
3712.00,0.0013
3711.00,0.0013
3710.00,0.0013
3709.00,0.0013
3708.00,0.0013
3707.00,0.0014
3706.00,0.0014
3705.00,0.0014
3704.00,0.0014
3703.00,0.0014
3702.00,0.0014
3701.00,0.0014
3700.00,0.0014
3699.00,0.0013
3698.00,0.0013
3697.00,0.0014
3696.00,0.0014
3695.00,0.0014
3694.00,0.0014
3693.00,0.0014
3692.00,0.0014
3691.00,0.0014
3690.00,0.0014
3689.00,0.0014
3688.00,0.0014
3687.00,0.0014
3686.00,0.0013
3685.00,0.0013
3684.00,0.0013
3683.00,0.0013
3682.00,0.0013
3681.00,0.0012
3680.00,0.0012
3679.00,0.0012
3678.00,0.0012
3677.00,0.0012
3676.00,0.0012
3675.00,0.0013
3674.00,0.0014
3673.00,0.0014
3672.00,0.0014
3671.00,0.0014
3670.00,0.0014
3669.00,0.0015
3668.00,0.0015
3667.00,0.0014
3666.00,0.0014
3665.00,0.0014
3664.00,0.0013
3663.00,0.0013
3662.00,0.0013
3661.00,0.0013
3660.00,0.0013
3659.00,0.0013
3658.00,0.0013
3657.00,0.0013
3656.00,0.0013
3655.00,0.0013
3654.00,0.0013
3653.00,0.0014
3652.00,0.0014
3651.00,0.0014
3650.00,0.0014
3649.00,0.0014
3648.00,0.0014
3647.00,0.0014
3646.00,0.0014
3645.00,0.0014
3644.00,0.0014
3643.00,0.0014
3642.00,0.0014
3641.00,0.0014
3640.00,0.0014
3639.00,0.0014
3638.00,0.0014
3637.00,0.0014
3636.00,0.0014
3635.00,0.0014
3634.00,0.0014
3633.00,0.0014
3632.00,0.0015
3631.00,0.0015
3630.00,0.0015
3629.00,0.0015
3628.00,0.0015
3627.00,0.0015
3626.00,0.0015
3625.00,0.0014
3624.00,0.0014
3623.00,0.0014
3622.00,0.0014
3621.00,0.0014
3620.00,0.0014
3619.00,0.0014
3618.00,0.0014
3617.00,0.0015
3616.00,0.0015
3615.00,0.0016
3614.00,0.0016
3613.00,0.0017
3612.00,0.0016
3611.00,0.0016
3610.00,0.0016
3609.00,0.0016
3608.00,0.0016
3607.00,0.0016
3606.00,0.0016
3605.00,0.0016
3604.00,0.0016
3603.00,0.0016
3602.00,0.0017
3601.00,0.0017
3600.00,0.0018
3599.00,0.0018
3598.00,0.0018
3597.00,0.0018
3596.00,0.0018
3595.00,0.0018
3594.00,0.0018
3593.00,0.0018
3592.00,0.0018
3591.00,0.0018
3590.00,0.0018
3589.00,0.0017
3588.00,0.0017
3587.00,0.0017
3586.00,0.0018
3585.00,0.0018
3584.00,0.0018
3583.00,0.0018
3582.00,0.0019
3581.00,0.0019
3580.00,0.0019
3579.00,0.0019
3578.00,0.0018
3577.00,0.0019
3576.00,0.0019
3575.00,0.0019
3574.00,0.0019
3573.00,0.0019
3572.00,0.0019
3571.00,0.0019
3570.00,0.0019
3569.00,0.0020
3568.00,0.0020
3567.00,0.0021
3566.00,0.0021
3565.00,0.0021
3564.00,0.0022
3563.00,0.0022
3562.00,0.0022
3561.00,0.0022
3560.00,0.0023
3559.00,0.0023
3558.00,0.0023
3557.00,0.0022
3556.00,0.0022
3555.00,0.0022
3554.00,0.0022
3553.00,0.0022
3552.00,0.0023
3551.00,0.0023
3550.00,0.0023
3549.00,0.0023
3548.00,0.0023
3547.00,0.0023
3546.00,0.0023
3545.00,0.0023
3544.00,0.0023
3543.00,0.0023
3542.00,0.0023
3541.00,0.0023
3540.00,0.0023
3539.00,0.0023
3538.00,0.0023
3537.00,0.0023
3536.00,0.0023
3535.00,0.0024
3534.00,0.0024
3533.00,0.0024
3532.00,0.0024
3531.00,0.0024
3530.00,0.0025
3529.00,0.0025
3528.00,0.0025
3527.00,0.0025
3526.00,0.0025
3525.00,0.0025
3524.00,0.0025
3523.00,0.0025
3522.00,0.0025
3521.00,0.0025
3520.00,0.0025
3519.00,0.0026
3518.00,0.0026
3517.00,0.0027
3516.00,0.0027
3515.00,0.0027
3514.00,0.0027
3513.00,0.0027
3512.00,0.0027
3511.00,0.0027
3510.00,0.0026
3509.00,0.0026
3508.00,0.0026
3507.00,0.0026
3506.00,0.0026
3505.00,0.0026
3504.00,0.0026
3503.00,0.0026
3502.00,0.0027
3501.00,0.0028
3500.00,0.0028
3499.00,0.0028
3498.00,0.0028
3497.00,0.0028
3496.00,0.0028
3495.00,0.0028
3494.00,0.0028
3493.00,0.0028
3492.00,0.0029
3491.00,0.0029
3490.00,0.0029
3489.00,0.0029
3488.00,0.0029
3487.00,0.0029
3486.00,0.0029
3485.00,0.0029
3484.00,0.0029
3483.00,0.0029
3482.00,0.0030
3481.00,0.0030
3480.00,0.0030
3479.00,0.0030
3478.00,0.0030
3477.00,0.0030
3476.00,0.0030
3475.00,0.0030
3474.00,0.0030
3473.00,0.0031
3472.00,0.0031
3471.00,0.0032
3470.00,0.0032
3469.00,0.0031
3468.00,0.0031
3467.00,0.0031
3466.00,0.0031
3465.00,0.0031
3464.00,0.0031
3463.00,0.0031
3462.00,0.0031
3461.00,0.0031
3460.00,0.0031
3459.00,0.0032
3458.00,0.0032
3457.00,0.0032
3456.00,0.0032
3455.00,0.0032
3454.00,0.0032
3453.00,0.0032
3452.00,0.0032
3451.00,0.0032
3450.00,0.0033
3449.00,0.0033
3448.00,0.0033
3447.00,0.0033
3446.00,0.0033
3445.00,0.0033
3444.00,0.0034
3443.00,0.0034
3442.00,0.0034
3441.00,0.0034
3440.00,0.0035
3439.00,0.0035
3438.00,0.0035
3437.00,0.0034
3436.00,0.0034
3435.00,0.0034
3434.00,0.0034
3433.00,0.0034
3432.00,0.0034
3431.00,0.0035
3430.00,0.0035
3429.00,0.0035
3428.00,0.0035
3427.00,0.0035
3426.00,0.0035
3425.00,0.0036
3424.00,0.0036
3423.00,0.0037
3422.00,0.0037
3421.00,0.0037
3420.00,0.0036
3419.00,0.0036
3418.00,0.0037
3417.00,0.0037
3416.00,0.0038
3415.00,0.0038
3414.00,0.0038
3413.00,0.0038
3412.00,0.0038
3411.00,0.0038
3410.00,0.0038
3409.00,0.0038
3408.00,0.0038
3407.00,0.0038
3406.00,0.0038
3405.00,0.0038
3404.00,0.0039
3403.00,0.0039
3402.00,0.0039
3401.00,0.0039
3400.00,0.0040
3399.00,0.0040
3398.00,0.0040
3397.00,0.0041
3396.00,0.0041
3395.00,0.0041
3394.00,0.0040
3393.00,0.0040
3392.00,0.0040
3391.00,0.0040
3390.00,0.0040
3389.00,0.0040
3388.00,0.0040
3387.00,0.0040
3386.00,0.0040
3385.00,0.0040
3384.00,0.0040
3383.00,0.0040
3382.00,0.0040
3381.00,0.0040
3380.00,0.0039
3379.00,0.0039
3378.00,0.0039
3377.00,0.0039
3376.00,0.0039
3375.00,0.0039
3374.00,0.0039
3373.00,0.0039
3372.00,0.0039
3371.00,0.0039
3370.00,0.0039
3369.00,0.0039
3368.00,0.0039
3367.00,0.0039
3366.00,0.0039
3365.00,0.0039
3364.00,0.0039
3363.00,0.0039
3362.00,0.0039
3361.00,0.0039
3360.00,0.0039
3359.00,0.0039
3358.00,0.0039
3357.00,0.0039
3356.00,0.0039
3355.00,0.0040
3354.00,0.0040
3353.00,0.0040
3352.00,0.0040
3351.00,0.0040
3350.00,0.0040
3349.00,0.0040
3348.00,0.0039
3347.00,0.0039
3346.00,0.0039
3345.00,0.0039
3344.00,0.0039
3343.00,0.0039
3342.00,0.0039
3341.00,0.0039
3340.00,0.0040
3339.00,0.0040
3338.00,0.0040
3337.00,0.0040
3336.00,0.0040
3335.00,0.0039
3334.00,0.0039
3333.00,0.0039
3332.00,0.0039
3331.00,0.0040
3330.00,0.0040
3329.00,0.0040
3328.00,0.0040
3327.00,0.0040
3326.00,0.0040
3325.00,0.0040
3324.00,0.0040
3323.00,0.0040
3322.00,0.0040
3321.00,0.0040
3320.00,0.0040
3319.00,0.0040
3318.00,0.0040
3317.00,0.0040
3316.00,0.0040
3315.00,0.0040
3314.00,0.0041
3313.00,0.0041
3312.00,0.0040
3311.00,0.0040
3310.00,0.0040
3309.00,0.0040
3308.00,0.0040
3307.00,0.0040
3306.00,0.0040
3305.00,0.0040
3304.00,0.0040
3303.00,0.0039
3302.00,0.0039
3301.00,0.0040
3300.00,0.0040
3299.00,0.0040
3298.00,0.0040
3297.00,0.0039
3296.00,0.0039
3295.00,0.0039
3294.00,0.0039
3293.00,0.0039
3292.00,0.0039
3291.00,0.0039
3290.00,0.0039
3289.00,0.0040
3288.00,0.0040
3287.00,0.0039
3286.00,0.0039
3285.00,0.0038
3284.00,0.0038
3283.00,0.0038
3282.00,0.0037
3281.00,0.0038
3280.00,0.0038
3279.00,0.0038
3278.00,0.0037
3277.00,0.0037
3276.00,0.0037
3275.00,0.0037
3274.00,0.0037
3273.00,0.0037
3272.00,0.0037
3271.00,0.0037
3270.00,0.0037
3269.00,0.0037
3268.00,0.0037
3267.00,0.0037
3266.00,0.0037
3265.00,0.0036
3264.00,0.0036
3263.00,0.0036
3262.00,0.0035
3261.00,0.0035
3260.00,0.0035
3259.00,0.0035
3258.00,0.0035
3257.00,0.0035
3256.00,0.0034
3255.00,0.0034
3254.00,0.0034
3253.00,0.0034
3252.00,0.0034
3251.00,0.0034
3250.00,0.0034
3249.00,0.0034
3248.00,0.0034
3247.00,0.0034
3246.00,0.0034
3245.00,0.0034
3244.00,0.0034
3243.00,0.0034
3242.00,0.0034
3241.00,0.0034
3240.00,0.0034
3239.00,0.0033
3238.00,0.0033
3237.00,0.0033
3236.00,0.0033
3235.00,0.0033
3234.00,0.0034
3233.00,0.0034
3232.00,0.0035
3231.00,0.0035
3230.00,0.0035
3229.00,0.0035
3228.00,0.0034
3227.00,0.0035
3226.00,0.0035
3225.00,0.0035
3224.00,0.0035
3223.00,0.0035
3222.00,0.0034
3221.00,0.0035
3220.00,0.0035
3219.00,0.0035
3218.00,0.0035
3217.00,0.0035
3216.00,0.0035
3215.00,0.0035
3214.00,0.0036
3213.00,0.0036
3212.00,0.0036
3211.00,0.0036
3210.00,0.0036
3209.00,0.0037
3208.00,0.0037
3207.00,0.0037
3206.00,0.0037
3205.00,0.0037
3204.00,0.0037
3203.00,0.0037
3202.00,0.0037
3201.00,0.0037
3200.00,0.0036
3199.00,0.0036
3198.00,0.0036
3197.00,0.0036
3196.00,0.0036
3195.00,0.0036
3194.00,0.0036
3193.00,0.0036
3192.00,0.0036
3191.00,0.0037
3190.00,0.0037
3189.00,0.0037
3188.00,0.0037
3187.00,0.0037
3186.00,0.0036
3185.00,0.0036
3184.00,0.0036
3183.00,0.0035
3182.00,0.0035
3181.00,0.0035
3180.00,0.0035
3179.00,0.0034
3178.00,0.0034
3177.00,0.0034
3176.00,0.0034
3175.00,0.0034
3174.00,0.0034
3173.00,0.0034
3172.00,0.0034
3171.00,0.0034
3170.00,0.0034
3169.00,0.0033
3168.00,0.0033
3167.00,0.0033
3166.00,0.0033
3165.00,0.0033
3164.00,0.0034
3163.00,0.0034
3162.00,0.0033
3161.00,0.0033
3160.00,0.0032
3159.00,0.0032
3158.00,0.0032
3157.00,0.0032
3156.00,0.0032
3155.00,0.0032
3154.00,0.0032
3153.00,0.0032
3152.00,0.0032
3151.00,0.0032
3150.00,0.0032
3149.00,0.0032
3148.00,0.0032
3147.00,0.0032
3146.00,0.0032
3145.00,0.0032
3144.00,0.0031
3143.00,0.0031
3142.00,0.0031
3141.00,0.0031
3140.00,0.0031
3139.00,0.0031
3138.00,0.0031
3137.00,0.0031
3136.00,0.0031
3135.00,0.0030
3134.00,0.0030
3133.00,0.0030
3132.00,0.0030
3131.00,0.0030
3130.00,0.0030
3129.00,0.0031
3128.00,0.0030
3127.00,0.0030
3126.00,0.0030
3125.00,0.0030
3124.00,0.0030
3123.00,0.0030
3122.00,0.0030
3121.00,0.0029
3120.00,0.0029
3119.00,0.0029
3118.00,0.0029
3117.00,0.0029
3116.00,0.0029
3115.00,0.0029
3114.00,0.0029
3113.00,0.0028
3112.00,0.0028
3111.00,0.0028
3110.00,0.0027
3109.00,0.0027
3108.00,0.0027
3107.00,0.0027
3106.00,0.0027
3105.00,0.0028
3104.00,0.0028
3103.00,0.0028
3102.00,0.0027
3101.00,0.0027
3100.00,0.0027
3099.00,0.0026
3098.00,0.0026
3097.00,0.0026
3096.00,0.0027
3095.00,0.0027
3094.00,0.0028
3093.00,0.0028
3092.00,0.0027
3091.00,0.0027
3090.00,0.0027
3089.00,0.0027
3088.00,0.0027
3087.00,0.0028
3086.00,0.0028
3085.00,0.0027
3084.00,0.0027
3083.00,0.0027
3082.00,0.0027
3081.00,0.0027
3080.00,0.0027
3079.00,0.0026
3078.00,0.0026
3077.00,0.0026
3076.00,0.0027
3075.00,0.0027
3074.00,0.0027
3073.00,0.0027
3072.00,0.0027
3071.00,0.0027
3070.00,0.0027
3069.00,0.0027
3068.00,0.0027
3067.00,0.0027
3066.00,0.0027
3065.00,0.0027
3064.00,0.0026
3063.00,0.0027
3062.00,0.0027
3061.00,0.0027
3060.00,0.0027
3059.00,0.0027
3058.00,0.0027
3057.00,0.0027
3056.00,0.0027
3055.00,0.0027
3054.00,0.0027
3053.00,0.0027
3052.00,0.0027
3051.00,0.0027
3050.00,0.0027
3049.00,0.0027
3048.00,0.0027
3047.00,0.0027
3046.00,0.0027
3045.00,0.0027
3044.00,0.0028
3043.00,0.0028
3042.00,0.0028
3041.00,0.0029
3040.00,0.0029
3039.00,0.0029
3038.00,0.0029
3037.00,0.0029
3036.00,0.0029
3035.00,0.0029
3034.00,0.0029
3033.00,0.0029
3032.00,0.0029
3031.00,0.0029
3030.00,0.0030
3029.00,0.0030
3028.00,0.0030
3027.00,0.0030
3026.00,0.0030
3025.00,0.0030
3024.00,0.0030
3023.00,0.0030
3022.00,0.0030
3021.00,0.0030
3020.00,0.0031
3019.00,0.0031
3018.00,0.0031
3017.00,0.0032
3016.00,0.0032
3015.00,0.0032
3014.00,0.0033
3013.00,0.0033
3012.00,0.0034
3011.00,0.0034
3010.00,0.0035
3009.00,0.0035
3008.00,0.0036
3007.00,0.0037
3006.00,0.0038
3005.00,0.0039
3004.00,0.0039
3003.00,0.0039
3002.00,0.0040
3001.00,0.0041
3000.00,0.0042
2999.00,0.0044
2998.00,0.0045
2997.00,0.0046
2996.00,0.0047
2995.00,0.0049
2994.00,0.0050
2993.00,0.0052
2992.00,0.0054
2991.00,0.0057
2990.00,0.0059
2989.00,0.0062
2988.00,0.0065
2987.00,0.0068
2986.00,0.0072
2985.00,0.0076
2984.00,0.0080
2983.00,0.0086
2982.00,0.0092
2981.00,0.0098
2980.00,0.0106
2979.00,0.0114
2978.00,0.0123
2977.00,0.0134
2976.00,0.0146
2975.00,0.0160
2974.00,0.0176
2973.00,0.0193
2972.00,0.0214
2971.00,0.0236
2970.00,0.0262
2969.00,0.0289
2968.00,0.0319
2967.00,0.0351
2966.00,0.0385
2965.00,0.0419
2964.00,0.0453
2963.00,0.0484
2962.00,0.0512
2961.00,0.0535
2960.00,0.0553
2959.00,0.0568
2958.00,0.0580
2957.00,0.0592
2956.00,0.0606
2955.00,0.0621
2954.00,0.0639
2953.00,0.0658
2952.00,0.0675
2951.00,0.0687
2950.00,0.0691
2949.00,0.0684
2948.00,0.0664
2947.00,0.0635
2946.00,0.0597
2945.00,0.0556
2944.00,0.0516
2943.00,0.0480
2942.00,0.0452
2941.00,0.0431
2940.00,0.0420
2939.00,0.0417
2938.00,0.0421
2937.00,0.0432
2936.00,0.0448
2935.00,0.0470
2934.00,0.0496
2933.00,0.0526
2932.00,0.0559
2931.00,0.0595
2930.00,0.0633
2929.00,0.0672
2928.00,0.0710
2927.00,0.0747
2926.00,0.0782
2925.00,0.0816
2924.00,0.0849
2923.00,0.0881
2922.00,0.0911
2921.00,0.0939
2920.00,0.0964
2919.00,0.0982
2918.00,0.0991
2917.00,0.0989
2916.00,0.0974
2915.00,0.0950
2914.00,0.0917
2913.00,0.0881
2912.00,0.0844
2911.00,0.0810
2910.00,0.0779
2909.00,0.0752
2908.00,0.0728
2907.00,0.0706
2906.00,0.0684
2905.00,0.0662
2904.00,0.0640
2903.00,0.0617
2902.00,0.0595
2901.00,0.0572
2900.00,0.0550
2899.00,0.0528
2898.00,0.0508
2897.00,0.0489
2896.00,0.0473
2895.00,0.0458
2894.00,0.0445
2893.00,0.0435
2892.00,0.0427
2891.00,0.0420
2890.00,0.0416
2889.00,0.0413
2888.00,0.0412
2887.00,0.0411
2886.00,0.0412
2885.00,0.0415
2884.00,0.0419
2883.00,0.0424
2882.00,0.0432
2881.00,0.0440
2880.00,0.0449
2879.00,0.0457
2878.00,0.0462
2877.00,0.0465
2876.00,0.0464
2875.00,0.0462
2874.00,0.0459
2873.00,0.0458
2872.00,0.0459
2871.00,0.0463
2870.00,0.0469
2869.00,0.0475
2868.00,0.0479
2867.00,0.0478
2866.00,0.0470
2865.00,0.0454
2864.00,0.0431
2863.00,0.0405
2862.00,0.0379
2861.00,0.0356
2860.00,0.0337
2859.00,0.0325
2858.00,0.0318
2857.00,0.0316
2856.00,0.0319
2855.00,0.0326
2854.00,0.0335
2853.00,0.0346
2852.00,0.0356
2851.00,0.0366
2850.00,0.0373
2849.00,0.0376
2848.00,0.0376
2847.00,0.0376
2846.00,0.0379
2845.00,0.0385
2844.00,0.0396
2843.00,0.0412
2842.00,0.0430
2841.00,0.0448
2840.00,0.0463
2839.00,0.0473
2838.00,0.0474
2837.00,0.0464
2836.00,0.0443
2835.00,0.0413
2834.00,0.0376
2833.00,0.0336
2832.00,0.0298
2831.00,0.0264
2830.00,0.0234
2829.00,0.0209
2828.00,0.0189
2827.00,0.0173
2826.00,0.0159
2825.00,0.0148
2824.00,0.0139
2823.00,0.0132
2822.00,0.0125
2821.00,0.0119
2820.00,0.0114
2819.00,0.0109
2818.00,0.0105
2817.00,0.0101
2816.00,0.0098
2815.00,0.0096
2814.00,0.0093
2813.00,0.0091
2812.00,0.0089
2811.00,0.0087
2810.00,0.0084
2809.00,0.0082
2808.00,0.0079
2807.00,0.0077
2806.00,0.0074
2805.00,0.0072
2804.00,0.0069
2803.00,0.0067
2802.00,0.0065
2801.00,0.0063
2800.00,0.0061
2799.00,0.0060
2798.00,0.0060
2797.00,0.0059
2796.00,0.0058
2795.00,0.0057
2794.00,0.0056
2793.00,0.0055
2792.00,0.0054
2791.00,0.0052
2790.00,0.0051
2789.00,0.0050
2788.00,0.0048
2787.00,0.0047
2786.00,0.0046
2785.00,0.0045
2784.00,0.0044
2783.00,0.0043
2782.00,0.0042
2781.00,0.0042
2780.00,0.0041
2779.00,0.0040
2778.00,0.0040
2777.00,0.0039
2776.00,0.0039
2775.00,0.0038
2774.00,0.0038
2773.00,0.0038
2772.00,0.0037
2771.00,0.0037
2770.00,0.0037
2769.00,0.0037
2768.00,0.0037
2767.00,0.0036
2766.00,0.0036
2765.00,0.0036
2764.00,0.0036
2763.00,0.0035
2762.00,0.0035
2761.00,0.0035
2760.00,0.0035
2759.00,0.0035
2758.00,0.0035
2757.00,0.0035
2756.00,0.0035
2755.00,0.0036
2754.00,0.0035
2753.00,0.0035
2752.00,0.0035
2751.00,0.0035
2750.00,0.0035
2749.00,0.0035
2748.00,0.0035
2747.00,0.0035
2746.00,0.0035
2745.00,0.0035
2744.00,0.0036
2743.00,0.0036
2742.00,0.0037
2741.00,0.0037
2740.00,0.0038
2739.00,0.0038
2738.00,0.0038
2737.00,0.0038
2736.00,0.0038
2735.00,0.0039
2734.00,0.0039
2733.00,0.0040
2732.00,0.0041
2731.00,0.0042
2730.00,0.0043
2729.00,0.0043
2728.00,0.0044
2727.00,0.0045
2726.00,0.0047
2725.00,0.0047
2724.00,0.0048
2723.00,0.0048
2722.00,0.0048
2721.00,0.0047
2720.00,0.0046
2719.00,0.0044
2718.00,0.0043
2717.00,0.0042
2716.00,0.0041
2715.00,0.0040
2714.00,0.0040
2713.00,0.0039
2712.00,0.0038
2711.00,0.0037
2710.00,0.0036
2709.00,0.0036
2708.00,0.0035
2707.00,0.0035
2706.00,0.0034
2705.00,0.0034
2704.00,0.0033
2703.00,0.0032
2702.00,0.0032
2701.00,0.0032
2700.00,0.0032
2699.00,0.0032
2698.00,0.0032
2697.00,0.0032
2696.00,0.0032
2695.00,0.0032
2694.00,0.0032
2693.00,0.0031
2692.00,0.0031
2691.00,0.0031
2690.00,0.0031
2689.00,0.0031
2688.00,0.0031
2687.00,0.0031
2686.00,0.0031
2685.00,0.0031
2684.00,0.0031
2683.00,0.0031
2682.00,0.0031
2681.00,0.0031
2680.00,0.0032
2679.00,0.0032
2678.00,0.0032
2677.00,0.0032
2676.00,0.0032
2675.00,0.0031
2674.00,0.0031
2673.00,0.0031
2672.00,0.0031
2671.00,0.0031
2670.00,0.0031
2669.00,0.0031
2668.00,0.0031
2667.00,0.0032
2666.00,0.0032
2665.00,0.0032
2664.00,0.0033
2663.00,0.0034
2662.00,0.0034
2661.00,0.0034
2660.00,0.0034
2659.00,0.0034
2658.00,0.0034
2657.00,0.0034
2656.00,0.0034
2655.00,0.0033
2654.00,0.0033
2653.00,0.0033
2652.00,0.0033
2651.00,0.0032
2650.00,0.0032
2649.00,0.0032
2648.00,0.0032
2647.00,0.0032
2646.00,0.0031
2645.00,0.0031
2644.00,0.0031
2643.00,0.0031
2642.00,0.0031
2641.00,0.0031
2640.00,0.0030
2639.00,0.0030
2638.00,0.0030
2637.00,0.0030
2636.00,0.0029
2635.00,0.0029
2634.00,0.0029
2633.00,0.0029
2632.00,0.0029
2631.00,0.0030
2630.00,0.0030
2629.00,0.0029
2628.00,0.0029
2627.00,0.0029
2626.00,0.0029
2625.00,0.0029
2624.00,0.0029
2623.00,0.0029
2622.00,0.0029
2621.00,0.0029
2620.00,0.0029
2619.00,0.0029
2618.00,0.0029
2617.00,0.0029
2616.00,0.0029
2615.00,0.0029
2614.00,0.0029
2613.00,0.0029
2612.00,0.0029
2611.00,0.0029
2610.00,0.0029
2609.00,0.0028
2608.00,0.0027
2607.00,0.0026
2606.00,0.0026
2605.00,0.0026
2604.00,0.0026
2603.00,0.0026
2602.00,0.0025
2601.00,0.0025
2600.00,0.0025
2599.00,0.0026
2598.00,0.0026
2597.00,0.0026
2596.00,0.0026
2595.00,0.0026
2594.00,0.0025
2593.00,0.0025
2592.00,0.0024
2591.00,0.0024
2590.00,0.0025
2589.00,0.0025
2588.00,0.0025
2587.00,0.0026
2586.00,0.0026
2585.00,0.0027
2584.00,0.0027
2583.00,0.0027
2582.00,0.0027
2581.00,0.0027
2580.00,0.0027
2579.00,0.0026
2578.00,0.0027
2577.00,0.0027
2576.00,0.0027
2575.00,0.0026
2574.00,0.0025
2573.00,0.0024
2572.00,0.0024
2571.00,0.0023
2570.00,0.0022
2569.00,0.0022
2568.00,0.0022
2567.00,0.0022
2566.00,0.0022
2565.00,0.0022
2564.00,0.0022
2563.00,0.0022
2562.00,0.0022
2561.00,0.0022
2560.00,0.0022
2559.00,0.0021
2558.00,0.0020
2557.00,0.0019
2556.00,0.0019
2555.00,0.0020
2554.00,0.0020
2553.00,0.0021
2552.00,0.0021
2551.00,0.0021
2550.00,0.0021
2549.00,0.0020
2548.00,0.0020
2547.00,0.0019
2546.00,0.0018
2545.00,0.0018
2544.00,0.0018
2543.00,0.0018
2542.00,0.0018
2541.00,0.0019
2540.00,0.0018
2539.00,0.0018
2538.00,0.0018
2537.00,0.0017
2536.00,0.0017
2535.00,0.0017
2534.00,0.0017
2533.00,0.0017
2532.00,0.0017
2531.00,0.0017
2530.00,0.0017
2529.00,0.0017
2528.00,0.0017
2527.00,0.0017
2526.00,0.0017
2525.00,0.0016
2524.00,0.0016
2523.00,0.0016
2522.00,0.0016
2521.00,0.0016
2520.00,0.0016
2519.00,0.0016
2518.00,0.0017
2517.00,0.0017
2516.00,0.0016
2515.00,0.0016
2514.00,0.0016
2513.00,0.0015
2512.00,0.0015
2511.00,0.0016
2510.00,0.0016
2509.00,0.0016
2508.00,0.0016
2507.00,0.0016
2506.00,0.0016
2505.00,0.0016
2504.00,0.0015
2503.00,0.0015
2502.00,0.0015
2501.00,0.0015
2500.00,0.0015
2499.00,0.0015
2498.00,0.0014
2497.00,0.0014
2496.00,0.0014
2495.00,0.0014
2494.00,0.0015
2493.00,0.0015
2492.00,0.0015
2491.00,0.0014
2490.00,0.0013
2489.00,0.0014
2488.00,0.0014
2487.00,0.0015
2486.00,0.0016
2485.00,0.0016
2484.00,0.0017
2483.00,0.0016
2482.00,0.0015
2481.00,0.0014
2480.00,0.0014
2479.00,0.0014
2478.00,0.0014
2477.00,0.0015
2476.00,0.0015
2475.00,0.0015
2474.00,0.0014
2473.00,0.0014
2472.00,0.0014
2471.00,0.0015
2470.00,0.0015
2469.00,0.0016
2468.00,0.0016
2467.00,0.0016
2466.00,0.0015
2465.00,0.0015
2464.00,0.0014
2463.00,0.0014
2462.00,0.0014
2461.00,0.0015
2460.00,0.0015
2459.00,0.0016
2458.00,0.0017
2457.00,0.0017
2456.00,0.0017
2455.00,0.0016
2454.00,0.0016
2453.00,0.0016
2452.00,0.0016
2451.00,0.0016
2450.00,0.0016
2449.00,0.0016
2448.00,0.0016
2447.00,0.0017
2446.00,0.0017
2445.00,0.0017
2444.00,0.0017
2443.00,0.0016
2442.00,0.0016
2441.00,0.0016
2440.00,0.0015
2439.00,0.0015
2438.00,0.0015
2437.00,0.0016
2436.00,0.0015
2435.00,0.0015
2434.00,0.0015
2433.00,0.0015
2432.00,0.0015
2431.00,0.0015
2430.00,0.0015
2429.00,0.0014
2428.00,0.0014
2427.00,0.0014
2426.00,0.0014
2425.00,0.0014
2424.00,0.0014
2423.00,0.0014
2422.00,0.0014
2421.00,0.0014
2420.00,0.0014
2419.00,0.0014
2418.00,0.0014
2417.00,0.0013
2416.00,0.0013
2415.00,0.0013
2414.00,0.0013
2413.00,0.0014
2412.00,0.0014
2411.00,0.0014
2410.00,0.0014
2409.00,0.0014
2408.00,0.0014
2407.00,0.0014
2406.00,0.0013
2405.00,0.0013
2404.00,0.0013
2403.00,0.0013
2402.00,0.0013
2401.00,0.0013
2400.00,0.0013
2399.00,0.0013
2398.00,0.0013
2397.00,0.0014
2396.00,0.0014
2395.00,0.0013
2394.00,0.0013
2393.00,0.0012
2392.00,0.0012
2391.00,0.0012
2390.00,0.0012
2389.00,0.0012
2388.00,0.0012
2387.00,0.0012
2386.00,0.0012
2385.00,0.0012
2384.00,0.0012
2383.00,0.0011
2382.00,0.0011
2381.00,0.0010
2380.00,0.0010
2379.00,0.0009
2378.00,0.0009
2377.00,0.0009
2376.00,0.0009
2375.00,0.0010
2374.00,0.0011
2373.00,0.0011
2372.00,0.0011
2371.00,0.0010
2370.00,0.0010
2369.00,0.0010
2368.00,0.0010
2367.00,0.0011
2366.00,0.0012
2365.00,0.0013
2364.00,0.0013
2363.00,0.0013
2362.00,0.0012
2361.00,0.0012
2360.00,0.0011
2359.00,0.0011
2358.00,0.0011
2357.00,0.0011
2356.00,0.0012
2355.00,0.0012
2354.00,0.0012
2353.00,0.0011
2352.00,0.0011
2351.00,0.0011
2350.00,0.0011
2349.00,0.0012
2348.00,0.0013
2347.00,0.0014
2346.00,0.0014
2345.00,0.0014
2344.00,0.0014
2343.00,0.0014
2342.00,0.0013
2341.00,0.0013
2340.00,0.0014
2339.00,0.0014
2338.00,0.0014
2337.00,0.0014
2336.00,0.0014
2335.00,0.0013
2334.00,0.0013
2333.00,0.0013
2332.00,0.0013
2331.00,0.0013
2330.00,0.0014
2329.00,0.0014
2328.00,0.0016
2327.00,0.0018
2326.00,0.0021
2325.00,0.0023
2324.00,0.0024
2323.00,0.0023
2322.00,0.0021
2321.00,0.0020
2320.00,0.0019
2319.00,0.0018
2318.00,0.0018
2317.00,0.0018
2316.00,0.0017
2315.00,0.0017
2314.00,0.0017
2313.00,0.0017
2312.00,0.0016
2311.00,0.0016
2310.00,0.0015
2309.00,0.0014
2308.00,0.0014
2307.00,0.0014
2306.00,0.0014
2305.00,0.0015
2304.00,0.0015
2303.00,0.0016
2302.00,0.0017
2301.00,0.0017
2300.00,0.0017
2299.00,0.0017
2298.00,0.0017
2297.00,0.0017
2296.00,0.0017
2295.00,0.0018
2294.00,0.0018
2293.00,0.0017
2292.00,0.0017
2291.00,0.0018
2290.00,0.0018
2289.00,0.0019
2288.00,0.0020
2287.00,0.0020
2286.00,0.0021
2285.00,0.0021
2284.00,0.0022
2283.00,0.0021
2282.00,0.0020
2281.00,0.0019
2280.00,0.0018
2279.00,0.0017
2278.00,0.0017
2277.00,0.0017
2276.00,0.0017
2275.00,0.0017
2274.00,0.0017
2273.00,0.0016
2272.00,0.0016
2271.00,0.0015
2270.00,0.0015
2269.00,0.0016
2268.00,0.0016
2267.00,0.0017
2266.00,0.0016
2265.00,0.0016
2264.00,0.0015
2263.00,0.0015
2262.00,0.0016
2261.00,0.0017
2260.00,0.0017
2259.00,0.0016
2258.00,0.0016
2257.00,0.0016
2256.00,0.0016
2255.00,0.0016
2254.00,0.0015
2253.00,0.0014
2252.00,0.0014
2251.00,0.0015
2250.00,0.0015
2249.00,0.0016
2248.00,0.0017
2247.00,0.0017
2246.00,0.0016
2245.00,0.0014
2244.00,0.0013
2243.00,0.0012
2242.00,0.0013
2241.00,0.0014
2240.00,0.0015
2239.00,0.0016
2238.00,0.0016
2237.00,0.0017
2236.00,0.0016
2235.00,0.0015
2234.00,0.0013
2233.00,0.0012
2232.00,0.0012
2231.00,0.0013
2230.00,0.0013
2229.00,0.0015
2228.00,0.0016
2227.00,0.0017
2226.00,0.0017
2225.00,0.0017
2224.00,0.0016
2223.00,0.0015
2222.00,0.0015
2221.00,0.0016
2220.00,0.0016
2219.00,0.0016
2218.00,0.0015
2217.00,0.0013
2216.00,0.0012
2215.00,0.0011
2214.00,0.0011
2213.00,0.0011
2212.00,0.0011
2211.00,0.0012
2210.00,0.0012
2209.00,0.0012
2208.00,0.0012
2207.00,0.0012
2206.00,0.0012
2205.00,0.0013
2204.00,0.0014
2203.00,0.0013
2202.00,0.0013
2201.00,0.0013
2200.00,0.0013
2199.00,0.0013
2198.00,0.0013
2197.00,0.0012
2196.00,0.0012
2195.00,0.0011
2194.00,0.0011
2193.00,0.0011
2192.00,0.0012
2191.00,0.0013
2190.00,0.0013
2189.00,0.0013
2188.00,0.0012
2187.00,0.0011
2186.00,0.0011
2185.00,0.0011
2184.00,0.0011
2183.00,0.0011
2182.00,0.0009
2181.00,0.0008
2180.00,0.0008
2179.00,0.0009
2178.00,0.0010
2177.00,0.0010
2176.00,0.0010
2175.00,0.0010
2174.00,0.0010
2173.00,0.0011
2172.00,0.0012
2171.00,0.0015
2170.00,0.0018
2169.00,0.0022
2168.00,0.0023
2167.00,0.0023
2166.00,0.0022
2165.00,0.0022
2164.00,0.0024
2163.00,0.0027
2162.00,0.0029
2161.00,0.0026
2160.00,0.0017
2159.00,0.0005
2158.00,-0.0004
2157.00,-0.0008
2156.00,-0.0008
2155.00,-0.0007
2154.00,-0.0007
2153.00,-0.0005
2152.00,-0.0003
2151.00,-0.0000
2150.00,0.0002
2149.00,0.0002
2148.00,0.0001
2147.00,-0.0001
2146.00,-0.0002
2145.00,-0.0002
2144.00,-0.0000
2143.00,0.0001
2142.00,0.0002
2141.00,0.0002
2140.00,0.0001
2139.00,-0.0001
2138.00,-0.0004
2137.00,-0.0005
2136.00,-0.0005
2135.00,-0.0005
2134.00,-0.0004
2133.00,-0.0003
2132.00,-0.0002
2131.00,-0.0002
2130.00,-0.0001
2129.00,0.0000
2128.00,0.0002
2127.00,0.0003
2126.00,0.0004
2125.00,0.0005
2124.00,0.0006
2123.00,0.0007
2122.00,0.0008
2121.00,0.0008
2120.00,0.0007
2119.00,0.0007
2118.00,0.0006
2117.00,0.0007
2116.00,0.0008
2115.00,0.0009
2114.00,0.0009
2113.00,0.0009
2112.00,0.0010
2111.00,0.0010
2110.00,0.0010
2109.00,0.0010
2108.00,0.0009
2107.00,0.0009
2106.00,0.0009
2105.00,0.0010
2104.00,0.0010
2103.00,0.0011
2102.00,0.0010
2101.00,0.0010
2100.00,0.0010
2099.00,0.0010
2098.00,0.0011
2097.00,0.0011
2096.00,0.0011
2095.00,0.0010
2094.00,0.0010
2093.00,0.0010
2092.00,0.0011
2091.00,0.0013
2090.00,0.0014
2089.00,0.0014
2088.00,0.0013
2087.00,0.0011
2086.00,0.0010
2085.00,0.0010
2084.00,0.0011
2083.00,0.0011
2082.00,0.0010
2081.00,0.0009
2080.00,0.0009
2079.00,0.0010
2078.00,0.0010
2077.00,0.0011
2076.00,0.0011
2075.00,0.0012
2074.00,0.0012
2073.00,0.0011
2072.00,0.0012
2071.00,0.0012
2070.00,0.0012
2069.00,0.0012
2068.00,0.0011
2067.00,0.0010
2066.00,0.0009
2065.00,0.0009
2064.00,0.0008
2063.00,0.0007
2062.00,0.0006
2061.00,0.0006
2060.00,0.0007
2059.00,0.0009
2058.00,0.0012
2057.00,0.0013
2056.00,0.0013
2055.00,0.0012
2054.00,0.0012
2053.00,0.0014
2052.00,0.0017
2051.00,0.0019
2050.00,0.0019
2049.00,0.0017
2048.00,0.0013
2047.00,0.0010
2046.00,0.0008
2045.00,0.0008
2044.00,0.0010
2043.00,0.0012
2042.00,0.0013
2041.00,0.0013
2040.00,0.0012
2039.00,0.0011
2038.00,0.0010
2037.00,0.0010
2036.00,0.0009
2035.00,0.0007
2034.00,0.0005
2033.00,0.0003
2032.00,0.0002
2031.00,0.0002
2030.00,0.0002
2029.00,0.0003
2028.00,0.0003
2027.00,0.0004
2026.00,0.0005
2025.00,0.0007
2024.00,0.0007
2023.00,0.0004
2022.00,0.0001
2021.00,-0.0002
2020.00,-0.0002
2019.00,0.0001
2018.00,0.0004
2017.00,0.0004
2016.00,0.0004
2015.00,0.0003
2014.00,0.0002
2013.00,0.0002
2012.00,0.0003
2011.00,0.0004
2010.00,0.0005
2009.00,0.0004
2008.00,0.0002
2007.00,-0.0001
2006.00,-0.0002
2005.00,-0.0002
2004.00,0.0001
2003.00,0.0002
2002.00,0.0002
2001.00,0.0002
2000.00,0.0001
1999.00,0.0001
1998.00,0.0001
1997.00,0.0003
1996.00,0.0005
1995.00,0.0008
1994.00,0.0008
1993.00,0.0007
1992.00,0.0005
1991.00,0.0005
1990.00,0.0006
1989.00,0.0008
1988.00,0.0010
1987.00,0.0010
1986.00,0.0008
1985.00,0.0006
1984.00,0.0007
1983.00,0.0010
1982.00,0.0014
1981.00,0.0016
1980.00,0.0017
1979.00,0.0016
1978.00,0.0013
1977.00,0.0009
1976.00,0.0004
1975.00,0.0000
1974.00,0.0000
1973.00,0.0003
1972.00,0.0006
1971.00,0.0006
1970.00,0.0004
1969.00,0.0002
1968.00,0.0002
1967.00,0.0003
1966.00,0.0003
1965.00,0.0002
1964.00,0.0002
1963.00,0.0001
1962.00,0.0001
1961.00,0.0001
1960.00,0.0002
1959.00,0.0001
1958.00,0.0000
1957.00,-0.0000
1956.00,-0.0000
1955.00,-0.0001
1954.00,-0.0001
1953.00,-0.0002
1952.00,-0.0002
1951.00,-0.0002
1950.00,-0.0002
1949.00,-0.0002
1948.00,-0.0001
1947.00,0.0000
1946.00,0.0001
1945.00,0.0002
1944.00,0.0002
1943.00,0.0001
1942.00,0.0001
1941.00,0.0000
1940.00,0.0000
1939.00,0.0001
1938.00,0.0002
1937.00,0.0003
1936.00,0.0003
1935.00,0.0003
1934.00,0.0002
1933.00,0.0002
1932.00,0.0003
1931.00,0.0004
1930.00,0.0006
1929.00,0.0007
1928.00,0.0008
1927.00,0.0007
1926.00,0.0006
1925.00,0.0005
1924.00,0.0004
1923.00,0.0005
1922.00,0.0006
1921.00,0.0007
1920.00,0.0008
1919.00,0.0009
1918.00,0.0009
1917.00,0.0010
1916.00,0.0011
1915.00,0.0011
1914.00,0.0010
1913.00,0.0008
1912.00,0.0006
1911.00,0.0004
1910.00,0.0003
1909.00,0.0003
1908.00,0.0005
1907.00,0.0007
1906.00,0.0009
1905.00,0.0010
1904.00,0.0010
1903.00,0.0009
1902.00,0.0009
1901.00,0.0008
1900.00,0.0008
1899.00,0.0008
1898.00,0.0007
1897.00,0.0007
1896.00,0.0006
1895.00,0.0006
1894.00,0.0007
1893.00,0.0008
1892.00,0.0009
1891.00,0.0009
1890.00,0.0008
1889.00,0.0007
1888.00,0.0006
1887.00,0.0007
1886.00,0.0007
1885.00,0.0008
1884.00,0.0008
1883.00,0.0008
1882.00,0.0008
1881.00,0.0008
1880.00,0.0008
1879.00,0.0009
1878.00,0.0009
1877.00,0.0009
1876.00,0.0009
1875.00,0.0009
1874.00,0.0010
1873.00,0.0011
1872.00,0.0012
1871.00,0.0011
1870.00,0.0010
1869.00,0.0010
1868.00,0.0010
1867.00,0.0010
1866.00,0.0010
1865.00,0.0009
1864.00,0.0008
1863.00,0.0008
1862.00,0.0008
1861.00,0.0009
1860.00,0.0009
1859.00,0.0009
1858.00,0.0009
1857.00,0.0010
1856.00,0.0010
1855.00,0.0010
1854.00,0.0010
1853.00,0.0010
1852.00,0.0010
1851.00,0.0010
1850.00,0.0010
1849.00,0.0010
1848.00,0.0010
1847.00,0.0011
1846.00,0.0011
1845.00,0.0011
1844.00,0.0010
1843.00,0.0011
1842.00,0.0011
1841.00,0.0012
1840.00,0.0012
1839.00,0.0012
1838.00,0.0012
1837.00,0.0011
1836.00,0.0011
1835.00,0.0010
1834.00,0.0009
1833.00,0.0009
1832.00,0.0008
1831.00,0.0009
1830.00,0.0011
1829.00,0.0012
1828.00,0.0013
1827.00,0.0014
1826.00,0.0014
1825.00,0.0013
1824.00,0.0013
1823.00,0.0012
1822.00,0.0011
1821.00,0.0010
1820.00,0.0009
1819.00,0.0009
1818.00,0.0008
1817.00,0.0007
1816.00,0.0007
1815.00,0.0007
1814.00,0.0008
1813.00,0.0009
1812.00,0.0010
1811.00,0.0011
1810.00,0.0011
1809.00,0.0011
1808.00,0.0011
1807.00,0.0011
1806.00,0.0011
1805.00,0.0011
1804.00,0.0012
1803.00,0.0012
1802.00,0.0012
1801.00,0.0012
1800.00,0.0012
1799.00,0.0012
1798.00,0.0012
1797.00,0.0012
1796.00,0.0012
1795.00,0.0013
1794.00,0.0013
1793.00,0.0014
1792.00,0.0014
1791.00,0.0014
1790.00,0.0014
1789.00,0.0014
1788.00,0.0014
1787.00,0.0014
1786.00,0.0014
1785.00,0.0014
1784.00,0.0015
1783.00,0.0015
1782.00,0.0015
1781.00,0.0016
1780.00,0.0016
1779.00,0.0015
1778.00,0.0014
1777.00,0.0014
1776.00,0.0014
1775.00,0.0014
1774.00,0.0014
1773.00,0.0015
1772.00,0.0015
1771.00,0.0015
1770.00,0.0015
1769.00,0.0016
1768.00,0.0016
1767.00,0.0016
1766.00,0.0016
1765.00,0.0016
1764.00,0.0016
1763.00,0.0016
1762.00,0.0017
1761.00,0.0017
1760.00,0.0017
1759.00,0.0017
1758.00,0.0017
1757.00,0.0017
1756.00,0.0017
1755.00,0.0018
1754.00,0.0019
1753.00,0.0019
1752.00,0.0019
1751.00,0.0019
1750.00,0.0019
1749.00,0.0020
1748.00,0.0020
1747.00,0.0020
1746.00,0.0021
1745.00,0.0022
1744.00,0.0022
1743.00,0.0022
1742.00,0.0022
1741.00,0.0022
1740.00,0.0023
1739.00,0.0023
1738.00,0.0023
1737.00,0.0023
1736.00,0.0022
1735.00,0.0021
1734.00,0.0021
1733.00,0.0022
1732.00,0.0023
1731.00,0.0023
1730.00,0.0023
1729.00,0.0023
1728.00,0.0023
1727.00,0.0023
1726.00,0.0023
1725.00,0.0023
1724.00,0.0023
1723.00,0.0022
1722.00,0.0022
1721.00,0.0022
1720.00,0.0023
1719.00,0.0024
1718.00,0.0024
1717.00,0.0024
1716.00,0.0024
1715.00,0.0024
1714.00,0.0023
1713.00,0.0023
1712.00,0.0023
1711.00,0.0023
1710.00,0.0023
1709.00,0.0023
1708.00,0.0024
1707.00,0.0024
1706.00,0.0025
1705.00,0.0025
1704.00,0.0026
1703.00,0.0026
1702.00,0.0027
1701.00,0.0027
1700.00,0.0028
1699.00,0.0028
1698.00,0.0028
1697.00,0.0028
1696.00,0.0028
1695.00,0.0028
1694.00,0.0028
1693.00,0.0028
1692.00,0.0028
1691.00,0.0028
1690.00,0.0029
1689.00,0.0029
1688.00,0.0030
1687.00,0.0030
1686.00,0.0031
1685.00,0.0031
1684.00,0.0032
1683.00,0.0034
1682.00,0.0034
1681.00,0.0035
1680.00,0.0035
1679.00,0.0035
1678.00,0.0036
1677.00,0.0037
1676.00,0.0038
1675.00,0.0039
1674.00,0.0040
1673.00,0.0040
1672.00,0.0039
1671.00,0.0039
1670.00,0.0040
1669.00,0.0040
1668.00,0.0041
1667.00,0.0041
1666.00,0.0042
1665.00,0.0042
1664.00,0.0042
1663.00,0.0043
1662.00,0.0044
1661.00,0.0045
1660.00,0.0046
1659.00,0.0046
1658.00,0.0047
1657.00,0.0048
1656.00,0.0050
1655.00,0.0052
1654.00,0.0054
1653.00,0.0056
1652.00,0.0056
1651.00,0.0057
1650.00,0.0057
1649.00,0.0059
1648.00,0.0061
1647.00,0.0063
1646.00,0.0065
1645.00,0.0065
1644.00,0.0064
1643.00,0.0062
1642.00,0.0061
1641.00,0.0061
1640.00,0.0060
1639.00,0.0060
1638.00,0.0060
1637.00,0.0061
1636.00,0.0061
1635.00,0.0061
1634.00,0.0061
1633.00,0.0061
1632.00,0.0061
1631.00,0.0061
1630.00,0.0060
1629.00,0.0060
1628.00,0.0060
1627.00,0.0059
1626.00,0.0059
1625.00,0.0058
1624.00,0.0058
1623.00,0.0057
1622.00,0.0056
1621.00,0.0055
1620.00,0.0055
1619.00,0.0055
1618.00,0.0054
1617.00,0.0054
1616.00,0.0053
1615.00,0.0053
1614.00,0.0052
1613.00,0.0052
1612.00,0.0052
1611.00,0.0052
1610.00,0.0053
1609.00,0.0053
1608.00,0.0053
1607.00,0.0053
1606.00,0.0052
1605.00,0.0052
1604.00,0.0052
1603.00,0.0052
1602.00,0.0053
1601.00,0.0053
1600.00,0.0053
1599.00,0.0053
1598.00,0.0053
1597.00,0.0054
1596.00,0.0054
1595.00,0.0054
1594.00,0.0055
1593.00,0.0055
1592.00,0.0057
1591.00,0.0058
1590.00,0.0059
1589.00,0.0060
1588.00,0.0062
1587.00,0.0063
1586.00,0.0066
1585.00,0.0068
1584.00,0.0072
1583.00,0.0075
1582.00,0.0079
1581.00,0.0083
1580.00,0.0086
1579.00,0.0089
1578.00,0.0091
1577.00,0.0091
1576.00,0.0090
1575.00,0.0089
1574.00,0.0086
1573.00,0.0084
1572.00,0.0081
1571.00,0.0078
1570.00,0.0074
1569.00,0.0070
1568.00,0.0067
1567.00,0.0065
1566.00,0.0063
1565.00,0.0062
1564.00,0.0061
1563.00,0.0061
1562.00,0.0061
1561.00,0.0061
1560.00,0.0061
1559.00,0.0060
1558.00,0.0060
1557.00,0.0060
1556.00,0.0060
1555.00,0.0061
1554.00,0.0062
1553.00,0.0063
1552.00,0.0065
1551.00,0.0066
1550.00,0.0069
1549.00,0.0071
1548.00,0.0074
1547.00,0.0078
1546.00,0.0082
1545.00,0.0087
1544.00,0.0092
1543.00,0.0098
1542.00,0.0102
1541.00,0.0107
1540.00,0.0110
1539.00,0.0109
1538.00,0.0106
1537.00,0.0102
1536.00,0.0099
1535.00,0.0094
1534.00,0.0089
1533.00,0.0084
1532.00,0.0079
1531.00,0.0076
1530.00,0.0073
1529.00,0.0071
1528.00,0.0069
1527.00,0.0067
1526.00,0.0065
1525.00,0.0063
1524.00,0.0062
1523.00,0.0061
1522.00,0.0060
1521.00,0.0059
1520.00,0.0058
1519.00,0.0058
1518.00,0.0057
1517.00,0.0057
1516.00,0.0057
1515.00,0.0056
1514.00,0.0056
1513.00,0.0056
1512.00,0.0056
1511.00,0.0056
1510.00,0.0056
1509.00,0.0057
1508.00,0.0057
1507.00,0.0056
1506.00,0.0057
1505.00,0.0057
1504.00,0.0057
1503.00,0.0058
1502.00,0.0058
1501.00,0.0060
1500.00,0.0061
1499.00,0.0064
1498.00,0.0066
1497.00,0.0070
1496.00,0.0073
1495.00,0.0076
1494.00,0.0078
1493.00,0.0080
1492.00,0.0081
1491.00,0.0082
1490.00,0.0084
1489.00,0.0086
1488.00,0.0089
1487.00,0.0092
1486.00,0.0096
1485.00,0.0099
1484.00,0.0104
1483.00,0.0108
1482.00,0.0113
1481.00,0.0119
1480.00,0.0126
1479.00,0.0133
1478.00,0.0140
1477.00,0.0149
1476.00,0.0161
1475.00,0.0174
1474.00,0.0191
1473.00,0.0215
1472.00,0.0243
1471.00,0.0269
1470.00,0.0294
1469.00,0.0319
1468.00,0.0347
1467.00,0.0377
1466.00,0.0412
1465.00,0.0449
1464.00,0.0482
1463.00,0.0505
1462.00,0.0520
1461.00,0.0530
1460.00,0.0537
1459.00,0.0541
1458.00,0.0544
1457.00,0.0545
1456.00,0.0543
1455.00,0.0538
1454.00,0.0533
1453.00,0.0526
1452.00,0.0515
1451.00,0.0499
1450.00,0.0478
1449.00,0.0449
1448.00,0.0412
1447.00,0.0373
1446.00,0.0339
1445.00,0.0309
1444.00,0.0283
1443.00,0.0261
1442.00,0.0245
1441.00,0.0234
1440.00,0.0227
1439.00,0.0225
1438.00,0.0226
1437.00,0.0228
1436.00,0.0225
1435.00,0.0215
1434.00,0.0200
1433.00,0.0182
1432.00,0.0162
1431.00,0.0145
1430.00,0.0131
1429.00,0.0121
1428.00,0.0115
1427.00,0.0111
1426.00,0.0109
1425.00,0.0107
1424.00,0.0105
1423.00,0.0105
1422.00,0.0105
1421.00,0.0105
1420.00,0.0104
1419.00,0.0103
1418.00,0.0102
1417.00,0.0100
1416.00,0.0098
1415.00,0.0096
1414.00,0.0094
1413.00,0.0091
1412.00,0.0089
1411.00,0.0087
1410.00,0.0086
1409.00,0.0085
1408.00,0.0084
1407.00,0.0084
1406.00,0.0084
1405.00,0.0083
1404.00,0.0082
1403.00,0.0082
1402.00,0.0083
1401.00,0.0083
1400.00,0.0083
1399.00,0.0083
1398.00,0.0085
1397.00,0.0086
1396.00,0.0087
1395.00,0.0089
1394.00,0.0091
1393.00,0.0093
1392.00,0.0095
1391.00,0.0099
1390.00,0.0104
1389.00,0.0110
1388.00,0.0119
1387.00,0.0133
1386.00,0.0152
1385.00,0.0176
1384.00,0.0210
1383.00,0.0258
1382.00,0.0322
1381.00,0.0405
1380.00,0.0504
1379.00,0.0613
1378.00,0.0714
1377.00,0.0783
1376.00,0.0802
1375.00,0.0762
1374.00,0.0672
1373.00,0.0564
1372.00,0.0464
1371.00,0.0381
1370.00,0.0314
1369.00,0.0263
1368.00,0.0227
1367.00,0.0205
1366.00,0.0193
1365.00,0.0188
1364.00,0.0188
1363.00,0.0194
1362.00,0.0202
1361.00,0.0211
1360.00,0.0218
1359.00,0.0220
1358.00,0.0216
1357.00,0.0206
1356.00,0.0192
1355.00,0.0175
1354.00,0.0158
1353.00,0.0144
1352.00,0.0132
1351.00,0.0123
1350.00,0.0115
1349.00,0.0109
1348.00,0.0103
1347.00,0.0098
1346.00,0.0094
1345.00,0.0091
1344.00,0.0089
1343.00,0.0087
1342.00,0.0086
1341.00,0.0085
1340.00,0.0084
1339.00,0.0083
1338.00,0.0082
1337.00,0.0082
1336.00,0.0082
1335.00,0.0082
1334.00,0.0083
1333.00,0.0084
1332.00,0.0085
1331.00,0.0086
1330.00,0.0087
1329.00,0.0087
1328.00,0.0085
1327.00,0.0083
1326.00,0.0081
1325.00,0.0078
1324.00,0.0076
1323.00,0.0074
1322.00,0.0073
1321.00,0.0072
1320.00,0.0071
1319.00,0.0070
1318.00,0.0069
1317.00,0.0068
1316.00,0.0067
1315.00,0.0067
1314.00,0.0066
1313.00,0.0066
1312.00,0.0066
1311.00,0.0067
1310.00,0.0069
1309.00,0.0072
1308.00,0.0076
1307.00,0.0081
1306.00,0.0086
1305.00,0.0090
1304.00,0.0091
1303.00,0.0090
1302.00,0.0089
1301.00,0.0087
1300.00,0.0086
1299.00,0.0085
1298.00,0.0086
1297.00,0.0085
1296.00,0.0084
1295.00,0.0083
1294.00,0.0080
1293.00,0.0078
1292.00,0.0075
1291.00,0.0074
1290.00,0.0072
1289.00,0.0071
1288.00,0.0070
1287.00,0.0068
1286.00,0.0066
1285.00,0.0065
1284.00,0.0064
1283.00,0.0064
1282.00,0.0064
1281.00,0.0063
1280.00,0.0063
1279.00,0.0063
1278.00,0.0063
1277.00,0.0062
1276.00,0.0062
1275.00,0.0061
1274.00,0.0061
1273.00,0.0061
1272.00,0.0062
1271.00,0.0062
1270.00,0.0063
1269.00,0.0064
1268.00,0.0065
1267.00,0.0067
1266.00,0.0069
1265.00,0.0071
1264.00,0.0072
1263.00,0.0074
1262.00,0.0075
1261.00,0.0078
1260.00,0.0080
1259.00,0.0084
1258.00,0.0087
1257.00,0.0089
1256.00,0.0090
1255.00,0.0089
1254.00,0.0085
1253.00,0.0081
1252.00,0.0077
1251.00,0.0074
1250.00,0.0071
1249.00,0.0069
1248.00,0.0067
1247.00,0.0066
1246.00,0.0065
1245.00,0.0065
1244.00,0.0065
1243.00,0.0064
1242.00,0.0064
1241.00,0.0063
1240.00,0.0063
1239.00,0.0063
1238.00,0.0063
1237.00,0.0063
1236.00,0.0062
1235.00,0.0062
1234.00,0.0062
1233.00,0.0062
1232.00,0.0062
1231.00,0.0063
1230.00,0.0063
1229.00,0.0064
1228.00,0.0064
1227.00,0.0065
1226.00,0.0066
1225.00,0.0068
1224.00,0.0070
1223.00,0.0071
1222.00,0.0073
1221.00,0.0074
1220.00,0.0074
1219.00,0.0075
1218.00,0.0075
1217.00,0.0074
1216.00,0.0074
1215.00,0.0072
1214.00,0.0070
1213.00,0.0068
1212.00,0.0067
1211.00,0.0066
1210.00,0.0065
1209.00,0.0064
1208.00,0.0063
1207.00,0.0063
1206.00,0.0062
1205.00,0.0062
1204.00,0.0062
1203.00,0.0062
1202.00,0.0062
1201.00,0.0062
1200.00,0.0062
1199.00,0.0062
1198.00,0.0062
1197.00,0.0063
1196.00,0.0063
1195.00,0.0063
1194.00,0.0062
1193.00,0.0062
1192.00,0.0062
1191.00,0.0062
1190.00,0.0063
1189.00,0.0064
1188.00,0.0064
1187.00,0.0065
1186.00,0.0065
1185.00,0.0064
1184.00,0.0064
1183.00,0.0065
1182.00,0.0066
1181.00,0.0067
1180.00,0.0069
1179.00,0.0071
1178.00,0.0074
1177.00,0.0078
1176.00,0.0083
1175.00,0.0090
1174.00,0.0099
1173.00,0.0110
1172.00,0.0124
1171.00,0.0139
1170.00,0.0153
1169.00,0.0163
1168.00,0.0169
1167.00,0.0169
1166.00,0.0165
1165.00,0.0157
1164.00,0.0149
1163.00,0.0142
1162.00,0.0136
1161.00,0.0131
1160.00,0.0128
1159.00,0.0125
1158.00,0.0123
1157.00,0.0121
1156.00,0.0119
1155.00,0.0118
1154.00,0.0117
1153.00,0.0116
1152.00,0.0115
1151.00,0.0113
1150.00,0.0110
1149.00,0.0105
1148.00,0.0101
1147.00,0.0097
1146.00,0.0093
1145.00,0.0089
1144.00,0.0087
1143.00,0.0084
1142.00,0.0082
1141.00,0.0080
1140.00,0.0078
1139.00,0.0076
1138.00,0.0074
1137.00,0.0072
1136.00,0.0070
1135.00,0.0070
1134.00,0.0069
1133.00,0.0068
1132.00,0.0068
1131.00,0.0068
1130.00,0.0068
1129.00,0.0068
1128.00,0.0068
1127.00,0.0069
1126.00,0.0069
1125.00,0.0070
1124.00,0.0071
1123.00,0.0071
1122.00,0.0071
1121.00,0.0071
1120.00,0.0071
1119.00,0.0071
1118.00,0.0073
1117.00,0.0075
1116.00,0.0076
1115.00,0.0078
1114.00,0.0079
1113.00,0.0080
1112.00,0.0081
1111.00,0.0081
1110.00,0.0082
1109.00,0.0083
1108.00,0.0084
1107.00,0.0087
1106.00,0.0089
1105.00,0.0092
1104.00,0.0094
1103.00,0.0095
1102.00,0.0095
1101.00,0.0095
1100.00,0.0093
1099.00,0.0092
1098.00,0.0089
1097.00,0.0087
1096.00,0.0085
1095.00,0.0083
1094.00,0.0081
1093.00,0.0079
1092.00,0.0078
1091.00,0.0076
1090.00,0.0075
1089.00,0.0075
1088.00,0.0074
1087.00,0.0074
1086.00,0.0074
1085.00,0.0075
1084.00,0.0075
1083.00,0.0074
1082.00,0.0073
1081.00,0.0072
1080.00,0.0071
1079.00,0.0069
1078.00,0.0069
1077.00,0.0069
1076.00,0.0069
1075.00,0.0070
1074.00,0.0070
1073.00,0.0068
1072.00,0.0067
1071.00,0.0067
1070.00,0.0067
1069.00,0.0067
1068.00,0.0067
1067.00,0.0067
1066.00,0.0066
1065.00,0.0067
1064.00,0.0067
1063.00,0.0068
1062.00,0.0068
1061.00,0.0068
1060.00,0.0068
1059.00,0.0067
1058.00,0.0067
1057.00,0.0067
1056.00,0.0067
1055.00,0.0068
1054.00,0.0068
1053.00,0.0069
1052.00,0.0070
1051.00,0.0071
1050.00,0.0071
1049.00,0.0072
1048.00,0.0073
1047.00,0.0075
1046.00,0.0076
1045.00,0.0077
1044.00,0.0078
1043.00,0.0077
1042.00,0.0076
1041.00,0.0075
1040.00,0.0075
1039.00,0.0075
1038.00,0.0076
1037.00,0.0078
1036.00,0.0078
1035.00,0.0078
1034.00,0.0076
1033.00,0.0075
1032.00,0.0073
1031.00,0.0072
1030.00,0.0072
1029.00,0.0072
1028.00,0.0073
1027.00,0.0073
1026.00,0.0073
1025.00,0.0073
1024.00,0.0073
1023.00,0.0073
1022.00,0.0073
1021.00,0.0073
1020.00,0.0073
1019.00,0.0072
1018.00,0.0072
1017.00,0.0072
1016.00,0.0073
1015.00,0.0075
1014.00,0.0077
1013.00,0.0079
1012.00,0.0080
1011.00,0.0081
1010.00,0.0082
1009.00,0.0083
1008.00,0.0085
1007.00,0.0088
1006.00,0.0091
1005.00,0.0095
1004.00,0.0102
1003.00,0.0113
1002.00,0.0127
1001.00,0.0146
1000.00,0.0165
999.00,0.0181
998.00,0.0189
997.00,0.0186
996.00,0.0173
995.00,0.0153
994.00,0.0134
993.00,0.0117
992.00,0.0104
991.00,0.0095
990.00,0.0088
989.00,0.0083
988.00,0.0080
987.00,0.0079
986.00,0.0078
985.00,0.0079
984.00,0.0081
983.00,0.0085
982.00,0.0090
981.00,0.0098
980.00,0.0109
979.00,0.0123
978.00,0.0142
977.00,0.0163
976.00,0.0186
975.00,0.0206
974.00,0.0221
973.00,0.0225
972.00,0.0217
971.00,0.0198
970.00,0.0173
969.00,0.0148
968.00,0.0127
967.00,0.0111
966.00,0.0099
965.00,0.0091
964.00,0.0085
963.00,0.0080
962.00,0.0077
961.00,0.0074
960.00,0.0072
959.00,0.0070
958.00,0.0068
957.00,0.0067
956.00,0.0066
955.00,0.0065
954.00,0.0065
953.00,0.0064
952.00,0.0064
951.00,0.0064
950.00,0.0064
949.00,0.0063
948.00,0.0063
947.00,0.0063
946.00,0.0063
945.00,0.0065
944.00,0.0066
943.00,0.0068
942.00,0.0071
941.00,0.0072
940.00,0.0073
939.00,0.0072
938.00,0.0070
937.00,0.0067
936.00,0.0064
935.00,0.0062
934.00,0.0060
933.00,0.0059
932.00,0.0058
931.00,0.0057
930.00,0.0056
929.00,0.0056
928.00,0.0055
927.00,0.0055
926.00,0.0055
925.00,0.0055
924.00,0.0055
923.00,0.0054
922.00,0.0054
921.00,0.0055
920.00,0.0055
919.00,0.0054
918.00,0.0053
917.00,0.0052
916.00,0.0051
915.00,0.0052
914.00,0.0054
913.00,0.0056
912.00,0.0057
911.00,0.0057
910.00,0.0058
909.00,0.0058
908.00,0.0060
907.00,0.0062
906.00,0.0067
905.00,0.0072
904.00,0.0079
903.00,0.0088
902.00,0.0097
901.00,0.0106
900.00,0.0112
899.00,0.0113
898.00,0.0109
897.00,0.0101
896.00,0.0092
895.00,0.0083
894.00,0.0076
893.00,0.0072
892.00,0.0068
891.00,0.0066
890.00,0.0066
889.00,0.0065
888.00,0.0064
887.00,0.0063
886.00,0.0062
885.00,0.0062
884.00,0.0061
883.00,0.0061
882.00,0.0062
881.00,0.0063
880.00,0.0065
879.00,0.0066
878.00,0.0067
877.00,0.0067
876.00,0.0067
875.00,0.0067
874.00,0.0068
873.00,0.0068
872.00,0.0067
871.00,0.0066
870.00,0.0065
869.00,0.0065
868.00,0.0065
867.00,0.0065
866.00,0.0066
865.00,0.0067
864.00,0.0068
863.00,0.0068
862.00,0.0068
861.00,0.0069
860.00,0.0069
859.00,0.0070
858.00,0.0071
857.00,0.0072
856.00,0.0072
855.00,0.0072
854.00,0.0073
853.00,0.0074
852.00,0.0076
851.00,0.0077
850.00,0.0079
849.00,0.0082
848.00,0.0086
847.00,0.0092
846.00,0.0102
845.00,0.0119
844.00,0.0142
843.00,0.0168
842.00,0.0188
841.00,0.0194
840.00,0.0182
839.00,0.0160
838.00,0.0136
837.00,0.0117
836.00,0.0104
835.00,0.0095
834.00,0.0089
833.00,0.0084
832.00,0.0082
831.00,0.0081
830.00,0.0082
829.00,0.0082
828.00,0.0083
827.00,0.0082
826.00,0.0082
825.00,0.0082
824.00,0.0081
823.00,0.0080
822.00,0.0079
821.00,0.0079
820.00,0.0079
819.00,0.0081
818.00,0.0084
817.00,0.0087
816.00,0.0092
815.00,0.0097
814.00,0.0104
813.00,0.0112
812.00,0.0121
811.00,0.0130
810.00,0.0137
809.00,0.0141
808.00,0.0140
807.00,0.0136
806.00,0.0127
805.00,0.0117
804.00,0.0108
803.00,0.0101
802.00,0.0096
801.00,0.0092
800.00,0.0089
799.00,0.0084
798.00,0.0080
797.00,0.0078
796.00,0.0077
795.00,0.0076
794.00,0.0075
793.00,0.0074
792.00,0.0074
791.00,0.0074
790.00,0.0074
789.00,0.0073
788.00,0.0071
787.00,0.0069
786.00,0.0067
785.00,0.0066
784.00,0.0063
783.00,0.0061
782.00,0.0059
781.00,0.0058
780.00,0.0058
779.00,0.0058
778.00,0.0058
777.00,0.0058
776.00,0.0059
775.00,0.0060
774.00,0.0060
773.00,0.0060
772.00,0.0059
771.00,0.0058
770.00,0.0058
769.00,0.0059
768.00,0.0060
767.00,0.0061
766.00,0.0061
765.00,0.0061
764.00,0.0061
763.00,0.0061
762.00,0.0063
761.00,0.0064
760.00,0.0065
759.00,0.0066
758.00,0.0065
757.00,0.0065
756.00,0.0065
755.00,0.0065
754.00,0.0065
753.00,0.0065
752.00,0.0065
751.00,0.0064
750.00,0.0063
749.00,0.0064
748.00,0.0064
747.00,0.0066
746.00,0.0067
745.00,0.0068
744.00,0.0069
743.00,0.0070
742.00,0.0070
741.00,0.0070
740.00,0.0071
739.00,0.0072
738.00,0.0073
737.00,0.0075
736.00,0.0077
735.00,0.0079
734.00,0.0081
733.00,0.0083
732.00,0.0086
731.00,0.0091
730.00,0.0096
729.00,0.0100
728.00,0.0101
727.00,0.0100
726.00,0.0099
725.00,0.0101
724.00,0.0104
723.00,0.0107
722.00,0.0110
721.00,0.0111
720.00,0.0110
719.00,0.0106
718.00,0.0101
717.00,0.0095
716.00,0.0090
715.00,0.0086
714.00,0.0082
713.00,0.0080
712.00,0.0079
711.00,0.0079
710.00,0.0079
709.00,0.0078
708.00,0.0076
707.00,0.0074
706.00,0.0073
705.00,0.0072
704.00,0.0071
703.00,0.0070
702.00,0.0070
701.00,0.0070
700.00,0.0070
699.00,0.0070
698.00,0.0069
697.00,0.0066
696.00,0.0064
695.00,0.0064
694.00,0.0065
693.00,0.0066
692.00,0.0066
691.00,0.0065
690.00,0.0064
689.00,0.0064
688.00,0.0064
687.00,0.0065
686.00,0.0065
685.00,0.0065
684.00,0.0064
683.00,0.0064
682.00,0.0064
681.00,0.0064
680.00,0.0063
679.00,0.0061
678.00,0.0060
677.00,0.0060
676.00,0.0061
675.00,0.0063
674.00,0.0065
673.00,0.0067
672.00,0.0068
671.00,0.0068
670.00,0.0068
669.00,0.0067
668.00,0.0068
667.00,0.0069
666.00,0.0069
665.00,0.0067
664.00,0.0065
663.00,0.0064
662.00,0.0065
661.00,0.0067
660.00,0.0070
659.00,0.0072
658.00,0.0072
657.00,0.0071
656.00,0.0070
655.00,0.0069
654.00,0.0068
653.00,0.0068
652.00,0.0070
651.00,0.0072
650.00,0.0072
649.00,0.0070
648.00,0.0068
647.00,0.0066
646.00,0.0064
645.00,0.0064
644.00,0.0064
643.00,0.0065
642.00,0.0065
641.00,0.0066
640.00,0.0068
639.00,0.0070
638.00,0.0071
637.00,0.0070
636.00,0.0069
635.00,0.0067
634.00,0.0066
633.00,0.0066
632.00,0.0066
631.00,0.0065
630.00,0.0064
629.00,0.0063
628.00,0.0063
627.00,0.0064
626.00,0.0066
625.00,0.0069
624.00,0.0070
623.00,0.0071
622.00,0.0071
621.00,0.0072
620.00,0.0072
619.00,0.0072
618.00,0.0070
617.00,0.0068
616.00,0.0068
615.00,0.0068
614.00,0.0070
613.00,0.0071
612.00,0.0070
611.00,0.0069
610.00,0.0066
609.00,0.0064
608.00,0.0064
607.00,0.0065
606.00,0.0066
605.00,0.0066
604.00,0.0066
603.00,0.0067
602.00,0.0068
601.00,0.0068
600.00,0.0067
599.00,0.0066
598.00,0.0066
597.00,0.0067
596.00,0.0071
595.00,0.0074
594.00,0.0076
593.00,0.0075
592.00,0.0072
591.00,0.0069
590.00,0.0067
589.00,0.0066
588.00,0.0065
587.00,0.0064
586.00,0.0065
585.00,0.0067
584.00,0.0071
583.00,0.0075
582.00,0.0078
581.00,0.0077
580.00,0.0076
579.00,0.0074
578.00,0.0074
577.00,0.0074
576.00,0.0074
575.00,0.0073
574.00,0.0072
573.00,0.0071
572.00,0.0070
571.00,0.0069
570.00,0.0067
569.00,0.0066
568.00,0.0065
567.00,0.0065
566.00,0.0066
565.00,0.0068
564.00,0.0069
563.00,0.0070
562.00,0.0071
561.00,0.0071
560.00,0.0071
559.00,0.0071
558.00,0.0073
557.00,0.0074
556.00,0.0073
555.00,0.0071
554.00,0.0068
553.00,0.0067
552.00,0.0067
551.00,0.0068
550.00,0.0068
549.00,0.0066
548.00,0.0063
547.00,0.0061
546.00,0.0061
545.00,0.0063
544.00,0.0065
543.00,0.0066
542.00,0.0065
541.00,0.0063
540.00,0.0063
539.00,0.0063
538.00,0.0064
537.00,0.0064
536.00,0.0064
535.00,0.0067
534.00,0.0070
533.00,0.0073
532.00,0.0074
531.00,0.0075
530.00,0.0074
529.00,0.0075
528.00,0.0076
527.00,0.0079
526.00,0.0084
525.00,0.0088
524.00,0.0091
523.00,0.0092
522.00,0.0091
521.00,0.0089
520.00,0.0086
519.00,0.0081
518.00,0.0076
517.00,0.0071
516.00,0.0069
515.00,0.0072
514.00,0.0076
513.00,0.0078
512.00,0.0080
511.00,0.0081
510.00,0.0082
509.00,0.0078
508.00,0.0071
507.00,0.0063
506.00,0.0060
505.00,0.0063
504.00,0.0069
503.00,0.0075
502.00,0.0079
501.00,0.0078
500.00,0.0075
499.00,0.0073
498.00,0.0072
497.00,0.0072
496.00,0.0071
495.00,0.0070
494.00,0.0072
493.00,0.0075
492.00,0.0077
491.00,0.0079
490.00,0.0081
489.00,0.0083
488.00,0.0085
487.00,0.0084
486.00,0.0080
485.00,0.0075
484.00,0.0075
483.00,0.0080
482.00,0.0090
481.00,0.0098
480.00,0.0098
479.00,0.0089
478.00,0.0076
477.00,0.0068
476.00,0.0069
475.00,0.0077
474.00,0.0085
473.00,0.0087
472.00,0.0085
471.00,0.0088
470.00,0.0099
469.00,0.0110
468.00,0.0113
467.00,0.0107
466.00,0.0099
465.00,0.0094
464.00,0.0094
463.00,0.0101
462.00,0.0114
461.00,0.0129
460.00,0.0138
459.00,0.0135
458.00,0.0122
457.00,0.0109
456.00,0.0101
455.00,0.0098
454.00,0.0102
453.00,0.0106
452.00,0.0106
451.00,0.0100
450.00,0.0093
