Created as New Dataset,Sample 029 By Administrator Date Wednesday, September 10 2025
cm-1,A
4000.00,0.0007
3999.00,0.0008
3998.00,0.0008
3997.00,0.0008
3996.00,0.0008
3995.00,0.0008
3994.00,0.0008
3993.00,0.0007
3992.00,0.0007
3991.00,0.0007
3990.00,0.0007
3989.00,0.0008
3988.00,0.0008
3987.00,0.0008
3986.00,0.0007
3985.00,0.0007
3984.00,0.0007
3983.00,0.0007
3982.00,0.0007
3981.00,0.0007
3980.00,0.0007
3979.00,0.0006
3978.00,0.0006
3977.00,0.0006
3976.00,0.0006
3975.00,0.0006
3974.00,0.0006
3973.00,0.0006
3972.00,0.0006
3971.00,0.0006
3970.00,0.0006
3969.00,0.0007
3968.00,0.0007
3967.00,0.0007
3966.00,0.0007
3965.00,0.0007
3964.00,0.0006
3963.00,0.0006
3962.00,0.0006
3961.00,0.0006
3960.00,0.0006
3959.00,0.0006
3958.00,0.0006
3957.00,0.0006
3956.00,0.0006
3955.00,0.0006
3954.00,0.0006
3953.00,0.0006
3952.00,0.0006
3951.00,0.0006
3950.00,0.0006
3949.00,0.0006
3948.00,0.0006
3947.00,0.0006
3946.00,0.0006
3945.00,0.0006
3944.00,0.0006
3943.00,0.0006
3942.00,0.0006
3941.00,0.0006
3940.00,0.0006
3939.00,0.0006
3938.00,0.0007
3937.00,0.0007
3936.00,0.0007
3935.00,0.0007
3934.00,0.0007
3933.00,0.0006
3932.00,0.0006
3931.00,0.0006
3930.00,0.0006
3929.00,0.0006
3928.00,0.0006
3927.00,0.0006
3926.00,0.0006
3925.00,0.0006
3924.00,0.0006
3923.00,0.0006
3922.00,0.0007
3921.00,0.0007
3920.00,0.0006
3919.00,0.0006
3918.00,0.0006
3917.00,0.0006
3916.00,0.0006
3915.00,0.0006
3914.00,0.0006
3913.00,0.0007
3912.00,0.0007
3911.00,0.0007
3910.00,0.0006
3909.00,0.0006
3908.00,0.0006
3907.00,0.0006
3906.00,0.0006
3905.00,0.0006
3904.00,0.0006
3903.00,0.0006
3902.00,0.0006
3901.00,0.0006
3900.00,0.0006
3899.00,0.0006
3898.00,0.0005
3897.00,0.0005
3896.00,0.0005
3895.00,0.0005
3894.00,0.0005
3893.00,0.0005
3892.00,0.0005
3891.00,0.0005
3890.00,0.0006
3889.00,0.0006
3888.00,0.0006
3887.00,0.0006
3886.00,0.0005
3885.00,0.0005
3884.00,0.0005
3883.00,0.0005
3882.00,0.0005
3881.00,0.0005
3880.00,0.0005
3879.00,0.0005
3878.00,0.0005
3877.00,0.0005
3876.00,0.0006
3875.00,0.0006
3874.00,0.0006
3873.00,0.0007
3872.00,0.0006
3871.00,0.0006
3870.00,0.0006
3869.00,0.0006
3868.00,0.0006
3867.00,0.0006
3866.00,0.0006
3865.00,0.0006
3864.00,0.0006
3863.00,0.0006
3862.00,0.0006
3861.00,0.0005
3860.00,0.0005
3859.00,0.0005
3858.00,0.0005
3857.00,0.0005
3856.00,0.0005
3855.00,0.0004
3854.00,0.0004
3853.00,0.0004
3852.00,0.0004
3851.00,0.0004
3850.00,0.0004
3849.00,0.0004
3848.00,0.0004
3847.00,0.0005
3846.00,0.0005
3845.00,0.0005
3844.00,0.0005
3843.00,0.0005
3842.00,0.0005
3841.00,0.0005
3840.00,0.0005
3839.00,0.0005
3838.00,0.0005
3837.00,0.0005
3836.00,0.0005
3835.00,0.0005
3834.00,0.0005
3833.00,0.0005
3832.00,0.0005
3831.00,0.0005
3830.00,0.0005
3829.00,0.0005
3828.00,0.0005
3827.00,0.0005
3826.00,0.0006
3825.00,0.0006
3824.00,0.0006
3823.00,0.0006
3822.00,0.0006
3821.00,0.0006
3820.00,0.0006
3819.00,0.0006
3818.00,0.0006
3817.00,0.0005
3816.00,0.0005
3815.00,0.0005
3814.00,0.0005
3813.00,0.0005
3812.00,0.0005
3811.00,0.0005
3810.00,0.0005
3809.00,0.0005
3808.00,0.0006
3807.00,0.0006
3806.00,0.0006
3805.00,0.0006
3804.00,0.0005
3803.00,0.0005
3802.00,0.0005
3801.00,0.0005
3800.00,0.0005
3799.00,0.0005
3798.00,0.0004
3797.00,0.0004
3796.00,0.0004
3795.00,0.0005
3794.00,0.0005
3793.00,0.0005
3792.00,0.0005
3791.00,0.0006
3790.00,0.0006
3789.00,0.0006
3788.00,0.0006
3787.00,0.0006
3786.00,0.0006
3785.00,0.0007
3784.00,0.0007
3783.00,0.0007
3782.00,0.0006
3781.00,0.0006
3780.00,0.0005
3779.00,0.0005
3778.00,0.0005
3777.00,0.0005
3776.00,0.0005
3775.00,0.0006
3774.00,0.0006
3773.00,0.0006
3772.00,0.0006
3771.00,0.0006
3770.00,0.0006
3769.00,0.0006
3768.00,0.0006
3767.00,0.0007
3766.00,0.0007
3765.00,0.0007
3764.00,0.0007
3763.00,0.0007
3762.00,0.0007
3761.00,0.0007
3760.00,0.0007
3759.00,0.0007
3758.00,0.0007
3757.00,0.0007
3756.00,0.0007
3755.00,0.0007
3754.00,0.0007
3753.00,0.0007
3752.00,0.0006
3751.00,0.0006
3750.00,0.0005
3749.00,0.0005
3748.00,0.0004
3747.00,0.0004
3746.00,0.0004
3745.00,0.0004
3744.00,0.0004
3743.00,0.0004
3742.00,0.0004
3741.00,0.0004
3740.00,0.0004
3739.00,0.0005
3738.00,0.0005
3737.00,0.0004
3736.00,0.0004
3735.00,0.0004
3734.00,0.0004
3733.00,0.0004
3732.00,0.0004
3731.00,0.0004
3730.00,0.0004
3729.00,0.0004
3728.00,0.0004
3727.00,0.0004
3726.00,0.0004
3725.00,0.0004
3724.00,0.0004
3723.00,0.0004
3722.00,0.0004
3721.00,0.0004
3720.00,0.0004
3719.00,0.0004
3718.00,0.0004
3717.00,0.0004
3716.00,0.0004
3715.00,0.0004
3714.00,0.0004
3713.00,0.0004
3712.00,0.0004
3711.00,0.0003
3710.00,0.0003
3709.00,0.0003
3708.00,0.0003
3707.00,0.0003
3706.00,0.0003
3705.00,0.0004
3704.00,0.0004
3703.00,0.0004
3702.00,0.0003
3701.00,0.0003
3700.00,0.0003
3699.00,0.0003
3698.00,0.0003
3697.00,0.0003
3696.00,0.0003
3695.00,0.0003
3694.00,0.0004
3693.00,0.0004
3692.00,0.0004
3691.00,0.0004
3690.00,0.0003
3689.00,0.0003
3688.00,0.0003
3687.00,0.0003
3686.00,0.0003
3685.00,0.0003
3684.00,0.0003
3683.00,0.0003
3682.00,0.0004
3681.00,0.0004
3680.00,0.0004
3679.00,0.0004
3678.00,0.0004
3677.00,0.0004
3676.00,0.0003
3675.00,0.0003
3674.00,0.0003
3673.00,0.0003
3672.00,0.0003
3671.00,0.0003
3670.00,0.0003
3669.00,0.0003
3668.00,0.0004
3667.00,0.0004
3666.00,0.0004
3665.00,0.0004
3664.00,0.0003
3663.00,0.0003
3662.00,0.0003
3661.00,0.0003
3660.00,0.0003
3659.00,0.0003
3658.00,0.0003
3657.00,0.0003
3656.00,0.0003
3655.00,0.0002
3654.00,0.0002
3653.00,0.0002
3652.00,0.0003
3651.00,0.0003
3650.00,0.0003
3649.00,0.0004
3648.00,0.0004
3647.00,0.0004
3646.00,0.0004
3645.00,0.0004
3644.00,0.0004
3643.00,0.0004
3642.00,0.0004
3641.00,0.0004
3640.00,0.0004
3639.00,0.0004
3638.00,0.0004
3637.00,0.0004
3636.00,0.0004
3635.00,0.0004
3634.00,0.0004
3633.00,0.0004
3632.00,0.0004
3631.00,0.0003
3630.00,0.0003
3629.00,0.0002
3628.00,0.0003
3627.00,0.0004
3626.00,0.0004
3625.00,0.0004
3624.00,0.0004
3623.00,0.0004
3622.00,0.0004
3621.00,0.0004
3620.00,0.0004
3619.00,0.0003
3618.00,0.0004
3617.00,0.0004
3616.00,0.0004
3615.00,0.0003
3614.00,0.0003
3613.00,0.0004
3612.00,0.0004
3611.00,0.0005
3610.00,0.0005
3609.00,0.0006
3608.00,0.0005
3607.00,0.0005
3606.00,0.0005
3605.00,0.0005
3604.00,0.0006
3603.00,0.0006
3602.00,0.0006
3601.00,0.0006
3600.00,0.0006
3599.00,0.0006
3598.00,0.0006
3597.00,0.0005
3596.00,0.0006
3595.00,0.0006
3594.00,0.0006
3593.00,0.0006
3592.00,0.0006
3591.00,0.0006
3590.00,0.0006
3589.00,0.0006
3588.00,0.0006
3587.00,0.0007
3586.00,0.0007
3585.00,0.0008
3584.00,0.0008
3583.00,0.0008
3582.00,0.0008
3581.00,0.0008
3580.00,0.0008
3579.00,0.0007
3578.00,0.0007
3577.00,0.0008
3576.00,0.0008
3575.00,0.0007
3574.00,0.0007
3573.00,0.0007
3572.00,0.0008
3571.00,0.0008
3570.00,0.0008
3569.00,0.0009
3568.00,0.0009
3567.00,0.0010
3566.00,0.0010
3565.00,0.0010
3564.00,0.0010
3563.00,0.0010
3562.00,0.0011
3561.00,0.0011
3560.00,0.0011
3559.00,0.0011
3558.00,0.0011
3557.00,0.0011
3556.00,0.0011
3555.00,0.0011
3554.00,0.0011
3553.00,0.0011
3552.00,0.0011
3551.00,0.0011
3550.00,0.0012
3549.00,0.0012
3548.00,0.0012
3547.00,0.0012
3546.00,0.0012
3545.00,0.0013
3544.00,0.0013
3543.00,0.0013
3542.00,0.0013
3541.00,0.0014
3540.00,0.0014
3539.00,0.0014
3538.00,0.0015
3537.00,0.0015
3536.00,0.0015
3535.00,0.0015
3534.00,0.0015
3533.00,0.0015
3532.00,0.0015
3531.00,0.0016
3530.00,0.0016
3529.00,0.0016
3528.00,0.0017
3527.00,0.0017
3526.00,0.0017
3525.00,0.0017
3524.00,0.0018
3523.00,0.0018
3522.00,0.0018
3521.00,0.0019
3520.00,0.0019
3519.00,0.0019
3518.00,0.0019
3517.00,0.0019
3516.00,0.0019
3515.00,0.0020
3514.00,0.0020
3513.00,0.0020
3512.00,0.0020
3511.00,0.0020
3510.00,0.0020
3509.00,0.0020
3508.00,0.0020
3507.00,0.0020
3506.00,0.0021
3505.00,0.0021
3504.00,0.0021
3503.00,0.0021
3502.00,0.0022
3501.00,0.0022
3500.00,0.0022
3499.00,0.0022
3498.00,0.0022
3497.00,0.0022
3496.00,0.0022
3495.00,0.0023
3494.00,0.0023
3493.00,0.0024
3492.00,0.0024
3491.00,0.0024
3490.00,0.0024
3489.00,0.0024
3488.00,0.0024
3487.00,0.0025
3486.00,0.0025
3485.00,0.0025
3484.00,0.0025
3483.00,0.0025
3482.00,0.0025
3481.00,0.0026
3480.00,0.0026
3479.00,0.0026
3478.00,0.0027
3477.00,0.0027
3476.00,0.0027
3475.00,0.0027
3474.00,0.0027
3473.00,0.0027
3472.00,0.0027
3471.00,0.0028
3470.00,0.0028
3469.00,0.0028
3468.00,0.0028
3467.00,0.0028
3466.00,0.0028
3465.00,0.0029
3464.00,0.0029
3463.00,0.0030
3462.00,0.0030
3461.00,0.0030
3460.00,0.0030
3459.00,0.0029
3458.00,0.0029
3457.00,0.0029
3456.00,0.0029
3455.00,0.0030
3454.00,0.0030
3453.00,0.0030
3452.00,0.0031
3451.00,0.0031
3450.00,0.0032
3449.00,0.0032
3448.00,0.0032
3447.00,0.0032
3446.00,0.0032
3445.00,0.0032
3444.00,0.0032
3443.00,0.0032
3442.00,0.0032
3441.00,0.0032
3440.00,0.0033
3439.00,0.0033
3438.00,0.0034
3437.00,0.0034
3436.00,0.0033
3435.00,0.0033
3434.00,0.0033
3433.00,0.0033
3432.00,0.0033
3431.00,0.0034
3430.00,0.0034
3429.00,0.0034
3428.00,0.0034
3427.00,0.0034
3426.00,0.0034
3425.00,0.0034
3424.00,0.0035
3423.00,0.0035
3422.00,0.0035
3421.00,0.0035
3420.00,0.0036
3419.00,0.0036
3418.00,0.0036
3417.00,0.0036
3416.00,0.0036
3415.00,0.0036
3414.00,0.0036
3413.00,0.0037
3412.00,0.0037
3411.00,0.0037
3410.00,0.0037
3409.00,0.0037
3408.00,0.0037
3407.00,0.0037
3406.00,0.0037
3405.00,0.0037
3404.00,0.0037
3403.00,0.0037
3402.00,0.0037
3401.00,0.0037
3400.00,0.0037
3399.00,0.0037
3398.00,0.0037
3397.00,0.0037
3396.00,0.0037
3395.00,0.0037
3394.00,0.0038
3393.00,0.0038
3392.00,0.0038
3391.00,0.0038
3390.00,0.0038
3389.00,0.0038
3388.00,0.0038
3387.00,0.0039
3386.00,0.0039
3385.00,0.0039
3384.00,0.0039
3383.00,0.0039
3382.00,0.0038
3381.00,0.0039
3380.00,0.0039
3379.00,0.0039
3378.00,0.0039
3377.00,0.0039
3376.00,0.0039
3375.00,0.0039
3374.00,0.0039
3373.00,0.0039
3372.00,0.0039
3371.00,0.0039
3370.00,0.0039
3369.00,0.0039
3368.00,0.0039
3367.00,0.0039
3366.00,0.0039
3365.00,0.0040
3364.00,0.0039
3363.00,0.0039
3362.00,0.0039
3361.00,0.0039
3360.00,0.0039
3359.00,0.0039
3358.00,0.0039
3357.00,0.0039
3356.00,0.0040
3355.00,0.0040
3354.00,0.0040
3353.00,0.0041
3352.00,0.0040
3351.00,0.0040
3350.00,0.0040
3349.00,0.0040
3348.00,0.0040
3347.00,0.0040
3346.00,0.0040
3345.00,0.0040
3344.00,0.0040
3343.00,0.0040
3342.00,0.0040
3341.00,0.0039
3340.00,0.0039
3339.00,0.0039
3338.00,0.0039
3337.00,0.0039
3336.00,0.0039
3335.00,0.0039
3334.00,0.0039
3333.00,0.0038
3332.00,0.0038
3331.00,0.0038
3330.00,0.0038
3329.00,0.0038
3328.00,0.0038
3327.00,0.0038
3326.00,0.0038
3325.00,0.0038
3324.00,0.0038
3323.00,0.0037
3322.00,0.0037
3321.00,0.0037
3320.00,0.0037
3319.00,0.0037
3318.00,0.0037
3317.00,0.0038
3316.00,0.0037
3315.00,0.0037
3314.00,0.0037
3313.00,0.0037
3312.00,0.0038
3311.00,0.0038
3310.00,0.0038
3309.00,0.0038
3308.00,0.0037
3307.00,0.0037
3306.00,0.0037
3305.00,0.0037
3304.00,0.0037
3303.00,0.0037
3302.00,0.0037
3301.00,0.0037
3300.00,0.0036
3299.00,0.0036
3298.00,0.0036
3297.00,0.0036
3296.00,0.0036
3295.00,0.0036
3294.00,0.0036
3293.00,0.0036
3292.00,0.0036
3291.00,0.0036
3290.00,0.0036
3289.00,0.0036
3288.00,0.0036
3287.00,0.0036
3286.00,0.0036
3285.00,0.0036
3284.00,0.0036
3283.00,0.0036
3282.00,0.0036
3281.00,0.0036
3280.00,0.0036
3279.00,0.0036
3278.00,0.0036
3277.00,0.0035
3276.00,0.0035
3275.00,0.0035
3274.00,0.0035
3273.00,0.0035
3272.00,0.0035
3271.00,0.0035
3270.00,0.0035
3269.00,0.0034
3268.00,0.0034
3267.00,0.0034
3266.00,0.0034
3265.00,0.0034
3264.00,0.0033
3263.00,0.0033
3262.00,0.0033
3261.00,0.0033
3260.00,0.0033
3259.00,0.0032
3258.00,0.0032
3257.00,0.0032
3256.00,0.0032
3255.00,0.0032
3254.00,0.0032
3253.00,0.0032
3252.00,0.0032
3251.00,0.0032
3250.00,0.0032
3249.00,0.0032
3248.00,0.0032
3247.00,0.0032
3246.00,0.0032
3245.00,0.0032
3244.00,0.0032
3243.00,0.0032
3242.00,0.0032
3241.00,0.0032
3240.00,0.0032
3239.00,0.0032
3238.00,0.0033
3237.00,0.0033
3236.00,0.0033
3235.00,0.0033
3234.00,0.0033
3233.00,0.0033
3232.00,0.0033
3231.00,0.0032
3230.00,0.0032
3229.00,0.0032
3228.00,0.0032
3227.00,0.0032
3226.00,0.0032
3225.00,0.0033
3224.00,0.0033
3223.00,0.0034
3222.00,0.0034
3221.00,0.0034
3220.00,0.0035
3219.00,0.0035
3218.00,0.0035
3217.00,0.0035
3216.00,0.0036
3215.00,0.0036
3214.00,0.0036
3213.00,0.0036
3212.00,0.0036
3211.00,0.0036
3210.00,0.0036
3209.00,0.0036
3208.00,0.0036
3207.00,0.0037
3206.00,0.0037
3205.00,0.0038
3204.00,0.0038
3203.00,0.0038
3202.00,0.0038
3201.00,0.0039
3200.00,0.0039
3199.00,0.0038
3198.00,0.0038
3197.00,0.0038
3196.00,0.0038
3195.00,0.0038
3194.00,0.0037
3193.00,0.0037
3192.00,0.0037
3191.00,0.0037
3190.00,0.0037
3189.00,0.0037
3188.00,0.0037
3187.00,0.0037
3186.00,0.0037
3185.00,0.0037
3184.00,0.0037
3183.00,0.0037
3182.00,0.0036
3181.00,0.0036
3180.00,0.0035
3179.00,0.0035
3178.00,0.0035
3177.00,0.0035
3176.00,0.0035
3175.00,0.0035
3174.00,0.0034
3173.00,0.0034
3172.00,0.0034
3171.00,0.0034
3170.00,0.0034
3169.00,0.0034
3168.00,0.0033
3167.00,0.0033
3166.00,0.0033
3165.00,0.0033
3164.00,0.0033
3163.00,0.0033
3162.00,0.0033
3161.00,0.0033
3160.00,0.0033
3159.00,0.0033
3158.00,0.0033
3157.00,0.0033
3156.00,0.0033
3155.00,0.0033
3154.00,0.0033
3153.00,0.0033
3152.00,0.0033
3151.00,0.0033
3150.00,0.0033
3149.00,0.0034
3148.00,0.0034
3147.00,0.0033
3146.00,0.0033
3145.00,0.0033
3144.00,0.0033
3143.00,0.0033
3142.00,0.0033
3141.00,0.0033
3140.00,0.0033
3139.00,0.0032
3138.00,0.0032
3137.00,0.0031
3136.00,0.0032
3135.00,0.0032
3134.00,0.0032
3133.00,0.0032
3132.00,0.0032
3131.00,0.0032
3130.00,0.0031
3129.00,0.0031
3128.00,0.0030
3127.00,0.0030
3126.00,0.0030
3125.00,0.0029
3124.00,0.0029
3123.00,0.0029
3122.00,0.0028
3121.00,0.0028
3120.00,0.0028
3119.00,0.0027
3118.00,0.0027
3117.00,0.0027
3116.00,0.0027
3115.00,0.0027
3114.00,0.0028
3113.00,0.0028
3112.00,0.0028
3111.00,0.0027
3110.00,0.0027
3109.00,0.0026
3108.00,0.0026
3107.00,0.0026
3106.00,0.0026
3105.00,0.0026
3104.00,0.0026
3103.00,0.0026
3102.00,0.0026
3101.00,0.0026
3100.00,0.0026
3099.00,0.0026
3098.00,0.0026
3097.00,0.0025
3096.00,0.0025
3095.00,0.0025
3094.00,0.0025
3093.00,0.0025
3092.00,0.0025
3091.00,0.0025
3090.00,0.0025
3089.00,0.0025
3088.00,0.0024
3087.00,0.0024
3086.00,0.0024
3085.00,0.0024
3084.00,0.0024
3083.00,0.0025
3082.00,0.0025
3081.00,0.0025
3080.00,0.0025
3079.00,0.0024
3078.00,0.0024
3077.00,0.0024
3076.00,0.0024
3075.00,0.0024
3074.00,0.0024
3073.00,0.0024
3072.00,0.0025
3071.00,0.0025
3070.00,0.0025
3069.00,0.0025
3068.00,0.0025
3067.00,0.0025
3066.00,0.0026
3065.00,0.0026
3064.00,0.0026
3063.00,0.0026
3062.00,0.0026
3061.00,0.0027
3060.00,0.0027
3059.00,0.0027
3058.00,0.0028
3057.00,0.0028
3056.00,0.0028
3055.00,0.0028
3054.00,0.0028
3053.00,0.0028
3052.00,0.0028
3051.00,0.0028
3050.00,0.0028
3049.00,0.0028
3048.00,0.0028
3047.00,0.0029
3046.00,0.0029
3045.00,0.0029
3044.00,0.0030
3043.00,0.0030
3042.00,0.0030
3041.00,0.0030
3040.00,0.0031
3039.00,0.0031
3038.00,0.0031
3037.00,0.0032
3036.00,0.0032
3035.00,0.0032
3034.00,0.0032
3033.00,0.0032
3032.00,0.0032
3031.00,0.0033
3030.00,0.0034
3029.00,0.0034
3028.00,0.0035
3027.00,0.0036
3026.00,0.0037
3025.00,0.0038
3024.00,0.0039
3023.00,0.0039
3022.00,0.0040
3021.00,0.0040
3020.00,0.0041
3019.00,0.0042
3018.00,0.0043
3017.00,0.0044
3016.00,0.0045
3015.00,0.0046
3014.00,0.0047
3013.00,0.0048
3012.00,0.0049
3011.00,0.0051
3010.00,0.0052
3009.00,0.0054
3008.00,0.0056
3007.00,0.0058
3006.00,0.0060
3005.00,0.0062
3004.00,0.0065
3003.00,0.0067
3002.00,0.0070
3001.00,0.0072
3000.00,0.0075
2999.00,0.0078
2998.00,0.0081
2997.00,0.0085
2996.00,0.0090
2995.00,0.0094
2994.00,0.0099
2993.00,0.0105
2992.00,0.0110
2991.00,0.0117
2990.00,0.0124
2989.00,0.0132
2988.00,0.0140
2987.00,0.0151
2986.00,0.0162
2985.00,0.0175
2984.00,0.0189
2983.00,0.0204
2982.00,0.0221
2981.00,0.0241
2980.00,0.0263
2979.00,0.0287
2978.00,0.0316
2977.00,0.0348
2976.00,0.0385
2975.00,0.0428
2974.00,0.0476
2973.00,0.0531
2972.00,0.0593
2971.00,0.0664
2970.00,0.0743
2969.00,0.0832
2968.00,0.0929
2967.00,0.1036
2966.00,0.1151
2965.00,0.1274
2964.00,0.1400
2963.00,0.1527
2962.00,0.1648
2961.00,0.1756
2960.00,0.1846
2959.00,0.1915
2958.00,0.1963
2957.00,0.1994
2956.00,0.2013
2955.00,0.2027
2954.00,0.2041
2953.00,0.2055
2952.00,0.2064
2951.00,0.2062
2950.00,0.2039
2949.00,0.1990
2948.00,0.1911
2947.00,0.1804
2946.00,0.1677
2945.00,0.1540
2944.00,0.1408
2943.00,0.1289
2942.00,0.1193
2941.00,0.1122
2940.00,0.1076
2939.00,0.1053
2938.00,0.1052
2937.00,0.1069
2936.00,0.1102
2935.00,0.1150
2934.00,0.1211
2933.00,0.1284
2932.00,0.1365
2931.00,0.1454
2930.00,0.1547
2929.00,0.1641
2928.00,0.1732
2927.00,0.1819
2926.00,0.1901
2925.00,0.1976
2924.00,0.2047
2923.00,0.2114
2922.00,0.2179
2921.00,0.2241
2920.00,0.2297
2919.00,0.2340
2918.00,0.2365
2917.00,0.2367
2916.00,0.2346
2915.00,0.2304
2914.00,0.2248
2913.00,0.2184
2912.00,0.2119
2911.00,0.2057
2910.00,0.2000
2909.00,0.1949
2908.00,0.1899
2907.00,0.1850
2906.00,0.1797
2905.00,0.1740
2904.00,0.1677
2903.00,0.1611
2902.00,0.1542
2901.00,0.1473
2900.00,0.1404
2899.00,0.1338
2898.00,0.1277
2897.00,0.1220
2896.00,0.1171
2895.00,0.1129
2894.00,0.1095
2893.00,0.1068
2892.00,0.1047
2891.00,0.1033
2890.00,0.1024
2889.00,0.1020
2888.00,0.1021
2887.00,0.1025
2886.00,0.1034
2885.00,0.1045
2884.00,0.1061
2883.00,0.1079
2882.00,0.1100
2881.00,0.1123
2880.00,0.1144
2879.00,0.1162
2878.00,0.1172
2877.00,0.1173
2876.00,0.1168
2875.00,0.1158
2874.00,0.1150
2873.00,0.1147
2872.00,0.1151
2871.00,0.1163
2870.00,0.1180
2869.00,0.1197
2868.00,0.1206
2867.00,0.1201
2866.00,0.1175
2865.00,0.1124
2864.00,0.1053
2863.00,0.0968
2862.00,0.0880
2861.00,0.0797
2860.00,0.0725
2859.00,0.0668
2858.00,0.0624
2857.00,0.0593
2856.00,0.0573
2855.00,0.0561
2854.00,0.0556
2853.00,0.0559
2852.00,0.0569
2851.00,0.0585
2850.00,0.0609
2849.00,0.0640
2848.00,0.0680
2847.00,0.0728
2846.00,0.0787
2845.00,0.0854
2844.00,0.0931
2843.00,0.1013
2842.00,0.1098
2841.00,0.1178
2840.00,0.1245
2839.00,0.1289
2838.00,0.1301
2837.00,0.1275
2836.00,0.1212
2835.00,0.1118
2834.00,0.1005
2833.00,0.0886
2832.00,0.0772
2831.00,0.0672
2830.00,0.0587
2829.00,0.0517
2828.00,0.0460
2827.00,0.0415
2826.00,0.0378
2825.00,0.0348
2824.00,0.0323
2823.00,0.0302
2822.00,0.0283
2821.00,0.0267
2820.00,0.0254
2819.00,0.0242
2818.00,0.0231
2817.00,0.0222
2816.00,0.0214
2815.00,0.0207
2814.00,0.0201
2813.00,0.0195
2812.00,0.0190
2811.00,0.0184
2810.00,0.0179
2809.00,0.0174
2808.00,0.0168
2807.00,0.0162
2806.00,0.0156
2805.00,0.0149
2804.00,0.0143
2803.00,0.0136
2802.00,0.0131
2801.00,0.0126
2800.00,0.0122
2799.00,0.0119
2798.00,0.0117
2797.00,0.0114
2796.00,0.0112
2795.00,0.0109
2794.00,0.0107
2793.00,0.0103
2792.00,0.0100
2791.00,0.0096
2790.00,0.0093
2789.00,0.0089
2788.00,0.0085
2787.00,0.0082
2786.00,0.0079
2785.00,0.0076
2784.00,0.0073
2783.00,0.0071
2782.00,0.0069
2781.00,0.0067
2780.00,0.0065
2779.00,0.0063
2778.00,0.0062
2777.00,0.0061
2776.00,0.0060
2775.00,0.0058
2774.00,0.0057
2773.00,0.0056
2772.00,0.0056
2771.00,0.0055
2770.00,0.0055
2769.00,0.0054
2768.00,0.0053
2767.00,0.0053
2766.00,0.0053
2765.00,0.0052
2764.00,0.0052
2763.00,0.0052
2762.00,0.0052
2761.00,0.0051
2760.00,0.0051
2759.00,0.0050
2758.00,0.0050
2757.00,0.0050
2756.00,0.0050
2755.00,0.0050
2754.00,0.0050
2753.00,0.0050
2752.00,0.0049
2751.00,0.0049
2750.00,0.0049
2749.00,0.0049
2748.00,0.0050
2747.00,0.0050
2746.00,0.0050
2745.00,0.0051
2744.00,0.0052
2743.00,0.0053
2742.00,0.0055
2741.00,0.0056
2740.00,0.0057
2739.00,0.0058
2738.00,0.0059
2737.00,0.0061
2736.00,0.0062
2735.00,0.0064
2734.00,0.0065
2733.00,0.0067
2732.00,0.0069
2731.00,0.0071
2730.00,0.0073
2729.00,0.0075
2728.00,0.0078
2727.00,0.0080
2726.00,0.0083
2725.00,0.0085
2724.00,0.0087
2723.00,0.0087
2722.00,0.0086
2721.00,0.0084
2720.00,0.0081
2719.00,0.0078
2718.00,0.0074
2717.00,0.0071
2716.00,0.0068
2715.00,0.0066
2714.00,0.0064
2713.00,0.0062
2712.00,0.0060
2711.00,0.0059
2710.00,0.0057
2709.00,0.0055
2708.00,0.0054
2707.00,0.0053
2706.00,0.0051
2705.00,0.0050
2704.00,0.0049
2703.00,0.0048
2702.00,0.0047
2701.00,0.0047
2700.00,0.0046
2699.00,0.0045
2698.00,0.0045
2697.00,0.0044
2696.00,0.0044
2695.00,0.0044
2694.00,0.0044
2693.00,0.0044
2692.00,0.0044
2691.00,0.0044
2690.00,0.0044
2689.00,0.0044
2688.00,0.0044
2687.00,0.0044
2686.00,0.0044
2685.00,0.0044
2684.00,0.0044
2683.00,0.0044
2682.00,0.0044
2681.00,0.0044
2680.00,0.0044
2679.00,0.0044
2678.00,0.0044
2677.00,0.0044
2676.00,0.0043
2675.00,0.0043
2674.00,0.0043
2673.00,0.0043
2672.00,0.0043
2671.00,0.0043
2670.00,0.0043
2669.00,0.0043
2668.00,0.0043
2667.00,0.0043
2666.00,0.0044
2665.00,0.0044
2664.00,0.0045
2663.00,0.0046
2662.00,0.0046
2661.00,0.0046
2660.00,0.0047
2659.00,0.0047
2658.00,0.0047
2657.00,0.0046
2656.00,0.0046
2655.00,0.0045
2654.00,0.0044
2653.00,0.0043
2652.00,0.0042
2651.00,0.0041
2650.00,0.0041
2649.00,0.0041
2648.00,0.0041
2647.00,0.0041
2646.00,0.0041
2645.00,0.0041
2644.00,0.0041
2643.00,0.0040
2642.00,0.0040
2641.00,0.0039
2640.00,0.0038
2639.00,0.0038
2638.00,0.0037
2637.00,0.0036
2636.00,0.0036
2635.00,0.0036
2634.00,0.0036
2633.00,0.0036
2632.00,0.0037
2631.00,0.0037
2630.00,0.0037
2629.00,0.0037
2628.00,0.0037
2627.00,0.0038
2626.00,0.0038
2625.00,0.0038
2624.00,0.0039
2623.00,0.0038
2622.00,0.0038
2621.00,0.0038
2620.00,0.0039
2619.00,0.0039
2618.00,0.0040
2617.00,0.0040
2616.00,0.0040
2615.00,0.0039
2614.00,0.0039
2613.00,0.0038
2612.00,0.0037
2611.00,0.0037
2610.00,0.0036
2609.00,0.0036
2608.00,0.0035
2607.00,0.0035
2606.00,0.0033
2605.00,0.0032
2604.00,0.0030
2603.00,0.0030
2602.00,0.0030
2601.00,0.0030
2600.00,0.0031
2599.00,0.0031
2598.00,0.0031
2597.00,0.0031
2596.00,0.0031
2595.00,0.0031
2594.00,0.0031
2593.00,0.0031
2592.00,0.0032
2591.00,0.0032
2590.00,0.0033
2589.00,0.0034
2588.00,0.0035
2587.00,0.0036
2586.00,0.0036
2585.00,0.0036
2584.00,0.0037
2583.00,0.0037
2582.00,0.0038
2581.00,0.0038
2580.00,0.0038
2579.00,0.0037
2578.00,0.0035
2577.00,0.0034
2576.00,0.0032
2575.00,0.0031
2574.00,0.0030
2573.00,0.0029
2572.00,0.0028
2571.00,0.0027
2570.00,0.0026
2569.00,0.0025
2568.00,0.0025
2567.00,0.0024
2566.00,0.0024
2565.00,0.0024
2564.00,0.0024
2563.00,0.0023
2562.00,0.0023
2561.00,0.0022
2560.00,0.0022
2559.00,0.0023
2558.00,0.0023
2557.00,0.0022
2556.00,0.0022
2555.00,0.0021
2554.00,0.0021
2553.00,0.0021
2552.00,0.0020
2551.00,0.0020
2550.00,0.0019
2549.00,0.0019
2548.00,0.0018
2547.00,0.0018
2546.00,0.0018
2545.00,0.0018
2544.00,0.0017
2543.00,0.0017
2542.00,0.0016
2541.00,0.0015
2540.00,0.0015
2539.00,0.0014
2538.00,0.0014
2537.00,0.0014
2536.00,0.0015
2535.00,0.0015
2534.00,0.0015
2533.00,0.0015
2532.00,0.0015
2531.00,0.0014
2530.00,0.0014
2529.00,0.0014
2528.00,0.0014
2527.00,0.0013
2526.00,0.0013
2525.00,0.0013
2524.00,0.0013
2523.00,0.0013
2522.00,0.0013
2521.00,0.0012
2520.00,0.0011
2519.00,0.0010
2518.00,0.0010
2517.00,0.0010
2516.00,0.0010
2515.00,0.0010
2514.00,0.0010
2513.00,0.0010
2512.00,0.0010
2511.00,0.0010
2510.00,0.0009
2509.00,0.0009
2508.00,0.0008
2507.00,0.0008
2506.00,0.0008
2505.00,0.0009
2504.00,0.0009
2503.00,0.0009
2502.00,0.0008
2501.00,0.0008
2500.00,0.0008
2499.00,0.0008
2498.00,0.0009
2497.00,0.0010
2496.00,0.0010
2495.00,0.0011
2494.00,0.0011
2493.00,0.0011
2492.00,0.0011
2491.00,0.0010
2490.00,0.0009
2489.00,0.0009
2488.00,0.0009
2487.00,0.0009
2486.00,0.0009
2485.00,0.0008
2484.00,0.0008
2483.00,0.0007
2482.00,0.0007
2481.00,0.0006
2480.00,0.0006
2479.00,0.0007
2478.00,0.0007
2477.00,0.0007
2476.00,0.0008
2475.00,0.0008
2474.00,0.0008
2473.00,0.0009
2472.00,0.0009
2471.00,0.0008
2470.00,0.0008
2469.00,0.0007
2468.00,0.0007
2467.00,0.0008
2466.00,0.0008
2465.00,0.0008
2464.00,0.0009
2463.00,0.0009
2462.00,0.0009
2461.00,0.0009
2460.00,0.0010
2459.00,0.0011
2458.00,0.0011
2457.00,0.0011
2456.00,0.0011
2455.00,0.0011
2454.00,0.0011
2453.00,0.0011
2452.00,0.0012
2451.00,0.0012
2450.00,0.0011
2449.00,0.0011
2448.00,0.0011
2447.00,0.0010
2446.00,0.0010
2445.00,0.0011
2444.00,0.0011
2443.00,0.0010
2442.00,0.0010
2441.00,0.0010
2440.00,0.0010
2439.00,0.0010
2438.00,0.0011
2437.00,0.0011
2436.00,0.0011
2435.00,0.0012
2434.00,0.0012
2433.00,0.0012
2432.00,0.0012
2431.00,0.0012
2430.00,0.0011
2429.00,0.0011
2428.00,0.0010
2427.00,0.0010
2426.00,0.0010
2425.00,0.0010
2424.00,0.0010
2423.00,0.0010
2422.00,0.0010
2421.00,0.0009
2420.00,0.0009
2419.00,0.0010
2418.00,0.0010
2417.00,0.0010
2416.00,0.0009
2415.00,0.0008
2414.00,0.0008
2413.00,0.0008
2412.00,0.0008
2411.00,0.0008
2410.00,0.0008
2409.00,0.0008
2408.00,0.0008
2407.00,0.0007
2406.00,0.0007
2405.00,0.0007
2404.00,0.0007
2403.00,0.0007
2402.00,0.0007
2401.00,0.0007
2400.00,0.0007
2399.00,0.0006
2398.00,0.0006
2397.00,0.0007
2396.00,0.0007
2395.00,0.0007
2394.00,0.0007
2393.00,0.0007
2392.00,0.0006
2391.00,0.0006
2390.00,0.0005
2389.00,0.0005
2388.00,0.0004
2387.00,0.0004
2386.00,0.0003
2385.00,0.0003
2384.00,0.0002
2383.00,0.0001
2382.00,0.0000
2381.00,-0.0001
2380.00,-0.0002
2379.00,-0.0003
2378.00,-0.0003
2377.00,-0.0003
2376.00,-0.0003
2375.00,-0.0003
2374.00,-0.0003
2373.00,-0.0003
2372.00,-0.0003
2371.00,-0.0003
2370.00,-0.0002
2369.00,-0.0001
2368.00,-0.0001
2367.00,-0.0001
2366.00,-0.0003
2365.00,-0.0004
2364.00,-0.0004
2363.00,-0.0003
2362.00,-0.0003
2361.00,-0.0003
2360.00,-0.0003
2359.00,-0.0002
2358.00,-0.0002
2357.00,-0.0002
2356.00,-0.0002
2355.00,-0.0002
2354.00,-0.0003
2353.00,-0.0003
2352.00,-0.0002
2351.00,-0.0002
2350.00,-0.0003
2349.00,-0.0003
2348.00,-0.0002
2347.00,-0.0002
2346.00,-0.0001
2345.00,-0.0001
2344.00,-0.0001
2343.00,-0.0001
2342.00,-0.0001
2341.00,-0.0000
2340.00,0.0000
2339.00,0.0001
2338.00,0.0001
2337.00,0.0001
2336.00,0.0001
2335.00,0.0000
2334.00,-0.0001
2333.00,-0.0001
2332.00,-0.0002
2331.00,-0.0002
2330.00,-0.0001
2329.00,-0.0000
2328.00,0.0002
2327.00,0.0006
2326.00,0.0010
2325.00,0.0013
2324.00,0.0015
2323.00,0.0014
2322.00,0.0011
2321.00,0.0009
2320.00,0.0007
2319.00,0.0006
2318.00,0.0006
2317.00,0.0006
2316.00,0.0006
2315.00,0.0006
2314.00,0.0006
2313.00,0.0005
2312.00,0.0003
2311.00,0.0003
2310.00,0.0003
2309.00,0.0003
2308.00,0.0003
2307.00,0.0004
2306.00,0.0004
2305.00,0.0005
2304.00,0.0005
2303.00,0.0006
2302.00,0.0006
2301.00,0.0006
2300.00,0.0006
2299.00,0.0007
2298.00,0.0008
2297.00,0.0009
2296.00,0.0010
2295.00,0.0011
2294.00,0.0012
2293.00,0.0012
2292.00,0.0013
2291.00,0.0014
2290.00,0.0015
2289.00,0.0016
2288.00,0.0017
2287.00,0.0018
2286.00,0.0018
2285.00,0.0018
2284.00,0.0017
2283.00,0.0017
2282.00,0.0017
2281.00,0.0018
2280.00,0.0017
2279.00,0.0016
2278.00,0.0014
2277.00,0.0012
2276.00,0.0011
2275.00,0.0011
2274.00,0.0012
2273.00,0.0013
2272.00,0.0013
2271.00,0.0014
2270.00,0.0014
2269.00,0.0014
2268.00,0.0013
2267.00,0.0012
2266.00,0.0011
2265.00,0.0010
2264.00,0.0010
2263.00,0.0010
2262.00,0.0011
2261.00,0.0013
2260.00,0.0013
2259.00,0.0013
2258.00,0.0011
2257.00,0.0010
2256.00,0.0010
2255.00,0.0009
2254.00,0.0008
2253.00,0.0007
2252.00,0.0006
2251.00,0.0005
2250.00,0.0006
2249.00,0.0006
2248.00,0.0007
2247.00,0.0007
2246.00,0.0007
2245.00,0.0007
2244.00,0.0006
2243.00,0.0004
2242.00,0.0004
2241.00,0.0004
2240.00,0.0005
2239.00,0.0006
2238.00,0.0007
2237.00,0.0007
2236.00,0.0008
2235.00,0.0009
2234.00,0.0009
2233.00,0.0009
2232.00,0.0007
2231.00,0.0005
2230.00,0.0005
2229.00,0.0007
2228.00,0.0009
2227.00,0.0011
2226.00,0.0011
2225.00,0.0009
2224.00,0.0008
2223.00,0.0007
2222.00,0.0007
2221.00,0.0007
2220.00,0.0008
2219.00,0.0008
2218.00,0.0007
2217.00,0.0007
2216.00,0.0005
2215.00,0.0004
2214.00,0.0004
2213.00,0.0005
2212.00,0.0006
2211.00,0.0006
2210.00,0.0005
2209.00,0.0004
2208.00,0.0004
2207.00,0.0004
2206.00,0.0004
2205.00,0.0005
2204.00,0.0007
2203.00,0.0009
2202.00,0.0010
2201.00,0.0009
2200.00,0.0007
2199.00,0.0005
2198.00,0.0004
2197.00,0.0003
2196.00,0.0003
2195.00,0.0003
2194.00,0.0003
2193.00,0.0004
2192.00,0.0005
2191.00,0.0007
2190.00,0.0010
2189.00,0.0013
2188.00,0.0016
2187.00,0.0016
2186.00,0.0014
2185.00,0.0011
2184.00,0.0008
2183.00,0.0004
2182.00,0.0002
2181.00,0.0001
2180.00,0.0002
2179.00,0.0003
2178.00,0.0003
2177.00,0.0003
2176.00,0.0003
2175.00,0.0004
2174.00,0.0006
2173.00,0.0009
2172.00,0.0011
2171.00,0.0013
2170.00,0.0014
2169.00,0.0014
2168.00,0.0013
2167.00,0.0012
2166.00,0.0012
2165.00,0.0012
2164.00,0.0013
2163.00,0.0013
2162.00,0.0012
2161.00,0.0010
2160.00,0.0003
2159.00,-0.0008
2158.00,-0.0019
2157.00,-0.0026
2156.00,-0.0028
2155.00,-0.0027
2154.00,-0.0024
2153.00,-0.0021
2152.00,-0.0019
2151.00,-0.0018
2150.00,-0.0017
2149.00,-0.0015
2148.00,-0.0013
2147.00,-0.0013
2146.00,-0.0013
2145.00,-0.0015
2144.00,-0.0015
2143.00,-0.0015
2142.00,-0.0014
2141.00,-0.0012
2140.00,-0.0011
2139.00,-0.0011
2138.00,-0.0012
2137.00,-0.0012
2136.00,-0.0013
2135.00,-0.0015
2134.00,-0.0017
2133.00,-0.0017
2132.00,-0.0016
2131.00,-0.0015
2130.00,-0.0015
2129.00,-0.0014
2128.00,-0.0012
2127.00,-0.0010
2126.00,-0.0009
2125.00,-0.0009
2124.00,-0.0009
2123.00,-0.0009
2122.00,-0.0009
2121.00,-0.0008
2120.00,-0.0006
2119.00,-0.0004
2118.00,-0.0002
2117.00,0.0000
2116.00,0.0002
2115.00,0.0003
2114.00,0.0004
2113.00,0.0006
2112.00,0.0007
2111.00,0.0007
2110.00,0.0007
2109.00,0.0006
2108.00,0.0004
2107.00,0.0003
2106.00,0.0001
2105.00,0.0000
2104.00,-0.0000
2103.00,-0.0000
2102.00,-0.0001
2101.00,-0.0000
2100.00,-0.0000
2099.00,-0.0000
2098.00,-0.0000
2097.00,-0.0000
2096.00,-0.0001
2095.00,-0.0002
2094.00,-0.0002
2093.00,-0.0002
2092.00,-0.0001
2091.00,-0.0001
2090.00,-0.0000
2089.00,0.0001
2088.00,0.0002
2087.00,0.0002
2086.00,0.0001
2085.00,-0.0000
2084.00,-0.0001
2083.00,-0.0001
2082.00,-0.0001
2081.00,-0.0001
2080.00,-0.0001
2079.00,-0.0000
2078.00,0.0001
2077.00,0.0002
2076.00,0.0002
2075.00,0.0002
2074.00,0.0001
2073.00,0.0001
2072.00,0.0001
2071.00,0.0000
2070.00,-0.0000
2069.00,-0.0001
2068.00,-0.0001
2067.00,0.0000
2066.00,0.0001
2065.00,0.0001
2064.00,0.0001
2063.00,0.0000
2062.00,-0.0000
2061.00,-0.0000
2060.00,0.0000
2059.00,0.0001
2058.00,0.0002
2057.00,0.0004
2056.00,0.0004
2055.00,0.0003
2054.00,0.0004
2053.00,0.0008
2052.00,0.0012
2051.00,0.0013
2050.00,0.0011
2049.00,0.0006
2048.00,0.0002
2047.00,-0.0000
2046.00,-0.0002
2045.00,-0.0002
2044.00,-0.0002
2043.00,-0.0001
2042.00,0.0001
2041.00,0.0005
2040.00,0.0008
2039.00,0.0008
2038.00,0.0007
2037.00,0.0004
2036.00,0.0002
2035.00,-0.0001
2034.00,-0.0003
2033.00,-0.0005
2032.00,-0.0007
2031.00,-0.0009
2030.00,-0.0012
2029.00,-0.0013
2028.00,-0.0014
2027.00,-0.0013
2026.00,-0.0011
2025.00,-0.0010
2024.00,-0.0010
2023.00,-0.0010
2022.00,-0.0011
2021.00,-0.0012
2020.00,-0.0012
2019.00,-0.0012
2018.00,-0.0011
2017.00,-0.0010
2016.00,-0.0010
2015.00,-0.0012
2014.00,-0.0014
2013.00,-0.0015
2012.00,-0.0015
2011.00,-0.0014
2010.00,-0.0014
2009.00,-0.0014
2008.00,-0.0017
2007.00,-0.0018
2006.00,-0.0018
2005.00,-0.0015
2004.00,-0.0013
2003.00,-0.0012
2002.00,-0.0013
2001.00,-0.0014
2000.00,-0.0013
1999.00,-0.0014
1998.00,-0.0014
1997.00,-0.0014
1996.00,-0.0013
1995.00,-0.0011
1994.00,-0.0009
1993.00,-0.0008
1992.00,-0.0009
1991.00,-0.0010
1990.00,-0.0011
1989.00,-0.0009
1988.00,-0.0007
1987.00,-0.0005
1986.00,-0.0002
1985.00,0.0001
1984.00,0.0004
1983.00,0.0006
1982.00,0.0008
1981.00,0.0008
1980.00,0.0006
1979.00,0.0001
1978.00,-0.0004
1977.00,-0.0008
1976.00,-0.0011
1975.00,-0.0013
1974.00,-0.0015
1973.00,-0.0015
1972.00,-0.0015
1971.00,-0.0016
1970.00,-0.0017
1969.00,-0.0017
1968.00,-0.0016
1967.00,-0.0014
1966.00,-0.0012
1965.00,-0.0010
1964.00,-0.0010
1963.00,-0.0012
1962.00,-0.0013
1961.00,-0.0014
1960.00,-0.0015
1959.00,-0.0017
1958.00,-0.0019
1957.00,-0.0020
1956.00,-0.0020
1955.00,-0.0019
1954.00,-0.0018
1953.00,-0.0016
1952.00,-0.0014
1951.00,-0.0014
1950.00,-0.0015
1949.00,-0.0017
1948.00,-0.0020
1947.00,-0.0023
1946.00,-0.0025
1945.00,-0.0025
1944.00,-0.0024
1943.00,-0.0021
1942.00,-0.0017
1941.00,-0.0014
1940.00,-0.0012
1939.00,-0.0012
1938.00,-0.0012
1937.00,-0.0012
1936.00,-0.0012
1935.00,-0.0012
1934.00,-0.0012
1933.00,-0.0011
1932.00,-0.0010
1931.00,-0.0009
1930.00,-0.0008
1929.00,-0.0009
1928.00,-0.0009
1927.00,-0.0009
1926.00,-0.0008
1925.00,-0.0007
1924.00,-0.0006
1923.00,-0.0006
1922.00,-0.0006
1921.00,-0.0007
1920.00,-0.0008
1919.00,-0.0008
1918.00,-0.0007
1917.00,-0.0005
1916.00,-0.0004
1915.00,-0.0003
1914.00,-0.0003
1913.00,-0.0004
1912.00,-0.0004
1911.00,-0.0005
1910.00,-0.0005
1909.00,-0.0006
1908.00,-0.0005
1907.00,-0.0005
1906.00,-0.0004
1905.00,-0.0004
1904.00,-0.0004
1903.00,-0.0003
1902.00,-0.0002
1901.00,-0.0001
1900.00,0.0000
1899.00,-0.0000
1898.00,-0.0002
1897.00,-0.0003
1896.00,-0.0003
1895.00,-0.0003
1894.00,-0.0002
1893.00,-0.0001
1892.00,-0.0001
1891.00,-0.0001
1890.00,-0.0001
1889.00,-0.0000
1888.00,-0.0000
1887.00,-0.0001
1886.00,-0.0001
1885.00,-0.0001
1884.00,-0.0001
1883.00,-0.0001
1882.00,-0.0002
1881.00,-0.0003
1880.00,-0.0003
1879.00,-0.0003
1878.00,-0.0003
1877.00,-0.0002
1876.00,-0.0002
1875.00,-0.0002
1874.00,-0.0002
1873.00,-0.0003
1872.00,-0.0003
1871.00,-0.0004
1870.00,-0.0003
1869.00,-0.0003
1868.00,-0.0002
1867.00,-0.0002
1866.00,-0.0001
1865.00,-0.0001
1864.00,-0.0000
1863.00,-0.0000
1862.00,-0.0000
1861.00,-0.0000
1860.00,-0.0000
1859.00,-0.0000
1858.00,-0.0000
1857.00,-0.0000
1856.00,-0.0001
1855.00,-0.0001
1854.00,-0.0002
1853.00,-0.0002
1852.00,-0.0001
1851.00,-0.0001
1850.00,-0.0001
1849.00,-0.0001
1848.00,-0.0001
1847.00,-0.0001
1846.00,-0.0001
1845.00,-0.0001
1844.00,-0.0000
1843.00,0.0000
1842.00,0.0000
1841.00,-0.0000
1840.00,-0.0001
1839.00,-0.0001
1838.00,0.0000
1837.00,0.0001
1836.00,0.0001
1835.00,0.0002
1834.00,0.0002
1833.00,0.0002
1832.00,0.0002
1831.00,0.0003
1830.00,0.0003
1829.00,0.0004
1828.00,0.0004
1827.00,0.0003
1826.00,0.0002
1825.00,0.0001
1824.00,0.0001
1823.00,0.0001
1822.00,0.0001
1821.00,0.0002
1820.00,0.0001
1819.00,0.0000
1818.00,-0.0001
1817.00,-0.0003
1816.00,-0.0003
1815.00,-0.0002
1814.00,-0.0001
1813.00,-0.0001
1812.00,0.0000
1811.00,0.0001
1810.00,0.0001
1809.00,0.0002
1808.00,0.0002
1807.00,0.0002
1806.00,0.0002
1805.00,0.0002
1804.00,0.0003
1803.00,0.0003
1802.00,0.0003
1801.00,0.0002
1800.00,0.0002
1799.00,0.0002
1798.00,0.0003
1797.00,0.0003
1796.00,0.0003
1795.00,0.0003
1794.00,0.0003
1793.00,0.0003
1792.00,0.0004
1791.00,0.0005
1790.00,0.0005
1789.00,0.0005
1788.00,0.0005
1787.00,0.0006
1786.00,0.0006
1785.00,0.0007
1784.00,0.0007
1783.00,0.0007
1782.00,0.0007
1781.00,0.0007
1780.00,0.0007
1779.00,0.0007
1778.00,0.0006
1777.00,0.0006
1776.00,0.0006
1775.00,0.0006
1774.00,0.0006
1773.00,0.0006
1772.00,0.0006
1771.00,0.0006
1770.00,0.0006
1769.00,0.0006
1768.00,0.0007
1767.00,0.0007
1766.00,0.0008
1765.00,0.0008
1764.00,0.0008
1763.00,0.0008
1762.00,0.0008
1761.00,0.0008
1760.00,0.0009
1759.00,0.0009
1758.00,0.0010
1757.00,0.0010
1756.00,0.0010
1755.00,0.0011
1754.00,0.0011
1753.00,0.0011
1752.00,0.0010
1751.00,0.0010
1750.00,0.0009
1749.00,0.0009
1748.00,0.0009
1747.00,0.0009
1746.00,0.0009
1745.00,0.0009
1744.00,0.0009
1743.00,0.0008
1742.00,0.0007
1741.00,0.0007
1740.00,0.0006
1739.00,0.0006
1738.00,0.0005
1737.00,0.0005
1736.00,0.0005
1735.00,0.0004
1734.00,0.0003
1733.00,0.0002
1732.00,0.0003
1731.00,0.0003
1730.00,0.0003
1729.00,0.0003
1728.00,0.0003
1727.00,0.0003
1726.00,0.0003
1725.00,0.0004
1724.00,0.0004
1723.00,0.0005
1722.00,0.0006
1721.00,0.0006
1720.00,0.0008
1719.00,0.0009
1718.00,0.0011
1717.00,0.0013
1716.00,0.0014
1715.00,0.0015
1714.00,0.0015
1713.00,0.0016
1712.00,0.0016
1711.00,0.0016
1710.00,0.0016
1709.00,0.0017
1708.00,0.0017
1707.00,0.0018
1706.00,0.0018
1705.00,0.0018
1704.00,0.0019
1703.00,0.0020
1702.00,0.0020
1701.00,0.0019
1700.00,0.0019
1699.00,0.0019
1698.00,0.0019
1697.00,0.0020
1696.00,0.0021
1695.00,0.0022
1694.00,0.0022
1693.00,0.0022
1692.00,0.0022
1691.00,0.0023
1690.00,0.0023
1689.00,0.0024
1688.00,0.0024
1687.00,0.0024
1686.00,0.0024
1685.00,0.0023
1684.00,0.0024
1683.00,0.0025
1682.00,0.0026
1681.00,0.0027
1680.00,0.0027
1679.00,0.0028
1678.00,0.0028
1677.00,0.0028
1676.00,0.0028
1675.00,0.0029
1674.00,0.0029
1673.00,0.0029
1672.00,0.0029
1671.00,0.0028
1670.00,0.0028
1669.00,0.0029
1668.00,0.0030
1667.00,0.0031
1666.00,0.0032
1665.00,0.0032
1664.00,0.0033
1663.00,0.0033
1662.00,0.0033
1661.00,0.0034
1660.00,0.0035
1659.00,0.0035
1658.00,0.0035
1657.00,0.0036
1656.00,0.0037
1655.00,0.0037
1654.00,0.0038
1653.00,0.0039
1652.00,0.0041
1651.00,0.0041
1650.00,0.0041
1649.00,0.0041
1648.00,0.0042
1647.00,0.0042
1646.00,0.0042
1645.00,0.0042
1644.00,0.0043
1643.00,0.0043
1642.00,0.0044
1641.00,0.0044
1640.00,0.0045
1639.00,0.0045
1638.00,0.0045
1637.00,0.0045
1636.00,0.0045
1635.00,0.0045
1634.00,0.0045
1633.00,0.0045
1632.00,0.0045
1631.00,0.0045
1630.00,0.0045
1629.00,0.0045
1628.00,0.0045
1627.00,0.0045
1626.00,0.0046
1625.00,0.0046
1624.00,0.0047
1623.00,0.0047
1622.00,0.0046
1621.00,0.0046
1620.00,0.0045
1619.00,0.0045
1618.00,0.0045
1617.00,0.0045
1616.00,0.0045
1615.00,0.0045
1614.00,0.0046
1613.00,0.0046
1612.00,0.0046
1611.00,0.0046
1610.00,0.0046
1609.00,0.0046
1608.00,0.0046
1607.00,0.0046
1606.00,0.0045
1605.00,0.0045
1604.00,0.0045
1603.00,0.0044
1602.00,0.0044
1601.00,0.0044
1600.00,0.0044
1599.00,0.0044
1598.00,0.0044
1597.00,0.0044
1596.00,0.0044
1595.00,0.0043
1594.00,0.0043
1593.00,0.0043
1592.00,0.0042
1591.00,0.0042
1590.00,0.0042
1589.00,0.0042
1588.00,0.0042
1587.00,0.0041
1586.00,0.0041
1585.00,0.0041
1584.00,0.0041
1583.00,0.0041
1582.00,0.0041
1581.00,0.0041
1580.00,0.0042
1579.00,0.0042
1578.00,0.0043
1577.00,0.0043
1576.00,0.0043
1575.00,0.0043
1574.00,0.0043
1573.00,0.0043
1572.00,0.0043
1571.00,0.0043
1570.00,0.0043
1569.00,0.0043
1568.00,0.0043
1567.00,0.0043
1566.00,0.0043
1565.00,0.0043
1564.00,0.0044
1563.00,0.0045
1562.00,0.0046
1561.00,0.0047
1560.00,0.0048
1559.00,0.0048
1558.00,0.0048
1557.00,0.0048
1556.00,0.0048
1555.00,0.0048
1554.00,0.0048
1553.00,0.0049
1552.00,0.0049
1551.00,0.0050
1550.00,0.0050
1549.00,0.0051
1548.00,0.0052
1547.00,0.0052
1546.00,0.0052
1545.00,0.0053
1544.00,0.0053
1543.00,0.0052
1542.00,0.0051
1541.00,0.0051
1540.00,0.0050
1539.00,0.0049
1538.00,0.0049
1537.00,0.0048
1536.00,0.0048
1535.00,0.0048
1534.00,0.0047
1533.00,0.0046
1532.00,0.0046
1531.00,0.0046
1530.00,0.0045
1529.00,0.0045
1528.00,0.0045
1527.00,0.0045
1526.00,0.0045
1525.00,0.0045
1524.00,0.0045
1523.00,0.0045
1522.00,0.0044
1521.00,0.0045
1520.00,0.0045
1519.00,0.0046
1518.00,0.0046
1517.00,0.0046
1516.00,0.0046
1515.00,0.0046
1514.00,0.0046
1513.00,0.0047
1512.00,0.0048
1511.00,0.0050
1510.00,0.0051
1509.00,0.0052
1508.00,0.0054
1507.00,0.0054
1506.00,0.0055
1505.00,0.0056
1504.00,0.0057
1503.00,0.0059
1502.00,0.0060
1501.00,0.0062
1500.00,0.0064
1499.00,0.0066
1498.00,0.0068
1497.00,0.0071
1496.00,0.0075
1495.00,0.0078
1494.00,0.0080
1493.00,0.0083
1492.00,0.0086
1491.00,0.0089
1490.00,0.0093
1489.00,0.0097
1488.00,0.0102
1487.00,0.0107
1486.00,0.0111
1485.00,0.0116
1484.00,0.0122
1483.00,0.0128
1482.00,0.0136
1481.00,0.0146
1480.00,0.0157
1479.00,0.0169
1478.00,0.0182
1477.00,0.0200
1476.00,0.0222
1475.00,0.0247
1474.00,0.0281
1473.00,0.0333
1472.00,0.0396
1471.00,0.0458
1470.00,0.0517
1469.00,0.0580
1468.00,0.0647
1467.00,0.0722
1466.00,0.0808
1465.00,0.0903
1464.00,0.0988
1463.00,0.1052
1462.00,0.1096
1461.00,0.1130
1460.00,0.1157
1459.00,0.1180
1458.00,0.1204
1457.00,0.1229
1456.00,0.1246
1455.00,0.1252
1454.00,0.1252
1453.00,0.1246
1452.00,0.1230
1451.00,0.1199
1450.00,0.1150
1449.00,0.1077
1448.00,0.0979
1447.00,0.0872
1446.00,0.0773
1445.00,0.0688
1444.00,0.0615
1443.00,0.0556
1442.00,0.0511
1441.00,0.0481
1440.00,0.0461
1439.00,0.0451
1438.00,0.0447
1437.00,0.0441
1436.00,0.0424
1435.00,0.0394
1434.00,0.0355
1433.00,0.0310
1432.00,0.0264
1431.00,0.0224
1430.00,0.0193
1429.00,0.0171
1428.00,0.0155
1427.00,0.0146
1426.00,0.0140
1425.00,0.0134
1424.00,0.0128
1423.00,0.0125
1422.00,0.0123
1421.00,0.0121
1420.00,0.0118
1419.00,0.0116
1418.00,0.0114
1417.00,0.0112
1416.00,0.0110
1415.00,0.0109
1414.00,0.0109
1413.00,0.0109
1412.00,0.0108
1411.00,0.0107
1410.00,0.0108
1409.00,0.0107
1408.00,0.0106
1407.00,0.0106
1406.00,0.0107
1405.00,0.0107
1404.00,0.0107
1403.00,0.0109
1402.00,0.0111
1401.00,0.0112
1400.00,0.0113
1399.00,0.0115
1398.00,0.0118
1397.00,0.0121
1396.00,0.0123
1395.00,0.0127
1394.00,0.0133
1393.00,0.0138
1392.00,0.0144
1391.00,0.0153
1390.00,0.0165
1389.00,0.0183
1388.00,0.0211
1387.00,0.0251
1386.00,0.0304
1385.00,0.0369
1384.00,0.0455
1383.00,0.0568
1382.00,0.0714
1381.00,0.0894
1380.00,0.1109
1379.00,0.1346
1378.00,0.1571
1377.00,0.1733
1376.00,0.1786
1375.00,0.1702
1374.00,0.1501
1373.00,0.1254
1372.00,0.1022
1371.00,0.0828
1370.00,0.0670
1369.00,0.0547
1368.00,0.0462
1367.00,0.0408
1366.00,0.0379
1365.00,0.0368
1364.00,0.0370
1363.00,0.0383
1362.00,0.0403
1361.00,0.0424
1360.00,0.0440
1359.00,0.0444
1358.00,0.0432
1357.00,0.0406
1356.00,0.0369
1355.00,0.0328
1354.00,0.0289
1353.00,0.0255
1352.00,0.0227
1351.00,0.0205
1350.00,0.0187
1349.00,0.0172
1348.00,0.0161
1347.00,0.0151
1346.00,0.0143
1345.00,0.0137
1344.00,0.0132
1343.00,0.0129
1342.00,0.0126
1341.00,0.0124
1340.00,0.0122
1339.00,0.0119
1338.00,0.0118
1337.00,0.0117
1336.00,0.0118
1335.00,0.0120
1334.00,0.0122
1333.00,0.0125
1332.00,0.0129
1331.00,0.0132
1330.00,0.0134
1329.00,0.0133
1328.00,0.0129
1327.00,0.0125
1326.00,0.0119
1325.00,0.0113
1324.00,0.0107
1323.00,0.0101
1322.00,0.0097
1321.00,0.0093
1320.00,0.0091
1319.00,0.0089
1318.00,0.0086
1317.00,0.0084
1316.00,0.0082
1315.00,0.0081
1314.00,0.0081
1313.00,0.0081
1312.00,0.0083
1311.00,0.0087
1310.00,0.0092
1309.00,0.0102
1308.00,0.0114
1307.00,0.0130
1306.00,0.0145
1305.00,0.0156
1304.00,0.0159
1303.00,0.0155
1302.00,0.0146
1301.00,0.0137
1300.00,0.0130
1299.00,0.0126
1298.00,0.0124
1297.00,0.0123
1296.00,0.0120
1295.00,0.0116
1294.00,0.0111
1293.00,0.0105
1292.00,0.0099
1291.00,0.0093
1290.00,0.0087
1289.00,0.0083
1288.00,0.0079
1287.00,0.0077
1286.00,0.0075
1285.00,0.0073
1284.00,0.0072
1283.00,0.0070
1282.00,0.0069
1281.00,0.0067
1280.00,0.0065
1279.00,0.0064
1278.00,0.0063
1277.00,0.0062
1276.00,0.0062
1275.00,0.0062
1274.00,0.0062
1273.00,0.0062
1272.00,0.0063
1271.00,0.0064
1270.00,0.0065
1269.00,0.0066
1268.00,0.0067
1267.00,0.0069
1266.00,0.0071
1265.00,0.0074
1264.00,0.0077
1263.00,0.0081
1262.00,0.0085
1261.00,0.0092
1260.00,0.0101
1259.00,0.0112
1258.00,0.0124
1257.00,0.0134
1256.00,0.0140
1255.00,0.0139
1254.00,0.0132
1253.00,0.0121
1252.00,0.0110
1251.00,0.0101
1250.00,0.0094
1249.00,0.0089
1248.00,0.0086
1247.00,0.0085
1246.00,0.0084
1245.00,0.0084
1244.00,0.0084
1243.00,0.0084
1242.00,0.0083
1241.00,0.0082
1240.00,0.0081
1239.00,0.0079
1238.00,0.0078
1237.00,0.0077
1236.00,0.0076
1235.00,0.0076
1234.00,0.0075
1233.00,0.0075
1232.00,0.0074
1231.00,0.0074
1230.00,0.0074
1229.00,0.0074
1228.00,0.0075
1227.00,0.0076
1226.00,0.0077
1225.00,0.0080
1224.00,0.0082
1223.00,0.0085
1222.00,0.0087
1221.00,0.0089
1220.00,0.0091
1219.00,0.0091
1218.00,0.0091
1217.00,0.0090
1216.00,0.0088
1215.00,0.0086
1214.00,0.0084
1213.00,0.0082
1212.00,0.0079
1211.00,0.0076
1210.00,0.0074
1209.00,0.0072
1208.00,0.0070
1207.00,0.0069
1206.00,0.0068
1205.00,0.0068
1204.00,0.0068
1203.00,0.0068
1202.00,0.0068
1201.00,0.0068
1200.00,0.0068
1199.00,0.0068
1198.00,0.0068
1197.00,0.0068
1196.00,0.0067
1195.00,0.0068
1194.00,0.0068
1193.00,0.0069
1192.00,0.0069
1191.00,0.0069
1190.00,0.0069
1189.00,0.0070
1188.00,0.0070
1187.00,0.0071
1186.00,0.0072
1185.00,0.0074
1184.00,0.0076
1183.00,0.0078
1182.00,0.0082
1181.00,0.0086
1180.00,0.0091
1179.00,0.0097
1178.00,0.0106
1177.00,0.0118
1176.00,0.0133
1175.00,0.0154
1174.00,0.0182
1173.00,0.0217
1172.00,0.0259
1171.00,0.0303
1170.00,0.0347
1169.00,0.0383
1168.00,0.0405
1167.00,0.0412
1166.00,0.0403
1165.00,0.0382
1164.00,0.0355
1163.00,0.0327
1162.00,0.0302
1161.00,0.0280
1160.00,0.0262
1159.00,0.0248
1158.00,0.0237
1157.00,0.0229
1156.00,0.0223
1155.00,0.0218
1154.00,0.0215
1153.00,0.0210
1152.00,0.0205
1151.00,0.0197
1150.00,0.0187
1149.00,0.0177
1148.00,0.0166
1147.00,0.0156
1146.00,0.0147
1145.00,0.0139
1144.00,0.0130
1143.00,0.0122
1142.00,0.0114
1141.00,0.0107
1140.00,0.0101
1139.00,0.0097
1138.00,0.0093
1137.00,0.0089
1136.00,0.0086
1135.00,0.0083
1134.00,0.0081
1133.00,0.0080
1132.00,0.0078
1131.00,0.0077
1130.00,0.0076
1129.00,0.0075
1128.00,0.0076
1127.00,0.0077
1126.00,0.0078
1125.00,0.0078
1124.00,0.0078
1123.00,0.0078
1122.00,0.0078
1121.00,0.0078
1120.00,0.0078
1119.00,0.0080
1118.00,0.0082
1117.00,0.0084
1116.00,0.0086
1115.00,0.0087
1114.00,0.0089
1113.00,0.0091
1112.00,0.0093
1111.00,0.0096
1110.00,0.0100
1109.00,0.0104
1108.00,0.0109
1107.00,0.0116
1106.00,0.0123
1105.00,0.0130
1104.00,0.0135
1103.00,0.0138
1102.00,0.0139
1101.00,0.0136
1100.00,0.0131
1099.00,0.0125
1098.00,0.0118
1097.00,0.0111
1096.00,0.0105
1095.00,0.0100
1094.00,0.0097
1093.00,0.0095
1092.00,0.0093
1091.00,0.0090
1090.00,0.0089
1089.00,0.0087
1088.00,0.0085
1087.00,0.0084
1086.00,0.0083
1085.00,0.0082
1084.00,0.0081
1083.00,0.0080
1082.00,0.0078
1081.00,0.0076
1080.00,0.0074
1079.00,0.0072
1078.00,0.0071
1077.00,0.0070
1076.00,0.0069
1075.00,0.0070
1074.00,0.0070
1073.00,0.0070
1072.00,0.0070
1071.00,0.0070
1070.00,0.0071
1069.00,0.0071
1068.00,0.0071
1067.00,0.0070
1066.00,0.0070
1065.00,0.0070
1064.00,0.0071
1063.00,0.0072
1062.00,0.0073
1061.00,0.0075
1060.00,0.0076
1059.00,0.0077
1058.00,0.0078
1057.00,0.0078
1056.00,0.0078
1055.00,0.0078
1054.00,0.0079
1053.00,0.0081
1052.00,0.0082
1051.00,0.0084
1050.00,0.0086
1049.00,0.0089
1048.00,0.0093
1047.00,0.0098
1046.00,0.0101
1045.00,0.0103
1044.00,0.0103
1043.00,0.0101
1042.00,0.0098
1041.00,0.0095
1040.00,0.0092
1039.00,0.0089
1038.00,0.0087
1037.00,0.0086
1036.00,0.0085
1035.00,0.0085
1034.00,0.0085
1033.00,0.0084
1032.00,0.0084
1031.00,0.0083
1030.00,0.0083
1029.00,0.0083
1028.00,0.0084
1027.00,0.0084
1026.00,0.0085
1025.00,0.0085
1024.00,0.0085
1023.00,0.0085
1022.00,0.0086
1021.00,0.0087
1020.00,0.0088
1019.00,0.0089
1018.00,0.0091
1017.00,0.0093
1016.00,0.0096
1015.00,0.0101
1014.00,0.0105
1013.00,0.0109
1012.00,0.0113
1011.00,0.0117
1010.00,0.0122
1009.00,0.0129
1008.00,0.0137
1007.00,0.0148
1006.00,0.0161
1005.00,0.0177
1004.00,0.0198
1003.00,0.0227
1002.00,0.0267
1001.00,0.0316
1000.00,0.0370
999.00,0.0417
998.00,0.0443
997.00,0.0440
996.00,0.0408
995.00,0.0357
994.00,0.0301
993.00,0.0250
992.00,0.0209
991.00,0.0179
990.00,0.0158
989.00,0.0143
988.00,0.0134
987.00,0.0128
986.00,0.0127
985.00,0.0129
984.00,0.0134
983.00,0.0142
982.00,0.0155
981.00,0.0174
980.00,0.0201
979.00,0.0237
978.00,0.0283
977.00,0.0337
976.00,0.0398
975.00,0.0459
974.00,0.0508
973.00,0.0534
972.00,0.0524
971.00,0.0481
970.00,0.0416
969.00,0.0345
968.00,0.0280
967.00,0.0230
966.00,0.0193
965.00,0.0167
964.00,0.0147
963.00,0.0133
962.00,0.0121
961.00,0.0111
960.00,0.0103
959.00,0.0098
958.00,0.0094
957.00,0.0092
956.00,0.0090
955.00,0.0087
954.00,0.0084
953.00,0.0082
952.00,0.0081
951.00,0.0080
950.00,0.0080
949.00,0.0080
948.00,0.0080
947.00,0.0080
946.00,0.0081
945.00,0.0084
944.00,0.0087
943.00,0.0091
942.00,0.0094
941.00,0.0094
940.00,0.0093
939.00,0.0089
938.00,0.0085
937.00,0.0080
936.00,0.0076
935.00,0.0072
934.00,0.0069
933.00,0.0067
932.00,0.0065
931.00,0.0064
930.00,0.0063
929.00,0.0062
928.00,0.0062
927.00,0.0061
926.00,0.0061
925.00,0.0062
924.00,0.0062
923.00,0.0063
922.00,0.0064
921.00,0.0066
920.00,0.0067
919.00,0.0068
918.00,0.0068
917.00,0.0068
916.00,0.0069
915.00,0.0069
914.00,0.0070
913.00,0.0071
912.00,0.0072
911.00,0.0071
910.00,0.0071
909.00,0.0072
908.00,0.0075
907.00,0.0079
906.00,0.0087
905.00,0.0097
904.00,0.0111
903.00,0.0128
902.00,0.0148
901.00,0.0165
900.00,0.0177
899.00,0.0180
898.00,0.0173
897.00,0.0159
896.00,0.0141
895.00,0.0123
894.00,0.0107
893.00,0.0095
892.00,0.0087
891.00,0.0081
890.00,0.0077
889.00,0.0075
888.00,0.0074
887.00,0.0073
886.00,0.0073
885.00,0.0072
884.00,0.0071
883.00,0.0070
882.00,0.0069
881.00,0.0069
880.00,0.0070
879.00,0.0071
878.00,0.0071
877.00,0.0070
876.00,0.0070
875.00,0.0069
874.00,0.0070
873.00,0.0072
872.00,0.0073
871.00,0.0074
870.00,0.0073
869.00,0.0072
868.00,0.0072
867.00,0.0072
866.00,0.0073
865.00,0.0074
864.00,0.0077
863.00,0.0079
862.00,0.0082
861.00,0.0084
860.00,0.0086
859.00,0.0087
858.00,0.0088
857.00,0.0089
856.00,0.0091
855.00,0.0093
854.00,0.0096
853.00,0.0099
852.00,0.0104
851.00,0.0110
850.00,0.0117
849.00,0.0126
848.00,0.0139
847.00,0.0160
846.00,0.0192
845.00,0.0238
844.00,0.0302
843.00,0.0373
842.00,0.0429
841.00,0.0448
840.00,0.0420
839.00,0.0360
838.00,0.0294
837.00,0.0238
836.00,0.0200
835.00,0.0176
834.00,0.0161
833.00,0.0151
832.00,0.0143
831.00,0.0137
830.00,0.0131
829.00,0.0126
828.00,0.0121
827.00,0.0117
826.00,0.0115
825.00,0.0113
824.00,0.0112
823.00,0.0110
822.00,0.0109
821.00,0.0108
820.00,0.0109
819.00,0.0110
818.00,0.0113
817.00,0.0118
816.00,0.0125
815.00,0.0133
814.00,0.0144
813.00,0.0158
812.00,0.0174
811.00,0.0189
810.00,0.0200
809.00,0.0205
808.00,0.0204
807.00,0.0195
806.00,0.0182
805.00,0.0166
804.00,0.0151
803.00,0.0138
802.00,0.0127
801.00,0.0118
800.00,0.0111
799.00,0.0105
798.00,0.0100
797.00,0.0096
796.00,0.0094
795.00,0.0091
794.00,0.0089
793.00,0.0087
792.00,0.0085
791.00,0.0083
790.00,0.0081
789.00,0.0078
788.00,0.0076
787.00,0.0074
786.00,0.0072
785.00,0.0070
784.00,0.0067
783.00,0.0064
782.00,0.0062
781.00,0.0060
780.00,0.0060
779.00,0.0060
778.00,0.0060
777.00,0.0061
776.00,0.0062
775.00,0.0063
774.00,0.0066
773.00,0.0068
772.00,0.0071
771.00,0.0073
770.00,0.0076
769.00,0.0079
768.00,0.0081
767.00,0.0081
766.00,0.0080
765.00,0.0078
764.00,0.0074
763.00,0.0071
762.00,0.0068
761.00,0.0065
760.00,0.0061
759.00,0.0058
758.00,0.0056
757.00,0.0055
756.00,0.0053
755.00,0.0050
754.00,0.0047
753.00,0.0046
752.00,0.0047
751.00,0.0048
750.00,0.0049
749.00,0.0049
748.00,0.0050
747.00,0.0050
746.00,0.0050
745.00,0.0050
744.00,0.0051
743.00,0.0052
742.00,0.0053
741.00,0.0054
740.00,0.0054
739.00,0.0055
738.00,0.0056
737.00,0.0058
736.00,0.0059
735.00,0.0060
734.00,0.0060
733.00,0.0060
732.00,0.0060
731.00,0.0061
730.00,0.0062
729.00,0.0062
728.00,0.0061
727.00,0.0059
726.00,0.0059
725.00,0.0059
724.00,0.0060
723.00,0.0060
722.00,0.0060
721.00,0.0058
720.00,0.0057
719.00,0.0056
718.00,0.0055
717.00,0.0055
716.00,0.0055
715.00,0.0055
714.00,0.0054
713.00,0.0053
712.00,0.0052
711.00,0.0051
710.00,0.0051
709.00,0.0052
708.00,0.0053
707.00,0.0054
706.00,0.0055
705.00,0.0055
704.00,0.0055
703.00,0.0053
702.00,0.0052
701.00,0.0051
700.00,0.0050
699.00,0.0050
698.00,0.0048
697.00,0.0047
696.00,0.0046
695.00,0.0046
694.00,0.0047
693.00,0.0047
692.00,0.0046
691.00,0.0046
690.00,0.0046
689.00,0.0047
688.00,0.0048
687.00,0.0049
686.00,0.0048
685.00,0.0047
684.00,0.0047
683.00,0.0047
682.00,0.0047
681.00,0.0047
680.00,0.0046
679.00,0.0045
678.00,0.0046
677.00,0.0047
676.00,0.0049
675.00,0.0050
674.00,0.0050
673.00,0.0049
672.00,0.0048
671.00,0.0047
670.00,0.0046
669.00,0.0045
668.00,0.0048
667.00,0.0051
666.00,0.0052
665.00,0.0051
664.00,0.0049
663.00,0.0047
662.00,0.0047
661.00,0.0048
660.00,0.0051
659.00,0.0053
658.00,0.0053
657.00,0.0049
656.00,0.0046
655.00,0.0043
654.00,0.0043
653.00,0.0046
652.00,0.0049
651.00,0.0050
650.00,0.0050
649.00,0.0049
648.00,0.0048
647.00,0.0048
646.00,0.0048
645.00,0.0047
644.00,0.0046
643.00,0.0046
642.00,0.0046
641.00,0.0047
640.00,0.0046
639.00,0.0046
638.00,0.0046
637.00,0.0046
636.00,0.0048
635.00,0.0049
634.00,0.0049
633.00,0.0048
632.00,0.0048
631.00,0.0049
630.00,0.0051
629.00,0.0052
628.00,0.0054
627.00,0.0055
626.00,0.0055
625.00,0.0055
624.00,0.0053
623.00,0.0050
622.00,0.0048
621.00,0.0047
620.00,0.0047
619.00,0.0049
618.00,0.0050
617.00,0.0051
616.00,0.0051
615.00,0.0050
614.00,0.0050
613.00,0.0050
612.00,0.0050
611.00,0.0051
610.00,0.0050
609.00,0.0049
608.00,0.0047
607.00,0.0045
606.00,0.0046
605.00,0.0048
604.00,0.0052
603.00,0.0055
602.00,0.0057
601.00,0.0058
600.00,0.0059
599.00,0.0060
598.00,0.0060
597.00,0.0060
596.00,0.0060
595.00,0.0059
594.00,0.0059
593.00,0.0057
592.00,0.0055
591.00,0.0053
590.00,0.0053
589.00,0.0053
588.00,0.0055
587.00,0.0058
586.00,0.0060
585.00,0.0060
584.00,0.0059
583.00,0.0058
582.00,0.0058
581.00,0.0057
580.00,0.0056
579.00,0.0055
578.00,0.0055
577.00,0.0056
576.00,0.0057
575.00,0.0058
574.00,0.0057
573.00,0.0052
572.00,0.0047
571.00,0.0045
570.00,0.0047
569.00,0.0053
568.00,0.0060
567.00,0.0064
566.00,0.0064
565.00,0.0062
564.00,0.0059
563.00,0.0059
562.00,0.0060
561.00,0.0059
560.00,0.0057
559.00,0.0054
558.00,0.0052
557.00,0.0052
556.00,0.0053
555.00,0.0056
554.00,0.0060
553.00,0.0064
552.00,0.0066
551.00,0.0066
550.00,0.0064
549.00,0.0060
548.00,0.0056
547.00,0.0056
546.00,0.0058
545.00,0.0062
544.00,0.0065
543.00,0.0067
542.00,0.0069
541.00,0.0070
540.00,0.0068
539.00,0.0065
538.00,0.0063
537.00,0.0064
536.00,0.0067
535.00,0.0070
534.00,0.0070
533.00,0.0069
532.00,0.0069
531.00,0.0070
530.00,0.0071
529.00,0.0070
528.00,0.0067
527.00,0.0064
526.00,0.0063
525.00,0.0066
524.00,0.0069
523.00,0.0070
522.00,0.0069
521.00,0.0064
520.00,0.0059
519.00,0.0055
518.00,0.0052
517.00,0.0052
516.00,0.0055
515.00,0.0060
514.00,0.0065
513.00,0.0064
512.00,0.0060
511.00,0.0055
510.00,0.0052
509.00,0.0052
508.00,0.0054
507.00,0.0057
506.00,0.0061
505.00,0.0062
504.00,0.0062
503.00,0.0063
502.00,0.0068
501.00,0.0075
500.00,0.0079
499.00,0.0079
498.00,0.0075
497.00,0.0066
496.00,0.0056
495.00,0.0049
494.00,0.0048
493.00,0.0052
492.00,0.0061
491.00,0.0068
490.00,0.0070
489.00,0.0068
488.00,0.0065
487.00,0.0063
486.00,0.0059
485.00,0.0054
484.00,0.0050
483.00,0.0052
482.00,0.0059
481.00,0.0067
480.00,0.0075
479.00,0.0080
478.00,0.0082
477.00,0.0081
476.00,0.0081
475.00,0.0086
474.00,0.0095
473.00,0.0100
472.00,0.0096
471.00,0.0086
470.00,0.0078
469.00,0.0075
468.00,0.0080
467.00,0.0091
466.00,0.0103
465.00,0.0112
464.00,0.0118
463.00,0.0125
462.00,0.0133
461.00,0.0138
460.00,0.0139
459.00,0.0137
458.00,0.0130
457.00,0.0119
456.00,0.0109
455.00,0.0106
454.00,0.0110
453.00,0.0115
452.00,0.0116
451.00,0.0119
450.00,0.0126
