Created as New Dataset,Sample 001 By Administrator Date Wednesday, September 10 2025
cm-1,A
4000.00,0.0009
3999.00,0.0009
3998.00,0.0008
3997.00,0.0008
3996.00,0.0008
3995.00,0.0008
3994.00,0.0008
3993.00,0.0008
3992.00,0.0008
3991.00,0.0008
3990.00,0.0009
3989.00,0.0009
3988.00,0.0009
3987.00,0.0008
3986.00,0.0008
3985.00,0.0007
3984.00,0.0007
3983.00,0.0007
3982.00,0.0006
3981.00,0.0006
3980.00,0.0006
3979.00,0.0007
3978.00,0.0007
3977.00,0.0007
3976.00,0.0006
3975.00,0.0006
3974.00,0.0006
3973.00,0.0006
3972.00,0.0006
3971.00,0.0006
3970.00,0.0006
3969.00,0.0006
3968.00,0.0006
3967.00,0.0006
3966.00,0.0006
3965.00,0.0006
3964.00,0.0006
3963.00,0.0006
3962.00,0.0006
3961.00,0.0006
3960.00,0.0006
3959.00,0.0006
3958.00,0.0006
3957.00,0.0006
3956.00,0.0006
3955.00,0.0006
3954.00,0.0006
3953.00,0.0006
3952.00,0.0006
3951.00,0.0006
3950.00,0.0006
3949.00,0.0006
3948.00,0.0006
3947.00,0.0006
3946.00,0.0006
3945.00,0.0007
3944.00,0.0007
3943.00,0.0006
3942.00,0.0006
3941.00,0.0006
3940.00,0.0006
3939.00,0.0006
3938.00,0.0006
3937.00,0.0006
3936.00,0.0006
3935.00,0.0006
3934.00,0.0006
3933.00,0.0005
3932.00,0.0005
3931.00,0.0005
3930.00,0.0005
3929.00,0.0005
3928.00,0.0005
3927.00,0.0006
3926.00,0.0006
3925.00,0.0006
3924.00,0.0007
3923.00,0.0007
3922.00,0.0007
3921.00,0.0007
3920.00,0.0007
3919.00,0.0007
3918.00,0.0006
3917.00,0.0006
3916.00,0.0006
3915.00,0.0006
3914.00,0.0006
3913.00,0.0006
3912.00,0.0006
3911.00,0.0006
3910.00,0.0006
3909.00,0.0006
3908.00,0.0007
3907.00,0.0007
3906.00,0.0006
3905.00,0.0006
3904.00,0.0006
3903.00,0.0006
3902.00,0.0006
3901.00,0.0006
3900.00,0.0005
3899.00,0.0005
3898.00,0.0005
3897.00,0.0005
3896.00,0.0006
3895.00,0.0007
3894.00,0.0007
3893.00,0.0007
3892.00,0.0007
3891.00,0.0007
3890.00,0.0006
3889.00,0.0006
3888.00,0.0006
3887.00,0.0006
3886.00,0.0006
3885.00,0.0006
3884.00,0.0007
3883.00,0.0006
3882.00,0.0006
3881.00,0.0005
3880.00,0.0005
3879.00,0.0005
3878.00,0.0005
3877.00,0.0005
3876.00,0.0006
3875.00,0.0006
3874.00,0.0006
3873.00,0.0006
3872.00,0.0006
3871.00,0.0006
3870.00,0.0006
3869.00,0.0006
3868.00,0.0006
3867.00,0.0006
3866.00,0.0006
3865.00,0.0006
3864.00,0.0006
3863.00,0.0005
3862.00,0.0005
3861.00,0.0005
3860.00,0.0005
3859.00,0.0005
3858.00,0.0005
3857.00,0.0006
3856.00,0.0006
3855.00,0.0006
3854.00,0.0006
3853.00,0.0006
3852.00,0.0007
3851.00,0.0007
3850.00,0.0006
3849.00,0.0006
3848.00,0.0005
3847.00,0.0005
3846.00,0.0005
3845.00,0.0006
3844.00,0.0006
3843.00,0.0006
3842.00,0.0006
3841.00,0.0007
3840.00,0.0007
3839.00,0.0007
3838.00,0.0007
3837.00,0.0007
3836.00,0.0007
3835.00,0.0007
3834.00,0.0007
3833.00,0.0006
3832.00,0.0006
3831.00,0.0006
3830.00,0.0006
3829.00,0.0006
3828.00,0.0006
3827.00,0.0006
3826.00,0.0006
3825.00,0.0007
3824.00,0.0006
3823.00,0.0006
3822.00,0.0006
3821.00,0.0006
3820.00,0.0007
3819.00,0.0007
3818.00,0.0008
3817.00,0.0007
3816.00,0.0007
3815.00,0.0007
3814.00,0.0006
3813.00,0.0006
3812.00,0.0006
3811.00,0.0006
3810.00,0.0006
3809.00,0.0006
3808.00,0.0006
3807.00,0.0006
3806.00,0.0006
3805.00,0.0007
3804.00,0.0007
3803.00,0.0007
3802.00,0.0007
3801.00,0.0007
3800.00,0.0007
3799.00,0.0007
3798.00,0.0006
3797.00,0.0006
3796.00,0.0005
3795.00,0.0006
3794.00,0.0006
3793.00,0.0006
3792.00,0.0006
3791.00,0.0006
3790.00,0.0006
3789.00,0.0006
3788.00,0.0006
3787.00,0.0006
3786.00,0.0006
3785.00,0.0006
3784.00,0.0006
3783.00,0.0006
3782.00,0.0006
3781.00,0.0007
3780.00,0.0007
3779.00,0.0007
3778.00,0.0007
3777.00,0.0007
3776.00,0.0007
3775.00,0.0007
3774.00,0.0006
3773.00,0.0006
3772.00,0.0006
3771.00,0.0006
3770.00,0.0006
3769.00,0.0006
3768.00,0.0007
3767.00,0.0007
3766.00,0.0007
3765.00,0.0007
3764.00,0.0007
3763.00,0.0007
3762.00,0.0007
3761.00,0.0007
3760.00,0.0007
3759.00,0.0007
3758.00,0.0007
3757.00,0.0007
3756.00,0.0006
3755.00,0.0006
3754.00,0.0006
3753.00,0.0007
3752.00,0.0007
3751.00,0.0007
3750.00,0.0007
3749.00,0.0007
3748.00,0.0007
3747.00,0.0006
3746.00,0.0005
3745.00,0.0005
3744.00,0.0005
3743.00,0.0005
3742.00,0.0006
3741.00,0.0006
3740.00,0.0006
3739.00,0.0006
3738.00,0.0006
3737.00,0.0006
3736.00,0.0006
3735.00,0.0006
3734.00,0.0006
3733.00,0.0005
3732.00,0.0005
3731.00,0.0005
3730.00,0.0005
3729.00,0.0005
3728.00,0.0005
3727.00,0.0005
3726.00,0.0005
3725.00,0.0005
3724.00,0.0005
3723.00,0.0005
3722.00,0.0004
3721.00,0.0004
3720.00,0.0004
3719.00,0.0004
3718.00,0.0003
3717.00,0.0004
3716.00,0.0004
3715.00,0.0005
3714.00,0.0005
3713.00,0.0005
3712.00,0.0005
3711.00,0.0005
3710.00,0.0005
3709.00,0.0005
3708.00,0.0005
3707.00,0.0005
3706.00,0.0004
3705.00,0.0004
3704.00,0.0003
3703.00,0.0003
3702.00,0.0003
3701.00,0.0003
3700.00,0.0003
3699.00,0.0004
3698.00,0.0003
3697.00,0.0003
3696.00,0.0003
3695.00,0.0003
3694.00,0.0003
3693.00,0.0003
3692.00,0.0003
3691.00,0.0004
3690.00,0.0004
3689.00,0.0004
3688.00,0.0004
3687.00,0.0004
3686.00,0.0004
3685.00,0.0004
3684.00,0.0004
3683.00,0.0004
3682.00,0.0004
3681.00,0.0003
3680.00,0.0004
3679.00,0.0004
3678.00,0.0004
3677.00,0.0004
3676.00,0.0004
3675.00,0.0004
3674.00,0.0004
3673.00,0.0005
3672.00,0.0005
3671.00,0.0005
3670.00,0.0004
3669.00,0.0004
3668.00,0.0004
3667.00,0.0003
3666.00,0.0003
3665.00,0.0002
3664.00,0.0002
3663.00,0.0003
3662.00,0.0003
3661.00,0.0004
3660.00,0.0004
3659.00,0.0004
3658.00,0.0004
3657.00,0.0003
3656.00,0.0003
3655.00,0.0004
3654.00,0.0004
3653.00,0.0005
3652.00,0.0005
3651.00,0.0005
3650.00,0.0005
3649.00,0.0004
3648.00,0.0004
3647.00,0.0003
3646.00,0.0003
3645.00,0.0003
3644.00,0.0003
3643.00,0.0003
3642.00,0.0003
3641.00,0.0003
3640.00,0.0002
3639.00,0.0002
3638.00,0.0002
3637.00,0.0002
3636.00,0.0002
3635.00,0.0002
3634.00,0.0002
3633.00,0.0003
3632.00,0.0003
3631.00,0.0003
3630.00,0.0003
3629.00,0.0003
3628.00,0.0003
3627.00,0.0003
3626.00,0.0003
3625.00,0.0003
3624.00,0.0003
3623.00,0.0003
3622.00,0.0003
3621.00,0.0003
3620.00,0.0002
3619.00,0.0002
3618.00,0.0003
3617.00,0.0003
3616.00,0.0003
3615.00,0.0003
3614.00,0.0003
3613.00,0.0003
3612.00,0.0003
3611.00,0.0003
3610.00,0.0002
3609.00,0.0002
3608.00,0.0002
3607.00,0.0002
3606.00,0.0003
3605.00,0.0003
3604.00,0.0003
3603.00,0.0003
3602.00,0.0003
3601.00,0.0003
3600.00,0.0004
3599.00,0.0004
3598.00,0.0004
3597.00,0.0004
3596.00,0.0003
3595.00,0.0003
3594.00,0.0003
3593.00,0.0003
3592.00,0.0003
3591.00,0.0003
3590.00,0.0003
3589.00,0.0003
3588.00,0.0003
3587.00,0.0003
3586.00,0.0003
3585.00,0.0003
3584.00,0.0003
3583.00,0.0003
3582.00,0.0003
3581.00,0.0004
3580.00,0.0004
3579.00,0.0004
3578.00,0.0004
3577.00,0.0005
3576.00,0.0005
3575.00,0.0005
3574.00,0.0005
3573.00,0.0005
3572.00,0.0005
3571.00,0.0005
3570.00,0.0005
3569.00,0.0005
3568.00,0.0005
3567.00,0.0006
3566.00,0.0006
3565.00,0.0006
3564.00,0.0006
3563.00,0.0006
3562.00,0.0006
3561.00,0.0006
3560.00,0.0005
3559.00,0.0005
3558.00,0.0006
3557.00,0.0006
3556.00,0.0006
3555.00,0.0005
3554.00,0.0005
3553.00,0.0005
3552.00,0.0005
3551.00,0.0006
3550.00,0.0007
3549.00,0.0007
3548.00,0.0007
3547.00,0.0007
3546.00,0.0007
3545.00,0.0006
3544.00,0.0006
3543.00,0.0006
3542.00,0.0006
3541.00,0.0007
3540.00,0.0007
3539.00,0.0007
3538.00,0.0007
3537.00,0.0007
3536.00,0.0007
3535.00,0.0007
3534.00,0.0008
3533.00,0.0008
3532.00,0.0008
3531.00,0.0009
3530.00,0.0009
3529.00,0.0009
3528.00,0.0009
3527.00,0.0009
3526.00,0.0010
3525.00,0.0009
3524.00,0.0009
3523.00,0.0009
3522.00,0.0009
3521.00,0.0008
3520.00,0.0008
3519.00,0.0008
3518.00,0.0008
3517.00,0.0008
3516.00,0.0008
3515.00,0.0008
3514.00,0.0008
3513.00,0.0008
3512.00,0.0009
3511.00,0.0009
3510.00,0.0009
3509.00,0.0009
3508.00,0.0010
3507.00,0.0010
3506.00,0.0010
3505.00,0.0010
3504.00,0.0010
3503.00,0.0010
3502.00,0.0010
3501.00,0.0010
3500.00,0.0010
3499.00,0.0011
3498.00,0.0011
3497.00,0.0011
3496.00,0.0011
3495.00,0.0011
3494.00,0.0011
3493.00,0.0011
3492.00,0.0011
3491.00,0.0011
3490.00,0.0011
3489.00,0.0011
3488.00,0.0011
3487.00,0.0012
3486.00,0.0012
3485.00,0.0012
3484.00,0.0012
3483.00,0.0012
3482.00,0.0012
3481.00,0.0012
3480.00,0.0012
3479.00,0.0012
3478.00,0.0012
3477.00,0.0012
3476.00,0.0012
3475.00,0.0013
3474.00,0.0013
3473.00,0.0013
3472.00,0.0013
3471.00,0.0013
3470.00,0.0013
3469.00,0.0013
3468.00,0.0013
3467.00,0.0013
3466.00,0.0013
3465.00,0.0013
3464.00,0.0013
3463.00,0.0013
3462.00,0.0013
3461.00,0.0014
3460.00,0.0014
3459.00,0.0014
3458.00,0.0014
3457.00,0.0014
3456.00,0.0014
3455.00,0.0013
3454.00,0.0013
3453.00,0.0013
3452.00,0.0013
3451.00,0.0014
3450.00,0.0014
3449.00,0.0014
3448.00,0.0014
3447.00,0.0014
3446.00,0.0014
3445.00,0.0014
3444.00,0.0014
3443.00,0.0014
3442.00,0.0014
3441.00,0.0014
3440.00,0.0014
3439.00,0.0014
3438.00,0.0014
3437.00,0.0014
3436.00,0.0015
3435.00,0.0015
3434.00,0.0015
3433.00,0.0016
3432.00,0.0016
3431.00,0.0016
3430.00,0.0016
3429.00,0.0016
3428.00,0.0016
3427.00,0.0016
3426.00,0.0016
3425.00,0.0016
3424.00,0.0016
3423.00,0.0015
3422.00,0.0015
3421.00,0.0015
3420.00,0.0016
3419.00,0.0017
3418.00,0.0017
3417.00,0.0017
3416.00,0.0016
3415.00,0.0016
3414.00,0.0016
3413.00,0.0016
3412.00,0.0016
3411.00,0.0016
3410.00,0.0017
3409.00,0.0017
3408.00,0.0016
3407.00,0.0016
3406.00,0.0016
3405.00,0.0015
3404.00,0.0015
3403.00,0.0016
3402.00,0.0016
3401.00,0.0016
3400.00,0.0016
3399.00,0.0016
3398.00,0.0016
3397.00,0.0017
3396.00,0.0017
3395.00,0.0017
3394.00,0.0017
3393.00,0.0017
3392.00,0.0017
3391.00,0.0017
3390.00,0.0017
3389.00,0.0017
3388.00,0.0017
3387.00,0.0017
3386.00,0.0017
3385.00,0.0017
3384.00,0.0018
3383.00,0.0018
3382.00,0.0018
3381.00,0.0017
3380.00,0.0017
3379.00,0.0017
3378.00,0.0017
3377.00,0.0017
3376.00,0.0017
3375.00,0.0017
3374.00,0.0018
3373.00,0.0018
3372.00,0.0018
3371.00,0.0018
3370.00,0.0018
3369.00,0.0018
3368.00,0.0018
3367.00,0.0018
3366.00,0.0018
3365.00,0.0018
3364.00,0.0018
3363.00,0.0017
3362.00,0.0017
3361.00,0.0017
3360.00,0.0018
3359.00,0.0018
3358.00,0.0018
3357.00,0.0018
3356.00,0.0018
3355.00,0.0018
3354.00,0.0018
3353.00,0.0019
3352.00,0.0019
3351.00,0.0019
3350.00,0.0019
3349.00,0.0019
3348.00,0.0019
3347.00,0.0019
3346.00,0.0019
3345.00,0.0019
3344.00,0.0019
3343.00,0.0019
3342.00,0.0019
3341.00,0.0019
3340.00,0.0019
3339.00,0.0019
3338.00,0.0019
3337.00,0.0019
3336.00,0.0019
3335.00,0.0019
3334.00,0.0019
3333.00,0.0019
3332.00,0.0018
3331.00,0.0018
3330.00,0.0017
3329.00,0.0018
3328.00,0.0018
3327.00,0.0018
3326.00,0.0018
3325.00,0.0018
3324.00,0.0018
3323.00,0.0018
3322.00,0.0018
3321.00,0.0017
3320.00,0.0017
3319.00,0.0017
3318.00,0.0017
3317.00,0.0017
3316.00,0.0017
3315.00,0.0017
3314.00,0.0017
3313.00,0.0017
3312.00,0.0018
3311.00,0.0018
3310.00,0.0018
3309.00,0.0018
3308.00,0.0018
3307.00,0.0019
3306.00,0.0018
3305.00,0.0018
3304.00,0.0018
3303.00,0.0018
3302.00,0.0018
3301.00,0.0018
3300.00,0.0018
3299.00,0.0018
3298.00,0.0018
3297.00,0.0018
3296.00,0.0018
3295.00,0.0018
3294.00,0.0018
3293.00,0.0018
3292.00,0.0018
3291.00,0.0018
3290.00,0.0018
3289.00,0.0018
3288.00,0.0018
3287.00,0.0018
3286.00,0.0018
3285.00,0.0018
3284.00,0.0018
3283.00,0.0018
3282.00,0.0018
3281.00,0.0018
3280.00,0.0018
3279.00,0.0018
3278.00,0.0018
3277.00,0.0018
3276.00,0.0018
3275.00,0.0018
3274.00,0.0018
3273.00,0.0017
3272.00,0.0017
3271.00,0.0017
3270.00,0.0017
3269.00,0.0017
3268.00,0.0017
3267.00,0.0017
3266.00,0.0017
3265.00,0.0017
3264.00,0.0017
3263.00,0.0017
3262.00,0.0017
3261.00,0.0018
3260.00,0.0018
3259.00,0.0018
3258.00,0.0018
3257.00,0.0017
3256.00,0.0017
3255.00,0.0017
3254.00,0.0017
3253.00,0.0017
3252.00,0.0017
3251.00,0.0017
3250.00,0.0017
3249.00,0.0017
3248.00,0.0016
3247.00,0.0016
3246.00,0.0016
3245.00,0.0016
3244.00,0.0016
3243.00,0.0016
3242.00,0.0017
3241.00,0.0017
3240.00,0.0017
3239.00,0.0017
3238.00,0.0017
3237.00,0.0017
3236.00,0.0017
3235.00,0.0017
3234.00,0.0018
3233.00,0.0018
3232.00,0.0018
3231.00,0.0018
3230.00,0.0019
3229.00,0.0019
3228.00,0.0019
3227.00,0.0019
3226.00,0.0019
3225.00,0.0019
3224.00,0.0019
3223.00,0.0020
3222.00,0.0020
3221.00,0.0021
3220.00,0.0021
3219.00,0.0021
3218.00,0.0021
3217.00,0.0021
3216.00,0.0021
3215.00,0.0021
3214.00,0.0022
3213.00,0.0022
3212.00,0.0022
3211.00,0.0023
3210.00,0.0023
3209.00,0.0023
3208.00,0.0024
3207.00,0.0024
3206.00,0.0024
3205.00,0.0024
3204.00,0.0024
3203.00,0.0024
3202.00,0.0024
3201.00,0.0024
3200.00,0.0024
3199.00,0.0025
3198.00,0.0025
3197.00,0.0025
3196.00,0.0025
3195.00,0.0025
3194.00,0.0025
3193.00,0.0025
3192.00,0.0024
3191.00,0.0024
3190.00,0.0024
3189.00,0.0024
3188.00,0.0024
3187.00,0.0024
3186.00,0.0024
3185.00,0.0024
3184.00,0.0023
3183.00,0.0023
3182.00,0.0023
3181.00,0.0023
3180.00,0.0023
3179.00,0.0023
3178.00,0.0023
3177.00,0.0023
3176.00,0.0023
3175.00,0.0022
3174.00,0.0022
3173.00,0.0022
3172.00,0.0022
3171.00,0.0023
3170.00,0.0023
3169.00,0.0023
3168.00,0.0023
3167.00,0.0022
3166.00,0.0022
3165.00,0.0021
3164.00,0.0022
3163.00,0.0022
3162.00,0.0023
3161.00,0.0023
3160.00,0.0023
3159.00,0.0023
3158.00,0.0023
3157.00,0.0023
3156.00,0.0023
3155.00,0.0023
3154.00,0.0023
3153.00,0.0023
3152.00,0.0023
3151.00,0.0023
3150.00,0.0023
3149.00,0.0024
3148.00,0.0024
3147.00,0.0024
3146.00,0.0023
3145.00,0.0023
3144.00,0.0023
3143.00,0.0023
3142.00,0.0023
3141.00,0.0023
3140.00,0.0022
3139.00,0.0022
3138.00,0.0022
3137.00,0.0022
3136.00,0.0022
3135.00,0.0022
3134.00,0.0022
3133.00,0.0022
3132.00,0.0021
3131.00,0.0021
3130.00,0.0021
3129.00,0.0021
3128.00,0.0020
3127.00,0.0020
3126.00,0.0020
3125.00,0.0020
3124.00,0.0020
3123.00,0.0020
3122.00,0.0020
3121.00,0.0019
3120.00,0.0019
3119.00,0.0019
3118.00,0.0019
3117.00,0.0019
3116.00,0.0019
3115.00,0.0018
3114.00,0.0018
3113.00,0.0018
3112.00,0.0018
3111.00,0.0018
3110.00,0.0019
3109.00,0.0019
3108.00,0.0019
3107.00,0.0019
3106.00,0.0019
3105.00,0.0018
3104.00,0.0018
3103.00,0.0018
3102.00,0.0018
3101.00,0.0018
3100.00,0.0019
3099.00,0.0019
3098.00,0.0019
3097.00,0.0019
3096.00,0.0019
3095.00,0.0019
3094.00,0.0019
3093.00,0.0018
3092.00,0.0018
3091.00,0.0018
3090.00,0.0018
3089.00,0.0018
3088.00,0.0018
3087.00,0.0018
3086.00,0.0018
3085.00,0.0018
3084.00,0.0018
3083.00,0.0018
3082.00,0.0018
3081.00,0.0018
3080.00,0.0019
3079.00,0.0019
3078.00,0.0019
3077.00,0.0020
3076.00,0.0020
3075.00,0.0020
3074.00,0.0019
3073.00,0.0019
3072.00,0.0019
3071.00,0.0020
3070.00,0.0020
3069.00,0.0020
3068.00,0.0020
3067.00,0.0020
3066.00,0.0020
3065.00,0.0021
3064.00,0.0021
3063.00,0.0021
3062.00,0.0021
3061.00,0.0021
3060.00,0.0022
3059.00,0.0022
3058.00,0.0022
3057.00,0.0022
3056.00,0.0023
3055.00,0.0023
3054.00,0.0023
3053.00,0.0023
3052.00,0.0024
3051.00,0.0024
3050.00,0.0024
3049.00,0.0024
3048.00,0.0024
3047.00,0.0024
3046.00,0.0024
3045.00,0.0024
3044.00,0.0025
3043.00,0.0025
3042.00,0.0025
3041.00,0.0025
3040.00,0.0026
3039.00,0.0026
3038.00,0.0026
3037.00,0.0026
3036.00,0.0027
3035.00,0.0027
3034.00,0.0028
3033.00,0.0028
3032.00,0.0029
3031.00,0.0029
3030.00,0.0030
3029.00,0.0030
3028.00,0.0031
3027.00,0.0032
3026.00,0.0033
3025.00,0.0034
3024.00,0.0034
3023.00,0.0035
3022.00,0.0036
3021.00,0.0037
3020.00,0.0038
3019.00,0.0039
3018.00,0.0040
3017.00,0.0042
3016.00,0.0043
3015.00,0.0044
3014.00,0.0046
3013.00,0.0047
3012.00,0.0049
3011.00,0.0051
3010.00,0.0053
3009.00,0.0054
3008.00,0.0056
3007.00,0.0057
3006.00,0.0059
3005.00,0.0062
3004.00,0.0064
3003.00,0.0066
3002.00,0.0067
3001.00,0.0070
3000.00,0.0072
2999.00,0.0075
2998.00,0.0078
2997.00,0.0082
2996.00,0.0086
2995.00,0.0090
2994.00,0.0095
2993.00,0.0099
2992.00,0.0105
2991.00,0.0111
2990.00,0.0117
2989.00,0.0125
2988.00,0.0134
2987.00,0.0143
2986.00,0.0154
2985.00,0.0166
2984.00,0.0179
2983.00,0.0194
2982.00,0.0211
2981.00,0.0230
2980.00,0.0251
2979.00,0.0275
2978.00,0.0303
2977.00,0.0335
2976.00,0.0371
2975.00,0.0412
2974.00,0.0459
2973.00,0.0512
2972.00,0.0572
2971.00,0.0639
2970.00,0.0715
2969.00,0.0800
2968.00,0.0892
2967.00,0.0993
2966.00,0.1100
2965.00,0.1212
2964.00,0.1325
2963.00,0.1434
2962.00,0.1533
2961.00,0.1617
2960.00,0.1684
2959.00,0.1732
2958.00,0.1767
2957.00,0.1795
2956.00,0.1824
2955.00,0.1858
2954.00,0.1901
2953.00,0.1949
2952.00,0.1994
2951.00,0.2026
2950.00,0.2033
2949.00,0.2006
2948.00,0.1941
2947.00,0.1840
2946.00,0.1714
2945.00,0.1575
2944.00,0.1439
2943.00,0.1318
2942.00,0.1219
2941.00,0.1147
2940.00,0.1100
2939.00,0.1078
2938.00,0.1078
2937.00,0.1098
2936.00,0.1134
2935.00,0.1185
2934.00,0.1250
2933.00,0.1328
2932.00,0.1416
2931.00,0.1513
2930.00,0.1616
2929.00,0.1722
2928.00,0.1826
2927.00,0.1927
2926.00,0.2023
2925.00,0.2113
2924.00,0.2199
2923.00,0.2282
2922.00,0.2363
2921.00,0.2440
2920.00,0.2508
2919.00,0.2561
2918.00,0.2589
2917.00,0.2589
2916.00,0.2557
2915.00,0.2498
2914.00,0.2420
2913.00,0.2332
2912.00,0.2244
2911.00,0.2162
2910.00,0.2086
2909.00,0.2018
2908.00,0.1955
2907.00,0.1892
2906.00,0.1829
2905.00,0.1762
2904.00,0.1692
2903.00,0.1621
2902.00,0.1548
2901.00,0.1477
2900.00,0.1407
2899.00,0.1341
2898.00,0.1280
2897.00,0.1224
2896.00,0.1175
2895.00,0.1133
2894.00,0.1098
2893.00,0.1072
2892.00,0.1052
2891.00,0.1039
2890.00,0.1031
2889.00,0.1029
2888.00,0.1031
2887.00,0.1037
2886.00,0.1046
2885.00,0.1059
2884.00,0.1076
2883.00,0.1096
2882.00,0.1120
2881.00,0.1146
2880.00,0.1171
2879.00,0.1191
2878.00,0.1204
2877.00,0.1208
2876.00,0.1203
2875.00,0.1195
2874.00,0.1187
2873.00,0.1185
2872.00,0.1190
2871.00,0.1203
2870.00,0.1222
2869.00,0.1242
2868.00,0.1256
2867.00,0.1255
2866.00,0.1231
2865.00,0.1182
2864.00,0.1109
2863.00,0.1022
2862.00,0.0931
2861.00,0.0844
2860.00,0.0770
2859.00,0.0710
2858.00,0.0665
2857.00,0.0632
2856.00,0.0611
2855.00,0.0598
2854.00,0.0593
2853.00,0.0594
2852.00,0.0602
2851.00,0.0616
2850.00,0.0636
2849.00,0.0663
2848.00,0.0699
2847.00,0.0743
2846.00,0.0797
2845.00,0.0862
2844.00,0.0934
2843.00,0.1013
2842.00,0.1094
2841.00,0.1169
2840.00,0.1232
2839.00,0.1272
2838.00,0.1280
2837.00,0.1252
2836.00,0.1188
2835.00,0.1095
2834.00,0.0983
2833.00,0.0867
2832.00,0.0756
2831.00,0.0658
2830.00,0.0575
2829.00,0.0507
2828.00,0.0452
2827.00,0.0408
2826.00,0.0372
2825.00,0.0342
2824.00,0.0317
2823.00,0.0296
2822.00,0.0278
2821.00,0.0262
2820.00,0.0249
2819.00,0.0237
2818.00,0.0226
2817.00,0.0217
2816.00,0.0209
2815.00,0.0202
2814.00,0.0196
2813.00,0.0190
2812.00,0.0185
2811.00,0.0180
2810.00,0.0174
2809.00,0.0169
2808.00,0.0163
2807.00,0.0157
2806.00,0.0150
2805.00,0.0143
2804.00,0.0137
2803.00,0.0131
2802.00,0.0126
2801.00,0.0122
2800.00,0.0118
2799.00,0.0115
2798.00,0.0112
2797.00,0.0109
2796.00,0.0107
2795.00,0.0104
2794.00,0.0102
2793.00,0.0099
2792.00,0.0096
2791.00,0.0093
2790.00,0.0090
2789.00,0.0086
2788.00,0.0082
2787.00,0.0079
2786.00,0.0076
2785.00,0.0073
2784.00,0.0071
2783.00,0.0068
2782.00,0.0066
2781.00,0.0064
2780.00,0.0062
2779.00,0.0061
2778.00,0.0059
2777.00,0.0058
2776.00,0.0057
2775.00,0.0056
2774.00,0.0055
2773.00,0.0055
2772.00,0.0054
2771.00,0.0054
2770.00,0.0053
2769.00,0.0053
2768.00,0.0052
2767.00,0.0052
2766.00,0.0052
2765.00,0.0051
2764.00,0.0051
2763.00,0.0050
2762.00,0.0050
2761.00,0.0050
2760.00,0.0049
2759.00,0.0049
2758.00,0.0048
2757.00,0.0048
2756.00,0.0048
2755.00,0.0048
2754.00,0.0048
2753.00,0.0048
2752.00,0.0048
2751.00,0.0048
2750.00,0.0047
2749.00,0.0047
2748.00,0.0048
2747.00,0.0048
2746.00,0.0049
2745.00,0.0050
2744.00,0.0050
2743.00,0.0051
2742.00,0.0052
2741.00,0.0053
2740.00,0.0055
2739.00,0.0056
2738.00,0.0058
2737.00,0.0059
2736.00,0.0061
2735.00,0.0062
2734.00,0.0063
2733.00,0.0065
2732.00,0.0067
2731.00,0.0069
2730.00,0.0071
2729.00,0.0074
2728.00,0.0077
2727.00,0.0080
2726.00,0.0083
2725.00,0.0085
2724.00,0.0086
2723.00,0.0087
2722.00,0.0086
2721.00,0.0084
2720.00,0.0081
2719.00,0.0077
2718.00,0.0074
2717.00,0.0070
2716.00,0.0067
2715.00,0.0065
2714.00,0.0063
2713.00,0.0060
2712.00,0.0059
2711.00,0.0057
2710.00,0.0055
2709.00,0.0053
2708.00,0.0052
2707.00,0.0050
2706.00,0.0049
2705.00,0.0049
2704.00,0.0048
2703.00,0.0047
2702.00,0.0046
2701.00,0.0045
2700.00,0.0044
2699.00,0.0044
2698.00,0.0043
2697.00,0.0043
2696.00,0.0043
2695.00,0.0043
2694.00,0.0042
2693.00,0.0042
2692.00,0.0042
2691.00,0.0042
2690.00,0.0042
2689.00,0.0042
2688.00,0.0042
2687.00,0.0042
2686.00,0.0043
2685.00,0.0043
2684.00,0.0043
2683.00,0.0043
2682.00,0.0043
2681.00,0.0042
2680.00,0.0042
2679.00,0.0042
2678.00,0.0043
2677.00,0.0043
2676.00,0.0043
2675.00,0.0043
2674.00,0.0043
2673.00,0.0043
2672.00,0.0043
2671.00,0.0042
2670.00,0.0042
2669.00,0.0042
2668.00,0.0042
2667.00,0.0042
2666.00,0.0042
2665.00,0.0043
2664.00,0.0044
2663.00,0.0044
2662.00,0.0045
2661.00,0.0045
2660.00,0.0046
2659.00,0.0046
2658.00,0.0046
2657.00,0.0045
2656.00,0.0045
2655.00,0.0045
2654.00,0.0044
2653.00,0.0043
2652.00,0.0043
2651.00,0.0042
2650.00,0.0042
2649.00,0.0041
2648.00,0.0041
2647.00,0.0040
2646.00,0.0040
2645.00,0.0039
2644.00,0.0039
2643.00,0.0039
2642.00,0.0038
2641.00,0.0037
2640.00,0.0037
2639.00,0.0037
2638.00,0.0036
2637.00,0.0036
2636.00,0.0036
2635.00,0.0036
2634.00,0.0036
2633.00,0.0036
2632.00,0.0036
2631.00,0.0036
2630.00,0.0036
2629.00,0.0036
2628.00,0.0036
2627.00,0.0037
2626.00,0.0037
2625.00,0.0038
2624.00,0.0038
2623.00,0.0038
2622.00,0.0038
2621.00,0.0038
2620.00,0.0038
2619.00,0.0039
2618.00,0.0039
2617.00,0.0039
2616.00,0.0039
2615.00,0.0039
2614.00,0.0039
2613.00,0.0038
2612.00,0.0038
2611.00,0.0037
2610.00,0.0036
2609.00,0.0035
2608.00,0.0034
2607.00,0.0033
2606.00,0.0032
2605.00,0.0032
2604.00,0.0031
2603.00,0.0031
2602.00,0.0030
2601.00,0.0030
2600.00,0.0029
2599.00,0.0029
2598.00,0.0029
2597.00,0.0029
2596.00,0.0030
2595.00,0.0030
2594.00,0.0031
2593.00,0.0031
2592.00,0.0031
2591.00,0.0031
2590.00,0.0031
2589.00,0.0032
2588.00,0.0033
2587.00,0.0034
2586.00,0.0036
2585.00,0.0037
2584.00,0.0038
2583.00,0.0038
2582.00,0.0038
2581.00,0.0038
2580.00,0.0037
2579.00,0.0036
2578.00,0.0036
2577.00,0.0035
2576.00,0.0034
2575.00,0.0033
2574.00,0.0032
2573.00,0.0031
2572.00,0.0030
2571.00,0.0029
2570.00,0.0028
2569.00,0.0027
2568.00,0.0026
2567.00,0.0025
2566.00,0.0024
2565.00,0.0024
2564.00,0.0023
2563.00,0.0023
2562.00,0.0022
2561.00,0.0022
2560.00,0.0022
2559.00,0.0022
2558.00,0.0022
2557.00,0.0022
2556.00,0.0021
2555.00,0.0021
2554.00,0.0021
2553.00,0.0021
2552.00,0.0020
2551.00,0.0020
2550.00,0.0020
2549.00,0.0019
2548.00,0.0019
2547.00,0.0018
2546.00,0.0018
2545.00,0.0018
2544.00,0.0018
2543.00,0.0017
2542.00,0.0016
2541.00,0.0015
2540.00,0.0015
2539.00,0.0014
2538.00,0.0014
2537.00,0.0014
2536.00,0.0014
2535.00,0.0014
2534.00,0.0014
2533.00,0.0014
2532.00,0.0014
2531.00,0.0013
2530.00,0.0012
2529.00,0.0012
2528.00,0.0011
2527.00,0.0012
2526.00,0.0013
2525.00,0.0013
2524.00,0.0013
2523.00,0.0012
2522.00,0.0011
2521.00,0.0010
2520.00,0.0009
2519.00,0.0008
2518.00,0.0008
2517.00,0.0008
2516.00,0.0008
2515.00,0.0009
2514.00,0.0009
2513.00,0.0009
2512.00,0.0009
2511.00,0.0009
2510.00,0.0009
2509.00,0.0009
2508.00,0.0009
2507.00,0.0009
2506.00,0.0010
2505.00,0.0010
2504.00,0.0010
2503.00,0.0009
2502.00,0.0009
2501.00,0.0009
2500.00,0.0008
2499.00,0.0008
2498.00,0.0008
2497.00,0.0008
2496.00,0.0009
2495.00,0.0009
2494.00,0.0009
2493.00,0.0009
2492.00,0.0009
2491.00,0.0009
2490.00,0.0009
2489.00,0.0009
2488.00,0.0009
2487.00,0.0008
2486.00,0.0008
2485.00,0.0008
2484.00,0.0008
2483.00,0.0008
2482.00,0.0008
2481.00,0.0008
2480.00,0.0008
2479.00,0.0008
2478.00,0.0008
2477.00,0.0008
2476.00,0.0008
2475.00,0.0007
2474.00,0.0007
2473.00,0.0007
2472.00,0.0006
2471.00,0.0006
2470.00,0.0006
2469.00,0.0007
2468.00,0.0007
2467.00,0.0008
2466.00,0.0008
2465.00,0.0008
2464.00,0.0007
2463.00,0.0007
2462.00,0.0007
2461.00,0.0008
2460.00,0.0008
2459.00,0.0008
2458.00,0.0008
2457.00,0.0009
2456.00,0.0010
2455.00,0.0010
2454.00,0.0010
2453.00,0.0010
2452.00,0.0010
2451.00,0.0010
2450.00,0.0010
2449.00,0.0009
2448.00,0.0009
2447.00,0.0009
2446.00,0.0009
2445.00,0.0010
2444.00,0.0010
2443.00,0.0009
2442.00,0.0009
2441.00,0.0008
2440.00,0.0008
2439.00,0.0009
2438.00,0.0009
2437.00,0.0010
2436.00,0.0010
2435.00,0.0011
2434.00,0.0011
2433.00,0.0010
2432.00,0.0010
2431.00,0.0009
2430.00,0.0009
2429.00,0.0009
2428.00,0.0010
2427.00,0.0010
2426.00,0.0010
2425.00,0.0010
2424.00,0.0010
2423.00,0.0010
2422.00,0.0009
2421.00,0.0009
2420.00,0.0009
2419.00,0.0008
2418.00,0.0008
2417.00,0.0008
2416.00,0.0008
2415.00,0.0009
2414.00,0.0009
2413.00,0.0009
2412.00,0.0009
2411.00,0.0009
2410.00,0.0009
2409.00,0.0009
2408.00,0.0009
2407.00,0.0009
2406.00,0.0008
2405.00,0.0008
2404.00,0.0008
2403.00,0.0008
2402.00,0.0008
2401.00,0.0007
2400.00,0.0007
2399.00,0.0007
2398.00,0.0007
2397.00,0.0006
2396.00,0.0006
2395.00,0.0006
2394.00,0.0006
2393.00,0.0006
2392.00,0.0006
2391.00,0.0006
2390.00,0.0006
2389.00,0.0006
2388.00,0.0006
2387.00,0.0006
2386.00,0.0005
2385.00,0.0005
2384.00,0.0004
2383.00,0.0003
2382.00,0.0003
2381.00,0.0002
2380.00,0.0001
2379.00,0.0000
2378.00,-0.0000
2377.00,-0.0000
2376.00,0.0000
2375.00,0.0000
2374.00,0.0000
2373.00,-0.0000
2372.00,-0.0001
2371.00,-0.0002
2370.00,-0.0003
2369.00,-0.0003
2368.00,-0.0003
2367.00,-0.0003
2366.00,-0.0003
2365.00,-0.0002
2364.00,-0.0002
2363.00,-0.0001
2362.00,-0.0001
2361.00,-0.0001
2360.00,-0.0001
2359.00,-0.0002
2358.00,-0.0003
2357.00,-0.0002
2356.00,-0.0001
2355.00,-0.0001
2354.00,-0.0000
2353.00,-0.0000
2352.00,-0.0000
2351.00,-0.0001
2350.00,-0.0001
2349.00,-0.0001
2348.00,-0.0001
2347.00,-0.0000
2346.00,0.0000
2345.00,0.0000
2344.00,-0.0000
2343.00,-0.0000
2342.00,-0.0000
2341.00,0.0000
2340.00,0.0001
2339.00,0.0002
2338.00,0.0002
2337.00,0.0003
2336.00,0.0002
2335.00,0.0002
2334.00,0.0003
2333.00,0.0003
2332.00,0.0003
2331.00,0.0002
2330.00,0.0002
2329.00,0.0002
2328.00,0.0003
2327.00,0.0006
2326.00,0.0010
2325.00,0.0014
2324.00,0.0016
2323.00,0.0016
2322.00,0.0014
2321.00,0.0012
2320.00,0.0010
2319.00,0.0009
2318.00,0.0008
2317.00,0.0007
2316.00,0.0006
2315.00,0.0005
2314.00,0.0004
2313.00,0.0003
2312.00,0.0002
2311.00,0.0001
2310.00,0.0001
2309.00,0.0002
2308.00,0.0003
2307.00,0.0004
2306.00,0.0003
2305.00,0.0003
2304.00,0.0004
2303.00,0.0005
2302.00,0.0005
2301.00,0.0006
2300.00,0.0006
2299.00,0.0006
2298.00,0.0007
2297.00,0.0008
2296.00,0.0009
2295.00,0.0010
2294.00,0.0011
2293.00,0.0012
2292.00,0.0013
2291.00,0.0014
2290.00,0.0014
2289.00,0.0015
2288.00,0.0016
2287.00,0.0017
2286.00,0.0017
2285.00,0.0016
2284.00,0.0016
2283.00,0.0015
2282.00,0.0015
2281.00,0.0015
2280.00,0.0014
2279.00,0.0014
2278.00,0.0014
2277.00,0.0014
2276.00,0.0014
2275.00,0.0012
2274.00,0.0011
2273.00,0.0011
2272.00,0.0011
2271.00,0.0012
2270.00,0.0012
2269.00,0.0012
2268.00,0.0011
2267.00,0.0009
2266.00,0.0008
2265.00,0.0007
2264.00,0.0007
2263.00,0.0008
2262.00,0.0009
2261.00,0.0010
2260.00,0.0010
2259.00,0.0011
2258.00,0.0011
2257.00,0.0011
2256.00,0.0011
2255.00,0.0010
2254.00,0.0010
2253.00,0.0010
2252.00,0.0009
2251.00,0.0009
2250.00,0.0008
2249.00,0.0007
2248.00,0.0006
2247.00,0.0005
2246.00,0.0006
2245.00,0.0007
2244.00,0.0007
2243.00,0.0007
2242.00,0.0007
2241.00,0.0006
2240.00,0.0005
2239.00,0.0006
2238.00,0.0007
2237.00,0.0009
2236.00,0.0009
2235.00,0.0009
2234.00,0.0008
2233.00,0.0008
2232.00,0.0008
2231.00,0.0008
2230.00,0.0008
2229.00,0.0008
2228.00,0.0009
2227.00,0.0009
2226.00,0.0007
2225.00,0.0006
2224.00,0.0004
2223.00,0.0003
2222.00,0.0003
2221.00,0.0003
2220.00,0.0003
2219.00,0.0004
2218.00,0.0005
2217.00,0.0006
2216.00,0.0007
2215.00,0.0008
2214.00,0.0009
2213.00,0.0009
2212.00,0.0009
2211.00,0.0009
2210.00,0.0008
2209.00,0.0007
2208.00,0.0006
2207.00,0.0005
2206.00,0.0004
2205.00,0.0003
2204.00,0.0002
2203.00,0.0000
2202.00,-0.0001
2201.00,-0.0000
2200.00,0.0002
2199.00,0.0004
2198.00,0.0004
2197.00,0.0004
2196.00,0.0005
2195.00,0.0006
2194.00,0.0008
2193.00,0.0010
2192.00,0.0011
2191.00,0.0010
2190.00,0.0007
2189.00,0.0006
2188.00,0.0006
2187.00,0.0008
2186.00,0.0009
2185.00,0.0010
2184.00,0.0009
2183.00,0.0006
2182.00,0.0002
2181.00,-0.0001
2180.00,-0.0002
2179.00,-0.0001
2178.00,0.0001
2177.00,0.0003
2176.00,0.0003
2175.00,0.0003
2174.00,0.0003
2173.00,0.0004
2172.00,0.0006
2171.00,0.0007
2170.00,0.0008
2169.00,0.0010
2168.00,0.0012
2167.00,0.0013
2166.00,0.0013
2165.00,0.0011
2164.00,0.0011
2163.00,0.0012
2162.00,0.0013
2161.00,0.0010
2160.00,-0.0000
2159.00,-0.0013
2158.00,-0.0022
2157.00,-0.0025
2156.00,-0.0024
2155.00,-0.0024
2154.00,-0.0025
2153.00,-0.0024
2152.00,-0.0022
2151.00,-0.0019
2150.00,-0.0017
2149.00,-0.0015
2148.00,-0.0015
2147.00,-0.0015
2146.00,-0.0016
2145.00,-0.0016
2144.00,-0.0016
2143.00,-0.0015
2142.00,-0.0015
2141.00,-0.0015
2140.00,-0.0015
2139.00,-0.0016
2138.00,-0.0016
2137.00,-0.0017
2136.00,-0.0018
2135.00,-0.0019
2134.00,-0.0020
2133.00,-0.0019
2132.00,-0.0017
2131.00,-0.0014
2130.00,-0.0013
2129.00,-0.0011
2128.00,-0.0010
2127.00,-0.0009
2126.00,-0.0009
2125.00,-0.0009
2124.00,-0.0009
2123.00,-0.0009
2122.00,-0.0008
2121.00,-0.0006
2120.00,-0.0003
2119.00,-0.0001
2118.00,0.0000
2117.00,0.0001
2116.00,0.0001
2115.00,0.0002
2114.00,0.0002
2113.00,0.0001
2112.00,0.0000
2111.00,-0.0001
2110.00,-0.0001
2109.00,-0.0000
2108.00,0.0000
2107.00,-0.0000
2106.00,-0.0002
2105.00,-0.0004
2104.00,-0.0004
2103.00,-0.0003
2102.00,-0.0002
2101.00,0.0000
2100.00,0.0001
2099.00,0.0001
2098.00,-0.0001
2097.00,-0.0004
2096.00,-0.0006
2095.00,-0.0007
2094.00,-0.0007
2093.00,-0.0005
2092.00,-0.0003
2091.00,-0.0002
2090.00,-0.0001
2089.00,-0.0000
2088.00,0.0001
2087.00,0.0002
2086.00,0.0002
2085.00,0.0002
2084.00,0.0001
2083.00,0.0001
2082.00,0.0001
2081.00,0.0002
2080.00,0.0002
2079.00,0.0002
2078.00,0.0001
2077.00,-0.0001
2076.00,-0.0002
2075.00,-0.0002
2074.00,-0.0002
2073.00,-0.0001
2072.00,-0.0001
2071.00,-0.0001
2070.00,-0.0002
2069.00,-0.0003
2068.00,-0.0002
2067.00,-0.0002
2066.00,-0.0003
2065.00,-0.0003
2064.00,-0.0003
2063.00,-0.0002
2062.00,-0.0000
2061.00,0.0000
2060.00,-0.0001
2059.00,-0.0002
2058.00,-0.0003
2057.00,-0.0003
2056.00,-0.0002
2055.00,-0.0000
2054.00,0.0002
2053.00,0.0005
2052.00,0.0009
2051.00,0.0010
2050.00,0.0007
2049.00,0.0003
2048.00,-0.0001
2047.00,-0.0002
2046.00,-0.0001
2045.00,-0.0002
2044.00,-0.0003
2043.00,-0.0004
2042.00,-0.0005
2041.00,-0.0005
2040.00,-0.0006
2039.00,-0.0006
2038.00,-0.0006
2037.00,-0.0005
2036.00,-0.0006
2035.00,-0.0007
2034.00,-0.0009
2033.00,-0.0010
2032.00,-0.0010
2031.00,-0.0010
2030.00,-0.0010
2029.00,-0.0009
2028.00,-0.0008
2027.00,-0.0007
2026.00,-0.0007
2025.00,-0.0007
2024.00,-0.0006
2023.00,-0.0007
2022.00,-0.0009
2021.00,-0.0012
2020.00,-0.0015
2019.00,-0.0017
2018.00,-0.0017
2017.00,-0.0016
2016.00,-0.0015
2015.00,-0.0016
2014.00,-0.0018
2013.00,-0.0019
2012.00,-0.0018
2011.00,-0.0015
2010.00,-0.0013
2009.00,-0.0013
2008.00,-0.0015
2007.00,-0.0018
2006.00,-0.0020
2005.00,-0.0021
2004.00,-0.0020
2003.00,-0.0016
2002.00,-0.0013
2001.00,-0.0011
2000.00,-0.0011
1999.00,-0.0013
1998.00,-0.0015
1997.00,-0.0015
1996.00,-0.0014
1995.00,-0.0011
1994.00,-0.0008
1993.00,-0.0006
1992.00,-0.0006
1991.00,-0.0007
1990.00,-0.0007
1989.00,-0.0007
1988.00,-0.0006
1987.00,-0.0008
1986.00,-0.0009
1985.00,-0.0009
1984.00,-0.0007
1983.00,-0.0002
1982.00,0.0003
1981.00,0.0007
1980.00,0.0006
1979.00,-0.0001
1978.00,-0.0012
1977.00,-0.0019
1976.00,-0.0020
1975.00,-0.0017
1974.00,-0.0014
1973.00,-0.0013
1972.00,-0.0014
1971.00,-0.0015
1970.00,-0.0015
1969.00,-0.0015
1968.00,-0.0015
1967.00,-0.0016
1966.00,-0.0018
1965.00,-0.0021
1964.00,-0.0022
1963.00,-0.0023
1962.00,-0.0023
1961.00,-0.0023
1960.00,-0.0023
1959.00,-0.0022
1958.00,-0.0020
1957.00,-0.0017
1956.00,-0.0015
1955.00,-0.0014
1954.00,-0.0015
1953.00,-0.0017
1952.00,-0.0018
1951.00,-0.0019
1950.00,-0.0019
1949.00,-0.0018
1948.00,-0.0018
1947.00,-0.0018
1946.00,-0.0019
1945.00,-0.0020
1944.00,-0.0020
1943.00,-0.0019
1942.00,-0.0018
1941.00,-0.0017
1940.00,-0.0016
1939.00,-0.0016
1938.00,-0.0015
1937.00,-0.0014
1936.00,-0.0012
1935.00,-0.0011
1934.00,-0.0011
1933.00,-0.0012
1932.00,-0.0012
1931.00,-0.0013
1930.00,-0.0012
1929.00,-0.0010
1928.00,-0.0009
1927.00,-0.0009
1926.00,-0.0010
1925.00,-0.0011
1924.00,-0.0011
1923.00,-0.0010
1922.00,-0.0009
1921.00,-0.0008
1920.00,-0.0007
1919.00,-0.0007
1918.00,-0.0007
1917.00,-0.0006
1916.00,-0.0006
1915.00,-0.0005
1914.00,-0.0005
1913.00,-0.0005
1912.00,-0.0005
1911.00,-0.0005
1910.00,-0.0005
1909.00,-0.0005
1908.00,-0.0005
1907.00,-0.0005
1906.00,-0.0005
1905.00,-0.0005
1904.00,-0.0004
1903.00,-0.0005
1902.00,-0.0004
1901.00,-0.0004
1900.00,-0.0004
1899.00,-0.0003
1898.00,-0.0003
1897.00,-0.0003
1896.00,-0.0002
1895.00,-0.0002
1894.00,-0.0001
1893.00,-0.0001
1892.00,-0.0002
1891.00,-0.0003
1890.00,-0.0004
1889.00,-0.0005
1888.00,-0.0005
1887.00,-0.0005
1886.00,-0.0004
1885.00,-0.0003
1884.00,-0.0002
1883.00,-0.0002
1882.00,-0.0002
1881.00,-0.0003
1880.00,-0.0003
1879.00,-0.0003
1878.00,-0.0003
1877.00,-0.0002
1876.00,-0.0002
1875.00,-0.0002
1874.00,-0.0003
1873.00,-0.0003
1872.00,-0.0004
1871.00,-0.0003
1870.00,-0.0003
1869.00,-0.0003
1868.00,-0.0003
1867.00,-0.0003
1866.00,-0.0003
1865.00,-0.0003
1864.00,-0.0003
1863.00,-0.0003
1862.00,-0.0003
1861.00,-0.0002
1860.00,-0.0002
1859.00,-0.0003
1858.00,-0.0003
1857.00,-0.0002
1856.00,-0.0001
1855.00,0.0000
1854.00,0.0001
1853.00,0.0001
1852.00,0.0000
1851.00,-0.0000
1850.00,-0.0001
1849.00,-0.0001
1848.00,-0.0001
1847.00,0.0000
1846.00,0.0001
1845.00,0.0001
1844.00,0.0001
1843.00,0.0000
1842.00,-0.0001
1841.00,-0.0001
1840.00,-0.0001
1839.00,-0.0000
1838.00,0.0000
1837.00,0.0001
1836.00,0.0001
1835.00,0.0002
1834.00,0.0001
1833.00,0.0001
1832.00,0.0001
1831.00,0.0002
1830.00,0.0002
1829.00,0.0003
1828.00,0.0003
1827.00,0.0003
1826.00,0.0003
1825.00,0.0002
1824.00,0.0002
1823.00,0.0002
1822.00,0.0001
1821.00,0.0001
1820.00,0.0000
1819.00,-0.0000
1818.00,-0.0001
1817.00,-0.0001
1816.00,-0.0001
1815.00,-0.0000
1814.00,0.0000
1813.00,0.0001
1812.00,0.0002
1811.00,0.0002
1810.00,0.0002
1809.00,0.0002
1808.00,0.0002
1807.00,0.0002
1806.00,0.0002
1805.00,0.0002
1804.00,0.0003
1803.00,0.0004
1802.00,0.0004
1801.00,0.0004
1800.00,0.0004
1799.00,0.0004
1798.00,0.0004
1797.00,0.0005
1796.00,0.0005
1795.00,0.0005
1794.00,0.0005
1793.00,0.0005
1792.00,0.0006
1791.00,0.0006
1790.00,0.0006
1789.00,0.0006
1788.00,0.0006
1787.00,0.0006
1786.00,0.0007
1785.00,0.0007
1784.00,0.0008
1783.00,0.0008
1782.00,0.0007
1781.00,0.0007
1780.00,0.0007
1779.00,0.0008
1778.00,0.0008
1777.00,0.0009
1776.00,0.0009
1775.00,0.0009
1774.00,0.0010
1773.00,0.0010
1772.00,0.0010
1771.00,0.0010
1770.00,0.0011
1769.00,0.0012
1768.00,0.0013
1767.00,0.0015
1766.00,0.0016
1765.00,0.0017
1764.00,0.0019
1763.00,0.0021
1762.00,0.0023
1761.00,0.0025
1760.00,0.0028
1759.00,0.0032
1758.00,0.0036
1757.00,0.0042
1756.00,0.0047
1755.00,0.0053
1754.00,0.0058
1753.00,0.0063
1752.00,0.0068
1751.00,0.0073
1750.00,0.0077
1749.00,0.0080
1748.00,0.0082
1747.00,0.0082
1746.00,0.0082
1745.00,0.0081
1744.00,0.0078
1743.00,0.0075
1742.00,0.0071
1741.00,0.0067
1740.00,0.0063
1739.00,0.0060
1738.00,0.0057
1737.00,0.0055
1736.00,0.0052
1735.00,0.0047
1734.00,0.0041
1733.00,0.0037
1732.00,0.0035
1731.00,0.0034
1730.00,0.0033
1729.00,0.0031
1728.00,0.0030
1727.00,0.0028
1726.00,0.0027
1725.00,0.0026
1724.00,0.0025
1723.00,0.0024
1722.00,0.0024
1721.00,0.0023
1720.00,0.0023
1719.00,0.0023
1718.00,0.0022
1717.00,0.0022
1716.00,0.0022
1715.00,0.0022
1714.00,0.0023
1713.00,0.0023
1712.00,0.0023
1711.00,0.0023
1710.00,0.0023
1709.00,0.0023
1708.00,0.0023
1707.00,0.0023
1706.00,0.0023
1705.00,0.0023
1704.00,0.0024
1703.00,0.0023
1702.00,0.0023
1701.00,0.0023
1700.00,0.0023
1699.00,0.0023
1698.00,0.0023
1697.00,0.0023
1696.00,0.0023
1695.00,0.0023
1694.00,0.0024
1693.00,0.0024
1692.00,0.0024
1691.00,0.0024
1690.00,0.0024
1689.00,0.0025
1688.00,0.0025
1687.00,0.0025
1686.00,0.0024
1685.00,0.0024
1684.00,0.0024
1683.00,0.0024
1682.00,0.0025
1681.00,0.0026
1680.00,0.0026
1679.00,0.0027
1678.00,0.0027
1677.00,0.0027
1676.00,0.0027
1675.00,0.0027
1674.00,0.0028
1673.00,0.0028
1672.00,0.0029
1671.00,0.0029
1670.00,0.0028
1669.00,0.0028
1668.00,0.0028
1667.00,0.0028
1666.00,0.0028
1665.00,0.0028
1664.00,0.0029
1663.00,0.0029
1662.00,0.0029
1661.00,0.0029
1660.00,0.0029
1659.00,0.0029
1658.00,0.0029
1657.00,0.0030
1656.00,0.0031
1655.00,0.0032
1654.00,0.0033
1653.00,0.0033
1652.00,0.0033
1651.00,0.0033
1650.00,0.0033
1649.00,0.0033
1648.00,0.0033
1647.00,0.0034
1646.00,0.0034
1645.00,0.0034
1644.00,0.0034
1643.00,0.0034
1642.00,0.0034
1641.00,0.0034
1640.00,0.0035
1639.00,0.0035
1638.00,0.0035
1637.00,0.0035
1636.00,0.0035
1635.00,0.0035
1634.00,0.0034
1633.00,0.0034
1632.00,0.0034
1631.00,0.0034
1630.00,0.0034
1629.00,0.0034
1628.00,0.0034
1627.00,0.0034
1626.00,0.0033
1625.00,0.0032
1624.00,0.0032
1623.00,0.0031
1622.00,0.0031
1621.00,0.0031
1620.00,0.0032
1619.00,0.0032
1618.00,0.0031
1617.00,0.0031
1616.00,0.0031
1615.00,0.0031
1614.00,0.0031
1613.00,0.0031
1612.00,0.0031
1611.00,0.0031
1610.00,0.0031
1609.00,0.0031
1608.00,0.0031
1607.00,0.0031
1606.00,0.0031
1605.00,0.0031
1604.00,0.0031
1603.00,0.0031
1602.00,0.0031
1601.00,0.0031
1600.00,0.0031
1599.00,0.0031
1598.00,0.0031
1597.00,0.0031
1596.00,0.0031
1595.00,0.0030
1594.00,0.0030
1593.00,0.0030
1592.00,0.0031
1591.00,0.0031
1590.00,0.0032
1589.00,0.0032
1588.00,0.0032
1587.00,0.0033
1586.00,0.0034
1585.00,0.0035
1584.00,0.0037
1583.00,0.0038
1582.00,0.0039
1581.00,0.0041
1580.00,0.0042
1579.00,0.0043
1578.00,0.0043
1577.00,0.0042
1576.00,0.0041
1575.00,0.0041
1574.00,0.0040
1573.00,0.0040
1572.00,0.0040
1571.00,0.0039
1570.00,0.0038
1569.00,0.0037
1568.00,0.0037
1567.00,0.0037
1566.00,0.0037
1565.00,0.0037
1564.00,0.0037
1563.00,0.0037
1562.00,0.0037
1561.00,0.0037
1560.00,0.0038
1559.00,0.0037
1558.00,0.0036
1557.00,0.0037
1556.00,0.0038
1555.00,0.0038
1554.00,0.0038
1553.00,0.0039
1552.00,0.0040
1551.00,0.0041
1550.00,0.0042
1549.00,0.0043
1548.00,0.0044
1547.00,0.0045
1546.00,0.0047
1545.00,0.0048
1544.00,0.0050
1543.00,0.0051
1542.00,0.0052
1541.00,0.0052
1540.00,0.0051
1539.00,0.0050
1538.00,0.0048
1537.00,0.0047
1536.00,0.0047
1535.00,0.0046
1534.00,0.0044
1533.00,0.0043
1532.00,0.0043
1531.00,0.0042
1530.00,0.0042
1529.00,0.0042
1528.00,0.0042
1527.00,0.0041
1526.00,0.0041
1525.00,0.0041
1524.00,0.0041
1523.00,0.0042
1522.00,0.0042
1521.00,0.0042
1520.00,0.0043
1519.00,0.0043
1518.00,0.0043
1517.00,0.0044
1516.00,0.0044
1515.00,0.0045
1514.00,0.0045
1513.00,0.0046
1512.00,0.0047
1511.00,0.0048
1510.00,0.0048
1509.00,0.0049
1508.00,0.0050
1507.00,0.0051
1506.00,0.0051
1505.00,0.0053
1504.00,0.0055
1503.00,0.0056
1502.00,0.0057
1501.00,0.0060
1500.00,0.0062
1499.00,0.0064
1498.00,0.0066
1497.00,0.0069
1496.00,0.0071
1495.00,0.0073
1494.00,0.0074
1493.00,0.0077
1492.00,0.0081
1491.00,0.0085
1490.00,0.0088
1489.00,0.0093
1488.00,0.0098
1487.00,0.0102
1486.00,0.0107
1485.00,0.0113
1484.00,0.0120
1483.00,0.0127
1482.00,0.0135
1481.00,0.0145
1480.00,0.0157
1479.00,0.0170
1478.00,0.0184
1477.00,0.0203
1476.00,0.0226
1475.00,0.0252
1474.00,0.0287
1473.00,0.0340
1472.00,0.0405
1471.00,0.0468
1470.00,0.0530
1469.00,0.0594
1468.00,0.0664
1467.00,0.0742
1466.00,0.0830
1465.00,0.0928
1464.00,0.1015
1463.00,0.1078
1462.00,0.1122
1461.00,0.1154
1460.00,0.1178
1459.00,0.1196
1458.00,0.1214
1457.00,0.1231
1456.00,0.1243
1455.00,0.1247
1454.00,0.1246
1453.00,0.1239
1452.00,0.1221
1451.00,0.1189
1450.00,0.1137
1449.00,0.1062
1448.00,0.0963
1447.00,0.0857
1446.00,0.0761
1445.00,0.0679
1444.00,0.0608
1443.00,0.0550
1442.00,0.0507
1441.00,0.0478
1440.00,0.0460
1439.00,0.0452
1438.00,0.0451
1437.00,0.0449
1436.00,0.0436
1435.00,0.0409
1434.00,0.0370
1433.00,0.0323
1432.00,0.0275
1431.00,0.0233
1430.00,0.0201
1429.00,0.0178
1428.00,0.0163
1427.00,0.0153
1426.00,0.0147
1425.00,0.0141
1424.00,0.0135
1423.00,0.0132
1422.00,0.0130
1421.00,0.0128
1420.00,0.0125
1419.00,0.0122
1418.00,0.0120
1417.00,0.0117
1416.00,0.0114
1415.00,0.0113
1414.00,0.0113
1413.00,0.0111
1412.00,0.0110
1411.00,0.0109
1410.00,0.0108
1409.00,0.0107
1408.00,0.0106
1407.00,0.0107
1406.00,0.0108
1405.00,0.0108
1404.00,0.0107
1403.00,0.0108
1402.00,0.0109
1401.00,0.0110
1400.00,0.0111
1399.00,0.0113
1398.00,0.0116
1397.00,0.0118
1396.00,0.0121
1395.00,0.0125
1394.00,0.0131
1393.00,0.0137
1392.00,0.0143
1391.00,0.0152
1390.00,0.0165
1389.00,0.0182
1388.00,0.0209
1387.00,0.0249
1386.00,0.0301
1385.00,0.0366
1384.00,0.0450
1383.00,0.0562
1382.00,0.0708
1381.00,0.0893
1380.00,0.1121
1379.00,0.1382
1378.00,0.1639
1377.00,0.1835
1376.00,0.1914
1375.00,0.1836
1374.00,0.1620
1373.00,0.1348
1372.00,0.1093
1371.00,0.0878
1370.00,0.0705
1369.00,0.0572
1368.00,0.0480
1367.00,0.0423
1366.00,0.0393
1365.00,0.0381
1364.00,0.0383
1363.00,0.0397
1362.00,0.0420
1361.00,0.0444
1360.00,0.0462
1359.00,0.0467
1358.00,0.0455
1357.00,0.0427
1356.00,0.0388
1355.00,0.0343
1354.00,0.0300
1353.00,0.0263
1352.00,0.0234
1351.00,0.0210
1350.00,0.0192
1349.00,0.0177
1348.00,0.0164
1347.00,0.0154
1346.00,0.0146
1345.00,0.0139
1344.00,0.0135
1343.00,0.0131
1342.00,0.0128
1341.00,0.0126
1340.00,0.0123
1339.00,0.0121
1338.00,0.0119
1337.00,0.0118
1336.00,0.0118
1335.00,0.0120
1334.00,0.0124
1333.00,0.0128
1332.00,0.0133
1331.00,0.0138
1330.00,0.0139
1329.00,0.0138
1328.00,0.0134
1327.00,0.0129
1326.00,0.0122
1325.00,0.0116
1324.00,0.0110
1323.00,0.0105
1322.00,0.0101
1321.00,0.0098
1320.00,0.0095
1319.00,0.0093
1318.00,0.0091
1317.00,0.0089
1316.00,0.0087
1315.00,0.0086
1314.00,0.0086
1313.00,0.0086
1312.00,0.0088
1311.00,0.0091
1310.00,0.0096
1309.00,0.0105
1308.00,0.0116
1307.00,0.0130
1306.00,0.0143
1305.00,0.0153
1304.00,0.0155
1303.00,0.0152
1302.00,0.0146
1301.00,0.0139
1300.00,0.0134
1299.00,0.0132
1298.00,0.0132
1297.00,0.0131
1296.00,0.0130
1295.00,0.0128
1294.00,0.0124
1293.00,0.0118
1292.00,0.0113
1291.00,0.0107
1290.00,0.0103
1289.00,0.0099
1288.00,0.0095
1287.00,0.0093
1286.00,0.0091
1285.00,0.0089
1284.00,0.0087
1283.00,0.0085
1282.00,0.0083
1281.00,0.0081
1280.00,0.0080
1279.00,0.0079
1278.00,0.0079
1277.00,0.0079
1276.00,0.0079
1275.00,0.0079
1274.00,0.0079
1273.00,0.0079
1272.00,0.0080
1271.00,0.0080
1270.00,0.0081
1269.00,0.0082
1268.00,0.0083
1267.00,0.0084
1266.00,0.0086
1265.00,0.0088
1264.00,0.0091
1263.00,0.0094
1262.00,0.0099
1261.00,0.0105
1260.00,0.0112
1259.00,0.0121
1258.00,0.0129
1257.00,0.0137
1256.00,0.0141
1255.00,0.0140
1254.00,0.0134
1253.00,0.0125
1252.00,0.0116
1251.00,0.0108
1250.00,0.0103
1249.00,0.0099
1248.00,0.0096
1247.00,0.0095
1246.00,0.0094
1245.00,0.0093
1244.00,0.0092
1243.00,0.0092
1242.00,0.0092
1241.00,0.0091
1240.00,0.0091
1239.00,0.0090
1238.00,0.0089
1237.00,0.0089
1236.00,0.0088
1235.00,0.0088
1234.00,0.0087
1233.00,0.0087
1232.00,0.0087
1231.00,0.0087
1230.00,0.0087
1229.00,0.0088
1228.00,0.0089
1227.00,0.0090
1226.00,0.0091
1225.00,0.0093
1224.00,0.0096
1223.00,0.0099
1222.00,0.0103
1221.00,0.0106
1220.00,0.0108
1219.00,0.0108
1218.00,0.0107
1217.00,0.0106
1216.00,0.0103
1215.00,0.0101
1214.00,0.0098
1213.00,0.0095
1212.00,0.0093
1211.00,0.0090
1210.00,0.0088
1209.00,0.0086
1208.00,0.0084
1207.00,0.0083
1206.00,0.0082
1205.00,0.0082
1204.00,0.0082
1203.00,0.0083
1202.00,0.0084
1201.00,0.0084
1200.00,0.0083
1199.00,0.0083
1198.00,0.0084
1197.00,0.0084
1196.00,0.0085
1195.00,0.0085
1194.00,0.0086
1193.00,0.0087
1192.00,0.0087
1191.00,0.0088
1190.00,0.0088
1189.00,0.0089
1188.00,0.0089
1187.00,0.0090
1186.00,0.0091
1185.00,0.0092
1184.00,0.0094
1183.00,0.0096
1182.00,0.0100
1181.00,0.0104
1180.00,0.0109
1179.00,0.0116
1178.00,0.0124
1177.00,0.0134
1176.00,0.0147
1175.00,0.0166
1174.00,0.0190
1173.00,0.0220
1172.00,0.0256
1171.00,0.0297
1170.00,0.0337
1169.00,0.0371
1168.00,0.0393
1167.00,0.0400
1166.00,0.0391
1165.00,0.0373
1164.00,0.0348
1163.00,0.0323
1162.00,0.0300
1161.00,0.0281
1160.00,0.0267
1159.00,0.0255
1158.00,0.0245
1157.00,0.0237
1156.00,0.0230
1155.00,0.0226
1154.00,0.0222
1153.00,0.0218
1152.00,0.0212
1151.00,0.0205
1150.00,0.0195
1149.00,0.0185
1148.00,0.0174
1147.00,0.0163
1146.00,0.0153
1145.00,0.0145
1144.00,0.0137
1143.00,0.0129
1142.00,0.0122
1141.00,0.0116
1140.00,0.0110
1139.00,0.0104
1138.00,0.0099
1137.00,0.0094
1136.00,0.0089
1135.00,0.0085
1134.00,0.0082
1133.00,0.0081
1132.00,0.0080
1131.00,0.0080
1130.00,0.0081
1129.00,0.0081
1128.00,0.0080
1127.00,0.0080
1126.00,0.0080
1125.00,0.0080
1124.00,0.0080
1123.00,0.0080
1122.00,0.0080
1121.00,0.0080
1120.00,0.0080
1119.00,0.0081
1118.00,0.0082
1117.00,0.0083
1116.00,0.0084
1115.00,0.0085
1114.00,0.0085
1113.00,0.0086
1112.00,0.0088
1111.00,0.0091
1110.00,0.0096
1109.00,0.0101
1108.00,0.0107
1107.00,0.0113
1106.00,0.0119
1105.00,0.0126
1104.00,0.0131
1103.00,0.0134
1102.00,0.0135
1101.00,0.0133
1100.00,0.0128
1099.00,0.0123
1098.00,0.0116
1097.00,0.0110
1096.00,0.0104
1095.00,0.0099
1094.00,0.0095
1093.00,0.0092
1092.00,0.0090
1091.00,0.0087
1090.00,0.0085
1089.00,0.0082
1088.00,0.0080
1087.00,0.0078
1086.00,0.0077
1085.00,0.0077
1084.00,0.0077
1083.00,0.0077
1082.00,0.0077
1081.00,0.0076
1080.00,0.0075
1079.00,0.0073
1078.00,0.0072
1077.00,0.0070
1076.00,0.0068
1075.00,0.0068
1074.00,0.0067
1073.00,0.0067
1072.00,0.0068
1071.00,0.0068
1070.00,0.0069
1069.00,0.0070
1068.00,0.0070
1067.00,0.0070
1066.00,0.0070
1065.00,0.0069
1064.00,0.0070
1063.00,0.0070
1062.00,0.0072
1061.00,0.0072
1060.00,0.0072
1059.00,0.0071
1058.00,0.0071
1057.00,0.0071
1056.00,0.0072
1055.00,0.0072
1054.00,0.0073
1053.00,0.0074
1052.00,0.0075
1051.00,0.0077
1050.00,0.0080
1049.00,0.0084
1048.00,0.0088
1047.00,0.0092
1046.00,0.0095
1045.00,0.0096
1044.00,0.0097
1043.00,0.0095
1042.00,0.0093
1041.00,0.0090
1040.00,0.0087
1039.00,0.0085
1038.00,0.0084
1037.00,0.0083
1036.00,0.0083
1035.00,0.0083
1034.00,0.0083
1033.00,0.0083
1032.00,0.0082
1031.00,0.0081
1030.00,0.0080
1029.00,0.0079
1028.00,0.0079
1027.00,0.0080
1026.00,0.0081
1025.00,0.0082
1024.00,0.0082
1023.00,0.0081
1022.00,0.0081
1021.00,0.0081
1020.00,0.0082
1019.00,0.0084
1018.00,0.0086
1017.00,0.0088
1016.00,0.0091
1015.00,0.0094
1014.00,0.0098
1013.00,0.0102
1012.00,0.0107
1011.00,0.0113
1010.00,0.0118
1009.00,0.0123
1008.00,0.0129
1007.00,0.0136
1006.00,0.0146
1005.00,0.0161
1004.00,0.0180
1003.00,0.0207
1002.00,0.0242
1001.00,0.0284
1000.00,0.0329
999.00,0.0368
998.00,0.0390
997.00,0.0386
996.00,0.0357
995.00,0.0312
994.00,0.0263
993.00,0.0218
992.00,0.0183
991.00,0.0158
990.00,0.0140
989.00,0.0128
988.00,0.0121
987.00,0.0117
986.00,0.0117
985.00,0.0118
984.00,0.0122
983.00,0.0130
982.00,0.0143
981.00,0.0161
980.00,0.0186
979.00,0.0218
978.00,0.0258
977.00,0.0307
976.00,0.0361
975.00,0.0414
974.00,0.0456
973.00,0.0476
972.00,0.0465
971.00,0.0426
970.00,0.0368
969.00,0.0305
968.00,0.0250
967.00,0.0206
966.00,0.0173
965.00,0.0150
964.00,0.0134
963.00,0.0122
962.00,0.0112
961.00,0.0105
960.00,0.0099
959.00,0.0095
958.00,0.0092
957.00,0.0089
956.00,0.0086
955.00,0.0082
954.00,0.0078
953.00,0.0076
952.00,0.0075
951.00,0.0076
950.00,0.0077
949.00,0.0077
948.00,0.0077
947.00,0.0077
946.00,0.0078
945.00,0.0079
944.00,0.0082
943.00,0.0086
942.00,0.0089
941.00,0.0091
940.00,0.0091
939.00,0.0088
938.00,0.0085
937.00,0.0080
936.00,0.0075
935.00,0.0070
934.00,0.0066
933.00,0.0063
932.00,0.0061
931.00,0.0059
930.00,0.0057
929.00,0.0057
928.00,0.0057
927.00,0.0057
926.00,0.0057
925.00,0.0057
924.00,0.0057
923.00,0.0058
922.00,0.0060
921.00,0.0061
920.00,0.0062
919.00,0.0063
918.00,0.0064
917.00,0.0065
916.00,0.0066
915.00,0.0067
914.00,0.0068
913.00,0.0069
912.00,0.0070
911.00,0.0071
910.00,0.0073
909.00,0.0074
908.00,0.0076
907.00,0.0080
906.00,0.0087
905.00,0.0097
904.00,0.0111
903.00,0.0129
902.00,0.0149
901.00,0.0168
900.00,0.0182
899.00,0.0186
898.00,0.0179
897.00,0.0164
896.00,0.0143
895.00,0.0123
894.00,0.0106
893.00,0.0094
892.00,0.0086
891.00,0.0080
890.00,0.0076
889.00,0.0073
888.00,0.0070
887.00,0.0067
886.00,0.0066
885.00,0.0066
884.00,0.0066
883.00,0.0066
882.00,0.0066
881.00,0.0066
880.00,0.0067
879.00,0.0068
878.00,0.0069
877.00,0.0069
876.00,0.0070
875.00,0.0071
874.00,0.0071
873.00,0.0071
872.00,0.0071
871.00,0.0070
870.00,0.0070
869.00,0.0069
868.00,0.0069
867.00,0.0070
866.00,0.0071
865.00,0.0072
864.00,0.0072
863.00,0.0074
862.00,0.0076
861.00,0.0079
860.00,0.0083
859.00,0.0085
858.00,0.0087
857.00,0.0088
856.00,0.0089
855.00,0.0090
854.00,0.0093
853.00,0.0096
852.00,0.0100
851.00,0.0104
850.00,0.0110
849.00,0.0117
848.00,0.0129
847.00,0.0146
846.00,0.0173
845.00,0.0212
844.00,0.0265
843.00,0.0325
842.00,0.0373
841.00,0.0388
840.00,0.0364
839.00,0.0311
838.00,0.0253
837.00,0.0206
836.00,0.0175
835.00,0.0156
834.00,0.0143
833.00,0.0134
832.00,0.0126
831.00,0.0121
830.00,0.0118
829.00,0.0115
828.00,0.0112
827.00,0.0109
826.00,0.0108
825.00,0.0108
824.00,0.0107
823.00,0.0106
822.00,0.0105
821.00,0.0105
820.00,0.0106
819.00,0.0107
818.00,0.0110
817.00,0.0114
816.00,0.0121
815.00,0.0132
814.00,0.0146
813.00,0.0163
812.00,0.0180
811.00,0.0195
810.00,0.0207
809.00,0.0213
808.00,0.0212
807.00,0.0203
806.00,0.0188
805.00,0.0171
804.00,0.0154
803.00,0.0139
802.00,0.0127
801.00,0.0117
800.00,0.0109
799.00,0.0103
798.00,0.0099
797.00,0.0095
796.00,0.0091
795.00,0.0088
794.00,0.0086
793.00,0.0083
792.00,0.0081
791.00,0.0078
790.00,0.0076
789.00,0.0075
788.00,0.0074
787.00,0.0073
786.00,0.0071
785.00,0.0067
784.00,0.0063
783.00,0.0059
782.00,0.0057
781.00,0.0056
780.00,0.0055
779.00,0.0054
778.00,0.0055
777.00,0.0056
776.00,0.0059
775.00,0.0061
774.00,0.0064
773.00,0.0066
772.00,0.0069
771.00,0.0072
770.00,0.0074
769.00,0.0075
768.00,0.0074
767.00,0.0073
766.00,0.0070
765.00,0.0068
764.00,0.0066
763.00,0.0063
762.00,0.0061
761.00,0.0059
760.00,0.0057
759.00,0.0055
758.00,0.0053
757.00,0.0051
756.00,0.0049
755.00,0.0048
754.00,0.0047
753.00,0.0047
752.00,0.0047
751.00,0.0047
750.00,0.0047
749.00,0.0048
748.00,0.0049
747.00,0.0050
746.00,0.0051
745.00,0.0050
744.00,0.0050
743.00,0.0050
742.00,0.0052
741.00,0.0053
740.00,0.0054
739.00,0.0054
738.00,0.0054
737.00,0.0056
736.00,0.0058
735.00,0.0059
734.00,0.0060
733.00,0.0060
732.00,0.0060
731.00,0.0060
730.00,0.0059
729.00,0.0059
728.00,0.0058
727.00,0.0059
726.00,0.0060
725.00,0.0061
724.00,0.0061
723.00,0.0061
722.00,0.0061
721.00,0.0061
720.00,0.0060
719.00,0.0059
718.00,0.0057
717.00,0.0057
716.00,0.0058
715.00,0.0058
714.00,0.0057
713.00,0.0056
712.00,0.0054
711.00,0.0052
710.00,0.0049
709.00,0.0047
708.00,0.0046
707.00,0.0046
706.00,0.0046
705.00,0.0047
704.00,0.0047
703.00,0.0047
702.00,0.0047
701.00,0.0046
700.00,0.0045
699.00,0.0043
698.00,0.0041
697.00,0.0041
696.00,0.0042
695.00,0.0044
694.00,0.0045
693.00,0.0046
692.00,0.0046
691.00,0.0045
690.00,0.0044
689.00,0.0044
688.00,0.0044
687.00,0.0046
686.00,0.0046
685.00,0.0045
684.00,0.0043
683.00,0.0042
682.00,0.0042
681.00,0.0042
680.00,0.0043
679.00,0.0044
678.00,0.0045
677.00,0.0044
676.00,0.0043
675.00,0.0041
674.00,0.0040
673.00,0.0041
672.00,0.0042
671.00,0.0042
670.00,0.0041
669.00,0.0041
668.00,0.0042
667.00,0.0045
666.00,0.0047
665.00,0.0047
664.00,0.0046
663.00,0.0044
662.00,0.0042
661.00,0.0041
660.00,0.0042
659.00,0.0043
658.00,0.0044
657.00,0.0045
656.00,0.0045
655.00,0.0045
654.00,0.0044
653.00,0.0045
652.00,0.0045
651.00,0.0045
650.00,0.0045
649.00,0.0044
648.00,0.0042
647.00,0.0042
646.00,0.0042
645.00,0.0044
644.00,0.0046
643.00,0.0046
642.00,0.0046
641.00,0.0045
640.00,0.0044
639.00,0.0043
638.00,0.0044
637.00,0.0045
636.00,0.0047
635.00,0.0048
634.00,0.0048
633.00,0.0047
632.00,0.0048
631.00,0.0051
630.00,0.0054
629.00,0.0056
628.00,0.0054
627.00,0.0051
626.00,0.0047
625.00,0.0044
624.00,0.0042
623.00,0.0042
622.00,0.0044
621.00,0.0045
620.00,0.0045
619.00,0.0044
618.00,0.0043
617.00,0.0043
616.00,0.0043
615.00,0.0044
614.00,0.0046
613.00,0.0049
612.00,0.0053
611.00,0.0055
610.00,0.0055
609.00,0.0054
608.00,0.0053
607.00,0.0051
606.00,0.0049
605.00,0.0048
604.00,0.0047
603.00,0.0048
602.00,0.0049
601.00,0.0052
600.00,0.0053
599.00,0.0054
598.00,0.0053
597.00,0.0051
596.00,0.0048
595.00,0.0046
594.00,0.0044
593.00,0.0043
592.00,0.0043
591.00,0.0045
590.00,0.0046
589.00,0.0047
588.00,0.0047
587.00,0.0048
586.00,0.0049
585.00,0.0051
584.00,0.0051
583.00,0.0051
582.00,0.0053
581.00,0.0056
580.00,0.0059
579.00,0.0059
578.00,0.0056
577.00,0.0053
576.00,0.0051
575.00,0.0051
574.00,0.0050
573.00,0.0048
572.00,0.0047
571.00,0.0046
570.00,0.0048
569.00,0.0051
568.00,0.0053
567.00,0.0052
566.00,0.0051
565.00,0.0051
564.00,0.0052
563.00,0.0052
562.00,0.0051
561.00,0.0050
560.00,0.0050
559.00,0.0051
558.00,0.0051
557.00,0.0049
556.00,0.0048
555.00,0.0049
554.00,0.0053
553.00,0.0057
552.00,0.0060
551.00,0.0062
550.00,0.0060
549.00,0.0058
548.00,0.0057
547.00,0.0059
546.00,0.0061
545.00,0.0061
544.00,0.0060
543.00,0.0058
542.00,0.0057
541.00,0.0058
540.00,0.0059
539.00,0.0060
538.00,0.0060
537.00,0.0061
536.00,0.0063
535.00,0.0065
534.00,0.0066
533.00,0.0067
532.00,0.0070
531.00,0.0074
530.00,0.0077
529.00,0.0079
528.00,0.0078
527.00,0.0076
526.00,0.0072
525.00,0.0066
524.00,0.0059
523.00,0.0052
522.00,0.0048
521.00,0.0048
520.00,0.0050
519.00,0.0054
518.00,0.0054
517.00,0.0052
516.00,0.0050
515.00,0.0049
514.00,0.0050
513.00,0.0052
512.00,0.0053
511.00,0.0054
510.00,0.0054
509.00,0.0054
508.00,0.0054
507.00,0.0053
506.00,0.0051
505.00,0.0048
504.00,0.0043
503.00,0.0038
502.00,0.0037
501.00,0.0041
500.00,0.0049
499.00,0.0056
498.00,0.0060
497.00,0.0062
496.00,0.0061
495.00,0.0058
494.00,0.0054
493.00,0.0052
492.00,0.0055
491.00,0.0062
490.00,0.0068
489.00,0.0069
488.00,0.0064
487.00,0.0056
486.00,0.0051
485.00,0.0052
484.00,0.0057
483.00,0.0063
482.00,0.0069
481.00,0.0075
480.00,0.0081
479.00,0.0086
478.00,0.0087
477.00,0.0082
476.00,0.0074
475.00,0.0063
474.00,0.0054
473.00,0.0047
472.00,0.0048
471.00,0.0060
470.00,0.0076
469.00,0.0090
468.00,0.0096
467.00,0.0093
466.00,0.0089
465.00,0.0092
464.00,0.0104
463.00,0.0123
462.00,0.0141
461.00,0.0155
460.00,0.0162
459.00,0.0158
458.00,0.0146
457.00,0.0134
456.00,0.0129
455.00,0.0128
454.00,0.0125
453.00,0.0117
452.00,0.0105
451.00,0.0095
450.00,0.0088
