Created as New Dataset,Sample 053 By Administrator Date Wednesday, September 10 2025
cm-1,A
4000.00,0.0010
3999.00,0.0009
3998.00,0.0009
3997.00,0.0009
3996.00,0.0009
3995.00,0.0009
3994.00,0.0008
3993.00,0.0009
3992.00,0.0009
3991.00,0.0009
3990.00,0.0009
3989.00,0.0009
3988.00,0.0009
3987.00,0.0009
3986.00,0.0008
3985.00,0.0008
3984.00,0.0008
3983.00,0.0007
3982.00,0.0007
3981.00,0.0007
3980.00,0.0008
3979.00,0.0008
3978.00,0.0008
3977.00,0.0008
3976.00,0.0008
3975.00,0.0008
3974.00,0.0008
3973.00,0.0008
3972.00,0.0008
3971.00,0.0008
3970.00,0.0008
3969.00,0.0008
3968.00,0.0008
3967.00,0.0008
3966.00,0.0008
3965.00,0.0008
3964.00,0.0008
3963.00,0.0007
3962.00,0.0007
3961.00,0.0007
3960.00,0.0007
3959.00,0.0007
3958.00,0.0007
3957.00,0.0007
3956.00,0.0007
3955.00,0.0007
3954.00,0.0007
3953.00,0.0006
3952.00,0.0006
3951.00,0.0006
3950.00,0.0006
3949.00,0.0006
3948.00,0.0007
3947.00,0.0007
3946.00,0.0007
3945.00,0.0008
3944.00,0.0008
3943.00,0.0008
3942.00,0.0007
3941.00,0.0007
3940.00,0.0007
3939.00,0.0007
3938.00,0.0007
3937.00,0.0007
3936.00,0.0007
3935.00,0.0007
3934.00,0.0007
3933.00,0.0007
3932.00,0.0006
3931.00,0.0006
3930.00,0.0006
3929.00,0.0006
3928.00,0.0007
3927.00,0.0007
3926.00,0.0007
3925.00,0.0007
3924.00,0.0008
3923.00,0.0007
3922.00,0.0007
3921.00,0.0007
3920.00,0.0007
3919.00,0.0007
3918.00,0.0007
3917.00,0.0007
3916.00,0.0007
3915.00,0.0007
3914.00,0.0007
3913.00,0.0007
3912.00,0.0007
3911.00,0.0007
3910.00,0.0007
3909.00,0.0007
3908.00,0.0007
3907.00,0.0006
3906.00,0.0006
3905.00,0.0006
3904.00,0.0006
3903.00,0.0006
3902.00,0.0006
3901.00,0.0006
3900.00,0.0006
3899.00,0.0006
3898.00,0.0007
3897.00,0.0007
3896.00,0.0007
3895.00,0.0007
3894.00,0.0007
3893.00,0.0007
3892.00,0.0007
3891.00,0.0007
3890.00,0.0007
3889.00,0.0007
3888.00,0.0007
3887.00,0.0007
3886.00,0.0007
3885.00,0.0007
3884.00,0.0007
3883.00,0.0007
3882.00,0.0007
3881.00,0.0007
3880.00,0.0007
3879.00,0.0007
3878.00,0.0007
3877.00,0.0007
3876.00,0.0007
3875.00,0.0007
3874.00,0.0006
3873.00,0.0006
3872.00,0.0006
3871.00,0.0005
3870.00,0.0005
3869.00,0.0005
3868.00,0.0005
3867.00,0.0006
3866.00,0.0006
3865.00,0.0006
3864.00,0.0006
3863.00,0.0006
3862.00,0.0006
3861.00,0.0006
3860.00,0.0007
3859.00,0.0007
3858.00,0.0007
3857.00,0.0007
3856.00,0.0006
3855.00,0.0006
3854.00,0.0006
3853.00,0.0006
3852.00,0.0006
3851.00,0.0006
3850.00,0.0006
3849.00,0.0006
3848.00,0.0006
3847.00,0.0006
3846.00,0.0006
3845.00,0.0006
3844.00,0.0006
3843.00,0.0006
3842.00,0.0006
3841.00,0.0006
3840.00,0.0006
3839.00,0.0006
3838.00,0.0007
3837.00,0.0007
3836.00,0.0007
3835.00,0.0007
3834.00,0.0006
3833.00,0.0006
3832.00,0.0006
3831.00,0.0006
3830.00,0.0006
3829.00,0.0006
3828.00,0.0006
3827.00,0.0007
3826.00,0.0007
3825.00,0.0006
3824.00,0.0006
3823.00,0.0005
3822.00,0.0005
3821.00,0.0005
3820.00,0.0006
3819.00,0.0006
3818.00,0.0006
3817.00,0.0006
3816.00,0.0006
3815.00,0.0006
3814.00,0.0006
3813.00,0.0005
3812.00,0.0006
3811.00,0.0006
3810.00,0.0006
3809.00,0.0007
3808.00,0.0007
3807.00,0.0007
3806.00,0.0007
3805.00,0.0007
3804.00,0.0007
3803.00,0.0006
3802.00,0.0006
3801.00,0.0006
3800.00,0.0006
3799.00,0.0006
3798.00,0.0006
3797.00,0.0007
3796.00,0.0007
3795.00,0.0007
3794.00,0.0006
3793.00,0.0006
3792.00,0.0006
3791.00,0.0006
3790.00,0.0007
3789.00,0.0007
3788.00,0.0007
3787.00,0.0007
3786.00,0.0007
3785.00,0.0006
3784.00,0.0006
3783.00,0.0006
3782.00,0.0006
3781.00,0.0006
3780.00,0.0007
3779.00,0.0007
3778.00,0.0007
3777.00,0.0007
3776.00,0.0006
3775.00,0.0006
3774.00,0.0007
3773.00,0.0007
3772.00,0.0008
3771.00,0.0008
3770.00,0.0008
3769.00,0.0008
3768.00,0.0008
3767.00,0.0008
3766.00,0.0008
3765.00,0.0007
3764.00,0.0007
3763.00,0.0007
3762.00,0.0007
3761.00,0.0007
3760.00,0.0007
3759.00,0.0007
3758.00,0.0007
3757.00,0.0007
3756.00,0.0007
3755.00,0.0006
3754.00,0.0006
3753.00,0.0006
3752.00,0.0006
3751.00,0.0006
3750.00,0.0006
3749.00,0.0006
3748.00,0.0006
3747.00,0.0006
3746.00,0.0006
3745.00,0.0007
3744.00,0.0007
3743.00,0.0006
3742.00,0.0005
3741.00,0.0004
3740.00,0.0004
3739.00,0.0004
3738.00,0.0004
3737.00,0.0004
3736.00,0.0004
3735.00,0.0003
3734.00,0.0003
3733.00,0.0003
3732.00,0.0004
3731.00,0.0004
3730.00,0.0004
3729.00,0.0004
3728.00,0.0004
3727.00,0.0004
3726.00,0.0005
3725.00,0.0005
3724.00,0.0005
3723.00,0.0005
3722.00,0.0004
3721.00,0.0004
3720.00,0.0005
3719.00,0.0005
3718.00,0.0005
3717.00,0.0006
3716.00,0.0006
3715.00,0.0005
3714.00,0.0005
3713.00,0.0004
3712.00,0.0004
3711.00,0.0004
3710.00,0.0004
3709.00,0.0004
3708.00,0.0005
3707.00,0.0005
3706.00,0.0005
3705.00,0.0005
3704.00,0.0005
3703.00,0.0005
3702.00,0.0005
3701.00,0.0005
3700.00,0.0006
3699.00,0.0006
3698.00,0.0006
3697.00,0.0006
3696.00,0.0006
3695.00,0.0006
3694.00,0.0006
3693.00,0.0005
3692.00,0.0005
3691.00,0.0005
3690.00,0.0005
3689.00,0.0006
3688.00,0.0006
3687.00,0.0006
3686.00,0.0006
3685.00,0.0006
3684.00,0.0005
3683.00,0.0005
3682.00,0.0005
3681.00,0.0005
3680.00,0.0006
3679.00,0.0006
3678.00,0.0006
3677.00,0.0006
3676.00,0.0006
3675.00,0.0006
3674.00,0.0007
3673.00,0.0006
3672.00,0.0006
3671.00,0.0006
3670.00,0.0006
3669.00,0.0006
3668.00,0.0006
3667.00,0.0006
3666.00,0.0006
3665.00,0.0006
3664.00,0.0006
3663.00,0.0007
3662.00,0.0007
3661.00,0.0007
3660.00,0.0007
3659.00,0.0007
3658.00,0.0007
3657.00,0.0007
3656.00,0.0007
3655.00,0.0007
3654.00,0.0007
3653.00,0.0007
3652.00,0.0008
3651.00,0.0009
3650.00,0.0009
3649.00,0.0009
3648.00,0.0008
3647.00,0.0008
3646.00,0.0008
3645.00,0.0007
3644.00,0.0007
3643.00,0.0007
3642.00,0.0008
3641.00,0.0009
3640.00,0.0009
3639.00,0.0009
3638.00,0.0009
3637.00,0.0009
3636.00,0.0009
3635.00,0.0008
3634.00,0.0008
3633.00,0.0008
3632.00,0.0008
3631.00,0.0008
3630.00,0.0009
3629.00,0.0010
3628.00,0.0010
3627.00,0.0010
3626.00,0.0010
3625.00,0.0009
3624.00,0.0009
3623.00,0.0010
3622.00,0.0010
3621.00,0.0011
3620.00,0.0011
3619.00,0.0011
3618.00,0.0010
3617.00,0.0010
3616.00,0.0010
3615.00,0.0011
3614.00,0.0011
3613.00,0.0011
3612.00,0.0012
3611.00,0.0012
3610.00,0.0013
3609.00,0.0013
3608.00,0.0014
3607.00,0.0014
3606.00,0.0014
3605.00,0.0014
3604.00,0.0014
3603.00,0.0013
3602.00,0.0013
3601.00,0.0013
3600.00,0.0014
3599.00,0.0014
3598.00,0.0014
3597.00,0.0014
3596.00,0.0015
3595.00,0.0015
3594.00,0.0014
3593.00,0.0014
3592.00,0.0015
3591.00,0.0015
3590.00,0.0016
3589.00,0.0017
3588.00,0.0017
3587.00,0.0017
3586.00,0.0017
3585.00,0.0017
3584.00,0.0017
3583.00,0.0017
3582.00,0.0017
3581.00,0.0018
3580.00,0.0018
3579.00,0.0019
3578.00,0.0019
3577.00,0.0019
3576.00,0.0019
3575.00,0.0019
3574.00,0.0020
3573.00,0.0020
3572.00,0.0020
3571.00,0.0021
3570.00,0.0021
3569.00,0.0021
3568.00,0.0021
3567.00,0.0022
3566.00,0.0022
3565.00,0.0023
3564.00,0.0023
3563.00,0.0023
3562.00,0.0023
3561.00,0.0023
3560.00,0.0024
3559.00,0.0025
3558.00,0.0025
3557.00,0.0025
3556.00,0.0025
3555.00,0.0025
3554.00,0.0025
3553.00,0.0026
3552.00,0.0026
3551.00,0.0026
3550.00,0.0027
3549.00,0.0027
3548.00,0.0028
3547.00,0.0028
3546.00,0.0028
3545.00,0.0028
3544.00,0.0028
3543.00,0.0028
3542.00,0.0028
3541.00,0.0028
3540.00,0.0029
3539.00,0.0029
3538.00,0.0029
3537.00,0.0029
3536.00,0.0030
3535.00,0.0030
3534.00,0.0031
3533.00,0.0032
3532.00,0.0033
3531.00,0.0033
3530.00,0.0033
3529.00,0.0033
3528.00,0.0033
3527.00,0.0033
3526.00,0.0033
3525.00,0.0033
3524.00,0.0033
3523.00,0.0034
3522.00,0.0035
3521.00,0.0035
3520.00,0.0035
3519.00,0.0036
3518.00,0.0036
3517.00,0.0036
3516.00,0.0036
3515.00,0.0036
3514.00,0.0037
3513.00,0.0037
3512.00,0.0038
3511.00,0.0038
3510.00,0.0038
3509.00,0.0038
3508.00,0.0039
3507.00,0.0039
3506.00,0.0039
3505.00,0.0039
3504.00,0.0039
3503.00,0.0039
3502.00,0.0040
3501.00,0.0040
3500.00,0.0041
3499.00,0.0041
3498.00,0.0041
3497.00,0.0041
3496.00,0.0042
3495.00,0.0042
3494.00,0.0043
3493.00,0.0043
3492.00,0.0043
3491.00,0.0044
3490.00,0.0044
3489.00,0.0044
3488.00,0.0044
3487.00,0.0044
3486.00,0.0044
3485.00,0.0044
3484.00,0.0045
3483.00,0.0045
3482.00,0.0046
3481.00,0.0046
3480.00,0.0047
3479.00,0.0047
3478.00,0.0047
3477.00,0.0048
3476.00,0.0048
3475.00,0.0048
3474.00,0.0049
3473.00,0.0049
3472.00,0.0049
3471.00,0.0049
3470.00,0.0049
3469.00,0.0049
3468.00,0.0049
3467.00,0.0050
3466.00,0.0050
3465.00,0.0051
3464.00,0.0051
3463.00,0.0051
3462.00,0.0052
3461.00,0.0052
3460.00,0.0052
3459.00,0.0052
3458.00,0.0053
3457.00,0.0053
3456.00,0.0053
3455.00,0.0053
3454.00,0.0053
3453.00,0.0054
3452.00,0.0054
3451.00,0.0054
3450.00,0.0055
3449.00,0.0055
3448.00,0.0055
3447.00,0.0056
3446.00,0.0056
3445.00,0.0055
3444.00,0.0055
3443.00,0.0055
3442.00,0.0055
3441.00,0.0056
3440.00,0.0056
3439.00,0.0057
3438.00,0.0057
3437.00,0.0058
3436.00,0.0058
3435.00,0.0058
3434.00,0.0058
3433.00,0.0059
3432.00,0.0059
3431.00,0.0060
3430.00,0.0060
3429.00,0.0060
3428.00,0.0060
3427.00,0.0060
3426.00,0.0060
3425.00,0.0060
3424.00,0.0061
3423.00,0.0061
3422.00,0.0062
3421.00,0.0062
3420.00,0.0062
3419.00,0.0062
3418.00,0.0062
3417.00,0.0062
3416.00,0.0063
3415.00,0.0063
3414.00,0.0063
3413.00,0.0064
3412.00,0.0064
3411.00,0.0064
3410.00,0.0064
3409.00,0.0065
3408.00,0.0065
3407.00,0.0065
3406.00,0.0065
3405.00,0.0065
3404.00,0.0066
3403.00,0.0066
3402.00,0.0067
3401.00,0.0067
3400.00,0.0068
3399.00,0.0068
3398.00,0.0068
3397.00,0.0068
3396.00,0.0067
3395.00,0.0067
3394.00,0.0068
3393.00,0.0068
3392.00,0.0068
3391.00,0.0069
3390.00,0.0069
3389.00,0.0069
3388.00,0.0069
3387.00,0.0069
3386.00,0.0070
3385.00,0.0069
3384.00,0.0069
3383.00,0.0069
3382.00,0.0069
3381.00,0.0069
3380.00,0.0069
3379.00,0.0070
3378.00,0.0070
3377.00,0.0070
3376.00,0.0071
3375.00,0.0071
3374.00,0.0071
3373.00,0.0071
3372.00,0.0071
3371.00,0.0071
3370.00,0.0071
3369.00,0.0071
3368.00,0.0071
3367.00,0.0072
3366.00,0.0072
3365.00,0.0072
3364.00,0.0072
3363.00,0.0072
3362.00,0.0072
3361.00,0.0072
3360.00,0.0072
3359.00,0.0073
3358.00,0.0073
3357.00,0.0073
3356.00,0.0073
3355.00,0.0074
3354.00,0.0074
3353.00,0.0074
3352.00,0.0074
3351.00,0.0074
3350.00,0.0074
3349.00,0.0074
3348.00,0.0074
3347.00,0.0074
3346.00,0.0074
3345.00,0.0074
3344.00,0.0075
3343.00,0.0075
3342.00,0.0075
3341.00,0.0075
3340.00,0.0075
3339.00,0.0075
3338.00,0.0075
3337.00,0.0075
3336.00,0.0075
3335.00,0.0076
3334.00,0.0076
3333.00,0.0076
3332.00,0.0076
3331.00,0.0076
3330.00,0.0076
3329.00,0.0076
3328.00,0.0076
3327.00,0.0076
3326.00,0.0076
3325.00,0.0076
3324.00,0.0076
3323.00,0.0076
3322.00,0.0075
3321.00,0.0075
3320.00,0.0075
3319.00,0.0076
3318.00,0.0076
3317.00,0.0077
3316.00,0.0077
3315.00,0.0077
3314.00,0.0077
3313.00,0.0077
3312.00,0.0077
3311.00,0.0077
3310.00,0.0077
3309.00,0.0077
3308.00,0.0077
3307.00,0.0077
3306.00,0.0077
3305.00,0.0077
3304.00,0.0077
3303.00,0.0077
3302.00,0.0077
3301.00,0.0077
3300.00,0.0076
3299.00,0.0076
3298.00,0.0076
3297.00,0.0076
3296.00,0.0076
3295.00,0.0076
3294.00,0.0076
3293.00,0.0076
3292.00,0.0076
3291.00,0.0076
3290.00,0.0076
3289.00,0.0076
3288.00,0.0076
3287.00,0.0075
3286.00,0.0075
3285.00,0.0075
3284.00,0.0074
3283.00,0.0074
3282.00,0.0074
3281.00,0.0074
3280.00,0.0074
3279.00,0.0073
3278.00,0.0073
3277.00,0.0073
3276.00,0.0072
3275.00,0.0072
3274.00,0.0072
3273.00,0.0071
3272.00,0.0071
3271.00,0.0071
3270.00,0.0071
3269.00,0.0070
3268.00,0.0070
3267.00,0.0070
3266.00,0.0069
3265.00,0.0069
3264.00,0.0069
3263.00,0.0069
3262.00,0.0069
3261.00,0.0069
3260.00,0.0068
3259.00,0.0068
3258.00,0.0067
3257.00,0.0066
3256.00,0.0066
3255.00,0.0066
3254.00,0.0066
3253.00,0.0066
3252.00,0.0066
3251.00,0.0065
3250.00,0.0065
3249.00,0.0065
3248.00,0.0065
3247.00,0.0064
3246.00,0.0064
3245.00,0.0064
3244.00,0.0064
3243.00,0.0064
3242.00,0.0064
3241.00,0.0064
3240.00,0.0064
3239.00,0.0064
3238.00,0.0063
3237.00,0.0063
3236.00,0.0063
3235.00,0.0063
3234.00,0.0063
3233.00,0.0063
3232.00,0.0063
3231.00,0.0063
3230.00,0.0063
3229.00,0.0063
3228.00,0.0063
3227.00,0.0063
3226.00,0.0063
3225.00,0.0063
3224.00,0.0063
3223.00,0.0063
3222.00,0.0064
3221.00,0.0064
3220.00,0.0064
3219.00,0.0065
3218.00,0.0065
3217.00,0.0065
3216.00,0.0066
3215.00,0.0066
3214.00,0.0067
3213.00,0.0067
3212.00,0.0067
3211.00,0.0067
3210.00,0.0066
3209.00,0.0066
3208.00,0.0067
3207.00,0.0067
3206.00,0.0067
3205.00,0.0067
3204.00,0.0067
3203.00,0.0066
3202.00,0.0066
3201.00,0.0066
3200.00,0.0066
3199.00,0.0067
3198.00,0.0067
3197.00,0.0067
3196.00,0.0067
3195.00,0.0066
3194.00,0.0066
3193.00,0.0065
3192.00,0.0065
3191.00,0.0065
3190.00,0.0065
3189.00,0.0065
3188.00,0.0065
3187.00,0.0064
3186.00,0.0064
3185.00,0.0063
3184.00,0.0063
3183.00,0.0063
3182.00,0.0062
3181.00,0.0062
3180.00,0.0061
3179.00,0.0061
3178.00,0.0060
3177.00,0.0060
3176.00,0.0059
3175.00,0.0059
3174.00,0.0059
3173.00,0.0058
3172.00,0.0058
3171.00,0.0057
3170.00,0.0057
3169.00,0.0057
3168.00,0.0057
3167.00,0.0056
3166.00,0.0056
3165.00,0.0056
3164.00,0.0055
3163.00,0.0055
3162.00,0.0055
3161.00,0.0055
3160.00,0.0055
3159.00,0.0054
3158.00,0.0054
3157.00,0.0054
3156.00,0.0054
3155.00,0.0054
3154.00,0.0054
3153.00,0.0053
3152.00,0.0053
3151.00,0.0054
3150.00,0.0054
3149.00,0.0054
3148.00,0.0053
3147.00,0.0053
3146.00,0.0053
3145.00,0.0053
3144.00,0.0052
3143.00,0.0052
3142.00,0.0052
3141.00,0.0052
3140.00,0.0051
3139.00,0.0051
3138.00,0.0051
3137.00,0.0051
3136.00,0.0050
3135.00,0.0050
3134.00,0.0050
3133.00,0.0050
3132.00,0.0050
3131.00,0.0050
3130.00,0.0049
3129.00,0.0049
3128.00,0.0049
3127.00,0.0048
3126.00,0.0048
3125.00,0.0048
3124.00,0.0047
3123.00,0.0047
3122.00,0.0047
3121.00,0.0046
3120.00,0.0046
3119.00,0.0046
3118.00,0.0046
3117.00,0.0046
3116.00,0.0046
3115.00,0.0046
3114.00,0.0046
3113.00,0.0045
3112.00,0.0045
3111.00,0.0045
3110.00,0.0045
3109.00,0.0044
3108.00,0.0044
3107.00,0.0044
3106.00,0.0043
3105.00,0.0043
3104.00,0.0043
3103.00,0.0043
3102.00,0.0043
3101.00,0.0043
3100.00,0.0043
3099.00,0.0043
3098.00,0.0043
3097.00,0.0042
3096.00,0.0042
3095.00,0.0042
3094.00,0.0042
3093.00,0.0042
3092.00,0.0042
3091.00,0.0042
3090.00,0.0042
3089.00,0.0042
3088.00,0.0042
3087.00,0.0042
3086.00,0.0041
3085.00,0.0041
3084.00,0.0041
3083.00,0.0041
3082.00,0.0041
3081.00,0.0042
3080.00,0.0042
3079.00,0.0042
3078.00,0.0042
3077.00,0.0042
3076.00,0.0042
3075.00,0.0042
3074.00,0.0042
3073.00,0.0042
3072.00,0.0042
3071.00,0.0042
3070.00,0.0042
3069.00,0.0042
3068.00,0.0043
3067.00,0.0043
3066.00,0.0043
3065.00,0.0043
3064.00,0.0043
3063.00,0.0043
3062.00,0.0043
3061.00,0.0043
3060.00,0.0043
3059.00,0.0044
3058.00,0.0044
3057.00,0.0044
3056.00,0.0044
3055.00,0.0044
3054.00,0.0044
3053.00,0.0045
3052.00,0.0045
3051.00,0.0045
3050.00,0.0045
3049.00,0.0045
3048.00,0.0045
3047.00,0.0045
3046.00,0.0045
3045.00,0.0045
3044.00,0.0045
3043.00,0.0046
3042.00,0.0046
3041.00,0.0047
3040.00,0.0047
3039.00,0.0047
3038.00,0.0047
3037.00,0.0048
3036.00,0.0048
3035.00,0.0048
3034.00,0.0049
3033.00,0.0049
3032.00,0.0049
3031.00,0.0050
3030.00,0.0050
3029.00,0.0051
3028.00,0.0052
3027.00,0.0053
3026.00,0.0054
3025.00,0.0055
3024.00,0.0055
3023.00,0.0056
3022.00,0.0057
3021.00,0.0058
3020.00,0.0059
3019.00,0.0060
3018.00,0.0062
3017.00,0.0064
3016.00,0.0066
3015.00,0.0068
3014.00,0.0070
3013.00,0.0071
3012.00,0.0073
3011.00,0.0075
3010.00,0.0077
3009.00,0.0079
3008.00,0.0081
3007.00,0.0083
3006.00,0.0084
3005.00,0.0086
3004.00,0.0088
3003.00,0.0089
3002.00,0.0091
3001.00,0.0093
3000.00,0.0095
2999.00,0.0096
2998.00,0.0099
2997.00,0.0101
2996.00,0.0104
2995.00,0.0108
2994.00,0.0112
2993.00,0.0117
2992.00,0.0122
2991.00,0.0127
2990.00,0.0134
2989.00,0.0141
2988.00,0.0148
2987.00,0.0157
2986.00,0.0167
2985.00,0.0177
2984.00,0.0190
2983.00,0.0204
2982.00,0.0220
2981.00,0.0237
2980.00,0.0256
2979.00,0.0277
2978.00,0.0301
2977.00,0.0329
2976.00,0.0360
2975.00,0.0396
2974.00,0.0437
2973.00,0.0482
2972.00,0.0534
2971.00,0.0591
2970.00,0.0656
2969.00,0.0727
2968.00,0.0804
2967.00,0.0888
2966.00,0.0977
2965.00,0.1069
2964.00,0.1161
2963.00,0.1248
2962.00,0.1327
2961.00,0.1394
2960.00,0.1447
2959.00,0.1487
2958.00,0.1519
2957.00,0.1546
2956.00,0.1577
2955.00,0.1615
2954.00,0.1660
2953.00,0.1711
2952.00,0.1760
2951.00,0.1797
2950.00,0.1813
2949.00,0.1801
2948.00,0.1756
2947.00,0.1681
2946.00,0.1583
2945.00,0.1475
2944.00,0.1368
2943.00,0.1273
2942.00,0.1197
2941.00,0.1144
2940.00,0.1113
2939.00,0.1103
2938.00,0.1112
2937.00,0.1137
2936.00,0.1176
2935.00,0.1229
2934.00,0.1294
2933.00,0.1371
2932.00,0.1457
2931.00,0.1552
2930.00,0.1651
2929.00,0.1753
2928.00,0.1854
2927.00,0.1951
2926.00,0.2043
2925.00,0.2130
2924.00,0.2212
2923.00,0.2290
2922.00,0.2364
2921.00,0.2433
2920.00,0.2493
2919.00,0.2537
2918.00,0.2559
2917.00,0.2552
2916.00,0.2515
2915.00,0.2451
2914.00,0.2368
2913.00,0.2275
2912.00,0.2181
2911.00,0.2093
2910.00,0.2013
2909.00,0.1941
2908.00,0.1875
2907.00,0.1811
2906.00,0.1748
2905.00,0.1684
2904.00,0.1619
2903.00,0.1552
2902.00,0.1485
2901.00,0.1419
2900.00,0.1356
2899.00,0.1296
2898.00,0.1239
2897.00,0.1187
2896.00,0.1141
2895.00,0.1101
2894.00,0.1068
2893.00,0.1041
2892.00,0.1020
2891.00,0.1005
2890.00,0.0995
2889.00,0.0989
2888.00,0.0988
2887.00,0.0990
2886.00,0.0995
2885.00,0.1004
2884.00,0.1017
2883.00,0.1034
2882.00,0.1054
2881.00,0.1077
2880.00,0.1100
2879.00,0.1119
2878.00,0.1133
2877.00,0.1139
2876.00,0.1138
2875.00,0.1134
2874.00,0.1130
2873.00,0.1131
2872.00,0.1138
2871.00,0.1151
2870.00,0.1169
2869.00,0.1189
2868.00,0.1205
2867.00,0.1209
2866.00,0.1196
2865.00,0.1163
2864.00,0.1110
2863.00,0.1045
2862.00,0.0977
2861.00,0.0913
2860.00,0.0859
2859.00,0.0818
2858.00,0.0788
2857.00,0.0767
2856.00,0.0754
2855.00,0.0746
2854.00,0.0742
2853.00,0.0741
2852.00,0.0742
2851.00,0.0745
2850.00,0.0751
2849.00,0.0759
2848.00,0.0772
2847.00,0.0791
2846.00,0.0820
2845.00,0.0857
2844.00,0.0904
2843.00,0.0959
2842.00,0.1017
2841.00,0.1072
2840.00,0.1118
2839.00,0.1145
2838.00,0.1148
2837.00,0.1121
2836.00,0.1065
2835.00,0.0985
2834.00,0.0890
2833.00,0.0790
2832.00,0.0695
2831.00,0.0610
2830.00,0.0537
2829.00,0.0477
2828.00,0.0428
2827.00,0.0388
2826.00,0.0356
2825.00,0.0329
2824.00,0.0306
2823.00,0.0287
2822.00,0.0270
2821.00,0.0256
2820.00,0.0244
2819.00,0.0233
2818.00,0.0223
2817.00,0.0214
2816.00,0.0207
2815.00,0.0200
2814.00,0.0194
2813.00,0.0189
2812.00,0.0183
2811.00,0.0179
2810.00,0.0174
2809.00,0.0169
2808.00,0.0163
2807.00,0.0157
2806.00,0.0151
2805.00,0.0145
2804.00,0.0139
2803.00,0.0133
2802.00,0.0128
2801.00,0.0123
2800.00,0.0119
2799.00,0.0116
2798.00,0.0114
2797.00,0.0112
2796.00,0.0109
2795.00,0.0107
2794.00,0.0105
2793.00,0.0102
2792.00,0.0099
2791.00,0.0096
2790.00,0.0092
2789.00,0.0089
2788.00,0.0086
2787.00,0.0083
2786.00,0.0081
2785.00,0.0079
2784.00,0.0076
2783.00,0.0074
2782.00,0.0072
2781.00,0.0070
2780.00,0.0069
2779.00,0.0067
2778.00,0.0065
2777.00,0.0064
2776.00,0.0063
2775.00,0.0062
2774.00,0.0062
2773.00,0.0061
2772.00,0.0060
2771.00,0.0060
2770.00,0.0059
2769.00,0.0059
2768.00,0.0058
2767.00,0.0058
2766.00,0.0058
2765.00,0.0058
2764.00,0.0057
2763.00,0.0057
2762.00,0.0056
2761.00,0.0056
2760.00,0.0055
2759.00,0.0055
2758.00,0.0055
2757.00,0.0055
2756.00,0.0055
2755.00,0.0055
2754.00,0.0055
2753.00,0.0054
2752.00,0.0054
2751.00,0.0054
2750.00,0.0054
2749.00,0.0054
2748.00,0.0054
2747.00,0.0054
2746.00,0.0055
2745.00,0.0056
2744.00,0.0056
2743.00,0.0057
2742.00,0.0058
2741.00,0.0058
2740.00,0.0059
2739.00,0.0060
2738.00,0.0061
2737.00,0.0063
2736.00,0.0064
2735.00,0.0066
2734.00,0.0067
2733.00,0.0069
2732.00,0.0070
2731.00,0.0072
2730.00,0.0074
2729.00,0.0076
2728.00,0.0078
2727.00,0.0081
2726.00,0.0083
2725.00,0.0084
2724.00,0.0085
2723.00,0.0086
2722.00,0.0085
2721.00,0.0083
2720.00,0.0080
2719.00,0.0078
2718.00,0.0075
2717.00,0.0072
2716.00,0.0069
2715.00,0.0067
2714.00,0.0064
2713.00,0.0062
2712.00,0.0061
2711.00,0.0059
2710.00,0.0058
2709.00,0.0056
2708.00,0.0055
2707.00,0.0054
2706.00,0.0053
2705.00,0.0052
2704.00,0.0051
2703.00,0.0050
2702.00,0.0049
2701.00,0.0049
2700.00,0.0048
2699.00,0.0047
2698.00,0.0046
2697.00,0.0046
2696.00,0.0046
2695.00,0.0046
2694.00,0.0047
2693.00,0.0047
2692.00,0.0046
2691.00,0.0046
2690.00,0.0046
2689.00,0.0046
2688.00,0.0046
2687.00,0.0046
2686.00,0.0046
2685.00,0.0046
2684.00,0.0046
2683.00,0.0047
2682.00,0.0047
2681.00,0.0047
2680.00,0.0047
2679.00,0.0047
2678.00,0.0047
2677.00,0.0047
2676.00,0.0047
2675.00,0.0047
2674.00,0.0048
2673.00,0.0048
2672.00,0.0047
2671.00,0.0047
2670.00,0.0047
2669.00,0.0046
2668.00,0.0046
2667.00,0.0046
2666.00,0.0047
2665.00,0.0047
2664.00,0.0048
2663.00,0.0048
2662.00,0.0049
2661.00,0.0049
2660.00,0.0049
2659.00,0.0048
2658.00,0.0048
2657.00,0.0048
2656.00,0.0047
2655.00,0.0047
2654.00,0.0047
2653.00,0.0046
2652.00,0.0046
2651.00,0.0045
2650.00,0.0045
2649.00,0.0045
2648.00,0.0045
2647.00,0.0045
2646.00,0.0044
2645.00,0.0044
2644.00,0.0043
2643.00,0.0043
2642.00,0.0042
2641.00,0.0041
2640.00,0.0041
2639.00,0.0040
2638.00,0.0039
2637.00,0.0039
2636.00,0.0039
2635.00,0.0039
2634.00,0.0039
2633.00,0.0039
2632.00,0.0039
2631.00,0.0040
2630.00,0.0040
2629.00,0.0040
2628.00,0.0040
2627.00,0.0040
2626.00,0.0040
2625.00,0.0040
2624.00,0.0041
2623.00,0.0041
2622.00,0.0041
2621.00,0.0041
2620.00,0.0041
2619.00,0.0041
2618.00,0.0041
2617.00,0.0040
2616.00,0.0040
2615.00,0.0041
2614.00,0.0041
2613.00,0.0040
2612.00,0.0040
2611.00,0.0039
2610.00,0.0039
2609.00,0.0038
2608.00,0.0038
2607.00,0.0037
2606.00,0.0036
2605.00,0.0035
2604.00,0.0035
2603.00,0.0034
2602.00,0.0034
2601.00,0.0034
2600.00,0.0034
2599.00,0.0033
2598.00,0.0033
2597.00,0.0033
2596.00,0.0033
2595.00,0.0033
2594.00,0.0033
2593.00,0.0033
2592.00,0.0034
2591.00,0.0034
2590.00,0.0034
2589.00,0.0035
2588.00,0.0036
2587.00,0.0037
2586.00,0.0038
2585.00,0.0038
2584.00,0.0039
2583.00,0.0039
2582.00,0.0039
2581.00,0.0038
2580.00,0.0038
2579.00,0.0037
2578.00,0.0036
2577.00,0.0035
2576.00,0.0035
2575.00,0.0034
2574.00,0.0033
2573.00,0.0032
2572.00,0.0031
2571.00,0.0030
2570.00,0.0029
2569.00,0.0028
2568.00,0.0028
2567.00,0.0027
2566.00,0.0026
2565.00,0.0025
2564.00,0.0024
2563.00,0.0024
2562.00,0.0023
2561.00,0.0024
2560.00,0.0024
2559.00,0.0024
2558.00,0.0024
2557.00,0.0024
2556.00,0.0024
2555.00,0.0024
2554.00,0.0023
2553.00,0.0023
2552.00,0.0022
2551.00,0.0022
2550.00,0.0021
2549.00,0.0021
2548.00,0.0020
2547.00,0.0020
2546.00,0.0020
2545.00,0.0020
2544.00,0.0020
2543.00,0.0021
2542.00,0.0020
2541.00,0.0020
2540.00,0.0019
2539.00,0.0018
2538.00,0.0018
2537.00,0.0018
2536.00,0.0018
2535.00,0.0018
2534.00,0.0018
2533.00,0.0018
2532.00,0.0017
2531.00,0.0017
2530.00,0.0016
2529.00,0.0016
2528.00,0.0015
2527.00,0.0015
2526.00,0.0015
2525.00,0.0015
2524.00,0.0015
2523.00,0.0015
2522.00,0.0014
2521.00,0.0014
2520.00,0.0014
2519.00,0.0014
2518.00,0.0014
2517.00,0.0014
2516.00,0.0014
2515.00,0.0013
2514.00,0.0013
2513.00,0.0012
2512.00,0.0012
2511.00,0.0012
2510.00,0.0013
2509.00,0.0013
2508.00,0.0014
2507.00,0.0013
2506.00,0.0013
2505.00,0.0013
2504.00,0.0013
2503.00,0.0013
2502.00,0.0013
2501.00,0.0013
2500.00,0.0013
2499.00,0.0013
2498.00,0.0013
2497.00,0.0014
2496.00,0.0013
2495.00,0.0013
2494.00,0.0012
2493.00,0.0012
2492.00,0.0011
2491.00,0.0011
2490.00,0.0010
2489.00,0.0011
2488.00,0.0011
2487.00,0.0011
2486.00,0.0011
2485.00,0.0011
2484.00,0.0011
2483.00,0.0011
2482.00,0.0011
2481.00,0.0011
2480.00,0.0010
2479.00,0.0010
2478.00,0.0010
2477.00,0.0011
2476.00,0.0011
2475.00,0.0011
2474.00,0.0011
2473.00,0.0010
2472.00,0.0010
2471.00,0.0010
2470.00,0.0010
2469.00,0.0010
2468.00,0.0010
2467.00,0.0010
2466.00,0.0010
2465.00,0.0010
2464.00,0.0010
2463.00,0.0010
2462.00,0.0010
2461.00,0.0011
2460.00,0.0011
2459.00,0.0011
2458.00,0.0011
2457.00,0.0011
2456.00,0.0012
2455.00,0.0013
2454.00,0.0013
2453.00,0.0014
2452.00,0.0013
2451.00,0.0013
2450.00,0.0013
2449.00,0.0012
2448.00,0.0012
2447.00,0.0011
2446.00,0.0011
2445.00,0.0010
2444.00,0.0011
2443.00,0.0011
2442.00,0.0011
2441.00,0.0012
2440.00,0.0012
2439.00,0.0012
2438.00,0.0012
2437.00,0.0012
2436.00,0.0011
2435.00,0.0011
2434.00,0.0011
2433.00,0.0011
2432.00,0.0011
2431.00,0.0011
2430.00,0.0012
2429.00,0.0012
2428.00,0.0012
2427.00,0.0011
2426.00,0.0011
2425.00,0.0011
2424.00,0.0011
2423.00,0.0012
2422.00,0.0011
2421.00,0.0011
2420.00,0.0010
2419.00,0.0010
2418.00,0.0010
2417.00,0.0011
2416.00,0.0011
2415.00,0.0011
2414.00,0.0011
2413.00,0.0011
2412.00,0.0011
2411.00,0.0011
2410.00,0.0011
2409.00,0.0010
2408.00,0.0010
2407.00,0.0009
2406.00,0.0009
2405.00,0.0009
2404.00,0.0009
2403.00,0.0010
2402.00,0.0010
2401.00,0.0010
2400.00,0.0009
2399.00,0.0009
2398.00,0.0009
2397.00,0.0009
2396.00,0.0009
2395.00,0.0008
2394.00,0.0008
2393.00,0.0008
2392.00,0.0007
2391.00,0.0007
2390.00,0.0008
2389.00,0.0008
2388.00,0.0009
2387.00,0.0009
2386.00,0.0008
2385.00,0.0007
2384.00,0.0006
2383.00,0.0005
2382.00,0.0005
2381.00,0.0004
2380.00,0.0004
2379.00,0.0004
2378.00,0.0004
2377.00,0.0004
2376.00,0.0004
2375.00,0.0004
2374.00,0.0004
2373.00,0.0003
2372.00,0.0003
2371.00,0.0003
2370.00,0.0003
2369.00,0.0004
2368.00,0.0004
2367.00,0.0003
2366.00,0.0001
2365.00,-0.0000
2364.00,-0.0000
2363.00,0.0001
2362.00,0.0003
2361.00,0.0005
2360.00,0.0005
2359.00,0.0005
2358.00,0.0004
2357.00,0.0004
2356.00,0.0004
2355.00,0.0004
2354.00,0.0004
2353.00,0.0003
2352.00,0.0003
2351.00,0.0003
2350.00,0.0004
2349.00,0.0005
2348.00,0.0006
2347.00,0.0007
2346.00,0.0007
2345.00,0.0007
2344.00,0.0007
2343.00,0.0007
2342.00,0.0007
2341.00,0.0007
2340.00,0.0007
2339.00,0.0007
2338.00,0.0008
2337.00,0.0008
2336.00,0.0008
2335.00,0.0008
2334.00,0.0008
2333.00,0.0007
2332.00,0.0006
2331.00,0.0006
2330.00,0.0006
2329.00,0.0007
2328.00,0.0009
2327.00,0.0012
2326.00,0.0017
2325.00,0.0020
2324.00,0.0022
2323.00,0.0021
2322.00,0.0018
2321.00,0.0015
2320.00,0.0013
2319.00,0.0013
2318.00,0.0012
2317.00,0.0012
2316.00,0.0012
2315.00,0.0011
2314.00,0.0011
2313.00,0.0010
2312.00,0.0009
2311.00,0.0008
2310.00,0.0008
2309.00,0.0008
2308.00,0.0008
2307.00,0.0008
2306.00,0.0008
2305.00,0.0008
2304.00,0.0009
2303.00,0.0009
2302.00,0.0010
2301.00,0.0010
2300.00,0.0010
2299.00,0.0010
2298.00,0.0011
2297.00,0.0011
2296.00,0.0011
2295.00,0.0011
2294.00,0.0012
2293.00,0.0013
2292.00,0.0014
2291.00,0.0015
2290.00,0.0016
2289.00,0.0017
2288.00,0.0017
2287.00,0.0018
2286.00,0.0018
2285.00,0.0018
2284.00,0.0017
2283.00,0.0016
2282.00,0.0016
2281.00,0.0015
2280.00,0.0014
2279.00,0.0013
2278.00,0.0012
2277.00,0.0012
2276.00,0.0012
2275.00,0.0012
2274.00,0.0011
2273.00,0.0011
2272.00,0.0011
2271.00,0.0011
2270.00,0.0011
2269.00,0.0012
2268.00,0.0012
2267.00,0.0013
2266.00,0.0012
2265.00,0.0011
2264.00,0.0011
2263.00,0.0010
2262.00,0.0011
2261.00,0.0011
2260.00,0.0012
2259.00,0.0013
2258.00,0.0013
2257.00,0.0012
2256.00,0.0011
2255.00,0.0011
2254.00,0.0010
2253.00,0.0010
2252.00,0.0011
2251.00,0.0011
2250.00,0.0011
2249.00,0.0012
2248.00,0.0011
2247.00,0.0011
2246.00,0.0009
2245.00,0.0008
2244.00,0.0007
2243.00,0.0006
2242.00,0.0007
2241.00,0.0007
2240.00,0.0007
2239.00,0.0007
2238.00,0.0006
2237.00,0.0006
2236.00,0.0007
2235.00,0.0009
2234.00,0.0010
2233.00,0.0010
2232.00,0.0009
2231.00,0.0008
2230.00,0.0008
2229.00,0.0008
2228.00,0.0007
2227.00,0.0005
2226.00,0.0002
2225.00,0.0001
2224.00,0.0002
2223.00,0.0003
2222.00,0.0004
2221.00,0.0004
2220.00,0.0005
2219.00,0.0006
2218.00,0.0007
2217.00,0.0007
2216.00,0.0007
2215.00,0.0007
2214.00,0.0007
2213.00,0.0006
2212.00,0.0006
2211.00,0.0006
2210.00,0.0006
2209.00,0.0007
2208.00,0.0007
2207.00,0.0009
2206.00,0.0010
2205.00,0.0012
2204.00,0.0012
2203.00,0.0010
2202.00,0.0009
2201.00,0.0008
2200.00,0.0008
2199.00,0.0008
2198.00,0.0007
2197.00,0.0006
2196.00,0.0005
2195.00,0.0005
2194.00,0.0006
2193.00,0.0007
2192.00,0.0008
2191.00,0.0009
2190.00,0.0009
2189.00,0.0010
2188.00,0.0011
2187.00,0.0013
2186.00,0.0014
2185.00,0.0016
2184.00,0.0016
2183.00,0.0014
2182.00,0.0010
2181.00,0.0006
2180.00,0.0004
2179.00,0.0003
2178.00,0.0003
2177.00,0.0002
2176.00,0.0002
2175.00,0.0002
2174.00,0.0002
2173.00,0.0003
2172.00,0.0003
2171.00,0.0004
2170.00,0.0005
2169.00,0.0008
2168.00,0.0011
2167.00,0.0014
2166.00,0.0017
2165.00,0.0019
2164.00,0.0021
2163.00,0.0022
2162.00,0.0022
2161.00,0.0017
2160.00,0.0005
2159.00,-0.0011
2158.00,-0.0025
2157.00,-0.0032
2156.00,-0.0033
2155.00,-0.0032
2154.00,-0.0030
2153.00,-0.0026
2152.00,-0.0022
2151.00,-0.0017
2150.00,-0.0013
2149.00,-0.0010
2148.00,-0.0010
2147.00,-0.0011
2146.00,-0.0012
2145.00,-0.0011
2144.00,-0.0010
2143.00,-0.0010
2142.00,-0.0011
2141.00,-0.0011
2140.00,-0.0011
2139.00,-0.0012
2138.00,-0.0012
2137.00,-0.0013
2136.00,-0.0016
2135.00,-0.0018
2134.00,-0.0020
2133.00,-0.0019
2132.00,-0.0018
2131.00,-0.0017
2130.00,-0.0016
2129.00,-0.0014
2128.00,-0.0012
2127.00,-0.0010
2126.00,-0.0007
2125.00,-0.0004
2124.00,-0.0003
2123.00,-0.0002
2122.00,-0.0003
2121.00,-0.0003
2120.00,-0.0003
2119.00,-0.0002
2118.00,-0.0001
2117.00,-0.0001
2116.00,-0.0000
2115.00,-0.0000
2114.00,0.0000
2113.00,0.0001
2112.00,0.0001
2111.00,0.0002
2110.00,0.0002
2109.00,0.0003
2108.00,0.0004
2107.00,0.0004
2106.00,0.0004
2105.00,0.0003
2104.00,0.0002
2103.00,0.0002
2102.00,0.0001
2101.00,0.0002
2100.00,0.0002
2099.00,0.0002
2098.00,0.0001
2097.00,-0.0000
2096.00,-0.0001
2095.00,-0.0002
2094.00,-0.0003
2093.00,-0.0004
2092.00,-0.0004
2091.00,-0.0004
2090.00,-0.0003
2089.00,-0.0002
2088.00,-0.0000
2087.00,0.0002
2086.00,0.0004
2085.00,0.0005
2084.00,0.0006
2083.00,0.0006
2082.00,0.0005
2081.00,0.0005
2080.00,0.0005
2079.00,0.0005
2078.00,0.0005
2077.00,0.0005
2076.00,0.0006
2075.00,0.0006
2074.00,0.0005
2073.00,0.0005
2072.00,0.0005
2071.00,0.0005
2070.00,0.0004
2069.00,0.0002
2068.00,0.0000
2067.00,-0.0001
2066.00,-0.0003
2065.00,-0.0003
2064.00,-0.0003
2063.00,-0.0001
2062.00,-0.0001
2061.00,-0.0002
2060.00,-0.0004
2059.00,-0.0005
2058.00,-0.0005
2057.00,-0.0003
2056.00,-0.0001
2055.00,0.0001
2054.00,0.0004
2053.00,0.0009
2052.00,0.0015
2051.00,0.0017
2050.00,0.0015
2049.00,0.0011
2048.00,0.0007
2047.00,0.0004
2046.00,0.0001
2045.00,-0.0002
2044.00,-0.0002
2043.00,0.0000
2042.00,0.0004
2041.00,0.0008
2040.00,0.0009
2039.00,0.0008
2038.00,0.0005
2037.00,0.0002
2036.00,-0.0000
2035.00,-0.0002
2034.00,-0.0003
2033.00,-0.0003
2032.00,-0.0004
2031.00,-0.0005
2030.00,-0.0007
2029.00,-0.0008
2028.00,-0.0009
2027.00,-0.0010
2026.00,-0.0012
2025.00,-0.0014
2024.00,-0.0013
2023.00,-0.0012
2022.00,-0.0010
2021.00,-0.0008
2020.00,-0.0007
2019.00,-0.0006
2018.00,-0.0006
2017.00,-0.0006
2016.00,-0.0006
2015.00,-0.0005
2014.00,-0.0005
2013.00,-0.0004
2012.00,-0.0003
2011.00,-0.0003
2010.00,-0.0005
2009.00,-0.0009
2008.00,-0.0013
2007.00,-0.0016
2006.00,-0.0017
2005.00,-0.0015
2004.00,-0.0013
2003.00,-0.0013
2002.00,-0.0013
2001.00,-0.0014
2000.00,-0.0014
1999.00,-0.0012
1998.00,-0.0011
1997.00,-0.0010
1996.00,-0.0010
1995.00,-0.0012
1994.00,-0.0014
1993.00,-0.0015
1992.00,-0.0013
1991.00,-0.0010
1990.00,-0.0007
1989.00,-0.0005
1988.00,-0.0003
1987.00,-0.0002
1986.00,-0.0002
1985.00,-0.0001
1984.00,0.0001
1983.00,0.0005
1982.00,0.0010
1981.00,0.0015
1980.00,0.0016
1979.00,0.0011
1978.00,0.0003
1977.00,-0.0004
1976.00,-0.0009
1975.00,-0.0011
1974.00,-0.0013
1973.00,-0.0015
1972.00,-0.0016
1971.00,-0.0017
1970.00,-0.0018
1969.00,-0.0016
1968.00,-0.0013
1967.00,-0.0010
1966.00,-0.0009
1965.00,-0.0009
1964.00,-0.0009
1963.00,-0.0010
1962.00,-0.0011
1961.00,-0.0011
1960.00,-0.0013
1959.00,-0.0015
1958.00,-0.0018
1957.00,-0.0019
1956.00,-0.0019
1955.00,-0.0018
1954.00,-0.0016
1953.00,-0.0015
1952.00,-0.0015
1951.00,-0.0016
1950.00,-0.0018
1949.00,-0.0018
1948.00,-0.0017
1947.00,-0.0016
1946.00,-0.0014
1945.00,-0.0014
1944.00,-0.0014
1943.00,-0.0016
1942.00,-0.0016
1941.00,-0.0015
1940.00,-0.0013
1939.00,-0.0012
1938.00,-0.0012
1937.00,-0.0012
1936.00,-0.0012
1935.00,-0.0011
1934.00,-0.0011
1933.00,-0.0011
1932.00,-0.0010
1931.00,-0.0010
1930.00,-0.0009
1929.00,-0.0008
1928.00,-0.0007
1927.00,-0.0006
1926.00,-0.0004
1925.00,-0.0003
1924.00,-0.0001
1923.00,0.0000
1922.00,0.0000
1921.00,0.0000
1920.00,-0.0000
1919.00,-0.0001
1918.00,-0.0002
1917.00,-0.0002
1916.00,-0.0001
1915.00,-0.0001
1914.00,-0.0001
1913.00,-0.0002
1912.00,-0.0001
1911.00,-0.0000
1910.00,0.0001
1909.00,0.0001
1908.00,0.0002
1907.00,0.0002
1906.00,0.0002
1905.00,0.0002
1904.00,0.0002
1903.00,0.0001
1902.00,-0.0001
1901.00,-0.0002
1900.00,-0.0002
1899.00,-0.0002
1898.00,-0.0001
1897.00,-0.0001
1896.00,-0.0000
1895.00,0.0000
1894.00,0.0001
1893.00,0.0001
1892.00,0.0001
1891.00,-0.0001
1890.00,-0.0002
1889.00,-0.0002
1888.00,-0.0001
1887.00,-0.0001
1886.00,-0.0001
1885.00,-0.0000
1884.00,-0.0000
1883.00,-0.0001
1882.00,-0.0001
1881.00,-0.0001
1880.00,-0.0001
1879.00,-0.0000
1878.00,0.0000
1877.00,0.0001
1876.00,0.0001
1875.00,0.0002
1874.00,0.0002
1873.00,0.0001
1872.00,0.0001
1871.00,0.0000
1870.00,-0.0000
1869.00,0.0000
1868.00,0.0001
1867.00,0.0002
1866.00,0.0002
1865.00,0.0002
1864.00,0.0001
1863.00,0.0000
1862.00,0.0000
1861.00,0.0001
1860.00,0.0001
1859.00,0.0002
1858.00,0.0003
1857.00,0.0003
1856.00,0.0004
1855.00,0.0004
1854.00,0.0004
1853.00,0.0004
1852.00,0.0004
1851.00,0.0004
1850.00,0.0004
1849.00,0.0004
1848.00,0.0003
1847.00,0.0003
1846.00,0.0003
1845.00,0.0003
1844.00,0.0003
1843.00,0.0004
1842.00,0.0004
1841.00,0.0004
1840.00,0.0003
1839.00,0.0003
1838.00,0.0003
1837.00,0.0003
1836.00,0.0003
1835.00,0.0004
1834.00,0.0004
1833.00,0.0004
1832.00,0.0004
1831.00,0.0004
1830.00,0.0005
1829.00,0.0005
1828.00,0.0006
1827.00,0.0006
1826.00,0.0005
1825.00,0.0005
1824.00,0.0005
1823.00,0.0005
1822.00,0.0005
1821.00,0.0005
1820.00,0.0005
1819.00,0.0004
1818.00,0.0004
1817.00,0.0004
1816.00,0.0004
1815.00,0.0005
1814.00,0.0006
1813.00,0.0006
1812.00,0.0007
1811.00,0.0007
1810.00,0.0007
1809.00,0.0007
1808.00,0.0007
1807.00,0.0007
1806.00,0.0007
1805.00,0.0007
1804.00,0.0008
1803.00,0.0008
1802.00,0.0009
1801.00,0.0009
1800.00,0.0010
1799.00,0.0010
1798.00,0.0010
1797.00,0.0010
1796.00,0.0011
1795.00,0.0012
1794.00,0.0012
1793.00,0.0013
1792.00,0.0014
1791.00,0.0014
1790.00,0.0014
1789.00,0.0014
1788.00,0.0014
1787.00,0.0015
1786.00,0.0015
1785.00,0.0015
1784.00,0.0015
1783.00,0.0015
1782.00,0.0015
1781.00,0.0016
1780.00,0.0016
1779.00,0.0017
1778.00,0.0017
1777.00,0.0017
1776.00,0.0018
1775.00,0.0019
1774.00,0.0020
1773.00,0.0021
1772.00,0.0023
1771.00,0.0025
1770.00,0.0027
1769.00,0.0029
1768.00,0.0031
1767.00,0.0033
1766.00,0.0035
1765.00,0.0038
1764.00,0.0042
1763.00,0.0047
1762.00,0.0053
1761.00,0.0060
1760.00,0.0068
1759.00,0.0076
1758.00,0.0086
1757.00,0.0099
1756.00,0.0113
1755.00,0.0126
1754.00,0.0138
1753.00,0.0150
1752.00,0.0164
1751.00,0.0180
1750.00,0.0194
1749.00,0.0206
1748.00,0.0213
1747.00,0.0218
1746.00,0.0220
1745.00,0.0220
1744.00,0.0217
1743.00,0.0214
1742.00,0.0209
1741.00,0.0203
1740.00,0.0196
1739.00,0.0188
1738.00,0.0181
1737.00,0.0174
1736.00,0.0166
1735.00,0.0155
1734.00,0.0142
1733.00,0.0131
1732.00,0.0123
1731.00,0.0116
1730.00,0.0108
1729.00,0.0101
1728.00,0.0094
1727.00,0.0088
1726.00,0.0082
1725.00,0.0076
1724.00,0.0071
1723.00,0.0067
1722.00,0.0064
1721.00,0.0062
1720.00,0.0061
1719.00,0.0059
1718.00,0.0056
1717.00,0.0054
1716.00,0.0052
1715.00,0.0050
1714.00,0.0049
1713.00,0.0047
1712.00,0.0047
1711.00,0.0046
1710.00,0.0047
1709.00,0.0048
1708.00,0.0048
1707.00,0.0048
1706.00,0.0048
1705.00,0.0049
1704.00,0.0050
1703.00,0.0051
1702.00,0.0052
1701.00,0.0052
1700.00,0.0052
1699.00,0.0053
1698.00,0.0053
1697.00,0.0054
1696.00,0.0054
1695.00,0.0056
1694.00,0.0057
1693.00,0.0058
1692.00,0.0059
1691.00,0.0060
1690.00,0.0062
1689.00,0.0063
1688.00,0.0065
1687.00,0.0066
1686.00,0.0066
1685.00,0.0067
1684.00,0.0069
1683.00,0.0071
1682.00,0.0073
1681.00,0.0074
1680.00,0.0075
1679.00,0.0076
1678.00,0.0077
1677.00,0.0079
1676.00,0.0081
1675.00,0.0082
1674.00,0.0084
1673.00,0.0086
1672.00,0.0087
1671.00,0.0088
1670.00,0.0089
1669.00,0.0091
1668.00,0.0092
1667.00,0.0093
1666.00,0.0094
1665.00,0.0094
1664.00,0.0095
1663.00,0.0097
1662.00,0.0099
1661.00,0.0100
1660.00,0.0101
1659.00,0.0102
1658.00,0.0102
1657.00,0.0103
1656.00,0.0104
1655.00,0.0105
1654.00,0.0106
1653.00,0.0110
1652.00,0.0113
1651.00,0.0113
1650.00,0.0114
1649.00,0.0114
1648.00,0.0115
1647.00,0.0116
1646.00,0.0117
1645.00,0.0117
1644.00,0.0116
1643.00,0.0115
1642.00,0.0114
1641.00,0.0113
1640.00,0.0112
1639.00,0.0112
1638.00,0.0111
1637.00,0.0111
1636.00,0.0111
1635.00,0.0111
1634.00,0.0111
1633.00,0.0110
1632.00,0.0110
1631.00,0.0109
1630.00,0.0108
1629.00,0.0107
1628.00,0.0106
1627.00,0.0104
1626.00,0.0103
1625.00,0.0101
1624.00,0.0100
1623.00,0.0098
1622.00,0.0097
1621.00,0.0096
1620.00,0.0095
1619.00,0.0094
1618.00,0.0093
1617.00,0.0091
1616.00,0.0091
1615.00,0.0090
1614.00,0.0090
1613.00,0.0089
1612.00,0.0089
1611.00,0.0088
1610.00,0.0088
1609.00,0.0088
1608.00,0.0088
1607.00,0.0088
1606.00,0.0089
1605.00,0.0089
1604.00,0.0089
1603.00,0.0089
1602.00,0.0088
1601.00,0.0087
1600.00,0.0087
1599.00,0.0087
1598.00,0.0087
1597.00,0.0087
1596.00,0.0086
1595.00,0.0086
1594.00,0.0085
1593.00,0.0085
1592.00,0.0085
1591.00,0.0086
1590.00,0.0086
1589.00,0.0087
1588.00,0.0089
1587.00,0.0090
1586.00,0.0092
1585.00,0.0094
1584.00,0.0096
1583.00,0.0099
1582.00,0.0101
1581.00,0.0103
1580.00,0.0105
1579.00,0.0106
1578.00,0.0106
1577.00,0.0106
1576.00,0.0105
1575.00,0.0104
1574.00,0.0103
1573.00,0.0102
1572.00,0.0100
1571.00,0.0098
1570.00,0.0096
1569.00,0.0095
1568.00,0.0095
1567.00,0.0094
1566.00,0.0093
1565.00,0.0093
1564.00,0.0092
1563.00,0.0092
1562.00,0.0092
1561.00,0.0093
1560.00,0.0093
1559.00,0.0094
1558.00,0.0095
1557.00,0.0097
1556.00,0.0097
1555.00,0.0098
1554.00,0.0099
1553.00,0.0100
1552.00,0.0103
1551.00,0.0105
1550.00,0.0107
1549.00,0.0109
1548.00,0.0111
1547.00,0.0114
1546.00,0.0117
1545.00,0.0121
1544.00,0.0126
1543.00,0.0128
1542.00,0.0130
1541.00,0.0130
1540.00,0.0129
1539.00,0.0128
1538.00,0.0126
1537.00,0.0124
1536.00,0.0121
1535.00,0.0118
1534.00,0.0114
1533.00,0.0111
1532.00,0.0108
1531.00,0.0104
1530.00,0.0101
1529.00,0.0098
1528.00,0.0096
1527.00,0.0094
1526.00,0.0092
1525.00,0.0091
1524.00,0.0091
1523.00,0.0090
1522.00,0.0089
1521.00,0.0089
1520.00,0.0089
1519.00,0.0088
1518.00,0.0087
1517.00,0.0087
1516.00,0.0087
1515.00,0.0086
1514.00,0.0086
1513.00,0.0086
1512.00,0.0086
1511.00,0.0087
1510.00,0.0087
1509.00,0.0087
1508.00,0.0088
1507.00,0.0088
1506.00,0.0088
1505.00,0.0089
1504.00,0.0090
1503.00,0.0090
1502.00,0.0091
1501.00,0.0093
1500.00,0.0096
1499.00,0.0099
1498.00,0.0102
1497.00,0.0107
1496.00,0.0112
1495.00,0.0115
1494.00,0.0117
1493.00,0.0119
1492.00,0.0122
1491.00,0.0124
1490.00,0.0127
1489.00,0.0131
1488.00,0.0136
1487.00,0.0140
1486.00,0.0144
1485.00,0.0150
1484.00,0.0156
1483.00,0.0164
1482.00,0.0173
1481.00,0.0184
1480.00,0.0196
1479.00,0.0209
1478.00,0.0224
1477.00,0.0244
1476.00,0.0268
1475.00,0.0296
1474.00,0.0332
1473.00,0.0386
1472.00,0.0452
1471.00,0.0516
1470.00,0.0577
1469.00,0.0639
1468.00,0.0706
1467.00,0.0778
1466.00,0.0861
1465.00,0.0951
1464.00,0.1031
1463.00,0.1089
1462.00,0.1129
1461.00,0.1159
1460.00,0.1182
1459.00,0.1199
1458.00,0.1215
1457.00,0.1229
1456.00,0.1235
1455.00,0.1234
1454.00,0.1228
1453.00,0.1216
1452.00,0.1195
1451.00,0.1162
1450.00,0.1113
1449.00,0.1044
1448.00,0.0954
1447.00,0.0857
1446.00,0.0770
1445.00,0.0694
1444.00,0.0630
1443.00,0.0577
1442.00,0.0537
1441.00,0.0510
1440.00,0.0493
1439.00,0.0486
1438.00,0.0486
1437.00,0.0486
1436.00,0.0474
1435.00,0.0448
1434.00,0.0411
1433.00,0.0367
1432.00,0.0321
1431.00,0.0281
1430.00,0.0250
1429.00,0.0227
1428.00,0.0211
1427.00,0.0202
1426.00,0.0196
1425.00,0.0191
1424.00,0.0186
1423.00,0.0184
1422.00,0.0183
1421.00,0.0183
1420.00,0.0181
1419.00,0.0180
1418.00,0.0178
1417.00,0.0175
1416.00,0.0171
1415.00,0.0167
1414.00,0.0165
1413.00,0.0162
1412.00,0.0159
1411.00,0.0157
1410.00,0.0156
1409.00,0.0154
1408.00,0.0153
1407.00,0.0152
1406.00,0.0153
1405.00,0.0153
1404.00,0.0152
1403.00,0.0152
1402.00,0.0153
1401.00,0.0154
1400.00,0.0155
1399.00,0.0157
1398.00,0.0159
1397.00,0.0160
1396.00,0.0162
1395.00,0.0166
1394.00,0.0171
1393.00,0.0176
1392.00,0.0182
1391.00,0.0190
1390.00,0.0201
1389.00,0.0218
1388.00,0.0243
1387.00,0.0280
1386.00,0.0329
1385.00,0.0389
1384.00,0.0467
1383.00,0.0571
1382.00,0.0707
1381.00,0.0879
1380.00,0.1093
1379.00,0.1341
1378.00,0.1587
1377.00,0.1779
1376.00,0.1861
1375.00,0.1795
1374.00,0.1596
1373.00,0.1339
1372.00,0.1096
1371.00,0.0891
1370.00,0.0725
1369.00,0.0597
1368.00,0.0508
1367.00,0.0453
1366.00,0.0423
1365.00,0.0411
1364.00,0.0412
1363.00,0.0425
1362.00,0.0445
1361.00,0.0467
1360.00,0.0484
1359.00,0.0488
1358.00,0.0478
1357.00,0.0452
1356.00,0.0415
1355.00,0.0373
1354.00,0.0332
1353.00,0.0298
1352.00,0.0270
1351.00,0.0248
1350.00,0.0230
1349.00,0.0215
1348.00,0.0203
1347.00,0.0193
1346.00,0.0185
1345.00,0.0178
1344.00,0.0174
1343.00,0.0170
1342.00,0.0167
1341.00,0.0164
1340.00,0.0162
1339.00,0.0160
1338.00,0.0158
1337.00,0.0157
1336.00,0.0156
1335.00,0.0157
1334.00,0.0159
1333.00,0.0163
1332.00,0.0167
1331.00,0.0171
1330.00,0.0172
1329.00,0.0171
1328.00,0.0168
1327.00,0.0163
1326.00,0.0157
1325.00,0.0151
1324.00,0.0146
1323.00,0.0141
1322.00,0.0138
1321.00,0.0135
1320.00,0.0132
1319.00,0.0130
1318.00,0.0128
1317.00,0.0126
1316.00,0.0125
1315.00,0.0124
1314.00,0.0125
1313.00,0.0125
1312.00,0.0127
1311.00,0.0130
1310.00,0.0134
1309.00,0.0141
1308.00,0.0151
1307.00,0.0162
1306.00,0.0174
1305.00,0.0182
1304.00,0.0185
1303.00,0.0183
1302.00,0.0178
1301.00,0.0173
1300.00,0.0170
1299.00,0.0168
1298.00,0.0168
1297.00,0.0168
1296.00,0.0167
1295.00,0.0164
1294.00,0.0160
1293.00,0.0156
1292.00,0.0151
1291.00,0.0146
1290.00,0.0142
1289.00,0.0139
1288.00,0.0136
1287.00,0.0134
1286.00,0.0132
1285.00,0.0130
1284.00,0.0129
1283.00,0.0128
1282.00,0.0127
1281.00,0.0127
1280.00,0.0127
1279.00,0.0127
1278.00,0.0127
1277.00,0.0127
1276.00,0.0127
1275.00,0.0127
1274.00,0.0128
1273.00,0.0128
1272.00,0.0129
1271.00,0.0130
1270.00,0.0131
1269.00,0.0133
1268.00,0.0135
1267.00,0.0137
1266.00,0.0139
1265.00,0.0142
1264.00,0.0145
1263.00,0.0149
1262.00,0.0153
1261.00,0.0158
1260.00,0.0164
1259.00,0.0173
1258.00,0.0181
1257.00,0.0188
1256.00,0.0191
1255.00,0.0190
1254.00,0.0185
1253.00,0.0177
1252.00,0.0169
1251.00,0.0163
1250.00,0.0158
1249.00,0.0155
1248.00,0.0154
1247.00,0.0153
1246.00,0.0152
1245.00,0.0151
1244.00,0.0150
1243.00,0.0149
1242.00,0.0149
1241.00,0.0148
1240.00,0.0147
1239.00,0.0146
1238.00,0.0145
1237.00,0.0145
1236.00,0.0145
1235.00,0.0145
1234.00,0.0145
1233.00,0.0145
1232.00,0.0145
1231.00,0.0145
1230.00,0.0145
1229.00,0.0145
1228.00,0.0145
1227.00,0.0146
1226.00,0.0148
1225.00,0.0150
1224.00,0.0153
1223.00,0.0156
1222.00,0.0159
1221.00,0.0161
1220.00,0.0162
1219.00,0.0163
1218.00,0.0162
1217.00,0.0161
1216.00,0.0158
1215.00,0.0155
1214.00,0.0152
1213.00,0.0149
1212.00,0.0147
1211.00,0.0145
1210.00,0.0143
1209.00,0.0141
1208.00,0.0140
1207.00,0.0139
1206.00,0.0138
1205.00,0.0138
1204.00,0.0139
1203.00,0.0140
1202.00,0.0141
1201.00,0.0142
1200.00,0.0142
1199.00,0.0143
1198.00,0.0144
1197.00,0.0144
1196.00,0.0145
1195.00,0.0147
1194.00,0.0149
1193.00,0.0150
1192.00,0.0151
1191.00,0.0151
1190.00,0.0153
1189.00,0.0155
1188.00,0.0157
1187.00,0.0159
1186.00,0.0162
1185.00,0.0164
1184.00,0.0167
1183.00,0.0171
1182.00,0.0176
1181.00,0.0181
1180.00,0.0186
1179.00,0.0193
1178.00,0.0200
1177.00,0.0210
1176.00,0.0223
1175.00,0.0240
1174.00,0.0262
1173.00,0.0289
1172.00,0.0321
1171.00,0.0356
1170.00,0.0391
1169.00,0.0420
1168.00,0.0438
1167.00,0.0444
1166.00,0.0438
1165.00,0.0424
1164.00,0.0405
1163.00,0.0384
1162.00,0.0365
1161.00,0.0349
1160.00,0.0336
1159.00,0.0325
1158.00,0.0317
1157.00,0.0310
1156.00,0.0305
1155.00,0.0301
1154.00,0.0297
1153.00,0.0292
1152.00,0.0287
1151.00,0.0280
1150.00,0.0270
1149.00,0.0260
1148.00,0.0249
1147.00,0.0238
1146.00,0.0228
1145.00,0.0218
1144.00,0.0208
1143.00,0.0199
1142.00,0.0190
1141.00,0.0182
1140.00,0.0175
1139.00,0.0168
1138.00,0.0162
1137.00,0.0156
1136.00,0.0150
1135.00,0.0146
1134.00,0.0142
1133.00,0.0139
1132.00,0.0137
1131.00,0.0136
1130.00,0.0137
1129.00,0.0138
1128.00,0.0140
1127.00,0.0141
1126.00,0.0143
1125.00,0.0144
1124.00,0.0146
1123.00,0.0149
1122.00,0.0151
1121.00,0.0152
1120.00,0.0153
1119.00,0.0155
1118.00,0.0157
1117.00,0.0159
1116.00,0.0161
1115.00,0.0163
1114.00,0.0164
1113.00,0.0165
1112.00,0.0167
1111.00,0.0169
1110.00,0.0172
1109.00,0.0175
1108.00,0.0180
1107.00,0.0185
1106.00,0.0192
1105.00,0.0199
1104.00,0.0205
1103.00,0.0209
1102.00,0.0210
1101.00,0.0207
1100.00,0.0203
1099.00,0.0196
1098.00,0.0190
1097.00,0.0184
1096.00,0.0178
1095.00,0.0173
1094.00,0.0168
1093.00,0.0164
1092.00,0.0160
1091.00,0.0158
1090.00,0.0156
1089.00,0.0154
1088.00,0.0152
1087.00,0.0150
1086.00,0.0148
1085.00,0.0147
1084.00,0.0146
1083.00,0.0145
1082.00,0.0144
1081.00,0.0143
1080.00,0.0141
1079.00,0.0139
1078.00,0.0137
1077.00,0.0134
1076.00,0.0133
1075.00,0.0133
1074.00,0.0132
1073.00,0.0132
1072.00,0.0132
1071.00,0.0131
1070.00,0.0130
1069.00,0.0130
1068.00,0.0129
1067.00,0.0129
1066.00,0.0129
1065.00,0.0128
1064.00,0.0127
1063.00,0.0127
1062.00,0.0127
1061.00,0.0127
1060.00,0.0126
1059.00,0.0126
1058.00,0.0125
1057.00,0.0126
1056.00,0.0127
1055.00,0.0128
1054.00,0.0128
1053.00,0.0129
1052.00,0.0129
1051.00,0.0131
1050.00,0.0133
1049.00,0.0137
1048.00,0.0140
1047.00,0.0142
1046.00,0.0144
1045.00,0.0145
1044.00,0.0144
1043.00,0.0143
1042.00,0.0140
1041.00,0.0138
1040.00,0.0137
1039.00,0.0136
1038.00,0.0136
1037.00,0.0137
1036.00,0.0137
1035.00,0.0137
1034.00,0.0135
1033.00,0.0133
1032.00,0.0131
1031.00,0.0131
1030.00,0.0131
1029.00,0.0132
1028.00,0.0131
1027.00,0.0130
1026.00,0.0128
1025.00,0.0127
1024.00,0.0127
1023.00,0.0127
1022.00,0.0128
1021.00,0.0129
1020.00,0.0129
1019.00,0.0129
1018.00,0.0130
1017.00,0.0132
1016.00,0.0134
1015.00,0.0138
1014.00,0.0142
1013.00,0.0146
1012.00,0.0150
1011.00,0.0154
1010.00,0.0157
1009.00,0.0160
1008.00,0.0164
1007.00,0.0170
1006.00,0.0179
1005.00,0.0190
1004.00,0.0206
1003.00,0.0228
1002.00,0.0258
1001.00,0.0296
1000.00,0.0336
999.00,0.0370
998.00,0.0386
997.00,0.0380
996.00,0.0352
995.00,0.0312
994.00,0.0268
993.00,0.0229
992.00,0.0198
991.00,0.0176
990.00,0.0162
989.00,0.0152
988.00,0.0145
987.00,0.0140
986.00,0.0138
985.00,0.0138
984.00,0.0142
983.00,0.0150
982.00,0.0162
981.00,0.0178
980.00,0.0200
979.00,0.0228
978.00,0.0263
977.00,0.0306
976.00,0.0353
975.00,0.0400
974.00,0.0436
973.00,0.0452
972.00,0.0442
971.00,0.0407
970.00,0.0356
969.00,0.0301
968.00,0.0251
967.00,0.0213
966.00,0.0184
965.00,0.0164
964.00,0.0150
963.00,0.0139
962.00,0.0131
961.00,0.0125
960.00,0.0120
959.00,0.0115
958.00,0.0111
957.00,0.0107
956.00,0.0103
955.00,0.0100
954.00,0.0098
953.00,0.0098
952.00,0.0098
951.00,0.0097
950.00,0.0096
949.00,0.0095
948.00,0.0095
947.00,0.0096
946.00,0.0097
945.00,0.0099
944.00,0.0101
943.00,0.0105
942.00,0.0108
941.00,0.0110
940.00,0.0109
939.00,0.0106
938.00,0.0102
937.00,0.0096
936.00,0.0091
935.00,0.0087
934.00,0.0085
933.00,0.0083
932.00,0.0081
931.00,0.0080
930.00,0.0078
929.00,0.0077
928.00,0.0076
927.00,0.0076
926.00,0.0076
925.00,0.0076
924.00,0.0076
923.00,0.0077
922.00,0.0077
921.00,0.0078
920.00,0.0078
919.00,0.0079
918.00,0.0080
917.00,0.0081
916.00,0.0082
915.00,0.0083
914.00,0.0085
913.00,0.0086
912.00,0.0087
911.00,0.0087
910.00,0.0088
909.00,0.0090
908.00,0.0092
907.00,0.0096
906.00,0.0102
905.00,0.0112
904.00,0.0125
903.00,0.0143
902.00,0.0163
901.00,0.0182
900.00,0.0195
899.00,0.0198
898.00,0.0191
897.00,0.0177
896.00,0.0159
895.00,0.0141
894.00,0.0125
893.00,0.0112
892.00,0.0103
891.00,0.0097
890.00,0.0093
889.00,0.0090
888.00,0.0089
887.00,0.0087
886.00,0.0087
885.00,0.0087
884.00,0.0087
883.00,0.0087
882.00,0.0087
881.00,0.0087
880.00,0.0087
879.00,0.0088
878.00,0.0088
877.00,0.0087
876.00,0.0087
875.00,0.0088
874.00,0.0089
873.00,0.0089
872.00,0.0088
871.00,0.0087
870.00,0.0087
869.00,0.0087
868.00,0.0088
867.00,0.0089
866.00,0.0090
865.00,0.0090
864.00,0.0090
863.00,0.0090
862.00,0.0091
861.00,0.0093
860.00,0.0095
859.00,0.0098
858.00,0.0100
857.00,0.0102
856.00,0.0104
855.00,0.0106
854.00,0.0108
853.00,0.0110
852.00,0.0113
851.00,0.0117
850.00,0.0122
849.00,0.0128
848.00,0.0137
847.00,0.0152
846.00,0.0175
845.00,0.0210
844.00,0.0258
843.00,0.0312
842.00,0.0354
841.00,0.0367
840.00,0.0346
839.00,0.0300
838.00,0.0250
837.00,0.0209
836.00,0.0183
835.00,0.0167
834.00,0.0157
833.00,0.0149
832.00,0.0143
831.00,0.0138
830.00,0.0134
829.00,0.0130
828.00,0.0127
827.00,0.0125
826.00,0.0124
825.00,0.0124
824.00,0.0125
823.00,0.0126
822.00,0.0126
821.00,0.0125
820.00,0.0126
819.00,0.0127
818.00,0.0131
817.00,0.0136
816.00,0.0143
815.00,0.0152
814.00,0.0165
813.00,0.0180
812.00,0.0197
811.00,0.0213
810.00,0.0224
809.00,0.0229
808.00,0.0227
807.00,0.0218
806.00,0.0205
805.00,0.0190
804.00,0.0174
803.00,0.0159
802.00,0.0147
801.00,0.0138
800.00,0.0131
799.00,0.0126
798.00,0.0120
797.00,0.0115
796.00,0.0111
795.00,0.0109
794.00,0.0107
793.00,0.0106
792.00,0.0105
791.00,0.0103
790.00,0.0101
789.00,0.0098
788.00,0.0095
787.00,0.0092
786.00,0.0089
785.00,0.0087
784.00,0.0086
783.00,0.0083
782.00,0.0080
781.00,0.0078
780.00,0.0076
779.00,0.0076
778.00,0.0077
777.00,0.0078
776.00,0.0079
775.00,0.0081
774.00,0.0083
773.00,0.0086
772.00,0.0089
771.00,0.0093
770.00,0.0096
769.00,0.0098
768.00,0.0099
767.00,0.0099
766.00,0.0098
765.00,0.0095
764.00,0.0092
763.00,0.0090
762.00,0.0089
761.00,0.0087
760.00,0.0084
759.00,0.0081
758.00,0.0079
757.00,0.0078
756.00,0.0078
755.00,0.0078
754.00,0.0078
753.00,0.0079
752.00,0.0079
751.00,0.0079
750.00,0.0078
749.00,0.0078
748.00,0.0078
747.00,0.0078
746.00,0.0079
745.00,0.0079
744.00,0.0080
743.00,0.0081
742.00,0.0082
741.00,0.0084
740.00,0.0086
739.00,0.0089
738.00,0.0092
737.00,0.0095
736.00,0.0096
735.00,0.0098
734.00,0.0099
733.00,0.0102
732.00,0.0104
731.00,0.0105
730.00,0.0104
729.00,0.0103
728.00,0.0103
727.00,0.0103
726.00,0.0105
725.00,0.0107
724.00,0.0108
723.00,0.0109
722.00,0.0109
721.00,0.0109
720.00,0.0107
719.00,0.0104
718.00,0.0100
717.00,0.0097
716.00,0.0095
715.00,0.0094
714.00,0.0095
713.00,0.0095
712.00,0.0094
711.00,0.0093
710.00,0.0092
709.00,0.0091
708.00,0.0091
707.00,0.0090
706.00,0.0088
705.00,0.0087
704.00,0.0086
703.00,0.0085
702.00,0.0084
701.00,0.0082
700.00,0.0081
699.00,0.0080
698.00,0.0079
697.00,0.0079
696.00,0.0080
695.00,0.0080
694.00,0.0080
693.00,0.0080
692.00,0.0078
691.00,0.0077
690.00,0.0076
689.00,0.0076
688.00,0.0076
687.00,0.0078
686.00,0.0080
685.00,0.0081
684.00,0.0081
683.00,0.0081
682.00,0.0080
681.00,0.0079
680.00,0.0079
679.00,0.0080
678.00,0.0081
677.00,0.0082
676.00,0.0082
675.00,0.0083
674.00,0.0083
673.00,0.0083
672.00,0.0083
671.00,0.0083
670.00,0.0085
669.00,0.0086
668.00,0.0087
667.00,0.0085
666.00,0.0082
665.00,0.0079
664.00,0.0078
663.00,0.0079
662.00,0.0080
661.00,0.0080
660.00,0.0079
659.00,0.0077
658.00,0.0077
657.00,0.0077
656.00,0.0078
655.00,0.0079
654.00,0.0078
653.00,0.0075
652.00,0.0072
651.00,0.0070
650.00,0.0070
649.00,0.0071
648.00,0.0071
647.00,0.0071
646.00,0.0072
645.00,0.0075
644.00,0.0077
643.00,0.0078
642.00,0.0079
641.00,0.0079
640.00,0.0078
639.00,0.0078
638.00,0.0079
637.00,0.0080
636.00,0.0081
635.00,0.0081
634.00,0.0080
633.00,0.0078
632.00,0.0078
631.00,0.0079
630.00,0.0080
629.00,0.0080
628.00,0.0079
627.00,0.0078
626.00,0.0079
625.00,0.0080
624.00,0.0080
623.00,0.0078
622.00,0.0076
621.00,0.0077
620.00,0.0080
619.00,0.0085
618.00,0.0089
617.00,0.0089
616.00,0.0087
615.00,0.0084
614.00,0.0082
613.00,0.0081
612.00,0.0082
611.00,0.0083
610.00,0.0083
609.00,0.0083
608.00,0.0082
607.00,0.0081
606.00,0.0080
605.00,0.0079
604.00,0.0079
603.00,0.0081
602.00,0.0083
601.00,0.0084
600.00,0.0084
599.00,0.0085
598.00,0.0084
597.00,0.0082
596.00,0.0080
595.00,0.0079
594.00,0.0079
593.00,0.0081
592.00,0.0081
591.00,0.0079
590.00,0.0079
589.00,0.0080
588.00,0.0082
587.00,0.0084
586.00,0.0085
585.00,0.0085
584.00,0.0085
583.00,0.0086
582.00,0.0088
581.00,0.0090
580.00,0.0090
579.00,0.0088
578.00,0.0086
577.00,0.0085
576.00,0.0086
575.00,0.0087
574.00,0.0087
573.00,0.0087
572.00,0.0085
571.00,0.0084
570.00,0.0085
569.00,0.0088
568.00,0.0091
567.00,0.0093
566.00,0.0090
565.00,0.0085
564.00,0.0079
563.00,0.0075
562.00,0.0074
561.00,0.0077
560.00,0.0082
559.00,0.0086
558.00,0.0089
557.00,0.0089
556.00,0.0089
555.00,0.0087
554.00,0.0083
553.00,0.0077
552.00,0.0072
551.00,0.0069
550.00,0.0069
549.00,0.0070
548.00,0.0071
547.00,0.0074
546.00,0.0077
545.00,0.0081
544.00,0.0084
543.00,0.0087
542.00,0.0090
541.00,0.0092
540.00,0.0092
539.00,0.0091
538.00,0.0088
537.00,0.0087
536.00,0.0088
535.00,0.0092
534.00,0.0096
533.00,0.0099
532.00,0.0099
531.00,0.0099
530.00,0.0099
529.00,0.0101
528.00,0.0106
527.00,0.0113
526.00,0.0117
525.00,0.0113
524.00,0.0104
523.00,0.0097
522.00,0.0094
521.00,0.0092
520.00,0.0089
519.00,0.0086
518.00,0.0082
517.00,0.0081
516.00,0.0081
515.00,0.0082
514.00,0.0083
513.00,0.0083
512.00,0.0081
511.00,0.0081
510.00,0.0081
509.00,0.0082
508.00,0.0081
507.00,0.0081
506.00,0.0081
505.00,0.0081
504.00,0.0080
503.00,0.0079
502.00,0.0080
501.00,0.0080
500.00,0.0077
499.00,0.0074
498.00,0.0072
497.00,0.0072
496.00,0.0075
495.00,0.0077
494.00,0.0079
493.00,0.0081
492.00,0.0082
491.00,0.0084
490.00,0.0085
489.00,0.0085
488.00,0.0083
487.00,0.0082
486.00,0.0081
485.00,0.0084
484.00,0.0091
483.00,0.0102
482.00,0.0109
481.00,0.0109
480.00,0.0104
479.00,0.0102
478.00,0.0106
477.00,0.0109
476.00,0.0108
475.00,0.0108
474.00,0.0113
473.00,0.0118
472.00,0.0115
471.00,0.0104
470.00,0.0093
469.00,0.0090
468.00,0.0094
467.00,0.0101
466.00,0.0109
465.00,0.0118
464.00,0.0125
463.00,0.0132
462.00,0.0141
461.00,0.0151
460.00,0.0159
459.00,0.0163
458.00,0.0165
457.00,0.0169
456.00,0.0171
455.00,0.0169
454.00,0.0158
453.00,0.0143
452.00,0.0126
451.00,0.0113
450.00,0.0106
