Created as New Dataset,Sample 092 By Administrator Date Friday, September 05 2025
cm-1,A
4000.00,0.0014
3999.00,0.0014
3998.00,0.0014
3997.00,0.0014
3996.00,0.0014
3995.00,0.0014
3994.00,0.0015
3993.00,0.0014
3992.00,0.0014
3991.00,0.0014
3990.00,0.0013
3989.00,0.0013
3988.00,0.0013
3987.00,0.0013
3986.00,0.0013
3985.00,0.0013
3984.00,0.0013
3983.00,0.0013
3982.00,0.0012
3981.00,0.0012
3980.00,0.0012
3979.00,0.0012
3978.00,0.0012
3977.00,0.0011
3976.00,0.0011
3975.00,0.0011
3974.00,0.0012
3973.00,0.0012
3972.00,0.0012
3971.00,0.0012
3970.00,0.0012
3969.00,0.0012
3968.00,0.0012
3967.00,0.0012
3966.00,0.0012
3965.00,0.0012
3964.00,0.0012
3963.00,0.0012
3962.00,0.0012
3961.00,0.0012
3960.00,0.0011
3959.00,0.0011
3958.00,0.0011
3957.00,0.0011
3956.00,0.0010
3955.00,0.0011
3954.00,0.0011
3953.00,0.0011
3952.00,0.0011
3951.00,0.0012
3950.00,0.0012
3949.00,0.0012
3948.00,0.0012
3947.00,0.0012
3946.00,0.0012
3945.00,0.0012
3944.00,0.0012
3943.00,0.0012
3942.00,0.0012
3941.00,0.0012
3940.00,0.0011
3939.00,0.0011
3938.00,0.0011
3937.00,0.0011
3936.00,0.0011
3935.00,0.0012
3934.00,0.0012
3933.00,0.0012
3932.00,0.0012
3931.00,0.0012
3930.00,0.0012
3929.00,0.0011
3928.00,0.0011
3927.00,0.0011
3926.00,0.0012
3925.00,0.0012
3924.00,0.0011
3923.00,0.0011
3922.00,0.0011
3921.00,0.0011
3920.00,0.0011
3919.00,0.0011
3918.00,0.0011
3917.00,0.0012
3916.00,0.0012
3915.00,0.0012
3914.00,0.0012
3913.00,0.0012
3912.00,0.0012
3911.00,0.0011
3910.00,0.0011
3909.00,0.0011
3908.00,0.0011
3907.00,0.0011
3906.00,0.0011
3905.00,0.0011
3904.00,0.0011
3903.00,0.0011
3902.00,0.0011
3901.00,0.0011
3900.00,0.0012
3899.00,0.0011
3898.00,0.0011
3897.00,0.0011
3896.00,0.0011
3895.00,0.0011
3894.00,0.0011
3893.00,0.0011
3892.00,0.0011
3891.00,0.0011
3890.00,0.0011
3889.00,0.0011
3888.00,0.0010
3887.00,0.0010
3886.00,0.0010
3885.00,0.0010
3884.00,0.0010
3883.00,0.0010
3882.00,0.0011
3881.00,0.0011
3880.00,0.0011
3879.00,0.0011
3878.00,0.0010
3877.00,0.0010
3876.00,0.0010
3875.00,0.0010
3874.00,0.0010
3873.00,0.0010
3872.00,0.0010
3871.00,0.0010
3870.00,0.0010
3869.00,0.0010
3868.00,0.0009
3867.00,0.0009
3866.00,0.0009
3865.00,0.0010
3864.00,0.0010
3863.00,0.0011
3862.00,0.0011
3861.00,0.0011
3860.00,0.0011
3859.00,0.0011
3858.00,0.0011
3857.00,0.0010
3856.00,0.0010
3855.00,0.0010
3854.00,0.0009
3853.00,0.0009
3852.00,0.0009
3851.00,0.0009
3850.00,0.0009
3849.00,0.0009
3848.00,0.0010
3847.00,0.0010
3846.00,0.0010
3845.00,0.0010
3844.00,0.0010
3843.00,0.0009
3842.00,0.0009
3841.00,0.0009
3840.00,0.0009
3839.00,0.0009
3838.00,0.0010
3837.00,0.0010
3836.00,0.0010
3835.00,0.0010
3834.00,0.0010
3833.00,0.0010
3832.00,0.0010
3831.00,0.0010
3830.00,0.0010
3829.00,0.0010
3828.00,0.0010
3827.00,0.0010
3826.00,0.0010
3825.00,0.0010
3824.00,0.0010
3823.00,0.0010
3822.00,0.0010
3821.00,0.0010
3820.00,0.0010
3819.00,0.0010
3818.00,0.0010
3817.00,0.0010
3816.00,0.0010
3815.00,0.0010
3814.00,0.0010
3813.00,0.0010
3812.00,0.0010
3811.00,0.0010
3810.00,0.0010
3809.00,0.0010
3808.00,0.0010
3807.00,0.0010
3806.00,0.0010
3805.00,0.0010
3804.00,0.0010
3803.00,0.0010
3802.00,0.0010
3801.00,0.0010
3800.00,0.0010
3799.00,0.0010
3798.00,0.0011
3797.00,0.0011
3796.00,0.0011
3795.00,0.0011
3794.00,0.0011
3793.00,0.0011
3792.00,0.0011
3791.00,0.0011
3790.00,0.0011
3789.00,0.0011
3788.00,0.0011
3787.00,0.0011
3786.00,0.0011
3785.00,0.0011
3784.00,0.0011
3783.00,0.0010
3782.00,0.0010
3781.00,0.0010
3780.00,0.0010
3779.00,0.0010
3778.00,0.0010
3777.00,0.0010
3776.00,0.0010
3775.00,0.0010
3774.00,0.0010
3773.00,0.0011
3772.00,0.0011
3771.00,0.0011
3770.00,0.0011
3769.00,0.0011
3768.00,0.0011
3767.00,0.0011
3766.00,0.0011
3765.00,0.0011
3764.00,0.0012
3763.00,0.0012
3762.00,0.0012
3761.00,0.0011
3760.00,0.0011
3759.00,0.0011
3758.00,0.0010
3757.00,0.0010
3756.00,0.0010
3755.00,0.0010
3754.00,0.0009
3753.00,0.0009
3752.00,0.0009
3751.00,0.0008
3750.00,0.0008
3749.00,0.0008
3748.00,0.0008
3747.00,0.0009
3746.00,0.0009
3745.00,0.0009
3744.00,0.0009
3743.00,0.0009
3742.00,0.0009
3741.00,0.0010
3740.00,0.0010
3739.00,0.0010
3738.00,0.0009
3737.00,0.0009
3736.00,0.0010
3735.00,0.0010
3734.00,0.0010
3733.00,0.0010
3732.00,0.0010
3731.00,0.0010
3730.00,0.0010
3729.00,0.0010
3728.00,0.0010
3727.00,0.0010
3726.00,0.0009
3725.00,0.0009
3724.00,0.0009
3723.00,0.0010
3722.00,0.0010
3721.00,0.0011
3720.00,0.0011
3719.00,0.0011
3718.00,0.0010
3717.00,0.0010
3716.00,0.0009
3715.00,0.0009
3714.00,0.0009
3713.00,0.0009
3712.00,0.0009
3711.00,0.0008
3710.00,0.0008
3709.00,0.0008
3708.00,0.0009
3707.00,0.0009
3706.00,0.0010
3705.00,0.0010
3704.00,0.0011
3703.00,0.0011
3702.00,0.0010
3701.00,0.0010
3700.00,0.0010
3699.00,0.0009
3698.00,0.0009
3697.00,0.0010
3696.00,0.0010
3695.00,0.0009
3694.00,0.0009
3693.00,0.0009
3692.00,0.0008
3691.00,0.0007
3690.00,0.0007
3689.00,0.0007
3688.00,0.0008
3687.00,0.0009
3686.00,0.0009
3685.00,0.0009
3684.00,0.0009
3683.00,0.0009
3682.00,0.0009
3681.00,0.0009
3680.00,0.0009
3679.00,0.0009
3678.00,0.0009
3677.00,0.0008
3676.00,0.0008
3675.00,0.0009
3674.00,0.0009
3673.00,0.0009
3672.00,0.0009
3671.00,0.0009
3670.00,0.0009
3669.00,0.0009
3668.00,0.0009
3667.00,0.0009
3666.00,0.0009
3665.00,0.0009
3664.00,0.0009
3663.00,0.0009
3662.00,0.0009
3661.00,0.0009
3660.00,0.0009
3659.00,0.0009
3658.00,0.0009
3657.00,0.0008
3656.00,0.0009
3655.00,0.0009
3654.00,0.0009
3653.00,0.0009
3652.00,0.0009
3651.00,0.0009
3650.00,0.0009
3649.00,0.0009
3648.00,0.0010
3647.00,0.0010
3646.00,0.0010
3645.00,0.0010
3644.00,0.0010
3643.00,0.0010
3642.00,0.0011
3641.00,0.0011
3640.00,0.0011
3639.00,0.0011
3638.00,0.0011
3637.00,0.0011
3636.00,0.0011
3635.00,0.0011
3634.00,0.0010
3633.00,0.0010
3632.00,0.0010
3631.00,0.0010
3630.00,0.0011
3629.00,0.0011
3628.00,0.0011
3627.00,0.0012
3626.00,0.0012
3625.00,0.0012
3624.00,0.0012
3623.00,0.0012
3622.00,0.0012
3621.00,0.0011
3620.00,0.0011
3619.00,0.0011
3618.00,0.0012
3617.00,0.0012
3616.00,0.0012
3615.00,0.0013
3614.00,0.0013
3613.00,0.0013
3612.00,0.0014
3611.00,0.0014
3610.00,0.0014
3609.00,0.0015
3608.00,0.0015
3607.00,0.0015
3606.00,0.0015
3605.00,0.0015
3604.00,0.0015
3603.00,0.0015
3602.00,0.0015
3601.00,0.0016
3600.00,0.0016
3599.00,0.0017
3598.00,0.0017
3597.00,0.0016
3596.00,0.0016
3595.00,0.0016
3594.00,0.0017
3593.00,0.0017
3592.00,0.0017
3591.00,0.0017
3590.00,0.0017
3589.00,0.0018
3588.00,0.0018
3587.00,0.0019
3586.00,0.0019
3585.00,0.0019
3584.00,0.0019
3583.00,0.0019
3582.00,0.0019
3581.00,0.0019
3580.00,0.0019
3579.00,0.0019
3578.00,0.0019
3577.00,0.0019
3576.00,0.0019
3575.00,0.0019
3574.00,0.0020
3573.00,0.0020
3572.00,0.0020
3571.00,0.0020
3570.00,0.0020
3569.00,0.0020
3568.00,0.0021
3567.00,0.0021
3566.00,0.0022
3565.00,0.0022
3564.00,0.0022
3563.00,0.0023
3562.00,0.0023
3561.00,0.0024
3560.00,0.0025
3559.00,0.0025
3558.00,0.0025
3557.00,0.0025
3556.00,0.0024
3555.00,0.0025
3554.00,0.0025
3553.00,0.0026
3552.00,0.0026
3551.00,0.0026
3550.00,0.0026
3549.00,0.0027
3548.00,0.0027
3547.00,0.0028
3546.00,0.0028
3545.00,0.0028
3544.00,0.0028
3543.00,0.0028
3542.00,0.0028
3541.00,0.0028
3540.00,0.0028
3539.00,0.0028
3538.00,0.0028
3537.00,0.0029
3536.00,0.0029
3535.00,0.0030
3534.00,0.0030
3533.00,0.0030
3532.00,0.0031
3531.00,0.0031
3530.00,0.0031
3529.00,0.0031
3528.00,0.0031
3527.00,0.0031
3526.00,0.0031
3525.00,0.0032
3524.00,0.0032
3523.00,0.0031
3522.00,0.0032
3521.00,0.0032
3520.00,0.0032
3519.00,0.0033
3518.00,0.0033
3517.00,0.0034
3516.00,0.0034
3515.00,0.0034
3514.00,0.0034
3513.00,0.0034
3512.00,0.0034
3511.00,0.0033
3510.00,0.0033
3509.00,0.0033
3508.00,0.0034
3507.00,0.0034
3506.00,0.0034
3505.00,0.0034
3504.00,0.0035
3503.00,0.0035
3502.00,0.0036
3501.00,0.0036
3500.00,0.0036
3499.00,0.0036
3498.00,0.0036
3497.00,0.0036
3496.00,0.0036
3495.00,0.0037
3494.00,0.0037
3493.00,0.0037
3492.00,0.0038
3491.00,0.0038
3490.00,0.0039
3489.00,0.0039
3488.00,0.0039
3487.00,0.0039
3486.00,0.0039
3485.00,0.0039
3484.00,0.0039
3483.00,0.0040
3482.00,0.0041
3481.00,0.0041
3480.00,0.0041
3479.00,0.0041
3478.00,0.0041
3477.00,0.0041
3476.00,0.0041
3475.00,0.0041
3474.00,0.0042
3473.00,0.0042
3472.00,0.0042
3471.00,0.0043
3470.00,0.0043
3469.00,0.0043
3468.00,0.0043
3467.00,0.0043
3466.00,0.0043
3465.00,0.0044
3464.00,0.0044
3463.00,0.0045
3462.00,0.0045
3461.00,0.0045
3460.00,0.0046
3459.00,0.0046
3458.00,0.0046
3457.00,0.0046
3456.00,0.0046
3455.00,0.0046
3454.00,0.0045
3453.00,0.0045
3452.00,0.0046
3451.00,0.0046
3450.00,0.0047
3449.00,0.0047
3448.00,0.0047
3447.00,0.0048
3446.00,0.0048
3445.00,0.0048
3444.00,0.0048
3443.00,0.0049
3442.00,0.0049
3441.00,0.0049
3440.00,0.0049
3439.00,0.0049
3438.00,0.0049
3437.00,0.0049
3436.00,0.0049
3435.00,0.0050
3434.00,0.0050
3433.00,0.0050
3432.00,0.0051
3431.00,0.0051
3430.00,0.0051
3429.00,0.0051
3428.00,0.0051
3427.00,0.0051
3426.00,0.0051
3425.00,0.0052
3424.00,0.0052
3423.00,0.0053
3422.00,0.0053
3421.00,0.0053
3420.00,0.0053
3419.00,0.0053
3418.00,0.0054
3417.00,0.0054
3416.00,0.0054
3415.00,0.0055
3414.00,0.0055
3413.00,0.0055
3412.00,0.0056
3411.00,0.0056
3410.00,0.0056
3409.00,0.0056
3408.00,0.0056
3407.00,0.0056
3406.00,0.0057
3405.00,0.0057
3404.00,0.0058
3403.00,0.0058
3402.00,0.0058
3401.00,0.0059
3400.00,0.0059
3399.00,0.0060
3398.00,0.0060
3397.00,0.0060
3396.00,0.0060
3395.00,0.0060
3394.00,0.0060
3393.00,0.0060
3392.00,0.0060
3391.00,0.0060
3390.00,0.0060
3389.00,0.0060
3388.00,0.0060
3387.00,0.0060
3386.00,0.0059
3385.00,0.0059
3384.00,0.0059
3383.00,0.0059
3382.00,0.0059
3381.00,0.0059
3380.00,0.0058
3379.00,0.0058
3378.00,0.0059
3377.00,0.0059
3376.00,0.0059
3375.00,0.0060
3374.00,0.0060
3373.00,0.0059
3372.00,0.0059
3371.00,0.0059
3370.00,0.0059
3369.00,0.0059
3368.00,0.0059
3367.00,0.0059
3366.00,0.0060
3365.00,0.0060
3364.00,0.0060
3363.00,0.0060
3362.00,0.0060
3361.00,0.0060
3360.00,0.0060
3359.00,0.0060
3358.00,0.0060
3357.00,0.0060
3356.00,0.0060
3355.00,0.0060
3354.00,0.0061
3353.00,0.0061
3352.00,0.0061
3351.00,0.0061
3350.00,0.0061
3349.00,0.0061
3348.00,0.0060
3347.00,0.0060
3346.00,0.0061
3345.00,0.0061
3344.00,0.0061
3343.00,0.0060
3342.00,0.0060
3341.00,0.0061
3340.00,0.0061
3339.00,0.0061
3338.00,0.0061
3337.00,0.0061
3336.00,0.0061
3335.00,0.0061
3334.00,0.0061
3333.00,0.0061
3332.00,0.0061
3331.00,0.0061
3330.00,0.0061
3329.00,0.0061
3328.00,0.0061
3327.00,0.0061
3326.00,0.0061
3325.00,0.0061
3324.00,0.0061
3323.00,0.0061
3322.00,0.0061
3321.00,0.0061
3320.00,0.0061
3319.00,0.0061
3318.00,0.0062
3317.00,0.0062
3316.00,0.0062
3315.00,0.0062
3314.00,0.0062
3313.00,0.0062
3312.00,0.0062
3311.00,0.0062
3310.00,0.0062
3309.00,0.0062
3308.00,0.0062
3307.00,0.0062
3306.00,0.0062
3305.00,0.0062
3304.00,0.0062
3303.00,0.0062
3302.00,0.0062
3301.00,0.0062
3300.00,0.0061
3299.00,0.0061
3298.00,0.0061
3297.00,0.0061
3296.00,0.0060
3295.00,0.0060
3294.00,0.0060
3293.00,0.0060
3292.00,0.0060
3291.00,0.0060
3290.00,0.0060
3289.00,0.0060
3288.00,0.0060
3287.00,0.0060
3286.00,0.0060
3285.00,0.0059
3284.00,0.0059
3283.00,0.0058
3282.00,0.0057
3281.00,0.0057
3280.00,0.0057
3279.00,0.0057
3278.00,0.0057
3277.00,0.0057
3276.00,0.0057
3275.00,0.0057
3274.00,0.0057
3273.00,0.0057
3272.00,0.0056
3271.00,0.0056
3270.00,0.0056
3269.00,0.0056
3268.00,0.0056
3267.00,0.0056
3266.00,0.0056
3265.00,0.0055
3264.00,0.0055
3263.00,0.0055
3262.00,0.0055
3261.00,0.0054
3260.00,0.0054
3259.00,0.0054
3258.00,0.0053
3257.00,0.0053
3256.00,0.0052
3255.00,0.0052
3254.00,0.0052
3253.00,0.0051
3252.00,0.0051
3251.00,0.0051
3250.00,0.0051
3249.00,0.0051
3248.00,0.0051
3247.00,0.0051
3246.00,0.0051
3245.00,0.0052
3244.00,0.0051
3243.00,0.0051
3242.00,0.0051
3241.00,0.0051
3240.00,0.0050
3239.00,0.0050
3238.00,0.0050
3237.00,0.0051
3236.00,0.0051
3235.00,0.0051
3234.00,0.0051
3233.00,0.0052
3232.00,0.0052
3231.00,0.0052
3230.00,0.0053
3229.00,0.0053
3228.00,0.0053
3227.00,0.0053
3226.00,0.0053
3225.00,0.0053
3224.00,0.0053
3223.00,0.0053
3222.00,0.0053
3221.00,0.0053
3220.00,0.0053
3219.00,0.0054
3218.00,0.0054
3217.00,0.0055
3216.00,0.0055
3215.00,0.0056
3214.00,0.0057
3213.00,0.0057
3212.00,0.0057
3211.00,0.0058
3210.00,0.0058
3209.00,0.0058
3208.00,0.0058
3207.00,0.0058
3206.00,0.0058
3205.00,0.0058
3204.00,0.0058
3203.00,0.0058
3202.00,0.0058
3201.00,0.0058
3200.00,0.0058
3199.00,0.0058
3198.00,0.0058
3197.00,0.0058
3196.00,0.0059
3195.00,0.0059
3194.00,0.0059
3193.00,0.0059
3192.00,0.0059
3191.00,0.0059
3190.00,0.0059
3189.00,0.0059
3188.00,0.0058
3187.00,0.0058
3186.00,0.0057
3185.00,0.0057
3184.00,0.0057
3183.00,0.0056
3182.00,0.0056
3181.00,0.0056
3180.00,0.0056
3179.00,0.0055
3178.00,0.0055
3177.00,0.0054
3176.00,0.0054
3175.00,0.0053
3174.00,0.0053
3173.00,0.0053
3172.00,0.0053
3171.00,0.0053
3170.00,0.0053
3169.00,0.0053
3168.00,0.0052
3167.00,0.0052
3166.00,0.0052
3165.00,0.0051
3164.00,0.0051
3163.00,0.0050
3162.00,0.0050
3161.00,0.0050
3160.00,0.0050
3159.00,0.0050
3158.00,0.0051
3157.00,0.0051
3156.00,0.0051
3155.00,0.0051
3154.00,0.0051
3153.00,0.0050
3152.00,0.0050
3151.00,0.0050
3150.00,0.0050
3149.00,0.0050
3148.00,0.0049
3147.00,0.0049
3146.00,0.0049
3145.00,0.0049
3144.00,0.0048
3143.00,0.0048
3142.00,0.0048
3141.00,0.0048
3140.00,0.0048
3139.00,0.0047
3138.00,0.0047
3137.00,0.0047
3136.00,0.0047
3135.00,0.0046
3134.00,0.0046
3133.00,0.0046
3132.00,0.0046
3131.00,0.0046
3130.00,0.0046
3129.00,0.0046
3128.00,0.0046
3127.00,0.0045
3126.00,0.0045
3125.00,0.0045
3124.00,0.0045
3123.00,0.0044
3122.00,0.0044
3121.00,0.0043
3120.00,0.0043
3119.00,0.0043
3118.00,0.0043
3117.00,0.0043
3116.00,0.0043
3115.00,0.0043
3114.00,0.0043
3113.00,0.0042
3112.00,0.0042
3111.00,0.0041
3110.00,0.0041
3109.00,0.0041
3108.00,0.0041
3107.00,0.0041
3106.00,0.0041
3105.00,0.0041
3104.00,0.0041
3103.00,0.0041
3102.00,0.0041
3101.00,0.0040
3100.00,0.0040
3099.00,0.0040
3098.00,0.0039
3097.00,0.0040
3096.00,0.0040
3095.00,0.0040
3094.00,0.0040
3093.00,0.0040
3092.00,0.0039
3091.00,0.0039
3090.00,0.0039
3089.00,0.0039
3088.00,0.0039
3087.00,0.0039
3086.00,0.0039
3085.00,0.0039
3084.00,0.0039
3083.00,0.0039
3082.00,0.0039
3081.00,0.0039
3080.00,0.0039
3079.00,0.0039
3078.00,0.0039
3077.00,0.0039
3076.00,0.0039
3075.00,0.0039
3074.00,0.0040
3073.00,0.0040
3072.00,0.0040
3071.00,0.0041
3070.00,0.0041
3069.00,0.0041
3068.00,0.0041
3067.00,0.0041
3066.00,0.0041
3065.00,0.0041
3064.00,0.0041
3063.00,0.0041
3062.00,0.0041
3061.00,0.0041
3060.00,0.0041
3059.00,0.0041
3058.00,0.0041
3057.00,0.0041
3056.00,0.0041
3055.00,0.0041
3054.00,0.0041
3053.00,0.0041
3052.00,0.0042
3051.00,0.0042
3050.00,0.0042
3049.00,0.0042
3048.00,0.0042
3047.00,0.0042
3046.00,0.0043
3045.00,0.0043
3044.00,0.0043
3043.00,0.0044
3042.00,0.0044
3041.00,0.0044
3040.00,0.0044
3039.00,0.0045
3038.00,0.0045
3037.00,0.0045
3036.00,0.0045
3035.00,0.0046
3034.00,0.0046
3033.00,0.0047
3032.00,0.0047
3031.00,0.0048
3030.00,0.0048
3029.00,0.0048
3028.00,0.0049
3027.00,0.0049
3026.00,0.0049
3025.00,0.0050
3024.00,0.0051
3023.00,0.0051
3022.00,0.0052
3021.00,0.0052
3020.00,0.0053
3019.00,0.0054
3018.00,0.0055
3017.00,0.0056
3016.00,0.0057
3015.00,0.0058
3014.00,0.0059
3013.00,0.0060
3012.00,0.0062
3011.00,0.0063
3010.00,0.0064
3009.00,0.0066
3008.00,0.0067
3007.00,0.0069
3006.00,0.0070
3005.00,0.0072
3004.00,0.0073
3003.00,0.0076
3002.00,0.0078
3001.00,0.0081
3000.00,0.0084
2999.00,0.0086
2998.00,0.0089
2997.00,0.0092
2996.00,0.0095
2995.00,0.0099
2994.00,0.0103
2993.00,0.0108
2992.00,0.0114
2991.00,0.0120
2990.00,0.0127
2989.00,0.0134
2988.00,0.0142
2987.00,0.0151
2986.00,0.0161
2985.00,0.0172
2984.00,0.0184
2983.00,0.0198
2982.00,0.0214
2981.00,0.0232
2980.00,0.0252
2979.00,0.0275
2978.00,0.0301
2977.00,0.0330
2976.00,0.0364
2975.00,0.0403
2974.00,0.0447
2973.00,0.0498
2972.00,0.0556
2971.00,0.0621
2970.00,0.0694
2969.00,0.0774
2968.00,0.0861
2967.00,0.0956
2966.00,0.1057
2965.00,0.1160
2964.00,0.1264
2963.00,0.1361
2962.00,0.1448
2961.00,0.1520
2960.00,0.1576
2959.00,0.1619
2958.00,0.1652
2957.00,0.1682
2956.00,0.1715
2955.00,0.1754
2954.00,0.1799
2953.00,0.1845
2952.00,0.1885
2951.00,0.1908
2950.00,0.1904
2949.00,0.1866
2948.00,0.1794
2947.00,0.1693
2946.00,0.1573
2945.00,0.1448
2944.00,0.1329
2943.00,0.1226
2942.00,0.1146
2941.00,0.1089
2940.00,0.1057
2939.00,0.1046
2938.00,0.1056
2937.00,0.1083
2936.00,0.1125
2935.00,0.1182
2934.00,0.1252
2933.00,0.1334
2932.00,0.1426
2931.00,0.1526
2930.00,0.1632
2929.00,0.1740
2928.00,0.1846
2927.00,0.1950
2926.00,0.2050
2925.00,0.2145
2924.00,0.2237
2923.00,0.2328
2922.00,0.2416
2921.00,0.2499
2920.00,0.2570
2919.00,0.2621
2918.00,0.2644
2917.00,0.2633
2916.00,0.2587
2915.00,0.2513
2914.00,0.2421
2913.00,0.2322
2912.00,0.2226
2911.00,0.2139
2910.00,0.2063
2909.00,0.1995
2908.00,0.1933
2907.00,0.1875
2906.00,0.1816
2905.00,0.1756
2904.00,0.1693
2903.00,0.1628
2902.00,0.1562
2901.00,0.1497
2900.00,0.1433
2899.00,0.1372
2898.00,0.1315
2897.00,0.1263
2896.00,0.1216
2895.00,0.1175
2894.00,0.1140
2893.00,0.1111
2892.00,0.1088
2891.00,0.1071
2890.00,0.1060
2889.00,0.1052
2888.00,0.1048
2887.00,0.1048
2886.00,0.1051
2885.00,0.1057
2884.00,0.1068
2883.00,0.1083
2882.00,0.1101
2881.00,0.1122
2880.00,0.1142
2879.00,0.1158
2878.00,0.1168
2877.00,0.1170
2876.00,0.1165
2875.00,0.1157
2874.00,0.1151
2873.00,0.1150
2872.00,0.1155
2871.00,0.1168
2870.00,0.1184
2869.00,0.1200
2868.00,0.1207
2867.00,0.1200
2866.00,0.1173
2865.00,0.1125
2864.00,0.1060
2863.00,0.0985
2862.00,0.0912
2861.00,0.0847
2860.00,0.0796
2859.00,0.0760
2858.00,0.0739
2857.00,0.0731
2856.00,0.0733
2855.00,0.0744
2854.00,0.0761
2853.00,0.0782
2852.00,0.0805
2851.00,0.0827
2850.00,0.0846
2849.00,0.0861
2848.00,0.0875
2847.00,0.0892
2846.00,0.0917
2845.00,0.0952
2844.00,0.0998
2843.00,0.1053
2842.00,0.1111
2841.00,0.1167
2840.00,0.1212
2839.00,0.1238
2838.00,0.1237
2837.00,0.1205
2836.00,0.1142
2835.00,0.1054
2834.00,0.0950
2833.00,0.0841
2832.00,0.0738
2831.00,0.0645
2830.00,0.0567
2829.00,0.0502
2828.00,0.0450
2827.00,0.0408
2826.00,0.0374
2825.00,0.0345
2824.00,0.0321
2823.00,0.0301
2822.00,0.0284
2821.00,0.0268
2820.00,0.0255
2819.00,0.0244
2818.00,0.0234
2817.00,0.0225
2816.00,0.0217
2815.00,0.0210
2814.00,0.0204
2813.00,0.0198
2812.00,0.0193
2811.00,0.0188
2810.00,0.0182
2809.00,0.0177
2808.00,0.0171
2807.00,0.0165
2806.00,0.0158
2805.00,0.0151
2804.00,0.0145
2803.00,0.0139
2802.00,0.0134
2801.00,0.0130
2800.00,0.0126
2799.00,0.0123
2798.00,0.0121
2797.00,0.0118
2796.00,0.0116
2795.00,0.0114
2794.00,0.0111
2793.00,0.0108
2792.00,0.0105
2791.00,0.0102
2790.00,0.0098
2789.00,0.0095
2788.00,0.0092
2787.00,0.0089
2786.00,0.0086
2785.00,0.0083
2784.00,0.0080
2783.00,0.0078
2782.00,0.0076
2781.00,0.0074
2780.00,0.0072
2779.00,0.0071
2778.00,0.0069
2777.00,0.0068
2776.00,0.0067
2775.00,0.0066
2774.00,0.0065
2773.00,0.0064
2772.00,0.0064
2771.00,0.0063
2770.00,0.0063
2769.00,0.0062
2768.00,0.0062
2767.00,0.0062
2766.00,0.0061
2765.00,0.0060
2764.00,0.0060
2763.00,0.0060
2762.00,0.0060
2761.00,0.0059
2760.00,0.0059
2759.00,0.0058
2758.00,0.0058
2757.00,0.0059
2756.00,0.0059
2755.00,0.0059
2754.00,0.0059
2753.00,0.0058
2752.00,0.0057
2751.00,0.0057
2750.00,0.0057
2749.00,0.0057
2748.00,0.0057
2747.00,0.0057
2746.00,0.0058
2745.00,0.0058
2744.00,0.0059
2743.00,0.0060
2742.00,0.0061
2741.00,0.0063
2740.00,0.0064
2739.00,0.0065
2738.00,0.0066
2737.00,0.0067
2736.00,0.0068
2735.00,0.0069
2734.00,0.0071
2733.00,0.0072
2732.00,0.0074
2731.00,0.0076
2730.00,0.0078
2729.00,0.0080
2728.00,0.0083
2727.00,0.0085
2726.00,0.0088
2725.00,0.0090
2724.00,0.0092
2723.00,0.0092
2722.00,0.0091
2721.00,0.0089
2720.00,0.0087
2719.00,0.0083
2718.00,0.0080
2717.00,0.0077
2716.00,0.0074
2715.00,0.0072
2714.00,0.0070
2713.00,0.0068
2712.00,0.0066
2711.00,0.0064
2710.00,0.0063
2709.00,0.0061
2708.00,0.0060
2707.00,0.0059
2706.00,0.0057
2705.00,0.0057
2704.00,0.0056
2703.00,0.0055
2702.00,0.0054
2701.00,0.0053
2700.00,0.0052
2699.00,0.0051
2698.00,0.0051
2697.00,0.0051
2696.00,0.0051
2695.00,0.0051
2694.00,0.0051
2693.00,0.0050
2692.00,0.0050
2691.00,0.0050
2690.00,0.0050
2689.00,0.0050
2688.00,0.0050
2687.00,0.0050
2686.00,0.0050
2685.00,0.0051
2684.00,0.0051
2683.00,0.0051
2682.00,0.0051
2681.00,0.0052
2680.00,0.0051
2679.00,0.0051
2678.00,0.0051
2677.00,0.0051
2676.00,0.0051
2675.00,0.0051
2674.00,0.0051
2673.00,0.0050
2672.00,0.0051
2671.00,0.0051
2670.00,0.0051
2669.00,0.0051
2668.00,0.0050
2667.00,0.0050
2666.00,0.0051
2665.00,0.0051
2664.00,0.0052
2663.00,0.0053
2662.00,0.0053
2661.00,0.0054
2660.00,0.0054
2659.00,0.0054
2658.00,0.0053
2657.00,0.0053
2656.00,0.0053
2655.00,0.0052
2654.00,0.0052
2653.00,0.0052
2652.00,0.0051
2651.00,0.0050
2650.00,0.0050
2649.00,0.0049
2648.00,0.0049
2647.00,0.0049
2646.00,0.0048
2645.00,0.0048
2644.00,0.0047
2643.00,0.0047
2642.00,0.0046
2641.00,0.0046
2640.00,0.0045
2639.00,0.0045
2638.00,0.0045
2637.00,0.0044
2636.00,0.0044
2635.00,0.0044
2634.00,0.0044
2633.00,0.0044
2632.00,0.0044
2631.00,0.0044
2630.00,0.0044
2629.00,0.0044
2628.00,0.0044
2627.00,0.0044
2626.00,0.0044
2625.00,0.0045
2624.00,0.0045
2623.00,0.0045
2622.00,0.0045
2621.00,0.0045
2620.00,0.0045
2619.00,0.0045
2618.00,0.0044
2617.00,0.0044
2616.00,0.0045
2615.00,0.0045
2614.00,0.0045
2613.00,0.0045
2612.00,0.0045
2611.00,0.0044
2610.00,0.0043
2609.00,0.0042
2608.00,0.0040
2607.00,0.0039
2606.00,0.0039
2605.00,0.0038
2604.00,0.0038
2603.00,0.0038
2602.00,0.0038
2601.00,0.0037
2600.00,0.0037
2599.00,0.0036
2598.00,0.0036
2597.00,0.0036
2596.00,0.0036
2595.00,0.0036
2594.00,0.0037
2593.00,0.0037
2592.00,0.0037
2591.00,0.0038
2590.00,0.0038
2589.00,0.0039
2588.00,0.0040
2587.00,0.0041
2586.00,0.0042
2585.00,0.0043
2584.00,0.0044
2583.00,0.0044
2582.00,0.0043
2581.00,0.0043
2580.00,0.0042
2579.00,0.0041
2578.00,0.0041
2577.00,0.0040
2576.00,0.0039
2575.00,0.0038
2574.00,0.0036
2573.00,0.0035
2572.00,0.0034
2571.00,0.0033
2570.00,0.0032
2569.00,0.0031
2568.00,0.0031
2567.00,0.0030
2566.00,0.0030
2565.00,0.0029
2564.00,0.0029
2563.00,0.0028
2562.00,0.0028
2561.00,0.0028
2560.00,0.0028
2559.00,0.0028
2558.00,0.0028
2557.00,0.0028
2556.00,0.0027
2555.00,0.0027
2554.00,0.0027
2553.00,0.0027
2552.00,0.0027
2551.00,0.0027
2550.00,0.0026
2549.00,0.0025
2548.00,0.0025
2547.00,0.0024
2546.00,0.0023
2545.00,0.0022
2544.00,0.0022
2543.00,0.0022
2542.00,0.0023
2541.00,0.0023
2540.00,0.0023
2539.00,0.0022
2538.00,0.0022
2537.00,0.0021
2536.00,0.0021
2535.00,0.0021
2534.00,0.0021
2533.00,0.0021
2532.00,0.0021
2531.00,0.0021
2530.00,0.0021
2529.00,0.0021
2528.00,0.0021
2527.00,0.0020
2526.00,0.0020
2525.00,0.0019
2524.00,0.0018
2523.00,0.0018
2522.00,0.0018
2521.00,0.0017
2520.00,0.0017
2519.00,0.0017
2518.00,0.0017
2517.00,0.0018
2516.00,0.0018
2515.00,0.0018
2514.00,0.0018
2513.00,0.0018
2512.00,0.0017
2511.00,0.0017
2510.00,0.0017
2509.00,0.0017
2508.00,0.0017
2507.00,0.0017
2506.00,0.0016
2505.00,0.0016
2504.00,0.0015
2503.00,0.0015
2502.00,0.0014
2501.00,0.0014
2500.00,0.0014
2499.00,0.0014
2498.00,0.0015
2497.00,0.0015
2496.00,0.0016
2495.00,0.0016
2494.00,0.0016
2493.00,0.0016
2492.00,0.0015
2491.00,0.0015
2490.00,0.0015
2489.00,0.0015
2488.00,0.0015
2487.00,0.0016
2486.00,0.0016
2485.00,0.0016
2484.00,0.0016
2483.00,0.0015
2482.00,0.0014
2481.00,0.0013
2480.00,0.0013
2479.00,0.0013
2478.00,0.0014
2477.00,0.0015
2476.00,0.0015
2475.00,0.0015
2474.00,0.0015
2473.00,0.0014
2472.00,0.0014
2471.00,0.0014
2470.00,0.0014
2469.00,0.0014
2468.00,0.0014
2467.00,0.0014
2466.00,0.0014
2465.00,0.0015
2464.00,0.0015
2463.00,0.0015
2462.00,0.0015
2461.00,0.0015
2460.00,0.0016
2459.00,0.0016
2458.00,0.0017
2457.00,0.0017
2456.00,0.0017
2455.00,0.0017
2454.00,0.0017
2453.00,0.0017
2452.00,0.0017
2451.00,0.0017
2450.00,0.0017
2449.00,0.0016
2448.00,0.0016
2447.00,0.0015
2446.00,0.0015
2445.00,0.0015
2444.00,0.0015
2443.00,0.0014
2442.00,0.0014
2441.00,0.0015
2440.00,0.0015
2439.00,0.0016
2438.00,0.0017
2437.00,0.0017
2436.00,0.0018
2435.00,0.0018
2434.00,0.0018
2433.00,0.0017
2432.00,0.0017
2431.00,0.0017
2430.00,0.0017
2429.00,0.0017
2428.00,0.0017
2427.00,0.0016
2426.00,0.0016
2425.00,0.0016
2424.00,0.0016
2423.00,0.0015
2422.00,0.0015
2421.00,0.0015
2420.00,0.0015
2419.00,0.0015
2418.00,0.0015
2417.00,0.0015
2416.00,0.0014
2415.00,0.0014
2414.00,0.0014
2413.00,0.0014
2412.00,0.0014
2411.00,0.0014
2410.00,0.0013
2409.00,0.0013
2408.00,0.0013
2407.00,0.0012
2406.00,0.0013
2405.00,0.0013
2404.00,0.0013
2403.00,0.0013
2402.00,0.0013
2401.00,0.0013
2400.00,0.0014
2399.00,0.0014
2398.00,0.0014
2397.00,0.0014
2396.00,0.0014
2395.00,0.0014
2394.00,0.0013
2393.00,0.0013
2392.00,0.0012
2391.00,0.0012
2390.00,0.0012
2389.00,0.0012
2388.00,0.0012
2387.00,0.0012
2386.00,0.0012
2385.00,0.0012
2384.00,0.0011
2383.00,0.0011
2382.00,0.0010
2381.00,0.0009
2380.00,0.0008
2379.00,0.0007
2378.00,0.0006
2377.00,0.0005
2376.00,0.0005
2375.00,0.0005
2374.00,0.0006
2373.00,0.0006
2372.00,0.0007
2371.00,0.0007
2370.00,0.0008
2369.00,0.0008
2368.00,0.0008
2367.00,0.0009
2366.00,0.0009
2365.00,0.0010
2364.00,0.0010
2363.00,0.0010
2362.00,0.0009
2361.00,0.0009
2360.00,0.0008
2359.00,0.0008
2358.00,0.0007
2357.00,0.0007
2356.00,0.0008
2355.00,0.0009
2354.00,0.0009
2353.00,0.0009
2352.00,0.0009
2351.00,0.0009
2350.00,0.0009
2349.00,0.0009
2348.00,0.0010
2347.00,0.0010
2346.00,0.0009
2345.00,0.0009
2344.00,0.0009
2343.00,0.0010
2342.00,0.0011
2341.00,0.0011
2340.00,0.0012
2339.00,0.0012
2338.00,0.0012
2337.00,0.0011
2336.00,0.0011
2335.00,0.0011
2334.00,0.0011
2333.00,0.0010
2332.00,0.0010
2331.00,0.0010
2330.00,0.0011
2329.00,0.0012
2328.00,0.0014
2327.00,0.0017
2326.00,0.0021
2325.00,0.0024
2324.00,0.0025
2323.00,0.0023
2322.00,0.0021
2321.00,0.0020
2320.00,0.0019
2319.00,0.0018
2318.00,0.0018
2317.00,0.0017
2316.00,0.0016
2315.00,0.0016
2314.00,0.0016
2313.00,0.0016
2312.00,0.0016
2311.00,0.0015
2310.00,0.0014
2309.00,0.0014
2308.00,0.0014
2307.00,0.0014
2306.00,0.0015
2305.00,0.0015
2304.00,0.0016
2303.00,0.0016
2302.00,0.0016
2301.00,0.0017
2300.00,0.0017
2299.00,0.0017
2298.00,0.0017
2297.00,0.0018
2296.00,0.0019
2295.00,0.0019
2294.00,0.0020
2293.00,0.0020
2292.00,0.0020
2291.00,0.0021
2290.00,0.0021
2289.00,0.0022
2288.00,0.0023
2287.00,0.0023
2286.00,0.0024
2285.00,0.0024
2284.00,0.0024
2283.00,0.0023
2282.00,0.0022
2281.00,0.0021
2280.00,0.0019
2279.00,0.0018
2278.00,0.0017
2277.00,0.0017
2276.00,0.0017
2275.00,0.0017
2274.00,0.0018
2273.00,0.0018
2272.00,0.0018
2271.00,0.0018
2270.00,0.0017
2269.00,0.0017
2268.00,0.0017
2267.00,0.0017
2266.00,0.0016
2265.00,0.0016
2264.00,0.0015
2263.00,0.0016
2262.00,0.0017
2261.00,0.0018
2260.00,0.0018
2259.00,0.0018
2258.00,0.0017
2257.00,0.0017
2256.00,0.0017
2255.00,0.0016
2254.00,0.0016
2253.00,0.0016
2252.00,0.0015
2251.00,0.0015
2250.00,0.0015
2249.00,0.0015
2248.00,0.0015
2247.00,0.0015
2246.00,0.0014
2245.00,0.0013
2244.00,0.0012
2243.00,0.0013
2242.00,0.0013
2241.00,0.0013
2240.00,0.0013
2239.00,0.0013
2238.00,0.0014
2237.00,0.0014
2236.00,0.0013
2235.00,0.0012
2234.00,0.0012
2233.00,0.0012
2232.00,0.0012
2231.00,0.0013
2230.00,0.0013
2229.00,0.0014
2228.00,0.0015
2227.00,0.0015
2226.00,0.0015
2225.00,0.0015
2224.00,0.0014
2223.00,0.0013
2222.00,0.0012
2221.00,0.0012
2220.00,0.0012
2219.00,0.0012
2218.00,0.0012
2217.00,0.0013
2216.00,0.0014
2215.00,0.0014
2214.00,0.0012
2213.00,0.0010
2212.00,0.0009
2211.00,0.0009
2210.00,0.0010
2209.00,0.0011
2208.00,0.0011
2207.00,0.0010
2206.00,0.0010
2205.00,0.0010
2204.00,0.0010
2203.00,0.0008
2202.00,0.0007
2201.00,0.0007
2200.00,0.0007
2199.00,0.0008
2198.00,0.0009
2197.00,0.0009
2196.00,0.0010
2195.00,0.0010
2194.00,0.0011
2193.00,0.0012
2192.00,0.0014
2191.00,0.0015
2190.00,0.0016
2189.00,0.0016
2188.00,0.0014
2187.00,0.0011
2186.00,0.0009
2185.00,0.0008
2184.00,0.0007
2183.00,0.0006
2182.00,0.0005
2181.00,0.0005
2180.00,0.0007
2179.00,0.0008
2178.00,0.0009
2177.00,0.0009
2176.00,0.0009
2175.00,0.0008
2174.00,0.0006
2173.00,0.0005
2172.00,0.0006
2171.00,0.0009
2170.00,0.0014
2169.00,0.0020
2168.00,0.0023
2167.00,0.0023
2166.00,0.0021
2165.00,0.0019
2164.00,0.0020
2163.00,0.0024
2162.00,0.0027
2161.00,0.0022
2160.00,0.0009
2159.00,-0.0006
2158.00,-0.0018
2157.00,-0.0022
2156.00,-0.0021
2155.00,-0.0020
2154.00,-0.0019
2153.00,-0.0018
2152.00,-0.0016
2151.00,-0.0015
2150.00,-0.0014
2149.00,-0.0013
2148.00,-0.0012
2147.00,-0.0010
2146.00,-0.0009
2145.00,-0.0007
2144.00,-0.0006
2143.00,-0.0006
2142.00,-0.0006
2141.00,-0.0006
2140.00,-0.0006
2139.00,-0.0007
2138.00,-0.0008
2137.00,-0.0009
2136.00,-0.0009
2135.00,-0.0010
2134.00,-0.0011
2133.00,-0.0011
2132.00,-0.0010
2131.00,-0.0009
2130.00,-0.0008
2129.00,-0.0006
2128.00,-0.0004
2127.00,-0.0003
2126.00,-0.0003
2125.00,-0.0003
2124.00,-0.0002
2123.00,-0.0001
2122.00,0.0001
2121.00,0.0003
2120.00,0.0003
2119.00,0.0003
2118.00,0.0002
2117.00,0.0003
2116.00,0.0005
2115.00,0.0006
2114.00,0.0006
2113.00,0.0006
2112.00,0.0005
2111.00,0.0004
2110.00,0.0004
2109.00,0.0005
2108.00,0.0006
2107.00,0.0007
2106.00,0.0008
2105.00,0.0008
2104.00,0.0008
2103.00,0.0008
2102.00,0.0007
2101.00,0.0007
2100.00,0.0007
2099.00,0.0007
2098.00,0.0007
2097.00,0.0006
2096.00,0.0005
2095.00,0.0004
2094.00,0.0003
2093.00,0.0004
2092.00,0.0005
2091.00,0.0007
2090.00,0.0008
2089.00,0.0008
2088.00,0.0008
2087.00,0.0007
2086.00,0.0007
2085.00,0.0008
2084.00,0.0009
2083.00,0.0009
2082.00,0.0008
2081.00,0.0007
2080.00,0.0007
2079.00,0.0007
2078.00,0.0008
2077.00,0.0008
2076.00,0.0008
2075.00,0.0007
2074.00,0.0007
2073.00,0.0007
2072.00,0.0006
2071.00,0.0005
2070.00,0.0005
2069.00,0.0004
2068.00,0.0004
2067.00,0.0005
2066.00,0.0006
2065.00,0.0007
2064.00,0.0008
2063.00,0.0008
2062.00,0.0007
2061.00,0.0005
2060.00,0.0005
2059.00,0.0006
2058.00,0.0007
2057.00,0.0007
2056.00,0.0007
2055.00,0.0005
2054.00,0.0006
2053.00,0.0009
2052.00,0.0014
2051.00,0.0016
2050.00,0.0016
2049.00,0.0013
2048.00,0.0009
2047.00,0.0008
2046.00,0.0007
2045.00,0.0009
2044.00,0.0010
2043.00,0.0011
2042.00,0.0009
2041.00,0.0006
2040.00,0.0004
2039.00,0.0002
2038.00,0.0001
2037.00,0.0001
2036.00,0.0002
2035.00,0.0003
2034.00,0.0003
2033.00,0.0003
2032.00,0.0001
2031.00,-0.0001
2030.00,-0.0004
2029.00,-0.0005
2028.00,-0.0005
2027.00,-0.0003
2026.00,-0.0001
2025.00,0.0001
2024.00,0.0001
2023.00,-0.0001
2022.00,-0.0004
2021.00,-0.0006
2020.00,-0.0006
2019.00,-0.0005
2018.00,-0.0006
2017.00,-0.0006
2016.00,-0.0007
2015.00,-0.0007
2014.00,-0.0006
2013.00,-0.0005
2012.00,-0.0003
2011.00,-0.0002
2010.00,-0.0001
2009.00,-0.0001
2008.00,-0.0003
2007.00,-0.0007
2006.00,-0.0011
2005.00,-0.0013
2004.00,-0.0012
2003.00,-0.0008
2002.00,-0.0006
2001.00,-0.0005
2000.00,-0.0005
1999.00,-0.0006
1998.00,-0.0006
1997.00,-0.0005
1996.00,-0.0004
1995.00,-0.0003
1994.00,-0.0004
1993.00,-0.0005
1992.00,-0.0006
1991.00,-0.0005
1990.00,-0.0003
1989.00,-0.0000
1988.00,0.0002
1987.00,0.0002
1986.00,0.0001
1985.00,0.0001
1984.00,0.0004
1983.00,0.0011
1982.00,0.0017
1981.00,0.0022
1980.00,0.0022
1979.00,0.0018
1978.00,0.0012
1977.00,0.0005
1976.00,-0.0003
1975.00,-0.0008
1974.00,-0.0009
1973.00,-0.0007
1972.00,-0.0004
1971.00,-0.0004
1970.00,-0.0005
1969.00,-0.0006
1968.00,-0.0007
1967.00,-0.0007
1966.00,-0.0007
1965.00,-0.0008
1964.00,-0.0008
1963.00,-0.0008
1962.00,-0.0009
1961.00,-0.0009
1960.00,-0.0010
1959.00,-0.0010
1958.00,-0.0011
1957.00,-0.0011
1956.00,-0.0010
1955.00,-0.0010
1954.00,-0.0012
1953.00,-0.0015
1952.00,-0.0016
1951.00,-0.0016
1950.00,-0.0015
1949.00,-0.0012
1948.00,-0.0011
1947.00,-0.0010
1946.00,-0.0010
1945.00,-0.0010
1944.00,-0.0010
1943.00,-0.0009
1942.00,-0.0008
1941.00,-0.0007
1940.00,-0.0007
1939.00,-0.0007
1938.00,-0.0006
1937.00,-0.0005
1936.00,-0.0004
1935.00,-0.0004
1934.00,-0.0003
1933.00,-0.0003
1932.00,-0.0003
1931.00,-0.0004
1930.00,-0.0005
1929.00,-0.0005
1928.00,-0.0004
1927.00,-0.0004
1926.00,-0.0003
1925.00,-0.0003
1924.00,-0.0003
1923.00,-0.0001
1922.00,0.0000
1921.00,0.0002
1920.00,0.0004
1919.00,0.0005
1918.00,0.0004
1917.00,0.0004
1916.00,0.0003
1915.00,0.0002
1914.00,0.0001
1913.00,0.0001
1912.00,0.0001
1911.00,0.0000
1910.00,0.0000
1909.00,0.0001
1908.00,0.0001
1907.00,0.0002
1906.00,0.0003
1905.00,0.0004
1904.00,0.0004
1903.00,0.0004
1902.00,0.0004
1901.00,0.0004
1900.00,0.0004
1899.00,0.0004
1898.00,0.0004
1897.00,0.0004
1896.00,0.0004
1895.00,0.0004
1894.00,0.0004
1893.00,0.0004
1892.00,0.0004
1891.00,0.0003
1890.00,0.0002
1889.00,0.0002
1888.00,0.0002
1887.00,0.0002
1886.00,0.0002
1885.00,0.0002
1884.00,0.0003
1883.00,0.0002
1882.00,0.0002
1881.00,0.0002
1880.00,0.0002
1879.00,0.0003
1878.00,0.0003
1877.00,0.0004
1876.00,0.0004
1875.00,0.0004
1874.00,0.0004
1873.00,0.0005
1872.00,0.0006
1871.00,0.0007
1870.00,0.0007
1869.00,0.0007
1868.00,0.0007
1867.00,0.0006
1866.00,0.0005
1865.00,0.0004
1864.00,0.0003
1863.00,0.0003
1862.00,0.0003
1861.00,0.0003
1860.00,0.0004
1859.00,0.0005
1858.00,0.0005
1857.00,0.0005
1856.00,0.0005
1855.00,0.0005
1854.00,0.0005
1853.00,0.0005
1852.00,0.0006
1851.00,0.0006
1850.00,0.0005
1849.00,0.0005
1848.00,0.0005
1847.00,0.0005
1846.00,0.0006
1845.00,0.0006
1844.00,0.0006
1843.00,0.0006
1842.00,0.0005
1841.00,0.0006
1840.00,0.0007
1839.00,0.0007
1838.00,0.0008
1837.00,0.0009
1836.00,0.0009
1835.00,0.0008
1834.00,0.0008
1833.00,0.0007
1832.00,0.0006
1831.00,0.0006
1830.00,0.0006
1829.00,0.0007
1828.00,0.0008
1827.00,0.0009
1826.00,0.0009
1825.00,0.0009
1824.00,0.0009
1823.00,0.0008
1822.00,0.0007
1821.00,0.0007
1820.00,0.0006
1819.00,0.0004
1818.00,0.0003
1817.00,0.0002
1816.00,0.0003
1815.00,0.0004
1814.00,0.0005
1813.00,0.0007
1812.00,0.0007
1811.00,0.0008
1810.00,0.0008
1809.00,0.0008
1808.00,0.0008
1807.00,0.0008
1806.00,0.0008
1805.00,0.0008
1804.00,0.0009
1803.00,0.0009
1802.00,0.0010
1801.00,0.0010
1800.00,0.0010
1799.00,0.0010
1798.00,0.0010
1797.00,0.0010
1796.00,0.0011
1795.00,0.0011
1794.00,0.0012
1793.00,0.0012
1792.00,0.0012
1791.00,0.0012
1790.00,0.0012
1789.00,0.0012
1788.00,0.0012
1787.00,0.0012
1786.00,0.0013
1785.00,0.0014
1784.00,0.0014
1783.00,0.0015
1782.00,0.0014
1781.00,0.0014
1780.00,0.0014
1779.00,0.0013
1778.00,0.0013
1777.00,0.0013
1776.00,0.0013
1775.00,0.0013
1774.00,0.0013
1773.00,0.0013
1772.00,0.0013
1771.00,0.0013
1770.00,0.0014
1769.00,0.0015
1768.00,0.0016
1767.00,0.0016
1766.00,0.0016
1765.00,0.0016
1764.00,0.0016
1763.00,0.0016
1762.00,0.0017
1761.00,0.0018
1760.00,0.0018
1759.00,0.0018
1758.00,0.0018
1757.00,0.0018
1756.00,0.0019
1755.00,0.0020
1754.00,0.0021
1753.00,0.0021
1752.00,0.0022
1751.00,0.0022
1750.00,0.0022
1749.00,0.0023
1748.00,0.0024
1747.00,0.0025
1746.00,0.0026
1745.00,0.0027
1744.00,0.0028
1743.00,0.0028
1742.00,0.0028
1741.00,0.0028
1740.00,0.0028
1739.00,0.0029
1738.00,0.0029
1737.00,0.0029
1736.00,0.0029
1735.00,0.0028
1734.00,0.0028
1733.00,0.0028
1732.00,0.0029
1731.00,0.0030
1730.00,0.0030
1729.00,0.0030
1728.00,0.0030
1727.00,0.0029
1726.00,0.0029
1725.00,0.0029
1724.00,0.0029
1723.00,0.0029
1722.00,0.0029
1721.00,0.0029
1720.00,0.0029
1719.00,0.0030
1718.00,0.0030
1717.00,0.0031
1716.00,0.0031
1715.00,0.0031
1714.00,0.0031
1713.00,0.0031
1712.00,0.0031
1711.00,0.0031
1710.00,0.0031
1709.00,0.0031
1708.00,0.0032
1707.00,0.0033
1706.00,0.0033
1705.00,0.0034
1704.00,0.0035
1703.00,0.0036
1702.00,0.0036
1701.00,0.0037
1700.00,0.0038
1699.00,0.0038
1698.00,0.0038
1697.00,0.0038
1696.00,0.0038
1695.00,0.0038
1694.00,0.0039
1693.00,0.0040
1692.00,0.0041
1691.00,0.0042
1690.00,0.0044
1689.00,0.0045
1688.00,0.0045
1687.00,0.0045
1686.00,0.0044
1685.00,0.0045
1684.00,0.0047
1683.00,0.0049
1682.00,0.0050
1681.00,0.0051
1680.00,0.0052
1679.00,0.0053
1678.00,0.0054
1677.00,0.0055
1676.00,0.0056
1675.00,0.0058
1674.00,0.0059
1673.00,0.0060
1672.00,0.0061
1671.00,0.0062
1670.00,0.0063
1669.00,0.0064
1668.00,0.0065
1667.00,0.0065
1666.00,0.0066
1665.00,0.0067
1664.00,0.0068
1663.00,0.0070
1662.00,0.0071
1661.00,0.0072
1660.00,0.0073
1659.00,0.0074
1658.00,0.0076
1657.00,0.0077
1656.00,0.0079
1655.00,0.0080
1654.00,0.0081
1653.00,0.0082
1652.00,0.0085
1651.00,0.0088
1650.00,0.0090
1649.00,0.0094
1648.00,0.0098
1647.00,0.0101
1646.00,0.0102
1645.00,0.0102
1644.00,0.0101
1643.00,0.0100
1642.00,0.0099
1641.00,0.0099
1640.00,0.0098
1639.00,0.0098
1638.00,0.0097
1637.00,0.0096
1636.00,0.0095
1635.00,0.0095
1634.00,0.0095
1633.00,0.0095
1632.00,0.0095
1631.00,0.0095
1630.00,0.0094
1629.00,0.0093
1628.00,0.0092
1627.00,0.0091
1626.00,0.0090
1625.00,0.0089
1624.00,0.0088
1623.00,0.0087
1622.00,0.0085
1621.00,0.0084
1620.00,0.0084
1619.00,0.0083
1618.00,0.0081
1617.00,0.0080
1616.00,0.0079
1615.00,0.0079
1614.00,0.0079
1613.00,0.0079
1612.00,0.0079
1611.00,0.0079
1610.00,0.0078
1609.00,0.0079
1608.00,0.0079
1607.00,0.0079
1606.00,0.0079
1605.00,0.0079
1604.00,0.0079
1603.00,0.0079
1602.00,0.0079
1601.00,0.0078
1600.00,0.0078
1599.00,0.0078
1598.00,0.0077
1597.00,0.0078
1596.00,0.0078
1595.00,0.0078
1594.00,0.0079
1593.00,0.0080
1592.00,0.0081
1591.00,0.0082
1590.00,0.0082
1589.00,0.0083
1588.00,0.0084
1587.00,0.0086
1586.00,0.0088
1585.00,0.0090
1584.00,0.0092
1583.00,0.0095
1582.00,0.0098
1581.00,0.0101
1580.00,0.0104
1579.00,0.0106
1578.00,0.0108
1577.00,0.0108
1576.00,0.0108
1575.00,0.0106
1574.00,0.0103
1573.00,0.0101
1572.00,0.0100
1571.00,0.0098
1570.00,0.0094
1569.00,0.0091
1568.00,0.0089
1567.00,0.0087
1566.00,0.0086
1565.00,0.0085
1564.00,0.0085
1563.00,0.0085
1562.00,0.0085
1561.00,0.0086
1560.00,0.0086
1559.00,0.0084
1558.00,0.0083
1557.00,0.0084
1556.00,0.0086
1555.00,0.0087
1554.00,0.0088
1553.00,0.0090
1552.00,0.0092
1551.00,0.0094
1550.00,0.0096
1549.00,0.0098
1548.00,0.0101
1547.00,0.0105
1546.00,0.0109
1545.00,0.0114
1544.00,0.0119
1543.00,0.0123
1542.00,0.0127
1541.00,0.0131
1540.00,0.0133
1539.00,0.0132
1538.00,0.0130
1537.00,0.0128
1536.00,0.0127
1535.00,0.0124
1534.00,0.0120
1533.00,0.0115
1532.00,0.0111
1531.00,0.0108
1530.00,0.0106
1529.00,0.0104
1528.00,0.0102
1527.00,0.0100
1526.00,0.0097
1525.00,0.0096
1524.00,0.0095
1523.00,0.0094
1522.00,0.0092
1521.00,0.0090
1520.00,0.0089
1519.00,0.0089
1518.00,0.0089
1517.00,0.0089
1516.00,0.0089
1515.00,0.0088
1514.00,0.0087
1513.00,0.0087
1512.00,0.0088
1511.00,0.0088
1510.00,0.0088
1509.00,0.0089
1508.00,0.0089
1507.00,0.0090
1506.00,0.0090
1505.00,0.0092
1504.00,0.0094
1503.00,0.0095
1502.00,0.0097
1501.00,0.0100
1500.00,0.0104
1499.00,0.0108
1498.00,0.0112
1497.00,0.0118
1496.00,0.0125
1495.00,0.0130
1494.00,0.0133
1493.00,0.0137
1492.00,0.0141
1491.00,0.0143
1490.00,0.0146
1489.00,0.0151
1488.00,0.0156
1487.00,0.0161
1486.00,0.0166
1485.00,0.0173
1484.00,0.0180
1483.00,0.0188
1482.00,0.0198
1481.00,0.0209
1480.00,0.0222
1479.00,0.0234
1478.00,0.0250
1477.00,0.0270
1476.00,0.0295
1475.00,0.0325
1474.00,0.0364
1473.00,0.0419
1472.00,0.0485
1471.00,0.0547
1470.00,0.0607
1469.00,0.0669
1468.00,0.0737
1467.00,0.0811
1466.00,0.0896
1465.00,0.0989
1464.00,0.1070
1463.00,0.1127
1462.00,0.1165
1461.00,0.1191
1460.00,0.1209
1459.00,0.1223
1458.00,0.1235
1457.00,0.1246
1456.00,0.1249
1455.00,0.1244
1454.00,0.1235
1453.00,0.1220
1452.00,0.1196
1451.00,0.1160
1450.00,0.1109
1449.00,0.1039
1448.00,0.0949
1447.00,0.0854
1446.00,0.0769
1445.00,0.0695
1444.00,0.0632
1443.00,0.0579
1442.00,0.0539
1441.00,0.0510
1440.00,0.0493
1439.00,0.0485
1438.00,0.0484
1437.00,0.0484
1436.00,0.0474
1435.00,0.0450
1434.00,0.0415
1433.00,0.0374
1432.00,0.0331
1431.00,0.0293
1430.00,0.0263
1429.00,0.0240
1428.00,0.0225
1427.00,0.0216
1426.00,0.0210
1425.00,0.0204
1424.00,0.0199
1423.00,0.0196
1422.00,0.0194
1421.00,0.0192
1420.00,0.0190
1419.00,0.0187
1418.00,0.0185
1417.00,0.0182
1416.00,0.0178
1415.00,0.0176
1414.00,0.0173
1413.00,0.0170
1412.00,0.0166
1411.00,0.0163
1410.00,0.0162
1409.00,0.0160
1408.00,0.0158
1407.00,0.0157
1406.00,0.0157
1405.00,0.0156
1404.00,0.0154
1403.00,0.0155
1402.00,0.0156
1401.00,0.0157
1400.00,0.0157
1399.00,0.0158
1398.00,0.0161
1397.00,0.0163
1396.00,0.0164
1395.00,0.0168
1394.00,0.0172
1393.00,0.0176
1392.00,0.0182
1391.00,0.0189
1390.00,0.0200
1389.00,0.0215
1388.00,0.0237
1387.00,0.0269
1386.00,0.0312
1385.00,0.0369
1384.00,0.0448
1383.00,0.0558
1382.00,0.0706
1381.00,0.0895
1380.00,0.1126
1379.00,0.1384
1378.00,0.1627
1377.00,0.1797
1376.00,0.1843
1375.00,0.1739
1374.00,0.1514
1373.00,0.1252
1372.00,0.1017
1371.00,0.0825
1370.00,0.0672
1369.00,0.0555
1368.00,0.0474
1367.00,0.0424
1366.00,0.0397
1365.00,0.0386
1364.00,0.0387
1363.00,0.0399
1362.00,0.0418
1361.00,0.0438
1360.00,0.0454
1359.00,0.0458
1358.00,0.0448
1357.00,0.0424
1356.00,0.0391
1355.00,0.0352
1354.00,0.0315
1353.00,0.0283
1352.00,0.0257
1351.00,0.0236
1350.00,0.0218
1349.00,0.0204
1348.00,0.0192
1347.00,0.0182
1346.00,0.0173
1345.00,0.0165
1344.00,0.0160
1343.00,0.0156
1342.00,0.0152
1341.00,0.0150
1340.00,0.0147
1339.00,0.0145
1338.00,0.0144
1337.00,0.0143
1336.00,0.0143
1335.00,0.0144
1334.00,0.0147
1333.00,0.0150
1332.00,0.0153
1331.00,0.0156
1330.00,0.0156
1329.00,0.0155
1328.00,0.0153
1327.00,0.0148
1326.00,0.0143
1325.00,0.0138
1324.00,0.0132
1323.00,0.0128
1322.00,0.0124
1321.00,0.0121
1320.00,0.0119
1319.00,0.0117
1318.00,0.0115
1317.00,0.0113
1316.00,0.0112
1315.00,0.0111
1314.00,0.0110
1313.00,0.0110
1312.00,0.0111
1311.00,0.0114
1310.00,0.0118
1309.00,0.0126
1308.00,0.0136
1307.00,0.0149
1306.00,0.0161
1305.00,0.0170
1304.00,0.0172
1303.00,0.0170
1302.00,0.0164
1301.00,0.0158
1300.00,0.0154
1299.00,0.0152
1298.00,0.0151
1297.00,0.0150
1296.00,0.0149
1295.00,0.0146
1294.00,0.0141
1293.00,0.0136
1292.00,0.0131
1291.00,0.0126
1290.00,0.0122
1289.00,0.0119
1288.00,0.0115
1287.00,0.0112
1286.00,0.0109
1285.00,0.0107
1284.00,0.0105
1283.00,0.0104
1282.00,0.0102
1281.00,0.0101
1280.00,0.0100
1279.00,0.0099
1278.00,0.0099
1277.00,0.0098
1276.00,0.0097
1275.00,0.0097
1274.00,0.0096
1273.00,0.0097
1272.00,0.0097
1271.00,0.0099
1270.00,0.0100
1269.00,0.0103
1268.00,0.0105
1267.00,0.0108
1266.00,0.0112
1265.00,0.0115
1264.00,0.0119
1263.00,0.0122
1262.00,0.0126
1261.00,0.0131
1260.00,0.0137
1259.00,0.0146
1258.00,0.0154
1257.00,0.0161
1256.00,0.0164
1255.00,0.0162
1254.00,0.0155
1253.00,0.0144
1252.00,0.0134
1251.00,0.0126
1250.00,0.0119
1249.00,0.0115
1248.00,0.0111
1247.00,0.0108
1246.00,0.0106
1245.00,0.0104
1244.00,0.0103
1243.00,0.0101
1242.00,0.0100
1241.00,0.0099
1240.00,0.0099
1239.00,0.0098
1238.00,0.0097
1237.00,0.0096
1236.00,0.0096
1235.00,0.0095
1234.00,0.0095
1233.00,0.0096
1232.00,0.0096
1231.00,0.0096
1230.00,0.0098
1229.00,0.0099
1228.00,0.0100
1227.00,0.0102
1226.00,0.0104
1225.00,0.0107
1224.00,0.0110
1223.00,0.0113
1222.00,0.0116
1221.00,0.0117
1220.00,0.0118
1219.00,0.0118
1218.00,0.0117
1217.00,0.0116
1216.00,0.0114
1215.00,0.0111
1214.00,0.0107
1213.00,0.0104
1212.00,0.0102
1211.00,0.0100
1210.00,0.0098
1209.00,0.0096
1208.00,0.0095
1207.00,0.0094
1206.00,0.0093
1205.00,0.0093
1204.00,0.0093
1203.00,0.0093
1202.00,0.0093
1201.00,0.0093
1200.00,0.0093
1199.00,0.0093
1198.00,0.0093
1197.00,0.0093
1196.00,0.0094
1195.00,0.0094
1194.00,0.0093
1193.00,0.0093
1192.00,0.0093
1191.00,0.0093
1190.00,0.0094
1189.00,0.0095
1188.00,0.0095
1187.00,0.0096
1186.00,0.0096
1185.00,0.0097
1184.00,0.0098
1183.00,0.0100
1182.00,0.0102
1181.00,0.0106
1180.00,0.0110
1179.00,0.0116
1178.00,0.0124
1177.00,0.0134
1176.00,0.0148
1175.00,0.0165
1174.00,0.0188
1173.00,0.0216
1172.00,0.0250
1171.00,0.0287
1170.00,0.0323
1169.00,0.0350
1168.00,0.0366
1167.00,0.0367
1166.00,0.0356
1165.00,0.0338
1164.00,0.0316
1163.00,0.0296
1162.00,0.0278
1161.00,0.0264
1160.00,0.0254
1159.00,0.0246
1158.00,0.0240
1157.00,0.0235
1156.00,0.0231
1155.00,0.0228
1154.00,0.0225
1153.00,0.0222
1152.00,0.0218
1151.00,0.0211
1150.00,0.0203
1149.00,0.0193
1148.00,0.0184
1147.00,0.0175
1146.00,0.0166
1145.00,0.0158
1144.00,0.0150
1143.00,0.0143
1142.00,0.0137
1141.00,0.0131
1140.00,0.0126
1139.00,0.0122
1138.00,0.0119
1137.00,0.0115
1136.00,0.0113
1135.00,0.0110
1134.00,0.0108
1133.00,0.0106
1132.00,0.0105
1131.00,0.0105
1130.00,0.0106
1129.00,0.0107
1128.00,0.0107
1127.00,0.0107
1126.00,0.0108
1125.00,0.0108
1124.00,0.0109
1123.00,0.0110
1122.00,0.0110
1121.00,0.0111
1120.00,0.0112
1119.00,0.0113
1118.00,0.0115
1117.00,0.0117
1116.00,0.0119
1115.00,0.0120
1114.00,0.0121
1113.00,0.0123
1112.00,0.0125
1111.00,0.0127
1110.00,0.0130
1109.00,0.0133
1108.00,0.0137
1107.00,0.0142
1106.00,0.0148
1105.00,0.0155
1104.00,0.0159
1103.00,0.0162
1102.00,0.0162
1101.00,0.0159
1100.00,0.0156
1099.00,0.0151
1098.00,0.0146
1097.00,0.0141
1096.00,0.0136
1095.00,0.0132
1094.00,0.0129
1093.00,0.0126
1092.00,0.0122
1091.00,0.0120
1090.00,0.0118
1089.00,0.0117
1088.00,0.0117
1087.00,0.0117
1086.00,0.0117
1085.00,0.0117
1084.00,0.0116
1083.00,0.0115
1082.00,0.0114
1081.00,0.0112
1080.00,0.0110
1079.00,0.0108
1078.00,0.0107
1077.00,0.0106
1076.00,0.0106
1075.00,0.0106
1074.00,0.0106
1073.00,0.0106
1072.00,0.0106
1071.00,0.0106
1070.00,0.0106
1069.00,0.0105
1068.00,0.0105
1067.00,0.0104
1066.00,0.0105
1065.00,0.0105
1064.00,0.0105
1063.00,0.0106
1062.00,0.0107
1061.00,0.0108
1060.00,0.0108
1059.00,0.0108
1058.00,0.0107
1057.00,0.0107
1056.00,0.0107
1055.00,0.0108
1054.00,0.0109
1053.00,0.0110
1052.00,0.0112
1051.00,0.0114
1050.00,0.0116
1049.00,0.0118
1048.00,0.0121
1047.00,0.0125
1046.00,0.0128
1045.00,0.0130
1044.00,0.0130
1043.00,0.0128
1042.00,0.0124
1041.00,0.0121
1040.00,0.0120
1039.00,0.0119
1038.00,0.0120
1037.00,0.0121
1036.00,0.0120
1035.00,0.0119
1034.00,0.0118
1033.00,0.0116
1032.00,0.0115
1031.00,0.0114
1030.00,0.0113
1029.00,0.0113
1028.00,0.0112
1027.00,0.0112
1026.00,0.0112
1025.00,0.0112
1024.00,0.0112
1023.00,0.0113
1022.00,0.0113
1021.00,0.0114
1020.00,0.0114
1019.00,0.0113
1018.00,0.0113
1017.00,0.0113
1016.00,0.0114
1015.00,0.0116
1014.00,0.0119
1013.00,0.0123
1012.00,0.0126
1011.00,0.0129
1010.00,0.0132
1009.00,0.0137
1008.00,0.0142
1007.00,0.0150
1006.00,0.0159
1005.00,0.0172
1004.00,0.0190
1003.00,0.0216
1002.00,0.0251
1001.00,0.0296
1000.00,0.0343
999.00,0.0383
998.00,0.0402
997.00,0.0395
996.00,0.0364
995.00,0.0318
994.00,0.0271
993.00,0.0230
992.00,0.0199
991.00,0.0176
990.00,0.0159
989.00,0.0148
988.00,0.0140
987.00,0.0136
986.00,0.0134
985.00,0.0135
984.00,0.0139
983.00,0.0146
982.00,0.0159
981.00,0.0177
980.00,0.0201
979.00,0.0234
978.00,0.0276
977.00,0.0325
976.00,0.0378
975.00,0.0427
974.00,0.0462
973.00,0.0474
972.00,0.0456
971.00,0.0411
970.00,0.0352
969.00,0.0292
968.00,0.0242
967.00,0.0203
966.00,0.0176
965.00,0.0156
964.00,0.0142
963.00,0.0131
962.00,0.0122
961.00,0.0116
960.00,0.0111
959.00,0.0107
958.00,0.0104
957.00,0.0101
956.00,0.0098
955.00,0.0095
954.00,0.0093
953.00,0.0091
952.00,0.0090
951.00,0.0089
950.00,0.0088
949.00,0.0087
948.00,0.0087
947.00,0.0088
946.00,0.0089
945.00,0.0091
944.00,0.0093
943.00,0.0096
942.00,0.0100
941.00,0.0104
940.00,0.0105
939.00,0.0104
938.00,0.0100
937.00,0.0094
936.00,0.0088
935.00,0.0084
934.00,0.0081
933.00,0.0079
932.00,0.0078
931.00,0.0076
930.00,0.0075
929.00,0.0073
928.00,0.0072
927.00,0.0072
926.00,0.0072
925.00,0.0072
924.00,0.0072
923.00,0.0071
922.00,0.0071
921.00,0.0071
920.00,0.0071
919.00,0.0070
918.00,0.0070
917.00,0.0070
916.00,0.0071
915.00,0.0072
914.00,0.0074
913.00,0.0076
912.00,0.0078
911.00,0.0079
910.00,0.0079
909.00,0.0081
908.00,0.0084
907.00,0.0090
906.00,0.0098
905.00,0.0109
904.00,0.0123
903.00,0.0139
902.00,0.0156
901.00,0.0172
900.00,0.0183
899.00,0.0185
898.00,0.0178
897.00,0.0164
896.00,0.0146
895.00,0.0129
894.00,0.0116
893.00,0.0106
892.00,0.0100
891.00,0.0095
890.00,0.0092
889.00,0.0090
888.00,0.0088
887.00,0.0087
886.00,0.0086
885.00,0.0085
884.00,0.0085
883.00,0.0086
882.00,0.0087
881.00,0.0089
880.00,0.0092
879.00,0.0096
878.00,0.0100
877.00,0.0102
876.00,0.0103
875.00,0.0104
874.00,0.0105
873.00,0.0104
872.00,0.0102
871.00,0.0099
870.00,0.0096
869.00,0.0094
868.00,0.0092
867.00,0.0091
866.00,0.0091
865.00,0.0091
864.00,0.0092
863.00,0.0094
862.00,0.0096
861.00,0.0097
860.00,0.0099
859.00,0.0100
858.00,0.0102
857.00,0.0104
856.00,0.0104
855.00,0.0105
854.00,0.0107
853.00,0.0110
852.00,0.0113
851.00,0.0117
850.00,0.0122
849.00,0.0130
848.00,0.0140
847.00,0.0155
846.00,0.0179
845.00,0.0217
844.00,0.0271
843.00,0.0332
842.00,0.0379
841.00,0.0392
840.00,0.0363
839.00,0.0307
838.00,0.0248
837.00,0.0202
836.00,0.0173
835.00,0.0155
834.00,0.0143
833.00,0.0135
832.00,0.0130
831.00,0.0127
830.00,0.0125
829.00,0.0124
828.00,0.0122
827.00,0.0120
826.00,0.0118
825.00,0.0117
824.00,0.0117
823.00,0.0116
822.00,0.0116
821.00,0.0116
820.00,0.0118
819.00,0.0121
818.00,0.0126
817.00,0.0133
816.00,0.0141
815.00,0.0152
814.00,0.0166
813.00,0.0183
812.00,0.0201
811.00,0.0217
810.00,0.0229
809.00,0.0233
808.00,0.0230
807.00,0.0218
806.00,0.0202
805.00,0.0185
804.00,0.0168
803.00,0.0155
802.00,0.0144
801.00,0.0135
800.00,0.0128
799.00,0.0122
798.00,0.0117
797.00,0.0114
796.00,0.0112
795.00,0.0110
794.00,0.0108
793.00,0.0105
792.00,0.0101
791.00,0.0098
790.00,0.0096
789.00,0.0093
788.00,0.0089
787.00,0.0086
786.00,0.0083
785.00,0.0081
784.00,0.0079
783.00,0.0077
782.00,0.0075
781.00,0.0075
780.00,0.0074
779.00,0.0074
778.00,0.0074
777.00,0.0074
776.00,0.0074
775.00,0.0073
774.00,0.0072
773.00,0.0071
772.00,0.0070
771.00,0.0070
770.00,0.0071
769.00,0.0072
768.00,0.0074
767.00,0.0076
766.00,0.0076
765.00,0.0076
764.00,0.0076
763.00,0.0076
762.00,0.0076
761.00,0.0077
760.00,0.0078
759.00,0.0078
758.00,0.0079
757.00,0.0079
756.00,0.0079
755.00,0.0078
754.00,0.0078
753.00,0.0078
752.00,0.0078
751.00,0.0079
750.00,0.0080
749.00,0.0080
748.00,0.0080
747.00,0.0081
746.00,0.0081
745.00,0.0082
744.00,0.0084
743.00,0.0087
742.00,0.0090
741.00,0.0092
740.00,0.0093
739.00,0.0095
738.00,0.0098
737.00,0.0102
736.00,0.0105
735.00,0.0108
734.00,0.0112
733.00,0.0118
732.00,0.0125
731.00,0.0133
730.00,0.0140
729.00,0.0145
728.00,0.0147
727.00,0.0147
726.00,0.0147
725.00,0.0148
724.00,0.0151
723.00,0.0156
722.00,0.0160
721.00,0.0162
720.00,0.0160
719.00,0.0154
718.00,0.0145
717.00,0.0135
716.00,0.0127
715.00,0.0120
714.00,0.0115
713.00,0.0112
712.00,0.0109
711.00,0.0107
710.00,0.0105
709.00,0.0103
708.00,0.0099
707.00,0.0096
706.00,0.0094
705.00,0.0092
704.00,0.0091
703.00,0.0090
702.00,0.0089
701.00,0.0088
700.00,0.0086
699.00,0.0085
698.00,0.0083
697.00,0.0083
696.00,0.0084
695.00,0.0084
694.00,0.0085
693.00,0.0084
692.00,0.0082
691.00,0.0079
690.00,0.0077
689.00,0.0076
688.00,0.0076
687.00,0.0076
686.00,0.0076
685.00,0.0076
684.00,0.0076
683.00,0.0076
682.00,0.0076
681.00,0.0077
680.00,0.0079
679.00,0.0079
678.00,0.0080
677.00,0.0080
676.00,0.0080
675.00,0.0081
674.00,0.0081
673.00,0.0082
672.00,0.0082
671.00,0.0080
670.00,0.0078
669.00,0.0076
668.00,0.0077
667.00,0.0079
666.00,0.0081
665.00,0.0081
664.00,0.0080
663.00,0.0079
662.00,0.0080
661.00,0.0081
660.00,0.0082
659.00,0.0083
658.00,0.0083
657.00,0.0082
656.00,0.0081
655.00,0.0081
654.00,0.0081
653.00,0.0080
652.00,0.0079
651.00,0.0078
650.00,0.0077
649.00,0.0077
648.00,0.0077
647.00,0.0076
646.00,0.0074
645.00,0.0073
644.00,0.0074
643.00,0.0075
642.00,0.0077
641.00,0.0079
640.00,0.0080
639.00,0.0081
638.00,0.0082
637.00,0.0082
636.00,0.0081
635.00,0.0080
634.00,0.0080
633.00,0.0079
632.00,0.0079
631.00,0.0080
630.00,0.0081
629.00,0.0081
628.00,0.0081
627.00,0.0080
626.00,0.0080
625.00,0.0081
624.00,0.0083
623.00,0.0084
622.00,0.0084
621.00,0.0083
620.00,0.0082
619.00,0.0081
618.00,0.0080
617.00,0.0080
616.00,0.0080
615.00,0.0081
614.00,0.0083
613.00,0.0084
612.00,0.0084
611.00,0.0083
610.00,0.0082
609.00,0.0081
608.00,0.0081
607.00,0.0080
606.00,0.0080
605.00,0.0079
604.00,0.0079
603.00,0.0080
602.00,0.0080
601.00,0.0081
600.00,0.0083
599.00,0.0085
598.00,0.0086
597.00,0.0087
596.00,0.0086
595.00,0.0085
594.00,0.0086
593.00,0.0087
592.00,0.0086
591.00,0.0084
590.00,0.0083
589.00,0.0082
588.00,0.0082
587.00,0.0081
586.00,0.0080
585.00,0.0080
584.00,0.0082
583.00,0.0086
582.00,0.0089
581.00,0.0092
580.00,0.0094
579.00,0.0095
578.00,0.0094
577.00,0.0090
576.00,0.0086
575.00,0.0083
574.00,0.0084
573.00,0.0087
572.00,0.0088
571.00,0.0088
570.00,0.0085
569.00,0.0083
568.00,0.0083
567.00,0.0082
566.00,0.0082
565.00,0.0081
564.00,0.0082
563.00,0.0083
562.00,0.0085
561.00,0.0087
560.00,0.0087
559.00,0.0086
558.00,0.0085
557.00,0.0084
556.00,0.0083
555.00,0.0083
554.00,0.0084
553.00,0.0086
552.00,0.0088
551.00,0.0089
550.00,0.0091
549.00,0.0091
548.00,0.0090
547.00,0.0089
546.00,0.0089
545.00,0.0090
544.00,0.0091
543.00,0.0092
542.00,0.0092
541.00,0.0092
540.00,0.0091
539.00,0.0091
538.00,0.0092
537.00,0.0092
536.00,0.0094
535.00,0.0097
534.00,0.0098
533.00,0.0097
532.00,0.0095
531.00,0.0095
530.00,0.0098
529.00,0.0103
528.00,0.0107
527.00,0.0107
526.00,0.0104
525.00,0.0099
524.00,0.0096
523.00,0.0099
522.00,0.0104
521.00,0.0110
520.00,0.0113
519.00,0.0112
518.00,0.0108
517.00,0.0103
516.00,0.0100
515.00,0.0101
514.00,0.0103
513.00,0.0104
512.00,0.0100
511.00,0.0092
510.00,0.0085
509.00,0.0080
508.00,0.0077
507.00,0.0077
506.00,0.0078
505.00,0.0078
504.00,0.0078
503.00,0.0081
502.00,0.0088
501.00,0.0094
500.00,0.0092
499.00,0.0085
498.00,0.0079
497.00,0.0079
496.00,0.0082
495.00,0.0086
494.00,0.0087
493.00,0.0087
492.00,0.0088
491.00,0.0091
490.00,0.0094
489.00,0.0095
488.00,0.0093
487.00,0.0087
486.00,0.0079
485.00,0.0075
484.00,0.0076
483.00,0.0083
482.00,0.0091
481.00,0.0095
480.00,0.0094
479.00,0.0089
478.00,0.0085
477.00,0.0090
476.00,0.0103
475.00,0.0118
474.00,0.0124
473.00,0.0116
472.00,0.0104
471.00,0.0099
470.00,0.0104
469.00,0.0109
468.00,0.0113
467.00,0.0114
466.00,0.0113
465.00,0.0112
464.00,0.0114
463.00,0.0126
462.00,0.0149
461.00,0.0173
460.00,0.0187
459.00,0.0186
458.00,0.0173
457.00,0.0157
456.00,0.0146
455.00,0.0149
454.00,0.0159
453.00,0.0167
452.00,0.0165
451.00,0.0152
450.00,0.0135
