Created as New Dataset,Sample 102 By Administrator Date Friday, September 05 2025
cm-1,A
4000.00,0.0013
3999.00,0.0013
3998.00,0.0013
3997.00,0.0013
3996.00,0.0013
3995.00,0.0013
3994.00,0.0013
3993.00,0.0013
3992.00,0.0013
3991.00,0.0013
3990.00,0.0013
3989.00,0.0013
3988.00,0.0013
3987.00,0.0013
3986.00,0.0013
3985.00,0.0013
3984.00,0.0013
3983.00,0.0013
3982.00,0.0012
3981.00,0.0012
3980.00,0.0012
3979.00,0.0012
3978.00,0.0012
3977.00,0.0011
3976.00,0.0011
3975.00,0.0011
3974.00,0.0011
3973.00,0.0011
3972.00,0.0011
3971.00,0.0011
3970.00,0.0011
3969.00,0.0012
3968.00,0.0012
3967.00,0.0012
3966.00,0.0012
3965.00,0.0012
3964.00,0.0012
3963.00,0.0012
3962.00,0.0012
3961.00,0.0012
3960.00,0.0012
3959.00,0.0011
3958.00,0.0011
3957.00,0.0011
3956.00,0.0011
3955.00,0.0011
3954.00,0.0011
3953.00,0.0011
3952.00,0.0011
3951.00,0.0011
3950.00,0.0011
3949.00,0.0011
3948.00,0.0011
3947.00,0.0011
3946.00,0.0011
3945.00,0.0011
3944.00,0.0011
3943.00,0.0011
3942.00,0.0011
3941.00,0.0011
3940.00,0.0011
3939.00,0.0011
3938.00,0.0011
3937.00,0.0011
3936.00,0.0011
3935.00,0.0011
3934.00,0.0011
3933.00,0.0011
3932.00,0.0011
3931.00,0.0011
3930.00,0.0011
3929.00,0.0011
3928.00,0.0011
3927.00,0.0011
3926.00,0.0012
3925.00,0.0012
3924.00,0.0012
3923.00,0.0012
3922.00,0.0012
3921.00,0.0012
3920.00,0.0012
3919.00,0.0012
3918.00,0.0012
3917.00,0.0012
3916.00,0.0012
3915.00,0.0012
3914.00,0.0011
3913.00,0.0011
3912.00,0.0011
3911.00,0.0011
3910.00,0.0011
3909.00,0.0011
3908.00,0.0011
3907.00,0.0011
3906.00,0.0010
3905.00,0.0010
3904.00,0.0010
3903.00,0.0010
3902.00,0.0011
3901.00,0.0011
3900.00,0.0011
3899.00,0.0011
3898.00,0.0012
3897.00,0.0012
3896.00,0.0012
3895.00,0.0011
3894.00,0.0011
3893.00,0.0011
3892.00,0.0011
3891.00,0.0011
3890.00,0.0011
3889.00,0.0011
3888.00,0.0011
3887.00,0.0010
3886.00,0.0010
3885.00,0.0011
3884.00,0.0011
3883.00,0.0011
3882.00,0.0011
3881.00,0.0011
3880.00,0.0011
3879.00,0.0011
3878.00,0.0010
3877.00,0.0010
3876.00,0.0010
3875.00,0.0009
3874.00,0.0009
3873.00,0.0009
3872.00,0.0010
3871.00,0.0010
3870.00,0.0010
3869.00,0.0010
3868.00,0.0011
3867.00,0.0010
3866.00,0.0010
3865.00,0.0009
3864.00,0.0009
3863.00,0.0010
3862.00,0.0010
3861.00,0.0010
3860.00,0.0010
3859.00,0.0011
3858.00,0.0011
3857.00,0.0012
3856.00,0.0012
3855.00,0.0012
3854.00,0.0012
3853.00,0.0012
3852.00,0.0012
3851.00,0.0012
3850.00,0.0011
3849.00,0.0011
3848.00,0.0011
3847.00,0.0010
3846.00,0.0010
3845.00,0.0010
3844.00,0.0010
3843.00,0.0010
3842.00,0.0010
3841.00,0.0010
3840.00,0.0010
3839.00,0.0010
3838.00,0.0011
3837.00,0.0011
3836.00,0.0011
3835.00,0.0011
3834.00,0.0010
3833.00,0.0010
3832.00,0.0010
3831.00,0.0010
3830.00,0.0010
3829.00,0.0010
3828.00,0.0010
3827.00,0.0010
3826.00,0.0010
3825.00,0.0010
3824.00,0.0010
3823.00,0.0010
3822.00,0.0010
3821.00,0.0011
3820.00,0.0011
3819.00,0.0012
3818.00,0.0012
3817.00,0.0011
3816.00,0.0011
3815.00,0.0011
3814.00,0.0011
3813.00,0.0010
3812.00,0.0010
3811.00,0.0010
3810.00,0.0010
3809.00,0.0011
3808.00,0.0011
3807.00,0.0011
3806.00,0.0011
3805.00,0.0012
3804.00,0.0012
3803.00,0.0011
3802.00,0.0011
3801.00,0.0011
3800.00,0.0011
3799.00,0.0011
3798.00,0.0011
3797.00,0.0011
3796.00,0.0010
3795.00,0.0010
3794.00,0.0010
3793.00,0.0010
3792.00,0.0010
3791.00,0.0010
3790.00,0.0011
3789.00,0.0011
3788.00,0.0011
3787.00,0.0011
3786.00,0.0011
3785.00,0.0010
3784.00,0.0010
3783.00,0.0010
3782.00,0.0010
3781.00,0.0010
3780.00,0.0010
3779.00,0.0010
3778.00,0.0010
3777.00,0.0010
3776.00,0.0010
3775.00,0.0011
3774.00,0.0011
3773.00,0.0011
3772.00,0.0011
3771.00,0.0011
3770.00,0.0011
3769.00,0.0011
3768.00,0.0011
3767.00,0.0011
3766.00,0.0011
3765.00,0.0011
3764.00,0.0011
3763.00,0.0011
3762.00,0.0011
3761.00,0.0011
3760.00,0.0011
3759.00,0.0011
3758.00,0.0011
3757.00,0.0011
3756.00,0.0011
3755.00,0.0011
3754.00,0.0010
3753.00,0.0010
3752.00,0.0009
3751.00,0.0008
3750.00,0.0008
3749.00,0.0009
3748.00,0.0010
3747.00,0.0011
3746.00,0.0011
3745.00,0.0011
3744.00,0.0011
3743.00,0.0011
3742.00,0.0010
3741.00,0.0010
3740.00,0.0009
3739.00,0.0009
3738.00,0.0009
3737.00,0.0008
3736.00,0.0008
3735.00,0.0009
3734.00,0.0009
3733.00,0.0009
3732.00,0.0009
3731.00,0.0010
3730.00,0.0010
3729.00,0.0010
3728.00,0.0010
3727.00,0.0010
3726.00,0.0009
3725.00,0.0009
3724.00,0.0009
3723.00,0.0009
3722.00,0.0010
3721.00,0.0010
3720.00,0.0010
3719.00,0.0010
3718.00,0.0010
3717.00,0.0009
3716.00,0.0009
3715.00,0.0009
3714.00,0.0009
3713.00,0.0009
3712.00,0.0008
3711.00,0.0008
3710.00,0.0008
3709.00,0.0008
3708.00,0.0008
3707.00,0.0008
3706.00,0.0008
3705.00,0.0008
3704.00,0.0008
3703.00,0.0008
3702.00,0.0008
3701.00,0.0008
3700.00,0.0009
3699.00,0.0009
3698.00,0.0009
3697.00,0.0009
3696.00,0.0009
3695.00,0.0009
3694.00,0.0009
3693.00,0.0009
3692.00,0.0009
3691.00,0.0008
3690.00,0.0008
3689.00,0.0008
3688.00,0.0009
3687.00,0.0009
3686.00,0.0010
3685.00,0.0010
3684.00,0.0010
3683.00,0.0009
3682.00,0.0009
3681.00,0.0009
3680.00,0.0009
3679.00,0.0009
3678.00,0.0010
3677.00,0.0010
3676.00,0.0010
3675.00,0.0010
3674.00,0.0010
3673.00,0.0010
3672.00,0.0010
3671.00,0.0010
3670.00,0.0010
3669.00,0.0010
3668.00,0.0010
3667.00,0.0010
3666.00,0.0009
3665.00,0.0009
3664.00,0.0008
3663.00,0.0009
3662.00,0.0009
3661.00,0.0010
3660.00,0.0010
3659.00,0.0009
3658.00,0.0009
3657.00,0.0009
3656.00,0.0008
3655.00,0.0009
3654.00,0.0009
3653.00,0.0009
3652.00,0.0009
3651.00,0.0009
3650.00,0.0009
3649.00,0.0010
3648.00,0.0010
3647.00,0.0010
3646.00,0.0010
3645.00,0.0010
3644.00,0.0010
3643.00,0.0011
3642.00,0.0011
3641.00,0.0011
3640.00,0.0012
3639.00,0.0012
3638.00,0.0012
3637.00,0.0011
3636.00,0.0011
3635.00,0.0011
3634.00,0.0011
3633.00,0.0011
3632.00,0.0011
3631.00,0.0011
3630.00,0.0011
3629.00,0.0012
3628.00,0.0012
3627.00,0.0012
3626.00,0.0012
3625.00,0.0011
3624.00,0.0011
3623.00,0.0011
3622.00,0.0011
3621.00,0.0011
3620.00,0.0012
3619.00,0.0012
3618.00,0.0012
3617.00,0.0012
3616.00,0.0013
3615.00,0.0013
3614.00,0.0014
3613.00,0.0014
3612.00,0.0014
3611.00,0.0014
3610.00,0.0014
3609.00,0.0014
3608.00,0.0014
3607.00,0.0015
3606.00,0.0015
3605.00,0.0014
3604.00,0.0014
3603.00,0.0014
3602.00,0.0015
3601.00,0.0015
3600.00,0.0016
3599.00,0.0016
3598.00,0.0016
3597.00,0.0016
3596.00,0.0016
3595.00,0.0016
3594.00,0.0016
3593.00,0.0017
3592.00,0.0017
3591.00,0.0017
3590.00,0.0017
3589.00,0.0017
3588.00,0.0017
3587.00,0.0018
3586.00,0.0018
3585.00,0.0018
3584.00,0.0018
3583.00,0.0019
3582.00,0.0019
3581.00,0.0019
3580.00,0.0019
3579.00,0.0018
3578.00,0.0018
3577.00,0.0018
3576.00,0.0018
3575.00,0.0018
3574.00,0.0019
3573.00,0.0019
3572.00,0.0020
3571.00,0.0020
3570.00,0.0019
3569.00,0.0020
3568.00,0.0020
3567.00,0.0021
3566.00,0.0022
3565.00,0.0023
3564.00,0.0023
3563.00,0.0023
3562.00,0.0023
3561.00,0.0024
3560.00,0.0024
3559.00,0.0024
3558.00,0.0025
3557.00,0.0025
3556.00,0.0025
3555.00,0.0025
3554.00,0.0025
3553.00,0.0025
3552.00,0.0025
3551.00,0.0025
3550.00,0.0025
3549.00,0.0026
3548.00,0.0026
3547.00,0.0026
3546.00,0.0026
3545.00,0.0026
3544.00,0.0026
3543.00,0.0026
3542.00,0.0026
3541.00,0.0026
3540.00,0.0026
3539.00,0.0026
3538.00,0.0026
3537.00,0.0026
3536.00,0.0027
3535.00,0.0027
3534.00,0.0027
3533.00,0.0027
3532.00,0.0028
3531.00,0.0028
3530.00,0.0028
3529.00,0.0028
3528.00,0.0028
3527.00,0.0029
3526.00,0.0029
3525.00,0.0029
3524.00,0.0028
3523.00,0.0028
3522.00,0.0028
3521.00,0.0028
3520.00,0.0029
3519.00,0.0030
3518.00,0.0030
3517.00,0.0031
3516.00,0.0031
3515.00,0.0031
3514.00,0.0031
3513.00,0.0031
3512.00,0.0031
3511.00,0.0031
3510.00,0.0030
3509.00,0.0030
3508.00,0.0030
3507.00,0.0030
3506.00,0.0030
3505.00,0.0030
3504.00,0.0031
3503.00,0.0031
3502.00,0.0031
3501.00,0.0032
3500.00,0.0033
3499.00,0.0033
3498.00,0.0033
3497.00,0.0033
3496.00,0.0033
3495.00,0.0032
3494.00,0.0032
3493.00,0.0033
3492.00,0.0033
3491.00,0.0033
3490.00,0.0034
3489.00,0.0034
3488.00,0.0034
3487.00,0.0034
3486.00,0.0034
3485.00,0.0034
3484.00,0.0034
3483.00,0.0034
3482.00,0.0035
3481.00,0.0035
3480.00,0.0036
3479.00,0.0036
3478.00,0.0036
3477.00,0.0036
3476.00,0.0036
3475.00,0.0037
3474.00,0.0037
3473.00,0.0037
3472.00,0.0037
3471.00,0.0038
3470.00,0.0038
3469.00,0.0038
3468.00,0.0037
3467.00,0.0038
3466.00,0.0038
3465.00,0.0038
3464.00,0.0038
3463.00,0.0038
3462.00,0.0038
3461.00,0.0039
3460.00,0.0039
3459.00,0.0039
3458.00,0.0040
3457.00,0.0040
3456.00,0.0040
3455.00,0.0040
3454.00,0.0040
3453.00,0.0040
3452.00,0.0040
3451.00,0.0040
3450.00,0.0041
3449.00,0.0041
3448.00,0.0042
3447.00,0.0042
3446.00,0.0042
3445.00,0.0042
3444.00,0.0042
3443.00,0.0042
3442.00,0.0043
3441.00,0.0043
3440.00,0.0043
3439.00,0.0043
3438.00,0.0043
3437.00,0.0043
3436.00,0.0043
3435.00,0.0043
3434.00,0.0043
3433.00,0.0044
3432.00,0.0044
3431.00,0.0044
3430.00,0.0044
3429.00,0.0045
3428.00,0.0045
3427.00,0.0045
3426.00,0.0046
3425.00,0.0046
3424.00,0.0046
3423.00,0.0046
3422.00,0.0046
3421.00,0.0046
3420.00,0.0046
3419.00,0.0045
3418.00,0.0046
3417.00,0.0046
3416.00,0.0047
3415.00,0.0048
3414.00,0.0048
3413.00,0.0049
3412.00,0.0049
3411.00,0.0050
3410.00,0.0050
3409.00,0.0050
3408.00,0.0050
3407.00,0.0049
3406.00,0.0049
3405.00,0.0048
3404.00,0.0049
3403.00,0.0049
3402.00,0.0049
3401.00,0.0050
3400.00,0.0050
3399.00,0.0050
3398.00,0.0051
3397.00,0.0051
3396.00,0.0051
3395.00,0.0051
3394.00,0.0051
3393.00,0.0050
3392.00,0.0050
3391.00,0.0051
3390.00,0.0051
3389.00,0.0051
3388.00,0.0051
3387.00,0.0052
3386.00,0.0052
3385.00,0.0051
3384.00,0.0051
3383.00,0.0051
3382.00,0.0051
3381.00,0.0051
3380.00,0.0051
3379.00,0.0050
3378.00,0.0050
3377.00,0.0051
3376.00,0.0051
3375.00,0.0051
3374.00,0.0052
3373.00,0.0052
3372.00,0.0052
3371.00,0.0052
3370.00,0.0052
3369.00,0.0052
3368.00,0.0052
3367.00,0.0052
3366.00,0.0053
3365.00,0.0053
3364.00,0.0053
3363.00,0.0053
3362.00,0.0053
3361.00,0.0053
3360.00,0.0053
3359.00,0.0053
3358.00,0.0053
3357.00,0.0053
3356.00,0.0053
3355.00,0.0053
3354.00,0.0054
3353.00,0.0054
3352.00,0.0055
3351.00,0.0055
3350.00,0.0055
3349.00,0.0055
3348.00,0.0055
3347.00,0.0054
3346.00,0.0054
3345.00,0.0054
3344.00,0.0054
3343.00,0.0054
3342.00,0.0054
3341.00,0.0054
3340.00,0.0055
3339.00,0.0055
3338.00,0.0055
3337.00,0.0055
3336.00,0.0055
3335.00,0.0055
3334.00,0.0055
3333.00,0.0055
3332.00,0.0055
3331.00,0.0056
3330.00,0.0056
3329.00,0.0056
3328.00,0.0057
3327.00,0.0057
3326.00,0.0057
3325.00,0.0056
3324.00,0.0056
3323.00,0.0056
3322.00,0.0057
3321.00,0.0057
3320.00,0.0057
3319.00,0.0057
3318.00,0.0057
3317.00,0.0058
3316.00,0.0058
3315.00,0.0058
3314.00,0.0058
3313.00,0.0058
3312.00,0.0058
3311.00,0.0058
3310.00,0.0057
3309.00,0.0058
3308.00,0.0058
3307.00,0.0058
3306.00,0.0058
3305.00,0.0058
3304.00,0.0057
3303.00,0.0057
3302.00,0.0057
3301.00,0.0057
3300.00,0.0057
3299.00,0.0057
3298.00,0.0057
3297.00,0.0056
3296.00,0.0056
3295.00,0.0056
3294.00,0.0056
3293.00,0.0056
3292.00,0.0056
3291.00,0.0055
3290.00,0.0055
3289.00,0.0055
3288.00,0.0055
3287.00,0.0055
3286.00,0.0055
3285.00,0.0054
3284.00,0.0053
3283.00,0.0053
3282.00,0.0053
3281.00,0.0053
3280.00,0.0053
3279.00,0.0053
3278.00,0.0053
3277.00,0.0053
3276.00,0.0052
3275.00,0.0052
3274.00,0.0052
3273.00,0.0052
3272.00,0.0052
3271.00,0.0052
3270.00,0.0051
3269.00,0.0051
3268.00,0.0051
3267.00,0.0051
3266.00,0.0050
3265.00,0.0050
3264.00,0.0050
3263.00,0.0050
3262.00,0.0050
3261.00,0.0050
3260.00,0.0050
3259.00,0.0049
3258.00,0.0049
3257.00,0.0048
3256.00,0.0048
3255.00,0.0047
3254.00,0.0047
3253.00,0.0047
3252.00,0.0047
3251.00,0.0047
3250.00,0.0047
3249.00,0.0047
3248.00,0.0047
3247.00,0.0047
3246.00,0.0046
3245.00,0.0046
3244.00,0.0046
3243.00,0.0047
3242.00,0.0047
3241.00,0.0047
3240.00,0.0047
3239.00,0.0047
3238.00,0.0047
3237.00,0.0047
3236.00,0.0047
3235.00,0.0047
3234.00,0.0047
3233.00,0.0048
3232.00,0.0048
3231.00,0.0048
3230.00,0.0049
3229.00,0.0049
3228.00,0.0049
3227.00,0.0049
3226.00,0.0049
3225.00,0.0049
3224.00,0.0049
3223.00,0.0049
3222.00,0.0049
3221.00,0.0049
3220.00,0.0050
3219.00,0.0050
3218.00,0.0050
3217.00,0.0051
3216.00,0.0051
3215.00,0.0052
3214.00,0.0052
3213.00,0.0053
3212.00,0.0053
3211.00,0.0053
3210.00,0.0053
3209.00,0.0053
3208.00,0.0053
3207.00,0.0054
3206.00,0.0054
3205.00,0.0054
3204.00,0.0054
3203.00,0.0054
3202.00,0.0054
3201.00,0.0053
3200.00,0.0053
3199.00,0.0053
3198.00,0.0054
3197.00,0.0054
3196.00,0.0054
3195.00,0.0054
3194.00,0.0054
3193.00,0.0054
3192.00,0.0054
3191.00,0.0053
3190.00,0.0053
3189.00,0.0053
3188.00,0.0052
3187.00,0.0052
3186.00,0.0052
3185.00,0.0052
3184.00,0.0051
3183.00,0.0051
3182.00,0.0051
3181.00,0.0050
3180.00,0.0050
3179.00,0.0050
3178.00,0.0050
3177.00,0.0049
3176.00,0.0049
3175.00,0.0049
3174.00,0.0049
3173.00,0.0049
3172.00,0.0049
3171.00,0.0048
3170.00,0.0048
3169.00,0.0048
3168.00,0.0048
3167.00,0.0047
3166.00,0.0047
3165.00,0.0046
3164.00,0.0046
3163.00,0.0046
3162.00,0.0046
3161.00,0.0046
3160.00,0.0046
3159.00,0.0046
3158.00,0.0046
3157.00,0.0046
3156.00,0.0047
3155.00,0.0047
3154.00,0.0047
3153.00,0.0046
3152.00,0.0046
3151.00,0.0046
3150.00,0.0046
3149.00,0.0045
3148.00,0.0045
3147.00,0.0045
3146.00,0.0045
3145.00,0.0045
3144.00,0.0045
3143.00,0.0045
3142.00,0.0045
3141.00,0.0045
3140.00,0.0044
3139.00,0.0044
3138.00,0.0043
3137.00,0.0043
3136.00,0.0043
3135.00,0.0042
3134.00,0.0042
3133.00,0.0042
3132.00,0.0042
3131.00,0.0043
3130.00,0.0043
3129.00,0.0043
3128.00,0.0043
3127.00,0.0043
3126.00,0.0042
3125.00,0.0042
3124.00,0.0042
3123.00,0.0042
3122.00,0.0041
3121.00,0.0040
3120.00,0.0040
3119.00,0.0039
3118.00,0.0039
3117.00,0.0039
3116.00,0.0039
3115.00,0.0039
3114.00,0.0039
3113.00,0.0039
3112.00,0.0039
3111.00,0.0039
3110.00,0.0039
3109.00,0.0038
3108.00,0.0038
3107.00,0.0038
3106.00,0.0038
3105.00,0.0038
3104.00,0.0039
3103.00,0.0039
3102.00,0.0038
3101.00,0.0038
3100.00,0.0038
3099.00,0.0037
3098.00,0.0037
3097.00,0.0037
3096.00,0.0038
3095.00,0.0038
3094.00,0.0038
3093.00,0.0038
3092.00,0.0037
3091.00,0.0037
3090.00,0.0037
3089.00,0.0037
3088.00,0.0037
3087.00,0.0037
3086.00,0.0038
3085.00,0.0038
3084.00,0.0037
3083.00,0.0037
3082.00,0.0037
3081.00,0.0037
3080.00,0.0037
3079.00,0.0037
3078.00,0.0037
3077.00,0.0037
3076.00,0.0037
3075.00,0.0037
3074.00,0.0037
3073.00,0.0038
3072.00,0.0038
3071.00,0.0038
3070.00,0.0038
3069.00,0.0038
3068.00,0.0038
3067.00,0.0039
3066.00,0.0039
3065.00,0.0039
3064.00,0.0039
3063.00,0.0039
3062.00,0.0039
3061.00,0.0039
3060.00,0.0039
3059.00,0.0039
3058.00,0.0039
3057.00,0.0039
3056.00,0.0039
3055.00,0.0039
3054.00,0.0039
3053.00,0.0040
3052.00,0.0040
3051.00,0.0041
3050.00,0.0041
3049.00,0.0041
3048.00,0.0041
3047.00,0.0041
3046.00,0.0041
3045.00,0.0041
3044.00,0.0042
3043.00,0.0042
3042.00,0.0042
3041.00,0.0042
3040.00,0.0043
3039.00,0.0043
3038.00,0.0043
3037.00,0.0043
3036.00,0.0044
3035.00,0.0044
3034.00,0.0045
3033.00,0.0045
3032.00,0.0046
3031.00,0.0046
3030.00,0.0046
3029.00,0.0047
3028.00,0.0047
3027.00,0.0047
3026.00,0.0048
3025.00,0.0048
3024.00,0.0048
3023.00,0.0049
3022.00,0.0049
3021.00,0.0050
3020.00,0.0051
3019.00,0.0051
3018.00,0.0052
3017.00,0.0053
3016.00,0.0054
3015.00,0.0055
3014.00,0.0056
3013.00,0.0058
3012.00,0.0059
3011.00,0.0060
3010.00,0.0061
3009.00,0.0063
3008.00,0.0064
3007.00,0.0066
3006.00,0.0068
3005.00,0.0069
3004.00,0.0071
3003.00,0.0073
3002.00,0.0075
3001.00,0.0078
3000.00,0.0081
2999.00,0.0084
2998.00,0.0086
2997.00,0.0089
2996.00,0.0093
2995.00,0.0096
2994.00,0.0100
2993.00,0.0105
2992.00,0.0110
2991.00,0.0116
2990.00,0.0122
2989.00,0.0129
2988.00,0.0136
2987.00,0.0144
2986.00,0.0153
2985.00,0.0163
2984.00,0.0175
2983.00,0.0188
2982.00,0.0203
2981.00,0.0220
2980.00,0.0238
2979.00,0.0259
2978.00,0.0282
2977.00,0.0309
2976.00,0.0340
2975.00,0.0375
2974.00,0.0415
2973.00,0.0460
2972.00,0.0511
2971.00,0.0568
2970.00,0.0630
2969.00,0.0698
2968.00,0.0771
2967.00,0.0848
2966.00,0.0928
2965.00,0.1007
2964.00,0.1084
2963.00,0.1154
2962.00,0.1216
2961.00,0.1268
2960.00,0.1313
2959.00,0.1355
2958.00,0.1399
2957.00,0.1449
2956.00,0.1508
2955.00,0.1577
2954.00,0.1654
2953.00,0.1733
2952.00,0.1804
2951.00,0.1856
2950.00,0.1878
2949.00,0.1863
2948.00,0.1807
2947.00,0.1716
2946.00,0.1601
2945.00,0.1475
2944.00,0.1352
2943.00,0.1246
2942.00,0.1162
2941.00,0.1104
2940.00,0.1071
2939.00,0.1061
2938.00,0.1072
2937.00,0.1101
2936.00,0.1147
2935.00,0.1208
2934.00,0.1284
2933.00,0.1372
2932.00,0.1471
2931.00,0.1579
2930.00,0.1694
2929.00,0.1812
2928.00,0.1932
2927.00,0.2050
2926.00,0.2165
2925.00,0.2278
2924.00,0.2390
2923.00,0.2503
2922.00,0.2615
2921.00,0.2724
2920.00,0.2823
2919.00,0.2900
2918.00,0.2944
2917.00,0.2944
2916.00,0.2898
2915.00,0.2811
2914.00,0.2696
2913.00,0.2567
2912.00,0.2439
2911.00,0.2319
2910.00,0.2211
2909.00,0.2115
2908.00,0.2027
2907.00,0.1946
2906.00,0.1868
2905.00,0.1793
2904.00,0.1719
2903.00,0.1646
2902.00,0.1576
2901.00,0.1508
2900.00,0.1444
2899.00,0.1383
2898.00,0.1326
2897.00,0.1274
2896.00,0.1227
2895.00,0.1187
2894.00,0.1153
2893.00,0.1125
2892.00,0.1104
2891.00,0.1088
2890.00,0.1078
2889.00,0.1072
2888.00,0.1069
2887.00,0.1071
2886.00,0.1076
2885.00,0.1086
2884.00,0.1100
2883.00,0.1119
2882.00,0.1143
2881.00,0.1171
2880.00,0.1200
2879.00,0.1225
2878.00,0.1242
2877.00,0.1250
2876.00,0.1248
2875.00,0.1241
2874.00,0.1233
2873.00,0.1230
2872.00,0.1235
2871.00,0.1247
2870.00,0.1265
2869.00,0.1282
2868.00,0.1293
2867.00,0.1287
2866.00,0.1261
2865.00,0.1210
2864.00,0.1139
2863.00,0.1058
2862.00,0.0976
2861.00,0.0903
2860.00,0.0845
2859.00,0.0804
2858.00,0.0779
2857.00,0.0769
2856.00,0.0772
2855.00,0.0784
2854.00,0.0805
2853.00,0.0831
2852.00,0.0858
2851.00,0.0882
2850.00,0.0900
2849.00,0.0911
2848.00,0.0917
2847.00,0.0924
2846.00,0.0938
2845.00,0.0962
2844.00,0.0998
2843.00,0.1044
2842.00,0.1096
2841.00,0.1146
2840.00,0.1188
2839.00,0.1212
2838.00,0.1213
2837.00,0.1183
2836.00,0.1124
2835.00,0.1040
2834.00,0.0939
2833.00,0.0832
2832.00,0.0730
2831.00,0.0638
2830.00,0.0560
2829.00,0.0495
2828.00,0.0443
2827.00,0.0401
2826.00,0.0367
2825.00,0.0339
2824.00,0.0315
2823.00,0.0295
2822.00,0.0278
2821.00,0.0264
2820.00,0.0251
2819.00,0.0240
2818.00,0.0231
2817.00,0.0222
2816.00,0.0215
2815.00,0.0208
2814.00,0.0202
2813.00,0.0196
2812.00,0.0191
2811.00,0.0185
2810.00,0.0179
2809.00,0.0173
2808.00,0.0166
2807.00,0.0159
2806.00,0.0153
2805.00,0.0146
2804.00,0.0140
2803.00,0.0134
2802.00,0.0129
2801.00,0.0125
2800.00,0.0121
2799.00,0.0118
2798.00,0.0115
2797.00,0.0113
2796.00,0.0110
2795.00,0.0108
2794.00,0.0105
2793.00,0.0103
2792.00,0.0100
2791.00,0.0097
2790.00,0.0094
2789.00,0.0091
2788.00,0.0089
2787.00,0.0085
2786.00,0.0083
2785.00,0.0080
2784.00,0.0078
2783.00,0.0076
2782.00,0.0074
2781.00,0.0072
2780.00,0.0071
2779.00,0.0069
2778.00,0.0068
2777.00,0.0067
2776.00,0.0066
2775.00,0.0065
2774.00,0.0064
2773.00,0.0063
2772.00,0.0063
2771.00,0.0062
2770.00,0.0061
2769.00,0.0061
2768.00,0.0060
2767.00,0.0059
2766.00,0.0059
2765.00,0.0059
2764.00,0.0059
2763.00,0.0058
2762.00,0.0058
2761.00,0.0058
2760.00,0.0058
2759.00,0.0057
2758.00,0.0057
2757.00,0.0057
2756.00,0.0057
2755.00,0.0057
2754.00,0.0057
2753.00,0.0057
2752.00,0.0057
2751.00,0.0056
2750.00,0.0056
2749.00,0.0056
2748.00,0.0056
2747.00,0.0056
2746.00,0.0057
2745.00,0.0057
2744.00,0.0058
2743.00,0.0059
2742.00,0.0060
2741.00,0.0061
2740.00,0.0062
2739.00,0.0063
2738.00,0.0065
2737.00,0.0066
2736.00,0.0067
2735.00,0.0068
2734.00,0.0070
2733.00,0.0072
2732.00,0.0074
2731.00,0.0076
2730.00,0.0078
2729.00,0.0080
2728.00,0.0083
2727.00,0.0085
2726.00,0.0088
2725.00,0.0091
2724.00,0.0092
2723.00,0.0093
2722.00,0.0092
2721.00,0.0090
2720.00,0.0087
2719.00,0.0084
2718.00,0.0080
2717.00,0.0077
2716.00,0.0075
2715.00,0.0072
2714.00,0.0070
2713.00,0.0068
2712.00,0.0066
2711.00,0.0064
2710.00,0.0062
2709.00,0.0060
2708.00,0.0059
2707.00,0.0057
2706.00,0.0056
2705.00,0.0055
2704.00,0.0054
2703.00,0.0053
2702.00,0.0052
2701.00,0.0051
2700.00,0.0050
2699.00,0.0050
2698.00,0.0049
2697.00,0.0049
2696.00,0.0049
2695.00,0.0049
2694.00,0.0049
2693.00,0.0048
2692.00,0.0048
2691.00,0.0048
2690.00,0.0048
2689.00,0.0048
2688.00,0.0048
2687.00,0.0048
2686.00,0.0048
2685.00,0.0049
2684.00,0.0049
2683.00,0.0049
2682.00,0.0050
2681.00,0.0050
2680.00,0.0050
2679.00,0.0050
2678.00,0.0050
2677.00,0.0050
2676.00,0.0050
2675.00,0.0050
2674.00,0.0050
2673.00,0.0050
2672.00,0.0049
2671.00,0.0049
2670.00,0.0049
2669.00,0.0049
2668.00,0.0049
2667.00,0.0049
2666.00,0.0050
2665.00,0.0050
2664.00,0.0051
2663.00,0.0052
2662.00,0.0052
2661.00,0.0052
2660.00,0.0053
2659.00,0.0052
2658.00,0.0052
2657.00,0.0052
2656.00,0.0052
2655.00,0.0051
2654.00,0.0051
2653.00,0.0050
2652.00,0.0050
2651.00,0.0049
2650.00,0.0048
2649.00,0.0048
2648.00,0.0048
2647.00,0.0048
2646.00,0.0047
2645.00,0.0046
2644.00,0.0045
2643.00,0.0045
2642.00,0.0044
2641.00,0.0044
2640.00,0.0044
2639.00,0.0043
2638.00,0.0043
2637.00,0.0043
2636.00,0.0043
2635.00,0.0043
2634.00,0.0043
2633.00,0.0043
2632.00,0.0043
2631.00,0.0043
2630.00,0.0043
2629.00,0.0043
2628.00,0.0044
2627.00,0.0044
2626.00,0.0044
2625.00,0.0044
2624.00,0.0044
2623.00,0.0044
2622.00,0.0045
2621.00,0.0045
2620.00,0.0045
2619.00,0.0044
2618.00,0.0044
2617.00,0.0045
2616.00,0.0045
2615.00,0.0045
2614.00,0.0044
2613.00,0.0044
2612.00,0.0043
2611.00,0.0043
2610.00,0.0042
2609.00,0.0041
2608.00,0.0040
2607.00,0.0039
2606.00,0.0038
2605.00,0.0038
2604.00,0.0037
2603.00,0.0036
2602.00,0.0036
2601.00,0.0036
2600.00,0.0036
2599.00,0.0037
2598.00,0.0037
2597.00,0.0037
2596.00,0.0037
2595.00,0.0037
2594.00,0.0037
2593.00,0.0037
2592.00,0.0037
2591.00,0.0038
2590.00,0.0038
2589.00,0.0039
2588.00,0.0039
2587.00,0.0040
2586.00,0.0042
2585.00,0.0043
2584.00,0.0044
2583.00,0.0045
2582.00,0.0044
2581.00,0.0044
2580.00,0.0043
2579.00,0.0043
2578.00,0.0042
2577.00,0.0040
2576.00,0.0039
2575.00,0.0038
2574.00,0.0036
2573.00,0.0035
2572.00,0.0034
2571.00,0.0033
2570.00,0.0033
2569.00,0.0032
2568.00,0.0031
2567.00,0.0031
2566.00,0.0030
2565.00,0.0029
2564.00,0.0029
2563.00,0.0028
2562.00,0.0028
2561.00,0.0028
2560.00,0.0028
2559.00,0.0028
2558.00,0.0028
2557.00,0.0028
2556.00,0.0027
2555.00,0.0027
2554.00,0.0027
2553.00,0.0026
2552.00,0.0025
2551.00,0.0025
2550.00,0.0024
2549.00,0.0024
2548.00,0.0024
2547.00,0.0023
2546.00,0.0023
2545.00,0.0022
2544.00,0.0022
2543.00,0.0022
2542.00,0.0022
2541.00,0.0021
2540.00,0.0021
2539.00,0.0020
2538.00,0.0020
2537.00,0.0020
2536.00,0.0020
2535.00,0.0020
2534.00,0.0020
2533.00,0.0020
2532.00,0.0020
2531.00,0.0020
2530.00,0.0020
2529.00,0.0020
2528.00,0.0020
2527.00,0.0020
2526.00,0.0019
2525.00,0.0018
2524.00,0.0018
2523.00,0.0017
2522.00,0.0017
2521.00,0.0016
2520.00,0.0016
2519.00,0.0015
2518.00,0.0015
2517.00,0.0016
2516.00,0.0016
2515.00,0.0016
2514.00,0.0015
2513.00,0.0016
2512.00,0.0016
2511.00,0.0016
2510.00,0.0016
2509.00,0.0016
2508.00,0.0016
2507.00,0.0015
2506.00,0.0015
2505.00,0.0015
2504.00,0.0014
2503.00,0.0014
2502.00,0.0014
2501.00,0.0014
2500.00,0.0014
2499.00,0.0014
2498.00,0.0014
2497.00,0.0014
2496.00,0.0014
2495.00,0.0015
2494.00,0.0015
2493.00,0.0016
2492.00,0.0015
2491.00,0.0015
2490.00,0.0014
2489.00,0.0014
2488.00,0.0014
2487.00,0.0014
2486.00,0.0015
2485.00,0.0015
2484.00,0.0014
2483.00,0.0013
2482.00,0.0012
2481.00,0.0012
2480.00,0.0012
2479.00,0.0013
2478.00,0.0013
2477.00,0.0013
2476.00,0.0014
2475.00,0.0014
2474.00,0.0013
2473.00,0.0013
2472.00,0.0013
2471.00,0.0013
2470.00,0.0014
2469.00,0.0014
2468.00,0.0014
2467.00,0.0014
2466.00,0.0014
2465.00,0.0014
2464.00,0.0013
2463.00,0.0013
2462.00,0.0013
2461.00,0.0013
2460.00,0.0014
2459.00,0.0014
2458.00,0.0015
2457.00,0.0016
2456.00,0.0017
2455.00,0.0017
2454.00,0.0016
2453.00,0.0015
2452.00,0.0015
2451.00,0.0015
2450.00,0.0015
2449.00,0.0015
2448.00,0.0016
2447.00,0.0016
2446.00,0.0015
2445.00,0.0015
2444.00,0.0015
2443.00,0.0014
2442.00,0.0014
2441.00,0.0014
2440.00,0.0014
2439.00,0.0014
2438.00,0.0015
2437.00,0.0015
2436.00,0.0015
2435.00,0.0015
2434.00,0.0015
2433.00,0.0014
2432.00,0.0014
2431.00,0.0014
2430.00,0.0014
2429.00,0.0014
2428.00,0.0014
2427.00,0.0015
2426.00,0.0015
2425.00,0.0015
2424.00,0.0015
2423.00,0.0015
2422.00,0.0015
2421.00,0.0015
2420.00,0.0015
2419.00,0.0015
2418.00,0.0014
2417.00,0.0014
2416.00,0.0014
2415.00,0.0013
2414.00,0.0013
2413.00,0.0013
2412.00,0.0013
2411.00,0.0013
2410.00,0.0013
2409.00,0.0013
2408.00,0.0013
2407.00,0.0012
2406.00,0.0012
2405.00,0.0012
2404.00,0.0012
2403.00,0.0012
2402.00,0.0012
2401.00,0.0012
2400.00,0.0012
2399.00,0.0012
2398.00,0.0012
2397.00,0.0011
2396.00,0.0011
2395.00,0.0011
2394.00,0.0011
2393.00,0.0011
2392.00,0.0011
2391.00,0.0011
2390.00,0.0011
2389.00,0.0012
2388.00,0.0012
2387.00,0.0012
2386.00,0.0012
2385.00,0.0011
2384.00,0.0010
2383.00,0.0009
2382.00,0.0008
2381.00,0.0008
2380.00,0.0007
2379.00,0.0006
2378.00,0.0005
2377.00,0.0005
2376.00,0.0006
2375.00,0.0006
2374.00,0.0007
2373.00,0.0007
2372.00,0.0007
2371.00,0.0007
2370.00,0.0007
2369.00,0.0006
2368.00,0.0006
2367.00,0.0007
2366.00,0.0007
2365.00,0.0007
2364.00,0.0007
2363.00,0.0007
2362.00,0.0007
2361.00,0.0006
2360.00,0.0007
2359.00,0.0007
2358.00,0.0007
2357.00,0.0007
2356.00,0.0007
2355.00,0.0007
2354.00,0.0007
2353.00,0.0007
2352.00,0.0006
2351.00,0.0007
2350.00,0.0007
2349.00,0.0008
2348.00,0.0009
2347.00,0.0009
2346.00,0.0009
2345.00,0.0009
2344.00,0.0009
2343.00,0.0009
2342.00,0.0009
2341.00,0.0009
2340.00,0.0010
2339.00,0.0010
2338.00,0.0011
2337.00,0.0011
2336.00,0.0011
2335.00,0.0010
2334.00,0.0009
2333.00,0.0009
2332.00,0.0009
2331.00,0.0009
2330.00,0.0010
2329.00,0.0011
2328.00,0.0013
2327.00,0.0016
2326.00,0.0020
2325.00,0.0023
2324.00,0.0024
2323.00,0.0023
2322.00,0.0020
2321.00,0.0019
2320.00,0.0018
2319.00,0.0018
2318.00,0.0017
2317.00,0.0016
2316.00,0.0015
2315.00,0.0014
2314.00,0.0014
2313.00,0.0014
2312.00,0.0014
2311.00,0.0014
2310.00,0.0013
2309.00,0.0012
2308.00,0.0012
2307.00,0.0013
2306.00,0.0014
2305.00,0.0014
2304.00,0.0015
2303.00,0.0016
2302.00,0.0016
2301.00,0.0016
2300.00,0.0015
2299.00,0.0015
2298.00,0.0015
2297.00,0.0016
2296.00,0.0017
2295.00,0.0018
2294.00,0.0018
2293.00,0.0018
2292.00,0.0019
2291.00,0.0019
2290.00,0.0020
2289.00,0.0021
2288.00,0.0021
2287.00,0.0022
2286.00,0.0022
2285.00,0.0022
2284.00,0.0021
2283.00,0.0020
2282.00,0.0020
2281.00,0.0020
2280.00,0.0020
2279.00,0.0020
2278.00,0.0019
2277.00,0.0019
2276.00,0.0018
2275.00,0.0018
2274.00,0.0017
2273.00,0.0017
2272.00,0.0017
2271.00,0.0017
2270.00,0.0016
2269.00,0.0016
2268.00,0.0015
2267.00,0.0014
2266.00,0.0013
2265.00,0.0012
2264.00,0.0011
2263.00,0.0012
2262.00,0.0013
2261.00,0.0014
2260.00,0.0015
2259.00,0.0015
2258.00,0.0016
2257.00,0.0016
2256.00,0.0016
2255.00,0.0015
2254.00,0.0015
2253.00,0.0014
2252.00,0.0014
2251.00,0.0014
2250.00,0.0014
2249.00,0.0015
2248.00,0.0015
2247.00,0.0015
2246.00,0.0013
2245.00,0.0012
2244.00,0.0011
2243.00,0.0011
2242.00,0.0013
2241.00,0.0014
2240.00,0.0015
2239.00,0.0014
2238.00,0.0013
2237.00,0.0013
2236.00,0.0013
2235.00,0.0013
2234.00,0.0012
2233.00,0.0011
2232.00,0.0010
2231.00,0.0009
2230.00,0.0009
2229.00,0.0009
2228.00,0.0011
2227.00,0.0013
2226.00,0.0013
2225.00,0.0013
2224.00,0.0012
2223.00,0.0011
2222.00,0.0011
2221.00,0.0010
2220.00,0.0010
2219.00,0.0009
2218.00,0.0009
2217.00,0.0009
2216.00,0.0010
2215.00,0.0010
2214.00,0.0010
2213.00,0.0010
2212.00,0.0008
2211.00,0.0007
2210.00,0.0008
2209.00,0.0009
2208.00,0.0010
2207.00,0.0011
2206.00,0.0010
2205.00,0.0010
2204.00,0.0009
2203.00,0.0007
2202.00,0.0006
2201.00,0.0005
2200.00,0.0005
2199.00,0.0006
2198.00,0.0008
2197.00,0.0009
2196.00,0.0010
2195.00,0.0010
2194.00,0.0009
2193.00,0.0009
2192.00,0.0010
2191.00,0.0011
2190.00,0.0013
2189.00,0.0014
2188.00,0.0013
2187.00,0.0013
2186.00,0.0012
2185.00,0.0012
2184.00,0.0011
2183.00,0.0009
2182.00,0.0007
2181.00,0.0008
2180.00,0.0010
2179.00,0.0013
2178.00,0.0014
2177.00,0.0013
2176.00,0.0010
2175.00,0.0008
2174.00,0.0009
2173.00,0.0011
2172.00,0.0013
2171.00,0.0015
2170.00,0.0017
2169.00,0.0019
2168.00,0.0020
2167.00,0.0021
2166.00,0.0021
2165.00,0.0021
2164.00,0.0022
2163.00,0.0023
2162.00,0.0023
2161.00,0.0018
2160.00,0.0007
2159.00,-0.0006
2158.00,-0.0016
2157.00,-0.0022
2156.00,-0.0023
2155.00,-0.0022
2154.00,-0.0021
2153.00,-0.0018
2152.00,-0.0015
2151.00,-0.0013
2150.00,-0.0011
2149.00,-0.0010
2148.00,-0.0010
2147.00,-0.0011
2146.00,-0.0011
2145.00,-0.0011
2144.00,-0.0009
2143.00,-0.0009
2142.00,-0.0008
2141.00,-0.0008
2140.00,-0.0008
2139.00,-0.0009
2138.00,-0.0009
2137.00,-0.0010
2136.00,-0.0011
2135.00,-0.0012
2134.00,-0.0012
2133.00,-0.0010
2132.00,-0.0008
2131.00,-0.0006
2130.00,-0.0006
2129.00,-0.0005
2128.00,-0.0004
2127.00,-0.0004
2126.00,-0.0003
2125.00,-0.0002
2124.00,-0.0001
2123.00,-0.0000
2122.00,0.0001
2121.00,0.0001
2120.00,0.0001
2119.00,0.0001
2118.00,0.0002
2117.00,0.0003
2116.00,0.0005
2115.00,0.0007
2114.00,0.0007
2113.00,0.0007
2112.00,0.0006
2111.00,0.0006
2110.00,0.0006
2109.00,0.0006
2108.00,0.0005
2107.00,0.0005
2106.00,0.0004
2105.00,0.0004
2104.00,0.0003
2103.00,0.0003
2102.00,0.0003
2101.00,0.0002
2100.00,0.0003
2099.00,0.0003
2098.00,0.0004
2097.00,0.0004
2096.00,0.0004
2095.00,0.0002
2094.00,0.0001
2093.00,0.0001
2092.00,0.0002
2091.00,0.0003
2090.00,0.0004
2089.00,0.0005
2088.00,0.0005
2087.00,0.0005
2086.00,0.0005
2085.00,0.0007
2084.00,0.0008
2083.00,0.0009
2082.00,0.0008
2081.00,0.0008
2080.00,0.0007
2079.00,0.0007
2078.00,0.0007
2077.00,0.0008
2076.00,0.0008
2075.00,0.0009
2074.00,0.0008
2073.00,0.0008
2072.00,0.0007
2071.00,0.0006
2070.00,0.0005
2069.00,0.0004
2068.00,0.0004
2067.00,0.0004
2066.00,0.0004
2065.00,0.0005
2064.00,0.0005
2063.00,0.0005
2062.00,0.0005
2061.00,0.0004
2060.00,0.0004
2059.00,0.0005
2058.00,0.0006
2057.00,0.0008
2056.00,0.0008
2055.00,0.0009
2054.00,0.0010
2053.00,0.0012
2052.00,0.0015
2051.00,0.0018
2050.00,0.0019
2049.00,0.0019
2048.00,0.0018
2047.00,0.0017
2046.00,0.0016
2045.00,0.0015
2044.00,0.0015
2043.00,0.0014
2042.00,0.0013
2041.00,0.0012
2040.00,0.0011
2039.00,0.0010
2038.00,0.0008
2037.00,0.0006
2036.00,0.0004
2035.00,0.0002
2034.00,0.0000
2033.00,-0.0003
2032.00,-0.0006
2031.00,-0.0008
2030.00,-0.0008
2029.00,-0.0008
2028.00,-0.0007
2027.00,-0.0007
2026.00,-0.0005
2025.00,-0.0003
2024.00,-0.0001
2023.00,-0.0002
2022.00,-0.0006
2021.00,-0.0008
2020.00,-0.0009
2019.00,-0.0007
2018.00,-0.0006
2017.00,-0.0007
2016.00,-0.0008
2015.00,-0.0009
2014.00,-0.0008
2013.00,-0.0005
2012.00,-0.0002
2011.00,-0.0000
2010.00,0.0001
2009.00,0.0002
2008.00,0.0001
2007.00,-0.0002
2006.00,-0.0007
2005.00,-0.0010
2004.00,-0.0012
2003.00,-0.0012
2002.00,-0.0012
2001.00,-0.0010
2000.00,-0.0008
1999.00,-0.0007
1998.00,-0.0006
1997.00,-0.0005
1996.00,-0.0005
1995.00,-0.0006
1994.00,-0.0007
1993.00,-0.0007
1992.00,-0.0006
1991.00,-0.0003
1990.00,-0.0001
1989.00,0.0001
1988.00,0.0002
1987.00,0.0001
1986.00,-0.0000
1985.00,-0.0001
1984.00,0.0001
1983.00,0.0006
1982.00,0.0011
1981.00,0.0014
1980.00,0.0013
1979.00,0.0010
1978.00,0.0006
1977.00,0.0003
1976.00,0.0001
1975.00,0.0000
1974.00,0.0000
1973.00,0.0002
1972.00,0.0002
1971.00,0.0000
1970.00,-0.0004
1969.00,-0.0008
1968.00,-0.0010
1967.00,-0.0010
1966.00,-0.0011
1965.00,-0.0012
1964.00,-0.0012
1963.00,-0.0013
1962.00,-0.0013
1961.00,-0.0012
1960.00,-0.0013
1959.00,-0.0014
1958.00,-0.0015
1957.00,-0.0014
1956.00,-0.0012
1955.00,-0.0011
1954.00,-0.0012
1953.00,-0.0013
1952.00,-0.0013
1951.00,-0.0012
1950.00,-0.0012
1949.00,-0.0012
1948.00,-0.0012
1947.00,-0.0011
1946.00,-0.0011
1945.00,-0.0010
1944.00,-0.0009
1943.00,-0.0007
1942.00,-0.0006
1941.00,-0.0006
1940.00,-0.0007
1939.00,-0.0007
1938.00,-0.0006
1937.00,-0.0005
1936.00,-0.0004
1935.00,-0.0004
1934.00,-0.0004
1933.00,-0.0004
1932.00,-0.0005
1931.00,-0.0005
1930.00,-0.0005
1929.00,-0.0004
1928.00,-0.0003
1927.00,-0.0002
1926.00,-0.0002
1925.00,-0.0003
1924.00,-0.0003
1923.00,-0.0002
1922.00,-0.0001
1921.00,0.0001
1920.00,0.0002
1919.00,0.0002
1918.00,0.0002
1917.00,0.0002
1916.00,0.0003
1915.00,0.0003
1914.00,0.0002
1913.00,0.0001
1912.00,-0.0001
1911.00,-0.0002
1910.00,-0.0002
1909.00,-0.0001
1908.00,0.0001
1907.00,0.0002
1906.00,0.0003
1905.00,0.0004
1904.00,0.0004
1903.00,0.0003
1902.00,0.0003
1901.00,0.0002
1900.00,0.0002
1899.00,0.0002
1898.00,0.0002
1897.00,0.0003
1896.00,0.0003
1895.00,0.0004
1894.00,0.0004
1893.00,0.0005
1892.00,0.0005
1891.00,0.0004
1890.00,0.0003
1889.00,0.0002
1888.00,0.0001
1887.00,0.0000
1886.00,0.0000
1885.00,0.0000
1884.00,0.0001
1883.00,0.0001
1882.00,0.0001
1881.00,0.0002
1880.00,0.0002
1879.00,0.0003
1878.00,0.0003
1877.00,0.0003
1876.00,0.0003
1875.00,0.0002
1874.00,0.0003
1873.00,0.0003
1872.00,0.0004
1871.00,0.0004
1870.00,0.0004
1869.00,0.0004
1868.00,0.0004
1867.00,0.0004
1866.00,0.0004
1865.00,0.0004
1864.00,0.0004
1863.00,0.0003
1862.00,0.0003
1861.00,0.0004
1860.00,0.0005
1859.00,0.0005
1858.00,0.0005
1857.00,0.0004
1856.00,0.0004
1855.00,0.0004
1854.00,0.0005
1853.00,0.0006
1852.00,0.0006
1851.00,0.0005
1850.00,0.0005
1849.00,0.0004
1848.00,0.0004
1847.00,0.0004
1846.00,0.0004
1845.00,0.0004
1844.00,0.0005
1843.00,0.0005
1842.00,0.0006
1841.00,0.0006
1840.00,0.0006
1839.00,0.0007
1838.00,0.0007
1837.00,0.0007
1836.00,0.0007
1835.00,0.0007
1834.00,0.0006
1833.00,0.0006
1832.00,0.0005
1831.00,0.0005
1830.00,0.0006
1829.00,0.0008
1828.00,0.0009
1827.00,0.0009
1826.00,0.0009
1825.00,0.0009
1824.00,0.0009
1823.00,0.0008
1822.00,0.0008
1821.00,0.0007
1820.00,0.0006
1819.00,0.0005
1818.00,0.0003
1817.00,0.0002
1816.00,0.0002
1815.00,0.0003
1814.00,0.0004
1813.00,0.0005
1812.00,0.0007
1811.00,0.0007
1810.00,0.0007
1809.00,0.0007
1808.00,0.0007
1807.00,0.0008
1806.00,0.0008
1805.00,0.0009
1804.00,0.0009
1803.00,0.0009
1802.00,0.0010
1801.00,0.0010
1800.00,0.0010
1799.00,0.0010
1798.00,0.0010
1797.00,0.0010
1796.00,0.0010
1795.00,0.0010
1794.00,0.0010
1793.00,0.0010
1792.00,0.0010
1791.00,0.0011
1790.00,0.0011
1789.00,0.0011
1788.00,0.0012
1787.00,0.0012
1786.00,0.0013
1785.00,0.0013
1784.00,0.0014
1783.00,0.0014
1782.00,0.0013
1781.00,0.0013
1780.00,0.0013
1779.00,0.0013
1778.00,0.0012
1777.00,0.0012
1776.00,0.0013
1775.00,0.0013
1774.00,0.0012
1773.00,0.0012
1772.00,0.0013
1771.00,0.0014
1770.00,0.0014
1769.00,0.0015
1768.00,0.0016
1767.00,0.0016
1766.00,0.0016
1765.00,0.0017
1764.00,0.0017
1763.00,0.0018
1762.00,0.0019
1761.00,0.0020
1760.00,0.0020
1759.00,0.0020
1758.00,0.0020
1757.00,0.0021
1756.00,0.0022
1755.00,0.0024
1754.00,0.0025
1753.00,0.0026
1752.00,0.0026
1751.00,0.0027
1750.00,0.0028
1749.00,0.0029
1748.00,0.0030
1747.00,0.0030
1746.00,0.0031
1745.00,0.0032
1744.00,0.0033
1743.00,0.0033
1742.00,0.0033
1741.00,0.0033
1740.00,0.0033
1739.00,0.0033
1738.00,0.0033
1737.00,0.0033
1736.00,0.0033
1735.00,0.0032
1734.00,0.0031
1733.00,0.0031
1732.00,0.0031
1731.00,0.0031
1730.00,0.0031
1729.00,0.0031
1728.00,0.0031
1727.00,0.0031
1726.00,0.0031
1725.00,0.0030
1724.00,0.0030
1723.00,0.0030
1722.00,0.0030
1721.00,0.0030
1720.00,0.0030
1719.00,0.0030
1718.00,0.0030
1717.00,0.0030
1716.00,0.0031
1715.00,0.0031
1714.00,0.0031
1713.00,0.0031
1712.00,0.0031
1711.00,0.0031
1710.00,0.0031
1709.00,0.0031
1708.00,0.0032
1707.00,0.0033
1706.00,0.0033
1705.00,0.0034
1704.00,0.0035
1703.00,0.0036
1702.00,0.0036
1701.00,0.0037
1700.00,0.0038
1699.00,0.0039
1698.00,0.0039
1697.00,0.0040
1696.00,0.0041
1695.00,0.0041
1694.00,0.0041
1693.00,0.0042
1692.00,0.0043
1691.00,0.0044
1690.00,0.0046
1689.00,0.0047
1688.00,0.0048
1687.00,0.0048
1686.00,0.0048
1685.00,0.0049
1684.00,0.0052
1683.00,0.0054
1682.00,0.0054
1681.00,0.0054
1680.00,0.0055
1679.00,0.0056
1678.00,0.0057
1677.00,0.0058
1676.00,0.0059
1675.00,0.0061
1674.00,0.0061
1673.00,0.0062
1672.00,0.0062
1671.00,0.0063
1670.00,0.0064
1669.00,0.0066
1668.00,0.0067
1667.00,0.0068
1666.00,0.0068
1665.00,0.0069
1664.00,0.0070
1663.00,0.0072
1662.00,0.0073
1661.00,0.0074
1660.00,0.0075
1659.00,0.0076
1658.00,0.0078
1657.00,0.0079
1656.00,0.0081
1655.00,0.0083
1654.00,0.0084
1653.00,0.0086
1652.00,0.0088
1651.00,0.0088
1650.00,0.0089
1649.00,0.0091
1648.00,0.0093
1647.00,0.0095
1646.00,0.0097
1645.00,0.0097
1644.00,0.0097
1643.00,0.0096
1642.00,0.0096
1641.00,0.0095
1640.00,0.0095
1639.00,0.0095
1638.00,0.0095
1637.00,0.0095
1636.00,0.0095
1635.00,0.0096
1634.00,0.0096
1633.00,0.0095
1632.00,0.0095
1631.00,0.0094
1630.00,0.0094
1629.00,0.0093
1628.00,0.0093
1627.00,0.0092
1626.00,0.0091
1625.00,0.0090
1624.00,0.0090
1623.00,0.0088
1622.00,0.0087
1621.00,0.0086
1620.00,0.0085
1619.00,0.0083
1618.00,0.0083
1617.00,0.0082
1616.00,0.0082
1615.00,0.0082
1614.00,0.0081
1613.00,0.0081
1612.00,0.0081
1611.00,0.0081
1610.00,0.0081
1609.00,0.0081
1608.00,0.0081
1607.00,0.0081
1606.00,0.0080
1605.00,0.0080
1604.00,0.0081
1603.00,0.0081
1602.00,0.0081
1601.00,0.0081
1600.00,0.0081
1599.00,0.0081
1598.00,0.0081
1597.00,0.0082
1596.00,0.0083
1595.00,0.0083
1594.00,0.0084
1593.00,0.0085
1592.00,0.0086
1591.00,0.0088
1590.00,0.0090
1589.00,0.0092
1588.00,0.0094
1587.00,0.0098
1586.00,0.0102
1585.00,0.0107
1584.00,0.0112
1583.00,0.0118
1582.00,0.0123
1581.00,0.0129
1580.00,0.0134
1579.00,0.0137
1578.00,0.0139
1577.00,0.0139
1576.00,0.0137
1575.00,0.0133
1574.00,0.0128
1573.00,0.0125
1572.00,0.0121
1571.00,0.0117
1570.00,0.0112
1569.00,0.0107
1568.00,0.0104
1567.00,0.0101
1566.00,0.0099
1565.00,0.0098
1564.00,0.0097
1563.00,0.0096
1562.00,0.0097
1561.00,0.0097
1560.00,0.0098
1559.00,0.0097
1558.00,0.0097
1557.00,0.0097
1556.00,0.0098
1555.00,0.0100
1554.00,0.0102
1553.00,0.0104
1552.00,0.0107
1551.00,0.0110
1550.00,0.0114
1549.00,0.0120
1548.00,0.0125
1547.00,0.0131
1546.00,0.0138
1545.00,0.0147
1544.00,0.0155
1543.00,0.0162
1542.00,0.0167
1541.00,0.0170
1540.00,0.0169
1539.00,0.0164
1538.00,0.0158
1537.00,0.0153
1536.00,0.0148
1535.00,0.0142
1534.00,0.0135
1533.00,0.0127
1532.00,0.0121
1531.00,0.0117
1530.00,0.0113
1529.00,0.0110
1528.00,0.0107
1527.00,0.0103
1526.00,0.0100
1525.00,0.0098
1524.00,0.0097
1523.00,0.0095
1522.00,0.0093
1521.00,0.0092
1520.00,0.0091
1519.00,0.0090
1518.00,0.0090
1517.00,0.0090
1516.00,0.0090
1515.00,0.0089
1514.00,0.0088
1513.00,0.0088
1512.00,0.0088
1511.00,0.0088
1510.00,0.0089
1509.00,0.0090
1508.00,0.0091
1507.00,0.0092
1506.00,0.0092
1505.00,0.0093
1504.00,0.0093
1503.00,0.0093
1502.00,0.0095
1501.00,0.0097
1500.00,0.0101
1499.00,0.0104
1498.00,0.0108
1497.00,0.0113
1496.00,0.0120
1495.00,0.0124
1494.00,0.0127
1493.00,0.0130
1492.00,0.0133
1491.00,0.0137
1490.00,0.0140
1489.00,0.0145
1488.00,0.0151
1487.00,0.0156
1486.00,0.0162
1485.00,0.0170
1484.00,0.0179
1483.00,0.0189
1482.00,0.0201
1481.00,0.0216
1480.00,0.0231
1479.00,0.0246
1478.00,0.0263
1477.00,0.0286
1476.00,0.0313
1475.00,0.0344
1474.00,0.0385
1473.00,0.0442
1472.00,0.0509
1471.00,0.0572
1470.00,0.0632
1469.00,0.0696
1468.00,0.0765
1467.00,0.0843
1466.00,0.0932
1465.00,0.1030
1464.00,0.1116
1463.00,0.1173
1462.00,0.1207
1461.00,0.1230
1460.00,0.1245
1459.00,0.1253
1458.00,0.1257
1457.00,0.1257
1456.00,0.1250
1455.00,0.1236
1454.00,0.1218
1453.00,0.1195
1452.00,0.1162
1451.00,0.1119
1450.00,0.1063
1449.00,0.0989
1448.00,0.0898
1447.00,0.0805
1446.00,0.0723
1445.00,0.0655
1444.00,0.0597
1443.00,0.0550
1442.00,0.0514
1441.00,0.0491
1440.00,0.0477
1439.00,0.0474
1438.00,0.0479
1437.00,0.0486
1436.00,0.0480
1435.00,0.0458
1434.00,0.0422
1433.00,0.0377
1432.00,0.0331
1431.00,0.0289
1430.00,0.0257
1429.00,0.0233
1428.00,0.0217
1427.00,0.0207
1426.00,0.0201
1425.00,0.0195
1424.00,0.0190
1423.00,0.0188
1422.00,0.0187
1421.00,0.0185
1420.00,0.0183
1419.00,0.0180
1418.00,0.0177
1417.00,0.0174
1416.00,0.0170
1415.00,0.0167
1414.00,0.0164
1413.00,0.0160
1412.00,0.0157
1411.00,0.0154
1410.00,0.0153
1409.00,0.0150
1408.00,0.0149
1407.00,0.0148
1406.00,0.0148
1405.00,0.0147
1404.00,0.0145
1403.00,0.0145
1402.00,0.0145
1401.00,0.0145
1400.00,0.0145
1399.00,0.0146
1398.00,0.0148
1397.00,0.0150
1396.00,0.0152
1395.00,0.0156
1394.00,0.0161
1393.00,0.0165
1392.00,0.0170
1391.00,0.0177
1390.00,0.0188
1389.00,0.0203
1388.00,0.0225
1387.00,0.0257
1386.00,0.0301
1385.00,0.0358
1384.00,0.0438
1383.00,0.0551
1382.00,0.0707
1381.00,0.0912
1380.00,0.1167
1379.00,0.1459
1378.00,0.1741
1377.00,0.1948
1376.00,0.2017
1375.00,0.1914
1374.00,0.1669
1373.00,0.1375
1372.00,0.1108
1371.00,0.0889
1370.00,0.0715
1369.00,0.0584
1368.00,0.0493
1367.00,0.0438
1366.00,0.0409
1365.00,0.0397
1364.00,0.0399
1363.00,0.0413
1362.00,0.0435
1361.00,0.0459
1360.00,0.0477
1359.00,0.0482
1358.00,0.0472
1357.00,0.0446
1356.00,0.0408
1355.00,0.0366
1354.00,0.0326
1353.00,0.0291
1352.00,0.0263
1351.00,0.0240
1350.00,0.0221
1349.00,0.0205
1348.00,0.0192
1347.00,0.0181
1346.00,0.0172
1345.00,0.0164
1344.00,0.0157
1343.00,0.0152
1342.00,0.0148
1341.00,0.0145
1340.00,0.0143
1339.00,0.0142
1338.00,0.0140
1337.00,0.0140
1336.00,0.0140
1335.00,0.0142
1334.00,0.0145
1333.00,0.0149
1332.00,0.0153
1331.00,0.0156
1330.00,0.0156
1329.00,0.0155
1328.00,0.0151
1327.00,0.0145
1326.00,0.0139
1325.00,0.0133
1324.00,0.0128
1323.00,0.0124
1322.00,0.0120
1321.00,0.0118
1320.00,0.0116
1319.00,0.0114
1318.00,0.0112
1317.00,0.0109
1316.00,0.0107
1315.00,0.0106
1314.00,0.0105
1313.00,0.0105
1312.00,0.0105
1311.00,0.0107
1310.00,0.0111
1309.00,0.0115
1308.00,0.0122
1307.00,0.0131
1306.00,0.0139
1305.00,0.0146
1304.00,0.0148
1303.00,0.0148
1302.00,0.0146
1301.00,0.0144
1300.00,0.0144
1299.00,0.0145
1298.00,0.0146
1297.00,0.0147
1296.00,0.0146
1295.00,0.0144
1294.00,0.0140
1293.00,0.0135
1292.00,0.0129
1291.00,0.0124
1290.00,0.0120
1289.00,0.0116
1288.00,0.0113
1287.00,0.0110
1286.00,0.0107
1285.00,0.0104
1284.00,0.0102
1283.00,0.0101
1282.00,0.0100
1281.00,0.0099
1280.00,0.0098
1279.00,0.0097
1278.00,0.0097
1277.00,0.0096
1276.00,0.0095
1275.00,0.0094
1274.00,0.0094
1273.00,0.0094
1272.00,0.0095
1271.00,0.0096
1270.00,0.0097
1269.00,0.0099
1268.00,0.0101
1267.00,0.0103
1266.00,0.0106
1265.00,0.0109
1264.00,0.0113
1263.00,0.0116
1262.00,0.0119
1261.00,0.0123
1260.00,0.0127
1259.00,0.0132
1258.00,0.0137
1257.00,0.0141
1256.00,0.0143
1255.00,0.0141
1254.00,0.0136
1253.00,0.0129
1252.00,0.0123
1251.00,0.0117
1250.00,0.0113
1249.00,0.0109
1248.00,0.0107
1247.00,0.0105
1246.00,0.0103
1245.00,0.0102
1244.00,0.0101
1243.00,0.0100
1242.00,0.0099
1241.00,0.0099
1240.00,0.0098
1239.00,0.0098
1238.00,0.0097
1237.00,0.0097
1236.00,0.0097
1235.00,0.0097
1234.00,0.0098
1233.00,0.0098
1232.00,0.0098
1231.00,0.0099
1230.00,0.0100
1229.00,0.0102
1228.00,0.0103
1227.00,0.0105
1226.00,0.0107
1225.00,0.0111
1224.00,0.0115
1223.00,0.0119
1222.00,0.0122
1221.00,0.0124
1220.00,0.0126
1219.00,0.0126
1218.00,0.0125
1217.00,0.0123
1216.00,0.0121
1215.00,0.0117
1214.00,0.0114
1213.00,0.0111
1212.00,0.0109
1211.00,0.0107
1210.00,0.0105
1209.00,0.0103
1208.00,0.0101
1207.00,0.0099
1206.00,0.0098
1205.00,0.0098
1204.00,0.0097
1203.00,0.0096
1202.00,0.0096
1201.00,0.0096
1200.00,0.0096
1199.00,0.0096
1198.00,0.0097
1197.00,0.0097
1196.00,0.0097
1195.00,0.0097
1194.00,0.0097
1193.00,0.0096
1192.00,0.0096
1191.00,0.0097
1190.00,0.0098
1189.00,0.0098
1188.00,0.0099
1187.00,0.0099
1186.00,0.0098
1185.00,0.0098
1184.00,0.0099
1183.00,0.0100
1182.00,0.0102
1181.00,0.0104
1180.00,0.0108
1179.00,0.0112
1178.00,0.0117
1177.00,0.0124
1176.00,0.0133
1175.00,0.0145
1174.00,0.0160
1173.00,0.0180
1172.00,0.0203
1171.00,0.0228
1170.00,0.0251
1169.00,0.0269
1168.00,0.0280
1167.00,0.0282
1166.00,0.0277
1165.00,0.0268
1164.00,0.0257
1163.00,0.0246
1162.00,0.0237
1161.00,0.0229
1160.00,0.0223
1159.00,0.0218
1158.00,0.0215
1157.00,0.0213
1156.00,0.0212
1155.00,0.0212
1154.00,0.0212
1153.00,0.0211
1152.00,0.0208
1151.00,0.0203
1150.00,0.0195
1149.00,0.0186
1148.00,0.0176
1147.00,0.0167
1146.00,0.0158
1145.00,0.0150
1144.00,0.0143
1143.00,0.0137
1142.00,0.0132
1141.00,0.0126
1140.00,0.0121
1139.00,0.0117
1138.00,0.0113
1137.00,0.0110
1136.00,0.0107
1135.00,0.0105
1134.00,0.0104
1133.00,0.0103
1132.00,0.0103
1131.00,0.0103
1130.00,0.0104
1129.00,0.0105
1128.00,0.0106
1127.00,0.0107
1126.00,0.0108
1125.00,0.0108
1124.00,0.0108
1123.00,0.0108
1122.00,0.0109
1121.00,0.0109
1120.00,0.0110
1119.00,0.0111
1118.00,0.0113
1117.00,0.0116
1116.00,0.0118
1115.00,0.0120
1114.00,0.0121
1113.00,0.0123
1112.00,0.0125
1111.00,0.0127
1110.00,0.0130
1109.00,0.0134
1108.00,0.0139
1107.00,0.0145
1106.00,0.0152
1105.00,0.0158
1104.00,0.0163
1103.00,0.0165
1102.00,0.0165
1101.00,0.0161
1100.00,0.0156
1099.00,0.0150
1098.00,0.0144
1097.00,0.0138
1096.00,0.0133
1095.00,0.0129
1094.00,0.0126
1093.00,0.0122
1092.00,0.0118
1091.00,0.0115
1090.00,0.0113
1089.00,0.0111
1088.00,0.0110
1087.00,0.0109
1086.00,0.0110
1085.00,0.0110
1084.00,0.0109
1083.00,0.0108
1082.00,0.0106
1081.00,0.0105
1080.00,0.0103
1079.00,0.0102
1078.00,0.0101
1077.00,0.0101
1076.00,0.0101
1075.00,0.0101
1074.00,0.0100
1073.00,0.0098
1072.00,0.0097
1071.00,0.0096
1070.00,0.0096
1069.00,0.0095
1068.00,0.0095
1067.00,0.0094
1066.00,0.0095
1065.00,0.0096
1064.00,0.0097
1063.00,0.0097
1062.00,0.0097
1061.00,0.0096
1060.00,0.0096
1059.00,0.0095
1058.00,0.0095
1057.00,0.0095
1056.00,0.0095
1055.00,0.0096
1054.00,0.0098
1053.00,0.0100
1052.00,0.0101
1051.00,0.0102
1050.00,0.0103
1049.00,0.0104
1048.00,0.0106
1047.00,0.0109
1046.00,0.0112
1045.00,0.0115
1044.00,0.0115
1043.00,0.0114
1042.00,0.0112
1041.00,0.0110
1040.00,0.0109
1039.00,0.0110
1038.00,0.0112
1037.00,0.0114
1036.00,0.0115
1035.00,0.0114
1034.00,0.0112
1033.00,0.0108
1032.00,0.0104
1031.00,0.0102
1030.00,0.0102
1029.00,0.0102
1028.00,0.0101
1027.00,0.0101
1026.00,0.0100
1025.00,0.0100
1024.00,0.0100
1023.00,0.0102
1022.00,0.0103
1021.00,0.0103
1020.00,0.0104
1019.00,0.0104
1018.00,0.0105
1017.00,0.0106
1016.00,0.0107
1015.00,0.0110
1014.00,0.0112
1013.00,0.0115
1012.00,0.0117
1011.00,0.0119
1010.00,0.0120
1009.00,0.0121
1008.00,0.0123
1007.00,0.0127
1006.00,0.0133
1005.00,0.0141
1004.00,0.0153
1003.00,0.0169
1002.00,0.0192
1001.00,0.0220
1000.00,0.0250
999.00,0.0273
998.00,0.0283
997.00,0.0276
996.00,0.0253
995.00,0.0223
994.00,0.0192
993.00,0.0167
992.00,0.0147
991.00,0.0133
990.00,0.0123
989.00,0.0116
988.00,0.0111
987.00,0.0109
986.00,0.0110
985.00,0.0111
984.00,0.0115
983.00,0.0122
982.00,0.0132
981.00,0.0147
980.00,0.0167
979.00,0.0193
978.00,0.0226
977.00,0.0264
976.00,0.0302
975.00,0.0335
974.00,0.0356
973.00,0.0359
972.00,0.0342
971.00,0.0308
970.00,0.0266
969.00,0.0225
968.00,0.0191
967.00,0.0165
966.00,0.0146
965.00,0.0132
964.00,0.0122
963.00,0.0114
962.00,0.0108
961.00,0.0103
960.00,0.0098
959.00,0.0095
958.00,0.0092
957.00,0.0090
956.00,0.0088
955.00,0.0087
954.00,0.0087
953.00,0.0086
952.00,0.0085
951.00,0.0084
950.00,0.0083
949.00,0.0082
948.00,0.0082
947.00,0.0083
946.00,0.0086
945.00,0.0088
944.00,0.0091
943.00,0.0095
942.00,0.0099
941.00,0.0102
940.00,0.0103
939.00,0.0102
938.00,0.0097
937.00,0.0090
936.00,0.0084
935.00,0.0079
934.00,0.0076
933.00,0.0074
932.00,0.0073
931.00,0.0072
930.00,0.0070
929.00,0.0070
928.00,0.0069
927.00,0.0068
926.00,0.0068
925.00,0.0067
924.00,0.0066
923.00,0.0066
922.00,0.0066
921.00,0.0067
920.00,0.0067
919.00,0.0067
918.00,0.0067
917.00,0.0067
916.00,0.0067
915.00,0.0068
914.00,0.0069
913.00,0.0071
912.00,0.0073
911.00,0.0074
910.00,0.0074
909.00,0.0076
908.00,0.0080
907.00,0.0086
906.00,0.0096
905.00,0.0108
904.00,0.0123
903.00,0.0142
902.00,0.0163
901.00,0.0182
900.00,0.0194
899.00,0.0196
898.00,0.0187
897.00,0.0170
896.00,0.0149
895.00,0.0130
894.00,0.0115
893.00,0.0103
892.00,0.0095
891.00,0.0089
890.00,0.0086
889.00,0.0084
888.00,0.0082
887.00,0.0081
886.00,0.0079
885.00,0.0079
884.00,0.0078
883.00,0.0079
882.00,0.0081
881.00,0.0084
880.00,0.0088
879.00,0.0091
878.00,0.0093
877.00,0.0093
876.00,0.0092
875.00,0.0092
874.00,0.0091
873.00,0.0090
872.00,0.0087
871.00,0.0085
870.00,0.0084
869.00,0.0084
868.00,0.0083
867.00,0.0083
866.00,0.0083
865.00,0.0084
864.00,0.0085
863.00,0.0087
862.00,0.0088
861.00,0.0090
860.00,0.0091
859.00,0.0092
858.00,0.0094
857.00,0.0095
856.00,0.0095
855.00,0.0096
854.00,0.0098
853.00,0.0100
852.00,0.0102
851.00,0.0105
850.00,0.0108
849.00,0.0111
848.00,0.0117
847.00,0.0127
846.00,0.0144
845.00,0.0169
844.00,0.0202
843.00,0.0238
842.00,0.0264
841.00,0.0268
840.00,0.0249
839.00,0.0215
838.00,0.0181
837.00,0.0155
836.00,0.0139
835.00,0.0129
834.00,0.0122
833.00,0.0117
832.00,0.0113
831.00,0.0111
830.00,0.0111
829.00,0.0111
828.00,0.0111
827.00,0.0110
826.00,0.0110
825.00,0.0110
824.00,0.0109
823.00,0.0109
822.00,0.0109
821.00,0.0110
820.00,0.0113
819.00,0.0116
818.00,0.0121
817.00,0.0127
816.00,0.0137
815.00,0.0149
814.00,0.0167
813.00,0.0187
812.00,0.0207
811.00,0.0225
810.00,0.0237
809.00,0.0243
808.00,0.0240
807.00,0.0228
806.00,0.0211
805.00,0.0191
804.00,0.0171
803.00,0.0155
802.00,0.0143
801.00,0.0133
800.00,0.0126
799.00,0.0120
798.00,0.0116
797.00,0.0113
796.00,0.0111
795.00,0.0108
794.00,0.0105
793.00,0.0101
792.00,0.0098
791.00,0.0095
790.00,0.0093
789.00,0.0091
788.00,0.0088
787.00,0.0085
786.00,0.0083
785.00,0.0080
784.00,0.0077
783.00,0.0073
782.00,0.0070
781.00,0.0068
780.00,0.0068
779.00,0.0070
778.00,0.0071
777.00,0.0072
776.00,0.0073
775.00,0.0072
774.00,0.0071
773.00,0.0069
772.00,0.0068
771.00,0.0068
770.00,0.0069
769.00,0.0070
768.00,0.0071
767.00,0.0072
766.00,0.0072
765.00,0.0073
764.00,0.0074
763.00,0.0075
762.00,0.0076
761.00,0.0076
760.00,0.0076
759.00,0.0075
758.00,0.0075
757.00,0.0074
756.00,0.0075
755.00,0.0075
754.00,0.0076
753.00,0.0077
752.00,0.0076
751.00,0.0076
750.00,0.0074
749.00,0.0074
748.00,0.0074
747.00,0.0076
746.00,0.0078
745.00,0.0080
744.00,0.0082
743.00,0.0084
742.00,0.0086
741.00,0.0087
740.00,0.0089
739.00,0.0090
738.00,0.0092
737.00,0.0095
736.00,0.0098
735.00,0.0102
734.00,0.0106
733.00,0.0112
732.00,0.0120
731.00,0.0129
730.00,0.0138
729.00,0.0143
728.00,0.0145
727.00,0.0144
726.00,0.0144
725.00,0.0146
724.00,0.0150
723.00,0.0156
722.00,0.0162
721.00,0.0166
720.00,0.0165
719.00,0.0157
718.00,0.0146
717.00,0.0133
716.00,0.0123
715.00,0.0115
714.00,0.0110
713.00,0.0106
712.00,0.0103
711.00,0.0100
710.00,0.0098
709.00,0.0095
708.00,0.0091
707.00,0.0089
706.00,0.0088
705.00,0.0086
704.00,0.0084
703.00,0.0083
702.00,0.0081
701.00,0.0081
700.00,0.0081
699.00,0.0081
698.00,0.0080
697.00,0.0079
696.00,0.0076
695.00,0.0074
694.00,0.0073
693.00,0.0073
692.00,0.0073
691.00,0.0073
690.00,0.0073
689.00,0.0074
688.00,0.0076
687.00,0.0078
686.00,0.0079
685.00,0.0078
684.00,0.0076
683.00,0.0073
682.00,0.0072
681.00,0.0071
680.00,0.0072
679.00,0.0072
678.00,0.0073
677.00,0.0074
676.00,0.0076
675.00,0.0077
674.00,0.0079
673.00,0.0079
672.00,0.0078
671.00,0.0077
670.00,0.0078
669.00,0.0078
668.00,0.0079
667.00,0.0081
666.00,0.0081
665.00,0.0079
664.00,0.0077
663.00,0.0075
662.00,0.0074
661.00,0.0075
660.00,0.0076
659.00,0.0077
658.00,0.0077
657.00,0.0075
656.00,0.0074
655.00,0.0074
654.00,0.0073
653.00,0.0073
652.00,0.0073
651.00,0.0074
650.00,0.0075
649.00,0.0075
648.00,0.0073
647.00,0.0071
646.00,0.0070
645.00,0.0070
644.00,0.0070
643.00,0.0071
642.00,0.0071
641.00,0.0071
640.00,0.0072
639.00,0.0072
638.00,0.0073
637.00,0.0073
636.00,0.0073
635.00,0.0074
634.00,0.0075
633.00,0.0076
632.00,0.0078
631.00,0.0078
630.00,0.0077
629.00,0.0075
628.00,0.0073
627.00,0.0071
626.00,0.0070
625.00,0.0069
624.00,0.0071
623.00,0.0073
622.00,0.0074
621.00,0.0075
620.00,0.0076
619.00,0.0077
618.00,0.0077
617.00,0.0076
616.00,0.0075
615.00,0.0075
614.00,0.0076
613.00,0.0078
612.00,0.0078
611.00,0.0077
610.00,0.0076
609.00,0.0075
608.00,0.0074
607.00,0.0073
606.00,0.0073
605.00,0.0073
604.00,0.0075
603.00,0.0077
602.00,0.0079
601.00,0.0079
600.00,0.0077
599.00,0.0076
598.00,0.0075
597.00,0.0076
596.00,0.0078
595.00,0.0080
594.00,0.0081
593.00,0.0080
592.00,0.0079
591.00,0.0078
590.00,0.0076
589.00,0.0075
588.00,0.0074
587.00,0.0074
586.00,0.0075
585.00,0.0076
584.00,0.0076
583.00,0.0076
582.00,0.0079
581.00,0.0082
580.00,0.0085
579.00,0.0086
578.00,0.0084
577.00,0.0082
576.00,0.0080
575.00,0.0079
574.00,0.0079
573.00,0.0080
572.00,0.0079
571.00,0.0077
570.00,0.0075
569.00,0.0073
568.00,0.0071
567.00,0.0070
566.00,0.0069
565.00,0.0070
564.00,0.0071
563.00,0.0074
562.00,0.0075
561.00,0.0074
560.00,0.0073
559.00,0.0072
558.00,0.0072
557.00,0.0073
556.00,0.0074
555.00,0.0073
554.00,0.0073
553.00,0.0075
552.00,0.0077
551.00,0.0078
550.00,0.0077
549.00,0.0076
548.00,0.0073
547.00,0.0073
546.00,0.0077
545.00,0.0084
544.00,0.0089
543.00,0.0088
542.00,0.0083
541.00,0.0079
540.00,0.0078
539.00,0.0080
538.00,0.0081
537.00,0.0080
536.00,0.0080
535.00,0.0081
534.00,0.0083
533.00,0.0084
532.00,0.0083
531.00,0.0084
530.00,0.0085
529.00,0.0088
528.00,0.0090
527.00,0.0091
526.00,0.0092
525.00,0.0092
524.00,0.0092
523.00,0.0093
522.00,0.0094
521.00,0.0094
520.00,0.0092
519.00,0.0088
518.00,0.0084
517.00,0.0082
516.00,0.0083
515.00,0.0086
514.00,0.0089
513.00,0.0088
512.00,0.0085
511.00,0.0085
510.00,0.0088
509.00,0.0092
508.00,0.0096
507.00,0.0097
506.00,0.0095
505.00,0.0090
504.00,0.0085
503.00,0.0082
502.00,0.0083
501.00,0.0085
500.00,0.0083
499.00,0.0079
498.00,0.0077
497.00,0.0078
496.00,0.0082
495.00,0.0089
494.00,0.0095
493.00,0.0095
492.00,0.0089
491.00,0.0083
490.00,0.0081
489.00,0.0083
488.00,0.0086
487.00,0.0088
486.00,0.0089
485.00,0.0087
484.00,0.0085
483.00,0.0087
482.00,0.0092
481.00,0.0098
480.00,0.0095
479.00,0.0083
478.00,0.0069
477.00,0.0064
476.00,0.0071
475.00,0.0084
474.00,0.0097
473.00,0.0104
472.00,0.0107
471.00,0.0107
470.00,0.0108
469.00,0.0110
468.00,0.0112
467.00,0.0113
466.00,0.0113
465.00,0.0114
464.00,0.0117
463.00,0.0127
462.00,0.0146
461.00,0.0167
460.00,0.0179
459.00,0.0172
458.00,0.0149
457.00,0.0125
456.00,0.0113
455.00,0.0117
454.00,0.0128
453.00,0.0140
452.00,0.0143
451.00,0.0138
450.00,0.0129
