Created as New Dataset,Sample 104 By Administrator Date Friday, September 05 2025
cm-1,A
4000.00,0.0021
3999.00,0.0021
3998.00,0.0021
3997.00,0.0021
3996.00,0.0021
3995.00,0.0021
3994.00,0.0022
3993.00,0.0022
3992.00,0.0022
3991.00,0.0022
3990.00,0.0022
3989.00,0.0022
3988.00,0.0022
3987.00,0.0022
3986.00,0.0021
3985.00,0.0021
3984.00,0.0021
3983.00,0.0020
3982.00,0.0020
3981.00,0.0020
3980.00,0.0020
3979.00,0.0019
3978.00,0.0019
3977.00,0.0019
3976.00,0.0019
3975.00,0.0019
3974.00,0.0020
3973.00,0.0020
3972.00,0.0020
3971.00,0.0020
3970.00,0.0020
3969.00,0.0020
3968.00,0.0020
3967.00,0.0020
3966.00,0.0020
3965.00,0.0020
3964.00,0.0020
3963.00,0.0020
3962.00,0.0020
3961.00,0.0020
3960.00,0.0020
3959.00,0.0020
3958.00,0.0020
3957.00,0.0020
3956.00,0.0020
3955.00,0.0020
3954.00,0.0019
3953.00,0.0019
3952.00,0.0019
3951.00,0.0019
3950.00,0.0019
3949.00,0.0019
3948.00,0.0019
3947.00,0.0019
3946.00,0.0019
3945.00,0.0019
3944.00,0.0019
3943.00,0.0019
3942.00,0.0019
3941.00,0.0019
3940.00,0.0019
3939.00,0.0019
3938.00,0.0019
3937.00,0.0019
3936.00,0.0019
3935.00,0.0019
3934.00,0.0020
3933.00,0.0020
3932.00,0.0020
3931.00,0.0020
3930.00,0.0020
3929.00,0.0020
3928.00,0.0020
3927.00,0.0020
3926.00,0.0020
3925.00,0.0020
3924.00,0.0020
3923.00,0.0020
3922.00,0.0020
3921.00,0.0021
3920.00,0.0021
3919.00,0.0021
3918.00,0.0020
3917.00,0.0020
3916.00,0.0020
3915.00,0.0020
3914.00,0.0020
3913.00,0.0020
3912.00,0.0020
3911.00,0.0020
3910.00,0.0019
3909.00,0.0019
3908.00,0.0019
3907.00,0.0018
3906.00,0.0018
3905.00,0.0019
3904.00,0.0019
3903.00,0.0019
3902.00,0.0019
3901.00,0.0019
3900.00,0.0019
3899.00,0.0019
3898.00,0.0019
3897.00,0.0019
3896.00,0.0020
3895.00,0.0019
3894.00,0.0019
3893.00,0.0019
3892.00,0.0019
3891.00,0.0019
3890.00,0.0019
3889.00,0.0019
3888.00,0.0020
3887.00,0.0020
3886.00,0.0019
3885.00,0.0019
3884.00,0.0018
3883.00,0.0018
3882.00,0.0018
3881.00,0.0018
3880.00,0.0018
3879.00,0.0018
3878.00,0.0018
3877.00,0.0018
3876.00,0.0018
3875.00,0.0018
3874.00,0.0018
3873.00,0.0018
3872.00,0.0019
3871.00,0.0019
3870.00,0.0019
3869.00,0.0019
3868.00,0.0019
3867.00,0.0019
3866.00,0.0019
3865.00,0.0019
3864.00,0.0019
3863.00,0.0019
3862.00,0.0019
3861.00,0.0019
3860.00,0.0019
3859.00,0.0019
3858.00,0.0018
3857.00,0.0018
3856.00,0.0018
3855.00,0.0018
3854.00,0.0018
3853.00,0.0018
3852.00,0.0018
3851.00,0.0018
3850.00,0.0018
3849.00,0.0018
3848.00,0.0019
3847.00,0.0019
3846.00,0.0019
3845.00,0.0019
3844.00,0.0019
3843.00,0.0018
3842.00,0.0018
3841.00,0.0018
3840.00,0.0019
3839.00,0.0019
3838.00,0.0019
3837.00,0.0019
3836.00,0.0019
3835.00,0.0019
3834.00,0.0019
3833.00,0.0019
3832.00,0.0019
3831.00,0.0019
3830.00,0.0019
3829.00,0.0019
3828.00,0.0019
3827.00,0.0019
3826.00,0.0019
3825.00,0.0019
3824.00,0.0019
3823.00,0.0019
3822.00,0.0019
3821.00,0.0018
3820.00,0.0018
3819.00,0.0018
3818.00,0.0018
3817.00,0.0019
3816.00,0.0019
3815.00,0.0019
3814.00,0.0019
3813.00,0.0018
3812.00,0.0018
3811.00,0.0018
3810.00,0.0018
3809.00,0.0018
3808.00,0.0018
3807.00,0.0018
3806.00,0.0018
3805.00,0.0018
3804.00,0.0018
3803.00,0.0018
3802.00,0.0018
3801.00,0.0017
3800.00,0.0017
3799.00,0.0018
3798.00,0.0018
3797.00,0.0018
3796.00,0.0018
3795.00,0.0018
3794.00,0.0018
3793.00,0.0018
3792.00,0.0019
3791.00,0.0019
3790.00,0.0019
3789.00,0.0019
3788.00,0.0019
3787.00,0.0018
3786.00,0.0018
3785.00,0.0018
3784.00,0.0018
3783.00,0.0018
3782.00,0.0018
3781.00,0.0018
3780.00,0.0018
3779.00,0.0018
3778.00,0.0018
3777.00,0.0018
3776.00,0.0018
3775.00,0.0018
3774.00,0.0018
3773.00,0.0018
3772.00,0.0018
3771.00,0.0018
3770.00,0.0018
3769.00,0.0018
3768.00,0.0019
3767.00,0.0019
3766.00,0.0019
3765.00,0.0019
3764.00,0.0019
3763.00,0.0019
3762.00,0.0019
3761.00,0.0019
3760.00,0.0019
3759.00,0.0019
3758.00,0.0019
3757.00,0.0019
3756.00,0.0019
3755.00,0.0019
3754.00,0.0018
3753.00,0.0018
3752.00,0.0018
3751.00,0.0018
3750.00,0.0018
3749.00,0.0018
3748.00,0.0017
3747.00,0.0017
3746.00,0.0017
3745.00,0.0016
3744.00,0.0016
3743.00,0.0016
3742.00,0.0017
3741.00,0.0017
3740.00,0.0017
3739.00,0.0016
3738.00,0.0016
3737.00,0.0016
3736.00,0.0016
3735.00,0.0016
3734.00,0.0016
3733.00,0.0017
3732.00,0.0016
3731.00,0.0016
3730.00,0.0016
3729.00,0.0016
3728.00,0.0016
3727.00,0.0016
3726.00,0.0016
3725.00,0.0016
3724.00,0.0016
3723.00,0.0016
3722.00,0.0016
3721.00,0.0016
3720.00,0.0016
3719.00,0.0016
3718.00,0.0016
3717.00,0.0016
3716.00,0.0016
3715.00,0.0016
3714.00,0.0016
3713.00,0.0015
3712.00,0.0015
3711.00,0.0015
3710.00,0.0015
3709.00,0.0014
3708.00,0.0014
3707.00,0.0014
3706.00,0.0014
3705.00,0.0015
3704.00,0.0015
3703.00,0.0016
3702.00,0.0016
3701.00,0.0015
3700.00,0.0015
3699.00,0.0015
3698.00,0.0016
3697.00,0.0016
3696.00,0.0016
3695.00,0.0016
3694.00,0.0016
3693.00,0.0016
3692.00,0.0016
3691.00,0.0016
3690.00,0.0016
3689.00,0.0016
3688.00,0.0015
3687.00,0.0015
3686.00,0.0015
3685.00,0.0015
3684.00,0.0015
3683.00,0.0016
3682.00,0.0016
3681.00,0.0016
3680.00,0.0016
3679.00,0.0016
3678.00,0.0016
3677.00,0.0016
3676.00,0.0016
3675.00,0.0015
3674.00,0.0015
3673.00,0.0015
3672.00,0.0014
3671.00,0.0014
3670.00,0.0014
3669.00,0.0014
3668.00,0.0014
3667.00,0.0014
3666.00,0.0014
3665.00,0.0014
3664.00,0.0014
3663.00,0.0015
3662.00,0.0015
3661.00,0.0015
3660.00,0.0015
3659.00,0.0014
3658.00,0.0014
3657.00,0.0014
3656.00,0.0014
3655.00,0.0014
3654.00,0.0014
3653.00,0.0014
3652.00,0.0014
3651.00,0.0015
3650.00,0.0015
3649.00,0.0016
3648.00,0.0016
3647.00,0.0016
3646.00,0.0016
3645.00,0.0015
3644.00,0.0015
3643.00,0.0015
3642.00,0.0016
3641.00,0.0016
3640.00,0.0016
3639.00,0.0015
3638.00,0.0015
3637.00,0.0015
3636.00,0.0015
3635.00,0.0015
3634.00,0.0014
3633.00,0.0014
3632.00,0.0014
3631.00,0.0013
3630.00,0.0013
3629.00,0.0012
3628.00,0.0012
3627.00,0.0012
3626.00,0.0013
3625.00,0.0013
3624.00,0.0014
3623.00,0.0014
3622.00,0.0015
3621.00,0.0015
3620.00,0.0015
3619.00,0.0014
3618.00,0.0013
3617.00,0.0013
3616.00,0.0013
3615.00,0.0013
3614.00,0.0013
3613.00,0.0013
3612.00,0.0014
3611.00,0.0014
3610.00,0.0015
3609.00,0.0015
3608.00,0.0015
3607.00,0.0014
3606.00,0.0014
3605.00,0.0014
3604.00,0.0014
3603.00,0.0014
3602.00,0.0014
3601.00,0.0014
3600.00,0.0013
3599.00,0.0013
3598.00,0.0013
3597.00,0.0014
3596.00,0.0013
3595.00,0.0013
3594.00,0.0013
3593.00,0.0013
3592.00,0.0014
3591.00,0.0015
3590.00,0.0016
3589.00,0.0016
3588.00,0.0016
3587.00,0.0015
3586.00,0.0015
3585.00,0.0014
3584.00,0.0014
3583.00,0.0014
3582.00,0.0014
3581.00,0.0014
3580.00,0.0014
3579.00,0.0014
3578.00,0.0015
3577.00,0.0015
3576.00,0.0015
3575.00,0.0015
3574.00,0.0015
3573.00,0.0015
3572.00,0.0015
3571.00,0.0015
3570.00,0.0015
3569.00,0.0016
3568.00,0.0015
3567.00,0.0015
3566.00,0.0015
3565.00,0.0014
3564.00,0.0015
3563.00,0.0015
3562.00,0.0015
3561.00,0.0015
3560.00,0.0015
3559.00,0.0015
3558.00,0.0015
3557.00,0.0015
3556.00,0.0016
3555.00,0.0016
3554.00,0.0016
3553.00,0.0016
3552.00,0.0016
3551.00,0.0016
3550.00,0.0016
3549.00,0.0016
3548.00,0.0016
3547.00,0.0016
3546.00,0.0016
3545.00,0.0016
3544.00,0.0016
3543.00,0.0017
3542.00,0.0017
3541.00,0.0017
3540.00,0.0017
3539.00,0.0017
3538.00,0.0017
3537.00,0.0017
3536.00,0.0017
3535.00,0.0017
3534.00,0.0017
3533.00,0.0017
3532.00,0.0017
3531.00,0.0017
3530.00,0.0017
3529.00,0.0017
3528.00,0.0017
3527.00,0.0017
3526.00,0.0017
3525.00,0.0017
3524.00,0.0017
3523.00,0.0017
3522.00,0.0018
3521.00,0.0018
3520.00,0.0018
3519.00,0.0018
3518.00,0.0018
3517.00,0.0018
3516.00,0.0018
3515.00,0.0018
3514.00,0.0018
3513.00,0.0018
3512.00,0.0018
3511.00,0.0018
3510.00,0.0018
3509.00,0.0018
3508.00,0.0018
3507.00,0.0018
3506.00,0.0018
3505.00,0.0018
3504.00,0.0018
3503.00,0.0018
3502.00,0.0018
3501.00,0.0018
3500.00,0.0018
3499.00,0.0018
3498.00,0.0018
3497.00,0.0018
3496.00,0.0018
3495.00,0.0017
3494.00,0.0017
3493.00,0.0017
3492.00,0.0017
3491.00,0.0017
3490.00,0.0017
3489.00,0.0017
3488.00,0.0018
3487.00,0.0018
3486.00,0.0018
3485.00,0.0018
3484.00,0.0018
3483.00,0.0018
3482.00,0.0018
3481.00,0.0018
3480.00,0.0018
3479.00,0.0018
3478.00,0.0018
3477.00,0.0018
3476.00,0.0018
3475.00,0.0019
3474.00,0.0019
3473.00,0.0020
3472.00,0.0020
3471.00,0.0020
3470.00,0.0020
3469.00,0.0019
3468.00,0.0019
3467.00,0.0019
3466.00,0.0019
3465.00,0.0019
3464.00,0.0019
3463.00,0.0019
3462.00,0.0020
3461.00,0.0020
3460.00,0.0020
3459.00,0.0020
3458.00,0.0020
3457.00,0.0019
3456.00,0.0019
3455.00,0.0018
3454.00,0.0018
3453.00,0.0019
3452.00,0.0019
3451.00,0.0020
3450.00,0.0020
3449.00,0.0020
3448.00,0.0020
3447.00,0.0020
3446.00,0.0021
3445.00,0.0021
3444.00,0.0021
3443.00,0.0021
3442.00,0.0021
3441.00,0.0021
3440.00,0.0021
3439.00,0.0021
3438.00,0.0021
3437.00,0.0021
3436.00,0.0021
3435.00,0.0021
3434.00,0.0021
3433.00,0.0021
3432.00,0.0021
3431.00,0.0021
3430.00,0.0021
3429.00,0.0022
3428.00,0.0022
3427.00,0.0022
3426.00,0.0022
3425.00,0.0021
3424.00,0.0021
3423.00,0.0021
3422.00,0.0021
3421.00,0.0022
3420.00,0.0022
3419.00,0.0022
3418.00,0.0022
3417.00,0.0022
3416.00,0.0022
3415.00,0.0022
3414.00,0.0022
3413.00,0.0022
3412.00,0.0022
3411.00,0.0021
3410.00,0.0021
3409.00,0.0021
3408.00,0.0021
3407.00,0.0022
3406.00,0.0022
3405.00,0.0022
3404.00,0.0022
3403.00,0.0022
3402.00,0.0023
3401.00,0.0023
3400.00,0.0023
3399.00,0.0023
3398.00,0.0024
3397.00,0.0024
3396.00,0.0024
3395.00,0.0024
3394.00,0.0023
3393.00,0.0023
3392.00,0.0023
3391.00,0.0023
3390.00,0.0023
3389.00,0.0022
3388.00,0.0022
3387.00,0.0023
3386.00,0.0023
3385.00,0.0023
3384.00,0.0023
3383.00,0.0023
3382.00,0.0023
3381.00,0.0022
3380.00,0.0022
3379.00,0.0023
3378.00,0.0023
3377.00,0.0023
3376.00,0.0023
3375.00,0.0022
3374.00,0.0022
3373.00,0.0022
3372.00,0.0022
3371.00,0.0022
3370.00,0.0022
3369.00,0.0022
3368.00,0.0022
3367.00,0.0022
3366.00,0.0022
3365.00,0.0022
3364.00,0.0022
3363.00,0.0022
3362.00,0.0022
3361.00,0.0022
3360.00,0.0022
3359.00,0.0022
3358.00,0.0022
3357.00,0.0022
3356.00,0.0022
3355.00,0.0022
3354.00,0.0023
3353.00,0.0023
3352.00,0.0023
3351.00,0.0023
3350.00,0.0023
3349.00,0.0023
3348.00,0.0023
3347.00,0.0023
3346.00,0.0023
3345.00,0.0023
3344.00,0.0023
3343.00,0.0023
3342.00,0.0023
3341.00,0.0023
3340.00,0.0023
3339.00,0.0023
3338.00,0.0022
3337.00,0.0022
3336.00,0.0022
3335.00,0.0022
3334.00,0.0022
3333.00,0.0021
3332.00,0.0021
3331.00,0.0021
3330.00,0.0021
3329.00,0.0020
3328.00,0.0021
3327.00,0.0021
3326.00,0.0021
3325.00,0.0022
3324.00,0.0022
3323.00,0.0022
3322.00,0.0022
3321.00,0.0022
3320.00,0.0021
3319.00,0.0021
3318.00,0.0021
3317.00,0.0021
3316.00,0.0021
3315.00,0.0021
3314.00,0.0021
3313.00,0.0021
3312.00,0.0021
3311.00,0.0020
3310.00,0.0020
3309.00,0.0020
3308.00,0.0021
3307.00,0.0021
3306.00,0.0021
3305.00,0.0021
3304.00,0.0021
3303.00,0.0021
3302.00,0.0021
3301.00,0.0021
3300.00,0.0021
3299.00,0.0021
3298.00,0.0022
3297.00,0.0022
3296.00,0.0022
3295.00,0.0022
3294.00,0.0021
3293.00,0.0021
3292.00,0.0021
3291.00,0.0021
3290.00,0.0021
3289.00,0.0021
3288.00,0.0021
3287.00,0.0020
3286.00,0.0020
3285.00,0.0020
3284.00,0.0020
3283.00,0.0020
3282.00,0.0021
3281.00,0.0021
3280.00,0.0021
3279.00,0.0021
3278.00,0.0021
3277.00,0.0021
3276.00,0.0021
3275.00,0.0021
3274.00,0.0021
3273.00,0.0021
3272.00,0.0021
3271.00,0.0021
3270.00,0.0021
3269.00,0.0021
3268.00,0.0021
3267.00,0.0021
3266.00,0.0021
3265.00,0.0021
3264.00,0.0021
3263.00,0.0021
3262.00,0.0021
3261.00,0.0020
3260.00,0.0020
3259.00,0.0020
3258.00,0.0020
3257.00,0.0020
3256.00,0.0020
3255.00,0.0020
3254.00,0.0020
3253.00,0.0020
3252.00,0.0020
3251.00,0.0020
3250.00,0.0019
3249.00,0.0020
3248.00,0.0020
3247.00,0.0020
3246.00,0.0020
3245.00,0.0020
3244.00,0.0020
3243.00,0.0020
3242.00,0.0021
3241.00,0.0021
3240.00,0.0021
3239.00,0.0021
3238.00,0.0020
3237.00,0.0020
3236.00,0.0020
3235.00,0.0020
3234.00,0.0020
3233.00,0.0021
3232.00,0.0021
3231.00,0.0022
3230.00,0.0022
3229.00,0.0022
3228.00,0.0023
3227.00,0.0023
3226.00,0.0023
3225.00,0.0023
3224.00,0.0023
3223.00,0.0024
3222.00,0.0024
3221.00,0.0024
3220.00,0.0024
3219.00,0.0024
3218.00,0.0024
3217.00,0.0025
3216.00,0.0025
3215.00,0.0025
3214.00,0.0025
3213.00,0.0026
3212.00,0.0026
3211.00,0.0027
3210.00,0.0027
3209.00,0.0027
3208.00,0.0027
3207.00,0.0027
3206.00,0.0027
3205.00,0.0027
3204.00,0.0028
3203.00,0.0028
3202.00,0.0028
3201.00,0.0029
3200.00,0.0029
3199.00,0.0029
3198.00,0.0029
3197.00,0.0029
3196.00,0.0028
3195.00,0.0028
3194.00,0.0028
3193.00,0.0029
3192.00,0.0029
3191.00,0.0029
3190.00,0.0029
3189.00,0.0029
3188.00,0.0029
3187.00,0.0029
3186.00,0.0029
3185.00,0.0028
3184.00,0.0028
3183.00,0.0028
3182.00,0.0028
3181.00,0.0028
3180.00,0.0028
3179.00,0.0028
3178.00,0.0028
3177.00,0.0027
3176.00,0.0027
3175.00,0.0027
3174.00,0.0027
3173.00,0.0026
3172.00,0.0026
3171.00,0.0026
3170.00,0.0026
3169.00,0.0026
3168.00,0.0027
3167.00,0.0027
3166.00,0.0027
3165.00,0.0027
3164.00,0.0026
3163.00,0.0026
3162.00,0.0026
3161.00,0.0027
3160.00,0.0027
3159.00,0.0027
3158.00,0.0027
3157.00,0.0027
3156.00,0.0027
3155.00,0.0027
3154.00,0.0027
3153.00,0.0027
3152.00,0.0027
3151.00,0.0027
3150.00,0.0027
3149.00,0.0027
3148.00,0.0027
3147.00,0.0027
3146.00,0.0028
3145.00,0.0028
3144.00,0.0027
3143.00,0.0027
3142.00,0.0027
3141.00,0.0027
3140.00,0.0027
3139.00,0.0027
3138.00,0.0027
3137.00,0.0027
3136.00,0.0027
3135.00,0.0027
3134.00,0.0027
3133.00,0.0027
3132.00,0.0027
3131.00,0.0026
3130.00,0.0026
3129.00,0.0025
3128.00,0.0025
3127.00,0.0025
3126.00,0.0026
3125.00,0.0026
3124.00,0.0026
3123.00,0.0025
3122.00,0.0025
3121.00,0.0025
3120.00,0.0025
3119.00,0.0024
3118.00,0.0024
3117.00,0.0024
3116.00,0.0023
3115.00,0.0023
3114.00,0.0023
3113.00,0.0023
3112.00,0.0023
3111.00,0.0023
3110.00,0.0023
3109.00,0.0024
3108.00,0.0024
3107.00,0.0024
3106.00,0.0024
3105.00,0.0023
3104.00,0.0023
3103.00,0.0023
3102.00,0.0023
3101.00,0.0022
3100.00,0.0022
3099.00,0.0023
3098.00,0.0023
3097.00,0.0024
3096.00,0.0024
3095.00,0.0024
3094.00,0.0023
3093.00,0.0023
3092.00,0.0023
3091.00,0.0023
3090.00,0.0023
3089.00,0.0023
3088.00,0.0023
3087.00,0.0023
3086.00,0.0023
3085.00,0.0023
3084.00,0.0023
3083.00,0.0023
3082.00,0.0023
3081.00,0.0023
3080.00,0.0023
3079.00,0.0023
3078.00,0.0024
3077.00,0.0024
3076.00,0.0024
3075.00,0.0025
3074.00,0.0025
3073.00,0.0025
3072.00,0.0025
3071.00,0.0025
3070.00,0.0025
3069.00,0.0025
3068.00,0.0025
3067.00,0.0025
3066.00,0.0025
3065.00,0.0026
3064.00,0.0026
3063.00,0.0026
3062.00,0.0026
3061.00,0.0026
3060.00,0.0026
3059.00,0.0026
3058.00,0.0026
3057.00,0.0027
3056.00,0.0027
3055.00,0.0027
3054.00,0.0027
3053.00,0.0028
3052.00,0.0027
3051.00,0.0027
3050.00,0.0027
3049.00,0.0028
3048.00,0.0028
3047.00,0.0029
3046.00,0.0029
3045.00,0.0029
3044.00,0.0029
3043.00,0.0029
3042.00,0.0029
3041.00,0.0030
3040.00,0.0030
3039.00,0.0030
3038.00,0.0030
3037.00,0.0030
3036.00,0.0030
3035.00,0.0031
3034.00,0.0031
3033.00,0.0031
3032.00,0.0032
3031.00,0.0032
3030.00,0.0033
3029.00,0.0033
3028.00,0.0033
3027.00,0.0034
3026.00,0.0035
3025.00,0.0036
3024.00,0.0037
3023.00,0.0037
3022.00,0.0038
3021.00,0.0039
3020.00,0.0039
3019.00,0.0039
3018.00,0.0039
3017.00,0.0040
3016.00,0.0041
3015.00,0.0043
3014.00,0.0045
3013.00,0.0046
3012.00,0.0047
3011.00,0.0048
3010.00,0.0050
3009.00,0.0051
3008.00,0.0052
3007.00,0.0054
3006.00,0.0056
3005.00,0.0057
3004.00,0.0059
3003.00,0.0061
3002.00,0.0063
3001.00,0.0065
3000.00,0.0068
2999.00,0.0071
2998.00,0.0074
2997.00,0.0077
2996.00,0.0080
2995.00,0.0084
2994.00,0.0088
2993.00,0.0093
2992.00,0.0098
2991.00,0.0104
2990.00,0.0110
2989.00,0.0116
2988.00,0.0124
2987.00,0.0133
2986.00,0.0142
2985.00,0.0154
2984.00,0.0166
2983.00,0.0180
2982.00,0.0196
2981.00,0.0213
2980.00,0.0233
2979.00,0.0255
2978.00,0.0281
2977.00,0.0311
2976.00,0.0345
2975.00,0.0385
2974.00,0.0430
2973.00,0.0482
2972.00,0.0541
2971.00,0.0607
2970.00,0.0681
2969.00,0.0764
2968.00,0.0855
2967.00,0.0954
2966.00,0.1059
2965.00,0.1168
2964.00,0.1277
2963.00,0.1380
2962.00,0.1472
2961.00,0.1547
2960.00,0.1602
2959.00,0.1640
2958.00,0.1666
2957.00,0.1687
2956.00,0.1709
2955.00,0.1739
2954.00,0.1777
2953.00,0.1819
2952.00,0.1856
2951.00,0.1876
2950.00,0.1868
2949.00,0.1827
2948.00,0.1751
2947.00,0.1646
2946.00,0.1523
2945.00,0.1395
2944.00,0.1274
2943.00,0.1170
2942.00,0.1088
2941.00,0.1030
2940.00,0.0996
2939.00,0.0982
2938.00,0.0988
2937.00,0.1011
2936.00,0.1049
2935.00,0.1101
2934.00,0.1167
2933.00,0.1244
2932.00,0.1330
2931.00,0.1425
2930.00,0.1526
2929.00,0.1629
2928.00,0.1731
2927.00,0.1831
2926.00,0.1927
2925.00,0.2020
2924.00,0.2109
2923.00,0.2197
2922.00,0.2282
2921.00,0.2363
2920.00,0.2432
2919.00,0.2481
2918.00,0.2503
2917.00,0.2491
2916.00,0.2447
2915.00,0.2378
2914.00,0.2293
2913.00,0.2203
2912.00,0.2117
2911.00,0.2039
2910.00,0.1972
2909.00,0.1914
2908.00,0.1860
2907.00,0.1809
2906.00,0.1756
2905.00,0.1700
2904.00,0.1641
2903.00,0.1579
2902.00,0.1515
2901.00,0.1451
2900.00,0.1389
2899.00,0.1328
2898.00,0.1272
2897.00,0.1220
2896.00,0.1173
2895.00,0.1133
2894.00,0.1098
2893.00,0.1069
2892.00,0.1047
2891.00,0.1030
2890.00,0.1018
2889.00,0.1011
2888.00,0.1006
2887.00,0.1005
2886.00,0.1007
2885.00,0.1013
2884.00,0.1022
2883.00,0.1035
2882.00,0.1050
2881.00,0.1067
2880.00,0.1082
2879.00,0.1094
2878.00,0.1099
2877.00,0.1097
2876.00,0.1089
2875.00,0.1080
2874.00,0.1074
2873.00,0.1074
2872.00,0.1082
2871.00,0.1096
2870.00,0.1114
2869.00,0.1130
2868.00,0.1138
2867.00,0.1131
2866.00,0.1105
2865.00,0.1057
2864.00,0.0992
2863.00,0.0918
2862.00,0.0845
2861.00,0.0781
2860.00,0.0730
2859.00,0.0695
2858.00,0.0674
2857.00,0.0665
2856.00,0.0667
2855.00,0.0677
2854.00,0.0694
2853.00,0.0715
2852.00,0.0738
2851.00,0.0761
2850.00,0.0781
2849.00,0.0800
2848.00,0.0819
2847.00,0.0843
2846.00,0.0874
2845.00,0.0916
2844.00,0.0968
2843.00,0.1027
2842.00,0.1089
2841.00,0.1146
2840.00,0.1191
2839.00,0.1215
2838.00,0.1211
2837.00,0.1176
2836.00,0.1111
2835.00,0.1021
2834.00,0.0918
2833.00,0.0812
2832.00,0.0711
2831.00,0.0621
2830.00,0.0546
2829.00,0.0484
2828.00,0.0434
2827.00,0.0393
2826.00,0.0360
2825.00,0.0332
2824.00,0.0309
2823.00,0.0289
2822.00,0.0272
2821.00,0.0257
2820.00,0.0245
2819.00,0.0233
2818.00,0.0223
2817.00,0.0215
2816.00,0.0207
2815.00,0.0201
2814.00,0.0195
2813.00,0.0190
2812.00,0.0185
2811.00,0.0180
2810.00,0.0175
2809.00,0.0170
2808.00,0.0164
2807.00,0.0158
2806.00,0.0152
2805.00,0.0145
2804.00,0.0139
2803.00,0.0133
2802.00,0.0128
2801.00,0.0124
2800.00,0.0121
2799.00,0.0119
2798.00,0.0117
2797.00,0.0115
2796.00,0.0113
2795.00,0.0110
2794.00,0.0107
2793.00,0.0104
2792.00,0.0101
2791.00,0.0098
2790.00,0.0094
2789.00,0.0091
2788.00,0.0087
2787.00,0.0084
2786.00,0.0081
2785.00,0.0079
2784.00,0.0076
2783.00,0.0074
2782.00,0.0072
2781.00,0.0070
2780.00,0.0068
2779.00,0.0066
2778.00,0.0065
2777.00,0.0064
2776.00,0.0063
2775.00,0.0062
2774.00,0.0061
2773.00,0.0061
2772.00,0.0060
2771.00,0.0060
2770.00,0.0059
2769.00,0.0059
2768.00,0.0058
2767.00,0.0058
2766.00,0.0058
2765.00,0.0057
2764.00,0.0057
2763.00,0.0056
2762.00,0.0056
2761.00,0.0055
2760.00,0.0055
2759.00,0.0055
2758.00,0.0055
2757.00,0.0055
2756.00,0.0056
2755.00,0.0055
2754.00,0.0055
2753.00,0.0055
2752.00,0.0054
2751.00,0.0054
2750.00,0.0054
2749.00,0.0054
2748.00,0.0054
2747.00,0.0055
2746.00,0.0055
2745.00,0.0055
2744.00,0.0056
2743.00,0.0056
2742.00,0.0057
2741.00,0.0058
2740.00,0.0059
2739.00,0.0060
2738.00,0.0062
2737.00,0.0063
2736.00,0.0064
2735.00,0.0066
2734.00,0.0067
2733.00,0.0069
2732.00,0.0070
2731.00,0.0072
2730.00,0.0074
2729.00,0.0076
2728.00,0.0079
2727.00,0.0081
2726.00,0.0084
2725.00,0.0086
2724.00,0.0087
2723.00,0.0088
2722.00,0.0087
2721.00,0.0085
2720.00,0.0083
2719.00,0.0080
2718.00,0.0076
2717.00,0.0073
2716.00,0.0071
2715.00,0.0068
2714.00,0.0066
2713.00,0.0064
2712.00,0.0063
2711.00,0.0061
2710.00,0.0060
2709.00,0.0059
2708.00,0.0057
2707.00,0.0056
2706.00,0.0055
2705.00,0.0054
2704.00,0.0052
2703.00,0.0052
2702.00,0.0051
2701.00,0.0050
2700.00,0.0050
2699.00,0.0049
2698.00,0.0049
2697.00,0.0048
2696.00,0.0048
2695.00,0.0048
2694.00,0.0048
2693.00,0.0049
2692.00,0.0049
2691.00,0.0049
2690.00,0.0049
2689.00,0.0049
2688.00,0.0049
2687.00,0.0048
2686.00,0.0048
2685.00,0.0048
2684.00,0.0048
2683.00,0.0049
2682.00,0.0049
2681.00,0.0049
2680.00,0.0049
2679.00,0.0049
2678.00,0.0049
2677.00,0.0049
2676.00,0.0048
2675.00,0.0048
2674.00,0.0048
2673.00,0.0047
2672.00,0.0047
2671.00,0.0047
2670.00,0.0048
2669.00,0.0048
2668.00,0.0048
2667.00,0.0048
2666.00,0.0048
2665.00,0.0048
2664.00,0.0049
2663.00,0.0049
2662.00,0.0050
2661.00,0.0050
2660.00,0.0050
2659.00,0.0050
2658.00,0.0050
2657.00,0.0049
2656.00,0.0049
2655.00,0.0048
2654.00,0.0047
2653.00,0.0047
2652.00,0.0046
2651.00,0.0046
2650.00,0.0046
2649.00,0.0046
2648.00,0.0046
2647.00,0.0046
2646.00,0.0045
2645.00,0.0045
2644.00,0.0045
2643.00,0.0044
2642.00,0.0043
2641.00,0.0043
2640.00,0.0042
2639.00,0.0042
2638.00,0.0042
2637.00,0.0042
2636.00,0.0041
2635.00,0.0042
2634.00,0.0042
2633.00,0.0042
2632.00,0.0042
2631.00,0.0042
2630.00,0.0041
2629.00,0.0041
2628.00,0.0041
2627.00,0.0041
2626.00,0.0042
2625.00,0.0042
2624.00,0.0042
2623.00,0.0042
2622.00,0.0043
2621.00,0.0043
2620.00,0.0044
2619.00,0.0044
2618.00,0.0044
2617.00,0.0044
2616.00,0.0044
2615.00,0.0044
2614.00,0.0043
2613.00,0.0043
2612.00,0.0042
2611.00,0.0041
2610.00,0.0040
2609.00,0.0040
2608.00,0.0039
2607.00,0.0039
2606.00,0.0039
2605.00,0.0038
2604.00,0.0037
2603.00,0.0037
2602.00,0.0036
2601.00,0.0035
2600.00,0.0034
2599.00,0.0034
2598.00,0.0034
2597.00,0.0033
2596.00,0.0034
2595.00,0.0034
2594.00,0.0035
2593.00,0.0035
2592.00,0.0036
2591.00,0.0036
2590.00,0.0036
2589.00,0.0036
2588.00,0.0037
2587.00,0.0038
2586.00,0.0039
2585.00,0.0040
2584.00,0.0041
2583.00,0.0041
2582.00,0.0041
2581.00,0.0041
2580.00,0.0040
2579.00,0.0039
2578.00,0.0038
2577.00,0.0038
2576.00,0.0037
2575.00,0.0036
2574.00,0.0035
2573.00,0.0034
2572.00,0.0032
2571.00,0.0031
2570.00,0.0031
2569.00,0.0030
2568.00,0.0030
2567.00,0.0030
2566.00,0.0030
2565.00,0.0029
2564.00,0.0028
2563.00,0.0027
2562.00,0.0027
2561.00,0.0026
2560.00,0.0026
2559.00,0.0026
2558.00,0.0026
2557.00,0.0026
2556.00,0.0026
2555.00,0.0026
2554.00,0.0025
2553.00,0.0025
2552.00,0.0025
2551.00,0.0026
2550.00,0.0026
2549.00,0.0026
2548.00,0.0025
2547.00,0.0024
2546.00,0.0023
2545.00,0.0023
2544.00,0.0022
2543.00,0.0022
2542.00,0.0022
2541.00,0.0022
2540.00,0.0022
2539.00,0.0022
2538.00,0.0021
2537.00,0.0021
2536.00,0.0021
2535.00,0.0020
2534.00,0.0019
2533.00,0.0019
2532.00,0.0019
2531.00,0.0019
2530.00,0.0020
2529.00,0.0020
2528.00,0.0020
2527.00,0.0019
2526.00,0.0019
2525.00,0.0018
2524.00,0.0018
2523.00,0.0018
2522.00,0.0019
2521.00,0.0019
2520.00,0.0019
2519.00,0.0018
2518.00,0.0018
2517.00,0.0017
2516.00,0.0017
2515.00,0.0016
2514.00,0.0016
2513.00,0.0015
2512.00,0.0016
2511.00,0.0016
2510.00,0.0017
2509.00,0.0017
2508.00,0.0017
2507.00,0.0017
2506.00,0.0017
2505.00,0.0016
2504.00,0.0016
2503.00,0.0015
2502.00,0.0014
2501.00,0.0014
2500.00,0.0013
2499.00,0.0013
2498.00,0.0013
2497.00,0.0014
2496.00,0.0015
2495.00,0.0015
2494.00,0.0016
2493.00,0.0016
2492.00,0.0016
2491.00,0.0015
2490.00,0.0015
2489.00,0.0015
2488.00,0.0014
2487.00,0.0014
2486.00,0.0014
2485.00,0.0014
2484.00,0.0014
2483.00,0.0014
2482.00,0.0015
2481.00,0.0015
2480.00,0.0015
2479.00,0.0014
2478.00,0.0014
2477.00,0.0014
2476.00,0.0014
2475.00,0.0014
2474.00,0.0014
2473.00,0.0013
2472.00,0.0013
2471.00,0.0013
2470.00,0.0013
2469.00,0.0013
2468.00,0.0013
2467.00,0.0013
2466.00,0.0013
2465.00,0.0013
2464.00,0.0013
2463.00,0.0013
2462.00,0.0013
2461.00,0.0014
2460.00,0.0014
2459.00,0.0015
2458.00,0.0015
2457.00,0.0015
2456.00,0.0015
2455.00,0.0015
2454.00,0.0015
2453.00,0.0016
2452.00,0.0016
2451.00,0.0016
2450.00,0.0016
2449.00,0.0016
2448.00,0.0015
2447.00,0.0015
2446.00,0.0015
2445.00,0.0015
2444.00,0.0015
2443.00,0.0015
2442.00,0.0016
2441.00,0.0016
2440.00,0.0016
2439.00,0.0016
2438.00,0.0015
2437.00,0.0015
2436.00,0.0015
2435.00,0.0015
2434.00,0.0015
2433.00,0.0015
2432.00,0.0016
2431.00,0.0016
2430.00,0.0016
2429.00,0.0016
2428.00,0.0016
2427.00,0.0015
2426.00,0.0015
2425.00,0.0014
2424.00,0.0015
2423.00,0.0015
2422.00,0.0015
2421.00,0.0015
2420.00,0.0015
2419.00,0.0015
2418.00,0.0014
2417.00,0.0014
2416.00,0.0014
2415.00,0.0015
2414.00,0.0015
2413.00,0.0015
2412.00,0.0015
2411.00,0.0015
2410.00,0.0015
2409.00,0.0015
2408.00,0.0015
2407.00,0.0015
2406.00,0.0014
2405.00,0.0014
2404.00,0.0014
2403.00,0.0014
2402.00,0.0014
2401.00,0.0014
2400.00,0.0014
2399.00,0.0013
2398.00,0.0013
2397.00,0.0014
2396.00,0.0014
2395.00,0.0014
2394.00,0.0014
2393.00,0.0015
2392.00,0.0015
2391.00,0.0014
2390.00,0.0014
2389.00,0.0013
2388.00,0.0013
2387.00,0.0013
2386.00,0.0012
2385.00,0.0012
2384.00,0.0012
2383.00,0.0011
2382.00,0.0010
2381.00,0.0009
2380.00,0.0008
2379.00,0.0009
2378.00,0.0009
2377.00,0.0010
2376.00,0.0009
2375.00,0.0009
2374.00,0.0008
2373.00,0.0008
2372.00,0.0009
2371.00,0.0010
2370.00,0.0010
2369.00,0.0010
2368.00,0.0009
2367.00,0.0008
2366.00,0.0007
2365.00,0.0007
2364.00,0.0007
2363.00,0.0008
2362.00,0.0008
2361.00,0.0009
2360.00,0.0010
2359.00,0.0010
2358.00,0.0010
2357.00,0.0010
2356.00,0.0011
2355.00,0.0011
2354.00,0.0010
2353.00,0.0008
2352.00,0.0012
2351.00,0.0016
2350.00,0.0015
2349.00,0.0016
2348.00,0.0014
2347.00,0.0016
2346.00,0.0011
2345.00,0.0007
2344.00,0.0010
2343.00,0.0010
2342.00,0.0011
2341.00,0.0012
2340.00,0.0013
2339.00,0.0012
2338.00,0.0012
2337.00,0.0012
2336.00,0.0012
2335.00,0.0012
2334.00,0.0012
2333.00,0.0012
2332.00,0.0012
2331.00,0.0012
2330.00,0.0012
2329.00,0.0013
2328.00,0.0014
2327.00,0.0017
2326.00,0.0020
2325.00,0.0023
2324.00,0.0024
2323.00,0.0023
2322.00,0.0021
2321.00,0.0019
2320.00,0.0018
2319.00,0.0017
2318.00,0.0017
2317.00,0.0017
2316.00,0.0016
2315.00,0.0016
2314.00,0.0015
2313.00,0.0015
2312.00,0.0014
2311.00,0.0014
2310.00,0.0014
2309.00,0.0014
2308.00,0.0013
2307.00,0.0013
2306.00,0.0013
2305.00,0.0013
2304.00,0.0013
2303.00,0.0014
2302.00,0.0014
2301.00,0.0014
2300.00,0.0014
2299.00,0.0015
2298.00,0.0016
2297.00,0.0016
2296.00,0.0016
2295.00,0.0016
2294.00,0.0016
2293.00,0.0016
2292.00,0.0017
2291.00,0.0018
2290.00,0.0019
2289.00,0.0019
2288.00,0.0019
2287.00,0.0020
2286.00,0.0020
2285.00,0.0020
2284.00,0.0020
2283.00,0.0020
2282.00,0.0019
2281.00,0.0017
2280.00,0.0017
2279.00,0.0016
2278.00,0.0016
2277.00,0.0016
2276.00,0.0016
2275.00,0.0015
2274.00,0.0015
2273.00,0.0015
2272.00,0.0015
2271.00,0.0016
2270.00,0.0016
2269.00,0.0016
2268.00,0.0016
2267.00,0.0016
2266.00,0.0015
2265.00,0.0014
2264.00,0.0013
2263.00,0.0013
2262.00,0.0013
2261.00,0.0014
2260.00,0.0014
2259.00,0.0014
2258.00,0.0014
2257.00,0.0013
2256.00,0.0013
2255.00,0.0013
2254.00,0.0013
2253.00,0.0013
2252.00,0.0013
2251.00,0.0013
2250.00,0.0012
2249.00,0.0013
2248.00,0.0014
2247.00,0.0014
2246.00,0.0014
2245.00,0.0014
2244.00,0.0014
2243.00,0.0014
2242.00,0.0013
2241.00,0.0013
2240.00,0.0012
2239.00,0.0011
2238.00,0.0010
2237.00,0.0009
2236.00,0.0008
2235.00,0.0008
2234.00,0.0009
2233.00,0.0010
2232.00,0.0011
2231.00,0.0011
2230.00,0.0011
2229.00,0.0010
2228.00,0.0010
2227.00,0.0011
2226.00,0.0012
2225.00,0.0011
2224.00,0.0009
2223.00,0.0007
2222.00,0.0005
2221.00,0.0005
2220.00,0.0006
2219.00,0.0009
2218.00,0.0011
2217.00,0.0012
2216.00,0.0011
2215.00,0.0008
2214.00,0.0005
2213.00,0.0003
2212.00,0.0003
2211.00,0.0004
2210.00,0.0005
2209.00,0.0007
2208.00,0.0009
2207.00,0.0011
2206.00,0.0012
2205.00,0.0014
2204.00,0.0014
2203.00,0.0014
2202.00,0.0012
2201.00,0.0008
2200.00,0.0005
2199.00,0.0004
2198.00,0.0004
2197.00,0.0006
2196.00,0.0008
2195.00,0.0009
2194.00,0.0009
2193.00,0.0010
2192.00,0.0011
2191.00,0.0013
2190.00,0.0014
2189.00,0.0015
2188.00,0.0014
2187.00,0.0012
2186.00,0.0011
2185.00,0.0011
2184.00,0.0010
2183.00,0.0008
2182.00,0.0007
2181.00,0.0007
2180.00,0.0007
2179.00,0.0008
2178.00,0.0009
2177.00,0.0009
2176.00,0.0007
2175.00,0.0005
2174.00,0.0005
2173.00,0.0008
2172.00,0.0011
2171.00,0.0012
2170.00,0.0013
2169.00,0.0012
2168.00,0.0012
2167.00,0.0012
2166.00,0.0013
2165.00,0.0014
2164.00,0.0015
2163.00,0.0016
2162.00,0.0016
2161.00,0.0013
2160.00,0.0006
2159.00,-0.0005
2158.00,-0.0014
2157.00,-0.0019
2156.00,-0.0021
2155.00,-0.0020
2154.00,-0.0018
2153.00,-0.0015
2152.00,-0.0014
2151.00,-0.0013
2150.00,-0.0012
2149.00,-0.0009
2148.00,-0.0006
2147.00,-0.0005
2146.00,-0.0005
2145.00,-0.0006
2144.00,-0.0007
2143.00,-0.0008
2142.00,-0.0010
2141.00,-0.0010
2140.00,-0.0010
2139.00,-0.0009
2138.00,-0.0009
2137.00,-0.0009
2136.00,-0.0011
2135.00,-0.0014
2134.00,-0.0015
2133.00,-0.0015
2132.00,-0.0012
2131.00,-0.0009
2130.00,-0.0006
2129.00,-0.0003
2128.00,-0.0001
2127.00,0.0000
2126.00,0.0000
2125.00,0.0001
2124.00,0.0001
2123.00,0.0002
2122.00,0.0002
2121.00,0.0002
2120.00,0.0002
2119.00,0.0003
2118.00,0.0003
2117.00,0.0004
2116.00,0.0005
2115.00,0.0006
2114.00,0.0006
2113.00,0.0006
2112.00,0.0006
2111.00,0.0007
2110.00,0.0008
2109.00,0.0008
2108.00,0.0007
2107.00,0.0004
2106.00,0.0002
2105.00,0.0000
2104.00,0.0001
2103.00,0.0003
2102.00,0.0005
2101.00,0.0006
2100.00,0.0005
2099.00,0.0004
2098.00,0.0003
2097.00,0.0002
2096.00,0.0002
2095.00,0.0002
2094.00,0.0001
2093.00,0.0001
2092.00,0.0001
2091.00,0.0001
2090.00,0.0001
2089.00,0.0003
2088.00,0.0004
2087.00,0.0005
2086.00,0.0005
2085.00,0.0005
2084.00,0.0005
2083.00,0.0004
2082.00,0.0003
2081.00,0.0003
2080.00,0.0002
2079.00,0.0002
2078.00,0.0001
2077.00,0.0001
2076.00,0.0001
2075.00,0.0001
2074.00,0.0000
2073.00,0.0001
2072.00,0.0003
2071.00,0.0004
2070.00,0.0005
2069.00,0.0004
2068.00,0.0002
2067.00,0.0001
2066.00,-0.0000
2065.00,-0.0000
2064.00,0.0000
2063.00,0.0000
2062.00,-0.0000
2061.00,-0.0000
2060.00,0.0001
2059.00,0.0002
2058.00,0.0003
2057.00,0.0003
2056.00,0.0003
2055.00,0.0003
2054.00,0.0004
2053.00,0.0007
2052.00,0.0010
2051.00,0.0011
2050.00,0.0008
2049.00,0.0003
2048.00,-0.0002
2047.00,-0.0002
2046.00,0.0001
2045.00,0.0006
2044.00,0.0009
2043.00,0.0009
2042.00,0.0007
2041.00,0.0006
2040.00,0.0005
2039.00,0.0004
2038.00,0.0003
2037.00,0.0001
2036.00,-0.0000
2035.00,-0.0001
2034.00,-0.0002
2033.00,-0.0003
2032.00,-0.0003
2031.00,-0.0005
2030.00,-0.0007
2029.00,-0.0009
2028.00,-0.0009
2027.00,-0.0009
2026.00,-0.0008
2025.00,-0.0008
2024.00,-0.0006
2023.00,-0.0005
2022.00,-0.0004
2021.00,-0.0004
2020.00,-0.0004
2019.00,-0.0005
2018.00,-0.0007
2017.00,-0.0008
2016.00,-0.0009
2015.00,-0.0011
2014.00,-0.0012
2013.00,-0.0013
2012.00,-0.0014
2011.00,-0.0013
2010.00,-0.0012
2009.00,-0.0011
2008.00,-0.0012
2007.00,-0.0012
2006.00,-0.0012
2005.00,-0.0011
2004.00,-0.0010
2003.00,-0.0009
2002.00,-0.0009
2001.00,-0.0010
2000.00,-0.0011
1999.00,-0.0012
1998.00,-0.0013
1997.00,-0.0014
1996.00,-0.0014
1995.00,-0.0013
1994.00,-0.0011
1993.00,-0.0008
1992.00,-0.0005
1991.00,-0.0003
1990.00,-0.0002
1989.00,-0.0002
1988.00,-0.0002
1987.00,-0.0002
1986.00,-0.0002
1985.00,-0.0001
1984.00,0.0000
1983.00,0.0002
1982.00,0.0005
1981.00,0.0007
1980.00,0.0009
1979.00,0.0007
1978.00,0.0003
1977.00,-0.0003
1976.00,-0.0008
1975.00,-0.0012
1974.00,-0.0012
1973.00,-0.0012
1972.00,-0.0012
1971.00,-0.0013
1970.00,-0.0014
1969.00,-0.0014
1968.00,-0.0013
1967.00,-0.0012
1966.00,-0.0011
1965.00,-0.0011
1964.00,-0.0010
1963.00,-0.0010
1962.00,-0.0010
1961.00,-0.0011
1960.00,-0.0011
1959.00,-0.0012
1958.00,-0.0013
1957.00,-0.0014
1956.00,-0.0015
1955.00,-0.0015
1954.00,-0.0016
1953.00,-0.0017
1952.00,-0.0017
1951.00,-0.0016
1950.00,-0.0015
1949.00,-0.0015
1948.00,-0.0015
1947.00,-0.0015
1946.00,-0.0016
1945.00,-0.0015
1944.00,-0.0014
1943.00,-0.0013
1942.00,-0.0011
1941.00,-0.0008
1940.00,-0.0006
1939.00,-0.0005
1938.00,-0.0004
1937.00,-0.0005
1936.00,-0.0006
1935.00,-0.0007
1934.00,-0.0009
1933.00,-0.0009
1932.00,-0.0008
1931.00,-0.0007
1930.00,-0.0006
1929.00,-0.0005
1928.00,-0.0004
1927.00,-0.0003
1926.00,-0.0002
1925.00,-0.0002
1924.00,-0.0002
1923.00,-0.0001
1922.00,-0.0001
1921.00,-0.0001
1920.00,-0.0001
1919.00,-0.0001
1918.00,-0.0002
1917.00,-0.0001
1916.00,-0.0001
1915.00,-0.0001
1914.00,-0.0001
1913.00,-0.0001
1912.00,-0.0002
1911.00,-0.0002
1910.00,-0.0002
1909.00,-0.0002
1908.00,-0.0001
1907.00,-0.0001
1906.00,-0.0001
1905.00,-0.0001
1904.00,-0.0001
1903.00,-0.0000
1902.00,0.0000
1901.00,0.0001
1900.00,0.0001
1899.00,0.0001
1898.00,0.0002
1897.00,0.0002
1896.00,0.0002
1895.00,0.0002
1894.00,0.0002
1893.00,0.0002
1892.00,0.0002
1891.00,0.0002
1890.00,0.0001
1889.00,0.0001
1888.00,0.0001
1887.00,0.0001
1886.00,0.0001
1885.00,0.0001
1884.00,0.0002
1883.00,0.0001
1882.00,0.0001
1881.00,0.0001
1880.00,0.0001
1879.00,0.0000
1878.00,0.0001
1877.00,0.0001
1876.00,0.0001
1875.00,0.0002
1874.00,0.0002
1873.00,0.0002
1872.00,0.0001
1871.00,0.0000
1870.00,-0.0000
1869.00,-0.0000
1868.00,0.0000
1867.00,0.0001
1866.00,0.0001
1865.00,0.0001
1864.00,0.0001
1863.00,0.0001
1862.00,0.0001
1861.00,0.0001
1860.00,0.0001
1859.00,0.0002
1858.00,0.0002
1857.00,0.0002
1856.00,0.0002
1855.00,0.0002
1854.00,0.0003
1853.00,0.0003
1852.00,0.0003
1851.00,0.0004
1850.00,0.0004
1849.00,0.0005
1848.00,0.0005
1847.00,0.0005
1846.00,0.0005
1845.00,0.0004
1844.00,0.0004
1843.00,0.0004
1842.00,0.0004
1841.00,0.0005
1840.00,0.0005
1839.00,0.0005
1838.00,0.0004
1837.00,0.0004
1836.00,0.0003
1835.00,0.0004
1834.00,0.0004
1833.00,0.0005
1832.00,0.0006
1831.00,0.0006
1830.00,0.0006
1829.00,0.0006
1828.00,0.0006
1827.00,0.0006
1826.00,0.0006
1825.00,0.0006
1824.00,0.0005
1823.00,0.0005
1822.00,0.0004
1821.00,0.0003
1820.00,0.0003
1819.00,0.0002
1818.00,0.0001
1817.00,0.0001
1816.00,0.0001
1815.00,0.0002
1814.00,0.0002
1813.00,0.0003
1812.00,0.0003
1811.00,0.0004
1810.00,0.0004
1809.00,0.0005
1808.00,0.0005
1807.00,0.0006
1806.00,0.0006
1805.00,0.0007
1804.00,0.0007
1803.00,0.0007
1802.00,0.0007
1801.00,0.0007
1800.00,0.0007
1799.00,0.0007
1798.00,0.0007
1797.00,0.0007
1796.00,0.0007
1795.00,0.0007
1794.00,0.0007
1793.00,0.0007
1792.00,0.0007
1791.00,0.0007
1790.00,0.0007
1789.00,0.0007
1788.00,0.0008
1787.00,0.0009
1786.00,0.0009
1785.00,0.0009
1784.00,0.0009
1783.00,0.0009
1782.00,0.0009
1781.00,0.0009
1780.00,0.0009
1779.00,0.0008
1778.00,0.0008
1777.00,0.0008
1776.00,0.0008
1775.00,0.0008
1774.00,0.0007
1773.00,0.0008
1772.00,0.0009
1771.00,0.0010
1770.00,0.0011
1769.00,0.0012
1768.00,0.0012
1767.00,0.0012
1766.00,0.0012
1765.00,0.0011
1764.00,0.0011
1763.00,0.0011
1762.00,0.0012
1761.00,0.0012
1760.00,0.0012
1759.00,0.0012
1758.00,0.0012
1757.00,0.0013
1756.00,0.0013
1755.00,0.0013
1754.00,0.0014
1753.00,0.0014
1752.00,0.0014
1751.00,0.0014
1750.00,0.0014
1749.00,0.0015
1748.00,0.0015
1747.00,0.0015
1746.00,0.0015
1745.00,0.0016
1744.00,0.0016
1743.00,0.0016
1742.00,0.0016
1741.00,0.0016
1740.00,0.0017
1739.00,0.0017
1738.00,0.0016
1737.00,0.0016
1736.00,0.0016
1735.00,0.0015
1734.00,0.0015
1733.00,0.0015
1732.00,0.0016
1731.00,0.0016
1730.00,0.0017
1729.00,0.0017
1728.00,0.0017
1727.00,0.0017
1726.00,0.0017
1725.00,0.0017
1724.00,0.0017
1723.00,0.0017
1722.00,0.0017
1721.00,0.0017
1720.00,0.0017
1719.00,0.0018
1718.00,0.0018
1717.00,0.0019
1716.00,0.0019
1715.00,0.0019
1714.00,0.0018
1713.00,0.0018
1712.00,0.0018
1711.00,0.0018
1710.00,0.0018
1709.00,0.0019
1708.00,0.0019
1707.00,0.0020
1706.00,0.0020
1705.00,0.0020
1704.00,0.0020
1703.00,0.0021
1702.00,0.0021
1701.00,0.0021
1700.00,0.0021
1699.00,0.0021
1698.00,0.0021
1697.00,0.0022
1696.00,0.0022
1695.00,0.0022
1694.00,0.0022
1693.00,0.0022
1692.00,0.0023
1691.00,0.0022
1690.00,0.0022
1689.00,0.0022
1688.00,0.0022
1687.00,0.0021
1686.00,0.0021
1685.00,0.0021
1684.00,0.0021
1683.00,0.0022
1682.00,0.0023
1681.00,0.0024
1680.00,0.0024
1679.00,0.0024
1678.00,0.0024
1677.00,0.0024
1676.00,0.0025
1675.00,0.0025
1674.00,0.0024
1673.00,0.0024
1672.00,0.0024
1671.00,0.0024
1670.00,0.0024
1669.00,0.0024
1668.00,0.0025
1667.00,0.0025
1666.00,0.0025
1665.00,0.0025
1664.00,0.0026
1663.00,0.0026
1662.00,0.0026
1661.00,0.0026
1660.00,0.0026
1659.00,0.0026
1658.00,0.0026
1657.00,0.0026
1656.00,0.0026
1655.00,0.0026
1654.00,0.0025
1653.00,0.0026
1652.00,0.0027
1651.00,0.0028
1650.00,0.0030
1649.00,0.0031
1648.00,0.0032
1647.00,0.0034
1646.00,0.0034
1645.00,0.0033
1644.00,0.0033
1643.00,0.0032
1642.00,0.0032
1641.00,0.0031
1640.00,0.0031
1639.00,0.0031
1638.00,0.0031
1637.00,0.0031
1636.00,0.0031
1635.00,0.0031
1634.00,0.0031
1633.00,0.0031
1632.00,0.0031
1631.00,0.0032
1630.00,0.0032
1629.00,0.0032
1628.00,0.0032
1627.00,0.0032
1626.00,0.0032
1625.00,0.0032
1624.00,0.0031
1623.00,0.0031
1622.00,0.0030
1621.00,0.0030
1620.00,0.0031
1619.00,0.0031
1618.00,0.0031
1617.00,0.0031
1616.00,0.0031
1615.00,0.0031
1614.00,0.0030
1613.00,0.0030
1612.00,0.0030
1611.00,0.0030
1610.00,0.0030
1609.00,0.0030
1608.00,0.0030
1607.00,0.0030
1606.00,0.0030
1605.00,0.0030
1604.00,0.0030
1603.00,0.0030
1602.00,0.0030
1601.00,0.0030
1600.00,0.0030
1599.00,0.0030
1598.00,0.0031
1597.00,0.0031
1596.00,0.0031
1595.00,0.0031
1594.00,0.0031
1593.00,0.0031
1592.00,0.0031
1591.00,0.0031
1590.00,0.0032
1589.00,0.0033
1588.00,0.0033
1587.00,0.0034
1586.00,0.0034
1585.00,0.0036
1584.00,0.0038
1583.00,0.0039
1582.00,0.0041
1581.00,0.0043
1580.00,0.0044
1579.00,0.0045
1578.00,0.0045
1577.00,0.0045
1576.00,0.0045
1575.00,0.0044
1574.00,0.0043
1573.00,0.0043
1572.00,0.0043
1571.00,0.0042
1570.00,0.0041
1569.00,0.0039
1568.00,0.0038
1567.00,0.0037
1566.00,0.0037
1565.00,0.0036
1564.00,0.0036
1563.00,0.0036
1562.00,0.0036
1561.00,0.0038
1560.00,0.0038
1559.00,0.0038
1558.00,0.0036
1557.00,0.0036
1556.00,0.0036
1555.00,0.0037
1554.00,0.0037
1553.00,0.0039
1552.00,0.0040
1551.00,0.0041
1550.00,0.0042
1549.00,0.0043
1548.00,0.0044
1547.00,0.0046
1546.00,0.0047
1545.00,0.0048
1544.00,0.0050
1543.00,0.0051
1542.00,0.0052
1541.00,0.0053
1540.00,0.0052
1539.00,0.0051
1538.00,0.0050
1537.00,0.0049
1536.00,0.0049
1535.00,0.0048
1534.00,0.0046
1533.00,0.0045
1532.00,0.0044
1531.00,0.0043
1530.00,0.0043
1529.00,0.0043
1528.00,0.0043
1527.00,0.0043
1526.00,0.0043
1525.00,0.0044
1524.00,0.0045
1523.00,0.0045
1522.00,0.0046
1521.00,0.0046
1520.00,0.0047
1519.00,0.0047
1518.00,0.0047
1517.00,0.0047
1516.00,0.0048
1515.00,0.0048
1514.00,0.0048
1513.00,0.0049
1512.00,0.0051
1511.00,0.0052
1510.00,0.0053
1509.00,0.0054
1508.00,0.0055
1507.00,0.0056
1506.00,0.0056
1505.00,0.0058
1504.00,0.0060
1503.00,0.0061
1502.00,0.0062
1501.00,0.0063
1500.00,0.0065
1499.00,0.0067
1498.00,0.0068
1497.00,0.0071
1496.00,0.0075
1495.00,0.0077
1494.00,0.0079
1493.00,0.0082
1492.00,0.0086
1491.00,0.0090
1490.00,0.0093
1489.00,0.0098
1488.00,0.0103
1487.00,0.0108
1486.00,0.0113
1485.00,0.0119
1484.00,0.0126
1483.00,0.0134
1482.00,0.0143
1481.00,0.0154
1480.00,0.0166
1479.00,0.0179
1478.00,0.0194
1477.00,0.0214
1476.00,0.0238
1475.00,0.0266
1474.00,0.0304
1473.00,0.0359
1472.00,0.0424
1471.00,0.0486
1470.00,0.0545
1469.00,0.0606
1468.00,0.0672
1467.00,0.0745
1466.00,0.0829
1465.00,0.0919
1464.00,0.1000
1463.00,0.1056
1462.00,0.1092
1461.00,0.1119
1460.00,0.1138
1459.00,0.1153
1458.00,0.1168
1457.00,0.1181
1456.00,0.1185
1455.00,0.1181
1454.00,0.1174
1453.00,0.1162
1452.00,0.1141
1451.00,0.1108
1450.00,0.1061
1449.00,0.0993
1448.00,0.0904
1447.00,0.0810
1446.00,0.0724
1445.00,0.0650
1444.00,0.0586
1443.00,0.0533
1442.00,0.0493
1441.00,0.0464
1440.00,0.0445
1439.00,0.0436
1438.00,0.0433
1437.00,0.0431
1436.00,0.0419
1435.00,0.0394
1434.00,0.0361
1433.00,0.0321
1432.00,0.0280
1431.00,0.0243
1430.00,0.0214
1429.00,0.0192
1428.00,0.0177
1427.00,0.0168
1426.00,0.0162
1425.00,0.0156
1424.00,0.0150
1423.00,0.0145
1422.00,0.0143
1421.00,0.0140
1420.00,0.0136
1419.00,0.0133
1418.00,0.0129
1417.00,0.0126
1416.00,0.0122
1415.00,0.0121
1414.00,0.0119
1413.00,0.0117
1412.00,0.0115
1411.00,0.0113
1410.00,0.0112
1409.00,0.0111
1408.00,0.0109
1407.00,0.0108
1406.00,0.0108
1405.00,0.0107
1404.00,0.0106
1403.00,0.0106
1402.00,0.0108
1401.00,0.0109
1400.00,0.0109
1399.00,0.0110
1398.00,0.0113
1397.00,0.0114
1396.00,0.0116
1395.00,0.0120
1394.00,0.0125
1393.00,0.0129
1392.00,0.0134
1391.00,0.0141
1390.00,0.0151
1389.00,0.0164
1388.00,0.0185
1387.00,0.0217
1386.00,0.0261
1385.00,0.0318
1384.00,0.0396
1383.00,0.0504
1382.00,0.0647
1381.00,0.0829
1380.00,0.1051
1379.00,0.1301
1378.00,0.1537
1377.00,0.1705
1376.00,0.1750
1375.00,0.1647
1374.00,0.1426
1373.00,0.1170
1372.00,0.0943
1371.00,0.0759
1370.00,0.0613
1369.00,0.0501
1368.00,0.0424
1367.00,0.0376
1366.00,0.0350
1365.00,0.0339
1364.00,0.0341
1363.00,0.0353
1362.00,0.0372
1361.00,0.0391
1360.00,0.0406
1359.00,0.0410
1358.00,0.0400
1357.00,0.0377
1356.00,0.0344
1355.00,0.0307
1354.00,0.0272
1353.00,0.0241
1352.00,0.0216
1351.00,0.0197
1350.00,0.0180
1349.00,0.0167
1348.00,0.0155
1347.00,0.0145
1346.00,0.0137
1345.00,0.0130
1344.00,0.0124
1343.00,0.0120
1342.00,0.0116
1341.00,0.0113
1340.00,0.0110
1339.00,0.0108
1338.00,0.0106
1337.00,0.0106
1336.00,0.0107
1335.00,0.0109
1334.00,0.0112
1333.00,0.0116
1332.00,0.0120
1331.00,0.0122
1330.00,0.0123
1329.00,0.0121
1328.00,0.0118
1327.00,0.0114
1326.00,0.0110
1325.00,0.0105
1324.00,0.0100
1323.00,0.0096
1322.00,0.0092
1321.00,0.0089
1320.00,0.0086
1319.00,0.0084
1318.00,0.0083
1317.00,0.0081
1316.00,0.0080
1315.00,0.0080
1314.00,0.0080
1313.00,0.0080
1312.00,0.0081
1311.00,0.0084
1310.00,0.0089
1309.00,0.0096
1308.00,0.0107
1307.00,0.0121
1306.00,0.0134
1305.00,0.0143
1304.00,0.0145
1303.00,0.0142
1302.00,0.0135
1301.00,0.0128
1300.00,0.0123
1299.00,0.0120
1298.00,0.0119
1297.00,0.0118
1296.00,0.0116
1295.00,0.0114
1294.00,0.0110
1293.00,0.0105
1292.00,0.0101
1291.00,0.0096
1290.00,0.0092
1289.00,0.0088
1288.00,0.0085
1287.00,0.0082
1286.00,0.0080
1285.00,0.0079
1284.00,0.0077
1283.00,0.0076
1282.00,0.0075
1281.00,0.0073
1280.00,0.0071
1279.00,0.0071
1278.00,0.0070
1277.00,0.0070
1276.00,0.0069
1275.00,0.0069
1274.00,0.0069
1273.00,0.0069
1272.00,0.0069
1271.00,0.0070
1270.00,0.0071
1269.00,0.0071
1268.00,0.0072
1267.00,0.0073
1266.00,0.0075
1265.00,0.0077
1264.00,0.0079
1263.00,0.0082
1262.00,0.0086
1261.00,0.0092
1260.00,0.0099
1259.00,0.0108
1258.00,0.0118
1257.00,0.0125
1256.00,0.0129
1255.00,0.0128
1254.00,0.0121
1253.00,0.0111
1252.00,0.0100
1251.00,0.0091
1250.00,0.0085
1249.00,0.0080
1248.00,0.0077
1247.00,0.0075
1246.00,0.0073
1245.00,0.0071
1244.00,0.0070
1243.00,0.0068
1242.00,0.0068
1241.00,0.0067
1240.00,0.0066
1239.00,0.0066
1238.00,0.0066
1237.00,0.0066
1236.00,0.0066
1235.00,0.0066
1234.00,0.0067
1233.00,0.0067
1232.00,0.0066
1231.00,0.0066
1230.00,0.0067
1229.00,0.0068
1228.00,0.0070
1227.00,0.0072
1226.00,0.0074
1225.00,0.0075
1224.00,0.0078
1223.00,0.0080
1222.00,0.0082
1221.00,0.0084
1220.00,0.0085
1219.00,0.0085
1218.00,0.0085
1217.00,0.0084
1216.00,0.0082
1215.00,0.0080
1214.00,0.0077
1213.00,0.0075
1212.00,0.0073
1211.00,0.0071
1210.00,0.0070
1209.00,0.0069
1208.00,0.0068
1207.00,0.0067
1206.00,0.0067
1205.00,0.0066
1204.00,0.0066
1203.00,0.0066
1202.00,0.0066
1201.00,0.0066
1200.00,0.0065
1199.00,0.0065
1198.00,0.0066
1197.00,0.0066
1196.00,0.0066
1195.00,0.0066
1194.00,0.0066
1193.00,0.0066
1192.00,0.0066
1191.00,0.0066
1190.00,0.0067
1189.00,0.0067
1188.00,0.0068
1187.00,0.0068
1186.00,0.0069
1185.00,0.0070
1184.00,0.0071
1183.00,0.0074
1182.00,0.0077
1181.00,0.0081
1180.00,0.0085
1179.00,0.0092
1178.00,0.0099
1177.00,0.0110
1176.00,0.0123
1175.00,0.0141
1174.00,0.0164
1173.00,0.0195
1172.00,0.0231
1171.00,0.0271
1170.00,0.0310
1169.00,0.0340
1168.00,0.0358
1167.00,0.0359
1166.00,0.0347
1165.00,0.0326
1164.00,0.0302
1163.00,0.0280
1162.00,0.0260
1161.00,0.0243
1160.00,0.0230
1159.00,0.0218
1158.00,0.0210
1157.00,0.0203
1156.00,0.0199
1155.00,0.0196
1154.00,0.0192
1153.00,0.0188
1152.00,0.0182
1151.00,0.0175
1150.00,0.0166
1149.00,0.0156
1148.00,0.0145
1147.00,0.0136
1146.00,0.0127
1145.00,0.0119
1144.00,0.0111
1143.00,0.0104
1142.00,0.0098
1141.00,0.0092
1140.00,0.0086
1139.00,0.0082
1138.00,0.0078
1137.00,0.0074
1136.00,0.0071
1135.00,0.0068
1134.00,0.0066
1133.00,0.0065
1132.00,0.0064
1131.00,0.0063
1130.00,0.0062
1129.00,0.0062
1128.00,0.0061
1127.00,0.0059
1126.00,0.0058
1125.00,0.0058
1124.00,0.0059
1123.00,0.0060
1122.00,0.0060
1121.00,0.0061
1120.00,0.0061
1119.00,0.0061
1118.00,0.0061
1117.00,0.0061
1116.00,0.0062
1115.00,0.0062
1114.00,0.0064
1113.00,0.0066
1112.00,0.0068
1111.00,0.0071
1110.00,0.0073
1109.00,0.0076
1108.00,0.0080
1107.00,0.0085
1106.00,0.0091
1105.00,0.0097
1104.00,0.0101
1103.00,0.0104
1102.00,0.0103
1101.00,0.0100
1100.00,0.0095
1099.00,0.0089
1098.00,0.0084
1097.00,0.0078
1096.00,0.0073
1095.00,0.0070
1094.00,0.0068
1093.00,0.0066
1092.00,0.0065
1091.00,0.0065
1090.00,0.0065
1089.00,0.0064
1088.00,0.0063
1087.00,0.0061
1086.00,0.0060
1085.00,0.0059
1084.00,0.0058
1083.00,0.0058
1082.00,0.0059
1081.00,0.0059
1080.00,0.0058
1079.00,0.0056
1078.00,0.0055
1077.00,0.0054
1076.00,0.0054
1075.00,0.0055
1074.00,0.0056
1073.00,0.0056
1072.00,0.0056
1071.00,0.0055
1070.00,0.0055
1069.00,0.0055
1068.00,0.0055
1067.00,0.0054
1066.00,0.0054
1065.00,0.0054
1064.00,0.0054
1063.00,0.0054
1062.00,0.0054
1061.00,0.0054
1060.00,0.0054
1059.00,0.0056
1058.00,0.0057
1057.00,0.0059
1056.00,0.0060
1055.00,0.0061
1054.00,0.0062
1053.00,0.0062
1052.00,0.0062
1051.00,0.0063
1050.00,0.0066
1049.00,0.0070
1048.00,0.0075
1047.00,0.0079
1046.00,0.0082
1045.00,0.0084
1044.00,0.0084
1043.00,0.0082
1042.00,0.0079
1041.00,0.0076
1040.00,0.0073
1039.00,0.0072
1038.00,0.0071
1037.00,0.0070
1036.00,0.0070
1035.00,0.0070
1034.00,0.0069
1033.00,0.0068
1032.00,0.0066
1031.00,0.0064
1030.00,0.0063
1029.00,0.0063
1028.00,0.0063
1027.00,0.0063
1026.00,0.0064
1025.00,0.0064
1024.00,0.0064
1023.00,0.0065
1022.00,0.0065
1021.00,0.0065
1020.00,0.0065
1019.00,0.0066
1018.00,0.0067
1017.00,0.0069
1016.00,0.0072
1015.00,0.0075
1014.00,0.0077
1013.00,0.0080
1012.00,0.0084
1011.00,0.0088
1010.00,0.0093
1009.00,0.0099
1008.00,0.0106
1007.00,0.0114
1006.00,0.0125
1005.00,0.0140
1004.00,0.0160
1003.00,0.0189
1002.00,0.0228
1001.00,0.0276
1000.00,0.0328
999.00,0.0373
998.00,0.0397
997.00,0.0391
996.00,0.0358
995.00,0.0309
994.00,0.0258
993.00,0.0214
992.00,0.0180
991.00,0.0156
990.00,0.0138
989.00,0.0126
988.00,0.0118
987.00,0.0113
986.00,0.0112
985.00,0.0113
984.00,0.0118
983.00,0.0125
982.00,0.0137
981.00,0.0155
980.00,0.0181
979.00,0.0215
978.00,0.0258
977.00,0.0309
976.00,0.0364
975.00,0.0417
974.00,0.0458
973.00,0.0474
972.00,0.0458
971.00,0.0412
970.00,0.0349
969.00,0.0284
968.00,0.0229
967.00,0.0187
966.00,0.0158
965.00,0.0137
964.00,0.0123
963.00,0.0112
962.00,0.0104
961.00,0.0097
960.00,0.0091
959.00,0.0086
958.00,0.0082
957.00,0.0078
956.00,0.0076
955.00,0.0074
954.00,0.0073
953.00,0.0071
952.00,0.0070
951.00,0.0070
950.00,0.0069
949.00,0.0068
948.00,0.0068
947.00,0.0067
946.00,0.0068
945.00,0.0070
944.00,0.0072
943.00,0.0075
942.00,0.0078
941.00,0.0079
940.00,0.0080
939.00,0.0077
938.00,0.0073
937.00,0.0068
936.00,0.0063
935.00,0.0060
934.00,0.0058
933.00,0.0058
932.00,0.0057
931.00,0.0055
930.00,0.0053
929.00,0.0052
928.00,0.0051
927.00,0.0051
926.00,0.0052
925.00,0.0052
924.00,0.0052
923.00,0.0051
922.00,0.0051
921.00,0.0051
920.00,0.0051
919.00,0.0053
918.00,0.0054
917.00,0.0055
916.00,0.0056
915.00,0.0056
914.00,0.0056
913.00,0.0056
912.00,0.0056
911.00,0.0058
910.00,0.0061
909.00,0.0064
908.00,0.0067
907.00,0.0071
906.00,0.0076
905.00,0.0085
904.00,0.0098
903.00,0.0113
902.00,0.0130
901.00,0.0145
900.00,0.0155
899.00,0.0157
898.00,0.0150
897.00,0.0137
896.00,0.0121
895.00,0.0106
894.00,0.0093
893.00,0.0083
892.00,0.0076
891.00,0.0071
890.00,0.0068
889.00,0.0067
888.00,0.0066
887.00,0.0067
886.00,0.0067
885.00,0.0067
884.00,0.0065
883.00,0.0064
882.00,0.0063
881.00,0.0064
880.00,0.0066
879.00,0.0070
878.00,0.0074
877.00,0.0076
876.00,0.0078
875.00,0.0078
874.00,0.0079
873.00,0.0078
872.00,0.0077
871.00,0.0075
870.00,0.0074
869.00,0.0073
868.00,0.0072
867.00,0.0072
866.00,0.0072
865.00,0.0072
864.00,0.0073
863.00,0.0074
862.00,0.0076
861.00,0.0078
860.00,0.0079
859.00,0.0080
858.00,0.0080
857.00,0.0081
856.00,0.0083
855.00,0.0086
854.00,0.0090
853.00,0.0093
852.00,0.0097
851.00,0.0101
850.00,0.0107
849.00,0.0114
848.00,0.0126
847.00,0.0144
846.00,0.0171
845.00,0.0213
844.00,0.0270
843.00,0.0335
842.00,0.0388
841.00,0.0404
840.00,0.0375
839.00,0.0313
838.00,0.0247
837.00,0.0194
836.00,0.0159
835.00,0.0138
834.00,0.0125
833.00,0.0116
832.00,0.0109
831.00,0.0104
830.00,0.0100
829.00,0.0097
828.00,0.0094
827.00,0.0091
826.00,0.0088
825.00,0.0086
824.00,0.0085
823.00,0.0086
822.00,0.0087
821.00,0.0088
820.00,0.0089
819.00,0.0091
818.00,0.0093
817.00,0.0099
816.00,0.0106
815.00,0.0117
814.00,0.0130
813.00,0.0146
812.00,0.0163
811.00,0.0178
810.00,0.0189
809.00,0.0194
808.00,0.0190
807.00,0.0180
806.00,0.0164
805.00,0.0147
804.00,0.0131
803.00,0.0119
802.00,0.0110
801.00,0.0103
800.00,0.0097
799.00,0.0093
798.00,0.0089
797.00,0.0085
796.00,0.0082
795.00,0.0080
794.00,0.0078
793.00,0.0076
792.00,0.0073
791.00,0.0070
790.00,0.0067
789.00,0.0065
788.00,0.0062
787.00,0.0060
786.00,0.0058
785.00,0.0056
784.00,0.0053
783.00,0.0049
782.00,0.0047
781.00,0.0046
780.00,0.0047
779.00,0.0048
778.00,0.0049
777.00,0.0049
776.00,0.0048
775.00,0.0047
774.00,0.0046
773.00,0.0047
772.00,0.0048
771.00,0.0049
770.00,0.0049
769.00,0.0049
768.00,0.0048
767.00,0.0048
766.00,0.0049
765.00,0.0049
764.00,0.0050
763.00,0.0050
762.00,0.0050
761.00,0.0051
760.00,0.0051
759.00,0.0050
758.00,0.0051
757.00,0.0052
756.00,0.0052
755.00,0.0052
754.00,0.0051
753.00,0.0051
752.00,0.0051
751.00,0.0052
750.00,0.0054
749.00,0.0055
748.00,0.0055
747.00,0.0056
746.00,0.0056
745.00,0.0058
744.00,0.0060
743.00,0.0062
742.00,0.0064
741.00,0.0066
740.00,0.0068
739.00,0.0069
738.00,0.0070
737.00,0.0070
736.00,0.0072
735.00,0.0074
734.00,0.0078
733.00,0.0084
732.00,0.0091
731.00,0.0098
730.00,0.0104
729.00,0.0108
728.00,0.0109
727.00,0.0109
726.00,0.0110
725.00,0.0112
724.00,0.0115
723.00,0.0121
722.00,0.0128
721.00,0.0133
720.00,0.0135
719.00,0.0130
718.00,0.0120
717.00,0.0108
716.00,0.0096
715.00,0.0086
714.00,0.0078
713.00,0.0072
712.00,0.0069
711.00,0.0066
710.00,0.0063
709.00,0.0061
708.00,0.0059
707.00,0.0059
706.00,0.0058
705.00,0.0057
704.00,0.0055
703.00,0.0053
702.00,0.0050
701.00,0.0048
700.00,0.0048
699.00,0.0049
698.00,0.0050
697.00,0.0050
696.00,0.0049
695.00,0.0047
694.00,0.0045
693.00,0.0044
692.00,0.0044
691.00,0.0044
690.00,0.0045
689.00,0.0046
688.00,0.0046
687.00,0.0045
686.00,0.0044
685.00,0.0043
684.00,0.0042
683.00,0.0042
682.00,0.0040
681.00,0.0038
680.00,0.0036
679.00,0.0036
678.00,0.0038
677.00,0.0040
676.00,0.0043
675.00,0.0044
674.00,0.0044
673.00,0.0043
672.00,0.0041
671.00,0.0041
670.00,0.0044
669.00,0.0048
668.00,0.0053
667.00,0.0055
666.00,0.0052
665.00,0.0048
664.00,0.0044
663.00,0.0041
662.00,0.0038
661.00,0.0038
660.00,0.0039
659.00,0.0041
658.00,0.0042
657.00,0.0042
656.00,0.0042
655.00,0.0042
654.00,0.0042
653.00,0.0041
652.00,0.0039
651.00,0.0038
650.00,0.0038
649.00,0.0038
648.00,0.0039
647.00,0.0041
646.00,0.0042
645.00,0.0044
644.00,0.0045
643.00,0.0045
642.00,0.0045
641.00,0.0044
640.00,0.0044
639.00,0.0045
638.00,0.0047
637.00,0.0048
636.00,0.0048
635.00,0.0047
634.00,0.0046
633.00,0.0047
632.00,0.0047
631.00,0.0047
630.00,0.0046
629.00,0.0044
628.00,0.0043
627.00,0.0044
626.00,0.0046
625.00,0.0047
624.00,0.0047
623.00,0.0046
622.00,0.0047
621.00,0.0048
620.00,0.0050
619.00,0.0049
618.00,0.0048
617.00,0.0048
616.00,0.0049
615.00,0.0049
614.00,0.0048
613.00,0.0044
612.00,0.0043
611.00,0.0044
610.00,0.0049
609.00,0.0052
608.00,0.0054
607.00,0.0054
606.00,0.0053
605.00,0.0051
604.00,0.0050
603.00,0.0047
602.00,0.0045
601.00,0.0043
600.00,0.0043
599.00,0.0044
598.00,0.0046
597.00,0.0048
596.00,0.0050
595.00,0.0051
594.00,0.0052
593.00,0.0053
592.00,0.0053
591.00,0.0053
590.00,0.0053
589.00,0.0051
588.00,0.0049
587.00,0.0047
586.00,0.0046
585.00,0.0046
584.00,0.0048
583.00,0.0050
582.00,0.0052
581.00,0.0052
580.00,0.0051
579.00,0.0051
578.00,0.0053
577.00,0.0054
576.00,0.0054
575.00,0.0053
574.00,0.0051
573.00,0.0049
572.00,0.0048
571.00,0.0048
570.00,0.0049
569.00,0.0050
568.00,0.0049
567.00,0.0049
566.00,0.0047
565.00,0.0046
564.00,0.0045
563.00,0.0046
562.00,0.0049
561.00,0.0052
560.00,0.0053
559.00,0.0054
558.00,0.0053
557.00,0.0052
556.00,0.0051
555.00,0.0050
554.00,0.0049
553.00,0.0049
552.00,0.0048
551.00,0.0048
550.00,0.0047
549.00,0.0047
548.00,0.0050
547.00,0.0055
546.00,0.0061
545.00,0.0064
544.00,0.0064
543.00,0.0063
542.00,0.0060
541.00,0.0056
540.00,0.0053
539.00,0.0053
538.00,0.0056
537.00,0.0061
536.00,0.0067
535.00,0.0072
534.00,0.0074
533.00,0.0074
532.00,0.0071
531.00,0.0069
530.00,0.0068
529.00,0.0069
528.00,0.0071
527.00,0.0072
526.00,0.0071
525.00,0.0069
524.00,0.0067
523.00,0.0065
522.00,0.0061
521.00,0.0053
520.00,0.0047
519.00,0.0045
518.00,0.0049
517.00,0.0053
516.00,0.0055
515.00,0.0056
514.00,0.0056
513.00,0.0056
512.00,0.0055
511.00,0.0053
510.00,0.0053
509.00,0.0053
508.00,0.0051
507.00,0.0048
506.00,0.0048
505.00,0.0054
504.00,0.0064
503.00,0.0072
502.00,0.0075
501.00,0.0071
500.00,0.0066
499.00,0.0065
498.00,0.0067
497.00,0.0070
496.00,0.0070
495.00,0.0069
494.00,0.0066
493.00,0.0061
492.00,0.0054
491.00,0.0048
490.00,0.0046
489.00,0.0048
488.00,0.0054
487.00,0.0060
486.00,0.0067
485.00,0.0069
484.00,0.0065
483.00,0.0056
482.00,0.0047
481.00,0.0044
480.00,0.0045
479.00,0.0048
478.00,0.0052
477.00,0.0058
476.00,0.0066
475.00,0.0073
474.00,0.0077
473.00,0.0078
472.00,0.0081
471.00,0.0089
470.00,0.0098
469.00,0.0102
468.00,0.0100
467.00,0.0092
466.00,0.0086
465.00,0.0085
464.00,0.0093
463.00,0.0107
462.00,0.0122
461.00,0.0132
460.00,0.0131
459.00,0.0121
458.00,0.0108
457.00,0.0105
456.00,0.0116
455.00,0.0136
454.00,0.0151
453.00,0.0154
452.00,0.0147
451.00,0.0134
450.00,0.0119
