Created as New Dataset,Sample 118 By Administrator Date Friday, September 05 2025
cm-1,A
4000.00,0.0016
3999.00,0.0016
3998.00,0.0016
3997.00,0.0016
3996.00,0.0016
3995.00,0.0016
3994.00,0.0017
3993.00,0.0017
3992.00,0.0017
3991.00,0.0017
3990.00,0.0018
3989.00,0.0018
3988.00,0.0017
3987.00,0.0017
3986.00,0.0017
3985.00,0.0017
3984.00,0.0017
3983.00,0.0016
3982.00,0.0016
3981.00,0.0015
3980.00,0.0015
3979.00,0.0015
3978.00,0.0015
3977.00,0.0015
3976.00,0.0015
3975.00,0.0015
3974.00,0.0015
3973.00,0.0015
3972.00,0.0015
3971.00,0.0015
3970.00,0.0015
3969.00,0.0015
3968.00,0.0015
3967.00,0.0015
3966.00,0.0015
3965.00,0.0015
3964.00,0.0015
3963.00,0.0015
3962.00,0.0015
3961.00,0.0014
3960.00,0.0014
3959.00,0.0014
3958.00,0.0014
3957.00,0.0014
3956.00,0.0015
3955.00,0.0015
3954.00,0.0015
3953.00,0.0015
3952.00,0.0015
3951.00,0.0015
3950.00,0.0015
3949.00,0.0015
3948.00,0.0014
3947.00,0.0014
3946.00,0.0014
3945.00,0.0014
3944.00,0.0015
3943.00,0.0015
3942.00,0.0015
3941.00,0.0015
3940.00,0.0015
3939.00,0.0015
3938.00,0.0015
3937.00,0.0015
3936.00,0.0015
3935.00,0.0015
3934.00,0.0015
3933.00,0.0015
3932.00,0.0015
3931.00,0.0015
3930.00,0.0015
3929.00,0.0015
3928.00,0.0015
3927.00,0.0015
3926.00,0.0016
3925.00,0.0016
3924.00,0.0016
3923.00,0.0016
3922.00,0.0016
3921.00,0.0016
3920.00,0.0015
3919.00,0.0015
3918.00,0.0015
3917.00,0.0015
3916.00,0.0015
3915.00,0.0016
3914.00,0.0016
3913.00,0.0016
3912.00,0.0015
3911.00,0.0015
3910.00,0.0015
3909.00,0.0014
3908.00,0.0014
3907.00,0.0014
3906.00,0.0014
3905.00,0.0015
3904.00,0.0015
3903.00,0.0015
3902.00,0.0015
3901.00,0.0015
3900.00,0.0014
3899.00,0.0014
3898.00,0.0015
3897.00,0.0015
3896.00,0.0015
3895.00,0.0016
3894.00,0.0015
3893.00,0.0015
3892.00,0.0015
3891.00,0.0015
3890.00,0.0015
3889.00,0.0015
3888.00,0.0014
3887.00,0.0014
3886.00,0.0014
3885.00,0.0014
3884.00,0.0014
3883.00,0.0014
3882.00,0.0014
3881.00,0.0015
3880.00,0.0015
3879.00,0.0015
3878.00,0.0015
3877.00,0.0015
3876.00,0.0015
3875.00,0.0014
3874.00,0.0014
3873.00,0.0014
3872.00,0.0014
3871.00,0.0014
3870.00,0.0014
3869.00,0.0014
3868.00,0.0013
3867.00,0.0013
3866.00,0.0013
3865.00,0.0014
3864.00,0.0014
3863.00,0.0015
3862.00,0.0015
3861.00,0.0015
3860.00,0.0014
3859.00,0.0015
3858.00,0.0015
3857.00,0.0015
3856.00,0.0015
3855.00,0.0014
3854.00,0.0014
3853.00,0.0014
3852.00,0.0014
3851.00,0.0014
3850.00,0.0014
3849.00,0.0014
3848.00,0.0014
3847.00,0.0014
3846.00,0.0014
3845.00,0.0014
3844.00,0.0014
3843.00,0.0014
3842.00,0.0014
3841.00,0.0014
3840.00,0.0014
3839.00,0.0014
3838.00,0.0014
3837.00,0.0014
3836.00,0.0014
3835.00,0.0015
3834.00,0.0015
3833.00,0.0015
3832.00,0.0015
3831.00,0.0015
3830.00,0.0015
3829.00,0.0015
3828.00,0.0015
3827.00,0.0014
3826.00,0.0014
3825.00,0.0013
3824.00,0.0013
3823.00,0.0013
3822.00,0.0013
3821.00,0.0014
3820.00,0.0014
3819.00,0.0014
3818.00,0.0014
3817.00,0.0014
3816.00,0.0014
3815.00,0.0014
3814.00,0.0014
3813.00,0.0014
3812.00,0.0013
3811.00,0.0013
3810.00,0.0013
3809.00,0.0013
3808.00,0.0013
3807.00,0.0014
3806.00,0.0014
3805.00,0.0014
3804.00,0.0014
3803.00,0.0014
3802.00,0.0014
3801.00,0.0014
3800.00,0.0014
3799.00,0.0014
3798.00,0.0014
3797.00,0.0014
3796.00,0.0015
3795.00,0.0015
3794.00,0.0015
3793.00,0.0014
3792.00,0.0014
3791.00,0.0014
3790.00,0.0014
3789.00,0.0015
3788.00,0.0015
3787.00,0.0015
3786.00,0.0015
3785.00,0.0015
3784.00,0.0015
3783.00,0.0015
3782.00,0.0015
3781.00,0.0015
3780.00,0.0015
3779.00,0.0015
3778.00,0.0015
3777.00,0.0015
3776.00,0.0015
3775.00,0.0015
3774.00,0.0015
3773.00,0.0015
3772.00,0.0015
3771.00,0.0014
3770.00,0.0014
3769.00,0.0014
3768.00,0.0014
3767.00,0.0014
3766.00,0.0014
3765.00,0.0014
3764.00,0.0014
3763.00,0.0014
3762.00,0.0014
3761.00,0.0015
3760.00,0.0015
3759.00,0.0015
3758.00,0.0015
3757.00,0.0015
3756.00,0.0015
3755.00,0.0014
3754.00,0.0014
3753.00,0.0014
3752.00,0.0013
3751.00,0.0013
3750.00,0.0012
3749.00,0.0012
3748.00,0.0013
3747.00,0.0013
3746.00,0.0013
3745.00,0.0013
3744.00,0.0013
3743.00,0.0013
3742.00,0.0014
3741.00,0.0013
3740.00,0.0013
3739.00,0.0013
3738.00,0.0012
3737.00,0.0012
3736.00,0.0012
3735.00,0.0013
3734.00,0.0013
3733.00,0.0014
3732.00,0.0014
3731.00,0.0014
3730.00,0.0013
3729.00,0.0013
3728.00,0.0013
3727.00,0.0013
3726.00,0.0013
3725.00,0.0013
3724.00,0.0013
3723.00,0.0013
3722.00,0.0013
3721.00,0.0013
3720.00,0.0013
3719.00,0.0013
3718.00,0.0012
3717.00,0.0012
3716.00,0.0013
3715.00,0.0013
3714.00,0.0012
3713.00,0.0012
3712.00,0.0012
3711.00,0.0012
3710.00,0.0012
3709.00,0.0012
3708.00,0.0012
3707.00,0.0012
3706.00,0.0013
3705.00,0.0013
3704.00,0.0014
3703.00,0.0014
3702.00,0.0013
3701.00,0.0013
3700.00,0.0012
3699.00,0.0012
3698.00,0.0012
3697.00,0.0012
3696.00,0.0012
3695.00,0.0012
3694.00,0.0012
3693.00,0.0012
3692.00,0.0012
3691.00,0.0012
3690.00,0.0012
3689.00,0.0012
3688.00,0.0012
3687.00,0.0012
3686.00,0.0012
3685.00,0.0012
3684.00,0.0012
3683.00,0.0012
3682.00,0.0013
3681.00,0.0013
3680.00,0.0013
3679.00,0.0014
3678.00,0.0013
3677.00,0.0013
3676.00,0.0013
3675.00,0.0013
3674.00,0.0013
3673.00,0.0012
3672.00,0.0012
3671.00,0.0012
3670.00,0.0012
3669.00,0.0012
3668.00,0.0012
3667.00,0.0012
3666.00,0.0012
3665.00,0.0012
3664.00,0.0012
3663.00,0.0012
3662.00,0.0012
3661.00,0.0012
3660.00,0.0011
3659.00,0.0011
3658.00,0.0011
3657.00,0.0011
3656.00,0.0011
3655.00,0.0011
3654.00,0.0011
3653.00,0.0011
3652.00,0.0011
3651.00,0.0010
3650.00,0.0011
3649.00,0.0012
3648.00,0.0012
3647.00,0.0013
3646.00,0.0013
3645.00,0.0013
3644.00,0.0013
3643.00,0.0013
3642.00,0.0013
3641.00,0.0014
3640.00,0.0014
3639.00,0.0014
3638.00,0.0014
3637.00,0.0013
3636.00,0.0013
3635.00,0.0013
3634.00,0.0012
3633.00,0.0012
3632.00,0.0012
3631.00,0.0011
3630.00,0.0011
3629.00,0.0011
3628.00,0.0011
3627.00,0.0011
3626.00,0.0012
3625.00,0.0012
3624.00,0.0013
3623.00,0.0013
3622.00,0.0013
3621.00,0.0014
3620.00,0.0013
3619.00,0.0013
3618.00,0.0012
3617.00,0.0012
3616.00,0.0011
3615.00,0.0011
3614.00,0.0012
3613.00,0.0012
3612.00,0.0012
3611.00,0.0013
3610.00,0.0013
3609.00,0.0013
3608.00,0.0014
3607.00,0.0014
3606.00,0.0014
3605.00,0.0014
3604.00,0.0014
3603.00,0.0014
3602.00,0.0013
3601.00,0.0013
3600.00,0.0013
3599.00,0.0013
3598.00,0.0013
3597.00,0.0014
3596.00,0.0013
3595.00,0.0013
3594.00,0.0013
3593.00,0.0013
3592.00,0.0013
3591.00,0.0014
3590.00,0.0015
3589.00,0.0015
3588.00,0.0016
3587.00,0.0016
3586.00,0.0015
3585.00,0.0015
3584.00,0.0014
3583.00,0.0014
3582.00,0.0014
3581.00,0.0014
3580.00,0.0014
3579.00,0.0014
3578.00,0.0014
3577.00,0.0014
3576.00,0.0015
3575.00,0.0015
3574.00,0.0016
3573.00,0.0016
3572.00,0.0016
3571.00,0.0016
3570.00,0.0016
3569.00,0.0016
3568.00,0.0016
3567.00,0.0016
3566.00,0.0016
3565.00,0.0016
3564.00,0.0017
3563.00,0.0017
3562.00,0.0017
3561.00,0.0017
3560.00,0.0017
3559.00,0.0017
3558.00,0.0018
3557.00,0.0018
3556.00,0.0018
3555.00,0.0018
3554.00,0.0019
3553.00,0.0019
3552.00,0.0019
3551.00,0.0019
3550.00,0.0019
3549.00,0.0019
3548.00,0.0019
3547.00,0.0019
3546.00,0.0018
3545.00,0.0019
3544.00,0.0019
3543.00,0.0020
3542.00,0.0020
3541.00,0.0020
3540.00,0.0020
3539.00,0.0020
3538.00,0.0020
3537.00,0.0020
3536.00,0.0020
3535.00,0.0020
3534.00,0.0021
3533.00,0.0021
3532.00,0.0021
3531.00,0.0021
3530.00,0.0021
3529.00,0.0021
3528.00,0.0020
3527.00,0.0020
3526.00,0.0021
3525.00,0.0021
3524.00,0.0021
3523.00,0.0022
3522.00,0.0022
3521.00,0.0022
3520.00,0.0022
3519.00,0.0023
3518.00,0.0023
3517.00,0.0023
3516.00,0.0023
3515.00,0.0023
3514.00,0.0023
3513.00,0.0023
3512.00,0.0023
3511.00,0.0023
3510.00,0.0023
3509.00,0.0023
3508.00,0.0023
3507.00,0.0024
3506.00,0.0024
3505.00,0.0024
3504.00,0.0025
3503.00,0.0025
3502.00,0.0025
3501.00,0.0025
3500.00,0.0025
3499.00,0.0025
3498.00,0.0025
3497.00,0.0025
3496.00,0.0025
3495.00,0.0025
3494.00,0.0025
3493.00,0.0025
3492.00,0.0025
3491.00,0.0025
3490.00,0.0025
3489.00,0.0025
3488.00,0.0025
3487.00,0.0025
3486.00,0.0026
3485.00,0.0026
3484.00,0.0026
3483.00,0.0026
3482.00,0.0026
3481.00,0.0026
3480.00,0.0026
3479.00,0.0026
3478.00,0.0026
3477.00,0.0026
3476.00,0.0026
3475.00,0.0026
3474.00,0.0027
3473.00,0.0027
3472.00,0.0028
3471.00,0.0028
3470.00,0.0028
3469.00,0.0028
3468.00,0.0028
3467.00,0.0028
3466.00,0.0028
3465.00,0.0028
3464.00,0.0028
3463.00,0.0028
3462.00,0.0028
3461.00,0.0029
3460.00,0.0029
3459.00,0.0029
3458.00,0.0029
3457.00,0.0029
3456.00,0.0029
3455.00,0.0029
3454.00,0.0029
3453.00,0.0029
3452.00,0.0029
3451.00,0.0029
3450.00,0.0029
3449.00,0.0029
3448.00,0.0030
3447.00,0.0030
3446.00,0.0030
3445.00,0.0030
3444.00,0.0030
3443.00,0.0031
3442.00,0.0031
3441.00,0.0031
3440.00,0.0031
3439.00,0.0031
3438.00,0.0031
3437.00,0.0031
3436.00,0.0032
3435.00,0.0032
3434.00,0.0032
3433.00,0.0032
3432.00,0.0032
3431.00,0.0032
3430.00,0.0032
3429.00,0.0032
3428.00,0.0032
3427.00,0.0032
3426.00,0.0032
3425.00,0.0032
3424.00,0.0032
3423.00,0.0032
3422.00,0.0032
3421.00,0.0033
3420.00,0.0033
3419.00,0.0034
3418.00,0.0034
3417.00,0.0034
3416.00,0.0034
3415.00,0.0034
3414.00,0.0034
3413.00,0.0034
3412.00,0.0034
3411.00,0.0034
3410.00,0.0033
3409.00,0.0033
3408.00,0.0034
3407.00,0.0034
3406.00,0.0033
3405.00,0.0033
3404.00,0.0033
3403.00,0.0033
3402.00,0.0033
3401.00,0.0033
3400.00,0.0034
3399.00,0.0034
3398.00,0.0034
3397.00,0.0035
3396.00,0.0035
3395.00,0.0035
3394.00,0.0035
3393.00,0.0035
3392.00,0.0035
3391.00,0.0035
3390.00,0.0035
3389.00,0.0035
3388.00,0.0035
3387.00,0.0035
3386.00,0.0035
3385.00,0.0035
3384.00,0.0035
3383.00,0.0035
3382.00,0.0035
3381.00,0.0035
3380.00,0.0035
3379.00,0.0036
3378.00,0.0036
3377.00,0.0036
3376.00,0.0035
3375.00,0.0035
3374.00,0.0035
3373.00,0.0035
3372.00,0.0035
3371.00,0.0035
3370.00,0.0036
3369.00,0.0036
3368.00,0.0036
3367.00,0.0036
3366.00,0.0036
3365.00,0.0036
3364.00,0.0036
3363.00,0.0036
3362.00,0.0036
3361.00,0.0035
3360.00,0.0035
3359.00,0.0035
3358.00,0.0035
3357.00,0.0036
3356.00,0.0036
3355.00,0.0036
3354.00,0.0036
3353.00,0.0036
3352.00,0.0036
3351.00,0.0036
3350.00,0.0036
3349.00,0.0036
3348.00,0.0036
3347.00,0.0036
3346.00,0.0036
3345.00,0.0036
3344.00,0.0036
3343.00,0.0036
3342.00,0.0036
3341.00,0.0036
3340.00,0.0035
3339.00,0.0035
3338.00,0.0036
3337.00,0.0036
3336.00,0.0036
3335.00,0.0036
3334.00,0.0036
3333.00,0.0035
3332.00,0.0035
3331.00,0.0034
3330.00,0.0034
3329.00,0.0035
3328.00,0.0035
3327.00,0.0035
3326.00,0.0034
3325.00,0.0034
3324.00,0.0034
3323.00,0.0034
3322.00,0.0034
3321.00,0.0034
3320.00,0.0034
3319.00,0.0034
3318.00,0.0034
3317.00,0.0034
3316.00,0.0034
3315.00,0.0034
3314.00,0.0033
3313.00,0.0033
3312.00,0.0033
3311.00,0.0033
3310.00,0.0034
3309.00,0.0034
3308.00,0.0034
3307.00,0.0034
3306.00,0.0034
3305.00,0.0034
3304.00,0.0033
3303.00,0.0033
3302.00,0.0033
3301.00,0.0034
3300.00,0.0034
3299.00,0.0034
3298.00,0.0034
3297.00,0.0034
3296.00,0.0034
3295.00,0.0033
3294.00,0.0033
3293.00,0.0033
3292.00,0.0033
3291.00,0.0033
3290.00,0.0033
3289.00,0.0033
3288.00,0.0033
3287.00,0.0033
3286.00,0.0033
3285.00,0.0033
3284.00,0.0033
3283.00,0.0033
3282.00,0.0033
3281.00,0.0033
3280.00,0.0034
3279.00,0.0034
3278.00,0.0033
3277.00,0.0033
3276.00,0.0032
3275.00,0.0032
3274.00,0.0032
3273.00,0.0033
3272.00,0.0033
3271.00,0.0033
3270.00,0.0033
3269.00,0.0033
3268.00,0.0033
3267.00,0.0033
3266.00,0.0033
3265.00,0.0033
3264.00,0.0033
3263.00,0.0032
3262.00,0.0032
3261.00,0.0032
3260.00,0.0032
3259.00,0.0032
3258.00,0.0032
3257.00,0.0032
3256.00,0.0032
3255.00,0.0032
3254.00,0.0032
3253.00,0.0032
3252.00,0.0031
3251.00,0.0031
3250.00,0.0030
3249.00,0.0030
3248.00,0.0030
3247.00,0.0030
3246.00,0.0030
3245.00,0.0030
3244.00,0.0030
3243.00,0.0030
3242.00,0.0030
3241.00,0.0031
3240.00,0.0031
3239.00,0.0031
3238.00,0.0031
3237.00,0.0031
3236.00,0.0031
3235.00,0.0030
3234.00,0.0030
3233.00,0.0030
3232.00,0.0030
3231.00,0.0031
3230.00,0.0031
3229.00,0.0032
3228.00,0.0032
3227.00,0.0032
3226.00,0.0032
3225.00,0.0032
3224.00,0.0032
3223.00,0.0032
3222.00,0.0032
3221.00,0.0033
3220.00,0.0033
3219.00,0.0033
3218.00,0.0033
3217.00,0.0033
3216.00,0.0034
3215.00,0.0034
3214.00,0.0034
3213.00,0.0035
3212.00,0.0035
3211.00,0.0036
3210.00,0.0036
3209.00,0.0036
3208.00,0.0036
3207.00,0.0035
3206.00,0.0035
3205.00,0.0035
3204.00,0.0035
3203.00,0.0036
3202.00,0.0036
3201.00,0.0037
3200.00,0.0037
3199.00,0.0037
3198.00,0.0038
3197.00,0.0038
3196.00,0.0037
3195.00,0.0037
3194.00,0.0036
3193.00,0.0036
3192.00,0.0036
3191.00,0.0037
3190.00,0.0037
3189.00,0.0037
3188.00,0.0037
3187.00,0.0037
3186.00,0.0036
3185.00,0.0036
3184.00,0.0036
3183.00,0.0036
3182.00,0.0036
3181.00,0.0036
3180.00,0.0036
3179.00,0.0036
3178.00,0.0036
3177.00,0.0035
3176.00,0.0035
3175.00,0.0035
3174.00,0.0035
3173.00,0.0034
3172.00,0.0034
3171.00,0.0034
3170.00,0.0034
3169.00,0.0034
3168.00,0.0034
3167.00,0.0034
3166.00,0.0034
3165.00,0.0034
3164.00,0.0034
3163.00,0.0034
3162.00,0.0034
3161.00,0.0034
3160.00,0.0034
3159.00,0.0034
3158.00,0.0034
3157.00,0.0034
3156.00,0.0034
3155.00,0.0034
3154.00,0.0034
3153.00,0.0035
3152.00,0.0035
3151.00,0.0035
3150.00,0.0035
3149.00,0.0035
3148.00,0.0035
3147.00,0.0035
3146.00,0.0035
3145.00,0.0035
3144.00,0.0034
3143.00,0.0034
3142.00,0.0034
3141.00,0.0034
3140.00,0.0034
3139.00,0.0034
3138.00,0.0034
3137.00,0.0034
3136.00,0.0034
3135.00,0.0033
3134.00,0.0033
3133.00,0.0033
3132.00,0.0033
3131.00,0.0033
3130.00,0.0033
3129.00,0.0032
3128.00,0.0032
3127.00,0.0032
3126.00,0.0031
3125.00,0.0031
3124.00,0.0031
3123.00,0.0031
3122.00,0.0031
3121.00,0.0030
3120.00,0.0030
3119.00,0.0030
3118.00,0.0030
3117.00,0.0029
3116.00,0.0029
3115.00,0.0029
3114.00,0.0029
3113.00,0.0029
3112.00,0.0029
3111.00,0.0029
3110.00,0.0029
3109.00,0.0029
3108.00,0.0029
3107.00,0.0029
3106.00,0.0029
3105.00,0.0029
3104.00,0.0029
3103.00,0.0029
3102.00,0.0029
3101.00,0.0028
3100.00,0.0028
3099.00,0.0028
3098.00,0.0028
3097.00,0.0029
3096.00,0.0029
3095.00,0.0029
3094.00,0.0029
3093.00,0.0029
3092.00,0.0028
3091.00,0.0028
3090.00,0.0028
3089.00,0.0028
3088.00,0.0028
3087.00,0.0028
3086.00,0.0028
3085.00,0.0028
3084.00,0.0028
3083.00,0.0028
3082.00,0.0028
3081.00,0.0028
3080.00,0.0028
3079.00,0.0028
3078.00,0.0028
3077.00,0.0029
3076.00,0.0029
3075.00,0.0030
3074.00,0.0030
3073.00,0.0030
3072.00,0.0031
3071.00,0.0030
3070.00,0.0030
3069.00,0.0030
3068.00,0.0030
3067.00,0.0030
3066.00,0.0031
3065.00,0.0032
3064.00,0.0032
3063.00,0.0032
3062.00,0.0032
3061.00,0.0031
3060.00,0.0031
3059.00,0.0032
3058.00,0.0032
3057.00,0.0032
3056.00,0.0032
3055.00,0.0033
3054.00,0.0033
3053.00,0.0033
3052.00,0.0033
3051.00,0.0033
3050.00,0.0033
3049.00,0.0033
3048.00,0.0033
3047.00,0.0034
3046.00,0.0034
3045.00,0.0034
3044.00,0.0034
3043.00,0.0035
3042.00,0.0035
3041.00,0.0035
3040.00,0.0036
3039.00,0.0036
3038.00,0.0036
3037.00,0.0037
3036.00,0.0037
3035.00,0.0037
3034.00,0.0037
3033.00,0.0038
3032.00,0.0038
3031.00,0.0038
3030.00,0.0039
3029.00,0.0039
3028.00,0.0039
3027.00,0.0040
3026.00,0.0040
3025.00,0.0041
3024.00,0.0042
3023.00,0.0042
3022.00,0.0043
3021.00,0.0044
3020.00,0.0045
3019.00,0.0045
3018.00,0.0046
3017.00,0.0047
3016.00,0.0048
3015.00,0.0049
3014.00,0.0051
3013.00,0.0052
3012.00,0.0053
3011.00,0.0054
3010.00,0.0055
3009.00,0.0056
3008.00,0.0058
3007.00,0.0059
3006.00,0.0061
3005.00,0.0063
3004.00,0.0065
3003.00,0.0067
3002.00,0.0069
3001.00,0.0072
3000.00,0.0074
2999.00,0.0077
2998.00,0.0080
2997.00,0.0083
2996.00,0.0087
2995.00,0.0091
2994.00,0.0095
2993.00,0.0100
2992.00,0.0105
2991.00,0.0111
2990.00,0.0117
2989.00,0.0125
2988.00,0.0133
2987.00,0.0142
2986.00,0.0152
2985.00,0.0163
2984.00,0.0176
2983.00,0.0190
2982.00,0.0206
2981.00,0.0224
2980.00,0.0245
2979.00,0.0268
2978.00,0.0295
2977.00,0.0326
2976.00,0.0362
2975.00,0.0403
2974.00,0.0451
2973.00,0.0504
2972.00,0.0565
2971.00,0.0633
2970.00,0.0709
2969.00,0.0794
2968.00,0.0885
2967.00,0.0984
2966.00,0.1088
2965.00,0.1193
2964.00,0.1295
2963.00,0.1389
2962.00,0.1468
2961.00,0.1529
2960.00,0.1573
2959.00,0.1605
2958.00,0.1631
2957.00,0.1659
2956.00,0.1696
2955.00,0.1746
2954.00,0.1807
2953.00,0.1872
2952.00,0.1930
2951.00,0.1968
2950.00,0.1972
2949.00,0.1936
2948.00,0.1859
2947.00,0.1749
2946.00,0.1618
2945.00,0.1481
2944.00,0.1353
2943.00,0.1242
2942.00,0.1155
2941.00,0.1093
2940.00,0.1056
2939.00,0.1043
2938.00,0.1049
2937.00,0.1074
2936.00,0.1116
2935.00,0.1172
2934.00,0.1243
2933.00,0.1327
2932.00,0.1421
2931.00,0.1525
2930.00,0.1635
2929.00,0.1748
2928.00,0.1861
2927.00,0.1972
2926.00,0.2078
2925.00,0.2182
2924.00,0.2283
2923.00,0.2383
2922.00,0.2482
2921.00,0.2574
2920.00,0.2654
2919.00,0.2710
2918.00,0.2734
2917.00,0.2718
2916.00,0.2664
2915.00,0.2580
2914.00,0.2478
2913.00,0.2372
2912.00,0.2269
2911.00,0.2178
2910.00,0.2099
2909.00,0.2029
2908.00,0.1966
2907.00,0.1905
2906.00,0.1844
2905.00,0.1782
2904.00,0.1717
2903.00,0.1650
2902.00,0.1582
2901.00,0.1515
2900.00,0.1450
2899.00,0.1387
2898.00,0.1329
2897.00,0.1275
2896.00,0.1227
2895.00,0.1186
2894.00,0.1151
2893.00,0.1122
2892.00,0.1100
2891.00,0.1084
2890.00,0.1073
2889.00,0.1067
2888.00,0.1064
2887.00,0.1064
2886.00,0.1067
2885.00,0.1074
2884.00,0.1085
2883.00,0.1101
2882.00,0.1119
2881.00,0.1139
2880.00,0.1158
2879.00,0.1172
2878.00,0.1179
2877.00,0.1178
2876.00,0.1171
2875.00,0.1162
2874.00,0.1156
2873.00,0.1157
2872.00,0.1165
2871.00,0.1181
2870.00,0.1200
2869.00,0.1218
2868.00,0.1227
2867.00,0.1221
2866.00,0.1192
2865.00,0.1140
2864.00,0.1069
2863.00,0.0989
2862.00,0.0909
2861.00,0.0839
2860.00,0.0783
2859.00,0.0744
2858.00,0.0719
2857.00,0.0708
2856.00,0.0708
2855.00,0.0716
2854.00,0.0731
2853.00,0.0750
2852.00,0.0772
2851.00,0.0794
2850.00,0.0815
2849.00,0.0834
2848.00,0.0855
2847.00,0.0880
2846.00,0.0913
2845.00,0.0957
2844.00,0.1011
2843.00,0.1072
2842.00,0.1135
2841.00,0.1192
2840.00,0.1235
2839.00,0.1257
2838.00,0.1251
2837.00,0.1213
2836.00,0.1145
2835.00,0.1053
2834.00,0.0947
2833.00,0.0838
2832.00,0.0734
2831.00,0.0643
2830.00,0.0565
2829.00,0.0501
2828.00,0.0450
2827.00,0.0408
2826.00,0.0374
2825.00,0.0346
2824.00,0.0322
2823.00,0.0302
2822.00,0.0285
2821.00,0.0270
2820.00,0.0257
2819.00,0.0245
2818.00,0.0235
2817.00,0.0226
2816.00,0.0218
2815.00,0.0211
2814.00,0.0205
2813.00,0.0199
2812.00,0.0194
2811.00,0.0188
2810.00,0.0183
2809.00,0.0177
2808.00,0.0171
2807.00,0.0165
2806.00,0.0159
2805.00,0.0152
2804.00,0.0146
2803.00,0.0140
2802.00,0.0135
2801.00,0.0130
2800.00,0.0126
2799.00,0.0123
2798.00,0.0121
2797.00,0.0119
2796.00,0.0116
2795.00,0.0114
2794.00,0.0111
2793.00,0.0109
2792.00,0.0106
2791.00,0.0102
2790.00,0.0099
2789.00,0.0095
2788.00,0.0092
2787.00,0.0088
2786.00,0.0085
2785.00,0.0083
2784.00,0.0080
2783.00,0.0078
2782.00,0.0076
2781.00,0.0074
2780.00,0.0073
2779.00,0.0071
2778.00,0.0069
2777.00,0.0068
2776.00,0.0066
2775.00,0.0065
2774.00,0.0064
2773.00,0.0064
2772.00,0.0063
2771.00,0.0063
2770.00,0.0063
2769.00,0.0062
2768.00,0.0062
2767.00,0.0061
2766.00,0.0061
2765.00,0.0061
2764.00,0.0060
2763.00,0.0060
2762.00,0.0059
2761.00,0.0059
2760.00,0.0058
2759.00,0.0058
2758.00,0.0059
2757.00,0.0059
2756.00,0.0059
2755.00,0.0059
2754.00,0.0058
2753.00,0.0058
2752.00,0.0057
2751.00,0.0057
2750.00,0.0057
2749.00,0.0057
2748.00,0.0058
2747.00,0.0058
2746.00,0.0058
2745.00,0.0059
2744.00,0.0059
2743.00,0.0060
2742.00,0.0061
2741.00,0.0062
2740.00,0.0063
2739.00,0.0064
2738.00,0.0065
2737.00,0.0066
2736.00,0.0068
2735.00,0.0069
2734.00,0.0071
2733.00,0.0072
2732.00,0.0074
2731.00,0.0076
2730.00,0.0078
2729.00,0.0081
2728.00,0.0084
2727.00,0.0086
2726.00,0.0089
2725.00,0.0091
2724.00,0.0092
2723.00,0.0093
2722.00,0.0092
2721.00,0.0090
2720.00,0.0088
2719.00,0.0085
2718.00,0.0081
2717.00,0.0078
2716.00,0.0075
2715.00,0.0072
2714.00,0.0070
2713.00,0.0068
2712.00,0.0066
2711.00,0.0065
2710.00,0.0063
2709.00,0.0062
2708.00,0.0061
2707.00,0.0060
2706.00,0.0058
2705.00,0.0057
2704.00,0.0056
2703.00,0.0055
2702.00,0.0054
2701.00,0.0053
2700.00,0.0052
2699.00,0.0051
2698.00,0.0051
2697.00,0.0051
2696.00,0.0051
2695.00,0.0051
2694.00,0.0051
2693.00,0.0051
2692.00,0.0051
2691.00,0.0051
2690.00,0.0051
2689.00,0.0051
2688.00,0.0051
2687.00,0.0051
2686.00,0.0051
2685.00,0.0051
2684.00,0.0051
2683.00,0.0051
2682.00,0.0051
2681.00,0.0051
2680.00,0.0051
2679.00,0.0051
2678.00,0.0051
2677.00,0.0051
2676.00,0.0051
2675.00,0.0051
2674.00,0.0051
2673.00,0.0051
2672.00,0.0051
2671.00,0.0051
2670.00,0.0051
2669.00,0.0051
2668.00,0.0051
2667.00,0.0051
2666.00,0.0051
2665.00,0.0052
2664.00,0.0052
2663.00,0.0053
2662.00,0.0053
2661.00,0.0054
2660.00,0.0054
2659.00,0.0054
2658.00,0.0054
2657.00,0.0053
2656.00,0.0053
2655.00,0.0052
2654.00,0.0052
2653.00,0.0051
2652.00,0.0051
2651.00,0.0050
2650.00,0.0049
2649.00,0.0049
2648.00,0.0049
2647.00,0.0048
2646.00,0.0048
2645.00,0.0048
2644.00,0.0048
2643.00,0.0047
2642.00,0.0047
2641.00,0.0046
2640.00,0.0046
2639.00,0.0045
2638.00,0.0045
2637.00,0.0045
2636.00,0.0045
2635.00,0.0045
2634.00,0.0045
2633.00,0.0045
2632.00,0.0045
2631.00,0.0045
2630.00,0.0044
2629.00,0.0044
2628.00,0.0044
2627.00,0.0045
2626.00,0.0045
2625.00,0.0046
2624.00,0.0046
2623.00,0.0046
2622.00,0.0046
2621.00,0.0047
2620.00,0.0047
2619.00,0.0047
2618.00,0.0047
2617.00,0.0047
2616.00,0.0047
2615.00,0.0047
2614.00,0.0046
2613.00,0.0045
2612.00,0.0044
2611.00,0.0043
2610.00,0.0042
2609.00,0.0041
2608.00,0.0041
2607.00,0.0041
2606.00,0.0041
2605.00,0.0041
2604.00,0.0040
2603.00,0.0039
2602.00,0.0038
2601.00,0.0037
2600.00,0.0036
2599.00,0.0036
2598.00,0.0036
2597.00,0.0037
2596.00,0.0037
2595.00,0.0037
2594.00,0.0038
2593.00,0.0038
2592.00,0.0038
2591.00,0.0039
2590.00,0.0040
2589.00,0.0041
2588.00,0.0042
2587.00,0.0043
2586.00,0.0044
2585.00,0.0044
2584.00,0.0044
2583.00,0.0044
2582.00,0.0044
2581.00,0.0043
2580.00,0.0043
2579.00,0.0042
2578.00,0.0042
2577.00,0.0041
2576.00,0.0041
2575.00,0.0040
2574.00,0.0039
2573.00,0.0038
2572.00,0.0036
2571.00,0.0035
2570.00,0.0034
2569.00,0.0033
2568.00,0.0033
2567.00,0.0032
2566.00,0.0031
2565.00,0.0031
2564.00,0.0030
2563.00,0.0029
2562.00,0.0029
2561.00,0.0028
2560.00,0.0029
2559.00,0.0029
2558.00,0.0029
2557.00,0.0029
2556.00,0.0029
2555.00,0.0029
2554.00,0.0030
2553.00,0.0029
2552.00,0.0029
2551.00,0.0029
2550.00,0.0028
2549.00,0.0028
2548.00,0.0026
2547.00,0.0025
2546.00,0.0025
2545.00,0.0024
2544.00,0.0024
2543.00,0.0024
2542.00,0.0024
2541.00,0.0023
2540.00,0.0023
2539.00,0.0023
2538.00,0.0023
2537.00,0.0022
2536.00,0.0022
2535.00,0.0022
2534.00,0.0021
2533.00,0.0021
2532.00,0.0021
2531.00,0.0022
2530.00,0.0022
2529.00,0.0022
2528.00,0.0021
2527.00,0.0021
2526.00,0.0020
2525.00,0.0020
2524.00,0.0020
2523.00,0.0020
2522.00,0.0020
2521.00,0.0020
2520.00,0.0019
2519.00,0.0019
2518.00,0.0018
2517.00,0.0018
2516.00,0.0018
2515.00,0.0018
2514.00,0.0018
2513.00,0.0017
2512.00,0.0017
2511.00,0.0017
2510.00,0.0017
2509.00,0.0017
2508.00,0.0017
2507.00,0.0017
2506.00,0.0017
2505.00,0.0017
2504.00,0.0017
2503.00,0.0016
2502.00,0.0016
2501.00,0.0015
2500.00,0.0016
2499.00,0.0016
2498.00,0.0016
2497.00,0.0017
2496.00,0.0017
2495.00,0.0017
2494.00,0.0017
2493.00,0.0017
2492.00,0.0016
2491.00,0.0016
2490.00,0.0016
2489.00,0.0016
2488.00,0.0016
2487.00,0.0015
2486.00,0.0015
2485.00,0.0016
2484.00,0.0016
2483.00,0.0017
2482.00,0.0017
2481.00,0.0018
2480.00,0.0017
2479.00,0.0017
2478.00,0.0016
2477.00,0.0016
2476.00,0.0015
2475.00,0.0015
2474.00,0.0015
2473.00,0.0015
2472.00,0.0015
2471.00,0.0015
2470.00,0.0015
2469.00,0.0015
2468.00,0.0015
2467.00,0.0015
2466.00,0.0015
2465.00,0.0014
2464.00,0.0014
2463.00,0.0014
2462.00,0.0014
2461.00,0.0015
2460.00,0.0015
2459.00,0.0016
2458.00,0.0016
2457.00,0.0015
2456.00,0.0016
2455.00,0.0016
2454.00,0.0016
2453.00,0.0016
2452.00,0.0017
2451.00,0.0017
2450.00,0.0018
2449.00,0.0018
2448.00,0.0018
2447.00,0.0018
2446.00,0.0018
2445.00,0.0018
2444.00,0.0018
2443.00,0.0017
2442.00,0.0017
2441.00,0.0016
2440.00,0.0016
2439.00,0.0017
2438.00,0.0017
2437.00,0.0017
2436.00,0.0016
2435.00,0.0016
2434.00,0.0016
2433.00,0.0017
2432.00,0.0017
2431.00,0.0018
2430.00,0.0018
2429.00,0.0018
2428.00,0.0017
2427.00,0.0016
2426.00,0.0016
2425.00,0.0015
2424.00,0.0016
2423.00,0.0016
2422.00,0.0017
2421.00,0.0017
2420.00,0.0016
2419.00,0.0016
2418.00,0.0016
2417.00,0.0015
2416.00,0.0015
2415.00,0.0015
2414.00,0.0015
2413.00,0.0015
2412.00,0.0015
2411.00,0.0015
2410.00,0.0015
2409.00,0.0015
2408.00,0.0015
2407.00,0.0015
2406.00,0.0015
2405.00,0.0015
2404.00,0.0015
2403.00,0.0015
2402.00,0.0015
2401.00,0.0015
2400.00,0.0014
2399.00,0.0014
2398.00,0.0014
2397.00,0.0014
2396.00,0.0014
2395.00,0.0014
2394.00,0.0015
2393.00,0.0014
2392.00,0.0014
2391.00,0.0013
2390.00,0.0012
2389.00,0.0012
2388.00,0.0012
2387.00,0.0012
2386.00,0.0013
2385.00,0.0013
2384.00,0.0013
2383.00,0.0013
2382.00,0.0012
2381.00,0.0011
2380.00,0.0011
2379.00,0.0010
2378.00,0.0010
2377.00,0.0010
2376.00,0.0010
2375.00,0.0009
2374.00,0.0009
2373.00,0.0009
2372.00,0.0009
2371.00,0.0010
2370.00,0.0010
2369.00,0.0011
2368.00,0.0012
2367.00,0.0012
2366.00,0.0012
2365.00,0.0011
2364.00,0.0011
2363.00,0.0011
2362.00,0.0011
2361.00,0.0011
2360.00,0.0012
2359.00,0.0011
2358.00,0.0011
2357.00,0.0012
2356.00,0.0013
2355.00,0.0013
2354.00,0.0013
2353.00,0.0011
2352.00,0.0011
2351.00,0.0011
2350.00,0.0011
2349.00,0.0012
2348.00,0.0013
2347.00,0.0013
2346.00,0.0013
2345.00,0.0014
2344.00,0.0014
2343.00,0.0015
2342.00,0.0015
2341.00,0.0016
2340.00,0.0016
2339.00,0.0016
2338.00,0.0015
2337.00,0.0015
2336.00,0.0014
2335.00,0.0014
2334.00,0.0014
2333.00,0.0014
2332.00,0.0014
2331.00,0.0014
2330.00,0.0014
2329.00,0.0014
2328.00,0.0016
2327.00,0.0020
2326.00,0.0024
2325.00,0.0028
2324.00,0.0029
2323.00,0.0029
2322.00,0.0027
2321.00,0.0024
2320.00,0.0023
2319.00,0.0021
2318.00,0.0020
2317.00,0.0019
2316.00,0.0018
2315.00,0.0018
2314.00,0.0018
2313.00,0.0018
2312.00,0.0017
2311.00,0.0017
2310.00,0.0016
2309.00,0.0016
2308.00,0.0015
2307.00,0.0015
2306.00,0.0015
2305.00,0.0015
2304.00,0.0016
2303.00,0.0016
2302.00,0.0016
2301.00,0.0016
2300.00,0.0017
2299.00,0.0017
2298.00,0.0018
2297.00,0.0019
2296.00,0.0019
2295.00,0.0020
2294.00,0.0020
2293.00,0.0021
2292.00,0.0021
2291.00,0.0022
2290.00,0.0022
2289.00,0.0022
2288.00,0.0023
2287.00,0.0023
2286.00,0.0024
2285.00,0.0025
2284.00,0.0025
2283.00,0.0024
2282.00,0.0022
2281.00,0.0020
2280.00,0.0019
2279.00,0.0019
2278.00,0.0019
2277.00,0.0019
2276.00,0.0018
2275.00,0.0018
2274.00,0.0017
2273.00,0.0017
2272.00,0.0017
2271.00,0.0018
2270.00,0.0018
2269.00,0.0018
2268.00,0.0017
2267.00,0.0017
2266.00,0.0016
2265.00,0.0015
2264.00,0.0015
2263.00,0.0015
2262.00,0.0015
2261.00,0.0016
2260.00,0.0017
2259.00,0.0018
2258.00,0.0018
2257.00,0.0017
2256.00,0.0016
2255.00,0.0015
2254.00,0.0014
2253.00,0.0014
2252.00,0.0014
2251.00,0.0013
2250.00,0.0013
2249.00,0.0013
2248.00,0.0012
2247.00,0.0012
2246.00,0.0013
2245.00,0.0014
2244.00,0.0016
2243.00,0.0018
2242.00,0.0019
2241.00,0.0018
2240.00,0.0018
2239.00,0.0016
2238.00,0.0015
2237.00,0.0014
2236.00,0.0013
2235.00,0.0013
2234.00,0.0014
2233.00,0.0014
2232.00,0.0014
2231.00,0.0013
2230.00,0.0012
2229.00,0.0012
2228.00,0.0012
2227.00,0.0012
2226.00,0.0011
2225.00,0.0011
2224.00,0.0010
2223.00,0.0009
2222.00,0.0009
2221.00,0.0009
2220.00,0.0010
2219.00,0.0010
2218.00,0.0010
2217.00,0.0011
2216.00,0.0011
2215.00,0.0011
2214.00,0.0010
2213.00,0.0009
2212.00,0.0009
2211.00,0.0009
2210.00,0.0008
2209.00,0.0008
2208.00,0.0009
2207.00,0.0010
2206.00,0.0011
2205.00,0.0013
2204.00,0.0013
2203.00,0.0012
2202.00,0.0010
2201.00,0.0008
2200.00,0.0007
2199.00,0.0007
2198.00,0.0008
2197.00,0.0010
2196.00,0.0011
2195.00,0.0012
2194.00,0.0012
2193.00,0.0013
2192.00,0.0015
2191.00,0.0018
2190.00,0.0021
2189.00,0.0021
2188.00,0.0020
2187.00,0.0019
2186.00,0.0019
2185.00,0.0019
2184.00,0.0019
2183.00,0.0016
2182.00,0.0014
2181.00,0.0013
2180.00,0.0013
2179.00,0.0014
2178.00,0.0014
2177.00,0.0013
2176.00,0.0010
2175.00,0.0009
2174.00,0.0009
2173.00,0.0011
2172.00,0.0013
2171.00,0.0013
2170.00,0.0014
2169.00,0.0015
2168.00,0.0018
2167.00,0.0021
2166.00,0.0022
2165.00,0.0022
2164.00,0.0022
2163.00,0.0022
2162.00,0.0023
2161.00,0.0019
2160.00,0.0008
2159.00,-0.0008
2158.00,-0.0022
2157.00,-0.0029
2156.00,-0.0029
2155.00,-0.0026
2154.00,-0.0022
2153.00,-0.0018
2152.00,-0.0015
2151.00,-0.0013
2150.00,-0.0011
2149.00,-0.0008
2148.00,-0.0006
2147.00,-0.0004
2146.00,-0.0003
2145.00,-0.0003
2144.00,-0.0004
2143.00,-0.0006
2142.00,-0.0007
2141.00,-0.0007
2140.00,-0.0007
2139.00,-0.0007
2138.00,-0.0006
2137.00,-0.0006
2136.00,-0.0007
2135.00,-0.0009
2134.00,-0.0011
2133.00,-0.0013
2132.00,-0.0012
2131.00,-0.0011
2130.00,-0.0008
2129.00,-0.0004
2128.00,-0.0001
2127.00,0.0001
2126.00,0.0002
2125.00,0.0001
2124.00,0.0001
2123.00,0.0002
2122.00,0.0003
2121.00,0.0004
2120.00,0.0005
2119.00,0.0006
2118.00,0.0007
2117.00,0.0008
2116.00,0.0008
2115.00,0.0008
2114.00,0.0008
2113.00,0.0008
2112.00,0.0008
2111.00,0.0009
2110.00,0.0009
2109.00,0.0010
2108.00,0.0009
2107.00,0.0008
2106.00,0.0006
2105.00,0.0005
2104.00,0.0005
2103.00,0.0007
2102.00,0.0008
2101.00,0.0009
2100.00,0.0008
2099.00,0.0007
2098.00,0.0005
2097.00,0.0004
2096.00,0.0003
2095.00,0.0002
2094.00,0.0001
2093.00,0.0001
2092.00,0.0002
2091.00,0.0003
2090.00,0.0005
2089.00,0.0007
2088.00,0.0007
2087.00,0.0007
2086.00,0.0007
2085.00,0.0007
2084.00,0.0007
2083.00,0.0006
2082.00,0.0006
2081.00,0.0006
2080.00,0.0007
2079.00,0.0007
2078.00,0.0007
2077.00,0.0006
2076.00,0.0006
2075.00,0.0006
2074.00,0.0006
2073.00,0.0007
2072.00,0.0008
2071.00,0.0008
2070.00,0.0008
2069.00,0.0007
2068.00,0.0005
2067.00,0.0003
2066.00,0.0003
2065.00,0.0003
2064.00,0.0004
2063.00,0.0004
2062.00,0.0004
2061.00,0.0004
2060.00,0.0005
2059.00,0.0005
2058.00,0.0005
2057.00,0.0005
2056.00,0.0005
2055.00,0.0004
2054.00,0.0006
2053.00,0.0010
2052.00,0.0016
2051.00,0.0020
2050.00,0.0019
2049.00,0.0015
2048.00,0.0009
2047.00,0.0006
2046.00,0.0006
2045.00,0.0009
2044.00,0.0013
2043.00,0.0015
2042.00,0.0016
2041.00,0.0015
2040.00,0.0013
2039.00,0.0011
2038.00,0.0009
2037.00,0.0007
2036.00,0.0004
2035.00,0.0002
2034.00,-0.0001
2033.00,-0.0003
2032.00,-0.0003
2031.00,-0.0003
2030.00,-0.0003
2029.00,-0.0004
2028.00,-0.0004
2027.00,-0.0004
2026.00,-0.0004
2025.00,-0.0002
2024.00,-0.0000
2023.00,0.0001
2022.00,0.0001
2021.00,-0.0001
2020.00,-0.0004
2019.00,-0.0007
2018.00,-0.0008
2017.00,-0.0008
2016.00,-0.0006
2015.00,-0.0005
2014.00,-0.0005
2013.00,-0.0007
2012.00,-0.0009
2011.00,-0.0008
2010.00,-0.0007
2009.00,-0.0005
2008.00,-0.0005
2007.00,-0.0005
2006.00,-0.0006
2005.00,-0.0007
2004.00,-0.0006
2003.00,-0.0007
2002.00,-0.0007
2001.00,-0.0008
2000.00,-0.0008
1999.00,-0.0008
1998.00,-0.0009
1997.00,-0.0009
1996.00,-0.0008
1995.00,-0.0006
1994.00,-0.0005
1993.00,-0.0003
1992.00,-0.0002
1991.00,-0.0002
1990.00,-0.0001
1989.00,0.0000
1988.00,0.0002
1987.00,0.0003
1986.00,0.0003
1985.00,0.0004
1984.00,0.0006
1983.00,0.0008
1982.00,0.0010
1981.00,0.0013
1980.00,0.0014
1979.00,0.0011
1978.00,0.0005
1977.00,-0.0004
1976.00,-0.0010
1975.00,-0.0014
1974.00,-0.0014
1973.00,-0.0013
1972.00,-0.0013
1971.00,-0.0014
1970.00,-0.0015
1969.00,-0.0015
1968.00,-0.0013
1967.00,-0.0011
1966.00,-0.0009
1965.00,-0.0008
1964.00,-0.0007
1963.00,-0.0008
1962.00,-0.0008
1961.00,-0.0009
1960.00,-0.0009
1959.00,-0.0011
1958.00,-0.0013
1957.00,-0.0014
1956.00,-0.0014
1955.00,-0.0015
1954.00,-0.0016
1953.00,-0.0017
1952.00,-0.0018
1951.00,-0.0018
1950.00,-0.0017
1949.00,-0.0015
1948.00,-0.0013
1947.00,-0.0013
1946.00,-0.0013
1945.00,-0.0013
1944.00,-0.0013
1943.00,-0.0012
1942.00,-0.0011
1941.00,-0.0008
1940.00,-0.0006
1939.00,-0.0004
1938.00,-0.0004
1937.00,-0.0004
1936.00,-0.0005
1935.00,-0.0007
1934.00,-0.0008
1933.00,-0.0009
1932.00,-0.0008
1931.00,-0.0006
1930.00,-0.0005
1929.00,-0.0003
1928.00,-0.0001
1927.00,-0.0000
1926.00,-0.0001
1925.00,-0.0002
1924.00,-0.0003
1923.00,-0.0003
1922.00,-0.0002
1921.00,-0.0001
1920.00,0.0000
1919.00,0.0001
1918.00,0.0000
1917.00,0.0000
1916.00,-0.0000
1915.00,-0.0001
1914.00,-0.0001
1913.00,-0.0001
1912.00,-0.0001
1911.00,-0.0000
1910.00,0.0000
1909.00,0.0001
1908.00,0.0003
1907.00,0.0003
1906.00,0.0003
1905.00,0.0003
1904.00,0.0003
1903.00,0.0003
1902.00,0.0004
1901.00,0.0005
1900.00,0.0005
1899.00,0.0005
1898.00,0.0004
1897.00,0.0005
1896.00,0.0005
1895.00,0.0005
1894.00,0.0004
1893.00,0.0003
1892.00,0.0002
1891.00,0.0002
1890.00,0.0001
1889.00,0.0001
1888.00,0.0001
1887.00,0.0001
1886.00,0.0001
1885.00,0.0002
1884.00,0.0003
1883.00,0.0004
1882.00,0.0004
1881.00,0.0004
1880.00,0.0004
1879.00,0.0003
1878.00,0.0003
1877.00,0.0003
1876.00,0.0004
1875.00,0.0005
1874.00,0.0005
1873.00,0.0005
1872.00,0.0004
1871.00,0.0003
1870.00,0.0003
1869.00,0.0003
1868.00,0.0004
1867.00,0.0004
1866.00,0.0004
1865.00,0.0004
1864.00,0.0005
1863.00,0.0005
1862.00,0.0005
1861.00,0.0005
1860.00,0.0005
1859.00,0.0005
1858.00,0.0005
1857.00,0.0006
1856.00,0.0006
1855.00,0.0006
1854.00,0.0006
1853.00,0.0006
1852.00,0.0006
1851.00,0.0006
1850.00,0.0005
1849.00,0.0005
1848.00,0.0005
1847.00,0.0005
1846.00,0.0005
1845.00,0.0005
1844.00,0.0005
1843.00,0.0006
1842.00,0.0006
1841.00,0.0007
1840.00,0.0007
1839.00,0.0007
1838.00,0.0007
1837.00,0.0007
1836.00,0.0007
1835.00,0.0007
1834.00,0.0007
1833.00,0.0008
1832.00,0.0008
1831.00,0.0008
1830.00,0.0008
1829.00,0.0008
1828.00,0.0008
1827.00,0.0008
1826.00,0.0008
1825.00,0.0007
1824.00,0.0007
1823.00,0.0006
1822.00,0.0006
1821.00,0.0005
1820.00,0.0005
1819.00,0.0005
1818.00,0.0004
1817.00,0.0004
1816.00,0.0004
1815.00,0.0005
1814.00,0.0005
1813.00,0.0006
1812.00,0.0007
1811.00,0.0007
1810.00,0.0007
1809.00,0.0007
1808.00,0.0007
1807.00,0.0008
1806.00,0.0008
1805.00,0.0008
1804.00,0.0009
1803.00,0.0009
1802.00,0.0009
1801.00,0.0009
1800.00,0.0009
1799.00,0.0008
1798.00,0.0008
1797.00,0.0008
1796.00,0.0008
1795.00,0.0008
1794.00,0.0009
1793.00,0.0009
1792.00,0.0009
1791.00,0.0010
1790.00,0.0010
1789.00,0.0010
1788.00,0.0010
1787.00,0.0011
1786.00,0.0012
1785.00,0.0012
1784.00,0.0013
1783.00,0.0013
1782.00,0.0013
1781.00,0.0012
1780.00,0.0012
1779.00,0.0011
1778.00,0.0011
1777.00,0.0011
1776.00,0.0011
1775.00,0.0011
1774.00,0.0010
1773.00,0.0010
1772.00,0.0011
1771.00,0.0012
1770.00,0.0013
1769.00,0.0014
1768.00,0.0014
1767.00,0.0014
1766.00,0.0014
1765.00,0.0014
1764.00,0.0014
1763.00,0.0014
1762.00,0.0014
1761.00,0.0014
1760.00,0.0014
1759.00,0.0014
1758.00,0.0015
1757.00,0.0015
1756.00,0.0016
1755.00,0.0016
1754.00,0.0017
1753.00,0.0017
1752.00,0.0018
1751.00,0.0018
1750.00,0.0018
1749.00,0.0018
1748.00,0.0018
1747.00,0.0019
1746.00,0.0019
1745.00,0.0019
1744.00,0.0020
1743.00,0.0020
1742.00,0.0020
1741.00,0.0020
1740.00,0.0020
1739.00,0.0021
1738.00,0.0021
1737.00,0.0021
1736.00,0.0021
1735.00,0.0020
1734.00,0.0020
1733.00,0.0021
1732.00,0.0021
1731.00,0.0021
1730.00,0.0021
1729.00,0.0022
1728.00,0.0022
1727.00,0.0023
1726.00,0.0023
1725.00,0.0023
1724.00,0.0023
1723.00,0.0023
1722.00,0.0023
1721.00,0.0022
1720.00,0.0022
1719.00,0.0023
1718.00,0.0023
1717.00,0.0023
1716.00,0.0024
1715.00,0.0024
1714.00,0.0023
1713.00,0.0023
1712.00,0.0024
1711.00,0.0024
1710.00,0.0024
1709.00,0.0024
1708.00,0.0024
1707.00,0.0024
1706.00,0.0025
1705.00,0.0026
1704.00,0.0027
1703.00,0.0027
1702.00,0.0028
1701.00,0.0028
1700.00,0.0028
1699.00,0.0028
1698.00,0.0028
1697.00,0.0028
1696.00,0.0029
1695.00,0.0030
1694.00,0.0030
1693.00,0.0030
1692.00,0.0030
1691.00,0.0031
1690.00,0.0031
1689.00,0.0031
1688.00,0.0031
1687.00,0.0031
1686.00,0.0031
1685.00,0.0032
1684.00,0.0033
1683.00,0.0034
1682.00,0.0035
1681.00,0.0035
1680.00,0.0035
1679.00,0.0036
1678.00,0.0036
1677.00,0.0036
1676.00,0.0037
1675.00,0.0038
1674.00,0.0039
1673.00,0.0038
1672.00,0.0038
1671.00,0.0038
1670.00,0.0039
1669.00,0.0040
1668.00,0.0040
1667.00,0.0040
1666.00,0.0040
1665.00,0.0040
1664.00,0.0040
1663.00,0.0041
1662.00,0.0041
1661.00,0.0041
1660.00,0.0042
1659.00,0.0042
1658.00,0.0042
1657.00,0.0042
1656.00,0.0042
1655.00,0.0042
1654.00,0.0042
1653.00,0.0043
1652.00,0.0044
1651.00,0.0045
1650.00,0.0045
1649.00,0.0046
1648.00,0.0047
1647.00,0.0048
1646.00,0.0048
1645.00,0.0048
1644.00,0.0047
1643.00,0.0047
1642.00,0.0047
1641.00,0.0047
1640.00,0.0048
1639.00,0.0048
1638.00,0.0048
1637.00,0.0048
1636.00,0.0047
1635.00,0.0047
1634.00,0.0047
1633.00,0.0048
1632.00,0.0049
1631.00,0.0050
1630.00,0.0050
1629.00,0.0050
1628.00,0.0049
1627.00,0.0049
1626.00,0.0048
1625.00,0.0048
1624.00,0.0047
1623.00,0.0047
1622.00,0.0046
1621.00,0.0046
1620.00,0.0046
1619.00,0.0047
1618.00,0.0047
1617.00,0.0047
1616.00,0.0047
1615.00,0.0046
1614.00,0.0046
1613.00,0.0046
1612.00,0.0046
1611.00,0.0045
1610.00,0.0045
1609.00,0.0045
1608.00,0.0046
1607.00,0.0045
1606.00,0.0045
1605.00,0.0045
1604.00,0.0045
1603.00,0.0045
1602.00,0.0046
1601.00,0.0046
1600.00,0.0046
1599.00,0.0046
1598.00,0.0046
1597.00,0.0046
1596.00,0.0046
1595.00,0.0046
1594.00,0.0046
1593.00,0.0046
1592.00,0.0046
1591.00,0.0046
1590.00,0.0047
1589.00,0.0047
1588.00,0.0047
1587.00,0.0048
1586.00,0.0048
1585.00,0.0049
1584.00,0.0051
1583.00,0.0052
1582.00,0.0053
1581.00,0.0054
1580.00,0.0054
1579.00,0.0055
1578.00,0.0055
1577.00,0.0055
1576.00,0.0055
1575.00,0.0055
1574.00,0.0054
1573.00,0.0054
1572.00,0.0054
1571.00,0.0053
1570.00,0.0052
1569.00,0.0051
1568.00,0.0050
1567.00,0.0050
1566.00,0.0049
1565.00,0.0049
1564.00,0.0049
1563.00,0.0050
1562.00,0.0050
1561.00,0.0052
1560.00,0.0053
1559.00,0.0052
1558.00,0.0051
1557.00,0.0050
1556.00,0.0050
1555.00,0.0050
1554.00,0.0050
1553.00,0.0051
1552.00,0.0052
1551.00,0.0053
1550.00,0.0054
1549.00,0.0055
1548.00,0.0055
1547.00,0.0056
1546.00,0.0057
1545.00,0.0058
1544.00,0.0060
1543.00,0.0060
1542.00,0.0060
1541.00,0.0061
1540.00,0.0061
1539.00,0.0061
1538.00,0.0060
1537.00,0.0059
1536.00,0.0058
1535.00,0.0057
1534.00,0.0055
1533.00,0.0054
1532.00,0.0053
1531.00,0.0053
1530.00,0.0052
1529.00,0.0052
1528.00,0.0053
1527.00,0.0053
1526.00,0.0052
1525.00,0.0052
1524.00,0.0052
1523.00,0.0053
1522.00,0.0054
1521.00,0.0055
1520.00,0.0056
1519.00,0.0056
1518.00,0.0056
1517.00,0.0056
1516.00,0.0056
1515.00,0.0056
1514.00,0.0056
1513.00,0.0058
1512.00,0.0060
1511.00,0.0061
1510.00,0.0062
1509.00,0.0063
1508.00,0.0065
1507.00,0.0065
1506.00,0.0065
1505.00,0.0066
1504.00,0.0068
1503.00,0.0069
1502.00,0.0070
1501.00,0.0072
1500.00,0.0075
1499.00,0.0077
1498.00,0.0080
1497.00,0.0083
1496.00,0.0086
1495.00,0.0089
1494.00,0.0091
1493.00,0.0094
1492.00,0.0099
1491.00,0.0103
1490.00,0.0108
1489.00,0.0114
1488.00,0.0120
1487.00,0.0124
1486.00,0.0129
1485.00,0.0135
1484.00,0.0141
1483.00,0.0148
1482.00,0.0157
1481.00,0.0168
1480.00,0.0180
1479.00,0.0192
1478.00,0.0208
1477.00,0.0229
1476.00,0.0254
1475.00,0.0284
1474.00,0.0323
1473.00,0.0379
1472.00,0.0446
1471.00,0.0510
1470.00,0.0571
1469.00,0.0634
1468.00,0.0703
1467.00,0.0779
1466.00,0.0866
1465.00,0.0961
1464.00,0.1045
1463.00,0.1103
1462.00,0.1141
1461.00,0.1167
1460.00,0.1185
1459.00,0.1198
1458.00,0.1210
1457.00,0.1222
1456.00,0.1225
1455.00,0.1220
1454.00,0.1210
1453.00,0.1194
1452.00,0.1169
1451.00,0.1133
1450.00,0.1084
1449.00,0.1014
1448.00,0.0923
1447.00,0.0827
1446.00,0.0741
1445.00,0.0667
1444.00,0.0603
1443.00,0.0550
1442.00,0.0510
1441.00,0.0481
1440.00,0.0462
1439.00,0.0453
1438.00,0.0452
1437.00,0.0452
1436.00,0.0441
1435.00,0.0416
1434.00,0.0382
1433.00,0.0340
1432.00,0.0297
1431.00,0.0258
1430.00,0.0228
1429.00,0.0205
1428.00,0.0189
1427.00,0.0179
1426.00,0.0173
1425.00,0.0166
1424.00,0.0160
1423.00,0.0156
1422.00,0.0153
1421.00,0.0150
1420.00,0.0146
1419.00,0.0143
1418.00,0.0140
1417.00,0.0136
1416.00,0.0133
1415.00,0.0132
1414.00,0.0131
1413.00,0.0129
1412.00,0.0127
1411.00,0.0126
1410.00,0.0125
1409.00,0.0123
1408.00,0.0121
1407.00,0.0120
1406.00,0.0120
1405.00,0.0120
1404.00,0.0119
1403.00,0.0120
1402.00,0.0122
1401.00,0.0122
1400.00,0.0123
1399.00,0.0124
1398.00,0.0126
1397.00,0.0128
1396.00,0.0130
1395.00,0.0134
1394.00,0.0139
1393.00,0.0144
1392.00,0.0149
1391.00,0.0157
1390.00,0.0167
1389.00,0.0182
1388.00,0.0203
1387.00,0.0235
1386.00,0.0279
1385.00,0.0336
1384.00,0.0415
1383.00,0.0525
1382.00,0.0674
1381.00,0.0864
1380.00,0.1100
1379.00,0.1368
1378.00,0.1625
1377.00,0.1811
1376.00,0.1867
1375.00,0.1763
1374.00,0.1530
1373.00,0.1256
1372.00,0.1011
1371.00,0.0812
1370.00,0.0654
1369.00,0.0535
1368.00,0.0453
1367.00,0.0402
1366.00,0.0374
1365.00,0.0363
1364.00,0.0365
1363.00,0.0378
1362.00,0.0398
1361.00,0.0419
1360.00,0.0435
1359.00,0.0439
1358.00,0.0429
1357.00,0.0404
1356.00,0.0370
1355.00,0.0331
1354.00,0.0294
1353.00,0.0263
1352.00,0.0237
1351.00,0.0215
1350.00,0.0198
1349.00,0.0183
1348.00,0.0171
1347.00,0.0161
1346.00,0.0152
1345.00,0.0144
1344.00,0.0138
1343.00,0.0134
1342.00,0.0130
1341.00,0.0127
1340.00,0.0124
1339.00,0.0122
1338.00,0.0121
1337.00,0.0120
1336.00,0.0121
1335.00,0.0123
1334.00,0.0125
1333.00,0.0129
1332.00,0.0133
1331.00,0.0136
1330.00,0.0136
1329.00,0.0135
1328.00,0.0132
1327.00,0.0128
1326.00,0.0123
1325.00,0.0118
1324.00,0.0113
1323.00,0.0108
1322.00,0.0104
1321.00,0.0100
1320.00,0.0098
1319.00,0.0096
1318.00,0.0094
1317.00,0.0092
1316.00,0.0091
1315.00,0.0091
1314.00,0.0091
1313.00,0.0091
1312.00,0.0093
1311.00,0.0095
1310.00,0.0099
1309.00,0.0106
1308.00,0.0115
1307.00,0.0128
1306.00,0.0141
1305.00,0.0150
1304.00,0.0152
1303.00,0.0149
1302.00,0.0143
1301.00,0.0136
1300.00,0.0132
1299.00,0.0131
1298.00,0.0130
1297.00,0.0130
1296.00,0.0128
1295.00,0.0126
1294.00,0.0122
1293.00,0.0118
1292.00,0.0113
1291.00,0.0108
1290.00,0.0103
1289.00,0.0099
1288.00,0.0096
1287.00,0.0093
1286.00,0.0091
1285.00,0.0089
1284.00,0.0087
1283.00,0.0086
1282.00,0.0084
1281.00,0.0083
1280.00,0.0081
1279.00,0.0080
1278.00,0.0079
1277.00,0.0079
1276.00,0.0078
1275.00,0.0079
1274.00,0.0079
1273.00,0.0079
1272.00,0.0080
1271.00,0.0080
1270.00,0.0080
1269.00,0.0081
1268.00,0.0083
1267.00,0.0085
1266.00,0.0087
1265.00,0.0089
1264.00,0.0091
1263.00,0.0094
1262.00,0.0098
1261.00,0.0103
1260.00,0.0110
1259.00,0.0118
1258.00,0.0127
1257.00,0.0134
1256.00,0.0138
1255.00,0.0136
1254.00,0.0130
1253.00,0.0120
1252.00,0.0110
1251.00,0.0102
1250.00,0.0095
1249.00,0.0091
1248.00,0.0087
1247.00,0.0085
1246.00,0.0083
1245.00,0.0081
1244.00,0.0079
1243.00,0.0078
1242.00,0.0076
1241.00,0.0075
1240.00,0.0075
1239.00,0.0075
1238.00,0.0075
1237.00,0.0075
1236.00,0.0075
1235.00,0.0075
1234.00,0.0075
1233.00,0.0075
1232.00,0.0075
1231.00,0.0075
1230.00,0.0076
1229.00,0.0078
1228.00,0.0079
1227.00,0.0080
1226.00,0.0082
1225.00,0.0084
1224.00,0.0087
1223.00,0.0089
1222.00,0.0092
1221.00,0.0094
1220.00,0.0095
1219.00,0.0096
1218.00,0.0096
1217.00,0.0095
1216.00,0.0093
1215.00,0.0090
1214.00,0.0087
1213.00,0.0084
1212.00,0.0082
1211.00,0.0080
1210.00,0.0078
1209.00,0.0077
1208.00,0.0076
1207.00,0.0075
1206.00,0.0075
1205.00,0.0075
1204.00,0.0075
1203.00,0.0075
1202.00,0.0074
1201.00,0.0073
1200.00,0.0073
1199.00,0.0073
1198.00,0.0073
1197.00,0.0072
1196.00,0.0072
1195.00,0.0072
1194.00,0.0071
1193.00,0.0071
1192.00,0.0071
1191.00,0.0072
1190.00,0.0073
1189.00,0.0073
1188.00,0.0073
1187.00,0.0073
1186.00,0.0074
1185.00,0.0075
1184.00,0.0076
1183.00,0.0078
1182.00,0.0081
1181.00,0.0085
1180.00,0.0090
1179.00,0.0096
1178.00,0.0103
1177.00,0.0113
1176.00,0.0126
1175.00,0.0143
1174.00,0.0165
1173.00,0.0193
1172.00,0.0227
1171.00,0.0266
1170.00,0.0302
1169.00,0.0331
1168.00,0.0347
1167.00,0.0348
1166.00,0.0337
1165.00,0.0319
1164.00,0.0297
1163.00,0.0277
1162.00,0.0259
1161.00,0.0245
1160.00,0.0233
1159.00,0.0223
1158.00,0.0216
1157.00,0.0211
1156.00,0.0207
1155.00,0.0204
1154.00,0.0202
1153.00,0.0198
1152.00,0.0193
1151.00,0.0186
1150.00,0.0178
1149.00,0.0168
1148.00,0.0159
1147.00,0.0149
1146.00,0.0140
1145.00,0.0131
1144.00,0.0123
1143.00,0.0116
1142.00,0.0109
1141.00,0.0104
1140.00,0.0098
1139.00,0.0094
1138.00,0.0089
1137.00,0.0086
1136.00,0.0082
1135.00,0.0080
1134.00,0.0078
1133.00,0.0077
1132.00,0.0076
1131.00,0.0076
1130.00,0.0075
1129.00,0.0074
1128.00,0.0073
1127.00,0.0073
1126.00,0.0073
1125.00,0.0073
1124.00,0.0073
1123.00,0.0074
1122.00,0.0074
1121.00,0.0075
1120.00,0.0076
1119.00,0.0077
1118.00,0.0077
1117.00,0.0077
1116.00,0.0078
1115.00,0.0079
1114.00,0.0081
1113.00,0.0083
1112.00,0.0086
1111.00,0.0088
1110.00,0.0091
1109.00,0.0095
1108.00,0.0099
1107.00,0.0104
1106.00,0.0110
1105.00,0.0116
1104.00,0.0121
1103.00,0.0124
1102.00,0.0123
1101.00,0.0120
1100.00,0.0114
1099.00,0.0108
1098.00,0.0102
1097.00,0.0097
1096.00,0.0093
1095.00,0.0089
1094.00,0.0087
1093.00,0.0084
1092.00,0.0081
1091.00,0.0079
1090.00,0.0077
1089.00,0.0077
1088.00,0.0077
1087.00,0.0077
1086.00,0.0077
1085.00,0.0076
1084.00,0.0076
1083.00,0.0075
1082.00,0.0075
1081.00,0.0075
1080.00,0.0074
1079.00,0.0072
1078.00,0.0071
1077.00,0.0071
1076.00,0.0071
1075.00,0.0070
1074.00,0.0069
1073.00,0.0069
1072.00,0.0069
1071.00,0.0069
1070.00,0.0069
1069.00,0.0068
1068.00,0.0067
1067.00,0.0066
1066.00,0.0066
1065.00,0.0066
1064.00,0.0066
1063.00,0.0066
1062.00,0.0066
1061.00,0.0066
1060.00,0.0066
1059.00,0.0067
1058.00,0.0068
1057.00,0.0070
1056.00,0.0071
1055.00,0.0072
1054.00,0.0073
1053.00,0.0074
1052.00,0.0075
1051.00,0.0076
1050.00,0.0079
1049.00,0.0082
1048.00,0.0086
1047.00,0.0090
1046.00,0.0093
1045.00,0.0095
1044.00,0.0094
1043.00,0.0093
1042.00,0.0090
1041.00,0.0087
1040.00,0.0084
1039.00,0.0082
1038.00,0.0082
1037.00,0.0082
1036.00,0.0082
1035.00,0.0082
1034.00,0.0081
1033.00,0.0079
1032.00,0.0077
1031.00,0.0075
1030.00,0.0075
1029.00,0.0075
1028.00,0.0076
1027.00,0.0076
1026.00,0.0076
1025.00,0.0076
1024.00,0.0076
1023.00,0.0076
1022.00,0.0077
1021.00,0.0078
1020.00,0.0078
1019.00,0.0080
1018.00,0.0081
1017.00,0.0083
1016.00,0.0085
1015.00,0.0087
1014.00,0.0089
1013.00,0.0092
1012.00,0.0095
1011.00,0.0099
1010.00,0.0103
1009.00,0.0107
1008.00,0.0112
1007.00,0.0119
1006.00,0.0129
1005.00,0.0144
1004.00,0.0165
1003.00,0.0193
1002.00,0.0230
1001.00,0.0275
1000.00,0.0322
999.00,0.0362
998.00,0.0381
997.00,0.0373
996.00,0.0341
995.00,0.0296
994.00,0.0249
993.00,0.0208
992.00,0.0177
991.00,0.0154
990.00,0.0138
989.00,0.0127
988.00,0.0119
987.00,0.0116
986.00,0.0115
985.00,0.0117
984.00,0.0122
983.00,0.0129
982.00,0.0141
981.00,0.0158
980.00,0.0182
979.00,0.0216
978.00,0.0258
977.00,0.0307
976.00,0.0359
975.00,0.0408
974.00,0.0443
973.00,0.0455
972.00,0.0437
971.00,0.0392
970.00,0.0333
969.00,0.0273
968.00,0.0222
967.00,0.0185
966.00,0.0158
965.00,0.0139
964.00,0.0126
963.00,0.0116
962.00,0.0108
961.00,0.0102
960.00,0.0097
959.00,0.0093
958.00,0.0089
957.00,0.0085
956.00,0.0082
955.00,0.0080
954.00,0.0078
953.00,0.0077
952.00,0.0076
951.00,0.0076
950.00,0.0076
949.00,0.0076
948.00,0.0075
947.00,0.0074
946.00,0.0075
945.00,0.0076
944.00,0.0079
943.00,0.0082
942.00,0.0085
941.00,0.0087
940.00,0.0087
939.00,0.0085
938.00,0.0081
937.00,0.0077
936.00,0.0072
935.00,0.0069
934.00,0.0066
933.00,0.0064
932.00,0.0062
931.00,0.0060
930.00,0.0059
929.00,0.0058
928.00,0.0058
927.00,0.0058
926.00,0.0058
925.00,0.0058
924.00,0.0057
923.00,0.0057
922.00,0.0057
921.00,0.0058
920.00,0.0059
919.00,0.0061
918.00,0.0062
917.00,0.0063
916.00,0.0063
915.00,0.0064
914.00,0.0064
913.00,0.0064
912.00,0.0064
911.00,0.0065
910.00,0.0067
909.00,0.0070
908.00,0.0073
907.00,0.0078
906.00,0.0085
905.00,0.0096
904.00,0.0110
903.00,0.0127
902.00,0.0144
901.00,0.0159
900.00,0.0169
899.00,0.0171
898.00,0.0165
897.00,0.0151
896.00,0.0134
895.00,0.0118
894.00,0.0104
893.00,0.0094
892.00,0.0086
891.00,0.0081
890.00,0.0076
889.00,0.0074
888.00,0.0073
887.00,0.0072
886.00,0.0072
885.00,0.0072
884.00,0.0072
883.00,0.0071
882.00,0.0072
881.00,0.0073
880.00,0.0075
879.00,0.0078
878.00,0.0081
877.00,0.0083
876.00,0.0085
875.00,0.0085
874.00,0.0085
873.00,0.0084
872.00,0.0083
871.00,0.0081
870.00,0.0079
869.00,0.0078
868.00,0.0077
867.00,0.0077
866.00,0.0078
865.00,0.0079
864.00,0.0080
863.00,0.0081
862.00,0.0083
861.00,0.0085
860.00,0.0086
859.00,0.0088
858.00,0.0088
857.00,0.0089
856.00,0.0091
855.00,0.0093
854.00,0.0095
853.00,0.0097
852.00,0.0100
851.00,0.0103
850.00,0.0108
849.00,0.0114
848.00,0.0125
847.00,0.0143
846.00,0.0169
845.00,0.0208
844.00,0.0261
843.00,0.0319
842.00,0.0364
841.00,0.0375
840.00,0.0346
839.00,0.0290
838.00,0.0231
837.00,0.0186
836.00,0.0156
835.00,0.0138
834.00,0.0126
833.00,0.0118
832.00,0.0113
831.00,0.0109
830.00,0.0105
829.00,0.0102
828.00,0.0099
827.00,0.0096
826.00,0.0094
825.00,0.0092
824.00,0.0092
823.00,0.0092
822.00,0.0093
821.00,0.0094
820.00,0.0097
819.00,0.0100
818.00,0.0104
817.00,0.0109
816.00,0.0116
815.00,0.0126
814.00,0.0141
813.00,0.0158
812.00,0.0178
811.00,0.0194
810.00,0.0206
809.00,0.0210
808.00,0.0205
807.00,0.0194
806.00,0.0177
805.00,0.0160
804.00,0.0145
803.00,0.0131
802.00,0.0121
801.00,0.0113
800.00,0.0108
799.00,0.0105
798.00,0.0103
797.00,0.0099
796.00,0.0094
795.00,0.0089
794.00,0.0085
793.00,0.0082
792.00,0.0080
791.00,0.0078
790.00,0.0076
789.00,0.0074
788.00,0.0071
787.00,0.0067
786.00,0.0064
785.00,0.0062
784.00,0.0060
783.00,0.0058
782.00,0.0057
781.00,0.0057
780.00,0.0057
779.00,0.0057
778.00,0.0058
777.00,0.0058
776.00,0.0057
775.00,0.0057
774.00,0.0056
773.00,0.0056
772.00,0.0057
771.00,0.0058
770.00,0.0059
769.00,0.0060
768.00,0.0060
767.00,0.0060
766.00,0.0060
765.00,0.0059
764.00,0.0057
763.00,0.0056
762.00,0.0056
761.00,0.0056
760.00,0.0057
759.00,0.0059
758.00,0.0060
757.00,0.0060
756.00,0.0061
755.00,0.0061
754.00,0.0063
753.00,0.0065
752.00,0.0065
751.00,0.0065
750.00,0.0064
749.00,0.0063
748.00,0.0063
747.00,0.0063
746.00,0.0064
745.00,0.0066
744.00,0.0067
743.00,0.0068
742.00,0.0069
741.00,0.0070
740.00,0.0073
739.00,0.0075
738.00,0.0077
737.00,0.0078
736.00,0.0081
735.00,0.0084
734.00,0.0090
733.00,0.0096
732.00,0.0103
731.00,0.0110
730.00,0.0115
729.00,0.0118
728.00,0.0119
727.00,0.0119
726.00,0.0120
725.00,0.0122
724.00,0.0126
723.00,0.0132
722.00,0.0139
721.00,0.0144
720.00,0.0144
719.00,0.0137
718.00,0.0127
717.00,0.0115
716.00,0.0105
715.00,0.0096
714.00,0.0088
713.00,0.0083
712.00,0.0078
711.00,0.0075
710.00,0.0072
709.00,0.0070
708.00,0.0068
707.00,0.0067
706.00,0.0067
705.00,0.0066
704.00,0.0065
703.00,0.0063
702.00,0.0062
701.00,0.0062
700.00,0.0062
699.00,0.0062
698.00,0.0060
697.00,0.0058
696.00,0.0055
695.00,0.0054
694.00,0.0055
693.00,0.0056
692.00,0.0056
691.00,0.0055
690.00,0.0054
689.00,0.0054
688.00,0.0054
687.00,0.0054
686.00,0.0053
685.00,0.0053
684.00,0.0054
683.00,0.0054
682.00,0.0053
681.00,0.0051
680.00,0.0049
679.00,0.0047
678.00,0.0048
677.00,0.0049
676.00,0.0052
675.00,0.0054
674.00,0.0054
673.00,0.0053
672.00,0.0052
671.00,0.0052
670.00,0.0053
669.00,0.0056
668.00,0.0058
667.00,0.0058
666.00,0.0056
665.00,0.0053
664.00,0.0050
663.00,0.0047
662.00,0.0045
661.00,0.0045
660.00,0.0046
659.00,0.0049
658.00,0.0052
657.00,0.0054
656.00,0.0055
655.00,0.0054
654.00,0.0052
653.00,0.0050
652.00,0.0049
651.00,0.0048
650.00,0.0047
649.00,0.0047
648.00,0.0049
647.00,0.0052
646.00,0.0054
645.00,0.0055
644.00,0.0055
643.00,0.0054
642.00,0.0054
641.00,0.0054
640.00,0.0055
639.00,0.0056
638.00,0.0058
637.00,0.0059
636.00,0.0058
635.00,0.0057
634.00,0.0055
633.00,0.0054
632.00,0.0054
631.00,0.0053
630.00,0.0053
629.00,0.0052
628.00,0.0051
627.00,0.0051
626.00,0.0051
625.00,0.0051
624.00,0.0052
623.00,0.0052
622.00,0.0052
621.00,0.0053
620.00,0.0055
619.00,0.0056
618.00,0.0057
617.00,0.0057
616.00,0.0057
615.00,0.0057
614.00,0.0056
613.00,0.0054
612.00,0.0051
611.00,0.0050
610.00,0.0052
609.00,0.0056
608.00,0.0058
607.00,0.0057
606.00,0.0056
605.00,0.0054
604.00,0.0053
603.00,0.0053
602.00,0.0053
601.00,0.0054
600.00,0.0056
599.00,0.0056
598.00,0.0056
597.00,0.0054
596.00,0.0053
595.00,0.0055
594.00,0.0059
593.00,0.0062
592.00,0.0062
591.00,0.0060
590.00,0.0058
589.00,0.0057
588.00,0.0058
587.00,0.0059
586.00,0.0059
585.00,0.0059
584.00,0.0059
583.00,0.0060
582.00,0.0061
581.00,0.0062
580.00,0.0062
579.00,0.0061
578.00,0.0059
577.00,0.0057
576.00,0.0057
575.00,0.0058
574.00,0.0061
573.00,0.0065
572.00,0.0068
571.00,0.0071
570.00,0.0071
569.00,0.0069
568.00,0.0065
567.00,0.0061
566.00,0.0058
565.00,0.0057
564.00,0.0057
563.00,0.0058
562.00,0.0060
561.00,0.0062
560.00,0.0063
559.00,0.0062
558.00,0.0058
557.00,0.0054
556.00,0.0052
555.00,0.0052
554.00,0.0054
553.00,0.0055
552.00,0.0054
551.00,0.0051
550.00,0.0049
549.00,0.0049
548.00,0.0053
547.00,0.0059
546.00,0.0065
545.00,0.0068
544.00,0.0070
543.00,0.0070
542.00,0.0070
541.00,0.0070
540.00,0.0070
539.00,0.0068
538.00,0.0067
537.00,0.0068
536.00,0.0071
535.00,0.0076
534.00,0.0080
533.00,0.0082
532.00,0.0081
531.00,0.0079
530.00,0.0079
529.00,0.0082
528.00,0.0086
527.00,0.0088
526.00,0.0088
525.00,0.0084
524.00,0.0078
523.00,0.0072
522.00,0.0067
521.00,0.0061
520.00,0.0057
519.00,0.0055
518.00,0.0055
517.00,0.0057
516.00,0.0062
515.00,0.0068
514.00,0.0074
513.00,0.0077
512.00,0.0075
511.00,0.0071
510.00,0.0067
509.00,0.0064
508.00,0.0061
507.00,0.0059
506.00,0.0058
505.00,0.0060
504.00,0.0066
503.00,0.0073
502.00,0.0076
501.00,0.0072
500.00,0.0065
499.00,0.0062
498.00,0.0062
497.00,0.0065
496.00,0.0067
495.00,0.0068
494.00,0.0067
493.00,0.0066
492.00,0.0064
491.00,0.0061
490.00,0.0058
489.00,0.0058
488.00,0.0061
487.00,0.0068
486.00,0.0072
485.00,0.0070
484.00,0.0060
483.00,0.0050
482.00,0.0048
481.00,0.0056
480.00,0.0067
479.00,0.0072
478.00,0.0069
477.00,0.0065
476.00,0.0068
475.00,0.0078
474.00,0.0091
473.00,0.0097
472.00,0.0098
471.00,0.0099
470.00,0.0102
469.00,0.0105
468.00,0.0105
467.00,0.0102
466.00,0.0100
465.00,0.0102
464.00,0.0110
463.00,0.0124
462.00,0.0140
461.00,0.0152
460.00,0.0152
459.00,0.0139
458.00,0.0116
457.00,0.0100
456.00,0.0099
455.00,0.0110
454.00,0.0123
453.00,0.0130
452.00,0.0129
451.00,0.0120
450.00,0.0108
