Created as New Dataset,Sample 120 By Administrator Date Friday, September 05 2025
cm-1,A
4000.00,0.0012
3999.00,0.0012
3998.00,0.0012
3997.00,0.0012
3996.00,0.0012
3995.00,0.0013
3994.00,0.0013
3993.00,0.0013
3992.00,0.0012
3991.00,0.0012
3990.00,0.0012
3989.00,0.0012
3988.00,0.0013
3987.00,0.0013
3986.00,0.0012
3985.00,0.0012
3984.00,0.0012
3983.00,0.0011
3982.00,0.0011
3981.00,0.0011
3980.00,0.0011
3979.00,0.0011
3978.00,0.0011
3977.00,0.0011
3976.00,0.0011
3975.00,0.0011
3974.00,0.0011
3973.00,0.0011
3972.00,0.0011
3971.00,0.0011
3970.00,0.0011
3969.00,0.0011
3968.00,0.0011
3967.00,0.0011
3966.00,0.0010
3965.00,0.0010
3964.00,0.0010
3963.00,0.0011
3962.00,0.0011
3961.00,0.0010
3960.00,0.0010
3959.00,0.0010
3958.00,0.0010
3957.00,0.0010
3956.00,0.0010
3955.00,0.0010
3954.00,0.0010
3953.00,0.0010
3952.00,0.0009
3951.00,0.0009
3950.00,0.0009
3949.00,0.0009
3948.00,0.0009
3947.00,0.0009
3946.00,0.0009
3945.00,0.0009
3944.00,0.0010
3943.00,0.0010
3942.00,0.0010
3941.00,0.0010
3940.00,0.0010
3939.00,0.0010
3938.00,0.0010
3937.00,0.0010
3936.00,0.0010
3935.00,0.0010
3934.00,0.0010
3933.00,0.0010
3932.00,0.0009
3931.00,0.0009
3930.00,0.0010
3929.00,0.0010
3928.00,0.0010
3927.00,0.0010
3926.00,0.0010
3925.00,0.0010
3924.00,0.0010
3923.00,0.0010
3922.00,0.0010
3921.00,0.0010
3920.00,0.0010
3919.00,0.0010
3918.00,0.0010
3917.00,0.0010
3916.00,0.0010
3915.00,0.0011
3914.00,0.0011
3913.00,0.0011
3912.00,0.0011
3911.00,0.0010
3910.00,0.0010
3909.00,0.0010
3908.00,0.0009
3907.00,0.0009
3906.00,0.0009
3905.00,0.0010
3904.00,0.0010
3903.00,0.0010
3902.00,0.0009
3901.00,0.0009
3900.00,0.0009
3899.00,0.0009
3898.00,0.0009
3897.00,0.0010
3896.00,0.0010
3895.00,0.0010
3894.00,0.0010
3893.00,0.0010
3892.00,0.0010
3891.00,0.0009
3890.00,0.0009
3889.00,0.0009
3888.00,0.0010
3887.00,0.0010
3886.00,0.0010
3885.00,0.0010
3884.00,0.0010
3883.00,0.0009
3882.00,0.0010
3881.00,0.0010
3880.00,0.0010
3879.00,0.0010
3878.00,0.0009
3877.00,0.0009
3876.00,0.0009
3875.00,0.0009
3874.00,0.0010
3873.00,0.0010
3872.00,0.0010
3871.00,0.0010
3870.00,0.0010
3869.00,0.0009
3868.00,0.0009
3867.00,0.0009
3866.00,0.0009
3865.00,0.0009
3864.00,0.0009
3863.00,0.0009
3862.00,0.0009
3861.00,0.0009
3860.00,0.0009
3859.00,0.0008
3858.00,0.0008
3857.00,0.0008
3856.00,0.0008
3855.00,0.0008
3854.00,0.0008
3853.00,0.0008
3852.00,0.0009
3851.00,0.0009
3850.00,0.0009
3849.00,0.0009
3848.00,0.0010
3847.00,0.0010
3846.00,0.0010
3845.00,0.0010
3844.00,0.0010
3843.00,0.0010
3842.00,0.0010
3841.00,0.0011
3840.00,0.0011
3839.00,0.0011
3838.00,0.0010
3837.00,0.0010
3836.00,0.0010
3835.00,0.0010
3834.00,0.0010
3833.00,0.0009
3832.00,0.0009
3831.00,0.0009
3830.00,0.0009
3829.00,0.0009
3828.00,0.0009
3827.00,0.0010
3826.00,0.0009
3825.00,0.0009
3824.00,0.0009
3823.00,0.0010
3822.00,0.0010
3821.00,0.0010
3820.00,0.0010
3819.00,0.0010
3818.00,0.0010
3817.00,0.0010
3816.00,0.0010
3815.00,0.0009
3814.00,0.0009
3813.00,0.0009
3812.00,0.0009
3811.00,0.0009
3810.00,0.0008
3809.00,0.0008
3808.00,0.0009
3807.00,0.0009
3806.00,0.0009
3805.00,0.0010
3804.00,0.0010
3803.00,0.0010
3802.00,0.0010
3801.00,0.0010
3800.00,0.0010
3799.00,0.0010
3798.00,0.0010
3797.00,0.0010
3796.00,0.0010
3795.00,0.0010
3794.00,0.0010
3793.00,0.0010
3792.00,0.0010
3791.00,0.0010
3790.00,0.0010
3789.00,0.0010
3788.00,0.0010
3787.00,0.0010
3786.00,0.0010
3785.00,0.0010
3784.00,0.0010
3783.00,0.0010
3782.00,0.0011
3781.00,0.0011
3780.00,0.0011
3779.00,0.0011
3778.00,0.0011
3777.00,0.0010
3776.00,0.0010
3775.00,0.0010
3774.00,0.0010
3773.00,0.0010
3772.00,0.0010
3771.00,0.0009
3770.00,0.0009
3769.00,0.0010
3768.00,0.0010
3767.00,0.0010
3766.00,0.0010
3765.00,0.0010
3764.00,0.0010
3763.00,0.0010
3762.00,0.0011
3761.00,0.0011
3760.00,0.0011
3759.00,0.0011
3758.00,0.0011
3757.00,0.0010
3756.00,0.0010
3755.00,0.0010
3754.00,0.0009
3753.00,0.0009
3752.00,0.0008
3751.00,0.0008
3750.00,0.0008
3749.00,0.0007
3748.00,0.0007
3747.00,0.0007
3746.00,0.0007
3745.00,0.0007
3744.00,0.0007
3743.00,0.0007
3742.00,0.0007
3741.00,0.0008
3740.00,0.0007
3739.00,0.0007
3738.00,0.0006
3737.00,0.0005
3736.00,0.0005
3735.00,0.0006
3734.00,0.0007
3733.00,0.0008
3732.00,0.0008
3731.00,0.0008
3730.00,0.0007
3729.00,0.0007
3728.00,0.0007
3727.00,0.0007
3726.00,0.0007
3725.00,0.0007
3724.00,0.0007
3723.00,0.0007
3722.00,0.0007
3721.00,0.0008
3720.00,0.0008
3719.00,0.0008
3718.00,0.0008
3717.00,0.0008
3716.00,0.0008
3715.00,0.0008
3714.00,0.0007
3713.00,0.0007
3712.00,0.0007
3711.00,0.0007
3710.00,0.0007
3709.00,0.0007
3708.00,0.0007
3707.00,0.0007
3706.00,0.0008
3705.00,0.0008
3704.00,0.0008
3703.00,0.0008
3702.00,0.0008
3701.00,0.0008
3700.00,0.0008
3699.00,0.0007
3698.00,0.0007
3697.00,0.0008
3696.00,0.0007
3695.00,0.0007
3694.00,0.0007
3693.00,0.0007
3692.00,0.0007
3691.00,0.0007
3690.00,0.0007
3689.00,0.0007
3688.00,0.0007
3687.00,0.0007
3686.00,0.0007
3685.00,0.0007
3684.00,0.0007
3683.00,0.0007
3682.00,0.0007
3681.00,0.0008
3680.00,0.0009
3679.00,0.0009
3678.00,0.0009
3677.00,0.0009
3676.00,0.0009
3675.00,0.0008
3674.00,0.0007
3673.00,0.0007
3672.00,0.0007
3671.00,0.0007
3670.00,0.0008
3669.00,0.0008
3668.00,0.0008
3667.00,0.0008
3666.00,0.0008
3665.00,0.0008
3664.00,0.0008
3663.00,0.0007
3662.00,0.0007
3661.00,0.0006
3660.00,0.0006
3659.00,0.0006
3658.00,0.0006
3657.00,0.0006
3656.00,0.0006
3655.00,0.0006
3654.00,0.0006
3653.00,0.0005
3652.00,0.0005
3651.00,0.0005
3650.00,0.0005
3649.00,0.0006
3648.00,0.0007
3647.00,0.0007
3646.00,0.0007
3645.00,0.0008
3644.00,0.0008
3643.00,0.0008
3642.00,0.0008
3641.00,0.0008
3640.00,0.0008
3639.00,0.0009
3638.00,0.0009
3637.00,0.0008
3636.00,0.0008
3635.00,0.0007
3634.00,0.0007
3633.00,0.0006
3632.00,0.0006
3631.00,0.0006
3630.00,0.0006
3629.00,0.0006
3628.00,0.0006
3627.00,0.0006
3626.00,0.0007
3625.00,0.0007
3624.00,0.0007
3623.00,0.0008
3622.00,0.0008
3621.00,0.0008
3620.00,0.0008
3619.00,0.0008
3618.00,0.0008
3617.00,0.0008
3616.00,0.0007
3615.00,0.0007
3614.00,0.0007
3613.00,0.0007
3612.00,0.0007
3611.00,0.0007
3610.00,0.0007
3609.00,0.0008
3608.00,0.0008
3607.00,0.0008
3606.00,0.0009
3605.00,0.0009
3604.00,0.0009
3603.00,0.0010
3602.00,0.0010
3601.00,0.0010
3600.00,0.0009
3599.00,0.0009
3598.00,0.0009
3597.00,0.0009
3596.00,0.0009
3595.00,0.0010
3594.00,0.0009
3593.00,0.0009
3592.00,0.0010
3591.00,0.0010
3590.00,0.0010
3589.00,0.0010
3588.00,0.0011
3587.00,0.0011
3586.00,0.0011
3585.00,0.0011
3584.00,0.0010
3583.00,0.0010
3582.00,0.0010
3581.00,0.0010
3580.00,0.0010
3579.00,0.0010
3578.00,0.0010
3577.00,0.0011
3576.00,0.0011
3575.00,0.0012
3574.00,0.0012
3573.00,0.0012
3572.00,0.0012
3571.00,0.0012
3570.00,0.0011
3569.00,0.0011
3568.00,0.0011
3567.00,0.0011
3566.00,0.0011
3565.00,0.0012
3564.00,0.0013
3563.00,0.0013
3562.00,0.0013
3561.00,0.0013
3560.00,0.0013
3559.00,0.0013
3558.00,0.0013
3557.00,0.0014
3556.00,0.0014
3555.00,0.0014
3554.00,0.0015
3553.00,0.0015
3552.00,0.0015
3551.00,0.0014
3550.00,0.0014
3549.00,0.0014
3548.00,0.0014
3547.00,0.0015
3546.00,0.0015
3545.00,0.0016
3544.00,0.0016
3543.00,0.0017
3542.00,0.0017
3541.00,0.0017
3540.00,0.0017
3539.00,0.0017
3538.00,0.0017
3537.00,0.0017
3536.00,0.0017
3535.00,0.0017
3534.00,0.0017
3533.00,0.0018
3532.00,0.0018
3531.00,0.0018
3530.00,0.0018
3529.00,0.0018
3528.00,0.0017
3527.00,0.0017
3526.00,0.0017
3525.00,0.0017
3524.00,0.0017
3523.00,0.0017
3522.00,0.0017
3521.00,0.0017
3520.00,0.0017
3519.00,0.0018
3518.00,0.0018
3517.00,0.0018
3516.00,0.0019
3515.00,0.0019
3514.00,0.0019
3513.00,0.0019
3512.00,0.0019
3511.00,0.0019
3510.00,0.0019
3509.00,0.0020
3508.00,0.0020
3507.00,0.0020
3506.00,0.0020
3505.00,0.0020
3504.00,0.0020
3503.00,0.0020
3502.00,0.0020
3501.00,0.0020
3500.00,0.0020
3499.00,0.0020
3498.00,0.0021
3497.00,0.0021
3496.00,0.0021
3495.00,0.0021
3494.00,0.0021
3493.00,0.0021
3492.00,0.0021
3491.00,0.0021
3490.00,0.0021
3489.00,0.0021
3488.00,0.0021
3487.00,0.0021
3486.00,0.0021
3485.00,0.0021
3484.00,0.0021
3483.00,0.0021
3482.00,0.0021
3481.00,0.0021
3480.00,0.0022
3479.00,0.0022
3478.00,0.0022
3477.00,0.0022
3476.00,0.0022
3475.00,0.0022
3474.00,0.0022
3473.00,0.0023
3472.00,0.0024
3471.00,0.0024
3470.00,0.0024
3469.00,0.0024
3468.00,0.0024
3467.00,0.0024
3466.00,0.0024
3465.00,0.0024
3464.00,0.0024
3463.00,0.0024
3462.00,0.0024
3461.00,0.0024
3460.00,0.0024
3459.00,0.0024
3458.00,0.0024
3457.00,0.0024
3456.00,0.0023
3455.00,0.0023
3454.00,0.0024
3453.00,0.0024
3452.00,0.0025
3451.00,0.0025
3450.00,0.0026
3449.00,0.0026
3448.00,0.0026
3447.00,0.0026
3446.00,0.0026
3445.00,0.0026
3444.00,0.0026
3443.00,0.0026
3442.00,0.0026
3441.00,0.0026
3440.00,0.0026
3439.00,0.0026
3438.00,0.0026
3437.00,0.0027
3436.00,0.0027
3435.00,0.0028
3434.00,0.0028
3433.00,0.0027
3432.00,0.0027
3431.00,0.0027
3430.00,0.0028
3429.00,0.0028
3428.00,0.0028
3427.00,0.0028
3426.00,0.0028
3425.00,0.0028
3424.00,0.0028
3423.00,0.0029
3422.00,0.0029
3421.00,0.0029
3420.00,0.0029
3419.00,0.0030
3418.00,0.0030
3417.00,0.0030
3416.00,0.0030
3415.00,0.0030
3414.00,0.0030
3413.00,0.0030
3412.00,0.0030
3411.00,0.0030
3410.00,0.0030
3409.00,0.0030
3408.00,0.0030
3407.00,0.0030
3406.00,0.0030
3405.00,0.0030
3404.00,0.0031
3403.00,0.0031
3402.00,0.0031
3401.00,0.0030
3400.00,0.0030
3399.00,0.0030
3398.00,0.0031
3397.00,0.0031
3396.00,0.0031
3395.00,0.0032
3394.00,0.0032
3393.00,0.0032
3392.00,0.0031
3391.00,0.0031
3390.00,0.0031
3389.00,0.0030
3388.00,0.0031
3387.00,0.0031
3386.00,0.0031
3385.00,0.0031
3384.00,0.0031
3383.00,0.0031
3382.00,0.0031
3381.00,0.0031
3380.00,0.0031
3379.00,0.0031
3378.00,0.0032
3377.00,0.0032
3376.00,0.0031
3375.00,0.0031
3374.00,0.0031
3373.00,0.0031
3372.00,0.0031
3371.00,0.0031
3370.00,0.0031
3369.00,0.0032
3368.00,0.0032
3367.00,0.0032
3366.00,0.0032
3365.00,0.0032
3364.00,0.0032
3363.00,0.0032
3362.00,0.0031
3361.00,0.0031
3360.00,0.0031
3359.00,0.0031
3358.00,0.0031
3357.00,0.0031
3356.00,0.0031
3355.00,0.0031
3354.00,0.0031
3353.00,0.0032
3352.00,0.0032
3351.00,0.0032
3350.00,0.0032
3349.00,0.0032
3348.00,0.0032
3347.00,0.0033
3346.00,0.0033
3345.00,0.0033
3344.00,0.0033
3343.00,0.0033
3342.00,0.0032
3341.00,0.0032
3340.00,0.0032
3339.00,0.0032
3338.00,0.0032
3337.00,0.0032
3336.00,0.0032
3335.00,0.0032
3334.00,0.0031
3333.00,0.0031
3332.00,0.0031
3331.00,0.0030
3330.00,0.0030
3329.00,0.0031
3328.00,0.0031
3327.00,0.0031
3326.00,0.0031
3325.00,0.0031
3324.00,0.0031
3323.00,0.0031
3322.00,0.0031
3321.00,0.0031
3320.00,0.0031
3319.00,0.0031
3318.00,0.0030
3317.00,0.0030
3316.00,0.0030
3315.00,0.0030
3314.00,0.0030
3313.00,0.0030
3312.00,0.0029
3311.00,0.0029
3310.00,0.0029
3309.00,0.0030
3308.00,0.0030
3307.00,0.0030
3306.00,0.0030
3305.00,0.0029
3304.00,0.0029
3303.00,0.0030
3302.00,0.0030
3301.00,0.0031
3300.00,0.0031
3299.00,0.0031
3298.00,0.0031
3297.00,0.0031
3296.00,0.0031
3295.00,0.0031
3294.00,0.0031
3293.00,0.0031
3292.00,0.0030
3291.00,0.0030
3290.00,0.0030
3289.00,0.0030
3288.00,0.0030
3287.00,0.0030
3286.00,0.0029
3285.00,0.0029
3284.00,0.0029
3283.00,0.0029
3282.00,0.0029
3281.00,0.0030
3280.00,0.0030
3279.00,0.0030
3278.00,0.0029
3277.00,0.0029
3276.00,0.0029
3275.00,0.0029
3274.00,0.0029
3273.00,0.0029
3272.00,0.0029
3271.00,0.0028
3270.00,0.0028
3269.00,0.0028
3268.00,0.0028
3267.00,0.0028
3266.00,0.0028
3265.00,0.0028
3264.00,0.0028
3263.00,0.0028
3262.00,0.0028
3261.00,0.0028
3260.00,0.0028
3259.00,0.0028
3258.00,0.0028
3257.00,0.0028
3256.00,0.0028
3255.00,0.0028
3254.00,0.0028
3253.00,0.0027
3252.00,0.0027
3251.00,0.0026
3250.00,0.0026
3249.00,0.0026
3248.00,0.0026
3247.00,0.0026
3246.00,0.0026
3245.00,0.0026
3244.00,0.0026
3243.00,0.0027
3242.00,0.0027
3241.00,0.0027
3240.00,0.0027
3239.00,0.0027
3238.00,0.0027
3237.00,0.0027
3236.00,0.0027
3235.00,0.0027
3234.00,0.0027
3233.00,0.0027
3232.00,0.0027
3231.00,0.0027
3230.00,0.0027
3229.00,0.0028
3228.00,0.0028
3227.00,0.0028
3226.00,0.0029
3225.00,0.0029
3224.00,0.0029
3223.00,0.0029
3222.00,0.0029
3221.00,0.0029
3220.00,0.0029
3219.00,0.0030
3218.00,0.0030
3217.00,0.0030
3216.00,0.0031
3215.00,0.0031
3214.00,0.0031
3213.00,0.0032
3212.00,0.0032
3211.00,0.0032
3210.00,0.0032
3209.00,0.0033
3208.00,0.0033
3207.00,0.0032
3206.00,0.0032
3205.00,0.0033
3204.00,0.0033
3203.00,0.0033
3202.00,0.0033
3201.00,0.0033
3200.00,0.0034
3199.00,0.0034
3198.00,0.0034
3197.00,0.0034
3196.00,0.0034
3195.00,0.0033
3194.00,0.0033
3193.00,0.0033
3192.00,0.0033
3191.00,0.0033
3190.00,0.0033
3189.00,0.0033
3188.00,0.0033
3187.00,0.0032
3186.00,0.0032
3185.00,0.0032
3184.00,0.0032
3183.00,0.0031
3182.00,0.0031
3181.00,0.0031
3180.00,0.0031
3179.00,0.0031
3178.00,0.0031
3177.00,0.0031
3176.00,0.0031
3175.00,0.0031
3174.00,0.0030
3173.00,0.0030
3172.00,0.0030
3171.00,0.0030
3170.00,0.0030
3169.00,0.0030
3168.00,0.0030
3167.00,0.0030
3166.00,0.0030
3165.00,0.0030
3164.00,0.0030
3163.00,0.0029
3162.00,0.0029
3161.00,0.0030
3160.00,0.0030
3159.00,0.0030
3158.00,0.0030
3157.00,0.0030
3156.00,0.0030
3155.00,0.0030
3154.00,0.0030
3153.00,0.0031
3152.00,0.0031
3151.00,0.0031
3150.00,0.0031
3149.00,0.0031
3148.00,0.0031
3147.00,0.0031
3146.00,0.0031
3145.00,0.0031
3144.00,0.0030
3143.00,0.0030
3142.00,0.0030
3141.00,0.0030
3140.00,0.0030
3139.00,0.0029
3138.00,0.0029
3137.00,0.0029
3136.00,0.0029
3135.00,0.0029
3134.00,0.0029
3133.00,0.0030
3132.00,0.0030
3131.00,0.0029
3130.00,0.0029
3129.00,0.0028
3128.00,0.0028
3127.00,0.0028
3126.00,0.0028
3125.00,0.0028
3124.00,0.0028
3123.00,0.0027
3122.00,0.0027
3121.00,0.0027
3120.00,0.0026
3119.00,0.0026
3118.00,0.0025
3117.00,0.0024
3116.00,0.0024
3115.00,0.0025
3114.00,0.0025
3113.00,0.0025
3112.00,0.0025
3111.00,0.0025
3110.00,0.0025
3109.00,0.0025
3108.00,0.0025
3107.00,0.0025
3106.00,0.0025
3105.00,0.0025
3104.00,0.0025
3103.00,0.0025
3102.00,0.0025
3101.00,0.0024
3100.00,0.0024
3099.00,0.0024
3098.00,0.0025
3097.00,0.0025
3096.00,0.0025
3095.00,0.0025
3094.00,0.0025
3093.00,0.0024
3092.00,0.0024
3091.00,0.0024
3090.00,0.0024
3089.00,0.0024
3088.00,0.0024
3087.00,0.0024
3086.00,0.0024
3085.00,0.0024
3084.00,0.0024
3083.00,0.0025
3082.00,0.0025
3081.00,0.0025
3080.00,0.0025
3079.00,0.0025
3078.00,0.0025
3077.00,0.0026
3076.00,0.0026
3075.00,0.0026
3074.00,0.0027
3073.00,0.0026
3072.00,0.0026
3071.00,0.0026
3070.00,0.0027
3069.00,0.0027
3068.00,0.0027
3067.00,0.0027
3066.00,0.0027
3065.00,0.0027
3064.00,0.0028
3063.00,0.0028
3062.00,0.0028
3061.00,0.0027
3060.00,0.0028
3059.00,0.0028
3058.00,0.0028
3057.00,0.0028
3056.00,0.0028
3055.00,0.0029
3054.00,0.0029
3053.00,0.0029
3052.00,0.0029
3051.00,0.0029
3050.00,0.0029
3049.00,0.0029
3048.00,0.0029
3047.00,0.0030
3046.00,0.0030
3045.00,0.0030
3044.00,0.0031
3043.00,0.0031
3042.00,0.0031
3041.00,0.0031
3040.00,0.0032
3039.00,0.0032
3038.00,0.0033
3037.00,0.0033
3036.00,0.0033
3035.00,0.0033
3034.00,0.0034
3033.00,0.0034
3032.00,0.0034
3031.00,0.0034
3030.00,0.0035
3029.00,0.0035
3028.00,0.0036
3027.00,0.0036
3026.00,0.0037
3025.00,0.0038
3024.00,0.0039
3023.00,0.0040
3022.00,0.0041
3021.00,0.0041
3020.00,0.0042
3019.00,0.0042
3018.00,0.0043
3017.00,0.0044
3016.00,0.0045
3015.00,0.0046
3014.00,0.0047
3013.00,0.0048
3012.00,0.0049
3011.00,0.0051
3010.00,0.0052
3009.00,0.0054
3008.00,0.0055
3007.00,0.0057
3006.00,0.0058
3005.00,0.0060
3004.00,0.0061
3003.00,0.0063
3002.00,0.0065
3001.00,0.0068
3000.00,0.0070
2999.00,0.0073
2998.00,0.0076
2997.00,0.0079
2996.00,0.0083
2995.00,0.0087
2994.00,0.0091
2993.00,0.0096
2992.00,0.0101
2991.00,0.0106
2990.00,0.0113
2989.00,0.0119
2988.00,0.0127
2987.00,0.0136
2986.00,0.0145
2985.00,0.0156
2984.00,0.0168
2983.00,0.0182
2982.00,0.0197
2981.00,0.0215
2980.00,0.0235
2979.00,0.0257
2978.00,0.0283
2977.00,0.0313
2976.00,0.0347
2975.00,0.0386
2974.00,0.0430
2973.00,0.0481
2972.00,0.0537
2971.00,0.0600
2970.00,0.0670
2969.00,0.0747
2968.00,0.0830
2967.00,0.0917
2966.00,0.1008
2965.00,0.1098
2964.00,0.1184
2963.00,0.1261
2962.00,0.1325
2961.00,0.1375
2960.00,0.1412
2959.00,0.1444
2958.00,0.1476
2957.00,0.1518
2956.00,0.1573
2955.00,0.1646
2954.00,0.1732
2953.00,0.1824
2952.00,0.1909
2951.00,0.1970
2950.00,0.1994
2949.00,0.1972
2948.00,0.1902
2947.00,0.1792
2946.00,0.1658
2945.00,0.1516
2944.00,0.1381
2943.00,0.1265
2942.00,0.1173
2941.00,0.1108
2940.00,0.1069
2939.00,0.1054
2938.00,0.1060
2937.00,0.1085
2936.00,0.1127
2935.00,0.1185
2934.00,0.1258
2933.00,0.1344
2932.00,0.1444
2931.00,0.1554
2930.00,0.1671
2929.00,0.1794
2928.00,0.1918
2927.00,0.2041
2926.00,0.2162
2925.00,0.2281
2924.00,0.2400
2923.00,0.2521
2922.00,0.2642
2921.00,0.2760
2920.00,0.2866
2919.00,0.2946
2918.00,0.2987
2917.00,0.2979
2916.00,0.2921
2915.00,0.2823
2914.00,0.2699
2913.00,0.2566
2912.00,0.2438
2911.00,0.2321
2910.00,0.2219
2909.00,0.2130
2908.00,0.2050
2907.00,0.1974
2906.00,0.1900
2905.00,0.1826
2904.00,0.1752
2903.00,0.1679
2902.00,0.1607
2901.00,0.1537
2900.00,0.1470
2899.00,0.1407
2898.00,0.1347
2897.00,0.1293
2896.00,0.1245
2895.00,0.1204
2894.00,0.1169
2893.00,0.1141
2892.00,0.1120
2891.00,0.1105
2890.00,0.1095
2889.00,0.1090
2888.00,0.1088
2887.00,0.1090
2886.00,0.1095
2885.00,0.1103
2884.00,0.1116
2883.00,0.1134
2882.00,0.1155
2881.00,0.1178
2880.00,0.1200
2879.00,0.1216
2878.00,0.1225
2877.00,0.1225
2876.00,0.1219
2875.00,0.1210
2874.00,0.1204
2873.00,0.1204
2872.00,0.1214
2871.00,0.1231
2870.00,0.1253
2869.00,0.1275
2868.00,0.1288
2867.00,0.1285
2866.00,0.1258
2865.00,0.1206
2864.00,0.1133
2863.00,0.1047
2862.00,0.0960
2861.00,0.0883
2860.00,0.0822
2859.00,0.0777
2858.00,0.0750
2857.00,0.0737
2856.00,0.0737
2855.00,0.0746
2854.00,0.0764
2853.00,0.0786
2852.00,0.0812
2851.00,0.0836
2850.00,0.0858
2849.00,0.0876
2848.00,0.0893
2847.00,0.0913
2846.00,0.0941
2845.00,0.0979
2844.00,0.1028
2843.00,0.1085
2842.00,0.1144
2841.00,0.1197
2840.00,0.1237
2839.00,0.1254
2838.00,0.1244
2837.00,0.1203
2836.00,0.1133
2835.00,0.1040
2834.00,0.0934
2833.00,0.0826
2832.00,0.0723
2831.00,0.0633
2830.00,0.0557
2829.00,0.0494
2828.00,0.0443
2827.00,0.0402
2826.00,0.0369
2825.00,0.0341
2824.00,0.0317
2823.00,0.0297
2822.00,0.0280
2821.00,0.0265
2820.00,0.0252
2819.00,0.0241
2818.00,0.0231
2817.00,0.0222
2816.00,0.0215
2815.00,0.0208
2814.00,0.0201
2813.00,0.0196
2812.00,0.0190
2811.00,0.0185
2810.00,0.0179
2809.00,0.0173
2808.00,0.0167
2807.00,0.0160
2806.00,0.0154
2805.00,0.0147
2804.00,0.0140
2803.00,0.0134
2802.00,0.0128
2801.00,0.0124
2800.00,0.0120
2799.00,0.0117
2798.00,0.0115
2797.00,0.0113
2796.00,0.0110
2795.00,0.0108
2794.00,0.0105
2793.00,0.0102
2792.00,0.0099
2791.00,0.0096
2790.00,0.0092
2789.00,0.0089
2788.00,0.0086
2787.00,0.0083
2786.00,0.0080
2785.00,0.0078
2784.00,0.0075
2783.00,0.0073
2782.00,0.0071
2781.00,0.0069
2780.00,0.0067
2779.00,0.0066
2778.00,0.0064
2777.00,0.0063
2776.00,0.0061
2775.00,0.0060
2774.00,0.0060
2773.00,0.0059
2772.00,0.0059
2771.00,0.0058
2770.00,0.0058
2769.00,0.0057
2768.00,0.0057
2767.00,0.0057
2766.00,0.0056
2765.00,0.0056
2764.00,0.0056
2763.00,0.0055
2762.00,0.0054
2761.00,0.0054
2760.00,0.0054
2759.00,0.0054
2758.00,0.0054
2757.00,0.0054
2756.00,0.0054
2755.00,0.0054
2754.00,0.0054
2753.00,0.0053
2752.00,0.0053
2751.00,0.0052
2750.00,0.0052
2749.00,0.0053
2748.00,0.0053
2747.00,0.0053
2746.00,0.0054
2745.00,0.0054
2744.00,0.0055
2743.00,0.0055
2742.00,0.0056
2741.00,0.0057
2740.00,0.0059
2739.00,0.0060
2738.00,0.0061
2737.00,0.0062
2736.00,0.0064
2735.00,0.0065
2734.00,0.0067
2733.00,0.0069
2732.00,0.0070
2731.00,0.0072
2730.00,0.0074
2729.00,0.0077
2728.00,0.0080
2727.00,0.0083
2726.00,0.0086
2725.00,0.0088
2724.00,0.0089
2723.00,0.0090
2722.00,0.0089
2721.00,0.0088
2720.00,0.0085
2719.00,0.0082
2718.00,0.0078
2717.00,0.0075
2716.00,0.0071
2715.00,0.0068
2714.00,0.0066
2713.00,0.0064
2712.00,0.0062
2711.00,0.0060
2710.00,0.0058
2709.00,0.0057
2708.00,0.0056
2707.00,0.0054
2706.00,0.0053
2705.00,0.0052
2704.00,0.0051
2703.00,0.0050
2702.00,0.0049
2701.00,0.0048
2700.00,0.0047
2699.00,0.0047
2698.00,0.0046
2697.00,0.0046
2696.00,0.0046
2695.00,0.0046
2694.00,0.0046
2693.00,0.0046
2692.00,0.0046
2691.00,0.0046
2690.00,0.0046
2689.00,0.0047
2688.00,0.0047
2687.00,0.0046
2686.00,0.0046
2685.00,0.0046
2684.00,0.0046
2683.00,0.0046
2682.00,0.0046
2681.00,0.0046
2680.00,0.0047
2679.00,0.0047
2678.00,0.0047
2677.00,0.0047
2676.00,0.0047
2675.00,0.0047
2674.00,0.0047
2673.00,0.0047
2672.00,0.0046
2671.00,0.0046
2670.00,0.0046
2669.00,0.0046
2668.00,0.0046
2667.00,0.0047
2666.00,0.0047
2665.00,0.0048
2664.00,0.0048
2663.00,0.0049
2662.00,0.0049
2661.00,0.0049
2660.00,0.0050
2659.00,0.0050
2658.00,0.0049
2657.00,0.0049
2656.00,0.0049
2655.00,0.0048
2654.00,0.0047
2653.00,0.0047
2652.00,0.0046
2651.00,0.0045
2650.00,0.0045
2649.00,0.0045
2648.00,0.0045
2647.00,0.0044
2646.00,0.0044
2645.00,0.0044
2644.00,0.0044
2643.00,0.0043
2642.00,0.0042
2641.00,0.0042
2640.00,0.0041
2639.00,0.0041
2638.00,0.0041
2637.00,0.0041
2636.00,0.0040
2635.00,0.0040
2634.00,0.0041
2633.00,0.0041
2632.00,0.0040
2631.00,0.0040
2630.00,0.0040
2629.00,0.0040
2628.00,0.0041
2627.00,0.0041
2626.00,0.0041
2625.00,0.0042
2624.00,0.0042
2623.00,0.0042
2622.00,0.0042
2621.00,0.0042
2620.00,0.0042
2619.00,0.0042
2618.00,0.0042
2617.00,0.0042
2616.00,0.0042
2615.00,0.0043
2614.00,0.0042
2613.00,0.0042
2612.00,0.0041
2611.00,0.0039
2610.00,0.0038
2609.00,0.0038
2608.00,0.0038
2607.00,0.0038
2606.00,0.0038
2605.00,0.0037
2604.00,0.0037
2603.00,0.0036
2602.00,0.0034
2601.00,0.0033
2600.00,0.0033
2599.00,0.0032
2598.00,0.0033
2597.00,0.0033
2596.00,0.0034
2595.00,0.0034
2594.00,0.0034
2593.00,0.0035
2592.00,0.0035
2591.00,0.0035
2590.00,0.0036
2589.00,0.0037
2588.00,0.0038
2587.00,0.0040
2586.00,0.0041
2585.00,0.0042
2584.00,0.0042
2583.00,0.0042
2582.00,0.0042
2581.00,0.0041
2580.00,0.0041
2579.00,0.0040
2578.00,0.0039
2577.00,0.0038
2576.00,0.0037
2575.00,0.0036
2574.00,0.0035
2573.00,0.0033
2572.00,0.0032
2571.00,0.0030
2570.00,0.0029
2569.00,0.0029
2568.00,0.0028
2567.00,0.0028
2566.00,0.0027
2565.00,0.0026
2564.00,0.0026
2563.00,0.0025
2562.00,0.0025
2561.00,0.0025
2560.00,0.0024
2559.00,0.0024
2558.00,0.0024
2557.00,0.0024
2556.00,0.0025
2555.00,0.0025
2554.00,0.0025
2553.00,0.0025
2552.00,0.0025
2551.00,0.0025
2550.00,0.0024
2549.00,0.0023
2548.00,0.0022
2547.00,0.0021
2546.00,0.0020
2545.00,0.0020
2544.00,0.0020
2543.00,0.0020
2542.00,0.0020
2541.00,0.0019
2540.00,0.0019
2539.00,0.0018
2538.00,0.0017
2537.00,0.0017
2536.00,0.0016
2535.00,0.0015
2534.00,0.0015
2533.00,0.0015
2532.00,0.0016
2531.00,0.0016
2530.00,0.0017
2529.00,0.0017
2528.00,0.0017
2527.00,0.0016
2526.00,0.0016
2525.00,0.0015
2524.00,0.0015
2523.00,0.0015
2522.00,0.0015
2521.00,0.0015
2520.00,0.0015
2519.00,0.0015
2518.00,0.0016
2517.00,0.0015
2516.00,0.0015
2515.00,0.0015
2514.00,0.0014
2513.00,0.0013
2512.00,0.0012
2511.00,0.0012
2510.00,0.0013
2509.00,0.0013
2508.00,0.0014
2507.00,0.0014
2506.00,0.0013
2505.00,0.0013
2504.00,0.0012
2503.00,0.0012
2502.00,0.0011
2501.00,0.0011
2500.00,0.0011
2499.00,0.0011
2498.00,0.0011
2497.00,0.0011
2496.00,0.0012
2495.00,0.0012
2494.00,0.0012
2493.00,0.0012
2492.00,0.0012
2491.00,0.0011
2490.00,0.0011
2489.00,0.0011
2488.00,0.0011
2487.00,0.0012
2486.00,0.0012
2485.00,0.0012
2484.00,0.0012
2483.00,0.0012
2482.00,0.0012
2481.00,0.0011
2480.00,0.0011
2479.00,0.0011
2478.00,0.0011
2477.00,0.0011
2476.00,0.0012
2475.00,0.0011
2474.00,0.0011
2473.00,0.0010
2472.00,0.0010
2471.00,0.0010
2470.00,0.0010
2469.00,0.0010
2468.00,0.0011
2467.00,0.0011
2466.00,0.0011
2465.00,0.0010
2464.00,0.0010
2463.00,0.0009
2462.00,0.0010
2461.00,0.0010
2460.00,0.0011
2459.00,0.0012
2458.00,0.0012
2457.00,0.0012
2456.00,0.0012
2455.00,0.0012
2454.00,0.0011
2453.00,0.0012
2452.00,0.0013
2451.00,0.0013
2450.00,0.0014
2449.00,0.0014
2448.00,0.0014
2447.00,0.0014
2446.00,0.0013
2445.00,0.0013
2444.00,0.0013
2443.00,0.0013
2442.00,0.0013
2441.00,0.0012
2440.00,0.0012
2439.00,0.0012
2438.00,0.0012
2437.00,0.0012
2436.00,0.0012
2435.00,0.0012
2434.00,0.0012
2433.00,0.0012
2432.00,0.0013
2431.00,0.0014
2430.00,0.0014
2429.00,0.0014
2428.00,0.0014
2427.00,0.0013
2426.00,0.0012
2425.00,0.0011
2424.00,0.0012
2423.00,0.0012
2422.00,0.0013
2421.00,0.0013
2420.00,0.0012
2419.00,0.0012
2418.00,0.0011
2417.00,0.0011
2416.00,0.0011
2415.00,0.0011
2414.00,0.0012
2413.00,0.0012
2412.00,0.0011
2411.00,0.0011
2410.00,0.0011
2409.00,0.0011
2408.00,0.0011
2407.00,0.0011
2406.00,0.0010
2405.00,0.0009
2404.00,0.0009
2403.00,0.0009
2402.00,0.0009
2401.00,0.0009
2400.00,0.0009
2399.00,0.0009
2398.00,0.0009
2397.00,0.0010
2396.00,0.0010
2395.00,0.0010
2394.00,0.0010
2393.00,0.0010
2392.00,0.0010
2391.00,0.0009
2390.00,0.0008
2389.00,0.0008
2388.00,0.0008
2387.00,0.0007
2386.00,0.0007
2385.00,0.0006
2384.00,0.0005
2383.00,0.0004
2382.00,0.0003
2381.00,0.0002
2380.00,0.0001
2379.00,0.0001
2378.00,0.0001
2377.00,0.0001
2376.00,0.0001
2375.00,0.0001
2374.00,0.0001
2373.00,0.0001
2372.00,0.0002
2371.00,0.0003
2370.00,0.0003
2369.00,0.0004
2368.00,0.0003
2367.00,0.0002
2366.00,0.0002
2365.00,0.0002
2364.00,0.0002
2363.00,0.0003
2362.00,0.0004
2361.00,0.0005
2360.00,0.0006
2359.00,0.0007
2358.00,0.0007
2357.00,0.0008
2356.00,0.0008
2355.00,0.0007
2354.00,0.0007
2353.00,0.0006
2352.00,0.0005
2351.00,0.0005
2350.00,0.0006
2349.00,0.0006
2348.00,0.0007
2347.00,0.0007
2346.00,0.0007
2345.00,0.0007
2344.00,0.0007
2343.00,0.0008
2342.00,0.0008
2341.00,0.0009
2340.00,0.0009
2339.00,0.0009
2338.00,0.0008
2337.00,0.0008
2336.00,0.0007
2335.00,0.0007
2334.00,0.0007
2333.00,0.0007
2332.00,0.0007
2331.00,0.0007
2330.00,0.0006
2329.00,0.0006
2328.00,0.0008
2327.00,0.0010
2326.00,0.0014
2325.00,0.0018
2324.00,0.0020
2323.00,0.0019
2322.00,0.0016
2321.00,0.0013
2320.00,0.0011
2319.00,0.0010
2318.00,0.0009
2317.00,0.0009
2316.00,0.0009
2315.00,0.0009
2314.00,0.0008
2313.00,0.0007
2312.00,0.0006
2311.00,0.0006
2310.00,0.0005
2309.00,0.0005
2308.00,0.0005
2307.00,0.0005
2306.00,0.0005
2305.00,0.0006
2304.00,0.0007
2303.00,0.0008
2302.00,0.0008
2301.00,0.0009
2300.00,0.0010
2299.00,0.0011
2298.00,0.0012
2297.00,0.0013
2296.00,0.0013
2295.00,0.0014
2294.00,0.0014
2293.00,0.0015
2292.00,0.0017
2291.00,0.0018
2290.00,0.0018
2289.00,0.0019
2288.00,0.0019
2287.00,0.0019
2286.00,0.0019
2285.00,0.0020
2284.00,0.0019
2283.00,0.0018
2282.00,0.0016
2281.00,0.0015
2280.00,0.0015
2279.00,0.0015
2278.00,0.0016
2277.00,0.0016
2276.00,0.0015
2275.00,0.0014
2274.00,0.0013
2273.00,0.0013
2272.00,0.0014
2271.00,0.0015
2270.00,0.0016
2269.00,0.0016
2268.00,0.0016
2267.00,0.0015
2266.00,0.0015
2265.00,0.0014
2264.00,0.0014
2263.00,0.0014
2262.00,0.0013
2261.00,0.0013
2260.00,0.0013
2259.00,0.0013
2258.00,0.0013
2257.00,0.0013
2256.00,0.0013
2255.00,0.0012
2254.00,0.0011
2253.00,0.0010
2252.00,0.0010
2251.00,0.0009
2250.00,0.0009
2249.00,0.0009
2248.00,0.0009
2247.00,0.0009
2246.00,0.0009
2245.00,0.0010
2244.00,0.0010
2243.00,0.0011
2242.00,0.0011
2241.00,0.0011
2240.00,0.0010
2239.00,0.0010
2238.00,0.0009
2237.00,0.0009
2236.00,0.0009
2235.00,0.0010
2234.00,0.0011
2233.00,0.0012
2232.00,0.0012
2231.00,0.0011
2230.00,0.0010
2229.00,0.0008
2228.00,0.0006
2227.00,0.0006
2226.00,0.0006
2225.00,0.0007
2224.00,0.0007
2223.00,0.0006
2222.00,0.0003
2221.00,0.0002
2220.00,0.0002
2219.00,0.0004
2218.00,0.0008
2217.00,0.0011
2216.00,0.0011
2215.00,0.0010
2214.00,0.0008
2213.00,0.0006
2212.00,0.0007
2211.00,0.0007
2210.00,0.0007
2209.00,0.0007
2208.00,0.0007
2207.00,0.0007
2206.00,0.0008
2205.00,0.0008
2204.00,0.0008
2203.00,0.0007
2202.00,0.0006
2201.00,0.0005
2200.00,0.0006
2199.00,0.0006
2198.00,0.0006
2197.00,0.0006
2196.00,0.0008
2195.00,0.0009
2194.00,0.0010
2193.00,0.0010
2192.00,0.0011
2191.00,0.0012
2190.00,0.0014
2189.00,0.0014
2188.00,0.0015
2187.00,0.0015
2186.00,0.0016
2185.00,0.0015
2184.00,0.0014
2183.00,0.0012
2182.00,0.0010
2181.00,0.0010
2180.00,0.0010
2179.00,0.0010
2178.00,0.0010
2177.00,0.0009
2176.00,0.0006
2175.00,0.0004
2174.00,0.0005
2173.00,0.0007
2172.00,0.0010
2171.00,0.0011
2170.00,0.0012
2169.00,0.0011
2168.00,0.0009
2167.00,0.0006
2166.00,0.0005
2165.00,0.0005
2164.00,0.0007
2163.00,0.0011
2162.00,0.0014
2161.00,0.0014
2160.00,0.0005
2159.00,-0.0010
2158.00,-0.0025
2157.00,-0.0032
2156.00,-0.0033
2155.00,-0.0029
2154.00,-0.0024
2153.00,-0.0020
2152.00,-0.0017
2151.00,-0.0016
2150.00,-0.0014
2149.00,-0.0012
2148.00,-0.0010
2147.00,-0.0009
2146.00,-0.0008
2145.00,-0.0007
2144.00,-0.0007
2143.00,-0.0007
2142.00,-0.0007
2141.00,-0.0008
2140.00,-0.0008
2139.00,-0.0009
2138.00,-0.0009
2137.00,-0.0009
2136.00,-0.0011
2135.00,-0.0014
2134.00,-0.0017
2133.00,-0.0019
2132.00,-0.0019
2131.00,-0.0017
2130.00,-0.0014
2129.00,-0.0011
2128.00,-0.0008
2127.00,-0.0007
2126.00,-0.0005
2125.00,-0.0005
2124.00,-0.0004
2123.00,-0.0002
2122.00,-0.0002
2121.00,-0.0001
2120.00,-0.0001
2119.00,-0.0000
2118.00,0.0001
2117.00,0.0003
2116.00,0.0004
2115.00,0.0004
2114.00,0.0004
2113.00,0.0003
2112.00,0.0003
2111.00,0.0004
2110.00,0.0004
2109.00,0.0003
2108.00,0.0002
2107.00,0.0000
2106.00,-0.0001
2105.00,-0.0002
2104.00,-0.0001
2103.00,0.0001
2102.00,0.0003
2101.00,0.0004
2100.00,0.0004
2099.00,0.0004
2098.00,0.0003
2097.00,0.0002
2096.00,0.0001
2095.00,-0.0001
2094.00,-0.0002
2093.00,-0.0003
2092.00,-0.0002
2091.00,-0.0001
2090.00,0.0000
2089.00,0.0002
2088.00,0.0003
2087.00,0.0004
2086.00,0.0003
2085.00,0.0002
2084.00,0.0001
2083.00,0.0001
2082.00,-0.0000
2081.00,-0.0001
2080.00,-0.0001
2079.00,-0.0001
2078.00,-0.0000
2077.00,0.0001
2076.00,0.0002
2075.00,0.0002
2074.00,0.0003
2073.00,0.0004
2072.00,0.0004
2071.00,0.0004
2070.00,0.0004
2069.00,0.0004
2068.00,0.0003
2067.00,0.0002
2066.00,-0.0000
2065.00,-0.0002
2064.00,-0.0002
2063.00,-0.0001
2062.00,0.0001
2061.00,0.0002
2060.00,0.0004
2059.00,0.0004
2058.00,0.0004
2057.00,0.0003
2056.00,0.0001
2055.00,0.0001
2054.00,0.0002
2053.00,0.0006
2052.00,0.0012
2051.00,0.0014
2050.00,0.0012
2049.00,0.0006
2048.00,0.0000
2047.00,-0.0003
2046.00,-0.0004
2045.00,-0.0001
2044.00,0.0004
2043.00,0.0008
2042.00,0.0009
2041.00,0.0008
2040.00,0.0006
2039.00,0.0004
2038.00,0.0004
2037.00,0.0002
2036.00,-0.0002
2035.00,-0.0007
2034.00,-0.0012
2033.00,-0.0014
2032.00,-0.0014
2031.00,-0.0013
2030.00,-0.0012
2029.00,-0.0011
2028.00,-0.0010
2027.00,-0.0010
2026.00,-0.0009
2025.00,-0.0007
2024.00,-0.0004
2023.00,-0.0001
2022.00,0.0000
2021.00,-0.0001
2020.00,-0.0003
2019.00,-0.0006
2018.00,-0.0008
2017.00,-0.0009
2016.00,-0.0009
2015.00,-0.0009
2014.00,-0.0010
2013.00,-0.0009
2012.00,-0.0007
2011.00,-0.0006
2010.00,-0.0007
2009.00,-0.0010
2008.00,-0.0013
2007.00,-0.0016
2006.00,-0.0016
2005.00,-0.0015
2004.00,-0.0016
2003.00,-0.0017
2002.00,-0.0018
2001.00,-0.0018
2000.00,-0.0017
1999.00,-0.0015
1998.00,-0.0014
1997.00,-0.0012
1996.00,-0.0010
1995.00,-0.0007
1994.00,-0.0005
1993.00,-0.0003
1992.00,-0.0002
1991.00,-0.0003
1990.00,-0.0005
1989.00,-0.0005
1988.00,-0.0003
1987.00,-0.0000
1986.00,0.0003
1985.00,0.0004
1984.00,0.0005
1983.00,0.0006
1982.00,0.0008
1981.00,0.0011
1980.00,0.0012
1979.00,0.0010
1978.00,0.0003
1977.00,-0.0006
1976.00,-0.0014
1975.00,-0.0018
1974.00,-0.0019
1973.00,-0.0018
1972.00,-0.0018
1971.00,-0.0018
1970.00,-0.0018
1969.00,-0.0019
1968.00,-0.0018
1967.00,-0.0016
1966.00,-0.0014
1965.00,-0.0013
1964.00,-0.0013
1963.00,-0.0016
1962.00,-0.0018
1961.00,-0.0019
1960.00,-0.0019
1959.00,-0.0019
1958.00,-0.0019
1957.00,-0.0020
1956.00,-0.0020
1955.00,-0.0020
1954.00,-0.0020
1953.00,-0.0019
1952.00,-0.0018
1951.00,-0.0017
1950.00,-0.0015
1949.00,-0.0013
1948.00,-0.0011
1947.00,-0.0011
1946.00,-0.0011
1945.00,-0.0012
1944.00,-0.0013
1943.00,-0.0013
1942.00,-0.0013
1941.00,-0.0012
1940.00,-0.0010
1939.00,-0.0008
1938.00,-0.0007
1937.00,-0.0008
1936.00,-0.0009
1935.00,-0.0011
1934.00,-0.0012
1933.00,-0.0012
1932.00,-0.0011
1931.00,-0.0010
1930.00,-0.0009
1929.00,-0.0008
1928.00,-0.0007
1927.00,-0.0006
1926.00,-0.0006
1925.00,-0.0006
1924.00,-0.0007
1923.00,-0.0007
1922.00,-0.0007
1921.00,-0.0006
1920.00,-0.0006
1919.00,-0.0006
1918.00,-0.0005
1917.00,-0.0005
1916.00,-0.0005
1915.00,-0.0004
1914.00,-0.0004
1913.00,-0.0004
1912.00,-0.0003
1911.00,-0.0002
1910.00,-0.0002
1909.00,-0.0002
1908.00,-0.0001
1907.00,-0.0001
1906.00,-0.0001
1905.00,-0.0001
1904.00,-0.0001
1903.00,-0.0001
1902.00,-0.0000
1901.00,0.0000
1900.00,0.0000
1899.00,0.0000
1898.00,0.0000
1897.00,0.0001
1896.00,0.0001
1895.00,0.0001
1894.00,0.0000
1893.00,-0.0000
1892.00,-0.0001
1891.00,-0.0002
1890.00,-0.0002
1889.00,-0.0002
1888.00,-0.0002
1887.00,-0.0002
1886.00,-0.0001
1885.00,-0.0000
1884.00,0.0001
1883.00,0.0002
1882.00,0.0002
1881.00,0.0002
1880.00,0.0002
1879.00,0.0001
1878.00,0.0001
1877.00,0.0000
1876.00,0.0001
1875.00,0.0001
1874.00,0.0000
1873.00,0.0000
1872.00,-0.0000
1871.00,-0.0001
1870.00,-0.0001
1869.00,-0.0000
1868.00,0.0001
1867.00,0.0002
1866.00,0.0002
1865.00,0.0001
1864.00,0.0002
1863.00,0.0001
1862.00,0.0001
1861.00,0.0001
1860.00,0.0000
1859.00,0.0000
1858.00,0.0001
1857.00,0.0001
1856.00,0.0001
1855.00,0.0001
1854.00,0.0001
1853.00,0.0001
1852.00,0.0001
1851.00,0.0002
1850.00,0.0003
1849.00,0.0003
1848.00,0.0003
1847.00,0.0002
1846.00,0.0001
1845.00,0.0000
1844.00,0.0001
1843.00,0.0002
1842.00,0.0003
1841.00,0.0004
1840.00,0.0004
1839.00,0.0004
1838.00,0.0004
1837.00,0.0004
1836.00,0.0004
1835.00,0.0004
1834.00,0.0004
1833.00,0.0004
1832.00,0.0004
1831.00,0.0005
1830.00,0.0005
1829.00,0.0006
1828.00,0.0006
1827.00,0.0006
1826.00,0.0006
1825.00,0.0006
1824.00,0.0005
1823.00,0.0004
1822.00,0.0003
1821.00,0.0002
1820.00,0.0002
1819.00,0.0001
1818.00,-0.0000
1817.00,-0.0000
1816.00,-0.0000
1815.00,0.0000
1814.00,0.0001
1813.00,0.0001
1812.00,0.0002
1811.00,0.0002
1810.00,0.0003
1809.00,0.0004
1808.00,0.0005
1807.00,0.0005
1806.00,0.0005
1805.00,0.0005
1804.00,0.0005
1803.00,0.0005
1802.00,0.0006
1801.00,0.0006
1800.00,0.0006
1799.00,0.0005
1798.00,0.0004
1797.00,0.0004
1796.00,0.0005
1795.00,0.0006
1794.00,0.0006
1793.00,0.0006
1792.00,0.0006
1791.00,0.0007
1790.00,0.0007
1789.00,0.0007
1788.00,0.0007
1787.00,0.0008
1786.00,0.0008
1785.00,0.0009
1784.00,0.0009
1783.00,0.0008
1782.00,0.0008
1781.00,0.0008
1780.00,0.0008
1779.00,0.0007
1778.00,0.0006
1777.00,0.0006
1776.00,0.0005
1775.00,0.0006
1774.00,0.0006
1773.00,0.0006
1772.00,0.0007
1771.00,0.0008
1770.00,0.0009
1769.00,0.0010
1768.00,0.0011
1767.00,0.0011
1766.00,0.0011
1765.00,0.0010
1764.00,0.0010
1763.00,0.0010
1762.00,0.0011
1761.00,0.0011
1760.00,0.0011
1759.00,0.0011
1758.00,0.0011
1757.00,0.0012
1756.00,0.0012
1755.00,0.0013
1754.00,0.0013
1753.00,0.0013
1752.00,0.0013
1751.00,0.0013
1750.00,0.0013
1749.00,0.0014
1748.00,0.0014
1747.00,0.0014
1746.00,0.0014
1745.00,0.0014
1744.00,0.0015
1743.00,0.0015
1742.00,0.0015
1741.00,0.0016
1740.00,0.0016
1739.00,0.0016
1738.00,0.0016
1737.00,0.0017
1736.00,0.0017
1735.00,0.0017
1734.00,0.0017
1733.00,0.0017
1732.00,0.0018
1731.00,0.0018
1730.00,0.0018
1729.00,0.0019
1728.00,0.0019
1727.00,0.0019
1726.00,0.0019
1725.00,0.0018
1724.00,0.0018
1723.00,0.0018
1722.00,0.0018
1721.00,0.0018
1720.00,0.0018
1719.00,0.0018
1718.00,0.0019
1717.00,0.0020
1716.00,0.0020
1715.00,0.0020
1714.00,0.0019
1713.00,0.0020
1712.00,0.0020
1711.00,0.0020
1710.00,0.0020
1709.00,0.0021
1708.00,0.0021
1707.00,0.0022
1706.00,0.0022
1705.00,0.0023
1704.00,0.0024
1703.00,0.0024
1702.00,0.0024
1701.00,0.0024
1700.00,0.0024
1699.00,0.0024
1698.00,0.0024
1697.00,0.0025
1696.00,0.0026
1695.00,0.0027
1694.00,0.0027
1693.00,0.0027
1692.00,0.0027
1691.00,0.0028
1690.00,0.0028
1689.00,0.0028
1688.00,0.0028
1687.00,0.0028
1686.00,0.0028
1685.00,0.0028
1684.00,0.0029
1683.00,0.0031
1682.00,0.0031
1681.00,0.0032
1680.00,0.0033
1679.00,0.0034
1678.00,0.0034
1677.00,0.0035
1676.00,0.0035
1675.00,0.0035
1674.00,0.0035
1673.00,0.0035
1672.00,0.0034
1671.00,0.0034
1670.00,0.0035
1669.00,0.0036
1668.00,0.0037
1667.00,0.0038
1666.00,0.0038
1665.00,0.0038
1664.00,0.0039
1663.00,0.0039
1662.00,0.0039
1661.00,0.0039
1660.00,0.0039
1659.00,0.0040
1658.00,0.0040
1657.00,0.0040
1656.00,0.0041
1655.00,0.0041
1654.00,0.0040
1653.00,0.0041
1652.00,0.0043
1651.00,0.0043
1650.00,0.0043
1649.00,0.0044
1648.00,0.0045
1647.00,0.0046
1646.00,0.0046
1645.00,0.0046
1644.00,0.0045
1643.00,0.0045
1642.00,0.0045
1641.00,0.0045
1640.00,0.0046
1639.00,0.0046
1638.00,0.0046
1637.00,0.0047
1636.00,0.0047
1635.00,0.0047
1634.00,0.0047
1633.00,0.0047
1632.00,0.0048
1631.00,0.0048
1630.00,0.0048
1629.00,0.0048
1628.00,0.0048
1627.00,0.0048
1626.00,0.0048
1625.00,0.0047
1624.00,0.0047
1623.00,0.0047
1622.00,0.0046
1621.00,0.0046
1620.00,0.0046
1619.00,0.0046
1618.00,0.0046
1617.00,0.0046
1616.00,0.0046
1615.00,0.0045
1614.00,0.0044
1613.00,0.0044
1612.00,0.0044
1611.00,0.0045
1610.00,0.0045
1609.00,0.0045
1608.00,0.0045
1607.00,0.0045
1606.00,0.0045
1605.00,0.0045
1604.00,0.0045
1603.00,0.0045
1602.00,0.0045
1601.00,0.0045
1600.00,0.0046
1599.00,0.0046
1598.00,0.0046
1597.00,0.0046
1596.00,0.0047
1595.00,0.0047
1594.00,0.0047
1593.00,0.0047
1592.00,0.0048
1591.00,0.0048
1590.00,0.0049
1589.00,0.0050
1588.00,0.0051
1587.00,0.0053
1586.00,0.0055
1585.00,0.0057
1584.00,0.0060
1583.00,0.0062
1582.00,0.0065
1581.00,0.0068
1580.00,0.0070
1579.00,0.0072
1578.00,0.0073
1577.00,0.0073
1576.00,0.0072
1575.00,0.0070
1574.00,0.0069
1573.00,0.0068
1572.00,0.0067
1571.00,0.0065
1570.00,0.0062
1569.00,0.0059
1568.00,0.0058
1567.00,0.0056
1566.00,0.0055
1565.00,0.0055
1564.00,0.0055
1563.00,0.0055
1562.00,0.0056
1561.00,0.0057
1560.00,0.0058
1559.00,0.0057
1558.00,0.0056
1557.00,0.0055
1556.00,0.0055
1555.00,0.0055
1554.00,0.0055
1553.00,0.0056
1552.00,0.0058
1551.00,0.0059
1550.00,0.0061
1549.00,0.0063
1548.00,0.0066
1547.00,0.0068
1546.00,0.0071
1545.00,0.0074
1544.00,0.0077
1543.00,0.0079
1542.00,0.0079
1541.00,0.0080
1540.00,0.0079
1539.00,0.0077
1538.00,0.0075
1537.00,0.0073
1536.00,0.0071
1535.00,0.0068
1534.00,0.0065
1533.00,0.0062
1532.00,0.0060
1531.00,0.0058
1530.00,0.0057
1529.00,0.0057
1528.00,0.0057
1527.00,0.0056
1526.00,0.0055
1525.00,0.0055
1524.00,0.0055
1523.00,0.0055
1522.00,0.0055
1521.00,0.0056
1520.00,0.0056
1519.00,0.0056
1518.00,0.0056
1517.00,0.0056
1516.00,0.0057
1515.00,0.0058
1514.00,0.0058
1513.00,0.0059
1512.00,0.0061
1511.00,0.0061
1510.00,0.0061
1509.00,0.0062
1508.00,0.0064
1507.00,0.0065
1506.00,0.0067
1505.00,0.0068
1504.00,0.0069
1503.00,0.0070
1502.00,0.0071
1501.00,0.0072
1500.00,0.0075
1499.00,0.0077
1498.00,0.0079
1497.00,0.0083
1496.00,0.0087
1495.00,0.0090
1494.00,0.0092
1493.00,0.0095
1492.00,0.0099
1491.00,0.0103
1490.00,0.0107
1489.00,0.0113
1488.00,0.0119
1487.00,0.0125
1486.00,0.0131
1485.00,0.0138
1484.00,0.0147
1483.00,0.0155
1482.00,0.0165
1481.00,0.0178
1480.00,0.0191
1479.00,0.0205
1478.00,0.0221
1477.00,0.0242
1476.00,0.0268
1475.00,0.0298
1474.00,0.0338
1473.00,0.0396
1472.00,0.0465
1471.00,0.0530
1470.00,0.0593
1469.00,0.0658
1468.00,0.0730
1467.00,0.0809
1466.00,0.0899
1465.00,0.0998
1464.00,0.1083
1463.00,0.1141
1462.00,0.1177
1461.00,0.1201
1460.00,0.1218
1459.00,0.1227
1458.00,0.1234
1457.00,0.1238
1456.00,0.1234
1455.00,0.1224
1454.00,0.1210
1453.00,0.1191
1452.00,0.1163
1451.00,0.1125
1450.00,0.1073
1449.00,0.1001
1448.00,0.0911
1447.00,0.0815
1446.00,0.0729
1445.00,0.0656
1444.00,0.0593
1443.00,0.0542
1442.00,0.0503
1441.00,0.0477
1440.00,0.0461
1439.00,0.0455
1438.00,0.0457
1437.00,0.0461
1436.00,0.0453
1435.00,0.0430
1434.00,0.0394
1433.00,0.0350
1432.00,0.0304
1431.00,0.0264
1430.00,0.0232
1429.00,0.0209
1428.00,0.0192
1427.00,0.0182
1426.00,0.0175
1425.00,0.0169
1424.00,0.0163
1423.00,0.0159
1422.00,0.0156
1421.00,0.0153
1420.00,0.0150
1419.00,0.0146
1418.00,0.0143
1417.00,0.0140
1416.00,0.0136
1415.00,0.0135
1414.00,0.0134
1413.00,0.0132
1412.00,0.0129
1411.00,0.0128
1410.00,0.0127
1409.00,0.0125
1408.00,0.0123
1407.00,0.0123
1406.00,0.0122
1405.00,0.0121
1404.00,0.0121
1403.00,0.0121
1402.00,0.0123
1401.00,0.0124
1400.00,0.0124
1399.00,0.0125
1398.00,0.0127
1397.00,0.0128
1396.00,0.0130
1395.00,0.0134
1394.00,0.0139
1393.00,0.0143
1392.00,0.0148
1391.00,0.0155
1390.00,0.0166
1389.00,0.0180
1388.00,0.0201
1387.00,0.0232
1386.00,0.0276
1385.00,0.0332
1384.00,0.0411
1383.00,0.0521
1382.00,0.0669
1381.00,0.0863
1380.00,0.1105
1379.00,0.1388
1378.00,0.1670
1377.00,0.1886
1376.00,0.1972
1375.00,0.1886
1374.00,0.1653
1373.00,0.1363
1372.00,0.1096
1371.00,0.0875
1370.00,0.0699
1369.00,0.0565
1368.00,0.0473
1367.00,0.0417
1366.00,0.0387
1365.00,0.0375
1364.00,0.0377
1363.00,0.0392
1362.00,0.0415
1361.00,0.0440
1360.00,0.0458
1359.00,0.0463
1358.00,0.0452
1357.00,0.0425
1356.00,0.0388
1355.00,0.0346
1354.00,0.0305
1353.00,0.0270
1352.00,0.0242
1351.00,0.0219
1350.00,0.0201
1349.00,0.0185
1348.00,0.0173
1347.00,0.0162
1346.00,0.0153
1345.00,0.0145
1344.00,0.0139
1343.00,0.0134
1342.00,0.0130
1341.00,0.0127
1340.00,0.0124
1339.00,0.0122
1338.00,0.0120
1337.00,0.0120
1336.00,0.0120
1335.00,0.0122
1334.00,0.0125
1333.00,0.0129
1332.00,0.0134
1331.00,0.0137
1330.00,0.0138
1329.00,0.0136
1328.00,0.0133
1327.00,0.0128
1326.00,0.0123
1325.00,0.0117
1324.00,0.0112
1323.00,0.0107
1322.00,0.0103
1321.00,0.0100
1320.00,0.0097
1319.00,0.0095
1318.00,0.0093
1317.00,0.0091
1316.00,0.0090
1315.00,0.0089
1314.00,0.0088
1313.00,0.0088
1312.00,0.0089
1311.00,0.0091
1310.00,0.0094
1309.00,0.0100
1308.00,0.0109
1307.00,0.0119
1306.00,0.0130
1305.00,0.0137
1304.00,0.0140
1303.00,0.0137
1302.00,0.0133
1301.00,0.0129
1300.00,0.0127
1299.00,0.0127
1298.00,0.0127
1297.00,0.0128
1296.00,0.0127
1295.00,0.0125
1294.00,0.0122
1293.00,0.0116
1292.00,0.0111
1291.00,0.0106
1290.00,0.0101
1289.00,0.0097
1288.00,0.0094
1287.00,0.0091
1286.00,0.0089
1285.00,0.0087
1284.00,0.0085
1283.00,0.0083
1282.00,0.0081
1281.00,0.0080
1280.00,0.0079
1279.00,0.0078
1278.00,0.0078
1277.00,0.0077
1276.00,0.0077
1275.00,0.0077
1274.00,0.0077
1273.00,0.0077
1272.00,0.0077
1271.00,0.0077
1270.00,0.0078
1269.00,0.0078
1268.00,0.0080
1267.00,0.0081
1266.00,0.0083
1265.00,0.0085
1264.00,0.0088
1263.00,0.0090
1262.00,0.0093
1261.00,0.0097
1260.00,0.0103
1259.00,0.0109
1258.00,0.0117
1257.00,0.0122
1256.00,0.0125
1255.00,0.0123
1254.00,0.0117
1253.00,0.0109
1252.00,0.0101
1251.00,0.0095
1250.00,0.0090
1249.00,0.0086
1248.00,0.0083
1247.00,0.0081
1246.00,0.0079
1245.00,0.0078
1244.00,0.0076
1243.00,0.0075
1242.00,0.0074
1241.00,0.0073
1240.00,0.0073
1239.00,0.0073
1238.00,0.0074
1237.00,0.0074
1236.00,0.0074
1235.00,0.0074
1234.00,0.0074
1233.00,0.0074
1232.00,0.0075
1231.00,0.0075
1230.00,0.0076
1229.00,0.0077
1228.00,0.0079
1227.00,0.0081
1226.00,0.0083
1225.00,0.0086
1224.00,0.0089
1223.00,0.0092
1222.00,0.0095
1221.00,0.0098
1220.00,0.0099
1219.00,0.0100
1218.00,0.0100
1217.00,0.0098
1216.00,0.0096
1215.00,0.0093
1214.00,0.0090
1213.00,0.0088
1212.00,0.0085
1211.00,0.0083
1210.00,0.0081
1209.00,0.0079
1208.00,0.0077
1207.00,0.0076
1206.00,0.0076
1205.00,0.0077
1204.00,0.0077
1203.00,0.0077
1202.00,0.0076
1201.00,0.0075
1200.00,0.0075
1199.00,0.0075
1198.00,0.0075
1197.00,0.0075
1196.00,0.0075
1195.00,0.0074
1194.00,0.0074
1193.00,0.0073
1192.00,0.0073
1191.00,0.0074
1190.00,0.0074
1189.00,0.0075
1188.00,0.0075
1187.00,0.0075
1186.00,0.0076
1185.00,0.0076
1184.00,0.0077
1183.00,0.0078
1182.00,0.0080
1181.00,0.0082
1180.00,0.0086
1179.00,0.0090
1178.00,0.0097
1177.00,0.0105
1176.00,0.0115
1175.00,0.0129
1174.00,0.0147
1173.00,0.0170
1172.00,0.0198
1171.00,0.0230
1170.00,0.0260
1169.00,0.0285
1168.00,0.0299
1167.00,0.0302
1166.00,0.0294
1165.00,0.0280
1164.00,0.0264
1163.00,0.0248
1162.00,0.0234
1161.00,0.0223
1160.00,0.0213
1159.00,0.0206
1158.00,0.0201
1157.00,0.0198
1156.00,0.0196
1155.00,0.0196
1154.00,0.0195
1153.00,0.0193
1152.00,0.0189
1151.00,0.0182
1150.00,0.0173
1149.00,0.0163
1148.00,0.0153
1147.00,0.0144
1146.00,0.0136
1145.00,0.0127
1144.00,0.0119
1143.00,0.0112
1142.00,0.0106
1141.00,0.0100
1140.00,0.0096
1139.00,0.0092
1138.00,0.0088
1137.00,0.0085
1136.00,0.0083
1135.00,0.0081
1134.00,0.0079
1133.00,0.0078
1132.00,0.0077
1131.00,0.0076
1130.00,0.0075
1129.00,0.0074
1128.00,0.0073
1127.00,0.0073
1126.00,0.0073
1125.00,0.0074
1124.00,0.0075
1123.00,0.0075
1122.00,0.0076
1121.00,0.0077
1120.00,0.0077
1119.00,0.0078
1118.00,0.0078
1117.00,0.0078
1116.00,0.0078
1115.00,0.0080
1114.00,0.0082
1113.00,0.0084
1112.00,0.0086
1111.00,0.0088
1110.00,0.0091
1109.00,0.0095
1108.00,0.0100
1107.00,0.0105
1106.00,0.0111
1105.00,0.0117
1104.00,0.0122
1103.00,0.0125
1102.00,0.0125
1101.00,0.0121
1100.00,0.0116
1099.00,0.0109
1098.00,0.0103
1097.00,0.0097
1096.00,0.0092
1095.00,0.0088
1094.00,0.0085
1093.00,0.0083
1092.00,0.0082
1091.00,0.0080
1090.00,0.0079
1089.00,0.0078
1088.00,0.0077
1087.00,0.0076
1086.00,0.0075
1085.00,0.0074
1084.00,0.0073
1083.00,0.0073
1082.00,0.0073
1081.00,0.0072
1080.00,0.0071
1079.00,0.0070
1078.00,0.0069
1077.00,0.0069
1076.00,0.0068
1075.00,0.0068
1074.00,0.0068
1073.00,0.0067
1072.00,0.0067
1071.00,0.0066
1070.00,0.0066
1069.00,0.0066
1068.00,0.0066
1067.00,0.0066
1066.00,0.0066
1065.00,0.0066
1064.00,0.0065
1063.00,0.0065
1062.00,0.0066
1061.00,0.0067
1060.00,0.0067
1059.00,0.0068
1058.00,0.0069
1057.00,0.0069
1056.00,0.0069
1055.00,0.0070
1054.00,0.0070
1053.00,0.0071
1052.00,0.0073
1051.00,0.0075
1050.00,0.0078
1049.00,0.0081
1048.00,0.0084
1047.00,0.0087
1046.00,0.0089
1045.00,0.0089
1044.00,0.0089
1043.00,0.0087
1042.00,0.0085
1041.00,0.0084
1040.00,0.0083
1039.00,0.0083
1038.00,0.0083
1037.00,0.0083
1036.00,0.0083
1035.00,0.0083
1034.00,0.0081
1033.00,0.0079
1032.00,0.0077
1031.00,0.0076
1030.00,0.0075
1029.00,0.0075
1028.00,0.0075
1027.00,0.0075
1026.00,0.0075
1025.00,0.0076
1024.00,0.0076
1023.00,0.0075
1022.00,0.0075
1021.00,0.0074
1020.00,0.0075
1019.00,0.0076
1018.00,0.0079
1017.00,0.0081
1016.00,0.0082
1015.00,0.0084
1014.00,0.0085
1013.00,0.0087
1012.00,0.0090
1011.00,0.0093
1010.00,0.0097
1009.00,0.0101
1008.00,0.0105
1007.00,0.0111
1006.00,0.0119
1005.00,0.0130
1004.00,0.0147
1003.00,0.0169
1002.00,0.0199
1001.00,0.0235
1000.00,0.0273
999.00,0.0304
998.00,0.0319
997.00,0.0312
996.00,0.0287
995.00,0.0250
994.00,0.0211
993.00,0.0179
992.00,0.0154
991.00,0.0136
990.00,0.0123
989.00,0.0114
988.00,0.0108
987.00,0.0104
986.00,0.0104
985.00,0.0106
984.00,0.0109
983.00,0.0116
982.00,0.0127
981.00,0.0144
980.00,0.0166
979.00,0.0196
978.00,0.0233
977.00,0.0275
976.00,0.0318
975.00,0.0357
974.00,0.0385
973.00,0.0393
972.00,0.0377
971.00,0.0339
970.00,0.0290
969.00,0.0240
968.00,0.0198
967.00,0.0166
966.00,0.0144
965.00,0.0128
964.00,0.0118
963.00,0.0110
962.00,0.0103
961.00,0.0098
960.00,0.0094
959.00,0.0090
958.00,0.0086
957.00,0.0083
956.00,0.0080
955.00,0.0078
954.00,0.0076
953.00,0.0075
952.00,0.0074
951.00,0.0073
950.00,0.0073
949.00,0.0073
948.00,0.0073
947.00,0.0073
946.00,0.0075
945.00,0.0078
944.00,0.0081
943.00,0.0084
942.00,0.0088
941.00,0.0089
940.00,0.0088
939.00,0.0085
938.00,0.0080
937.00,0.0075
936.00,0.0070
935.00,0.0066
934.00,0.0064
933.00,0.0062
932.00,0.0061
931.00,0.0059
930.00,0.0058
929.00,0.0057
928.00,0.0058
927.00,0.0058
926.00,0.0059
925.00,0.0059
924.00,0.0058
923.00,0.0058
922.00,0.0057
921.00,0.0057
920.00,0.0057
919.00,0.0058
918.00,0.0059
917.00,0.0060
916.00,0.0061
915.00,0.0061
914.00,0.0062
913.00,0.0062
912.00,0.0063
911.00,0.0064
910.00,0.0066
909.00,0.0069
908.00,0.0072
907.00,0.0078
906.00,0.0086
905.00,0.0097
904.00,0.0111
903.00,0.0130
902.00,0.0150
901.00,0.0168
900.00,0.0181
899.00,0.0184
898.00,0.0176
897.00,0.0159
896.00,0.0138
895.00,0.0119
894.00,0.0104
893.00,0.0093
892.00,0.0086
891.00,0.0080
890.00,0.0075
889.00,0.0072
888.00,0.0071
887.00,0.0071
886.00,0.0072
885.00,0.0072
884.00,0.0072
883.00,0.0072
882.00,0.0072
881.00,0.0073
880.00,0.0076
879.00,0.0079
878.00,0.0082
877.00,0.0083
876.00,0.0083
875.00,0.0083
874.00,0.0082
873.00,0.0082
872.00,0.0082
871.00,0.0082
870.00,0.0081
869.00,0.0079
868.00,0.0078
867.00,0.0076
866.00,0.0075
865.00,0.0075
864.00,0.0076
863.00,0.0077
862.00,0.0079
861.00,0.0082
860.00,0.0084
859.00,0.0085
858.00,0.0085
857.00,0.0085
856.00,0.0085
855.00,0.0087
854.00,0.0089
853.00,0.0092
852.00,0.0095
851.00,0.0099
850.00,0.0103
849.00,0.0108
848.00,0.0115
847.00,0.0127
846.00,0.0147
845.00,0.0178
844.00,0.0220
843.00,0.0269
842.00,0.0306
841.00,0.0315
840.00,0.0291
839.00,0.0246
838.00,0.0198
837.00,0.0162
836.00,0.0138
835.00,0.0124
834.00,0.0115
833.00,0.0109
832.00,0.0105
831.00,0.0102
830.00,0.0100
829.00,0.0099
828.00,0.0098
827.00,0.0097
826.00,0.0095
825.00,0.0094
824.00,0.0092
823.00,0.0091
822.00,0.0092
821.00,0.0094
820.00,0.0096
819.00,0.0098
818.00,0.0101
817.00,0.0106
816.00,0.0115
815.00,0.0127
814.00,0.0143
813.00,0.0162
812.00,0.0183
811.00,0.0202
810.00,0.0216
809.00,0.0222
808.00,0.0219
807.00,0.0206
806.00,0.0186
805.00,0.0165
804.00,0.0146
803.00,0.0131
802.00,0.0119
801.00,0.0111
800.00,0.0105
799.00,0.0101
798.00,0.0098
797.00,0.0095
796.00,0.0092
795.00,0.0089
794.00,0.0084
793.00,0.0081
792.00,0.0078
791.00,0.0077
790.00,0.0075
789.00,0.0072
788.00,0.0069
787.00,0.0066
786.00,0.0064
785.00,0.0062
784.00,0.0060
783.00,0.0057
782.00,0.0056
781.00,0.0055
780.00,0.0056
779.00,0.0056
778.00,0.0055
777.00,0.0055
776.00,0.0054
775.00,0.0055
774.00,0.0056
773.00,0.0057
772.00,0.0059
771.00,0.0059
770.00,0.0059
769.00,0.0058
768.00,0.0057
767.00,0.0057
766.00,0.0058
765.00,0.0058
764.00,0.0057
763.00,0.0056
762.00,0.0056
761.00,0.0056
760.00,0.0056
759.00,0.0056
758.00,0.0057
757.00,0.0058
756.00,0.0059
755.00,0.0060
754.00,0.0060
753.00,0.0060
752.00,0.0060
751.00,0.0060
750.00,0.0060
749.00,0.0061
748.00,0.0062
747.00,0.0063
746.00,0.0064
745.00,0.0065
744.00,0.0066
743.00,0.0066
742.00,0.0067
741.00,0.0069
740.00,0.0072
739.00,0.0074
738.00,0.0077
737.00,0.0080
736.00,0.0083
735.00,0.0087
734.00,0.0093
733.00,0.0099
732.00,0.0105
731.00,0.0110
730.00,0.0115
729.00,0.0118
728.00,0.0120
727.00,0.0121
726.00,0.0123
725.00,0.0126
724.00,0.0131
723.00,0.0138
722.00,0.0145
721.00,0.0150
720.00,0.0148
719.00,0.0141
718.00,0.0130
717.00,0.0117
716.00,0.0104
715.00,0.0094
714.00,0.0087
713.00,0.0082
712.00,0.0080
711.00,0.0077
710.00,0.0074
709.00,0.0071
708.00,0.0068
707.00,0.0066
706.00,0.0065
705.00,0.0065
704.00,0.0064
703.00,0.0063
702.00,0.0062
701.00,0.0060
700.00,0.0059
699.00,0.0057
698.00,0.0055
697.00,0.0054
696.00,0.0053
695.00,0.0054
694.00,0.0055
693.00,0.0055
692.00,0.0054
691.00,0.0053
690.00,0.0052
689.00,0.0052
688.00,0.0053
687.00,0.0053
686.00,0.0054
685.00,0.0054
684.00,0.0054
683.00,0.0054
682.00,0.0055
681.00,0.0055
680.00,0.0054
679.00,0.0054
678.00,0.0053
677.00,0.0052
676.00,0.0052
675.00,0.0051
674.00,0.0051
673.00,0.0051
672.00,0.0051
671.00,0.0052
670.00,0.0054
669.00,0.0057
668.00,0.0062
667.00,0.0064
666.00,0.0063
665.00,0.0061
664.00,0.0057
663.00,0.0054
662.00,0.0051
661.00,0.0051
660.00,0.0052
659.00,0.0053
658.00,0.0054
657.00,0.0054
656.00,0.0054
655.00,0.0054
654.00,0.0054
653.00,0.0053
652.00,0.0052
651.00,0.0050
650.00,0.0049
649.00,0.0047
648.00,0.0047
647.00,0.0049
646.00,0.0051
645.00,0.0052
644.00,0.0051
643.00,0.0051
642.00,0.0050
641.00,0.0050
640.00,0.0050
639.00,0.0053
638.00,0.0055
637.00,0.0057
636.00,0.0058
635.00,0.0057
634.00,0.0056
633.00,0.0054
632.00,0.0053
631.00,0.0052
630.00,0.0051
629.00,0.0051
628.00,0.0052
627.00,0.0054
626.00,0.0056
625.00,0.0057
624.00,0.0057
623.00,0.0055
622.00,0.0055
621.00,0.0056
620.00,0.0057
619.00,0.0058
618.00,0.0059
617.00,0.0058
616.00,0.0056
615.00,0.0053
614.00,0.0050
613.00,0.0048
612.00,0.0049
611.00,0.0053
610.00,0.0057
609.00,0.0061
608.00,0.0062
607.00,0.0061
606.00,0.0058
605.00,0.0055
604.00,0.0052
603.00,0.0051
602.00,0.0052
601.00,0.0054
600.00,0.0056
599.00,0.0057
598.00,0.0058
597.00,0.0057
596.00,0.0056
595.00,0.0055
594.00,0.0055
593.00,0.0057
592.00,0.0058
591.00,0.0058
590.00,0.0056
589.00,0.0054
588.00,0.0053
587.00,0.0052
586.00,0.0052
585.00,0.0055
584.00,0.0058
583.00,0.0061
582.00,0.0062
581.00,0.0060
580.00,0.0057
579.00,0.0056
578.00,0.0057
577.00,0.0060
576.00,0.0063
575.00,0.0064
574.00,0.0064
573.00,0.0064
572.00,0.0063
571.00,0.0061
570.00,0.0060
569.00,0.0060
568.00,0.0062
567.00,0.0064
566.00,0.0064
565.00,0.0062
564.00,0.0059
563.00,0.0056
562.00,0.0055
561.00,0.0056
560.00,0.0057
559.00,0.0059
558.00,0.0061
557.00,0.0063
556.00,0.0064
555.00,0.0065
554.00,0.0065
553.00,0.0062
552.00,0.0057
551.00,0.0052
550.00,0.0051
549.00,0.0055
548.00,0.0062
547.00,0.0069
546.00,0.0073
545.00,0.0075
544.00,0.0075
543.00,0.0072
542.00,0.0067
541.00,0.0062
540.00,0.0060
539.00,0.0061
538.00,0.0064
537.00,0.0069
536.00,0.0073
535.00,0.0078
534.00,0.0081
533.00,0.0082
532.00,0.0081
531.00,0.0082
530.00,0.0085
529.00,0.0090
528.00,0.0094
527.00,0.0095
526.00,0.0092
525.00,0.0089
524.00,0.0087
523.00,0.0085
522.00,0.0080
521.00,0.0073
520.00,0.0067
519.00,0.0066
518.00,0.0069
517.00,0.0072
516.00,0.0073
515.00,0.0073
514.00,0.0071
513.00,0.0068
512.00,0.0065
511.00,0.0064
510.00,0.0067
509.00,0.0071
508.00,0.0073
507.00,0.0069
506.00,0.0064
505.00,0.0063
504.00,0.0067
503.00,0.0072
502.00,0.0073
501.00,0.0068
500.00,0.0063
499.00,0.0062
498.00,0.0065
497.00,0.0066
496.00,0.0066
495.00,0.0066
494.00,0.0066
493.00,0.0066
492.00,0.0065
491.00,0.0062
490.00,0.0060
489.00,0.0059
488.00,0.0061
487.00,0.0064
486.00,0.0066
485.00,0.0063
484.00,0.0056
483.00,0.0051
482.00,0.0053
481.00,0.0061
480.00,0.0069
479.00,0.0074
478.00,0.0075
477.00,0.0076
476.00,0.0080
475.00,0.0086
474.00,0.0091
473.00,0.0091
472.00,0.0089
471.00,0.0090
470.00,0.0095
469.00,0.0104
468.00,0.0112
467.00,0.0117
466.00,0.0118
465.00,0.0117
464.00,0.0120
463.00,0.0131
462.00,0.0146
461.00,0.0156
460.00,0.0152
459.00,0.0136
458.00,0.0115
457.00,0.0105
456.00,0.0109
455.00,0.0124
454.00,0.0138
453.00,0.0146
452.00,0.0143
451.00,0.0128
450.00,0.0107
