Created as New Dataset,Sample 124 By Administrator Date Friday, September 05 2025
cm-1,A
4000.00,0.0012
3999.00,0.0012
3998.00,0.0012
3997.00,0.0012
3996.00,0.0012
3995.00,0.0013
3994.00,0.0013
3993.00,0.0013
3992.00,0.0014
3991.00,0.0014
3990.00,0.0014
3989.00,0.0014
3988.00,0.0013
3987.00,0.0013
3986.00,0.0013
3985.00,0.0012
3984.00,0.0012
3983.00,0.0012
3982.00,0.0011
3981.00,0.0011
3980.00,0.0011
3979.00,0.0011
3978.00,0.0011
3977.00,0.0011
3976.00,0.0011
3975.00,0.0011
3974.00,0.0011
3973.00,0.0010
3972.00,0.0010
3971.00,0.0010
3970.00,0.0010
3969.00,0.0010
3968.00,0.0010
3967.00,0.0011
3966.00,0.0011
3965.00,0.0011
3964.00,0.0010
3963.00,0.0010
3962.00,0.0010
3961.00,0.0010
3960.00,0.0010
3959.00,0.0010
3958.00,0.0010
3957.00,0.0010
3956.00,0.0010
3955.00,0.0010
3954.00,0.0010
3953.00,0.0011
3952.00,0.0011
3951.00,0.0011
3950.00,0.0011
3949.00,0.0011
3948.00,0.0010
3947.00,0.0010
3946.00,0.0010
3945.00,0.0010
3944.00,0.0011
3943.00,0.0011
3942.00,0.0011
3941.00,0.0011
3940.00,0.0011
3939.00,0.0010
3938.00,0.0010
3937.00,0.0010
3936.00,0.0010
3935.00,0.0010
3934.00,0.0010
3933.00,0.0010
3932.00,0.0010
3931.00,0.0011
3930.00,0.0011
3929.00,0.0011
3928.00,0.0011
3927.00,0.0011
3926.00,0.0011
3925.00,0.0011
3924.00,0.0011
3923.00,0.0011
3922.00,0.0011
3921.00,0.0011
3920.00,0.0011
3919.00,0.0011
3918.00,0.0011
3917.00,0.0011
3916.00,0.0012
3915.00,0.0012
3914.00,0.0012
3913.00,0.0012
3912.00,0.0011
3911.00,0.0011
3910.00,0.0011
3909.00,0.0011
3908.00,0.0010
3907.00,0.0011
3906.00,0.0011
3905.00,0.0011
3904.00,0.0011
3903.00,0.0011
3902.00,0.0010
3901.00,0.0010
3900.00,0.0010
3899.00,0.0010
3898.00,0.0010
3897.00,0.0011
3896.00,0.0011
3895.00,0.0011
3894.00,0.0011
3893.00,0.0011
3892.00,0.0011
3891.00,0.0011
3890.00,0.0011
3889.00,0.0011
3888.00,0.0011
3887.00,0.0010
3886.00,0.0010
3885.00,0.0010
3884.00,0.0010
3883.00,0.0010
3882.00,0.0010
3881.00,0.0010
3880.00,0.0011
3879.00,0.0011
3878.00,0.0010
3877.00,0.0010
3876.00,0.0010
3875.00,0.0010
3874.00,0.0010
3873.00,0.0010
3872.00,0.0009
3871.00,0.0009
3870.00,0.0010
3869.00,0.0010
3868.00,0.0010
3867.00,0.0010
3866.00,0.0010
3865.00,0.0011
3864.00,0.0011
3863.00,0.0011
3862.00,0.0010
3861.00,0.0010
3860.00,0.0010
3859.00,0.0010
3858.00,0.0010
3857.00,0.0011
3856.00,0.0011
3855.00,0.0011
3854.00,0.0011
3853.00,0.0011
3852.00,0.0011
3851.00,0.0010
3850.00,0.0010
3849.00,0.0010
3848.00,0.0010
3847.00,0.0010
3846.00,0.0010
3845.00,0.0010
3844.00,0.0010
3843.00,0.0010
3842.00,0.0010
3841.00,0.0010
3840.00,0.0010
3839.00,0.0010
3838.00,0.0009
3837.00,0.0009
3836.00,0.0009
3835.00,0.0009
3834.00,0.0009
3833.00,0.0009
3832.00,0.0009
3831.00,0.0010
3830.00,0.0010
3829.00,0.0010
3828.00,0.0010
3827.00,0.0010
3826.00,0.0010
3825.00,0.0009
3824.00,0.0009
3823.00,0.0010
3822.00,0.0010
3821.00,0.0010
3820.00,0.0010
3819.00,0.0010
3818.00,0.0010
3817.00,0.0010
3816.00,0.0010
3815.00,0.0010
3814.00,0.0010
3813.00,0.0010
3812.00,0.0009
3811.00,0.0009
3810.00,0.0009
3809.00,0.0009
3808.00,0.0009
3807.00,0.0009
3806.00,0.0010
3805.00,0.0010
3804.00,0.0010
3803.00,0.0009
3802.00,0.0009
3801.00,0.0010
3800.00,0.0010
3799.00,0.0010
3798.00,0.0010
3797.00,0.0009
3796.00,0.0010
3795.00,0.0010
3794.00,0.0010
3793.00,0.0010
3792.00,0.0010
3791.00,0.0010
3790.00,0.0010
3789.00,0.0011
3788.00,0.0011
3787.00,0.0011
3786.00,0.0011
3785.00,0.0011
3784.00,0.0011
3783.00,0.0011
3782.00,0.0011
3781.00,0.0010
3780.00,0.0011
3779.00,0.0011
3778.00,0.0011
3777.00,0.0011
3776.00,0.0011
3775.00,0.0011
3774.00,0.0010
3773.00,0.0010
3772.00,0.0010
3771.00,0.0010
3770.00,0.0010
3769.00,0.0010
3768.00,0.0010
3767.00,0.0010
3766.00,0.0010
3765.00,0.0010
3764.00,0.0011
3763.00,0.0011
3762.00,0.0011
3761.00,0.0011
3760.00,0.0011
3759.00,0.0011
3758.00,0.0011
3757.00,0.0011
3756.00,0.0011
3755.00,0.0011
3754.00,0.0010
3753.00,0.0009
3752.00,0.0009
3751.00,0.0008
3750.00,0.0008
3749.00,0.0008
3748.00,0.0009
3747.00,0.0009
3746.00,0.0009
3745.00,0.0009
3744.00,0.0009
3743.00,0.0009
3742.00,0.0009
3741.00,0.0008
3740.00,0.0008
3739.00,0.0007
3738.00,0.0007
3737.00,0.0007
3736.00,0.0007
3735.00,0.0008
3734.00,0.0008
3733.00,0.0008
3732.00,0.0008
3731.00,0.0008
3730.00,0.0008
3729.00,0.0008
3728.00,0.0008
3727.00,0.0008
3726.00,0.0008
3725.00,0.0008
3724.00,0.0008
3723.00,0.0008
3722.00,0.0009
3721.00,0.0009
3720.00,0.0009
3719.00,0.0009
3718.00,0.0009
3717.00,0.0009
3716.00,0.0009
3715.00,0.0008
3714.00,0.0008
3713.00,0.0008
3712.00,0.0007
3711.00,0.0008
3710.00,0.0008
3709.00,0.0008
3708.00,0.0008
3707.00,0.0008
3706.00,0.0009
3705.00,0.0009
3704.00,0.0010
3703.00,0.0010
3702.00,0.0010
3701.00,0.0009
3700.00,0.0009
3699.00,0.0008
3698.00,0.0008
3697.00,0.0009
3696.00,0.0009
3695.00,0.0009
3694.00,0.0008
3693.00,0.0008
3692.00,0.0008
3691.00,0.0008
3690.00,0.0008
3689.00,0.0008
3688.00,0.0008
3687.00,0.0008
3686.00,0.0008
3685.00,0.0008
3684.00,0.0008
3683.00,0.0009
3682.00,0.0009
3681.00,0.0009
3680.00,0.0009
3679.00,0.0009
3678.00,0.0010
3677.00,0.0010
3676.00,0.0009
3675.00,0.0009
3674.00,0.0008
3673.00,0.0008
3672.00,0.0007
3671.00,0.0007
3670.00,0.0007
3669.00,0.0007
3668.00,0.0007
3667.00,0.0007
3666.00,0.0008
3665.00,0.0008
3664.00,0.0008
3663.00,0.0009
3662.00,0.0009
3661.00,0.0009
3660.00,0.0008
3659.00,0.0008
3658.00,0.0008
3657.00,0.0008
3656.00,0.0008
3655.00,0.0008
3654.00,0.0007
3653.00,0.0007
3652.00,0.0007
3651.00,0.0007
3650.00,0.0007
3649.00,0.0008
3648.00,0.0008
3647.00,0.0009
3646.00,0.0009
3645.00,0.0009
3644.00,0.0009
3643.00,0.0009
3642.00,0.0010
3641.00,0.0010
3640.00,0.0010
3639.00,0.0010
3638.00,0.0010
3637.00,0.0010
3636.00,0.0010
3635.00,0.0010
3634.00,0.0010
3633.00,0.0010
3632.00,0.0009
3631.00,0.0008
3630.00,0.0007
3629.00,0.0007
3628.00,0.0007
3627.00,0.0008
3626.00,0.0008
3625.00,0.0008
3624.00,0.0009
3623.00,0.0009
3622.00,0.0009
3621.00,0.0010
3620.00,0.0010
3619.00,0.0010
3618.00,0.0010
3617.00,0.0009
3616.00,0.0009
3615.00,0.0010
3614.00,0.0010
3613.00,0.0010
3612.00,0.0010
3611.00,0.0009
3610.00,0.0009
3609.00,0.0010
3608.00,0.0010
3607.00,0.0010
3606.00,0.0011
3605.00,0.0011
3604.00,0.0011
3603.00,0.0011
3602.00,0.0011
3601.00,0.0011
3600.00,0.0011
3599.00,0.0011
3598.00,0.0011
3597.00,0.0011
3596.00,0.0011
3595.00,0.0010
3594.00,0.0010
3593.00,0.0011
3592.00,0.0011
3591.00,0.0012
3590.00,0.0013
3589.00,0.0013
3588.00,0.0014
3587.00,0.0014
3586.00,0.0013
3585.00,0.0013
3584.00,0.0013
3583.00,0.0012
3582.00,0.0012
3581.00,0.0013
3580.00,0.0013
3579.00,0.0012
3578.00,0.0012
3577.00,0.0012
3576.00,0.0012
3575.00,0.0013
3574.00,0.0013
3573.00,0.0014
3572.00,0.0014
3571.00,0.0014
3570.00,0.0014
3569.00,0.0014
3568.00,0.0014
3567.00,0.0014
3566.00,0.0014
3565.00,0.0014
3564.00,0.0014
3563.00,0.0015
3562.00,0.0015
3561.00,0.0015
3560.00,0.0015
3559.00,0.0015
3558.00,0.0016
3557.00,0.0016
3556.00,0.0016
3555.00,0.0016
3554.00,0.0017
3553.00,0.0017
3552.00,0.0017
3551.00,0.0017
3550.00,0.0017
3549.00,0.0017
3548.00,0.0017
3547.00,0.0017
3546.00,0.0017
3545.00,0.0017
3544.00,0.0018
3543.00,0.0018
3542.00,0.0019
3541.00,0.0019
3540.00,0.0019
3539.00,0.0018
3538.00,0.0018
3537.00,0.0018
3536.00,0.0018
3535.00,0.0018
3534.00,0.0019
3533.00,0.0019
3532.00,0.0019
3531.00,0.0019
3530.00,0.0020
3529.00,0.0020
3528.00,0.0020
3527.00,0.0020
3526.00,0.0020
3525.00,0.0020
3524.00,0.0020
3523.00,0.0020
3522.00,0.0020
3521.00,0.0020
3520.00,0.0021
3519.00,0.0021
3518.00,0.0021
3517.00,0.0021
3516.00,0.0021
3515.00,0.0021
3514.00,0.0021
3513.00,0.0021
3512.00,0.0022
3511.00,0.0022
3510.00,0.0022
3509.00,0.0022
3508.00,0.0022
3507.00,0.0022
3506.00,0.0022
3505.00,0.0022
3504.00,0.0022
3503.00,0.0022
3502.00,0.0023
3501.00,0.0023
3500.00,0.0023
3499.00,0.0023
3498.00,0.0023
3497.00,0.0023
3496.00,0.0023
3495.00,0.0023
3494.00,0.0023
3493.00,0.0023
3492.00,0.0023
3491.00,0.0023
3490.00,0.0023
3489.00,0.0024
3488.00,0.0024
3487.00,0.0024
3486.00,0.0024
3485.00,0.0025
3484.00,0.0025
3483.00,0.0025
3482.00,0.0025
3481.00,0.0025
3480.00,0.0025
3479.00,0.0025
3478.00,0.0025
3477.00,0.0025
3476.00,0.0025
3475.00,0.0025
3474.00,0.0025
3473.00,0.0026
3472.00,0.0026
3471.00,0.0026
3470.00,0.0026
3469.00,0.0027
3468.00,0.0027
3467.00,0.0026
3466.00,0.0026
3465.00,0.0027
3464.00,0.0027
3463.00,0.0027
3462.00,0.0027
3461.00,0.0028
3460.00,0.0028
3459.00,0.0028
3458.00,0.0028
3457.00,0.0027
3456.00,0.0027
3455.00,0.0027
3454.00,0.0027
3453.00,0.0027
3452.00,0.0028
3451.00,0.0028
3450.00,0.0028
3449.00,0.0028
3448.00,0.0028
3447.00,0.0029
3446.00,0.0029
3445.00,0.0029
3444.00,0.0029
3443.00,0.0029
3442.00,0.0029
3441.00,0.0029
3440.00,0.0030
3439.00,0.0030
3438.00,0.0030
3437.00,0.0031
3436.00,0.0031
3435.00,0.0031
3434.00,0.0031
3433.00,0.0031
3432.00,0.0030
3431.00,0.0031
3430.00,0.0031
3429.00,0.0031
3428.00,0.0032
3427.00,0.0032
3426.00,0.0032
3425.00,0.0032
3424.00,0.0032
3423.00,0.0032
3422.00,0.0032
3421.00,0.0032
3420.00,0.0032
3419.00,0.0032
3418.00,0.0032
3417.00,0.0032
3416.00,0.0033
3415.00,0.0033
3414.00,0.0033
3413.00,0.0033
3412.00,0.0033
3411.00,0.0033
3410.00,0.0033
3409.00,0.0033
3408.00,0.0033
3407.00,0.0033
3406.00,0.0034
3405.00,0.0033
3404.00,0.0033
3403.00,0.0034
3402.00,0.0034
3401.00,0.0034
3400.00,0.0034
3399.00,0.0034
3398.00,0.0035
3397.00,0.0035
3396.00,0.0036
3395.00,0.0036
3394.00,0.0036
3393.00,0.0036
3392.00,0.0036
3391.00,0.0036
3390.00,0.0035
3389.00,0.0035
3388.00,0.0035
3387.00,0.0035
3386.00,0.0035
3385.00,0.0035
3384.00,0.0035
3383.00,0.0035
3382.00,0.0035
3381.00,0.0035
3380.00,0.0036
3379.00,0.0036
3378.00,0.0036
3377.00,0.0036
3376.00,0.0036
3375.00,0.0035
3374.00,0.0035
3373.00,0.0034
3372.00,0.0035
3371.00,0.0035
3370.00,0.0035
3369.00,0.0035
3368.00,0.0035
3367.00,0.0035
3366.00,0.0035
3365.00,0.0035
3364.00,0.0036
3363.00,0.0036
3362.00,0.0035
3361.00,0.0035
3360.00,0.0035
3359.00,0.0035
3358.00,0.0034
3357.00,0.0034
3356.00,0.0034
3355.00,0.0035
3354.00,0.0035
3353.00,0.0036
3352.00,0.0036
3351.00,0.0036
3350.00,0.0036
3349.00,0.0036
3348.00,0.0036
3347.00,0.0036
3346.00,0.0036
3345.00,0.0036
3344.00,0.0036
3343.00,0.0036
3342.00,0.0036
3341.00,0.0036
3340.00,0.0036
3339.00,0.0036
3338.00,0.0036
3337.00,0.0036
3336.00,0.0036
3335.00,0.0036
3334.00,0.0035
3333.00,0.0035
3332.00,0.0034
3331.00,0.0034
3330.00,0.0034
3329.00,0.0034
3328.00,0.0034
3327.00,0.0034
3326.00,0.0034
3325.00,0.0034
3324.00,0.0035
3323.00,0.0035
3322.00,0.0035
3321.00,0.0035
3320.00,0.0035
3319.00,0.0035
3318.00,0.0035
3317.00,0.0035
3316.00,0.0035
3315.00,0.0034
3314.00,0.0034
3313.00,0.0034
3312.00,0.0034
3311.00,0.0034
3310.00,0.0034
3309.00,0.0034
3308.00,0.0034
3307.00,0.0034
3306.00,0.0034
3305.00,0.0034
3304.00,0.0034
3303.00,0.0034
3302.00,0.0034
3301.00,0.0034
3300.00,0.0034
3299.00,0.0034
3298.00,0.0034
3297.00,0.0034
3296.00,0.0034
3295.00,0.0034
3294.00,0.0034
3293.00,0.0034
3292.00,0.0034
3291.00,0.0034
3290.00,0.0033
3289.00,0.0034
3288.00,0.0034
3287.00,0.0034
3286.00,0.0034
3285.00,0.0033
3284.00,0.0033
3283.00,0.0032
3282.00,0.0033
3281.00,0.0033
3280.00,0.0033
3279.00,0.0033
3278.00,0.0033
3277.00,0.0033
3276.00,0.0032
3275.00,0.0032
3274.00,0.0032
3273.00,0.0032
3272.00,0.0032
3271.00,0.0032
3270.00,0.0032
3269.00,0.0032
3268.00,0.0032
3267.00,0.0032
3266.00,0.0032
3265.00,0.0032
3264.00,0.0032
3263.00,0.0032
3262.00,0.0031
3261.00,0.0031
3260.00,0.0031
3259.00,0.0031
3258.00,0.0031
3257.00,0.0032
3256.00,0.0032
3255.00,0.0031
3254.00,0.0031
3253.00,0.0030
3252.00,0.0030
3251.00,0.0030
3250.00,0.0029
3249.00,0.0029
3248.00,0.0029
3247.00,0.0029
3246.00,0.0029
3245.00,0.0030
3244.00,0.0030
3243.00,0.0030
3242.00,0.0030
3241.00,0.0030
3240.00,0.0030
3239.00,0.0030
3238.00,0.0030
3237.00,0.0030
3236.00,0.0030
3235.00,0.0030
3234.00,0.0030
3233.00,0.0030
3232.00,0.0031
3231.00,0.0031
3230.00,0.0032
3229.00,0.0032
3228.00,0.0032
3227.00,0.0032
3226.00,0.0032
3225.00,0.0032
3224.00,0.0033
3223.00,0.0033
3222.00,0.0033
3221.00,0.0033
3220.00,0.0033
3219.00,0.0033
3218.00,0.0033
3217.00,0.0034
3216.00,0.0034
3215.00,0.0034
3214.00,0.0034
3213.00,0.0035
3212.00,0.0035
3211.00,0.0035
3210.00,0.0035
3209.00,0.0035
3208.00,0.0035
3207.00,0.0035
3206.00,0.0035
3205.00,0.0036
3204.00,0.0036
3203.00,0.0036
3202.00,0.0036
3201.00,0.0036
3200.00,0.0036
3199.00,0.0037
3198.00,0.0038
3197.00,0.0038
3196.00,0.0038
3195.00,0.0037
3194.00,0.0037
3193.00,0.0037
3192.00,0.0037
3191.00,0.0037
3190.00,0.0037
3189.00,0.0037
3188.00,0.0036
3187.00,0.0036
3186.00,0.0036
3185.00,0.0035
3184.00,0.0035
3183.00,0.0034
3182.00,0.0034
3181.00,0.0034
3180.00,0.0034
3179.00,0.0034
3178.00,0.0034
3177.00,0.0034
3176.00,0.0034
3175.00,0.0034
3174.00,0.0033
3173.00,0.0033
3172.00,0.0033
3171.00,0.0032
3170.00,0.0033
3169.00,0.0033
3168.00,0.0033
3167.00,0.0033
3166.00,0.0032
3165.00,0.0032
3164.00,0.0032
3163.00,0.0032
3162.00,0.0032
3161.00,0.0033
3160.00,0.0033
3159.00,0.0033
3158.00,0.0033
3157.00,0.0033
3156.00,0.0033
3155.00,0.0033
3154.00,0.0033
3153.00,0.0033
3152.00,0.0033
3151.00,0.0033
3150.00,0.0034
3149.00,0.0034
3148.00,0.0034
3147.00,0.0034
3146.00,0.0034
3145.00,0.0033
3144.00,0.0033
3143.00,0.0033
3142.00,0.0032
3141.00,0.0032
3140.00,0.0032
3139.00,0.0032
3138.00,0.0032
3137.00,0.0032
3136.00,0.0032
3135.00,0.0032
3134.00,0.0032
3133.00,0.0032
3132.00,0.0032
3131.00,0.0031
3130.00,0.0031
3129.00,0.0030
3128.00,0.0030
3127.00,0.0030
3126.00,0.0030
3125.00,0.0030
3124.00,0.0030
3123.00,0.0030
3122.00,0.0029
3121.00,0.0029
3120.00,0.0029
3119.00,0.0028
3118.00,0.0028
3117.00,0.0028
3116.00,0.0028
3115.00,0.0028
3114.00,0.0028
3113.00,0.0028
3112.00,0.0027
3111.00,0.0027
3110.00,0.0027
3109.00,0.0027
3108.00,0.0027
3107.00,0.0027
3106.00,0.0027
3105.00,0.0027
3104.00,0.0027
3103.00,0.0027
3102.00,0.0027
3101.00,0.0027
3100.00,0.0027
3099.00,0.0027
3098.00,0.0027
3097.00,0.0027
3096.00,0.0027
3095.00,0.0027
3094.00,0.0027
3093.00,0.0027
3092.00,0.0027
3091.00,0.0027
3090.00,0.0027
3089.00,0.0026
3088.00,0.0026
3087.00,0.0026
3086.00,0.0026
3085.00,0.0026
3084.00,0.0027
3083.00,0.0027
3082.00,0.0027
3081.00,0.0027
3080.00,0.0027
3079.00,0.0027
3078.00,0.0027
3077.00,0.0027
3076.00,0.0027
3075.00,0.0027
3074.00,0.0028
3073.00,0.0028
3072.00,0.0028
3071.00,0.0028
3070.00,0.0028
3069.00,0.0028
3068.00,0.0029
3067.00,0.0029
3066.00,0.0030
3065.00,0.0030
3064.00,0.0030
3063.00,0.0030
3062.00,0.0030
3061.00,0.0030
3060.00,0.0030
3059.00,0.0030
3058.00,0.0030
3057.00,0.0030
3056.00,0.0030
3055.00,0.0031
3054.00,0.0031
3053.00,0.0031
3052.00,0.0031
3051.00,0.0031
3050.00,0.0031
3049.00,0.0031
3048.00,0.0031
3047.00,0.0032
3046.00,0.0032
3045.00,0.0032
3044.00,0.0032
3043.00,0.0033
3042.00,0.0033
3041.00,0.0033
3040.00,0.0034
3039.00,0.0034
3038.00,0.0035
3037.00,0.0035
3036.00,0.0035
3035.00,0.0035
3034.00,0.0035
3033.00,0.0036
3032.00,0.0036
3031.00,0.0037
3030.00,0.0037
3029.00,0.0037
3028.00,0.0038
3027.00,0.0038
3026.00,0.0039
3025.00,0.0040
3024.00,0.0041
3023.00,0.0042
3022.00,0.0042
3021.00,0.0043
3020.00,0.0044
3019.00,0.0044
3018.00,0.0045
3017.00,0.0046
3016.00,0.0047
3015.00,0.0048
3014.00,0.0050
3013.00,0.0051
3012.00,0.0052
3011.00,0.0053
3010.00,0.0054
3009.00,0.0055
3008.00,0.0056
3007.00,0.0057
3006.00,0.0059
3005.00,0.0061
3004.00,0.0063
3003.00,0.0065
3002.00,0.0067
3001.00,0.0070
3000.00,0.0072
2999.00,0.0075
2998.00,0.0077
2997.00,0.0080
2996.00,0.0084
2995.00,0.0088
2994.00,0.0092
2993.00,0.0096
2992.00,0.0101
2991.00,0.0107
2990.00,0.0113
2989.00,0.0120
2988.00,0.0127
2987.00,0.0136
2986.00,0.0145
2985.00,0.0156
2984.00,0.0168
2983.00,0.0181
2982.00,0.0196
2981.00,0.0212
2980.00,0.0231
2979.00,0.0253
2978.00,0.0278
2977.00,0.0307
2976.00,0.0339
2975.00,0.0376
2974.00,0.0419
2973.00,0.0467
2972.00,0.0521
2971.00,0.0581
2970.00,0.0649
2969.00,0.0722
2968.00,0.0800
2967.00,0.0883
2966.00,0.0968
2965.00,0.1052
2964.00,0.1132
2963.00,0.1203
2962.00,0.1262
2961.00,0.1309
2960.00,0.1345
2959.00,0.1379
2958.00,0.1415
2957.00,0.1462
2956.00,0.1524
2955.00,0.1604
2954.00,0.1699
2953.00,0.1799
2952.00,0.1892
2951.00,0.1962
2950.00,0.1993
2949.00,0.1976
2948.00,0.1911
2947.00,0.1803
2946.00,0.1669
2945.00,0.1526
2944.00,0.1389
2943.00,0.1271
2942.00,0.1179
2941.00,0.1113
2940.00,0.1074
2939.00,0.1058
2938.00,0.1064
2937.00,0.1088
2936.00,0.1130
2935.00,0.1188
2934.00,0.1261
2933.00,0.1349
2932.00,0.1449
2931.00,0.1560
2930.00,0.1680
2929.00,0.1805
2928.00,0.1931
2927.00,0.2058
2926.00,0.2183
2925.00,0.2306
2924.00,0.2430
2923.00,0.2556
2922.00,0.2683
2921.00,0.2808
2920.00,0.2921
2919.00,0.3010
2918.00,0.3058
2917.00,0.3054
2916.00,0.2997
2915.00,0.2896
2914.00,0.2766
2913.00,0.2625
2912.00,0.2488
2911.00,0.2363
2910.00,0.2253
2909.00,0.2156
2908.00,0.2069
2907.00,0.1987
2906.00,0.1909
2905.00,0.1831
2904.00,0.1755
2903.00,0.1680
2902.00,0.1607
2901.00,0.1536
2900.00,0.1469
2899.00,0.1405
2898.00,0.1346
2897.00,0.1292
2896.00,0.1244
2895.00,0.1203
2894.00,0.1168
2893.00,0.1140
2892.00,0.1119
2891.00,0.1105
2890.00,0.1096
2889.00,0.1092
2888.00,0.1091
2887.00,0.1094
2886.00,0.1100
2885.00,0.1109
2884.00,0.1123
2883.00,0.1141
2882.00,0.1164
2881.00,0.1189
2880.00,0.1212
2879.00,0.1231
2878.00,0.1242
2877.00,0.1243
2876.00,0.1236
2875.00,0.1227
2874.00,0.1221
2873.00,0.1221
2872.00,0.1231
2871.00,0.1248
2870.00,0.1271
2869.00,0.1294
2868.00,0.1309
2867.00,0.1307
2866.00,0.1281
2865.00,0.1229
2864.00,0.1155
2863.00,0.1068
2862.00,0.0980
2861.00,0.0901
2860.00,0.0837
2859.00,0.0791
2858.00,0.0762
2857.00,0.0747
2856.00,0.0745
2855.00,0.0754
2854.00,0.0770
2853.00,0.0792
2852.00,0.0817
2851.00,0.0842
2850.00,0.0863
2849.00,0.0880
2848.00,0.0896
2847.00,0.0914
2846.00,0.0941
2845.00,0.0978
2844.00,0.1025
2843.00,0.1081
2842.00,0.1138
2841.00,0.1191
2840.00,0.1230
2839.00,0.1248
2838.00,0.1238
2837.00,0.1198
2836.00,0.1128
2835.00,0.1036
2834.00,0.0931
2833.00,0.0823
2832.00,0.0721
2831.00,0.0631
2830.00,0.0555
2829.00,0.0493
2828.00,0.0442
2827.00,0.0401
2826.00,0.0367
2825.00,0.0339
2824.00,0.0316
2823.00,0.0296
2822.00,0.0279
2821.00,0.0265
2820.00,0.0252
2819.00,0.0241
2818.00,0.0231
2817.00,0.0222
2816.00,0.0215
2815.00,0.0208
2814.00,0.0202
2813.00,0.0196
2812.00,0.0190
2811.00,0.0185
2810.00,0.0179
2809.00,0.0173
2808.00,0.0167
2807.00,0.0160
2806.00,0.0154
2805.00,0.0147
2804.00,0.0140
2803.00,0.0134
2802.00,0.0128
2801.00,0.0124
2800.00,0.0120
2799.00,0.0117
2798.00,0.0115
2797.00,0.0112
2796.00,0.0110
2795.00,0.0107
2794.00,0.0104
2793.00,0.0101
2792.00,0.0098
2791.00,0.0095
2790.00,0.0092
2789.00,0.0089
2788.00,0.0086
2787.00,0.0084
2786.00,0.0081
2785.00,0.0078
2784.00,0.0076
2783.00,0.0074
2782.00,0.0072
2781.00,0.0070
2780.00,0.0068
2779.00,0.0067
2778.00,0.0065
2777.00,0.0063
2776.00,0.0063
2775.00,0.0062
2774.00,0.0061
2773.00,0.0061
2772.00,0.0060
2771.00,0.0059
2770.00,0.0059
2769.00,0.0058
2768.00,0.0058
2767.00,0.0058
2766.00,0.0058
2765.00,0.0057
2764.00,0.0057
2763.00,0.0056
2762.00,0.0056
2761.00,0.0055
2760.00,0.0055
2759.00,0.0054
2758.00,0.0054
2757.00,0.0054
2756.00,0.0055
2755.00,0.0055
2754.00,0.0054
2753.00,0.0054
2752.00,0.0054
2751.00,0.0054
2750.00,0.0054
2749.00,0.0054
2748.00,0.0055
2747.00,0.0055
2746.00,0.0055
2745.00,0.0055
2744.00,0.0056
2743.00,0.0057
2742.00,0.0057
2741.00,0.0058
2740.00,0.0059
2739.00,0.0061
2738.00,0.0062
2737.00,0.0063
2736.00,0.0065
2735.00,0.0066
2734.00,0.0068
2733.00,0.0070
2732.00,0.0072
2731.00,0.0074
2730.00,0.0076
2729.00,0.0079
2728.00,0.0082
2727.00,0.0085
2726.00,0.0088
2725.00,0.0090
2724.00,0.0091
2723.00,0.0092
2722.00,0.0091
2721.00,0.0089
2720.00,0.0086
2719.00,0.0083
2718.00,0.0080
2717.00,0.0076
2716.00,0.0073
2715.00,0.0070
2714.00,0.0068
2713.00,0.0065
2712.00,0.0063
2711.00,0.0061
2710.00,0.0060
2709.00,0.0058
2708.00,0.0057
2707.00,0.0056
2706.00,0.0054
2705.00,0.0053
2704.00,0.0051
2703.00,0.0050
2702.00,0.0049
2701.00,0.0048
2700.00,0.0047
2699.00,0.0047
2698.00,0.0046
2697.00,0.0046
2696.00,0.0046
2695.00,0.0046
2694.00,0.0047
2693.00,0.0047
2692.00,0.0047
2691.00,0.0047
2690.00,0.0047
2689.00,0.0047
2688.00,0.0046
2687.00,0.0046
2686.00,0.0046
2685.00,0.0047
2684.00,0.0047
2683.00,0.0047
2682.00,0.0047
2681.00,0.0047
2680.00,0.0047
2679.00,0.0047
2678.00,0.0047
2677.00,0.0047
2676.00,0.0047
2675.00,0.0047
2674.00,0.0047
2673.00,0.0047
2672.00,0.0047
2671.00,0.0047
2670.00,0.0047
2669.00,0.0047
2668.00,0.0047
2667.00,0.0047
2666.00,0.0048
2665.00,0.0048
2664.00,0.0049
2663.00,0.0050
2662.00,0.0050
2661.00,0.0051
2660.00,0.0051
2659.00,0.0051
2658.00,0.0051
2657.00,0.0050
2656.00,0.0049
2655.00,0.0049
2654.00,0.0048
2653.00,0.0047
2652.00,0.0047
2651.00,0.0046
2650.00,0.0046
2649.00,0.0046
2648.00,0.0045
2647.00,0.0045
2646.00,0.0044
2645.00,0.0044
2644.00,0.0044
2643.00,0.0043
2642.00,0.0043
2641.00,0.0042
2640.00,0.0041
2639.00,0.0041
2638.00,0.0041
2637.00,0.0041
2636.00,0.0041
2635.00,0.0041
2634.00,0.0041
2633.00,0.0041
2632.00,0.0041
2631.00,0.0041
2630.00,0.0041
2629.00,0.0041
2628.00,0.0041
2627.00,0.0041
2626.00,0.0042
2625.00,0.0042
2624.00,0.0042
2623.00,0.0042
2622.00,0.0042
2621.00,0.0042
2620.00,0.0043
2619.00,0.0043
2618.00,0.0044
2617.00,0.0044
2616.00,0.0044
2615.00,0.0044
2614.00,0.0043
2613.00,0.0042
2612.00,0.0041
2611.00,0.0040
2610.00,0.0039
2609.00,0.0038
2608.00,0.0038
2607.00,0.0038
2606.00,0.0038
2605.00,0.0037
2604.00,0.0037
2603.00,0.0036
2602.00,0.0035
2601.00,0.0034
2600.00,0.0033
2599.00,0.0033
2598.00,0.0033
2597.00,0.0034
2596.00,0.0034
2595.00,0.0035
2594.00,0.0035
2593.00,0.0035
2592.00,0.0035
2591.00,0.0036
2590.00,0.0036
2589.00,0.0037
2588.00,0.0038
2587.00,0.0040
2586.00,0.0041
2585.00,0.0042
2584.00,0.0043
2583.00,0.0043
2582.00,0.0044
2581.00,0.0043
2580.00,0.0043
2579.00,0.0041
2578.00,0.0040
2577.00,0.0039
2576.00,0.0039
2575.00,0.0038
2574.00,0.0037
2573.00,0.0035
2572.00,0.0033
2571.00,0.0031
2570.00,0.0031
2569.00,0.0030
2568.00,0.0030
2567.00,0.0029
2566.00,0.0029
2565.00,0.0028
2564.00,0.0027
2563.00,0.0027
2562.00,0.0026
2561.00,0.0026
2560.00,0.0026
2559.00,0.0026
2558.00,0.0026
2557.00,0.0025
2556.00,0.0024
2555.00,0.0024
2554.00,0.0024
2553.00,0.0024
2552.00,0.0024
2551.00,0.0024
2550.00,0.0024
2549.00,0.0023
2548.00,0.0022
2547.00,0.0021
2546.00,0.0021
2545.00,0.0020
2544.00,0.0020
2543.00,0.0019
2542.00,0.0019
2541.00,0.0019
2540.00,0.0018
2539.00,0.0018
2538.00,0.0018
2537.00,0.0018
2536.00,0.0018
2535.00,0.0017
2534.00,0.0017
2533.00,0.0017
2532.00,0.0017
2531.00,0.0018
2530.00,0.0019
2529.00,0.0019
2528.00,0.0019
2527.00,0.0019
2526.00,0.0018
2525.00,0.0017
2524.00,0.0016
2523.00,0.0015
2522.00,0.0015
2521.00,0.0016
2520.00,0.0016
2519.00,0.0015
2518.00,0.0015
2517.00,0.0014
2516.00,0.0014
2515.00,0.0014
2514.00,0.0014
2513.00,0.0014
2512.00,0.0013
2511.00,0.0013
2510.00,0.0013
2509.00,0.0013
2508.00,0.0013
2507.00,0.0013
2506.00,0.0013
2505.00,0.0013
2504.00,0.0013
2503.00,0.0013
2502.00,0.0012
2501.00,0.0012
2500.00,0.0012
2499.00,0.0012
2498.00,0.0012
2497.00,0.0013
2496.00,0.0013
2495.00,0.0013
2494.00,0.0013
2493.00,0.0013
2492.00,0.0013
2491.00,0.0013
2490.00,0.0013
2489.00,0.0013
2488.00,0.0013
2487.00,0.0013
2486.00,0.0012
2485.00,0.0012
2484.00,0.0012
2483.00,0.0012
2482.00,0.0012
2481.00,0.0012
2480.00,0.0013
2479.00,0.0012
2478.00,0.0012
2477.00,0.0012
2476.00,0.0012
2475.00,0.0012
2474.00,0.0011
2473.00,0.0011
2472.00,0.0011
2471.00,0.0011
2470.00,0.0011
2469.00,0.0011
2468.00,0.0011
2467.00,0.0011
2466.00,0.0011
2465.00,0.0011
2464.00,0.0011
2463.00,0.0011
2462.00,0.0011
2461.00,0.0012
2460.00,0.0012
2459.00,0.0012
2458.00,0.0013
2457.00,0.0013
2456.00,0.0013
2455.00,0.0012
2454.00,0.0012
2453.00,0.0012
2452.00,0.0013
2451.00,0.0014
2450.00,0.0014
2449.00,0.0014
2448.00,0.0014
2447.00,0.0014
2446.00,0.0014
2445.00,0.0014
2444.00,0.0014
2443.00,0.0013
2442.00,0.0013
2441.00,0.0013
2440.00,0.0013
2439.00,0.0013
2438.00,0.0013
2437.00,0.0013
2436.00,0.0012
2435.00,0.0012
2434.00,0.0012
2433.00,0.0012
2432.00,0.0013
2431.00,0.0014
2430.00,0.0014
2429.00,0.0014
2428.00,0.0014
2427.00,0.0014
2426.00,0.0013
2425.00,0.0014
2424.00,0.0014
2423.00,0.0014
2422.00,0.0015
2421.00,0.0014
2420.00,0.0013
2419.00,0.0013
2418.00,0.0012
2417.00,0.0012
2416.00,0.0011
2415.00,0.0011
2414.00,0.0011
2413.00,0.0011
2412.00,0.0011
2411.00,0.0011
2410.00,0.0011
2409.00,0.0012
2408.00,0.0012
2407.00,0.0012
2406.00,0.0012
2405.00,0.0011
2404.00,0.0011
2403.00,0.0011
2402.00,0.0010
2401.00,0.0011
2400.00,0.0011
2399.00,0.0011
2398.00,0.0011
2397.00,0.0011
2396.00,0.0011
2395.00,0.0011
2394.00,0.0011
2393.00,0.0011
2392.00,0.0010
2391.00,0.0010
2390.00,0.0009
2389.00,0.0009
2388.00,0.0009
2387.00,0.0009
2386.00,0.0009
2385.00,0.0009
2384.00,0.0009
2383.00,0.0009
2382.00,0.0008
2381.00,0.0008
2380.00,0.0008
2379.00,0.0008
2378.00,0.0008
2377.00,0.0008
2376.00,0.0008
2375.00,0.0008
2374.00,0.0008
2373.00,0.0009
2372.00,0.0009
2371.00,0.0009
2370.00,0.0009
2369.00,0.0008
2368.00,0.0008
2367.00,0.0008
2366.00,0.0008
2365.00,0.0008
2364.00,0.0008
2363.00,0.0008
2362.00,0.0009
2361.00,0.0009
2360.00,0.0010
2359.00,0.0011
2358.00,0.0011
2357.00,0.0011
2356.00,0.0011
2355.00,0.0010
2354.00,0.0010
2353.00,0.0009
2352.00,0.0009
2351.00,0.0009
2350.00,0.0010
2349.00,0.0011
2348.00,0.0011
2347.00,0.0011
2346.00,0.0011
2345.00,0.0011
2344.00,0.0011
2343.00,0.0012
2342.00,0.0013
2341.00,0.0013
2340.00,0.0014
2339.00,0.0014
2338.00,0.0013
2337.00,0.0013
2336.00,0.0012
2335.00,0.0012
2334.00,0.0012
2333.00,0.0012
2332.00,0.0012
2331.00,0.0012
2330.00,0.0012
2329.00,0.0013
2328.00,0.0015
2327.00,0.0018
2326.00,0.0022
2325.00,0.0025
2324.00,0.0026
2323.00,0.0025
2322.00,0.0023
2321.00,0.0021
2320.00,0.0020
2319.00,0.0019
2318.00,0.0019
2317.00,0.0018
2316.00,0.0017
2315.00,0.0017
2314.00,0.0016
2313.00,0.0016
2312.00,0.0015
2311.00,0.0015
2310.00,0.0014
2309.00,0.0014
2308.00,0.0015
2307.00,0.0014
2306.00,0.0014
2305.00,0.0014
2304.00,0.0014
2303.00,0.0014
2302.00,0.0014
2301.00,0.0014
2300.00,0.0014
2299.00,0.0015
2298.00,0.0015
2297.00,0.0016
2296.00,0.0017
2295.00,0.0017
2294.00,0.0018
2293.00,0.0018
2292.00,0.0019
2291.00,0.0020
2290.00,0.0020
2289.00,0.0021
2288.00,0.0021
2287.00,0.0020
2286.00,0.0020
2285.00,0.0020
2284.00,0.0020
2283.00,0.0019
2282.00,0.0018
2281.00,0.0017
2280.00,0.0017
2279.00,0.0017
2278.00,0.0017
2277.00,0.0017
2276.00,0.0016
2275.00,0.0015
2274.00,0.0015
2273.00,0.0016
2272.00,0.0017
2271.00,0.0018
2270.00,0.0018
2269.00,0.0017
2268.00,0.0016
2267.00,0.0015
2266.00,0.0014
2265.00,0.0013
2264.00,0.0012
2263.00,0.0012
2262.00,0.0013
2261.00,0.0014
2260.00,0.0014
2259.00,0.0014
2258.00,0.0014
2257.00,0.0014
2256.00,0.0014
2255.00,0.0013
2254.00,0.0012
2253.00,0.0011
2252.00,0.0011
2251.00,0.0011
2250.00,0.0011
2249.00,0.0011
2248.00,0.0012
2247.00,0.0012
2246.00,0.0012
2245.00,0.0013
2244.00,0.0013
2243.00,0.0013
2242.00,0.0012
2241.00,0.0011
2240.00,0.0010
2239.00,0.0009
2238.00,0.0008
2237.00,0.0007
2236.00,0.0008
2235.00,0.0009
2234.00,0.0010
2233.00,0.0011
2232.00,0.0011
2231.00,0.0009
2230.00,0.0007
2229.00,0.0005
2228.00,0.0005
2227.00,0.0006
2226.00,0.0008
2225.00,0.0009
2224.00,0.0009
2223.00,0.0007
2222.00,0.0005
2221.00,0.0005
2220.00,0.0006
2219.00,0.0008
2218.00,0.0010
2217.00,0.0012
2216.00,0.0012
2215.00,0.0009
2214.00,0.0007
2213.00,0.0005
2212.00,0.0005
2211.00,0.0006
2210.00,0.0007
2209.00,0.0007
2208.00,0.0008
2207.00,0.0009
2206.00,0.0009
2205.00,0.0008
2204.00,0.0008
2203.00,0.0007
2202.00,0.0007
2201.00,0.0007
2200.00,0.0007
2199.00,0.0008
2198.00,0.0008
2197.00,0.0007
2196.00,0.0007
2195.00,0.0008
2194.00,0.0009
2193.00,0.0010
2192.00,0.0011
2191.00,0.0012
2190.00,0.0013
2189.00,0.0014
2188.00,0.0015
2187.00,0.0016
2186.00,0.0017
2185.00,0.0016
2184.00,0.0013
2183.00,0.0010
2182.00,0.0007
2181.00,0.0005
2180.00,0.0006
2179.00,0.0007
2178.00,0.0008
2177.00,0.0006
2176.00,0.0005
2175.00,0.0005
2174.00,0.0009
2173.00,0.0012
2172.00,0.0014
2171.00,0.0014
2170.00,0.0012
2169.00,0.0011
2168.00,0.0011
2167.00,0.0012
2166.00,0.0013
2165.00,0.0014
2164.00,0.0014
2163.00,0.0016
2162.00,0.0019
2161.00,0.0018
2160.00,0.0010
2159.00,-0.0005
2158.00,-0.0020
2157.00,-0.0030
2156.00,-0.0032
2155.00,-0.0030
2154.00,-0.0026
2153.00,-0.0023
2152.00,-0.0020
2151.00,-0.0019
2150.00,-0.0018
2149.00,-0.0017
2148.00,-0.0014
2147.00,-0.0012
2146.00,-0.0010
2145.00,-0.0008
2144.00,-0.0007
2143.00,-0.0007
2142.00,-0.0008
2141.00,-0.0010
2140.00,-0.0011
2139.00,-0.0011
2138.00,-0.0010
2137.00,-0.0010
2136.00,-0.0010
2135.00,-0.0012
2134.00,-0.0014
2133.00,-0.0016
2132.00,-0.0015
2131.00,-0.0013
2130.00,-0.0010
2129.00,-0.0007
2128.00,-0.0005
2127.00,-0.0004
2126.00,-0.0004
2125.00,-0.0004
2124.00,-0.0003
2123.00,-0.0003
2122.00,-0.0002
2121.00,-0.0002
2120.00,-0.0000
2119.00,0.0001
2118.00,0.0002
2117.00,0.0002
2116.00,0.0003
2115.00,0.0003
2114.00,0.0004
2113.00,0.0005
2112.00,0.0005
2111.00,0.0005
2110.00,0.0004
2109.00,0.0004
2108.00,0.0003
2107.00,0.0002
2106.00,-0.0000
2105.00,-0.0001
2104.00,-0.0001
2103.00,0.0000
2102.00,0.0002
2101.00,0.0003
2100.00,0.0003
2099.00,0.0003
2098.00,0.0002
2097.00,0.0001
2096.00,-0.0001
2095.00,-0.0003
2094.00,-0.0004
2093.00,-0.0004
2092.00,-0.0003
2091.00,-0.0001
2090.00,0.0001
2089.00,0.0003
2088.00,0.0005
2087.00,0.0005
2086.00,0.0005
2085.00,0.0004
2084.00,0.0003
2083.00,0.0002
2082.00,0.0001
2081.00,0.0001
2080.00,0.0001
2079.00,0.0002
2078.00,0.0003
2077.00,0.0003
2076.00,0.0003
2075.00,0.0002
2074.00,0.0001
2073.00,0.0001
2072.00,0.0002
2071.00,0.0004
2070.00,0.0004
2069.00,0.0003
2068.00,0.0002
2067.00,0.0001
2066.00,0.0001
2065.00,0.0001
2064.00,0.0000
2063.00,-0.0001
2062.00,-0.0001
2061.00,-0.0000
2060.00,0.0002
2059.00,0.0004
2058.00,0.0005
2057.00,0.0005
2056.00,0.0004
2055.00,0.0003
2054.00,0.0003
2053.00,0.0006
2052.00,0.0011
2051.00,0.0015
2050.00,0.0014
2049.00,0.0009
2048.00,0.0003
2047.00,0.0000
2046.00,0.0001
2045.00,0.0003
2044.00,0.0006
2043.00,0.0007
2042.00,0.0006
2041.00,0.0004
2040.00,0.0002
2039.00,0.0002
2038.00,0.0001
2037.00,0.0001
2036.00,-0.0001
2035.00,-0.0004
2034.00,-0.0007
2033.00,-0.0009
2032.00,-0.0010
2031.00,-0.0011
2030.00,-0.0012
2029.00,-0.0012
2028.00,-0.0011
2027.00,-0.0010
2026.00,-0.0008
2025.00,-0.0005
2024.00,-0.0002
2023.00,-0.0000
2022.00,-0.0002
2021.00,-0.0005
2020.00,-0.0009
2019.00,-0.0012
2018.00,-0.0013
2017.00,-0.0012
2016.00,-0.0010
2015.00,-0.0008
2014.00,-0.0009
2013.00,-0.0011
2012.00,-0.0011
2011.00,-0.0010
2010.00,-0.0010
2009.00,-0.0010
2008.00,-0.0012
2007.00,-0.0013
2006.00,-0.0014
2005.00,-0.0014
2004.00,-0.0014
2003.00,-0.0015
2002.00,-0.0016
2001.00,-0.0017
2000.00,-0.0018
1999.00,-0.0018
1998.00,-0.0016
1997.00,-0.0014
1996.00,-0.0011
1995.00,-0.0008
1994.00,-0.0005
1993.00,-0.0003
1992.00,-0.0002
1991.00,-0.0004
1990.00,-0.0005
1989.00,-0.0005
1988.00,-0.0003
1987.00,-0.0002
1986.00,-0.0002
1985.00,-0.0002
1984.00,-0.0001
1983.00,0.0000
1982.00,0.0004
1981.00,0.0008
1980.00,0.0011
1979.00,0.0011
1978.00,0.0006
1977.00,-0.0000
1976.00,-0.0007
1975.00,-0.0010
1974.00,-0.0012
1973.00,-0.0011
1972.00,-0.0011
1971.00,-0.0013
1970.00,-0.0015
1969.00,-0.0016
1968.00,-0.0014
1967.00,-0.0011
1966.00,-0.0009
1965.00,-0.0009
1964.00,-0.0010
1963.00,-0.0013
1962.00,-0.0015
1961.00,-0.0017
1960.00,-0.0017
1959.00,-0.0016
1958.00,-0.0015
1957.00,-0.0014
1956.00,-0.0012
1955.00,-0.0012
1954.00,-0.0013
1953.00,-0.0015
1952.00,-0.0016
1951.00,-0.0018
1950.00,-0.0017
1949.00,-0.0015
1948.00,-0.0013
1947.00,-0.0011
1946.00,-0.0011
1945.00,-0.0011
1944.00,-0.0012
1943.00,-0.0012
1942.00,-0.0011
1941.00,-0.0010
1940.00,-0.0008
1939.00,-0.0007
1938.00,-0.0007
1937.00,-0.0008
1936.00,-0.0009
1935.00,-0.0011
1934.00,-0.0011
1933.00,-0.0011
1932.00,-0.0010
1931.00,-0.0009
1930.00,-0.0008
1929.00,-0.0007
1928.00,-0.0005
1927.00,-0.0004
1926.00,-0.0003
1925.00,-0.0004
1924.00,-0.0004
1923.00,-0.0004
1922.00,-0.0004
1921.00,-0.0003
1920.00,-0.0003
1919.00,-0.0003
1918.00,-0.0004
1917.00,-0.0004
1916.00,-0.0004
1915.00,-0.0004
1914.00,-0.0004
1913.00,-0.0003
1912.00,-0.0002
1911.00,-0.0001
1910.00,-0.0000
1909.00,-0.0000
1908.00,-0.0001
1907.00,-0.0001
1906.00,-0.0001
1905.00,-0.0001
1904.00,0.0000
1903.00,0.0001
1902.00,0.0001
1901.00,0.0001
1900.00,0.0001
1899.00,0.0001
1898.00,0.0001
1897.00,0.0002
1896.00,0.0002
1895.00,0.0002
1894.00,0.0001
1893.00,-0.0001
1892.00,-0.0002
1891.00,-0.0002
1890.00,-0.0002
1889.00,-0.0002
1888.00,-0.0001
1887.00,-0.0002
1886.00,-0.0002
1885.00,-0.0002
1884.00,-0.0001
1883.00,0.0001
1882.00,0.0002
1881.00,0.0002
1880.00,0.0002
1879.00,0.0001
1878.00,0.0000
1877.00,-0.0000
1876.00,-0.0000
1875.00,-0.0000
1874.00,0.0000
1873.00,0.0000
1872.00,-0.0000
1871.00,-0.0001
1870.00,-0.0001
1869.00,0.0000
1868.00,0.0001
1867.00,0.0002
1866.00,0.0002
1865.00,0.0002
1864.00,0.0002
1863.00,0.0002
1862.00,0.0002
1861.00,0.0002
1860.00,0.0002
1859.00,0.0002
1858.00,0.0002
1857.00,0.0002
1856.00,0.0002
1855.00,0.0002
1854.00,0.0002
1853.00,0.0003
1852.00,0.0003
1851.00,0.0004
1850.00,0.0004
1849.00,0.0003
1848.00,0.0003
1847.00,0.0002
1846.00,0.0002
1845.00,0.0002
1844.00,0.0003
1843.00,0.0004
1842.00,0.0005
1841.00,0.0005
1840.00,0.0005
1839.00,0.0005
1838.00,0.0004
1837.00,0.0004
1836.00,0.0004
1835.00,0.0004
1834.00,0.0004
1833.00,0.0004
1832.00,0.0004
1831.00,0.0004
1830.00,0.0004
1829.00,0.0005
1828.00,0.0006
1827.00,0.0006
1826.00,0.0006
1825.00,0.0006
1824.00,0.0006
1823.00,0.0006
1822.00,0.0005
1821.00,0.0004
1820.00,0.0003
1819.00,0.0003
1818.00,0.0002
1817.00,0.0002
1816.00,0.0001
1815.00,0.0002
1814.00,0.0002
1813.00,0.0002
1812.00,0.0003
1811.00,0.0003
1810.00,0.0004
1809.00,0.0005
1808.00,0.0005
1807.00,0.0006
1806.00,0.0006
1805.00,0.0006
1804.00,0.0006
1803.00,0.0006
1802.00,0.0006
1801.00,0.0006
1800.00,0.0006
1799.00,0.0006
1798.00,0.0006
1797.00,0.0006
1796.00,0.0007
1795.00,0.0007
1794.00,0.0007
1793.00,0.0007
1792.00,0.0007
1791.00,0.0007
1790.00,0.0007
1789.00,0.0008
1788.00,0.0008
1787.00,0.0008
1786.00,0.0008
1785.00,0.0009
1784.00,0.0009
1783.00,0.0009
1782.00,0.0009
1781.00,0.0010
1780.00,0.0010
1779.00,0.0009
1778.00,0.0008
1777.00,0.0008
1776.00,0.0008
1775.00,0.0008
1774.00,0.0008
1773.00,0.0008
1772.00,0.0008
1771.00,0.0008
1770.00,0.0009
1769.00,0.0010
1768.00,0.0011
1767.00,0.0011
1766.00,0.0012
1765.00,0.0012
1764.00,0.0012
1763.00,0.0013
1762.00,0.0013
1761.00,0.0013
1760.00,0.0013
1759.00,0.0014
1758.00,0.0014
1757.00,0.0015
1756.00,0.0015
1755.00,0.0016
1754.00,0.0016
1753.00,0.0017
1752.00,0.0017
1751.00,0.0016
1750.00,0.0016
1749.00,0.0017
1748.00,0.0017
1747.00,0.0018
1746.00,0.0018
1745.00,0.0019
1744.00,0.0020
1743.00,0.0020
1742.00,0.0020
1741.00,0.0019
1740.00,0.0019
1739.00,0.0019
1738.00,0.0019
1737.00,0.0019
1736.00,0.0019
1735.00,0.0019
1734.00,0.0020
1733.00,0.0020
1732.00,0.0020
1731.00,0.0021
1730.00,0.0021
1729.00,0.0022
1728.00,0.0022
1727.00,0.0022
1726.00,0.0022
1725.00,0.0021
1724.00,0.0021
1723.00,0.0021
1722.00,0.0021
1721.00,0.0021
1720.00,0.0021
1719.00,0.0021
1718.00,0.0021
1717.00,0.0021
1716.00,0.0022
1715.00,0.0022
1714.00,0.0022
1713.00,0.0022
1712.00,0.0022
1711.00,0.0022
1710.00,0.0022
1709.00,0.0022
1708.00,0.0023
1707.00,0.0023
1706.00,0.0024
1705.00,0.0025
1704.00,0.0026
1703.00,0.0026
1702.00,0.0027
1701.00,0.0027
1700.00,0.0027
1699.00,0.0027
1698.00,0.0027
1697.00,0.0028
1696.00,0.0028
1695.00,0.0029
1694.00,0.0030
1693.00,0.0030
1692.00,0.0030
1691.00,0.0031
1690.00,0.0031
1689.00,0.0032
1688.00,0.0032
1687.00,0.0033
1686.00,0.0033
1685.00,0.0034
1684.00,0.0035
1683.00,0.0036
1682.00,0.0037
1681.00,0.0037
1680.00,0.0038
1679.00,0.0038
1678.00,0.0039
1677.00,0.0039
1676.00,0.0039
1675.00,0.0040
1674.00,0.0040
1673.00,0.0040
1672.00,0.0040
1671.00,0.0040
1670.00,0.0041
1669.00,0.0042
1668.00,0.0043
1667.00,0.0044
1666.00,0.0044
1665.00,0.0045
1664.00,0.0045
1663.00,0.0045
1662.00,0.0045
1661.00,0.0045
1660.00,0.0046
1659.00,0.0046
1658.00,0.0046
1657.00,0.0047
1656.00,0.0048
1655.00,0.0048
1654.00,0.0048
1653.00,0.0048
1652.00,0.0050
1651.00,0.0051
1650.00,0.0052
1649.00,0.0052
1648.00,0.0053
1647.00,0.0054
1646.00,0.0054
1645.00,0.0054
1644.00,0.0054
1643.00,0.0054
1642.00,0.0053
1641.00,0.0053
1640.00,0.0054
1639.00,0.0054
1638.00,0.0054
1637.00,0.0053
1636.00,0.0053
1635.00,0.0053
1634.00,0.0053
1633.00,0.0054
1632.00,0.0055
1631.00,0.0056
1630.00,0.0056
1629.00,0.0055
1628.00,0.0055
1627.00,0.0054
1626.00,0.0054
1625.00,0.0054
1624.00,0.0053
1623.00,0.0052
1622.00,0.0052
1621.00,0.0052
1620.00,0.0052
1619.00,0.0052
1618.00,0.0052
1617.00,0.0052
1616.00,0.0051
1615.00,0.0051
1614.00,0.0050
1613.00,0.0050
1612.00,0.0051
1611.00,0.0051
1610.00,0.0050
1609.00,0.0051
1608.00,0.0051
1607.00,0.0051
1606.00,0.0051
1605.00,0.0051
1604.00,0.0051
1603.00,0.0050
1602.00,0.0050
1601.00,0.0050
1600.00,0.0050
1599.00,0.0050
1598.00,0.0051
1597.00,0.0051
1596.00,0.0051
1595.00,0.0051
1594.00,0.0052
1593.00,0.0052
1592.00,0.0052
1591.00,0.0052
1590.00,0.0053
1589.00,0.0054
1588.00,0.0055
1587.00,0.0056
1586.00,0.0058
1585.00,0.0060
1584.00,0.0063
1583.00,0.0065
1582.00,0.0068
1581.00,0.0071
1580.00,0.0073
1579.00,0.0075
1578.00,0.0076
1577.00,0.0076
1576.00,0.0076
1575.00,0.0075
1574.00,0.0073
1573.00,0.0072
1572.00,0.0071
1571.00,0.0069
1570.00,0.0066
1569.00,0.0063
1568.00,0.0061
1567.00,0.0060
1566.00,0.0059
1565.00,0.0058
1564.00,0.0058
1563.00,0.0058
1562.00,0.0058
1561.00,0.0059
1560.00,0.0059
1559.00,0.0058
1558.00,0.0057
1557.00,0.0057
1556.00,0.0057
1555.00,0.0058
1554.00,0.0058
1553.00,0.0059
1552.00,0.0060
1551.00,0.0062
1550.00,0.0063
1549.00,0.0065
1548.00,0.0067
1547.00,0.0069
1546.00,0.0072
1545.00,0.0074
1544.00,0.0077
1543.00,0.0079
1542.00,0.0080
1541.00,0.0082
1540.00,0.0082
1539.00,0.0080
1538.00,0.0077
1537.00,0.0075
1536.00,0.0073
1535.00,0.0070
1534.00,0.0066
1533.00,0.0063
1532.00,0.0061
1531.00,0.0060
1530.00,0.0059
1529.00,0.0058
1528.00,0.0058
1527.00,0.0058
1526.00,0.0057
1525.00,0.0057
1524.00,0.0057
1523.00,0.0058
1522.00,0.0058
1521.00,0.0059
1520.00,0.0059
1519.00,0.0059
1518.00,0.0058
1517.00,0.0058
1516.00,0.0058
1515.00,0.0058
1514.00,0.0058
1513.00,0.0059
1512.00,0.0060
1511.00,0.0061
1510.00,0.0062
1509.00,0.0063
1508.00,0.0064
1507.00,0.0064
1506.00,0.0065
1505.00,0.0067
1504.00,0.0069
1503.00,0.0070
1502.00,0.0071
1501.00,0.0073
1500.00,0.0075
1499.00,0.0076
1498.00,0.0078
1497.00,0.0081
1496.00,0.0086
1495.00,0.0089
1494.00,0.0092
1493.00,0.0095
1492.00,0.0098
1491.00,0.0102
1490.00,0.0107
1489.00,0.0112
1488.00,0.0119
1487.00,0.0124
1486.00,0.0130
1485.00,0.0137
1484.00,0.0145
1483.00,0.0153
1482.00,0.0163
1481.00,0.0175
1480.00,0.0188
1479.00,0.0202
1478.00,0.0218
1477.00,0.0239
1476.00,0.0265
1475.00,0.0295
1474.00,0.0335
1473.00,0.0393
1472.00,0.0462
1471.00,0.0528
1470.00,0.0591
1469.00,0.0657
1468.00,0.0729
1467.00,0.0809
1466.00,0.0901
1465.00,0.1000
1464.00,0.1087
1463.00,0.1146
1462.00,0.1182
1461.00,0.1206
1460.00,0.1220
1459.00,0.1228
1458.00,0.1232
1457.00,0.1233
1456.00,0.1227
1455.00,0.1215
1454.00,0.1200
1453.00,0.1180
1452.00,0.1151
1451.00,0.1111
1450.00,0.1058
1449.00,0.0986
1448.00,0.0895
1447.00,0.0800
1446.00,0.0715
1445.00,0.0643
1444.00,0.0582
1443.00,0.0532
1442.00,0.0494
1441.00,0.0468
1440.00,0.0453
1439.00,0.0447
1438.00,0.0450
1437.00,0.0455
1436.00,0.0449
1435.00,0.0426
1434.00,0.0390
1433.00,0.0346
1432.00,0.0299
1431.00,0.0258
1430.00,0.0226
1429.00,0.0203
1428.00,0.0187
1427.00,0.0177
1426.00,0.0170
1425.00,0.0164
1424.00,0.0158
1423.00,0.0154
1422.00,0.0152
1421.00,0.0149
1420.00,0.0145
1419.00,0.0142
1418.00,0.0139
1417.00,0.0136
1416.00,0.0133
1415.00,0.0131
1414.00,0.0130
1413.00,0.0129
1412.00,0.0127
1411.00,0.0125
1410.00,0.0125
1409.00,0.0123
1408.00,0.0122
1407.00,0.0121
1406.00,0.0121
1405.00,0.0120
1404.00,0.0119
1403.00,0.0120
1402.00,0.0122
1401.00,0.0123
1400.00,0.0123
1399.00,0.0125
1398.00,0.0127
1397.00,0.0128
1396.00,0.0130
1395.00,0.0133
1394.00,0.0138
1393.00,0.0143
1392.00,0.0149
1391.00,0.0157
1390.00,0.0168
1389.00,0.0181
1388.00,0.0202
1387.00,0.0233
1386.00,0.0276
1385.00,0.0332
1384.00,0.0410
1383.00,0.0520
1382.00,0.0668
1381.00,0.0862
1380.00,0.1108
1379.00,0.1397
1378.00,0.1688
1377.00,0.1916
1376.00,0.2011
1375.00,0.1930
1374.00,0.1695
1373.00,0.1400
1372.00,0.1126
1371.00,0.0898
1370.00,0.0716
1369.00,0.0578
1368.00,0.0483
1367.00,0.0425
1366.00,0.0394
1365.00,0.0382
1364.00,0.0385
1363.00,0.0401
1362.00,0.0425
1361.00,0.0450
1360.00,0.0469
1359.00,0.0475
1358.00,0.0464
1357.00,0.0437
1356.00,0.0399
1355.00,0.0355
1354.00,0.0312
1353.00,0.0276
1352.00,0.0247
1351.00,0.0225
1350.00,0.0206
1349.00,0.0190
1348.00,0.0177
1347.00,0.0166
1346.00,0.0156
1345.00,0.0148
1344.00,0.0142
1343.00,0.0138
1342.00,0.0134
1341.00,0.0131
1340.00,0.0128
1339.00,0.0125
1338.00,0.0124
1337.00,0.0123
1336.00,0.0124
1335.00,0.0126
1334.00,0.0129
1333.00,0.0134
1332.00,0.0138
1331.00,0.0141
1330.00,0.0142
1329.00,0.0141
1328.00,0.0137
1327.00,0.0132
1326.00,0.0126
1325.00,0.0120
1324.00,0.0115
1323.00,0.0110
1322.00,0.0106
1321.00,0.0103
1320.00,0.0100
1319.00,0.0098
1318.00,0.0096
1317.00,0.0094
1316.00,0.0093
1315.00,0.0092
1314.00,0.0091
1313.00,0.0091
1312.00,0.0092
1311.00,0.0093
1310.00,0.0096
1309.00,0.0101
1308.00,0.0109
1307.00,0.0119
1306.00,0.0129
1305.00,0.0136
1304.00,0.0138
1303.00,0.0136
1302.00,0.0133
1301.00,0.0130
1300.00,0.0128
1299.00,0.0129
1298.00,0.0131
1297.00,0.0132
1296.00,0.0131
1295.00,0.0129
1294.00,0.0125
1293.00,0.0120
1292.00,0.0115
1291.00,0.0109
1290.00,0.0105
1289.00,0.0100
1288.00,0.0097
1287.00,0.0094
1286.00,0.0092
1285.00,0.0091
1284.00,0.0089
1283.00,0.0088
1282.00,0.0086
1281.00,0.0084
1280.00,0.0083
1279.00,0.0081
1278.00,0.0081
1277.00,0.0080
1276.00,0.0080
1275.00,0.0079
1274.00,0.0080
1273.00,0.0080
1272.00,0.0080
1271.00,0.0081
1270.00,0.0082
1269.00,0.0083
1268.00,0.0084
1267.00,0.0086
1266.00,0.0088
1265.00,0.0090
1264.00,0.0092
1263.00,0.0095
1262.00,0.0098
1261.00,0.0102
1260.00,0.0107
1259.00,0.0113
1258.00,0.0119
1257.00,0.0124
1256.00,0.0126
1255.00,0.0125
1254.00,0.0120
1253.00,0.0113
1252.00,0.0105
1251.00,0.0099
1250.00,0.0094
1249.00,0.0090
1248.00,0.0087
1247.00,0.0085
1246.00,0.0084
1245.00,0.0083
1244.00,0.0081
1243.00,0.0080
1242.00,0.0079
1241.00,0.0079
1240.00,0.0079
1239.00,0.0079
1238.00,0.0079
1237.00,0.0079
1236.00,0.0078
1235.00,0.0078
1234.00,0.0078
1233.00,0.0079
1232.00,0.0079
1231.00,0.0079
1230.00,0.0081
1229.00,0.0082
1228.00,0.0084
1227.00,0.0086
1226.00,0.0088
1225.00,0.0091
1224.00,0.0094
1223.00,0.0097
1222.00,0.0101
1221.00,0.0104
1220.00,0.0106
1219.00,0.0106
1218.00,0.0106
1217.00,0.0103
1216.00,0.0100
1215.00,0.0097
1214.00,0.0094
1213.00,0.0091
1212.00,0.0088
1211.00,0.0086
1210.00,0.0085
1209.00,0.0083
1208.00,0.0082
1207.00,0.0081
1206.00,0.0081
1205.00,0.0080
1204.00,0.0080
1203.00,0.0080
1202.00,0.0079
1201.00,0.0079
1200.00,0.0079
1199.00,0.0079
1198.00,0.0079
1197.00,0.0079
1196.00,0.0078
1195.00,0.0078
1194.00,0.0078
1193.00,0.0078
1192.00,0.0078
1191.00,0.0078
1190.00,0.0079
1189.00,0.0079
1188.00,0.0079
1187.00,0.0078
1186.00,0.0079
1185.00,0.0079
1184.00,0.0081
1183.00,0.0082
1182.00,0.0084
1181.00,0.0086
1180.00,0.0089
1179.00,0.0094
1178.00,0.0099
1177.00,0.0106
1176.00,0.0116
1175.00,0.0128
1174.00,0.0144
1173.00,0.0165
1172.00,0.0190
1171.00,0.0219
1170.00,0.0247
1169.00,0.0270
1168.00,0.0284
1167.00,0.0287
1166.00,0.0281
1165.00,0.0269
1164.00,0.0255
1163.00,0.0242
1162.00,0.0230
1161.00,0.0220
1160.00,0.0212
1159.00,0.0206
1158.00,0.0202
1157.00,0.0199
1156.00,0.0199
1155.00,0.0198
1154.00,0.0197
1153.00,0.0195
1152.00,0.0190
1151.00,0.0184
1150.00,0.0175
1149.00,0.0166
1148.00,0.0157
1147.00,0.0148
1146.00,0.0140
1145.00,0.0132
1144.00,0.0125
1143.00,0.0118
1142.00,0.0112
1141.00,0.0106
1140.00,0.0101
1139.00,0.0097
1138.00,0.0094
1137.00,0.0091
1136.00,0.0088
1135.00,0.0086
1134.00,0.0084
1133.00,0.0083
1132.00,0.0083
1131.00,0.0082
1130.00,0.0082
1129.00,0.0082
1128.00,0.0082
1127.00,0.0082
1126.00,0.0082
1125.00,0.0083
1124.00,0.0084
1123.00,0.0084
1122.00,0.0085
1121.00,0.0086
1120.00,0.0087
1119.00,0.0088
1118.00,0.0088
1117.00,0.0088
1116.00,0.0089
1115.00,0.0091
1114.00,0.0093
1113.00,0.0096
1112.00,0.0099
1111.00,0.0102
1110.00,0.0105
1109.00,0.0108
1108.00,0.0113
1107.00,0.0118
1106.00,0.0125
1105.00,0.0131
1104.00,0.0137
1103.00,0.0140
1102.00,0.0140
1101.00,0.0136
1100.00,0.0130
1099.00,0.0123
1098.00,0.0117
1097.00,0.0111
1096.00,0.0106
1095.00,0.0102
1094.00,0.0099
1093.00,0.0096
1092.00,0.0094
1091.00,0.0092
1090.00,0.0091
1089.00,0.0090
1088.00,0.0089
1087.00,0.0089
1086.00,0.0089
1085.00,0.0089
1084.00,0.0089
1083.00,0.0089
1082.00,0.0088
1081.00,0.0087
1080.00,0.0085
1079.00,0.0082
1078.00,0.0081
1077.00,0.0080
1076.00,0.0080
1075.00,0.0081
1074.00,0.0081
1073.00,0.0080
1072.00,0.0079
1071.00,0.0078
1070.00,0.0077
1069.00,0.0077
1068.00,0.0077
1067.00,0.0077
1066.00,0.0077
1065.00,0.0077
1064.00,0.0077
1063.00,0.0077
1062.00,0.0077
1061.00,0.0077
1060.00,0.0077
1059.00,0.0078
1058.00,0.0079
1057.00,0.0080
1056.00,0.0081
1055.00,0.0082
1054.00,0.0083
1053.00,0.0085
1052.00,0.0087
1051.00,0.0088
1050.00,0.0091
1049.00,0.0094
1048.00,0.0097
1047.00,0.0100
1046.00,0.0103
1045.00,0.0103
1044.00,0.0103
1043.00,0.0101
1042.00,0.0099
1041.00,0.0097
1040.00,0.0096
1039.00,0.0096
1038.00,0.0096
1037.00,0.0097
1036.00,0.0098
1035.00,0.0098
1034.00,0.0098
1033.00,0.0096
1032.00,0.0093
1031.00,0.0092
1030.00,0.0091
1029.00,0.0090
1028.00,0.0090
1027.00,0.0090
1026.00,0.0091
1025.00,0.0092
1024.00,0.0092
1023.00,0.0093
1022.00,0.0094
1021.00,0.0095
1020.00,0.0097
1019.00,0.0099
1018.00,0.0101
1017.00,0.0102
1016.00,0.0103
1015.00,0.0105
1014.00,0.0107
1013.00,0.0109
1012.00,0.0111
1011.00,0.0113
1010.00,0.0115
1009.00,0.0117
1008.00,0.0120
1007.00,0.0125
1006.00,0.0132
1005.00,0.0141
1004.00,0.0154
1003.00,0.0173
1002.00,0.0199
1001.00,0.0231
1000.00,0.0265
999.00,0.0292
998.00,0.0304
997.00,0.0298
996.00,0.0274
995.00,0.0241
994.00,0.0207
993.00,0.0177
992.00,0.0154
991.00,0.0137
990.00,0.0125
989.00,0.0117
988.00,0.0112
987.00,0.0110
986.00,0.0110
985.00,0.0111
984.00,0.0114
983.00,0.0121
982.00,0.0131
981.00,0.0147
980.00,0.0169
979.00,0.0197
978.00,0.0230
977.00,0.0269
976.00,0.0308
975.00,0.0344
974.00,0.0368
973.00,0.0374
972.00,0.0358
971.00,0.0324
970.00,0.0279
969.00,0.0234
968.00,0.0196
967.00,0.0167
966.00,0.0147
965.00,0.0132
964.00,0.0121
963.00,0.0113
962.00,0.0106
961.00,0.0101
960.00,0.0097
959.00,0.0093
958.00,0.0090
957.00,0.0087
956.00,0.0085
955.00,0.0083
954.00,0.0083
953.00,0.0082
952.00,0.0080
951.00,0.0079
950.00,0.0079
949.00,0.0078
948.00,0.0078
947.00,0.0079
946.00,0.0080
945.00,0.0083
944.00,0.0085
943.00,0.0088
942.00,0.0090
941.00,0.0092
940.00,0.0092
939.00,0.0090
938.00,0.0086
937.00,0.0081
936.00,0.0076
935.00,0.0071
934.00,0.0067
933.00,0.0065
932.00,0.0064
931.00,0.0063
930.00,0.0062
929.00,0.0061
928.00,0.0061
927.00,0.0061
926.00,0.0061
925.00,0.0062
924.00,0.0061
923.00,0.0061
922.00,0.0060
921.00,0.0060
920.00,0.0061
919.00,0.0062
918.00,0.0063
917.00,0.0063
916.00,0.0064
915.00,0.0064
914.00,0.0065
913.00,0.0066
912.00,0.0067
911.00,0.0068
910.00,0.0070
909.00,0.0073
908.00,0.0076
907.00,0.0081
906.00,0.0089
905.00,0.0101
904.00,0.0117
903.00,0.0137
902.00,0.0158
901.00,0.0176
900.00,0.0188
899.00,0.0191
898.00,0.0182
897.00,0.0165
896.00,0.0145
895.00,0.0125
894.00,0.0109
893.00,0.0098
892.00,0.0089
891.00,0.0083
890.00,0.0079
889.00,0.0077
888.00,0.0075
887.00,0.0075
886.00,0.0075
885.00,0.0075
884.00,0.0075
883.00,0.0074
882.00,0.0074
881.00,0.0074
880.00,0.0076
879.00,0.0078
878.00,0.0080
877.00,0.0082
876.00,0.0083
875.00,0.0082
874.00,0.0081
873.00,0.0080
872.00,0.0080
871.00,0.0080
870.00,0.0080
869.00,0.0080
868.00,0.0080
867.00,0.0080
866.00,0.0079
865.00,0.0079
864.00,0.0079
863.00,0.0080
862.00,0.0082
861.00,0.0083
860.00,0.0084
859.00,0.0086
858.00,0.0087
857.00,0.0087
856.00,0.0088
855.00,0.0089
854.00,0.0090
853.00,0.0093
852.00,0.0096
851.00,0.0099
850.00,0.0103
849.00,0.0109
848.00,0.0117
847.00,0.0129
846.00,0.0146
845.00,0.0172
844.00,0.0207
843.00,0.0247
842.00,0.0279
841.00,0.0287
840.00,0.0267
839.00,0.0227
838.00,0.0186
837.00,0.0154
836.00,0.0135
835.00,0.0124
834.00,0.0117
833.00,0.0112
832.00,0.0107
831.00,0.0103
830.00,0.0099
829.00,0.0097
828.00,0.0096
827.00,0.0095
826.00,0.0095
825.00,0.0095
824.00,0.0095
823.00,0.0096
822.00,0.0098
821.00,0.0100
820.00,0.0103
819.00,0.0105
818.00,0.0109
817.00,0.0114
816.00,0.0122
815.00,0.0134
814.00,0.0150
813.00,0.0171
812.00,0.0192
811.00,0.0212
810.00,0.0225
809.00,0.0231
808.00,0.0227
807.00,0.0214
806.00,0.0195
805.00,0.0175
804.00,0.0157
803.00,0.0142
802.00,0.0131
801.00,0.0122
800.00,0.0115
799.00,0.0110
798.00,0.0105
797.00,0.0101
796.00,0.0097
795.00,0.0093
794.00,0.0090
793.00,0.0087
792.00,0.0085
791.00,0.0083
790.00,0.0081
789.00,0.0079
788.00,0.0077
787.00,0.0074
786.00,0.0072
785.00,0.0069
784.00,0.0068
783.00,0.0066
782.00,0.0065
781.00,0.0064
780.00,0.0064
779.00,0.0064
778.00,0.0064
777.00,0.0063
776.00,0.0061
775.00,0.0059
774.00,0.0059
773.00,0.0059
772.00,0.0060
771.00,0.0061
770.00,0.0061
769.00,0.0061
768.00,0.0061
767.00,0.0061
766.00,0.0061
765.00,0.0061
764.00,0.0060
763.00,0.0060
762.00,0.0061
761.00,0.0061
760.00,0.0062
759.00,0.0063
758.00,0.0063
757.00,0.0063
756.00,0.0063
755.00,0.0064
754.00,0.0064
753.00,0.0065
752.00,0.0066
751.00,0.0066
750.00,0.0066
749.00,0.0066
748.00,0.0066
747.00,0.0067
746.00,0.0069
745.00,0.0071
744.00,0.0074
743.00,0.0075
742.00,0.0076
741.00,0.0077
740.00,0.0078
739.00,0.0081
738.00,0.0083
737.00,0.0085
736.00,0.0088
735.00,0.0091
734.00,0.0097
733.00,0.0104
732.00,0.0111
731.00,0.0119
730.00,0.0125
729.00,0.0128
728.00,0.0129
727.00,0.0129
726.00,0.0129
725.00,0.0130
724.00,0.0134
723.00,0.0140
722.00,0.0149
721.00,0.0154
720.00,0.0154
719.00,0.0146
718.00,0.0133
717.00,0.0120
716.00,0.0108
715.00,0.0099
714.00,0.0093
713.00,0.0090
712.00,0.0087
711.00,0.0084
710.00,0.0081
709.00,0.0079
708.00,0.0078
707.00,0.0078
706.00,0.0077
705.00,0.0076
704.00,0.0075
703.00,0.0073
702.00,0.0071
701.00,0.0069
700.00,0.0066
699.00,0.0065
698.00,0.0063
697.00,0.0062
696.00,0.0061
695.00,0.0061
694.00,0.0063
693.00,0.0064
692.00,0.0064
691.00,0.0064
690.00,0.0063
689.00,0.0062
688.00,0.0061
687.00,0.0061
686.00,0.0062
685.00,0.0062
684.00,0.0061
683.00,0.0060
682.00,0.0058
681.00,0.0057
680.00,0.0056
679.00,0.0056
678.00,0.0056
677.00,0.0057
676.00,0.0059
675.00,0.0060
674.00,0.0060
673.00,0.0060
672.00,0.0059
671.00,0.0060
670.00,0.0062
669.00,0.0065
668.00,0.0068
667.00,0.0069
666.00,0.0069
665.00,0.0066
664.00,0.0064
663.00,0.0061
662.00,0.0058
661.00,0.0056
660.00,0.0056
659.00,0.0056
658.00,0.0057
657.00,0.0058
656.00,0.0059
655.00,0.0060
654.00,0.0060
653.00,0.0060
652.00,0.0059
651.00,0.0058
650.00,0.0058
649.00,0.0058
648.00,0.0059
647.00,0.0061
646.00,0.0061
645.00,0.0061
644.00,0.0061
643.00,0.0062
642.00,0.0062
641.00,0.0063
640.00,0.0063
639.00,0.0064
638.00,0.0064
637.00,0.0063
636.00,0.0061
635.00,0.0060
634.00,0.0059
633.00,0.0059
632.00,0.0060
631.00,0.0060
630.00,0.0061
629.00,0.0060
628.00,0.0059
627.00,0.0058
626.00,0.0059
625.00,0.0060
624.00,0.0061
623.00,0.0061
622.00,0.0062
621.00,0.0063
620.00,0.0064
619.00,0.0065
618.00,0.0065
617.00,0.0064
616.00,0.0064
615.00,0.0063
614.00,0.0062
613.00,0.0061
612.00,0.0061
611.00,0.0063
610.00,0.0066
609.00,0.0068
608.00,0.0068
607.00,0.0066
606.00,0.0064
605.00,0.0064
604.00,0.0065
603.00,0.0065
602.00,0.0065
601.00,0.0064
600.00,0.0063
599.00,0.0061
598.00,0.0060
597.00,0.0058
596.00,0.0058
595.00,0.0060
594.00,0.0064
593.00,0.0068
592.00,0.0071
591.00,0.0071
590.00,0.0070
589.00,0.0068
588.00,0.0065
587.00,0.0062
586.00,0.0059
585.00,0.0057
584.00,0.0059
583.00,0.0062
582.00,0.0063
581.00,0.0061
580.00,0.0058
579.00,0.0058
578.00,0.0061
577.00,0.0066
576.00,0.0070
575.00,0.0071
574.00,0.0071
573.00,0.0069
572.00,0.0068
571.00,0.0067
570.00,0.0066
569.00,0.0065
568.00,0.0064
567.00,0.0063
566.00,0.0063
565.00,0.0064
564.00,0.0065
563.00,0.0066
562.00,0.0067
561.00,0.0068
560.00,0.0069
559.00,0.0070
558.00,0.0069
557.00,0.0068
556.00,0.0067
555.00,0.0065
554.00,0.0063
553.00,0.0061
552.00,0.0061
551.00,0.0062
550.00,0.0064
549.00,0.0068
548.00,0.0070
547.00,0.0072
546.00,0.0073
545.00,0.0075
544.00,0.0077
543.00,0.0079
542.00,0.0078
541.00,0.0075
540.00,0.0073
539.00,0.0074
538.00,0.0079
537.00,0.0087
536.00,0.0093
535.00,0.0095
534.00,0.0094
533.00,0.0093
532.00,0.0093
531.00,0.0094
530.00,0.0095
529.00,0.0095
528.00,0.0096
527.00,0.0096
526.00,0.0094
525.00,0.0090
524.00,0.0085
523.00,0.0081
522.00,0.0078
521.00,0.0076
520.00,0.0073
519.00,0.0071
518.00,0.0070
517.00,0.0070
516.00,0.0071
515.00,0.0074
514.00,0.0076
513.00,0.0076
512.00,0.0075
511.00,0.0075
510.00,0.0078
509.00,0.0083
508.00,0.0086
507.00,0.0084
506.00,0.0078
505.00,0.0076
504.00,0.0081
503.00,0.0088
502.00,0.0091
501.00,0.0086
500.00,0.0078
499.00,0.0076
498.00,0.0080
497.00,0.0084
496.00,0.0084
495.00,0.0081
494.00,0.0078
493.00,0.0077
492.00,0.0075
491.00,0.0071
490.00,0.0067
489.00,0.0067
488.00,0.0072
487.00,0.0078
486.00,0.0078
485.00,0.0069
484.00,0.0057
483.00,0.0049
482.00,0.0049
481.00,0.0056
480.00,0.0064
479.00,0.0072
478.00,0.0081
477.00,0.0089
476.00,0.0095
475.00,0.0101
474.00,0.0106
473.00,0.0109
472.00,0.0109
471.00,0.0107
470.00,0.0106
469.00,0.0106
468.00,0.0109
467.00,0.0115
466.00,0.0124
465.00,0.0133
464.00,0.0140
463.00,0.0147
462.00,0.0155
461.00,0.0159
460.00,0.0156
459.00,0.0144
458.00,0.0136
457.00,0.0139
456.00,0.0150
455.00,0.0159
454.00,0.0161
453.00,0.0160
452.00,0.0159
451.00,0.0156
450.00,0.0147
