Created as New Dataset,Sample 119 By Administrator Date Friday, September 05 2025
cm-1,A
4000.00,0.0010
3999.00,0.0010
3998.00,0.0010
3997.00,0.0010
3996.00,0.0010
3995.00,0.0011
3994.00,0.0011
3993.00,0.0011
3992.00,0.0011
3991.00,0.0011
3990.00,0.0011
3989.00,0.0011
3988.00,0.0011
3987.00,0.0011
3986.00,0.0011
3985.00,0.0010
3984.00,0.0010
3983.00,0.0009
3982.00,0.0009
3981.00,0.0009
3980.00,0.0008
3979.00,0.0008
3978.00,0.0008
3977.00,0.0008
3976.00,0.0008
3975.00,0.0009
3974.00,0.0009
3973.00,0.0008
3972.00,0.0008
3971.00,0.0008
3970.00,0.0008
3969.00,0.0008
3968.00,0.0009
3967.00,0.0009
3966.00,0.0009
3965.00,0.0009
3964.00,0.0009
3963.00,0.0009
3962.00,0.0008
3961.00,0.0008
3960.00,0.0008
3959.00,0.0008
3958.00,0.0008
3957.00,0.0008
3956.00,0.0008
3955.00,0.0008
3954.00,0.0008
3953.00,0.0007
3952.00,0.0007
3951.00,0.0008
3950.00,0.0008
3949.00,0.0008
3948.00,0.0008
3947.00,0.0008
3946.00,0.0008
3945.00,0.0008
3944.00,0.0008
3943.00,0.0009
3942.00,0.0009
3941.00,0.0009
3940.00,0.0008
3939.00,0.0008
3938.00,0.0008
3937.00,0.0008
3936.00,0.0008
3935.00,0.0008
3934.00,0.0008
3933.00,0.0008
3932.00,0.0007
3931.00,0.0007
3930.00,0.0007
3929.00,0.0008
3928.00,0.0008
3927.00,0.0009
3926.00,0.0009
3925.00,0.0009
3924.00,0.0009
3923.00,0.0009
3922.00,0.0009
3921.00,0.0009
3920.00,0.0008
3919.00,0.0008
3918.00,0.0008
3917.00,0.0009
3916.00,0.0009
3915.00,0.0009
3914.00,0.0009
3913.00,0.0008
3912.00,0.0008
3911.00,0.0008
3910.00,0.0008
3909.00,0.0007
3908.00,0.0007
3907.00,0.0007
3906.00,0.0007
3905.00,0.0007
3904.00,0.0008
3903.00,0.0008
3902.00,0.0008
3901.00,0.0008
3900.00,0.0008
3899.00,0.0008
3898.00,0.0008
3897.00,0.0008
3896.00,0.0008
3895.00,0.0008
3894.00,0.0008
3893.00,0.0008
3892.00,0.0008
3891.00,0.0008
3890.00,0.0008
3889.00,0.0008
3888.00,0.0008
3887.00,0.0008
3886.00,0.0008
3885.00,0.0008
3884.00,0.0008
3883.00,0.0008
3882.00,0.0008
3881.00,0.0009
3880.00,0.0009
3879.00,0.0009
3878.00,0.0008
3877.00,0.0008
3876.00,0.0008
3875.00,0.0007
3874.00,0.0007
3873.00,0.0007
3872.00,0.0007
3871.00,0.0007
3870.00,0.0007
3869.00,0.0007
3868.00,0.0007
3867.00,0.0007
3866.00,0.0007
3865.00,0.0008
3864.00,0.0008
3863.00,0.0008
3862.00,0.0008
3861.00,0.0008
3860.00,0.0007
3859.00,0.0007
3858.00,0.0007
3857.00,0.0007
3856.00,0.0007
3855.00,0.0007
3854.00,0.0007
3853.00,0.0007
3852.00,0.0007
3851.00,0.0007
3850.00,0.0007
3849.00,0.0007
3848.00,0.0007
3847.00,0.0007
3846.00,0.0007
3845.00,0.0007
3844.00,0.0008
3843.00,0.0008
3842.00,0.0008
3841.00,0.0008
3840.00,0.0008
3839.00,0.0008
3838.00,0.0007
3837.00,0.0007
3836.00,0.0007
3835.00,0.0007
3834.00,0.0008
3833.00,0.0008
3832.00,0.0008
3831.00,0.0008
3830.00,0.0008
3829.00,0.0008
3828.00,0.0007
3827.00,0.0007
3826.00,0.0007
3825.00,0.0007
3824.00,0.0006
3823.00,0.0006
3822.00,0.0006
3821.00,0.0006
3820.00,0.0006
3819.00,0.0006
3818.00,0.0006
3817.00,0.0007
3816.00,0.0007
3815.00,0.0007
3814.00,0.0007
3813.00,0.0007
3812.00,0.0007
3811.00,0.0007
3810.00,0.0006
3809.00,0.0006
3808.00,0.0006
3807.00,0.0007
3806.00,0.0007
3805.00,0.0007
3804.00,0.0007
3803.00,0.0007
3802.00,0.0008
3801.00,0.0008
3800.00,0.0008
3799.00,0.0008
3798.00,0.0008
3797.00,0.0008
3796.00,0.0008
3795.00,0.0008
3794.00,0.0007
3793.00,0.0008
3792.00,0.0008
3791.00,0.0008
3790.00,0.0008
3789.00,0.0009
3788.00,0.0009
3787.00,0.0009
3786.00,0.0009
3785.00,0.0009
3784.00,0.0008
3783.00,0.0008
3782.00,0.0008
3781.00,0.0008
3780.00,0.0008
3779.00,0.0008
3778.00,0.0008
3777.00,0.0008
3776.00,0.0008
3775.00,0.0008
3774.00,0.0008
3773.00,0.0008
3772.00,0.0008
3771.00,0.0008
3770.00,0.0008
3769.00,0.0008
3768.00,0.0008
3767.00,0.0008
3766.00,0.0008
3765.00,0.0008
3764.00,0.0009
3763.00,0.0009
3762.00,0.0009
3761.00,0.0010
3760.00,0.0010
3759.00,0.0010
3758.00,0.0009
3757.00,0.0009
3756.00,0.0008
3755.00,0.0007
3754.00,0.0007
3753.00,0.0007
3752.00,0.0007
3751.00,0.0007
3750.00,0.0006
3749.00,0.0006
3748.00,0.0006
3747.00,0.0006
3746.00,0.0007
3745.00,0.0006
3744.00,0.0006
3743.00,0.0006
3742.00,0.0005
3741.00,0.0006
3740.00,0.0006
3739.00,0.0006
3738.00,0.0005
3737.00,0.0005
3736.00,0.0005
3735.00,0.0005
3734.00,0.0005
3733.00,0.0006
3732.00,0.0006
3731.00,0.0006
3730.00,0.0006
3729.00,0.0006
3728.00,0.0006
3727.00,0.0006
3726.00,0.0005
3725.00,0.0005
3724.00,0.0006
3723.00,0.0006
3722.00,0.0006
3721.00,0.0006
3720.00,0.0006
3719.00,0.0006
3718.00,0.0006
3717.00,0.0006
3716.00,0.0006
3715.00,0.0006
3714.00,0.0006
3713.00,0.0005
3712.00,0.0005
3711.00,0.0005
3710.00,0.0005
3709.00,0.0005
3708.00,0.0005
3707.00,0.0005
3706.00,0.0006
3705.00,0.0006
3704.00,0.0006
3703.00,0.0006
3702.00,0.0006
3701.00,0.0006
3700.00,0.0005
3699.00,0.0005
3698.00,0.0006
3697.00,0.0006
3696.00,0.0006
3695.00,0.0006
3694.00,0.0006
3693.00,0.0006
3692.00,0.0005
3691.00,0.0005
3690.00,0.0005
3689.00,0.0005
3688.00,0.0005
3687.00,0.0005
3686.00,0.0005
3685.00,0.0005
3684.00,0.0006
3683.00,0.0006
3682.00,0.0006
3681.00,0.0006
3680.00,0.0007
3679.00,0.0007
3678.00,0.0007
3677.00,0.0007
3676.00,0.0007
3675.00,0.0007
3674.00,0.0006
3673.00,0.0005
3672.00,0.0005
3671.00,0.0005
3670.00,0.0005
3669.00,0.0005
3668.00,0.0005
3667.00,0.0005
3666.00,0.0006
3665.00,0.0006
3664.00,0.0006
3663.00,0.0006
3662.00,0.0006
3661.00,0.0005
3660.00,0.0005
3659.00,0.0005
3658.00,0.0004
3657.00,0.0004
3656.00,0.0005
3655.00,0.0005
3654.00,0.0005
3653.00,0.0005
3652.00,0.0005
3651.00,0.0005
3650.00,0.0005
3649.00,0.0006
3648.00,0.0006
3647.00,0.0007
3646.00,0.0007
3645.00,0.0007
3644.00,0.0007
3643.00,0.0007
3642.00,0.0007
3641.00,0.0007
3640.00,0.0007
3639.00,0.0007
3638.00,0.0007
3637.00,0.0006
3636.00,0.0006
3635.00,0.0006
3634.00,0.0006
3633.00,0.0006
3632.00,0.0005
3631.00,0.0005
3630.00,0.0004
3629.00,0.0004
3628.00,0.0005
3627.00,0.0005
3626.00,0.0005
3625.00,0.0005
3624.00,0.0006
3623.00,0.0006
3622.00,0.0006
3621.00,0.0007
3620.00,0.0007
3619.00,0.0006
3618.00,0.0006
3617.00,0.0006
3616.00,0.0005
3615.00,0.0005
3614.00,0.0005
3613.00,0.0005
3612.00,0.0006
3611.00,0.0006
3610.00,0.0006
3609.00,0.0006
3608.00,0.0006
3607.00,0.0006
3606.00,0.0006
3605.00,0.0007
3604.00,0.0007
3603.00,0.0007
3602.00,0.0008
3601.00,0.0007
3600.00,0.0007
3599.00,0.0007
3598.00,0.0007
3597.00,0.0008
3596.00,0.0008
3595.00,0.0007
3594.00,0.0007
3593.00,0.0007
3592.00,0.0007
3591.00,0.0007
3590.00,0.0008
3589.00,0.0008
3588.00,0.0008
3587.00,0.0008
3586.00,0.0008
3585.00,0.0008
3584.00,0.0008
3583.00,0.0008
3582.00,0.0008
3581.00,0.0008
3580.00,0.0008
3579.00,0.0008
3578.00,0.0008
3577.00,0.0009
3576.00,0.0009
3575.00,0.0009
3574.00,0.0010
3573.00,0.0010
3572.00,0.0010
3571.00,0.0010
3570.00,0.0010
3569.00,0.0010
3568.00,0.0011
3567.00,0.0011
3566.00,0.0011
3565.00,0.0011
3564.00,0.0011
3563.00,0.0011
3562.00,0.0011
3561.00,0.0011
3560.00,0.0011
3559.00,0.0011
3558.00,0.0011
3557.00,0.0012
3556.00,0.0012
3555.00,0.0012
3554.00,0.0013
3553.00,0.0013
3552.00,0.0013
3551.00,0.0012
3550.00,0.0012
3549.00,0.0011
3548.00,0.0011
3547.00,0.0012
3546.00,0.0012
3545.00,0.0012
3544.00,0.0013
3543.00,0.0013
3542.00,0.0013
3541.00,0.0014
3540.00,0.0014
3539.00,0.0014
3538.00,0.0014
3537.00,0.0014
3536.00,0.0014
3535.00,0.0015
3534.00,0.0015
3533.00,0.0015
3532.00,0.0015
3531.00,0.0015
3530.00,0.0015
3529.00,0.0015
3528.00,0.0015
3527.00,0.0015
3526.00,0.0016
3525.00,0.0016
3524.00,0.0016
3523.00,0.0016
3522.00,0.0016
3521.00,0.0016
3520.00,0.0016
3519.00,0.0017
3518.00,0.0017
3517.00,0.0017
3516.00,0.0017
3515.00,0.0017
3514.00,0.0017
3513.00,0.0017
3512.00,0.0017
3511.00,0.0017
3510.00,0.0018
3509.00,0.0018
3508.00,0.0018
3507.00,0.0018
3506.00,0.0017
3505.00,0.0017
3504.00,0.0017
3503.00,0.0018
3502.00,0.0018
3501.00,0.0018
3500.00,0.0018
3499.00,0.0019
3498.00,0.0019
3497.00,0.0018
3496.00,0.0018
3495.00,0.0018
3494.00,0.0018
3493.00,0.0018
3492.00,0.0018
3491.00,0.0018
3490.00,0.0018
3489.00,0.0018
3488.00,0.0019
3487.00,0.0019
3486.00,0.0019
3485.00,0.0019
3484.00,0.0019
3483.00,0.0019
3482.00,0.0019
3481.00,0.0019
3480.00,0.0019
3479.00,0.0020
3478.00,0.0020
3477.00,0.0020
3476.00,0.0020
3475.00,0.0020
3474.00,0.0021
3473.00,0.0021
3472.00,0.0022
3471.00,0.0022
3470.00,0.0022
3469.00,0.0022
3468.00,0.0022
3467.00,0.0022
3466.00,0.0022
3465.00,0.0023
3464.00,0.0023
3463.00,0.0023
3462.00,0.0023
3461.00,0.0024
3460.00,0.0024
3459.00,0.0023
3458.00,0.0023
3457.00,0.0022
3456.00,0.0022
3455.00,0.0022
3454.00,0.0022
3453.00,0.0022
3452.00,0.0022
3451.00,0.0022
3450.00,0.0022
3449.00,0.0023
3448.00,0.0023
3447.00,0.0024
3446.00,0.0024
3445.00,0.0024
3444.00,0.0024
3443.00,0.0025
3442.00,0.0025
3441.00,0.0025
3440.00,0.0025
3439.00,0.0025
3438.00,0.0026
3437.00,0.0026
3436.00,0.0026
3435.00,0.0026
3434.00,0.0026
3433.00,0.0025
3432.00,0.0025
3431.00,0.0026
3430.00,0.0026
3429.00,0.0026
3428.00,0.0026
3427.00,0.0026
3426.00,0.0026
3425.00,0.0026
3424.00,0.0026
3423.00,0.0026
3422.00,0.0026
3421.00,0.0026
3420.00,0.0027
3419.00,0.0027
3418.00,0.0027
3417.00,0.0027
3416.00,0.0027
3415.00,0.0027
3414.00,0.0027
3413.00,0.0027
3412.00,0.0027
3411.00,0.0028
3410.00,0.0028
3409.00,0.0028
3408.00,0.0028
3407.00,0.0028
3406.00,0.0028
3405.00,0.0028
3404.00,0.0028
3403.00,0.0028
3402.00,0.0028
3401.00,0.0029
3400.00,0.0029
3399.00,0.0029
3398.00,0.0030
3397.00,0.0030
3396.00,0.0030
3395.00,0.0030
3394.00,0.0030
3393.00,0.0029
3392.00,0.0029
3391.00,0.0029
3390.00,0.0029
3389.00,0.0029
3388.00,0.0029
3387.00,0.0029
3386.00,0.0029
3385.00,0.0029
3384.00,0.0029
3383.00,0.0029
3382.00,0.0029
3381.00,0.0029
3380.00,0.0029
3379.00,0.0029
3378.00,0.0029
3377.00,0.0029
3376.00,0.0029
3375.00,0.0029
3374.00,0.0029
3373.00,0.0029
3372.00,0.0029
3371.00,0.0029
3370.00,0.0029
3369.00,0.0030
3368.00,0.0030
3367.00,0.0030
3366.00,0.0030
3365.00,0.0030
3364.00,0.0030
3363.00,0.0029
3362.00,0.0029
3361.00,0.0029
3360.00,0.0029
3359.00,0.0029
3358.00,0.0029
3357.00,0.0029
3356.00,0.0029
3355.00,0.0030
3354.00,0.0030
3353.00,0.0030
3352.00,0.0030
3351.00,0.0030
3350.00,0.0030
3349.00,0.0030
3348.00,0.0030
3347.00,0.0030
3346.00,0.0030
3345.00,0.0030
3344.00,0.0031
3343.00,0.0031
3342.00,0.0030
3341.00,0.0030
3340.00,0.0030
3339.00,0.0029
3338.00,0.0030
3337.00,0.0030
3336.00,0.0030
3335.00,0.0030
3334.00,0.0030
3333.00,0.0029
3332.00,0.0028
3331.00,0.0027
3330.00,0.0027
3329.00,0.0028
3328.00,0.0028
3327.00,0.0028
3326.00,0.0028
3325.00,0.0029
3324.00,0.0029
3323.00,0.0029
3322.00,0.0029
3321.00,0.0028
3320.00,0.0028
3319.00,0.0028
3318.00,0.0028
3317.00,0.0028
3316.00,0.0028
3315.00,0.0028
3314.00,0.0028
3313.00,0.0027
3312.00,0.0027
3311.00,0.0027
3310.00,0.0027
3309.00,0.0028
3308.00,0.0028
3307.00,0.0028
3306.00,0.0028
3305.00,0.0028
3304.00,0.0028
3303.00,0.0027
3302.00,0.0027
3301.00,0.0027
3300.00,0.0027
3299.00,0.0028
3298.00,0.0028
3297.00,0.0028
3296.00,0.0028
3295.00,0.0028
3294.00,0.0028
3293.00,0.0028
3292.00,0.0028
3291.00,0.0027
3290.00,0.0027
3289.00,0.0027
3288.00,0.0027
3287.00,0.0027
3286.00,0.0027
3285.00,0.0027
3284.00,0.0027
3283.00,0.0027
3282.00,0.0028
3281.00,0.0028
3280.00,0.0028
3279.00,0.0028
3278.00,0.0028
3277.00,0.0027
3276.00,0.0027
3275.00,0.0027
3274.00,0.0027
3273.00,0.0027
3272.00,0.0026
3271.00,0.0026
3270.00,0.0026
3269.00,0.0026
3268.00,0.0026
3267.00,0.0027
3266.00,0.0027
3265.00,0.0027
3264.00,0.0027
3263.00,0.0026
3262.00,0.0026
3261.00,0.0026
3260.00,0.0026
3259.00,0.0026
3258.00,0.0025
3257.00,0.0025
3256.00,0.0025
3255.00,0.0025
3254.00,0.0025
3253.00,0.0025
3252.00,0.0025
3251.00,0.0024
3250.00,0.0024
3249.00,0.0025
3248.00,0.0025
3247.00,0.0025
3246.00,0.0025
3245.00,0.0025
3244.00,0.0025
3243.00,0.0025
3242.00,0.0025
3241.00,0.0025
3240.00,0.0025
3239.00,0.0025
3238.00,0.0025
3237.00,0.0025
3236.00,0.0025
3235.00,0.0025
3234.00,0.0025
3233.00,0.0025
3232.00,0.0025
3231.00,0.0025
3230.00,0.0026
3229.00,0.0026
3228.00,0.0026
3227.00,0.0027
3226.00,0.0027
3225.00,0.0027
3224.00,0.0027
3223.00,0.0027
3222.00,0.0028
3221.00,0.0028
3220.00,0.0028
3219.00,0.0028
3218.00,0.0028
3217.00,0.0028
3216.00,0.0028
3215.00,0.0028
3214.00,0.0029
3213.00,0.0029
3212.00,0.0030
3211.00,0.0030
3210.00,0.0030
3209.00,0.0031
3208.00,0.0031
3207.00,0.0031
3206.00,0.0030
3205.00,0.0030
3204.00,0.0030
3203.00,0.0030
3202.00,0.0030
3201.00,0.0031
3200.00,0.0031
3199.00,0.0032
3198.00,0.0032
3197.00,0.0032
3196.00,0.0032
3195.00,0.0032
3194.00,0.0031
3193.00,0.0031
3192.00,0.0031
3191.00,0.0031
3190.00,0.0031
3189.00,0.0031
3188.00,0.0031
3187.00,0.0031
3186.00,0.0030
3185.00,0.0030
3184.00,0.0030
3183.00,0.0030
3182.00,0.0030
3181.00,0.0030
3180.00,0.0030
3179.00,0.0029
3178.00,0.0029
3177.00,0.0029
3176.00,0.0029
3175.00,0.0029
3174.00,0.0029
3173.00,0.0028
3172.00,0.0028
3171.00,0.0028
3170.00,0.0028
3169.00,0.0028
3168.00,0.0028
3167.00,0.0028
3166.00,0.0028
3165.00,0.0028
3164.00,0.0028
3163.00,0.0028
3162.00,0.0029
3161.00,0.0029
3160.00,0.0029
3159.00,0.0029
3158.00,0.0029
3157.00,0.0029
3156.00,0.0029
3155.00,0.0028
3154.00,0.0028
3153.00,0.0028
3152.00,0.0028
3151.00,0.0028
3150.00,0.0029
3149.00,0.0029
3148.00,0.0029
3147.00,0.0029
3146.00,0.0029
3145.00,0.0028
3144.00,0.0028
3143.00,0.0028
3142.00,0.0027
3141.00,0.0027
3140.00,0.0028
3139.00,0.0028
3138.00,0.0028
3137.00,0.0028
3136.00,0.0028
3135.00,0.0028
3134.00,0.0028
3133.00,0.0028
3132.00,0.0027
3131.00,0.0027
3130.00,0.0026
3129.00,0.0026
3128.00,0.0026
3127.00,0.0026
3126.00,0.0026
3125.00,0.0025
3124.00,0.0025
3123.00,0.0025
3122.00,0.0025
3121.00,0.0025
3120.00,0.0024
3119.00,0.0024
3118.00,0.0024
3117.00,0.0023
3116.00,0.0023
3115.00,0.0023
3114.00,0.0023
3113.00,0.0023
3112.00,0.0023
3111.00,0.0023
3110.00,0.0023
3109.00,0.0023
3108.00,0.0024
3107.00,0.0024
3106.00,0.0024
3105.00,0.0024
3104.00,0.0024
3103.00,0.0024
3102.00,0.0023
3101.00,0.0023
3100.00,0.0023
3099.00,0.0023
3098.00,0.0023
3097.00,0.0024
3096.00,0.0024
3095.00,0.0024
3094.00,0.0023
3093.00,0.0023
3092.00,0.0022
3091.00,0.0022
3090.00,0.0022
3089.00,0.0022
3088.00,0.0022
3087.00,0.0021
3086.00,0.0022
3085.00,0.0022
3084.00,0.0022
3083.00,0.0023
3082.00,0.0023
3081.00,0.0023
3080.00,0.0023
3079.00,0.0023
3078.00,0.0023
3077.00,0.0024
3076.00,0.0024
3075.00,0.0024
3074.00,0.0025
3073.00,0.0025
3072.00,0.0025
3071.00,0.0025
3070.00,0.0025
3069.00,0.0025
3068.00,0.0025
3067.00,0.0026
3066.00,0.0026
3065.00,0.0026
3064.00,0.0026
3063.00,0.0026
3062.00,0.0026
3061.00,0.0027
3060.00,0.0027
3059.00,0.0027
3058.00,0.0027
3057.00,0.0028
3056.00,0.0028
3055.00,0.0028
3054.00,0.0028
3053.00,0.0028
3052.00,0.0028
3051.00,0.0028
3050.00,0.0028
3049.00,0.0028
3048.00,0.0029
3047.00,0.0029
3046.00,0.0029
3045.00,0.0030
3044.00,0.0030
3043.00,0.0030
3042.00,0.0030
3041.00,0.0030
3040.00,0.0030
3039.00,0.0030
3038.00,0.0031
3037.00,0.0031
3036.00,0.0031
3035.00,0.0031
3034.00,0.0032
3033.00,0.0032
3032.00,0.0032
3031.00,0.0033
3030.00,0.0033
3029.00,0.0034
3028.00,0.0034
3027.00,0.0035
3026.00,0.0036
3025.00,0.0037
3024.00,0.0038
3023.00,0.0039
3022.00,0.0039
3021.00,0.0040
3020.00,0.0040
3019.00,0.0041
3018.00,0.0042
3017.00,0.0043
3016.00,0.0044
3015.00,0.0045
3014.00,0.0047
3013.00,0.0048
3012.00,0.0049
3011.00,0.0050
3010.00,0.0051
3009.00,0.0052
3008.00,0.0054
3007.00,0.0056
3006.00,0.0057
3005.00,0.0059
3004.00,0.0060
3003.00,0.0062
3002.00,0.0064
3001.00,0.0067
3000.00,0.0069
2999.00,0.0072
2998.00,0.0075
2997.00,0.0078
2996.00,0.0082
2995.00,0.0086
2994.00,0.0090
2993.00,0.0095
2992.00,0.0100
2991.00,0.0106
2990.00,0.0112
2989.00,0.0119
2988.00,0.0126
2987.00,0.0135
2986.00,0.0144
2985.00,0.0155
2984.00,0.0168
2983.00,0.0181
2982.00,0.0197
2981.00,0.0214
2980.00,0.0234
2979.00,0.0256
2978.00,0.0282
2977.00,0.0311
2976.00,0.0344
2975.00,0.0382
2974.00,0.0426
2973.00,0.0475
2972.00,0.0531
2971.00,0.0593
2970.00,0.0661
2969.00,0.0736
2968.00,0.0816
2967.00,0.0902
2966.00,0.0989
2965.00,0.1077
2964.00,0.1160
2963.00,0.1233
2962.00,0.1295
2961.00,0.1343
2960.00,0.1381
2959.00,0.1415
2958.00,0.1451
2957.00,0.1496
2956.00,0.1557
2955.00,0.1635
2954.00,0.1726
2953.00,0.1824
2952.00,0.1913
2951.00,0.1980
2950.00,0.2008
2949.00,0.1989
2948.00,0.1921
2947.00,0.1812
2946.00,0.1677
2945.00,0.1533
2944.00,0.1396
2943.00,0.1278
2942.00,0.1184
2941.00,0.1118
2940.00,0.1078
2939.00,0.1062
2938.00,0.1068
2937.00,0.1094
2936.00,0.1137
2935.00,0.1196
2934.00,0.1270
2933.00,0.1358
2932.00,0.1459
2931.00,0.1571
2930.00,0.1690
2929.00,0.1815
2928.00,0.1942
2927.00,0.2067
2926.00,0.2191
2925.00,0.2313
2924.00,0.2435
2923.00,0.2558
2922.00,0.2682
2921.00,0.2804
2920.00,0.2913
2919.00,0.2996
2918.00,0.3040
2917.00,0.3033
2916.00,0.2975
2915.00,0.2875
2914.00,0.2748
2913.00,0.2611
2912.00,0.2478
2911.00,0.2357
2910.00,0.2250
2909.00,0.2156
2908.00,0.2071
2907.00,0.1991
2906.00,0.1915
2905.00,0.1839
2904.00,0.1763
2903.00,0.1688
2902.00,0.1615
2901.00,0.1544
2900.00,0.1476
2899.00,0.1412
2898.00,0.1353
2897.00,0.1299
2896.00,0.1250
2895.00,0.1209
2894.00,0.1174
2893.00,0.1146
2892.00,0.1125
2891.00,0.1111
2890.00,0.1102
2889.00,0.1097
2888.00,0.1096
2887.00,0.1098
2886.00,0.1104
2885.00,0.1113
2884.00,0.1127
2883.00,0.1146
2882.00,0.1168
2881.00,0.1193
2880.00,0.1216
2879.00,0.1235
2878.00,0.1245
2877.00,0.1246
2876.00,0.1239
2875.00,0.1230
2874.00,0.1224
2873.00,0.1224
2872.00,0.1233
2871.00,0.1251
2870.00,0.1273
2869.00,0.1295
2868.00,0.1310
2867.00,0.1307
2866.00,0.1280
2865.00,0.1227
2864.00,0.1152
2863.00,0.1064
2862.00,0.0975
2861.00,0.0896
2860.00,0.0832
2859.00,0.0786
2858.00,0.0758
2857.00,0.0744
2856.00,0.0742
2855.00,0.0750
2854.00,0.0766
2853.00,0.0787
2852.00,0.0810
2851.00,0.0834
2850.00,0.0855
2849.00,0.0873
2848.00,0.0890
2847.00,0.0911
2846.00,0.0939
2845.00,0.0979
2844.00,0.1029
2843.00,0.1086
2842.00,0.1145
2841.00,0.1198
2840.00,0.1239
2839.00,0.1258
2838.00,0.1249
2837.00,0.1209
2836.00,0.1139
2835.00,0.1046
2834.00,0.0939
2833.00,0.0830
2832.00,0.0727
2831.00,0.0636
2830.00,0.0559
2829.00,0.0495
2828.00,0.0444
2827.00,0.0402
2826.00,0.0368
2825.00,0.0339
2824.00,0.0316
2823.00,0.0296
2822.00,0.0279
2821.00,0.0264
2820.00,0.0251
2819.00,0.0240
2818.00,0.0230
2817.00,0.0221
2816.00,0.0214
2815.00,0.0207
2814.00,0.0200
2813.00,0.0195
2812.00,0.0189
2811.00,0.0184
2810.00,0.0178
2809.00,0.0171
2808.00,0.0165
2807.00,0.0158
2806.00,0.0152
2805.00,0.0145
2804.00,0.0138
2803.00,0.0132
2802.00,0.0127
2801.00,0.0122
2800.00,0.0118
2799.00,0.0115
2798.00,0.0112
2797.00,0.0110
2796.00,0.0107
2795.00,0.0105
2794.00,0.0102
2793.00,0.0100
2792.00,0.0097
2791.00,0.0094
2790.00,0.0091
2789.00,0.0088
2788.00,0.0085
2787.00,0.0082
2786.00,0.0079
2785.00,0.0076
2784.00,0.0074
2783.00,0.0071
2782.00,0.0069
2781.00,0.0067
2780.00,0.0065
2779.00,0.0064
2778.00,0.0062
2777.00,0.0061
2776.00,0.0060
2775.00,0.0059
2774.00,0.0058
2773.00,0.0057
2772.00,0.0057
2771.00,0.0057
2770.00,0.0056
2769.00,0.0056
2768.00,0.0056
2767.00,0.0055
2766.00,0.0055
2765.00,0.0055
2764.00,0.0055
2763.00,0.0054
2762.00,0.0054
2761.00,0.0053
2760.00,0.0052
2759.00,0.0052
2758.00,0.0052
2757.00,0.0052
2756.00,0.0052
2755.00,0.0052
2754.00,0.0052
2753.00,0.0052
2752.00,0.0052
2751.00,0.0052
2750.00,0.0051
2749.00,0.0052
2748.00,0.0052
2747.00,0.0052
2746.00,0.0052
2745.00,0.0053
2744.00,0.0053
2743.00,0.0054
2742.00,0.0055
2741.00,0.0056
2740.00,0.0057
2739.00,0.0058
2738.00,0.0059
2737.00,0.0061
2736.00,0.0062
2735.00,0.0064
2734.00,0.0066
2733.00,0.0067
2732.00,0.0069
2731.00,0.0071
2730.00,0.0074
2729.00,0.0076
2728.00,0.0079
2727.00,0.0082
2726.00,0.0085
2725.00,0.0088
2724.00,0.0089
2723.00,0.0090
2722.00,0.0089
2721.00,0.0087
2720.00,0.0084
2719.00,0.0081
2718.00,0.0078
2717.00,0.0074
2716.00,0.0071
2715.00,0.0068
2714.00,0.0066
2713.00,0.0063
2712.00,0.0061
2711.00,0.0059
2710.00,0.0057
2709.00,0.0055
2708.00,0.0054
2707.00,0.0053
2706.00,0.0051
2705.00,0.0050
2704.00,0.0048
2703.00,0.0047
2702.00,0.0046
2701.00,0.0046
2700.00,0.0045
2699.00,0.0045
2698.00,0.0045
2697.00,0.0044
2696.00,0.0044
2695.00,0.0044
2694.00,0.0044
2693.00,0.0045
2692.00,0.0045
2691.00,0.0045
2690.00,0.0044
2689.00,0.0044
2688.00,0.0044
2687.00,0.0044
2686.00,0.0044
2685.00,0.0045
2684.00,0.0045
2683.00,0.0045
2682.00,0.0045
2681.00,0.0045
2680.00,0.0045
2679.00,0.0045
2678.00,0.0045
2677.00,0.0045
2676.00,0.0045
2675.00,0.0045
2674.00,0.0045
2673.00,0.0044
2672.00,0.0044
2671.00,0.0045
2670.00,0.0045
2669.00,0.0045
2668.00,0.0045
2667.00,0.0045
2666.00,0.0045
2665.00,0.0046
2664.00,0.0046
2663.00,0.0047
2662.00,0.0048
2661.00,0.0048
2660.00,0.0048
2659.00,0.0048
2658.00,0.0048
2657.00,0.0048
2656.00,0.0047
2655.00,0.0046
2654.00,0.0046
2653.00,0.0045
2652.00,0.0045
2651.00,0.0044
2650.00,0.0044
2649.00,0.0044
2648.00,0.0043
2647.00,0.0043
2646.00,0.0043
2645.00,0.0043
2644.00,0.0042
2643.00,0.0042
2642.00,0.0041
2641.00,0.0040
2640.00,0.0039
2639.00,0.0039
2638.00,0.0039
2637.00,0.0039
2636.00,0.0039
2635.00,0.0039
2634.00,0.0038
2633.00,0.0039
2632.00,0.0039
2631.00,0.0039
2630.00,0.0038
2629.00,0.0038
2628.00,0.0038
2627.00,0.0039
2626.00,0.0040
2625.00,0.0040
2624.00,0.0041
2623.00,0.0041
2622.00,0.0040
2621.00,0.0041
2620.00,0.0041
2619.00,0.0041
2618.00,0.0041
2617.00,0.0041
2616.00,0.0041
2615.00,0.0041
2614.00,0.0041
2613.00,0.0040
2612.00,0.0040
2611.00,0.0039
2610.00,0.0039
2609.00,0.0038
2608.00,0.0037
2607.00,0.0036
2606.00,0.0036
2605.00,0.0035
2604.00,0.0034
2603.00,0.0033
2602.00,0.0032
2601.00,0.0032
2600.00,0.0032
2599.00,0.0032
2598.00,0.0032
2597.00,0.0032
2596.00,0.0032
2595.00,0.0033
2594.00,0.0033
2593.00,0.0033
2592.00,0.0033
2591.00,0.0034
2590.00,0.0034
2589.00,0.0035
2588.00,0.0037
2587.00,0.0038
2586.00,0.0039
2585.00,0.0040
2584.00,0.0041
2583.00,0.0041
2582.00,0.0041
2581.00,0.0041
2580.00,0.0041
2579.00,0.0040
2578.00,0.0039
2577.00,0.0038
2576.00,0.0036
2575.00,0.0035
2574.00,0.0033
2573.00,0.0031
2572.00,0.0030
2571.00,0.0029
2570.00,0.0028
2569.00,0.0027
2568.00,0.0027
2567.00,0.0026
2566.00,0.0026
2565.00,0.0025
2564.00,0.0025
2563.00,0.0024
2562.00,0.0024
2561.00,0.0024
2560.00,0.0024
2559.00,0.0024
2558.00,0.0024
2557.00,0.0023
2556.00,0.0023
2555.00,0.0023
2554.00,0.0023
2553.00,0.0023
2552.00,0.0023
2551.00,0.0023
2550.00,0.0023
2549.00,0.0022
2548.00,0.0020
2547.00,0.0019
2546.00,0.0018
2545.00,0.0018
2544.00,0.0018
2543.00,0.0018
2542.00,0.0018
2541.00,0.0018
2540.00,0.0018
2539.00,0.0018
2538.00,0.0018
2537.00,0.0017
2536.00,0.0016
2535.00,0.0016
2534.00,0.0015
2533.00,0.0015
2532.00,0.0015
2531.00,0.0016
2530.00,0.0016
2529.00,0.0016
2528.00,0.0016
2527.00,0.0015
2526.00,0.0014
2525.00,0.0013
2524.00,0.0013
2523.00,0.0013
2522.00,0.0013
2521.00,0.0013
2520.00,0.0013
2519.00,0.0012
2518.00,0.0012
2517.00,0.0012
2516.00,0.0012
2515.00,0.0012
2514.00,0.0011
2513.00,0.0011
2512.00,0.0011
2511.00,0.0011
2510.00,0.0012
2509.00,0.0012
2508.00,0.0012
2507.00,0.0011
2506.00,0.0011
2505.00,0.0011
2504.00,0.0011
2503.00,0.0011
2502.00,0.0011
2501.00,0.0011
2500.00,0.0011
2499.00,0.0011
2498.00,0.0011
2497.00,0.0012
2496.00,0.0012
2495.00,0.0012
2494.00,0.0012
2493.00,0.0012
2492.00,0.0012
2491.00,0.0011
2490.00,0.0011
2489.00,0.0010
2488.00,0.0010
2487.00,0.0010
2486.00,0.0010
2485.00,0.0011
2484.00,0.0011
2483.00,0.0012
2482.00,0.0012
2481.00,0.0011
2480.00,0.0010
2479.00,0.0010
2478.00,0.0009
2477.00,0.0009
2476.00,0.0010
2475.00,0.0010
2474.00,0.0010
2473.00,0.0010
2472.00,0.0010
2471.00,0.0009
2470.00,0.0009
2469.00,0.0010
2468.00,0.0010
2467.00,0.0010
2466.00,0.0010
2465.00,0.0010
2464.00,0.0010
2463.00,0.0009
2462.00,0.0009
2461.00,0.0009
2460.00,0.0010
2459.00,0.0010
2458.00,0.0011
2457.00,0.0011
2456.00,0.0011
2455.00,0.0010
2454.00,0.0010
2453.00,0.0011
2452.00,0.0012
2451.00,0.0013
2450.00,0.0013
2449.00,0.0014
2448.00,0.0013
2447.00,0.0012
2446.00,0.0012
2445.00,0.0011
2444.00,0.0011
2443.00,0.0011
2442.00,0.0011
2441.00,0.0011
2440.00,0.0011
2439.00,0.0011
2438.00,0.0011
2437.00,0.0011
2436.00,0.0010
2435.00,0.0010
2434.00,0.0010
2433.00,0.0011
2432.00,0.0012
2431.00,0.0013
2430.00,0.0014
2429.00,0.0014
2428.00,0.0013
2427.00,0.0012
2426.00,0.0011
2425.00,0.0011
2424.00,0.0011
2423.00,0.0011
2422.00,0.0011
2421.00,0.0011
2420.00,0.0011
2419.00,0.0011
2418.00,0.0010
2417.00,0.0011
2416.00,0.0011
2415.00,0.0011
2414.00,0.0010
2413.00,0.0010
2412.00,0.0009
2411.00,0.0009
2410.00,0.0009
2409.00,0.0010
2408.00,0.0011
2407.00,0.0011
2406.00,0.0010
2405.00,0.0010
2404.00,0.0009
2403.00,0.0009
2402.00,0.0008
2401.00,0.0008
2400.00,0.0008
2399.00,0.0008
2398.00,0.0008
2397.00,0.0009
2396.00,0.0009
2395.00,0.0009
2394.00,0.0009
2393.00,0.0009
2392.00,0.0009
2391.00,0.0008
2390.00,0.0008
2389.00,0.0007
2388.00,0.0007
2387.00,0.0007
2386.00,0.0007
2385.00,0.0007
2384.00,0.0007
2383.00,0.0007
2382.00,0.0006
2381.00,0.0006
2380.00,0.0006
2379.00,0.0007
2378.00,0.0007
2377.00,0.0007
2376.00,0.0007
2375.00,0.0007
2374.00,0.0007
2373.00,0.0007
2372.00,0.0007
2371.00,0.0008
2370.00,0.0008
2369.00,0.0008
2368.00,0.0008
2367.00,0.0007
2366.00,0.0007
2365.00,0.0007
2364.00,0.0007
2363.00,0.0008
2362.00,0.0008
2361.00,0.0008
2360.00,0.0009
2359.00,0.0010
2358.00,0.0010
2357.00,0.0010
2356.00,0.0011
2355.00,0.0010
2354.00,0.0009
2353.00,0.0008
2352.00,0.0008
2351.00,0.0009
2350.00,0.0010
2349.00,0.0010
2348.00,0.0009
2347.00,0.0008
2346.00,0.0008
2345.00,0.0009
2344.00,0.0010
2343.00,0.0011
2342.00,0.0011
2341.00,0.0011
2340.00,0.0012
2339.00,0.0012
2338.00,0.0012
2337.00,0.0011
2336.00,0.0011
2335.00,0.0011
2334.00,0.0010
2333.00,0.0010
2332.00,0.0011
2331.00,0.0011
2330.00,0.0011
2329.00,0.0012
2328.00,0.0014
2327.00,0.0016
2326.00,0.0020
2325.00,0.0024
2324.00,0.0026
2323.00,0.0025
2322.00,0.0023
2321.00,0.0021
2320.00,0.0020
2319.00,0.0018
2318.00,0.0017
2317.00,0.0016
2316.00,0.0016
2315.00,0.0015
2314.00,0.0015
2313.00,0.0015
2312.00,0.0015
2311.00,0.0014
2310.00,0.0014
2309.00,0.0014
2308.00,0.0013
2307.00,0.0013
2306.00,0.0013
2305.00,0.0012
2304.00,0.0012
2303.00,0.0012
2302.00,0.0013
2301.00,0.0013
2300.00,0.0014
2299.00,0.0014
2298.00,0.0015
2297.00,0.0015
2296.00,0.0015
2295.00,0.0015
2294.00,0.0015
2293.00,0.0016
2292.00,0.0016
2291.00,0.0017
2290.00,0.0018
2289.00,0.0019
2288.00,0.0019
2287.00,0.0020
2286.00,0.0020
2285.00,0.0019
2284.00,0.0018
2283.00,0.0017
2282.00,0.0015
2281.00,0.0014
2280.00,0.0013
2279.00,0.0014
2278.00,0.0014
2277.00,0.0014
2276.00,0.0014
2275.00,0.0014
2274.00,0.0013
2273.00,0.0013
2272.00,0.0013
2271.00,0.0014
2270.00,0.0014
2269.00,0.0014
2268.00,0.0014
2267.00,0.0014
2266.00,0.0013
2265.00,0.0012
2264.00,0.0011
2263.00,0.0012
2262.00,0.0012
2261.00,0.0013
2260.00,0.0013
2259.00,0.0012
2258.00,0.0012
2257.00,0.0011
2256.00,0.0010
2255.00,0.0009
2254.00,0.0008
2253.00,0.0008
2252.00,0.0009
2251.00,0.0011
2250.00,0.0012
2249.00,0.0013
2248.00,0.0012
2247.00,0.0011
2246.00,0.0010
2245.00,0.0010
2244.00,0.0011
2243.00,0.0011
2242.00,0.0010
2241.00,0.0010
2240.00,0.0009
2239.00,0.0008
2238.00,0.0008
2237.00,0.0008
2236.00,0.0008
2235.00,0.0009
2234.00,0.0009
2233.00,0.0010
2232.00,0.0009
2231.00,0.0008
2230.00,0.0007
2229.00,0.0006
2228.00,0.0006
2227.00,0.0007
2226.00,0.0007
2225.00,0.0006
2224.00,0.0005
2223.00,0.0004
2222.00,0.0003
2221.00,0.0003
2220.00,0.0004
2219.00,0.0006
2218.00,0.0008
2217.00,0.0009
2216.00,0.0009
2215.00,0.0008
2214.00,0.0006
2213.00,0.0005
2212.00,0.0003
2211.00,0.0003
2210.00,0.0004
2209.00,0.0005
2208.00,0.0008
2207.00,0.0010
2206.00,0.0012
2205.00,0.0012
2204.00,0.0010
2203.00,0.0008
2202.00,0.0007
2201.00,0.0006
2200.00,0.0006
2199.00,0.0007
2198.00,0.0007
2197.00,0.0007
2196.00,0.0008
2195.00,0.0008
2194.00,0.0008
2193.00,0.0009
2192.00,0.0010
2191.00,0.0011
2190.00,0.0014
2189.00,0.0015
2188.00,0.0015
2187.00,0.0013
2186.00,0.0011
2185.00,0.0010
2184.00,0.0008
2183.00,0.0006
2182.00,0.0005
2181.00,0.0004
2180.00,0.0005
2179.00,0.0006
2178.00,0.0005
2177.00,0.0003
2176.00,0.0000
2175.00,-0.0000
2174.00,0.0002
2173.00,0.0005
2172.00,0.0007
2171.00,0.0008
2170.00,0.0008
2169.00,0.0008
2168.00,0.0009
2167.00,0.0010
2166.00,0.0012
2165.00,0.0014
2164.00,0.0018
2163.00,0.0021
2162.00,0.0022
2161.00,0.0018
2160.00,0.0007
2159.00,-0.0010
2158.00,-0.0024
2157.00,-0.0032
2156.00,-0.0034
2155.00,-0.0031
2154.00,-0.0027
2153.00,-0.0023
2152.00,-0.0021
2151.00,-0.0019
2150.00,-0.0016
2149.00,-0.0013
2148.00,-0.0009
2147.00,-0.0008
2146.00,-0.0008
2145.00,-0.0008
2144.00,-0.0009
2143.00,-0.0009
2142.00,-0.0010
2141.00,-0.0010
2140.00,-0.0009
2139.00,-0.0009
2138.00,-0.0010
2137.00,-0.0011
2136.00,-0.0014
2135.00,-0.0018
2134.00,-0.0020
2133.00,-0.0021
2132.00,-0.0020
2131.00,-0.0017
2130.00,-0.0014
2129.00,-0.0011
2128.00,-0.0009
2127.00,-0.0007
2126.00,-0.0005
2125.00,-0.0003
2124.00,-0.0001
2123.00,-0.0000
2122.00,0.0000
2121.00,-0.0000
2120.00,-0.0001
2119.00,-0.0001
2118.00,-0.0002
2117.00,-0.0001
2116.00,0.0001
2115.00,0.0002
2114.00,0.0002
2113.00,0.0002
2112.00,0.0002
2111.00,0.0002
2110.00,0.0002
2109.00,0.0002
2108.00,0.0001
2107.00,-0.0001
2106.00,-0.0002
2105.00,-0.0002
2104.00,-0.0001
2103.00,0.0001
2102.00,0.0002
2101.00,0.0001
2100.00,0.0001
2099.00,-0.0000
2098.00,-0.0001
2097.00,-0.0003
2096.00,-0.0004
2095.00,-0.0006
2094.00,-0.0007
2093.00,-0.0007
2092.00,-0.0006
2091.00,-0.0005
2090.00,-0.0003
2089.00,-0.0002
2088.00,-0.0000
2087.00,0.0001
2086.00,0.0001
2085.00,0.0002
2084.00,0.0001
2083.00,0.0000
2082.00,-0.0000
2081.00,-0.0000
2080.00,0.0000
2079.00,0.0001
2078.00,0.0002
2077.00,0.0003
2076.00,0.0003
2075.00,0.0002
2074.00,0.0001
2073.00,0.0001
2072.00,0.0001
2071.00,0.0002
2070.00,0.0003
2069.00,0.0003
2068.00,0.0003
2067.00,0.0003
2066.00,0.0003
2065.00,0.0003
2064.00,0.0002
2063.00,0.0001
2062.00,0.0001
2061.00,0.0001
2060.00,0.0001
2059.00,0.0001
2058.00,0.0001
2057.00,0.0001
2056.00,0.0000
2055.00,-0.0000
2054.00,0.0001
2053.00,0.0005
2052.00,0.0010
2051.00,0.0012
2050.00,0.0011
2049.00,0.0006
2048.00,0.0002
2047.00,0.0000
2046.00,0.0000
2045.00,0.0002
2044.00,0.0003
2043.00,0.0003
2042.00,0.0003
2041.00,0.0003
2040.00,0.0004
2039.00,0.0005
2038.00,0.0006
2037.00,0.0006
2036.00,0.0004
2035.00,0.0000
2034.00,-0.0003
2033.00,-0.0006
2032.00,-0.0009
2031.00,-0.0011
2030.00,-0.0014
2029.00,-0.0014
2028.00,-0.0013
2027.00,-0.0011
2026.00,-0.0009
2025.00,-0.0008
2024.00,-0.0007
2023.00,-0.0007
2022.00,-0.0007
2021.00,-0.0007
2020.00,-0.0007
2019.00,-0.0009
2018.00,-0.0013
2017.00,-0.0015
2016.00,-0.0016
2015.00,-0.0016
2014.00,-0.0016
2013.00,-0.0015
2012.00,-0.0013
2011.00,-0.0010
2010.00,-0.0008
2009.00,-0.0008
2008.00,-0.0009
2007.00,-0.0012
2006.00,-0.0016
2005.00,-0.0018
2004.00,-0.0018
2003.00,-0.0018
2002.00,-0.0017
2001.00,-0.0016
2000.00,-0.0016
1999.00,-0.0016
1998.00,-0.0015
1997.00,-0.0015
1996.00,-0.0015
1995.00,-0.0013
1994.00,-0.0011
1993.00,-0.0009
1992.00,-0.0008
1991.00,-0.0009
1990.00,-0.0009
1989.00,-0.0008
1988.00,-0.0006
1987.00,-0.0004
1986.00,-0.0004
1985.00,-0.0005
1984.00,-0.0005
1983.00,-0.0002
1982.00,0.0002
1981.00,0.0008
1980.00,0.0012
1979.00,0.0011
1978.00,0.0005
1977.00,-0.0002
1976.00,-0.0008
1975.00,-0.0012
1974.00,-0.0014
1973.00,-0.0014
1972.00,-0.0013
1971.00,-0.0013
1970.00,-0.0013
1969.00,-0.0013
1968.00,-0.0012
1967.00,-0.0012
1966.00,-0.0012
1965.00,-0.0013
1964.00,-0.0015
1963.00,-0.0018
1962.00,-0.0019
1961.00,-0.0018
1960.00,-0.0017
1959.00,-0.0016
1958.00,-0.0017
1957.00,-0.0018
1956.00,-0.0018
1955.00,-0.0018
1954.00,-0.0018
1953.00,-0.0018
1952.00,-0.0018
1951.00,-0.0017
1950.00,-0.0015
1949.00,-0.0014
1948.00,-0.0013
1947.00,-0.0014
1946.00,-0.0014
1945.00,-0.0014
1944.00,-0.0014
1943.00,-0.0013
1942.00,-0.0011
1941.00,-0.0009
1940.00,-0.0006
1939.00,-0.0005
1938.00,-0.0006
1937.00,-0.0008
1936.00,-0.0009
1935.00,-0.0011
1934.00,-0.0012
1933.00,-0.0011
1932.00,-0.0010
1931.00,-0.0009
1930.00,-0.0009
1929.00,-0.0008
1928.00,-0.0006
1927.00,-0.0005
1926.00,-0.0005
1925.00,-0.0006
1924.00,-0.0007
1923.00,-0.0008
1922.00,-0.0008
1921.00,-0.0007
1920.00,-0.0005
1919.00,-0.0004
1918.00,-0.0003
1917.00,-0.0002
1916.00,-0.0002
1915.00,-0.0003
1914.00,-0.0005
1913.00,-0.0005
1912.00,-0.0005
1911.00,-0.0005
1910.00,-0.0005
1909.00,-0.0005
1908.00,-0.0004
1907.00,-0.0004
1906.00,-0.0004
1905.00,-0.0003
1904.00,-0.0002
1903.00,-0.0002
1902.00,-0.0001
1901.00,-0.0000
1900.00,-0.0000
1899.00,-0.0000
1898.00,-0.0001
1897.00,-0.0000
1896.00,-0.0000
1895.00,-0.0001
1894.00,-0.0002
1893.00,-0.0002
1892.00,-0.0003
1891.00,-0.0003
1890.00,-0.0003
1889.00,-0.0003
1888.00,-0.0002
1887.00,-0.0003
1886.00,-0.0003
1885.00,-0.0002
1884.00,-0.0001
1883.00,0.0000
1882.00,0.0001
1881.00,0.0001
1880.00,0.0001
1879.00,0.0000
1878.00,-0.0000
1877.00,-0.0000
1876.00,-0.0000
1875.00,-0.0000
1874.00,-0.0000
1873.00,-0.0000
1872.00,-0.0001
1871.00,-0.0001
1870.00,-0.0002
1869.00,-0.0002
1868.00,-0.0001
1867.00,-0.0000
1866.00,0.0000
1865.00,0.0000
1864.00,0.0001
1863.00,0.0001
1862.00,0.0000
1861.00,0.0000
1860.00,0.0000
1859.00,0.0000
1858.00,0.0001
1857.00,0.0002
1856.00,0.0002
1855.00,0.0002
1854.00,0.0001
1853.00,0.0000
1852.00,-0.0000
1851.00,-0.0000
1850.00,-0.0000
1849.00,0.0000
1848.00,0.0000
1847.00,-0.0000
1846.00,-0.0001
1845.00,-0.0001
1844.00,0.0000
1843.00,0.0002
1842.00,0.0003
1841.00,0.0003
1840.00,0.0004
1839.00,0.0004
1838.00,0.0003
1837.00,0.0003
1836.00,0.0002
1835.00,0.0002
1834.00,0.0002
1833.00,0.0003
1832.00,0.0003
1831.00,0.0004
1830.00,0.0004
1829.00,0.0004
1828.00,0.0004
1827.00,0.0004
1826.00,0.0004
1825.00,0.0004
1824.00,0.0004
1823.00,0.0003
1822.00,0.0003
1821.00,0.0002
1820.00,0.0001
1819.00,0.0001
1818.00,0.0000
1817.00,0.0000
1816.00,0.0000
1815.00,0.0000
1814.00,0.0001
1813.00,0.0001
1812.00,0.0002
1811.00,0.0002
1810.00,0.0002
1809.00,0.0003
1808.00,0.0003
1807.00,0.0004
1806.00,0.0004
1805.00,0.0004
1804.00,0.0005
1803.00,0.0005
1802.00,0.0005
1801.00,0.0005
1800.00,0.0005
1799.00,0.0004
1798.00,0.0003
1797.00,0.0003
1796.00,0.0004
1795.00,0.0004
1794.00,0.0004
1793.00,0.0005
1792.00,0.0005
1791.00,0.0006
1790.00,0.0006
1789.00,0.0006
1788.00,0.0007
1787.00,0.0007
1786.00,0.0007
1785.00,0.0007
1784.00,0.0008
1783.00,0.0008
1782.00,0.0008
1781.00,0.0008
1780.00,0.0008
1779.00,0.0007
1778.00,0.0007
1777.00,0.0007
1776.00,0.0007
1775.00,0.0007
1774.00,0.0006
1773.00,0.0006
1772.00,0.0006
1771.00,0.0006
1770.00,0.0007
1769.00,0.0008
1768.00,0.0009
1767.00,0.0010
1766.00,0.0010
1765.00,0.0010
1764.00,0.0010
1763.00,0.0010
1762.00,0.0011
1761.00,0.0010
1760.00,0.0010
1759.00,0.0010
1758.00,0.0010
1757.00,0.0011
1756.00,0.0012
1755.00,0.0012
1754.00,0.0013
1753.00,0.0013
1752.00,0.0014
1751.00,0.0015
1750.00,0.0015
1749.00,0.0015
1748.00,0.0015
1747.00,0.0015
1746.00,0.0015
1745.00,0.0015
1744.00,0.0015
1743.00,0.0016
1742.00,0.0016
1741.00,0.0016
1740.00,0.0017
1739.00,0.0017
1738.00,0.0017
1737.00,0.0017
1736.00,0.0017
1735.00,0.0017
1734.00,0.0017
1733.00,0.0017
1732.00,0.0017
1731.00,0.0017
1730.00,0.0018
1729.00,0.0018
1728.00,0.0018
1727.00,0.0019
1726.00,0.0018
1725.00,0.0018
1724.00,0.0018
1723.00,0.0018
1722.00,0.0018
1721.00,0.0018
1720.00,0.0018
1719.00,0.0018
1718.00,0.0018
1717.00,0.0018
1716.00,0.0019
1715.00,0.0020
1714.00,0.0020
1713.00,0.0020
1712.00,0.0020
1711.00,0.0020
1710.00,0.0021
1709.00,0.0021
1708.00,0.0022
1707.00,0.0022
1706.00,0.0022
1705.00,0.0022
1704.00,0.0022
1703.00,0.0023
1702.00,0.0023
1701.00,0.0023
1700.00,0.0024
1699.00,0.0024
1698.00,0.0024
1697.00,0.0025
1696.00,0.0025
1695.00,0.0026
1694.00,0.0026
1693.00,0.0026
1692.00,0.0026
1691.00,0.0026
1690.00,0.0026
1689.00,0.0027
1688.00,0.0027
1687.00,0.0027
1686.00,0.0027
1685.00,0.0027
1684.00,0.0028
1683.00,0.0029
1682.00,0.0030
1681.00,0.0031
1680.00,0.0032
1679.00,0.0032
1678.00,0.0033
1677.00,0.0034
1676.00,0.0035
1675.00,0.0035
1674.00,0.0034
1673.00,0.0034
1672.00,0.0033
1671.00,0.0033
1670.00,0.0034
1669.00,0.0035
1668.00,0.0036
1667.00,0.0036
1666.00,0.0036
1665.00,0.0037
1664.00,0.0037
1663.00,0.0037
1662.00,0.0037
1661.00,0.0038
1660.00,0.0038
1659.00,0.0038
1658.00,0.0038
1657.00,0.0038
1656.00,0.0039
1655.00,0.0039
1654.00,0.0038
1653.00,0.0038
1652.00,0.0040
1651.00,0.0041
1650.00,0.0042
1649.00,0.0043
1648.00,0.0045
1647.00,0.0045
1646.00,0.0045
1645.00,0.0045
1644.00,0.0045
1643.00,0.0044
1642.00,0.0044
1641.00,0.0045
1640.00,0.0045
1639.00,0.0045
1638.00,0.0045
1637.00,0.0045
1636.00,0.0044
1635.00,0.0044
1634.00,0.0045
1633.00,0.0045
1632.00,0.0046
1631.00,0.0046
1630.00,0.0046
1629.00,0.0046
1628.00,0.0046
1627.00,0.0046
1626.00,0.0046
1625.00,0.0046
1624.00,0.0045
1623.00,0.0044
1622.00,0.0044
1621.00,0.0044
1620.00,0.0044
1619.00,0.0044
1618.00,0.0043
1617.00,0.0043
1616.00,0.0043
1615.00,0.0043
1614.00,0.0043
1613.00,0.0043
1612.00,0.0043
1611.00,0.0043
1610.00,0.0043
1609.00,0.0043
1608.00,0.0042
1607.00,0.0042
1606.00,0.0042
1605.00,0.0043
1604.00,0.0043
1603.00,0.0043
1602.00,0.0043
1601.00,0.0043
1600.00,0.0043
1599.00,0.0043
1598.00,0.0042
1597.00,0.0043
1596.00,0.0043
1595.00,0.0043
1594.00,0.0044
1593.00,0.0044
1592.00,0.0044
1591.00,0.0045
1590.00,0.0045
1589.00,0.0045
1588.00,0.0046
1587.00,0.0047
1586.00,0.0048
1585.00,0.0050
1584.00,0.0052
1583.00,0.0054
1582.00,0.0056
1581.00,0.0058
1580.00,0.0059
1579.00,0.0061
1578.00,0.0061
1577.00,0.0061
1576.00,0.0061
1575.00,0.0060
1574.00,0.0059
1573.00,0.0059
1572.00,0.0059
1571.00,0.0057
1570.00,0.0055
1569.00,0.0053
1568.00,0.0051
1567.00,0.0050
1566.00,0.0049
1565.00,0.0049
1564.00,0.0049
1563.00,0.0049
1562.00,0.0051
1561.00,0.0052
1560.00,0.0053
1559.00,0.0051
1558.00,0.0049
1557.00,0.0049
1556.00,0.0049
1555.00,0.0049
1554.00,0.0050
1553.00,0.0051
1552.00,0.0052
1551.00,0.0054
1550.00,0.0055
1549.00,0.0056
1548.00,0.0058
1547.00,0.0059
1546.00,0.0061
1545.00,0.0062
1544.00,0.0064
1543.00,0.0065
1542.00,0.0066
1541.00,0.0066
1540.00,0.0067
1539.00,0.0066
1538.00,0.0065
1537.00,0.0064
1536.00,0.0063
1535.00,0.0061
1534.00,0.0058
1533.00,0.0055
1532.00,0.0054
1531.00,0.0053
1530.00,0.0052
1529.00,0.0051
1528.00,0.0051
1527.00,0.0051
1526.00,0.0050
1525.00,0.0050
1524.00,0.0050
1523.00,0.0051
1522.00,0.0050
1521.00,0.0051
1520.00,0.0051
1519.00,0.0052
1518.00,0.0052
1517.00,0.0052
1516.00,0.0053
1515.00,0.0053
1514.00,0.0054
1513.00,0.0055
1512.00,0.0056
1511.00,0.0057
1510.00,0.0058
1509.00,0.0059
1508.00,0.0060
1507.00,0.0060
1506.00,0.0060
1505.00,0.0062
1504.00,0.0064
1503.00,0.0065
1502.00,0.0066
1501.00,0.0068
1500.00,0.0071
1499.00,0.0072
1498.00,0.0074
1497.00,0.0077
1496.00,0.0081
1495.00,0.0084
1494.00,0.0087
1493.00,0.0091
1492.00,0.0095
1491.00,0.0099
1490.00,0.0103
1489.00,0.0108
1488.00,0.0114
1487.00,0.0119
1486.00,0.0125
1485.00,0.0131
1484.00,0.0138
1483.00,0.0146
1482.00,0.0156
1481.00,0.0168
1480.00,0.0181
1479.00,0.0195
1478.00,0.0211
1477.00,0.0232
1476.00,0.0258
1475.00,0.0287
1474.00,0.0327
1473.00,0.0386
1472.00,0.0455
1471.00,0.0522
1470.00,0.0586
1469.00,0.0653
1468.00,0.0726
1467.00,0.0806
1466.00,0.0898
1465.00,0.0998
1464.00,0.1085
1463.00,0.1144
1462.00,0.1181
1461.00,0.1205
1460.00,0.1221
1459.00,0.1231
1458.00,0.1237
1457.00,0.1239
1456.00,0.1233
1455.00,0.1221
1454.00,0.1206
1453.00,0.1185
1452.00,0.1156
1451.00,0.1116
1450.00,0.1063
1449.00,0.0991
1448.00,0.0899
1447.00,0.0803
1446.00,0.0717
1445.00,0.0644
1444.00,0.0582
1443.00,0.0531
1442.00,0.0493
1441.00,0.0467
1440.00,0.0451
1439.00,0.0446
1438.00,0.0449
1437.00,0.0454
1436.00,0.0447
1435.00,0.0423
1434.00,0.0387
1433.00,0.0342
1432.00,0.0295
1431.00,0.0254
1430.00,0.0221
1429.00,0.0197
1428.00,0.0181
1427.00,0.0171
1426.00,0.0165
1425.00,0.0159
1424.00,0.0152
1423.00,0.0148
1422.00,0.0146
1421.00,0.0143
1420.00,0.0139
1419.00,0.0135
1418.00,0.0132
1417.00,0.0129
1416.00,0.0126
1415.00,0.0124
1414.00,0.0124
1413.00,0.0122
1412.00,0.0120
1411.00,0.0119
1410.00,0.0118
1409.00,0.0117
1408.00,0.0116
1407.00,0.0115
1406.00,0.0115
1405.00,0.0115
1404.00,0.0114
1403.00,0.0115
1402.00,0.0116
1401.00,0.0117
1400.00,0.0118
1399.00,0.0119
1398.00,0.0121
1397.00,0.0123
1396.00,0.0125
1395.00,0.0128
1394.00,0.0133
1393.00,0.0138
1392.00,0.0144
1391.00,0.0152
1390.00,0.0163
1389.00,0.0177
1388.00,0.0198
1387.00,0.0230
1386.00,0.0273
1385.00,0.0330
1384.00,0.0408
1383.00,0.0519
1382.00,0.0670
1381.00,0.0866
1380.00,0.1113
1379.00,0.1402
1378.00,0.1691
1377.00,0.1914
1376.00,0.2005
1375.00,0.1919
1374.00,0.1681
1373.00,0.1386
1372.00,0.1113
1371.00,0.0887
1370.00,0.0707
1369.00,0.0570
1368.00,0.0477
1367.00,0.0420
1366.00,0.0390
1365.00,0.0378
1364.00,0.0381
1363.00,0.0396
1362.00,0.0419
1361.00,0.0444
1360.00,0.0462
1359.00,0.0468
1358.00,0.0456
1357.00,0.0429
1356.00,0.0390
1355.00,0.0347
1354.00,0.0305
1353.00,0.0270
1352.00,0.0241
1351.00,0.0219
1350.00,0.0200
1349.00,0.0185
1348.00,0.0172
1347.00,0.0161
1346.00,0.0151
1345.00,0.0143
1344.00,0.0137
1343.00,0.0132
1342.00,0.0128
1341.00,0.0124
1340.00,0.0122
1339.00,0.0120
1338.00,0.0118
1337.00,0.0118
1336.00,0.0119
1335.00,0.0121
1334.00,0.0124
1333.00,0.0129
1332.00,0.0133
1331.00,0.0136
1330.00,0.0137
1329.00,0.0136
1328.00,0.0132
1327.00,0.0127
1326.00,0.0121
1325.00,0.0115
1324.00,0.0109
1323.00,0.0104
1322.00,0.0100
1321.00,0.0097
1320.00,0.0094
1319.00,0.0092
1318.00,0.0090
1317.00,0.0089
1316.00,0.0087
1315.00,0.0087
1314.00,0.0086
1313.00,0.0086
1312.00,0.0087
1311.00,0.0089
1310.00,0.0093
1309.00,0.0098
1308.00,0.0106
1307.00,0.0116
1306.00,0.0126
1305.00,0.0133
1304.00,0.0135
1303.00,0.0134
1302.00,0.0130
1301.00,0.0127
1300.00,0.0125
1299.00,0.0125
1298.00,0.0127
1297.00,0.0128
1296.00,0.0128
1295.00,0.0125
1294.00,0.0121
1293.00,0.0116
1292.00,0.0110
1291.00,0.0105
1290.00,0.0100
1289.00,0.0096
1288.00,0.0093
1287.00,0.0090
1286.00,0.0088
1285.00,0.0086
1284.00,0.0084
1283.00,0.0082
1282.00,0.0081
1281.00,0.0079
1280.00,0.0078
1279.00,0.0077
1278.00,0.0076
1277.00,0.0075
1276.00,0.0075
1275.00,0.0074
1274.00,0.0074
1273.00,0.0075
1272.00,0.0075
1271.00,0.0075
1270.00,0.0076
1269.00,0.0076
1268.00,0.0077
1267.00,0.0079
1266.00,0.0081
1265.00,0.0083
1264.00,0.0085
1263.00,0.0087
1262.00,0.0090
1261.00,0.0094
1260.00,0.0100
1259.00,0.0106
1258.00,0.0113
1257.00,0.0118
1256.00,0.0121
1255.00,0.0120
1254.00,0.0115
1253.00,0.0107
1252.00,0.0100
1251.00,0.0094
1250.00,0.0089
1249.00,0.0085
1248.00,0.0082
1247.00,0.0080
1246.00,0.0078
1245.00,0.0077
1244.00,0.0075
1243.00,0.0074
1242.00,0.0073
1241.00,0.0073
1240.00,0.0073
1239.00,0.0072
1238.00,0.0073
1237.00,0.0073
1236.00,0.0073
1235.00,0.0073
1234.00,0.0073
1233.00,0.0073
1232.00,0.0073
1231.00,0.0073
1230.00,0.0075
1229.00,0.0076
1228.00,0.0078
1227.00,0.0079
1226.00,0.0081
1225.00,0.0084
1224.00,0.0087
1223.00,0.0090
1222.00,0.0093
1221.00,0.0095
1220.00,0.0097
1219.00,0.0097
1218.00,0.0097
1217.00,0.0095
1216.00,0.0093
1215.00,0.0090
1214.00,0.0087
1213.00,0.0084
1212.00,0.0082
1211.00,0.0080
1210.00,0.0078
1209.00,0.0076
1208.00,0.0075
1207.00,0.0074
1206.00,0.0073
1205.00,0.0073
1204.00,0.0072
1203.00,0.0072
1202.00,0.0072
1201.00,0.0072
1200.00,0.0072
1199.00,0.0072
1198.00,0.0072
1197.00,0.0072
1196.00,0.0071
1195.00,0.0071
1194.00,0.0071
1193.00,0.0071
1192.00,0.0071
1191.00,0.0072
1190.00,0.0071
1189.00,0.0071
1188.00,0.0070
1187.00,0.0070
1186.00,0.0071
1185.00,0.0072
1184.00,0.0073
1183.00,0.0074
1182.00,0.0076
1181.00,0.0079
1180.00,0.0083
1179.00,0.0087
1178.00,0.0092
1177.00,0.0099
1176.00,0.0109
1175.00,0.0122
1174.00,0.0140
1173.00,0.0162
1172.00,0.0190
1171.00,0.0220
1170.00,0.0249
1169.00,0.0272
1168.00,0.0285
1167.00,0.0288
1166.00,0.0281
1165.00,0.0268
1164.00,0.0254
1163.00,0.0240
1162.00,0.0228
1161.00,0.0218
1160.00,0.0209
1159.00,0.0202
1158.00,0.0197
1157.00,0.0194
1156.00,0.0193
1155.00,0.0192
1154.00,0.0192
1153.00,0.0190
1152.00,0.0186
1151.00,0.0179
1150.00,0.0170
1149.00,0.0160
1148.00,0.0151
1147.00,0.0142
1146.00,0.0133
1145.00,0.0125
1144.00,0.0118
1143.00,0.0111
1142.00,0.0105
1141.00,0.0099
1140.00,0.0095
1139.00,0.0090
1138.00,0.0087
1137.00,0.0083
1136.00,0.0080
1135.00,0.0078
1134.00,0.0076
1133.00,0.0075
1132.00,0.0074
1131.00,0.0073
1130.00,0.0073
1129.00,0.0073
1128.00,0.0072
1127.00,0.0072
1126.00,0.0071
1125.00,0.0071
1124.00,0.0071
1123.00,0.0072
1122.00,0.0072
1121.00,0.0073
1120.00,0.0074
1119.00,0.0074
1118.00,0.0075
1117.00,0.0075
1116.00,0.0077
1115.00,0.0079
1114.00,0.0081
1113.00,0.0083
1112.00,0.0085
1111.00,0.0087
1110.00,0.0090
1109.00,0.0093
1108.00,0.0097
1107.00,0.0103
1106.00,0.0110
1105.00,0.0117
1104.00,0.0123
1103.00,0.0126
1102.00,0.0126
1101.00,0.0122
1100.00,0.0116
1099.00,0.0110
1098.00,0.0104
1097.00,0.0097
1096.00,0.0092
1095.00,0.0088
1094.00,0.0085
1093.00,0.0083
1092.00,0.0080
1091.00,0.0079
1090.00,0.0077
1089.00,0.0076
1088.00,0.0075
1087.00,0.0074
1086.00,0.0074
1085.00,0.0074
1084.00,0.0074
1083.00,0.0073
1082.00,0.0072
1081.00,0.0071
1080.00,0.0069
1079.00,0.0067
1078.00,0.0066
1077.00,0.0066
1076.00,0.0066
1075.00,0.0067
1074.00,0.0067
1073.00,0.0067
1072.00,0.0066
1071.00,0.0066
1070.00,0.0065
1069.00,0.0065
1068.00,0.0065
1067.00,0.0064
1066.00,0.0064
1065.00,0.0063
1064.00,0.0063
1063.00,0.0062
1062.00,0.0062
1061.00,0.0062
1060.00,0.0063
1059.00,0.0064
1058.00,0.0065
1057.00,0.0066
1056.00,0.0067
1055.00,0.0068
1054.00,0.0068
1053.00,0.0069
1052.00,0.0070
1051.00,0.0072
1050.00,0.0075
1049.00,0.0078
1048.00,0.0080
1047.00,0.0083
1046.00,0.0084
1045.00,0.0085
1044.00,0.0085
1043.00,0.0084
1042.00,0.0083
1041.00,0.0081
1040.00,0.0080
1039.00,0.0079
1038.00,0.0080
1037.00,0.0080
1036.00,0.0080
1035.00,0.0079
1034.00,0.0078
1033.00,0.0076
1032.00,0.0074
1031.00,0.0073
1030.00,0.0073
1029.00,0.0073
1028.00,0.0073
1027.00,0.0073
1026.00,0.0073
1025.00,0.0073
1024.00,0.0073
1023.00,0.0073
1022.00,0.0073
1021.00,0.0072
1020.00,0.0073
1019.00,0.0074
1018.00,0.0076
1017.00,0.0078
1016.00,0.0080
1015.00,0.0081
1014.00,0.0084
1013.00,0.0086
1012.00,0.0088
1011.00,0.0091
1010.00,0.0094
1009.00,0.0098
1008.00,0.0103
1007.00,0.0110
1006.00,0.0118
1005.00,0.0129
1004.00,0.0143
1003.00,0.0163
1002.00,0.0191
1001.00,0.0225
1000.00,0.0260
999.00,0.0289
998.00,0.0303
997.00,0.0296
996.00,0.0271
995.00,0.0236
994.00,0.0200
993.00,0.0169
992.00,0.0145
991.00,0.0129
990.00,0.0118
989.00,0.0111
988.00,0.0106
987.00,0.0103
986.00,0.0102
985.00,0.0104
984.00,0.0107
983.00,0.0113
982.00,0.0124
981.00,0.0140
980.00,0.0162
979.00,0.0191
978.00,0.0227
977.00,0.0267
976.00,0.0308
975.00,0.0345
974.00,0.0371
973.00,0.0378
972.00,0.0361
971.00,0.0324
970.00,0.0277
969.00,0.0230
968.00,0.0190
967.00,0.0161
966.00,0.0140
965.00,0.0126
964.00,0.0115
963.00,0.0107
962.00,0.0100
961.00,0.0095
960.00,0.0091
959.00,0.0087
958.00,0.0084
957.00,0.0082
956.00,0.0079
955.00,0.0078
954.00,0.0077
953.00,0.0076
952.00,0.0075
951.00,0.0074
950.00,0.0073
949.00,0.0071
948.00,0.0071
947.00,0.0072
946.00,0.0074
945.00,0.0077
944.00,0.0081
943.00,0.0084
942.00,0.0087
941.00,0.0089
940.00,0.0089
939.00,0.0087
938.00,0.0082
937.00,0.0076
936.00,0.0070
935.00,0.0065
934.00,0.0063
933.00,0.0061
932.00,0.0060
931.00,0.0059
930.00,0.0058
929.00,0.0057
928.00,0.0057
927.00,0.0057
926.00,0.0057
925.00,0.0057
924.00,0.0057
923.00,0.0057
922.00,0.0057
921.00,0.0057
920.00,0.0057
919.00,0.0058
918.00,0.0059
917.00,0.0060
916.00,0.0061
915.00,0.0062
914.00,0.0062
913.00,0.0063
912.00,0.0065
911.00,0.0067
910.00,0.0068
909.00,0.0070
908.00,0.0072
907.00,0.0077
906.00,0.0085
905.00,0.0096
904.00,0.0112
903.00,0.0131
902.00,0.0151
901.00,0.0170
900.00,0.0182
899.00,0.0185
898.00,0.0177
897.00,0.0161
896.00,0.0141
895.00,0.0122
894.00,0.0106
893.00,0.0094
892.00,0.0086
891.00,0.0080
890.00,0.0076
889.00,0.0072
888.00,0.0070
887.00,0.0069
886.00,0.0068
885.00,0.0068
884.00,0.0068
883.00,0.0069
882.00,0.0070
881.00,0.0072
880.00,0.0074
879.00,0.0076
878.00,0.0078
877.00,0.0078
876.00,0.0078
875.00,0.0077
874.00,0.0077
873.00,0.0077
872.00,0.0077
871.00,0.0076
870.00,0.0075
869.00,0.0073
868.00,0.0073
867.00,0.0073
866.00,0.0073
865.00,0.0074
864.00,0.0075
863.00,0.0077
862.00,0.0079
861.00,0.0081
860.00,0.0082
859.00,0.0083
858.00,0.0084
857.00,0.0085
856.00,0.0086
855.00,0.0088
854.00,0.0089
853.00,0.0092
852.00,0.0095
851.00,0.0098
850.00,0.0102
849.00,0.0106
848.00,0.0113
847.00,0.0125
846.00,0.0144
845.00,0.0172
844.00,0.0211
843.00,0.0253
842.00,0.0286
841.00,0.0294
840.00,0.0272
839.00,0.0231
838.00,0.0188
837.00,0.0156
836.00,0.0136
835.00,0.0123
834.00,0.0114
833.00,0.0107
832.00,0.0103
831.00,0.0100
830.00,0.0098
829.00,0.0097
828.00,0.0095
827.00,0.0092
826.00,0.0091
825.00,0.0090
824.00,0.0090
823.00,0.0090
822.00,0.0091
821.00,0.0093
820.00,0.0095
819.00,0.0097
818.00,0.0100
817.00,0.0105
816.00,0.0114
815.00,0.0127
814.00,0.0144
813.00,0.0165
812.00,0.0186
811.00,0.0206
810.00,0.0220
809.00,0.0226
808.00,0.0221
807.00,0.0207
806.00,0.0187
805.00,0.0167
804.00,0.0148
803.00,0.0134
802.00,0.0122
801.00,0.0114
800.00,0.0107
799.00,0.0102
798.00,0.0099
797.00,0.0096
796.00,0.0093
795.00,0.0090
794.00,0.0087
793.00,0.0083
792.00,0.0080
791.00,0.0077
790.00,0.0074
789.00,0.0071
788.00,0.0068
787.00,0.0066
786.00,0.0063
785.00,0.0060
784.00,0.0057
783.00,0.0055
782.00,0.0055
781.00,0.0056
780.00,0.0057
779.00,0.0057
778.00,0.0057
777.00,0.0056
776.00,0.0055
775.00,0.0055
774.00,0.0055
773.00,0.0055
772.00,0.0056
771.00,0.0057
770.00,0.0057
769.00,0.0057
768.00,0.0056
767.00,0.0056
766.00,0.0056
765.00,0.0055
764.00,0.0055
763.00,0.0055
762.00,0.0056
761.00,0.0056
760.00,0.0055
759.00,0.0056
758.00,0.0056
757.00,0.0056
756.00,0.0056
755.00,0.0057
754.00,0.0057
753.00,0.0059
752.00,0.0061
751.00,0.0063
750.00,0.0063
749.00,0.0063
748.00,0.0062
747.00,0.0062
746.00,0.0062
745.00,0.0064
744.00,0.0066
743.00,0.0068
742.00,0.0070
741.00,0.0072
740.00,0.0074
739.00,0.0076
738.00,0.0077
737.00,0.0079
736.00,0.0082
735.00,0.0086
734.00,0.0091
733.00,0.0098
732.00,0.0105
731.00,0.0112
730.00,0.0117
729.00,0.0120
728.00,0.0120
727.00,0.0120
726.00,0.0121
725.00,0.0124
724.00,0.0129
723.00,0.0136
722.00,0.0143
721.00,0.0147
720.00,0.0145
719.00,0.0138
718.00,0.0126
717.00,0.0113
716.00,0.0103
715.00,0.0095
714.00,0.0089
713.00,0.0085
712.00,0.0081
711.00,0.0078
710.00,0.0075
709.00,0.0071
708.00,0.0069
707.00,0.0068
706.00,0.0067
705.00,0.0066
704.00,0.0064
703.00,0.0062
702.00,0.0060
701.00,0.0059
700.00,0.0057
699.00,0.0056
698.00,0.0055
697.00,0.0054
696.00,0.0054
695.00,0.0055
694.00,0.0056
693.00,0.0056
692.00,0.0056
691.00,0.0054
690.00,0.0053
689.00,0.0053
688.00,0.0053
687.00,0.0054
686.00,0.0054
685.00,0.0055
684.00,0.0055
683.00,0.0056
682.00,0.0055
681.00,0.0053
680.00,0.0051
679.00,0.0049
678.00,0.0047
677.00,0.0046
676.00,0.0046
675.00,0.0046
674.00,0.0046
673.00,0.0046
672.00,0.0047
671.00,0.0049
670.00,0.0053
669.00,0.0058
668.00,0.0062
667.00,0.0063
666.00,0.0061
665.00,0.0057
664.00,0.0053
663.00,0.0049
662.00,0.0047
661.00,0.0047
660.00,0.0048
659.00,0.0050
658.00,0.0051
657.00,0.0051
656.00,0.0052
655.00,0.0054
654.00,0.0056
653.00,0.0058
652.00,0.0058
651.00,0.0057
650.00,0.0053
649.00,0.0050
648.00,0.0048
647.00,0.0048
646.00,0.0050
645.00,0.0053
644.00,0.0055
643.00,0.0056
642.00,0.0055
641.00,0.0053
640.00,0.0053
639.00,0.0055
638.00,0.0057
637.00,0.0058
636.00,0.0056
635.00,0.0054
634.00,0.0051
633.00,0.0050
632.00,0.0050
631.00,0.0051
630.00,0.0051
629.00,0.0051
628.00,0.0050
627.00,0.0052
626.00,0.0054
625.00,0.0057
624.00,0.0057
623.00,0.0055
622.00,0.0053
621.00,0.0052
620.00,0.0051
619.00,0.0051
618.00,0.0051
617.00,0.0050
616.00,0.0050
615.00,0.0049
614.00,0.0048
613.00,0.0047
612.00,0.0048
611.00,0.0050
610.00,0.0054
609.00,0.0059
608.00,0.0061
607.00,0.0061
606.00,0.0058
605.00,0.0056
604.00,0.0056
603.00,0.0057
602.00,0.0059
601.00,0.0060
600.00,0.0060
599.00,0.0060
598.00,0.0059
597.00,0.0057
596.00,0.0055
595.00,0.0056
594.00,0.0059
593.00,0.0063
592.00,0.0065
591.00,0.0065
590.00,0.0065
589.00,0.0066
588.00,0.0065
587.00,0.0062
586.00,0.0059
585.00,0.0057
584.00,0.0057
583.00,0.0057
582.00,0.0057
581.00,0.0056
580.00,0.0057
579.00,0.0059
578.00,0.0061
577.00,0.0062
576.00,0.0060
575.00,0.0058
574.00,0.0057
573.00,0.0058
572.00,0.0060
571.00,0.0062
570.00,0.0062
569.00,0.0059
568.00,0.0055
567.00,0.0050
566.00,0.0048
565.00,0.0049
564.00,0.0052
563.00,0.0056
562.00,0.0059
561.00,0.0060
560.00,0.0060
559.00,0.0060
558.00,0.0059
557.00,0.0057
556.00,0.0057
555.00,0.0059
554.00,0.0061
553.00,0.0062
552.00,0.0060
551.00,0.0058
550.00,0.0058
549.00,0.0061
548.00,0.0067
547.00,0.0072
546.00,0.0074
545.00,0.0073
544.00,0.0070
543.00,0.0066
542.00,0.0063
541.00,0.0062
540.00,0.0062
539.00,0.0066
538.00,0.0072
537.00,0.0076
536.00,0.0078
535.00,0.0078
534.00,0.0076
533.00,0.0073
532.00,0.0068
531.00,0.0065
530.00,0.0064
529.00,0.0068
528.00,0.0074
527.00,0.0079
526.00,0.0082
525.00,0.0081
524.00,0.0078
523.00,0.0074
522.00,0.0068
521.00,0.0063
520.00,0.0059
519.00,0.0057
518.00,0.0058
517.00,0.0059
516.00,0.0061
515.00,0.0065
514.00,0.0071
513.00,0.0076
512.00,0.0079
511.00,0.0079
510.00,0.0077
509.00,0.0074
508.00,0.0071
507.00,0.0068
506.00,0.0065
505.00,0.0069
504.00,0.0078
503.00,0.0086
502.00,0.0087
501.00,0.0080
500.00,0.0073
499.00,0.0072
498.00,0.0076
497.00,0.0083
496.00,0.0088
495.00,0.0092
494.00,0.0093
493.00,0.0091
492.00,0.0085
491.00,0.0077
490.00,0.0069
489.00,0.0066
488.00,0.0070
487.00,0.0079
486.00,0.0083
485.00,0.0076
484.00,0.0060
483.00,0.0044
482.00,0.0038
481.00,0.0043
480.00,0.0051
479.00,0.0061
478.00,0.0072
477.00,0.0083
476.00,0.0091
475.00,0.0093
474.00,0.0088
473.00,0.0081
472.00,0.0077
471.00,0.0077
470.00,0.0080
469.00,0.0083
468.00,0.0088
467.00,0.0094
466.00,0.0103
465.00,0.0113
464.00,0.0122
463.00,0.0133
462.00,0.0146
461.00,0.0160
460.00,0.0172
459.00,0.0174
458.00,0.0166
457.00,0.0153
456.00,0.0143
455.00,0.0140
454.00,0.0141
453.00,0.0142
452.00,0.0137
451.00,0.0128
450.00,0.0114
