Created as New Dataset,Sample 111 By Administrator Date Friday, September 05 2025
cm-1,A
4000.00,0.0019
3999.00,0.0019
3998.00,0.0019
3997.00,0.0019
3996.00,0.0020
3995.00,0.0020
3994.00,0.0020
3993.00,0.0020
3992.00,0.0020
3991.00,0.0020
3990.00,0.0020
3989.00,0.0020
3988.00,0.0020
3987.00,0.0020
3986.00,0.0020
3985.00,0.0020
3984.00,0.0019
3983.00,0.0019
3982.00,0.0019
3981.00,0.0019
3980.00,0.0019
3979.00,0.0019
3978.00,0.0019
3977.00,0.0019
3976.00,0.0019
3975.00,0.0019
3974.00,0.0018
3973.00,0.0018
3972.00,0.0018
3971.00,0.0018
3970.00,0.0018
3969.00,0.0018
3968.00,0.0018
3967.00,0.0018
3966.00,0.0018
3965.00,0.0018
3964.00,0.0018
3963.00,0.0018
3962.00,0.0018
3961.00,0.0018
3960.00,0.0018
3959.00,0.0018
3958.00,0.0018
3957.00,0.0018
3956.00,0.0018
3955.00,0.0017
3954.00,0.0017
3953.00,0.0017
3952.00,0.0017
3951.00,0.0017
3950.00,0.0017
3949.00,0.0018
3948.00,0.0018
3947.00,0.0017
3946.00,0.0017
3945.00,0.0017
3944.00,0.0018
3943.00,0.0018
3942.00,0.0018
3941.00,0.0018
3940.00,0.0017
3939.00,0.0017
3938.00,0.0017
3937.00,0.0017
3936.00,0.0017
3935.00,0.0018
3934.00,0.0018
3933.00,0.0018
3932.00,0.0018
3931.00,0.0017
3930.00,0.0018
3929.00,0.0018
3928.00,0.0018
3927.00,0.0018
3926.00,0.0018
3925.00,0.0018
3924.00,0.0019
3923.00,0.0019
3922.00,0.0019
3921.00,0.0019
3920.00,0.0019
3919.00,0.0018
3918.00,0.0018
3917.00,0.0018
3916.00,0.0018
3915.00,0.0018
3914.00,0.0018
3913.00,0.0018
3912.00,0.0018
3911.00,0.0018
3910.00,0.0018
3909.00,0.0018
3908.00,0.0018
3907.00,0.0018
3906.00,0.0018
3905.00,0.0018
3904.00,0.0019
3903.00,0.0018
3902.00,0.0018
3901.00,0.0017
3900.00,0.0017
3899.00,0.0017
3898.00,0.0017
3897.00,0.0018
3896.00,0.0018
3895.00,0.0018
3894.00,0.0018
3893.00,0.0018
3892.00,0.0018
3891.00,0.0018
3890.00,0.0018
3889.00,0.0018
3888.00,0.0018
3887.00,0.0018
3886.00,0.0018
3885.00,0.0017
3884.00,0.0017
3883.00,0.0017
3882.00,0.0017
3881.00,0.0018
3880.00,0.0018
3879.00,0.0018
3878.00,0.0018
3877.00,0.0018
3876.00,0.0018
3875.00,0.0018
3874.00,0.0018
3873.00,0.0018
3872.00,0.0018
3871.00,0.0018
3870.00,0.0018
3869.00,0.0018
3868.00,0.0018
3867.00,0.0018
3866.00,0.0018
3865.00,0.0018
3864.00,0.0018
3863.00,0.0018
3862.00,0.0017
3861.00,0.0017
3860.00,0.0017
3859.00,0.0017
3858.00,0.0017
3857.00,0.0017
3856.00,0.0017
3855.00,0.0017
3854.00,0.0017
3853.00,0.0017
3852.00,0.0017
3851.00,0.0017
3850.00,0.0017
3849.00,0.0017
3848.00,0.0017
3847.00,0.0017
3846.00,0.0017
3845.00,0.0017
3844.00,0.0017
3843.00,0.0017
3842.00,0.0017
3841.00,0.0018
3840.00,0.0018
3839.00,0.0018
3838.00,0.0018
3837.00,0.0017
3836.00,0.0017
3835.00,0.0017
3834.00,0.0017
3833.00,0.0017
3832.00,0.0017
3831.00,0.0017
3830.00,0.0018
3829.00,0.0018
3828.00,0.0018
3827.00,0.0017
3826.00,0.0017
3825.00,0.0017
3824.00,0.0017
3823.00,0.0017
3822.00,0.0017
3821.00,0.0017
3820.00,0.0017
3819.00,0.0017
3818.00,0.0017
3817.00,0.0017
3816.00,0.0017
3815.00,0.0017
3814.00,0.0017
3813.00,0.0017
3812.00,0.0017
3811.00,0.0016
3810.00,0.0016
3809.00,0.0016
3808.00,0.0016
3807.00,0.0017
3806.00,0.0017
3805.00,0.0017
3804.00,0.0016
3803.00,0.0016
3802.00,0.0016
3801.00,0.0016
3800.00,0.0016
3799.00,0.0017
3798.00,0.0017
3797.00,0.0017
3796.00,0.0017
3795.00,0.0017
3794.00,0.0017
3793.00,0.0017
3792.00,0.0017
3791.00,0.0017
3790.00,0.0017
3789.00,0.0017
3788.00,0.0017
3787.00,0.0017
3786.00,0.0017
3785.00,0.0017
3784.00,0.0017
3783.00,0.0017
3782.00,0.0017
3781.00,0.0017
3780.00,0.0017
3779.00,0.0017
3778.00,0.0017
3777.00,0.0017
3776.00,0.0016
3775.00,0.0016
3774.00,0.0016
3773.00,0.0016
3772.00,0.0016
3771.00,0.0016
3770.00,0.0016
3769.00,0.0017
3768.00,0.0017
3767.00,0.0017
3766.00,0.0018
3765.00,0.0018
3764.00,0.0018
3763.00,0.0018
3762.00,0.0018
3761.00,0.0018
3760.00,0.0018
3759.00,0.0018
3758.00,0.0017
3757.00,0.0017
3756.00,0.0017
3755.00,0.0018
3754.00,0.0018
3753.00,0.0018
3752.00,0.0018
3751.00,0.0017
3750.00,0.0017
3749.00,0.0017
3748.00,0.0017
3747.00,0.0017
3746.00,0.0017
3745.00,0.0017
3744.00,0.0016
3743.00,0.0016
3742.00,0.0016
3741.00,0.0016
3740.00,0.0015
3739.00,0.0015
3738.00,0.0014
3737.00,0.0014
3736.00,0.0015
3735.00,0.0016
3734.00,0.0016
3733.00,0.0016
3732.00,0.0016
3731.00,0.0016
3730.00,0.0016
3729.00,0.0016
3728.00,0.0016
3727.00,0.0016
3726.00,0.0016
3725.00,0.0016
3724.00,0.0016
3723.00,0.0016
3722.00,0.0016
3721.00,0.0016
3720.00,0.0015
3719.00,0.0015
3718.00,0.0015
3717.00,0.0014
3716.00,0.0014
3715.00,0.0014
3714.00,0.0014
3713.00,0.0014
3712.00,0.0014
3711.00,0.0014
3710.00,0.0015
3709.00,0.0015
3708.00,0.0015
3707.00,0.0015
3706.00,0.0015
3705.00,0.0015
3704.00,0.0015
3703.00,0.0015
3702.00,0.0015
3701.00,0.0015
3700.00,0.0015
3699.00,0.0015
3698.00,0.0015
3697.00,0.0015
3696.00,0.0015
3695.00,0.0015
3694.00,0.0015
3693.00,0.0015
3692.00,0.0015
3691.00,0.0015
3690.00,0.0015
3689.00,0.0015
3688.00,0.0015
3687.00,0.0014
3686.00,0.0014
3685.00,0.0014
3684.00,0.0014
3683.00,0.0014
3682.00,0.0014
3681.00,0.0015
3680.00,0.0015
3679.00,0.0016
3678.00,0.0016
3677.00,0.0017
3676.00,0.0017
3675.00,0.0016
3674.00,0.0015
3673.00,0.0015
3672.00,0.0015
3671.00,0.0015
3670.00,0.0015
3669.00,0.0015
3668.00,0.0014
3667.00,0.0014
3666.00,0.0014
3665.00,0.0014
3664.00,0.0014
3663.00,0.0014
3662.00,0.0014
3661.00,0.0014
3660.00,0.0013
3659.00,0.0013
3658.00,0.0012
3657.00,0.0012
3656.00,0.0012
3655.00,0.0012
3654.00,0.0012
3653.00,0.0012
3652.00,0.0013
3651.00,0.0013
3650.00,0.0014
3649.00,0.0014
3648.00,0.0014
3647.00,0.0014
3646.00,0.0014
3645.00,0.0015
3644.00,0.0015
3643.00,0.0015
3642.00,0.0015
3641.00,0.0015
3640.00,0.0016
3639.00,0.0016
3638.00,0.0016
3637.00,0.0016
3636.00,0.0015
3635.00,0.0015
3634.00,0.0014
3633.00,0.0014
3632.00,0.0014
3631.00,0.0014
3630.00,0.0014
3629.00,0.0014
3628.00,0.0013
3627.00,0.0013
3626.00,0.0013
3625.00,0.0013
3624.00,0.0014
3623.00,0.0014
3622.00,0.0014
3621.00,0.0014
3620.00,0.0014
3619.00,0.0014
3618.00,0.0014
3617.00,0.0013
3616.00,0.0013
3615.00,0.0014
3614.00,0.0014
3613.00,0.0014
3612.00,0.0014
3611.00,0.0014
3610.00,0.0014
3609.00,0.0014
3608.00,0.0015
3607.00,0.0015
3606.00,0.0015
3605.00,0.0015
3604.00,0.0015
3603.00,0.0015
3602.00,0.0015
3601.00,0.0015
3600.00,0.0014
3599.00,0.0014
3598.00,0.0014
3597.00,0.0015
3596.00,0.0015
3595.00,0.0015
3594.00,0.0014
3593.00,0.0014
3592.00,0.0015
3591.00,0.0015
3590.00,0.0016
3589.00,0.0016
3588.00,0.0016
3587.00,0.0016
3586.00,0.0016
3585.00,0.0015
3584.00,0.0015
3583.00,0.0016
3582.00,0.0016
3581.00,0.0016
3580.00,0.0016
3579.00,0.0016
3578.00,0.0016
3577.00,0.0016
3576.00,0.0016
3575.00,0.0016
3574.00,0.0016
3573.00,0.0016
3572.00,0.0016
3571.00,0.0016
3570.00,0.0016
3569.00,0.0016
3568.00,0.0016
3567.00,0.0016
3566.00,0.0017
3565.00,0.0017
3564.00,0.0017
3563.00,0.0017
3562.00,0.0017
3561.00,0.0017
3560.00,0.0017
3559.00,0.0017
3558.00,0.0017
3557.00,0.0017
3556.00,0.0017
3555.00,0.0017
3554.00,0.0018
3553.00,0.0018
3552.00,0.0018
3551.00,0.0018
3550.00,0.0018
3549.00,0.0018
3548.00,0.0018
3547.00,0.0018
3546.00,0.0019
3545.00,0.0019
3544.00,0.0019
3543.00,0.0019
3542.00,0.0019
3541.00,0.0019
3540.00,0.0019
3539.00,0.0019
3538.00,0.0018
3537.00,0.0018
3536.00,0.0019
3535.00,0.0019
3534.00,0.0020
3533.00,0.0020
3532.00,0.0020
3531.00,0.0020
3530.00,0.0020
3529.00,0.0021
3528.00,0.0021
3527.00,0.0020
3526.00,0.0020
3525.00,0.0020
3524.00,0.0021
3523.00,0.0021
3522.00,0.0021
3521.00,0.0021
3520.00,0.0021
3519.00,0.0021
3518.00,0.0021
3517.00,0.0021
3516.00,0.0021
3515.00,0.0021
3514.00,0.0021
3513.00,0.0021
3512.00,0.0021
3511.00,0.0022
3510.00,0.0022
3509.00,0.0022
3508.00,0.0022
3507.00,0.0022
3506.00,0.0022
3505.00,0.0022
3504.00,0.0022
3503.00,0.0022
3502.00,0.0022
3501.00,0.0022
3500.00,0.0022
3499.00,0.0022
3498.00,0.0022
3497.00,0.0022
3496.00,0.0022
3495.00,0.0022
3494.00,0.0022
3493.00,0.0022
3492.00,0.0022
3491.00,0.0022
3490.00,0.0022
3489.00,0.0022
3488.00,0.0022
3487.00,0.0022
3486.00,0.0022
3485.00,0.0023
3484.00,0.0023
3483.00,0.0023
3482.00,0.0023
3481.00,0.0022
3480.00,0.0022
3479.00,0.0022
3478.00,0.0022
3477.00,0.0022
3476.00,0.0022
3475.00,0.0022
3474.00,0.0023
3473.00,0.0023
3472.00,0.0023
3471.00,0.0023
3470.00,0.0024
3469.00,0.0024
3468.00,0.0024
3467.00,0.0024
3466.00,0.0024
3465.00,0.0024
3464.00,0.0024
3463.00,0.0025
3462.00,0.0025
3461.00,0.0025
3460.00,0.0025
3459.00,0.0025
3458.00,0.0025
3457.00,0.0024
3456.00,0.0024
3455.00,0.0024
3454.00,0.0025
3453.00,0.0025
3452.00,0.0025
3451.00,0.0025
3450.00,0.0025
3449.00,0.0025
3448.00,0.0025
3447.00,0.0025
3446.00,0.0026
3445.00,0.0026
3444.00,0.0026
3443.00,0.0026
3442.00,0.0026
3441.00,0.0026
3440.00,0.0027
3439.00,0.0027
3438.00,0.0026
3437.00,0.0026
3436.00,0.0027
3435.00,0.0027
3434.00,0.0027
3433.00,0.0027
3432.00,0.0027
3431.00,0.0027
3430.00,0.0027
3429.00,0.0027
3428.00,0.0027
3427.00,0.0027
3426.00,0.0027
3425.00,0.0027
3424.00,0.0027
3423.00,0.0028
3422.00,0.0028
3421.00,0.0028
3420.00,0.0028
3419.00,0.0028
3418.00,0.0028
3417.00,0.0028
3416.00,0.0029
3415.00,0.0029
3414.00,0.0029
3413.00,0.0029
3412.00,0.0029
3411.00,0.0029
3410.00,0.0029
3409.00,0.0028
3408.00,0.0029
3407.00,0.0029
3406.00,0.0029
3405.00,0.0029
3404.00,0.0029
3403.00,0.0029
3402.00,0.0029
3401.00,0.0029
3400.00,0.0030
3399.00,0.0030
3398.00,0.0031
3397.00,0.0031
3396.00,0.0031
3395.00,0.0031
3394.00,0.0031
3393.00,0.0031
3392.00,0.0031
3391.00,0.0031
3390.00,0.0030
3389.00,0.0030
3388.00,0.0030
3387.00,0.0030
3386.00,0.0030
3385.00,0.0030
3384.00,0.0030
3383.00,0.0029
3382.00,0.0029
3381.00,0.0029
3380.00,0.0029
3379.00,0.0030
3378.00,0.0030
3377.00,0.0030
3376.00,0.0030
3375.00,0.0029
3374.00,0.0029
3373.00,0.0029
3372.00,0.0029
3371.00,0.0029
3370.00,0.0029
3369.00,0.0029
3368.00,0.0030
3367.00,0.0030
3366.00,0.0030
3365.00,0.0030
3364.00,0.0030
3363.00,0.0030
3362.00,0.0029
3361.00,0.0029
3360.00,0.0029
3359.00,0.0029
3358.00,0.0029
3357.00,0.0029
3356.00,0.0029
3355.00,0.0029
3354.00,0.0029
3353.00,0.0029
3352.00,0.0029
3351.00,0.0029
3350.00,0.0029
3349.00,0.0030
3348.00,0.0030
3347.00,0.0030
3346.00,0.0030
3345.00,0.0030
3344.00,0.0030
3343.00,0.0030
3342.00,0.0029
3341.00,0.0029
3340.00,0.0029
3339.00,0.0030
3338.00,0.0030
3337.00,0.0030
3336.00,0.0030
3335.00,0.0030
3334.00,0.0030
3333.00,0.0029
3332.00,0.0029
3331.00,0.0028
3330.00,0.0028
3329.00,0.0028
3328.00,0.0028
3327.00,0.0028
3326.00,0.0028
3325.00,0.0029
3324.00,0.0029
3323.00,0.0029
3322.00,0.0029
3321.00,0.0029
3320.00,0.0028
3319.00,0.0028
3318.00,0.0028
3317.00,0.0028
3316.00,0.0027
3315.00,0.0027
3314.00,0.0027
3313.00,0.0027
3312.00,0.0027
3311.00,0.0027
3310.00,0.0027
3309.00,0.0027
3308.00,0.0028
3307.00,0.0028
3306.00,0.0028
3305.00,0.0028
3304.00,0.0028
3303.00,0.0028
3302.00,0.0028
3301.00,0.0028
3300.00,0.0028
3299.00,0.0028
3298.00,0.0028
3297.00,0.0028
3296.00,0.0028
3295.00,0.0028
3294.00,0.0027
3293.00,0.0027
3292.00,0.0027
3291.00,0.0027
3290.00,0.0027
3289.00,0.0027
3288.00,0.0027
3287.00,0.0027
3286.00,0.0026
3285.00,0.0027
3284.00,0.0027
3283.00,0.0027
3282.00,0.0028
3281.00,0.0028
3280.00,0.0028
3279.00,0.0028
3278.00,0.0027
3277.00,0.0027
3276.00,0.0027
3275.00,0.0027
3274.00,0.0027
3273.00,0.0027
3272.00,0.0027
3271.00,0.0026
3270.00,0.0026
3269.00,0.0026
3268.00,0.0026
3267.00,0.0027
3266.00,0.0027
3265.00,0.0027
3264.00,0.0027
3263.00,0.0027
3262.00,0.0027
3261.00,0.0026
3260.00,0.0026
3259.00,0.0026
3258.00,0.0026
3257.00,0.0027
3256.00,0.0027
3255.00,0.0026
3254.00,0.0026
3253.00,0.0025
3252.00,0.0025
3251.00,0.0025
3250.00,0.0025
3249.00,0.0025
3248.00,0.0025
3247.00,0.0025
3246.00,0.0025
3245.00,0.0026
3244.00,0.0026
3243.00,0.0026
3242.00,0.0026
3241.00,0.0026
3240.00,0.0026
3239.00,0.0026
3238.00,0.0026
3237.00,0.0026
3236.00,0.0026
3235.00,0.0026
3234.00,0.0026
3233.00,0.0026
3232.00,0.0026
3231.00,0.0027
3230.00,0.0027
3229.00,0.0027
3228.00,0.0028
3227.00,0.0028
3226.00,0.0028
3225.00,0.0029
3224.00,0.0029
3223.00,0.0029
3222.00,0.0029
3221.00,0.0029
3220.00,0.0029
3219.00,0.0030
3218.00,0.0030
3217.00,0.0030
3216.00,0.0030
3215.00,0.0030
3214.00,0.0031
3213.00,0.0031
3212.00,0.0032
3211.00,0.0032
3210.00,0.0032
3209.00,0.0033
3208.00,0.0033
3207.00,0.0032
3206.00,0.0032
3205.00,0.0032
3204.00,0.0033
3203.00,0.0033
3202.00,0.0033
3201.00,0.0034
3200.00,0.0034
3199.00,0.0034
3198.00,0.0034
3197.00,0.0034
3196.00,0.0034
3195.00,0.0033
3194.00,0.0033
3193.00,0.0033
3192.00,0.0034
3191.00,0.0034
3190.00,0.0034
3189.00,0.0034
3188.00,0.0034
3187.00,0.0034
3186.00,0.0034
3185.00,0.0033
3184.00,0.0033
3183.00,0.0033
3182.00,0.0033
3181.00,0.0032
3180.00,0.0032
3179.00,0.0032
3178.00,0.0032
3177.00,0.0032
3176.00,0.0032
3175.00,0.0032
3174.00,0.0031
3173.00,0.0031
3172.00,0.0031
3171.00,0.0031
3170.00,0.0031
3169.00,0.0031
3168.00,0.0031
3167.00,0.0031
3166.00,0.0031
3165.00,0.0030
3164.00,0.0030
3163.00,0.0030
3162.00,0.0031
3161.00,0.0031
3160.00,0.0031
3159.00,0.0031
3158.00,0.0031
3157.00,0.0031
3156.00,0.0031
3155.00,0.0031
3154.00,0.0031
3153.00,0.0031
3152.00,0.0032
3151.00,0.0032
3150.00,0.0032
3149.00,0.0032
3148.00,0.0032
3147.00,0.0032
3146.00,0.0031
3145.00,0.0031
3144.00,0.0031
3143.00,0.0031
3142.00,0.0031
3141.00,0.0031
3140.00,0.0031
3139.00,0.0030
3138.00,0.0030
3137.00,0.0030
3136.00,0.0030
3135.00,0.0030
3134.00,0.0030
3133.00,0.0030
3132.00,0.0030
3131.00,0.0030
3130.00,0.0030
3129.00,0.0030
3128.00,0.0030
3127.00,0.0030
3126.00,0.0029
3125.00,0.0029
3124.00,0.0029
3123.00,0.0029
3122.00,0.0029
3121.00,0.0028
3120.00,0.0028
3119.00,0.0027
3118.00,0.0027
3117.00,0.0027
3116.00,0.0027
3115.00,0.0027
3114.00,0.0027
3113.00,0.0027
3112.00,0.0027
3111.00,0.0027
3110.00,0.0026
3109.00,0.0026
3108.00,0.0026
3107.00,0.0027
3106.00,0.0027
3105.00,0.0027
3104.00,0.0026
3103.00,0.0026
3102.00,0.0026
3101.00,0.0026
3100.00,0.0026
3099.00,0.0026
3098.00,0.0027
3097.00,0.0027
3096.00,0.0027
3095.00,0.0027
3094.00,0.0027
3093.00,0.0026
3092.00,0.0026
3091.00,0.0026
3090.00,0.0026
3089.00,0.0026
3088.00,0.0026
3087.00,0.0026
3086.00,0.0026
3085.00,0.0026
3084.00,0.0026
3083.00,0.0026
3082.00,0.0027
3081.00,0.0027
3080.00,0.0027
3079.00,0.0027
3078.00,0.0027
3077.00,0.0027
3076.00,0.0027
3075.00,0.0027
3074.00,0.0028
3073.00,0.0028
3072.00,0.0028
3071.00,0.0028
3070.00,0.0029
3069.00,0.0029
3068.00,0.0029
3067.00,0.0029
3066.00,0.0029
3065.00,0.0029
3064.00,0.0029
3063.00,0.0029
3062.00,0.0029
3061.00,0.0028
3060.00,0.0028
3059.00,0.0029
3058.00,0.0029
3057.00,0.0030
3056.00,0.0030
3055.00,0.0031
3054.00,0.0031
3053.00,0.0031
3052.00,0.0031
3051.00,0.0031
3050.00,0.0031
3049.00,0.0032
3048.00,0.0032
3047.00,0.0032
3046.00,0.0032
3045.00,0.0032
3044.00,0.0033
3043.00,0.0033
3042.00,0.0033
3041.00,0.0033
3040.00,0.0033
3039.00,0.0033
3038.00,0.0033
3037.00,0.0034
3036.00,0.0034
3035.00,0.0034
3034.00,0.0034
3033.00,0.0034
3032.00,0.0035
3031.00,0.0035
3030.00,0.0036
3029.00,0.0036
3028.00,0.0036
3027.00,0.0037
3026.00,0.0038
3025.00,0.0039
3024.00,0.0040
3023.00,0.0041
3022.00,0.0041
3021.00,0.0042
3020.00,0.0043
3019.00,0.0043
3018.00,0.0044
3017.00,0.0045
3016.00,0.0045
3015.00,0.0046
3014.00,0.0048
3013.00,0.0049
3012.00,0.0050
3011.00,0.0051
3010.00,0.0053
3009.00,0.0055
3008.00,0.0056
3007.00,0.0057
3006.00,0.0059
3005.00,0.0061
3004.00,0.0063
3003.00,0.0065
3002.00,0.0067
3001.00,0.0069
3000.00,0.0071
2999.00,0.0073
2998.00,0.0076
2997.00,0.0079
2996.00,0.0083
2995.00,0.0087
2994.00,0.0092
2993.00,0.0097
2992.00,0.0102
2991.00,0.0107
2990.00,0.0113
2989.00,0.0120
2988.00,0.0128
2987.00,0.0136
2986.00,0.0146
2985.00,0.0157
2984.00,0.0169
2983.00,0.0183
2982.00,0.0199
2981.00,0.0216
2980.00,0.0236
2979.00,0.0258
2978.00,0.0284
2977.00,0.0314
2976.00,0.0349
2975.00,0.0389
2974.00,0.0434
2973.00,0.0486
2972.00,0.0545
2971.00,0.0611
2970.00,0.0685
2969.00,0.0767
2968.00,0.0856
2967.00,0.0952
2966.00,0.1053
2965.00,0.1155
2964.00,0.1254
2963.00,0.1344
2962.00,0.1421
2961.00,0.1479
2960.00,0.1520
2959.00,0.1548
2958.00,0.1572
2957.00,0.1599
2956.00,0.1638
2955.00,0.1690
2954.00,0.1755
2953.00,0.1825
2952.00,0.1889
2951.00,0.1932
2950.00,0.1941
2949.00,0.1908
2948.00,0.1834
2947.00,0.1725
2946.00,0.1594
2945.00,0.1458
2944.00,0.1329
2943.00,0.1217
2942.00,0.1130
2941.00,0.1067
2940.00,0.1029
2939.00,0.1014
2938.00,0.1019
2937.00,0.1042
2936.00,0.1081
2935.00,0.1136
2934.00,0.1204
2933.00,0.1286
2932.00,0.1379
2931.00,0.1481
2930.00,0.1590
2929.00,0.1703
2928.00,0.1817
2927.00,0.1928
2926.00,0.2036
2925.00,0.2141
2924.00,0.2244
2923.00,0.2346
2922.00,0.2448
2921.00,0.2545
2920.00,0.2629
2919.00,0.2690
2918.00,0.2717
2917.00,0.2703
2916.00,0.2650
2915.00,0.2564
2914.00,0.2459
2913.00,0.2349
2912.00,0.2243
2911.00,0.2149
2910.00,0.2067
2909.00,0.1996
2908.00,0.1932
2907.00,0.1871
2906.00,0.1810
2905.00,0.1748
2904.00,0.1683
2903.00,0.1616
2902.00,0.1549
2901.00,0.1482
2900.00,0.1417
2899.00,0.1355
2898.00,0.1298
2897.00,0.1245
2896.00,0.1198
2895.00,0.1157
2894.00,0.1123
2893.00,0.1095
2892.00,0.1074
2891.00,0.1058
2890.00,0.1047
2889.00,0.1041
2888.00,0.1038
2887.00,0.1039
2886.00,0.1042
2885.00,0.1050
2884.00,0.1061
2883.00,0.1076
2882.00,0.1094
2881.00,0.1114
2880.00,0.1133
2879.00,0.1147
2878.00,0.1153
2877.00,0.1152
2876.00,0.1145
2875.00,0.1136
2874.00,0.1129
2873.00,0.1130
2872.00,0.1139
2871.00,0.1155
2870.00,0.1175
2869.00,0.1194
2868.00,0.1205
2867.00,0.1200
2866.00,0.1173
2865.00,0.1122
2864.00,0.1053
2863.00,0.0972
2862.00,0.0893
2861.00,0.0822
2860.00,0.0766
2859.00,0.0725
2858.00,0.0700
2857.00,0.0689
2856.00,0.0688
2855.00,0.0697
2854.00,0.0712
2853.00,0.0733
2852.00,0.0755
2851.00,0.0778
2850.00,0.0800
2849.00,0.0820
2848.00,0.0840
2847.00,0.0864
2846.00,0.0896
2845.00,0.0938
2844.00,0.0990
2843.00,0.1050
2842.00,0.1111
2841.00,0.1168
2840.00,0.1211
2839.00,0.1233
2838.00,0.1227
2837.00,0.1189
2836.00,0.1121
2835.00,0.1030
2834.00,0.0925
2833.00,0.0817
2832.00,0.0716
2831.00,0.0626
2830.00,0.0550
2829.00,0.0489
2828.00,0.0438
2827.00,0.0398
2826.00,0.0364
2825.00,0.0337
2824.00,0.0314
2823.00,0.0294
2822.00,0.0277
2821.00,0.0262
2820.00,0.0250
2819.00,0.0238
2818.00,0.0228
2817.00,0.0219
2816.00,0.0211
2815.00,0.0205
2814.00,0.0199
2813.00,0.0193
2812.00,0.0188
2811.00,0.0183
2810.00,0.0178
2809.00,0.0173
2808.00,0.0167
2807.00,0.0161
2806.00,0.0154
2805.00,0.0148
2804.00,0.0142
2803.00,0.0136
2802.00,0.0130
2801.00,0.0126
2800.00,0.0122
2799.00,0.0120
2798.00,0.0117
2797.00,0.0115
2796.00,0.0113
2795.00,0.0111
2794.00,0.0108
2793.00,0.0106
2792.00,0.0103
2791.00,0.0099
2790.00,0.0096
2789.00,0.0093
2788.00,0.0089
2787.00,0.0086
2786.00,0.0083
2785.00,0.0081
2784.00,0.0079
2783.00,0.0076
2782.00,0.0074
2781.00,0.0072
2780.00,0.0070
2779.00,0.0069
2778.00,0.0067
2777.00,0.0066
2776.00,0.0065
2775.00,0.0064
2774.00,0.0063
2773.00,0.0062
2772.00,0.0062
2771.00,0.0061
2770.00,0.0061
2769.00,0.0060
2768.00,0.0060
2767.00,0.0060
2766.00,0.0059
2765.00,0.0059
2764.00,0.0059
2763.00,0.0058
2762.00,0.0058
2761.00,0.0057
2760.00,0.0057
2759.00,0.0056
2758.00,0.0057
2757.00,0.0057
2756.00,0.0057
2755.00,0.0057
2754.00,0.0057
2753.00,0.0056
2752.00,0.0056
2751.00,0.0056
2750.00,0.0056
2749.00,0.0056
2748.00,0.0057
2747.00,0.0057
2746.00,0.0057
2745.00,0.0058
2744.00,0.0058
2743.00,0.0059
2742.00,0.0060
2741.00,0.0060
2740.00,0.0061
2739.00,0.0062
2738.00,0.0063
2737.00,0.0064
2736.00,0.0066
2735.00,0.0068
2734.00,0.0069
2733.00,0.0071
2732.00,0.0073
2731.00,0.0075
2730.00,0.0077
2729.00,0.0079
2728.00,0.0082
2727.00,0.0085
2726.00,0.0087
2725.00,0.0089
2724.00,0.0090
2723.00,0.0091
2722.00,0.0090
2721.00,0.0089
2720.00,0.0086
2719.00,0.0083
2718.00,0.0079
2717.00,0.0076
2716.00,0.0073
2715.00,0.0070
2714.00,0.0068
2713.00,0.0066
2712.00,0.0064
2711.00,0.0063
2710.00,0.0062
2709.00,0.0061
2708.00,0.0059
2707.00,0.0058
2706.00,0.0056
2705.00,0.0055
2704.00,0.0054
2703.00,0.0053
2702.00,0.0052
2701.00,0.0051
2700.00,0.0050
2699.00,0.0050
2698.00,0.0049
2697.00,0.0049
2696.00,0.0049
2695.00,0.0050
2694.00,0.0050
2693.00,0.0050
2692.00,0.0050
2691.00,0.0050
2690.00,0.0050
2689.00,0.0049
2688.00,0.0049
2687.00,0.0049
2686.00,0.0049
2685.00,0.0049
2684.00,0.0049
2683.00,0.0050
2682.00,0.0050
2681.00,0.0050
2680.00,0.0050
2679.00,0.0050
2678.00,0.0050
2677.00,0.0050
2676.00,0.0050
2675.00,0.0050
2674.00,0.0049
2673.00,0.0049
2672.00,0.0049
2671.00,0.0049
2670.00,0.0049
2669.00,0.0049
2668.00,0.0049
2667.00,0.0049
2666.00,0.0049
2665.00,0.0050
2664.00,0.0050
2663.00,0.0051
2662.00,0.0052
2661.00,0.0052
2660.00,0.0052
2659.00,0.0052
2658.00,0.0051
2657.00,0.0051
2656.00,0.0051
2655.00,0.0050
2654.00,0.0050
2653.00,0.0049
2652.00,0.0049
2651.00,0.0048
2650.00,0.0048
2649.00,0.0048
2648.00,0.0047
2647.00,0.0047
2646.00,0.0047
2645.00,0.0047
2644.00,0.0046
2643.00,0.0046
2642.00,0.0045
2641.00,0.0044
2640.00,0.0044
2639.00,0.0043
2638.00,0.0043
2637.00,0.0043
2636.00,0.0042
2635.00,0.0043
2634.00,0.0043
2633.00,0.0043
2632.00,0.0043
2631.00,0.0042
2630.00,0.0042
2629.00,0.0043
2628.00,0.0043
2627.00,0.0043
2626.00,0.0043
2625.00,0.0043
2624.00,0.0043
2623.00,0.0043
2622.00,0.0044
2621.00,0.0044
2620.00,0.0044
2619.00,0.0044
2618.00,0.0045
2617.00,0.0045
2616.00,0.0045
2615.00,0.0045
2614.00,0.0044
2613.00,0.0044
2612.00,0.0043
2611.00,0.0042
2610.00,0.0041
2609.00,0.0041
2608.00,0.0040
2607.00,0.0040
2606.00,0.0040
2605.00,0.0040
2604.00,0.0039
2603.00,0.0038
2602.00,0.0037
2601.00,0.0036
2600.00,0.0035
2599.00,0.0035
2598.00,0.0035
2597.00,0.0035
2596.00,0.0035
2595.00,0.0035
2594.00,0.0035
2593.00,0.0036
2592.00,0.0037
2591.00,0.0037
2590.00,0.0038
2589.00,0.0039
2588.00,0.0040
2587.00,0.0041
2586.00,0.0042
2585.00,0.0043
2584.00,0.0043
2583.00,0.0043
2582.00,0.0043
2581.00,0.0043
2580.00,0.0042
2579.00,0.0042
2578.00,0.0041
2577.00,0.0040
2576.00,0.0040
2575.00,0.0038
2574.00,0.0037
2573.00,0.0035
2572.00,0.0034
2571.00,0.0033
2570.00,0.0032
2569.00,0.0032
2568.00,0.0031
2567.00,0.0031
2566.00,0.0030
2565.00,0.0029
2564.00,0.0029
2563.00,0.0028
2562.00,0.0027
2561.00,0.0027
2560.00,0.0028
2559.00,0.0028
2558.00,0.0027
2557.00,0.0027
2556.00,0.0027
2555.00,0.0028
2554.00,0.0028
2553.00,0.0028
2552.00,0.0028
2551.00,0.0028
2550.00,0.0028
2549.00,0.0027
2548.00,0.0026
2547.00,0.0025
2546.00,0.0024
2545.00,0.0023
2544.00,0.0023
2543.00,0.0023
2542.00,0.0023
2541.00,0.0023
2540.00,0.0022
2539.00,0.0022
2538.00,0.0022
2537.00,0.0021
2536.00,0.0021
2535.00,0.0021
2534.00,0.0020
2533.00,0.0020
2532.00,0.0020
2531.00,0.0021
2530.00,0.0021
2529.00,0.0021
2528.00,0.0022
2527.00,0.0021
2526.00,0.0021
2525.00,0.0020
2524.00,0.0019
2523.00,0.0019
2522.00,0.0019
2521.00,0.0019
2520.00,0.0018
2519.00,0.0018
2518.00,0.0017
2517.00,0.0017
2516.00,0.0017
2515.00,0.0017
2514.00,0.0016
2513.00,0.0016
2512.00,0.0016
2511.00,0.0016
2510.00,0.0016
2509.00,0.0016
2508.00,0.0016
2507.00,0.0016
2506.00,0.0016
2505.00,0.0016
2504.00,0.0016
2503.00,0.0017
2502.00,0.0017
2501.00,0.0017
2500.00,0.0017
2499.00,0.0016
2498.00,0.0016
2497.00,0.0016
2496.00,0.0016
2495.00,0.0016
2494.00,0.0016
2493.00,0.0016
2492.00,0.0016
2491.00,0.0016
2490.00,0.0015
2489.00,0.0015
2488.00,0.0015
2487.00,0.0015
2486.00,0.0015
2485.00,0.0015
2484.00,0.0015
2483.00,0.0016
2482.00,0.0016
2481.00,0.0016
2480.00,0.0016
2479.00,0.0016
2478.00,0.0015
2477.00,0.0015
2476.00,0.0014
2475.00,0.0014
2474.00,0.0014
2473.00,0.0014
2472.00,0.0013
2471.00,0.0013
2470.00,0.0013
2469.00,0.0013
2468.00,0.0013
2467.00,0.0013
2466.00,0.0014
2465.00,0.0014
2464.00,0.0014
2463.00,0.0014
2462.00,0.0014
2461.00,0.0015
2460.00,0.0015
2459.00,0.0016
2458.00,0.0016
2457.00,0.0016
2456.00,0.0015
2455.00,0.0015
2454.00,0.0015
2453.00,0.0015
2452.00,0.0016
2451.00,0.0017
2450.00,0.0018
2449.00,0.0017
2448.00,0.0017
2447.00,0.0017
2446.00,0.0017
2445.00,0.0017
2444.00,0.0017
2443.00,0.0017
2442.00,0.0016
2441.00,0.0016
2440.00,0.0016
2439.00,0.0016
2438.00,0.0016
2437.00,0.0016
2436.00,0.0016
2435.00,0.0015
2434.00,0.0015
2433.00,0.0016
2432.00,0.0017
2431.00,0.0018
2430.00,0.0018
2429.00,0.0018
2428.00,0.0017
2427.00,0.0016
2426.00,0.0016
2425.00,0.0015
2424.00,0.0015
2423.00,0.0016
2422.00,0.0016
2421.00,0.0016
2420.00,0.0016
2419.00,0.0016
2418.00,0.0015
2417.00,0.0015
2416.00,0.0015
2415.00,0.0014
2414.00,0.0014
2413.00,0.0014
2412.00,0.0014
2411.00,0.0013
2410.00,0.0014
2409.00,0.0014
2408.00,0.0014
2407.00,0.0014
2406.00,0.0014
2405.00,0.0014
2404.00,0.0014
2403.00,0.0014
2402.00,0.0014
2401.00,0.0014
2400.00,0.0014
2399.00,0.0014
2398.00,0.0014
2397.00,0.0014
2396.00,0.0013
2395.00,0.0013
2394.00,0.0014
2393.00,0.0014
2392.00,0.0013
2391.00,0.0013
2390.00,0.0012
2389.00,0.0012
2388.00,0.0012
2387.00,0.0012
2386.00,0.0013
2385.00,0.0013
2384.00,0.0013
2383.00,0.0012
2382.00,0.0012
2381.00,0.0011
2380.00,0.0011
2379.00,0.0010
2378.00,0.0010
2377.00,0.0010
2376.00,0.0009
2375.00,0.0009
2374.00,0.0008
2373.00,0.0009
2372.00,0.0010
2371.00,0.0011
2370.00,0.0011
2369.00,0.0012
2368.00,0.0011
2367.00,0.0010
2366.00,0.0010
2365.00,0.0009
2364.00,0.0009
2363.00,0.0010
2362.00,0.0010
2361.00,0.0011
2360.00,0.0011
2359.00,0.0011
2358.00,0.0012
2357.00,0.0012
2356.00,0.0012
2355.00,0.0012
2354.00,0.0012
2353.00,0.0012
2352.00,0.0011
2351.00,0.0011
2350.00,0.0011
2349.00,0.0012
2348.00,0.0012
2347.00,0.0012
2346.00,0.0012
2345.00,0.0012
2344.00,0.0013
2343.00,0.0014
2342.00,0.0014
2341.00,0.0014
2340.00,0.0014
2339.00,0.0013
2338.00,0.0013
2337.00,0.0012
2336.00,0.0012
2335.00,0.0012
2334.00,0.0013
2333.00,0.0013
2332.00,0.0013
2331.00,0.0013
2330.00,0.0013
2329.00,0.0013
2328.00,0.0015
2327.00,0.0018
2326.00,0.0022
2325.00,0.0025
2324.00,0.0026
2323.00,0.0025
2322.00,0.0023
2321.00,0.0021
2320.00,0.0020
2319.00,0.0019
2318.00,0.0018
2317.00,0.0017
2316.00,0.0017
2315.00,0.0017
2314.00,0.0017
2313.00,0.0018
2312.00,0.0017
2311.00,0.0017
2310.00,0.0017
2309.00,0.0017
2308.00,0.0017
2307.00,0.0016
2306.00,0.0016
2305.00,0.0016
2304.00,0.0016
2303.00,0.0017
2302.00,0.0017
2301.00,0.0017
2300.00,0.0018
2299.00,0.0018
2298.00,0.0018
2297.00,0.0019
2296.00,0.0019
2295.00,0.0020
2294.00,0.0020
2293.00,0.0020
2292.00,0.0020
2291.00,0.0020
2290.00,0.0020
2289.00,0.0021
2288.00,0.0021
2287.00,0.0022
2286.00,0.0022
2285.00,0.0022
2284.00,0.0022
2283.00,0.0021
2282.00,0.0021
2281.00,0.0020
2280.00,0.0019
2279.00,0.0018
2278.00,0.0018
2277.00,0.0018
2276.00,0.0017
2275.00,0.0017
2274.00,0.0017
2273.00,0.0017
2272.00,0.0017
2271.00,0.0017
2270.00,0.0017
2269.00,0.0018
2268.00,0.0018
2267.00,0.0018
2266.00,0.0017
2265.00,0.0017
2264.00,0.0016
2263.00,0.0015
2262.00,0.0015
2261.00,0.0016
2260.00,0.0017
2259.00,0.0017
2258.00,0.0016
2257.00,0.0015
2256.00,0.0013
2255.00,0.0012
2254.00,0.0012
2253.00,0.0013
2252.00,0.0013
2251.00,0.0014
2250.00,0.0014
2249.00,0.0014
2248.00,0.0014
2247.00,0.0014
2246.00,0.0014
2245.00,0.0014
2244.00,0.0015
2243.00,0.0016
2242.00,0.0016
2241.00,0.0015
2240.00,0.0014
2239.00,0.0013
2238.00,0.0012
2237.00,0.0012
2236.00,0.0012
2235.00,0.0012
2234.00,0.0012
2233.00,0.0012
2232.00,0.0013
2231.00,0.0012
2230.00,0.0011
2229.00,0.0009
2228.00,0.0009
2227.00,0.0009
2226.00,0.0010
2225.00,0.0010
2224.00,0.0009
2223.00,0.0008
2222.00,0.0007
2221.00,0.0007
2220.00,0.0008
2219.00,0.0010
2218.00,0.0012
2217.00,0.0014
2216.00,0.0014
2215.00,0.0013
2214.00,0.0011
2213.00,0.0009
2212.00,0.0009
2211.00,0.0010
2210.00,0.0011
2209.00,0.0011
2208.00,0.0012
2207.00,0.0012
2206.00,0.0013
2205.00,0.0013
2204.00,0.0013
2203.00,0.0012
2202.00,0.0011
2201.00,0.0011
2200.00,0.0011
2199.00,0.0010
2198.00,0.0009
2197.00,0.0009
2196.00,0.0009
2195.00,0.0009
2194.00,0.0010
2193.00,0.0011
2192.00,0.0012
2191.00,0.0013
2190.00,0.0014
2189.00,0.0014
2188.00,0.0013
2187.00,0.0013
2186.00,0.0014
2185.00,0.0014
2184.00,0.0014
2183.00,0.0013
2182.00,0.0011
2181.00,0.0010
2180.00,0.0009
2179.00,0.0008
2178.00,0.0007
2177.00,0.0005
2176.00,0.0004
2175.00,0.0005
2174.00,0.0007
2173.00,0.0011
2172.00,0.0014
2171.00,0.0016
2170.00,0.0016
2169.00,0.0016
2168.00,0.0015
2167.00,0.0014
2166.00,0.0014
2165.00,0.0013
2164.00,0.0011
2163.00,0.0011
2162.00,0.0010
2161.00,0.0007
2160.00,0.0001
2159.00,-0.0009
2158.00,-0.0019
2157.00,-0.0026
2156.00,-0.0026
2155.00,-0.0022
2154.00,-0.0016
2153.00,-0.0011
2152.00,-0.0009
2151.00,-0.0009
2150.00,-0.0011
2149.00,-0.0012
2148.00,-0.0011
2147.00,-0.0009
2146.00,-0.0006
2145.00,-0.0004
2144.00,-0.0004
2143.00,-0.0004
2142.00,-0.0005
2141.00,-0.0005
2140.00,-0.0005
2139.00,-0.0006
2138.00,-0.0007
2137.00,-0.0009
2136.00,-0.0010
2135.00,-0.0012
2134.00,-0.0014
2133.00,-0.0014
2132.00,-0.0013
2131.00,-0.0010
2130.00,-0.0008
2129.00,-0.0005
2128.00,-0.0004
2127.00,-0.0002
2126.00,-0.0001
2125.00,-0.0000
2124.00,0.0000
2123.00,0.0000
2122.00,0.0001
2121.00,0.0002
2120.00,0.0003
2119.00,0.0004
2118.00,0.0005
2117.00,0.0006
2116.00,0.0006
2115.00,0.0006
2114.00,0.0005
2113.00,0.0005
2112.00,0.0005
2111.00,0.0006
2110.00,0.0006
2109.00,0.0005
2108.00,0.0003
2107.00,0.0001
2106.00,-0.0001
2105.00,-0.0001
2104.00,0.0001
2103.00,0.0003
2102.00,0.0005
2101.00,0.0005
2100.00,0.0005
2099.00,0.0003
2098.00,0.0003
2097.00,0.0002
2096.00,0.0002
2095.00,0.0001
2094.00,0.0000
2093.00,-0.0000
2092.00,0.0000
2091.00,0.0001
2090.00,0.0003
2089.00,0.0004
2088.00,0.0005
2087.00,0.0005
2086.00,0.0004
2085.00,0.0004
2084.00,0.0003
2083.00,0.0003
2082.00,0.0002
2081.00,0.0003
2080.00,0.0004
2079.00,0.0005
2078.00,0.0006
2077.00,0.0006
2076.00,0.0004
2075.00,0.0003
2074.00,0.0001
2073.00,0.0002
2072.00,0.0004
2071.00,0.0006
2070.00,0.0007
2069.00,0.0007
2068.00,0.0007
2067.00,0.0006
2066.00,0.0005
2065.00,0.0003
2064.00,0.0002
2063.00,0.0001
2062.00,0.0001
2061.00,0.0002
2060.00,0.0003
2059.00,0.0004
2058.00,0.0003
2057.00,0.0003
2056.00,0.0003
2055.00,0.0004
2054.00,0.0004
2053.00,0.0007
2052.00,0.0011
2051.00,0.0012
2050.00,0.0010
2049.00,0.0005
2048.00,0.0000
2047.00,-0.0002
2046.00,-0.0001
2045.00,0.0001
2044.00,0.0003
2043.00,0.0005
2042.00,0.0005
2041.00,0.0006
2040.00,0.0007
2039.00,0.0008
2038.00,0.0007
2037.00,0.0004
2036.00,0.0001
2035.00,-0.0002
2034.00,-0.0004
2033.00,-0.0004
2032.00,-0.0006
2031.00,-0.0008
2030.00,-0.0009
2029.00,-0.0009
2028.00,-0.0008
2027.00,-0.0007
2026.00,-0.0007
2025.00,-0.0007
2024.00,-0.0006
2023.00,-0.0004
2022.00,-0.0001
2021.00,0.0003
2020.00,0.0005
2019.00,0.0004
2018.00,0.0001
2017.00,-0.0003
2016.00,-0.0005
2015.00,-0.0007
2014.00,-0.0009
2013.00,-0.0010
2012.00,-0.0009
2011.00,-0.0007
2010.00,-0.0005
2009.00,-0.0005
2008.00,-0.0008
2007.00,-0.0012
2006.00,-0.0014
2005.00,-0.0014
2004.00,-0.0013
2003.00,-0.0013
2002.00,-0.0012
2001.00,-0.0012
2000.00,-0.0011
1999.00,-0.0011
1998.00,-0.0011
1997.00,-0.0011
1996.00,-0.0011
1995.00,-0.0010
1994.00,-0.0008
1993.00,-0.0004
1992.00,-0.0001
1991.00,0.0000
1990.00,0.0000
1989.00,0.0001
1988.00,0.0003
1987.00,0.0005
1986.00,0.0007
1985.00,0.0008
1984.00,0.0006
1983.00,0.0005
1982.00,0.0005
1981.00,0.0007
1980.00,0.0010
1979.00,0.0010
1978.00,0.0004
1977.00,-0.0004
1976.00,-0.0012
1975.00,-0.0018
1974.00,-0.0019
1973.00,-0.0018
1972.00,-0.0017
1971.00,-0.0017
1970.00,-0.0017
1969.00,-0.0016
1968.00,-0.0014
1967.00,-0.0012
1966.00,-0.0011
1965.00,-0.0011
1964.00,-0.0012
1963.00,-0.0013
1962.00,-0.0013
1961.00,-0.0013
1960.00,-0.0014
1959.00,-0.0015
1958.00,-0.0016
1957.00,-0.0017
1956.00,-0.0017
1955.00,-0.0018
1954.00,-0.0020
1953.00,-0.0020
1952.00,-0.0019
1951.00,-0.0016
1950.00,-0.0013
1949.00,-0.0011
1948.00,-0.0011
1947.00,-0.0012
1946.00,-0.0013
1945.00,-0.0013
1944.00,-0.0012
1943.00,-0.0010
1942.00,-0.0008
1941.00,-0.0006
1940.00,-0.0005
1939.00,-0.0005
1938.00,-0.0006
1937.00,-0.0006
1936.00,-0.0007
1935.00,-0.0008
1934.00,-0.0009
1933.00,-0.0009
1932.00,-0.0008
1931.00,-0.0007
1930.00,-0.0005
1929.00,-0.0003
1928.00,-0.0001
1927.00,0.0000
1926.00,-0.0000
1925.00,-0.0001
1924.00,-0.0002
1923.00,-0.0002
1922.00,-0.0002
1921.00,-0.0002
1920.00,-0.0002
1919.00,-0.0002
1918.00,-0.0003
1917.00,-0.0002
1916.00,-0.0002
1915.00,-0.0002
1914.00,-0.0002
1913.00,-0.0002
1912.00,-0.0001
1911.00,0.0000
1910.00,0.0001
1909.00,0.0001
1908.00,0.0001
1907.00,0.0001
1906.00,0.0002
1905.00,0.0002
1904.00,0.0003
1903.00,0.0003
1902.00,0.0003
1901.00,0.0002
1900.00,0.0002
1899.00,0.0002
1898.00,0.0002
1897.00,0.0002
1896.00,0.0002
1895.00,0.0002
1894.00,0.0002
1893.00,0.0001
1892.00,0.0000
1891.00,0.0000
1890.00,0.0000
1889.00,0.0000
1888.00,0.0000
1887.00,-0.0000
1886.00,-0.0000
1885.00,0.0000
1884.00,0.0001
1883.00,0.0003
1882.00,0.0004
1881.00,0.0004
1880.00,0.0004
1879.00,0.0003
1878.00,0.0002
1877.00,0.0001
1876.00,0.0001
1875.00,0.0001
1874.00,0.0002
1873.00,0.0002
1872.00,0.0001
1871.00,0.0000
1870.00,0.0000
1869.00,0.0002
1868.00,0.0003
1867.00,0.0004
1866.00,0.0004
1865.00,0.0003
1864.00,0.0003
1863.00,0.0003
1862.00,0.0003
1861.00,0.0004
1860.00,0.0004
1859.00,0.0005
1858.00,0.0005
1857.00,0.0004
1856.00,0.0004
1855.00,0.0003
1854.00,0.0003
1853.00,0.0003
1852.00,0.0003
1851.00,0.0004
1850.00,0.0004
1849.00,0.0004
1848.00,0.0004
1847.00,0.0003
1846.00,0.0002
1845.00,0.0002
1844.00,0.0003
1843.00,0.0004
1842.00,0.0005
1841.00,0.0006
1840.00,0.0007
1839.00,0.0007
1838.00,0.0006
1837.00,0.0006
1836.00,0.0005
1835.00,0.0005
1834.00,0.0005
1833.00,0.0005
1832.00,0.0005
1831.00,0.0005
1830.00,0.0006
1829.00,0.0007
1828.00,0.0007
1827.00,0.0007
1826.00,0.0007
1825.00,0.0007
1824.00,0.0007
1823.00,0.0007
1822.00,0.0007
1821.00,0.0006
1820.00,0.0005
1819.00,0.0004
1818.00,0.0003
1817.00,0.0003
1816.00,0.0003
1815.00,0.0003
1814.00,0.0004
1813.00,0.0004
1812.00,0.0005
1811.00,0.0006
1810.00,0.0006
1809.00,0.0007
1808.00,0.0007
1807.00,0.0007
1806.00,0.0007
1805.00,0.0008
1804.00,0.0008
1803.00,0.0008
1802.00,0.0009
1801.00,0.0009
1800.00,0.0009
1799.00,0.0008
1798.00,0.0007
1797.00,0.0007
1796.00,0.0007
1795.00,0.0008
1794.00,0.0009
1793.00,0.0009
1792.00,0.0009
1791.00,0.0009
1790.00,0.0009
1789.00,0.0010
1788.00,0.0010
1787.00,0.0010
1786.00,0.0010
1785.00,0.0010
1784.00,0.0010
1783.00,0.0010
1782.00,0.0010
1781.00,0.0010
1780.00,0.0010
1779.00,0.0010
1778.00,0.0010
1777.00,0.0010
1776.00,0.0011
1775.00,0.0011
1774.00,0.0011
1773.00,0.0010
1772.00,0.0010
1771.00,0.0011
1770.00,0.0011
1769.00,0.0012
1768.00,0.0013
1767.00,0.0013
1766.00,0.0012
1765.00,0.0012
1764.00,0.0012
1763.00,0.0012
1762.00,0.0013
1761.00,0.0013
1760.00,0.0014
1759.00,0.0014
1758.00,0.0014
1757.00,0.0014
1756.00,0.0015
1755.00,0.0015
1754.00,0.0015
1753.00,0.0015
1752.00,0.0015
1751.00,0.0015
1750.00,0.0016
1749.00,0.0017
1748.00,0.0017
1747.00,0.0017
1746.00,0.0017
1745.00,0.0018
1744.00,0.0018
1743.00,0.0018
1742.00,0.0018
1741.00,0.0018
1740.00,0.0018
1739.00,0.0018
1738.00,0.0018
1737.00,0.0019
1736.00,0.0019
1735.00,0.0018
1734.00,0.0017
1733.00,0.0017
1732.00,0.0018
1731.00,0.0018
1730.00,0.0019
1729.00,0.0019
1728.00,0.0019
1727.00,0.0019
1726.00,0.0019
1725.00,0.0020
1724.00,0.0020
1723.00,0.0021
1722.00,0.0020
1721.00,0.0020
1720.00,0.0020
1719.00,0.0020
1718.00,0.0020
1717.00,0.0021
1716.00,0.0021
1715.00,0.0022
1714.00,0.0021
1713.00,0.0021
1712.00,0.0021
1711.00,0.0021
1710.00,0.0021
1709.00,0.0021
1708.00,0.0022
1707.00,0.0022
1706.00,0.0022
1705.00,0.0023
1704.00,0.0024
1703.00,0.0025
1702.00,0.0025
1701.00,0.0025
1700.00,0.0025
1699.00,0.0025
1698.00,0.0025
1697.00,0.0025
1696.00,0.0026
1695.00,0.0026
1694.00,0.0026
1693.00,0.0027
1692.00,0.0027
1691.00,0.0027
1690.00,0.0027
1689.00,0.0027
1688.00,0.0027
1687.00,0.0027
1686.00,0.0026
1685.00,0.0026
1684.00,0.0027
1683.00,0.0029
1682.00,0.0030
1681.00,0.0030
1680.00,0.0030
1679.00,0.0030
1678.00,0.0030
1677.00,0.0031
1676.00,0.0031
1675.00,0.0032
1674.00,0.0032
1673.00,0.0032
1672.00,0.0031
1671.00,0.0031
1670.00,0.0031
1669.00,0.0032
1668.00,0.0034
1667.00,0.0034
1666.00,0.0034
1665.00,0.0034
1664.00,0.0034
1663.00,0.0034
1662.00,0.0034
1661.00,0.0034
1660.00,0.0035
1659.00,0.0035
1658.00,0.0035
1657.00,0.0035
1656.00,0.0035
1655.00,0.0034
1654.00,0.0034
1653.00,0.0035
1652.00,0.0038
1651.00,0.0040
1650.00,0.0041
1649.00,0.0042
1648.00,0.0044
1647.00,0.0045
1646.00,0.0044
1645.00,0.0044
1644.00,0.0043
1643.00,0.0043
1642.00,0.0042
1641.00,0.0042
1640.00,0.0042
1639.00,0.0042
1638.00,0.0041
1637.00,0.0041
1636.00,0.0041
1635.00,0.0041
1634.00,0.0042
1633.00,0.0042
1632.00,0.0043
1631.00,0.0043
1630.00,0.0043
1629.00,0.0044
1628.00,0.0043
1627.00,0.0043
1626.00,0.0043
1625.00,0.0042
1624.00,0.0042
1623.00,0.0041
1622.00,0.0040
1621.00,0.0040
1620.00,0.0040
1619.00,0.0039
1618.00,0.0039
1617.00,0.0039
1616.00,0.0039
1615.00,0.0039
1614.00,0.0039
1613.00,0.0039
1612.00,0.0040
1611.00,0.0040
1610.00,0.0040
1609.00,0.0040
1608.00,0.0040
1607.00,0.0040
1606.00,0.0040
1605.00,0.0040
1604.00,0.0040
1603.00,0.0040
1602.00,0.0040
1601.00,0.0040
1600.00,0.0041
1599.00,0.0041
1598.00,0.0041
1597.00,0.0041
1596.00,0.0041
1595.00,0.0041
1594.00,0.0041
1593.00,0.0041
1592.00,0.0041
1591.00,0.0042
1590.00,0.0042
1589.00,0.0042
1588.00,0.0043
1587.00,0.0043
1586.00,0.0044
1585.00,0.0045
1584.00,0.0046
1583.00,0.0048
1582.00,0.0049
1581.00,0.0050
1580.00,0.0051
1579.00,0.0052
1578.00,0.0052
1577.00,0.0051
1576.00,0.0050
1575.00,0.0049
1574.00,0.0049
1573.00,0.0049
1572.00,0.0049
1571.00,0.0049
1570.00,0.0048
1569.00,0.0046
1568.00,0.0045
1567.00,0.0044
1566.00,0.0043
1565.00,0.0043
1564.00,0.0043
1563.00,0.0043
1562.00,0.0044
1561.00,0.0045
1560.00,0.0045
1559.00,0.0045
1558.00,0.0044
1557.00,0.0044
1556.00,0.0044
1555.00,0.0044
1554.00,0.0045
1553.00,0.0045
1552.00,0.0046
1551.00,0.0046
1550.00,0.0047
1549.00,0.0048
1548.00,0.0048
1547.00,0.0049
1546.00,0.0050
1545.00,0.0051
1544.00,0.0053
1543.00,0.0054
1542.00,0.0055
1541.00,0.0056
1540.00,0.0056
1539.00,0.0055
1538.00,0.0054
1537.00,0.0053
1536.00,0.0052
1535.00,0.0051
1534.00,0.0050
1533.00,0.0049
1532.00,0.0048
1531.00,0.0047
1530.00,0.0047
1529.00,0.0047
1528.00,0.0047
1527.00,0.0047
1526.00,0.0047
1525.00,0.0047
1524.00,0.0048
1523.00,0.0049
1522.00,0.0049
1521.00,0.0050
1520.00,0.0050
1519.00,0.0050
1518.00,0.0050
1517.00,0.0051
1516.00,0.0052
1515.00,0.0053
1514.00,0.0053
1513.00,0.0054
1512.00,0.0055
1511.00,0.0056
1510.00,0.0056
1509.00,0.0058
1508.00,0.0060
1507.00,0.0061
1506.00,0.0061
1505.00,0.0062
1504.00,0.0063
1503.00,0.0064
1502.00,0.0066
1501.00,0.0068
1500.00,0.0070
1499.00,0.0071
1498.00,0.0073
1497.00,0.0076
1496.00,0.0080
1495.00,0.0083
1494.00,0.0086
1493.00,0.0089
1492.00,0.0093
1491.00,0.0097
1490.00,0.0101
1489.00,0.0107
1488.00,0.0112
1487.00,0.0116
1486.00,0.0121
1485.00,0.0126
1484.00,0.0133
1483.00,0.0141
1482.00,0.0149
1481.00,0.0160
1480.00,0.0172
1479.00,0.0184
1478.00,0.0199
1477.00,0.0219
1476.00,0.0243
1475.00,0.0272
1474.00,0.0310
1473.00,0.0366
1472.00,0.0432
1471.00,0.0496
1470.00,0.0556
1469.00,0.0620
1468.00,0.0689
1467.00,0.0765
1466.00,0.0851
1465.00,0.0946
1464.00,0.1028
1463.00,0.1085
1462.00,0.1122
1461.00,0.1148
1460.00,0.1165
1459.00,0.1178
1458.00,0.1188
1457.00,0.1198
1456.00,0.1199
1455.00,0.1193
1454.00,0.1183
1453.00,0.1167
1452.00,0.1142
1451.00,0.1107
1450.00,0.1058
1449.00,0.0990
1448.00,0.0902
1447.00,0.0808
1446.00,0.0722
1445.00,0.0648
1444.00,0.0585
1443.00,0.0533
1442.00,0.0493
1441.00,0.0465
1440.00,0.0447
1439.00,0.0439
1438.00,0.0438
1437.00,0.0438
1436.00,0.0428
1435.00,0.0405
1434.00,0.0370
1433.00,0.0329
1432.00,0.0286
1431.00,0.0247
1430.00,0.0218
1429.00,0.0196
1428.00,0.0180
1427.00,0.0171
1426.00,0.0165
1425.00,0.0159
1424.00,0.0153
1423.00,0.0149
1422.00,0.0146
1421.00,0.0143
1420.00,0.0140
1419.00,0.0136
1418.00,0.0134
1417.00,0.0130
1416.00,0.0127
1415.00,0.0126
1414.00,0.0125
1413.00,0.0123
1412.00,0.0121
1411.00,0.0120
1410.00,0.0119
1409.00,0.0118
1408.00,0.0116
1407.00,0.0116
1406.00,0.0116
1405.00,0.0115
1404.00,0.0114
1403.00,0.0114
1402.00,0.0116
1401.00,0.0117
1400.00,0.0117
1399.00,0.0119
1398.00,0.0122
1397.00,0.0124
1396.00,0.0126
1395.00,0.0130
1394.00,0.0135
1393.00,0.0140
1392.00,0.0144
1391.00,0.0151
1390.00,0.0161
1389.00,0.0175
1388.00,0.0196
1387.00,0.0227
1386.00,0.0270
1385.00,0.0327
1384.00,0.0403
1383.00,0.0511
1382.00,0.0656
1381.00,0.0843
1380.00,0.1076
1379.00,0.1342
1378.00,0.1602
1377.00,0.1793
1376.00,0.1857
1375.00,0.1759
1374.00,0.1529
1373.00,0.1254
1372.00,0.1008
1371.00,0.0808
1370.00,0.0649
1369.00,0.0529
1368.00,0.0447
1367.00,0.0396
1366.00,0.0368
1365.00,0.0357
1364.00,0.0359
1363.00,0.0372
1362.00,0.0392
1361.00,0.0414
1360.00,0.0430
1359.00,0.0435
1358.00,0.0425
1357.00,0.0400
1356.00,0.0366
1355.00,0.0326
1354.00,0.0289
1353.00,0.0257
1352.00,0.0231
1351.00,0.0210
1350.00,0.0192
1349.00,0.0178
1348.00,0.0166
1347.00,0.0155
1346.00,0.0147
1345.00,0.0139
1344.00,0.0133
1343.00,0.0129
1342.00,0.0125
1341.00,0.0122
1340.00,0.0119
1339.00,0.0117
1338.00,0.0116
1337.00,0.0115
1336.00,0.0116
1335.00,0.0118
1334.00,0.0121
1333.00,0.0125
1332.00,0.0128
1331.00,0.0131
1330.00,0.0132
1329.00,0.0131
1328.00,0.0127
1327.00,0.0123
1326.00,0.0118
1325.00,0.0113
1324.00,0.0108
1323.00,0.0103
1322.00,0.0099
1321.00,0.0096
1320.00,0.0093
1319.00,0.0091
1318.00,0.0089
1317.00,0.0087
1316.00,0.0086
1315.00,0.0086
1314.00,0.0086
1313.00,0.0086
1312.00,0.0087
1311.00,0.0090
1310.00,0.0094
1309.00,0.0101
1308.00,0.0111
1307.00,0.0123
1306.00,0.0135
1305.00,0.0144
1304.00,0.0146
1303.00,0.0143
1302.00,0.0137
1301.00,0.0131
1300.00,0.0127
1299.00,0.0125
1298.00,0.0125
1297.00,0.0125
1296.00,0.0124
1295.00,0.0121
1294.00,0.0117
1293.00,0.0112
1292.00,0.0107
1291.00,0.0102
1290.00,0.0098
1289.00,0.0095
1288.00,0.0092
1287.00,0.0089
1286.00,0.0087
1285.00,0.0085
1284.00,0.0083
1283.00,0.0081
1282.00,0.0080
1281.00,0.0078
1280.00,0.0077
1279.00,0.0076
1278.00,0.0075
1277.00,0.0075
1276.00,0.0074
1275.00,0.0074
1274.00,0.0074
1273.00,0.0075
1272.00,0.0075
1271.00,0.0076
1270.00,0.0078
1269.00,0.0079
1268.00,0.0081
1267.00,0.0083
1266.00,0.0086
1265.00,0.0089
1264.00,0.0092
1263.00,0.0095
1262.00,0.0098
1261.00,0.0103
1260.00,0.0109
1259.00,0.0116
1258.00,0.0124
1257.00,0.0130
1256.00,0.0133
1255.00,0.0131
1254.00,0.0124
1253.00,0.0115
1252.00,0.0105
1251.00,0.0097
1250.00,0.0090
1249.00,0.0085
1248.00,0.0082
1247.00,0.0080
1246.00,0.0078
1245.00,0.0077
1244.00,0.0075
1243.00,0.0073
1242.00,0.0072
1241.00,0.0072
1240.00,0.0072
1239.00,0.0072
1238.00,0.0072
1237.00,0.0071
1236.00,0.0071
1235.00,0.0071
1234.00,0.0071
1233.00,0.0072
1232.00,0.0071
1231.00,0.0072
1230.00,0.0072
1229.00,0.0074
1228.00,0.0076
1227.00,0.0077
1226.00,0.0080
1225.00,0.0082
1224.00,0.0084
1223.00,0.0087
1222.00,0.0090
1221.00,0.0092
1220.00,0.0093
1219.00,0.0093
1218.00,0.0092
1217.00,0.0091
1216.00,0.0088
1215.00,0.0085
1214.00,0.0082
1213.00,0.0080
1212.00,0.0078
1211.00,0.0077
1210.00,0.0075
1209.00,0.0074
1208.00,0.0072
1207.00,0.0072
1206.00,0.0072
1205.00,0.0072
1204.00,0.0072
1203.00,0.0072
1202.00,0.0071
1201.00,0.0070
1200.00,0.0069
1199.00,0.0069
1198.00,0.0069
1197.00,0.0070
1196.00,0.0070
1195.00,0.0070
1194.00,0.0070
1193.00,0.0070
1192.00,0.0070
1191.00,0.0071
1190.00,0.0071
1189.00,0.0072
1188.00,0.0072
1187.00,0.0072
1186.00,0.0073
1185.00,0.0073
1184.00,0.0075
1183.00,0.0076
1182.00,0.0079
1181.00,0.0082
1180.00,0.0086
1179.00,0.0092
1178.00,0.0099
1177.00,0.0108
1176.00,0.0120
1175.00,0.0136
1174.00,0.0158
1173.00,0.0185
1172.00,0.0218
1171.00,0.0255
1170.00,0.0290
1169.00,0.0318
1168.00,0.0335
1167.00,0.0337
1166.00,0.0327
1165.00,0.0308
1164.00,0.0288
1163.00,0.0268
1162.00,0.0251
1161.00,0.0237
1160.00,0.0225
1159.00,0.0216
1158.00,0.0209
1157.00,0.0204
1156.00,0.0201
1155.00,0.0198
1154.00,0.0195
1153.00,0.0191
1152.00,0.0186
1151.00,0.0179
1150.00,0.0170
1149.00,0.0160
1148.00,0.0150
1147.00,0.0140
1146.00,0.0132
1145.00,0.0123
1144.00,0.0116
1143.00,0.0110
1142.00,0.0103
1141.00,0.0098
1140.00,0.0092
1139.00,0.0088
1138.00,0.0084
1137.00,0.0080
1136.00,0.0078
1135.00,0.0076
1134.00,0.0074
1133.00,0.0073
1132.00,0.0071
1131.00,0.0070
1130.00,0.0070
1129.00,0.0069
1128.00,0.0068
1127.00,0.0068
1126.00,0.0067
1125.00,0.0068
1124.00,0.0068
1123.00,0.0069
1122.00,0.0070
1121.00,0.0072
1120.00,0.0073
1119.00,0.0073
1118.00,0.0074
1117.00,0.0074
1116.00,0.0074
1115.00,0.0075
1114.00,0.0077
1113.00,0.0079
1112.00,0.0081
1111.00,0.0084
1110.00,0.0088
1109.00,0.0092
1108.00,0.0096
1107.00,0.0101
1106.00,0.0106
1105.00,0.0113
1104.00,0.0118
1103.00,0.0121
1102.00,0.0121
1101.00,0.0117
1100.00,0.0112
1099.00,0.0106
1098.00,0.0100
1097.00,0.0095
1096.00,0.0091
1095.00,0.0087
1094.00,0.0083
1093.00,0.0080
1092.00,0.0078
1091.00,0.0077
1090.00,0.0076
1089.00,0.0076
1088.00,0.0075
1087.00,0.0075
1086.00,0.0073
1085.00,0.0072
1084.00,0.0071
1083.00,0.0070
1082.00,0.0070
1081.00,0.0069
1080.00,0.0068
1079.00,0.0067
1078.00,0.0067
1077.00,0.0067
1076.00,0.0068
1075.00,0.0068
1074.00,0.0068
1073.00,0.0067
1072.00,0.0066
1071.00,0.0066
1070.00,0.0066
1069.00,0.0065
1068.00,0.0065
1067.00,0.0065
1066.00,0.0064
1065.00,0.0064
1064.00,0.0064
1063.00,0.0064
1062.00,0.0064
1061.00,0.0064
1060.00,0.0064
1059.00,0.0065
1058.00,0.0065
1057.00,0.0066
1056.00,0.0067
1055.00,0.0067
1054.00,0.0068
1053.00,0.0070
1052.00,0.0071
1051.00,0.0072
1050.00,0.0075
1049.00,0.0079
1048.00,0.0083
1047.00,0.0087
1046.00,0.0090
1045.00,0.0091
1044.00,0.0091
1043.00,0.0090
1042.00,0.0087
1041.00,0.0084
1040.00,0.0082
1039.00,0.0081
1038.00,0.0081
1037.00,0.0081
1036.00,0.0082
1035.00,0.0081
1034.00,0.0079
1033.00,0.0077
1032.00,0.0075
1031.00,0.0074
1030.00,0.0074
1029.00,0.0074
1028.00,0.0075
1027.00,0.0076
1026.00,0.0076
1025.00,0.0076
1024.00,0.0076
1023.00,0.0076
1022.00,0.0076
1021.00,0.0075
1020.00,0.0076
1019.00,0.0077
1018.00,0.0079
1017.00,0.0081
1016.00,0.0083
1015.00,0.0084
1014.00,0.0086
1013.00,0.0089
1012.00,0.0092
1011.00,0.0095
1010.00,0.0100
1009.00,0.0105
1008.00,0.0110
1007.00,0.0118
1006.00,0.0127
1005.00,0.0140
1004.00,0.0159
1003.00,0.0184
1002.00,0.0220
1001.00,0.0263
1000.00,0.0309
999.00,0.0348
998.00,0.0367
997.00,0.0360
996.00,0.0329
995.00,0.0285
994.00,0.0240
993.00,0.0200
992.00,0.0170
991.00,0.0149
990.00,0.0134
989.00,0.0124
988.00,0.0117
987.00,0.0113
986.00,0.0112
985.00,0.0113
984.00,0.0117
983.00,0.0124
982.00,0.0135
981.00,0.0153
980.00,0.0177
979.00,0.0209
978.00,0.0250
977.00,0.0297
976.00,0.0348
975.00,0.0395
974.00,0.0431
973.00,0.0443
972.00,0.0427
971.00,0.0384
970.00,0.0326
969.00,0.0267
968.00,0.0217
967.00,0.0179
966.00,0.0153
965.00,0.0135
964.00,0.0122
963.00,0.0112
962.00,0.0105
961.00,0.0099
960.00,0.0094
959.00,0.0090
958.00,0.0087
957.00,0.0083
956.00,0.0081
955.00,0.0079
954.00,0.0078
953.00,0.0077
952.00,0.0076
951.00,0.0074
950.00,0.0074
949.00,0.0073
948.00,0.0072
947.00,0.0071
946.00,0.0072
945.00,0.0075
944.00,0.0078
943.00,0.0082
942.00,0.0085
941.00,0.0086
940.00,0.0085
939.00,0.0082
938.00,0.0077
937.00,0.0072
936.00,0.0068
935.00,0.0064
934.00,0.0062
933.00,0.0061
932.00,0.0059
931.00,0.0058
930.00,0.0056
929.00,0.0055
928.00,0.0055
927.00,0.0055
926.00,0.0055
925.00,0.0055
924.00,0.0054
923.00,0.0054
922.00,0.0055
921.00,0.0056
920.00,0.0057
919.00,0.0058
918.00,0.0059
917.00,0.0060
916.00,0.0060
915.00,0.0060
914.00,0.0061
913.00,0.0061
912.00,0.0062
911.00,0.0064
910.00,0.0066
909.00,0.0068
908.00,0.0071
907.00,0.0076
906.00,0.0083
905.00,0.0093
904.00,0.0106
903.00,0.0123
902.00,0.0140
901.00,0.0156
900.00,0.0167
899.00,0.0169
898.00,0.0163
897.00,0.0149
896.00,0.0131
895.00,0.0114
894.00,0.0101
893.00,0.0092
892.00,0.0086
891.00,0.0080
890.00,0.0076
889.00,0.0073
888.00,0.0070
887.00,0.0070
886.00,0.0070
885.00,0.0070
884.00,0.0071
883.00,0.0071
882.00,0.0071
881.00,0.0072
880.00,0.0074
879.00,0.0076
878.00,0.0078
877.00,0.0079
876.00,0.0080
875.00,0.0080
874.00,0.0080
873.00,0.0080
872.00,0.0079
871.00,0.0079
870.00,0.0078
869.00,0.0077
868.00,0.0077
867.00,0.0077
866.00,0.0077
865.00,0.0077
864.00,0.0078
863.00,0.0079
862.00,0.0080
861.00,0.0081
860.00,0.0082
859.00,0.0083
858.00,0.0084
857.00,0.0086
856.00,0.0087
855.00,0.0089
854.00,0.0091
853.00,0.0093
852.00,0.0096
851.00,0.0100
850.00,0.0105
849.00,0.0112
848.00,0.0122
847.00,0.0137
846.00,0.0161
845.00,0.0198
844.00,0.0249
843.00,0.0307
842.00,0.0353
841.00,0.0367
840.00,0.0340
839.00,0.0286
838.00,0.0227
837.00,0.0181
836.00,0.0151
835.00,0.0134
834.00,0.0123
833.00,0.0116
832.00,0.0111
831.00,0.0107
830.00,0.0104
829.00,0.0102
828.00,0.0100
827.00,0.0099
826.00,0.0097
825.00,0.0095
824.00,0.0093
823.00,0.0093
822.00,0.0094
821.00,0.0096
820.00,0.0098
819.00,0.0100
818.00,0.0103
817.00,0.0107
816.00,0.0115
815.00,0.0125
814.00,0.0140
813.00,0.0158
812.00,0.0177
811.00,0.0195
810.00,0.0208
809.00,0.0214
808.00,0.0210
807.00,0.0197
806.00,0.0180
805.00,0.0161
804.00,0.0146
803.00,0.0133
802.00,0.0124
801.00,0.0116
800.00,0.0111
799.00,0.0107
798.00,0.0104
797.00,0.0101
796.00,0.0098
795.00,0.0094
794.00,0.0089
793.00,0.0085
792.00,0.0082
791.00,0.0079
790.00,0.0076
789.00,0.0072
788.00,0.0069
787.00,0.0066
786.00,0.0063
785.00,0.0060
784.00,0.0058
783.00,0.0056
782.00,0.0055
781.00,0.0055
780.00,0.0055
779.00,0.0055
778.00,0.0055
777.00,0.0054
776.00,0.0054
775.00,0.0053
774.00,0.0053
773.00,0.0053
772.00,0.0054
771.00,0.0054
770.00,0.0054
769.00,0.0053
768.00,0.0053
767.00,0.0053
766.00,0.0054
765.00,0.0054
764.00,0.0053
763.00,0.0054
762.00,0.0054
761.00,0.0055
760.00,0.0055
759.00,0.0056
758.00,0.0057
757.00,0.0058
756.00,0.0058
755.00,0.0058
754.00,0.0058
753.00,0.0059
752.00,0.0059
751.00,0.0059
750.00,0.0058
749.00,0.0058
748.00,0.0058
747.00,0.0059
746.00,0.0061
745.00,0.0063
744.00,0.0064
743.00,0.0065
742.00,0.0065
741.00,0.0066
740.00,0.0068
739.00,0.0070
738.00,0.0072
737.00,0.0074
736.00,0.0076
735.00,0.0080
734.00,0.0086
733.00,0.0093
732.00,0.0100
731.00,0.0106
730.00,0.0111
729.00,0.0112
728.00,0.0112
727.00,0.0112
726.00,0.0113
725.00,0.0117
724.00,0.0122
723.00,0.0130
722.00,0.0138
721.00,0.0144
720.00,0.0143
719.00,0.0135
718.00,0.0123
717.00,0.0110
716.00,0.0099
715.00,0.0090
714.00,0.0083
713.00,0.0079
712.00,0.0076
711.00,0.0073
710.00,0.0071
709.00,0.0068
708.00,0.0065
707.00,0.0063
706.00,0.0062
705.00,0.0062
704.00,0.0061
703.00,0.0061
702.00,0.0059
701.00,0.0058
700.00,0.0057
699.00,0.0055
698.00,0.0054
697.00,0.0052
696.00,0.0050
695.00,0.0049
694.00,0.0049
693.00,0.0049
692.00,0.0050
691.00,0.0050
690.00,0.0049
689.00,0.0049
688.00,0.0048
687.00,0.0047
686.00,0.0047
685.00,0.0047
684.00,0.0047
683.00,0.0047
682.00,0.0046
681.00,0.0044
680.00,0.0044
679.00,0.0044
678.00,0.0045
677.00,0.0046
676.00,0.0047
675.00,0.0047
674.00,0.0047
673.00,0.0046
672.00,0.0046
671.00,0.0046
670.00,0.0046
669.00,0.0045
668.00,0.0044
667.00,0.0045
666.00,0.0047
665.00,0.0048
664.00,0.0048
663.00,0.0045
662.00,0.0042
661.00,0.0041
660.00,0.0043
659.00,0.0046
658.00,0.0047
657.00,0.0047
656.00,0.0047
655.00,0.0048
654.00,0.0049
653.00,0.0049
652.00,0.0048
651.00,0.0047
650.00,0.0046
649.00,0.0046
648.00,0.0045
647.00,0.0047
646.00,0.0049
645.00,0.0051
644.00,0.0052
643.00,0.0051
642.00,0.0050
641.00,0.0050
640.00,0.0049
639.00,0.0050
638.00,0.0050
637.00,0.0050
636.00,0.0049
635.00,0.0047
634.00,0.0046
633.00,0.0045
632.00,0.0046
631.00,0.0048
630.00,0.0049
629.00,0.0049
628.00,0.0048
627.00,0.0047
626.00,0.0046
625.00,0.0045
624.00,0.0044
623.00,0.0043
622.00,0.0044
621.00,0.0047
620.00,0.0050
619.00,0.0052
618.00,0.0053
617.00,0.0053
616.00,0.0051
615.00,0.0049
614.00,0.0047
613.00,0.0045
612.00,0.0046
611.00,0.0048
610.00,0.0051
609.00,0.0055
608.00,0.0057
607.00,0.0055
606.00,0.0053
605.00,0.0050
604.00,0.0049
603.00,0.0049
602.00,0.0049
601.00,0.0048
600.00,0.0048
599.00,0.0048
598.00,0.0049
597.00,0.0051
596.00,0.0053
595.00,0.0057
594.00,0.0060
593.00,0.0062
592.00,0.0060
591.00,0.0056
590.00,0.0052
589.00,0.0049
588.00,0.0049
587.00,0.0050
586.00,0.0053
585.00,0.0055
584.00,0.0056
583.00,0.0056
582.00,0.0056
581.00,0.0054
580.00,0.0052
579.00,0.0051
578.00,0.0053
577.00,0.0056
576.00,0.0058
575.00,0.0058
574.00,0.0057
573.00,0.0056
572.00,0.0055
571.00,0.0055
570.00,0.0055
569.00,0.0055
568.00,0.0053
567.00,0.0051
566.00,0.0051
565.00,0.0052
564.00,0.0055
563.00,0.0058
562.00,0.0061
561.00,0.0063
560.00,0.0062
559.00,0.0059
558.00,0.0056
557.00,0.0052
556.00,0.0050
555.00,0.0049
554.00,0.0049
553.00,0.0048
552.00,0.0047
551.00,0.0047
550.00,0.0048
549.00,0.0052
548.00,0.0055
547.00,0.0057
546.00,0.0058
545.00,0.0058
544.00,0.0057
543.00,0.0056
542.00,0.0055
541.00,0.0054
540.00,0.0054
539.00,0.0055
538.00,0.0058
537.00,0.0064
536.00,0.0070
535.00,0.0076
534.00,0.0079
533.00,0.0079
532.00,0.0078
531.00,0.0076
530.00,0.0075
529.00,0.0077
528.00,0.0081
527.00,0.0084
526.00,0.0085
525.00,0.0082
524.00,0.0076
523.00,0.0068
522.00,0.0060
521.00,0.0052
520.00,0.0048
519.00,0.0048
518.00,0.0054
517.00,0.0061
516.00,0.0065
515.00,0.0066
514.00,0.0066
513.00,0.0066
512.00,0.0063
511.00,0.0060
510.00,0.0058
509.00,0.0059
508.00,0.0062
507.00,0.0064
506.00,0.0065
505.00,0.0065
504.00,0.0068
503.00,0.0071
502.00,0.0071
501.00,0.0066
500.00,0.0061
499.00,0.0060
498.00,0.0066
497.00,0.0074
496.00,0.0080
495.00,0.0082
494.00,0.0078
493.00,0.0074
492.00,0.0071
491.00,0.0067
490.00,0.0060
489.00,0.0054
488.00,0.0053
487.00,0.0061
486.00,0.0069
485.00,0.0070
484.00,0.0061
483.00,0.0053
482.00,0.0051
481.00,0.0055
480.00,0.0059
479.00,0.0062
478.00,0.0066
477.00,0.0069
476.00,0.0071
475.00,0.0072
474.00,0.0077
473.00,0.0086
472.00,0.0095
471.00,0.0098
470.00,0.0097
469.00,0.0094
468.00,0.0094
467.00,0.0101
466.00,0.0113
465.00,0.0124
464.00,0.0130
463.00,0.0131
462.00,0.0132
461.00,0.0134
460.00,0.0135
459.00,0.0135
458.00,0.0133
457.00,0.0131
456.00,0.0132
455.00,0.0134
454.00,0.0136
453.00,0.0138
452.00,0.0134
451.00,0.0121
450.00,0.0101
