Created as New Dataset,Sample 126 By Administrator Date Friday, September 05 2025
cm-1,A
4000.00,0.0009
3999.00,0.0009
3998.00,0.0009
3997.00,0.0009
3996.00,0.0010
3995.00,0.0010
3994.00,0.0010
3993.00,0.0011
3992.00,0.0011
3991.00,0.0011
3990.00,0.0011
3989.00,0.0011
3988.00,0.0011
3987.00,0.0011
3986.00,0.0010
3985.00,0.0010
3984.00,0.0010
3983.00,0.0010
3982.00,0.0009
3981.00,0.0009
3980.00,0.0009
3979.00,0.0009
3978.00,0.0010
3977.00,0.0010
3976.00,0.0010
3975.00,0.0009
3974.00,0.0009
3973.00,0.0009
3972.00,0.0009
3971.00,0.0009
3970.00,0.0009
3969.00,0.0009
3968.00,0.0009
3967.00,0.0009
3966.00,0.0009
3965.00,0.0009
3964.00,0.0009
3963.00,0.0009
3962.00,0.0008
3961.00,0.0008
3960.00,0.0008
3959.00,0.0008
3958.00,0.0008
3957.00,0.0009
3956.00,0.0009
3955.00,0.0008
3954.00,0.0008
3953.00,0.0008
3952.00,0.0008
3951.00,0.0008
3950.00,0.0008
3949.00,0.0008
3948.00,0.0008
3947.00,0.0008
3946.00,0.0008
3945.00,0.0008
3944.00,0.0008
3943.00,0.0008
3942.00,0.0008
3941.00,0.0008
3940.00,0.0008
3939.00,0.0008
3938.00,0.0008
3937.00,0.0008
3936.00,0.0008
3935.00,0.0008
3934.00,0.0008
3933.00,0.0008
3932.00,0.0008
3931.00,0.0008
3930.00,0.0008
3929.00,0.0008
3928.00,0.0008
3927.00,0.0009
3926.00,0.0009
3925.00,0.0009
3924.00,0.0009
3923.00,0.0009
3922.00,0.0009
3921.00,0.0009
3920.00,0.0009
3919.00,0.0009
3918.00,0.0009
3917.00,0.0009
3916.00,0.0009
3915.00,0.0009
3914.00,0.0009
3913.00,0.0009
3912.00,0.0009
3911.00,0.0009
3910.00,0.0009
3909.00,0.0009
3908.00,0.0008
3907.00,0.0008
3906.00,0.0008
3905.00,0.0008
3904.00,0.0008
3903.00,0.0009
3902.00,0.0009
3901.00,0.0009
3900.00,0.0008
3899.00,0.0008
3898.00,0.0008
3897.00,0.0008
3896.00,0.0008
3895.00,0.0008
3894.00,0.0009
3893.00,0.0009
3892.00,0.0009
3891.00,0.0009
3890.00,0.0008
3889.00,0.0008
3888.00,0.0008
3887.00,0.0007
3886.00,0.0007
3885.00,0.0007
3884.00,0.0007
3883.00,0.0007
3882.00,0.0008
3881.00,0.0008
3880.00,0.0009
3879.00,0.0008
3878.00,0.0008
3877.00,0.0008
3876.00,0.0008
3875.00,0.0008
3874.00,0.0008
3873.00,0.0008
3872.00,0.0008
3871.00,0.0008
3870.00,0.0008
3869.00,0.0008
3868.00,0.0007
3867.00,0.0007
3866.00,0.0007
3865.00,0.0007
3864.00,0.0008
3863.00,0.0008
3862.00,0.0008
3861.00,0.0007
3860.00,0.0007
3859.00,0.0007
3858.00,0.0008
3857.00,0.0008
3856.00,0.0008
3855.00,0.0007
3854.00,0.0007
3853.00,0.0006
3852.00,0.0006
3851.00,0.0007
3850.00,0.0007
3849.00,0.0007
3848.00,0.0007
3847.00,0.0007
3846.00,0.0007
3845.00,0.0008
3844.00,0.0008
3843.00,0.0008
3842.00,0.0008
3841.00,0.0008
3840.00,0.0009
3839.00,0.0009
3838.00,0.0008
3837.00,0.0008
3836.00,0.0008
3835.00,0.0008
3834.00,0.0008
3833.00,0.0007
3832.00,0.0007
3831.00,0.0007
3830.00,0.0008
3829.00,0.0008
3828.00,0.0008
3827.00,0.0007
3826.00,0.0007
3825.00,0.0007
3824.00,0.0007
3823.00,0.0007
3822.00,0.0007
3821.00,0.0007
3820.00,0.0007
3819.00,0.0008
3818.00,0.0008
3817.00,0.0008
3816.00,0.0008
3815.00,0.0008
3814.00,0.0008
3813.00,0.0007
3812.00,0.0007
3811.00,0.0007
3810.00,0.0007
3809.00,0.0007
3808.00,0.0007
3807.00,0.0007
3806.00,0.0007
3805.00,0.0007
3804.00,0.0007
3803.00,0.0006
3802.00,0.0007
3801.00,0.0007
3800.00,0.0008
3799.00,0.0008
3798.00,0.0008
3797.00,0.0008
3796.00,0.0008
3795.00,0.0008
3794.00,0.0008
3793.00,0.0008
3792.00,0.0008
3791.00,0.0008
3790.00,0.0008
3789.00,0.0008
3788.00,0.0008
3787.00,0.0008
3786.00,0.0008
3785.00,0.0008
3784.00,0.0008
3783.00,0.0008
3782.00,0.0008
3781.00,0.0008
3780.00,0.0008
3779.00,0.0008
3778.00,0.0008
3777.00,0.0008
3776.00,0.0008
3775.00,0.0008
3774.00,0.0008
3773.00,0.0008
3772.00,0.0007
3771.00,0.0007
3770.00,0.0008
3769.00,0.0008
3768.00,0.0008
3767.00,0.0008
3766.00,0.0009
3765.00,0.0009
3764.00,0.0009
3763.00,0.0009
3762.00,0.0010
3761.00,0.0010
3760.00,0.0010
3759.00,0.0010
3758.00,0.0009
3757.00,0.0009
3756.00,0.0008
3755.00,0.0008
3754.00,0.0007
3753.00,0.0007
3752.00,0.0007
3751.00,0.0007
3750.00,0.0006
3749.00,0.0006
3748.00,0.0007
3747.00,0.0007
3746.00,0.0007
3745.00,0.0006
3744.00,0.0006
3743.00,0.0006
3742.00,0.0006
3741.00,0.0006
3740.00,0.0006
3739.00,0.0005
3738.00,0.0004
3737.00,0.0004
3736.00,0.0004
3735.00,0.0005
3734.00,0.0006
3733.00,0.0007
3732.00,0.0007
3731.00,0.0007
3730.00,0.0006
3729.00,0.0006
3728.00,0.0006
3727.00,0.0006
3726.00,0.0006
3725.00,0.0007
3724.00,0.0006
3723.00,0.0006
3722.00,0.0006
3721.00,0.0006
3720.00,0.0006
3719.00,0.0006
3718.00,0.0006
3717.00,0.0006
3716.00,0.0006
3715.00,0.0006
3714.00,0.0006
3713.00,0.0005
3712.00,0.0005
3711.00,0.0005
3710.00,0.0005
3709.00,0.0006
3708.00,0.0006
3707.00,0.0006
3706.00,0.0006
3705.00,0.0006
3704.00,0.0007
3703.00,0.0007
3702.00,0.0007
3701.00,0.0006
3700.00,0.0006
3699.00,0.0006
3698.00,0.0007
3697.00,0.0007
3696.00,0.0007
3695.00,0.0008
3694.00,0.0008
3693.00,0.0008
3692.00,0.0007
3691.00,0.0007
3690.00,0.0007
3689.00,0.0007
3688.00,0.0007
3687.00,0.0006
3686.00,0.0006
3685.00,0.0006
3684.00,0.0006
3683.00,0.0007
3682.00,0.0007
3681.00,0.0007
3680.00,0.0007
3679.00,0.0007
3678.00,0.0008
3677.00,0.0008
3676.00,0.0008
3675.00,0.0008
3674.00,0.0007
3673.00,0.0007
3672.00,0.0006
3671.00,0.0005
3670.00,0.0005
3669.00,0.0005
3668.00,0.0005
3667.00,0.0005
3666.00,0.0005
3665.00,0.0005
3664.00,0.0006
3663.00,0.0006
3662.00,0.0006
3661.00,0.0006
3660.00,0.0006
3659.00,0.0006
3658.00,0.0006
3657.00,0.0006
3656.00,0.0006
3655.00,0.0006
3654.00,0.0006
3653.00,0.0006
3652.00,0.0005
3651.00,0.0006
3650.00,0.0006
3649.00,0.0007
3648.00,0.0008
3647.00,0.0008
3646.00,0.0008
3645.00,0.0007
3644.00,0.0008
3643.00,0.0008
3642.00,0.0008
3641.00,0.0008
3640.00,0.0008
3639.00,0.0008
3638.00,0.0009
3637.00,0.0009
3636.00,0.0008
3635.00,0.0008
3634.00,0.0008
3633.00,0.0007
3632.00,0.0007
3631.00,0.0006
3630.00,0.0006
3629.00,0.0006
3628.00,0.0006
3627.00,0.0006
3626.00,0.0007
3625.00,0.0007
3624.00,0.0008
3623.00,0.0009
3622.00,0.0009
3621.00,0.0010
3620.00,0.0010
3619.00,0.0010
3618.00,0.0009
3617.00,0.0009
3616.00,0.0008
3615.00,0.0008
3614.00,0.0008
3613.00,0.0008
3612.00,0.0008
3611.00,0.0008
3610.00,0.0008
3609.00,0.0009
3608.00,0.0009
3607.00,0.0010
3606.00,0.0010
3605.00,0.0010
3604.00,0.0010
3603.00,0.0011
3602.00,0.0011
3601.00,0.0011
3600.00,0.0011
3599.00,0.0011
3598.00,0.0011
3597.00,0.0011
3596.00,0.0011
3595.00,0.0011
3594.00,0.0011
3593.00,0.0011
3592.00,0.0011
3591.00,0.0012
3590.00,0.0013
3589.00,0.0013
3588.00,0.0013
3587.00,0.0013
3586.00,0.0013
3585.00,0.0013
3584.00,0.0013
3583.00,0.0013
3582.00,0.0013
3581.00,0.0012
3580.00,0.0012
3579.00,0.0012
3578.00,0.0012
3577.00,0.0013
3576.00,0.0013
3575.00,0.0014
3574.00,0.0014
3573.00,0.0014
3572.00,0.0015
3571.00,0.0015
3570.00,0.0015
3569.00,0.0015
3568.00,0.0015
3567.00,0.0015
3566.00,0.0015
3565.00,0.0015
3564.00,0.0015
3563.00,0.0016
3562.00,0.0016
3561.00,0.0016
3560.00,0.0016
3559.00,0.0016
3558.00,0.0016
3557.00,0.0017
3556.00,0.0017
3555.00,0.0017
3554.00,0.0018
3553.00,0.0018
3552.00,0.0018
3551.00,0.0018
3550.00,0.0018
3549.00,0.0018
3548.00,0.0018
3547.00,0.0018
3546.00,0.0018
3545.00,0.0018
3544.00,0.0019
3543.00,0.0019
3542.00,0.0019
3541.00,0.0019
3540.00,0.0019
3539.00,0.0019
3538.00,0.0019
3537.00,0.0019
3536.00,0.0019
3535.00,0.0020
3534.00,0.0020
3533.00,0.0020
3532.00,0.0021
3531.00,0.0021
3530.00,0.0021
3529.00,0.0021
3528.00,0.0021
3527.00,0.0020
3526.00,0.0020
3525.00,0.0020
3524.00,0.0020
3523.00,0.0021
3522.00,0.0021
3521.00,0.0021
3520.00,0.0022
3519.00,0.0022
3518.00,0.0022
3517.00,0.0023
3516.00,0.0023
3515.00,0.0022
3514.00,0.0022
3513.00,0.0022
3512.00,0.0022
3511.00,0.0023
3510.00,0.0023
3509.00,0.0023
3508.00,0.0024
3507.00,0.0024
3506.00,0.0024
3505.00,0.0024
3504.00,0.0024
3503.00,0.0024
3502.00,0.0024
3501.00,0.0024
3500.00,0.0024
3499.00,0.0024
3498.00,0.0024
3497.00,0.0024
3496.00,0.0024
3495.00,0.0024
3494.00,0.0024
3493.00,0.0024
3492.00,0.0024
3491.00,0.0024
3490.00,0.0025
3489.00,0.0025
3488.00,0.0025
3487.00,0.0025
3486.00,0.0025
3485.00,0.0026
3484.00,0.0026
3483.00,0.0026
3482.00,0.0026
3481.00,0.0026
3480.00,0.0026
3479.00,0.0026
3478.00,0.0026
3477.00,0.0026
3476.00,0.0026
3475.00,0.0026
3474.00,0.0027
3473.00,0.0027
3472.00,0.0028
3471.00,0.0028
3470.00,0.0029
3469.00,0.0029
3468.00,0.0028
3467.00,0.0028
3466.00,0.0028
3465.00,0.0028
3464.00,0.0028
3463.00,0.0029
3462.00,0.0029
3461.00,0.0029
3460.00,0.0029
3459.00,0.0029
3458.00,0.0029
3457.00,0.0029
3456.00,0.0028
3455.00,0.0028
3454.00,0.0028
3453.00,0.0029
3452.00,0.0029
3451.00,0.0030
3450.00,0.0030
3449.00,0.0030
3448.00,0.0030
3447.00,0.0030
3446.00,0.0030
3445.00,0.0031
3444.00,0.0031
3443.00,0.0031
3442.00,0.0031
3441.00,0.0031
3440.00,0.0031
3439.00,0.0031
3438.00,0.0031
3437.00,0.0032
3436.00,0.0032
3435.00,0.0033
3434.00,0.0033
3433.00,0.0033
3432.00,0.0033
3431.00,0.0033
3430.00,0.0033
3429.00,0.0033
3428.00,0.0033
3427.00,0.0033
3426.00,0.0033
3425.00,0.0033
3424.00,0.0033
3423.00,0.0033
3422.00,0.0033
3421.00,0.0033
3420.00,0.0034
3419.00,0.0034
3418.00,0.0035
3417.00,0.0035
3416.00,0.0035
3415.00,0.0035
3414.00,0.0035
3413.00,0.0035
3412.00,0.0035
3411.00,0.0035
3410.00,0.0035
3409.00,0.0035
3408.00,0.0035
3407.00,0.0036
3406.00,0.0036
3405.00,0.0036
3404.00,0.0036
3403.00,0.0037
3402.00,0.0037
3401.00,0.0037
3400.00,0.0038
3399.00,0.0038
3398.00,0.0038
3397.00,0.0039
3396.00,0.0039
3395.00,0.0039
3394.00,0.0039
3393.00,0.0039
3392.00,0.0039
3391.00,0.0039
3390.00,0.0038
3389.00,0.0038
3388.00,0.0038
3387.00,0.0037
3386.00,0.0037
3385.00,0.0037
3384.00,0.0037
3383.00,0.0037
3382.00,0.0036
3381.00,0.0036
3380.00,0.0036
3379.00,0.0036
3378.00,0.0037
3377.00,0.0037
3376.00,0.0037
3375.00,0.0038
3374.00,0.0037
3373.00,0.0037
3372.00,0.0037
3371.00,0.0037
3370.00,0.0037
3369.00,0.0037
3368.00,0.0038
3367.00,0.0038
3366.00,0.0038
3365.00,0.0038
3364.00,0.0037
3363.00,0.0037
3362.00,0.0037
3361.00,0.0036
3360.00,0.0036
3359.00,0.0037
3358.00,0.0037
3357.00,0.0037
3356.00,0.0038
3355.00,0.0038
3354.00,0.0039
3353.00,0.0039
3352.00,0.0039
3351.00,0.0039
3350.00,0.0038
3349.00,0.0038
3348.00,0.0038
3347.00,0.0038
3346.00,0.0038
3345.00,0.0038
3344.00,0.0038
3343.00,0.0038
3342.00,0.0038
3341.00,0.0037
3340.00,0.0037
3339.00,0.0037
3338.00,0.0037
3337.00,0.0038
3336.00,0.0038
3335.00,0.0038
3334.00,0.0037
3333.00,0.0037
3332.00,0.0037
3331.00,0.0037
3330.00,0.0037
3329.00,0.0037
3328.00,0.0037
3327.00,0.0037
3326.00,0.0037
3325.00,0.0037
3324.00,0.0037
3323.00,0.0037
3322.00,0.0037
3321.00,0.0036
3320.00,0.0036
3319.00,0.0035
3318.00,0.0035
3317.00,0.0035
3316.00,0.0036
3315.00,0.0036
3314.00,0.0036
3313.00,0.0036
3312.00,0.0036
3311.00,0.0036
3310.00,0.0036
3309.00,0.0036
3308.00,0.0036
3307.00,0.0036
3306.00,0.0036
3305.00,0.0036
3304.00,0.0036
3303.00,0.0036
3302.00,0.0036
3301.00,0.0036
3300.00,0.0036
3299.00,0.0036
3298.00,0.0036
3297.00,0.0036
3296.00,0.0036
3295.00,0.0036
3294.00,0.0036
3293.00,0.0036
3292.00,0.0036
3291.00,0.0036
3290.00,0.0035
3289.00,0.0035
3288.00,0.0035
3287.00,0.0035
3286.00,0.0035
3285.00,0.0035
3284.00,0.0035
3283.00,0.0035
3282.00,0.0035
3281.00,0.0035
3280.00,0.0036
3279.00,0.0036
3278.00,0.0036
3277.00,0.0035
3276.00,0.0035
3275.00,0.0035
3274.00,0.0034
3273.00,0.0034
3272.00,0.0034
3271.00,0.0034
3270.00,0.0034
3269.00,0.0034
3268.00,0.0034
3267.00,0.0034
3266.00,0.0034
3265.00,0.0034
3264.00,0.0034
3263.00,0.0034
3262.00,0.0033
3261.00,0.0033
3260.00,0.0033
3259.00,0.0033
3258.00,0.0033
3257.00,0.0033
3256.00,0.0033
3255.00,0.0033
3254.00,0.0032
3253.00,0.0032
3252.00,0.0032
3251.00,0.0032
3250.00,0.0032
3249.00,0.0031
3248.00,0.0031
3247.00,0.0031
3246.00,0.0031
3245.00,0.0031
3244.00,0.0031
3243.00,0.0031
3242.00,0.0032
3241.00,0.0032
3240.00,0.0032
3239.00,0.0031
3238.00,0.0031
3237.00,0.0031
3236.00,0.0031
3235.00,0.0031
3234.00,0.0031
3233.00,0.0032
3232.00,0.0032
3231.00,0.0032
3230.00,0.0033
3229.00,0.0033
3228.00,0.0033
3227.00,0.0034
3226.00,0.0034
3225.00,0.0034
3224.00,0.0034
3223.00,0.0034
3222.00,0.0035
3221.00,0.0035
3220.00,0.0035
3219.00,0.0035
3218.00,0.0035
3217.00,0.0035
3216.00,0.0036
3215.00,0.0036
3214.00,0.0036
3213.00,0.0037
3212.00,0.0037
3211.00,0.0037
3210.00,0.0037
3209.00,0.0037
3208.00,0.0037
3207.00,0.0037
3206.00,0.0037
3205.00,0.0038
3204.00,0.0038
3203.00,0.0038
3202.00,0.0038
3201.00,0.0038
3200.00,0.0038
3199.00,0.0039
3198.00,0.0039
3197.00,0.0039
3196.00,0.0039
3195.00,0.0038
3194.00,0.0038
3193.00,0.0038
3192.00,0.0039
3191.00,0.0039
3190.00,0.0039
3189.00,0.0039
3188.00,0.0038
3187.00,0.0038
3186.00,0.0037
3185.00,0.0037
3184.00,0.0036
3183.00,0.0036
3182.00,0.0036
3181.00,0.0036
3180.00,0.0036
3179.00,0.0036
3178.00,0.0036
3177.00,0.0036
3176.00,0.0036
3175.00,0.0035
3174.00,0.0035
3173.00,0.0035
3172.00,0.0034
3171.00,0.0034
3170.00,0.0034
3169.00,0.0034
3168.00,0.0034
3167.00,0.0034
3166.00,0.0034
3165.00,0.0033
3164.00,0.0033
3163.00,0.0034
3162.00,0.0034
3161.00,0.0034
3160.00,0.0034
3159.00,0.0034
3158.00,0.0034
3157.00,0.0034
3156.00,0.0034
3155.00,0.0034
3154.00,0.0034
3153.00,0.0034
3152.00,0.0034
3151.00,0.0034
3150.00,0.0035
3149.00,0.0035
3148.00,0.0034
3147.00,0.0034
3146.00,0.0033
3145.00,0.0033
3144.00,0.0033
3143.00,0.0033
3142.00,0.0033
3141.00,0.0033
3140.00,0.0032
3139.00,0.0032
3138.00,0.0032
3137.00,0.0032
3136.00,0.0032
3135.00,0.0032
3134.00,0.0032
3133.00,0.0032
3132.00,0.0032
3131.00,0.0031
3130.00,0.0031
3129.00,0.0031
3128.00,0.0030
3127.00,0.0030
3126.00,0.0030
3125.00,0.0030
3124.00,0.0030
3123.00,0.0030
3122.00,0.0030
3121.00,0.0029
3120.00,0.0029
3119.00,0.0029
3118.00,0.0028
3117.00,0.0028
3116.00,0.0028
3115.00,0.0028
3114.00,0.0028
3113.00,0.0028
3112.00,0.0028
3111.00,0.0028
3110.00,0.0028
3109.00,0.0027
3108.00,0.0027
3107.00,0.0027
3106.00,0.0027
3105.00,0.0028
3104.00,0.0027
3103.00,0.0027
3102.00,0.0027
3101.00,0.0027
3100.00,0.0027
3099.00,0.0027
3098.00,0.0027
3097.00,0.0028
3096.00,0.0028
3095.00,0.0028
3094.00,0.0028
3093.00,0.0028
3092.00,0.0027
3091.00,0.0027
3090.00,0.0027
3089.00,0.0027
3088.00,0.0027
3087.00,0.0027
3086.00,0.0027
3085.00,0.0027
3084.00,0.0027
3083.00,0.0027
3082.00,0.0028
3081.00,0.0028
3080.00,0.0027
3079.00,0.0027
3078.00,0.0027
3077.00,0.0028
3076.00,0.0028
3075.00,0.0028
3074.00,0.0029
3073.00,0.0029
3072.00,0.0029
3071.00,0.0029
3070.00,0.0029
3069.00,0.0029
3068.00,0.0029
3067.00,0.0029
3066.00,0.0030
3065.00,0.0030
3064.00,0.0030
3063.00,0.0030
3062.00,0.0030
3061.00,0.0030
3060.00,0.0030
3059.00,0.0030
3058.00,0.0030
3057.00,0.0031
3056.00,0.0031
3055.00,0.0031
3054.00,0.0031
3053.00,0.0032
3052.00,0.0032
3051.00,0.0032
3050.00,0.0032
3049.00,0.0033
3048.00,0.0033
3047.00,0.0033
3046.00,0.0033
3045.00,0.0033
3044.00,0.0033
3043.00,0.0033
3042.00,0.0033
3041.00,0.0034
3040.00,0.0034
3039.00,0.0034
3038.00,0.0035
3037.00,0.0035
3036.00,0.0035
3035.00,0.0035
3034.00,0.0035
3033.00,0.0036
3032.00,0.0036
3031.00,0.0037
3030.00,0.0037
3029.00,0.0037
3028.00,0.0038
3027.00,0.0039
3026.00,0.0039
3025.00,0.0040
3024.00,0.0041
3023.00,0.0042
3022.00,0.0043
3021.00,0.0043
3020.00,0.0044
3019.00,0.0044
3018.00,0.0045
3017.00,0.0046
3016.00,0.0047
3015.00,0.0048
3014.00,0.0050
3013.00,0.0051
3012.00,0.0052
3011.00,0.0053
3010.00,0.0054
3009.00,0.0056
3008.00,0.0057
3007.00,0.0059
3006.00,0.0060
3005.00,0.0062
3004.00,0.0064
3003.00,0.0066
3002.00,0.0068
3001.00,0.0071
3000.00,0.0073
2999.00,0.0076
2998.00,0.0078
2997.00,0.0081
2996.00,0.0084
2995.00,0.0088
2994.00,0.0092
2993.00,0.0097
2992.00,0.0102
2991.00,0.0108
2990.00,0.0114
2989.00,0.0121
2988.00,0.0128
2987.00,0.0137
2986.00,0.0147
2985.00,0.0158
2984.00,0.0170
2983.00,0.0184
2982.00,0.0199
2981.00,0.0216
2980.00,0.0236
2979.00,0.0259
2978.00,0.0284
2977.00,0.0314
2976.00,0.0347
2975.00,0.0386
2974.00,0.0431
2973.00,0.0482
2972.00,0.0539
2971.00,0.0603
2970.00,0.0675
2969.00,0.0753
2968.00,0.0837
2967.00,0.0925
2966.00,0.1016
2965.00,0.1107
2964.00,0.1192
2963.00,0.1267
2962.00,0.1328
2961.00,0.1374
2960.00,0.1406
2959.00,0.1432
2958.00,0.1460
2957.00,0.1498
2956.00,0.1552
2955.00,0.1626
2954.00,0.1715
2953.00,0.1812
2952.00,0.1902
2951.00,0.1969
2950.00,0.1996
2949.00,0.1975
2948.00,0.1904
2947.00,0.1793
2946.00,0.1658
2945.00,0.1515
2944.00,0.1380
2943.00,0.1263
2942.00,0.1172
2941.00,0.1108
2940.00,0.1069
2939.00,0.1053
2938.00,0.1058
2937.00,0.1083
2936.00,0.1124
2935.00,0.1181
2934.00,0.1254
2933.00,0.1340
2932.00,0.1439
2931.00,0.1549
2930.00,0.1667
2929.00,0.1792
2928.00,0.1918
2927.00,0.2045
2926.00,0.2170
2925.00,0.2294
2924.00,0.2417
2923.00,0.2543
2922.00,0.2670
2921.00,0.2793
2920.00,0.2904
2919.00,0.2987
2918.00,0.3028
2917.00,0.3016
2916.00,0.2952
2915.00,0.2844
2914.00,0.2710
2913.00,0.2568
2912.00,0.2433
2911.00,0.2312
2910.00,0.2207
2909.00,0.2116
2908.00,0.2035
2907.00,0.1959
2906.00,0.1885
2905.00,0.1811
2904.00,0.1738
2903.00,0.1666
2902.00,0.1595
2901.00,0.1526
2900.00,0.1459
2899.00,0.1396
2898.00,0.1337
2897.00,0.1283
2896.00,0.1235
2895.00,0.1193
2894.00,0.1158
2893.00,0.1130
2892.00,0.1108
2891.00,0.1093
2890.00,0.1084
2889.00,0.1079
2888.00,0.1077
2887.00,0.1078
2886.00,0.1083
2885.00,0.1091
2884.00,0.1103
2883.00,0.1120
2882.00,0.1140
2881.00,0.1162
2880.00,0.1182
2879.00,0.1197
2878.00,0.1205
2877.00,0.1204
2876.00,0.1197
2875.00,0.1188
2874.00,0.1183
2873.00,0.1185
2872.00,0.1195
2871.00,0.1213
2870.00,0.1235
2869.00,0.1257
2868.00,0.1271
2867.00,0.1269
2866.00,0.1244
2865.00,0.1193
2864.00,0.1121
2863.00,0.1037
2862.00,0.0953
2861.00,0.0878
2860.00,0.0819
2859.00,0.0776
2858.00,0.0751
2857.00,0.0739
2856.00,0.0741
2855.00,0.0753
2854.00,0.0773
2853.00,0.0800
2852.00,0.0829
2851.00,0.0856
2850.00,0.0880
2849.00,0.0898
2848.00,0.0912
2847.00,0.0928
2846.00,0.0951
2845.00,0.0985
2844.00,0.1030
2843.00,0.1083
2842.00,0.1139
2841.00,0.1189
2840.00,0.1225
2839.00,0.1240
2838.00,0.1228
2837.00,0.1185
2836.00,0.1114
2835.00,0.1021
2834.00,0.0916
2833.00,0.0810
2832.00,0.0710
2831.00,0.0621
2830.00,0.0547
2829.00,0.0486
2828.00,0.0437
2827.00,0.0396
2826.00,0.0363
2825.00,0.0335
2824.00,0.0312
2823.00,0.0293
2822.00,0.0276
2821.00,0.0262
2820.00,0.0249
2819.00,0.0238
2818.00,0.0228
2817.00,0.0219
2816.00,0.0212
2815.00,0.0205
2814.00,0.0199
2813.00,0.0193
2812.00,0.0188
2811.00,0.0182
2810.00,0.0176
2809.00,0.0171
2808.00,0.0164
2807.00,0.0158
2806.00,0.0151
2805.00,0.0145
2804.00,0.0139
2803.00,0.0133
2802.00,0.0127
2801.00,0.0123
2800.00,0.0119
2799.00,0.0117
2798.00,0.0114
2797.00,0.0112
2796.00,0.0109
2795.00,0.0107
2794.00,0.0104
2793.00,0.0101
2792.00,0.0098
2791.00,0.0095
2790.00,0.0091
2789.00,0.0088
2788.00,0.0085
2787.00,0.0082
2786.00,0.0079
2785.00,0.0077
2784.00,0.0075
2783.00,0.0073
2782.00,0.0071
2781.00,0.0069
2780.00,0.0067
2779.00,0.0065
2778.00,0.0064
2777.00,0.0062
2776.00,0.0061
2775.00,0.0060
2774.00,0.0059
2773.00,0.0059
2772.00,0.0058
2771.00,0.0058
2770.00,0.0058
2769.00,0.0057
2768.00,0.0057
2767.00,0.0057
2766.00,0.0056
2765.00,0.0056
2764.00,0.0055
2763.00,0.0055
2762.00,0.0054
2761.00,0.0054
2760.00,0.0053
2759.00,0.0053
2758.00,0.0053
2757.00,0.0054
2756.00,0.0054
2755.00,0.0054
2754.00,0.0054
2753.00,0.0053
2752.00,0.0053
2751.00,0.0052
2750.00,0.0052
2749.00,0.0052
2748.00,0.0053
2747.00,0.0053
2746.00,0.0054
2745.00,0.0054
2744.00,0.0055
2743.00,0.0056
2742.00,0.0056
2741.00,0.0057
2740.00,0.0058
2739.00,0.0059
2738.00,0.0060
2737.00,0.0061
2736.00,0.0062
2735.00,0.0064
2734.00,0.0066
2733.00,0.0067
2732.00,0.0069
2731.00,0.0072
2730.00,0.0074
2729.00,0.0076
2728.00,0.0079
2727.00,0.0082
2726.00,0.0085
2725.00,0.0087
2724.00,0.0088
2723.00,0.0089
2722.00,0.0088
2721.00,0.0087
2720.00,0.0084
2719.00,0.0081
2718.00,0.0077
2717.00,0.0074
2716.00,0.0071
2715.00,0.0068
2714.00,0.0066
2713.00,0.0064
2712.00,0.0062
2711.00,0.0060
2710.00,0.0058
2709.00,0.0057
2708.00,0.0055
2707.00,0.0054
2706.00,0.0052
2705.00,0.0051
2704.00,0.0050
2703.00,0.0049
2702.00,0.0048
2701.00,0.0047
2700.00,0.0047
2699.00,0.0046
2698.00,0.0046
2697.00,0.0045
2696.00,0.0045
2695.00,0.0045
2694.00,0.0046
2693.00,0.0046
2692.00,0.0046
2691.00,0.0046
2690.00,0.0046
2689.00,0.0046
2688.00,0.0046
2687.00,0.0046
2686.00,0.0046
2685.00,0.0046
2684.00,0.0046
2683.00,0.0046
2682.00,0.0046
2681.00,0.0046
2680.00,0.0046
2679.00,0.0046
2678.00,0.0046
2677.00,0.0046
2676.00,0.0046
2675.00,0.0046
2674.00,0.0046
2673.00,0.0046
2672.00,0.0045
2671.00,0.0046
2670.00,0.0046
2669.00,0.0046
2668.00,0.0046
2667.00,0.0046
2666.00,0.0047
2665.00,0.0047
2664.00,0.0048
2663.00,0.0048
2662.00,0.0049
2661.00,0.0049
2660.00,0.0049
2659.00,0.0049
2658.00,0.0048
2657.00,0.0048
2656.00,0.0048
2655.00,0.0047
2654.00,0.0047
2653.00,0.0046
2652.00,0.0046
2651.00,0.0045
2650.00,0.0045
2649.00,0.0044
2648.00,0.0044
2647.00,0.0043
2646.00,0.0043
2645.00,0.0042
2644.00,0.0042
2643.00,0.0042
2642.00,0.0042
2641.00,0.0041
2640.00,0.0041
2639.00,0.0040
2638.00,0.0040
2637.00,0.0040
2636.00,0.0040
2635.00,0.0040
2634.00,0.0040
2633.00,0.0040
2632.00,0.0040
2631.00,0.0040
2630.00,0.0040
2629.00,0.0040
2628.00,0.0040
2627.00,0.0040
2626.00,0.0040
2625.00,0.0041
2624.00,0.0041
2623.00,0.0041
2622.00,0.0041
2621.00,0.0041
2620.00,0.0042
2619.00,0.0042
2618.00,0.0042
2617.00,0.0042
2616.00,0.0042
2615.00,0.0042
2614.00,0.0041
2613.00,0.0040
2612.00,0.0039
2611.00,0.0038
2610.00,0.0037
2609.00,0.0036
2608.00,0.0036
2607.00,0.0036
2606.00,0.0036
2605.00,0.0035
2604.00,0.0035
2603.00,0.0034
2602.00,0.0033
2601.00,0.0032
2600.00,0.0031
2599.00,0.0031
2598.00,0.0031
2597.00,0.0031
2596.00,0.0031
2595.00,0.0031
2594.00,0.0031
2593.00,0.0032
2592.00,0.0033
2591.00,0.0033
2590.00,0.0034
2589.00,0.0035
2588.00,0.0036
2587.00,0.0038
2586.00,0.0039
2585.00,0.0040
2584.00,0.0041
2583.00,0.0041
2582.00,0.0042
2581.00,0.0042
2580.00,0.0041
2579.00,0.0039
2578.00,0.0038
2577.00,0.0036
2576.00,0.0036
2575.00,0.0035
2574.00,0.0034
2573.00,0.0032
2572.00,0.0031
2571.00,0.0030
2570.00,0.0029
2569.00,0.0028
2568.00,0.0028
2567.00,0.0028
2566.00,0.0028
2565.00,0.0028
2564.00,0.0027
2563.00,0.0026
2562.00,0.0025
2561.00,0.0024
2560.00,0.0023
2559.00,0.0023
2558.00,0.0023
2557.00,0.0023
2556.00,0.0023
2555.00,0.0024
2554.00,0.0024
2553.00,0.0024
2552.00,0.0024
2551.00,0.0024
2550.00,0.0023
2549.00,0.0022
2548.00,0.0021
2547.00,0.0020
2546.00,0.0019
2545.00,0.0018
2544.00,0.0018
2543.00,0.0018
2542.00,0.0018
2541.00,0.0018
2540.00,0.0018
2539.00,0.0018
2538.00,0.0018
2537.00,0.0017
2536.00,0.0017
2535.00,0.0016
2534.00,0.0016
2533.00,0.0015
2532.00,0.0015
2531.00,0.0016
2530.00,0.0016
2529.00,0.0017
2528.00,0.0017
2527.00,0.0017
2526.00,0.0016
2525.00,0.0016
2524.00,0.0016
2523.00,0.0015
2522.00,0.0015
2521.00,0.0014
2520.00,0.0014
2519.00,0.0013
2518.00,0.0013
2517.00,0.0013
2516.00,0.0013
2515.00,0.0013
2514.00,0.0012
2513.00,0.0011
2512.00,0.0011
2511.00,0.0011
2510.00,0.0011
2509.00,0.0011
2508.00,0.0012
2507.00,0.0012
2506.00,0.0012
2505.00,0.0011
2504.00,0.0011
2503.00,0.0011
2502.00,0.0011
2501.00,0.0010
2500.00,0.0010
2499.00,0.0009
2498.00,0.0010
2497.00,0.0011
2496.00,0.0012
2495.00,0.0012
2494.00,0.0012
2493.00,0.0012
2492.00,0.0012
2491.00,0.0012
2490.00,0.0012
2489.00,0.0011
2488.00,0.0010
2487.00,0.0010
2486.00,0.0010
2485.00,0.0010
2484.00,0.0011
2483.00,0.0011
2482.00,0.0012
2481.00,0.0012
2480.00,0.0012
2479.00,0.0012
2478.00,0.0011
2477.00,0.0011
2476.00,0.0011
2475.00,0.0011
2474.00,0.0010
2473.00,0.0010
2472.00,0.0010
2471.00,0.0010
2470.00,0.0010
2469.00,0.0010
2468.00,0.0010
2467.00,0.0010
2466.00,0.0010
2465.00,0.0010
2464.00,0.0010
2463.00,0.0010
2462.00,0.0010
2461.00,0.0010
2460.00,0.0011
2459.00,0.0011
2458.00,0.0011
2457.00,0.0012
2456.00,0.0012
2455.00,0.0012
2454.00,0.0012
2453.00,0.0012
2452.00,0.0013
2451.00,0.0013
2450.00,0.0014
2449.00,0.0014
2448.00,0.0013
2447.00,0.0013
2446.00,0.0013
2445.00,0.0013
2444.00,0.0013
2443.00,0.0013
2442.00,0.0012
2441.00,0.0012
2440.00,0.0012
2439.00,0.0011
2438.00,0.0011
2437.00,0.0012
2436.00,0.0012
2435.00,0.0012
2434.00,0.0012
2433.00,0.0013
2432.00,0.0014
2431.00,0.0014
2430.00,0.0014
2429.00,0.0014
2428.00,0.0013
2427.00,0.0012
2426.00,0.0012
2425.00,0.0011
2424.00,0.0012
2423.00,0.0012
2422.00,0.0012
2421.00,0.0011
2420.00,0.0011
2419.00,0.0011
2418.00,0.0011
2417.00,0.0011
2416.00,0.0011
2415.00,0.0012
2414.00,0.0011
2413.00,0.0011
2412.00,0.0011
2411.00,0.0011
2410.00,0.0011
2409.00,0.0011
2408.00,0.0011
2407.00,0.0011
2406.00,0.0011
2405.00,0.0011
2404.00,0.0010
2403.00,0.0010
2402.00,0.0010
2401.00,0.0010
2400.00,0.0010
2399.00,0.0010
2398.00,0.0010
2397.00,0.0011
2396.00,0.0011
2395.00,0.0011
2394.00,0.0010
2393.00,0.0010
2392.00,0.0010
2391.00,0.0009
2390.00,0.0008
2389.00,0.0008
2388.00,0.0008
2387.00,0.0008
2386.00,0.0008
2385.00,0.0008
2384.00,0.0008
2383.00,0.0007
2382.00,0.0007
2381.00,0.0006
2380.00,0.0006
2379.00,0.0006
2378.00,0.0007
2377.00,0.0007
2376.00,0.0006
2375.00,0.0005
2374.00,0.0004
2373.00,0.0005
2372.00,0.0005
2371.00,0.0006
2370.00,0.0006
2369.00,0.0006
2368.00,0.0006
2367.00,0.0005
2366.00,0.0005
2365.00,0.0004
2364.00,0.0004
2363.00,0.0005
2362.00,0.0006
2361.00,0.0007
2360.00,0.0007
2359.00,0.0007
2358.00,0.0008
2357.00,0.0008
2356.00,0.0009
2355.00,0.0009
2354.00,0.0008
2353.00,0.0007
2352.00,0.0006
2351.00,0.0006
2350.00,0.0007
2349.00,0.0008
2348.00,0.0008
2347.00,0.0008
2346.00,0.0008
2345.00,0.0008
2344.00,0.0008
2343.00,0.0009
2342.00,0.0010
2341.00,0.0010
2340.00,0.0010
2339.00,0.0010
2338.00,0.0010
2337.00,0.0009
2336.00,0.0009
2335.00,0.0009
2334.00,0.0009
2333.00,0.0009
2332.00,0.0009
2331.00,0.0009
2330.00,0.0009
2329.00,0.0009
2328.00,0.0010
2327.00,0.0013
2326.00,0.0017
2325.00,0.0021
2324.00,0.0023
2323.00,0.0023
2322.00,0.0021
2321.00,0.0019
2320.00,0.0017
2319.00,0.0015
2318.00,0.0014
2317.00,0.0013
2316.00,0.0013
2315.00,0.0013
2314.00,0.0013
2313.00,0.0013
2312.00,0.0012
2311.00,0.0011
2310.00,0.0011
2309.00,0.0010
2308.00,0.0010
2307.00,0.0010
2306.00,0.0010
2305.00,0.0010
2304.00,0.0010
2303.00,0.0011
2302.00,0.0011
2301.00,0.0011
2300.00,0.0011
2299.00,0.0012
2298.00,0.0012
2297.00,0.0012
2296.00,0.0013
2295.00,0.0013
2294.00,0.0014
2293.00,0.0015
2292.00,0.0016
2291.00,0.0017
2290.00,0.0018
2289.00,0.0018
2288.00,0.0018
2287.00,0.0018
2286.00,0.0019
2285.00,0.0020
2284.00,0.0020
2283.00,0.0019
2282.00,0.0018
2281.00,0.0017
2280.00,0.0016
2279.00,0.0016
2278.00,0.0015
2277.00,0.0015
2276.00,0.0014
2275.00,0.0014
2274.00,0.0013
2273.00,0.0014
2272.00,0.0014
2271.00,0.0015
2270.00,0.0015
2269.00,0.0015
2268.00,0.0014
2267.00,0.0013
2266.00,0.0013
2265.00,0.0012
2264.00,0.0012
2263.00,0.0013
2262.00,0.0013
2261.00,0.0014
2260.00,0.0015
2259.00,0.0014
2258.00,0.0013
2257.00,0.0013
2256.00,0.0012
2255.00,0.0012
2254.00,0.0011
2253.00,0.0011
2252.00,0.0010
2251.00,0.0010
2250.00,0.0011
2249.00,0.0011
2248.00,0.0011
2247.00,0.0012
2246.00,0.0012
2245.00,0.0013
2244.00,0.0012
2243.00,0.0011
2242.00,0.0009
2241.00,0.0008
2240.00,0.0007
2239.00,0.0006
2238.00,0.0005
2237.00,0.0005
2236.00,0.0005
2235.00,0.0006
2234.00,0.0007
2233.00,0.0008
2232.00,0.0009
2231.00,0.0009
2230.00,0.0009
2229.00,0.0009
2228.00,0.0009
2227.00,0.0010
2226.00,0.0010
2225.00,0.0009
2224.00,0.0007
2223.00,0.0006
2222.00,0.0005
2221.00,0.0005
2220.00,0.0006
2219.00,0.0007
2218.00,0.0008
2217.00,0.0011
2216.00,0.0012
2215.00,0.0011
2214.00,0.0008
2213.00,0.0005
2212.00,0.0004
2211.00,0.0004
2210.00,0.0004
2209.00,0.0005
2208.00,0.0007
2207.00,0.0009
2206.00,0.0010
2205.00,0.0011
2204.00,0.0010
2203.00,0.0010
2202.00,0.0009
2201.00,0.0009
2200.00,0.0009
2199.00,0.0009
2198.00,0.0009
2197.00,0.0009
2196.00,0.0008
2195.00,0.0007
2194.00,0.0006
2193.00,0.0006
2192.00,0.0008
2191.00,0.0010
2190.00,0.0012
2189.00,0.0015
2188.00,0.0016
2187.00,0.0017
2186.00,0.0016
2185.00,0.0015
2184.00,0.0014
2183.00,0.0013
2182.00,0.0012
2181.00,0.0012
2180.00,0.0013
2179.00,0.0014
2178.00,0.0013
2177.00,0.0010
2176.00,0.0007
2175.00,0.0004
2174.00,0.0004
2173.00,0.0004
2172.00,0.0005
2171.00,0.0006
2170.00,0.0006
2169.00,0.0007
2168.00,0.0007
2167.00,0.0007
2166.00,0.0008
2165.00,0.0011
2164.00,0.0013
2163.00,0.0017
2162.00,0.0018
2161.00,0.0015
2160.00,0.0004
2159.00,-0.0013
2158.00,-0.0027
2157.00,-0.0033
2156.00,-0.0032
2155.00,-0.0027
2154.00,-0.0022
2153.00,-0.0019
2152.00,-0.0019
2151.00,-0.0020
2150.00,-0.0019
2149.00,-0.0017
2148.00,-0.0014
2147.00,-0.0012
2146.00,-0.0012
2145.00,-0.0012
2144.00,-0.0013
2143.00,-0.0013
2142.00,-0.0014
2141.00,-0.0015
2140.00,-0.0014
2139.00,-0.0014
2138.00,-0.0013
2137.00,-0.0012
2136.00,-0.0013
2135.00,-0.0015
2134.00,-0.0017
2133.00,-0.0017
2132.00,-0.0016
2131.00,-0.0013
2130.00,-0.0010
2129.00,-0.0007
2128.00,-0.0005
2127.00,-0.0004
2126.00,-0.0004
2125.00,-0.0004
2124.00,-0.0004
2123.00,-0.0003
2122.00,-0.0002
2121.00,-0.0001
2120.00,0.0000
2119.00,0.0001
2118.00,0.0002
2117.00,0.0002
2116.00,0.0002
2115.00,0.0002
2114.00,0.0002
2113.00,0.0001
2112.00,0.0001
2111.00,0.0001
2110.00,0.0002
2109.00,0.0002
2108.00,0.0002
2107.00,0.0001
2106.00,-0.0002
2105.00,-0.0003
2104.00,-0.0003
2103.00,-0.0002
2102.00,-0.0000
2101.00,0.0000
2100.00,0.0000
2099.00,0.0000
2098.00,0.0000
2097.00,0.0001
2096.00,-0.0000
2095.00,-0.0002
2094.00,-0.0004
2093.00,-0.0005
2092.00,-0.0005
2091.00,-0.0003
2090.00,-0.0001
2089.00,0.0002
2088.00,0.0004
2087.00,0.0005
2086.00,0.0005
2085.00,0.0004
2084.00,0.0004
2083.00,0.0003
2082.00,0.0002
2081.00,0.0002
2080.00,0.0002
2079.00,0.0002
2078.00,0.0004
2077.00,0.0005
2076.00,0.0005
2075.00,0.0004
2074.00,0.0003
2073.00,0.0003
2072.00,0.0004
2071.00,0.0005
2070.00,0.0006
2069.00,0.0005
2068.00,0.0003
2067.00,0.0001
2066.00,-0.0001
2065.00,-0.0001
2064.00,-0.0001
2063.00,-0.0001
2062.00,0.0001
2061.00,0.0003
2060.00,0.0004
2059.00,0.0005
2058.00,0.0003
2057.00,0.0002
2056.00,0.0000
2055.00,-0.0000
2054.00,0.0002
2053.00,0.0007
2052.00,0.0014
2051.00,0.0017
2050.00,0.0016
2049.00,0.0010
2048.00,0.0003
2047.00,-0.0000
2046.00,0.0000
2045.00,0.0003
2044.00,0.0005
2043.00,0.0005
2042.00,0.0003
2041.00,0.0001
2040.00,0.0001
2039.00,0.0003
2038.00,0.0004
2037.00,0.0004
2036.00,0.0002
2035.00,-0.0002
2034.00,-0.0005
2033.00,-0.0007
2032.00,-0.0008
2031.00,-0.0008
2030.00,-0.0008
2029.00,-0.0008
2028.00,-0.0008
2027.00,-0.0009
2026.00,-0.0009
2025.00,-0.0009
2024.00,-0.0007
2023.00,-0.0005
2022.00,-0.0005
2021.00,-0.0005
2020.00,-0.0006
2019.00,-0.0007
2018.00,-0.0007
2017.00,-0.0007
2016.00,-0.0008
2015.00,-0.0011
2014.00,-0.0014
2013.00,-0.0015
2012.00,-0.0014
2011.00,-0.0010
2010.00,-0.0009
2009.00,-0.0010
2008.00,-0.0013
2007.00,-0.0016
2006.00,-0.0017
2005.00,-0.0016
2004.00,-0.0015
2003.00,-0.0016
2002.00,-0.0016
2001.00,-0.0017
2000.00,-0.0017
1999.00,-0.0017
1998.00,-0.0018
1997.00,-0.0017
1996.00,-0.0016
1995.00,-0.0014
1994.00,-0.0011
1993.00,-0.0007
1992.00,-0.0004
1991.00,-0.0002
1990.00,-0.0002
1989.00,-0.0001
1988.00,0.0000
1987.00,0.0002
1986.00,0.0003
1985.00,0.0003
1984.00,0.0002
1983.00,0.0003
1982.00,0.0004
1981.00,0.0005
1980.00,0.0006
1979.00,0.0004
1978.00,-0.0001
1977.00,-0.0008
1976.00,-0.0015
1975.00,-0.0019
1974.00,-0.0021
1973.00,-0.0021
1972.00,-0.0021
1971.00,-0.0021
1970.00,-0.0021
1969.00,-0.0019
1968.00,-0.0016
1967.00,-0.0014
1966.00,-0.0012
1965.00,-0.0012
1964.00,-0.0013
1963.00,-0.0015
1962.00,-0.0017
1961.00,-0.0019
1960.00,-0.0020
1959.00,-0.0021
1958.00,-0.0021
1957.00,-0.0020
1956.00,-0.0018
1955.00,-0.0018
1954.00,-0.0018
1953.00,-0.0019
1952.00,-0.0020
1951.00,-0.0020
1950.00,-0.0018
1949.00,-0.0016
1948.00,-0.0015
1947.00,-0.0014
1946.00,-0.0015
1945.00,-0.0015
1944.00,-0.0016
1943.00,-0.0016
1942.00,-0.0015
1941.00,-0.0013
1940.00,-0.0011
1939.00,-0.0010
1938.00,-0.0010
1937.00,-0.0010
1936.00,-0.0010
1935.00,-0.0010
1934.00,-0.0010
1933.00,-0.0010
1932.00,-0.0009
1931.00,-0.0008
1930.00,-0.0007
1929.00,-0.0006
1928.00,-0.0005
1927.00,-0.0004
1926.00,-0.0004
1925.00,-0.0004
1924.00,-0.0005
1923.00,-0.0005
1922.00,-0.0005
1921.00,-0.0005
1920.00,-0.0005
1919.00,-0.0005
1918.00,-0.0005
1917.00,-0.0004
1916.00,-0.0003
1915.00,-0.0003
1914.00,-0.0004
1913.00,-0.0004
1912.00,-0.0004
1911.00,-0.0004
1910.00,-0.0004
1909.00,-0.0004
1908.00,-0.0004
1907.00,-0.0003
1906.00,-0.0003
1905.00,-0.0003
1904.00,-0.0003
1903.00,-0.0003
1902.00,-0.0002
1901.00,-0.0001
1900.00,-0.0001
1899.00,0.0000
1898.00,0.0001
1897.00,0.0001
1896.00,0.0001
1895.00,0.0001
1894.00,0.0000
1893.00,-0.0001
1892.00,-0.0001
1891.00,-0.0001
1890.00,-0.0001
1889.00,-0.0001
1888.00,-0.0002
1887.00,-0.0002
1886.00,-0.0002
1885.00,-0.0001
1884.00,-0.0000
1883.00,0.0001
1882.00,0.0001
1881.00,0.0001
1880.00,-0.0000
1879.00,-0.0001
1878.00,-0.0001
1877.00,-0.0000
1876.00,0.0001
1875.00,0.0002
1874.00,0.0002
1873.00,0.0002
1872.00,0.0001
1871.00,-0.0000
1870.00,-0.0001
1869.00,-0.0001
1868.00,0.0000
1867.00,0.0001
1866.00,0.0001
1865.00,0.0001
1864.00,0.0001
1863.00,0.0001
1862.00,0.0001
1861.00,0.0000
1860.00,0.0000
1859.00,0.0001
1858.00,0.0002
1857.00,0.0003
1856.00,0.0003
1855.00,0.0003
1854.00,0.0003
1853.00,0.0003
1852.00,0.0003
1851.00,0.0003
1850.00,0.0003
1849.00,0.0003
1848.00,0.0003
1847.00,0.0003
1846.00,0.0002
1845.00,0.0001
1844.00,0.0002
1843.00,0.0002
1842.00,0.0003
1841.00,0.0003
1840.00,0.0003
1839.00,0.0003
1838.00,0.0003
1837.00,0.0003
1836.00,0.0003
1835.00,0.0003
1834.00,0.0003
1833.00,0.0003
1832.00,0.0003
1831.00,0.0004
1830.00,0.0004
1829.00,0.0005
1828.00,0.0005
1827.00,0.0005
1826.00,0.0004
1825.00,0.0004
1824.00,0.0004
1823.00,0.0004
1822.00,0.0003
1821.00,0.0002
1820.00,0.0002
1819.00,0.0001
1818.00,-0.0000
1817.00,-0.0000
1816.00,0.0000
1815.00,0.0001
1814.00,0.0002
1813.00,0.0002
1812.00,0.0002
1811.00,0.0003
1810.00,0.0003
1809.00,0.0004
1808.00,0.0004
1807.00,0.0004
1806.00,0.0005
1805.00,0.0005
1804.00,0.0006
1803.00,0.0007
1802.00,0.0007
1801.00,0.0006
1800.00,0.0006
1799.00,0.0006
1798.00,0.0006
1797.00,0.0005
1796.00,0.0006
1795.00,0.0006
1794.00,0.0006
1793.00,0.0006
1792.00,0.0007
1791.00,0.0007
1790.00,0.0007
1789.00,0.0007
1788.00,0.0008
1787.00,0.0008
1786.00,0.0008
1785.00,0.0009
1784.00,0.0009
1783.00,0.0009
1782.00,0.0009
1781.00,0.0009
1780.00,0.0009
1779.00,0.0009
1778.00,0.0008
1777.00,0.0008
1776.00,0.0008
1775.00,0.0008
1774.00,0.0008
1773.00,0.0008
1772.00,0.0009
1771.00,0.0010
1770.00,0.0010
1769.00,0.0011
1768.00,0.0011
1767.00,0.0011
1766.00,0.0011
1765.00,0.0011
1764.00,0.0012
1763.00,0.0012
1762.00,0.0012
1761.00,0.0013
1760.00,0.0013
1759.00,0.0013
1758.00,0.0014
1757.00,0.0015
1756.00,0.0016
1755.00,0.0017
1754.00,0.0017
1753.00,0.0018
1752.00,0.0018
1751.00,0.0019
1750.00,0.0019
1749.00,0.0020
1748.00,0.0020
1747.00,0.0020
1746.00,0.0020
1745.00,0.0021
1744.00,0.0021
1743.00,0.0022
1742.00,0.0022
1741.00,0.0022
1740.00,0.0023
1739.00,0.0023
1738.00,0.0023
1737.00,0.0023
1736.00,0.0022
1735.00,0.0021
1734.00,0.0020
1733.00,0.0021
1732.00,0.0021
1731.00,0.0022
1730.00,0.0022
1729.00,0.0022
1728.00,0.0023
1727.00,0.0023
1726.00,0.0022
1725.00,0.0022
1724.00,0.0022
1723.00,0.0022
1722.00,0.0021
1721.00,0.0022
1720.00,0.0022
1719.00,0.0022
1718.00,0.0022
1717.00,0.0022
1716.00,0.0023
1715.00,0.0023
1714.00,0.0023
1713.00,0.0022
1712.00,0.0022
1711.00,0.0022
1710.00,0.0022
1709.00,0.0023
1708.00,0.0023
1707.00,0.0024
1706.00,0.0025
1705.00,0.0025
1704.00,0.0026
1703.00,0.0027
1702.00,0.0027
1701.00,0.0027
1700.00,0.0028
1699.00,0.0029
1698.00,0.0029
1697.00,0.0030
1696.00,0.0030
1695.00,0.0031
1694.00,0.0031
1693.00,0.0032
1692.00,0.0033
1691.00,0.0033
1690.00,0.0033
1689.00,0.0034
1688.00,0.0035
1687.00,0.0036
1686.00,0.0037
1685.00,0.0038
1684.00,0.0039
1683.00,0.0041
1682.00,0.0041
1681.00,0.0042
1680.00,0.0042
1679.00,0.0043
1678.00,0.0043
1677.00,0.0044
1676.00,0.0045
1675.00,0.0046
1674.00,0.0046
1673.00,0.0046
1672.00,0.0046
1671.00,0.0046
1670.00,0.0047
1669.00,0.0048
1668.00,0.0049
1667.00,0.0049
1666.00,0.0049
1665.00,0.0050
1664.00,0.0050
1663.00,0.0051
1662.00,0.0051
1661.00,0.0052
1660.00,0.0052
1659.00,0.0053
1658.00,0.0054
1657.00,0.0055
1656.00,0.0056
1655.00,0.0056
1654.00,0.0056
1653.00,0.0057
1652.00,0.0059
1651.00,0.0060
1650.00,0.0061
1649.00,0.0062
1648.00,0.0064
1647.00,0.0065
1646.00,0.0064
1645.00,0.0064
1644.00,0.0063
1643.00,0.0062
1642.00,0.0062
1641.00,0.0061
1640.00,0.0061
1639.00,0.0062
1638.00,0.0062
1637.00,0.0061
1636.00,0.0061
1635.00,0.0061
1634.00,0.0062
1633.00,0.0062
1632.00,0.0063
1631.00,0.0063
1630.00,0.0063
1629.00,0.0063
1628.00,0.0063
1627.00,0.0063
1626.00,0.0062
1625.00,0.0061
1624.00,0.0061
1623.00,0.0059
1622.00,0.0059
1621.00,0.0058
1620.00,0.0059
1619.00,0.0059
1618.00,0.0059
1617.00,0.0058
1616.00,0.0058
1615.00,0.0058
1614.00,0.0058
1613.00,0.0057
1612.00,0.0057
1611.00,0.0057
1610.00,0.0057
1609.00,0.0057
1608.00,0.0057
1607.00,0.0057
1606.00,0.0057
1605.00,0.0057
1604.00,0.0057
1603.00,0.0057
1602.00,0.0057
1601.00,0.0058
1600.00,0.0058
1599.00,0.0058
1598.00,0.0058
1597.00,0.0059
1596.00,0.0059
1595.00,0.0059
1594.00,0.0059
1593.00,0.0060
1592.00,0.0061
1591.00,0.0063
1590.00,0.0064
1589.00,0.0067
1588.00,0.0069
1587.00,0.0072
1586.00,0.0075
1585.00,0.0079
1584.00,0.0084
1583.00,0.0090
1582.00,0.0096
1581.00,0.0101
1580.00,0.0106
1579.00,0.0110
1578.00,0.0111
1577.00,0.0112
1576.00,0.0110
1575.00,0.0108
1574.00,0.0105
1573.00,0.0102
1572.00,0.0099
1571.00,0.0095
1570.00,0.0090
1569.00,0.0084
1568.00,0.0080
1567.00,0.0078
1566.00,0.0075
1565.00,0.0074
1564.00,0.0072
1563.00,0.0072
1562.00,0.0073
1561.00,0.0073
1560.00,0.0074
1559.00,0.0073
1558.00,0.0072
1557.00,0.0072
1556.00,0.0072
1555.00,0.0073
1554.00,0.0074
1553.00,0.0076
1552.00,0.0078
1551.00,0.0080
1550.00,0.0083
1549.00,0.0088
1548.00,0.0092
1547.00,0.0096
1546.00,0.0101
1545.00,0.0107
1544.00,0.0113
1543.00,0.0119
1542.00,0.0123
1541.00,0.0124
1540.00,0.0123
1539.00,0.0118
1538.00,0.0112
1537.00,0.0107
1536.00,0.0102
1535.00,0.0096
1534.00,0.0089
1533.00,0.0082
1532.00,0.0078
1531.00,0.0075
1530.00,0.0073
1529.00,0.0071
1528.00,0.0070
1527.00,0.0069
1526.00,0.0067
1525.00,0.0066
1524.00,0.0065
1523.00,0.0065
1522.00,0.0065
1521.00,0.0065
1520.00,0.0066
1519.00,0.0066
1518.00,0.0065
1517.00,0.0065
1516.00,0.0066
1515.00,0.0066
1514.00,0.0065
1513.00,0.0066
1512.00,0.0067
1511.00,0.0067
1510.00,0.0067
1509.00,0.0068
1508.00,0.0069
1507.00,0.0069
1506.00,0.0070
1505.00,0.0071
1504.00,0.0073
1503.00,0.0074
1502.00,0.0075
1501.00,0.0077
1500.00,0.0079
1499.00,0.0081
1498.00,0.0083
1497.00,0.0087
1496.00,0.0091
1495.00,0.0094
1494.00,0.0096
1493.00,0.0099
1492.00,0.0103
1491.00,0.0107
1490.00,0.0112
1489.00,0.0119
1488.00,0.0126
1487.00,0.0133
1486.00,0.0139
1485.00,0.0148
1484.00,0.0157
1483.00,0.0167
1482.00,0.0180
1481.00,0.0194
1480.00,0.0210
1479.00,0.0225
1478.00,0.0242
1477.00,0.0264
1476.00,0.0290
1475.00,0.0319
1474.00,0.0358
1473.00,0.0415
1472.00,0.0483
1471.00,0.0548
1470.00,0.0610
1469.00,0.0674
1468.00,0.0744
1467.00,0.0821
1466.00,0.0909
1465.00,0.1004
1464.00,0.1086
1463.00,0.1142
1462.00,0.1175
1461.00,0.1198
1460.00,0.1212
1459.00,0.1221
1458.00,0.1227
1457.00,0.1230
1456.00,0.1226
1455.00,0.1215
1454.00,0.1201
1453.00,0.1181
1452.00,0.1152
1451.00,0.1113
1450.00,0.1061
1449.00,0.0991
1448.00,0.0902
1447.00,0.0808
1446.00,0.0724
1445.00,0.0652
1444.00,0.0591
1443.00,0.0541
1442.00,0.0503
1441.00,0.0477
1440.00,0.0461
1439.00,0.0455
1438.00,0.0457
1437.00,0.0460
1436.00,0.0452
1435.00,0.0429
1434.00,0.0394
1433.00,0.0351
1432.00,0.0306
1431.00,0.0265
1430.00,0.0234
1429.00,0.0211
1428.00,0.0195
1427.00,0.0186
1426.00,0.0181
1425.00,0.0175
1424.00,0.0170
1423.00,0.0167
1422.00,0.0165
1421.00,0.0162
1420.00,0.0158
1419.00,0.0154
1418.00,0.0150
1417.00,0.0145
1416.00,0.0142
1415.00,0.0140
1414.00,0.0139
1413.00,0.0137
1412.00,0.0134
1411.00,0.0132
1410.00,0.0131
1409.00,0.0130
1408.00,0.0128
1407.00,0.0127
1406.00,0.0127
1405.00,0.0126
1404.00,0.0124
1403.00,0.0125
1402.00,0.0126
1401.00,0.0127
1400.00,0.0127
1399.00,0.0128
1398.00,0.0130
1397.00,0.0131
1396.00,0.0132
1395.00,0.0136
1394.00,0.0141
1393.00,0.0146
1392.00,0.0151
1391.00,0.0159
1390.00,0.0169
1389.00,0.0182
1388.00,0.0202
1387.00,0.0233
1386.00,0.0276
1385.00,0.0332
1384.00,0.0409
1383.00,0.0518
1382.00,0.0665
1381.00,0.0855
1380.00,0.1094
1379.00,0.1374
1378.00,0.1653
1377.00,0.1869
1376.00,0.1954
1375.00,0.1868
1374.00,0.1635
1373.00,0.1347
1372.00,0.1082
1371.00,0.0864
1370.00,0.0691
1369.00,0.0561
1368.00,0.0472
1367.00,0.0418
1366.00,0.0389
1365.00,0.0377
1364.00,0.0379
1363.00,0.0393
1362.00,0.0415
1361.00,0.0438
1360.00,0.0456
1359.00,0.0461
1358.00,0.0450
1357.00,0.0424
1356.00,0.0387
1355.00,0.0346
1354.00,0.0306
1353.00,0.0272
1352.00,0.0245
1351.00,0.0224
1350.00,0.0205
1349.00,0.0190
1348.00,0.0178
1347.00,0.0167
1346.00,0.0158
1345.00,0.0151
1344.00,0.0145
1343.00,0.0140
1342.00,0.0136
1341.00,0.0133
1340.00,0.0130
1339.00,0.0127
1338.00,0.0126
1337.00,0.0126
1336.00,0.0126
1335.00,0.0128
1334.00,0.0131
1333.00,0.0135
1332.00,0.0139
1331.00,0.0142
1330.00,0.0143
1329.00,0.0141
1328.00,0.0138
1327.00,0.0134
1326.00,0.0128
1325.00,0.0122
1324.00,0.0117
1323.00,0.0112
1322.00,0.0108
1321.00,0.0105
1320.00,0.0103
1319.00,0.0101
1318.00,0.0099
1317.00,0.0097
1316.00,0.0096
1315.00,0.0095
1314.00,0.0094
1313.00,0.0094
1312.00,0.0095
1311.00,0.0097
1310.00,0.0101
1309.00,0.0107
1308.00,0.0116
1307.00,0.0127
1306.00,0.0138
1305.00,0.0145
1304.00,0.0148
1303.00,0.0145
1302.00,0.0141
1301.00,0.0136
1300.00,0.0134
1299.00,0.0133
1298.00,0.0133
1297.00,0.0133
1296.00,0.0132
1295.00,0.0129
1294.00,0.0125
1293.00,0.0121
1292.00,0.0116
1291.00,0.0112
1290.00,0.0107
1289.00,0.0103
1288.00,0.0100
1287.00,0.0097
1286.00,0.0095
1285.00,0.0093
1284.00,0.0092
1283.00,0.0091
1282.00,0.0089
1281.00,0.0088
1280.00,0.0086
1279.00,0.0085
1278.00,0.0084
1277.00,0.0084
1276.00,0.0083
1275.00,0.0083
1274.00,0.0082
1273.00,0.0082
1272.00,0.0083
1271.00,0.0084
1270.00,0.0084
1269.00,0.0086
1268.00,0.0088
1267.00,0.0090
1266.00,0.0093
1265.00,0.0095
1264.00,0.0098
1263.00,0.0101
1262.00,0.0104
1261.00,0.0109
1260.00,0.0114
1259.00,0.0121
1258.00,0.0128
1257.00,0.0133
1256.00,0.0136
1255.00,0.0134
1254.00,0.0129
1253.00,0.0120
1252.00,0.0112
1251.00,0.0104
1250.00,0.0099
1249.00,0.0095
1248.00,0.0092
1247.00,0.0090
1246.00,0.0089
1245.00,0.0087
1244.00,0.0086
1243.00,0.0085
1242.00,0.0084
1241.00,0.0084
1240.00,0.0083
1239.00,0.0083
1238.00,0.0084
1237.00,0.0084
1236.00,0.0084
1235.00,0.0084
1234.00,0.0085
1233.00,0.0086
1232.00,0.0086
1231.00,0.0086
1230.00,0.0087
1229.00,0.0088
1228.00,0.0091
1227.00,0.0093
1226.00,0.0096
1225.00,0.0098
1224.00,0.0101
1223.00,0.0104
1222.00,0.0107
1221.00,0.0110
1220.00,0.0111
1219.00,0.0112
1218.00,0.0111
1217.00,0.0109
1216.00,0.0107
1215.00,0.0104
1214.00,0.0101
1213.00,0.0098
1212.00,0.0095
1211.00,0.0093
1210.00,0.0092
1209.00,0.0091
1208.00,0.0089
1207.00,0.0089
1206.00,0.0088
1205.00,0.0088
1204.00,0.0087
1203.00,0.0086
1202.00,0.0085
1201.00,0.0085
1200.00,0.0085
1199.00,0.0086
1198.00,0.0086
1197.00,0.0086
1196.00,0.0086
1195.00,0.0086
1194.00,0.0086
1193.00,0.0086
1192.00,0.0086
1191.00,0.0087
1190.00,0.0088
1189.00,0.0088
1188.00,0.0088
1187.00,0.0088
1186.00,0.0088
1185.00,0.0089
1184.00,0.0090
1183.00,0.0091
1182.00,0.0093
1181.00,0.0096
1180.00,0.0099
1179.00,0.0103
1178.00,0.0109
1177.00,0.0117
1176.00,0.0127
1175.00,0.0141
1174.00,0.0159
1173.00,0.0183
1172.00,0.0212
1171.00,0.0244
1170.00,0.0275
1169.00,0.0300
1168.00,0.0314
1167.00,0.0316
1166.00,0.0307
1165.00,0.0293
1164.00,0.0275
1163.00,0.0259
1162.00,0.0244
1161.00,0.0232
1160.00,0.0223
1159.00,0.0216
1158.00,0.0211
1157.00,0.0207
1156.00,0.0205
1155.00,0.0203
1154.00,0.0201
1153.00,0.0199
1152.00,0.0194
1151.00,0.0187
1150.00,0.0178
1149.00,0.0168
1148.00,0.0158
1147.00,0.0149
1146.00,0.0141
1145.00,0.0133
1144.00,0.0126
1143.00,0.0120
1142.00,0.0114
1141.00,0.0108
1140.00,0.0103
1139.00,0.0099
1138.00,0.0095
1137.00,0.0092
1136.00,0.0089
1135.00,0.0087
1134.00,0.0086
1133.00,0.0086
1132.00,0.0086
1131.00,0.0085
1130.00,0.0085
1129.00,0.0085
1128.00,0.0085
1127.00,0.0086
1126.00,0.0086
1125.00,0.0086
1124.00,0.0087
1123.00,0.0087
1122.00,0.0088
1121.00,0.0089
1120.00,0.0090
1119.00,0.0090
1118.00,0.0091
1117.00,0.0092
1116.00,0.0093
1115.00,0.0095
1114.00,0.0096
1113.00,0.0098
1112.00,0.0100
1111.00,0.0103
1110.00,0.0106
1109.00,0.0109
1108.00,0.0113
1107.00,0.0118
1106.00,0.0124
1105.00,0.0131
1104.00,0.0136
1103.00,0.0139
1102.00,0.0138
1101.00,0.0134
1100.00,0.0129
1099.00,0.0123
1098.00,0.0117
1097.00,0.0111
1096.00,0.0106
1095.00,0.0102
1094.00,0.0098
1093.00,0.0095
1092.00,0.0093
1091.00,0.0092
1090.00,0.0091
1089.00,0.0090
1088.00,0.0089
1087.00,0.0088
1086.00,0.0087
1085.00,0.0086
1084.00,0.0086
1083.00,0.0085
1082.00,0.0084
1081.00,0.0083
1080.00,0.0082
1079.00,0.0080
1078.00,0.0079
1077.00,0.0078
1076.00,0.0078
1075.00,0.0078
1074.00,0.0078
1073.00,0.0078
1072.00,0.0077
1071.00,0.0077
1070.00,0.0076
1069.00,0.0076
1068.00,0.0076
1067.00,0.0075
1066.00,0.0075
1065.00,0.0075
1064.00,0.0075
1063.00,0.0076
1062.00,0.0076
1061.00,0.0076
1060.00,0.0076
1059.00,0.0077
1058.00,0.0077
1057.00,0.0078
1056.00,0.0079
1055.00,0.0080
1054.00,0.0081
1053.00,0.0082
1052.00,0.0084
1051.00,0.0086
1050.00,0.0088
1049.00,0.0092
1048.00,0.0096
1047.00,0.0100
1046.00,0.0102
1045.00,0.0104
1044.00,0.0104
1043.00,0.0102
1042.00,0.0100
1041.00,0.0098
1040.00,0.0097
1039.00,0.0097
1038.00,0.0099
1037.00,0.0100
1036.00,0.0101
1035.00,0.0100
1034.00,0.0098
1033.00,0.0095
1032.00,0.0092
1031.00,0.0088
1030.00,0.0086
1029.00,0.0085
1028.00,0.0085
1027.00,0.0085
1026.00,0.0085
1025.00,0.0085
1024.00,0.0085
1023.00,0.0085
1022.00,0.0087
1021.00,0.0088
1020.00,0.0090
1019.00,0.0091
1018.00,0.0093
1017.00,0.0095
1016.00,0.0097
1015.00,0.0099
1014.00,0.0102
1013.00,0.0105
1012.00,0.0108
1011.00,0.0111
1010.00,0.0114
1009.00,0.0116
1008.00,0.0120
1007.00,0.0125
1006.00,0.0132
1005.00,0.0143
1004.00,0.0159
1003.00,0.0181
1002.00,0.0210
1001.00,0.0246
1000.00,0.0284
999.00,0.0316
998.00,0.0331
997.00,0.0324
996.00,0.0298
995.00,0.0260
994.00,0.0220
993.00,0.0185
992.00,0.0159
991.00,0.0140
990.00,0.0128
989.00,0.0120
988.00,0.0114
987.00,0.0111
986.00,0.0110
985.00,0.0112
984.00,0.0116
983.00,0.0123
982.00,0.0133
981.00,0.0149
980.00,0.0172
979.00,0.0201
978.00,0.0238
977.00,0.0279
976.00,0.0323
975.00,0.0363
974.00,0.0391
973.00,0.0399
972.00,0.0383
971.00,0.0344
970.00,0.0294
969.00,0.0244
968.00,0.0202
967.00,0.0171
966.00,0.0149
965.00,0.0133
964.00,0.0122
963.00,0.0113
962.00,0.0106
961.00,0.0101
960.00,0.0097
959.00,0.0092
958.00,0.0088
957.00,0.0085
956.00,0.0082
955.00,0.0080
954.00,0.0079
953.00,0.0078
952.00,0.0077
951.00,0.0077
950.00,0.0076
949.00,0.0075
948.00,0.0075
947.00,0.0075
946.00,0.0076
945.00,0.0078
944.00,0.0082
943.00,0.0086
942.00,0.0089
941.00,0.0091
940.00,0.0090
939.00,0.0088
938.00,0.0083
937.00,0.0078
936.00,0.0074
935.00,0.0070
934.00,0.0067
933.00,0.0065
932.00,0.0064
931.00,0.0062
930.00,0.0062
929.00,0.0061
928.00,0.0060
927.00,0.0059
926.00,0.0059
925.00,0.0059
924.00,0.0059
923.00,0.0060
922.00,0.0060
921.00,0.0061
920.00,0.0062
919.00,0.0062
918.00,0.0062
917.00,0.0063
916.00,0.0064
915.00,0.0065
914.00,0.0066
913.00,0.0066
912.00,0.0067
911.00,0.0068
910.00,0.0069
909.00,0.0071
908.00,0.0075
907.00,0.0080
906.00,0.0087
905.00,0.0098
904.00,0.0113
903.00,0.0131
902.00,0.0151
901.00,0.0169
900.00,0.0180
899.00,0.0182
898.00,0.0174
897.00,0.0158
896.00,0.0139
895.00,0.0120
894.00,0.0106
893.00,0.0095
892.00,0.0088
891.00,0.0083
890.00,0.0079
889.00,0.0077
888.00,0.0076
887.00,0.0076
886.00,0.0075
885.00,0.0074
884.00,0.0073
883.00,0.0073
882.00,0.0074
881.00,0.0075
880.00,0.0077
879.00,0.0078
878.00,0.0080
877.00,0.0081
876.00,0.0082
875.00,0.0081
874.00,0.0080
873.00,0.0080
872.00,0.0080
871.00,0.0080
870.00,0.0080
869.00,0.0079
868.00,0.0079
867.00,0.0079
866.00,0.0079
865.00,0.0081
864.00,0.0082
863.00,0.0083
862.00,0.0085
861.00,0.0086
860.00,0.0086
859.00,0.0087
858.00,0.0087
857.00,0.0088
856.00,0.0089
855.00,0.0091
854.00,0.0093
853.00,0.0096
852.00,0.0100
851.00,0.0104
850.00,0.0108
849.00,0.0113
848.00,0.0122
847.00,0.0135
846.00,0.0155
845.00,0.0185
844.00,0.0226
843.00,0.0273
842.00,0.0310
841.00,0.0318
840.00,0.0294
839.00,0.0249
838.00,0.0202
837.00,0.0166
836.00,0.0143
835.00,0.0130
834.00,0.0121
833.00,0.0116
832.00,0.0112
831.00,0.0109
830.00,0.0107
829.00,0.0105
828.00,0.0103
827.00,0.0101
826.00,0.0099
825.00,0.0097
824.00,0.0094
823.00,0.0094
822.00,0.0095
821.00,0.0098
820.00,0.0101
819.00,0.0105
818.00,0.0109
817.00,0.0114
816.00,0.0122
815.00,0.0133
814.00,0.0148
813.00,0.0167
812.00,0.0187
811.00,0.0206
810.00,0.0220
809.00,0.0226
808.00,0.0222
807.00,0.0210
806.00,0.0192
805.00,0.0174
804.00,0.0157
803.00,0.0143
802.00,0.0130
801.00,0.0120
800.00,0.0113
799.00,0.0108
798.00,0.0105
797.00,0.0102
796.00,0.0099
795.00,0.0095
794.00,0.0092
793.00,0.0090
792.00,0.0087
791.00,0.0085
790.00,0.0083
789.00,0.0080
788.00,0.0076
787.00,0.0073
786.00,0.0071
785.00,0.0068
784.00,0.0066
783.00,0.0063
782.00,0.0061
781.00,0.0060
780.00,0.0060
779.00,0.0061
778.00,0.0062
777.00,0.0062
776.00,0.0061
775.00,0.0059
774.00,0.0059
773.00,0.0060
772.00,0.0062
771.00,0.0063
770.00,0.0064
769.00,0.0063
768.00,0.0062
767.00,0.0063
766.00,0.0064
765.00,0.0065
764.00,0.0064
763.00,0.0063
762.00,0.0063
761.00,0.0063
760.00,0.0063
759.00,0.0064
758.00,0.0064
757.00,0.0065
756.00,0.0065
755.00,0.0066
754.00,0.0067
753.00,0.0068
752.00,0.0068
751.00,0.0068
750.00,0.0067
749.00,0.0067
748.00,0.0067
747.00,0.0067
746.00,0.0069
745.00,0.0072
744.00,0.0074
743.00,0.0076
742.00,0.0078
741.00,0.0079
740.00,0.0080
739.00,0.0081
738.00,0.0082
737.00,0.0084
736.00,0.0088
735.00,0.0093
734.00,0.0098
733.00,0.0105
732.00,0.0111
731.00,0.0117
730.00,0.0122
729.00,0.0125
728.00,0.0127
727.00,0.0128
726.00,0.0130
725.00,0.0134
724.00,0.0139
723.00,0.0147
722.00,0.0155
721.00,0.0160
720.00,0.0159
719.00,0.0152
718.00,0.0140
717.00,0.0126
716.00,0.0114
715.00,0.0103
714.00,0.0095
713.00,0.0090
712.00,0.0088
711.00,0.0085
710.00,0.0083
709.00,0.0080
708.00,0.0077
707.00,0.0076
706.00,0.0076
705.00,0.0076
704.00,0.0076
703.00,0.0076
702.00,0.0074
701.00,0.0073
700.00,0.0071
699.00,0.0070
698.00,0.0069
697.00,0.0068
696.00,0.0067
695.00,0.0067
694.00,0.0068
693.00,0.0068
692.00,0.0069
691.00,0.0069
690.00,0.0068
689.00,0.0067
688.00,0.0066
687.00,0.0066
686.00,0.0067
685.00,0.0067
684.00,0.0067
683.00,0.0067
682.00,0.0065
681.00,0.0063
680.00,0.0061
679.00,0.0061
678.00,0.0063
677.00,0.0065
676.00,0.0067
675.00,0.0066
674.00,0.0064
673.00,0.0062
672.00,0.0061
671.00,0.0064
670.00,0.0068
669.00,0.0073
668.00,0.0076
667.00,0.0075
666.00,0.0071
665.00,0.0066
664.00,0.0063
663.00,0.0061
662.00,0.0061
661.00,0.0063
660.00,0.0065
659.00,0.0066
658.00,0.0065
657.00,0.0062
656.00,0.0061
655.00,0.0061
654.00,0.0061
653.00,0.0061
652.00,0.0060
651.00,0.0059
650.00,0.0058
649.00,0.0058
648.00,0.0059
647.00,0.0062
646.00,0.0065
645.00,0.0067
644.00,0.0068
643.00,0.0067
642.00,0.0066
641.00,0.0065
640.00,0.0066
639.00,0.0067
638.00,0.0069
637.00,0.0069
636.00,0.0068
635.00,0.0066
634.00,0.0064
633.00,0.0063
632.00,0.0062
631.00,0.0061
630.00,0.0060
629.00,0.0060
628.00,0.0060
627.00,0.0061
626.00,0.0063
625.00,0.0064
624.00,0.0063
623.00,0.0062
622.00,0.0061
621.00,0.0061
620.00,0.0061
619.00,0.0062
618.00,0.0062
617.00,0.0062
616.00,0.0062
615.00,0.0061
614.00,0.0060
613.00,0.0059
612.00,0.0059
611.00,0.0062
610.00,0.0067
609.00,0.0071
608.00,0.0072
607.00,0.0070
606.00,0.0066
605.00,0.0065
604.00,0.0067
603.00,0.0068
602.00,0.0068
601.00,0.0067
600.00,0.0066
599.00,0.0066
598.00,0.0067
597.00,0.0067
596.00,0.0066
595.00,0.0066
594.00,0.0068
593.00,0.0070
592.00,0.0071
591.00,0.0071
590.00,0.0071
589.00,0.0071
588.00,0.0070
587.00,0.0066
586.00,0.0063
585.00,0.0061
584.00,0.0062
583.00,0.0065
582.00,0.0067
581.00,0.0069
580.00,0.0069
579.00,0.0069
578.00,0.0068
577.00,0.0068
576.00,0.0070
575.00,0.0073
574.00,0.0076
573.00,0.0079
572.00,0.0079
571.00,0.0078
570.00,0.0075
569.00,0.0072
568.00,0.0069
567.00,0.0068
566.00,0.0069
565.00,0.0071
564.00,0.0073
563.00,0.0074
562.00,0.0076
561.00,0.0076
560.00,0.0075
559.00,0.0072
558.00,0.0069
557.00,0.0067
556.00,0.0065
555.00,0.0065
554.00,0.0065
553.00,0.0065
552.00,0.0064
551.00,0.0063
550.00,0.0065
549.00,0.0068
548.00,0.0071
547.00,0.0074
546.00,0.0075
545.00,0.0076
544.00,0.0075
543.00,0.0071
542.00,0.0067
541.00,0.0064
540.00,0.0065
539.00,0.0070
538.00,0.0077
537.00,0.0084
536.00,0.0090
535.00,0.0094
534.00,0.0096
533.00,0.0097
532.00,0.0096
531.00,0.0093
530.00,0.0091
529.00,0.0092
528.00,0.0095
527.00,0.0101
526.00,0.0104
525.00,0.0103
524.00,0.0099
523.00,0.0092
522.00,0.0085
521.00,0.0078
520.00,0.0075
519.00,0.0076
518.00,0.0078
517.00,0.0080
516.00,0.0081
515.00,0.0081
514.00,0.0081
513.00,0.0080
512.00,0.0078
511.00,0.0078
510.00,0.0081
509.00,0.0086
508.00,0.0087
507.00,0.0083
506.00,0.0076
505.00,0.0070
504.00,0.0068
503.00,0.0071
502.00,0.0074
501.00,0.0077
500.00,0.0077
499.00,0.0078
498.00,0.0081
497.00,0.0083
496.00,0.0085
495.00,0.0083
494.00,0.0080
493.00,0.0076
492.00,0.0074
491.00,0.0075
490.00,0.0077
489.00,0.0079
488.00,0.0076
487.00,0.0071
486.00,0.0066
485.00,0.0059
484.00,0.0050
483.00,0.0042
482.00,0.0043
481.00,0.0054
480.00,0.0069
479.00,0.0081
478.00,0.0088
477.00,0.0091
476.00,0.0093
475.00,0.0097
474.00,0.0104
473.00,0.0111
472.00,0.0113
471.00,0.0108
470.00,0.0101
469.00,0.0099
468.00,0.0101
467.00,0.0105
466.00,0.0107
465.00,0.0109
464.00,0.0115
463.00,0.0124
462.00,0.0135
461.00,0.0145
460.00,0.0151
459.00,0.0152
458.00,0.0149
457.00,0.0145
456.00,0.0145
455.00,0.0147
454.00,0.0148
453.00,0.0147
452.00,0.0142
451.00,0.0135
450.00,0.0128
