Created as New Dataset,Sample 122 By Administrator Date Friday, September 05 2025
cm-1,A
4000.00,0.0010
3999.00,0.0010
3998.00,0.0010
3997.00,0.0010
3996.00,0.0010
3995.00,0.0010
3994.00,0.0010
3993.00,0.0010
3992.00,0.0010
3991.00,0.0010
3990.00,0.0010
3989.00,0.0010
3988.00,0.0010
3987.00,0.0010
3986.00,0.0010
3985.00,0.0009
3984.00,0.0009
3983.00,0.0009
3982.00,0.0009
3981.00,0.0008
3980.00,0.0008
3979.00,0.0009
3978.00,0.0008
3977.00,0.0008
3976.00,0.0008
3975.00,0.0008
3974.00,0.0007
3973.00,0.0007
3972.00,0.0007
3971.00,0.0007
3970.00,0.0007
3969.00,0.0008
3968.00,0.0008
3967.00,0.0007
3966.00,0.0007
3965.00,0.0007
3964.00,0.0007
3963.00,0.0007
3962.00,0.0007
3961.00,0.0007
3960.00,0.0007
3959.00,0.0007
3958.00,0.0007
3957.00,0.0008
3956.00,0.0008
3955.00,0.0007
3954.00,0.0007
3953.00,0.0007
3952.00,0.0007
3951.00,0.0007
3950.00,0.0007
3949.00,0.0007
3948.00,0.0007
3947.00,0.0007
3946.00,0.0007
3945.00,0.0007
3944.00,0.0008
3943.00,0.0008
3942.00,0.0008
3941.00,0.0008
3940.00,0.0008
3939.00,0.0008
3938.00,0.0008
3937.00,0.0008
3936.00,0.0008
3935.00,0.0007
3934.00,0.0007
3933.00,0.0007
3932.00,0.0007
3931.00,0.0007
3930.00,0.0007
3929.00,0.0008
3928.00,0.0008
3927.00,0.0008
3926.00,0.0009
3925.00,0.0009
3924.00,0.0009
3923.00,0.0009
3922.00,0.0009
3921.00,0.0008
3920.00,0.0008
3919.00,0.0008
3918.00,0.0008
3917.00,0.0009
3916.00,0.0009
3915.00,0.0009
3914.00,0.0009
3913.00,0.0009
3912.00,0.0009
3911.00,0.0008
3910.00,0.0008
3909.00,0.0007
3908.00,0.0007
3907.00,0.0007
3906.00,0.0006
3905.00,0.0006
3904.00,0.0006
3903.00,0.0006
3902.00,0.0006
3901.00,0.0007
3900.00,0.0007
3899.00,0.0007
3898.00,0.0007
3897.00,0.0007
3896.00,0.0008
3895.00,0.0008
3894.00,0.0007
3893.00,0.0007
3892.00,0.0007
3891.00,0.0007
3890.00,0.0007
3889.00,0.0007
3888.00,0.0007
3887.00,0.0007
3886.00,0.0007
3885.00,0.0007
3884.00,0.0007
3883.00,0.0007
3882.00,0.0008
3881.00,0.0008
3880.00,0.0008
3879.00,0.0008
3878.00,0.0007
3877.00,0.0007
3876.00,0.0007
3875.00,0.0007
3874.00,0.0007
3873.00,0.0006
3872.00,0.0006
3871.00,0.0006
3870.00,0.0006
3869.00,0.0006
3868.00,0.0006
3867.00,0.0006
3866.00,0.0006
3865.00,0.0007
3864.00,0.0007
3863.00,0.0008
3862.00,0.0008
3861.00,0.0007
3860.00,0.0007
3859.00,0.0007
3858.00,0.0007
3857.00,0.0006
3856.00,0.0006
3855.00,0.0005
3854.00,0.0005
3853.00,0.0005
3852.00,0.0005
3851.00,0.0005
3850.00,0.0006
3849.00,0.0006
3848.00,0.0006
3847.00,0.0006
3846.00,0.0006
3845.00,0.0006
3844.00,0.0007
3843.00,0.0007
3842.00,0.0007
3841.00,0.0007
3840.00,0.0006
3839.00,0.0006
3838.00,0.0006
3837.00,0.0005
3836.00,0.0005
3835.00,0.0006
3834.00,0.0006
3833.00,0.0006
3832.00,0.0006
3831.00,0.0006
3830.00,0.0006
3829.00,0.0006
3828.00,0.0006
3827.00,0.0006
3826.00,0.0006
3825.00,0.0005
3824.00,0.0005
3823.00,0.0005
3822.00,0.0005
3821.00,0.0005
3820.00,0.0005
3819.00,0.0006
3818.00,0.0006
3817.00,0.0007
3816.00,0.0007
3815.00,0.0007
3814.00,0.0007
3813.00,0.0007
3812.00,0.0006
3811.00,0.0006
3810.00,0.0006
3809.00,0.0006
3808.00,0.0006
3807.00,0.0006
3806.00,0.0006
3805.00,0.0005
3804.00,0.0005
3803.00,0.0005
3802.00,0.0005
3801.00,0.0005
3800.00,0.0006
3799.00,0.0006
3798.00,0.0006
3797.00,0.0007
3796.00,0.0007
3795.00,0.0007
3794.00,0.0007
3793.00,0.0007
3792.00,0.0007
3791.00,0.0007
3790.00,0.0008
3789.00,0.0008
3788.00,0.0008
3787.00,0.0008
3786.00,0.0008
3785.00,0.0008
3784.00,0.0008
3783.00,0.0008
3782.00,0.0008
3781.00,0.0008
3780.00,0.0008
3779.00,0.0008
3778.00,0.0008
3777.00,0.0008
3776.00,0.0008
3775.00,0.0008
3774.00,0.0007
3773.00,0.0007
3772.00,0.0006
3771.00,0.0006
3770.00,0.0007
3769.00,0.0007
3768.00,0.0007
3767.00,0.0007
3766.00,0.0007
3765.00,0.0007
3764.00,0.0007
3763.00,0.0007
3762.00,0.0008
3761.00,0.0008
3760.00,0.0008
3759.00,0.0008
3758.00,0.0007
3757.00,0.0007
3756.00,0.0006
3755.00,0.0006
3754.00,0.0005
3753.00,0.0005
3752.00,0.0004
3751.00,0.0004
3750.00,0.0004
3749.00,0.0003
3748.00,0.0003
3747.00,0.0003
3746.00,0.0003
3745.00,0.0003
3744.00,0.0004
3743.00,0.0004
3742.00,0.0005
3741.00,0.0005
3740.00,0.0005
3739.00,0.0005
3738.00,0.0004
3737.00,0.0004
3736.00,0.0004
3735.00,0.0004
3734.00,0.0005
3733.00,0.0005
3732.00,0.0005
3731.00,0.0006
3730.00,0.0005
3729.00,0.0005
3728.00,0.0006
3727.00,0.0006
3726.00,0.0006
3725.00,0.0006
3724.00,0.0005
3723.00,0.0006
3722.00,0.0006
3721.00,0.0006
3720.00,0.0006
3719.00,0.0006
3718.00,0.0005
3717.00,0.0005
3716.00,0.0005
3715.00,0.0005
3714.00,0.0004
3713.00,0.0004
3712.00,0.0004
3711.00,0.0004
3710.00,0.0004
3709.00,0.0004
3708.00,0.0004
3707.00,0.0005
3706.00,0.0005
3705.00,0.0005
3704.00,0.0005
3703.00,0.0005
3702.00,0.0005
3701.00,0.0004
3700.00,0.0004
3699.00,0.0005
3698.00,0.0005
3697.00,0.0006
3696.00,0.0006
3695.00,0.0006
3694.00,0.0006
3693.00,0.0006
3692.00,0.0005
3691.00,0.0005
3690.00,0.0005
3689.00,0.0005
3688.00,0.0005
3687.00,0.0005
3686.00,0.0005
3685.00,0.0005
3684.00,0.0005
3683.00,0.0005
3682.00,0.0005
3681.00,0.0006
3680.00,0.0006
3679.00,0.0005
3678.00,0.0005
3677.00,0.0004
3676.00,0.0004
3675.00,0.0004
3674.00,0.0003
3673.00,0.0003
3672.00,0.0003
3671.00,0.0003
3670.00,0.0003
3669.00,0.0003
3668.00,0.0004
3667.00,0.0004
3666.00,0.0004
3665.00,0.0005
3664.00,0.0005
3663.00,0.0005
3662.00,0.0005
3661.00,0.0005
3660.00,0.0004
3659.00,0.0004
3658.00,0.0004
3657.00,0.0004
3656.00,0.0004
3655.00,0.0004
3654.00,0.0004
3653.00,0.0003
3652.00,0.0003
3651.00,0.0002
3650.00,0.0003
3649.00,0.0004
3648.00,0.0004
3647.00,0.0005
3646.00,0.0005
3645.00,0.0005
3644.00,0.0005
3643.00,0.0006
3642.00,0.0006
3641.00,0.0007
3640.00,0.0007
3639.00,0.0007
3638.00,0.0006
3637.00,0.0006
3636.00,0.0006
3635.00,0.0005
3634.00,0.0005
3633.00,0.0005
3632.00,0.0004
3631.00,0.0004
3630.00,0.0004
3629.00,0.0004
3628.00,0.0004
3627.00,0.0004
3626.00,0.0004
3625.00,0.0004
3624.00,0.0004
3623.00,0.0005
3622.00,0.0005
3621.00,0.0005
3620.00,0.0005
3619.00,0.0005
3618.00,0.0005
3617.00,0.0004
3616.00,0.0004
3615.00,0.0005
3614.00,0.0005
3613.00,0.0005
3612.00,0.0005
3611.00,0.0005
3610.00,0.0006
3609.00,0.0006
3608.00,0.0007
3607.00,0.0006
3606.00,0.0006
3605.00,0.0006
3604.00,0.0006
3603.00,0.0006
3602.00,0.0006
3601.00,0.0006
3600.00,0.0006
3599.00,0.0006
3598.00,0.0006
3597.00,0.0006
3596.00,0.0006
3595.00,0.0006
3594.00,0.0006
3593.00,0.0006
3592.00,0.0006
3591.00,0.0007
3590.00,0.0007
3589.00,0.0008
3588.00,0.0009
3587.00,0.0009
3586.00,0.0008
3585.00,0.0008
3584.00,0.0008
3583.00,0.0008
3582.00,0.0007
3581.00,0.0007
3580.00,0.0007
3579.00,0.0007
3578.00,0.0007
3577.00,0.0007
3576.00,0.0008
3575.00,0.0008
3574.00,0.0008
3573.00,0.0009
3572.00,0.0009
3571.00,0.0009
3570.00,0.0010
3569.00,0.0010
3568.00,0.0010
3567.00,0.0010
3566.00,0.0010
3565.00,0.0010
3564.00,0.0010
3563.00,0.0010
3562.00,0.0010
3561.00,0.0010
3560.00,0.0010
3559.00,0.0010
3558.00,0.0010
3557.00,0.0010
3556.00,0.0011
3555.00,0.0011
3554.00,0.0012
3553.00,0.0012
3552.00,0.0012
3551.00,0.0012
3550.00,0.0011
3549.00,0.0011
3548.00,0.0011
3547.00,0.0011
3546.00,0.0011
3545.00,0.0012
3544.00,0.0012
3543.00,0.0012
3542.00,0.0012
3541.00,0.0013
3540.00,0.0013
3539.00,0.0013
3538.00,0.0013
3537.00,0.0013
3536.00,0.0013
3535.00,0.0013
3534.00,0.0014
3533.00,0.0014
3532.00,0.0014
3531.00,0.0015
3530.00,0.0015
3529.00,0.0015
3528.00,0.0015
3527.00,0.0014
3526.00,0.0014
3525.00,0.0014
3524.00,0.0015
3523.00,0.0015
3522.00,0.0015
3521.00,0.0016
3520.00,0.0016
3519.00,0.0016
3518.00,0.0016
3517.00,0.0016
3516.00,0.0016
3515.00,0.0016
3514.00,0.0016
3513.00,0.0016
3512.00,0.0016
3511.00,0.0016
3510.00,0.0017
3509.00,0.0017
3508.00,0.0017
3507.00,0.0017
3506.00,0.0017
3505.00,0.0017
3504.00,0.0017
3503.00,0.0017
3502.00,0.0018
3501.00,0.0017
3500.00,0.0018
3499.00,0.0018
3498.00,0.0018
3497.00,0.0018
3496.00,0.0018
3495.00,0.0017
3494.00,0.0017
3493.00,0.0017
3492.00,0.0018
3491.00,0.0018
3490.00,0.0018
3489.00,0.0018
3488.00,0.0019
3487.00,0.0019
3486.00,0.0019
3485.00,0.0019
3484.00,0.0019
3483.00,0.0020
3482.00,0.0020
3481.00,0.0020
3480.00,0.0020
3479.00,0.0019
3478.00,0.0019
3477.00,0.0019
3476.00,0.0019
3475.00,0.0020
3474.00,0.0020
3473.00,0.0020
3472.00,0.0020
3471.00,0.0021
3470.00,0.0021
3469.00,0.0021
3468.00,0.0021
3467.00,0.0021
3466.00,0.0021
3465.00,0.0021
3464.00,0.0022
3463.00,0.0022
3462.00,0.0022
3461.00,0.0022
3460.00,0.0023
3459.00,0.0022
3458.00,0.0022
3457.00,0.0022
3456.00,0.0021
3455.00,0.0021
3454.00,0.0022
3453.00,0.0022
3452.00,0.0022
3451.00,0.0022
3450.00,0.0022
3449.00,0.0023
3448.00,0.0023
3447.00,0.0023
3446.00,0.0023
3445.00,0.0024
3444.00,0.0024
3443.00,0.0025
3442.00,0.0025
3441.00,0.0025
3440.00,0.0025
3439.00,0.0025
3438.00,0.0025
3437.00,0.0025
3436.00,0.0025
3435.00,0.0026
3434.00,0.0026
3433.00,0.0026
3432.00,0.0026
3431.00,0.0026
3430.00,0.0026
3429.00,0.0027
3428.00,0.0027
3427.00,0.0027
3426.00,0.0027
3425.00,0.0026
3424.00,0.0026
3423.00,0.0026
3422.00,0.0026
3421.00,0.0026
3420.00,0.0026
3419.00,0.0027
3418.00,0.0027
3417.00,0.0027
3416.00,0.0028
3415.00,0.0028
3414.00,0.0028
3413.00,0.0028
3412.00,0.0028
3411.00,0.0028
3410.00,0.0028
3409.00,0.0028
3408.00,0.0028
3407.00,0.0028
3406.00,0.0028
3405.00,0.0028
3404.00,0.0028
3403.00,0.0029
3402.00,0.0029
3401.00,0.0029
3400.00,0.0029
3399.00,0.0029
3398.00,0.0029
3397.00,0.0029
3396.00,0.0030
3395.00,0.0030
3394.00,0.0029
3393.00,0.0029
3392.00,0.0029
3391.00,0.0029
3390.00,0.0029
3389.00,0.0029
3388.00,0.0029
3387.00,0.0029
3386.00,0.0029
3385.00,0.0029
3384.00,0.0029
3383.00,0.0029
3382.00,0.0029
3381.00,0.0029
3380.00,0.0029
3379.00,0.0029
3378.00,0.0029
3377.00,0.0029
3376.00,0.0029
3375.00,0.0028
3374.00,0.0028
3373.00,0.0028
3372.00,0.0028
3371.00,0.0028
3370.00,0.0029
3369.00,0.0029
3368.00,0.0029
3367.00,0.0030
3366.00,0.0030
3365.00,0.0030
3364.00,0.0030
3363.00,0.0030
3362.00,0.0030
3361.00,0.0029
3360.00,0.0029
3359.00,0.0030
3358.00,0.0030
3357.00,0.0030
3356.00,0.0030
3355.00,0.0030
3354.00,0.0029
3353.00,0.0029
3352.00,0.0029
3351.00,0.0030
3350.00,0.0030
3349.00,0.0030
3348.00,0.0030
3347.00,0.0030
3346.00,0.0030
3345.00,0.0030
3344.00,0.0030
3343.00,0.0030
3342.00,0.0030
3341.00,0.0030
3340.00,0.0030
3339.00,0.0030
3338.00,0.0030
3337.00,0.0030
3336.00,0.0030
3335.00,0.0030
3334.00,0.0030
3333.00,0.0030
3332.00,0.0029
3331.00,0.0029
3330.00,0.0029
3329.00,0.0029
3328.00,0.0029
3327.00,0.0029
3326.00,0.0029
3325.00,0.0029
3324.00,0.0029
3323.00,0.0029
3322.00,0.0028
3321.00,0.0028
3320.00,0.0028
3319.00,0.0028
3318.00,0.0028
3317.00,0.0028
3316.00,0.0028
3315.00,0.0028
3314.00,0.0028
3313.00,0.0028
3312.00,0.0028
3311.00,0.0028
3310.00,0.0028
3309.00,0.0028
3308.00,0.0028
3307.00,0.0028
3306.00,0.0028
3305.00,0.0028
3304.00,0.0028
3303.00,0.0028
3302.00,0.0028
3301.00,0.0028
3300.00,0.0028
3299.00,0.0028
3298.00,0.0028
3297.00,0.0028
3296.00,0.0028
3295.00,0.0028
3294.00,0.0028
3293.00,0.0028
3292.00,0.0028
3291.00,0.0028
3290.00,0.0027
3289.00,0.0027
3288.00,0.0027
3287.00,0.0027
3286.00,0.0027
3285.00,0.0027
3284.00,0.0027
3283.00,0.0027
3282.00,0.0027
3281.00,0.0027
3280.00,0.0028
3279.00,0.0028
3278.00,0.0027
3277.00,0.0027
3276.00,0.0027
3275.00,0.0027
3274.00,0.0027
3273.00,0.0027
3272.00,0.0027
3271.00,0.0027
3270.00,0.0027
3269.00,0.0027
3268.00,0.0027
3267.00,0.0027
3266.00,0.0027
3265.00,0.0026
3264.00,0.0026
3263.00,0.0026
3262.00,0.0026
3261.00,0.0026
3260.00,0.0026
3259.00,0.0026
3258.00,0.0026
3257.00,0.0026
3256.00,0.0026
3255.00,0.0026
3254.00,0.0025
3253.00,0.0025
3252.00,0.0025
3251.00,0.0025
3250.00,0.0025
3249.00,0.0025
3248.00,0.0025
3247.00,0.0025
3246.00,0.0025
3245.00,0.0025
3244.00,0.0025
3243.00,0.0025
3242.00,0.0025
3241.00,0.0025
3240.00,0.0025
3239.00,0.0025
3238.00,0.0024
3237.00,0.0024
3236.00,0.0024
3235.00,0.0024
3234.00,0.0025
3233.00,0.0025
3232.00,0.0025
3231.00,0.0026
3230.00,0.0026
3229.00,0.0027
3228.00,0.0027
3227.00,0.0028
3226.00,0.0028
3225.00,0.0027
3224.00,0.0027
3223.00,0.0027
3222.00,0.0027
3221.00,0.0027
3220.00,0.0027
3219.00,0.0028
3218.00,0.0028
3217.00,0.0029
3216.00,0.0029
3215.00,0.0029
3214.00,0.0030
3213.00,0.0030
3212.00,0.0031
3211.00,0.0032
3210.00,0.0032
3209.00,0.0032
3208.00,0.0031
3207.00,0.0031
3206.00,0.0031
3205.00,0.0031
3204.00,0.0031
3203.00,0.0031
3202.00,0.0032
3201.00,0.0032
3200.00,0.0032
3199.00,0.0033
3198.00,0.0033
3197.00,0.0034
3196.00,0.0033
3195.00,0.0033
3194.00,0.0033
3193.00,0.0032
3192.00,0.0033
3191.00,0.0033
3190.00,0.0033
3189.00,0.0032
3188.00,0.0032
3187.00,0.0032
3186.00,0.0032
3185.00,0.0032
3184.00,0.0031
3183.00,0.0031
3182.00,0.0031
3181.00,0.0031
3180.00,0.0031
3179.00,0.0031
3178.00,0.0031
3177.00,0.0031
3176.00,0.0031
3175.00,0.0030
3174.00,0.0030
3173.00,0.0030
3172.00,0.0029
3171.00,0.0029
3170.00,0.0029
3169.00,0.0029
3168.00,0.0029
3167.00,0.0029
3166.00,0.0028
3165.00,0.0028
3164.00,0.0028
3163.00,0.0028
3162.00,0.0029
3161.00,0.0029
3160.00,0.0029
3159.00,0.0030
3158.00,0.0030
3157.00,0.0030
3156.00,0.0030
3155.00,0.0030
3154.00,0.0029
3153.00,0.0029
3152.00,0.0029
3151.00,0.0029
3150.00,0.0030
3149.00,0.0030
3148.00,0.0030
3147.00,0.0030
3146.00,0.0030
3145.00,0.0030
3144.00,0.0030
3143.00,0.0030
3142.00,0.0030
3141.00,0.0030
3140.00,0.0030
3139.00,0.0029
3138.00,0.0029
3137.00,0.0029
3136.00,0.0029
3135.00,0.0028
3134.00,0.0028
3133.00,0.0029
3132.00,0.0028
3131.00,0.0028
3130.00,0.0028
3129.00,0.0028
3128.00,0.0027
3127.00,0.0027
3126.00,0.0027
3125.00,0.0027
3124.00,0.0026
3123.00,0.0026
3122.00,0.0026
3121.00,0.0026
3120.00,0.0026
3119.00,0.0026
3118.00,0.0025
3117.00,0.0024
3116.00,0.0024
3115.00,0.0023
3114.00,0.0023
3113.00,0.0024
3112.00,0.0024
3111.00,0.0024
3110.00,0.0024
3109.00,0.0024
3108.00,0.0024
3107.00,0.0024
3106.00,0.0024
3105.00,0.0024
3104.00,0.0024
3103.00,0.0024
3102.00,0.0023
3101.00,0.0023
3100.00,0.0023
3099.00,0.0023
3098.00,0.0023
3097.00,0.0024
3096.00,0.0024
3095.00,0.0024
3094.00,0.0024
3093.00,0.0024
3092.00,0.0023
3091.00,0.0023
3090.00,0.0023
3089.00,0.0023
3088.00,0.0023
3087.00,0.0023
3086.00,0.0023
3085.00,0.0023
3084.00,0.0024
3083.00,0.0024
3082.00,0.0024
3081.00,0.0023
3080.00,0.0024
3079.00,0.0024
3078.00,0.0024
3077.00,0.0025
3076.00,0.0025
3075.00,0.0025
3074.00,0.0025
3073.00,0.0025
3072.00,0.0025
3071.00,0.0025
3070.00,0.0025
3069.00,0.0025
3068.00,0.0025
3067.00,0.0025
3066.00,0.0025
3065.00,0.0025
3064.00,0.0026
3063.00,0.0026
3062.00,0.0026
3061.00,0.0026
3060.00,0.0026
3059.00,0.0027
3058.00,0.0027
3057.00,0.0027
3056.00,0.0028
3055.00,0.0028
3054.00,0.0028
3053.00,0.0028
3052.00,0.0028
3051.00,0.0028
3050.00,0.0028
3049.00,0.0028
3048.00,0.0029
3047.00,0.0029
3046.00,0.0029
3045.00,0.0029
3044.00,0.0029
3043.00,0.0030
3042.00,0.0030
3041.00,0.0030
3040.00,0.0030
3039.00,0.0031
3038.00,0.0031
3037.00,0.0031
3036.00,0.0032
3035.00,0.0032
3034.00,0.0032
3033.00,0.0033
3032.00,0.0033
3031.00,0.0033
3030.00,0.0034
3029.00,0.0034
3028.00,0.0034
3027.00,0.0035
3026.00,0.0036
3025.00,0.0037
3024.00,0.0038
3023.00,0.0039
3022.00,0.0040
3021.00,0.0040
3020.00,0.0041
3019.00,0.0041
3018.00,0.0042
3017.00,0.0043
3016.00,0.0044
3015.00,0.0045
3014.00,0.0046
3013.00,0.0047
3012.00,0.0048
3011.00,0.0049
3010.00,0.0051
3009.00,0.0052
3008.00,0.0054
3007.00,0.0056
3006.00,0.0057
3005.00,0.0059
3004.00,0.0062
3003.00,0.0064
3002.00,0.0066
3001.00,0.0068
3000.00,0.0071
2999.00,0.0073
2998.00,0.0077
2997.00,0.0080
2996.00,0.0084
2995.00,0.0088
2994.00,0.0093
2993.00,0.0098
2992.00,0.0103
2991.00,0.0109
2990.00,0.0116
2989.00,0.0123
2988.00,0.0131
2987.00,0.0140
2986.00,0.0150
2985.00,0.0162
2984.00,0.0175
2983.00,0.0189
2982.00,0.0206
2981.00,0.0224
2980.00,0.0245
2979.00,0.0270
2978.00,0.0297
2977.00,0.0329
2976.00,0.0366
2975.00,0.0408
2974.00,0.0457
2973.00,0.0512
2972.00,0.0575
2971.00,0.0646
2970.00,0.0725
2969.00,0.0812
2968.00,0.0908
2967.00,0.1010
2966.00,0.1119
2965.00,0.1230
2964.00,0.1340
2963.00,0.1441
2962.00,0.1528
2961.00,0.1596
2960.00,0.1644
2959.00,0.1677
2958.00,0.1702
2957.00,0.1727
2956.00,0.1760
2955.00,0.1805
2954.00,0.1860
2953.00,0.1920
2952.00,0.1973
2951.00,0.2006
2950.00,0.2005
2949.00,0.1964
2948.00,0.1882
2947.00,0.1768
2946.00,0.1634
2945.00,0.1495
2944.00,0.1365
2943.00,0.1253
2942.00,0.1165
2941.00,0.1102
2940.00,0.1064
2939.00,0.1050
2938.00,0.1056
2937.00,0.1080
2936.00,0.1121
2935.00,0.1178
2934.00,0.1248
2933.00,0.1332
2932.00,0.1426
2931.00,0.1530
2930.00,0.1640
2929.00,0.1753
2928.00,0.1866
2927.00,0.1977
2926.00,0.2085
2925.00,0.2189
2924.00,0.2290
2923.00,0.2391
2922.00,0.2489
2921.00,0.2581
2920.00,0.2660
2919.00,0.2715
2918.00,0.2738
2917.00,0.2721
2916.00,0.2667
2915.00,0.2583
2914.00,0.2482
2913.00,0.2376
2912.00,0.2277
2911.00,0.2188
2910.00,0.2111
2909.00,0.2045
2908.00,0.1985
2907.00,0.1927
2906.00,0.1867
2905.00,0.1805
2904.00,0.1740
2903.00,0.1672
2902.00,0.1604
2901.00,0.1535
2900.00,0.1469
2899.00,0.1404
2898.00,0.1344
2897.00,0.1289
2896.00,0.1240
2895.00,0.1198
2894.00,0.1162
2893.00,0.1133
2892.00,0.1111
2891.00,0.1094
2890.00,0.1083
2889.00,0.1076
2888.00,0.1072
2887.00,0.1072
2886.00,0.1075
2885.00,0.1081
2884.00,0.1092
2883.00,0.1106
2882.00,0.1123
2881.00,0.1142
2880.00,0.1160
2879.00,0.1173
2878.00,0.1178
2877.00,0.1176
2876.00,0.1168
2875.00,0.1159
2874.00,0.1153
2873.00,0.1154
2872.00,0.1163
2871.00,0.1180
2870.00,0.1200
2869.00,0.1218
2868.00,0.1228
2867.00,0.1221
2866.00,0.1193
2865.00,0.1141
2864.00,0.1070
2863.00,0.0990
2862.00,0.0910
2861.00,0.0839
2860.00,0.0783
2859.00,0.0743
2858.00,0.0719
2857.00,0.0708
2856.00,0.0708
2855.00,0.0717
2854.00,0.0732
2853.00,0.0753
2852.00,0.0776
2851.00,0.0799
2850.00,0.0821
2849.00,0.0842
2848.00,0.0863
2847.00,0.0890
2846.00,0.0924
2845.00,0.0970
2844.00,0.1026
2843.00,0.1089
2842.00,0.1153
2841.00,0.1212
2840.00,0.1256
2839.00,0.1278
2838.00,0.1270
2837.00,0.1230
2836.00,0.1159
2835.00,0.1064
2834.00,0.0955
2833.00,0.0843
2832.00,0.0737
2831.00,0.0644
2830.00,0.0566
2829.00,0.0502
2828.00,0.0449
2827.00,0.0407
2826.00,0.0372
2825.00,0.0343
2824.00,0.0319
2823.00,0.0299
2822.00,0.0281
2821.00,0.0266
2820.00,0.0253
2819.00,0.0241
2818.00,0.0230
2817.00,0.0221
2816.00,0.0213
2815.00,0.0206
2814.00,0.0200
2813.00,0.0194
2812.00,0.0189
2811.00,0.0183
2810.00,0.0178
2809.00,0.0173
2808.00,0.0167
2807.00,0.0161
2806.00,0.0154
2805.00,0.0147
2804.00,0.0141
2803.00,0.0135
2802.00,0.0130
2801.00,0.0125
2800.00,0.0122
2799.00,0.0119
2798.00,0.0116
2797.00,0.0114
2796.00,0.0111
2795.00,0.0109
2794.00,0.0106
2793.00,0.0103
2792.00,0.0100
2791.00,0.0097
2790.00,0.0093
2789.00,0.0089
2788.00,0.0086
2787.00,0.0083
2786.00,0.0080
2785.00,0.0077
2784.00,0.0075
2783.00,0.0073
2782.00,0.0070
2781.00,0.0068
2780.00,0.0066
2779.00,0.0064
2778.00,0.0062
2777.00,0.0061
2776.00,0.0060
2775.00,0.0059
2774.00,0.0058
2773.00,0.0058
2772.00,0.0058
2771.00,0.0057
2770.00,0.0057
2769.00,0.0056
2768.00,0.0056
2767.00,0.0055
2766.00,0.0055
2765.00,0.0055
2764.00,0.0054
2763.00,0.0054
2762.00,0.0053
2761.00,0.0052
2760.00,0.0052
2759.00,0.0052
2758.00,0.0052
2757.00,0.0052
2756.00,0.0052
2755.00,0.0053
2754.00,0.0053
2753.00,0.0052
2752.00,0.0052
2751.00,0.0051
2750.00,0.0051
2749.00,0.0051
2748.00,0.0052
2747.00,0.0052
2746.00,0.0053
2745.00,0.0053
2744.00,0.0054
2743.00,0.0054
2742.00,0.0055
2741.00,0.0056
2740.00,0.0057
2739.00,0.0058
2738.00,0.0059
2737.00,0.0061
2736.00,0.0062
2735.00,0.0064
2734.00,0.0065
2733.00,0.0067
2732.00,0.0069
2731.00,0.0071
2730.00,0.0073
2729.00,0.0076
2728.00,0.0078
2727.00,0.0081
2726.00,0.0084
2725.00,0.0086
2724.00,0.0087
2723.00,0.0087
2722.00,0.0087
2721.00,0.0085
2720.00,0.0082
2719.00,0.0079
2718.00,0.0076
2717.00,0.0073
2716.00,0.0070
2715.00,0.0067
2714.00,0.0065
2713.00,0.0062
2712.00,0.0060
2711.00,0.0058
2710.00,0.0057
2709.00,0.0056
2708.00,0.0054
2707.00,0.0053
2706.00,0.0052
2705.00,0.0051
2704.00,0.0049
2703.00,0.0048
2702.00,0.0047
2701.00,0.0047
2700.00,0.0046
2699.00,0.0046
2698.00,0.0045
2697.00,0.0045
2696.00,0.0045
2695.00,0.0045
2694.00,0.0045
2693.00,0.0045
2692.00,0.0045
2691.00,0.0045
2690.00,0.0045
2689.00,0.0045
2688.00,0.0045
2687.00,0.0045
2686.00,0.0045
2685.00,0.0045
2684.00,0.0045
2683.00,0.0045
2682.00,0.0045
2681.00,0.0045
2680.00,0.0045
2679.00,0.0045
2678.00,0.0045
2677.00,0.0045
2676.00,0.0045
2675.00,0.0045
2674.00,0.0045
2673.00,0.0045
2672.00,0.0044
2671.00,0.0045
2670.00,0.0045
2669.00,0.0045
2668.00,0.0045
2667.00,0.0045
2666.00,0.0045
2665.00,0.0046
2664.00,0.0046
2663.00,0.0047
2662.00,0.0047
2661.00,0.0048
2660.00,0.0048
2659.00,0.0049
2658.00,0.0048
2657.00,0.0048
2656.00,0.0047
2655.00,0.0046
2654.00,0.0046
2653.00,0.0045
2652.00,0.0045
2651.00,0.0045
2650.00,0.0044
2649.00,0.0044
2648.00,0.0044
2647.00,0.0044
2646.00,0.0043
2645.00,0.0043
2644.00,0.0042
2643.00,0.0041
2642.00,0.0041
2641.00,0.0040
2640.00,0.0040
2639.00,0.0040
2638.00,0.0040
2637.00,0.0040
2636.00,0.0039
2635.00,0.0039
2634.00,0.0039
2633.00,0.0039
2632.00,0.0039
2631.00,0.0039
2630.00,0.0039
2629.00,0.0039
2628.00,0.0039
2627.00,0.0039
2626.00,0.0040
2625.00,0.0040
2624.00,0.0041
2623.00,0.0041
2622.00,0.0041
2621.00,0.0041
2620.00,0.0041
2619.00,0.0041
2618.00,0.0041
2617.00,0.0041
2616.00,0.0041
2615.00,0.0041
2614.00,0.0041
2613.00,0.0040
2612.00,0.0039
2611.00,0.0039
2610.00,0.0038
2609.00,0.0037
2608.00,0.0037
2607.00,0.0037
2606.00,0.0036
2605.00,0.0036
2604.00,0.0035
2603.00,0.0033
2602.00,0.0032
2601.00,0.0031
2600.00,0.0031
2599.00,0.0031
2598.00,0.0031
2597.00,0.0032
2596.00,0.0032
2595.00,0.0031
2594.00,0.0031
2593.00,0.0031
2592.00,0.0032
2591.00,0.0033
2590.00,0.0035
2589.00,0.0036
2588.00,0.0036
2587.00,0.0037
2586.00,0.0038
2585.00,0.0038
2584.00,0.0039
2583.00,0.0039
2582.00,0.0040
2581.00,0.0039
2580.00,0.0038
2579.00,0.0037
2578.00,0.0036
2577.00,0.0035
2576.00,0.0034
2575.00,0.0033
2574.00,0.0032
2573.00,0.0031
2572.00,0.0030
2571.00,0.0029
2570.00,0.0028
2569.00,0.0027
2568.00,0.0027
2567.00,0.0026
2566.00,0.0026
2565.00,0.0025
2564.00,0.0024
2563.00,0.0024
2562.00,0.0024
2561.00,0.0024
2560.00,0.0023
2559.00,0.0023
2558.00,0.0023
2557.00,0.0023
2556.00,0.0023
2555.00,0.0023
2554.00,0.0023
2553.00,0.0023
2552.00,0.0022
2551.00,0.0022
2550.00,0.0022
2549.00,0.0021
2548.00,0.0020
2547.00,0.0019
2546.00,0.0018
2545.00,0.0018
2544.00,0.0018
2543.00,0.0017
2542.00,0.0017
2541.00,0.0017
2540.00,0.0017
2539.00,0.0017
2538.00,0.0017
2537.00,0.0017
2536.00,0.0017
2535.00,0.0017
2534.00,0.0016
2533.00,0.0016
2532.00,0.0016
2531.00,0.0016
2530.00,0.0016
2529.00,0.0016
2528.00,0.0016
2527.00,0.0016
2526.00,0.0016
2525.00,0.0015
2524.00,0.0014
2523.00,0.0014
2522.00,0.0014
2521.00,0.0014
2520.00,0.0014
2519.00,0.0014
2518.00,0.0013
2517.00,0.0013
2516.00,0.0013
2515.00,0.0013
2514.00,0.0013
2513.00,0.0013
2512.00,0.0013
2511.00,0.0013
2510.00,0.0013
2509.00,0.0013
2508.00,0.0012
2507.00,0.0012
2506.00,0.0011
2505.00,0.0011
2504.00,0.0011
2503.00,0.0011
2502.00,0.0010
2501.00,0.0009
2500.00,0.0009
2499.00,0.0009
2498.00,0.0010
2497.00,0.0010
2496.00,0.0011
2495.00,0.0011
2494.00,0.0011
2493.00,0.0011
2492.00,0.0011
2491.00,0.0010
2490.00,0.0010
2489.00,0.0010
2488.00,0.0009
2487.00,0.0009
2486.00,0.0009
2485.00,0.0009
2484.00,0.0010
2483.00,0.0010
2482.00,0.0010
2481.00,0.0009
2480.00,0.0009
2479.00,0.0009
2478.00,0.0009
2477.00,0.0009
2476.00,0.0009
2475.00,0.0009
2474.00,0.0009
2473.00,0.0009
2472.00,0.0009
2471.00,0.0009
2470.00,0.0009
2469.00,0.0009
2468.00,0.0009
2467.00,0.0009
2466.00,0.0009
2465.00,0.0009
2464.00,0.0009
2463.00,0.0009
2462.00,0.0009
2461.00,0.0010
2460.00,0.0010
2459.00,0.0010
2458.00,0.0010
2457.00,0.0010
2456.00,0.0010
2455.00,0.0010
2454.00,0.0010
2453.00,0.0011
2452.00,0.0011
2451.00,0.0012
2450.00,0.0012
2449.00,0.0012
2448.00,0.0012
2447.00,0.0012
2446.00,0.0012
2445.00,0.0012
2444.00,0.0012
2443.00,0.0012
2442.00,0.0012
2441.00,0.0011
2440.00,0.0011
2439.00,0.0011
2438.00,0.0011
2437.00,0.0010
2436.00,0.0010
2435.00,0.0010
2434.00,0.0010
2433.00,0.0011
2432.00,0.0012
2431.00,0.0013
2430.00,0.0013
2429.00,0.0013
2428.00,0.0012
2427.00,0.0011
2426.00,0.0010
2425.00,0.0010
2424.00,0.0011
2423.00,0.0011
2422.00,0.0011
2421.00,0.0011
2420.00,0.0011
2419.00,0.0010
2418.00,0.0010
2417.00,0.0010
2416.00,0.0010
2415.00,0.0010
2414.00,0.0010
2413.00,0.0009
2412.00,0.0009
2411.00,0.0009
2410.00,0.0009
2409.00,0.0010
2408.00,0.0010
2407.00,0.0010
2406.00,0.0010
2405.00,0.0009
2404.00,0.0009
2403.00,0.0009
2402.00,0.0009
2401.00,0.0009
2400.00,0.0009
2399.00,0.0009
2398.00,0.0009
2397.00,0.0009
2396.00,0.0009
2395.00,0.0009
2394.00,0.0009
2393.00,0.0010
2392.00,0.0009
2391.00,0.0009
2390.00,0.0008
2389.00,0.0007
2388.00,0.0006
2387.00,0.0006
2386.00,0.0006
2385.00,0.0006
2384.00,0.0006
2383.00,0.0006
2382.00,0.0006
2381.00,0.0005
2380.00,0.0005
2379.00,0.0005
2378.00,0.0006
2377.00,0.0006
2376.00,0.0005
2375.00,0.0005
2374.00,0.0005
2373.00,0.0005
2372.00,0.0005
2371.00,0.0005
2370.00,0.0005
2369.00,0.0005
2368.00,0.0005
2367.00,0.0004
2366.00,0.0004
2365.00,0.0004
2364.00,0.0004
2363.00,0.0004
2362.00,0.0005
2361.00,0.0005
2360.00,0.0006
2359.00,0.0006
2358.00,0.0006
2357.00,0.0006
2356.00,0.0006
2355.00,0.0006
2354.00,0.0005
2353.00,0.0005
2352.00,0.0005
2351.00,0.0005
2350.00,0.0006
2349.00,0.0006
2348.00,0.0006
2347.00,0.0006
2346.00,0.0006
2345.00,0.0007
2344.00,0.0007
2343.00,0.0008
2342.00,0.0008
2341.00,0.0009
2340.00,0.0009
2339.00,0.0009
2338.00,0.0008
2337.00,0.0008
2336.00,0.0007
2335.00,0.0007
2334.00,0.0007
2333.00,0.0007
2332.00,0.0007
2331.00,0.0007
2330.00,0.0008
2329.00,0.0009
2328.00,0.0011
2327.00,0.0014
2326.00,0.0019
2325.00,0.0022
2324.00,0.0024
2323.00,0.0023
2322.00,0.0021
2321.00,0.0018
2320.00,0.0016
2319.00,0.0015
2318.00,0.0014
2317.00,0.0013
2316.00,0.0013
2315.00,0.0012
2314.00,0.0012
2313.00,0.0012
2312.00,0.0012
2311.00,0.0011
2310.00,0.0011
2309.00,0.0011
2308.00,0.0011
2307.00,0.0011
2306.00,0.0011
2305.00,0.0012
2304.00,0.0012
2303.00,0.0012
2302.00,0.0012
2301.00,0.0012
2300.00,0.0013
2299.00,0.0013
2298.00,0.0014
2297.00,0.0015
2296.00,0.0015
2295.00,0.0015
2294.00,0.0016
2293.00,0.0016
2292.00,0.0017
2291.00,0.0017
2290.00,0.0017
2289.00,0.0017
2288.00,0.0018
2287.00,0.0018
2286.00,0.0018
2285.00,0.0019
2284.00,0.0019
2283.00,0.0018
2282.00,0.0017
2281.00,0.0016
2280.00,0.0015
2279.00,0.0014
2278.00,0.0014
2277.00,0.0014
2276.00,0.0013
2275.00,0.0013
2274.00,0.0013
2273.00,0.0013
2272.00,0.0013
2271.00,0.0014
2270.00,0.0014
2269.00,0.0014
2268.00,0.0014
2267.00,0.0013
2266.00,0.0012
2265.00,0.0011
2264.00,0.0011
2263.00,0.0011
2262.00,0.0012
2261.00,0.0012
2260.00,0.0013
2259.00,0.0013
2258.00,0.0013
2257.00,0.0012
2256.00,0.0012
2255.00,0.0011
2254.00,0.0011
2253.00,0.0011
2252.00,0.0011
2251.00,0.0012
2250.00,0.0011
2249.00,0.0011
2248.00,0.0011
2247.00,0.0011
2246.00,0.0011
2245.00,0.0011
2244.00,0.0011
2243.00,0.0010
2242.00,0.0009
2241.00,0.0007
2240.00,0.0006
2239.00,0.0006
2238.00,0.0007
2237.00,0.0008
2236.00,0.0009
2235.00,0.0011
2234.00,0.0012
2233.00,0.0013
2232.00,0.0012
2231.00,0.0011
2230.00,0.0009
2229.00,0.0008
2228.00,0.0007
2227.00,0.0007
2226.00,0.0007
2225.00,0.0007
2224.00,0.0006
2223.00,0.0004
2222.00,0.0004
2221.00,0.0004
2220.00,0.0005
2219.00,0.0006
2218.00,0.0008
2217.00,0.0010
2216.00,0.0010
2215.00,0.0009
2214.00,0.0007
2213.00,0.0005
2212.00,0.0004
2211.00,0.0003
2210.00,0.0004
2209.00,0.0006
2208.00,0.0009
2207.00,0.0011
2206.00,0.0011
2205.00,0.0011
2204.00,0.0009
2203.00,0.0008
2202.00,0.0007
2201.00,0.0007
2200.00,0.0007
2199.00,0.0008
2198.00,0.0009
2197.00,0.0010
2196.00,0.0011
2195.00,0.0010
2194.00,0.0009
2193.00,0.0007
2192.00,0.0008
2191.00,0.0010
2190.00,0.0013
2189.00,0.0015
2188.00,0.0015
2187.00,0.0015
2186.00,0.0014
2185.00,0.0013
2184.00,0.0012
2183.00,0.0010
2182.00,0.0009
2181.00,0.0008
2180.00,0.0009
2179.00,0.0010
2178.00,0.0010
2177.00,0.0008
2176.00,0.0005
2175.00,0.0002
2174.00,0.0003
2173.00,0.0006
2172.00,0.0011
2171.00,0.0014
2170.00,0.0015
2169.00,0.0014
2168.00,0.0013
2167.00,0.0012
2166.00,0.0011
2165.00,0.0012
2164.00,0.0014
2163.00,0.0017
2162.00,0.0018
2161.00,0.0015
2160.00,0.0006
2159.00,-0.0008
2158.00,-0.0021
2157.00,-0.0027
2156.00,-0.0029
2155.00,-0.0029
2154.00,-0.0027
2153.00,-0.0024
2152.00,-0.0022
2151.00,-0.0020
2150.00,-0.0019
2149.00,-0.0018
2148.00,-0.0016
2147.00,-0.0014
2146.00,-0.0013
2145.00,-0.0012
2144.00,-0.0012
2143.00,-0.0013
2142.00,-0.0012
2141.00,-0.0010
2140.00,-0.0010
2139.00,-0.0010
2138.00,-0.0012
2137.00,-0.0015
2136.00,-0.0018
2135.00,-0.0020
2134.00,-0.0020
2133.00,-0.0020
2132.00,-0.0018
2131.00,-0.0016
2130.00,-0.0014
2129.00,-0.0011
2128.00,-0.0008
2127.00,-0.0006
2126.00,-0.0004
2125.00,-0.0003
2124.00,-0.0002
2123.00,-0.0002
2122.00,-0.0002
2121.00,-0.0003
2120.00,-0.0003
2119.00,-0.0002
2118.00,-0.0001
2117.00,-0.0000
2116.00,0.0001
2115.00,0.0001
2114.00,0.0001
2113.00,0.0001
2112.00,0.0001
2111.00,0.0000
2110.00,0.0000
2109.00,0.0001
2108.00,0.0001
2107.00,0.0000
2106.00,-0.0001
2105.00,-0.0002
2104.00,-0.0002
2103.00,-0.0001
2102.00,0.0000
2101.00,0.0001
2100.00,0.0001
2099.00,0.0001
2098.00,0.0001
2097.00,0.0000
2096.00,-0.0000
2095.00,-0.0002
2094.00,-0.0003
2093.00,-0.0003
2092.00,-0.0002
2091.00,-0.0001
2090.00,0.0001
2089.00,0.0002
2088.00,0.0003
2087.00,0.0003
2086.00,0.0003
2085.00,0.0002
2084.00,0.0002
2083.00,0.0000
2082.00,-0.0001
2081.00,-0.0002
2080.00,-0.0002
2079.00,-0.0001
2078.00,-0.0000
2077.00,0.0001
2076.00,0.0000
2075.00,-0.0000
2074.00,-0.0000
2073.00,0.0001
2072.00,0.0001
2071.00,0.0002
2070.00,0.0001
2069.00,-0.0000
2068.00,-0.0002
2067.00,-0.0003
2066.00,-0.0004
2065.00,-0.0003
2064.00,-0.0002
2063.00,-0.0002
2062.00,-0.0002
2061.00,-0.0001
2060.00,0.0001
2059.00,0.0002
2058.00,0.0003
2057.00,0.0003
2056.00,0.0003
2055.00,0.0003
2054.00,0.0004
2053.00,0.0007
2052.00,0.0012
2051.00,0.0015
2050.00,0.0013
2049.00,0.0008
2048.00,0.0002
2047.00,-0.0002
2046.00,-0.0002
2045.00,-0.0000
2044.00,0.0002
2043.00,0.0004
2042.00,0.0004
2041.00,0.0004
2040.00,0.0005
2039.00,0.0006
2038.00,0.0006
2037.00,0.0004
2036.00,0.0000
2035.00,-0.0004
2034.00,-0.0008
2033.00,-0.0010
2032.00,-0.0010
2031.00,-0.0009
2030.00,-0.0008
2029.00,-0.0006
2028.00,-0.0004
2027.00,-0.0003
2026.00,-0.0003
2025.00,-0.0003
2024.00,-0.0002
2023.00,-0.0003
2022.00,-0.0003
2021.00,-0.0004
2020.00,-0.0005
2019.00,-0.0006
2018.00,-0.0007
2017.00,-0.0006
2016.00,-0.0004
2015.00,-0.0002
2014.00,-0.0003
2013.00,-0.0006
2012.00,-0.0008
2011.00,-0.0009
2010.00,-0.0011
2009.00,-0.0014
2008.00,-0.0018
2007.00,-0.0021
2006.00,-0.0021
2005.00,-0.0019
2004.00,-0.0017
2003.00,-0.0016
2002.00,-0.0016
2001.00,-0.0016
2000.00,-0.0017
1999.00,-0.0017
1998.00,-0.0017
1997.00,-0.0017
1996.00,-0.0016
1995.00,-0.0015
1994.00,-0.0013
1993.00,-0.0011
1992.00,-0.0008
1991.00,-0.0007
1990.00,-0.0008
1989.00,-0.0008
1988.00,-0.0006
1987.00,-0.0005
1986.00,-0.0003
1985.00,-0.0001
1984.00,0.0001
1983.00,0.0003
1982.00,0.0006
1981.00,0.0011
1980.00,0.0014
1979.00,0.0012
1978.00,0.0005
1977.00,-0.0004
1976.00,-0.0011
1975.00,-0.0016
1974.00,-0.0017
1973.00,-0.0016
1972.00,-0.0015
1971.00,-0.0015
1970.00,-0.0016
1969.00,-0.0016
1968.00,-0.0014
1967.00,-0.0011
1966.00,-0.0009
1965.00,-0.0008
1964.00,-0.0008
1963.00,-0.0010
1962.00,-0.0012
1961.00,-0.0014
1960.00,-0.0016
1959.00,-0.0019
1958.00,-0.0021
1957.00,-0.0022
1956.00,-0.0022
1955.00,-0.0022
1954.00,-0.0022
1953.00,-0.0022
1952.00,-0.0021
1951.00,-0.0019
1950.00,-0.0016
1949.00,-0.0014
1948.00,-0.0013
1947.00,-0.0014
1946.00,-0.0015
1945.00,-0.0016
1944.00,-0.0016
1943.00,-0.0016
1942.00,-0.0014
1941.00,-0.0012
1940.00,-0.0009
1939.00,-0.0008
1938.00,-0.0008
1937.00,-0.0008
1936.00,-0.0009
1935.00,-0.0011
1934.00,-0.0011
1933.00,-0.0011
1932.00,-0.0011
1931.00,-0.0011
1930.00,-0.0012
1929.00,-0.0013
1928.00,-0.0012
1927.00,-0.0011
1926.00,-0.0010
1925.00,-0.0010
1924.00,-0.0010
1923.00,-0.0009
1922.00,-0.0008
1921.00,-0.0007
1920.00,-0.0006
1919.00,-0.0004
1918.00,-0.0004
1917.00,-0.0004
1916.00,-0.0004
1915.00,-0.0005
1914.00,-0.0005
1913.00,-0.0006
1912.00,-0.0005
1911.00,-0.0004
1910.00,-0.0003
1909.00,-0.0003
1908.00,-0.0003
1907.00,-0.0003
1906.00,-0.0002
1905.00,-0.0002
1904.00,-0.0002
1903.00,-0.0003
1902.00,-0.0002
1901.00,-0.0001
1900.00,-0.0000
1899.00,0.0001
1898.00,0.0001
1897.00,0.0001
1896.00,0.0001
1895.00,0.0000
1894.00,-0.0001
1893.00,-0.0001
1892.00,-0.0002
1891.00,-0.0002
1890.00,-0.0002
1889.00,-0.0002
1888.00,-0.0002
1887.00,-0.0003
1886.00,-0.0003
1885.00,-0.0002
1884.00,-0.0001
1883.00,-0.0000
1882.00,-0.0000
1881.00,-0.0000
1880.00,-0.0001
1879.00,-0.0002
1878.00,-0.0002
1877.00,-0.0002
1876.00,-0.0001
1875.00,-0.0001
1874.00,-0.0001
1873.00,-0.0001
1872.00,-0.0002
1871.00,-0.0003
1870.00,-0.0004
1869.00,-0.0003
1868.00,-0.0002
1867.00,-0.0000
1866.00,0.0001
1865.00,0.0002
1864.00,0.0002
1863.00,0.0002
1862.00,0.0002
1861.00,0.0001
1860.00,0.0001
1859.00,0.0001
1858.00,0.0001
1857.00,0.0001
1856.00,0.0001
1855.00,0.0001
1854.00,0.0002
1853.00,0.0002
1852.00,0.0002
1851.00,0.0001
1850.00,0.0001
1849.00,0.0001
1848.00,0.0000
1847.00,-0.0000
1846.00,-0.0000
1845.00,0.0000
1844.00,0.0001
1843.00,0.0001
1842.00,0.0001
1841.00,0.0002
1840.00,0.0002
1839.00,0.0002
1838.00,0.0002
1837.00,0.0002
1836.00,0.0002
1835.00,0.0002
1834.00,0.0002
1833.00,0.0002
1832.00,0.0002
1831.00,0.0002
1830.00,0.0003
1829.00,0.0003
1828.00,0.0003
1827.00,0.0003
1826.00,0.0003
1825.00,0.0003
1824.00,0.0003
1823.00,0.0002
1822.00,0.0002
1821.00,0.0001
1820.00,0.0000
1819.00,-0.0000
1818.00,-0.0001
1817.00,-0.0001
1816.00,-0.0001
1815.00,0.0000
1814.00,0.0001
1813.00,0.0001
1812.00,0.0001
1811.00,0.0002
1810.00,0.0002
1809.00,0.0003
1808.00,0.0003
1807.00,0.0004
1806.00,0.0004
1805.00,0.0004
1804.00,0.0004
1803.00,0.0004
1802.00,0.0004
1801.00,0.0003
1800.00,0.0003
1799.00,0.0003
1798.00,0.0003
1797.00,0.0003
1796.00,0.0004
1795.00,0.0004
1794.00,0.0004
1793.00,0.0004
1792.00,0.0004
1791.00,0.0005
1790.00,0.0005
1789.00,0.0005
1788.00,0.0006
1787.00,0.0006
1786.00,0.0006
1785.00,0.0007
1784.00,0.0008
1783.00,0.0008
1782.00,0.0008
1781.00,0.0008
1780.00,0.0007
1779.00,0.0007
1778.00,0.0006
1777.00,0.0006
1776.00,0.0006
1775.00,0.0006
1774.00,0.0006
1773.00,0.0005
1772.00,0.0005
1771.00,0.0006
1770.00,0.0007
1769.00,0.0008
1768.00,0.0009
1767.00,0.0009
1766.00,0.0009
1765.00,0.0009
1764.00,0.0009
1763.00,0.0009
1762.00,0.0009
1761.00,0.0009
1760.00,0.0009
1759.00,0.0010
1758.00,0.0010
1757.00,0.0011
1756.00,0.0011
1755.00,0.0011
1754.00,0.0011
1753.00,0.0011
1752.00,0.0011
1751.00,0.0011
1750.00,0.0012
1749.00,0.0012
1748.00,0.0012
1747.00,0.0012
1746.00,0.0013
1745.00,0.0014
1744.00,0.0014
1743.00,0.0014
1742.00,0.0014
1741.00,0.0014
1740.00,0.0014
1739.00,0.0014
1738.00,0.0014
1737.00,0.0014
1736.00,0.0014
1735.00,0.0014
1734.00,0.0014
1733.00,0.0015
1732.00,0.0016
1731.00,0.0017
1730.00,0.0018
1729.00,0.0019
1728.00,0.0019
1727.00,0.0019
1726.00,0.0019
1725.00,0.0019
1724.00,0.0019
1723.00,0.0018
1722.00,0.0018
1721.00,0.0018
1720.00,0.0017
1719.00,0.0018
1718.00,0.0017
1717.00,0.0018
1716.00,0.0018
1715.00,0.0018
1714.00,0.0018
1713.00,0.0018
1712.00,0.0019
1711.00,0.0019
1710.00,0.0019
1709.00,0.0019
1708.00,0.0019
1707.00,0.0019
1706.00,0.0019
1705.00,0.0020
1704.00,0.0021
1703.00,0.0021
1702.00,0.0021
1701.00,0.0022
1700.00,0.0022
1699.00,0.0022
1698.00,0.0022
1697.00,0.0023
1696.00,0.0024
1695.00,0.0025
1694.00,0.0026
1693.00,0.0026
1692.00,0.0026
1691.00,0.0027
1690.00,0.0027
1689.00,0.0027
1688.00,0.0027
1687.00,0.0027
1686.00,0.0027
1685.00,0.0027
1684.00,0.0028
1683.00,0.0028
1682.00,0.0030
1681.00,0.0031
1680.00,0.0031
1679.00,0.0032
1678.00,0.0032
1677.00,0.0032
1676.00,0.0033
1675.00,0.0033
1674.00,0.0033
1673.00,0.0032
1672.00,0.0033
1671.00,0.0033
1670.00,0.0034
1669.00,0.0035
1668.00,0.0036
1667.00,0.0037
1666.00,0.0037
1665.00,0.0037
1664.00,0.0037
1663.00,0.0038
1662.00,0.0038
1661.00,0.0038
1660.00,0.0038
1659.00,0.0038
1658.00,0.0038
1657.00,0.0038
1656.00,0.0039
1655.00,0.0039
1654.00,0.0039
1653.00,0.0040
1652.00,0.0041
1651.00,0.0042
1650.00,0.0042
1649.00,0.0043
1648.00,0.0044
1647.00,0.0045
1646.00,0.0046
1645.00,0.0046
1644.00,0.0045
1643.00,0.0045
1642.00,0.0045
1641.00,0.0045
1640.00,0.0045
1639.00,0.0045
1638.00,0.0045
1637.00,0.0045
1636.00,0.0045
1635.00,0.0045
1634.00,0.0045
1633.00,0.0045
1632.00,0.0046
1631.00,0.0046
1630.00,0.0046
1629.00,0.0046
1628.00,0.0046
1627.00,0.0045
1626.00,0.0045
1625.00,0.0044
1624.00,0.0044
1623.00,0.0043
1622.00,0.0043
1621.00,0.0043
1620.00,0.0043
1619.00,0.0043
1618.00,0.0043
1617.00,0.0043
1616.00,0.0043
1615.00,0.0042
1614.00,0.0042
1613.00,0.0042
1612.00,0.0042
1611.00,0.0042
1610.00,0.0042
1609.00,0.0042
1608.00,0.0043
1607.00,0.0043
1606.00,0.0042
1605.00,0.0043
1604.00,0.0043
1603.00,0.0043
1602.00,0.0042
1601.00,0.0042
1600.00,0.0042
1599.00,0.0042
1598.00,0.0042
1597.00,0.0042
1596.00,0.0043
1595.00,0.0043
1594.00,0.0043
1593.00,0.0043
1592.00,0.0043
1591.00,0.0043
1590.00,0.0043
1589.00,0.0043
1588.00,0.0044
1587.00,0.0044
1586.00,0.0045
1585.00,0.0046
1584.00,0.0047
1583.00,0.0048
1582.00,0.0050
1581.00,0.0051
1580.00,0.0052
1579.00,0.0052
1578.00,0.0053
1577.00,0.0053
1576.00,0.0053
1575.00,0.0052
1574.00,0.0051
1573.00,0.0051
1572.00,0.0051
1571.00,0.0050
1570.00,0.0049
1569.00,0.0048
1568.00,0.0047
1567.00,0.0046
1566.00,0.0045
1565.00,0.0046
1564.00,0.0046
1563.00,0.0046
1562.00,0.0046
1561.00,0.0047
1560.00,0.0048
1559.00,0.0047
1558.00,0.0046
1557.00,0.0045
1556.00,0.0045
1555.00,0.0045
1554.00,0.0045
1553.00,0.0046
1552.00,0.0047
1551.00,0.0048
1550.00,0.0048
1549.00,0.0050
1548.00,0.0051
1547.00,0.0052
1546.00,0.0053
1545.00,0.0054
1544.00,0.0056
1543.00,0.0056
1542.00,0.0056
1541.00,0.0056
1540.00,0.0056
1539.00,0.0055
1538.00,0.0054
1537.00,0.0053
1536.00,0.0052
1535.00,0.0051
1534.00,0.0049
1533.00,0.0048
1532.00,0.0048
1531.00,0.0047
1530.00,0.0047
1529.00,0.0046
1528.00,0.0046
1527.00,0.0045
1526.00,0.0045
1525.00,0.0045
1524.00,0.0045
1523.00,0.0045
1522.00,0.0046
1521.00,0.0047
1520.00,0.0048
1519.00,0.0048
1518.00,0.0048
1517.00,0.0048
1516.00,0.0048
1515.00,0.0048
1514.00,0.0048
1513.00,0.0049
1512.00,0.0050
1511.00,0.0051
1510.00,0.0051
1509.00,0.0051
1508.00,0.0052
1507.00,0.0053
1506.00,0.0055
1505.00,0.0057
1504.00,0.0059
1503.00,0.0060
1502.00,0.0061
1501.00,0.0063
1500.00,0.0066
1499.00,0.0067
1498.00,0.0068
1497.00,0.0071
1496.00,0.0075
1495.00,0.0078
1494.00,0.0081
1493.00,0.0084
1492.00,0.0087
1491.00,0.0091
1490.00,0.0095
1489.00,0.0100
1488.00,0.0106
1487.00,0.0111
1486.00,0.0116
1485.00,0.0122
1484.00,0.0129
1483.00,0.0137
1482.00,0.0146
1481.00,0.0156
1480.00,0.0168
1479.00,0.0181
1478.00,0.0196
1477.00,0.0216
1476.00,0.0240
1475.00,0.0269
1474.00,0.0308
1473.00,0.0365
1472.00,0.0433
1471.00,0.0498
1470.00,0.0559
1469.00,0.0624
1468.00,0.0694
1467.00,0.0770
1466.00,0.0858
1465.00,0.0953
1464.00,0.1037
1463.00,0.1095
1462.00,0.1132
1461.00,0.1158
1460.00,0.1176
1459.00,0.1190
1458.00,0.1202
1457.00,0.1214
1456.00,0.1218
1455.00,0.1215
1454.00,0.1206
1453.00,0.1192
1452.00,0.1169
1451.00,0.1134
1450.00,0.1085
1449.00,0.1016
1448.00,0.0925
1447.00,0.0827
1446.00,0.0737
1445.00,0.0660
1444.00,0.0594
1443.00,0.0538
1442.00,0.0496
1441.00,0.0465
1440.00,0.0446
1439.00,0.0436
1438.00,0.0434
1437.00,0.0433
1436.00,0.0421
1435.00,0.0397
1434.00,0.0362
1433.00,0.0320
1432.00,0.0276
1431.00,0.0237
1430.00,0.0206
1429.00,0.0184
1428.00,0.0168
1427.00,0.0158
1426.00,0.0152
1425.00,0.0146
1424.00,0.0140
1423.00,0.0136
1422.00,0.0134
1421.00,0.0131
1420.00,0.0127
1419.00,0.0124
1418.00,0.0121
1417.00,0.0118
1416.00,0.0115
1415.00,0.0114
1414.00,0.0114
1413.00,0.0113
1412.00,0.0111
1411.00,0.0109
1410.00,0.0109
1409.00,0.0108
1408.00,0.0107
1407.00,0.0106
1406.00,0.0106
1405.00,0.0106
1404.00,0.0106
1403.00,0.0107
1402.00,0.0109
1401.00,0.0110
1400.00,0.0111
1399.00,0.0112
1398.00,0.0115
1397.00,0.0116
1396.00,0.0118
1395.00,0.0122
1394.00,0.0128
1393.00,0.0133
1392.00,0.0138
1391.00,0.0146
1390.00,0.0157
1389.00,0.0171
1388.00,0.0192
1387.00,0.0225
1386.00,0.0270
1385.00,0.0328
1384.00,0.0408
1383.00,0.0519
1382.00,0.0667
1381.00,0.0855
1380.00,0.1088
1379.00,0.1352
1378.00,0.1607
1377.00,0.1793
1376.00,0.1850
1375.00,0.1748
1374.00,0.1517
1373.00,0.1247
1372.00,0.1004
1371.00,0.0806
1370.00,0.0649
1369.00,0.0530
1368.00,0.0448
1367.00,0.0398
1366.00,0.0370
1365.00,0.0358
1364.00,0.0360
1363.00,0.0373
1362.00,0.0393
1361.00,0.0415
1360.00,0.0431
1359.00,0.0436
1358.00,0.0426
1357.00,0.0401
1356.00,0.0366
1355.00,0.0327
1354.00,0.0290
1353.00,0.0258
1352.00,0.0232
1351.00,0.0211
1350.00,0.0194
1349.00,0.0179
1348.00,0.0168
1347.00,0.0157
1346.00,0.0148
1345.00,0.0141
1344.00,0.0134
1343.00,0.0129
1342.00,0.0125
1341.00,0.0122
1340.00,0.0119
1339.00,0.0117
1338.00,0.0116
1337.00,0.0115
1336.00,0.0116
1335.00,0.0118
1334.00,0.0121
1333.00,0.0125
1332.00,0.0129
1331.00,0.0132
1330.00,0.0133
1329.00,0.0131
1328.00,0.0129
1327.00,0.0125
1326.00,0.0120
1325.00,0.0115
1324.00,0.0109
1323.00,0.0104
1322.00,0.0100
1321.00,0.0097
1320.00,0.0095
1319.00,0.0092
1318.00,0.0090
1317.00,0.0089
1316.00,0.0088
1315.00,0.0087
1314.00,0.0088
1313.00,0.0088
1312.00,0.0089
1311.00,0.0092
1310.00,0.0096
1309.00,0.0103
1308.00,0.0114
1307.00,0.0128
1306.00,0.0141
1305.00,0.0150
1304.00,0.0153
1303.00,0.0149
1302.00,0.0142
1301.00,0.0135
1300.00,0.0130
1299.00,0.0128
1298.00,0.0128
1297.00,0.0127
1296.00,0.0126
1295.00,0.0123
1294.00,0.0119
1293.00,0.0114
1292.00,0.0109
1291.00,0.0104
1290.00,0.0099
1289.00,0.0095
1288.00,0.0092
1287.00,0.0089
1286.00,0.0087
1285.00,0.0085
1284.00,0.0084
1283.00,0.0083
1282.00,0.0082
1281.00,0.0081
1280.00,0.0079
1279.00,0.0079
1278.00,0.0078
1277.00,0.0078
1276.00,0.0078
1275.00,0.0077
1274.00,0.0077
1273.00,0.0078
1272.00,0.0078
1271.00,0.0079
1270.00,0.0080
1269.00,0.0080
1268.00,0.0081
1267.00,0.0083
1266.00,0.0086
1265.00,0.0089
1264.00,0.0092
1263.00,0.0095
1262.00,0.0099
1261.00,0.0104
1260.00,0.0111
1259.00,0.0119
1258.00,0.0128
1257.00,0.0136
1256.00,0.0139
1255.00,0.0137
1254.00,0.0130
1253.00,0.0120
1252.00,0.0109
1251.00,0.0099
1250.00,0.0093
1249.00,0.0088
1248.00,0.0085
1247.00,0.0083
1246.00,0.0081
1245.00,0.0079
1244.00,0.0077
1243.00,0.0075
1242.00,0.0074
1241.00,0.0073
1240.00,0.0072
1239.00,0.0072
1238.00,0.0072
1237.00,0.0071
1236.00,0.0071
1235.00,0.0071
1234.00,0.0071
1233.00,0.0072
1232.00,0.0072
1231.00,0.0072
1230.00,0.0073
1229.00,0.0074
1228.00,0.0075
1227.00,0.0077
1226.00,0.0079
1225.00,0.0081
1224.00,0.0084
1223.00,0.0086
1222.00,0.0089
1221.00,0.0091
1220.00,0.0093
1219.00,0.0093
1218.00,0.0093
1217.00,0.0091
1216.00,0.0088
1215.00,0.0085
1214.00,0.0082
1213.00,0.0080
1212.00,0.0078
1211.00,0.0076
1210.00,0.0075
1209.00,0.0073
1208.00,0.0072
1207.00,0.0071
1206.00,0.0071
1205.00,0.0072
1204.00,0.0072
1203.00,0.0071
1202.00,0.0071
1201.00,0.0071
1200.00,0.0071
1199.00,0.0071
1198.00,0.0072
1197.00,0.0071
1196.00,0.0071
1195.00,0.0070
1194.00,0.0069
1193.00,0.0069
1192.00,0.0069
1191.00,0.0069
1190.00,0.0069
1189.00,0.0069
1188.00,0.0070
1187.00,0.0070
1186.00,0.0072
1185.00,0.0073
1184.00,0.0075
1183.00,0.0077
1182.00,0.0079
1181.00,0.0082
1180.00,0.0087
1179.00,0.0093
1178.00,0.0101
1177.00,0.0111
1176.00,0.0124
1175.00,0.0141
1174.00,0.0164
1173.00,0.0194
1172.00,0.0231
1171.00,0.0271
1170.00,0.0310
1169.00,0.0341
1168.00,0.0358
1167.00,0.0360
1166.00,0.0349
1165.00,0.0330
1164.00,0.0307
1163.00,0.0285
1162.00,0.0265
1161.00,0.0248
1160.00,0.0235
1159.00,0.0224
1158.00,0.0217
1157.00,0.0211
1156.00,0.0208
1155.00,0.0205
1154.00,0.0202
1153.00,0.0198
1152.00,0.0193
1151.00,0.0185
1150.00,0.0175
1149.00,0.0164
1148.00,0.0154
1147.00,0.0144
1146.00,0.0136
1145.00,0.0128
1144.00,0.0121
1143.00,0.0114
1142.00,0.0107
1141.00,0.0102
1140.00,0.0096
1139.00,0.0092
1138.00,0.0088
1137.00,0.0085
1136.00,0.0082
1135.00,0.0079
1134.00,0.0078
1133.00,0.0076
1132.00,0.0075
1131.00,0.0074
1130.00,0.0073
1129.00,0.0073
1128.00,0.0072
1127.00,0.0071
1126.00,0.0071
1125.00,0.0071
1124.00,0.0072
1123.00,0.0073
1122.00,0.0074
1121.00,0.0075
1120.00,0.0076
1119.00,0.0076
1118.00,0.0077
1117.00,0.0077
1116.00,0.0078
1115.00,0.0080
1114.00,0.0081
1113.00,0.0083
1112.00,0.0085
1111.00,0.0088
1110.00,0.0091
1109.00,0.0095
1108.00,0.0099
1107.00,0.0104
1106.00,0.0110
1105.00,0.0115
1104.00,0.0120
1103.00,0.0123
1102.00,0.0122
1101.00,0.0119
1100.00,0.0114
1099.00,0.0109
1098.00,0.0103
1097.00,0.0098
1096.00,0.0093
1095.00,0.0089
1094.00,0.0087
1093.00,0.0084
1092.00,0.0083
1091.00,0.0081
1090.00,0.0080
1089.00,0.0079
1088.00,0.0078
1087.00,0.0077
1086.00,0.0076
1085.00,0.0076
1084.00,0.0076
1083.00,0.0075
1082.00,0.0074
1081.00,0.0073
1080.00,0.0071
1079.00,0.0070
1078.00,0.0069
1077.00,0.0069
1076.00,0.0069
1075.00,0.0069
1074.00,0.0068
1073.00,0.0067
1072.00,0.0067
1071.00,0.0067
1070.00,0.0067
1069.00,0.0067
1068.00,0.0067
1067.00,0.0066
1066.00,0.0066
1065.00,0.0065
1064.00,0.0066
1063.00,0.0066
1062.00,0.0067
1061.00,0.0068
1060.00,0.0068
1059.00,0.0069
1058.00,0.0070
1057.00,0.0071
1056.00,0.0072
1055.00,0.0072
1054.00,0.0074
1053.00,0.0075
1052.00,0.0077
1051.00,0.0078
1050.00,0.0081
1049.00,0.0084
1048.00,0.0089
1047.00,0.0093
1046.00,0.0096
1045.00,0.0097
1044.00,0.0096
1043.00,0.0095
1042.00,0.0092
1041.00,0.0088
1040.00,0.0086
1039.00,0.0084
1038.00,0.0082
1037.00,0.0082
1036.00,0.0081
1035.00,0.0081
1034.00,0.0081
1033.00,0.0080
1032.00,0.0079
1031.00,0.0078
1030.00,0.0077
1029.00,0.0076
1028.00,0.0076
1027.00,0.0076
1026.00,0.0076
1025.00,0.0076
1024.00,0.0076
1023.00,0.0076
1022.00,0.0076
1021.00,0.0077
1020.00,0.0078
1019.00,0.0080
1018.00,0.0082
1017.00,0.0084
1016.00,0.0086
1015.00,0.0088
1014.00,0.0090
1013.00,0.0092
1012.00,0.0094
1011.00,0.0097
1010.00,0.0101
1009.00,0.0106
1008.00,0.0112
1007.00,0.0121
1006.00,0.0132
1005.00,0.0147
1004.00,0.0168
1003.00,0.0197
1002.00,0.0235
1001.00,0.0282
1000.00,0.0333
999.00,0.0375
998.00,0.0397
997.00,0.0390
996.00,0.0357
995.00,0.0309
994.00,0.0259
993.00,0.0215
992.00,0.0182
991.00,0.0159
990.00,0.0142
989.00,0.0131
988.00,0.0123
987.00,0.0118
986.00,0.0117
985.00,0.0118
984.00,0.0122
983.00,0.0130
982.00,0.0141
981.00,0.0159
980.00,0.0184
979.00,0.0218
978.00,0.0261
977.00,0.0312
976.00,0.0367
975.00,0.0420
974.00,0.0459
973.00,0.0473
972.00,0.0455
971.00,0.0408
970.00,0.0346
969.00,0.0282
968.00,0.0229
967.00,0.0189
966.00,0.0161
965.00,0.0142
964.00,0.0127
963.00,0.0117
962.00,0.0109
961.00,0.0102
960.00,0.0097
959.00,0.0093
958.00,0.0089
957.00,0.0085
956.00,0.0081
955.00,0.0079
954.00,0.0077
953.00,0.0076
952.00,0.0075
951.00,0.0074
950.00,0.0073
949.00,0.0072
948.00,0.0071
947.00,0.0072
946.00,0.0073
945.00,0.0075
944.00,0.0078
943.00,0.0081
942.00,0.0084
941.00,0.0086
940.00,0.0086
939.00,0.0083
938.00,0.0080
937.00,0.0075
936.00,0.0070
935.00,0.0066
934.00,0.0063
933.00,0.0061
932.00,0.0059
931.00,0.0058
930.00,0.0057
929.00,0.0057
928.00,0.0057
927.00,0.0058
926.00,0.0058
925.00,0.0058
924.00,0.0057
923.00,0.0057
922.00,0.0056
921.00,0.0057
920.00,0.0057
919.00,0.0059
918.00,0.0060
917.00,0.0061
916.00,0.0062
915.00,0.0063
914.00,0.0063
913.00,0.0063
912.00,0.0064
911.00,0.0064
910.00,0.0066
909.00,0.0069
908.00,0.0073
907.00,0.0078
906.00,0.0086
905.00,0.0095
904.00,0.0108
903.00,0.0123
902.00,0.0141
901.00,0.0156
900.00,0.0167
899.00,0.0169
898.00,0.0162
897.00,0.0147
896.00,0.0130
895.00,0.0114
894.00,0.0101
893.00,0.0091
892.00,0.0084
891.00,0.0079
890.00,0.0076
889.00,0.0073
888.00,0.0072
887.00,0.0071
886.00,0.0071
885.00,0.0070
884.00,0.0070
883.00,0.0070
882.00,0.0070
881.00,0.0071
880.00,0.0071
879.00,0.0073
878.00,0.0075
877.00,0.0076
876.00,0.0076
875.00,0.0075
874.00,0.0075
873.00,0.0075
872.00,0.0074
871.00,0.0074
870.00,0.0074
869.00,0.0075
868.00,0.0076
867.00,0.0077
866.00,0.0078
865.00,0.0078
864.00,0.0079
863.00,0.0080
862.00,0.0082
861.00,0.0084
860.00,0.0086
859.00,0.0087
858.00,0.0088
857.00,0.0089
856.00,0.0090
855.00,0.0092
854.00,0.0094
853.00,0.0097
852.00,0.0101
851.00,0.0105
850.00,0.0111
849.00,0.0118
848.00,0.0128
847.00,0.0144
846.00,0.0170
845.00,0.0211
844.00,0.0268
843.00,0.0333
842.00,0.0384
841.00,0.0399
840.00,0.0369
839.00,0.0309
838.00,0.0244
837.00,0.0194
836.00,0.0162
835.00,0.0142
834.00,0.0129
833.00,0.0120
832.00,0.0115
831.00,0.0111
830.00,0.0107
829.00,0.0104
828.00,0.0101
827.00,0.0098
826.00,0.0096
825.00,0.0094
824.00,0.0093
823.00,0.0093
822.00,0.0094
821.00,0.0096
820.00,0.0097
819.00,0.0099
818.00,0.0102
817.00,0.0107
816.00,0.0116
815.00,0.0128
814.00,0.0142
813.00,0.0159
812.00,0.0178
811.00,0.0195
810.00,0.0207
809.00,0.0211
808.00,0.0207
807.00,0.0195
806.00,0.0180
805.00,0.0163
804.00,0.0147
803.00,0.0134
802.00,0.0123
801.00,0.0114
800.00,0.0107
799.00,0.0102
798.00,0.0097
797.00,0.0093
796.00,0.0090
795.00,0.0087
794.00,0.0084
793.00,0.0081
792.00,0.0078
791.00,0.0076
790.00,0.0074
789.00,0.0071
788.00,0.0069
787.00,0.0067
786.00,0.0065
785.00,0.0062
784.00,0.0060
783.00,0.0058
782.00,0.0056
781.00,0.0055
780.00,0.0054
779.00,0.0055
778.00,0.0056
777.00,0.0056
776.00,0.0056
775.00,0.0055
774.00,0.0055
773.00,0.0055
772.00,0.0056
771.00,0.0056
770.00,0.0056
769.00,0.0056
768.00,0.0055
767.00,0.0055
766.00,0.0055
765.00,0.0055
764.00,0.0056
763.00,0.0056
762.00,0.0056
761.00,0.0056
760.00,0.0056
759.00,0.0057
758.00,0.0057
757.00,0.0058
756.00,0.0058
755.00,0.0058
754.00,0.0058
753.00,0.0059
752.00,0.0059
751.00,0.0059
750.00,0.0058
749.00,0.0058
748.00,0.0059
747.00,0.0060
746.00,0.0062
745.00,0.0064
744.00,0.0066
743.00,0.0067
742.00,0.0068
741.00,0.0070
740.00,0.0071
739.00,0.0073
738.00,0.0075
737.00,0.0077
736.00,0.0080
735.00,0.0084
734.00,0.0089
733.00,0.0095
732.00,0.0102
731.00,0.0109
730.00,0.0114
729.00,0.0118
728.00,0.0119
727.00,0.0118
726.00,0.0119
725.00,0.0121
724.00,0.0126
723.00,0.0132
722.00,0.0139
721.00,0.0143
720.00,0.0142
719.00,0.0134
718.00,0.0123
717.00,0.0111
716.00,0.0100
715.00,0.0091
714.00,0.0084
713.00,0.0080
712.00,0.0077
711.00,0.0075
710.00,0.0073
709.00,0.0071
708.00,0.0068
707.00,0.0066
706.00,0.0065
705.00,0.0064
704.00,0.0063
703.00,0.0062
702.00,0.0061
701.00,0.0060
700.00,0.0059
699.00,0.0058
698.00,0.0056
697.00,0.0054
696.00,0.0052
695.00,0.0051
694.00,0.0052
693.00,0.0053
692.00,0.0053
691.00,0.0053
690.00,0.0053
689.00,0.0053
688.00,0.0053
687.00,0.0054
686.00,0.0053
685.00,0.0053
684.00,0.0053
683.00,0.0053
682.00,0.0051
681.00,0.0049
680.00,0.0047
679.00,0.0046
678.00,0.0045
677.00,0.0046
676.00,0.0046
675.00,0.0046
674.00,0.0045
673.00,0.0044
672.00,0.0044
671.00,0.0046
670.00,0.0050
669.00,0.0056
668.00,0.0061
667.00,0.0062
666.00,0.0058
665.00,0.0053
664.00,0.0049
663.00,0.0046
662.00,0.0045
661.00,0.0047
660.00,0.0049
659.00,0.0051
658.00,0.0051
657.00,0.0051
656.00,0.0050
655.00,0.0050
654.00,0.0050
653.00,0.0049
652.00,0.0049
651.00,0.0048
650.00,0.0047
649.00,0.0046
648.00,0.0046
647.00,0.0047
646.00,0.0049
645.00,0.0050
644.00,0.0051
643.00,0.0052
642.00,0.0051
641.00,0.0051
640.00,0.0052
639.00,0.0053
638.00,0.0055
637.00,0.0057
636.00,0.0057
635.00,0.0057
634.00,0.0057
633.00,0.0056
632.00,0.0056
631.00,0.0054
630.00,0.0053
629.00,0.0052
628.00,0.0051
627.00,0.0051
626.00,0.0050
625.00,0.0049
624.00,0.0048
623.00,0.0048
622.00,0.0048
621.00,0.0049
620.00,0.0050
619.00,0.0052
618.00,0.0055
617.00,0.0057
616.00,0.0056
615.00,0.0054
614.00,0.0051
613.00,0.0049
612.00,0.0049
611.00,0.0052
610.00,0.0056
609.00,0.0058
608.00,0.0058
607.00,0.0055
606.00,0.0052
605.00,0.0050
604.00,0.0050
603.00,0.0049
602.00,0.0049
601.00,0.0049
600.00,0.0051
599.00,0.0053
598.00,0.0054
597.00,0.0054
596.00,0.0054
595.00,0.0056
594.00,0.0059
593.00,0.0061
592.00,0.0061
591.00,0.0060
590.00,0.0059
589.00,0.0058
588.00,0.0057
587.00,0.0054
586.00,0.0051
585.00,0.0051
584.00,0.0053
583.00,0.0056
582.00,0.0058
581.00,0.0058
580.00,0.0057
579.00,0.0056
578.00,0.0057
577.00,0.0058
576.00,0.0059
575.00,0.0059
574.00,0.0059
573.00,0.0060
572.00,0.0061
571.00,0.0062
570.00,0.0063
569.00,0.0063
568.00,0.0060
567.00,0.0057
566.00,0.0054
565.00,0.0052
564.00,0.0053
563.00,0.0055
562.00,0.0057
561.00,0.0057
560.00,0.0059
559.00,0.0061
558.00,0.0063
557.00,0.0062
556.00,0.0059
555.00,0.0055
554.00,0.0053
553.00,0.0052
552.00,0.0052
551.00,0.0052
550.00,0.0053
549.00,0.0056
548.00,0.0061
547.00,0.0066
546.00,0.0069
545.00,0.0069
544.00,0.0067
543.00,0.0066
542.00,0.0065
541.00,0.0065
540.00,0.0065
539.00,0.0068
538.00,0.0074
537.00,0.0079
536.00,0.0082
535.00,0.0083
534.00,0.0082
533.00,0.0080
532.00,0.0078
531.00,0.0075
530.00,0.0074
529.00,0.0074
528.00,0.0078
527.00,0.0081
526.00,0.0081
525.00,0.0078
524.00,0.0074
523.00,0.0072
522.00,0.0072
521.00,0.0071
520.00,0.0068
519.00,0.0066
518.00,0.0065
517.00,0.0067
516.00,0.0070
515.00,0.0072
514.00,0.0072
513.00,0.0068
512.00,0.0062
511.00,0.0057
510.00,0.0058
509.00,0.0064
508.00,0.0071
507.00,0.0076
506.00,0.0077
505.00,0.0075
504.00,0.0074
503.00,0.0073
502.00,0.0071
501.00,0.0067
500.00,0.0061
499.00,0.0057
498.00,0.0057
497.00,0.0059
496.00,0.0061
495.00,0.0061
494.00,0.0061
493.00,0.0064
492.00,0.0067
491.00,0.0068
490.00,0.0065
489.00,0.0059
488.00,0.0056
487.00,0.0056
486.00,0.0057
485.00,0.0054
484.00,0.0049
483.00,0.0045
482.00,0.0047
481.00,0.0053
480.00,0.0061
479.00,0.0070
478.00,0.0080
477.00,0.0089
476.00,0.0095
475.00,0.0095
474.00,0.0093
473.00,0.0092
472.00,0.0095
471.00,0.0101
470.00,0.0105
469.00,0.0106
468.00,0.0104
467.00,0.0100
466.00,0.0100
465.00,0.0106
464.00,0.0116
463.00,0.0129
462.00,0.0142
461.00,0.0152
460.00,0.0156
459.00,0.0151
458.00,0.0140
457.00,0.0130
456.00,0.0131
455.00,0.0140
454.00,0.0148
453.00,0.0148
452.00,0.0139
451.00,0.0123
450.00,0.0102
