Created as New Dataset,Sample 110 By Administrator Date Friday, September 05 2025
cm-1,A
4000.00,0.0016
3999.00,0.0016
3998.00,0.0016
3997.00,0.0016
3996.00,0.0016
3995.00,0.0016
3994.00,0.0017
3993.00,0.0017
3992.00,0.0017
3991.00,0.0017
3990.00,0.0017
3989.00,0.0017
3988.00,0.0016
3987.00,0.0016
3986.00,0.0016
3985.00,0.0016
3984.00,0.0015
3983.00,0.0015
3982.00,0.0015
3981.00,0.0015
3980.00,0.0015
3979.00,0.0015
3978.00,0.0015
3977.00,0.0015
3976.00,0.0015
3975.00,0.0015
3974.00,0.0015
3973.00,0.0015
3972.00,0.0015
3971.00,0.0015
3970.00,0.0015
3969.00,0.0015
3968.00,0.0015
3967.00,0.0015
3966.00,0.0014
3965.00,0.0014
3964.00,0.0014
3963.00,0.0014
3962.00,0.0014
3961.00,0.0014
3960.00,0.0014
3959.00,0.0014
3958.00,0.0014
3957.00,0.0014
3956.00,0.0014
3955.00,0.0014
3954.00,0.0014
3953.00,0.0014
3952.00,0.0014
3951.00,0.0014
3950.00,0.0014
3949.00,0.0014
3948.00,0.0014
3947.00,0.0013
3946.00,0.0013
3945.00,0.0014
3944.00,0.0014
3943.00,0.0014
3942.00,0.0014
3941.00,0.0014
3940.00,0.0014
3939.00,0.0014
3938.00,0.0014
3937.00,0.0014
3936.00,0.0014
3935.00,0.0014
3934.00,0.0014
3933.00,0.0014
3932.00,0.0014
3931.00,0.0014
3930.00,0.0014
3929.00,0.0014
3928.00,0.0014
3927.00,0.0015
3926.00,0.0015
3925.00,0.0015
3924.00,0.0015
3923.00,0.0015
3922.00,0.0015
3921.00,0.0015
3920.00,0.0015
3919.00,0.0015
3918.00,0.0015
3917.00,0.0015
3916.00,0.0015
3915.00,0.0015
3914.00,0.0015
3913.00,0.0015
3912.00,0.0014
3911.00,0.0014
3910.00,0.0014
3909.00,0.0013
3908.00,0.0013
3907.00,0.0013
3906.00,0.0013
3905.00,0.0014
3904.00,0.0014
3903.00,0.0015
3902.00,0.0015
3901.00,0.0014
3900.00,0.0014
3899.00,0.0014
3898.00,0.0014
3897.00,0.0015
3896.00,0.0015
3895.00,0.0015
3894.00,0.0015
3893.00,0.0015
3892.00,0.0015
3891.00,0.0015
3890.00,0.0015
3889.00,0.0015
3888.00,0.0015
3887.00,0.0015
3886.00,0.0015
3885.00,0.0014
3884.00,0.0014
3883.00,0.0014
3882.00,0.0014
3881.00,0.0014
3880.00,0.0014
3879.00,0.0014
3878.00,0.0014
3877.00,0.0014
3876.00,0.0014
3875.00,0.0014
3874.00,0.0014
3873.00,0.0015
3872.00,0.0015
3871.00,0.0015
3870.00,0.0014
3869.00,0.0014
3868.00,0.0014
3867.00,0.0014
3866.00,0.0014
3865.00,0.0014
3864.00,0.0014
3863.00,0.0014
3862.00,0.0014
3861.00,0.0013
3860.00,0.0013
3859.00,0.0013
3858.00,0.0013
3857.00,0.0013
3856.00,0.0013
3855.00,0.0013
3854.00,0.0013
3853.00,0.0013
3852.00,0.0014
3851.00,0.0014
3850.00,0.0014
3849.00,0.0014
3848.00,0.0014
3847.00,0.0014
3846.00,0.0014
3845.00,0.0014
3844.00,0.0013
3843.00,0.0014
3842.00,0.0014
3841.00,0.0014
3840.00,0.0014
3839.00,0.0014
3838.00,0.0014
3837.00,0.0014
3836.00,0.0014
3835.00,0.0014
3834.00,0.0014
3833.00,0.0014
3832.00,0.0014
3831.00,0.0014
3830.00,0.0014
3829.00,0.0014
3828.00,0.0014
3827.00,0.0014
3826.00,0.0014
3825.00,0.0014
3824.00,0.0014
3823.00,0.0014
3822.00,0.0014
3821.00,0.0014
3820.00,0.0014
3819.00,0.0014
3818.00,0.0014
3817.00,0.0014
3816.00,0.0014
3815.00,0.0014
3814.00,0.0014
3813.00,0.0013
3812.00,0.0013
3811.00,0.0013
3810.00,0.0012
3809.00,0.0013
3808.00,0.0013
3807.00,0.0014
3806.00,0.0014
3805.00,0.0014
3804.00,0.0014
3803.00,0.0014
3802.00,0.0014
3801.00,0.0014
3800.00,0.0014
3799.00,0.0014
3798.00,0.0014
3797.00,0.0014
3796.00,0.0015
3795.00,0.0015
3794.00,0.0015
3793.00,0.0014
3792.00,0.0014
3791.00,0.0014
3790.00,0.0014
3789.00,0.0014
3788.00,0.0014
3787.00,0.0014
3786.00,0.0014
3785.00,0.0014
3784.00,0.0014
3783.00,0.0014
3782.00,0.0014
3781.00,0.0014
3780.00,0.0014
3779.00,0.0014
3778.00,0.0014
3777.00,0.0014
3776.00,0.0014
3775.00,0.0014
3774.00,0.0013
3773.00,0.0013
3772.00,0.0013
3771.00,0.0013
3770.00,0.0014
3769.00,0.0014
3768.00,0.0014
3767.00,0.0014
3766.00,0.0014
3765.00,0.0014
3764.00,0.0014
3763.00,0.0014
3762.00,0.0014
3761.00,0.0014
3760.00,0.0015
3759.00,0.0015
3758.00,0.0015
3757.00,0.0015
3756.00,0.0015
3755.00,0.0015
3754.00,0.0014
3753.00,0.0014
3752.00,0.0014
3751.00,0.0014
3750.00,0.0014
3749.00,0.0014
3748.00,0.0014
3747.00,0.0014
3746.00,0.0014
3745.00,0.0014
3744.00,0.0014
3743.00,0.0013
3742.00,0.0013
3741.00,0.0012
3740.00,0.0012
3739.00,0.0011
3738.00,0.0011
3737.00,0.0010
3736.00,0.0011
3735.00,0.0011
3734.00,0.0011
3733.00,0.0012
3732.00,0.0012
3731.00,0.0012
3730.00,0.0012
3729.00,0.0012
3728.00,0.0012
3727.00,0.0012
3726.00,0.0012
3725.00,0.0012
3724.00,0.0012
3723.00,0.0012
3722.00,0.0012
3721.00,0.0012
3720.00,0.0012
3719.00,0.0012
3718.00,0.0011
3717.00,0.0011
3716.00,0.0011
3715.00,0.0011
3714.00,0.0011
3713.00,0.0011
3712.00,0.0011
3711.00,0.0011
3710.00,0.0011
3709.00,0.0011
3708.00,0.0011
3707.00,0.0011
3706.00,0.0012
3705.00,0.0012
3704.00,0.0012
3703.00,0.0012
3702.00,0.0012
3701.00,0.0012
3700.00,0.0012
3699.00,0.0012
3698.00,0.0012
3697.00,0.0012
3696.00,0.0012
3695.00,0.0012
3694.00,0.0012
3693.00,0.0012
3692.00,0.0011
3691.00,0.0011
3690.00,0.0011
3689.00,0.0012
3688.00,0.0012
3687.00,0.0012
3686.00,0.0012
3685.00,0.0012
3684.00,0.0012
3683.00,0.0012
3682.00,0.0012
3681.00,0.0012
3680.00,0.0012
3679.00,0.0013
3678.00,0.0013
3677.00,0.0013
3676.00,0.0013
3675.00,0.0012
3674.00,0.0012
3673.00,0.0011
3672.00,0.0011
3671.00,0.0011
3670.00,0.0011
3669.00,0.0011
3668.00,0.0011
3667.00,0.0011
3666.00,0.0011
3665.00,0.0011
3664.00,0.0011
3663.00,0.0010
3662.00,0.0010
3661.00,0.0010
3660.00,0.0010
3659.00,0.0010
3658.00,0.0010
3657.00,0.0010
3656.00,0.0010
3655.00,0.0010
3654.00,0.0010
3653.00,0.0010
3652.00,0.0009
3651.00,0.0009
3650.00,0.0009
3649.00,0.0010
3648.00,0.0011
3647.00,0.0012
3646.00,0.0012
3645.00,0.0012
3644.00,0.0012
3643.00,0.0012
3642.00,0.0012
3641.00,0.0012
3640.00,0.0011
3639.00,0.0011
3638.00,0.0011
3637.00,0.0011
3636.00,0.0011
3635.00,0.0010
3634.00,0.0010
3633.00,0.0010
3632.00,0.0010
3631.00,0.0010
3630.00,0.0010
3629.00,0.0010
3628.00,0.0010
3627.00,0.0010
3626.00,0.0009
3625.00,0.0009
3624.00,0.0010
3623.00,0.0010
3622.00,0.0010
3621.00,0.0010
3620.00,0.0010
3619.00,0.0010
3618.00,0.0010
3617.00,0.0010
3616.00,0.0010
3615.00,0.0010
3614.00,0.0010
3613.00,0.0010
3612.00,0.0010
3611.00,0.0010
3610.00,0.0010
3609.00,0.0010
3608.00,0.0010
3607.00,0.0010
3606.00,0.0010
3605.00,0.0010
3604.00,0.0010
3603.00,0.0010
3602.00,0.0010
3601.00,0.0010
3600.00,0.0010
3599.00,0.0010
3598.00,0.0010
3597.00,0.0011
3596.00,0.0011
3595.00,0.0010
3594.00,0.0010
3593.00,0.0010
3592.00,0.0010
3591.00,0.0010
3590.00,0.0011
3589.00,0.0011
3588.00,0.0011
3587.00,0.0012
3586.00,0.0012
3585.00,0.0012
3584.00,0.0012
3583.00,0.0011
3582.00,0.0011
3581.00,0.0010
3580.00,0.0010
3579.00,0.0010
3578.00,0.0010
3577.00,0.0010
3576.00,0.0011
3575.00,0.0011
3574.00,0.0011
3573.00,0.0012
3572.00,0.0012
3571.00,0.0012
3570.00,0.0012
3569.00,0.0011
3568.00,0.0011
3567.00,0.0011
3566.00,0.0011
3565.00,0.0012
3564.00,0.0012
3563.00,0.0012
3562.00,0.0012
3561.00,0.0012
3560.00,0.0012
3559.00,0.0012
3558.00,0.0012
3557.00,0.0012
3556.00,0.0013
3555.00,0.0013
3554.00,0.0013
3553.00,0.0013
3552.00,0.0013
3551.00,0.0013
3550.00,0.0013
3549.00,0.0013
3548.00,0.0013
3547.00,0.0013
3546.00,0.0013
3545.00,0.0013
3544.00,0.0014
3543.00,0.0014
3542.00,0.0014
3541.00,0.0014
3540.00,0.0014
3539.00,0.0014
3538.00,0.0014
3537.00,0.0014
3536.00,0.0014
3535.00,0.0014
3534.00,0.0014
3533.00,0.0014
3532.00,0.0015
3531.00,0.0015
3530.00,0.0015
3529.00,0.0015
3528.00,0.0015
3527.00,0.0015
3526.00,0.0015
3525.00,0.0015
3524.00,0.0015
3523.00,0.0015
3522.00,0.0015
3521.00,0.0016
3520.00,0.0015
3519.00,0.0015
3518.00,0.0015
3517.00,0.0016
3516.00,0.0016
3515.00,0.0016
3514.00,0.0016
3513.00,0.0017
3512.00,0.0017
3511.00,0.0017
3510.00,0.0017
3509.00,0.0016
3508.00,0.0016
3507.00,0.0016
3506.00,0.0016
3505.00,0.0016
3504.00,0.0017
3503.00,0.0017
3502.00,0.0017
3501.00,0.0017
3500.00,0.0017
3499.00,0.0017
3498.00,0.0017
3497.00,0.0017
3496.00,0.0017
3495.00,0.0017
3494.00,0.0017
3493.00,0.0016
3492.00,0.0016
3491.00,0.0017
3490.00,0.0017
3489.00,0.0017
3488.00,0.0017
3487.00,0.0017
3486.00,0.0017
3485.00,0.0018
3484.00,0.0018
3483.00,0.0018
3482.00,0.0018
3481.00,0.0018
3480.00,0.0018
3479.00,0.0018
3478.00,0.0018
3477.00,0.0018
3476.00,0.0018
3475.00,0.0018
3474.00,0.0019
3473.00,0.0019
3472.00,0.0019
3471.00,0.0019
3470.00,0.0019
3469.00,0.0019
3468.00,0.0019
3467.00,0.0019
3466.00,0.0019
3465.00,0.0019
3464.00,0.0019
3463.00,0.0019
3462.00,0.0020
3461.00,0.0020
3460.00,0.0020
3459.00,0.0020
3458.00,0.0020
3457.00,0.0019
3456.00,0.0019
3455.00,0.0019
3454.00,0.0019
3453.00,0.0019
3452.00,0.0020
3451.00,0.0020
3450.00,0.0020
3449.00,0.0020
3448.00,0.0020
3447.00,0.0020
3446.00,0.0020
3445.00,0.0020
3444.00,0.0020
3443.00,0.0020
3442.00,0.0021
3441.00,0.0021
3440.00,0.0021
3439.00,0.0021
3438.00,0.0021
3437.00,0.0021
3436.00,0.0022
3435.00,0.0021
3434.00,0.0021
3433.00,0.0021
3432.00,0.0021
3431.00,0.0021
3430.00,0.0021
3429.00,0.0021
3428.00,0.0022
3427.00,0.0022
3426.00,0.0022
3425.00,0.0022
3424.00,0.0022
3423.00,0.0022
3422.00,0.0022
3421.00,0.0022
3420.00,0.0023
3419.00,0.0023
3418.00,0.0023
3417.00,0.0023
3416.00,0.0023
3415.00,0.0022
3414.00,0.0022
3413.00,0.0022
3412.00,0.0022
3411.00,0.0022
3410.00,0.0022
3409.00,0.0023
3408.00,0.0023
3407.00,0.0024
3406.00,0.0024
3405.00,0.0024
3404.00,0.0024
3403.00,0.0024
3402.00,0.0024
3401.00,0.0024
3400.00,0.0024
3399.00,0.0025
3398.00,0.0025
3397.00,0.0025
3396.00,0.0025
3395.00,0.0025
3394.00,0.0025
3393.00,0.0025
3392.00,0.0025
3391.00,0.0024
3390.00,0.0024
3389.00,0.0024
3388.00,0.0024
3387.00,0.0024
3386.00,0.0024
3385.00,0.0024
3384.00,0.0024
3383.00,0.0024
3382.00,0.0024
3381.00,0.0024
3380.00,0.0024
3379.00,0.0024
3378.00,0.0024
3377.00,0.0024
3376.00,0.0024
3375.00,0.0024
3374.00,0.0024
3373.00,0.0024
3372.00,0.0024
3371.00,0.0024
3370.00,0.0024
3369.00,0.0024
3368.00,0.0024
3367.00,0.0024
3366.00,0.0024
3365.00,0.0024
3364.00,0.0024
3363.00,0.0024
3362.00,0.0024
3361.00,0.0024
3360.00,0.0024
3359.00,0.0024
3358.00,0.0024
3357.00,0.0024
3356.00,0.0024
3355.00,0.0024
3354.00,0.0024
3353.00,0.0024
3352.00,0.0024
3351.00,0.0024
3350.00,0.0024
3349.00,0.0024
3348.00,0.0024
3347.00,0.0024
3346.00,0.0024
3345.00,0.0024
3344.00,0.0024
3343.00,0.0024
3342.00,0.0023
3341.00,0.0023
3340.00,0.0023
3339.00,0.0024
3338.00,0.0024
3337.00,0.0024
3336.00,0.0024
3335.00,0.0024
3334.00,0.0023
3333.00,0.0023
3332.00,0.0023
3331.00,0.0022
3330.00,0.0022
3329.00,0.0022
3328.00,0.0023
3327.00,0.0023
3326.00,0.0023
3325.00,0.0023
3324.00,0.0023
3323.00,0.0023
3322.00,0.0022
3321.00,0.0022
3320.00,0.0022
3319.00,0.0022
3318.00,0.0022
3317.00,0.0022
3316.00,0.0022
3315.00,0.0022
3314.00,0.0022
3313.00,0.0022
3312.00,0.0022
3311.00,0.0022
3310.00,0.0022
3309.00,0.0022
3308.00,0.0023
3307.00,0.0023
3306.00,0.0023
3305.00,0.0023
3304.00,0.0022
3303.00,0.0022
3302.00,0.0022
3301.00,0.0023
3300.00,0.0023
3299.00,0.0023
3298.00,0.0023
3297.00,0.0023
3296.00,0.0023
3295.00,0.0023
3294.00,0.0023
3293.00,0.0023
3292.00,0.0023
3291.00,0.0022
3290.00,0.0022
3289.00,0.0022
3288.00,0.0022
3287.00,0.0022
3286.00,0.0021
3285.00,0.0021
3284.00,0.0022
3283.00,0.0022
3282.00,0.0022
3281.00,0.0023
3280.00,0.0023
3279.00,0.0023
3278.00,0.0023
3277.00,0.0022
3276.00,0.0022
3275.00,0.0021
3274.00,0.0021
3273.00,0.0021
3272.00,0.0021
3271.00,0.0022
3270.00,0.0022
3269.00,0.0022
3268.00,0.0022
3267.00,0.0022
3266.00,0.0022
3265.00,0.0022
3264.00,0.0022
3263.00,0.0022
3262.00,0.0022
3261.00,0.0022
3260.00,0.0021
3259.00,0.0021
3258.00,0.0021
3257.00,0.0021
3256.00,0.0021
3255.00,0.0021
3254.00,0.0021
3253.00,0.0021
3252.00,0.0021
3251.00,0.0021
3250.00,0.0021
3249.00,0.0021
3248.00,0.0021
3247.00,0.0020
3246.00,0.0020
3245.00,0.0020
3244.00,0.0020
3243.00,0.0021
3242.00,0.0021
3241.00,0.0022
3240.00,0.0022
3239.00,0.0022
3238.00,0.0021
3237.00,0.0022
3236.00,0.0022
3235.00,0.0022
3234.00,0.0022
3233.00,0.0022
3232.00,0.0022
3231.00,0.0022
3230.00,0.0022
3229.00,0.0023
3228.00,0.0023
3227.00,0.0024
3226.00,0.0024
3225.00,0.0024
3224.00,0.0024
3223.00,0.0024
3222.00,0.0024
3221.00,0.0024
3220.00,0.0024
3219.00,0.0024
3218.00,0.0025
3217.00,0.0025
3216.00,0.0025
3215.00,0.0026
3214.00,0.0026
3213.00,0.0027
3212.00,0.0027
3211.00,0.0028
3210.00,0.0028
3209.00,0.0029
3208.00,0.0029
3207.00,0.0029
3206.00,0.0028
3205.00,0.0028
3204.00,0.0029
3203.00,0.0029
3202.00,0.0029
3201.00,0.0030
3200.00,0.0030
3199.00,0.0030
3198.00,0.0031
3197.00,0.0031
3196.00,0.0030
3195.00,0.0030
3194.00,0.0029
3193.00,0.0029
3192.00,0.0029
3191.00,0.0030
3190.00,0.0030
3189.00,0.0030
3188.00,0.0030
3187.00,0.0030
3186.00,0.0030
3185.00,0.0029
3184.00,0.0029
3183.00,0.0028
3182.00,0.0028
3181.00,0.0028
3180.00,0.0028
3179.00,0.0028
3178.00,0.0028
3177.00,0.0028
3176.00,0.0027
3175.00,0.0027
3174.00,0.0026
3173.00,0.0026
3172.00,0.0026
3171.00,0.0026
3170.00,0.0026
3169.00,0.0027
3168.00,0.0027
3167.00,0.0027
3166.00,0.0027
3165.00,0.0027
3164.00,0.0027
3163.00,0.0027
3162.00,0.0027
3161.00,0.0026
3160.00,0.0026
3159.00,0.0027
3158.00,0.0027
3157.00,0.0027
3156.00,0.0028
3155.00,0.0028
3154.00,0.0027
3153.00,0.0027
3152.00,0.0027
3151.00,0.0027
3150.00,0.0028
3149.00,0.0028
3148.00,0.0028
3147.00,0.0028
3146.00,0.0028
3145.00,0.0028
3144.00,0.0028
3143.00,0.0027
3142.00,0.0027
3141.00,0.0027
3140.00,0.0027
3139.00,0.0027
3138.00,0.0027
3137.00,0.0027
3136.00,0.0027
3135.00,0.0027
3134.00,0.0027
3133.00,0.0027
3132.00,0.0027
3131.00,0.0027
3130.00,0.0026
3129.00,0.0026
3128.00,0.0026
3127.00,0.0025
3126.00,0.0025
3125.00,0.0025
3124.00,0.0025
3123.00,0.0025
3122.00,0.0024
3121.00,0.0024
3120.00,0.0024
3119.00,0.0024
3118.00,0.0023
3117.00,0.0023
3116.00,0.0023
3115.00,0.0023
3114.00,0.0023
3113.00,0.0023
3112.00,0.0023
3111.00,0.0023
3110.00,0.0024
3109.00,0.0023
3108.00,0.0023
3107.00,0.0023
3106.00,0.0023
3105.00,0.0023
3104.00,0.0023
3103.00,0.0023
3102.00,0.0023
3101.00,0.0022
3100.00,0.0022
3099.00,0.0023
3098.00,0.0023
3097.00,0.0023
3096.00,0.0023
3095.00,0.0023
3094.00,0.0023
3093.00,0.0023
3092.00,0.0022
3091.00,0.0022
3090.00,0.0022
3089.00,0.0022
3088.00,0.0022
3087.00,0.0022
3086.00,0.0022
3085.00,0.0023
3084.00,0.0023
3083.00,0.0023
3082.00,0.0024
3081.00,0.0024
3080.00,0.0024
3079.00,0.0024
3078.00,0.0024
3077.00,0.0024
3076.00,0.0024
3075.00,0.0024
3074.00,0.0024
3073.00,0.0024
3072.00,0.0024
3071.00,0.0024
3070.00,0.0024
3069.00,0.0024
3068.00,0.0025
3067.00,0.0025
3066.00,0.0025
3065.00,0.0025
3064.00,0.0025
3063.00,0.0025
3062.00,0.0025
3061.00,0.0026
3060.00,0.0026
3059.00,0.0026
3058.00,0.0026
3057.00,0.0026
3056.00,0.0026
3055.00,0.0026
3054.00,0.0027
3053.00,0.0027
3052.00,0.0027
3051.00,0.0027
3050.00,0.0028
3049.00,0.0028
3048.00,0.0029
3047.00,0.0029
3046.00,0.0029
3045.00,0.0030
3044.00,0.0029
3043.00,0.0029
3042.00,0.0029
3041.00,0.0030
3040.00,0.0030
3039.00,0.0031
3038.00,0.0031
3037.00,0.0031
3036.00,0.0032
3035.00,0.0032
3034.00,0.0032
3033.00,0.0032
3032.00,0.0033
3031.00,0.0033
3030.00,0.0033
3029.00,0.0033
3028.00,0.0034
3027.00,0.0034
3026.00,0.0035
3025.00,0.0036
3024.00,0.0038
3023.00,0.0039
3022.00,0.0039
3021.00,0.0040
3020.00,0.0040
3019.00,0.0041
3018.00,0.0042
3017.00,0.0043
3016.00,0.0044
3015.00,0.0045
3014.00,0.0047
3013.00,0.0048
3012.00,0.0049
3011.00,0.0050
3010.00,0.0051
3009.00,0.0052
3008.00,0.0054
3007.00,0.0055
3006.00,0.0057
3005.00,0.0059
3004.00,0.0061
3003.00,0.0063
3002.00,0.0065
3001.00,0.0067
3000.00,0.0070
2999.00,0.0073
2998.00,0.0076
2997.00,0.0079
2996.00,0.0083
2995.00,0.0087
2994.00,0.0092
2993.00,0.0097
2992.00,0.0102
2991.00,0.0107
2990.00,0.0113
2989.00,0.0120
2988.00,0.0128
2987.00,0.0137
2986.00,0.0147
2985.00,0.0158
2984.00,0.0171
2983.00,0.0185
2982.00,0.0201
2981.00,0.0219
2980.00,0.0239
2979.00,0.0262
2978.00,0.0288
2977.00,0.0318
2976.00,0.0353
2975.00,0.0394
2974.00,0.0440
2973.00,0.0493
2972.00,0.0553
2971.00,0.0621
2970.00,0.0696
2969.00,0.0779
2968.00,0.0869
2967.00,0.0966
2966.00,0.1068
2965.00,0.1172
2964.00,0.1273
2963.00,0.1366
2962.00,0.1444
2961.00,0.1505
2960.00,0.1550
2959.00,0.1581
2958.00,0.1608
2957.00,0.1637
2956.00,0.1677
2955.00,0.1730
2954.00,0.1796
2953.00,0.1867
2952.00,0.1931
2951.00,0.1974
2950.00,0.1983
2949.00,0.1949
2948.00,0.1873
2947.00,0.1761
2946.00,0.1628
2945.00,0.1488
2944.00,0.1357
2943.00,0.1243
2942.00,0.1153
2941.00,0.1090
2940.00,0.1051
2939.00,0.1036
2938.00,0.1041
2937.00,0.1065
2936.00,0.1106
2935.00,0.1163
2934.00,0.1234
2933.00,0.1318
2932.00,0.1413
2931.00,0.1518
2930.00,0.1629
2929.00,0.1744
2928.00,0.1860
2927.00,0.1974
2926.00,0.2085
2925.00,0.2193
2924.00,0.2299
2923.00,0.2404
2922.00,0.2508
2921.00,0.2607
2920.00,0.2693
2919.00,0.2756
2918.00,0.2784
2917.00,0.2770
2916.00,0.2715
2915.00,0.2628
2914.00,0.2521
2913.00,0.2409
2912.00,0.2302
2911.00,0.2205
2910.00,0.2121
2909.00,0.2048
2908.00,0.1982
2907.00,0.1918
2906.00,0.1855
2905.00,0.1790
2904.00,0.1722
2903.00,0.1654
2902.00,0.1585
2901.00,0.1516
2900.00,0.1450
2899.00,0.1387
2898.00,0.1328
2897.00,0.1274
2896.00,0.1226
2895.00,0.1184
2894.00,0.1149
2893.00,0.1121
2892.00,0.1098
2891.00,0.1082
2890.00,0.1072
2889.00,0.1065
2888.00,0.1063
2887.00,0.1063
2886.00,0.1067
2885.00,0.1075
2884.00,0.1087
2883.00,0.1103
2882.00,0.1122
2881.00,0.1142
2880.00,0.1161
2879.00,0.1176
2878.00,0.1183
2877.00,0.1182
2876.00,0.1175
2875.00,0.1166
2874.00,0.1159
2873.00,0.1159
2872.00,0.1168
2871.00,0.1184
2870.00,0.1204
2869.00,0.1224
2868.00,0.1234
2867.00,0.1229
2866.00,0.1201
2865.00,0.1150
2864.00,0.1078
2863.00,0.0996
2862.00,0.0915
2861.00,0.0842
2860.00,0.0784
2859.00,0.0743
2858.00,0.0717
2857.00,0.0705
2856.00,0.0705
2855.00,0.0713
2854.00,0.0729
2853.00,0.0749
2852.00,0.0773
2851.00,0.0796
2850.00,0.0818
2849.00,0.0838
2848.00,0.0858
2847.00,0.0883
2846.00,0.0916
2845.00,0.0959
2844.00,0.1013
2843.00,0.1074
2842.00,0.1137
2841.00,0.1195
2840.00,0.1239
2839.00,0.1261
2838.00,0.1254
2837.00,0.1215
2836.00,0.1146
2835.00,0.1053
2834.00,0.0945
2833.00,0.0835
2832.00,0.0731
2831.00,0.0639
2830.00,0.0562
2829.00,0.0498
2828.00,0.0446
2827.00,0.0404
2826.00,0.0370
2825.00,0.0341
2824.00,0.0317
2823.00,0.0297
2822.00,0.0280
2821.00,0.0265
2820.00,0.0252
2819.00,0.0240
2818.00,0.0230
2817.00,0.0221
2816.00,0.0213
2815.00,0.0206
2814.00,0.0200
2813.00,0.0195
2812.00,0.0190
2811.00,0.0185
2810.00,0.0179
2809.00,0.0173
2808.00,0.0167
2807.00,0.0161
2806.00,0.0154
2805.00,0.0148
2804.00,0.0141
2803.00,0.0135
2802.00,0.0130
2801.00,0.0125
2800.00,0.0122
2799.00,0.0119
2798.00,0.0116
2797.00,0.0114
2796.00,0.0112
2795.00,0.0109
2794.00,0.0107
2793.00,0.0104
2792.00,0.0101
2791.00,0.0098
2790.00,0.0094
2789.00,0.0091
2788.00,0.0088
2787.00,0.0084
2786.00,0.0082
2785.00,0.0079
2784.00,0.0076
2783.00,0.0074
2782.00,0.0072
2781.00,0.0070
2780.00,0.0068
2779.00,0.0066
2778.00,0.0065
2777.00,0.0063
2776.00,0.0062
2775.00,0.0061
2774.00,0.0060
2773.00,0.0059
2772.00,0.0059
2771.00,0.0058
2770.00,0.0058
2769.00,0.0057
2768.00,0.0057
2767.00,0.0056
2766.00,0.0056
2765.00,0.0056
2764.00,0.0056
2763.00,0.0056
2762.00,0.0055
2761.00,0.0055
2760.00,0.0054
2759.00,0.0054
2758.00,0.0054
2757.00,0.0054
2756.00,0.0055
2755.00,0.0055
2754.00,0.0054
2753.00,0.0054
2752.00,0.0054
2751.00,0.0054
2750.00,0.0054
2749.00,0.0054
2748.00,0.0054
2747.00,0.0054
2746.00,0.0054
2745.00,0.0055
2744.00,0.0055
2743.00,0.0056
2742.00,0.0057
2741.00,0.0058
2740.00,0.0059
2739.00,0.0060
2738.00,0.0061
2737.00,0.0062
2736.00,0.0063
2735.00,0.0065
2734.00,0.0067
2733.00,0.0068
2732.00,0.0070
2731.00,0.0072
2730.00,0.0075
2729.00,0.0077
2728.00,0.0080
2727.00,0.0082
2726.00,0.0085
2725.00,0.0088
2724.00,0.0090
2723.00,0.0090
2722.00,0.0090
2721.00,0.0088
2720.00,0.0085
2719.00,0.0082
2718.00,0.0078
2717.00,0.0075
2716.00,0.0072
2715.00,0.0069
2714.00,0.0067
2713.00,0.0065
2712.00,0.0063
2711.00,0.0061
2710.00,0.0059
2709.00,0.0058
2708.00,0.0056
2707.00,0.0055
2706.00,0.0054
2705.00,0.0052
2704.00,0.0051
2703.00,0.0051
2702.00,0.0050
2701.00,0.0049
2700.00,0.0049
2699.00,0.0048
2698.00,0.0048
2697.00,0.0047
2696.00,0.0047
2695.00,0.0047
2694.00,0.0047
2693.00,0.0047
2692.00,0.0048
2691.00,0.0048
2690.00,0.0048
2689.00,0.0047
2688.00,0.0047
2687.00,0.0047
2686.00,0.0047
2685.00,0.0047
2684.00,0.0047
2683.00,0.0047
2682.00,0.0047
2681.00,0.0048
2680.00,0.0048
2679.00,0.0048
2678.00,0.0048
2677.00,0.0048
2676.00,0.0048
2675.00,0.0048
2674.00,0.0048
2673.00,0.0048
2672.00,0.0048
2671.00,0.0048
2670.00,0.0047
2669.00,0.0047
2668.00,0.0047
2667.00,0.0047
2666.00,0.0047
2665.00,0.0048
2664.00,0.0048
2663.00,0.0049
2662.00,0.0049
2661.00,0.0050
2660.00,0.0050
2659.00,0.0050
2658.00,0.0050
2657.00,0.0049
2656.00,0.0049
2655.00,0.0049
2654.00,0.0048
2653.00,0.0048
2652.00,0.0047
2651.00,0.0047
2650.00,0.0046
2649.00,0.0045
2648.00,0.0045
2647.00,0.0044
2646.00,0.0044
2645.00,0.0044
2644.00,0.0044
2643.00,0.0043
2642.00,0.0043
2641.00,0.0043
2640.00,0.0042
2639.00,0.0042
2638.00,0.0042
2637.00,0.0041
2636.00,0.0041
2635.00,0.0041
2634.00,0.0041
2633.00,0.0041
2632.00,0.0041
2631.00,0.0041
2630.00,0.0041
2629.00,0.0041
2628.00,0.0041
2627.00,0.0041
2626.00,0.0041
2625.00,0.0041
2624.00,0.0041
2623.00,0.0041
2622.00,0.0042
2621.00,0.0042
2620.00,0.0043
2619.00,0.0043
2618.00,0.0043
2617.00,0.0043
2616.00,0.0043
2615.00,0.0043
2614.00,0.0043
2613.00,0.0042
2612.00,0.0042
2611.00,0.0041
2610.00,0.0040
2609.00,0.0039
2608.00,0.0039
2607.00,0.0039
2606.00,0.0038
2605.00,0.0038
2604.00,0.0037
2603.00,0.0035
2602.00,0.0034
2601.00,0.0033
2600.00,0.0033
2599.00,0.0033
2598.00,0.0033
2597.00,0.0033
2596.00,0.0034
2595.00,0.0034
2594.00,0.0034
2593.00,0.0034
2592.00,0.0035
2591.00,0.0035
2590.00,0.0036
2589.00,0.0036
2588.00,0.0038
2587.00,0.0039
2586.00,0.0040
2585.00,0.0041
2584.00,0.0041
2583.00,0.0041
2582.00,0.0041
2581.00,0.0041
2580.00,0.0041
2579.00,0.0040
2578.00,0.0038
2577.00,0.0037
2576.00,0.0036
2575.00,0.0036
2574.00,0.0035
2573.00,0.0034
2572.00,0.0032
2571.00,0.0032
2570.00,0.0031
2569.00,0.0030
2568.00,0.0030
2567.00,0.0029
2566.00,0.0028
2565.00,0.0027
2564.00,0.0026
2563.00,0.0025
2562.00,0.0025
2561.00,0.0025
2560.00,0.0026
2559.00,0.0026
2558.00,0.0025
2557.00,0.0025
2556.00,0.0025
2555.00,0.0025
2554.00,0.0025
2553.00,0.0025
2552.00,0.0025
2551.00,0.0025
2550.00,0.0024
2549.00,0.0023
2548.00,0.0022
2547.00,0.0021
2546.00,0.0021
2545.00,0.0021
2544.00,0.0021
2543.00,0.0020
2542.00,0.0020
2541.00,0.0020
2540.00,0.0020
2539.00,0.0020
2538.00,0.0020
2537.00,0.0020
2536.00,0.0020
2535.00,0.0019
2534.00,0.0019
2533.00,0.0018
2532.00,0.0018
2531.00,0.0019
2530.00,0.0019
2529.00,0.0019
2528.00,0.0018
2527.00,0.0018
2526.00,0.0017
2525.00,0.0016
2524.00,0.0016
2523.00,0.0016
2522.00,0.0017
2521.00,0.0017
2520.00,0.0017
2519.00,0.0016
2518.00,0.0016
2517.00,0.0016
2516.00,0.0016
2515.00,0.0015
2514.00,0.0014
2513.00,0.0013
2512.00,0.0013
2511.00,0.0013
2510.00,0.0013
2509.00,0.0014
2508.00,0.0014
2507.00,0.0014
2506.00,0.0014
2505.00,0.0013
2504.00,0.0013
2503.00,0.0013
2502.00,0.0013
2501.00,0.0013
2500.00,0.0013
2499.00,0.0013
2498.00,0.0013
2497.00,0.0014
2496.00,0.0014
2495.00,0.0014
2494.00,0.0014
2493.00,0.0014
2492.00,0.0014
2491.00,0.0014
2490.00,0.0013
2489.00,0.0013
2488.00,0.0012
2487.00,0.0011
2486.00,0.0012
2485.00,0.0012
2484.00,0.0012
2483.00,0.0013
2482.00,0.0013
2481.00,0.0013
2480.00,0.0013
2479.00,0.0012
2478.00,0.0012
2477.00,0.0011
2476.00,0.0011
2475.00,0.0011
2474.00,0.0012
2473.00,0.0012
2472.00,0.0012
2471.00,0.0011
2470.00,0.0011
2469.00,0.0011
2468.00,0.0011
2467.00,0.0011
2466.00,0.0011
2465.00,0.0010
2464.00,0.0010
2463.00,0.0011
2462.00,0.0011
2461.00,0.0011
2460.00,0.0012
2459.00,0.0012
2458.00,0.0013
2457.00,0.0013
2456.00,0.0013
2455.00,0.0013
2454.00,0.0012
2453.00,0.0012
2452.00,0.0013
2451.00,0.0014
2450.00,0.0014
2449.00,0.0015
2448.00,0.0015
2447.00,0.0015
2446.00,0.0015
2445.00,0.0015
2444.00,0.0015
2443.00,0.0014
2442.00,0.0014
2441.00,0.0013
2440.00,0.0013
2439.00,0.0014
2438.00,0.0014
2437.00,0.0014
2436.00,0.0013
2435.00,0.0013
2434.00,0.0013
2433.00,0.0014
2432.00,0.0015
2431.00,0.0015
2430.00,0.0016
2429.00,0.0016
2428.00,0.0015
2427.00,0.0015
2426.00,0.0014
2425.00,0.0014
2424.00,0.0013
2423.00,0.0013
2422.00,0.0013
2421.00,0.0013
2420.00,0.0013
2419.00,0.0013
2418.00,0.0013
2417.00,0.0013
2416.00,0.0013
2415.00,0.0012
2414.00,0.0012
2413.00,0.0012
2412.00,0.0012
2411.00,0.0011
2410.00,0.0011
2409.00,0.0012
2408.00,0.0012
2407.00,0.0012
2406.00,0.0012
2405.00,0.0012
2404.00,0.0012
2403.00,0.0012
2402.00,0.0012
2401.00,0.0013
2400.00,0.0013
2399.00,0.0013
2398.00,0.0012
2397.00,0.0012
2396.00,0.0012
2395.00,0.0011
2394.00,0.0011
2393.00,0.0011
2392.00,0.0011
2391.00,0.0010
2390.00,0.0009
2389.00,0.0008
2388.00,0.0008
2387.00,0.0008
2386.00,0.0008
2385.00,0.0008
2384.00,0.0007
2383.00,0.0006
2382.00,0.0005
2381.00,0.0004
2380.00,0.0004
2379.00,0.0004
2378.00,0.0004
2377.00,0.0004
2376.00,0.0004
2375.00,0.0004
2374.00,0.0004
2373.00,0.0004
2372.00,0.0004
2371.00,0.0005
2370.00,0.0005
2369.00,0.0005
2368.00,0.0005
2367.00,0.0004
2366.00,0.0003
2365.00,0.0003
2364.00,0.0003
2363.00,0.0004
2362.00,0.0005
2361.00,0.0005
2360.00,0.0005
2359.00,0.0005
2358.00,0.0005
2357.00,0.0006
2356.00,0.0007
2355.00,0.0007
2354.00,0.0007
2353.00,0.0006
2352.00,0.0005
2351.00,0.0005
2350.00,0.0006
2349.00,0.0006
2348.00,0.0007
2347.00,0.0006
2346.00,0.0006
2345.00,0.0006
2344.00,0.0006
2343.00,0.0007
2342.00,0.0008
2341.00,0.0008
2340.00,0.0009
2339.00,0.0008
2338.00,0.0008
2337.00,0.0008
2336.00,0.0007
2335.00,0.0007
2334.00,0.0007
2333.00,0.0007
2332.00,0.0007
2331.00,0.0007
2330.00,0.0007
2329.00,0.0008
2328.00,0.0009
2327.00,0.0012
2326.00,0.0016
2325.00,0.0019
2324.00,0.0020
2323.00,0.0019
2322.00,0.0017
2321.00,0.0015
2320.00,0.0013
2319.00,0.0012
2318.00,0.0011
2317.00,0.0010
2316.00,0.0010
2315.00,0.0011
2314.00,0.0011
2313.00,0.0010
2312.00,0.0010
2311.00,0.0009
2310.00,0.0008
2309.00,0.0008
2308.00,0.0008
2307.00,0.0007
2306.00,0.0007
2305.00,0.0007
2304.00,0.0007
2303.00,0.0007
2302.00,0.0008
2301.00,0.0009
2300.00,0.0010
2299.00,0.0011
2298.00,0.0012
2297.00,0.0013
2296.00,0.0013
2295.00,0.0014
2294.00,0.0015
2293.00,0.0016
2292.00,0.0016
2291.00,0.0017
2290.00,0.0017
2289.00,0.0017
2288.00,0.0018
2287.00,0.0019
2286.00,0.0020
2285.00,0.0020
2284.00,0.0020
2283.00,0.0019
2282.00,0.0017
2281.00,0.0016
2280.00,0.0015
2279.00,0.0015
2278.00,0.0015
2277.00,0.0015
2276.00,0.0015
2275.00,0.0015
2274.00,0.0015
2273.00,0.0015
2272.00,0.0015
2271.00,0.0015
2270.00,0.0015
2269.00,0.0015
2268.00,0.0015
2267.00,0.0014
2266.00,0.0013
2265.00,0.0012
2264.00,0.0011
2263.00,0.0011
2262.00,0.0011
2261.00,0.0012
2260.00,0.0013
2259.00,0.0014
2258.00,0.0014
2257.00,0.0014
2256.00,0.0013
2255.00,0.0012
2254.00,0.0010
2253.00,0.0009
2252.00,0.0009
2251.00,0.0009
2250.00,0.0009
2249.00,0.0010
2248.00,0.0011
2247.00,0.0011
2246.00,0.0011
2245.00,0.0011
2244.00,0.0012
2243.00,0.0012
2242.00,0.0011
2241.00,0.0010
2240.00,0.0009
2239.00,0.0009
2238.00,0.0009
2237.00,0.0009
2236.00,0.0010
2235.00,0.0010
2234.00,0.0009
2233.00,0.0009
2232.00,0.0009
2231.00,0.0009
2230.00,0.0009
2229.00,0.0009
2228.00,0.0009
2227.00,0.0009
2226.00,0.0009
2225.00,0.0008
2224.00,0.0006
2223.00,0.0005
2222.00,0.0003
2221.00,0.0003
2220.00,0.0004
2219.00,0.0005
2218.00,0.0007
2217.00,0.0009
2216.00,0.0010
2215.00,0.0011
2214.00,0.0010
2213.00,0.0009
2212.00,0.0008
2211.00,0.0008
2210.00,0.0008
2209.00,0.0008
2208.00,0.0009
2207.00,0.0009
2206.00,0.0009
2205.00,0.0009
2204.00,0.0008
2203.00,0.0007
2202.00,0.0006
2201.00,0.0007
2200.00,0.0008
2199.00,0.0009
2198.00,0.0010
2197.00,0.0010
2196.00,0.0010
2195.00,0.0010
2194.00,0.0012
2193.00,0.0014
2192.00,0.0015
2191.00,0.0016
2190.00,0.0016
2189.00,0.0015
2188.00,0.0013
2187.00,0.0013
2186.00,0.0012
2185.00,0.0012
2184.00,0.0010
2183.00,0.0009
2182.00,0.0008
2181.00,0.0008
2180.00,0.0009
2179.00,0.0010
2178.00,0.0009
2177.00,0.0006
2176.00,0.0002
2175.00,-0.0001
2174.00,-0.0001
2173.00,0.0002
2172.00,0.0006
2171.00,0.0011
2170.00,0.0013
2169.00,0.0014
2168.00,0.0013
2167.00,0.0011
2166.00,0.0010
2165.00,0.0010
2164.00,0.0010
2163.00,0.0011
2162.00,0.0011
2161.00,0.0008
2160.00,0.0000
2159.00,-0.0013
2158.00,-0.0024
2157.00,-0.0030
2156.00,-0.0030
2155.00,-0.0026
2154.00,-0.0022
2153.00,-0.0019
2152.00,-0.0018
2151.00,-0.0016
2150.00,-0.0015
2149.00,-0.0011
2148.00,-0.0008
2147.00,-0.0005
2146.00,-0.0004
2145.00,-0.0004
2144.00,-0.0005
2143.00,-0.0006
2142.00,-0.0007
2141.00,-0.0007
2140.00,-0.0007
2139.00,-0.0006
2138.00,-0.0006
2137.00,-0.0007
2136.00,-0.0010
2135.00,-0.0014
2134.00,-0.0017
2133.00,-0.0017
2132.00,-0.0016
2131.00,-0.0012
2130.00,-0.0008
2129.00,-0.0005
2128.00,-0.0004
2127.00,-0.0003
2126.00,-0.0004
2125.00,-0.0004
2124.00,-0.0004
2123.00,-0.0003
2122.00,-0.0003
2121.00,-0.0002
2120.00,-0.0001
2119.00,-0.0001
2118.00,-0.0000
2117.00,0.0000
2116.00,0.0001
2115.00,0.0001
2114.00,0.0001
2113.00,0.0002
2112.00,0.0002
2111.00,0.0002
2110.00,0.0003
2109.00,0.0003
2108.00,0.0003
2107.00,0.0002
2106.00,-0.0000
2105.00,-0.0001
2104.00,0.0000
2103.00,0.0002
2102.00,0.0005
2101.00,0.0005
2100.00,0.0004
2099.00,0.0003
2098.00,0.0002
2097.00,0.0001
2096.00,-0.0000
2095.00,-0.0001
2094.00,-0.0003
2093.00,-0.0004
2092.00,-0.0004
2091.00,-0.0002
2090.00,-0.0000
2089.00,0.0002
2088.00,0.0004
2087.00,0.0005
2086.00,0.0006
2085.00,0.0005
2084.00,0.0004
2083.00,0.0003
2082.00,0.0002
2081.00,0.0002
2080.00,0.0002
2079.00,0.0001
2078.00,0.0001
2077.00,0.0001
2076.00,0.0001
2075.00,0.0002
2074.00,0.0002
2073.00,0.0002
2072.00,0.0003
2071.00,0.0003
2070.00,0.0003
2069.00,0.0002
2068.00,0.0001
2067.00,0.0000
2066.00,-0.0001
2065.00,-0.0001
2064.00,-0.0000
2063.00,0.0000
2062.00,0.0001
2061.00,0.0002
2060.00,0.0004
2059.00,0.0004
2058.00,0.0003
2057.00,0.0002
2056.00,0.0001
2055.00,0.0000
2054.00,0.0001
2053.00,0.0004
2052.00,0.0008
2051.00,0.0011
2050.00,0.0011
2049.00,0.0008
2048.00,0.0004
2047.00,0.0002
2046.00,0.0002
2045.00,0.0003
2044.00,0.0006
2043.00,0.0008
2042.00,0.0009
2041.00,0.0008
2040.00,0.0007
2039.00,0.0006
2038.00,0.0005
2037.00,0.0003
2036.00,0.0000
2035.00,-0.0003
2034.00,-0.0005
2033.00,-0.0003
2032.00,-0.0001
2031.00,-0.0001
2030.00,-0.0002
2029.00,-0.0005
2028.00,-0.0007
2027.00,-0.0008
2026.00,-0.0007
2025.00,-0.0006
2024.00,-0.0003
2023.00,-0.0001
2022.00,0.0000
2021.00,0.0000
2020.00,-0.0002
2019.00,-0.0005
2018.00,-0.0007
2017.00,-0.0007
2016.00,-0.0004
2015.00,-0.0003
2014.00,-0.0005
2013.00,-0.0007
2012.00,-0.0008
2011.00,-0.0008
2010.00,-0.0008
2009.00,-0.0009
2008.00,-0.0011
2007.00,-0.0013
2006.00,-0.0014
2005.00,-0.0013
2004.00,-0.0013
2003.00,-0.0013
2002.00,-0.0014
2001.00,-0.0016
2000.00,-0.0017
1999.00,-0.0017
1998.00,-0.0016
1997.00,-0.0013
1996.00,-0.0011
1995.00,-0.0010
1994.00,-0.0010
1993.00,-0.0008
1992.00,-0.0007
1991.00,-0.0006
1990.00,-0.0006
1989.00,-0.0006
1988.00,-0.0004
1987.00,-0.0003
1986.00,-0.0001
1985.00,0.0000
1984.00,0.0002
1983.00,0.0003
1982.00,0.0005
1981.00,0.0008
1980.00,0.0008
1979.00,0.0005
1978.00,-0.0000
1977.00,-0.0007
1976.00,-0.0013
1975.00,-0.0015
1974.00,-0.0016
1973.00,-0.0014
1972.00,-0.0013
1971.00,-0.0014
1970.00,-0.0016
1969.00,-0.0017
1968.00,-0.0016
1967.00,-0.0013
1966.00,-0.0011
1965.00,-0.0011
1964.00,-0.0011
1963.00,-0.0013
1962.00,-0.0013
1961.00,-0.0013
1960.00,-0.0013
1959.00,-0.0015
1958.00,-0.0017
1957.00,-0.0018
1956.00,-0.0018
1955.00,-0.0018
1954.00,-0.0017
1953.00,-0.0017
1952.00,-0.0016
1951.00,-0.0017
1950.00,-0.0016
1949.00,-0.0015
1948.00,-0.0014
1947.00,-0.0013
1946.00,-0.0013
1945.00,-0.0015
1944.00,-0.0017
1943.00,-0.0018
1942.00,-0.0017
1941.00,-0.0014
1940.00,-0.0010
1939.00,-0.0008
1938.00,-0.0007
1937.00,-0.0008
1936.00,-0.0009
1935.00,-0.0010
1934.00,-0.0011
1933.00,-0.0010
1932.00,-0.0009
1931.00,-0.0008
1930.00,-0.0008
1929.00,-0.0007
1928.00,-0.0007
1927.00,-0.0006
1926.00,-0.0006
1925.00,-0.0005
1924.00,-0.0005
1923.00,-0.0005
1922.00,-0.0005
1921.00,-0.0005
1920.00,-0.0004
1919.00,-0.0004
1918.00,-0.0004
1917.00,-0.0004
1916.00,-0.0003
1915.00,-0.0003
1914.00,-0.0004
1913.00,-0.0004
1912.00,-0.0003
1911.00,-0.0002
1910.00,-0.0002
1909.00,-0.0002
1908.00,-0.0002
1907.00,-0.0002
1906.00,-0.0003
1905.00,-0.0003
1904.00,-0.0003
1903.00,-0.0002
1902.00,-0.0002
1901.00,-0.0001
1900.00,-0.0001
1899.00,-0.0000
1898.00,-0.0000
1897.00,0.0000
1896.00,0.0001
1895.00,0.0001
1894.00,0.0000
1893.00,-0.0001
1892.00,-0.0002
1891.00,-0.0003
1890.00,-0.0003
1889.00,-0.0002
1888.00,-0.0000
1887.00,0.0000
1886.00,0.0000
1885.00,0.0001
1884.00,0.0001
1883.00,0.0001
1882.00,0.0001
1881.00,0.0000
1880.00,-0.0000
1879.00,-0.0001
1878.00,-0.0001
1877.00,-0.0001
1876.00,-0.0000
1875.00,0.0000
1874.00,0.0001
1873.00,0.0001
1872.00,0.0000
1871.00,-0.0000
1870.00,-0.0001
1869.00,-0.0001
1868.00,-0.0001
1867.00,-0.0001
1866.00,-0.0001
1865.00,-0.0000
1864.00,0.0000
1863.00,0.0001
1862.00,0.0001
1861.00,0.0000
1860.00,0.0000
1859.00,0.0001
1858.00,0.0001
1857.00,0.0002
1856.00,0.0002
1855.00,0.0002
1854.00,0.0002
1853.00,0.0002
1852.00,0.0003
1851.00,0.0002
1850.00,0.0002
1849.00,0.0002
1848.00,0.0002
1847.00,0.0002
1846.00,0.0001
1845.00,0.0001
1844.00,0.0001
1843.00,0.0002
1842.00,0.0003
1841.00,0.0004
1840.00,0.0005
1839.00,0.0004
1838.00,0.0004
1837.00,0.0003
1836.00,0.0003
1835.00,0.0003
1834.00,0.0003
1833.00,0.0003
1832.00,0.0003
1831.00,0.0003
1830.00,0.0003
1829.00,0.0003
1828.00,0.0003
1827.00,0.0004
1826.00,0.0004
1825.00,0.0005
1824.00,0.0005
1823.00,0.0004
1822.00,0.0003
1821.00,0.0003
1820.00,0.0002
1819.00,0.0001
1818.00,0.0000
1817.00,0.0000
1816.00,0.0001
1815.00,0.0001
1814.00,0.0002
1813.00,0.0002
1812.00,0.0002
1811.00,0.0002
1810.00,0.0003
1809.00,0.0004
1808.00,0.0004
1807.00,0.0005
1806.00,0.0005
1805.00,0.0005
1804.00,0.0005
1803.00,0.0006
1802.00,0.0006
1801.00,0.0006
1800.00,0.0005
1799.00,0.0005
1798.00,0.0004
1797.00,0.0003
1796.00,0.0004
1795.00,0.0004
1794.00,0.0005
1793.00,0.0006
1792.00,0.0006
1791.00,0.0007
1790.00,0.0007
1789.00,0.0008
1788.00,0.0008
1787.00,0.0008
1786.00,0.0008
1785.00,0.0008
1784.00,0.0008
1783.00,0.0008
1782.00,0.0009
1781.00,0.0008
1780.00,0.0008
1779.00,0.0008
1778.00,0.0007
1777.00,0.0007
1776.00,0.0006
1775.00,0.0006
1774.00,0.0007
1773.00,0.0007
1772.00,0.0008
1771.00,0.0008
1770.00,0.0009
1769.00,0.0009
1768.00,0.0010
1767.00,0.0010
1766.00,0.0010
1765.00,0.0010
1764.00,0.0010
1763.00,0.0010
1762.00,0.0010
1761.00,0.0010
1760.00,0.0010
1759.00,0.0011
1758.00,0.0011
1757.00,0.0012
1756.00,0.0012
1755.00,0.0013
1754.00,0.0013
1753.00,0.0014
1752.00,0.0014
1751.00,0.0014
1750.00,0.0013
1749.00,0.0013
1748.00,0.0014
1747.00,0.0014
1746.00,0.0014
1745.00,0.0015
1744.00,0.0015
1743.00,0.0015
1742.00,0.0015
1741.00,0.0015
1740.00,0.0015
1739.00,0.0016
1738.00,0.0016
1737.00,0.0016
1736.00,0.0016
1735.00,0.0016
1734.00,0.0015
1733.00,0.0015
1732.00,0.0016
1731.00,0.0016
1730.00,0.0017
1729.00,0.0017
1728.00,0.0017
1727.00,0.0017
1726.00,0.0017
1725.00,0.0017
1724.00,0.0017
1723.00,0.0017
1722.00,0.0016
1721.00,0.0016
1720.00,0.0016
1719.00,0.0017
1718.00,0.0017
1717.00,0.0018
1716.00,0.0019
1715.00,0.0019
1714.00,0.0019
1713.00,0.0019
1712.00,0.0019
1711.00,0.0019
1710.00,0.0019
1709.00,0.0019
1708.00,0.0019
1707.00,0.0019
1706.00,0.0020
1705.00,0.0020
1704.00,0.0021
1703.00,0.0021
1702.00,0.0021
1701.00,0.0021
1700.00,0.0021
1699.00,0.0021
1698.00,0.0021
1697.00,0.0022
1696.00,0.0022
1695.00,0.0022
1694.00,0.0022
1693.00,0.0022
1692.00,0.0023
1691.00,0.0023
1690.00,0.0022
1689.00,0.0022
1688.00,0.0022
1687.00,0.0023
1686.00,0.0023
1685.00,0.0023
1684.00,0.0023
1683.00,0.0024
1682.00,0.0024
1681.00,0.0024
1680.00,0.0025
1679.00,0.0025
1678.00,0.0025
1677.00,0.0026
1676.00,0.0026
1675.00,0.0027
1674.00,0.0027
1673.00,0.0027
1672.00,0.0027
1671.00,0.0027
1670.00,0.0028
1669.00,0.0028
1668.00,0.0028
1667.00,0.0028
1666.00,0.0028
1665.00,0.0028
1664.00,0.0028
1663.00,0.0029
1662.00,0.0029
1661.00,0.0029
1660.00,0.0029
1659.00,0.0029
1658.00,0.0029
1657.00,0.0029
1656.00,0.0029
1655.00,0.0029
1654.00,0.0029
1653.00,0.0031
1652.00,0.0032
1651.00,0.0033
1650.00,0.0034
1649.00,0.0036
1648.00,0.0037
1647.00,0.0038
1646.00,0.0039
1645.00,0.0038
1644.00,0.0037
1643.00,0.0037
1642.00,0.0036
1641.00,0.0036
1640.00,0.0036
1639.00,0.0036
1638.00,0.0036
1637.00,0.0035
1636.00,0.0035
1635.00,0.0035
1634.00,0.0035
1633.00,0.0036
1632.00,0.0036
1631.00,0.0037
1630.00,0.0037
1629.00,0.0037
1628.00,0.0037
1627.00,0.0037
1626.00,0.0036
1625.00,0.0036
1624.00,0.0035
1623.00,0.0035
1622.00,0.0034
1621.00,0.0034
1620.00,0.0034
1619.00,0.0034
1618.00,0.0034
1617.00,0.0034
1616.00,0.0034
1615.00,0.0034
1614.00,0.0034
1613.00,0.0034
1612.00,0.0034
1611.00,0.0034
1610.00,0.0033
1609.00,0.0033
1608.00,0.0033
1607.00,0.0034
1606.00,0.0034
1605.00,0.0034
1604.00,0.0034
1603.00,0.0034
1602.00,0.0034
1601.00,0.0033
1600.00,0.0033
1599.00,0.0034
1598.00,0.0034
1597.00,0.0034
1596.00,0.0034
1595.00,0.0034
1594.00,0.0034
1593.00,0.0034
1592.00,0.0035
1591.00,0.0035
1590.00,0.0035
1589.00,0.0035
1588.00,0.0036
1587.00,0.0036
1586.00,0.0036
1585.00,0.0037
1584.00,0.0038
1583.00,0.0040
1582.00,0.0041
1581.00,0.0042
1580.00,0.0043
1579.00,0.0044
1578.00,0.0044
1577.00,0.0045
1576.00,0.0044
1575.00,0.0044
1574.00,0.0043
1573.00,0.0043
1572.00,0.0043
1571.00,0.0042
1570.00,0.0041
1569.00,0.0039
1568.00,0.0038
1567.00,0.0038
1566.00,0.0037
1565.00,0.0037
1564.00,0.0038
1563.00,0.0038
1562.00,0.0039
1561.00,0.0040
1560.00,0.0040
1559.00,0.0039
1558.00,0.0038
1557.00,0.0038
1556.00,0.0038
1555.00,0.0038
1554.00,0.0038
1553.00,0.0038
1552.00,0.0038
1551.00,0.0039
1550.00,0.0040
1549.00,0.0041
1548.00,0.0042
1547.00,0.0042
1546.00,0.0043
1545.00,0.0044
1544.00,0.0046
1543.00,0.0048
1542.00,0.0049
1541.00,0.0050
1540.00,0.0050
1539.00,0.0048
1538.00,0.0046
1537.00,0.0045
1536.00,0.0045
1535.00,0.0044
1534.00,0.0042
1533.00,0.0041
1532.00,0.0041
1531.00,0.0041
1530.00,0.0041
1529.00,0.0041
1528.00,0.0041
1527.00,0.0041
1526.00,0.0040
1525.00,0.0040
1524.00,0.0041
1523.00,0.0042
1522.00,0.0042
1521.00,0.0042
1520.00,0.0043
1519.00,0.0043
1518.00,0.0043
1517.00,0.0044
1516.00,0.0044
1515.00,0.0044
1514.00,0.0045
1513.00,0.0046
1512.00,0.0047
1511.00,0.0047
1510.00,0.0048
1509.00,0.0048
1508.00,0.0049
1507.00,0.0050
1506.00,0.0052
1505.00,0.0054
1504.00,0.0056
1503.00,0.0057
1502.00,0.0058
1501.00,0.0060
1500.00,0.0062
1499.00,0.0063
1498.00,0.0065
1497.00,0.0068
1496.00,0.0072
1495.00,0.0075
1494.00,0.0077
1493.00,0.0080
1492.00,0.0083
1491.00,0.0086
1490.00,0.0090
1489.00,0.0095
1488.00,0.0100
1487.00,0.0105
1486.00,0.0110
1485.00,0.0117
1484.00,0.0124
1483.00,0.0131
1482.00,0.0139
1481.00,0.0150
1480.00,0.0162
1479.00,0.0174
1478.00,0.0190
1477.00,0.0210
1476.00,0.0235
1475.00,0.0263
1474.00,0.0303
1473.00,0.0360
1472.00,0.0428
1471.00,0.0493
1470.00,0.0554
1469.00,0.0619
1468.00,0.0689
1467.00,0.0766
1466.00,0.0855
1465.00,0.0951
1464.00,0.1035
1463.00,0.1092
1462.00,0.1129
1461.00,0.1155
1460.00,0.1173
1459.00,0.1185
1458.00,0.1195
1457.00,0.1203
1456.00,0.1204
1455.00,0.1198
1454.00,0.1188
1453.00,0.1173
1452.00,0.1148
1451.00,0.1113
1450.00,0.1063
1449.00,0.0992
1448.00,0.0902
1447.00,0.0805
1446.00,0.0717
1445.00,0.0642
1444.00,0.0577
1443.00,0.0524
1442.00,0.0484
1441.00,0.0455
1440.00,0.0437
1439.00,0.0428
1438.00,0.0428
1437.00,0.0428
1436.00,0.0418
1435.00,0.0393
1434.00,0.0358
1433.00,0.0316
1432.00,0.0271
1431.00,0.0232
1430.00,0.0201
1429.00,0.0179
1428.00,0.0164
1427.00,0.0154
1426.00,0.0148
1425.00,0.0141
1424.00,0.0135
1423.00,0.0131
1422.00,0.0129
1421.00,0.0126
1420.00,0.0122
1419.00,0.0119
1418.00,0.0116
1417.00,0.0113
1416.00,0.0111
1415.00,0.0110
1414.00,0.0110
1413.00,0.0109
1412.00,0.0107
1411.00,0.0106
1410.00,0.0105
1409.00,0.0104
1408.00,0.0103
1407.00,0.0103
1406.00,0.0103
1405.00,0.0102
1404.00,0.0102
1403.00,0.0102
1402.00,0.0104
1401.00,0.0105
1400.00,0.0106
1399.00,0.0108
1398.00,0.0110
1397.00,0.0112
1396.00,0.0114
1395.00,0.0118
1394.00,0.0123
1393.00,0.0129
1392.00,0.0134
1391.00,0.0142
1390.00,0.0153
1389.00,0.0167
1388.00,0.0187
1387.00,0.0220
1386.00,0.0264
1385.00,0.0322
1384.00,0.0401
1383.00,0.0511
1382.00,0.0659
1381.00,0.0849
1380.00,0.1085
1379.00,0.1355
1378.00,0.1618
1377.00,0.1813
1376.00,0.1878
1375.00,0.1780
1374.00,0.1548
1373.00,0.1271
1372.00,0.1022
1371.00,0.0818
1370.00,0.0655
1369.00,0.0533
1368.00,0.0448
1367.00,0.0396
1366.00,0.0367
1365.00,0.0355
1364.00,0.0357
1363.00,0.0371
1362.00,0.0392
1361.00,0.0415
1360.00,0.0432
1359.00,0.0437
1358.00,0.0427
1357.00,0.0402
1356.00,0.0366
1355.00,0.0326
1354.00,0.0288
1353.00,0.0255
1352.00,0.0229
1351.00,0.0207
1350.00,0.0189
1349.00,0.0174
1348.00,0.0162
1347.00,0.0151
1346.00,0.0142
1345.00,0.0135
1344.00,0.0129
1343.00,0.0124
1342.00,0.0120
1341.00,0.0116
1340.00,0.0114
1339.00,0.0111
1338.00,0.0110
1337.00,0.0110
1336.00,0.0112
1335.00,0.0114
1334.00,0.0117
1333.00,0.0121
1332.00,0.0125
1331.00,0.0128
1330.00,0.0129
1329.00,0.0128
1328.00,0.0125
1327.00,0.0120
1326.00,0.0115
1325.00,0.0110
1324.00,0.0105
1323.00,0.0100
1322.00,0.0096
1321.00,0.0092
1320.00,0.0090
1319.00,0.0087
1318.00,0.0085
1317.00,0.0084
1316.00,0.0083
1315.00,0.0082
1314.00,0.0082
1313.00,0.0082
1312.00,0.0083
1311.00,0.0085
1310.00,0.0089
1309.00,0.0096
1308.00,0.0106
1307.00,0.0119
1306.00,0.0132
1305.00,0.0141
1304.00,0.0143
1303.00,0.0140
1302.00,0.0133
1301.00,0.0127
1300.00,0.0124
1299.00,0.0122
1298.00,0.0122
1297.00,0.0123
1296.00,0.0122
1295.00,0.0119
1294.00,0.0115
1293.00,0.0110
1292.00,0.0105
1291.00,0.0100
1290.00,0.0095
1289.00,0.0091
1288.00,0.0087
1287.00,0.0085
1286.00,0.0082
1285.00,0.0081
1284.00,0.0079
1283.00,0.0077
1282.00,0.0076
1281.00,0.0075
1280.00,0.0074
1279.00,0.0073
1278.00,0.0072
1277.00,0.0072
1276.00,0.0071
1275.00,0.0071
1274.00,0.0071
1273.00,0.0072
1272.00,0.0072
1271.00,0.0072
1270.00,0.0073
1269.00,0.0074
1268.00,0.0075
1267.00,0.0077
1266.00,0.0079
1265.00,0.0081
1264.00,0.0084
1263.00,0.0087
1262.00,0.0090
1261.00,0.0095
1260.00,0.0101
1259.00,0.0109
1258.00,0.0118
1257.00,0.0125
1256.00,0.0129
1255.00,0.0127
1254.00,0.0121
1253.00,0.0111
1252.00,0.0101
1251.00,0.0093
1250.00,0.0087
1249.00,0.0082
1248.00,0.0079
1247.00,0.0077
1246.00,0.0076
1245.00,0.0074
1244.00,0.0073
1243.00,0.0072
1242.00,0.0071
1241.00,0.0070
1240.00,0.0069
1239.00,0.0068
1238.00,0.0068
1237.00,0.0067
1236.00,0.0067
1235.00,0.0068
1234.00,0.0068
1233.00,0.0068
1232.00,0.0068
1231.00,0.0068
1230.00,0.0069
1229.00,0.0071
1228.00,0.0072
1227.00,0.0074
1226.00,0.0076
1225.00,0.0078
1224.00,0.0081
1223.00,0.0083
1222.00,0.0086
1221.00,0.0089
1220.00,0.0090
1219.00,0.0091
1218.00,0.0091
1217.00,0.0089
1216.00,0.0087
1215.00,0.0084
1214.00,0.0081
1213.00,0.0078
1212.00,0.0076
1211.00,0.0075
1210.00,0.0073
1209.00,0.0071
1208.00,0.0069
1207.00,0.0068
1206.00,0.0068
1205.00,0.0068
1204.00,0.0068
1203.00,0.0067
1202.00,0.0067
1201.00,0.0067
1200.00,0.0067
1199.00,0.0067
1198.00,0.0067
1197.00,0.0067
1196.00,0.0067
1195.00,0.0067
1194.00,0.0066
1193.00,0.0066
1192.00,0.0066
1191.00,0.0067
1190.00,0.0067
1189.00,0.0067
1188.00,0.0067
1187.00,0.0067
1186.00,0.0068
1185.00,0.0069
1184.00,0.0071
1183.00,0.0073
1182.00,0.0076
1181.00,0.0079
1180.00,0.0083
1179.00,0.0088
1178.00,0.0095
1177.00,0.0104
1176.00,0.0117
1175.00,0.0133
1174.00,0.0155
1173.00,0.0182
1172.00,0.0215
1171.00,0.0252
1170.00,0.0288
1169.00,0.0316
1168.00,0.0332
1167.00,0.0334
1166.00,0.0323
1165.00,0.0305
1164.00,0.0285
1163.00,0.0265
1162.00,0.0247
1161.00,0.0233
1160.00,0.0222
1159.00,0.0213
1158.00,0.0206
1157.00,0.0201
1156.00,0.0197
1155.00,0.0195
1154.00,0.0192
1153.00,0.0189
1152.00,0.0183
1151.00,0.0176
1150.00,0.0167
1149.00,0.0156
1148.00,0.0147
1147.00,0.0138
1146.00,0.0129
1145.00,0.0120
1144.00,0.0112
1143.00,0.0105
1142.00,0.0098
1141.00,0.0092
1140.00,0.0087
1139.00,0.0083
1138.00,0.0079
1137.00,0.0076
1136.00,0.0073
1135.00,0.0070
1134.00,0.0068
1133.00,0.0066
1132.00,0.0066
1131.00,0.0065
1130.00,0.0065
1129.00,0.0064
1128.00,0.0063
1127.00,0.0062
1126.00,0.0062
1125.00,0.0062
1124.00,0.0063
1123.00,0.0064
1122.00,0.0065
1121.00,0.0065
1120.00,0.0065
1119.00,0.0065
1118.00,0.0065
1117.00,0.0065
1116.00,0.0066
1115.00,0.0068
1114.00,0.0070
1113.00,0.0072
1112.00,0.0074
1111.00,0.0076
1110.00,0.0079
1109.00,0.0082
1108.00,0.0087
1107.00,0.0092
1106.00,0.0098
1105.00,0.0104
1104.00,0.0110
1103.00,0.0113
1102.00,0.0112
1101.00,0.0108
1100.00,0.0102
1099.00,0.0097
1098.00,0.0092
1097.00,0.0087
1096.00,0.0083
1095.00,0.0078
1094.00,0.0075
1093.00,0.0072
1092.00,0.0070
1091.00,0.0069
1090.00,0.0068
1089.00,0.0068
1088.00,0.0067
1087.00,0.0067
1086.00,0.0066
1085.00,0.0066
1084.00,0.0065
1083.00,0.0064
1082.00,0.0064
1081.00,0.0063
1080.00,0.0062
1079.00,0.0060
1078.00,0.0059
1077.00,0.0059
1076.00,0.0058
1075.00,0.0058
1074.00,0.0058
1073.00,0.0058
1072.00,0.0059
1071.00,0.0059
1070.00,0.0059
1069.00,0.0059
1068.00,0.0058
1067.00,0.0058
1066.00,0.0058
1065.00,0.0059
1064.00,0.0059
1063.00,0.0059
1062.00,0.0058
1061.00,0.0058
1060.00,0.0058
1059.00,0.0059
1058.00,0.0060
1057.00,0.0062
1056.00,0.0062
1055.00,0.0063
1054.00,0.0063
1053.00,0.0064
1052.00,0.0066
1051.00,0.0067
1050.00,0.0070
1049.00,0.0073
1048.00,0.0077
1047.00,0.0080
1046.00,0.0083
1045.00,0.0085
1044.00,0.0085
1043.00,0.0083
1042.00,0.0081
1041.00,0.0079
1040.00,0.0077
1039.00,0.0075
1038.00,0.0074
1037.00,0.0073
1036.00,0.0073
1035.00,0.0072
1034.00,0.0071
1033.00,0.0070
1032.00,0.0068
1031.00,0.0067
1030.00,0.0066
1029.00,0.0066
1028.00,0.0066
1027.00,0.0067
1026.00,0.0068
1025.00,0.0068
1024.00,0.0068
1023.00,0.0068
1022.00,0.0068
1021.00,0.0069
1020.00,0.0070
1019.00,0.0071
1018.00,0.0072
1017.00,0.0074
1016.00,0.0076
1015.00,0.0077
1014.00,0.0080
1013.00,0.0083
1012.00,0.0086
1011.00,0.0090
1010.00,0.0095
1009.00,0.0100
1008.00,0.0105
1007.00,0.0112
1006.00,0.0121
1005.00,0.0135
1004.00,0.0154
1003.00,0.0181
1002.00,0.0216
1001.00,0.0260
1000.00,0.0306
999.00,0.0344
998.00,0.0364
997.00,0.0357
996.00,0.0327
995.00,0.0283
994.00,0.0237
993.00,0.0198
992.00,0.0167
991.00,0.0145
990.00,0.0130
989.00,0.0120
988.00,0.0113
987.00,0.0109
986.00,0.0109
985.00,0.0110
984.00,0.0115
983.00,0.0122
982.00,0.0134
981.00,0.0151
980.00,0.0175
979.00,0.0207
978.00,0.0247
977.00,0.0294
976.00,0.0344
975.00,0.0392
974.00,0.0428
973.00,0.0440
972.00,0.0424
971.00,0.0381
970.00,0.0323
969.00,0.0264
968.00,0.0214
967.00,0.0177
966.00,0.0151
965.00,0.0133
964.00,0.0120
963.00,0.0111
962.00,0.0103
961.00,0.0097
960.00,0.0092
959.00,0.0088
958.00,0.0084
957.00,0.0080
956.00,0.0078
955.00,0.0076
954.00,0.0074
953.00,0.0073
952.00,0.0072
951.00,0.0071
950.00,0.0071
949.00,0.0070
948.00,0.0069
947.00,0.0069
946.00,0.0071
945.00,0.0073
944.00,0.0076
943.00,0.0079
942.00,0.0081
941.00,0.0083
940.00,0.0082
939.00,0.0080
938.00,0.0076
937.00,0.0071
936.00,0.0066
935.00,0.0063
934.00,0.0060
933.00,0.0058
932.00,0.0057
931.00,0.0056
930.00,0.0055
929.00,0.0055
928.00,0.0055
927.00,0.0056
926.00,0.0056
925.00,0.0057
924.00,0.0056
923.00,0.0055
922.00,0.0054
921.00,0.0054
920.00,0.0054
919.00,0.0055
918.00,0.0057
917.00,0.0058
916.00,0.0059
915.00,0.0060
914.00,0.0060
913.00,0.0060
912.00,0.0061
911.00,0.0062
910.00,0.0064
909.00,0.0066
908.00,0.0069
907.00,0.0074
906.00,0.0081
905.00,0.0091
904.00,0.0105
903.00,0.0123
902.00,0.0142
901.00,0.0159
900.00,0.0170
899.00,0.0172
898.00,0.0164
897.00,0.0149
896.00,0.0130
895.00,0.0112
894.00,0.0098
893.00,0.0088
892.00,0.0081
891.00,0.0075
890.00,0.0072
889.00,0.0069
888.00,0.0067
887.00,0.0066
886.00,0.0066
885.00,0.0065
884.00,0.0064
883.00,0.0064
882.00,0.0065
881.00,0.0067
880.00,0.0068
879.00,0.0069
878.00,0.0070
877.00,0.0071
876.00,0.0073
875.00,0.0074
874.00,0.0074
873.00,0.0074
872.00,0.0073
871.00,0.0072
870.00,0.0072
869.00,0.0073
868.00,0.0073
867.00,0.0073
866.00,0.0073
865.00,0.0074
864.00,0.0074
863.00,0.0076
862.00,0.0078
861.00,0.0080
860.00,0.0081
859.00,0.0081
858.00,0.0081
857.00,0.0082
856.00,0.0083
855.00,0.0085
854.00,0.0088
853.00,0.0091
852.00,0.0095
851.00,0.0100
850.00,0.0105
849.00,0.0112
848.00,0.0122
847.00,0.0137
846.00,0.0160
845.00,0.0195
844.00,0.0245
843.00,0.0303
842.00,0.0349
841.00,0.0363
840.00,0.0335
839.00,0.0281
838.00,0.0223
837.00,0.0179
836.00,0.0150
835.00,0.0133
834.00,0.0122
833.00,0.0115
832.00,0.0109
831.00,0.0104
830.00,0.0099
829.00,0.0096
828.00,0.0093
827.00,0.0092
826.00,0.0090
825.00,0.0089
824.00,0.0087
823.00,0.0086
822.00,0.0087
821.00,0.0090
820.00,0.0093
819.00,0.0097
818.00,0.0100
817.00,0.0105
816.00,0.0112
815.00,0.0123
814.00,0.0138
813.00,0.0156
812.00,0.0176
811.00,0.0193
810.00,0.0205
809.00,0.0209
808.00,0.0204
807.00,0.0191
806.00,0.0175
805.00,0.0157
804.00,0.0142
803.00,0.0129
802.00,0.0118
801.00,0.0110
800.00,0.0105
799.00,0.0102
798.00,0.0099
797.00,0.0096
796.00,0.0092
795.00,0.0087
794.00,0.0083
793.00,0.0080
792.00,0.0078
791.00,0.0075
790.00,0.0072
789.00,0.0069
788.00,0.0066
787.00,0.0063
786.00,0.0061
785.00,0.0058
784.00,0.0056
783.00,0.0054
782.00,0.0053
781.00,0.0053
780.00,0.0053
779.00,0.0054
778.00,0.0053
777.00,0.0051
776.00,0.0049
775.00,0.0048
774.00,0.0048
773.00,0.0050
772.00,0.0052
771.00,0.0054
770.00,0.0054
769.00,0.0053
768.00,0.0051
767.00,0.0050
766.00,0.0051
765.00,0.0052
764.00,0.0052
763.00,0.0052
762.00,0.0052
761.00,0.0052
760.00,0.0052
759.00,0.0053
758.00,0.0053
757.00,0.0054
756.00,0.0055
755.00,0.0055
754.00,0.0056
753.00,0.0056
752.00,0.0057
751.00,0.0057
750.00,0.0057
749.00,0.0056
748.00,0.0055
747.00,0.0055
746.00,0.0057
745.00,0.0060
744.00,0.0063
743.00,0.0066
742.00,0.0067
741.00,0.0068
740.00,0.0069
739.00,0.0070
738.00,0.0071
737.00,0.0072
736.00,0.0075
735.00,0.0079
734.00,0.0084
733.00,0.0089
732.00,0.0096
731.00,0.0102
730.00,0.0107
729.00,0.0109
728.00,0.0110
727.00,0.0110
726.00,0.0112
725.00,0.0114
724.00,0.0118
723.00,0.0124
722.00,0.0131
721.00,0.0135
720.00,0.0135
719.00,0.0130
718.00,0.0120
717.00,0.0107
716.00,0.0096
715.00,0.0086
714.00,0.0080
713.00,0.0075
712.00,0.0072
711.00,0.0068
710.00,0.0065
709.00,0.0063
708.00,0.0061
707.00,0.0061
706.00,0.0060
705.00,0.0059
704.00,0.0058
703.00,0.0057
702.00,0.0056
701.00,0.0055
700.00,0.0053
699.00,0.0052
698.00,0.0050
697.00,0.0048
696.00,0.0046
695.00,0.0045
694.00,0.0045
693.00,0.0046
692.00,0.0045
691.00,0.0044
690.00,0.0043
689.00,0.0043
688.00,0.0044
687.00,0.0046
686.00,0.0047
685.00,0.0047
684.00,0.0046
683.00,0.0045
682.00,0.0043
681.00,0.0042
680.00,0.0041
679.00,0.0041
678.00,0.0042
677.00,0.0043
676.00,0.0044
675.00,0.0045
674.00,0.0044
673.00,0.0043
672.00,0.0042
671.00,0.0042
670.00,0.0044
669.00,0.0046
668.00,0.0050
667.00,0.0052
666.00,0.0051
665.00,0.0049
664.00,0.0047
663.00,0.0044
662.00,0.0042
661.00,0.0042
660.00,0.0042
659.00,0.0044
658.00,0.0045
657.00,0.0046
656.00,0.0047
655.00,0.0047
654.00,0.0047
653.00,0.0045
652.00,0.0042
651.00,0.0040
650.00,0.0038
649.00,0.0038
648.00,0.0039
647.00,0.0040
646.00,0.0042
645.00,0.0042
644.00,0.0043
643.00,0.0045
642.00,0.0046
641.00,0.0046
640.00,0.0047
639.00,0.0048
638.00,0.0050
637.00,0.0050
636.00,0.0048
635.00,0.0046
634.00,0.0044
633.00,0.0045
632.00,0.0046
631.00,0.0048
630.00,0.0047
629.00,0.0046
628.00,0.0045
627.00,0.0046
626.00,0.0047
625.00,0.0046
624.00,0.0045
623.00,0.0044
622.00,0.0046
621.00,0.0048
620.00,0.0050
619.00,0.0051
618.00,0.0052
617.00,0.0051
616.00,0.0050
615.00,0.0047
614.00,0.0044
613.00,0.0042
612.00,0.0043
611.00,0.0048
610.00,0.0053
609.00,0.0056
608.00,0.0055
607.00,0.0052
606.00,0.0050
605.00,0.0049
604.00,0.0049
603.00,0.0047
602.00,0.0046
601.00,0.0047
600.00,0.0049
599.00,0.0051
598.00,0.0050
597.00,0.0049
596.00,0.0050
595.00,0.0052
594.00,0.0054
593.00,0.0054
592.00,0.0052
591.00,0.0051
590.00,0.0051
589.00,0.0052
588.00,0.0052
587.00,0.0050
586.00,0.0048
585.00,0.0047
584.00,0.0049
583.00,0.0053
582.00,0.0055
581.00,0.0054
580.00,0.0051
579.00,0.0049
578.00,0.0050
577.00,0.0050
576.00,0.0050
575.00,0.0051
574.00,0.0052
573.00,0.0053
572.00,0.0055
571.00,0.0057
570.00,0.0058
569.00,0.0058
568.00,0.0055
567.00,0.0052
566.00,0.0050
565.00,0.0049
564.00,0.0049
563.00,0.0050
562.00,0.0053
561.00,0.0056
560.00,0.0057
559.00,0.0056
558.00,0.0055
557.00,0.0053
556.00,0.0049
555.00,0.0045
554.00,0.0041
553.00,0.0041
552.00,0.0042
551.00,0.0044
550.00,0.0046
549.00,0.0049
548.00,0.0051
547.00,0.0053
546.00,0.0056
545.00,0.0057
544.00,0.0056
543.00,0.0055
542.00,0.0054
541.00,0.0054
540.00,0.0055
539.00,0.0056
538.00,0.0059
537.00,0.0063
536.00,0.0069
535.00,0.0074
534.00,0.0078
533.00,0.0079
532.00,0.0076
531.00,0.0075
530.00,0.0078
529.00,0.0086
528.00,0.0094
527.00,0.0097
526.00,0.0093
525.00,0.0084
524.00,0.0076
523.00,0.0068
522.00,0.0062
521.00,0.0056
520.00,0.0054
519.00,0.0056
518.00,0.0061
517.00,0.0064
516.00,0.0064
515.00,0.0065
514.00,0.0069
513.00,0.0075
512.00,0.0077
511.00,0.0075
510.00,0.0071
509.00,0.0069
508.00,0.0068
507.00,0.0064
506.00,0.0060
505.00,0.0058
504.00,0.0059
503.00,0.0061
502.00,0.0061
501.00,0.0058
500.00,0.0056
499.00,0.0058
498.00,0.0063
497.00,0.0068
496.00,0.0071
495.00,0.0072
494.00,0.0068
493.00,0.0060
492.00,0.0052
491.00,0.0048
490.00,0.0049
489.00,0.0052
488.00,0.0056
487.00,0.0059
486.00,0.0060
485.00,0.0057
484.00,0.0052
483.00,0.0049
482.00,0.0050
481.00,0.0055
480.00,0.0061
479.00,0.0067
478.00,0.0073
477.00,0.0079
476.00,0.0085
475.00,0.0087
474.00,0.0085
473.00,0.0080
472.00,0.0075
471.00,0.0072
470.00,0.0073
469.00,0.0075
468.00,0.0080
467.00,0.0086
466.00,0.0096
465.00,0.0108
464.00,0.0121
463.00,0.0133
462.00,0.0140
461.00,0.0142
460.00,0.0138
459.00,0.0130
458.00,0.0123
457.00,0.0124
456.00,0.0134
455.00,0.0146
454.00,0.0151
453.00,0.0149
452.00,0.0141
451.00,0.0132
450.00,0.0122
