Created as New Dataset,Sample 149 By Administrator Date Friday, September 05 2025
cm-1,A
4000.00,0.0011
3999.00,0.0011
3998.00,0.0011
3997.00,0.0011
3996.00,0.0011
3995.00,0.0011
3994.00,0.0011
3993.00,0.0011
3992.00,0.0011
3991.00,0.0011
3990.00,0.0011
3989.00,0.0011
3988.00,0.0011
3987.00,0.0011
3986.00,0.0011
3985.00,0.0010
3984.00,0.0010
3983.00,0.0010
3982.00,0.0011
3981.00,0.0011
3980.00,0.0011
3979.00,0.0011
3978.00,0.0010
3977.00,0.0010
3976.00,0.0010
3975.00,0.0010
3974.00,0.0010
3973.00,0.0010
3972.00,0.0010
3971.00,0.0010
3970.00,0.0010
3969.00,0.0010
3968.00,0.0010
3967.00,0.0010
3966.00,0.0010
3965.00,0.0010
3964.00,0.0009
3963.00,0.0009
3962.00,0.0009
3961.00,0.0009
3960.00,0.0010
3959.00,0.0010
3958.00,0.0010
3957.00,0.0010
3956.00,0.0010
3955.00,0.0009
3954.00,0.0009
3953.00,0.0009
3952.00,0.0010
3951.00,0.0010
3950.00,0.0010
3949.00,0.0009
3948.00,0.0009
3947.00,0.0009
3946.00,0.0009
3945.00,0.0009
3944.00,0.0009
3943.00,0.0009
3942.00,0.0010
3941.00,0.0010
3940.00,0.0009
3939.00,0.0009
3938.00,0.0009
3937.00,0.0009
3936.00,0.0009
3935.00,0.0009
3934.00,0.0009
3933.00,0.0009
3932.00,0.0010
3931.00,0.0010
3930.00,0.0010
3929.00,0.0010
3928.00,0.0010
3927.00,0.0010
3926.00,0.0010
3925.00,0.0010
3924.00,0.0010
3923.00,0.0010
3922.00,0.0009
3921.00,0.0009
3920.00,0.0009
3919.00,0.0009
3918.00,0.0009
3917.00,0.0009
3916.00,0.0009
3915.00,0.0009
3914.00,0.0009
3913.00,0.0009
3912.00,0.0009
3911.00,0.0009
3910.00,0.0009
3909.00,0.0009
3908.00,0.0010
3907.00,0.0010
3906.00,0.0010
3905.00,0.0010
3904.00,0.0010
3903.00,0.0009
3902.00,0.0009
3901.00,0.0009
3900.00,0.0009
3899.00,0.0009
3898.00,0.0009
3897.00,0.0009
3896.00,0.0009
3895.00,0.0009
3894.00,0.0009
3893.00,0.0009
3892.00,0.0009
3891.00,0.0009
3890.00,0.0009
3889.00,0.0010
3888.00,0.0010
3887.00,0.0010
3886.00,0.0010
3885.00,0.0010
3884.00,0.0010
3883.00,0.0010
3882.00,0.0009
3881.00,0.0009
3880.00,0.0009
3879.00,0.0010
3878.00,0.0010
3877.00,0.0009
3876.00,0.0009
3875.00,0.0009
3874.00,0.0009
3873.00,0.0009
3872.00,0.0008
3871.00,0.0008
3870.00,0.0008
3869.00,0.0009
3868.00,0.0010
3867.00,0.0009
3866.00,0.0009
3865.00,0.0009
3864.00,0.0009
3863.00,0.0009
3862.00,0.0008
3861.00,0.0008
3860.00,0.0008
3859.00,0.0008
3858.00,0.0009
3857.00,0.0010
3856.00,0.0010
3855.00,0.0010
3854.00,0.0010
3853.00,0.0010
3852.00,0.0011
3851.00,0.0010
3850.00,0.0010
3849.00,0.0009
3848.00,0.0009
3847.00,0.0009
3846.00,0.0009
3845.00,0.0009
3844.00,0.0009
3843.00,0.0009
3842.00,0.0009
3841.00,0.0009
3840.00,0.0010
3839.00,0.0010
3838.00,0.0010
3837.00,0.0010
3836.00,0.0010
3835.00,0.0009
3834.00,0.0009
3833.00,0.0008
3832.00,0.0008
3831.00,0.0008
3830.00,0.0008
3829.00,0.0009
3828.00,0.0008
3827.00,0.0008
3826.00,0.0009
3825.00,0.0009
3824.00,0.0009
3823.00,0.0009
3822.00,0.0009
3821.00,0.0009
3820.00,0.0009
3819.00,0.0009
3818.00,0.0009
3817.00,0.0009
3816.00,0.0009
3815.00,0.0009
3814.00,0.0009
3813.00,0.0009
3812.00,0.0009
3811.00,0.0009
3810.00,0.0009
3809.00,0.0009
3808.00,0.0008
3807.00,0.0009
3806.00,0.0009
3805.00,0.0010
3804.00,0.0010
3803.00,0.0010
3802.00,0.0010
3801.00,0.0010
3800.00,0.0010
3799.00,0.0010
3798.00,0.0009
3797.00,0.0009
3796.00,0.0009
3795.00,0.0009
3794.00,0.0008
3793.00,0.0008
3792.00,0.0008
3791.00,0.0008
3790.00,0.0009
3789.00,0.0009
3788.00,0.0009
3787.00,0.0009
3786.00,0.0009
3785.00,0.0009
3784.00,0.0009
3783.00,0.0009
3782.00,0.0009
3781.00,0.0009
3780.00,0.0009
3779.00,0.0009
3778.00,0.0009
3777.00,0.0009
3776.00,0.0009
3775.00,0.0010
3774.00,0.0010
3773.00,0.0010
3772.00,0.0010
3771.00,0.0010
3770.00,0.0010
3769.00,0.0010
3768.00,0.0010
3767.00,0.0009
3766.00,0.0009
3765.00,0.0009
3764.00,0.0009
3763.00,0.0009
3762.00,0.0009
3761.00,0.0009
3760.00,0.0009
3759.00,0.0009
3758.00,0.0009
3757.00,0.0010
3756.00,0.0010
3755.00,0.0010
3754.00,0.0010
3753.00,0.0010
3752.00,0.0010
3751.00,0.0009
3750.00,0.0010
3749.00,0.0010
3748.00,0.0011
3747.00,0.0011
3746.00,0.0010
3745.00,0.0009
3744.00,0.0009
3743.00,0.0009
3742.00,0.0008
3741.00,0.0008
3740.00,0.0008
3739.00,0.0008
3738.00,0.0008
3737.00,0.0008
3736.00,0.0009
3735.00,0.0009
3734.00,0.0009
3733.00,0.0009
3732.00,0.0008
3731.00,0.0008
3730.00,0.0008
3729.00,0.0008
3728.00,0.0007
3727.00,0.0007
3726.00,0.0008
3725.00,0.0008
3724.00,0.0008
3723.00,0.0008
3722.00,0.0008
3721.00,0.0008
3720.00,0.0008
3719.00,0.0008
3718.00,0.0008
3717.00,0.0008
3716.00,0.0008
3715.00,0.0008
3714.00,0.0008
3713.00,0.0008
3712.00,0.0009
3711.00,0.0009
3710.00,0.0009
3709.00,0.0009
3708.00,0.0009
3707.00,0.0009
3706.00,0.0010
3705.00,0.0010
3704.00,0.0009
3703.00,0.0009
3702.00,0.0009
3701.00,0.0008
3700.00,0.0008
3699.00,0.0008
3698.00,0.0009
3697.00,0.0009
3696.00,0.0010
3695.00,0.0011
3694.00,0.0011
3693.00,0.0011
3692.00,0.0012
3691.00,0.0011
3690.00,0.0011
3689.00,0.0010
3688.00,0.0010
3687.00,0.0010
3686.00,0.0011
3685.00,0.0011
3684.00,0.0011
3683.00,0.0012
3682.00,0.0012
3681.00,0.0012
3680.00,0.0013
3679.00,0.0013
3678.00,0.0013
3677.00,0.0013
3676.00,0.0013
3675.00,0.0013
3674.00,0.0013
3673.00,0.0013
3672.00,0.0013
3671.00,0.0013
3670.00,0.0013
3669.00,0.0013
3668.00,0.0013
3667.00,0.0013
3666.00,0.0013
3665.00,0.0013
3664.00,0.0012
3663.00,0.0012
3662.00,0.0012
3661.00,0.0013
3660.00,0.0013
3659.00,0.0013
3658.00,0.0013
3657.00,0.0013
3656.00,0.0013
3655.00,0.0014
3654.00,0.0015
3653.00,0.0015
3652.00,0.0015
3651.00,0.0015
3650.00,0.0015
3649.00,0.0015
3648.00,0.0016
3647.00,0.0016
3646.00,0.0016
3645.00,0.0016
3644.00,0.0016
3643.00,0.0016
3642.00,0.0017
3641.00,0.0017
3640.00,0.0018
3639.00,0.0018
3638.00,0.0019
3637.00,0.0020
3636.00,0.0021
3635.00,0.0021
3634.00,0.0021
3633.00,0.0021
3632.00,0.0021
3631.00,0.0020
3630.00,0.0020
3629.00,0.0020
3628.00,0.0021
3627.00,0.0022
3626.00,0.0022
3625.00,0.0022
3624.00,0.0023
3623.00,0.0023
3622.00,0.0023
3621.00,0.0023
3620.00,0.0023
3619.00,0.0024
3618.00,0.0024
3617.00,0.0025
3616.00,0.0025
3615.00,0.0026
3614.00,0.0026
3613.00,0.0026
3612.00,0.0026
3611.00,0.0026
3610.00,0.0027
3609.00,0.0028
3608.00,0.0029
3607.00,0.0030
3606.00,0.0031
3605.00,0.0031
3604.00,0.0031
3603.00,0.0031
3602.00,0.0032
3601.00,0.0032
3600.00,0.0033
3599.00,0.0033
3598.00,0.0034
3597.00,0.0035
3596.00,0.0036
3595.00,0.0037
3594.00,0.0037
3593.00,0.0038
3592.00,0.0038
3591.00,0.0038
3590.00,0.0039
3589.00,0.0040
3588.00,0.0040
3587.00,0.0041
3586.00,0.0041
3585.00,0.0041
3584.00,0.0042
3583.00,0.0042
3582.00,0.0043
3581.00,0.0044
3580.00,0.0044
3579.00,0.0045
3578.00,0.0046
3577.00,0.0047
3576.00,0.0048
3575.00,0.0048
3574.00,0.0048
3573.00,0.0049
3572.00,0.0049
3571.00,0.0050
3570.00,0.0050
3569.00,0.0050
3568.00,0.0051
3567.00,0.0052
3566.00,0.0053
3565.00,0.0054
3564.00,0.0055
3563.00,0.0055
3562.00,0.0055
3561.00,0.0056
3560.00,0.0057
3559.00,0.0058
3558.00,0.0058
3557.00,0.0059
3556.00,0.0060
3555.00,0.0061
3554.00,0.0062
3553.00,0.0063
3552.00,0.0064
3551.00,0.0065
3550.00,0.0065
3549.00,0.0065
3548.00,0.0065
3547.00,0.0066
3546.00,0.0067
3545.00,0.0068
3544.00,0.0068
3543.00,0.0069
3542.00,0.0069
3541.00,0.0070
3540.00,0.0070
3539.00,0.0071
3538.00,0.0072
3537.00,0.0073
3536.00,0.0074
3535.00,0.0074
3534.00,0.0075
3533.00,0.0075
3532.00,0.0076
3531.00,0.0077
3530.00,0.0078
3529.00,0.0079
3528.00,0.0079
3527.00,0.0080
3526.00,0.0080
3525.00,0.0081
3524.00,0.0082
3523.00,0.0083
3522.00,0.0084
3521.00,0.0084
3520.00,0.0085
3519.00,0.0085
3518.00,0.0086
3517.00,0.0087
3516.00,0.0087
3515.00,0.0087
3514.00,0.0088
3513.00,0.0088
3512.00,0.0089
3511.00,0.0090
3510.00,0.0091
3509.00,0.0092
3508.00,0.0093
3507.00,0.0094
3506.00,0.0094
3505.00,0.0095
3504.00,0.0095
3503.00,0.0096
3502.00,0.0097
3501.00,0.0097
3500.00,0.0099
3499.00,0.0100
3498.00,0.0101
3497.00,0.0102
3496.00,0.0102
3495.00,0.0103
3494.00,0.0104
3493.00,0.0104
3492.00,0.0105
3491.00,0.0105
3490.00,0.0106
3489.00,0.0107
3488.00,0.0107
3487.00,0.0108
3486.00,0.0108
3485.00,0.0109
3484.00,0.0110
3483.00,0.0111
3482.00,0.0112
3481.00,0.0113
3480.00,0.0113
3479.00,0.0114
3478.00,0.0114
3477.00,0.0115
3476.00,0.0116
3475.00,0.0116
3474.00,0.0117
3473.00,0.0118
3472.00,0.0118
3471.00,0.0119
3470.00,0.0119
3469.00,0.0120
3468.00,0.0121
3467.00,0.0121
3466.00,0.0122
3465.00,0.0123
3464.00,0.0123
3463.00,0.0124
3462.00,0.0124
3461.00,0.0125
3460.00,0.0125
3459.00,0.0126
3458.00,0.0127
3457.00,0.0128
3456.00,0.0129
3455.00,0.0129
3454.00,0.0129
3453.00,0.0129
3452.00,0.0129
3451.00,0.0130
3450.00,0.0131
3449.00,0.0132
3448.00,0.0133
3447.00,0.0133
3446.00,0.0134
3445.00,0.0134
3444.00,0.0135
3443.00,0.0136
3442.00,0.0137
3441.00,0.0138
3440.00,0.0138
3439.00,0.0139
3438.00,0.0139
3437.00,0.0140
3436.00,0.0140
3435.00,0.0141
3434.00,0.0142
3433.00,0.0142
3432.00,0.0143
3431.00,0.0144
3430.00,0.0144
3429.00,0.0145
3428.00,0.0146
3427.00,0.0147
3426.00,0.0147
3425.00,0.0148
3424.00,0.0149
3423.00,0.0149
3422.00,0.0150
3421.00,0.0150
3420.00,0.0151
3419.00,0.0152
3418.00,0.0153
3417.00,0.0153
3416.00,0.0154
3415.00,0.0155
3414.00,0.0155
3413.00,0.0156
3412.00,0.0156
3411.00,0.0157
3410.00,0.0158
3409.00,0.0160
3408.00,0.0160
3407.00,0.0161
3406.00,0.0161
3405.00,0.0161
3404.00,0.0162
3403.00,0.0163
3402.00,0.0163
3401.00,0.0164
3400.00,0.0164
3399.00,0.0165
3398.00,0.0165
3397.00,0.0166
3396.00,0.0166
3395.00,0.0166
3394.00,0.0166
3393.00,0.0167
3392.00,0.0167
3391.00,0.0167
3390.00,0.0167
3389.00,0.0167
3388.00,0.0167
3387.00,0.0168
3386.00,0.0168
3385.00,0.0168
3384.00,0.0169
3383.00,0.0169
3382.00,0.0170
3381.00,0.0170
3380.00,0.0170
3379.00,0.0170
3378.00,0.0170
3377.00,0.0170
3376.00,0.0170
3375.00,0.0170
3374.00,0.0171
3373.00,0.0171
3372.00,0.0171
3371.00,0.0171
3370.00,0.0171
3369.00,0.0171
3368.00,0.0172
3367.00,0.0172
3366.00,0.0173
3365.00,0.0173
3364.00,0.0173
3363.00,0.0173
3362.00,0.0173
3361.00,0.0173
3360.00,0.0173
3359.00,0.0174
3358.00,0.0174
3357.00,0.0174
3356.00,0.0175
3355.00,0.0175
3354.00,0.0175
3353.00,0.0176
3352.00,0.0176
3351.00,0.0176
3350.00,0.0176
3349.00,0.0176
3348.00,0.0176
3347.00,0.0176
3346.00,0.0176
3345.00,0.0177
3344.00,0.0178
3343.00,0.0179
3342.00,0.0179
3341.00,0.0179
3340.00,0.0180
3339.00,0.0180
3338.00,0.0180
3337.00,0.0180
3336.00,0.0181
3335.00,0.0181
3334.00,0.0182
3333.00,0.0182
3332.00,0.0183
3331.00,0.0183
3330.00,0.0183
3329.00,0.0183
3328.00,0.0183
3327.00,0.0184
3326.00,0.0184
3325.00,0.0185
3324.00,0.0185
3323.00,0.0186
3322.00,0.0186
3321.00,0.0186
3320.00,0.0186
3319.00,0.0186
3318.00,0.0187
3317.00,0.0187
3316.00,0.0187
3315.00,0.0187
3314.00,0.0187
3313.00,0.0187
3312.00,0.0186
3311.00,0.0186
3310.00,0.0186
3309.00,0.0185
3308.00,0.0185
3307.00,0.0184
3306.00,0.0184
3305.00,0.0184
3304.00,0.0184
3303.00,0.0184
3302.00,0.0184
3301.00,0.0183
3300.00,0.0183
3299.00,0.0182
3298.00,0.0181
3297.00,0.0181
3296.00,0.0180
3295.00,0.0178
3294.00,0.0178
3293.00,0.0177
3292.00,0.0176
3291.00,0.0175
3290.00,0.0175
3289.00,0.0174
3288.00,0.0173
3287.00,0.0173
3286.00,0.0172
3285.00,0.0171
3284.00,0.0170
3283.00,0.0169
3282.00,0.0168
3281.00,0.0167
3280.00,0.0167
3279.00,0.0167
3278.00,0.0166
3277.00,0.0166
3276.00,0.0165
3275.00,0.0164
3274.00,0.0164
3273.00,0.0163
3272.00,0.0162
3271.00,0.0162
3270.00,0.0162
3269.00,0.0161
3268.00,0.0161
3267.00,0.0160
3266.00,0.0159
3265.00,0.0158
3264.00,0.0158
3263.00,0.0158
3262.00,0.0157
3261.00,0.0157
3260.00,0.0156
3259.00,0.0155
3258.00,0.0154
3257.00,0.0153
3256.00,0.0152
3255.00,0.0151
3254.00,0.0150
3253.00,0.0149
3252.00,0.0148
3251.00,0.0148
3250.00,0.0148
3249.00,0.0148
3248.00,0.0148
3247.00,0.0147
3246.00,0.0147
3245.00,0.0147
3244.00,0.0146
3243.00,0.0146
3242.00,0.0146
3241.00,0.0145
3240.00,0.0144
3239.00,0.0144
3238.00,0.0143
3237.00,0.0143
3236.00,0.0143
3235.00,0.0142
3234.00,0.0142
3233.00,0.0142
3232.00,0.0141
3231.00,0.0141
3230.00,0.0141
3229.00,0.0141
3228.00,0.0141
3227.00,0.0142
3226.00,0.0142
3225.00,0.0142
3224.00,0.0142
3223.00,0.0142
3222.00,0.0143
3221.00,0.0143
3220.00,0.0143
3219.00,0.0144
3218.00,0.0144
3217.00,0.0144
3216.00,0.0145
3215.00,0.0145
3214.00,0.0146
3213.00,0.0146
3212.00,0.0146
3211.00,0.0146
3210.00,0.0147
3209.00,0.0147
3208.00,0.0147
3207.00,0.0147
3206.00,0.0147
3205.00,0.0147
3204.00,0.0148
3203.00,0.0149
3202.00,0.0149
3201.00,0.0149
3200.00,0.0148
3199.00,0.0147
3198.00,0.0147
3197.00,0.0146
3196.00,0.0146
3195.00,0.0146
3194.00,0.0146
3193.00,0.0145
3192.00,0.0145
3191.00,0.0145
3190.00,0.0144
3189.00,0.0143
3188.00,0.0142
3187.00,0.0141
3186.00,0.0140
3185.00,0.0139
3184.00,0.0139
3183.00,0.0138
3182.00,0.0137
3181.00,0.0136
3180.00,0.0135
3179.00,0.0135
3178.00,0.0134
3177.00,0.0133
3176.00,0.0132
3175.00,0.0130
3174.00,0.0129
3173.00,0.0128
3172.00,0.0127
3171.00,0.0127
3170.00,0.0126
3169.00,0.0125
3168.00,0.0125
3167.00,0.0124
3166.00,0.0123
3165.00,0.0123
3164.00,0.0122
3163.00,0.0122
3162.00,0.0121
3161.00,0.0121
3160.00,0.0120
3159.00,0.0120
3158.00,0.0119
3157.00,0.0118
3156.00,0.0118
3155.00,0.0117
3154.00,0.0117
3153.00,0.0117
3152.00,0.0116
3151.00,0.0116
3150.00,0.0116
3149.00,0.0115
3148.00,0.0115
3147.00,0.0114
3146.00,0.0114
3145.00,0.0113
3144.00,0.0112
3143.00,0.0112
3142.00,0.0111
3141.00,0.0111
3140.00,0.0110
3139.00,0.0110
3138.00,0.0110
3137.00,0.0110
3136.00,0.0110
3135.00,0.0110
3134.00,0.0110
3133.00,0.0109
3132.00,0.0109
3131.00,0.0108
3130.00,0.0107
3129.00,0.0107
3128.00,0.0106
3127.00,0.0106
3126.00,0.0106
3125.00,0.0105
3124.00,0.0105
3123.00,0.0105
3122.00,0.0104
3121.00,0.0103
3120.00,0.0103
3119.00,0.0102
3118.00,0.0102
3117.00,0.0101
3116.00,0.0100
3115.00,0.0099
3114.00,0.0099
3113.00,0.0099
3112.00,0.0098
3111.00,0.0098
3110.00,0.0097
3109.00,0.0096
3108.00,0.0095
3107.00,0.0094
3106.00,0.0093
3105.00,0.0093
3104.00,0.0092
3103.00,0.0092
3102.00,0.0091
3101.00,0.0091
3100.00,0.0090
3099.00,0.0089
3098.00,0.0088
3097.00,0.0087
3096.00,0.0087
3095.00,0.0087
3094.00,0.0087
3093.00,0.0086
3092.00,0.0086
3091.00,0.0085
3090.00,0.0084
3089.00,0.0084
3088.00,0.0083
3087.00,0.0083
3086.00,0.0082
3085.00,0.0082
3084.00,0.0082
3083.00,0.0082
3082.00,0.0082
3081.00,0.0081
3080.00,0.0080
3079.00,0.0080
3078.00,0.0079
3077.00,0.0079
3076.00,0.0079
3075.00,0.0080
3074.00,0.0080
3073.00,0.0081
3072.00,0.0081
3071.00,0.0081
3070.00,0.0081
3069.00,0.0081
3068.00,0.0081
3067.00,0.0081
3066.00,0.0081
3065.00,0.0081
3064.00,0.0081
3063.00,0.0081
3062.00,0.0081
3061.00,0.0080
3060.00,0.0080
3059.00,0.0079
3058.00,0.0079
3057.00,0.0078
3056.00,0.0078
3055.00,0.0078
3054.00,0.0078
3053.00,0.0078
3052.00,0.0078
3051.00,0.0078
3050.00,0.0078
3049.00,0.0078
3048.00,0.0079
3047.00,0.0079
3046.00,0.0079
3045.00,0.0078
3044.00,0.0079
3043.00,0.0079
3042.00,0.0079
3041.00,0.0080
3040.00,0.0080
3039.00,0.0081
3038.00,0.0081
3037.00,0.0081
3036.00,0.0082
3035.00,0.0082
3034.00,0.0082
3033.00,0.0082
3032.00,0.0082
3031.00,0.0083
3030.00,0.0084
3029.00,0.0084
3028.00,0.0084
3027.00,0.0084
3026.00,0.0084
3025.00,0.0084
3024.00,0.0084
3023.00,0.0085
3022.00,0.0085
3021.00,0.0086
3020.00,0.0086
3019.00,0.0087
3018.00,0.0088
3017.00,0.0088
3016.00,0.0089
3015.00,0.0089
3014.00,0.0090
3013.00,0.0091
3012.00,0.0092
3011.00,0.0093
3010.00,0.0094
3009.00,0.0095
3008.00,0.0097
3007.00,0.0098
3006.00,0.0099
3005.00,0.0100
3004.00,0.0102
3003.00,0.0103
3002.00,0.0105
3001.00,0.0107
3000.00,0.0109
2999.00,0.0112
2998.00,0.0114
2997.00,0.0117
2996.00,0.0120
2995.00,0.0123
2994.00,0.0126
2993.00,0.0130
2992.00,0.0135
2991.00,0.0140
2990.00,0.0147
2989.00,0.0153
2988.00,0.0160
2987.00,0.0168
2986.00,0.0177
2985.00,0.0186
2984.00,0.0196
2983.00,0.0207
2982.00,0.0220
2981.00,0.0235
2980.00,0.0252
2979.00,0.0271
2978.00,0.0292
2977.00,0.0317
2976.00,0.0344
2975.00,0.0375
2974.00,0.0410
2973.00,0.0451
2972.00,0.0496
2971.00,0.0547
2970.00,0.0603
2969.00,0.0665
2968.00,0.0731
2967.00,0.0800
2966.00,0.0871
2965.00,0.0943
2964.00,0.1013
2963.00,0.1078
2962.00,0.1135
2961.00,0.1183
2960.00,0.1224
2959.00,0.1261
2958.00,0.1298
2957.00,0.1339
2956.00,0.1388
2955.00,0.1445
2954.00,0.1508
2953.00,0.1573
2952.00,0.1631
2951.00,0.1674
2950.00,0.1693
2949.00,0.1681
2948.00,0.1637
2947.00,0.1564
2946.00,0.1472
2945.00,0.1372
2944.00,0.1275
2943.00,0.1192
2942.00,0.1127
2941.00,0.1083
2940.00,0.1061
2939.00,0.1058
2938.00,0.1072
2937.00,0.1102
2936.00,0.1147
2935.00,0.1204
2934.00,0.1274
2933.00,0.1355
2932.00,0.1445
2931.00,0.1542
2930.00,0.1645
2929.00,0.1750
2928.00,0.1856
2927.00,0.1959
2926.00,0.2059
2925.00,0.2155
2924.00,0.2249
2923.00,0.2340
2922.00,0.2430
2921.00,0.2515
2920.00,0.2591
2919.00,0.2649
2918.00,0.2678
2917.00,0.2672
2916.00,0.2629
2915.00,0.2553
2914.00,0.2454
2913.00,0.2344
2912.00,0.2234
2911.00,0.2130
2910.00,0.2037
2909.00,0.1953
2908.00,0.1877
2907.00,0.1806
2906.00,0.1738
2905.00,0.1673
2904.00,0.1608
2903.00,0.1545
2902.00,0.1483
2901.00,0.1423
2900.00,0.1366
2899.00,0.1311
2898.00,0.1261
2897.00,0.1214
2896.00,0.1172
2895.00,0.1134
2894.00,0.1103
2893.00,0.1076
2892.00,0.1055
2891.00,0.1039
2890.00,0.1028
2889.00,0.1021
2888.00,0.1016
2887.00,0.1016
2886.00,0.1018
2885.00,0.1025
2884.00,0.1035
2883.00,0.1051
2882.00,0.1071
2881.00,0.1094
2880.00,0.1118
2879.00,0.1140
2878.00,0.1156
2877.00,0.1164
2876.00,0.1165
2875.00,0.1161
2874.00,0.1157
2873.00,0.1156
2872.00,0.1162
2871.00,0.1174
2870.00,0.1190
2869.00,0.1206
2868.00,0.1217
2867.00,0.1216
2866.00,0.1198
2865.00,0.1161
2864.00,0.1109
2863.00,0.1047
2862.00,0.0985
2861.00,0.0931
2860.00,0.0889
2859.00,0.0861
2858.00,0.0846
2857.00,0.0842
2856.00,0.0846
2855.00,0.0856
2854.00,0.0870
2853.00,0.0887
2852.00,0.0903
2851.00,0.0915
2850.00,0.0921
2849.00,0.0920
2848.00,0.0915
2847.00,0.0912
2846.00,0.0915
2845.00,0.0929
2844.00,0.0953
2843.00,0.0986
2842.00,0.1024
2841.00,0.1062
2840.00,0.1094
2839.00,0.1112
2838.00,0.1110
2837.00,0.1083
2836.00,0.1031
2835.00,0.0957
2834.00,0.0868
2833.00,0.0774
2832.00,0.0683
2831.00,0.0602
2830.00,0.0532
2829.00,0.0475
2828.00,0.0428
2827.00,0.0390
2826.00,0.0359
2825.00,0.0333
2824.00,0.0311
2823.00,0.0293
2822.00,0.0277
2821.00,0.0264
2820.00,0.0252
2819.00,0.0241
2818.00,0.0232
2817.00,0.0224
2816.00,0.0217
2815.00,0.0211
2814.00,0.0205
2813.00,0.0199
2812.00,0.0194
2811.00,0.0189
2810.00,0.0183
2809.00,0.0178
2808.00,0.0172
2807.00,0.0166
2806.00,0.0160
2805.00,0.0154
2804.00,0.0148
2803.00,0.0143
2802.00,0.0138
2801.00,0.0133
2800.00,0.0129
2799.00,0.0126
2798.00,0.0123
2797.00,0.0120
2796.00,0.0118
2795.00,0.0116
2794.00,0.0113
2793.00,0.0111
2792.00,0.0108
2791.00,0.0105
2790.00,0.0102
2789.00,0.0099
2788.00,0.0097
2787.00,0.0094
2786.00,0.0092
2785.00,0.0089
2784.00,0.0087
2783.00,0.0085
2782.00,0.0083
2781.00,0.0082
2780.00,0.0080
2779.00,0.0078
2778.00,0.0077
2777.00,0.0075
2776.00,0.0074
2775.00,0.0073
2774.00,0.0072
2773.00,0.0072
2772.00,0.0071
2771.00,0.0070
2770.00,0.0070
2769.00,0.0069
2768.00,0.0069
2767.00,0.0069
2766.00,0.0068
2765.00,0.0068
2764.00,0.0067
2763.00,0.0067
2762.00,0.0066
2761.00,0.0065
2760.00,0.0065
2759.00,0.0065
2758.00,0.0065
2757.00,0.0065
2756.00,0.0065
2755.00,0.0065
2754.00,0.0064
2753.00,0.0064
2752.00,0.0064
2751.00,0.0063
2750.00,0.0063
2749.00,0.0062
2748.00,0.0062
2747.00,0.0063
2746.00,0.0063
2745.00,0.0064
2744.00,0.0064
2743.00,0.0065
2742.00,0.0066
2741.00,0.0067
2740.00,0.0068
2739.00,0.0069
2738.00,0.0070
2737.00,0.0070
2736.00,0.0072
2735.00,0.0073
2734.00,0.0074
2733.00,0.0076
2732.00,0.0077
2731.00,0.0078
2730.00,0.0080
2729.00,0.0083
2728.00,0.0085
2727.00,0.0088
2726.00,0.0090
2725.00,0.0092
2724.00,0.0093
2723.00,0.0093
2722.00,0.0092
2721.00,0.0090
2720.00,0.0088
2719.00,0.0086
2718.00,0.0083
2717.00,0.0080
2716.00,0.0077
2715.00,0.0074
2714.00,0.0072
2713.00,0.0070
2712.00,0.0068
2711.00,0.0066
2710.00,0.0065
2709.00,0.0063
2708.00,0.0062
2707.00,0.0061
2706.00,0.0060
2705.00,0.0059
2704.00,0.0058
2703.00,0.0057
2702.00,0.0056
2701.00,0.0056
2700.00,0.0055
2699.00,0.0055
2698.00,0.0054
2697.00,0.0054
2696.00,0.0053
2695.00,0.0053
2694.00,0.0053
2693.00,0.0053
2692.00,0.0053
2691.00,0.0053
2690.00,0.0053
2689.00,0.0053
2688.00,0.0053
2687.00,0.0053
2686.00,0.0053
2685.00,0.0053
2684.00,0.0053
2683.00,0.0053
2682.00,0.0053
2681.00,0.0053
2680.00,0.0053
2679.00,0.0053
2678.00,0.0053
2677.00,0.0053
2676.00,0.0053
2675.00,0.0053
2674.00,0.0053
2673.00,0.0053
2672.00,0.0052
2671.00,0.0052
2670.00,0.0052
2669.00,0.0052
2668.00,0.0052
2667.00,0.0052
2666.00,0.0052
2665.00,0.0052
2664.00,0.0053
2663.00,0.0053
2662.00,0.0054
2661.00,0.0054
2660.00,0.0054
2659.00,0.0053
2658.00,0.0053
2657.00,0.0053
2656.00,0.0053
2655.00,0.0053
2654.00,0.0053
2653.00,0.0052
2652.00,0.0052
2651.00,0.0052
2650.00,0.0051
2649.00,0.0051
2648.00,0.0050
2647.00,0.0050
2646.00,0.0049
2645.00,0.0048
2644.00,0.0048
2643.00,0.0047
2642.00,0.0047
2641.00,0.0046
2640.00,0.0046
2639.00,0.0045
2638.00,0.0045
2637.00,0.0045
2636.00,0.0045
2635.00,0.0045
2634.00,0.0045
2633.00,0.0045
2632.00,0.0045
2631.00,0.0044
2630.00,0.0044
2629.00,0.0044
2628.00,0.0044
2627.00,0.0044
2626.00,0.0045
2625.00,0.0045
2624.00,0.0045
2623.00,0.0045
2622.00,0.0046
2621.00,0.0046
2620.00,0.0045
2619.00,0.0045
2618.00,0.0045
2617.00,0.0045
2616.00,0.0045
2615.00,0.0044
2614.00,0.0044
2613.00,0.0043
2612.00,0.0043
2611.00,0.0042
2610.00,0.0042
2609.00,0.0041
2608.00,0.0041
2607.00,0.0040
2606.00,0.0040
2605.00,0.0039
2604.00,0.0039
2603.00,0.0039
2602.00,0.0038
2601.00,0.0037
2600.00,0.0036
2599.00,0.0036
2598.00,0.0036
2597.00,0.0037
2596.00,0.0038
2595.00,0.0038
2594.00,0.0039
2593.00,0.0039
2592.00,0.0039
2591.00,0.0039
2590.00,0.0039
2589.00,0.0039
2588.00,0.0040
2587.00,0.0041
2586.00,0.0042
2585.00,0.0043
2584.00,0.0044
2583.00,0.0044
2582.00,0.0044
2581.00,0.0043
2580.00,0.0043
2579.00,0.0042
2578.00,0.0041
2577.00,0.0040
2576.00,0.0039
2575.00,0.0038
2574.00,0.0037
2573.00,0.0036
2572.00,0.0034
2571.00,0.0033
2570.00,0.0032
2569.00,0.0032
2568.00,0.0031
2567.00,0.0031
2566.00,0.0030
2565.00,0.0030
2564.00,0.0029
2563.00,0.0029
2562.00,0.0029
2561.00,0.0028
2560.00,0.0028
2559.00,0.0027
2558.00,0.0027
2557.00,0.0027
2556.00,0.0027
2555.00,0.0027
2554.00,0.0027
2553.00,0.0026
2552.00,0.0026
2551.00,0.0025
2550.00,0.0025
2549.00,0.0025
2548.00,0.0025
2547.00,0.0025
2546.00,0.0024
2545.00,0.0024
2544.00,0.0024
2543.00,0.0024
2542.00,0.0024
2541.00,0.0023
2540.00,0.0023
2539.00,0.0023
2538.00,0.0022
2537.00,0.0022
2536.00,0.0022
2535.00,0.0022
2534.00,0.0022
2533.00,0.0022
2532.00,0.0022
2531.00,0.0022
2530.00,0.0022
2529.00,0.0021
2528.00,0.0021
2527.00,0.0021
2526.00,0.0021
2525.00,0.0020
2524.00,0.0020
2523.00,0.0019
2522.00,0.0019
2521.00,0.0019
2520.00,0.0018
2519.00,0.0018
2518.00,0.0017
2517.00,0.0017
2516.00,0.0017
2515.00,0.0017
2514.00,0.0017
2513.00,0.0017
2512.00,0.0017
2511.00,0.0017
2510.00,0.0017
2509.00,0.0017
2508.00,0.0016
2507.00,0.0016
2506.00,0.0016
2505.00,0.0016
2504.00,0.0016
2503.00,0.0015
2502.00,0.0015
2501.00,0.0015
2500.00,0.0015
2499.00,0.0015
2498.00,0.0016
2497.00,0.0016
2496.00,0.0016
2495.00,0.0016
2494.00,0.0016
2493.00,0.0016
2492.00,0.0016
2491.00,0.0016
2490.00,0.0017
2489.00,0.0017
2488.00,0.0017
2487.00,0.0016
2486.00,0.0016
2485.00,0.0015
2484.00,0.0015
2483.00,0.0015
2482.00,0.0016
2481.00,0.0016
2480.00,0.0016
2479.00,0.0016
2478.00,0.0015
2477.00,0.0015
2476.00,0.0014
2475.00,0.0014
2474.00,0.0014
2473.00,0.0014
2472.00,0.0014
2471.00,0.0014
2470.00,0.0014
2469.00,0.0015
2468.00,0.0015
2467.00,0.0015
2466.00,0.0015
2465.00,0.0015
2464.00,0.0015
2463.00,0.0015
2462.00,0.0015
2461.00,0.0015
2460.00,0.0016
2459.00,0.0016
2458.00,0.0017
2457.00,0.0017
2456.00,0.0017
2455.00,0.0016
2454.00,0.0016
2453.00,0.0015
2452.00,0.0015
2451.00,0.0015
2450.00,0.0016
2449.00,0.0016
2448.00,0.0016
2447.00,0.0016
2446.00,0.0016
2445.00,0.0016
2444.00,0.0016
2443.00,0.0016
2442.00,0.0016
2441.00,0.0015
2440.00,0.0015
2439.00,0.0015
2438.00,0.0015
2437.00,0.0016
2436.00,0.0017
2435.00,0.0017
2434.00,0.0016
2433.00,0.0016
2432.00,0.0015
2431.00,0.0015
2430.00,0.0015
2429.00,0.0015
2428.00,0.0015
2427.00,0.0015
2426.00,0.0015
2425.00,0.0015
2424.00,0.0015
2423.00,0.0015
2422.00,0.0015
2421.00,0.0014
2420.00,0.0014
2419.00,0.0013
2418.00,0.0013
2417.00,0.0013
2416.00,0.0014
2415.00,0.0014
2414.00,0.0014
2413.00,0.0014
2412.00,0.0014
2411.00,0.0013
2410.00,0.0013
2409.00,0.0013
2408.00,0.0012
2407.00,0.0012
2406.00,0.0012
2405.00,0.0012
2404.00,0.0012
2403.00,0.0012
2402.00,0.0012
2401.00,0.0013
2400.00,0.0013
2399.00,0.0013
2398.00,0.0013
2397.00,0.0013
2396.00,0.0013
2395.00,0.0012
2394.00,0.0012
2393.00,0.0012
2392.00,0.0012
2391.00,0.0011
2390.00,0.0011
2389.00,0.0011
2388.00,0.0012
2387.00,0.0012
2386.00,0.0012
2385.00,0.0013
2384.00,0.0013
2383.00,0.0013
2382.00,0.0012
2381.00,0.0012
2380.00,0.0011
2379.00,0.0010
2378.00,0.0010
2377.00,0.0009
2376.00,0.0009
2375.00,0.0009
2374.00,0.0010
2373.00,0.0011
2372.00,0.0012
2371.00,0.0012
2370.00,0.0011
2369.00,0.0011
2368.00,0.0011
2367.00,0.0012
2366.00,0.0013
2365.00,0.0013
2364.00,0.0013
2363.00,0.0013
2362.00,0.0012
2361.00,0.0012
2360.00,0.0012
2359.00,0.0012
2358.00,0.0012
2357.00,0.0013
2356.00,0.0013
2355.00,0.0013
2354.00,0.0013
2353.00,0.0013
2352.00,0.0013
2351.00,0.0013
2350.00,0.0013
2349.00,0.0013
2348.00,0.0013
2347.00,0.0012
2346.00,0.0013
2345.00,0.0013
2344.00,0.0014
2343.00,0.0015
2342.00,0.0016
2341.00,0.0016
2340.00,0.0016
2339.00,0.0016
2338.00,0.0015
2337.00,0.0015
2336.00,0.0015
2335.00,0.0014
2334.00,0.0013
2333.00,0.0012
2332.00,0.0012
2331.00,0.0012
2330.00,0.0013
2329.00,0.0015
2328.00,0.0018
2327.00,0.0021
2326.00,0.0025
2325.00,0.0028
2324.00,0.0028
2323.00,0.0027
2322.00,0.0024
2321.00,0.0021
2320.00,0.0020
2319.00,0.0020
2318.00,0.0020
2317.00,0.0020
2316.00,0.0020
2315.00,0.0020
2314.00,0.0019
2313.00,0.0018
2312.00,0.0018
2311.00,0.0018
2310.00,0.0018
2309.00,0.0018
2308.00,0.0019
2307.00,0.0019
2306.00,0.0019
2305.00,0.0019
2304.00,0.0019
2303.00,0.0019
2302.00,0.0019
2301.00,0.0019
2300.00,0.0019
2299.00,0.0019
2298.00,0.0019
2297.00,0.0020
2296.00,0.0020
2295.00,0.0021
2294.00,0.0021
2293.00,0.0022
2292.00,0.0022
2291.00,0.0023
2290.00,0.0023
2289.00,0.0023
2288.00,0.0024
2287.00,0.0024
2286.00,0.0024
2285.00,0.0024
2284.00,0.0023
2283.00,0.0022
2282.00,0.0020
2281.00,0.0020
2280.00,0.0019
2279.00,0.0019
2278.00,0.0019
2277.00,0.0019
2276.00,0.0019
2275.00,0.0019
2274.00,0.0019
2273.00,0.0019
2272.00,0.0018
2271.00,0.0017
2270.00,0.0016
2269.00,0.0016
2268.00,0.0015
2267.00,0.0014
2266.00,0.0014
2265.00,0.0014
2264.00,0.0015
2263.00,0.0015
2262.00,0.0015
2261.00,0.0015
2260.00,0.0016
2259.00,0.0017
2258.00,0.0017
2257.00,0.0017
2256.00,0.0017
2255.00,0.0016
2254.00,0.0015
2253.00,0.0013
2252.00,0.0012
2251.00,0.0012
2250.00,0.0012
2249.00,0.0013
2248.00,0.0013
2247.00,0.0013
2246.00,0.0012
2245.00,0.0012
2244.00,0.0012
2243.00,0.0011
2242.00,0.0011
2241.00,0.0011
2240.00,0.0011
2239.00,0.0011
2238.00,0.0012
2237.00,0.0013
2236.00,0.0014
2235.00,0.0015
2234.00,0.0015
2233.00,0.0016
2232.00,0.0016
2231.00,0.0017
2230.00,0.0018
2229.00,0.0018
2228.00,0.0017
2227.00,0.0015
2226.00,0.0013
2225.00,0.0012
2224.00,0.0011
2223.00,0.0010
2222.00,0.0010
2221.00,0.0010
2220.00,0.0011
2219.00,0.0011
2218.00,0.0011
2217.00,0.0011
2216.00,0.0011
2215.00,0.0012
2214.00,0.0012
2213.00,0.0011
2212.00,0.0010
2211.00,0.0009
2210.00,0.0009
2209.00,0.0011
2208.00,0.0013
2207.00,0.0014
2206.00,0.0014
2205.00,0.0015
2204.00,0.0015
2203.00,0.0015
2202.00,0.0014
2201.00,0.0013
2200.00,0.0013
2199.00,0.0012
2198.00,0.0011
2197.00,0.0010
2196.00,0.0009
2195.00,0.0009
2194.00,0.0010
2193.00,0.0011
2192.00,0.0012
2191.00,0.0012
2190.00,0.0011
2189.00,0.0010
2188.00,0.0011
2187.00,0.0011
2186.00,0.0012
2185.00,0.0013
2184.00,0.0013
2183.00,0.0011
2182.00,0.0009
2181.00,0.0007
2180.00,0.0007
2179.00,0.0006
2178.00,0.0006
2177.00,0.0006
2176.00,0.0006
2175.00,0.0008
2174.00,0.0010
2173.00,0.0012
2172.00,0.0014
2171.00,0.0016
2170.00,0.0017
2169.00,0.0017
2168.00,0.0017
2167.00,0.0016
2166.00,0.0016
2165.00,0.0017
2164.00,0.0018
2163.00,0.0020
2162.00,0.0019
2161.00,0.0014
2160.00,0.0005
2159.00,-0.0006
2158.00,-0.0015
2157.00,-0.0018
2156.00,-0.0018
2155.00,-0.0016
2154.00,-0.0013
2153.00,-0.0009
2152.00,-0.0006
2151.00,-0.0005
2150.00,-0.0005
2149.00,-0.0005
2148.00,-0.0007
2147.00,-0.0008
2146.00,-0.0008
2145.00,-0.0007
2144.00,-0.0006
2143.00,-0.0004
2142.00,-0.0003
2141.00,-0.0003
2140.00,-0.0003
2139.00,-0.0005
2138.00,-0.0007
2137.00,-0.0009
2136.00,-0.0010
2135.00,-0.0010
2134.00,-0.0011
2133.00,-0.0011
2132.00,-0.0010
2131.00,-0.0009
2130.00,-0.0008
2129.00,-0.0006
2128.00,-0.0003
2127.00,-0.0002
2126.00,-0.0001
2125.00,0.0000
2124.00,0.0001
2123.00,0.0001
2122.00,0.0002
2121.00,0.0002
2120.00,0.0002
2119.00,0.0002
2118.00,0.0003
2117.00,0.0004
2116.00,0.0006
2115.00,0.0007
2114.00,0.0008
2113.00,0.0008
2112.00,0.0007
2111.00,0.0006
2110.00,0.0005
2109.00,0.0005
2108.00,0.0005
2107.00,0.0005
2106.00,0.0006
2105.00,0.0007
2104.00,0.0007
2103.00,0.0007
2102.00,0.0007
2101.00,0.0008
2100.00,0.0008
2099.00,0.0007
2098.00,0.0006
2097.00,0.0004
2096.00,0.0001
2095.00,-0.0001
2094.00,-0.0003
2093.00,-0.0002
2092.00,-0.0000
2091.00,0.0001
2090.00,0.0003
2089.00,0.0004
2088.00,0.0004
2087.00,0.0005
2086.00,0.0005
2085.00,0.0006
2084.00,0.0007
2083.00,0.0008
2082.00,0.0008
2081.00,0.0008
2080.00,0.0007
2079.00,0.0006
2078.00,0.0005
2077.00,0.0005
2076.00,0.0005
2075.00,0.0007
2074.00,0.0008
2073.00,0.0008
2072.00,0.0008
2071.00,0.0007
2070.00,0.0006
2069.00,0.0004
2068.00,0.0003
2067.00,0.0003
2066.00,0.0003
2065.00,0.0003
2064.00,0.0004
2063.00,0.0004
2062.00,0.0004
2061.00,0.0003
2060.00,0.0002
2059.00,0.0002
2058.00,0.0004
2057.00,0.0005
2056.00,0.0005
2055.00,0.0004
2054.00,0.0004
2053.00,0.0007
2052.00,0.0012
2051.00,0.0017
2050.00,0.0017
2049.00,0.0015
2048.00,0.0011
2047.00,0.0007
2046.00,0.0004
2045.00,0.0004
2044.00,0.0004
2043.00,0.0005
2042.00,0.0007
2041.00,0.0007
2040.00,0.0007
2039.00,0.0005
2038.00,0.0004
2037.00,0.0003
2036.00,0.0003
2035.00,-0.0000
2034.00,-0.0005
2033.00,-0.0009
2032.00,-0.0011
2031.00,-0.0011
2030.00,-0.0009
2029.00,-0.0005
2028.00,-0.0001
2027.00,-0.0000
2026.00,-0.0002
2025.00,-0.0005
2024.00,-0.0008
2023.00,-0.0009
2022.00,-0.0009
2021.00,-0.0009
2020.00,-0.0009
2019.00,-0.0009
2018.00,-0.0008
2017.00,-0.0006
2016.00,-0.0004
2015.00,-0.0003
2014.00,-0.0004
2013.00,-0.0005
2012.00,-0.0006
2011.00,-0.0007
2010.00,-0.0006
2009.00,-0.0006
2008.00,-0.0008
2007.00,-0.0012
2006.00,-0.0015
2005.00,-0.0015
2004.00,-0.0013
2003.00,-0.0011
2002.00,-0.0010
2001.00,-0.0009
2000.00,-0.0008
1999.00,-0.0007
1998.00,-0.0006
1997.00,-0.0005
1996.00,-0.0002
1995.00,-0.0001
1994.00,0.0001
1993.00,0.0002
1992.00,0.0004
1991.00,0.0005
1990.00,0.0004
1989.00,0.0002
1988.00,-0.0001
1987.00,-0.0003
1986.00,-0.0004
1985.00,-0.0001
1984.00,0.0002
1983.00,0.0006
1982.00,0.0008
1981.00,0.0009
1980.00,0.0009
1979.00,0.0006
1978.00,0.0002
1977.00,-0.0003
1976.00,-0.0008
1975.00,-0.0012
1974.00,-0.0015
1973.00,-0.0014
1972.00,-0.0012
1971.00,-0.0010
1970.00,-0.0009
1969.00,-0.0008
1968.00,-0.0009
1967.00,-0.0009
1966.00,-0.0009
1965.00,-0.0008
1964.00,-0.0007
1963.00,-0.0007
1962.00,-0.0009
1961.00,-0.0009
1960.00,-0.0010
1959.00,-0.0010
1958.00,-0.0009
1957.00,-0.0009
1956.00,-0.0010
1955.00,-0.0011
1954.00,-0.0013
1953.00,-0.0012
1952.00,-0.0011
1951.00,-0.0011
1950.00,-0.0010
1949.00,-0.0010
1948.00,-0.0009
1947.00,-0.0008
1946.00,-0.0008
1945.00,-0.0009
1944.00,-0.0010
1943.00,-0.0010
1942.00,-0.0010
1941.00,-0.0010
1940.00,-0.0009
1939.00,-0.0009
1938.00,-0.0009
1937.00,-0.0007
1936.00,-0.0005
1935.00,-0.0004
1934.00,-0.0003
1933.00,-0.0004
1932.00,-0.0004
1931.00,-0.0006
1930.00,-0.0007
1929.00,-0.0006
1928.00,-0.0005
1927.00,-0.0003
1926.00,-0.0003
1925.00,-0.0002
1924.00,-0.0001
1923.00,-0.0000
1922.00,0.0000
1921.00,0.0001
1920.00,0.0000
1919.00,0.0000
1918.00,0.0000
1917.00,0.0001
1916.00,0.0002
1915.00,0.0002
1914.00,0.0002
1913.00,0.0002
1912.00,0.0002
1911.00,0.0003
1910.00,0.0003
1909.00,0.0003
1908.00,0.0003
1907.00,0.0002
1906.00,0.0003
1905.00,0.0004
1904.00,0.0005
1903.00,0.0005
1902.00,0.0004
1901.00,0.0003
1900.00,0.0002
1899.00,0.0002
1898.00,0.0003
1897.00,0.0004
1896.00,0.0004
1895.00,0.0004
1894.00,0.0003
1893.00,0.0002
1892.00,0.0002
1891.00,0.0002
1890.00,0.0002
1889.00,0.0002
1888.00,0.0002
1887.00,0.0001
1886.00,-0.0000
1885.00,-0.0000
1884.00,0.0000
1883.00,0.0001
1882.00,0.0002
1881.00,0.0003
1880.00,0.0004
1879.00,0.0004
1878.00,0.0004
1877.00,0.0005
1876.00,0.0005
1875.00,0.0005
1874.00,0.0004
1873.00,0.0004
1872.00,0.0004
1871.00,0.0004
1870.00,0.0005
1869.00,0.0005
1868.00,0.0006
1867.00,0.0006
1866.00,0.0006
1865.00,0.0006
1864.00,0.0006
1863.00,0.0006
1862.00,0.0006
1861.00,0.0005
1860.00,0.0005
1859.00,0.0005
1858.00,0.0005
1857.00,0.0005
1856.00,0.0006
1855.00,0.0006
1854.00,0.0006
1853.00,0.0005
1852.00,0.0005
1851.00,0.0005
1850.00,0.0006
1849.00,0.0006
1848.00,0.0007
1847.00,0.0007
1846.00,0.0007
1845.00,0.0006
1844.00,0.0006
1843.00,0.0006
1842.00,0.0006
1841.00,0.0006
1840.00,0.0006
1839.00,0.0006
1838.00,0.0006
1837.00,0.0006
1836.00,0.0007
1835.00,0.0007
1834.00,0.0006
1833.00,0.0006
1832.00,0.0007
1831.00,0.0007
1830.00,0.0007
1829.00,0.0008
1828.00,0.0008
1827.00,0.0009
1826.00,0.0008
1825.00,0.0008
1824.00,0.0008
1823.00,0.0008
1822.00,0.0007
1821.00,0.0007
1820.00,0.0007
1819.00,0.0007
1818.00,0.0006
1817.00,0.0005
1816.00,0.0005
1815.00,0.0006
1814.00,0.0007
1813.00,0.0008
1812.00,0.0009
1811.00,0.0009
1810.00,0.0009
1809.00,0.0009
1808.00,0.0009
1807.00,0.0009
1806.00,0.0009
1805.00,0.0009
1804.00,0.0010
1803.00,0.0011
1802.00,0.0012
1801.00,0.0013
1800.00,0.0013
1799.00,0.0013
1798.00,0.0012
1797.00,0.0013
1796.00,0.0013
1795.00,0.0013
1794.00,0.0013
1793.00,0.0013
1792.00,0.0014
1791.00,0.0014
1790.00,0.0014
1789.00,0.0014
1788.00,0.0014
1787.00,0.0014
1786.00,0.0015
1785.00,0.0015
1784.00,0.0016
1783.00,0.0016
1782.00,0.0017
1781.00,0.0017
1780.00,0.0018
1779.00,0.0018
1778.00,0.0017
1777.00,0.0016
1776.00,0.0016
1775.00,0.0016
1774.00,0.0016
1773.00,0.0017
1772.00,0.0018
1771.00,0.0019
1770.00,0.0019
1769.00,0.0019
1768.00,0.0019
1767.00,0.0020
1766.00,0.0020
1765.00,0.0020
1764.00,0.0020
1763.00,0.0021
1762.00,0.0022
1761.00,0.0023
1760.00,0.0024
1759.00,0.0024
1758.00,0.0024
1757.00,0.0025
1756.00,0.0025
1755.00,0.0026
1754.00,0.0027
1753.00,0.0028
1752.00,0.0029
1751.00,0.0030
1750.00,0.0032
1749.00,0.0033
1748.00,0.0034
1747.00,0.0035
1746.00,0.0036
1745.00,0.0038
1744.00,0.0039
1743.00,0.0040
1742.00,0.0041
1741.00,0.0041
1740.00,0.0043
1739.00,0.0044
1738.00,0.0045
1737.00,0.0046
1736.00,0.0046
1735.00,0.0047
1734.00,0.0048
1733.00,0.0048
1732.00,0.0048
1731.00,0.0048
1730.00,0.0047
1729.00,0.0047
1728.00,0.0046
1727.00,0.0046
1726.00,0.0046
1725.00,0.0046
1724.00,0.0047
1723.00,0.0047
1722.00,0.0047
1721.00,0.0048
1720.00,0.0048
1719.00,0.0049
1718.00,0.0048
1717.00,0.0048
1716.00,0.0049
1715.00,0.0048
1714.00,0.0048
1713.00,0.0048
1712.00,0.0048
1711.00,0.0049
1710.00,0.0050
1709.00,0.0051
1708.00,0.0052
1707.00,0.0053
1706.00,0.0053
1705.00,0.0055
1704.00,0.0056
1703.00,0.0057
1702.00,0.0059
1701.00,0.0062
1700.00,0.0066
1699.00,0.0068
1698.00,0.0068
1697.00,0.0069
1696.00,0.0072
1695.00,0.0075
1694.00,0.0078
1693.00,0.0080
1692.00,0.0082
1691.00,0.0085
1690.00,0.0089
1689.00,0.0093
1688.00,0.0096
1687.00,0.0099
1686.00,0.0103
1685.00,0.0109
1684.00,0.0116
1683.00,0.0122
1682.00,0.0125
1681.00,0.0128
1680.00,0.0132
1679.00,0.0135
1678.00,0.0139
1677.00,0.0143
1676.00,0.0148
1675.00,0.0153
1674.00,0.0157
1673.00,0.0159
1672.00,0.0161
1671.00,0.0164
1670.00,0.0168
1669.00,0.0172
1668.00,0.0176
1667.00,0.0179
1666.00,0.0181
1665.00,0.0183
1664.00,0.0186
1663.00,0.0190
1662.00,0.0193
1661.00,0.0195
1660.00,0.0197
1659.00,0.0200
1658.00,0.0203
1657.00,0.0206
1656.00,0.0209
1655.00,0.0212
1654.00,0.0217
1653.00,0.0225
1652.00,0.0230
1651.00,0.0233
1650.00,0.0233
1649.00,0.0235
1648.00,0.0238
1647.00,0.0243
1646.00,0.0248
1645.00,0.0250
1644.00,0.0251
1643.00,0.0251
1642.00,0.0250
1641.00,0.0250
1640.00,0.0250
1639.00,0.0249
1638.00,0.0248
1637.00,0.0247
1636.00,0.0245
1635.00,0.0243
1634.00,0.0241
1633.00,0.0237
1632.00,0.0233
1631.00,0.0230
1630.00,0.0226
1629.00,0.0223
1628.00,0.0221
1627.00,0.0218
1626.00,0.0216
1625.00,0.0214
1624.00,0.0211
1623.00,0.0208
1622.00,0.0205
1621.00,0.0202
1620.00,0.0200
1619.00,0.0197
1618.00,0.0195
1617.00,0.0193
1616.00,0.0192
1615.00,0.0192
1614.00,0.0191
1613.00,0.0191
1612.00,0.0191
1611.00,0.0191
1610.00,0.0192
1609.00,0.0193
1608.00,0.0193
1607.00,0.0194
1606.00,0.0194
1605.00,0.0194
1604.00,0.0194
1603.00,0.0193
1602.00,0.0193
1601.00,0.0191
1600.00,0.0190
1599.00,0.0188
1598.00,0.0186
1597.00,0.0185
1596.00,0.0183
1595.00,0.0181
1594.00,0.0180
1593.00,0.0180
1592.00,0.0180
1591.00,0.0180
1590.00,0.0181
1589.00,0.0182
1588.00,0.0185
1587.00,0.0188
1586.00,0.0192
1585.00,0.0197
1584.00,0.0202
1583.00,0.0207
1582.00,0.0211
1581.00,0.0215
1580.00,0.0217
1579.00,0.0218
1578.00,0.0218
1577.00,0.0216
1576.00,0.0214
1575.00,0.0210
1574.00,0.0207
1573.00,0.0204
1572.00,0.0202
1571.00,0.0200
1570.00,0.0197
1569.00,0.0194
1568.00,0.0192
1567.00,0.0191
1566.00,0.0190
1565.00,0.0191
1564.00,0.0191
1563.00,0.0192
1562.00,0.0193
1561.00,0.0195
1560.00,0.0198
1559.00,0.0199
1558.00,0.0200
1557.00,0.0200
1556.00,0.0201
1555.00,0.0202
1554.00,0.0205
1553.00,0.0209
1552.00,0.0214
1551.00,0.0219
1550.00,0.0225
1549.00,0.0231
1548.00,0.0237
1547.00,0.0243
1546.00,0.0252
1545.00,0.0261
1544.00,0.0271
1543.00,0.0279
1542.00,0.0287
1541.00,0.0294
1540.00,0.0298
1539.00,0.0297
1538.00,0.0294
1537.00,0.0290
1536.00,0.0285
1535.00,0.0278
1534.00,0.0268
1533.00,0.0257
1532.00,0.0246
1531.00,0.0237
1530.00,0.0228
1529.00,0.0219
1528.00,0.0209
1527.00,0.0200
1526.00,0.0190
1525.00,0.0183
1524.00,0.0178
1523.00,0.0173
1522.00,0.0166
1521.00,0.0161
1520.00,0.0158
1519.00,0.0155
1518.00,0.0152
1517.00,0.0148
1516.00,0.0145
1515.00,0.0141
1514.00,0.0139
1513.00,0.0137
1512.00,0.0137
1511.00,0.0137
1510.00,0.0137
1509.00,0.0137
1508.00,0.0136
1507.00,0.0135
1506.00,0.0134
1505.00,0.0135
1504.00,0.0137
1503.00,0.0139
1502.00,0.0142
1501.00,0.0147
1500.00,0.0156
1499.00,0.0167
1498.00,0.0180
1497.00,0.0195
1496.00,0.0209
1495.00,0.0219
1494.00,0.0223
1493.00,0.0226
1492.00,0.0227
1491.00,0.0227
1490.00,0.0226
1489.00,0.0225
1488.00,0.0227
1487.00,0.0228
1486.00,0.0231
1485.00,0.0236
1484.00,0.0242
1483.00,0.0249
1482.00,0.0257
1481.00,0.0269
1480.00,0.0282
1479.00,0.0295
1478.00,0.0311
1477.00,0.0333
1476.00,0.0358
1475.00,0.0388
1474.00,0.0427
1473.00,0.0483
1472.00,0.0548
1471.00,0.0610
1470.00,0.0668
1469.00,0.0730
1468.00,0.0796
1467.00,0.0868
1466.00,0.0950
1465.00,0.1039
1464.00,0.1116
1463.00,0.1169
1462.00,0.1202
1461.00,0.1224
1460.00,0.1238
1459.00,0.1247
1458.00,0.1253
1457.00,0.1256
1456.00,0.1251
1455.00,0.1238
1454.00,0.1221
1453.00,0.1199
1452.00,0.1167
1451.00,0.1126
1450.00,0.1074
1449.00,0.1006
1448.00,0.0922
1447.00,0.0836
1446.00,0.0759
1445.00,0.0695
1444.00,0.0639
1443.00,0.0594
1442.00,0.0561
1441.00,0.0538
1440.00,0.0526
1439.00,0.0522
1438.00,0.0526
1437.00,0.0530
1436.00,0.0521
1435.00,0.0498
1434.00,0.0463
1433.00,0.0421
1432.00,0.0377
1431.00,0.0338
1430.00,0.0307
1429.00,0.0284
1428.00,0.0268
1427.00,0.0259
1426.00,0.0255
1425.00,0.0251
1424.00,0.0248
1423.00,0.0247
1422.00,0.0248
1421.00,0.0247
1420.00,0.0247
1419.00,0.0246
1418.00,0.0244
1417.00,0.0240
1416.00,0.0234
1415.00,0.0229
1414.00,0.0225
1413.00,0.0219
1412.00,0.0213
1411.00,0.0209
1410.00,0.0205
1409.00,0.0201
1408.00,0.0197
1407.00,0.0195
1406.00,0.0194
1405.00,0.0192
1404.00,0.0190
1403.00,0.0190
1402.00,0.0191
1401.00,0.0191
1400.00,0.0191
1399.00,0.0192
1398.00,0.0193
1397.00,0.0194
1396.00,0.0195
1395.00,0.0197
1394.00,0.0200
1393.00,0.0203
1392.00,0.0207
1391.00,0.0214
1390.00,0.0225
1389.00,0.0238
1388.00,0.0258
1387.00,0.0288
1386.00,0.0328
1385.00,0.0381
1384.00,0.0455
1383.00,0.0561
1382.00,0.0705
1381.00,0.0894
1380.00,0.1129
1379.00,0.1396
1378.00,0.1654
1377.00,0.1842
1376.00,0.1906
1375.00,0.1814
1374.00,0.1592
1373.00,0.1324
1372.00,0.1080
1371.00,0.0880
1370.00,0.0720
1369.00,0.0598
1368.00,0.0514
1367.00,0.0462
1366.00,0.0433
1365.00,0.0422
1364.00,0.0424
1363.00,0.0437
1362.00,0.0457
1361.00,0.0478
1360.00,0.0495
1359.00,0.0501
1358.00,0.0492
1357.00,0.0469
1356.00,0.0435
1355.00,0.0396
1354.00,0.0359
1353.00,0.0326
1352.00,0.0301
1351.00,0.0280
1350.00,0.0263
1349.00,0.0248
1348.00,0.0237
1347.00,0.0227
1346.00,0.0219
1345.00,0.0212
1344.00,0.0206
1343.00,0.0200
1342.00,0.0195
1341.00,0.0189
1340.00,0.0185
1339.00,0.0180
1338.00,0.0178
1337.00,0.0176
1336.00,0.0176
1335.00,0.0176
1334.00,0.0178
1333.00,0.0181
1332.00,0.0185
1331.00,0.0188
1330.00,0.0189
1329.00,0.0187
1328.00,0.0184
1327.00,0.0179
1326.00,0.0173
1325.00,0.0168
1324.00,0.0162
1323.00,0.0158
1322.00,0.0154
1321.00,0.0152
1320.00,0.0150
1319.00,0.0148
1318.00,0.0146
1317.00,0.0144
1316.00,0.0143
1315.00,0.0142
1314.00,0.0141
1313.00,0.0142
1312.00,0.0143
1311.00,0.0144
1310.00,0.0147
1309.00,0.0151
1308.00,0.0158
1307.00,0.0167
1306.00,0.0176
1305.00,0.0184
1304.00,0.0188
1303.00,0.0188
1302.00,0.0186
1301.00,0.0184
1300.00,0.0184
1299.00,0.0184
1298.00,0.0185
1297.00,0.0186
1296.00,0.0186
1295.00,0.0185
1294.00,0.0183
1293.00,0.0179
1292.00,0.0175
1291.00,0.0171
1290.00,0.0166
1289.00,0.0162
1288.00,0.0158
1287.00,0.0154
1286.00,0.0151
1285.00,0.0147
1284.00,0.0144
1283.00,0.0142
1282.00,0.0140
1281.00,0.0138
1280.00,0.0136
1279.00,0.0135
1278.00,0.0134
1277.00,0.0133
1276.00,0.0132
1275.00,0.0131
1274.00,0.0131
1273.00,0.0131
1272.00,0.0131
1271.00,0.0132
1270.00,0.0133
1269.00,0.0135
1268.00,0.0137
1267.00,0.0140
1266.00,0.0143
1265.00,0.0147
1264.00,0.0150
1263.00,0.0154
1262.00,0.0157
1261.00,0.0161
1260.00,0.0166
1259.00,0.0172
1258.00,0.0177
1257.00,0.0182
1256.00,0.0183
1255.00,0.0181
1254.00,0.0177
1253.00,0.0170
1252.00,0.0163
1251.00,0.0157
1250.00,0.0152
1249.00,0.0149
1248.00,0.0146
1247.00,0.0144
1246.00,0.0142
1245.00,0.0141
1244.00,0.0140
1243.00,0.0139
1242.00,0.0139
1241.00,0.0138
1240.00,0.0137
1239.00,0.0135
1238.00,0.0134
1237.00,0.0133
1236.00,0.0132
1235.00,0.0132
1234.00,0.0131
1233.00,0.0131
1232.00,0.0131
1231.00,0.0132
1230.00,0.0133
1229.00,0.0134
1228.00,0.0136
1227.00,0.0138
1226.00,0.0141
1225.00,0.0145
1224.00,0.0149
1223.00,0.0153
1222.00,0.0158
1221.00,0.0161
1220.00,0.0163
1219.00,0.0163
1218.00,0.0162
1217.00,0.0159
1216.00,0.0155
1215.00,0.0151
1214.00,0.0147
1213.00,0.0143
1212.00,0.0140
1211.00,0.0137
1210.00,0.0135
1209.00,0.0133
1208.00,0.0131
1207.00,0.0130
1206.00,0.0129
1205.00,0.0128
1204.00,0.0128
1203.00,0.0128
1202.00,0.0129
1201.00,0.0130
1200.00,0.0130
1199.00,0.0130
1198.00,0.0130
1197.00,0.0131
1196.00,0.0131
1195.00,0.0132
1194.00,0.0131
1193.00,0.0131
1192.00,0.0130
1191.00,0.0130
1190.00,0.0130
1189.00,0.0129
1188.00,0.0128
1187.00,0.0128
1186.00,0.0128
1185.00,0.0128
1184.00,0.0129
1183.00,0.0129
1182.00,0.0131
1181.00,0.0134
1180.00,0.0137
1179.00,0.0142
1178.00,0.0147
1177.00,0.0154
1176.00,0.0162
1175.00,0.0174
1174.00,0.0190
1173.00,0.0211
1172.00,0.0235
1171.00,0.0261
1170.00,0.0286
1169.00,0.0306
1168.00,0.0317
1167.00,0.0320
1166.00,0.0315
1165.00,0.0307
1164.00,0.0297
1163.00,0.0288
1162.00,0.0280
1161.00,0.0275
1160.00,0.0271
1159.00,0.0269
1158.00,0.0268
1157.00,0.0268
1156.00,0.0268
1155.00,0.0269
1154.00,0.0270
1153.00,0.0270
1152.00,0.0268
1151.00,0.0264
1150.00,0.0258
1149.00,0.0250
1148.00,0.0243
1147.00,0.0236
1146.00,0.0229
1145.00,0.0222
1144.00,0.0215
1143.00,0.0210
1142.00,0.0204
1141.00,0.0199
1140.00,0.0195
1139.00,0.0190
1138.00,0.0186
1137.00,0.0183
1136.00,0.0180
1135.00,0.0179
1134.00,0.0178
1133.00,0.0179
1132.00,0.0180
1131.00,0.0181
1130.00,0.0183
1129.00,0.0184
1128.00,0.0186
1127.00,0.0189
1126.00,0.0192
1125.00,0.0194
1124.00,0.0197
1123.00,0.0200
1122.00,0.0203
1121.00,0.0206
1120.00,0.0209
1119.00,0.0211
1118.00,0.0213
1117.00,0.0214
1116.00,0.0216
1115.00,0.0217
1114.00,0.0218
1113.00,0.0218
1112.00,0.0219
1111.00,0.0220
1110.00,0.0222
1109.00,0.0225
1108.00,0.0229
1107.00,0.0234
1106.00,0.0240
1105.00,0.0245
1104.00,0.0250
1103.00,0.0252
1102.00,0.0251
1101.00,0.0246
1100.00,0.0240
1099.00,0.0234
1098.00,0.0229
1097.00,0.0225
1096.00,0.0224
1095.00,0.0222
1094.00,0.0221
1093.00,0.0217
1092.00,0.0213
1091.00,0.0207
1090.00,0.0202
1089.00,0.0198
1088.00,0.0195
1087.00,0.0192
1086.00,0.0191
1085.00,0.0189
1084.00,0.0186
1083.00,0.0184
1082.00,0.0182
1081.00,0.0180
1080.00,0.0178
1079.00,0.0176
1078.00,0.0174
1077.00,0.0174
1076.00,0.0172
1075.00,0.0170
1074.00,0.0167
1073.00,0.0165
1072.00,0.0163
1071.00,0.0161
1070.00,0.0160
1069.00,0.0158
1068.00,0.0157
1067.00,0.0156
1066.00,0.0155
1065.00,0.0154
1064.00,0.0153
1063.00,0.0152
1062.00,0.0152
1061.00,0.0151
1060.00,0.0150
1059.00,0.0150
1058.00,0.0149
1057.00,0.0148
1056.00,0.0147
1055.00,0.0147
1054.00,0.0148
1053.00,0.0150
1052.00,0.0151
1051.00,0.0153
1050.00,0.0155
1049.00,0.0157
1048.00,0.0159
1047.00,0.0162
1046.00,0.0164
1045.00,0.0165
1044.00,0.0165
1043.00,0.0163
1042.00,0.0161
1041.00,0.0160
1040.00,0.0161
1039.00,0.0163
1038.00,0.0164
1037.00,0.0165
1036.00,0.0165
1035.00,0.0164
1034.00,0.0162
1033.00,0.0160
1032.00,0.0157
1031.00,0.0155
1030.00,0.0152
1029.00,0.0149
1028.00,0.0147
1027.00,0.0146
1026.00,0.0145
1025.00,0.0145
1024.00,0.0145
1023.00,0.0145
1022.00,0.0145
1021.00,0.0144
1020.00,0.0144
1019.00,0.0144
1018.00,0.0144
1017.00,0.0145
1016.00,0.0147
1015.00,0.0149
1014.00,0.0152
1013.00,0.0154
1012.00,0.0156
1011.00,0.0156
1010.00,0.0156
1009.00,0.0155
1008.00,0.0156
1007.00,0.0160
1006.00,0.0166
1005.00,0.0175
1004.00,0.0187
1003.00,0.0204
1002.00,0.0227
1001.00,0.0254
1000.00,0.0283
999.00,0.0306
998.00,0.0316
997.00,0.0309
996.00,0.0286
995.00,0.0256
994.00,0.0224
993.00,0.0197
992.00,0.0176
991.00,0.0161
990.00,0.0151
989.00,0.0145
988.00,0.0141
987.00,0.0138
986.00,0.0138
985.00,0.0138
984.00,0.0141
983.00,0.0147
982.00,0.0156
981.00,0.0170
980.00,0.0189
979.00,0.0215
978.00,0.0247
977.00,0.0283
976.00,0.0321
975.00,0.0354
974.00,0.0376
973.00,0.0379
972.00,0.0362
971.00,0.0330
970.00,0.0289
969.00,0.0249
968.00,0.0216
967.00,0.0190
966.00,0.0171
965.00,0.0157
964.00,0.0146
963.00,0.0138
962.00,0.0132
961.00,0.0127
960.00,0.0124
959.00,0.0121
958.00,0.0119
957.00,0.0117
956.00,0.0115
955.00,0.0114
954.00,0.0112
953.00,0.0111
952.00,0.0110
951.00,0.0109
950.00,0.0109
949.00,0.0109
948.00,0.0109
947.00,0.0110
946.00,0.0111
945.00,0.0114
944.00,0.0118
943.00,0.0122
942.00,0.0126
941.00,0.0128
940.00,0.0128
939.00,0.0125
938.00,0.0121
937.00,0.0116
936.00,0.0111
935.00,0.0107
934.00,0.0103
933.00,0.0100
932.00,0.0098
931.00,0.0097
930.00,0.0096
929.00,0.0095
928.00,0.0094
927.00,0.0093
926.00,0.0092
925.00,0.0092
924.00,0.0091
923.00,0.0091
922.00,0.0091
921.00,0.0091
920.00,0.0091
919.00,0.0091
918.00,0.0092
917.00,0.0093
916.00,0.0094
915.00,0.0095
914.00,0.0096
913.00,0.0097
912.00,0.0098
911.00,0.0100
910.00,0.0103
909.00,0.0105
908.00,0.0108
907.00,0.0113
906.00,0.0120
905.00,0.0131
904.00,0.0146
903.00,0.0164
902.00,0.0184
901.00,0.0202
900.00,0.0213
899.00,0.0215
898.00,0.0207
897.00,0.0190
896.00,0.0171
895.00,0.0153
894.00,0.0139
893.00,0.0127
892.00,0.0119
891.00,0.0113
890.00,0.0108
889.00,0.0105
888.00,0.0104
887.00,0.0105
886.00,0.0106
885.00,0.0107
884.00,0.0107
883.00,0.0108
882.00,0.0109
881.00,0.0111
880.00,0.0114
879.00,0.0116
878.00,0.0119
877.00,0.0122
876.00,0.0122
875.00,0.0121
874.00,0.0117
873.00,0.0114
872.00,0.0111
871.00,0.0110
870.00,0.0110
869.00,0.0110
868.00,0.0110
867.00,0.0109
866.00,0.0109
865.00,0.0108
864.00,0.0107
863.00,0.0106
862.00,0.0106
861.00,0.0107
860.00,0.0109
859.00,0.0111
858.00,0.0113
857.00,0.0115
856.00,0.0117
855.00,0.0119
854.00,0.0121
853.00,0.0122
852.00,0.0124
851.00,0.0127
850.00,0.0131
849.00,0.0136
848.00,0.0143
847.00,0.0153
846.00,0.0169
845.00,0.0194
844.00,0.0228
843.00,0.0265
842.00,0.0293
841.00,0.0300
840.00,0.0282
839.00,0.0248
838.00,0.0212
837.00,0.0184
836.00,0.0167
835.00,0.0158
834.00,0.0152
833.00,0.0148
832.00,0.0145
831.00,0.0145
830.00,0.0145
829.00,0.0145
828.00,0.0145
827.00,0.0144
826.00,0.0143
825.00,0.0144
824.00,0.0144
823.00,0.0144
822.00,0.0144
821.00,0.0142
820.00,0.0142
819.00,0.0143
818.00,0.0146
817.00,0.0151
816.00,0.0159
815.00,0.0171
814.00,0.0187
813.00,0.0206
812.00,0.0226
811.00,0.0242
810.00,0.0255
809.00,0.0260
808.00,0.0257
807.00,0.0246
806.00,0.0230
805.00,0.0210
804.00,0.0192
803.00,0.0177
802.00,0.0166
801.00,0.0158
800.00,0.0151
799.00,0.0145
798.00,0.0140
797.00,0.0137
796.00,0.0134
795.00,0.0133
794.00,0.0131
793.00,0.0130
792.00,0.0127
791.00,0.0125
790.00,0.0121
789.00,0.0117
788.00,0.0114
787.00,0.0111
786.00,0.0108
785.00,0.0106
784.00,0.0105
783.00,0.0105
782.00,0.0104
781.00,0.0103
780.00,0.0103
779.00,0.0103
778.00,0.0103
777.00,0.0102
776.00,0.0101
775.00,0.0100
774.00,0.0099
773.00,0.0099
772.00,0.0099
771.00,0.0100
770.00,0.0102
769.00,0.0103
768.00,0.0105
767.00,0.0105
766.00,0.0105
765.00,0.0105
764.00,0.0104
763.00,0.0104
762.00,0.0105
761.00,0.0106
760.00,0.0108
759.00,0.0111
758.00,0.0113
757.00,0.0113
756.00,0.0113
755.00,0.0112
754.00,0.0113
753.00,0.0114
752.00,0.0116
751.00,0.0118
750.00,0.0120
749.00,0.0122
748.00,0.0124
747.00,0.0126
746.00,0.0128
745.00,0.0131
744.00,0.0133
743.00,0.0135
742.00,0.0138
741.00,0.0143
740.00,0.0147
739.00,0.0153
738.00,0.0158
737.00,0.0163
736.00,0.0167
735.00,0.0172
734.00,0.0177
733.00,0.0183
732.00,0.0190
731.00,0.0198
730.00,0.0205
729.00,0.0210
728.00,0.0211
727.00,0.0210
726.00,0.0209
725.00,0.0210
724.00,0.0214
723.00,0.0219
722.00,0.0225
721.00,0.0228
720.00,0.0226
719.00,0.0217
718.00,0.0203
717.00,0.0188
716.00,0.0175
715.00,0.0166
714.00,0.0161
713.00,0.0158
712.00,0.0156
711.00,0.0154
710.00,0.0153
709.00,0.0152
708.00,0.0151
707.00,0.0150
706.00,0.0150
705.00,0.0151
704.00,0.0150
703.00,0.0147
702.00,0.0143
701.00,0.0137
700.00,0.0131
699.00,0.0125
698.00,0.0120
697.00,0.0117
696.00,0.0116
695.00,0.0117
694.00,0.0118
693.00,0.0118
692.00,0.0119
691.00,0.0119
690.00,0.0119
689.00,0.0119
688.00,0.0117
687.00,0.0114
686.00,0.0112
685.00,0.0112
684.00,0.0113
683.00,0.0115
682.00,0.0116
681.00,0.0117
680.00,0.0116
679.00,0.0116
678.00,0.0117
677.00,0.0118
676.00,0.0120
675.00,0.0122
674.00,0.0124
673.00,0.0125
672.00,0.0125
671.00,0.0125
670.00,0.0125
669.00,0.0123
668.00,0.0121
667.00,0.0120
666.00,0.0120
665.00,0.0121
664.00,0.0122
663.00,0.0123
662.00,0.0124
661.00,0.0124
660.00,0.0124
659.00,0.0121
658.00,0.0118
657.00,0.0115
656.00,0.0115
655.00,0.0116
654.00,0.0119
653.00,0.0120
652.00,0.0120
651.00,0.0118
650.00,0.0117
649.00,0.0117
648.00,0.0119
647.00,0.0120
646.00,0.0120
645.00,0.0119
644.00,0.0119
643.00,0.0120
642.00,0.0122
641.00,0.0125
640.00,0.0127
639.00,0.0128
638.00,0.0128
637.00,0.0126
636.00,0.0124
635.00,0.0121
634.00,0.0119
633.00,0.0118
632.00,0.0120
631.00,0.0123
630.00,0.0125
629.00,0.0127
628.00,0.0127
627.00,0.0127
626.00,0.0126
625.00,0.0125
624.00,0.0125
623.00,0.0126
622.00,0.0128
621.00,0.0129
620.00,0.0128
619.00,0.0127
618.00,0.0126
617.00,0.0125
616.00,0.0125
615.00,0.0126
614.00,0.0128
613.00,0.0129
612.00,0.0130
611.00,0.0131
610.00,0.0132
609.00,0.0131
608.00,0.0130
607.00,0.0131
606.00,0.0133
605.00,0.0133
604.00,0.0129
603.00,0.0125
602.00,0.0122
601.00,0.0123
600.00,0.0125
599.00,0.0126
598.00,0.0127
597.00,0.0128
596.00,0.0129
595.00,0.0131
594.00,0.0132
593.00,0.0131
592.00,0.0130
591.00,0.0128
590.00,0.0126
589.00,0.0124
588.00,0.0122
587.00,0.0122
586.00,0.0124
585.00,0.0127
584.00,0.0129
583.00,0.0130
582.00,0.0130
581.00,0.0131
580.00,0.0131
579.00,0.0132
578.00,0.0132
577.00,0.0130
576.00,0.0126
575.00,0.0123
574.00,0.0124
573.00,0.0129
572.00,0.0134
571.00,0.0136
570.00,0.0135
569.00,0.0133
568.00,0.0132
567.00,0.0132
566.00,0.0132
565.00,0.0131
564.00,0.0130
563.00,0.0130
562.00,0.0131
561.00,0.0132
560.00,0.0134
559.00,0.0134
558.00,0.0132
557.00,0.0128
556.00,0.0124
555.00,0.0123
554.00,0.0124
553.00,0.0126
552.00,0.0126
551.00,0.0124
550.00,0.0121
549.00,0.0119
548.00,0.0119
547.00,0.0119
546.00,0.0118
545.00,0.0117
544.00,0.0116
543.00,0.0118
542.00,0.0120
541.00,0.0122
540.00,0.0123
539.00,0.0124
538.00,0.0128
537.00,0.0132
536.00,0.0134
535.00,0.0134
534.00,0.0135
533.00,0.0137
532.00,0.0140
531.00,0.0143
530.00,0.0142
529.00,0.0139
528.00,0.0135
527.00,0.0134
526.00,0.0136
525.00,0.0137
524.00,0.0136
523.00,0.0132
522.00,0.0129
521.00,0.0126
520.00,0.0125
519.00,0.0127
518.00,0.0129
517.00,0.0133
516.00,0.0135
515.00,0.0135
514.00,0.0136
513.00,0.0137
512.00,0.0139
511.00,0.0139
510.00,0.0137
509.00,0.0131
508.00,0.0124
507.00,0.0119
506.00,0.0120
505.00,0.0124
504.00,0.0127
503.00,0.0127
502.00,0.0125
501.00,0.0125
500.00,0.0127
499.00,0.0126
498.00,0.0120
497.00,0.0113
496.00,0.0106
495.00,0.0103
494.00,0.0103
493.00,0.0106
492.00,0.0110
491.00,0.0114
490.00,0.0115
489.00,0.0116
488.00,0.0119
487.00,0.0123
486.00,0.0123
485.00,0.0120
484.00,0.0117
483.00,0.0120
482.00,0.0126
481.00,0.0130
480.00,0.0132
479.00,0.0134
478.00,0.0139
477.00,0.0142
476.00,0.0141
475.00,0.0139
474.00,0.0139
473.00,0.0143
472.00,0.0147
471.00,0.0149
470.00,0.0146
469.00,0.0141
468.00,0.0138
467.00,0.0142
466.00,0.0149
465.00,0.0155
464.00,0.0157
463.00,0.0160
462.00,0.0167
461.00,0.0177
460.00,0.0187
459.00,0.0191
458.00,0.0188
457.00,0.0180
456.00,0.0174
455.00,0.0174
454.00,0.0179
453.00,0.0185
452.00,0.0189
451.00,0.0189
450.00,0.0185
