Created as New Dataset,Sample 129 By Administrator Date Friday, September 05 2025
cm-1,A
4000.00,0.0013
3999.00,0.0013
3998.00,0.0013
3997.00,0.0013
3996.00,0.0013
3995.00,0.0014
3994.00,0.0014
3993.00,0.0014
3992.00,0.0014
3991.00,0.0014
3990.00,0.0013
3989.00,0.0013
3988.00,0.0013
3987.00,0.0013
3986.00,0.0013
3985.00,0.0012
3984.00,0.0012
3983.00,0.0012
3982.00,0.0012
3981.00,0.0012
3980.00,0.0013
3979.00,0.0013
3978.00,0.0013
3977.00,0.0013
3976.00,0.0013
3975.00,0.0012
3974.00,0.0012
3973.00,0.0012
3972.00,0.0012
3971.00,0.0012
3970.00,0.0012
3969.00,0.0012
3968.00,0.0012
3967.00,0.0012
3966.00,0.0012
3965.00,0.0011
3964.00,0.0011
3963.00,0.0011
3962.00,0.0012
3961.00,0.0012
3960.00,0.0012
3959.00,0.0012
3958.00,0.0012
3957.00,0.0011
3956.00,0.0011
3955.00,0.0011
3954.00,0.0011
3953.00,0.0011
3952.00,0.0012
3951.00,0.0012
3950.00,0.0012
3949.00,0.0012
3948.00,0.0012
3947.00,0.0011
3946.00,0.0011
3945.00,0.0011
3944.00,0.0012
3943.00,0.0012
3942.00,0.0012
3941.00,0.0011
3940.00,0.0011
3939.00,0.0011
3938.00,0.0011
3937.00,0.0011
3936.00,0.0011
3935.00,0.0011
3934.00,0.0012
3933.00,0.0012
3932.00,0.0012
3931.00,0.0012
3930.00,0.0012
3929.00,0.0012
3928.00,0.0012
3927.00,0.0012
3926.00,0.0012
3925.00,0.0012
3924.00,0.0012
3923.00,0.0012
3922.00,0.0012
3921.00,0.0012
3920.00,0.0012
3919.00,0.0012
3918.00,0.0012
3917.00,0.0012
3916.00,0.0011
3915.00,0.0011
3914.00,0.0011
3913.00,0.0011
3912.00,0.0011
3911.00,0.0011
3910.00,0.0011
3909.00,0.0012
3908.00,0.0012
3907.00,0.0012
3906.00,0.0012
3905.00,0.0012
3904.00,0.0012
3903.00,0.0012
3902.00,0.0012
3901.00,0.0012
3900.00,0.0012
3899.00,0.0012
3898.00,0.0012
3897.00,0.0012
3896.00,0.0012
3895.00,0.0012
3894.00,0.0012
3893.00,0.0012
3892.00,0.0012
3891.00,0.0012
3890.00,0.0012
3889.00,0.0012
3888.00,0.0012
3887.00,0.0012
3886.00,0.0012
3885.00,0.0012
3884.00,0.0012
3883.00,0.0012
3882.00,0.0012
3881.00,0.0012
3880.00,0.0012
3879.00,0.0012
3878.00,0.0013
3877.00,0.0013
3876.00,0.0012
3875.00,0.0012
3874.00,0.0012
3873.00,0.0012
3872.00,0.0012
3871.00,0.0012
3870.00,0.0012
3869.00,0.0012
3868.00,0.0012
3867.00,0.0012
3866.00,0.0011
3865.00,0.0010
3864.00,0.0010
3863.00,0.0011
3862.00,0.0011
3861.00,0.0011
3860.00,0.0011
3859.00,0.0011
3858.00,0.0011
3857.00,0.0011
3856.00,0.0012
3855.00,0.0011
3854.00,0.0011
3853.00,0.0011
3852.00,0.0011
3851.00,0.0011
3850.00,0.0010
3849.00,0.0010
3848.00,0.0010
3847.00,0.0011
3846.00,0.0011
3845.00,0.0011
3844.00,0.0011
3843.00,0.0011
3842.00,0.0012
3841.00,0.0012
3840.00,0.0012
3839.00,0.0012
3838.00,0.0012
3837.00,0.0012
3836.00,0.0012
3835.00,0.0012
3834.00,0.0011
3833.00,0.0011
3832.00,0.0011
3831.00,0.0011
3830.00,0.0011
3829.00,0.0011
3828.00,0.0011
3827.00,0.0011
3826.00,0.0011
3825.00,0.0012
3824.00,0.0013
3823.00,0.0013
3822.00,0.0012
3821.00,0.0012
3820.00,0.0012
3819.00,0.0012
3818.00,0.0012
3817.00,0.0011
3816.00,0.0011
3815.00,0.0011
3814.00,0.0011
3813.00,0.0011
3812.00,0.0011
3811.00,0.0011
3810.00,0.0011
3809.00,0.0011
3808.00,0.0011
3807.00,0.0012
3806.00,0.0012
3805.00,0.0013
3804.00,0.0013
3803.00,0.0013
3802.00,0.0012
3801.00,0.0012
3800.00,0.0012
3799.00,0.0012
3798.00,0.0011
3797.00,0.0011
3796.00,0.0011
3795.00,0.0011
3794.00,0.0011
3793.00,0.0011
3792.00,0.0010
3791.00,0.0010
3790.00,0.0011
3789.00,0.0011
3788.00,0.0011
3787.00,0.0011
3786.00,0.0011
3785.00,0.0011
3784.00,0.0011
3783.00,0.0011
3782.00,0.0011
3781.00,0.0011
3780.00,0.0011
3779.00,0.0011
3778.00,0.0011
3777.00,0.0012
3776.00,0.0012
3775.00,0.0012
3774.00,0.0012
3773.00,0.0012
3772.00,0.0012
3771.00,0.0012
3770.00,0.0012
3769.00,0.0011
3768.00,0.0011
3767.00,0.0011
3766.00,0.0011
3765.00,0.0011
3764.00,0.0011
3763.00,0.0011
3762.00,0.0011
3761.00,0.0011
3760.00,0.0011
3759.00,0.0011
3758.00,0.0012
3757.00,0.0012
3756.00,0.0013
3755.00,0.0013
3754.00,0.0013
3753.00,0.0013
3752.00,0.0013
3751.00,0.0013
3750.00,0.0013
3749.00,0.0013
3748.00,0.0013
3747.00,0.0013
3746.00,0.0012
3745.00,0.0012
3744.00,0.0011
3743.00,0.0011
3742.00,0.0010
3741.00,0.0010
3740.00,0.0010
3739.00,0.0011
3738.00,0.0012
3737.00,0.0012
3736.00,0.0012
3735.00,0.0012
3734.00,0.0012
3733.00,0.0011
3732.00,0.0011
3731.00,0.0011
3730.00,0.0011
3729.00,0.0010
3728.00,0.0010
3727.00,0.0010
3726.00,0.0010
3725.00,0.0010
3724.00,0.0009
3723.00,0.0009
3722.00,0.0009
3721.00,0.0010
3720.00,0.0010
3719.00,0.0010
3718.00,0.0010
3717.00,0.0010
3716.00,0.0010
3715.00,0.0010
3714.00,0.0011
3713.00,0.0011
3712.00,0.0010
3711.00,0.0011
3710.00,0.0011
3709.00,0.0011
3708.00,0.0011
3707.00,0.0010
3706.00,0.0010
3705.00,0.0010
3704.00,0.0010
3703.00,0.0010
3702.00,0.0009
3701.00,0.0009
3700.00,0.0009
3699.00,0.0009
3698.00,0.0009
3697.00,0.0009
3696.00,0.0009
3695.00,0.0010
3694.00,0.0010
3693.00,0.0011
3692.00,0.0011
3691.00,0.0011
3690.00,0.0010
3689.00,0.0010
3688.00,0.0009
3687.00,0.0010
3686.00,0.0010
3685.00,0.0010
3684.00,0.0010
3683.00,0.0010
3682.00,0.0010
3681.00,0.0009
3680.00,0.0009
3679.00,0.0009
3678.00,0.0009
3677.00,0.0010
3676.00,0.0010
3675.00,0.0010
3674.00,0.0010
3673.00,0.0011
3672.00,0.0011
3671.00,0.0011
3670.00,0.0011
3669.00,0.0010
3668.00,0.0010
3667.00,0.0009
3666.00,0.0008
3665.00,0.0008
3664.00,0.0008
3663.00,0.0008
3662.00,0.0008
3661.00,0.0008
3660.00,0.0009
3659.00,0.0009
3658.00,0.0009
3657.00,0.0009
3656.00,0.0009
3655.00,0.0009
3654.00,0.0009
3653.00,0.0009
3652.00,0.0010
3651.00,0.0010
3650.00,0.0010
3649.00,0.0009
3648.00,0.0009
3647.00,0.0009
3646.00,0.0008
3645.00,0.0009
3644.00,0.0009
3643.00,0.0009
3642.00,0.0009
3641.00,0.0009
3640.00,0.0009
3639.00,0.0009
3638.00,0.0010
3637.00,0.0010
3636.00,0.0011
3635.00,0.0011
3634.00,0.0011
3633.00,0.0011
3632.00,0.0011
3631.00,0.0010
3630.00,0.0010
3629.00,0.0009
3628.00,0.0009
3627.00,0.0009
3626.00,0.0009
3625.00,0.0008
3624.00,0.0008
3623.00,0.0008
3622.00,0.0009
3621.00,0.0009
3620.00,0.0010
3619.00,0.0010
3618.00,0.0010
3617.00,0.0011
3616.00,0.0011
3615.00,0.0010
3614.00,0.0010
3613.00,0.0010
3612.00,0.0010
3611.00,0.0010
3610.00,0.0010
3609.00,0.0010
3608.00,0.0010
3607.00,0.0011
3606.00,0.0012
3605.00,0.0012
3604.00,0.0012
3603.00,0.0011
3602.00,0.0011
3601.00,0.0010
3600.00,0.0011
3599.00,0.0011
3598.00,0.0012
3597.00,0.0012
3596.00,0.0012
3595.00,0.0012
3594.00,0.0012
3593.00,0.0012
3592.00,0.0012
3591.00,0.0012
3590.00,0.0011
3589.00,0.0011
3588.00,0.0012
3587.00,0.0012
3586.00,0.0013
3585.00,0.0013
3584.00,0.0013
3583.00,0.0013
3582.00,0.0013
3581.00,0.0013
3580.00,0.0013
3579.00,0.0013
3578.00,0.0013
3577.00,0.0013
3576.00,0.0013
3575.00,0.0013
3574.00,0.0013
3573.00,0.0014
3572.00,0.0014
3571.00,0.0014
3570.00,0.0014
3569.00,0.0014
3568.00,0.0014
3567.00,0.0014
3566.00,0.0014
3565.00,0.0015
3564.00,0.0015
3563.00,0.0015
3562.00,0.0015
3561.00,0.0015
3560.00,0.0015
3559.00,0.0016
3558.00,0.0016
3557.00,0.0016
3556.00,0.0016
3555.00,0.0016
3554.00,0.0016
3553.00,0.0017
3552.00,0.0017
3551.00,0.0017
3550.00,0.0016
3549.00,0.0016
3548.00,0.0016
3547.00,0.0016
3546.00,0.0016
3545.00,0.0016
3544.00,0.0017
3543.00,0.0017
3542.00,0.0017
3541.00,0.0017
3540.00,0.0017
3539.00,0.0017
3538.00,0.0017
3537.00,0.0017
3536.00,0.0017
3535.00,0.0017
3534.00,0.0018
3533.00,0.0018
3532.00,0.0018
3531.00,0.0018
3530.00,0.0018
3529.00,0.0019
3528.00,0.0019
3527.00,0.0019
3526.00,0.0019
3525.00,0.0019
3524.00,0.0019
3523.00,0.0019
3522.00,0.0019
3521.00,0.0019
3520.00,0.0019
3519.00,0.0019
3518.00,0.0020
3517.00,0.0020
3516.00,0.0020
3515.00,0.0020
3514.00,0.0020
3513.00,0.0020
3512.00,0.0020
3511.00,0.0020
3510.00,0.0020
3509.00,0.0021
3508.00,0.0021
3507.00,0.0021
3506.00,0.0021
3505.00,0.0021
3504.00,0.0021
3503.00,0.0021
3502.00,0.0021
3501.00,0.0021
3500.00,0.0021
3499.00,0.0021
3498.00,0.0021
3497.00,0.0021
3496.00,0.0021
3495.00,0.0021
3494.00,0.0021
3493.00,0.0021
3492.00,0.0021
3491.00,0.0021
3490.00,0.0021
3489.00,0.0021
3488.00,0.0021
3487.00,0.0021
3486.00,0.0022
3485.00,0.0022
3484.00,0.0023
3483.00,0.0023
3482.00,0.0024
3481.00,0.0024
3480.00,0.0024
3479.00,0.0024
3478.00,0.0024
3477.00,0.0023
3476.00,0.0023
3475.00,0.0023
3474.00,0.0024
3473.00,0.0024
3472.00,0.0024
3471.00,0.0024
3470.00,0.0024
3469.00,0.0023
3468.00,0.0023
3467.00,0.0023
3466.00,0.0024
3465.00,0.0024
3464.00,0.0024
3463.00,0.0024
3462.00,0.0024
3461.00,0.0024
3460.00,0.0024
3459.00,0.0024
3458.00,0.0025
3457.00,0.0025
3456.00,0.0025
3455.00,0.0025
3454.00,0.0026
3453.00,0.0026
3452.00,0.0026
3451.00,0.0026
3450.00,0.0026
3449.00,0.0026
3448.00,0.0026
3447.00,0.0026
3446.00,0.0026
3445.00,0.0026
3444.00,0.0026
3443.00,0.0026
3442.00,0.0027
3441.00,0.0027
3440.00,0.0027
3439.00,0.0027
3438.00,0.0027
3437.00,0.0027
3436.00,0.0027
3435.00,0.0027
3434.00,0.0027
3433.00,0.0027
3432.00,0.0027
3431.00,0.0027
3430.00,0.0028
3429.00,0.0028
3428.00,0.0028
3427.00,0.0028
3426.00,0.0027
3425.00,0.0027
3424.00,0.0027
3423.00,0.0027
3422.00,0.0027
3421.00,0.0028
3420.00,0.0028
3419.00,0.0029
3418.00,0.0029
3417.00,0.0029
3416.00,0.0029
3415.00,0.0029
3414.00,0.0029
3413.00,0.0029
3412.00,0.0029
3411.00,0.0029
3410.00,0.0029
3409.00,0.0029
3408.00,0.0029
3407.00,0.0029
3406.00,0.0029
3405.00,0.0029
3404.00,0.0029
3403.00,0.0029
3402.00,0.0029
3401.00,0.0029
3400.00,0.0030
3399.00,0.0030
3398.00,0.0029
3397.00,0.0029
3396.00,0.0029
3395.00,0.0029
3394.00,0.0029
3393.00,0.0029
3392.00,0.0029
3391.00,0.0029
3390.00,0.0029
3389.00,0.0029
3388.00,0.0029
3387.00,0.0029
3386.00,0.0029
3385.00,0.0029
3384.00,0.0029
3383.00,0.0030
3382.00,0.0030
3381.00,0.0030
3380.00,0.0030
3379.00,0.0030
3378.00,0.0030
3377.00,0.0029
3376.00,0.0029
3375.00,0.0029
3374.00,0.0029
3373.00,0.0029
3372.00,0.0029
3371.00,0.0030
3370.00,0.0030
3369.00,0.0030
3368.00,0.0030
3367.00,0.0030
3366.00,0.0030
3365.00,0.0030
3364.00,0.0030
3363.00,0.0029
3362.00,0.0029
3361.00,0.0029
3360.00,0.0029
3359.00,0.0029
3358.00,0.0029
3357.00,0.0029
3356.00,0.0029
3355.00,0.0029
3354.00,0.0029
3353.00,0.0029
3352.00,0.0029
3351.00,0.0029
3350.00,0.0029
3349.00,0.0029
3348.00,0.0029
3347.00,0.0029
3346.00,0.0030
3345.00,0.0030
3344.00,0.0031
3343.00,0.0031
3342.00,0.0031
3341.00,0.0031
3340.00,0.0030
3339.00,0.0030
3338.00,0.0030
3337.00,0.0029
3336.00,0.0030
3335.00,0.0029
3334.00,0.0029
3333.00,0.0029
3332.00,0.0029
3331.00,0.0028
3330.00,0.0028
3329.00,0.0028
3328.00,0.0028
3327.00,0.0028
3326.00,0.0028
3325.00,0.0028
3324.00,0.0028
3323.00,0.0027
3322.00,0.0027
3321.00,0.0026
3320.00,0.0026
3319.00,0.0027
3318.00,0.0027
3317.00,0.0027
3316.00,0.0028
3315.00,0.0028
3314.00,0.0027
3313.00,0.0027
3312.00,0.0028
3311.00,0.0028
3310.00,0.0027
3309.00,0.0027
3308.00,0.0027
3307.00,0.0027
3306.00,0.0027
3305.00,0.0027
3304.00,0.0027
3303.00,0.0027
3302.00,0.0027
3301.00,0.0027
3300.00,0.0028
3299.00,0.0028
3298.00,0.0027
3297.00,0.0027
3296.00,0.0027
3295.00,0.0026
3294.00,0.0026
3293.00,0.0026
3292.00,0.0026
3291.00,0.0027
3290.00,0.0027
3289.00,0.0027
3288.00,0.0027
3287.00,0.0027
3286.00,0.0027
3285.00,0.0027
3284.00,0.0027
3283.00,0.0026
3282.00,0.0026
3281.00,0.0026
3280.00,0.0026
3279.00,0.0026
3278.00,0.0026
3277.00,0.0026
3276.00,0.0026
3275.00,0.0026
3274.00,0.0025
3273.00,0.0025
3272.00,0.0025
3271.00,0.0026
3270.00,0.0026
3269.00,0.0026
3268.00,0.0026
3267.00,0.0026
3266.00,0.0026
3265.00,0.0026
3264.00,0.0026
3263.00,0.0025
3262.00,0.0025
3261.00,0.0025
3260.00,0.0024
3259.00,0.0024
3258.00,0.0024
3257.00,0.0024
3256.00,0.0024
3255.00,0.0024
3254.00,0.0024
3253.00,0.0024
3252.00,0.0024
3251.00,0.0024
3250.00,0.0024
3249.00,0.0024
3248.00,0.0024
3247.00,0.0024
3246.00,0.0024
3245.00,0.0024
3244.00,0.0025
3243.00,0.0025
3242.00,0.0025
3241.00,0.0025
3240.00,0.0025
3239.00,0.0024
3238.00,0.0024
3237.00,0.0025
3236.00,0.0025
3235.00,0.0025
3234.00,0.0025
3233.00,0.0025
3232.00,0.0025
3231.00,0.0025
3230.00,0.0025
3229.00,0.0025
3228.00,0.0025
3227.00,0.0026
3226.00,0.0026
3225.00,0.0026
3224.00,0.0027
3223.00,0.0027
3222.00,0.0027
3221.00,0.0027
3220.00,0.0027
3219.00,0.0027
3218.00,0.0028
3217.00,0.0028
3216.00,0.0029
3215.00,0.0029
3214.00,0.0030
3213.00,0.0030
3212.00,0.0030
3211.00,0.0030
3210.00,0.0030
3209.00,0.0029
3208.00,0.0029
3207.00,0.0029
3206.00,0.0029
3205.00,0.0029
3204.00,0.0030
3203.00,0.0030
3202.00,0.0031
3201.00,0.0031
3200.00,0.0031
3199.00,0.0031
3198.00,0.0031
3197.00,0.0031
3196.00,0.0031
3195.00,0.0031
3194.00,0.0031
3193.00,0.0031
3192.00,0.0031
3191.00,0.0031
3190.00,0.0031
3189.00,0.0031
3188.00,0.0031
3187.00,0.0031
3186.00,0.0031
3185.00,0.0030
3184.00,0.0030
3183.00,0.0030
3182.00,0.0030
3181.00,0.0030
3180.00,0.0030
3179.00,0.0030
3178.00,0.0030
3177.00,0.0030
3176.00,0.0030
3175.00,0.0029
3174.00,0.0029
3173.00,0.0029
3172.00,0.0029
3171.00,0.0028
3170.00,0.0028
3169.00,0.0028
3168.00,0.0028
3167.00,0.0029
3166.00,0.0029
3165.00,0.0029
3164.00,0.0028
3163.00,0.0028
3162.00,0.0029
3161.00,0.0029
3160.00,0.0029
3159.00,0.0029
3158.00,0.0029
3157.00,0.0028
3156.00,0.0028
3155.00,0.0028
3154.00,0.0028
3153.00,0.0028
3152.00,0.0028
3151.00,0.0028
3150.00,0.0028
3149.00,0.0029
3148.00,0.0029
3147.00,0.0029
3146.00,0.0028
3145.00,0.0028
3144.00,0.0028
3143.00,0.0028
3142.00,0.0028
3141.00,0.0028
3140.00,0.0028
3139.00,0.0028
3138.00,0.0028
3137.00,0.0028
3136.00,0.0028
3135.00,0.0028
3134.00,0.0028
3133.00,0.0028
3132.00,0.0028
3131.00,0.0028
3130.00,0.0027
3129.00,0.0027
3128.00,0.0026
3127.00,0.0026
3126.00,0.0026
3125.00,0.0026
3124.00,0.0026
3123.00,0.0026
3122.00,0.0025
3121.00,0.0025
3120.00,0.0025
3119.00,0.0025
3118.00,0.0024
3117.00,0.0024
3116.00,0.0024
3115.00,0.0024
3114.00,0.0024
3113.00,0.0024
3112.00,0.0024
3111.00,0.0024
3110.00,0.0024
3109.00,0.0025
3108.00,0.0025
3107.00,0.0025
3106.00,0.0025
3105.00,0.0024
3104.00,0.0024
3103.00,0.0024
3102.00,0.0024
3101.00,0.0024
3100.00,0.0024
3099.00,0.0024
3098.00,0.0024
3097.00,0.0024
3096.00,0.0024
3095.00,0.0024
3094.00,0.0024
3093.00,0.0024
3092.00,0.0024
3091.00,0.0024
3090.00,0.0024
3089.00,0.0024
3088.00,0.0024
3087.00,0.0024
3086.00,0.0023
3085.00,0.0023
3084.00,0.0024
3083.00,0.0024
3082.00,0.0024
3081.00,0.0024
3080.00,0.0024
3079.00,0.0024
3078.00,0.0024
3077.00,0.0025
3076.00,0.0025
3075.00,0.0025
3074.00,0.0025
3073.00,0.0025
3072.00,0.0025
3071.00,0.0025
3070.00,0.0026
3069.00,0.0026
3068.00,0.0026
3067.00,0.0026
3066.00,0.0026
3065.00,0.0026
3064.00,0.0026
3063.00,0.0027
3062.00,0.0026
3061.00,0.0026
3060.00,0.0026
3059.00,0.0027
3058.00,0.0027
3057.00,0.0027
3056.00,0.0028
3055.00,0.0028
3054.00,0.0028
3053.00,0.0028
3052.00,0.0028
3051.00,0.0028
3050.00,0.0029
3049.00,0.0029
3048.00,0.0029
3047.00,0.0029
3046.00,0.0029
3045.00,0.0029
3044.00,0.0029
3043.00,0.0029
3042.00,0.0029
3041.00,0.0030
3040.00,0.0030
3039.00,0.0030
3038.00,0.0031
3037.00,0.0031
3036.00,0.0032
3035.00,0.0032
3034.00,0.0032
3033.00,0.0032
3032.00,0.0033
3031.00,0.0034
3030.00,0.0035
3029.00,0.0035
3028.00,0.0035
3027.00,0.0036
3026.00,0.0036
3025.00,0.0036
3024.00,0.0037
3023.00,0.0038
3022.00,0.0038
3021.00,0.0039
3020.00,0.0039
3019.00,0.0040
3018.00,0.0041
3017.00,0.0042
3016.00,0.0044
3015.00,0.0045
3014.00,0.0046
3013.00,0.0047
3012.00,0.0048
3011.00,0.0049
3010.00,0.0051
3009.00,0.0052
3008.00,0.0054
3007.00,0.0056
3006.00,0.0058
3005.00,0.0059
3004.00,0.0061
3003.00,0.0063
3002.00,0.0066
3001.00,0.0068
3000.00,0.0071
2999.00,0.0074
2998.00,0.0077
2997.00,0.0080
2996.00,0.0084
2995.00,0.0088
2994.00,0.0092
2993.00,0.0096
2992.00,0.0101
2991.00,0.0107
2990.00,0.0114
2989.00,0.0121
2988.00,0.0129
2987.00,0.0138
2986.00,0.0148
2985.00,0.0159
2984.00,0.0171
2983.00,0.0185
2982.00,0.0200
2981.00,0.0218
2980.00,0.0238
2979.00,0.0262
2978.00,0.0288
2977.00,0.0319
2976.00,0.0353
2975.00,0.0393
2974.00,0.0438
2973.00,0.0490
2972.00,0.0549
2971.00,0.0615
2970.00,0.0689
2969.00,0.0772
2968.00,0.0862
2967.00,0.0960
2966.00,0.1063
2965.00,0.1171
2964.00,0.1278
2963.00,0.1380
2962.00,0.1471
2961.00,0.1547
2960.00,0.1607
2959.00,0.1653
2958.00,0.1688
2957.00,0.1718
2956.00,0.1751
2955.00,0.1789
2954.00,0.1833
2953.00,0.1878
2952.00,0.1918
2951.00,0.1940
2950.00,0.1936
2949.00,0.1898
2948.00,0.1825
2947.00,0.1721
2946.00,0.1596
2945.00,0.1465
2944.00,0.1340
2943.00,0.1231
2942.00,0.1146
2941.00,0.1085
2940.00,0.1050
2939.00,0.1038
2938.00,0.1046
2937.00,0.1072
2936.00,0.1114
2935.00,0.1172
2934.00,0.1243
2933.00,0.1327
2932.00,0.1420
2931.00,0.1522
2930.00,0.1629
2929.00,0.1737
2928.00,0.1844
2927.00,0.1947
2926.00,0.2045
2925.00,0.2139
2924.00,0.2230
2923.00,0.2319
2922.00,0.2405
2921.00,0.2486
2920.00,0.2556
2919.00,0.2607
2918.00,0.2630
2917.00,0.2619
2916.00,0.2574
2915.00,0.2501
2914.00,0.2411
2913.00,0.2314
2912.00,0.2220
2911.00,0.2133
2910.00,0.2057
2909.00,0.1989
2908.00,0.1927
2907.00,0.1868
2906.00,0.1809
2905.00,0.1749
2904.00,0.1686
2903.00,0.1621
2902.00,0.1555
2901.00,0.1489
2900.00,0.1424
2899.00,0.1362
2898.00,0.1305
2897.00,0.1252
2896.00,0.1204
2895.00,0.1163
2894.00,0.1128
2893.00,0.1099
2892.00,0.1077
2891.00,0.1060
2890.00,0.1049
2889.00,0.1042
2888.00,0.1038
2887.00,0.1038
2886.00,0.1042
2885.00,0.1049
2884.00,0.1061
2883.00,0.1078
2882.00,0.1098
2881.00,0.1122
2880.00,0.1144
2879.00,0.1163
2878.00,0.1175
2877.00,0.1179
2876.00,0.1174
2875.00,0.1165
2874.00,0.1157
2873.00,0.1153
2872.00,0.1158
2871.00,0.1169
2870.00,0.1185
2869.00,0.1200
2868.00,0.1206
2867.00,0.1198
2866.00,0.1168
2865.00,0.1117
2864.00,0.1047
2863.00,0.0968
2862.00,0.0889
2861.00,0.0820
2860.00,0.0766
2859.00,0.0727
2858.00,0.0705
2857.00,0.0695
2856.00,0.0696
2855.00,0.0706
2854.00,0.0723
2853.00,0.0744
2852.00,0.0767
2851.00,0.0790
2850.00,0.0809
2849.00,0.0826
2848.00,0.0842
2847.00,0.0862
2846.00,0.0890
2845.00,0.0930
2844.00,0.0980
2843.00,0.1040
2842.00,0.1104
2841.00,0.1166
2840.00,0.1217
2839.00,0.1250
2838.00,0.1255
2837.00,0.1228
2836.00,0.1166
2835.00,0.1077
2834.00,0.0970
2833.00,0.0856
2832.00,0.0748
2831.00,0.0651
2830.00,0.0569
2829.00,0.0502
2828.00,0.0447
2827.00,0.0403
2826.00,0.0367
2825.00,0.0338
2824.00,0.0314
2823.00,0.0293
2822.00,0.0275
2821.00,0.0260
2820.00,0.0247
2819.00,0.0235
2818.00,0.0225
2817.00,0.0217
2816.00,0.0209
2815.00,0.0203
2814.00,0.0197
2813.00,0.0191
2812.00,0.0186
2811.00,0.0181
2810.00,0.0175
2809.00,0.0170
2808.00,0.0164
2807.00,0.0157
2806.00,0.0151
2805.00,0.0145
2804.00,0.0139
2803.00,0.0133
2802.00,0.0128
2801.00,0.0123
2800.00,0.0119
2799.00,0.0115
2798.00,0.0113
2797.00,0.0111
2796.00,0.0109
2795.00,0.0107
2794.00,0.0105
2793.00,0.0102
2792.00,0.0099
2791.00,0.0095
2790.00,0.0092
2789.00,0.0088
2788.00,0.0085
2787.00,0.0082
2786.00,0.0079
2785.00,0.0076
2784.00,0.0074
2783.00,0.0072
2782.00,0.0070
2781.00,0.0068
2780.00,0.0066
2779.00,0.0064
2778.00,0.0062
2777.00,0.0061
2776.00,0.0059
2775.00,0.0058
2774.00,0.0058
2773.00,0.0057
2772.00,0.0057
2771.00,0.0056
2770.00,0.0056
2769.00,0.0056
2768.00,0.0056
2767.00,0.0055
2766.00,0.0055
2765.00,0.0055
2764.00,0.0055
2763.00,0.0054
2762.00,0.0054
2761.00,0.0054
2760.00,0.0053
2759.00,0.0053
2758.00,0.0053
2757.00,0.0053
2756.00,0.0053
2755.00,0.0052
2754.00,0.0052
2753.00,0.0052
2752.00,0.0052
2751.00,0.0051
2750.00,0.0051
2749.00,0.0051
2748.00,0.0051
2747.00,0.0051
2746.00,0.0052
2745.00,0.0052
2744.00,0.0053
2743.00,0.0053
2742.00,0.0054
2741.00,0.0056
2740.00,0.0057
2739.00,0.0058
2738.00,0.0060
2737.00,0.0061
2736.00,0.0062
2735.00,0.0064
2734.00,0.0065
2733.00,0.0067
2732.00,0.0068
2731.00,0.0069
2730.00,0.0071
2729.00,0.0074
2728.00,0.0077
2727.00,0.0081
2726.00,0.0083
2725.00,0.0086
2724.00,0.0087
2723.00,0.0087
2722.00,0.0086
2721.00,0.0084
2720.00,0.0082
2719.00,0.0079
2718.00,0.0075
2717.00,0.0072
2716.00,0.0069
2715.00,0.0067
2714.00,0.0064
2713.00,0.0062
2712.00,0.0061
2711.00,0.0059
2710.00,0.0057
2709.00,0.0056
2708.00,0.0055
2707.00,0.0054
2706.00,0.0052
2705.00,0.0051
2704.00,0.0050
2703.00,0.0049
2702.00,0.0049
2701.00,0.0048
2700.00,0.0047
2699.00,0.0047
2698.00,0.0046
2697.00,0.0046
2696.00,0.0046
2695.00,0.0046
2694.00,0.0045
2693.00,0.0045
2692.00,0.0046
2691.00,0.0046
2690.00,0.0046
2689.00,0.0046
2688.00,0.0046
2687.00,0.0046
2686.00,0.0046
2685.00,0.0046
2684.00,0.0046
2683.00,0.0046
2682.00,0.0046
2681.00,0.0046
2680.00,0.0046
2679.00,0.0046
2678.00,0.0046
2677.00,0.0047
2676.00,0.0047
2675.00,0.0047
2674.00,0.0046
2673.00,0.0046
2672.00,0.0045
2671.00,0.0045
2670.00,0.0045
2669.00,0.0045
2668.00,0.0045
2667.00,0.0045
2666.00,0.0045
2665.00,0.0045
2664.00,0.0046
2663.00,0.0047
2662.00,0.0047
2661.00,0.0048
2660.00,0.0048
2659.00,0.0048
2658.00,0.0048
2657.00,0.0047
2656.00,0.0047
2655.00,0.0047
2654.00,0.0046
2653.00,0.0046
2652.00,0.0046
2651.00,0.0045
2650.00,0.0045
2649.00,0.0044
2648.00,0.0043
2647.00,0.0042
2646.00,0.0042
2645.00,0.0041
2644.00,0.0041
2643.00,0.0041
2642.00,0.0041
2641.00,0.0040
2640.00,0.0039
2639.00,0.0039
2638.00,0.0039
2637.00,0.0039
2636.00,0.0039
2635.00,0.0039
2634.00,0.0039
2633.00,0.0039
2632.00,0.0039
2631.00,0.0039
2630.00,0.0039
2629.00,0.0040
2628.00,0.0040
2627.00,0.0040
2626.00,0.0040
2625.00,0.0041
2624.00,0.0041
2623.00,0.0042
2622.00,0.0042
2621.00,0.0041
2620.00,0.0041
2619.00,0.0041
2618.00,0.0040
2617.00,0.0040
2616.00,0.0040
2615.00,0.0040
2614.00,0.0039
2613.00,0.0039
2612.00,0.0038
2611.00,0.0038
2610.00,0.0038
2609.00,0.0037
2608.00,0.0036
2607.00,0.0036
2606.00,0.0035
2605.00,0.0035
2604.00,0.0034
2603.00,0.0034
2602.00,0.0034
2601.00,0.0033
2600.00,0.0032
2599.00,0.0031
2598.00,0.0031
2597.00,0.0032
2596.00,0.0032
2595.00,0.0033
2594.00,0.0034
2593.00,0.0034
2592.00,0.0034
2591.00,0.0034
2590.00,0.0034
2589.00,0.0035
2588.00,0.0036
2587.00,0.0037
2586.00,0.0038
2585.00,0.0039
2584.00,0.0039
2583.00,0.0039
2582.00,0.0039
2581.00,0.0039
2580.00,0.0038
2579.00,0.0037
2578.00,0.0035
2577.00,0.0034
2576.00,0.0033
2575.00,0.0032
2574.00,0.0031
2573.00,0.0030
2572.00,0.0030
2571.00,0.0030
2570.00,0.0029
2569.00,0.0029
2568.00,0.0028
2567.00,0.0027
2566.00,0.0026
2565.00,0.0026
2564.00,0.0026
2563.00,0.0026
2562.00,0.0025
2561.00,0.0025
2560.00,0.0024
2559.00,0.0024
2558.00,0.0023
2557.00,0.0023
2556.00,0.0023
2555.00,0.0023
2554.00,0.0023
2553.00,0.0023
2552.00,0.0022
2551.00,0.0022
2550.00,0.0022
2549.00,0.0022
2548.00,0.0022
2547.00,0.0021
2546.00,0.0020
2545.00,0.0019
2544.00,0.0019
2543.00,0.0019
2542.00,0.0019
2541.00,0.0019
2540.00,0.0019
2539.00,0.0019
2538.00,0.0019
2537.00,0.0019
2536.00,0.0018
2535.00,0.0018
2534.00,0.0017
2533.00,0.0017
2532.00,0.0018
2531.00,0.0018
2530.00,0.0018
2529.00,0.0017
2528.00,0.0017
2527.00,0.0017
2526.00,0.0016
2525.00,0.0016
2524.00,0.0015
2523.00,0.0014
2522.00,0.0013
2521.00,0.0013
2520.00,0.0013
2519.00,0.0013
2518.00,0.0013
2517.00,0.0013
2516.00,0.0013
2515.00,0.0013
2514.00,0.0013
2513.00,0.0013
2512.00,0.0013
2511.00,0.0013
2510.00,0.0013
2509.00,0.0012
2508.00,0.0012
2507.00,0.0012
2506.00,0.0012
2505.00,0.0012
2504.00,0.0012
2503.00,0.0012
2502.00,0.0011
2501.00,0.0011
2500.00,0.0011
2499.00,0.0011
2498.00,0.0012
2497.00,0.0012
2496.00,0.0012
2495.00,0.0012
2494.00,0.0012
2493.00,0.0012
2492.00,0.0012
2491.00,0.0012
2490.00,0.0012
2489.00,0.0012
2488.00,0.0012
2487.00,0.0012
2486.00,0.0012
2485.00,0.0012
2484.00,0.0012
2483.00,0.0012
2482.00,0.0012
2481.00,0.0012
2480.00,0.0012
2479.00,0.0012
2478.00,0.0012
2477.00,0.0011
2476.00,0.0011
2475.00,0.0011
2474.00,0.0011
2473.00,0.0010
2472.00,0.0010
2471.00,0.0011
2470.00,0.0011
2469.00,0.0011
2468.00,0.0011
2467.00,0.0011
2466.00,0.0011
2465.00,0.0011
2464.00,0.0011
2463.00,0.0012
2462.00,0.0012
2461.00,0.0013
2460.00,0.0013
2459.00,0.0013
2458.00,0.0013
2457.00,0.0013
2456.00,0.0013
2455.00,0.0013
2454.00,0.0013
2453.00,0.0013
2452.00,0.0013
2451.00,0.0013
2450.00,0.0012
2449.00,0.0012
2448.00,0.0013
2447.00,0.0013
2446.00,0.0013
2445.00,0.0013
2444.00,0.0013
2443.00,0.0013
2442.00,0.0013
2441.00,0.0013
2440.00,0.0013
2439.00,0.0013
2438.00,0.0013
2437.00,0.0014
2436.00,0.0014
2435.00,0.0014
2434.00,0.0014
2433.00,0.0014
2432.00,0.0013
2431.00,0.0013
2430.00,0.0013
2429.00,0.0013
2428.00,0.0013
2427.00,0.0013
2426.00,0.0013
2425.00,0.0013
2424.00,0.0013
2423.00,0.0013
2422.00,0.0012
2421.00,0.0012
2420.00,0.0012
2419.00,0.0011
2418.00,0.0011
2417.00,0.0011
2416.00,0.0012
2415.00,0.0011
2414.00,0.0011
2413.00,0.0011
2412.00,0.0011
2411.00,0.0011
2410.00,0.0011
2409.00,0.0011
2408.00,0.0011
2407.00,0.0011
2406.00,0.0010
2405.00,0.0010
2404.00,0.0010
2403.00,0.0010
2402.00,0.0010
2401.00,0.0011
2400.00,0.0011
2399.00,0.0011
2398.00,0.0011
2397.00,0.0012
2396.00,0.0012
2395.00,0.0012
2394.00,0.0012
2393.00,0.0011
2392.00,0.0011
2391.00,0.0010
2390.00,0.0010
2389.00,0.0010
2388.00,0.0010
2387.00,0.0010
2386.00,0.0010
2385.00,0.0010
2384.00,0.0010
2383.00,0.0010
2382.00,0.0010
2381.00,0.0010
2380.00,0.0010
2379.00,0.0009
2378.00,0.0009
2377.00,0.0009
2376.00,0.0009
2375.00,0.0009
2374.00,0.0010
2373.00,0.0011
2372.00,0.0011
2371.00,0.0011
2370.00,0.0010
2369.00,0.0010
2368.00,0.0009
2367.00,0.0010
2366.00,0.0011
2365.00,0.0011
2364.00,0.0012
2363.00,0.0012
2362.00,0.0011
2361.00,0.0011
2360.00,0.0011
2359.00,0.0012
2358.00,0.0012
2357.00,0.0013
2356.00,0.0013
2355.00,0.0013
2354.00,0.0013
2353.00,0.0013
2352.00,0.0012
2351.00,0.0012
2350.00,0.0012
2349.00,0.0012
2348.00,0.0012
2347.00,0.0012
2346.00,0.0012
2345.00,0.0012
2344.00,0.0012
2343.00,0.0013
2342.00,0.0013
2341.00,0.0014
2340.00,0.0014
2339.00,0.0014
2338.00,0.0014
2337.00,0.0014
2336.00,0.0014
2335.00,0.0014
2334.00,0.0013
2333.00,0.0013
2332.00,0.0012
2331.00,0.0012
2330.00,0.0012
2329.00,0.0013
2328.00,0.0016
2327.00,0.0019
2326.00,0.0022
2325.00,0.0024
2324.00,0.0025
2323.00,0.0024
2322.00,0.0022
2321.00,0.0019
2320.00,0.0018
2319.00,0.0017
2318.00,0.0016
2317.00,0.0016
2316.00,0.0016
2315.00,0.0016
2314.00,0.0016
2313.00,0.0015
2312.00,0.0015
2311.00,0.0015
2310.00,0.0015
2309.00,0.0015
2308.00,0.0016
2307.00,0.0016
2306.00,0.0016
2305.00,0.0016
2304.00,0.0016
2303.00,0.0016
2302.00,0.0016
2301.00,0.0015
2300.00,0.0015
2299.00,0.0015
2298.00,0.0015
2297.00,0.0016
2296.00,0.0017
2295.00,0.0017
2294.00,0.0018
2293.00,0.0018
2292.00,0.0018
2291.00,0.0017
2290.00,0.0016
2289.00,0.0016
2288.00,0.0016
2287.00,0.0017
2286.00,0.0017
2285.00,0.0017
2284.00,0.0017
2283.00,0.0016
2282.00,0.0015
2281.00,0.0014
2280.00,0.0014
2279.00,0.0014
2278.00,0.0013
2277.00,0.0014
2276.00,0.0014
2275.00,0.0014
2274.00,0.0014
2273.00,0.0014
2272.00,0.0013
2271.00,0.0014
2270.00,0.0015
2269.00,0.0016
2268.00,0.0016
2267.00,0.0016
2266.00,0.0015
2265.00,0.0014
2264.00,0.0014
2263.00,0.0014
2262.00,0.0013
2261.00,0.0013
2260.00,0.0014
2259.00,0.0014
2258.00,0.0015
2257.00,0.0015
2256.00,0.0014
2255.00,0.0012
2254.00,0.0011
2253.00,0.0010
2252.00,0.0010
2251.00,0.0010
2250.00,0.0010
2249.00,0.0010
2248.00,0.0010
2247.00,0.0009
2246.00,0.0009
2245.00,0.0008
2244.00,0.0009
2243.00,0.0009
2242.00,0.0009
2241.00,0.0009
2240.00,0.0008
2239.00,0.0008
2238.00,0.0009
2237.00,0.0010
2236.00,0.0010
2235.00,0.0010
2234.00,0.0009
2233.00,0.0008
2232.00,0.0008
2231.00,0.0009
2230.00,0.0010
2229.00,0.0011
2228.00,0.0011
2227.00,0.0010
2226.00,0.0010
2225.00,0.0009
2224.00,0.0008
2223.00,0.0007
2222.00,0.0006
2221.00,0.0006
2220.00,0.0007
2219.00,0.0007
2218.00,0.0008
2217.00,0.0008
2216.00,0.0008
2215.00,0.0007
2214.00,0.0006
2213.00,0.0005
2212.00,0.0005
2211.00,0.0005
2210.00,0.0005
2209.00,0.0005
2208.00,0.0006
2207.00,0.0006
2206.00,0.0006
2205.00,0.0007
2204.00,0.0007
2203.00,0.0008
2202.00,0.0008
2201.00,0.0009
2200.00,0.0009
2199.00,0.0010
2198.00,0.0012
2197.00,0.0013
2196.00,0.0013
2195.00,0.0013
2194.00,0.0012
2193.00,0.0011
2192.00,0.0010
2191.00,0.0009
2190.00,0.0008
2189.00,0.0009
2188.00,0.0010
2187.00,0.0011
2186.00,0.0012
2185.00,0.0012
2184.00,0.0009
2183.00,0.0005
2182.00,0.0002
2181.00,0.0001
2180.00,0.0002
2179.00,0.0004
2178.00,0.0005
2177.00,0.0005
2176.00,0.0004
2175.00,0.0004
2174.00,0.0004
2173.00,0.0006
2172.00,0.0009
2171.00,0.0012
2170.00,0.0016
2169.00,0.0018
2168.00,0.0018
2167.00,0.0017
2166.00,0.0015
2165.00,0.0015
2164.00,0.0016
2163.00,0.0017
2162.00,0.0015
2161.00,0.0010
2160.00,-0.0000
2159.00,-0.0012
2158.00,-0.0020
2157.00,-0.0023
2156.00,-0.0022
2155.00,-0.0019
2154.00,-0.0015
2153.00,-0.0010
2152.00,-0.0007
2151.00,-0.0007
2150.00,-0.0009
2149.00,-0.0011
2148.00,-0.0012
2147.00,-0.0012
2146.00,-0.0011
2145.00,-0.0011
2144.00,-0.0010
2143.00,-0.0009
2142.00,-0.0008
2141.00,-0.0005
2140.00,-0.0004
2139.00,-0.0004
2138.00,-0.0006
2137.00,-0.0008
2136.00,-0.0009
2135.00,-0.0010
2134.00,-0.0010
2133.00,-0.0011
2132.00,-0.0011
2131.00,-0.0011
2130.00,-0.0010
2129.00,-0.0010
2128.00,-0.0009
2127.00,-0.0008
2126.00,-0.0007
2125.00,-0.0006
2124.00,-0.0004
2123.00,-0.0004
2122.00,-0.0003
2121.00,-0.0004
2120.00,-0.0004
2119.00,-0.0004
2118.00,-0.0003
2117.00,-0.0001
2116.00,0.0001
2115.00,0.0002
2114.00,0.0003
2113.00,0.0004
2112.00,0.0004
2111.00,0.0004
2110.00,0.0004
2109.00,0.0004
2108.00,0.0004
2107.00,0.0004
2106.00,0.0004
2105.00,0.0004
2104.00,0.0004
2103.00,0.0004
2102.00,0.0003
2101.00,0.0003
2100.00,0.0004
2099.00,0.0003
2098.00,0.0001
2097.00,-0.0001
2096.00,-0.0003
2095.00,-0.0003
2094.00,-0.0003
2093.00,-0.0002
2092.00,-0.0002
2091.00,-0.0001
2090.00,-0.0001
2089.00,-0.0000
2088.00,0.0001
2087.00,0.0002
2086.00,0.0002
2085.00,0.0003
2084.00,0.0004
2083.00,0.0004
2082.00,0.0005
2081.00,0.0005
2080.00,0.0004
2079.00,0.0003
2078.00,0.0001
2077.00,0.0001
2076.00,0.0002
2075.00,0.0003
2074.00,0.0004
2073.00,0.0004
2072.00,0.0003
2071.00,0.0002
2070.00,0.0000
2069.00,-0.0001
2068.00,-0.0002
2067.00,-0.0003
2066.00,-0.0003
2065.00,-0.0002
2064.00,-0.0001
2063.00,0.0000
2062.00,0.0000
2061.00,0.0000
2060.00,0.0001
2059.00,0.0001
2058.00,0.0002
2057.00,0.0003
2056.00,0.0002
2055.00,0.0001
2054.00,0.0002
2053.00,0.0005
2052.00,0.0009
2051.00,0.0011
2050.00,0.0010
2049.00,0.0008
2048.00,0.0005
2047.00,0.0003
2046.00,0.0002
2045.00,0.0004
2044.00,0.0006
2043.00,0.0006
2042.00,0.0006
2041.00,0.0004
2040.00,0.0003
2039.00,0.0001
2038.00,0.0000
2037.00,0.0001
2036.00,0.0002
2035.00,0.0001
2034.00,-0.0002
2033.00,-0.0006
2032.00,-0.0009
2031.00,-0.0009
2030.00,-0.0007
2029.00,-0.0004
2028.00,-0.0002
2027.00,-0.0002
2026.00,-0.0004
2025.00,-0.0006
2024.00,-0.0008
2023.00,-0.0007
2022.00,-0.0005
2021.00,-0.0003
2020.00,-0.0001
2019.00,-0.0002
2018.00,-0.0003
2017.00,-0.0005
2016.00,-0.0005
2015.00,-0.0005
2014.00,-0.0005
2013.00,-0.0006
2012.00,-0.0009
2011.00,-0.0011
2010.00,-0.0011
2009.00,-0.0009
2008.00,-0.0009
2007.00,-0.0010
2006.00,-0.0013
2005.00,-0.0014
2004.00,-0.0013
2003.00,-0.0012
2002.00,-0.0012
2001.00,-0.0013
2000.00,-0.0014
1999.00,-0.0014
1998.00,-0.0012
1997.00,-0.0009
1996.00,-0.0006
1995.00,-0.0005
1994.00,-0.0006
1993.00,-0.0006
1992.00,-0.0005
1991.00,-0.0004
1990.00,-0.0003
1989.00,-0.0002
1988.00,-0.0003
1987.00,-0.0004
1986.00,-0.0006
1985.00,-0.0006
1984.00,-0.0006
1983.00,-0.0004
1982.00,-0.0003
1981.00,-0.0001
1980.00,0.0000
1979.00,-0.0002
1978.00,-0.0005
1977.00,-0.0009
1976.00,-0.0013
1975.00,-0.0016
1974.00,-0.0017
1973.00,-0.0016
1972.00,-0.0012
1971.00,-0.0009
1970.00,-0.0009
1969.00,-0.0010
1968.00,-0.0013
1967.00,-0.0014
1966.00,-0.0014
1965.00,-0.0014
1964.00,-0.0015
1963.00,-0.0015
1962.00,-0.0015
1961.00,-0.0014
1960.00,-0.0013
1959.00,-0.0013
1958.00,-0.0013
1957.00,-0.0012
1956.00,-0.0011
1955.00,-0.0011
1954.00,-0.0010
1953.00,-0.0010
1952.00,-0.0011
1951.00,-0.0012
1950.00,-0.0013
1949.00,-0.0012
1948.00,-0.0011
1947.00,-0.0009
1946.00,-0.0010
1945.00,-0.0012
1944.00,-0.0014
1943.00,-0.0016
1942.00,-0.0016
1941.00,-0.0014
1940.00,-0.0012
1939.00,-0.0010
1938.00,-0.0009
1937.00,-0.0006
1936.00,-0.0004
1935.00,-0.0004
1934.00,-0.0005
1933.00,-0.0006
1932.00,-0.0008
1931.00,-0.0009
1930.00,-0.0009
1929.00,-0.0009
1928.00,-0.0008
1927.00,-0.0006
1926.00,-0.0005
1925.00,-0.0005
1924.00,-0.0005
1923.00,-0.0004
1922.00,-0.0004
1921.00,-0.0002
1920.00,-0.0001
1919.00,-0.0001
1918.00,-0.0002
1917.00,-0.0002
1916.00,-0.0003
1915.00,-0.0003
1914.00,-0.0003
1913.00,-0.0003
1912.00,-0.0002
1911.00,-0.0002
1910.00,-0.0002
1909.00,-0.0001
1908.00,-0.0001
1907.00,0.0000
1906.00,0.0001
1905.00,0.0001
1904.00,0.0001
1903.00,0.0000
1902.00,-0.0001
1901.00,-0.0002
1900.00,-0.0002
1899.00,-0.0001
1898.00,-0.0000
1897.00,0.0000
1896.00,0.0001
1895.00,0.0000
1894.00,0.0000
1893.00,0.0000
1892.00,0.0001
1891.00,0.0001
1890.00,0.0001
1889.00,0.0000
1888.00,-0.0000
1887.00,-0.0001
1886.00,-0.0002
1885.00,-0.0003
1884.00,-0.0002
1883.00,-0.0001
1882.00,-0.0001
1881.00,-0.0000
1880.00,-0.0000
1879.00,-0.0000
1878.00,-0.0000
1877.00,0.0000
1876.00,0.0000
1875.00,0.0000
1874.00,0.0000
1873.00,0.0000
1872.00,0.0001
1871.00,0.0002
1870.00,0.0002
1869.00,0.0002
1868.00,0.0002
1867.00,0.0002
1866.00,0.0002
1865.00,0.0002
1864.00,0.0002
1863.00,0.0001
1862.00,0.0001
1861.00,0.0001
1860.00,0.0001
1859.00,0.0001
1858.00,0.0001
1857.00,0.0000
1856.00,0.0000
1855.00,0.0001
1854.00,0.0001
1853.00,0.0002
1852.00,0.0002
1851.00,0.0003
1850.00,0.0003
1849.00,0.0002
1848.00,0.0002
1847.00,0.0002
1846.00,0.0001
1845.00,0.0001
1844.00,0.0001
1843.00,0.0001
1842.00,0.0002
1841.00,0.0003
1840.00,0.0003
1839.00,0.0003
1838.00,0.0002
1837.00,0.0002
1836.00,0.0002
1835.00,0.0002
1834.00,0.0003
1833.00,0.0003
1832.00,0.0003
1831.00,0.0003
1830.00,0.0003
1829.00,0.0003
1828.00,0.0003
1827.00,0.0003
1826.00,0.0003
1825.00,0.0004
1824.00,0.0004
1823.00,0.0004
1822.00,0.0004
1821.00,0.0004
1820.00,0.0003
1819.00,0.0002
1818.00,0.0001
1817.00,0.0001
1816.00,0.0001
1815.00,0.0001
1814.00,0.0002
1813.00,0.0002
1812.00,0.0003
1811.00,0.0004
1810.00,0.0004
1809.00,0.0004
1808.00,0.0004
1807.00,0.0004
1806.00,0.0004
1805.00,0.0005
1804.00,0.0005
1803.00,0.0005
1802.00,0.0005
1801.00,0.0005
1800.00,0.0005
1799.00,0.0006
1798.00,0.0006
1797.00,0.0007
1796.00,0.0007
1795.00,0.0007
1794.00,0.0006
1793.00,0.0006
1792.00,0.0006
1791.00,0.0007
1790.00,0.0007
1789.00,0.0008
1788.00,0.0008
1787.00,0.0008
1786.00,0.0008
1785.00,0.0008
1784.00,0.0008
1783.00,0.0009
1782.00,0.0009
1781.00,0.0009
1780.00,0.0009
1779.00,0.0009
1778.00,0.0009
1777.00,0.0008
1776.00,0.0008
1775.00,0.0007
1774.00,0.0007
1773.00,0.0008
1772.00,0.0008
1771.00,0.0009
1770.00,0.0009
1769.00,0.0009
1768.00,0.0010
1767.00,0.0010
1766.00,0.0010
1765.00,0.0011
1764.00,0.0010
1763.00,0.0010
1762.00,0.0011
1761.00,0.0012
1760.00,0.0013
1759.00,0.0013
1758.00,0.0013
1757.00,0.0013
1756.00,0.0013
1755.00,0.0014
1754.00,0.0014
1753.00,0.0014
1752.00,0.0014
1751.00,0.0014
1750.00,0.0014
1749.00,0.0015
1748.00,0.0016
1747.00,0.0016
1746.00,0.0017
1745.00,0.0017
1744.00,0.0018
1743.00,0.0018
1742.00,0.0018
1741.00,0.0017
1740.00,0.0017
1739.00,0.0017
1738.00,0.0017
1737.00,0.0017
1736.00,0.0017
1735.00,0.0017
1734.00,0.0017
1733.00,0.0017
1732.00,0.0017
1731.00,0.0017
1730.00,0.0017
1729.00,0.0016
1728.00,0.0016
1727.00,0.0016
1726.00,0.0017
1725.00,0.0017
1724.00,0.0017
1723.00,0.0018
1722.00,0.0018
1721.00,0.0018
1720.00,0.0019
1719.00,0.0019
1718.00,0.0019
1717.00,0.0019
1716.00,0.0019
1715.00,0.0019
1714.00,0.0019
1713.00,0.0019
1712.00,0.0019
1711.00,0.0020
1710.00,0.0021
1709.00,0.0021
1708.00,0.0021
1707.00,0.0021
1706.00,0.0021
1705.00,0.0021
1704.00,0.0021
1703.00,0.0021
1702.00,0.0022
1701.00,0.0022
1700.00,0.0022
1699.00,0.0022
1698.00,0.0022
1697.00,0.0023
1696.00,0.0023
1695.00,0.0024
1694.00,0.0025
1693.00,0.0025
1692.00,0.0025
1691.00,0.0026
1690.00,0.0026
1689.00,0.0026
1688.00,0.0026
1687.00,0.0026
1686.00,0.0026
1685.00,0.0026
1684.00,0.0026
1683.00,0.0027
1682.00,0.0027
1681.00,0.0027
1680.00,0.0028
1679.00,0.0028
1678.00,0.0028
1677.00,0.0028
1676.00,0.0028
1675.00,0.0028
1674.00,0.0029
1673.00,0.0030
1672.00,0.0030
1671.00,0.0031
1670.00,0.0031
1669.00,0.0031
1668.00,0.0032
1667.00,0.0032
1666.00,0.0032
1665.00,0.0033
1664.00,0.0033
1663.00,0.0034
1662.00,0.0034
1661.00,0.0034
1660.00,0.0034
1659.00,0.0034
1658.00,0.0035
1657.00,0.0037
1656.00,0.0038
1655.00,0.0038
1654.00,0.0038
1653.00,0.0038
1652.00,0.0038
1651.00,0.0038
1650.00,0.0038
1649.00,0.0038
1648.00,0.0038
1647.00,0.0039
1646.00,0.0039
1645.00,0.0039
1644.00,0.0040
1643.00,0.0040
1642.00,0.0040
1641.00,0.0040
1640.00,0.0040
1639.00,0.0041
1638.00,0.0041
1637.00,0.0042
1636.00,0.0042
1635.00,0.0042
1634.00,0.0042
1633.00,0.0042
1632.00,0.0042
1631.00,0.0041
1630.00,0.0041
1629.00,0.0041
1628.00,0.0041
1627.00,0.0041
1626.00,0.0041
1625.00,0.0041
1624.00,0.0041
1623.00,0.0041
1622.00,0.0041
1621.00,0.0041
1620.00,0.0041
1619.00,0.0041
1618.00,0.0041
1617.00,0.0040
1616.00,0.0040
1615.00,0.0039
1614.00,0.0039
1613.00,0.0039
1612.00,0.0039
1611.00,0.0039
1610.00,0.0039
1609.00,0.0040
1608.00,0.0040
1607.00,0.0040
1606.00,0.0040
1605.00,0.0040
1604.00,0.0040
1603.00,0.0040
1602.00,0.0040
1601.00,0.0039
1600.00,0.0039
1599.00,0.0039
1598.00,0.0039
1597.00,0.0039
1596.00,0.0039
1595.00,0.0039
1594.00,0.0040
1593.00,0.0040
1592.00,0.0041
1591.00,0.0042
1590.00,0.0043
1589.00,0.0044
1588.00,0.0045
1587.00,0.0046
1586.00,0.0047
1585.00,0.0049
1584.00,0.0051
1583.00,0.0054
1582.00,0.0056
1581.00,0.0058
1580.00,0.0060
1579.00,0.0062
1578.00,0.0063
1577.00,0.0063
1576.00,0.0062
1575.00,0.0061
1574.00,0.0060
1573.00,0.0059
1572.00,0.0058
1571.00,0.0056
1570.00,0.0054
1569.00,0.0052
1568.00,0.0051
1567.00,0.0050
1566.00,0.0050
1565.00,0.0050
1564.00,0.0049
1563.00,0.0049
1562.00,0.0049
1561.00,0.0050
1560.00,0.0050
1559.00,0.0050
1558.00,0.0049
1557.00,0.0049
1556.00,0.0049
1555.00,0.0049
1554.00,0.0050
1553.00,0.0051
1552.00,0.0052
1551.00,0.0053
1550.00,0.0055
1549.00,0.0057
1548.00,0.0059
1547.00,0.0061
1546.00,0.0063
1545.00,0.0066
1544.00,0.0070
1543.00,0.0073
1542.00,0.0074
1541.00,0.0075
1540.00,0.0075
1539.00,0.0072
1538.00,0.0069
1537.00,0.0067
1536.00,0.0065
1535.00,0.0062
1534.00,0.0059
1533.00,0.0056
1532.00,0.0054
1531.00,0.0053
1530.00,0.0052
1529.00,0.0052
1528.00,0.0051
1527.00,0.0050
1526.00,0.0049
1525.00,0.0049
1524.00,0.0050
1523.00,0.0050
1522.00,0.0049
1521.00,0.0049
1520.00,0.0050
1519.00,0.0050
1518.00,0.0050
1517.00,0.0050
1516.00,0.0051
1515.00,0.0052
1514.00,0.0052
1513.00,0.0053
1512.00,0.0055
1511.00,0.0056
1510.00,0.0056
1509.00,0.0057
1508.00,0.0058
1507.00,0.0058
1506.00,0.0059
1505.00,0.0060
1504.00,0.0062
1503.00,0.0063
1502.00,0.0064
1501.00,0.0067
1500.00,0.0070
1499.00,0.0072
1498.00,0.0074
1497.00,0.0078
1496.00,0.0081
1495.00,0.0084
1494.00,0.0086
1493.00,0.0089
1492.00,0.0093
1491.00,0.0096
1490.00,0.0100
1489.00,0.0105
1488.00,0.0110
1487.00,0.0114
1486.00,0.0119
1485.00,0.0126
1484.00,0.0133
1483.00,0.0141
1482.00,0.0151
1481.00,0.0163
1480.00,0.0176
1479.00,0.0190
1478.00,0.0205
1477.00,0.0226
1476.00,0.0252
1475.00,0.0281
1474.00,0.0320
1473.00,0.0375
1472.00,0.0440
1471.00,0.0502
1470.00,0.0562
1469.00,0.0625
1468.00,0.0695
1467.00,0.0771
1466.00,0.0858
1465.00,0.0952
1464.00,0.1034
1463.00,0.1091
1462.00,0.1128
1461.00,0.1154
1460.00,0.1172
1459.00,0.1186
1458.00,0.1198
1457.00,0.1208
1456.00,0.1211
1455.00,0.1205
1454.00,0.1195
1453.00,0.1179
1452.00,0.1153
1451.00,0.1116
1450.00,0.1063
1449.00,0.0990
1448.00,0.0898
1447.00,0.0801
1446.00,0.0715
1445.00,0.0642
1444.00,0.0579
1443.00,0.0527
1442.00,0.0489
1441.00,0.0462
1440.00,0.0446
1439.00,0.0439
1438.00,0.0438
1437.00,0.0437
1436.00,0.0426
1435.00,0.0401
1434.00,0.0366
1433.00,0.0325
1432.00,0.0282
1431.00,0.0243
1430.00,0.0213
1429.00,0.0191
1428.00,0.0175
1427.00,0.0165
1426.00,0.0158
1425.00,0.0152
1424.00,0.0146
1423.00,0.0143
1422.00,0.0140
1421.00,0.0137
1420.00,0.0133
1419.00,0.0129
1418.00,0.0127
1417.00,0.0124
1416.00,0.0121
1415.00,0.0119
1414.00,0.0118
1413.00,0.0116
1412.00,0.0114
1411.00,0.0113
1410.00,0.0113
1409.00,0.0111
1408.00,0.0109
1407.00,0.0109
1406.00,0.0109
1405.00,0.0109
1404.00,0.0109
1403.00,0.0109
1402.00,0.0111
1401.00,0.0112
1400.00,0.0113
1399.00,0.0114
1398.00,0.0116
1397.00,0.0118
1396.00,0.0120
1395.00,0.0123
1394.00,0.0128
1393.00,0.0133
1392.00,0.0138
1391.00,0.0146
1390.00,0.0157
1389.00,0.0171
1388.00,0.0193
1387.00,0.0227
1386.00,0.0272
1385.00,0.0332
1384.00,0.0414
1383.00,0.0529
1382.00,0.0684
1381.00,0.0882
1380.00,0.1123
1379.00,0.1388
1378.00,0.1631
1377.00,0.1794
1376.00,0.1827
1375.00,0.1706
1374.00,0.1468
1373.00,0.1199
1372.00,0.0962
1371.00,0.0773
1370.00,0.0625
1369.00,0.0513
1368.00,0.0435
1367.00,0.0387
1366.00,0.0360
1365.00,0.0349
1364.00,0.0351
1363.00,0.0363
1362.00,0.0382
1361.00,0.0403
1360.00,0.0418
1359.00,0.0422
1358.00,0.0412
1357.00,0.0389
1356.00,0.0356
1355.00,0.0319
1354.00,0.0283
1353.00,0.0252
1352.00,0.0226
1351.00,0.0206
1350.00,0.0189
1349.00,0.0175
1348.00,0.0163
1347.00,0.0153
1346.00,0.0144
1345.00,0.0137
1344.00,0.0131
1343.00,0.0126
1342.00,0.0122
1341.00,0.0118
1340.00,0.0115
1339.00,0.0113
1338.00,0.0113
1337.00,0.0113
1336.00,0.0113
1335.00,0.0115
1334.00,0.0118
1333.00,0.0121
1332.00,0.0125
1331.00,0.0129
1330.00,0.0130
1329.00,0.0128
1328.00,0.0125
1327.00,0.0120
1326.00,0.0114
1325.00,0.0109
1324.00,0.0104
1323.00,0.0099
1322.00,0.0096
1321.00,0.0093
1320.00,0.0091
1319.00,0.0089
1318.00,0.0088
1317.00,0.0086
1316.00,0.0085
1315.00,0.0084
1314.00,0.0083
1313.00,0.0084
1312.00,0.0086
1311.00,0.0088
1310.00,0.0093
1309.00,0.0099
1308.00,0.0109
1307.00,0.0121
1306.00,0.0134
1305.00,0.0144
1304.00,0.0148
1303.00,0.0145
1302.00,0.0140
1301.00,0.0134
1300.00,0.0129
1299.00,0.0127
1298.00,0.0126
1297.00,0.0125
1296.00,0.0123
1295.00,0.0120
1294.00,0.0115
1293.00,0.0111
1292.00,0.0106
1291.00,0.0101
1290.00,0.0097
1289.00,0.0094
1288.00,0.0091
1287.00,0.0088
1286.00,0.0086
1285.00,0.0084
1284.00,0.0082
1283.00,0.0081
1282.00,0.0079
1281.00,0.0078
1280.00,0.0077
1279.00,0.0076
1278.00,0.0075
1277.00,0.0074
1276.00,0.0073
1275.00,0.0072
1274.00,0.0072
1273.00,0.0072
1272.00,0.0072
1271.00,0.0073
1270.00,0.0074
1269.00,0.0075
1268.00,0.0076
1267.00,0.0078
1266.00,0.0080
1265.00,0.0082
1264.00,0.0084
1263.00,0.0087
1262.00,0.0091
1261.00,0.0097
1260.00,0.0104
1259.00,0.0113
1258.00,0.0122
1257.00,0.0129
1256.00,0.0133
1255.00,0.0131
1254.00,0.0125
1253.00,0.0115
1252.00,0.0105
1251.00,0.0097
1250.00,0.0090
1249.00,0.0086
1248.00,0.0083
1247.00,0.0081
1246.00,0.0079
1245.00,0.0077
1244.00,0.0076
1243.00,0.0074
1242.00,0.0073
1241.00,0.0073
1240.00,0.0073
1239.00,0.0073
1238.00,0.0073
1237.00,0.0073
1236.00,0.0073
1235.00,0.0073
1234.00,0.0073
1233.00,0.0073
1232.00,0.0073
1231.00,0.0074
1230.00,0.0074
1229.00,0.0075
1228.00,0.0076
1227.00,0.0078
1226.00,0.0081
1225.00,0.0084
1224.00,0.0088
1223.00,0.0092
1222.00,0.0095
1221.00,0.0097
1220.00,0.0098
1219.00,0.0098
1218.00,0.0097
1217.00,0.0095
1216.00,0.0093
1215.00,0.0090
1214.00,0.0087
1213.00,0.0084
1212.00,0.0082
1211.00,0.0080
1210.00,0.0079
1209.00,0.0077
1208.00,0.0076
1207.00,0.0076
1206.00,0.0075
1205.00,0.0075
1204.00,0.0075
1203.00,0.0075
1202.00,0.0075
1201.00,0.0075
1200.00,0.0075
1199.00,0.0074
1198.00,0.0074
1197.00,0.0075
1196.00,0.0076
1195.00,0.0076
1194.00,0.0076
1193.00,0.0076
1192.00,0.0076
1191.00,0.0075
1190.00,0.0075
1189.00,0.0075
1188.00,0.0075
1187.00,0.0075
1186.00,0.0076
1185.00,0.0077
1184.00,0.0078
1183.00,0.0080
1182.00,0.0082
1181.00,0.0086
1180.00,0.0091
1179.00,0.0097
1178.00,0.0105
1177.00,0.0115
1176.00,0.0129
1175.00,0.0147
1174.00,0.0171
1173.00,0.0200
1172.00,0.0234
1171.00,0.0271
1170.00,0.0306
1169.00,0.0333
1168.00,0.0347
1167.00,0.0346
1166.00,0.0333
1165.00,0.0313
1164.00,0.0292
1163.00,0.0272
1162.00,0.0254
1161.00,0.0239
1160.00,0.0227
1159.00,0.0218
1158.00,0.0212
1157.00,0.0207
1156.00,0.0204
1155.00,0.0202
1154.00,0.0199
1153.00,0.0195
1152.00,0.0190
1151.00,0.0183
1150.00,0.0174
1149.00,0.0164
1148.00,0.0154
1147.00,0.0144
1146.00,0.0135
1145.00,0.0126
1144.00,0.0119
1143.00,0.0112
1142.00,0.0105
1141.00,0.0099
1140.00,0.0094
1139.00,0.0089
1138.00,0.0085
1137.00,0.0082
1136.00,0.0079
1135.00,0.0076
1134.00,0.0074
1133.00,0.0072
1132.00,0.0071
1131.00,0.0071
1130.00,0.0071
1129.00,0.0071
1128.00,0.0071
1127.00,0.0071
1126.00,0.0072
1125.00,0.0072
1124.00,0.0072
1123.00,0.0072
1122.00,0.0072
1121.00,0.0071
1120.00,0.0071
1119.00,0.0071
1118.00,0.0071
1117.00,0.0073
1116.00,0.0074
1115.00,0.0075
1114.00,0.0077
1113.00,0.0079
1112.00,0.0081
1111.00,0.0084
1110.00,0.0087
1109.00,0.0090
1108.00,0.0093
1107.00,0.0098
1106.00,0.0104
1105.00,0.0110
1104.00,0.0114
1103.00,0.0116
1102.00,0.0116
1101.00,0.0112
1100.00,0.0106
1099.00,0.0100
1098.00,0.0094
1097.00,0.0090
1096.00,0.0086
1095.00,0.0083
1094.00,0.0081
1093.00,0.0078
1092.00,0.0076
1091.00,0.0073
1090.00,0.0071
1089.00,0.0070
1088.00,0.0070
1087.00,0.0070
1086.00,0.0069
1085.00,0.0069
1084.00,0.0068
1083.00,0.0068
1082.00,0.0068
1081.00,0.0068
1080.00,0.0068
1079.00,0.0068
1078.00,0.0067
1077.00,0.0066
1076.00,0.0065
1075.00,0.0064
1074.00,0.0063
1073.00,0.0062
1072.00,0.0062
1071.00,0.0062
1070.00,0.0062
1069.00,0.0062
1068.00,0.0062
1067.00,0.0062
1066.00,0.0062
1065.00,0.0062
1064.00,0.0062
1063.00,0.0062
1062.00,0.0063
1061.00,0.0063
1060.00,0.0063
1059.00,0.0063
1058.00,0.0063
1057.00,0.0064
1056.00,0.0064
1055.00,0.0065
1054.00,0.0066
1053.00,0.0067
1052.00,0.0069
1051.00,0.0072
1050.00,0.0074
1049.00,0.0077
1048.00,0.0080
1047.00,0.0084
1046.00,0.0088
1045.00,0.0091
1044.00,0.0090
1043.00,0.0087
1042.00,0.0085
1041.00,0.0083
1040.00,0.0082
1039.00,0.0081
1038.00,0.0080
1037.00,0.0079
1036.00,0.0079
1035.00,0.0078
1034.00,0.0078
1033.00,0.0077
1032.00,0.0076
1031.00,0.0074
1030.00,0.0072
1029.00,0.0071
1028.00,0.0071
1027.00,0.0071
1026.00,0.0072
1025.00,0.0072
1024.00,0.0072
1023.00,0.0072
1022.00,0.0073
1021.00,0.0073
1020.00,0.0073
1019.00,0.0073
1018.00,0.0074
1017.00,0.0076
1016.00,0.0079
1015.00,0.0082
1014.00,0.0086
1013.00,0.0089
1012.00,0.0092
1011.00,0.0096
1010.00,0.0099
1009.00,0.0103
1008.00,0.0109
1007.00,0.0116
1006.00,0.0127
1005.00,0.0141
1004.00,0.0161
1003.00,0.0188
1002.00,0.0225
1001.00,0.0270
1000.00,0.0317
999.00,0.0357
998.00,0.0377
997.00,0.0371
996.00,0.0340
995.00,0.0294
994.00,0.0246
993.00,0.0204
992.00,0.0173
991.00,0.0151
990.00,0.0136
989.00,0.0126
988.00,0.0118
987.00,0.0114
986.00,0.0112
985.00,0.0114
984.00,0.0120
983.00,0.0128
982.00,0.0141
981.00,0.0158
980.00,0.0183
979.00,0.0217
978.00,0.0260
977.00,0.0311
976.00,0.0365
975.00,0.0415
974.00,0.0450
973.00,0.0461
972.00,0.0441
971.00,0.0395
970.00,0.0335
969.00,0.0275
968.00,0.0223
967.00,0.0184
966.00,0.0157
965.00,0.0137
964.00,0.0124
963.00,0.0113
962.00,0.0104
961.00,0.0097
960.00,0.0092
959.00,0.0089
958.00,0.0086
957.00,0.0084
956.00,0.0081
955.00,0.0078
954.00,0.0075
953.00,0.0074
952.00,0.0073
951.00,0.0072
950.00,0.0072
949.00,0.0071
948.00,0.0070
947.00,0.0071
946.00,0.0072
945.00,0.0074
944.00,0.0078
943.00,0.0082
942.00,0.0086
941.00,0.0089
940.00,0.0088
939.00,0.0086
938.00,0.0082
937.00,0.0076
936.00,0.0071
935.00,0.0067
934.00,0.0063
933.00,0.0059
932.00,0.0057
931.00,0.0057
930.00,0.0057
929.00,0.0057
928.00,0.0057
927.00,0.0056
926.00,0.0056
925.00,0.0056
924.00,0.0055
923.00,0.0055
922.00,0.0055
921.00,0.0054
920.00,0.0054
919.00,0.0054
918.00,0.0055
917.00,0.0056
916.00,0.0057
915.00,0.0058
914.00,0.0060
913.00,0.0061
912.00,0.0062
911.00,0.0063
910.00,0.0065
909.00,0.0068
908.00,0.0071
907.00,0.0076
906.00,0.0083
905.00,0.0093
904.00,0.0106
903.00,0.0122
902.00,0.0140
901.00,0.0156
900.00,0.0167
899.00,0.0169
898.00,0.0162
897.00,0.0147
896.00,0.0130
895.00,0.0114
894.00,0.0100
893.00,0.0090
892.00,0.0083
891.00,0.0078
890.00,0.0074
889.00,0.0072
888.00,0.0070
887.00,0.0070
886.00,0.0070
885.00,0.0070
884.00,0.0069
883.00,0.0069
882.00,0.0069
881.00,0.0070
880.00,0.0071
879.00,0.0073
878.00,0.0076
877.00,0.0077
876.00,0.0078
875.00,0.0077
874.00,0.0076
873.00,0.0074
872.00,0.0074
871.00,0.0075
870.00,0.0076
869.00,0.0077
868.00,0.0076
867.00,0.0076
866.00,0.0076
865.00,0.0076
864.00,0.0076
863.00,0.0075
862.00,0.0075
861.00,0.0075
860.00,0.0077
859.00,0.0080
858.00,0.0083
857.00,0.0085
856.00,0.0086
855.00,0.0088
854.00,0.0091
853.00,0.0093
852.00,0.0097
851.00,0.0102
850.00,0.0110
849.00,0.0119
848.00,0.0131
847.00,0.0146
846.00,0.0171
845.00,0.0211
844.00,0.0266
843.00,0.0326
842.00,0.0370
841.00,0.0378
840.00,0.0346
839.00,0.0288
838.00,0.0230
837.00,0.0185
836.00,0.0157
835.00,0.0140
834.00,0.0128
833.00,0.0120
832.00,0.0114
831.00,0.0110
830.00,0.0106
829.00,0.0103
828.00,0.0100
827.00,0.0097
826.00,0.0094
825.00,0.0092
824.00,0.0091
823.00,0.0092
822.00,0.0093
821.00,0.0094
820.00,0.0095
819.00,0.0097
818.00,0.0099
817.00,0.0103
816.00,0.0109
815.00,0.0119
814.00,0.0132
813.00,0.0149
812.00,0.0167
811.00,0.0183
810.00,0.0196
809.00,0.0202
808.00,0.0199
807.00,0.0188
806.00,0.0173
805.00,0.0156
804.00,0.0140
803.00,0.0127
802.00,0.0116
801.00,0.0108
800.00,0.0102
799.00,0.0096
798.00,0.0092
797.00,0.0089
796.00,0.0086
795.00,0.0084
794.00,0.0083
793.00,0.0082
792.00,0.0080
791.00,0.0078
790.00,0.0074
789.00,0.0070
788.00,0.0067
787.00,0.0064
786.00,0.0061
785.00,0.0058
784.00,0.0055
783.00,0.0053
782.00,0.0053
781.00,0.0053
780.00,0.0054
779.00,0.0055
778.00,0.0055
777.00,0.0054
776.00,0.0052
775.00,0.0050
774.00,0.0049
773.00,0.0050
772.00,0.0052
771.00,0.0053
770.00,0.0055
769.00,0.0056
768.00,0.0057
767.00,0.0057
766.00,0.0056
765.00,0.0054
764.00,0.0053
763.00,0.0052
762.00,0.0052
761.00,0.0053
760.00,0.0054
759.00,0.0055
758.00,0.0054
757.00,0.0053
756.00,0.0051
755.00,0.0051
754.00,0.0052
753.00,0.0055
752.00,0.0057
751.00,0.0060
750.00,0.0061
749.00,0.0062
748.00,0.0062
747.00,0.0062
746.00,0.0063
745.00,0.0064
744.00,0.0065
743.00,0.0066
742.00,0.0068
741.00,0.0070
740.00,0.0072
739.00,0.0074
738.00,0.0077
737.00,0.0081
736.00,0.0084
735.00,0.0087
734.00,0.0091
733.00,0.0095
732.00,0.0099
731.00,0.0105
730.00,0.0111
729.00,0.0114
728.00,0.0116
727.00,0.0115
726.00,0.0114
725.00,0.0114
724.00,0.0117
723.00,0.0122
722.00,0.0128
721.00,0.0133
720.00,0.0132
719.00,0.0126
718.00,0.0115
717.00,0.0104
716.00,0.0094
715.00,0.0087
714.00,0.0083
713.00,0.0081
712.00,0.0079
711.00,0.0077
710.00,0.0075
709.00,0.0073
708.00,0.0072
707.00,0.0070
706.00,0.0068
705.00,0.0065
704.00,0.0062
703.00,0.0061
702.00,0.0060
701.00,0.0059
700.00,0.0058
699.00,0.0056
698.00,0.0054
697.00,0.0053
696.00,0.0052
695.00,0.0052
694.00,0.0053
693.00,0.0053
692.00,0.0053
691.00,0.0052
690.00,0.0051
689.00,0.0050
688.00,0.0050
687.00,0.0049
686.00,0.0050
685.00,0.0051
684.00,0.0052
683.00,0.0053
682.00,0.0054
681.00,0.0055
680.00,0.0055
679.00,0.0054
678.00,0.0054
677.00,0.0054
676.00,0.0055
675.00,0.0056
674.00,0.0056
673.00,0.0056
672.00,0.0056
671.00,0.0057
670.00,0.0056
669.00,0.0055
668.00,0.0053
667.00,0.0051
666.00,0.0051
665.00,0.0051
664.00,0.0050
663.00,0.0050
662.00,0.0050
661.00,0.0051
660.00,0.0050
659.00,0.0049
658.00,0.0048
657.00,0.0048
656.00,0.0049
655.00,0.0049
654.00,0.0049
653.00,0.0048
652.00,0.0047
651.00,0.0047
650.00,0.0049
649.00,0.0050
648.00,0.0051
647.00,0.0051
646.00,0.0051
645.00,0.0050
644.00,0.0050
643.00,0.0051
642.00,0.0053
641.00,0.0055
640.00,0.0056
639.00,0.0057
638.00,0.0058
637.00,0.0058
636.00,0.0058
635.00,0.0056
634.00,0.0054
633.00,0.0054
632.00,0.0056
631.00,0.0058
630.00,0.0058
629.00,0.0056
628.00,0.0054
627.00,0.0053
626.00,0.0053
625.00,0.0053
624.00,0.0053
623.00,0.0054
622.00,0.0055
621.00,0.0055
620.00,0.0054
619.00,0.0053
618.00,0.0052
617.00,0.0053
616.00,0.0053
615.00,0.0054
614.00,0.0054
613.00,0.0053
612.00,0.0053
611.00,0.0054
610.00,0.0056
609.00,0.0057
608.00,0.0057
607.00,0.0057
606.00,0.0058
605.00,0.0058
604.00,0.0058
603.00,0.0056
602.00,0.0054
601.00,0.0053
600.00,0.0052
599.00,0.0052
598.00,0.0053
597.00,0.0055
596.00,0.0058
595.00,0.0062
594.00,0.0063
593.00,0.0062
592.00,0.0059
591.00,0.0055
590.00,0.0053
589.00,0.0055
588.00,0.0058
587.00,0.0061
586.00,0.0062
585.00,0.0062
584.00,0.0062
583.00,0.0063
582.00,0.0063
581.00,0.0062
580.00,0.0059
579.00,0.0057
578.00,0.0056
577.00,0.0053
576.00,0.0050
575.00,0.0049
574.00,0.0049
573.00,0.0051
572.00,0.0054
571.00,0.0058
570.00,0.0061
569.00,0.0063
568.00,0.0062
567.00,0.0060
566.00,0.0058
565.00,0.0057
564.00,0.0056
563.00,0.0055
562.00,0.0056
561.00,0.0058
560.00,0.0060
559.00,0.0060
558.00,0.0057
557.00,0.0054
556.00,0.0050
555.00,0.0050
554.00,0.0053
553.00,0.0057
552.00,0.0061
551.00,0.0062
550.00,0.0061
549.00,0.0058
548.00,0.0055
547.00,0.0053
546.00,0.0050
545.00,0.0049
544.00,0.0049
543.00,0.0049
542.00,0.0049
541.00,0.0050
540.00,0.0051
539.00,0.0054
538.00,0.0058
537.00,0.0062
536.00,0.0065
535.00,0.0065
534.00,0.0065
533.00,0.0064
532.00,0.0065
531.00,0.0069
530.00,0.0070
529.00,0.0069
528.00,0.0067
527.00,0.0068
526.00,0.0073
525.00,0.0077
524.00,0.0078
523.00,0.0074
522.00,0.0066
521.00,0.0058
520.00,0.0052
519.00,0.0050
518.00,0.0053
517.00,0.0057
516.00,0.0061
515.00,0.0063
514.00,0.0064
513.00,0.0064
512.00,0.0064
511.00,0.0065
510.00,0.0063
509.00,0.0058
508.00,0.0051
507.00,0.0046
506.00,0.0047
505.00,0.0053
504.00,0.0058
503.00,0.0060
502.00,0.0062
501.00,0.0065
500.00,0.0067
499.00,0.0066
498.00,0.0062
497.00,0.0054
496.00,0.0047
495.00,0.0044
494.00,0.0044
493.00,0.0049
492.00,0.0057
491.00,0.0064
490.00,0.0068
489.00,0.0067
488.00,0.0064
487.00,0.0063
486.00,0.0063
485.00,0.0064
484.00,0.0065
483.00,0.0066
482.00,0.0071
481.00,0.0078
480.00,0.0082
479.00,0.0081
478.00,0.0076
477.00,0.0070
476.00,0.0069
475.00,0.0072
474.00,0.0078
473.00,0.0086
472.00,0.0094
471.00,0.0097
470.00,0.0092
469.00,0.0082
468.00,0.0073
467.00,0.0070
466.00,0.0073
465.00,0.0078
464.00,0.0082
463.00,0.0087
462.00,0.0096
461.00,0.0109
460.00,0.0122
459.00,0.0126
458.00,0.0118
457.00,0.0108
456.00,0.0108
455.00,0.0118
454.00,0.0129
453.00,0.0134
452.00,0.0132
451.00,0.0126
450.00,0.0119
