Created as New Dataset,Sample 131 By Administrator Date Friday, September 05 2025
cm-1,A
4000.00,0.0009
3999.00,0.0010
3998.00,0.0010
3997.00,0.0010
3996.00,0.0010
3995.00,0.0010
3994.00,0.0010
3993.00,0.0010
3992.00,0.0010
3991.00,0.0010
3990.00,0.0010
3989.00,0.0010
3988.00,0.0010
3987.00,0.0010
3986.00,0.0009
3985.00,0.0009
3984.00,0.0009
3983.00,0.0009
3982.00,0.0009
3981.00,0.0009
3980.00,0.0009
3979.00,0.0009
3978.00,0.0009
3977.00,0.0009
3976.00,0.0009
3975.00,0.0009
3974.00,0.0009
3973.00,0.0009
3972.00,0.0009
3971.00,0.0009
3970.00,0.0010
3969.00,0.0010
3968.00,0.0010
3967.00,0.0009
3966.00,0.0009
3965.00,0.0009
3964.00,0.0009
3963.00,0.0009
3962.00,0.0009
3961.00,0.0009
3960.00,0.0009
3959.00,0.0009
3958.00,0.0009
3957.00,0.0009
3956.00,0.0008
3955.00,0.0008
3954.00,0.0008
3953.00,0.0008
3952.00,0.0008
3951.00,0.0008
3950.00,0.0008
3949.00,0.0008
3948.00,0.0008
3947.00,0.0008
3946.00,0.0008
3945.00,0.0008
3944.00,0.0008
3943.00,0.0008
3942.00,0.0009
3941.00,0.0009
3940.00,0.0009
3939.00,0.0009
3938.00,0.0009
3937.00,0.0009
3936.00,0.0009
3935.00,0.0009
3934.00,0.0009
3933.00,0.0009
3932.00,0.0009
3931.00,0.0009
3930.00,0.0009
3929.00,0.0009
3928.00,0.0009
3927.00,0.0009
3926.00,0.0009
3925.00,0.0009
3924.00,0.0009
3923.00,0.0009
3922.00,0.0009
3921.00,0.0009
3920.00,0.0009
3919.00,0.0009
3918.00,0.0009
3917.00,0.0009
3916.00,0.0009
3915.00,0.0009
3914.00,0.0009
3913.00,0.0009
3912.00,0.0008
3911.00,0.0008
3910.00,0.0008
3909.00,0.0008
3908.00,0.0008
3907.00,0.0008
3906.00,0.0009
3905.00,0.0009
3904.00,0.0010
3903.00,0.0010
3902.00,0.0010
3901.00,0.0010
3900.00,0.0009
3899.00,0.0009
3898.00,0.0009
3897.00,0.0009
3896.00,0.0009
3895.00,0.0009
3894.00,0.0009
3893.00,0.0009
3892.00,0.0009
3891.00,0.0009
3890.00,0.0009
3889.00,0.0009
3888.00,0.0009
3887.00,0.0009
3886.00,0.0009
3885.00,0.0008
3884.00,0.0008
3883.00,0.0008
3882.00,0.0009
3881.00,0.0009
3880.00,0.0009
3879.00,0.0009
3878.00,0.0009
3877.00,0.0009
3876.00,0.0009
3875.00,0.0008
3874.00,0.0008
3873.00,0.0008
3872.00,0.0008
3871.00,0.0008
3870.00,0.0009
3869.00,0.0009
3868.00,0.0009
3867.00,0.0009
3866.00,0.0008
3865.00,0.0008
3864.00,0.0008
3863.00,0.0008
3862.00,0.0008
3861.00,0.0009
3860.00,0.0009
3859.00,0.0009
3858.00,0.0009
3857.00,0.0009
3856.00,0.0009
3855.00,0.0009
3854.00,0.0009
3853.00,0.0009
3852.00,0.0009
3851.00,0.0009
3850.00,0.0009
3849.00,0.0009
3848.00,0.0009
3847.00,0.0009
3846.00,0.0009
3845.00,0.0009
3844.00,0.0009
3843.00,0.0009
3842.00,0.0009
3841.00,0.0009
3840.00,0.0009
3839.00,0.0009
3838.00,0.0009
3837.00,0.0009
3836.00,0.0009
3835.00,0.0009
3834.00,0.0009
3833.00,0.0009
3832.00,0.0008
3831.00,0.0008
3830.00,0.0008
3829.00,0.0008
3828.00,0.0008
3827.00,0.0008
3826.00,0.0008
3825.00,0.0009
3824.00,0.0009
3823.00,0.0009
3822.00,0.0009
3821.00,0.0008
3820.00,0.0008
3819.00,0.0008
3818.00,0.0008
3817.00,0.0008
3816.00,0.0008
3815.00,0.0008
3814.00,0.0008
3813.00,0.0008
3812.00,0.0008
3811.00,0.0008
3810.00,0.0009
3809.00,0.0009
3808.00,0.0009
3807.00,0.0008
3806.00,0.0009
3805.00,0.0009
3804.00,0.0009
3803.00,0.0009
3802.00,0.0009
3801.00,0.0009
3800.00,0.0009
3799.00,0.0009
3798.00,0.0008
3797.00,0.0008
3796.00,0.0008
3795.00,0.0008
3794.00,0.0008
3793.00,0.0008
3792.00,0.0008
3791.00,0.0008
3790.00,0.0009
3789.00,0.0009
3788.00,0.0009
3787.00,0.0008
3786.00,0.0008
3785.00,0.0008
3784.00,0.0008
3783.00,0.0008
3782.00,0.0008
3781.00,0.0008
3780.00,0.0008
3779.00,0.0008
3778.00,0.0008
3777.00,0.0009
3776.00,0.0009
3775.00,0.0009
3774.00,0.0010
3773.00,0.0010
3772.00,0.0010
3771.00,0.0010
3770.00,0.0010
3769.00,0.0010
3768.00,0.0009
3767.00,0.0009
3766.00,0.0008
3765.00,0.0008
3764.00,0.0007
3763.00,0.0008
3762.00,0.0008
3761.00,0.0008
3760.00,0.0008
3759.00,0.0009
3758.00,0.0009
3757.00,0.0009
3756.00,0.0009
3755.00,0.0009
3754.00,0.0009
3753.00,0.0009
3752.00,0.0009
3751.00,0.0010
3750.00,0.0010
3749.00,0.0010
3748.00,0.0010
3747.00,0.0010
3746.00,0.0010
3745.00,0.0010
3744.00,0.0010
3743.00,0.0009
3742.00,0.0008
3741.00,0.0008
3740.00,0.0008
3739.00,0.0007
3738.00,0.0007
3737.00,0.0007
3736.00,0.0006
3735.00,0.0007
3734.00,0.0007
3733.00,0.0008
3732.00,0.0008
3731.00,0.0008
3730.00,0.0008
3729.00,0.0008
3728.00,0.0008
3727.00,0.0008
3726.00,0.0007
3725.00,0.0007
3724.00,0.0007
3723.00,0.0006
3722.00,0.0007
3721.00,0.0007
3720.00,0.0008
3719.00,0.0008
3718.00,0.0008
3717.00,0.0008
3716.00,0.0008
3715.00,0.0008
3714.00,0.0008
3713.00,0.0008
3712.00,0.0008
3711.00,0.0008
3710.00,0.0008
3709.00,0.0008
3708.00,0.0008
3707.00,0.0008
3706.00,0.0009
3705.00,0.0009
3704.00,0.0009
3703.00,0.0008
3702.00,0.0008
3701.00,0.0008
3700.00,0.0008
3699.00,0.0008
3698.00,0.0008
3697.00,0.0008
3696.00,0.0007
3695.00,0.0007
3694.00,0.0008
3693.00,0.0008
3692.00,0.0009
3691.00,0.0009
3690.00,0.0009
3689.00,0.0009
3688.00,0.0009
3687.00,0.0009
3686.00,0.0009
3685.00,0.0009
3684.00,0.0009
3683.00,0.0009
3682.00,0.0008
3681.00,0.0008
3680.00,0.0008
3679.00,0.0007
3678.00,0.0008
3677.00,0.0008
3676.00,0.0009
3675.00,0.0010
3674.00,0.0011
3673.00,0.0011
3672.00,0.0011
3671.00,0.0011
3670.00,0.0011
3669.00,0.0011
3668.00,0.0011
3667.00,0.0010
3666.00,0.0009
3665.00,0.0009
3664.00,0.0009
3663.00,0.0009
3662.00,0.0009
3661.00,0.0009
3660.00,0.0009
3659.00,0.0009
3658.00,0.0009
3657.00,0.0008
3656.00,0.0008
3655.00,0.0008
3654.00,0.0009
3653.00,0.0009
3652.00,0.0010
3651.00,0.0010
3650.00,0.0011
3649.00,0.0011
3648.00,0.0011
3647.00,0.0010
3646.00,0.0010
3645.00,0.0010
3644.00,0.0010
3643.00,0.0010
3642.00,0.0010
3641.00,0.0010
3640.00,0.0011
3639.00,0.0011
3638.00,0.0012
3637.00,0.0012
3636.00,0.0012
3635.00,0.0013
3634.00,0.0013
3633.00,0.0013
3632.00,0.0013
3631.00,0.0013
3630.00,0.0013
3629.00,0.0014
3628.00,0.0014
3627.00,0.0014
3626.00,0.0014
3625.00,0.0013
3624.00,0.0013
3623.00,0.0013
3622.00,0.0013
3621.00,0.0013
3620.00,0.0013
3619.00,0.0013
3618.00,0.0014
3617.00,0.0014
3616.00,0.0014
3615.00,0.0015
3614.00,0.0015
3613.00,0.0015
3612.00,0.0014
3611.00,0.0014
3610.00,0.0013
3609.00,0.0014
3608.00,0.0014
3607.00,0.0015
3606.00,0.0016
3605.00,0.0016
3604.00,0.0016
3603.00,0.0016
3602.00,0.0015
3601.00,0.0015
3600.00,0.0016
3599.00,0.0016
3598.00,0.0017
3597.00,0.0017
3596.00,0.0017
3595.00,0.0017
3594.00,0.0017
3593.00,0.0017
3592.00,0.0017
3591.00,0.0018
3590.00,0.0018
3589.00,0.0018
3588.00,0.0019
3587.00,0.0019
3586.00,0.0020
3585.00,0.0020
3584.00,0.0020
3583.00,0.0020
3582.00,0.0021
3581.00,0.0021
3580.00,0.0022
3579.00,0.0022
3578.00,0.0022
3577.00,0.0023
3576.00,0.0023
3575.00,0.0023
3574.00,0.0023
3573.00,0.0023
3572.00,0.0023
3571.00,0.0023
3570.00,0.0023
3569.00,0.0023
3568.00,0.0023
3567.00,0.0023
3566.00,0.0024
3565.00,0.0025
3564.00,0.0025
3563.00,0.0025
3562.00,0.0025
3561.00,0.0025
3560.00,0.0025
3559.00,0.0026
3558.00,0.0027
3557.00,0.0027
3556.00,0.0028
3555.00,0.0029
3554.00,0.0029
3553.00,0.0029
3552.00,0.0029
3551.00,0.0029
3550.00,0.0029
3549.00,0.0029
3548.00,0.0029
3547.00,0.0029
3546.00,0.0030
3545.00,0.0030
3544.00,0.0031
3543.00,0.0031
3542.00,0.0031
3541.00,0.0032
3540.00,0.0032
3539.00,0.0032
3538.00,0.0033
3537.00,0.0033
3536.00,0.0034
3535.00,0.0034
3534.00,0.0034
3533.00,0.0034
3532.00,0.0034
3531.00,0.0034
3530.00,0.0035
3529.00,0.0035
3528.00,0.0035
3527.00,0.0035
3526.00,0.0036
3525.00,0.0037
3524.00,0.0038
3523.00,0.0038
3522.00,0.0039
3521.00,0.0039
3520.00,0.0039
3519.00,0.0039
3518.00,0.0039
3517.00,0.0039
3516.00,0.0040
3515.00,0.0040
3514.00,0.0041
3513.00,0.0041
3512.00,0.0041
3511.00,0.0042
3510.00,0.0042
3509.00,0.0042
3508.00,0.0042
3507.00,0.0043
3506.00,0.0043
3505.00,0.0043
3504.00,0.0044
3503.00,0.0044
3502.00,0.0045
3501.00,0.0045
3500.00,0.0046
3499.00,0.0046
3498.00,0.0046
3497.00,0.0047
3496.00,0.0047
3495.00,0.0047
3494.00,0.0047
3493.00,0.0047
3492.00,0.0048
3491.00,0.0048
3490.00,0.0048
3489.00,0.0049
3488.00,0.0049
3487.00,0.0049
3486.00,0.0049
3485.00,0.0050
3484.00,0.0050
3483.00,0.0051
3482.00,0.0052
3481.00,0.0053
3480.00,0.0053
3479.00,0.0054
3478.00,0.0054
3477.00,0.0053
3476.00,0.0053
3475.00,0.0053
3474.00,0.0054
3473.00,0.0054
3472.00,0.0054
3471.00,0.0054
3470.00,0.0054
3469.00,0.0055
3468.00,0.0055
3467.00,0.0056
3466.00,0.0056
3465.00,0.0056
3464.00,0.0056
3463.00,0.0056
3462.00,0.0056
3461.00,0.0056
3460.00,0.0057
3459.00,0.0057
3458.00,0.0058
3457.00,0.0058
3456.00,0.0058
3455.00,0.0059
3454.00,0.0059
3453.00,0.0059
3452.00,0.0059
3451.00,0.0059
3450.00,0.0059
3449.00,0.0059
3448.00,0.0060
3447.00,0.0060
3446.00,0.0060
3445.00,0.0060
3444.00,0.0061
3443.00,0.0061
3442.00,0.0062
3441.00,0.0062
3440.00,0.0063
3439.00,0.0063
3438.00,0.0062
3437.00,0.0062
3436.00,0.0062
3435.00,0.0062
3434.00,0.0062
3433.00,0.0063
3432.00,0.0063
3431.00,0.0063
3430.00,0.0064
3429.00,0.0064
3428.00,0.0065
3427.00,0.0065
3426.00,0.0065
3425.00,0.0065
3424.00,0.0065
3423.00,0.0065
3422.00,0.0065
3421.00,0.0065
3420.00,0.0065
3419.00,0.0066
3418.00,0.0066
3417.00,0.0066
3416.00,0.0066
3415.00,0.0066
3414.00,0.0067
3413.00,0.0067
3412.00,0.0067
3411.00,0.0068
3410.00,0.0068
3409.00,0.0068
3408.00,0.0068
3407.00,0.0068
3406.00,0.0068
3405.00,0.0068
3404.00,0.0068
3403.00,0.0068
3402.00,0.0068
3401.00,0.0068
3400.00,0.0068
3399.00,0.0069
3398.00,0.0069
3397.00,0.0069
3396.00,0.0069
3395.00,0.0069
3394.00,0.0069
3393.00,0.0069
3392.00,0.0069
3391.00,0.0069
3390.00,0.0069
3389.00,0.0069
3388.00,0.0069
3387.00,0.0069
3386.00,0.0069
3385.00,0.0070
3384.00,0.0070
3383.00,0.0070
3382.00,0.0070
3381.00,0.0070
3380.00,0.0070
3379.00,0.0069
3378.00,0.0069
3377.00,0.0069
3376.00,0.0069
3375.00,0.0069
3374.00,0.0070
3373.00,0.0070
3372.00,0.0070
3371.00,0.0070
3370.00,0.0070
3369.00,0.0070
3368.00,0.0070
3367.00,0.0070
3366.00,0.0070
3365.00,0.0070
3364.00,0.0069
3363.00,0.0069
3362.00,0.0069
3361.00,0.0069
3360.00,0.0069
3359.00,0.0069
3358.00,0.0069
3357.00,0.0069
3356.00,0.0069
3355.00,0.0069
3354.00,0.0069
3353.00,0.0069
3352.00,0.0069
3351.00,0.0069
3350.00,0.0069
3349.00,0.0068
3348.00,0.0068
3347.00,0.0068
3346.00,0.0068
3345.00,0.0069
3344.00,0.0069
3343.00,0.0069
3342.00,0.0069
3341.00,0.0069
3340.00,0.0069
3339.00,0.0068
3338.00,0.0068
3337.00,0.0067
3336.00,0.0067
3335.00,0.0067
3334.00,0.0067
3333.00,0.0067
3332.00,0.0066
3331.00,0.0066
3330.00,0.0066
3329.00,0.0066
3328.00,0.0066
3327.00,0.0066
3326.00,0.0066
3325.00,0.0065
3324.00,0.0065
3323.00,0.0065
3322.00,0.0064
3321.00,0.0064
3320.00,0.0064
3319.00,0.0064
3318.00,0.0064
3317.00,0.0064
3316.00,0.0064
3315.00,0.0063
3314.00,0.0063
3313.00,0.0063
3312.00,0.0063
3311.00,0.0063
3310.00,0.0063
3309.00,0.0063
3308.00,0.0063
3307.00,0.0063
3306.00,0.0063
3305.00,0.0063
3304.00,0.0062
3303.00,0.0062
3302.00,0.0062
3301.00,0.0062
3300.00,0.0062
3299.00,0.0062
3298.00,0.0062
3297.00,0.0061
3296.00,0.0061
3295.00,0.0060
3294.00,0.0060
3293.00,0.0059
3292.00,0.0059
3291.00,0.0059
3290.00,0.0059
3289.00,0.0058
3288.00,0.0058
3287.00,0.0058
3286.00,0.0058
3285.00,0.0058
3284.00,0.0058
3283.00,0.0058
3282.00,0.0057
3281.00,0.0057
3280.00,0.0057
3279.00,0.0057
3278.00,0.0057
3277.00,0.0057
3276.00,0.0056
3275.00,0.0056
3274.00,0.0055
3273.00,0.0056
3272.00,0.0056
3271.00,0.0056
3270.00,0.0056
3269.00,0.0056
3268.00,0.0056
3267.00,0.0055
3266.00,0.0055
3265.00,0.0055
3264.00,0.0055
3263.00,0.0055
3262.00,0.0054
3261.00,0.0054
3260.00,0.0053
3259.00,0.0053
3258.00,0.0052
3257.00,0.0052
3256.00,0.0052
3255.00,0.0052
3254.00,0.0052
3253.00,0.0051
3252.00,0.0051
3251.00,0.0051
3250.00,0.0052
3249.00,0.0052
3248.00,0.0051
3247.00,0.0051
3246.00,0.0050
3245.00,0.0050
3244.00,0.0050
3243.00,0.0050
3242.00,0.0050
3241.00,0.0050
3240.00,0.0050
3239.00,0.0049
3238.00,0.0049
3237.00,0.0048
3236.00,0.0048
3235.00,0.0048
3234.00,0.0048
3233.00,0.0048
3232.00,0.0048
3231.00,0.0048
3230.00,0.0048
3229.00,0.0048
3228.00,0.0048
3227.00,0.0049
3226.00,0.0049
3225.00,0.0049
3224.00,0.0049
3223.00,0.0048
3222.00,0.0048
3221.00,0.0048
3220.00,0.0048
3219.00,0.0048
3218.00,0.0048
3217.00,0.0048
3216.00,0.0048
3215.00,0.0048
3214.00,0.0048
3213.00,0.0048
3212.00,0.0048
3211.00,0.0048
3210.00,0.0047
3209.00,0.0047
3208.00,0.0047
3207.00,0.0047
3206.00,0.0047
3205.00,0.0047
3204.00,0.0047
3203.00,0.0047
3202.00,0.0047
3201.00,0.0047
3200.00,0.0047
3199.00,0.0047
3198.00,0.0047
3197.00,0.0047
3196.00,0.0047
3195.00,0.0047
3194.00,0.0047
3193.00,0.0047
3192.00,0.0046
3191.00,0.0046
3190.00,0.0046
3189.00,0.0046
3188.00,0.0046
3187.00,0.0046
3186.00,0.0045
3185.00,0.0045
3184.00,0.0045
3183.00,0.0045
3182.00,0.0045
3181.00,0.0045
3180.00,0.0044
3179.00,0.0044
3178.00,0.0043
3177.00,0.0043
3176.00,0.0043
3175.00,0.0043
3174.00,0.0043
3173.00,0.0042
3172.00,0.0042
3171.00,0.0042
3170.00,0.0041
3169.00,0.0041
3168.00,0.0041
3167.00,0.0041
3166.00,0.0041
3165.00,0.0041
3164.00,0.0041
3163.00,0.0040
3162.00,0.0040
3161.00,0.0040
3160.00,0.0040
3159.00,0.0040
3158.00,0.0040
3157.00,0.0040
3156.00,0.0040
3155.00,0.0040
3154.00,0.0039
3153.00,0.0039
3152.00,0.0039
3151.00,0.0039
3150.00,0.0039
3149.00,0.0039
3148.00,0.0039
3147.00,0.0039
3146.00,0.0039
3145.00,0.0039
3144.00,0.0038
3143.00,0.0038
3142.00,0.0037
3141.00,0.0037
3140.00,0.0037
3139.00,0.0037
3138.00,0.0037
3137.00,0.0037
3136.00,0.0038
3135.00,0.0038
3134.00,0.0038
3133.00,0.0037
3132.00,0.0037
3131.00,0.0037
3130.00,0.0036
3129.00,0.0036
3128.00,0.0036
3127.00,0.0035
3126.00,0.0035
3125.00,0.0035
3124.00,0.0035
3123.00,0.0035
3122.00,0.0035
3121.00,0.0035
3120.00,0.0034
3119.00,0.0034
3118.00,0.0034
3117.00,0.0033
3116.00,0.0033
3115.00,0.0033
3114.00,0.0033
3113.00,0.0033
3112.00,0.0033
3111.00,0.0033
3110.00,0.0033
3109.00,0.0033
3108.00,0.0032
3107.00,0.0032
3106.00,0.0032
3105.00,0.0032
3104.00,0.0032
3103.00,0.0031
3102.00,0.0031
3101.00,0.0031
3100.00,0.0031
3099.00,0.0030
3098.00,0.0030
3097.00,0.0030
3096.00,0.0029
3095.00,0.0030
3094.00,0.0030
3093.00,0.0030
3092.00,0.0030
3091.00,0.0030
3090.00,0.0030
3089.00,0.0030
3088.00,0.0030
3087.00,0.0029
3086.00,0.0029
3085.00,0.0029
3084.00,0.0029
3083.00,0.0029
3082.00,0.0029
3081.00,0.0029
3080.00,0.0029
3079.00,0.0029
3078.00,0.0029
3077.00,0.0029
3076.00,0.0029
3075.00,0.0029
3074.00,0.0029
3073.00,0.0029
3072.00,0.0030
3071.00,0.0030
3070.00,0.0030
3069.00,0.0030
3068.00,0.0031
3067.00,0.0031
3066.00,0.0031
3065.00,0.0031
3064.00,0.0031
3063.00,0.0031
3062.00,0.0031
3061.00,0.0031
3060.00,0.0030
3059.00,0.0030
3058.00,0.0030
3057.00,0.0030
3056.00,0.0031
3055.00,0.0031
3054.00,0.0031
3053.00,0.0031
3052.00,0.0031
3051.00,0.0031
3050.00,0.0031
3049.00,0.0031
3048.00,0.0031
3047.00,0.0031
3046.00,0.0031
3045.00,0.0031
3044.00,0.0031
3043.00,0.0031
3042.00,0.0032
3041.00,0.0032
3040.00,0.0032
3039.00,0.0032
3038.00,0.0033
3037.00,0.0033
3036.00,0.0033
3035.00,0.0034
3034.00,0.0034
3033.00,0.0034
3032.00,0.0034
3031.00,0.0035
3030.00,0.0035
3029.00,0.0035
3028.00,0.0035
3027.00,0.0035
3026.00,0.0035
3025.00,0.0035
3024.00,0.0036
3023.00,0.0036
3022.00,0.0036
3021.00,0.0036
3020.00,0.0037
3019.00,0.0037
3018.00,0.0038
3017.00,0.0038
3016.00,0.0039
3015.00,0.0039
3014.00,0.0039
3013.00,0.0039
3012.00,0.0040
3011.00,0.0040
3010.00,0.0041
3009.00,0.0042
3008.00,0.0043
3007.00,0.0044
3006.00,0.0045
3005.00,0.0046
3004.00,0.0046
3003.00,0.0047
3002.00,0.0048
3001.00,0.0049
3000.00,0.0050
2999.00,0.0052
2998.00,0.0053
2997.00,0.0055
2996.00,0.0057
2995.00,0.0059
2994.00,0.0061
2993.00,0.0063
2992.00,0.0065
2991.00,0.0068
2990.00,0.0071
2989.00,0.0075
2988.00,0.0080
2987.00,0.0084
2986.00,0.0089
2985.00,0.0095
2984.00,0.0101
2983.00,0.0107
2982.00,0.0115
2981.00,0.0123
2980.00,0.0132
2979.00,0.0143
2978.00,0.0156
2977.00,0.0170
2976.00,0.0187
2975.00,0.0205
2974.00,0.0226
2973.00,0.0250
2972.00,0.0276
2971.00,0.0306
2970.00,0.0338
2969.00,0.0373
2968.00,0.0411
2967.00,0.0451
2966.00,0.0491
2965.00,0.0532
2964.00,0.0571
2963.00,0.0606
2962.00,0.0635
2961.00,0.0660
2960.00,0.0680
2959.00,0.0696
2958.00,0.0713
2957.00,0.0730
2956.00,0.0751
2955.00,0.0776
2954.00,0.0803
2953.00,0.0830
2952.00,0.0853
2951.00,0.0867
2950.00,0.0869
2949.00,0.0857
2948.00,0.0829
2947.00,0.0789
2946.00,0.0741
2945.00,0.0691
2944.00,0.0643
2943.00,0.0602
2942.00,0.0572
2941.00,0.0552
2940.00,0.0543
2939.00,0.0543
2938.00,0.0553
2937.00,0.0570
2936.00,0.0595
2935.00,0.0626
2934.00,0.0663
2933.00,0.0704
2932.00,0.0749
2931.00,0.0796
2930.00,0.0846
2929.00,0.0895
2928.00,0.0943
2927.00,0.0989
2926.00,0.1033
2925.00,0.1073
2924.00,0.1112
2923.00,0.1149
2922.00,0.1183
2921.00,0.1215
2920.00,0.1240
2919.00,0.1257
2918.00,0.1261
2917.00,0.1251
2916.00,0.1227
2915.00,0.1191
2914.00,0.1148
2913.00,0.1101
2912.00,0.1056
2911.00,0.1014
2910.00,0.0976
2909.00,0.0942
2908.00,0.0911
2907.00,0.0881
2906.00,0.0852
2905.00,0.0824
2904.00,0.0795
2903.00,0.0766
2902.00,0.0738
2901.00,0.0709
2900.00,0.0682
2899.00,0.0656
2898.00,0.0632
2897.00,0.0609
2896.00,0.0589
2895.00,0.0571
2894.00,0.0556
2893.00,0.0543
2892.00,0.0533
2891.00,0.0526
2890.00,0.0521
2889.00,0.0518
2888.00,0.0516
2887.00,0.0516
2886.00,0.0517
2885.00,0.0520
2884.00,0.0525
2883.00,0.0533
2882.00,0.0543
2881.00,0.0554
2880.00,0.0566
2879.00,0.0575
2878.00,0.0582
2877.00,0.0584
2876.00,0.0584
2875.00,0.0581
2874.00,0.0579
2873.00,0.0580
2872.00,0.0583
2871.00,0.0589
2870.00,0.0597
2869.00,0.0603
2868.00,0.0607
2867.00,0.0603
2866.00,0.0591
2865.00,0.0570
2864.00,0.0542
2863.00,0.0510
2862.00,0.0480
2861.00,0.0454
2860.00,0.0436
2859.00,0.0424
2858.00,0.0419
2857.00,0.0419
2856.00,0.0422
2855.00,0.0428
2854.00,0.0436
2853.00,0.0444
2852.00,0.0451
2851.00,0.0457
2850.00,0.0460
2849.00,0.0460
2848.00,0.0460
2847.00,0.0461
2846.00,0.0466
2845.00,0.0476
2844.00,0.0491
2843.00,0.0510
2842.00,0.0531
2841.00,0.0551
2840.00,0.0567
2839.00,0.0575
2838.00,0.0572
2837.00,0.0557
2836.00,0.0528
2835.00,0.0488
2834.00,0.0441
2833.00,0.0393
2832.00,0.0346
2831.00,0.0305
2830.00,0.0270
2829.00,0.0242
2828.00,0.0218
2827.00,0.0199
2826.00,0.0183
2825.00,0.0170
2824.00,0.0159
2823.00,0.0149
2822.00,0.0142
2821.00,0.0135
2820.00,0.0129
2819.00,0.0124
2818.00,0.0119
2817.00,0.0115
2816.00,0.0112
2815.00,0.0109
2814.00,0.0106
2813.00,0.0104
2812.00,0.0101
2811.00,0.0098
2810.00,0.0095
2809.00,0.0092
2808.00,0.0089
2807.00,0.0086
2806.00,0.0083
2805.00,0.0080
2804.00,0.0077
2803.00,0.0074
2802.00,0.0071
2801.00,0.0069
2800.00,0.0067
2799.00,0.0066
2798.00,0.0064
2797.00,0.0063
2796.00,0.0062
2795.00,0.0060
2794.00,0.0059
2793.00,0.0058
2792.00,0.0057
2791.00,0.0055
2790.00,0.0054
2789.00,0.0052
2788.00,0.0051
2787.00,0.0049
2786.00,0.0048
2785.00,0.0047
2784.00,0.0046
2783.00,0.0045
2782.00,0.0044
2781.00,0.0043
2780.00,0.0042
2779.00,0.0041
2778.00,0.0040
2777.00,0.0039
2776.00,0.0038
2775.00,0.0038
2774.00,0.0037
2773.00,0.0037
2772.00,0.0037
2771.00,0.0037
2770.00,0.0037
2769.00,0.0037
2768.00,0.0036
2767.00,0.0036
2766.00,0.0036
2765.00,0.0036
2764.00,0.0035
2763.00,0.0035
2762.00,0.0035
2761.00,0.0034
2760.00,0.0034
2759.00,0.0034
2758.00,0.0035
2757.00,0.0035
2756.00,0.0034
2755.00,0.0034
2754.00,0.0034
2753.00,0.0034
2752.00,0.0034
2751.00,0.0033
2750.00,0.0033
2749.00,0.0033
2748.00,0.0033
2747.00,0.0033
2746.00,0.0034
2745.00,0.0034
2744.00,0.0035
2743.00,0.0035
2742.00,0.0035
2741.00,0.0036
2740.00,0.0036
2739.00,0.0037
2738.00,0.0037
2737.00,0.0038
2736.00,0.0038
2735.00,0.0039
2734.00,0.0040
2733.00,0.0041
2732.00,0.0041
2731.00,0.0042
2730.00,0.0043
2729.00,0.0044
2728.00,0.0045
2727.00,0.0046
2726.00,0.0047
2725.00,0.0048
2724.00,0.0049
2723.00,0.0049
2722.00,0.0049
2721.00,0.0048
2720.00,0.0046
2719.00,0.0045
2718.00,0.0043
2717.00,0.0042
2716.00,0.0040
2715.00,0.0039
2714.00,0.0039
2713.00,0.0038
2712.00,0.0037
2711.00,0.0036
2710.00,0.0035
2709.00,0.0034
2708.00,0.0034
2707.00,0.0033
2706.00,0.0032
2705.00,0.0031
2704.00,0.0031
2703.00,0.0030
2702.00,0.0030
2701.00,0.0030
2700.00,0.0030
2699.00,0.0030
2698.00,0.0029
2697.00,0.0029
2696.00,0.0029
2695.00,0.0029
2694.00,0.0029
2693.00,0.0029
2692.00,0.0029
2691.00,0.0029
2690.00,0.0029
2689.00,0.0029
2688.00,0.0029
2687.00,0.0029
2686.00,0.0029
2685.00,0.0029
2684.00,0.0029
2683.00,0.0029
2682.00,0.0029
2681.00,0.0029
2680.00,0.0029
2679.00,0.0029
2678.00,0.0029
2677.00,0.0029
2676.00,0.0029
2675.00,0.0029
2674.00,0.0029
2673.00,0.0028
2672.00,0.0028
2671.00,0.0028
2670.00,0.0028
2669.00,0.0028
2668.00,0.0028
2667.00,0.0029
2666.00,0.0029
2665.00,0.0029
2664.00,0.0029
2663.00,0.0030
2662.00,0.0030
2661.00,0.0031
2660.00,0.0031
2659.00,0.0031
2658.00,0.0031
2657.00,0.0030
2656.00,0.0030
2655.00,0.0030
2654.00,0.0030
2653.00,0.0030
2652.00,0.0030
2651.00,0.0030
2650.00,0.0030
2649.00,0.0029
2648.00,0.0029
2647.00,0.0028
2646.00,0.0028
2645.00,0.0028
2644.00,0.0027
2643.00,0.0027
2642.00,0.0027
2641.00,0.0027
2640.00,0.0026
2639.00,0.0026
2638.00,0.0026
2637.00,0.0027
2636.00,0.0027
2635.00,0.0027
2634.00,0.0027
2633.00,0.0027
2632.00,0.0026
2631.00,0.0026
2630.00,0.0026
2629.00,0.0026
2628.00,0.0026
2627.00,0.0026
2626.00,0.0027
2625.00,0.0027
2624.00,0.0027
2623.00,0.0027
2622.00,0.0027
2621.00,0.0027
2620.00,0.0027
2619.00,0.0026
2618.00,0.0026
2617.00,0.0027
2616.00,0.0027
2615.00,0.0027
2614.00,0.0026
2613.00,0.0026
2612.00,0.0026
2611.00,0.0025
2610.00,0.0025
2609.00,0.0024
2608.00,0.0024
2607.00,0.0024
2606.00,0.0023
2605.00,0.0023
2604.00,0.0023
2603.00,0.0022
2602.00,0.0022
2601.00,0.0021
2600.00,0.0020
2599.00,0.0020
2598.00,0.0021
2597.00,0.0021
2596.00,0.0022
2595.00,0.0023
2594.00,0.0023
2593.00,0.0023
2592.00,0.0023
2591.00,0.0022
2590.00,0.0022
2589.00,0.0022
2588.00,0.0022
2587.00,0.0023
2586.00,0.0023
2585.00,0.0024
2584.00,0.0024
2583.00,0.0024
2582.00,0.0024
2581.00,0.0024
2580.00,0.0024
2579.00,0.0024
2578.00,0.0023
2577.00,0.0022
2576.00,0.0021
2575.00,0.0021
2574.00,0.0020
2573.00,0.0020
2572.00,0.0019
2571.00,0.0019
2570.00,0.0019
2569.00,0.0019
2568.00,0.0018
2567.00,0.0018
2566.00,0.0017
2565.00,0.0017
2564.00,0.0016
2563.00,0.0016
2562.00,0.0016
2561.00,0.0016
2560.00,0.0016
2559.00,0.0015
2558.00,0.0015
2557.00,0.0015
2556.00,0.0015
2555.00,0.0015
2554.00,0.0015
2553.00,0.0015
2552.00,0.0016
2551.00,0.0015
2550.00,0.0015
2549.00,0.0015
2548.00,0.0015
2547.00,0.0014
2546.00,0.0014
2545.00,0.0014
2544.00,0.0014
2543.00,0.0014
2542.00,0.0014
2541.00,0.0014
2540.00,0.0014
2539.00,0.0014
2538.00,0.0014
2537.00,0.0013
2536.00,0.0013
2535.00,0.0013
2534.00,0.0013
2533.00,0.0013
2532.00,0.0013
2531.00,0.0013
2530.00,0.0013
2529.00,0.0013
2528.00,0.0014
2527.00,0.0013
2526.00,0.0013
2525.00,0.0012
2524.00,0.0011
2523.00,0.0011
2522.00,0.0010
2521.00,0.0010
2520.00,0.0010
2519.00,0.0010
2518.00,0.0010
2517.00,0.0010
2516.00,0.0010
2515.00,0.0010
2514.00,0.0010
2513.00,0.0010
2512.00,0.0010
2511.00,0.0010
2510.00,0.0010
2509.00,0.0010
2508.00,0.0009
2507.00,0.0010
2506.00,0.0010
2505.00,0.0011
2504.00,0.0011
2503.00,0.0011
2502.00,0.0010
2501.00,0.0010
2500.00,0.0010
2499.00,0.0010
2498.00,0.0010
2497.00,0.0009
2496.00,0.0009
2495.00,0.0009
2494.00,0.0009
2493.00,0.0009
2492.00,0.0010
2491.00,0.0010
2490.00,0.0010
2489.00,0.0009
2488.00,0.0009
2487.00,0.0009
2486.00,0.0009
2485.00,0.0009
2484.00,0.0009
2483.00,0.0010
2482.00,0.0011
2481.00,0.0011
2480.00,0.0010
2479.00,0.0010
2478.00,0.0010
2477.00,0.0009
2476.00,0.0009
2475.00,0.0008
2474.00,0.0008
2473.00,0.0008
2472.00,0.0008
2471.00,0.0008
2470.00,0.0008
2469.00,0.0009
2468.00,0.0009
2467.00,0.0009
2466.00,0.0009
2465.00,0.0009
2464.00,0.0009
2463.00,0.0009
2462.00,0.0009
2461.00,0.0009
2460.00,0.0010
2459.00,0.0011
2458.00,0.0011
2457.00,0.0011
2456.00,0.0010
2455.00,0.0009
2454.00,0.0009
2453.00,0.0009
2452.00,0.0009
2451.00,0.0010
2450.00,0.0010
2449.00,0.0011
2448.00,0.0011
2447.00,0.0011
2446.00,0.0011
2445.00,0.0011
2444.00,0.0010
2443.00,0.0010
2442.00,0.0010
2441.00,0.0009
2440.00,0.0009
2439.00,0.0009
2438.00,0.0010
2437.00,0.0011
2436.00,0.0012
2435.00,0.0012
2434.00,0.0011
2433.00,0.0010
2432.00,0.0010
2431.00,0.0010
2430.00,0.0009
2429.00,0.0009
2428.00,0.0009
2427.00,0.0009
2426.00,0.0008
2425.00,0.0008
2424.00,0.0008
2423.00,0.0008
2422.00,0.0008
2421.00,0.0008
2420.00,0.0008
2419.00,0.0008
2418.00,0.0008
2417.00,0.0008
2416.00,0.0008
2415.00,0.0008
2414.00,0.0008
2413.00,0.0008
2412.00,0.0008
2411.00,0.0008
2410.00,0.0008
2409.00,0.0008
2408.00,0.0008
2407.00,0.0008
2406.00,0.0007
2405.00,0.0007
2404.00,0.0007
2403.00,0.0007
2402.00,0.0007
2401.00,0.0008
2400.00,0.0008
2399.00,0.0008
2398.00,0.0008
2397.00,0.0007
2396.00,0.0007
2395.00,0.0007
2394.00,0.0008
2393.00,0.0008
2392.00,0.0008
2391.00,0.0008
2390.00,0.0008
2389.00,0.0007
2388.00,0.0006
2387.00,0.0006
2386.00,0.0006
2385.00,0.0006
2384.00,0.0007
2383.00,0.0007
2382.00,0.0007
2381.00,0.0006
2380.00,0.0006
2379.00,0.0005
2378.00,0.0005
2377.00,0.0005
2376.00,0.0006
2375.00,0.0006
2374.00,0.0006
2373.00,0.0006
2372.00,0.0006
2371.00,0.0006
2370.00,0.0005
2369.00,0.0005
2368.00,0.0005
2367.00,0.0005
2366.00,0.0005
2365.00,0.0006
2364.00,0.0006
2363.00,0.0007
2362.00,0.0007
2361.00,0.0007
2360.00,0.0007
2359.00,0.0008
2358.00,0.0008
2357.00,0.0008
2356.00,0.0008
2355.00,0.0008
2354.00,0.0008
2353.00,0.0008
2352.00,0.0008
2351.00,0.0008
2350.00,0.0008
2349.00,0.0008
2348.00,0.0008
2347.00,0.0008
2346.00,0.0007
2345.00,0.0007
2344.00,0.0007
2343.00,0.0008
2342.00,0.0009
2341.00,0.0010
2340.00,0.0011
2339.00,0.0011
2338.00,0.0011
2337.00,0.0011
2336.00,0.0011
2335.00,0.0010
2334.00,0.0010
2333.00,0.0010
2332.00,0.0009
2331.00,0.0009
2330.00,0.0009
2329.00,0.0010
2328.00,0.0012
2327.00,0.0015
2326.00,0.0018
2325.00,0.0020
2324.00,0.0020
2323.00,0.0019
2322.00,0.0017
2321.00,0.0016
2320.00,0.0015
2319.00,0.0014
2318.00,0.0014
2317.00,0.0013
2316.00,0.0013
2315.00,0.0014
2314.00,0.0013
2313.00,0.0013
2312.00,0.0013
2311.00,0.0012
2310.00,0.0012
2309.00,0.0013
2308.00,0.0014
2307.00,0.0014
2306.00,0.0014
2305.00,0.0014
2304.00,0.0014
2303.00,0.0013
2302.00,0.0013
2301.00,0.0013
2300.00,0.0013
2299.00,0.0014
2298.00,0.0014
2297.00,0.0014
2296.00,0.0014
2295.00,0.0015
2294.00,0.0015
2293.00,0.0016
2292.00,0.0017
2291.00,0.0017
2290.00,0.0017
2289.00,0.0016
2288.00,0.0016
2287.00,0.0016
2286.00,0.0017
2285.00,0.0017
2284.00,0.0017
2283.00,0.0016
2282.00,0.0015
2281.00,0.0013
2280.00,0.0012
2279.00,0.0012
2278.00,0.0012
2277.00,0.0012
2276.00,0.0012
2275.00,0.0012
2274.00,0.0012
2273.00,0.0012
2272.00,0.0011
2271.00,0.0011
2270.00,0.0012
2269.00,0.0013
2268.00,0.0014
2267.00,0.0014
2266.00,0.0014
2265.00,0.0013
2264.00,0.0012
2263.00,0.0011
2262.00,0.0011
2261.00,0.0011
2260.00,0.0011
2259.00,0.0012
2258.00,0.0013
2257.00,0.0013
2256.00,0.0012
2255.00,0.0011
2254.00,0.0010
2253.00,0.0010
2252.00,0.0010
2251.00,0.0010
2250.00,0.0010
2249.00,0.0011
2248.00,0.0011
2247.00,0.0011
2246.00,0.0010
2245.00,0.0010
2244.00,0.0010
2243.00,0.0011
2242.00,0.0011
2241.00,0.0010
2240.00,0.0010
2239.00,0.0009
2238.00,0.0009
2237.00,0.0009
2236.00,0.0009
2235.00,0.0008
2234.00,0.0008
2233.00,0.0009
2232.00,0.0010
2231.00,0.0011
2230.00,0.0012
2229.00,0.0012
2228.00,0.0012
2227.00,0.0011
2226.00,0.0011
2225.00,0.0009
2224.00,0.0008
2223.00,0.0007
2222.00,0.0007
2221.00,0.0007
2220.00,0.0007
2219.00,0.0007
2218.00,0.0008
2217.00,0.0009
2216.00,0.0010
2215.00,0.0011
2214.00,0.0010
2213.00,0.0009
2212.00,0.0008
2211.00,0.0008
2210.00,0.0010
2209.00,0.0011
2208.00,0.0012
2207.00,0.0012
2206.00,0.0011
2205.00,0.0010
2204.00,0.0010
2203.00,0.0010
2202.00,0.0010
2201.00,0.0009
2200.00,0.0009
2199.00,0.0009
2198.00,0.0009
2197.00,0.0009
2196.00,0.0010
2195.00,0.0010
2194.00,0.0010
2193.00,0.0010
2192.00,0.0011
2191.00,0.0011
2190.00,0.0011
2189.00,0.0011
2188.00,0.0010
2187.00,0.0009
2186.00,0.0008
2185.00,0.0007
2184.00,0.0006
2183.00,0.0005
2182.00,0.0005
2181.00,0.0005
2180.00,0.0006
2179.00,0.0006
2178.00,0.0006
2177.00,0.0006
2176.00,0.0005
2175.00,0.0005
2174.00,0.0005
2173.00,0.0006
2172.00,0.0008
2171.00,0.0010
2170.00,0.0012
2169.00,0.0013
2168.00,0.0013
2167.00,0.0013
2166.00,0.0014
2165.00,0.0017
2164.00,0.0019
2163.00,0.0020
2162.00,0.0017
2161.00,0.0008
2160.00,-0.0004
2159.00,-0.0015
2158.00,-0.0021
2157.00,-0.0020
2156.00,-0.0017
2155.00,-0.0015
2154.00,-0.0014
2153.00,-0.0013
2152.00,-0.0012
2151.00,-0.0009
2150.00,-0.0006
2149.00,-0.0004
2148.00,-0.0003
2147.00,-0.0004
2146.00,-0.0006
2145.00,-0.0008
2144.00,-0.0008
2143.00,-0.0008
2142.00,-0.0007
2141.00,-0.0006
2140.00,-0.0006
2139.00,-0.0008
2138.00,-0.0010
2137.00,-0.0011
2136.00,-0.0010
2135.00,-0.0010
2134.00,-0.0010
2133.00,-0.0010
2132.00,-0.0010
2131.00,-0.0009
2130.00,-0.0007
2129.00,-0.0006
2128.00,-0.0005
2127.00,-0.0004
2126.00,-0.0003
2125.00,-0.0003
2124.00,-0.0004
2123.00,-0.0004
2122.00,-0.0004
2121.00,-0.0002
2120.00,-0.0001
2119.00,0.0000
2118.00,0.0001
2117.00,0.0001
2116.00,0.0002
2115.00,0.0003
2114.00,0.0004
2113.00,0.0004
2112.00,0.0004
2111.00,0.0004
2110.00,0.0003
2109.00,0.0003
2108.00,0.0004
2107.00,0.0005
2106.00,0.0005
2105.00,0.0005
2104.00,0.0005
2103.00,0.0005
2102.00,0.0005
2101.00,0.0006
2100.00,0.0006
2099.00,0.0005
2098.00,0.0004
2097.00,0.0003
2096.00,0.0001
2095.00,0.0000
2094.00,-0.0001
2093.00,-0.0001
2092.00,-0.0001
2091.00,-0.0000
2090.00,0.0000
2089.00,0.0001
2088.00,0.0002
2087.00,0.0002
2086.00,0.0003
2085.00,0.0004
2084.00,0.0005
2083.00,0.0006
2082.00,0.0006
2081.00,0.0005
2080.00,0.0005
2079.00,0.0004
2078.00,0.0002
2077.00,0.0002
2076.00,0.0003
2075.00,0.0004
2074.00,0.0005
2073.00,0.0006
2072.00,0.0006
2071.00,0.0005
2070.00,0.0004
2069.00,0.0004
2068.00,0.0003
2067.00,0.0002
2066.00,0.0003
2065.00,0.0003
2064.00,0.0004
2063.00,0.0004
2062.00,0.0004
2061.00,0.0004
2060.00,0.0004
2059.00,0.0004
2058.00,0.0004
2057.00,0.0004
2056.00,0.0004
2055.00,0.0004
2054.00,0.0006
2053.00,0.0008
2052.00,0.0012
2051.00,0.0014
2050.00,0.0014
2049.00,0.0012
2048.00,0.0009
2047.00,0.0006
2046.00,0.0003
2045.00,0.0001
2044.00,0.0001
2043.00,0.0002
2042.00,0.0003
2041.00,0.0004
2040.00,0.0004
2039.00,0.0004
2038.00,0.0005
2037.00,0.0006
2036.00,0.0008
2035.00,0.0008
2034.00,0.0006
2033.00,0.0002
2032.00,-0.0002
2031.00,-0.0004
2030.00,-0.0004
2029.00,-0.0003
2028.00,-0.0002
2027.00,-0.0001
2026.00,-0.0003
2025.00,-0.0006
2024.00,-0.0009
2023.00,-0.0010
2022.00,-0.0007
2021.00,-0.0002
2020.00,0.0002
2019.00,0.0003
2018.00,0.0002
2017.00,0.0001
2016.00,0.0001
2015.00,0.0002
2014.00,0.0002
2013.00,0.0001
2012.00,-0.0003
2011.00,-0.0007
2010.00,-0.0009
2009.00,-0.0009
2008.00,-0.0010
2007.00,-0.0012
2006.00,-0.0014
2005.00,-0.0013
2004.00,-0.0011
2003.00,-0.0010
2002.00,-0.0009
2001.00,-0.0009
2000.00,-0.0008
1999.00,-0.0008
1998.00,-0.0007
1997.00,-0.0005
1996.00,-0.0002
1995.00,-0.0000
1994.00,0.0001
1993.00,0.0001
1992.00,0.0002
1991.00,0.0004
1990.00,0.0007
1989.00,0.0007
1988.00,0.0006
1987.00,0.0003
1986.00,0.0001
1985.00,0.0001
1984.00,0.0002
1983.00,0.0004
1982.00,0.0007
1981.00,0.0010
1980.00,0.0013
1979.00,0.0012
1978.00,0.0009
1977.00,0.0005
1976.00,0.0000
1975.00,-0.0005
1974.00,-0.0010
1973.00,-0.0014
1972.00,-0.0015
1971.00,-0.0014
1970.00,-0.0011
1969.00,-0.0008
1968.00,-0.0006
1967.00,-0.0005
1966.00,-0.0006
1965.00,-0.0007
1964.00,-0.0009
1963.00,-0.0010
1962.00,-0.0010
1961.00,-0.0009
1960.00,-0.0008
1959.00,-0.0008
1958.00,-0.0007
1957.00,-0.0006
1956.00,-0.0006
1955.00,-0.0006
1954.00,-0.0006
1953.00,-0.0005
1952.00,-0.0005
1951.00,-0.0006
1950.00,-0.0008
1949.00,-0.0009
1948.00,-0.0010
1947.00,-0.0009
1946.00,-0.0007
1945.00,-0.0007
1944.00,-0.0006
1943.00,-0.0007
1942.00,-0.0008
1941.00,-0.0008
1940.00,-0.0009
1939.00,-0.0009
1938.00,-0.0007
1937.00,-0.0005
1936.00,-0.0003
1935.00,-0.0002
1934.00,-0.0002
1933.00,-0.0002
1932.00,-0.0002
1931.00,-0.0002
1930.00,-0.0001
1929.00,-0.0000
1928.00,-0.0000
1927.00,-0.0001
1926.00,-0.0003
1925.00,-0.0004
1924.00,-0.0004
1923.00,-0.0003
1922.00,-0.0001
1921.00,0.0001
1920.00,0.0002
1919.00,0.0002
1918.00,0.0002
1917.00,0.0001
1916.00,-0.0001
1915.00,-0.0002
1914.00,-0.0002
1913.00,-0.0001
1912.00,-0.0001
1911.00,0.0000
1910.00,0.0000
1909.00,0.0000
1908.00,-0.0000
1907.00,-0.0000
1906.00,0.0000
1905.00,0.0001
1904.00,0.0002
1903.00,0.0002
1902.00,0.0001
1901.00,0.0001
1900.00,0.0000
1899.00,0.0001
1898.00,0.0001
1897.00,0.0001
1896.00,0.0001
1895.00,0.0000
1894.00,-0.0000
1893.00,-0.0001
1892.00,-0.0001
1891.00,-0.0000
1890.00,-0.0000
1889.00,-0.0000
1888.00,-0.0000
1887.00,-0.0001
1886.00,-0.0001
1885.00,-0.0001
1884.00,-0.0000
1883.00,0.0000
1882.00,0.0001
1881.00,0.0001
1880.00,0.0002
1879.00,0.0002
1878.00,0.0002
1877.00,0.0002
1876.00,0.0002
1875.00,0.0002
1874.00,0.0002
1873.00,0.0003
1872.00,0.0003
1871.00,0.0003
1870.00,0.0003
1869.00,0.0003
1868.00,0.0002
1867.00,0.0002
1866.00,0.0002
1865.00,0.0002
1864.00,0.0002
1863.00,0.0002
1862.00,0.0002
1861.00,0.0002
1860.00,0.0002
1859.00,0.0003
1858.00,0.0002
1857.00,0.0002
1856.00,0.0002
1855.00,0.0002
1854.00,0.0002
1853.00,0.0002
1852.00,0.0002
1851.00,0.0002
1850.00,0.0003
1849.00,0.0003
1848.00,0.0004
1847.00,0.0004
1846.00,0.0004
1845.00,0.0004
1844.00,0.0003
1843.00,0.0003
1842.00,0.0003
1841.00,0.0002
1840.00,0.0002
1839.00,0.0002
1838.00,0.0002
1837.00,0.0003
1836.00,0.0004
1835.00,0.0004
1834.00,0.0005
1833.00,0.0004
1832.00,0.0004
1831.00,0.0004
1830.00,0.0003
1829.00,0.0004
1828.00,0.0004
1827.00,0.0005
1826.00,0.0005
1825.00,0.0005
1824.00,0.0006
1823.00,0.0006
1822.00,0.0005
1821.00,0.0005
1820.00,0.0005
1819.00,0.0004
1818.00,0.0003
1817.00,0.0002
1816.00,0.0002
1815.00,0.0002
1814.00,0.0003
1813.00,0.0003
1812.00,0.0004
1811.00,0.0004
1810.00,0.0004
1809.00,0.0004
1808.00,0.0004
1807.00,0.0005
1806.00,0.0005
1805.00,0.0006
1804.00,0.0006
1803.00,0.0007
1802.00,0.0007
1801.00,0.0007
1800.00,0.0007
1799.00,0.0007
1798.00,0.0006
1797.00,0.0006
1796.00,0.0006
1795.00,0.0007
1794.00,0.0007
1793.00,0.0008
1792.00,0.0008
1791.00,0.0008
1790.00,0.0008
1789.00,0.0008
1788.00,0.0008
1787.00,0.0008
1786.00,0.0008
1785.00,0.0008
1784.00,0.0008
1783.00,0.0008
1782.00,0.0009
1781.00,0.0009
1780.00,0.0009
1779.00,0.0008
1778.00,0.0008
1777.00,0.0007
1776.00,0.0007
1775.00,0.0007
1774.00,0.0007
1773.00,0.0007
1772.00,0.0008
1771.00,0.0008
1770.00,0.0008
1769.00,0.0008
1768.00,0.0009
1767.00,0.0009
1766.00,0.0008
1765.00,0.0008
1764.00,0.0008
1763.00,0.0009
1762.00,0.0009
1761.00,0.0010
1760.00,0.0011
1759.00,0.0011
1758.00,0.0012
1757.00,0.0012
1756.00,0.0011
1755.00,0.0011
1754.00,0.0011
1753.00,0.0011
1752.00,0.0011
1751.00,0.0012
1750.00,0.0012
1749.00,0.0013
1748.00,0.0013
1747.00,0.0014
1746.00,0.0014
1745.00,0.0014
1744.00,0.0015
1743.00,0.0016
1742.00,0.0016
1741.00,0.0016
1740.00,0.0017
1739.00,0.0017
1738.00,0.0018
1737.00,0.0018
1736.00,0.0018
1735.00,0.0018
1734.00,0.0018
1733.00,0.0018
1732.00,0.0018
1731.00,0.0018
1730.00,0.0018
1729.00,0.0017
1728.00,0.0017
1727.00,0.0017
1726.00,0.0017
1725.00,0.0018
1724.00,0.0018
1723.00,0.0018
1722.00,0.0018
1721.00,0.0019
1720.00,0.0019
1719.00,0.0018
1718.00,0.0018
1717.00,0.0018
1716.00,0.0019
1715.00,0.0019
1714.00,0.0019
1713.00,0.0018
1712.00,0.0018
1711.00,0.0019
1710.00,0.0019
1709.00,0.0019
1708.00,0.0020
1707.00,0.0020
1706.00,0.0019
1705.00,0.0020
1704.00,0.0020
1703.00,0.0021
1702.00,0.0021
1701.00,0.0021
1700.00,0.0022
1699.00,0.0022
1698.00,0.0022
1697.00,0.0023
1696.00,0.0024
1695.00,0.0025
1694.00,0.0025
1693.00,0.0026
1692.00,0.0026
1691.00,0.0026
1690.00,0.0027
1689.00,0.0028
1688.00,0.0028
1687.00,0.0029
1686.00,0.0029
1685.00,0.0030
1684.00,0.0032
1683.00,0.0034
1682.00,0.0036
1681.00,0.0037
1680.00,0.0038
1679.00,0.0038
1678.00,0.0039
1677.00,0.0039
1676.00,0.0040
1675.00,0.0041
1674.00,0.0043
1673.00,0.0044
1672.00,0.0045
1671.00,0.0045
1670.00,0.0046
1669.00,0.0047
1668.00,0.0048
1667.00,0.0048
1666.00,0.0048
1665.00,0.0049
1664.00,0.0050
1663.00,0.0051
1662.00,0.0051
1661.00,0.0051
1660.00,0.0051
1659.00,0.0051
1658.00,0.0052
1657.00,0.0053
1656.00,0.0054
1655.00,0.0054
1654.00,0.0054
1653.00,0.0054
1652.00,0.0054
1651.00,0.0054
1650.00,0.0054
1649.00,0.0054
1648.00,0.0055
1647.00,0.0056
1646.00,0.0057
1645.00,0.0057
1644.00,0.0058
1643.00,0.0058
1642.00,0.0058
1641.00,0.0059
1640.00,0.0059
1639.00,0.0060
1638.00,0.0060
1637.00,0.0060
1636.00,0.0061
1635.00,0.0060
1634.00,0.0060
1633.00,0.0060
1632.00,0.0060
1631.00,0.0059
1630.00,0.0059
1629.00,0.0059
1628.00,0.0059
1627.00,0.0059
1626.00,0.0058
1625.00,0.0058
1624.00,0.0058
1623.00,0.0057
1622.00,0.0057
1621.00,0.0057
1620.00,0.0057
1619.00,0.0057
1618.00,0.0055
1617.00,0.0054
1616.00,0.0054
1615.00,0.0054
1614.00,0.0054
1613.00,0.0055
1612.00,0.0055
1611.00,0.0055
1610.00,0.0055
1609.00,0.0055
1608.00,0.0055
1607.00,0.0055
1606.00,0.0055
1605.00,0.0055
1604.00,0.0055
1603.00,0.0055
1602.00,0.0055
1601.00,0.0054
1600.00,0.0054
1599.00,0.0054
1598.00,0.0053
1597.00,0.0053
1596.00,0.0053
1595.00,0.0053
1594.00,0.0052
1593.00,0.0052
1592.00,0.0053
1591.00,0.0053
1590.00,0.0053
1589.00,0.0054
1588.00,0.0054
1587.00,0.0055
1586.00,0.0056
1585.00,0.0056
1584.00,0.0057
1583.00,0.0059
1582.00,0.0060
1581.00,0.0062
1580.00,0.0063
1579.00,0.0064
1578.00,0.0064
1577.00,0.0063
1576.00,0.0063
1575.00,0.0062
1574.00,0.0061
1573.00,0.0061
1572.00,0.0060
1571.00,0.0059
1570.00,0.0058
1569.00,0.0058
1568.00,0.0057
1567.00,0.0057
1566.00,0.0058
1565.00,0.0058
1564.00,0.0058
1563.00,0.0059
1562.00,0.0058
1561.00,0.0058
1560.00,0.0059
1559.00,0.0059
1558.00,0.0059
1557.00,0.0060
1556.00,0.0060
1555.00,0.0061
1554.00,0.0062
1553.00,0.0062
1552.00,0.0063
1551.00,0.0065
1550.00,0.0066
1549.00,0.0067
1548.00,0.0068
1547.00,0.0069
1546.00,0.0070
1545.00,0.0071
1544.00,0.0073
1543.00,0.0075
1542.00,0.0076
1541.00,0.0076
1540.00,0.0076
1539.00,0.0074
1538.00,0.0072
1537.00,0.0070
1536.00,0.0069
1535.00,0.0067
1534.00,0.0064
1533.00,0.0061
1532.00,0.0059
1531.00,0.0057
1530.00,0.0056
1529.00,0.0054
1528.00,0.0053
1527.00,0.0051
1526.00,0.0050
1525.00,0.0050
1524.00,0.0050
1523.00,0.0050
1522.00,0.0049
1521.00,0.0048
1520.00,0.0047
1519.00,0.0047
1518.00,0.0047
1517.00,0.0047
1516.00,0.0047
1515.00,0.0047
1514.00,0.0047
1513.00,0.0047
1512.00,0.0048
1511.00,0.0049
1510.00,0.0049
1509.00,0.0049
1508.00,0.0049
1507.00,0.0048
1506.00,0.0049
1505.00,0.0050
1504.00,0.0051
1503.00,0.0053
1502.00,0.0054
1501.00,0.0057
1500.00,0.0060
1499.00,0.0063
1498.00,0.0066
1497.00,0.0070
1496.00,0.0074
1495.00,0.0077
1494.00,0.0080
1493.00,0.0083
1492.00,0.0086
1491.00,0.0089
1490.00,0.0092
1489.00,0.0096
1488.00,0.0099
1487.00,0.0101
1486.00,0.0103
1485.00,0.0106
1484.00,0.0110
1483.00,0.0113
1482.00,0.0118
1481.00,0.0124
1480.00,0.0131
1479.00,0.0137
1478.00,0.0144
1477.00,0.0155
1476.00,0.0168
1475.00,0.0182
1474.00,0.0203
1473.00,0.0234
1472.00,0.0270
1471.00,0.0303
1470.00,0.0333
1469.00,0.0364
1468.00,0.0396
1467.00,0.0431
1466.00,0.0471
1465.00,0.0517
1464.00,0.0556
1463.00,0.0580
1462.00,0.0593
1461.00,0.0599
1460.00,0.0602
1459.00,0.0605
1458.00,0.0612
1457.00,0.0622
1456.00,0.0626
1455.00,0.0621
1454.00,0.0610
1453.00,0.0597
1452.00,0.0580
1451.00,0.0558
1450.00,0.0530
1449.00,0.0495
1448.00,0.0454
1447.00,0.0412
1446.00,0.0374
1445.00,0.0341
1444.00,0.0312
1443.00,0.0289
1442.00,0.0271
1441.00,0.0259
1440.00,0.0252
1439.00,0.0248
1438.00,0.0249
1437.00,0.0251
1436.00,0.0246
1435.00,0.0234
1434.00,0.0215
1433.00,0.0193
1432.00,0.0171
1431.00,0.0151
1430.00,0.0136
1429.00,0.0125
1428.00,0.0117
1427.00,0.0112
1426.00,0.0108
1425.00,0.0106
1424.00,0.0103
1423.00,0.0102
1422.00,0.0101
1421.00,0.0100
1420.00,0.0098
1419.00,0.0096
1418.00,0.0095
1417.00,0.0094
1416.00,0.0092
1415.00,0.0091
1414.00,0.0089
1413.00,0.0088
1412.00,0.0086
1411.00,0.0086
1410.00,0.0085
1409.00,0.0084
1408.00,0.0083
1407.00,0.0082
1406.00,0.0082
1405.00,0.0082
1404.00,0.0082
1403.00,0.0083
1402.00,0.0084
1401.00,0.0084
1400.00,0.0084
1399.00,0.0085
1398.00,0.0087
1397.00,0.0088
1396.00,0.0088
1395.00,0.0090
1394.00,0.0092
1393.00,0.0094
1392.00,0.0096
1391.00,0.0100
1390.00,0.0105
1389.00,0.0112
1388.00,0.0123
1387.00,0.0140
1386.00,0.0163
1385.00,0.0193
1384.00,0.0233
1383.00,0.0291
1382.00,0.0367
1381.00,0.0465
1380.00,0.0583
1379.00,0.0710
1378.00,0.0823
1377.00,0.0895
1376.00,0.0908
1375.00,0.0853
1374.00,0.0746
1373.00,0.0620
1372.00,0.0506
1371.00,0.0412
1370.00,0.0338
1369.00,0.0283
1368.00,0.0245
1367.00,0.0221
1366.00,0.0208
1365.00,0.0203
1364.00,0.0205
1363.00,0.0212
1362.00,0.0222
1361.00,0.0232
1360.00,0.0240
1359.00,0.0241
1358.00,0.0236
1357.00,0.0224
1356.00,0.0207
1355.00,0.0188
1354.00,0.0170
1353.00,0.0155
1352.00,0.0142
1351.00,0.0132
1350.00,0.0123
1349.00,0.0117
1348.00,0.0111
1347.00,0.0106
1346.00,0.0101
1345.00,0.0098
1344.00,0.0094
1343.00,0.0091
1342.00,0.0089
1341.00,0.0087
1340.00,0.0085
1339.00,0.0084
1338.00,0.0083
1337.00,0.0082
1336.00,0.0082
1335.00,0.0082
1334.00,0.0083
1333.00,0.0085
1332.00,0.0087
1331.00,0.0089
1330.00,0.0089
1329.00,0.0088
1328.00,0.0086
1327.00,0.0083
1326.00,0.0081
1325.00,0.0078
1324.00,0.0075
1323.00,0.0073
1322.00,0.0071
1321.00,0.0069
1320.00,0.0069
1319.00,0.0068
1318.00,0.0067
1317.00,0.0067
1316.00,0.0066
1315.00,0.0065
1314.00,0.0065
1313.00,0.0065
1312.00,0.0066
1311.00,0.0067
1310.00,0.0069
1309.00,0.0072
1308.00,0.0076
1307.00,0.0081
1306.00,0.0086
1305.00,0.0090
1304.00,0.0091
1303.00,0.0091
1302.00,0.0089
1301.00,0.0087
1300.00,0.0086
1299.00,0.0086
1298.00,0.0087
1297.00,0.0086
1296.00,0.0085
1295.00,0.0084
1294.00,0.0082
1293.00,0.0079
1292.00,0.0077
1291.00,0.0075
1290.00,0.0073
1289.00,0.0071
1288.00,0.0069
1287.00,0.0068
1286.00,0.0067
1285.00,0.0065
1284.00,0.0064
1283.00,0.0063
1282.00,0.0062
1281.00,0.0062
1280.00,0.0061
1279.00,0.0061
1278.00,0.0060
1277.00,0.0060
1276.00,0.0059
1275.00,0.0059
1274.00,0.0059
1273.00,0.0058
1272.00,0.0058
1271.00,0.0058
1270.00,0.0059
1269.00,0.0059
1268.00,0.0060
1267.00,0.0062
1266.00,0.0063
1265.00,0.0065
1264.00,0.0066
1263.00,0.0068
1262.00,0.0070
1261.00,0.0073
1260.00,0.0076
1259.00,0.0080
1258.00,0.0083
1257.00,0.0086
1256.00,0.0087
1255.00,0.0086
1254.00,0.0083
1253.00,0.0079
1252.00,0.0075
1251.00,0.0071
1250.00,0.0069
1249.00,0.0067
1248.00,0.0066
1247.00,0.0066
1246.00,0.0065
1245.00,0.0064
1244.00,0.0063
1243.00,0.0063
1242.00,0.0062
1241.00,0.0062
1240.00,0.0061
1239.00,0.0061
1238.00,0.0061
1237.00,0.0061
1236.00,0.0061
1235.00,0.0061
1234.00,0.0061
1233.00,0.0061
1232.00,0.0061
1231.00,0.0061
1230.00,0.0062
1229.00,0.0062
1228.00,0.0063
1227.00,0.0064
1226.00,0.0065
1225.00,0.0067
1224.00,0.0069
1223.00,0.0072
1222.00,0.0074
1221.00,0.0075
1220.00,0.0076
1219.00,0.0076
1218.00,0.0075
1217.00,0.0074
1216.00,0.0073
1215.00,0.0071
1214.00,0.0069
1213.00,0.0067
1212.00,0.0065
1211.00,0.0064
1210.00,0.0062
1209.00,0.0061
1208.00,0.0061
1207.00,0.0060
1206.00,0.0060
1205.00,0.0060
1204.00,0.0059
1203.00,0.0059
1202.00,0.0059
1201.00,0.0059
1200.00,0.0059
1199.00,0.0059
1198.00,0.0060
1197.00,0.0060
1196.00,0.0060
1195.00,0.0060
1194.00,0.0060
1193.00,0.0060
1192.00,0.0060
1191.00,0.0060
1190.00,0.0060
1189.00,0.0060
1188.00,0.0059
1187.00,0.0059
1186.00,0.0059
1185.00,0.0059
1184.00,0.0059
1183.00,0.0059
1182.00,0.0060
1181.00,0.0062
1180.00,0.0064
1179.00,0.0067
1178.00,0.0070
1177.00,0.0075
1176.00,0.0081
1175.00,0.0089
1174.00,0.0099
1173.00,0.0110
1172.00,0.0124
1171.00,0.0139
1170.00,0.0154
1169.00,0.0165
1168.00,0.0171
1167.00,0.0171
1166.00,0.0167
1165.00,0.0160
1164.00,0.0153
1163.00,0.0146
1162.00,0.0140
1161.00,0.0135
1160.00,0.0131
1159.00,0.0129
1158.00,0.0128
1157.00,0.0127
1156.00,0.0127
1155.00,0.0127
1154.00,0.0127
1153.00,0.0126
1152.00,0.0125
1151.00,0.0121
1150.00,0.0117
1149.00,0.0113
1148.00,0.0108
1147.00,0.0104
1146.00,0.0101
1145.00,0.0098
1144.00,0.0095
1143.00,0.0091
1142.00,0.0088
1141.00,0.0085
1140.00,0.0083
1139.00,0.0080
1138.00,0.0078
1137.00,0.0076
1136.00,0.0075
1135.00,0.0074
1134.00,0.0073
1133.00,0.0073
1132.00,0.0072
1131.00,0.0073
1130.00,0.0073
1129.00,0.0074
1128.00,0.0075
1127.00,0.0076
1126.00,0.0077
1125.00,0.0078
1124.00,0.0079
1123.00,0.0080
1122.00,0.0080
1121.00,0.0081
1120.00,0.0081
1119.00,0.0082
1118.00,0.0082
1117.00,0.0082
1116.00,0.0083
1115.00,0.0083
1114.00,0.0084
1113.00,0.0085
1112.00,0.0086
1111.00,0.0086
1110.00,0.0087
1109.00,0.0088
1108.00,0.0090
1107.00,0.0093
1106.00,0.0095
1105.00,0.0098
1104.00,0.0100
1103.00,0.0101
1102.00,0.0101
1101.00,0.0099
1100.00,0.0096
1099.00,0.0092
1098.00,0.0090
1097.00,0.0088
1096.00,0.0086
1095.00,0.0085
1094.00,0.0083
1093.00,0.0082
1092.00,0.0080
1091.00,0.0078
1090.00,0.0076
1089.00,0.0075
1088.00,0.0074
1087.00,0.0074
1086.00,0.0073
1085.00,0.0072
1084.00,0.0071
1083.00,0.0071
1082.00,0.0070
1081.00,0.0070
1080.00,0.0069
1079.00,0.0069
1078.00,0.0069
1077.00,0.0069
1076.00,0.0069
1075.00,0.0068
1074.00,0.0066
1073.00,0.0065
1072.00,0.0064
1071.00,0.0063
1070.00,0.0062
1069.00,0.0062
1068.00,0.0062
1067.00,0.0062
1066.00,0.0062
1065.00,0.0062
1064.00,0.0063
1063.00,0.0063
1062.00,0.0063
1061.00,0.0063
1060.00,0.0062
1059.00,0.0061
1058.00,0.0061
1057.00,0.0061
1056.00,0.0061
1055.00,0.0061
1054.00,0.0062
1053.00,0.0062
1052.00,0.0062
1051.00,0.0062
1050.00,0.0063
1049.00,0.0064
1048.00,0.0066
1047.00,0.0069
1046.00,0.0071
1045.00,0.0073
1044.00,0.0072
1043.00,0.0071
1042.00,0.0069
1041.00,0.0067
1040.00,0.0067
1039.00,0.0068
1038.00,0.0068
1037.00,0.0069
1036.00,0.0068
1035.00,0.0068
1034.00,0.0068
1033.00,0.0069
1032.00,0.0069
1031.00,0.0068
1030.00,0.0067
1029.00,0.0065
1028.00,0.0064
1027.00,0.0063
1026.00,0.0064
1025.00,0.0064
1024.00,0.0064
1023.00,0.0064
1022.00,0.0064
1021.00,0.0064
1020.00,0.0064
1019.00,0.0063
1018.00,0.0064
1017.00,0.0065
1016.00,0.0066
1015.00,0.0068
1014.00,0.0070
1013.00,0.0072
1012.00,0.0073
1011.00,0.0074
1010.00,0.0075
1009.00,0.0075
1008.00,0.0077
1007.00,0.0080
1006.00,0.0085
1005.00,0.0092
1004.00,0.0100
1003.00,0.0112
1002.00,0.0127
1001.00,0.0145
1000.00,0.0164
999.00,0.0178
998.00,0.0184
997.00,0.0179
996.00,0.0165
995.00,0.0146
994.00,0.0127
993.00,0.0111
992.00,0.0098
991.00,0.0089
990.00,0.0083
989.00,0.0079
988.00,0.0076
987.00,0.0075
986.00,0.0075
985.00,0.0076
984.00,0.0078
983.00,0.0082
982.00,0.0088
981.00,0.0096
980.00,0.0108
979.00,0.0124
978.00,0.0144
977.00,0.0166
976.00,0.0190
975.00,0.0210
974.00,0.0223
973.00,0.0225
972.00,0.0214
971.00,0.0193
970.00,0.0167
969.00,0.0142
968.00,0.0121
967.00,0.0106
966.00,0.0096
965.00,0.0088
964.00,0.0082
963.00,0.0076
962.00,0.0072
961.00,0.0069
960.00,0.0067
959.00,0.0067
958.00,0.0067
957.00,0.0066
956.00,0.0065
955.00,0.0064
954.00,0.0062
953.00,0.0061
952.00,0.0061
951.00,0.0060
950.00,0.0060
949.00,0.0060
948.00,0.0059
947.00,0.0060
946.00,0.0061
945.00,0.0063
944.00,0.0064
943.00,0.0066
942.00,0.0068
941.00,0.0069
940.00,0.0069
939.00,0.0068
938.00,0.0066
937.00,0.0063
936.00,0.0061
935.00,0.0058
934.00,0.0056
933.00,0.0054
932.00,0.0053
931.00,0.0053
930.00,0.0054
929.00,0.0054
928.00,0.0053
927.00,0.0052
926.00,0.0052
925.00,0.0051
924.00,0.0051
923.00,0.0051
922.00,0.0051
921.00,0.0051
920.00,0.0051
919.00,0.0051
918.00,0.0052
917.00,0.0052
916.00,0.0052
915.00,0.0053
914.00,0.0054
913.00,0.0055
912.00,0.0056
911.00,0.0057
910.00,0.0058
909.00,0.0059
908.00,0.0061
907.00,0.0063
906.00,0.0067
905.00,0.0073
904.00,0.0080
903.00,0.0090
902.00,0.0100
901.00,0.0109
900.00,0.0114
899.00,0.0114
898.00,0.0108
897.00,0.0100
896.00,0.0091
895.00,0.0083
894.00,0.0077
893.00,0.0072
892.00,0.0067
891.00,0.0063
890.00,0.0061
889.00,0.0060
888.00,0.0060
887.00,0.0061
886.00,0.0061
885.00,0.0061
884.00,0.0061
883.00,0.0061
882.00,0.0061
881.00,0.0061
880.00,0.0062
879.00,0.0064
878.00,0.0065
877.00,0.0067
876.00,0.0067
875.00,0.0067
874.00,0.0065
873.00,0.0064
872.00,0.0063
871.00,0.0063
870.00,0.0063
869.00,0.0064
868.00,0.0064
867.00,0.0063
866.00,0.0062
865.00,0.0061
864.00,0.0060
863.00,0.0059
862.00,0.0059
861.00,0.0060
860.00,0.0061
859.00,0.0063
858.00,0.0064
857.00,0.0065
856.00,0.0065
855.00,0.0065
854.00,0.0067
853.00,0.0069
852.00,0.0071
851.00,0.0073
850.00,0.0076
849.00,0.0080
848.00,0.0086
847.00,0.0093
846.00,0.0103
845.00,0.0120
844.00,0.0143
843.00,0.0167
842.00,0.0182
841.00,0.0181
840.00,0.0165
839.00,0.0141
838.00,0.0118
837.00,0.0101
836.00,0.0091
835.00,0.0085
834.00,0.0081
833.00,0.0078
832.00,0.0077
831.00,0.0076
830.00,0.0076
829.00,0.0076
828.00,0.0075
827.00,0.0073
826.00,0.0071
825.00,0.0070
824.00,0.0069
823.00,0.0070
822.00,0.0071
821.00,0.0073
820.00,0.0074
819.00,0.0076
818.00,0.0078
817.00,0.0080
816.00,0.0084
815.00,0.0089
814.00,0.0096
813.00,0.0105
812.00,0.0115
811.00,0.0124
810.00,0.0131
809.00,0.0135
808.00,0.0134
807.00,0.0128
806.00,0.0119
805.00,0.0110
804.00,0.0101
803.00,0.0093
802.00,0.0086
801.00,0.0081
800.00,0.0077
799.00,0.0075
798.00,0.0075
797.00,0.0074
796.00,0.0074
795.00,0.0073
794.00,0.0071
793.00,0.0069
792.00,0.0066
791.00,0.0065
790.00,0.0064
789.00,0.0064
788.00,0.0064
787.00,0.0062
786.00,0.0060
785.00,0.0058
784.00,0.0056
783.00,0.0055
782.00,0.0053
781.00,0.0053
780.00,0.0054
779.00,0.0055
778.00,0.0056
777.00,0.0057
776.00,0.0057
775.00,0.0056
774.00,0.0056
773.00,0.0056
772.00,0.0056
771.00,0.0055
770.00,0.0055
769.00,0.0055
768.00,0.0055
767.00,0.0055
766.00,0.0055
765.00,0.0054
764.00,0.0052
763.00,0.0051
762.00,0.0052
761.00,0.0054
760.00,0.0057
759.00,0.0058
758.00,0.0059
757.00,0.0059
756.00,0.0058
755.00,0.0058
754.00,0.0058
753.00,0.0057
752.00,0.0058
751.00,0.0060
750.00,0.0061
749.00,0.0063
748.00,0.0063
747.00,0.0064
746.00,0.0064
745.00,0.0065
744.00,0.0066
743.00,0.0067
742.00,0.0069
741.00,0.0071
740.00,0.0074
739.00,0.0076
738.00,0.0078
737.00,0.0081
736.00,0.0085
735.00,0.0087
734.00,0.0089
733.00,0.0091
732.00,0.0093
731.00,0.0097
730.00,0.0102
729.00,0.0105
728.00,0.0107
727.00,0.0107
726.00,0.0106
725.00,0.0106
724.00,0.0107
723.00,0.0109
722.00,0.0111
721.00,0.0113
720.00,0.0111
719.00,0.0106
718.00,0.0099
717.00,0.0092
716.00,0.0087
715.00,0.0083
714.00,0.0080
713.00,0.0078
712.00,0.0077
711.00,0.0077
710.00,0.0077
709.00,0.0077
708.00,0.0077
707.00,0.0077
706.00,0.0077
705.00,0.0078
704.00,0.0079
703.00,0.0079
702.00,0.0078
701.00,0.0075
700.00,0.0069
699.00,0.0063
698.00,0.0058
697.00,0.0055
696.00,0.0055
695.00,0.0056
694.00,0.0057
693.00,0.0058
692.00,0.0057
691.00,0.0057
690.00,0.0057
689.00,0.0057
688.00,0.0058
687.00,0.0057
686.00,0.0057
685.00,0.0058
684.00,0.0059
683.00,0.0061
682.00,0.0060
681.00,0.0059
680.00,0.0058
679.00,0.0059
678.00,0.0060
677.00,0.0061
676.00,0.0061
675.00,0.0062
674.00,0.0062
673.00,0.0062
672.00,0.0061
671.00,0.0060
670.00,0.0059
669.00,0.0058
668.00,0.0058
667.00,0.0058
666.00,0.0059
665.00,0.0058
664.00,0.0058
663.00,0.0058
662.00,0.0057
661.00,0.0057
660.00,0.0057
659.00,0.0057
658.00,0.0057
657.00,0.0056
656.00,0.0056
655.00,0.0056
654.00,0.0057
653.00,0.0057
652.00,0.0058
651.00,0.0058
650.00,0.0058
649.00,0.0059
648.00,0.0060
647.00,0.0060
646.00,0.0059
645.00,0.0059
644.00,0.0059
643.00,0.0061
642.00,0.0063
641.00,0.0066
640.00,0.0068
639.00,0.0069
638.00,0.0069
637.00,0.0069
636.00,0.0068
635.00,0.0066
634.00,0.0064
633.00,0.0063
632.00,0.0064
631.00,0.0066
630.00,0.0068
629.00,0.0069
628.00,0.0069
627.00,0.0069
626.00,0.0070
625.00,0.0071
624.00,0.0071
623.00,0.0070
622.00,0.0069
621.00,0.0069
620.00,0.0070
619.00,0.0069
618.00,0.0068
617.00,0.0067
616.00,0.0066
615.00,0.0068
614.00,0.0070
613.00,0.0071
612.00,0.0070
611.00,0.0068
610.00,0.0066
609.00,0.0065
608.00,0.0064
607.00,0.0064
606.00,0.0065
605.00,0.0066
604.00,0.0067
603.00,0.0067
602.00,0.0065
601.00,0.0065
600.00,0.0067
599.00,0.0070
598.00,0.0071
597.00,0.0071
596.00,0.0070
595.00,0.0069
594.00,0.0068
593.00,0.0066
592.00,0.0063
591.00,0.0060
590.00,0.0061
589.00,0.0063
588.00,0.0066
587.00,0.0069
586.00,0.0071
585.00,0.0073
584.00,0.0073
583.00,0.0073
582.00,0.0072
581.00,0.0070
580.00,0.0068
579.00,0.0067
578.00,0.0067
577.00,0.0069
576.00,0.0069
575.00,0.0069
574.00,0.0068
573.00,0.0069
572.00,0.0070
571.00,0.0070
570.00,0.0070
569.00,0.0069
568.00,0.0067
567.00,0.0065
566.00,0.0064
565.00,0.0065
564.00,0.0064
563.00,0.0063
562.00,0.0061
561.00,0.0062
560.00,0.0064
559.00,0.0065
558.00,0.0066
557.00,0.0067
556.00,0.0068
555.00,0.0069
554.00,0.0070
553.00,0.0070
552.00,0.0070
551.00,0.0068
550.00,0.0067
549.00,0.0069
548.00,0.0071
547.00,0.0072
546.00,0.0070
545.00,0.0067
544.00,0.0065
543.00,0.0064
542.00,0.0061
541.00,0.0058
540.00,0.0057
539.00,0.0058
538.00,0.0063
537.00,0.0069
536.00,0.0073
535.00,0.0075
534.00,0.0073
533.00,0.0072
532.00,0.0072
531.00,0.0071
530.00,0.0069
529.00,0.0066
528.00,0.0064
527.00,0.0064
526.00,0.0066
525.00,0.0068
524.00,0.0070
523.00,0.0069
522.00,0.0066
521.00,0.0062
520.00,0.0060
519.00,0.0061
518.00,0.0064
517.00,0.0067
516.00,0.0069
515.00,0.0070
514.00,0.0069
513.00,0.0068
512.00,0.0069
511.00,0.0073
510.00,0.0077
509.00,0.0079
508.00,0.0078
507.00,0.0074
506.00,0.0071
505.00,0.0068
504.00,0.0064
503.00,0.0058
502.00,0.0053
501.00,0.0054
500.00,0.0059
499.00,0.0062
498.00,0.0059
497.00,0.0052
496.00,0.0047
495.00,0.0043
494.00,0.0041
493.00,0.0042
492.00,0.0047
491.00,0.0055
490.00,0.0060
489.00,0.0061
488.00,0.0061
487.00,0.0063
486.00,0.0064
485.00,0.0063
484.00,0.0062
483.00,0.0061
482.00,0.0062
481.00,0.0062
480.00,0.0062
479.00,0.0061
478.00,0.0061
477.00,0.0063
476.00,0.0069
475.00,0.0079
474.00,0.0086
473.00,0.0090
472.00,0.0089
471.00,0.0084
470.00,0.0070
469.00,0.0052
468.00,0.0041
467.00,0.0046
466.00,0.0062
465.00,0.0075
464.00,0.0080
463.00,0.0080
462.00,0.0084
461.00,0.0094
460.00,0.0108
459.00,0.0116
458.00,0.0110
457.00,0.0098
456.00,0.0093
455.00,0.0100
454.00,0.0107
453.00,0.0103
452.00,0.0090
451.00,0.0082
450.00,0.0085
