Created as New Dataset,Sample 143 By Administrator Date Friday, September 05 2025
cm-1,A
4000.00,0.0011
3999.00,0.0011
3998.00,0.0011
3997.00,0.0011
3996.00,0.0011
3995.00,0.0011
3994.00,0.0011
3993.00,0.0011
3992.00,0.0011
3991.00,0.0011
3990.00,0.0011
3989.00,0.0011
3988.00,0.0010
3987.00,0.0010
3986.00,0.0010
3985.00,0.0010
3984.00,0.0010
3983.00,0.0010
3982.00,0.0010
3981.00,0.0010
3980.00,0.0010
3979.00,0.0010
3978.00,0.0010
3977.00,0.0010
3976.00,0.0010
3975.00,0.0010
3974.00,0.0010
3973.00,0.0010
3972.00,0.0010
3971.00,0.0010
3970.00,0.0010
3969.00,0.0010
3968.00,0.0010
3967.00,0.0010
3966.00,0.0010
3965.00,0.0009
3964.00,0.0009
3963.00,0.0009
3962.00,0.0009
3961.00,0.0009
3960.00,0.0009
3959.00,0.0009
3958.00,0.0009
3957.00,0.0009
3956.00,0.0009
3955.00,0.0009
3954.00,0.0009
3953.00,0.0009
3952.00,0.0009
3951.00,0.0009
3950.00,0.0009
3949.00,0.0009
3948.00,0.0009
3947.00,0.0009
3946.00,0.0009
3945.00,0.0009
3944.00,0.0009
3943.00,0.0009
3942.00,0.0009
3941.00,0.0009
3940.00,0.0009
3939.00,0.0009
3938.00,0.0009
3937.00,0.0009
3936.00,0.0009
3935.00,0.0010
3934.00,0.0010
3933.00,0.0010
3932.00,0.0010
3931.00,0.0010
3930.00,0.0010
3929.00,0.0010
3928.00,0.0010
3927.00,0.0010
3926.00,0.0010
3925.00,0.0010
3924.00,0.0010
3923.00,0.0010
3922.00,0.0010
3921.00,0.0010
3920.00,0.0009
3919.00,0.0009
3918.00,0.0009
3917.00,0.0009
3916.00,0.0009
3915.00,0.0009
3914.00,0.0009
3913.00,0.0009
3912.00,0.0009
3911.00,0.0009
3910.00,0.0009
3909.00,0.0009
3908.00,0.0010
3907.00,0.0009
3906.00,0.0009
3905.00,0.0009
3904.00,0.0009
3903.00,0.0009
3902.00,0.0009
3901.00,0.0009
3900.00,0.0009
3899.00,0.0009
3898.00,0.0009
3897.00,0.0009
3896.00,0.0009
3895.00,0.0009
3894.00,0.0009
3893.00,0.0009
3892.00,0.0009
3891.00,0.0009
3890.00,0.0009
3889.00,0.0009
3888.00,0.0009
3887.00,0.0009
3886.00,0.0009
3885.00,0.0009
3884.00,0.0009
3883.00,0.0009
3882.00,0.0009
3881.00,0.0009
3880.00,0.0009
3879.00,0.0009
3878.00,0.0009
3877.00,0.0009
3876.00,0.0008
3875.00,0.0008
3874.00,0.0008
3873.00,0.0008
3872.00,0.0008
3871.00,0.0007
3870.00,0.0008
3869.00,0.0008
3868.00,0.0008
3867.00,0.0008
3866.00,0.0007
3865.00,0.0007
3864.00,0.0008
3863.00,0.0008
3862.00,0.0008
3861.00,0.0008
3860.00,0.0008
3859.00,0.0008
3858.00,0.0008
3857.00,0.0008
3856.00,0.0008
3855.00,0.0008
3854.00,0.0008
3853.00,0.0008
3852.00,0.0008
3851.00,0.0008
3850.00,0.0008
3849.00,0.0008
3848.00,0.0008
3847.00,0.0008
3846.00,0.0008
3845.00,0.0008
3844.00,0.0008
3843.00,0.0008
3842.00,0.0008
3841.00,0.0008
3840.00,0.0008
3839.00,0.0008
3838.00,0.0008
3837.00,0.0008
3836.00,0.0008
3835.00,0.0008
3834.00,0.0008
3833.00,0.0007
3832.00,0.0007
3831.00,0.0008
3830.00,0.0008
3829.00,0.0008
3828.00,0.0007
3827.00,0.0007
3826.00,0.0007
3825.00,0.0008
3824.00,0.0008
3823.00,0.0008
3822.00,0.0007
3821.00,0.0007
3820.00,0.0008
3819.00,0.0008
3818.00,0.0008
3817.00,0.0007
3816.00,0.0008
3815.00,0.0008
3814.00,0.0008
3813.00,0.0008
3812.00,0.0009
3811.00,0.0009
3810.00,0.0009
3809.00,0.0009
3808.00,0.0009
3807.00,0.0008
3806.00,0.0009
3805.00,0.0009
3804.00,0.0008
3803.00,0.0008
3802.00,0.0008
3801.00,0.0008
3800.00,0.0008
3799.00,0.0008
3798.00,0.0007
3797.00,0.0007
3796.00,0.0008
3795.00,0.0008
3794.00,0.0008
3793.00,0.0008
3792.00,0.0008
3791.00,0.0008
3790.00,0.0008
3789.00,0.0008
3788.00,0.0009
3787.00,0.0008
3786.00,0.0008
3785.00,0.0008
3784.00,0.0008
3783.00,0.0008
3782.00,0.0008
3781.00,0.0008
3780.00,0.0008
3779.00,0.0008
3778.00,0.0009
3777.00,0.0009
3776.00,0.0009
3775.00,0.0009
3774.00,0.0009
3773.00,0.0009
3772.00,0.0009
3771.00,0.0009
3770.00,0.0009
3769.00,0.0009
3768.00,0.0008
3767.00,0.0008
3766.00,0.0007
3765.00,0.0008
3764.00,0.0008
3763.00,0.0008
3762.00,0.0008
3761.00,0.0008
3760.00,0.0008
3759.00,0.0008
3758.00,0.0008
3757.00,0.0009
3756.00,0.0009
3755.00,0.0009
3754.00,0.0008
3753.00,0.0008
3752.00,0.0008
3751.00,0.0008
3750.00,0.0009
3749.00,0.0009
3748.00,0.0010
3747.00,0.0010
3746.00,0.0009
3745.00,0.0008
3744.00,0.0008
3743.00,0.0008
3742.00,0.0007
3741.00,0.0006
3740.00,0.0006
3739.00,0.0006
3738.00,0.0006
3737.00,0.0006
3736.00,0.0007
3735.00,0.0007
3734.00,0.0007
3733.00,0.0008
3732.00,0.0008
3731.00,0.0008
3730.00,0.0008
3729.00,0.0008
3728.00,0.0008
3727.00,0.0008
3726.00,0.0008
3725.00,0.0008
3724.00,0.0007
3723.00,0.0007
3722.00,0.0007
3721.00,0.0007
3720.00,0.0008
3719.00,0.0008
3718.00,0.0008
3717.00,0.0008
3716.00,0.0008
3715.00,0.0008
3714.00,0.0007
3713.00,0.0008
3712.00,0.0008
3711.00,0.0008
3710.00,0.0008
3709.00,0.0008
3708.00,0.0008
3707.00,0.0008
3706.00,0.0009
3705.00,0.0009
3704.00,0.0009
3703.00,0.0009
3702.00,0.0009
3701.00,0.0009
3700.00,0.0009
3699.00,0.0009
3698.00,0.0010
3697.00,0.0010
3696.00,0.0010
3695.00,0.0009
3694.00,0.0009
3693.00,0.0009
3692.00,0.0009
3691.00,0.0010
3690.00,0.0010
3689.00,0.0010
3688.00,0.0010
3687.00,0.0010
3686.00,0.0011
3685.00,0.0011
3684.00,0.0012
3683.00,0.0012
3682.00,0.0012
3681.00,0.0012
3680.00,0.0012
3679.00,0.0013
3678.00,0.0013
3677.00,0.0013
3676.00,0.0013
3675.00,0.0014
3674.00,0.0015
3673.00,0.0015
3672.00,0.0014
3671.00,0.0014
3670.00,0.0015
3669.00,0.0015
3668.00,0.0015
3667.00,0.0015
3666.00,0.0014
3665.00,0.0014
3664.00,0.0014
3663.00,0.0014
3662.00,0.0014
3661.00,0.0014
3660.00,0.0015
3659.00,0.0015
3658.00,0.0015
3657.00,0.0015
3656.00,0.0015
3655.00,0.0016
3654.00,0.0016
3653.00,0.0016
3652.00,0.0015
3651.00,0.0015
3650.00,0.0015
3649.00,0.0016
3648.00,0.0016
3647.00,0.0017
3646.00,0.0017
3645.00,0.0017
3644.00,0.0018
3643.00,0.0018
3642.00,0.0019
3641.00,0.0019
3640.00,0.0020
3639.00,0.0020
3638.00,0.0021
3637.00,0.0021
3636.00,0.0022
3635.00,0.0022
3634.00,0.0023
3633.00,0.0023
3632.00,0.0023
3631.00,0.0023
3630.00,0.0023
3629.00,0.0023
3628.00,0.0024
3627.00,0.0025
3626.00,0.0025
3625.00,0.0025
3624.00,0.0025
3623.00,0.0026
3622.00,0.0026
3621.00,0.0027
3620.00,0.0027
3619.00,0.0028
3618.00,0.0029
3617.00,0.0030
3616.00,0.0030
3615.00,0.0030
3614.00,0.0031
3613.00,0.0031
3612.00,0.0031
3611.00,0.0031
3610.00,0.0032
3609.00,0.0032
3608.00,0.0034
3607.00,0.0035
3606.00,0.0035
3605.00,0.0035
3604.00,0.0036
3603.00,0.0036
3602.00,0.0036
3601.00,0.0036
3600.00,0.0037
3599.00,0.0038
3598.00,0.0039
3597.00,0.0040
3596.00,0.0041
3595.00,0.0042
3594.00,0.0043
3593.00,0.0043
3592.00,0.0044
3591.00,0.0044
3590.00,0.0045
3589.00,0.0046
3588.00,0.0046
3587.00,0.0047
3586.00,0.0048
3585.00,0.0048
3584.00,0.0049
3583.00,0.0050
3582.00,0.0050
3581.00,0.0051
3580.00,0.0052
3579.00,0.0053
3578.00,0.0053
3577.00,0.0054
3576.00,0.0054
3575.00,0.0055
3574.00,0.0056
3573.00,0.0056
3572.00,0.0057
3571.00,0.0057
3570.00,0.0058
3569.00,0.0058
3568.00,0.0059
3567.00,0.0060
3566.00,0.0061
3565.00,0.0062
3564.00,0.0063
3563.00,0.0064
3562.00,0.0065
3561.00,0.0066
3560.00,0.0067
3559.00,0.0068
3558.00,0.0069
3557.00,0.0070
3556.00,0.0070
3555.00,0.0071
3554.00,0.0072
3553.00,0.0073
3552.00,0.0074
3551.00,0.0075
3550.00,0.0075
3549.00,0.0076
3548.00,0.0076
3547.00,0.0077
3546.00,0.0078
3545.00,0.0079
3544.00,0.0080
3543.00,0.0081
3542.00,0.0082
3541.00,0.0083
3540.00,0.0084
3539.00,0.0084
3538.00,0.0085
3537.00,0.0086
3536.00,0.0087
3535.00,0.0088
3534.00,0.0089
3533.00,0.0090
3532.00,0.0091
3531.00,0.0093
3530.00,0.0093
3529.00,0.0094
3528.00,0.0095
3527.00,0.0096
3526.00,0.0097
3525.00,0.0098
3524.00,0.0099
3523.00,0.0100
3522.00,0.0101
3521.00,0.0102
3520.00,0.0103
3519.00,0.0103
3518.00,0.0104
3517.00,0.0105
3516.00,0.0106
3515.00,0.0106
3514.00,0.0107
3513.00,0.0108
3512.00,0.0109
3511.00,0.0110
3510.00,0.0111
3509.00,0.0113
3508.00,0.0114
3507.00,0.0115
3506.00,0.0116
3505.00,0.0117
3504.00,0.0117
3503.00,0.0118
3502.00,0.0119
3501.00,0.0120
3500.00,0.0122
3499.00,0.0123
3498.00,0.0124
3497.00,0.0125
3496.00,0.0126
3495.00,0.0126
3494.00,0.0127
3493.00,0.0128
3492.00,0.0129
3491.00,0.0130
3490.00,0.0131
3489.00,0.0131
3488.00,0.0132
3487.00,0.0133
3486.00,0.0134
3485.00,0.0135
3484.00,0.0137
3483.00,0.0138
3482.00,0.0139
3481.00,0.0140
3480.00,0.0140
3479.00,0.0141
3478.00,0.0142
3477.00,0.0143
3476.00,0.0144
3475.00,0.0145
3474.00,0.0146
3473.00,0.0147
3472.00,0.0148
3471.00,0.0148
3470.00,0.0148
3469.00,0.0149
3468.00,0.0150
3467.00,0.0150
3466.00,0.0151
3465.00,0.0152
3464.00,0.0153
3463.00,0.0154
3462.00,0.0155
3461.00,0.0155
3460.00,0.0156
3459.00,0.0157
3458.00,0.0158
3457.00,0.0159
3456.00,0.0160
3455.00,0.0160
3454.00,0.0161
3453.00,0.0162
3452.00,0.0162
3451.00,0.0163
3450.00,0.0163
3449.00,0.0164
3448.00,0.0165
3447.00,0.0166
3446.00,0.0167
3445.00,0.0167
3444.00,0.0168
3443.00,0.0169
3442.00,0.0170
3441.00,0.0171
3440.00,0.0171
3439.00,0.0172
3438.00,0.0173
3437.00,0.0174
3436.00,0.0174
3435.00,0.0174
3434.00,0.0175
3433.00,0.0175
3432.00,0.0176
3431.00,0.0177
3430.00,0.0178
3429.00,0.0179
3428.00,0.0180
3427.00,0.0180
3426.00,0.0181
3425.00,0.0181
3424.00,0.0181
3423.00,0.0182
3422.00,0.0183
3421.00,0.0184
3420.00,0.0185
3419.00,0.0186
3418.00,0.0186
3417.00,0.0187
3416.00,0.0188
3415.00,0.0188
3414.00,0.0189
3413.00,0.0190
3412.00,0.0191
3411.00,0.0191
3410.00,0.0192
3409.00,0.0193
3408.00,0.0194
3407.00,0.0194
3406.00,0.0195
3405.00,0.0196
3404.00,0.0197
3403.00,0.0198
3402.00,0.0199
3401.00,0.0199
3400.00,0.0200
3399.00,0.0200
3398.00,0.0201
3397.00,0.0202
3396.00,0.0203
3395.00,0.0204
3394.00,0.0204
3393.00,0.0204
3392.00,0.0204
3391.00,0.0203
3390.00,0.0203
3389.00,0.0203
3388.00,0.0203
3387.00,0.0203
3386.00,0.0204
3385.00,0.0204
3384.00,0.0205
3383.00,0.0205
3382.00,0.0204
3381.00,0.0204
3380.00,0.0204
3379.00,0.0203
3378.00,0.0203
3377.00,0.0203
3376.00,0.0203
3375.00,0.0203
3374.00,0.0203
3373.00,0.0203
3372.00,0.0203
3371.00,0.0203
3370.00,0.0204
3369.00,0.0204
3368.00,0.0204
3367.00,0.0204
3366.00,0.0204
3365.00,0.0204
3364.00,0.0204
3363.00,0.0204
3362.00,0.0204
3361.00,0.0204
3360.00,0.0204
3359.00,0.0204
3358.00,0.0204
3357.00,0.0204
3356.00,0.0204
3355.00,0.0205
3354.00,0.0205
3353.00,0.0205
3352.00,0.0205
3351.00,0.0205
3350.00,0.0204
3349.00,0.0204
3348.00,0.0204
3347.00,0.0204
3346.00,0.0205
3345.00,0.0205
3344.00,0.0205
3343.00,0.0205
3342.00,0.0205
3341.00,0.0205
3340.00,0.0205
3339.00,0.0205
3338.00,0.0205
3337.00,0.0205
3336.00,0.0205
3335.00,0.0205
3334.00,0.0205
3333.00,0.0204
3332.00,0.0204
3331.00,0.0204
3330.00,0.0203
3329.00,0.0203
3328.00,0.0203
3327.00,0.0204
3326.00,0.0204
3325.00,0.0205
3324.00,0.0205
3323.00,0.0204
3322.00,0.0204
3321.00,0.0204
3320.00,0.0203
3319.00,0.0203
3318.00,0.0203
3317.00,0.0203
3316.00,0.0204
3315.00,0.0204
3314.00,0.0204
3313.00,0.0203
3312.00,0.0202
3311.00,0.0201
3310.00,0.0201
3309.00,0.0200
3308.00,0.0200
3307.00,0.0200
3306.00,0.0200
3305.00,0.0199
3304.00,0.0199
3303.00,0.0199
3302.00,0.0198
3301.00,0.0198
3300.00,0.0197
3299.00,0.0197
3298.00,0.0196
3297.00,0.0195
3296.00,0.0193
3295.00,0.0192
3294.00,0.0191
3293.00,0.0191
3292.00,0.0190
3291.00,0.0190
3290.00,0.0189
3289.00,0.0188
3288.00,0.0188
3287.00,0.0187
3286.00,0.0187
3285.00,0.0186
3284.00,0.0185
3283.00,0.0184
3282.00,0.0183
3281.00,0.0182
3280.00,0.0182
3279.00,0.0181
3278.00,0.0180
3277.00,0.0179
3276.00,0.0178
3275.00,0.0177
3274.00,0.0177
3273.00,0.0176
3272.00,0.0176
3271.00,0.0175
3270.00,0.0174
3269.00,0.0173
3268.00,0.0173
3267.00,0.0172
3266.00,0.0172
3265.00,0.0172
3264.00,0.0171
3263.00,0.0171
3262.00,0.0170
3261.00,0.0169
3260.00,0.0168
3259.00,0.0167
3258.00,0.0166
3257.00,0.0166
3256.00,0.0165
3255.00,0.0165
3254.00,0.0164
3253.00,0.0163
3252.00,0.0162
3251.00,0.0161
3250.00,0.0161
3249.00,0.0160
3248.00,0.0160
3247.00,0.0159
3246.00,0.0159
3245.00,0.0158
3244.00,0.0158
3243.00,0.0158
3242.00,0.0157
3241.00,0.0156
3240.00,0.0156
3239.00,0.0155
3238.00,0.0154
3237.00,0.0154
3236.00,0.0154
3235.00,0.0154
3234.00,0.0153
3233.00,0.0152
3232.00,0.0151
3231.00,0.0151
3230.00,0.0151
3229.00,0.0151
3228.00,0.0151
3227.00,0.0151
3226.00,0.0151
3225.00,0.0151
3224.00,0.0151
3223.00,0.0151
3222.00,0.0151
3221.00,0.0151
3220.00,0.0151
3219.00,0.0152
3218.00,0.0152
3217.00,0.0152
3216.00,0.0152
3215.00,0.0152
3214.00,0.0152
3213.00,0.0152
3212.00,0.0152
3211.00,0.0152
3210.00,0.0152
3209.00,0.0152
3208.00,0.0152
3207.00,0.0152
3206.00,0.0152
3205.00,0.0152
3204.00,0.0153
3203.00,0.0153
3202.00,0.0153
3201.00,0.0153
3200.00,0.0152
3199.00,0.0152
3198.00,0.0151
3197.00,0.0151
3196.00,0.0151
3195.00,0.0150
3194.00,0.0150
3193.00,0.0150
3192.00,0.0150
3191.00,0.0149
3190.00,0.0149
3189.00,0.0149
3188.00,0.0148
3187.00,0.0148
3186.00,0.0147
3185.00,0.0146
3184.00,0.0145
3183.00,0.0145
3182.00,0.0144
3181.00,0.0143
3180.00,0.0142
3179.00,0.0141
3178.00,0.0140
3177.00,0.0139
3176.00,0.0139
3175.00,0.0138
3174.00,0.0137
3173.00,0.0136
3172.00,0.0135
3171.00,0.0134
3170.00,0.0133
3169.00,0.0133
3168.00,0.0132
3167.00,0.0132
3166.00,0.0131
3165.00,0.0130
3164.00,0.0129
3163.00,0.0129
3162.00,0.0128
3161.00,0.0127
3160.00,0.0126
3159.00,0.0125
3158.00,0.0125
3157.00,0.0124
3156.00,0.0124
3155.00,0.0123
3154.00,0.0123
3153.00,0.0122
3152.00,0.0121
3151.00,0.0121
3150.00,0.0120
3149.00,0.0120
3148.00,0.0120
3147.00,0.0119
3146.00,0.0118
3145.00,0.0118
3144.00,0.0117
3143.00,0.0116
3142.00,0.0116
3141.00,0.0115
3140.00,0.0115
3139.00,0.0115
3138.00,0.0114
3137.00,0.0114
3136.00,0.0114
3135.00,0.0114
3134.00,0.0113
3133.00,0.0113
3132.00,0.0112
3131.00,0.0112
3130.00,0.0111
3129.00,0.0110
3128.00,0.0109
3127.00,0.0109
3126.00,0.0109
3125.00,0.0108
3124.00,0.0108
3123.00,0.0107
3122.00,0.0106
3121.00,0.0105
3120.00,0.0104
3119.00,0.0104
3118.00,0.0103
3117.00,0.0103
3116.00,0.0102
3115.00,0.0101
3114.00,0.0101
3113.00,0.0100
3112.00,0.0100
3111.00,0.0099
3110.00,0.0098
3109.00,0.0098
3108.00,0.0097
3107.00,0.0096
3106.00,0.0096
3105.00,0.0096
3104.00,0.0095
3103.00,0.0095
3102.00,0.0094
3101.00,0.0093
3100.00,0.0092
3099.00,0.0091
3098.00,0.0091
3097.00,0.0090
3096.00,0.0090
3095.00,0.0089
3094.00,0.0089
3093.00,0.0089
3092.00,0.0088
3091.00,0.0087
3090.00,0.0087
3089.00,0.0086
3088.00,0.0085
3087.00,0.0084
3086.00,0.0084
3085.00,0.0084
3084.00,0.0084
3083.00,0.0084
3082.00,0.0084
3081.00,0.0084
3080.00,0.0084
3079.00,0.0083
3078.00,0.0083
3077.00,0.0083
3076.00,0.0083
3075.00,0.0083
3074.00,0.0084
3073.00,0.0084
3072.00,0.0084
3071.00,0.0084
3070.00,0.0084
3069.00,0.0085
3068.00,0.0085
3067.00,0.0085
3066.00,0.0085
3065.00,0.0085
3064.00,0.0085
3063.00,0.0085
3062.00,0.0085
3061.00,0.0084
3060.00,0.0084
3059.00,0.0084
3058.00,0.0083
3057.00,0.0083
3056.00,0.0083
3055.00,0.0083
3054.00,0.0082
3053.00,0.0082
3052.00,0.0082
3051.00,0.0082
3050.00,0.0082
3049.00,0.0083
3048.00,0.0083
3047.00,0.0083
3046.00,0.0083
3045.00,0.0082
3044.00,0.0082
3043.00,0.0083
3042.00,0.0083
3041.00,0.0084
3040.00,0.0084
3039.00,0.0085
3038.00,0.0085
3037.00,0.0086
3036.00,0.0087
3035.00,0.0087
3034.00,0.0087
3033.00,0.0087
3032.00,0.0088
3031.00,0.0088
3030.00,0.0089
3029.00,0.0090
3028.00,0.0089
3027.00,0.0089
3026.00,0.0089
3025.00,0.0089
3024.00,0.0090
3023.00,0.0091
3022.00,0.0091
3021.00,0.0091
3020.00,0.0092
3019.00,0.0092
3018.00,0.0093
3017.00,0.0093
3016.00,0.0094
3015.00,0.0095
3014.00,0.0096
3013.00,0.0096
3012.00,0.0097
3011.00,0.0098
3010.00,0.0099
3009.00,0.0101
3008.00,0.0102
3007.00,0.0103
3006.00,0.0104
3005.00,0.0105
3004.00,0.0106
3003.00,0.0107
3002.00,0.0108
3001.00,0.0110
3000.00,0.0113
2999.00,0.0115
2998.00,0.0118
2997.00,0.0121
2996.00,0.0124
2995.00,0.0127
2994.00,0.0130
2993.00,0.0134
2992.00,0.0139
2991.00,0.0144
2990.00,0.0150
2989.00,0.0157
2988.00,0.0164
2987.00,0.0172
2986.00,0.0181
2985.00,0.0191
2984.00,0.0201
2983.00,0.0212
2982.00,0.0225
2981.00,0.0240
2980.00,0.0257
2979.00,0.0276
2978.00,0.0298
2977.00,0.0322
2976.00,0.0351
2975.00,0.0383
2974.00,0.0420
2973.00,0.0462
2972.00,0.0510
2971.00,0.0563
2970.00,0.0622
2969.00,0.0687
2968.00,0.0757
2967.00,0.0833
2966.00,0.0913
2965.00,0.0995
2964.00,0.1075
2963.00,0.1152
2962.00,0.1220
2961.00,0.1277
2960.00,0.1324
2959.00,0.1362
2958.00,0.1394
2957.00,0.1424
2956.00,0.1456
2955.00,0.1492
2954.00,0.1530
2953.00,0.1569
2952.00,0.1601
2951.00,0.1619
2950.00,0.1618
2949.00,0.1593
2948.00,0.1544
2947.00,0.1474
2946.00,0.1390
2945.00,0.1302
2944.00,0.1219
2943.00,0.1149
2942.00,0.1097
2941.00,0.1064
2940.00,0.1050
2939.00,0.1053
2938.00,0.1072
2937.00,0.1105
2936.00,0.1152
2935.00,0.1210
2934.00,0.1279
2933.00,0.1357
2932.00,0.1443
2931.00,0.1535
2930.00,0.1631
2929.00,0.1729
2928.00,0.1824
2927.00,0.1917
2926.00,0.2005
2925.00,0.2088
2924.00,0.2165
2923.00,0.2238
2922.00,0.2306
2921.00,0.2367
2920.00,0.2415
2919.00,0.2446
2918.00,0.2453
2917.00,0.2432
2916.00,0.2383
2915.00,0.2311
2914.00,0.2224
2913.00,0.2131
2912.00,0.2041
2911.00,0.1957
2910.00,0.1883
2909.00,0.1817
2908.00,0.1757
2907.00,0.1702
2906.00,0.1648
2905.00,0.1594
2904.00,0.1540
2903.00,0.1485
2902.00,0.1429
2901.00,0.1374
2900.00,0.1321
2899.00,0.1269
2898.00,0.1221
2897.00,0.1176
2896.00,0.1135
2895.00,0.1098
2894.00,0.1066
2893.00,0.1040
2892.00,0.1018
2891.00,0.1001
2890.00,0.0987
2889.00,0.0978
2888.00,0.0971
2887.00,0.0968
2886.00,0.0967
2885.00,0.0970
2884.00,0.0977
2883.00,0.0988
2882.00,0.1003
2881.00,0.1021
2880.00,0.1040
2879.00,0.1057
2878.00,0.1070
2877.00,0.1077
2876.00,0.1079
2875.00,0.1078
2874.00,0.1076
2873.00,0.1077
2872.00,0.1082
2871.00,0.1092
2870.00,0.1105
2869.00,0.1118
2868.00,0.1125
2867.00,0.1123
2866.00,0.1107
2865.00,0.1077
2864.00,0.1035
2863.00,0.0987
2862.00,0.0941
2861.00,0.0903
2860.00,0.0876
2859.00,0.0861
2858.00,0.0856
2857.00,0.0859
2856.00,0.0868
2855.00,0.0880
2854.00,0.0895
2853.00,0.0909
2852.00,0.0921
2851.00,0.0928
2850.00,0.0930
2849.00,0.0925
2848.00,0.0916
2847.00,0.0908
2846.00,0.0906
2845.00,0.0913
2844.00,0.0930
2843.00,0.0956
2842.00,0.0989
2841.00,0.1023
2840.00,0.1052
2839.00,0.1069
2838.00,0.1068
2837.00,0.1043
2836.00,0.0994
2835.00,0.0924
2834.00,0.0840
2833.00,0.0751
2832.00,0.0665
2831.00,0.0587
2830.00,0.0520
2829.00,0.0465
2828.00,0.0420
2827.00,0.0383
2826.00,0.0352
2825.00,0.0327
2824.00,0.0306
2823.00,0.0288
2822.00,0.0273
2821.00,0.0259
2820.00,0.0247
2819.00,0.0237
2818.00,0.0227
2817.00,0.0219
2816.00,0.0212
2815.00,0.0205
2814.00,0.0200
2813.00,0.0194
2812.00,0.0189
2811.00,0.0184
2810.00,0.0179
2809.00,0.0174
2808.00,0.0169
2807.00,0.0163
2806.00,0.0158
2805.00,0.0153
2804.00,0.0147
2803.00,0.0142
2802.00,0.0137
2801.00,0.0133
2800.00,0.0129
2799.00,0.0126
2798.00,0.0123
2797.00,0.0121
2796.00,0.0119
2795.00,0.0116
2794.00,0.0114
2793.00,0.0111
2792.00,0.0109
2791.00,0.0105
2790.00,0.0102
2789.00,0.0099
2788.00,0.0097
2787.00,0.0094
2786.00,0.0092
2785.00,0.0089
2784.00,0.0087
2783.00,0.0085
2782.00,0.0083
2781.00,0.0081
2780.00,0.0079
2779.00,0.0078
2778.00,0.0076
2777.00,0.0075
2776.00,0.0074
2775.00,0.0073
2774.00,0.0072
2773.00,0.0071
2772.00,0.0071
2771.00,0.0070
2770.00,0.0069
2769.00,0.0069
2768.00,0.0068
2767.00,0.0068
2766.00,0.0068
2765.00,0.0067
2764.00,0.0067
2763.00,0.0066
2762.00,0.0066
2761.00,0.0065
2760.00,0.0065
2759.00,0.0064
2758.00,0.0064
2757.00,0.0064
2756.00,0.0064
2755.00,0.0064
2754.00,0.0063
2753.00,0.0063
2752.00,0.0063
2751.00,0.0062
2750.00,0.0062
2749.00,0.0062
2748.00,0.0062
2747.00,0.0062
2746.00,0.0063
2745.00,0.0063
2744.00,0.0064
2743.00,0.0064
2742.00,0.0065
2741.00,0.0066
2740.00,0.0066
2739.00,0.0067
2738.00,0.0068
2737.00,0.0069
2736.00,0.0070
2735.00,0.0071
2734.00,0.0072
2733.00,0.0073
2732.00,0.0075
2731.00,0.0076
2730.00,0.0078
2729.00,0.0080
2728.00,0.0082
2727.00,0.0084
2726.00,0.0085
2725.00,0.0087
2724.00,0.0088
2723.00,0.0088
2722.00,0.0087
2721.00,0.0085
2720.00,0.0083
2719.00,0.0081
2718.00,0.0078
2717.00,0.0076
2716.00,0.0074
2715.00,0.0072
2714.00,0.0070
2713.00,0.0068
2712.00,0.0066
2711.00,0.0065
2710.00,0.0063
2709.00,0.0062
2708.00,0.0061
2707.00,0.0060
2706.00,0.0059
2705.00,0.0058
2704.00,0.0057
2703.00,0.0056
2702.00,0.0056
2701.00,0.0055
2700.00,0.0055
2699.00,0.0054
2698.00,0.0054
2697.00,0.0054
2696.00,0.0053
2695.00,0.0053
2694.00,0.0053
2693.00,0.0053
2692.00,0.0053
2691.00,0.0053
2690.00,0.0053
2689.00,0.0053
2688.00,0.0053
2687.00,0.0052
2686.00,0.0052
2685.00,0.0052
2684.00,0.0053
2683.00,0.0053
2682.00,0.0052
2681.00,0.0052
2680.00,0.0052
2679.00,0.0052
2678.00,0.0053
2677.00,0.0053
2676.00,0.0053
2675.00,0.0052
2674.00,0.0052
2673.00,0.0051
2672.00,0.0051
2671.00,0.0051
2670.00,0.0050
2669.00,0.0050
2668.00,0.0051
2667.00,0.0051
2666.00,0.0051
2665.00,0.0051
2664.00,0.0052
2663.00,0.0052
2662.00,0.0053
2661.00,0.0053
2660.00,0.0053
2659.00,0.0053
2658.00,0.0052
2657.00,0.0052
2656.00,0.0052
2655.00,0.0052
2654.00,0.0052
2653.00,0.0052
2652.00,0.0051
2651.00,0.0051
2650.00,0.0051
2649.00,0.0050
2648.00,0.0049
2647.00,0.0048
2646.00,0.0048
2645.00,0.0047
2644.00,0.0047
2643.00,0.0047
2642.00,0.0046
2641.00,0.0046
2640.00,0.0046
2639.00,0.0045
2638.00,0.0045
2637.00,0.0045
2636.00,0.0044
2635.00,0.0044
2634.00,0.0044
2633.00,0.0044
2632.00,0.0044
2631.00,0.0044
2630.00,0.0044
2629.00,0.0044
2628.00,0.0044
2627.00,0.0044
2626.00,0.0044
2625.00,0.0045
2624.00,0.0045
2623.00,0.0045
2622.00,0.0045
2621.00,0.0045
2620.00,0.0044
2619.00,0.0044
2618.00,0.0044
2617.00,0.0043
2616.00,0.0043
2615.00,0.0043
2614.00,0.0042
2613.00,0.0042
2612.00,0.0042
2611.00,0.0041
2610.00,0.0041
2609.00,0.0040
2608.00,0.0039
2607.00,0.0039
2606.00,0.0039
2605.00,0.0038
2604.00,0.0039
2603.00,0.0038
2602.00,0.0038
2601.00,0.0037
2600.00,0.0036
2599.00,0.0035
2598.00,0.0035
2597.00,0.0035
2596.00,0.0035
2595.00,0.0036
2594.00,0.0036
2593.00,0.0037
2592.00,0.0037
2591.00,0.0037
2590.00,0.0037
2589.00,0.0037
2588.00,0.0037
2587.00,0.0038
2586.00,0.0039
2585.00,0.0040
2584.00,0.0040
2583.00,0.0040
2582.00,0.0040
2581.00,0.0040
2580.00,0.0040
2579.00,0.0039
2578.00,0.0038
2577.00,0.0037
2576.00,0.0036
2575.00,0.0035
2574.00,0.0034
2573.00,0.0033
2572.00,0.0032
2571.00,0.0032
2570.00,0.0031
2569.00,0.0031
2568.00,0.0030
2567.00,0.0030
2566.00,0.0029
2565.00,0.0029
2564.00,0.0029
2563.00,0.0028
2562.00,0.0028
2561.00,0.0027
2560.00,0.0027
2559.00,0.0026
2558.00,0.0026
2557.00,0.0026
2556.00,0.0026
2555.00,0.0026
2554.00,0.0026
2553.00,0.0026
2552.00,0.0025
2551.00,0.0024
2550.00,0.0024
2549.00,0.0024
2548.00,0.0024
2547.00,0.0024
2546.00,0.0024
2545.00,0.0023
2544.00,0.0023
2543.00,0.0023
2542.00,0.0023
2541.00,0.0022
2540.00,0.0022
2539.00,0.0021
2538.00,0.0021
2537.00,0.0021
2536.00,0.0022
2535.00,0.0022
2534.00,0.0022
2533.00,0.0022
2532.00,0.0022
2531.00,0.0021
2530.00,0.0020
2529.00,0.0020
2528.00,0.0020
2527.00,0.0020
2526.00,0.0020
2525.00,0.0019
2524.00,0.0019
2523.00,0.0018
2522.00,0.0018
2521.00,0.0018
2520.00,0.0018
2519.00,0.0018
2518.00,0.0018
2517.00,0.0018
2516.00,0.0018
2515.00,0.0017
2514.00,0.0017
2513.00,0.0017
2512.00,0.0017
2511.00,0.0016
2510.00,0.0016
2509.00,0.0015
2508.00,0.0015
2507.00,0.0015
2506.00,0.0015
2505.00,0.0015
2504.00,0.0015
2503.00,0.0015
2502.00,0.0014
2501.00,0.0014
2500.00,0.0014
2499.00,0.0014
2498.00,0.0015
2497.00,0.0015
2496.00,0.0015
2495.00,0.0015
2494.00,0.0014
2493.00,0.0014
2492.00,0.0014
2491.00,0.0013
2490.00,0.0014
2489.00,0.0014
2488.00,0.0014
2487.00,0.0015
2486.00,0.0015
2485.00,0.0015
2484.00,0.0015
2483.00,0.0016
2482.00,0.0016
2481.00,0.0016
2480.00,0.0016
2479.00,0.0016
2478.00,0.0015
2477.00,0.0015
2476.00,0.0015
2475.00,0.0014
2474.00,0.0014
2473.00,0.0013
2472.00,0.0013
2471.00,0.0013
2470.00,0.0013
2469.00,0.0013
2468.00,0.0013
2467.00,0.0013
2466.00,0.0013
2465.00,0.0014
2464.00,0.0014
2463.00,0.0014
2462.00,0.0015
2461.00,0.0015
2460.00,0.0016
2459.00,0.0016
2458.00,0.0016
2457.00,0.0016
2456.00,0.0016
2455.00,0.0016
2454.00,0.0016
2453.00,0.0016
2452.00,0.0015
2451.00,0.0015
2450.00,0.0015
2449.00,0.0015
2448.00,0.0016
2447.00,0.0016
2446.00,0.0016
2445.00,0.0017
2444.00,0.0017
2443.00,0.0017
2442.00,0.0016
2441.00,0.0016
2440.00,0.0016
2439.00,0.0016
2438.00,0.0016
2437.00,0.0016
2436.00,0.0016
2435.00,0.0016
2434.00,0.0016
2433.00,0.0016
2432.00,0.0016
2431.00,0.0015
2430.00,0.0015
2429.00,0.0015
2428.00,0.0015
2427.00,0.0015
2426.00,0.0015
2425.00,0.0015
2424.00,0.0015
2423.00,0.0014
2422.00,0.0014
2421.00,0.0014
2420.00,0.0014
2419.00,0.0014
2418.00,0.0014
2417.00,0.0014
2416.00,0.0014
2415.00,0.0013
2414.00,0.0013
2413.00,0.0013
2412.00,0.0013
2411.00,0.0014
2410.00,0.0014
2409.00,0.0014
2408.00,0.0014
2407.00,0.0013
2406.00,0.0012
2405.00,0.0012
2404.00,0.0012
2403.00,0.0012
2402.00,0.0012
2401.00,0.0013
2400.00,0.0013
2399.00,0.0013
2398.00,0.0013
2397.00,0.0012
2396.00,0.0012
2395.00,0.0011
2394.00,0.0011
2393.00,0.0012
2392.00,0.0012
2391.00,0.0012
2390.00,0.0011
2389.00,0.0011
2388.00,0.0010
2387.00,0.0010
2386.00,0.0010
2385.00,0.0010
2384.00,0.0010
2383.00,0.0010
2382.00,0.0010
2381.00,0.0009
2380.00,0.0009
2379.00,0.0009
2378.00,0.0009
2377.00,0.0009
2376.00,0.0009
2375.00,0.0009
2374.00,0.0009
2373.00,0.0009
2372.00,0.0009
2371.00,0.0009
2370.00,0.0007
2369.00,0.0006
2368.00,0.0005
2367.00,0.0004
2366.00,0.0004
2365.00,0.0006
2364.00,0.0007
2363.00,0.0008
2362.00,0.0009
2361.00,0.0009
2360.00,0.0009
2359.00,0.0010
2358.00,0.0010
2357.00,0.0011
2356.00,0.0011
2355.00,0.0011
2354.00,0.0011
2353.00,0.0010
2352.00,0.0010
2351.00,0.0009
2350.00,0.0009
2349.00,0.0010
2348.00,0.0011
2347.00,0.0011
2346.00,0.0011
2345.00,0.0011
2344.00,0.0011
2343.00,0.0011
2342.00,0.0011
2341.00,0.0012
2340.00,0.0013
2339.00,0.0013
2338.00,0.0014
2337.00,0.0014
2336.00,0.0014
2335.00,0.0014
2334.00,0.0013
2333.00,0.0013
2332.00,0.0012
2331.00,0.0012
2330.00,0.0012
2329.00,0.0013
2328.00,0.0015
2327.00,0.0019
2326.00,0.0023
2325.00,0.0026
2324.00,0.0027
2323.00,0.0026
2322.00,0.0024
2321.00,0.0022
2320.00,0.0021
2319.00,0.0020
2318.00,0.0019
2317.00,0.0019
2316.00,0.0018
2315.00,0.0017
2314.00,0.0017
2313.00,0.0016
2312.00,0.0015
2311.00,0.0015
2310.00,0.0015
2309.00,0.0016
2308.00,0.0017
2307.00,0.0018
2306.00,0.0018
2305.00,0.0018
2304.00,0.0017
2303.00,0.0016
2302.00,0.0016
2301.00,0.0017
2300.00,0.0017
2299.00,0.0018
2298.00,0.0018
2297.00,0.0018
2296.00,0.0019
2295.00,0.0019
2294.00,0.0020
2293.00,0.0021
2292.00,0.0022
2291.00,0.0022
2290.00,0.0022
2289.00,0.0022
2288.00,0.0022
2287.00,0.0023
2286.00,0.0024
2285.00,0.0024
2284.00,0.0024
2283.00,0.0023
2282.00,0.0021
2281.00,0.0020
2280.00,0.0019
2279.00,0.0019
2278.00,0.0019
2277.00,0.0018
2276.00,0.0018
2275.00,0.0018
2274.00,0.0018
2273.00,0.0018
2272.00,0.0017
2271.00,0.0017
2270.00,0.0018
2269.00,0.0018
2268.00,0.0019
2267.00,0.0019
2266.00,0.0019
2265.00,0.0018
2264.00,0.0018
2263.00,0.0018
2262.00,0.0018
2261.00,0.0017
2260.00,0.0017
2259.00,0.0017
2258.00,0.0018
2257.00,0.0019
2256.00,0.0018
2255.00,0.0017
2254.00,0.0016
2253.00,0.0015
2252.00,0.0014
2251.00,0.0014
2250.00,0.0014
2249.00,0.0013
2248.00,0.0013
2247.00,0.0012
2246.00,0.0012
2245.00,0.0013
2244.00,0.0014
2243.00,0.0014
2242.00,0.0013
2241.00,0.0012
2240.00,0.0011
2239.00,0.0011
2238.00,0.0011
2237.00,0.0012
2236.00,0.0013
2235.00,0.0014
2234.00,0.0014
2233.00,0.0013
2232.00,0.0013
2231.00,0.0013
2230.00,0.0014
2229.00,0.0015
2228.00,0.0014
2227.00,0.0013
2226.00,0.0012
2225.00,0.0010
2224.00,0.0009
2223.00,0.0009
2222.00,0.0010
2221.00,0.0010
2220.00,0.0011
2219.00,0.0011
2218.00,0.0012
2217.00,0.0014
2216.00,0.0015
2215.00,0.0014
2214.00,0.0012
2213.00,0.0010
2212.00,0.0009
2211.00,0.0009
2210.00,0.0010
2209.00,0.0011
2208.00,0.0012
2207.00,0.0012
2206.00,0.0011
2205.00,0.0010
2204.00,0.0010
2203.00,0.0010
2202.00,0.0009
2201.00,0.0009
2200.00,0.0010
2199.00,0.0011
2198.00,0.0012
2197.00,0.0014
2196.00,0.0014
2195.00,0.0014
2194.00,0.0014
2193.00,0.0014
2192.00,0.0012
2191.00,0.0011
2190.00,0.0011
2189.00,0.0013
2188.00,0.0016
2187.00,0.0019
2186.00,0.0020
2185.00,0.0020
2184.00,0.0019
2183.00,0.0018
2182.00,0.0016
2181.00,0.0014
2180.00,0.0013
2179.00,0.0011
2178.00,0.0008
2177.00,0.0007
2176.00,0.0007
2175.00,0.0008
2174.00,0.0011
2173.00,0.0015
2172.00,0.0018
2171.00,0.0020
2170.00,0.0021
2169.00,0.0022
2168.00,0.0022
2167.00,0.0022
2166.00,0.0024
2165.00,0.0028
2164.00,0.0031
2163.00,0.0031
2162.00,0.0028
2161.00,0.0021
2160.00,0.0009
2159.00,-0.0004
2158.00,-0.0014
2157.00,-0.0018
2156.00,-0.0018
2155.00,-0.0015
2154.00,-0.0011
2153.00,-0.0007
2152.00,-0.0003
2151.00,-0.0001
2150.00,-0.0001
2149.00,-0.0002
2148.00,-0.0003
2147.00,-0.0005
2146.00,-0.0007
2145.00,-0.0008
2144.00,-0.0008
2143.00,-0.0007
2142.00,-0.0005
2141.00,-0.0003
2140.00,-0.0003
2139.00,-0.0004
2138.00,-0.0006
2137.00,-0.0006
2136.00,-0.0006
2135.00,-0.0007
2134.00,-0.0008
2133.00,-0.0009
2132.00,-0.0009
2131.00,-0.0009
2130.00,-0.0008
2129.00,-0.0006
2128.00,-0.0005
2127.00,-0.0004
2126.00,-0.0003
2125.00,-0.0003
2124.00,-0.0002
2123.00,-0.0001
2122.00,-0.0001
2121.00,0.0000
2120.00,0.0002
2119.00,0.0004
2118.00,0.0005
2117.00,0.0007
2116.00,0.0009
2115.00,0.0010
2114.00,0.0012
2113.00,0.0012
2112.00,0.0012
2111.00,0.0011
2110.00,0.0009
2109.00,0.0009
2108.00,0.0009
2107.00,0.0009
2106.00,0.0010
2105.00,0.0010
2104.00,0.0010
2103.00,0.0009
2102.00,0.0008
2101.00,0.0007
2100.00,0.0006
2099.00,0.0006
2098.00,0.0006
2097.00,0.0005
2096.00,0.0005
2095.00,0.0004
2094.00,0.0003
2093.00,0.0002
2092.00,0.0003
2091.00,0.0003
2090.00,0.0004
2089.00,0.0005
2088.00,0.0005
2087.00,0.0006
2086.00,0.0006
2085.00,0.0007
2084.00,0.0008
2083.00,0.0010
2082.00,0.0011
2081.00,0.0011
2080.00,0.0010
2079.00,0.0009
2078.00,0.0007
2077.00,0.0007
2076.00,0.0008
2075.00,0.0009
2074.00,0.0009
2073.00,0.0009
2072.00,0.0008
2071.00,0.0007
2070.00,0.0007
2069.00,0.0007
2068.00,0.0008
2067.00,0.0008
2066.00,0.0008
2065.00,0.0008
2064.00,0.0008
2063.00,0.0007
2062.00,0.0006
2061.00,0.0005
2060.00,0.0005
2059.00,0.0006
2058.00,0.0006
2057.00,0.0006
2056.00,0.0007
2055.00,0.0007
2054.00,0.0009
2053.00,0.0012
2052.00,0.0016
2051.00,0.0018
2050.00,0.0017
2049.00,0.0013
2048.00,0.0008
2047.00,0.0004
2046.00,0.0002
2045.00,0.0001
2044.00,0.0002
2043.00,0.0003
2042.00,0.0004
2041.00,0.0005
2040.00,0.0006
2039.00,0.0005
2038.00,0.0004
2037.00,0.0004
2036.00,0.0005
2035.00,0.0004
2034.00,-0.0000
2033.00,-0.0004
2032.00,-0.0007
2031.00,-0.0007
2030.00,-0.0006
2029.00,-0.0004
2028.00,-0.0002
2027.00,-0.0002
2026.00,-0.0003
2025.00,-0.0004
2024.00,-0.0004
2023.00,-0.0003
2022.00,-0.0002
2021.00,-0.0002
2020.00,-0.0001
2019.00,-0.0001
2018.00,-0.0000
2017.00,0.0001
2016.00,0.0002
2015.00,0.0001
2014.00,-0.0002
2013.00,-0.0005
2012.00,-0.0008
2011.00,-0.0009
2010.00,-0.0008
2009.00,-0.0007
2008.00,-0.0007
2007.00,-0.0010
2006.00,-0.0014
2005.00,-0.0015
2004.00,-0.0015
2003.00,-0.0015
2002.00,-0.0014
2001.00,-0.0012
2000.00,-0.0010
1999.00,-0.0007
1998.00,-0.0006
1997.00,-0.0004
1996.00,-0.0003
1995.00,-0.0003
1994.00,-0.0003
1993.00,-0.0002
1992.00,0.0000
1991.00,0.0003
1990.00,0.0005
1989.00,0.0006
1988.00,0.0004
1987.00,0.0002
1986.00,0.0001
1985.00,0.0002
1984.00,0.0006
1983.00,0.0008
1982.00,0.0010
1981.00,0.0010
1980.00,0.0008
1979.00,0.0004
1978.00,-0.0002
1977.00,-0.0006
1976.00,-0.0009
1975.00,-0.0010
1974.00,-0.0011
1973.00,-0.0010
1972.00,-0.0008
1971.00,-0.0005
1970.00,-0.0004
1969.00,-0.0003
1968.00,-0.0002
1967.00,-0.0002
1966.00,-0.0004
1965.00,-0.0007
1964.00,-0.0009
1963.00,-0.0012
1962.00,-0.0013
1961.00,-0.0013
1960.00,-0.0012
1959.00,-0.0011
1958.00,-0.0010
1957.00,-0.0008
1956.00,-0.0007
1955.00,-0.0008
1954.00,-0.0008
1953.00,-0.0008
1952.00,-0.0008
1951.00,-0.0008
1950.00,-0.0009
1949.00,-0.0010
1948.00,-0.0009
1947.00,-0.0009
1946.00,-0.0009
1945.00,-0.0010
1944.00,-0.0011
1943.00,-0.0011
1942.00,-0.0011
1941.00,-0.0011
1940.00,-0.0011
1939.00,-0.0011
1938.00,-0.0010
1937.00,-0.0008
1936.00,-0.0005
1935.00,-0.0003
1934.00,-0.0002
1933.00,-0.0002
1932.00,-0.0003
1931.00,-0.0004
1930.00,-0.0005
1929.00,-0.0005
1928.00,-0.0004
1927.00,-0.0004
1926.00,-0.0004
1925.00,-0.0004
1924.00,-0.0002
1923.00,-0.0001
1922.00,0.0001
1921.00,0.0001
1920.00,0.0001
1919.00,0.0000
1918.00,-0.0001
1917.00,-0.0001
1916.00,-0.0000
1915.00,0.0000
1914.00,0.0001
1913.00,0.0003
1912.00,0.0004
1911.00,0.0004
1910.00,0.0003
1909.00,0.0003
1908.00,0.0003
1907.00,0.0004
1906.00,0.0005
1905.00,0.0006
1904.00,0.0006
1903.00,0.0005
1902.00,0.0003
1901.00,0.0002
1900.00,0.0001
1899.00,0.0001
1898.00,0.0001
1897.00,0.0002
1896.00,0.0003
1895.00,0.0003
1894.00,0.0002
1893.00,0.0002
1892.00,0.0002
1891.00,0.0003
1890.00,0.0003
1889.00,0.0004
1888.00,0.0003
1887.00,0.0003
1886.00,0.0002
1885.00,0.0002
1884.00,0.0002
1883.00,0.0003
1882.00,0.0003
1881.00,0.0003
1880.00,0.0004
1879.00,0.0003
1878.00,0.0002
1877.00,0.0002
1876.00,0.0002
1875.00,0.0002
1874.00,0.0002
1873.00,0.0002
1872.00,0.0003
1871.00,0.0003
1870.00,0.0003
1869.00,0.0004
1868.00,0.0005
1867.00,0.0005
1866.00,0.0005
1865.00,0.0005
1864.00,0.0005
1863.00,0.0005
1862.00,0.0005
1861.00,0.0005
1860.00,0.0005
1859.00,0.0005
1858.00,0.0005
1857.00,0.0005
1856.00,0.0005
1855.00,0.0005
1854.00,0.0005
1853.00,0.0005
1852.00,0.0006
1851.00,0.0006
1850.00,0.0007
1849.00,0.0007
1848.00,0.0007
1847.00,0.0007
1846.00,0.0006
1845.00,0.0006
1844.00,0.0006
1843.00,0.0006
1842.00,0.0006
1841.00,0.0006
1840.00,0.0007
1839.00,0.0008
1838.00,0.0008
1837.00,0.0008
1836.00,0.0007
1835.00,0.0007
1834.00,0.0007
1833.00,0.0007
1832.00,0.0007
1831.00,0.0007
1830.00,0.0008
1829.00,0.0008
1828.00,0.0009
1827.00,0.0009
1826.00,0.0010
1825.00,0.0010
1824.00,0.0010
1823.00,0.0009
1822.00,0.0009
1821.00,0.0008
1820.00,0.0008
1819.00,0.0007
1818.00,0.0006
1817.00,0.0005
1816.00,0.0006
1815.00,0.0006
1814.00,0.0007
1813.00,0.0008
1812.00,0.0009
1811.00,0.0010
1810.00,0.0010
1809.00,0.0010
1808.00,0.0010
1807.00,0.0010
1806.00,0.0010
1805.00,0.0010
1804.00,0.0011
1803.00,0.0012
1802.00,0.0013
1801.00,0.0013
1800.00,0.0013
1799.00,0.0013
1798.00,0.0013
1797.00,0.0014
1796.00,0.0014
1795.00,0.0013
1794.00,0.0013
1793.00,0.0013
1792.00,0.0013
1791.00,0.0014
1790.00,0.0014
1789.00,0.0014
1788.00,0.0014
1787.00,0.0014
1786.00,0.0014
1785.00,0.0015
1784.00,0.0015
1783.00,0.0016
1782.00,0.0017
1781.00,0.0017
1780.00,0.0017
1779.00,0.0017
1778.00,0.0016
1777.00,0.0016
1776.00,0.0016
1775.00,0.0015
1774.00,0.0015
1773.00,0.0015
1772.00,0.0016
1771.00,0.0016
1770.00,0.0017
1769.00,0.0018
1768.00,0.0019
1767.00,0.0019
1766.00,0.0019
1765.00,0.0019
1764.00,0.0019
1763.00,0.0020
1762.00,0.0021
1761.00,0.0021
1760.00,0.0022
1759.00,0.0022
1758.00,0.0023
1757.00,0.0024
1756.00,0.0025
1755.00,0.0025
1754.00,0.0025
1753.00,0.0026
1752.00,0.0026
1751.00,0.0027
1750.00,0.0028
1749.00,0.0029
1748.00,0.0031
1747.00,0.0032
1746.00,0.0033
1745.00,0.0035
1744.00,0.0037
1743.00,0.0038
1742.00,0.0039
1741.00,0.0039
1740.00,0.0040
1739.00,0.0041
1738.00,0.0042
1737.00,0.0044
1736.00,0.0045
1735.00,0.0046
1734.00,0.0045
1733.00,0.0045
1732.00,0.0045
1731.00,0.0045
1730.00,0.0045
1729.00,0.0046
1728.00,0.0045
1727.00,0.0045
1726.00,0.0045
1725.00,0.0045
1724.00,0.0045
1723.00,0.0045
1722.00,0.0045
1721.00,0.0045
1720.00,0.0045
1719.00,0.0044
1718.00,0.0044
1717.00,0.0044
1716.00,0.0045
1715.00,0.0046
1714.00,0.0046
1713.00,0.0046
1712.00,0.0047
1711.00,0.0047
1710.00,0.0047
1709.00,0.0048
1708.00,0.0048
1707.00,0.0048
1706.00,0.0049
1705.00,0.0051
1704.00,0.0053
1703.00,0.0055
1702.00,0.0056
1701.00,0.0057
1700.00,0.0059
1699.00,0.0060
1698.00,0.0061
1697.00,0.0064
1696.00,0.0068
1695.00,0.0071
1694.00,0.0072
1693.00,0.0074
1692.00,0.0077
1691.00,0.0081
1690.00,0.0084
1689.00,0.0088
1688.00,0.0092
1687.00,0.0096
1686.00,0.0099
1685.00,0.0104
1684.00,0.0111
1683.00,0.0117
1682.00,0.0122
1681.00,0.0127
1680.00,0.0132
1679.00,0.0136
1678.00,0.0140
1677.00,0.0143
1676.00,0.0148
1675.00,0.0153
1674.00,0.0156
1673.00,0.0159
1672.00,0.0162
1671.00,0.0165
1670.00,0.0169
1669.00,0.0174
1668.00,0.0177
1667.00,0.0179
1666.00,0.0181
1665.00,0.0183
1664.00,0.0186
1663.00,0.0188
1662.00,0.0191
1661.00,0.0193
1660.00,0.0195
1659.00,0.0197
1658.00,0.0200
1657.00,0.0202
1656.00,0.0205
1655.00,0.0206
1654.00,0.0208
1653.00,0.0213
1652.00,0.0217
1651.00,0.0219
1650.00,0.0222
1649.00,0.0226
1648.00,0.0231
1647.00,0.0237
1646.00,0.0241
1645.00,0.0243
1644.00,0.0243
1643.00,0.0242
1642.00,0.0241
1641.00,0.0240
1640.00,0.0239
1639.00,0.0238
1638.00,0.0237
1637.00,0.0236
1636.00,0.0233
1635.00,0.0231
1634.00,0.0229
1633.00,0.0227
1632.00,0.0226
1631.00,0.0225
1630.00,0.0223
1629.00,0.0220
1628.00,0.0218
1627.00,0.0215
1626.00,0.0213
1625.00,0.0211
1624.00,0.0208
1623.00,0.0205
1622.00,0.0203
1621.00,0.0201
1620.00,0.0200
1619.00,0.0199
1618.00,0.0197
1617.00,0.0195
1616.00,0.0193
1615.00,0.0193
1614.00,0.0193
1613.00,0.0193
1612.00,0.0193
1611.00,0.0193
1610.00,0.0193
1609.00,0.0193
1608.00,0.0194
1607.00,0.0194
1606.00,0.0194
1605.00,0.0194
1604.00,0.0194
1603.00,0.0193
1602.00,0.0192
1601.00,0.0190
1600.00,0.0189
1599.00,0.0187
1598.00,0.0185
1597.00,0.0184
1596.00,0.0183
1595.00,0.0182
1594.00,0.0180
1593.00,0.0180
1592.00,0.0179
1591.00,0.0179
1590.00,0.0180
1589.00,0.0181
1588.00,0.0182
1587.00,0.0184
1586.00,0.0187
1585.00,0.0191
1584.00,0.0195
1583.00,0.0199
1582.00,0.0203
1581.00,0.0206
1580.00,0.0209
1579.00,0.0211
1578.00,0.0212
1577.00,0.0211
1576.00,0.0208
1575.00,0.0205
1574.00,0.0202
1573.00,0.0200
1572.00,0.0199
1571.00,0.0196
1570.00,0.0193
1569.00,0.0190
1568.00,0.0188
1567.00,0.0187
1566.00,0.0187
1565.00,0.0188
1564.00,0.0188
1563.00,0.0189
1562.00,0.0190
1561.00,0.0192
1560.00,0.0193
1559.00,0.0194
1558.00,0.0195
1557.00,0.0196
1556.00,0.0198
1555.00,0.0201
1554.00,0.0205
1553.00,0.0209
1552.00,0.0213
1551.00,0.0218
1550.00,0.0223
1549.00,0.0227
1548.00,0.0232
1547.00,0.0236
1546.00,0.0242
1545.00,0.0250
1544.00,0.0257
1543.00,0.0264
1542.00,0.0268
1541.00,0.0272
1540.00,0.0273
1539.00,0.0270
1538.00,0.0264
1537.00,0.0260
1536.00,0.0255
1535.00,0.0249
1534.00,0.0239
1533.00,0.0228
1532.00,0.0219
1531.00,0.0211
1530.00,0.0203
1529.00,0.0196
1528.00,0.0189
1527.00,0.0181
1526.00,0.0173
1525.00,0.0167
1524.00,0.0163
1523.00,0.0159
1522.00,0.0153
1521.00,0.0149
1520.00,0.0145
1519.00,0.0142
1518.00,0.0140
1517.00,0.0138
1516.00,0.0136
1515.00,0.0134
1514.00,0.0133
1513.00,0.0132
1512.00,0.0132
1511.00,0.0131
1510.00,0.0131
1509.00,0.0131
1508.00,0.0131
1507.00,0.0131
1506.00,0.0132
1505.00,0.0132
1504.00,0.0133
1503.00,0.0136
1502.00,0.0141
1501.00,0.0147
1500.00,0.0156
1499.00,0.0166
1498.00,0.0178
1497.00,0.0192
1496.00,0.0207
1495.00,0.0217
1494.00,0.0224
1493.00,0.0229
1492.00,0.0233
1491.00,0.0236
1490.00,0.0237
1489.00,0.0241
1488.00,0.0244
1487.00,0.0247
1486.00,0.0251
1485.00,0.0256
1484.00,0.0262
1483.00,0.0269
1482.00,0.0278
1481.00,0.0290
1480.00,0.0302
1479.00,0.0315
1478.00,0.0330
1477.00,0.0350
1476.00,0.0374
1475.00,0.0402
1474.00,0.0439
1473.00,0.0494
1472.00,0.0558
1471.00,0.0618
1470.00,0.0675
1469.00,0.0734
1468.00,0.0796
1467.00,0.0862
1466.00,0.0935
1465.00,0.1014
1464.00,0.1083
1463.00,0.1131
1462.00,0.1162
1461.00,0.1183
1460.00,0.1199
1459.00,0.1210
1458.00,0.1220
1457.00,0.1228
1456.00,0.1228
1455.00,0.1219
1454.00,0.1206
1453.00,0.1188
1452.00,0.1160
1451.00,0.1123
1450.00,0.1074
1449.00,0.1009
1448.00,0.0929
1447.00,0.0845
1446.00,0.0770
1445.00,0.0706
1444.00,0.0651
1443.00,0.0606
1442.00,0.0572
1441.00,0.0548
1440.00,0.0533
1439.00,0.0526
1438.00,0.0525
1437.00,0.0523
1436.00,0.0510
1435.00,0.0485
1434.00,0.0452
1433.00,0.0413
1432.00,0.0372
1431.00,0.0336
1430.00,0.0307
1429.00,0.0286
1428.00,0.0272
1427.00,0.0263
1426.00,0.0259
1425.00,0.0256
1424.00,0.0253
1423.00,0.0253
1422.00,0.0253
1421.00,0.0253
1420.00,0.0251
1419.00,0.0249
1418.00,0.0246
1417.00,0.0241
1416.00,0.0235
1415.00,0.0230
1414.00,0.0225
1413.00,0.0219
1412.00,0.0214
1411.00,0.0209
1410.00,0.0206
1409.00,0.0202
1408.00,0.0199
1407.00,0.0196
1406.00,0.0195
1405.00,0.0194
1404.00,0.0192
1403.00,0.0192
1402.00,0.0192
1401.00,0.0193
1400.00,0.0193
1399.00,0.0194
1398.00,0.0195
1397.00,0.0196
1396.00,0.0197
1395.00,0.0200
1394.00,0.0203
1393.00,0.0205
1392.00,0.0209
1391.00,0.0215
1390.00,0.0224
1389.00,0.0237
1388.00,0.0257
1387.00,0.0287
1386.00,0.0326
1385.00,0.0379
1384.00,0.0451
1383.00,0.0553
1382.00,0.0692
1381.00,0.0870
1380.00,0.1087
1379.00,0.1326
1378.00,0.1543
1377.00,0.1688
1376.00,0.1716
1375.00,0.1610
1374.00,0.1402
1373.00,0.1164
1372.00,0.0955
1371.00,0.0786
1370.00,0.0652
1369.00,0.0551
1368.00,0.0480
1367.00,0.0436
1366.00,0.0411
1365.00,0.0401
1364.00,0.0402
1363.00,0.0413
1362.00,0.0429
1361.00,0.0446
1360.00,0.0459
1359.00,0.0463
1358.00,0.0455
1357.00,0.0435
1356.00,0.0407
1355.00,0.0374
1354.00,0.0342
1353.00,0.0314
1352.00,0.0292
1351.00,0.0274
1350.00,0.0260
1349.00,0.0248
1348.00,0.0237
1347.00,0.0228
1346.00,0.0221
1345.00,0.0214
1344.00,0.0208
1343.00,0.0202
1342.00,0.0196
1341.00,0.0191
1340.00,0.0187
1339.00,0.0183
1338.00,0.0180
1337.00,0.0178
1336.00,0.0177
1335.00,0.0177
1334.00,0.0179
1333.00,0.0181
1332.00,0.0184
1331.00,0.0187
1330.00,0.0187
1329.00,0.0186
1328.00,0.0182
1327.00,0.0178
1326.00,0.0173
1325.00,0.0168
1324.00,0.0163
1323.00,0.0160
1322.00,0.0157
1321.00,0.0154
1320.00,0.0153
1319.00,0.0152
1318.00,0.0151
1317.00,0.0149
1316.00,0.0147
1315.00,0.0146
1314.00,0.0146
1313.00,0.0146
1312.00,0.0147
1311.00,0.0149
1310.00,0.0152
1309.00,0.0158
1308.00,0.0167
1307.00,0.0178
1306.00,0.0189
1305.00,0.0199
1304.00,0.0203
1303.00,0.0201
1302.00,0.0197
1301.00,0.0193
1300.00,0.0190
1299.00,0.0188
1298.00,0.0188
1297.00,0.0188
1296.00,0.0187
1295.00,0.0185
1294.00,0.0182
1293.00,0.0179
1292.00,0.0175
1291.00,0.0171
1290.00,0.0167
1289.00,0.0162
1288.00,0.0159
1287.00,0.0155
1286.00,0.0152
1285.00,0.0149
1284.00,0.0146
1283.00,0.0144
1282.00,0.0142
1281.00,0.0140
1280.00,0.0138
1279.00,0.0137
1278.00,0.0136
1277.00,0.0135
1276.00,0.0134
1275.00,0.0134
1274.00,0.0133
1273.00,0.0133
1272.00,0.0134
1271.00,0.0135
1270.00,0.0136
1269.00,0.0138
1268.00,0.0141
1267.00,0.0144
1266.00,0.0148
1265.00,0.0152
1264.00,0.0157
1263.00,0.0161
1262.00,0.0166
1261.00,0.0171
1260.00,0.0177
1259.00,0.0184
1258.00,0.0191
1257.00,0.0196
1256.00,0.0198
1255.00,0.0196
1254.00,0.0190
1253.00,0.0182
1252.00,0.0174
1251.00,0.0167
1250.00,0.0161
1249.00,0.0157
1248.00,0.0154
1247.00,0.0151
1246.00,0.0149
1245.00,0.0147
1244.00,0.0145
1243.00,0.0144
1242.00,0.0143
1241.00,0.0142
1240.00,0.0141
1239.00,0.0140
1238.00,0.0139
1237.00,0.0138
1236.00,0.0137
1235.00,0.0136
1234.00,0.0135
1233.00,0.0135
1232.00,0.0135
1231.00,0.0136
1230.00,0.0137
1229.00,0.0138
1228.00,0.0140
1227.00,0.0142
1226.00,0.0144
1225.00,0.0147
1224.00,0.0152
1223.00,0.0156
1222.00,0.0161
1221.00,0.0164
1220.00,0.0166
1219.00,0.0167
1218.00,0.0166
1217.00,0.0164
1216.00,0.0160
1215.00,0.0156
1214.00,0.0151
1213.00,0.0147
1212.00,0.0143
1211.00,0.0140
1210.00,0.0138
1209.00,0.0136
1208.00,0.0135
1207.00,0.0134
1206.00,0.0133
1205.00,0.0133
1204.00,0.0133
1203.00,0.0133
1202.00,0.0134
1201.00,0.0135
1200.00,0.0135
1199.00,0.0136
1198.00,0.0136
1197.00,0.0136
1196.00,0.0136
1195.00,0.0136
1194.00,0.0136
1193.00,0.0136
1192.00,0.0135
1191.00,0.0135
1190.00,0.0135
1189.00,0.0136
1188.00,0.0136
1187.00,0.0136
1186.00,0.0136
1185.00,0.0136
1184.00,0.0136
1183.00,0.0137
1182.00,0.0139
1181.00,0.0142
1180.00,0.0146
1179.00,0.0151
1178.00,0.0157
1177.00,0.0166
1176.00,0.0178
1175.00,0.0194
1174.00,0.0215
1173.00,0.0240
1172.00,0.0271
1171.00,0.0303
1170.00,0.0334
1169.00,0.0357
1168.00,0.0370
1167.00,0.0371
1166.00,0.0363
1165.00,0.0349
1164.00,0.0334
1163.00,0.0320
1162.00,0.0308
1161.00,0.0299
1160.00,0.0292
1159.00,0.0288
1158.00,0.0284
1157.00,0.0281
1156.00,0.0280
1155.00,0.0279
1154.00,0.0279
1153.00,0.0278
1152.00,0.0276
1151.00,0.0271
1150.00,0.0265
1149.00,0.0258
1148.00,0.0251
1147.00,0.0244
1146.00,0.0237
1145.00,0.0231
1144.00,0.0225
1143.00,0.0219
1142.00,0.0214
1141.00,0.0209
1140.00,0.0204
1139.00,0.0199
1138.00,0.0196
1137.00,0.0193
1136.00,0.0191
1135.00,0.0190
1134.00,0.0190
1133.00,0.0190
1132.00,0.0190
1131.00,0.0191
1130.00,0.0193
1129.00,0.0195
1128.00,0.0197
1127.00,0.0201
1126.00,0.0205
1125.00,0.0208
1124.00,0.0211
1123.00,0.0214
1122.00,0.0217
1121.00,0.0220
1120.00,0.0222
1119.00,0.0224
1118.00,0.0226
1117.00,0.0228
1116.00,0.0229
1115.00,0.0230
1114.00,0.0230
1113.00,0.0230
1112.00,0.0231
1111.00,0.0232
1110.00,0.0234
1109.00,0.0236
1108.00,0.0239
1107.00,0.0243
1106.00,0.0247
1105.00,0.0252
1104.00,0.0256
1103.00,0.0258
1102.00,0.0257
1101.00,0.0254
1100.00,0.0249
1099.00,0.0245
1098.00,0.0240
1097.00,0.0237
1096.00,0.0234
1095.00,0.0231
1094.00,0.0228
1093.00,0.0225
1092.00,0.0221
1091.00,0.0217
1090.00,0.0213
1089.00,0.0210
1088.00,0.0208
1087.00,0.0206
1086.00,0.0204
1085.00,0.0202
1084.00,0.0200
1083.00,0.0197
1082.00,0.0194
1081.00,0.0191
1080.00,0.0188
1079.00,0.0186
1078.00,0.0184
1077.00,0.0182
1076.00,0.0180
1075.00,0.0178
1074.00,0.0176
1073.00,0.0174
1072.00,0.0172
1071.00,0.0170
1070.00,0.0169
1069.00,0.0167
1068.00,0.0166
1067.00,0.0165
1066.00,0.0164
1065.00,0.0163
1064.00,0.0163
1063.00,0.0162
1062.00,0.0161
1061.00,0.0160
1060.00,0.0159
1059.00,0.0158
1058.00,0.0157
1057.00,0.0156
1056.00,0.0156
1055.00,0.0158
1054.00,0.0159
1053.00,0.0161
1052.00,0.0162
1051.00,0.0164
1050.00,0.0165
1049.00,0.0168
1048.00,0.0171
1047.00,0.0175
1046.00,0.0179
1045.00,0.0181
1044.00,0.0181
1043.00,0.0180
1042.00,0.0177
1041.00,0.0175
1040.00,0.0174
1039.00,0.0174
1038.00,0.0176
1037.00,0.0177
1036.00,0.0178
1035.00,0.0178
1034.00,0.0177
1033.00,0.0175
1032.00,0.0172
1031.00,0.0168
1030.00,0.0164
1029.00,0.0160
1028.00,0.0158
1027.00,0.0157
1026.00,0.0157
1025.00,0.0156
1024.00,0.0156
1023.00,0.0156
1022.00,0.0155
1021.00,0.0155
1020.00,0.0155
1019.00,0.0155
1018.00,0.0156
1017.00,0.0158
1016.00,0.0160
1015.00,0.0162
1014.00,0.0165
1013.00,0.0167
1012.00,0.0170
1011.00,0.0172
1010.00,0.0173
1009.00,0.0173
1008.00,0.0175
1007.00,0.0180
1006.00,0.0188
1005.00,0.0199
1004.00,0.0215
1003.00,0.0237
1002.00,0.0268
1001.00,0.0305
1000.00,0.0345
999.00,0.0377
998.00,0.0392
997.00,0.0384
996.00,0.0355
995.00,0.0315
994.00,0.0274
993.00,0.0239
992.00,0.0212
991.00,0.0192
990.00,0.0178
989.00,0.0168
988.00,0.0161
987.00,0.0157
986.00,0.0155
985.00,0.0156
984.00,0.0159
983.00,0.0165
982.00,0.0176
981.00,0.0192
980.00,0.0215
979.00,0.0245
978.00,0.0283
977.00,0.0327
976.00,0.0374
975.00,0.0417
974.00,0.0446
973.00,0.0453
972.00,0.0434
971.00,0.0394
970.00,0.0342
969.00,0.0292
968.00,0.0249
967.00,0.0216
966.00,0.0192
965.00,0.0175
964.00,0.0163
963.00,0.0154
962.00,0.0146
961.00,0.0140
960.00,0.0136
959.00,0.0132
958.00,0.0129
957.00,0.0127
956.00,0.0125
955.00,0.0123
954.00,0.0121
953.00,0.0119
952.00,0.0118
951.00,0.0118
950.00,0.0117
949.00,0.0116
948.00,0.0116
947.00,0.0116
946.00,0.0117
945.00,0.0119
944.00,0.0123
943.00,0.0126
942.00,0.0130
941.00,0.0131
940.00,0.0131
939.00,0.0129
938.00,0.0125
937.00,0.0122
936.00,0.0118
935.00,0.0114
934.00,0.0110
933.00,0.0108
932.00,0.0107
931.00,0.0106
930.00,0.0105
929.00,0.0104
928.00,0.0103
927.00,0.0102
926.00,0.0101
925.00,0.0100
924.00,0.0100
923.00,0.0101
922.00,0.0101
921.00,0.0101
920.00,0.0100
919.00,0.0100
918.00,0.0100
917.00,0.0100
916.00,0.0101
915.00,0.0103
914.00,0.0104
913.00,0.0106
912.00,0.0108
911.00,0.0110
910.00,0.0112
909.00,0.0114
908.00,0.0117
907.00,0.0122
906.00,0.0129
905.00,0.0139
904.00,0.0151
903.00,0.0166
902.00,0.0183
901.00,0.0198
900.00,0.0207
899.00,0.0209
898.00,0.0202
897.00,0.0188
896.00,0.0172
895.00,0.0157
894.00,0.0145
893.00,0.0136
892.00,0.0129
891.00,0.0125
890.00,0.0122
889.00,0.0120
888.00,0.0118
887.00,0.0117
886.00,0.0118
885.00,0.0118
884.00,0.0119
883.00,0.0119
882.00,0.0121
881.00,0.0123
880.00,0.0126
879.00,0.0129
878.00,0.0131
877.00,0.0133
876.00,0.0134
875.00,0.0134
874.00,0.0132
873.00,0.0129
872.00,0.0127
871.00,0.0125
870.00,0.0123
869.00,0.0122
868.00,0.0120
867.00,0.0119
866.00,0.0118
865.00,0.0117
864.00,0.0117
863.00,0.0116
862.00,0.0117
861.00,0.0118
860.00,0.0119
859.00,0.0120
858.00,0.0122
857.00,0.0122
856.00,0.0124
855.00,0.0126
854.00,0.0128
853.00,0.0131
852.00,0.0135
851.00,0.0139
850.00,0.0145
849.00,0.0152
848.00,0.0163
847.00,0.0178
846.00,0.0200
845.00,0.0236
844.00,0.0284
843.00,0.0337
842.00,0.0375
841.00,0.0381
840.00,0.0352
839.00,0.0302
838.00,0.0252
837.00,0.0213
836.00,0.0188
835.00,0.0172
834.00,0.0163
833.00,0.0158
832.00,0.0155
831.00,0.0154
830.00,0.0154
829.00,0.0154
828.00,0.0152
827.00,0.0149
826.00,0.0147
825.00,0.0146
824.00,0.0144
823.00,0.0144
822.00,0.0144
821.00,0.0145
820.00,0.0147
819.00,0.0148
818.00,0.0151
817.00,0.0156
816.00,0.0164
815.00,0.0175
814.00,0.0188
813.00,0.0203
812.00,0.0219
811.00,0.0235
810.00,0.0247
809.00,0.0252
808.00,0.0250
807.00,0.0240
806.00,0.0226
805.00,0.0210
804.00,0.0195
803.00,0.0183
802.00,0.0173
801.00,0.0166
800.00,0.0160
799.00,0.0155
798.00,0.0150
797.00,0.0146
796.00,0.0143
795.00,0.0141
794.00,0.0139
793.00,0.0138
792.00,0.0136
791.00,0.0134
790.00,0.0131
789.00,0.0128
788.00,0.0125
787.00,0.0122
786.00,0.0120
785.00,0.0118
784.00,0.0117
783.00,0.0116
782.00,0.0115
781.00,0.0115
780.00,0.0115
779.00,0.0116
778.00,0.0116
777.00,0.0115
776.00,0.0114
775.00,0.0113
774.00,0.0112
773.00,0.0112
772.00,0.0113
771.00,0.0113
770.00,0.0113
769.00,0.0114
768.00,0.0116
767.00,0.0116
766.00,0.0116
765.00,0.0115
764.00,0.0115
763.00,0.0115
762.00,0.0116
761.00,0.0117
760.00,0.0118
759.00,0.0118
758.00,0.0118
757.00,0.0118
756.00,0.0119
755.00,0.0120
754.00,0.0123
753.00,0.0126
752.00,0.0128
751.00,0.0130
750.00,0.0132
749.00,0.0133
748.00,0.0134
747.00,0.0136
746.00,0.0140
745.00,0.0143
744.00,0.0147
743.00,0.0150
742.00,0.0153
741.00,0.0156
740.00,0.0160
739.00,0.0165
738.00,0.0172
737.00,0.0179
736.00,0.0185
735.00,0.0191
734.00,0.0197
733.00,0.0203
732.00,0.0211
731.00,0.0220
730.00,0.0228
729.00,0.0232
728.00,0.0233
727.00,0.0232
726.00,0.0230
725.00,0.0231
724.00,0.0235
723.00,0.0241
722.00,0.0246
721.00,0.0249
720.00,0.0245
719.00,0.0234
718.00,0.0220
717.00,0.0206
716.00,0.0195
715.00,0.0186
714.00,0.0181
713.00,0.0177
712.00,0.0174
711.00,0.0173
710.00,0.0173
709.00,0.0175
708.00,0.0177
707.00,0.0178
706.00,0.0179
705.00,0.0179
704.00,0.0177
703.00,0.0173
702.00,0.0168
701.00,0.0161
700.00,0.0153
699.00,0.0146
698.00,0.0139
697.00,0.0135
696.00,0.0133
695.00,0.0132
694.00,0.0132
693.00,0.0132
692.00,0.0131
691.00,0.0131
690.00,0.0132
689.00,0.0131
688.00,0.0130
687.00,0.0129
686.00,0.0128
685.00,0.0128
684.00,0.0129
683.00,0.0131
682.00,0.0132
681.00,0.0133
680.00,0.0133
679.00,0.0132
678.00,0.0133
677.00,0.0134
676.00,0.0135
675.00,0.0136
674.00,0.0136
673.00,0.0135
672.00,0.0136
671.00,0.0137
670.00,0.0138
669.00,0.0138
668.00,0.0138
667.00,0.0138
666.00,0.0138
665.00,0.0137
664.00,0.0137
663.00,0.0137
662.00,0.0136
661.00,0.0136
660.00,0.0135
659.00,0.0134
658.00,0.0133
657.00,0.0134
656.00,0.0135
655.00,0.0136
654.00,0.0136
653.00,0.0135
652.00,0.0134
651.00,0.0134
650.00,0.0135
649.00,0.0136
648.00,0.0137
647.00,0.0138
646.00,0.0140
645.00,0.0141
644.00,0.0141
643.00,0.0140
642.00,0.0139
641.00,0.0139
640.00,0.0140
639.00,0.0142
638.00,0.0143
637.00,0.0143
636.00,0.0141
635.00,0.0139
634.00,0.0138
633.00,0.0139
632.00,0.0141
631.00,0.0143
630.00,0.0145
629.00,0.0146
628.00,0.0146
627.00,0.0145
626.00,0.0145
625.00,0.0145
624.00,0.0145
623.00,0.0146
622.00,0.0147
621.00,0.0147
620.00,0.0146
619.00,0.0145
618.00,0.0143
617.00,0.0143
616.00,0.0144
615.00,0.0146
614.00,0.0147
613.00,0.0147
612.00,0.0147
611.00,0.0148
610.00,0.0149
609.00,0.0149
608.00,0.0148
607.00,0.0147
606.00,0.0146
605.00,0.0145
604.00,0.0143
603.00,0.0141
602.00,0.0139
601.00,0.0139
600.00,0.0141
599.00,0.0142
598.00,0.0142
597.00,0.0143
596.00,0.0145
595.00,0.0147
594.00,0.0150
593.00,0.0150
592.00,0.0147
591.00,0.0143
590.00,0.0140
589.00,0.0140
588.00,0.0141
587.00,0.0142
586.00,0.0144
585.00,0.0145
584.00,0.0146
583.00,0.0146
582.00,0.0147
581.00,0.0149
580.00,0.0152
579.00,0.0154
578.00,0.0153
577.00,0.0149
576.00,0.0143
575.00,0.0140
574.00,0.0140
573.00,0.0142
572.00,0.0145
571.00,0.0147
570.00,0.0148
569.00,0.0149
568.00,0.0150
567.00,0.0152
566.00,0.0153
565.00,0.0154
564.00,0.0153
563.00,0.0150
562.00,0.0146
561.00,0.0143
560.00,0.0141
559.00,0.0140
558.00,0.0140
557.00,0.0139
556.00,0.0137
555.00,0.0135
554.00,0.0136
553.00,0.0139
552.00,0.0143
551.00,0.0147
550.00,0.0148
549.00,0.0148
548.00,0.0144
547.00,0.0139
546.00,0.0136
545.00,0.0136
544.00,0.0136
543.00,0.0135
542.00,0.0132
541.00,0.0131
540.00,0.0134
539.00,0.0139
538.00,0.0142
537.00,0.0144
536.00,0.0146
535.00,0.0148
534.00,0.0152
533.00,0.0157
532.00,0.0162
531.00,0.0164
530.00,0.0162
529.00,0.0156
528.00,0.0149
527.00,0.0142
526.00,0.0138
525.00,0.0138
524.00,0.0140
523.00,0.0143
522.00,0.0144
521.00,0.0142
520.00,0.0139
519.00,0.0137
518.00,0.0137
517.00,0.0140
516.00,0.0144
515.00,0.0147
514.00,0.0148
513.00,0.0148
512.00,0.0148
511.00,0.0148
510.00,0.0147
509.00,0.0142
508.00,0.0134
507.00,0.0128
506.00,0.0127
505.00,0.0132
504.00,0.0137
503.00,0.0139
502.00,0.0138
501.00,0.0135
500.00,0.0134
499.00,0.0132
498.00,0.0130
497.00,0.0128
496.00,0.0127
495.00,0.0124
494.00,0.0119
493.00,0.0115
492.00,0.0113
491.00,0.0114
490.00,0.0116
489.00,0.0118
488.00,0.0122
487.00,0.0127
486.00,0.0130
485.00,0.0131
484.00,0.0132
483.00,0.0136
482.00,0.0141
481.00,0.0143
480.00,0.0142
479.00,0.0142
478.00,0.0144
477.00,0.0144
476.00,0.0141
475.00,0.0136
474.00,0.0134
473.00,0.0141
472.00,0.0154
471.00,0.0165
470.00,0.0166
469.00,0.0157
468.00,0.0149
467.00,0.0150
466.00,0.0159
465.00,0.0167
464.00,0.0170
463.00,0.0171
462.00,0.0176
461.00,0.0188
460.00,0.0200
459.00,0.0203
458.00,0.0191
457.00,0.0169
456.00,0.0154
455.00,0.0154
454.00,0.0164
453.00,0.0172
452.00,0.0174
451.00,0.0171
450.00,0.0171
