Created as New Dataset,Sample 153 By Administrator Date Friday, September 05 2025
cm-1,A
4000.00,0.0014
3999.00,0.0013
3998.00,0.0013
3997.00,0.0013
3996.00,0.0013
3995.00,0.0013
3994.00,0.0014
3993.00,0.0014
3992.00,0.0014
3991.00,0.0014
3990.00,0.0014
3989.00,0.0014
3988.00,0.0014
3987.00,0.0013
3986.00,0.0013
3985.00,0.0013
3984.00,0.0013
3983.00,0.0012
3982.00,0.0013
3981.00,0.0013
3980.00,0.0013
3979.00,0.0013
3978.00,0.0013
3977.00,0.0013
3976.00,0.0012
3975.00,0.0012
3974.00,0.0012
3973.00,0.0012
3972.00,0.0012
3971.00,0.0012
3970.00,0.0013
3969.00,0.0013
3968.00,0.0013
3967.00,0.0013
3966.00,0.0013
3965.00,0.0012
3964.00,0.0012
3963.00,0.0012
3962.00,0.0012
3961.00,0.0012
3960.00,0.0012
3959.00,0.0012
3958.00,0.0012
3957.00,0.0012
3956.00,0.0012
3955.00,0.0011
3954.00,0.0011
3953.00,0.0011
3952.00,0.0012
3951.00,0.0012
3950.00,0.0012
3949.00,0.0011
3948.00,0.0011
3947.00,0.0011
3946.00,0.0011
3945.00,0.0011
3944.00,0.0011
3943.00,0.0012
3942.00,0.0012
3941.00,0.0012
3940.00,0.0012
3939.00,0.0012
3938.00,0.0012
3937.00,0.0012
3936.00,0.0012
3935.00,0.0012
3934.00,0.0012
3933.00,0.0012
3932.00,0.0012
3931.00,0.0012
3930.00,0.0013
3929.00,0.0013
3928.00,0.0013
3927.00,0.0013
3926.00,0.0013
3925.00,0.0013
3924.00,0.0013
3923.00,0.0012
3922.00,0.0012
3921.00,0.0012
3920.00,0.0012
3919.00,0.0012
3918.00,0.0012
3917.00,0.0012
3916.00,0.0012
3915.00,0.0012
3914.00,0.0012
3913.00,0.0012
3912.00,0.0012
3911.00,0.0012
3910.00,0.0012
3909.00,0.0012
3908.00,0.0012
3907.00,0.0012
3906.00,0.0012
3905.00,0.0011
3904.00,0.0011
3903.00,0.0011
3902.00,0.0011
3901.00,0.0011
3900.00,0.0011
3899.00,0.0012
3898.00,0.0012
3897.00,0.0012
3896.00,0.0012
3895.00,0.0012
3894.00,0.0012
3893.00,0.0012
3892.00,0.0012
3891.00,0.0012
3890.00,0.0012
3889.00,0.0011
3888.00,0.0011
3887.00,0.0011
3886.00,0.0011
3885.00,0.0011
3884.00,0.0012
3883.00,0.0012
3882.00,0.0011
3881.00,0.0011
3880.00,0.0011
3879.00,0.0011
3878.00,0.0011
3877.00,0.0011
3876.00,0.0011
3875.00,0.0011
3874.00,0.0011
3873.00,0.0011
3872.00,0.0011
3871.00,0.0010
3870.00,0.0010
3869.00,0.0011
3868.00,0.0011
3867.00,0.0011
3866.00,0.0011
3865.00,0.0011
3864.00,0.0011
3863.00,0.0011
3862.00,0.0011
3861.00,0.0011
3860.00,0.0011
3859.00,0.0011
3858.00,0.0012
3857.00,0.0012
3856.00,0.0012
3855.00,0.0012
3854.00,0.0011
3853.00,0.0012
3852.00,0.0011
3851.00,0.0011
3850.00,0.0011
3849.00,0.0010
3848.00,0.0010
3847.00,0.0011
3846.00,0.0011
3845.00,0.0011
3844.00,0.0012
3843.00,0.0012
3842.00,0.0012
3841.00,0.0012
3840.00,0.0013
3839.00,0.0012
3838.00,0.0012
3837.00,0.0012
3836.00,0.0012
3835.00,0.0011
3834.00,0.0011
3833.00,0.0011
3832.00,0.0011
3831.00,0.0011
3830.00,0.0012
3829.00,0.0011
3828.00,0.0011
3827.00,0.0011
3826.00,0.0011
3825.00,0.0011
3824.00,0.0012
3823.00,0.0011
3822.00,0.0011
3821.00,0.0011
3820.00,0.0012
3819.00,0.0012
3818.00,0.0012
3817.00,0.0011
3816.00,0.0011
3815.00,0.0012
3814.00,0.0011
3813.00,0.0011
3812.00,0.0010
3811.00,0.0011
3810.00,0.0011
3809.00,0.0011
3808.00,0.0011
3807.00,0.0011
3806.00,0.0012
3805.00,0.0012
3804.00,0.0012
3803.00,0.0012
3802.00,0.0012
3801.00,0.0012
3800.00,0.0012
3799.00,0.0012
3798.00,0.0011
3797.00,0.0011
3796.00,0.0011
3795.00,0.0011
3794.00,0.0011
3793.00,0.0010
3792.00,0.0010
3791.00,0.0010
3790.00,0.0010
3789.00,0.0010
3788.00,0.0010
3787.00,0.0010
3786.00,0.0010
3785.00,0.0010
3784.00,0.0010
3783.00,0.0011
3782.00,0.0011
3781.00,0.0012
3780.00,0.0012
3779.00,0.0012
3778.00,0.0012
3777.00,0.0012
3776.00,0.0012
3775.00,0.0012
3774.00,0.0012
3773.00,0.0013
3772.00,0.0012
3771.00,0.0012
3770.00,0.0012
3769.00,0.0011
3768.00,0.0011
3767.00,0.0011
3766.00,0.0011
3765.00,0.0011
3764.00,0.0011
3763.00,0.0011
3762.00,0.0010
3761.00,0.0010
3760.00,0.0011
3759.00,0.0011
3758.00,0.0011
3757.00,0.0011
3756.00,0.0012
3755.00,0.0012
3754.00,0.0012
3753.00,0.0012
3752.00,0.0012
3751.00,0.0011
3750.00,0.0011
3749.00,0.0012
3748.00,0.0013
3747.00,0.0013
3746.00,0.0012
3745.00,0.0012
3744.00,0.0011
3743.00,0.0011
3742.00,0.0010
3741.00,0.0010
3740.00,0.0009
3739.00,0.0010
3738.00,0.0010
3737.00,0.0010
3736.00,0.0011
3735.00,0.0011
3734.00,0.0011
3733.00,0.0011
3732.00,0.0011
3731.00,0.0010
3730.00,0.0010
3729.00,0.0010
3728.00,0.0010
3727.00,0.0009
3726.00,0.0010
3725.00,0.0010
3724.00,0.0010
3723.00,0.0010
3722.00,0.0010
3721.00,0.0010
3720.00,0.0010
3719.00,0.0010
3718.00,0.0010
3717.00,0.0010
3716.00,0.0009
3715.00,0.0009
3714.00,0.0009
3713.00,0.0009
3712.00,0.0010
3711.00,0.0010
3710.00,0.0011
3709.00,0.0011
3708.00,0.0011
3707.00,0.0011
3706.00,0.0011
3705.00,0.0011
3704.00,0.0011
3703.00,0.0011
3702.00,0.0011
3701.00,0.0011
3700.00,0.0011
3699.00,0.0012
3698.00,0.0012
3697.00,0.0012
3696.00,0.0012
3695.00,0.0012
3694.00,0.0012
3693.00,0.0013
3692.00,0.0013
3691.00,0.0013
3690.00,0.0012
3689.00,0.0011
3688.00,0.0011
3687.00,0.0012
3686.00,0.0012
3685.00,0.0012
3684.00,0.0012
3683.00,0.0012
3682.00,0.0013
3681.00,0.0013
3680.00,0.0013
3679.00,0.0013
3678.00,0.0013
3677.00,0.0012
3676.00,0.0013
3675.00,0.0014
3674.00,0.0014
3673.00,0.0015
3672.00,0.0014
3671.00,0.0014
3670.00,0.0015
3669.00,0.0015
3668.00,0.0015
3667.00,0.0014
3666.00,0.0013
3665.00,0.0013
3664.00,0.0012
3663.00,0.0013
3662.00,0.0013
3661.00,0.0013
3660.00,0.0013
3659.00,0.0013
3658.00,0.0013
3657.00,0.0013
3656.00,0.0014
3655.00,0.0014
3654.00,0.0015
3653.00,0.0015
3652.00,0.0015
3651.00,0.0015
3650.00,0.0015
3649.00,0.0016
3648.00,0.0017
3647.00,0.0017
3646.00,0.0018
3645.00,0.0017
3644.00,0.0017
3643.00,0.0018
3642.00,0.0018
3641.00,0.0018
3640.00,0.0019
3639.00,0.0019
3638.00,0.0020
3637.00,0.0020
3636.00,0.0021
3635.00,0.0021
3634.00,0.0022
3633.00,0.0022
3632.00,0.0022
3631.00,0.0021
3630.00,0.0021
3629.00,0.0021
3628.00,0.0022
3627.00,0.0022
3626.00,0.0022
3625.00,0.0022
3624.00,0.0023
3623.00,0.0023
3622.00,0.0024
3621.00,0.0024
3620.00,0.0025
3619.00,0.0026
3618.00,0.0026
3617.00,0.0027
3616.00,0.0027
3615.00,0.0028
3614.00,0.0028
3613.00,0.0028
3612.00,0.0028
3611.00,0.0028
3610.00,0.0028
3609.00,0.0029
3608.00,0.0031
3607.00,0.0032
3606.00,0.0033
3605.00,0.0033
3604.00,0.0033
3603.00,0.0032
3602.00,0.0032
3601.00,0.0032
3600.00,0.0033
3599.00,0.0035
3598.00,0.0036
3597.00,0.0037
3596.00,0.0038
3595.00,0.0038
3594.00,0.0038
3593.00,0.0039
3592.00,0.0039
3591.00,0.0040
3590.00,0.0040
3589.00,0.0040
3588.00,0.0041
3587.00,0.0041
3586.00,0.0042
3585.00,0.0042
3584.00,0.0043
3583.00,0.0043
3582.00,0.0044
3581.00,0.0044
3580.00,0.0045
3579.00,0.0046
3578.00,0.0046
3577.00,0.0047
3576.00,0.0048
3575.00,0.0048
3574.00,0.0049
3573.00,0.0049
3572.00,0.0049
3571.00,0.0050
3570.00,0.0050
3569.00,0.0050
3568.00,0.0050
3567.00,0.0051
3566.00,0.0052
3565.00,0.0052
3564.00,0.0053
3563.00,0.0053
3562.00,0.0054
3561.00,0.0054
3560.00,0.0055
3559.00,0.0056
3558.00,0.0056
3557.00,0.0057
3556.00,0.0058
3555.00,0.0058
3554.00,0.0059
3553.00,0.0059
3552.00,0.0060
3551.00,0.0060
3550.00,0.0059
3549.00,0.0059
3548.00,0.0060
3547.00,0.0060
3546.00,0.0062
3545.00,0.0063
3544.00,0.0063
3543.00,0.0064
3542.00,0.0064
3541.00,0.0064
3540.00,0.0065
3539.00,0.0065
3538.00,0.0066
3537.00,0.0066
3536.00,0.0067
3535.00,0.0068
3534.00,0.0068
3533.00,0.0069
3532.00,0.0070
3531.00,0.0070
3530.00,0.0070
3529.00,0.0071
3528.00,0.0071
3527.00,0.0071
3526.00,0.0071
3525.00,0.0071
3524.00,0.0072
3523.00,0.0073
3522.00,0.0073
3521.00,0.0074
3520.00,0.0074
3519.00,0.0074
3518.00,0.0075
3517.00,0.0075
3516.00,0.0075
3515.00,0.0075
3514.00,0.0075
3513.00,0.0075
3512.00,0.0076
3511.00,0.0076
3510.00,0.0077
3509.00,0.0078
3508.00,0.0079
3507.00,0.0080
3506.00,0.0080
3505.00,0.0081
3504.00,0.0081
3503.00,0.0081
3502.00,0.0081
3501.00,0.0082
3500.00,0.0083
3499.00,0.0084
3498.00,0.0084
3497.00,0.0085
3496.00,0.0086
3495.00,0.0086
3494.00,0.0086
3493.00,0.0087
3492.00,0.0087
3491.00,0.0088
3490.00,0.0088
3489.00,0.0088
3488.00,0.0088
3487.00,0.0089
3486.00,0.0089
3485.00,0.0090
3484.00,0.0091
3483.00,0.0092
3482.00,0.0093
3481.00,0.0093
3480.00,0.0094
3479.00,0.0094
3478.00,0.0094
3477.00,0.0095
3476.00,0.0095
3475.00,0.0096
3474.00,0.0096
3473.00,0.0097
3472.00,0.0097
3471.00,0.0097
3470.00,0.0098
3469.00,0.0098
3468.00,0.0098
3467.00,0.0099
3466.00,0.0099
3465.00,0.0100
3464.00,0.0101
3463.00,0.0101
3462.00,0.0102
3461.00,0.0102
3460.00,0.0102
3459.00,0.0103
3458.00,0.0103
3457.00,0.0104
3456.00,0.0105
3455.00,0.0106
3454.00,0.0106
3453.00,0.0106
3452.00,0.0106
3451.00,0.0106
3450.00,0.0107
3449.00,0.0107
3448.00,0.0108
3447.00,0.0109
3446.00,0.0109
3445.00,0.0109
3444.00,0.0110
3443.00,0.0111
3442.00,0.0111
3441.00,0.0112
3440.00,0.0112
3439.00,0.0113
3438.00,0.0113
3437.00,0.0114
3436.00,0.0114
3435.00,0.0115
3434.00,0.0115
3433.00,0.0115
3432.00,0.0116
3431.00,0.0116
3430.00,0.0117
3429.00,0.0117
3428.00,0.0118
3427.00,0.0119
3426.00,0.0119
3425.00,0.0120
3424.00,0.0120
3423.00,0.0120
3422.00,0.0121
3421.00,0.0121
3420.00,0.0122
3419.00,0.0123
3418.00,0.0124
3417.00,0.0124
3416.00,0.0125
3415.00,0.0126
3414.00,0.0126
3413.00,0.0127
3412.00,0.0127
3411.00,0.0128
3410.00,0.0129
3409.00,0.0129
3408.00,0.0130
3407.00,0.0130
3406.00,0.0130
3405.00,0.0131
3404.00,0.0131
3403.00,0.0132
3402.00,0.0133
3401.00,0.0133
3400.00,0.0133
3399.00,0.0134
3398.00,0.0134
3397.00,0.0135
3396.00,0.0135
3395.00,0.0135
3394.00,0.0136
3393.00,0.0135
3392.00,0.0135
3391.00,0.0135
3390.00,0.0135
3389.00,0.0136
3388.00,0.0136
3387.00,0.0136
3386.00,0.0137
3385.00,0.0137
3384.00,0.0138
3383.00,0.0138
3382.00,0.0138
3381.00,0.0139
3380.00,0.0138
3379.00,0.0138
3378.00,0.0138
3377.00,0.0138
3376.00,0.0138
3375.00,0.0138
3374.00,0.0139
3373.00,0.0139
3372.00,0.0140
3371.00,0.0140
3370.00,0.0140
3369.00,0.0141
3368.00,0.0141
3367.00,0.0141
3366.00,0.0142
3365.00,0.0142
3364.00,0.0142
3363.00,0.0142
3362.00,0.0143
3361.00,0.0143
3360.00,0.0143
3359.00,0.0143
3358.00,0.0144
3357.00,0.0144
3356.00,0.0145
3355.00,0.0145
3354.00,0.0146
3353.00,0.0146
3352.00,0.0146
3351.00,0.0146
3350.00,0.0146
3349.00,0.0146
3348.00,0.0146
3347.00,0.0147
3346.00,0.0147
3345.00,0.0148
3344.00,0.0149
3343.00,0.0149
3342.00,0.0149
3341.00,0.0150
3340.00,0.0150
3339.00,0.0150
3338.00,0.0151
3337.00,0.0151
3336.00,0.0151
3335.00,0.0152
3334.00,0.0152
3333.00,0.0152
3332.00,0.0152
3331.00,0.0152
3330.00,0.0153
3329.00,0.0153
3328.00,0.0154
3327.00,0.0155
3326.00,0.0155
3325.00,0.0156
3324.00,0.0157
3323.00,0.0157
3322.00,0.0157
3321.00,0.0157
3320.00,0.0157
3319.00,0.0157
3318.00,0.0158
3317.00,0.0158
3316.00,0.0158
3315.00,0.0158
3314.00,0.0158
3313.00,0.0158
3312.00,0.0157
3311.00,0.0157
3310.00,0.0156
3309.00,0.0156
3308.00,0.0156
3307.00,0.0156
3306.00,0.0156
3305.00,0.0156
3304.00,0.0156
3303.00,0.0156
3302.00,0.0156
3301.00,0.0155
3300.00,0.0155
3299.00,0.0154
3298.00,0.0154
3297.00,0.0153
3296.00,0.0152
3295.00,0.0151
3294.00,0.0150
3293.00,0.0150
3292.00,0.0150
3291.00,0.0150
3290.00,0.0149
3289.00,0.0149
3288.00,0.0148
3287.00,0.0147
3286.00,0.0146
3285.00,0.0145
3284.00,0.0144
3283.00,0.0144
3282.00,0.0143
3281.00,0.0143
3280.00,0.0143
3279.00,0.0143
3278.00,0.0142
3277.00,0.0141
3276.00,0.0141
3275.00,0.0140
3274.00,0.0139
3273.00,0.0139
3272.00,0.0138
3271.00,0.0138
3270.00,0.0138
3269.00,0.0137
3268.00,0.0136
3267.00,0.0136
3266.00,0.0135
3265.00,0.0135
3264.00,0.0135
3263.00,0.0134
3262.00,0.0134
3261.00,0.0133
3260.00,0.0132
3259.00,0.0131
3258.00,0.0131
3257.00,0.0130
3256.00,0.0130
3255.00,0.0129
3254.00,0.0129
3253.00,0.0129
3252.00,0.0128
3251.00,0.0128
3250.00,0.0128
3249.00,0.0127
3248.00,0.0127
3247.00,0.0126
3246.00,0.0125
3245.00,0.0125
3244.00,0.0125
3243.00,0.0125
3242.00,0.0125
3241.00,0.0125
3240.00,0.0125
3239.00,0.0124
3238.00,0.0124
3237.00,0.0123
3236.00,0.0123
3235.00,0.0123
3234.00,0.0123
3233.00,0.0123
3232.00,0.0123
3231.00,0.0123
3230.00,0.0123
3229.00,0.0123
3228.00,0.0123
3227.00,0.0124
3226.00,0.0124
3225.00,0.0124
3224.00,0.0124
3223.00,0.0124
3222.00,0.0124
3221.00,0.0125
3220.00,0.0125
3219.00,0.0126
3218.00,0.0126
3217.00,0.0127
3216.00,0.0128
3215.00,0.0128
3214.00,0.0129
3213.00,0.0129
3212.00,0.0129
3211.00,0.0129
3210.00,0.0130
3209.00,0.0130
3208.00,0.0130
3207.00,0.0130
3206.00,0.0130
3205.00,0.0130
3204.00,0.0130
3203.00,0.0131
3202.00,0.0131
3201.00,0.0131
3200.00,0.0130
3199.00,0.0129
3198.00,0.0129
3197.00,0.0129
3196.00,0.0128
3195.00,0.0128
3194.00,0.0128
3193.00,0.0127
3192.00,0.0127
3191.00,0.0126
3190.00,0.0126
3189.00,0.0126
3188.00,0.0125
3187.00,0.0124
3186.00,0.0124
3185.00,0.0123
3184.00,0.0122
3183.00,0.0121
3182.00,0.0121
3181.00,0.0120
3180.00,0.0119
3179.00,0.0118
3178.00,0.0118
3177.00,0.0117
3176.00,0.0116
3175.00,0.0115
3174.00,0.0114
3173.00,0.0113
3172.00,0.0112
3171.00,0.0112
3170.00,0.0111
3169.00,0.0111
3168.00,0.0111
3167.00,0.0111
3166.00,0.0110
3165.00,0.0110
3164.00,0.0109
3163.00,0.0109
3162.00,0.0108
3161.00,0.0108
3160.00,0.0108
3159.00,0.0107
3158.00,0.0106
3157.00,0.0106
3156.00,0.0105
3155.00,0.0104
3154.00,0.0103
3153.00,0.0103
3152.00,0.0102
3151.00,0.0102
3150.00,0.0102
3149.00,0.0103
3148.00,0.0103
3147.00,0.0103
3146.00,0.0102
3145.00,0.0102
3144.00,0.0101
3143.00,0.0100
3142.00,0.0099
3141.00,0.0099
3140.00,0.0098
3139.00,0.0098
3138.00,0.0098
3137.00,0.0098
3136.00,0.0098
3135.00,0.0098
3134.00,0.0098
3133.00,0.0098
3132.00,0.0097
3131.00,0.0097
3130.00,0.0096
3129.00,0.0095
3128.00,0.0095
3127.00,0.0094
3126.00,0.0094
3125.00,0.0094
3124.00,0.0094
3123.00,0.0093
3122.00,0.0092
3121.00,0.0092
3120.00,0.0091
3119.00,0.0091
3118.00,0.0090
3117.00,0.0090
3116.00,0.0089
3115.00,0.0089
3114.00,0.0088
3113.00,0.0088
3112.00,0.0088
3111.00,0.0087
3110.00,0.0087
3109.00,0.0086
3108.00,0.0085
3107.00,0.0084
3106.00,0.0084
3105.00,0.0083
3104.00,0.0083
3103.00,0.0083
3102.00,0.0082
3101.00,0.0082
3100.00,0.0081
3099.00,0.0080
3098.00,0.0080
3097.00,0.0080
3096.00,0.0079
3095.00,0.0079
3094.00,0.0079
3093.00,0.0078
3092.00,0.0078
3091.00,0.0077
3090.00,0.0077
3089.00,0.0076
3088.00,0.0076
3087.00,0.0076
3086.00,0.0075
3085.00,0.0075
3084.00,0.0075
3083.00,0.0075
3082.00,0.0075
3081.00,0.0075
3080.00,0.0075
3079.00,0.0075
3078.00,0.0075
3077.00,0.0074
3076.00,0.0075
3075.00,0.0075
3074.00,0.0075
3073.00,0.0075
3072.00,0.0075
3071.00,0.0074
3070.00,0.0074
3069.00,0.0074
3068.00,0.0074
3067.00,0.0074
3066.00,0.0074
3065.00,0.0075
3064.00,0.0075
3063.00,0.0075
3062.00,0.0075
3061.00,0.0074
3060.00,0.0074
3059.00,0.0073
3058.00,0.0073
3057.00,0.0073
3056.00,0.0073
3055.00,0.0073
3054.00,0.0073
3053.00,0.0073
3052.00,0.0073
3051.00,0.0073
3050.00,0.0073
3049.00,0.0073
3048.00,0.0073
3047.00,0.0072
3046.00,0.0072
3045.00,0.0072
3044.00,0.0072
3043.00,0.0072
3042.00,0.0072
3041.00,0.0073
3040.00,0.0073
3039.00,0.0073
3038.00,0.0074
3037.00,0.0075
3036.00,0.0075
3035.00,0.0074
3034.00,0.0074
3033.00,0.0074
3032.00,0.0075
3031.00,0.0075
3030.00,0.0076
3029.00,0.0076
3028.00,0.0076
3027.00,0.0076
3026.00,0.0076
3025.00,0.0077
3024.00,0.0077
3023.00,0.0078
3022.00,0.0078
3021.00,0.0079
3020.00,0.0080
3019.00,0.0080
3018.00,0.0081
3017.00,0.0082
3016.00,0.0082
3015.00,0.0083
3014.00,0.0084
3013.00,0.0085
3012.00,0.0086
3011.00,0.0087
3010.00,0.0089
3009.00,0.0090
3008.00,0.0091
3007.00,0.0093
3006.00,0.0094
3005.00,0.0096
3004.00,0.0097
3003.00,0.0098
3002.00,0.0100
3001.00,0.0102
3000.00,0.0104
2999.00,0.0107
2998.00,0.0109
2997.00,0.0112
2996.00,0.0115
2995.00,0.0119
2994.00,0.0123
2993.00,0.0127
2992.00,0.0131
2991.00,0.0137
2990.00,0.0143
2989.00,0.0150
2988.00,0.0157
2987.00,0.0166
2986.00,0.0175
2985.00,0.0185
2984.00,0.0196
2983.00,0.0208
2982.00,0.0222
2981.00,0.0238
2980.00,0.0256
2979.00,0.0277
2978.00,0.0301
2977.00,0.0327
2976.00,0.0358
2975.00,0.0392
2974.00,0.0431
2973.00,0.0476
2972.00,0.0526
2971.00,0.0583
2970.00,0.0646
2969.00,0.0716
2968.00,0.0792
2967.00,0.0873
2966.00,0.0959
2965.00,0.1048
2964.00,0.1136
2963.00,0.1220
2962.00,0.1294
2961.00,0.1357
2960.00,0.1407
2959.00,0.1447
2958.00,0.1479
2957.00,0.1508
2956.00,0.1539
2955.00,0.1574
2954.00,0.1613
2953.00,0.1651
2952.00,0.1682
2951.00,0.1700
2950.00,0.1696
2949.00,0.1666
2948.00,0.1609
2947.00,0.1529
2946.00,0.1434
2945.00,0.1335
2944.00,0.1241
2943.00,0.1161
2942.00,0.1099
2941.00,0.1058
2940.00,0.1037
2939.00,0.1035
2938.00,0.1049
2937.00,0.1079
2936.00,0.1123
2935.00,0.1179
2934.00,0.1247
2933.00,0.1326
2932.00,0.1413
2931.00,0.1507
2930.00,0.1607
2929.00,0.1710
2928.00,0.1813
2927.00,0.1914
2926.00,0.2013
2925.00,0.2109
2924.00,0.2204
2923.00,0.2298
2922.00,0.2389
2921.00,0.2476
2920.00,0.2550
2919.00,0.2605
2918.00,0.2630
2917.00,0.2619
2916.00,0.2568
2915.00,0.2486
2914.00,0.2382
2913.00,0.2269
2912.00,0.2160
2911.00,0.2061
2910.00,0.1974
2909.00,0.1900
2908.00,0.1834
2907.00,0.1774
2906.00,0.1716
2905.00,0.1658
2904.00,0.1600
2903.00,0.1541
2902.00,0.1482
2901.00,0.1424
2900.00,0.1366
2899.00,0.1311
2898.00,0.1259
2897.00,0.1211
2896.00,0.1168
2895.00,0.1129
2894.00,0.1095
2893.00,0.1067
2892.00,0.1044
2891.00,0.1026
2890.00,0.1013
2889.00,0.1004
2888.00,0.0997
2887.00,0.0994
2886.00,0.0994
2885.00,0.0998
2884.00,0.1005
2883.00,0.1017
2882.00,0.1033
2881.00,0.1052
2880.00,0.1070
2879.00,0.1087
2878.00,0.1098
2877.00,0.1103
2876.00,0.1102
2875.00,0.1098
2874.00,0.1094
2873.00,0.1093
2872.00,0.1098
2871.00,0.1107
2870.00,0.1120
2869.00,0.1132
2868.00,0.1138
2867.00,0.1134
2866.00,0.1113
2865.00,0.1077
2864.00,0.1026
2863.00,0.0970
2862.00,0.0914
2861.00,0.0867
2860.00,0.0832
2859.00,0.0812
2858.00,0.0804
2857.00,0.0808
2856.00,0.0822
2855.00,0.0845
2854.00,0.0876
2853.00,0.0911
2852.00,0.0946
2851.00,0.0975
2850.00,0.0992
2849.00,0.0995
2848.00,0.0985
2847.00,0.0972
2846.00,0.0963
2845.00,0.0965
2844.00,0.0981
2843.00,0.1008
2842.00,0.1043
2841.00,0.1079
2840.00,0.1109
2839.00,0.1126
2838.00,0.1123
2837.00,0.1096
2836.00,0.1042
2835.00,0.0966
2834.00,0.0876
2833.00,0.0781
2832.00,0.0689
2831.00,0.0607
2830.00,0.0537
2829.00,0.0479
2828.00,0.0431
2827.00,0.0393
2826.00,0.0361
2825.00,0.0334
2824.00,0.0312
2823.00,0.0294
2822.00,0.0278
2821.00,0.0264
2820.00,0.0252
2819.00,0.0241
2818.00,0.0232
2817.00,0.0224
2816.00,0.0217
2815.00,0.0210
2814.00,0.0204
2813.00,0.0198
2812.00,0.0193
2811.00,0.0188
2810.00,0.0183
2809.00,0.0178
2808.00,0.0172
2807.00,0.0167
2806.00,0.0161
2805.00,0.0156
2804.00,0.0150
2803.00,0.0145
2802.00,0.0139
2801.00,0.0135
2800.00,0.0131
2799.00,0.0127
2798.00,0.0125
2797.00,0.0123
2796.00,0.0121
2795.00,0.0119
2794.00,0.0117
2793.00,0.0114
2792.00,0.0111
2791.00,0.0107
2790.00,0.0104
2789.00,0.0101
2788.00,0.0098
2787.00,0.0095
2786.00,0.0092
2785.00,0.0090
2784.00,0.0087
2783.00,0.0085
2782.00,0.0084
2781.00,0.0082
2780.00,0.0080
2779.00,0.0079
2778.00,0.0077
2777.00,0.0076
2776.00,0.0074
2775.00,0.0073
2774.00,0.0072
2773.00,0.0071
2772.00,0.0071
2771.00,0.0070
2770.00,0.0070
2769.00,0.0070
2768.00,0.0069
2767.00,0.0069
2766.00,0.0069
2765.00,0.0068
2764.00,0.0068
2763.00,0.0068
2762.00,0.0067
2761.00,0.0066
2760.00,0.0066
2759.00,0.0065
2758.00,0.0065
2757.00,0.0065
2756.00,0.0065
2755.00,0.0065
2754.00,0.0065
2753.00,0.0065
2752.00,0.0064
2751.00,0.0064
2750.00,0.0063
2749.00,0.0063
2748.00,0.0063
2747.00,0.0063
2746.00,0.0064
2745.00,0.0064
2744.00,0.0065
2743.00,0.0066
2742.00,0.0066
2741.00,0.0067
2740.00,0.0068
2739.00,0.0069
2738.00,0.0070
2737.00,0.0071
2736.00,0.0072
2735.00,0.0074
2734.00,0.0075
2733.00,0.0076
2732.00,0.0077
2731.00,0.0079
2730.00,0.0081
2729.00,0.0082
2728.00,0.0085
2727.00,0.0087
2726.00,0.0089
2725.00,0.0091
2724.00,0.0091
2723.00,0.0092
2722.00,0.0091
2721.00,0.0089
2720.00,0.0087
2719.00,0.0084
2718.00,0.0082
2717.00,0.0079
2716.00,0.0077
2715.00,0.0075
2714.00,0.0073
2713.00,0.0071
2712.00,0.0069
2711.00,0.0068
2710.00,0.0066
2709.00,0.0065
2708.00,0.0064
2707.00,0.0063
2706.00,0.0061
2705.00,0.0060
2704.00,0.0059
2703.00,0.0058
2702.00,0.0058
2701.00,0.0057
2700.00,0.0056
2699.00,0.0056
2698.00,0.0056
2697.00,0.0055
2696.00,0.0055
2695.00,0.0055
2694.00,0.0055
2693.00,0.0055
2692.00,0.0055
2691.00,0.0055
2690.00,0.0055
2689.00,0.0055
2688.00,0.0055
2687.00,0.0055
2686.00,0.0055
2685.00,0.0054
2684.00,0.0054
2683.00,0.0054
2682.00,0.0054
2681.00,0.0055
2680.00,0.0054
2679.00,0.0054
2678.00,0.0055
2677.00,0.0055
2676.00,0.0055
2675.00,0.0054
2674.00,0.0054
2673.00,0.0053
2672.00,0.0053
2671.00,0.0052
2670.00,0.0052
2669.00,0.0053
2668.00,0.0053
2667.00,0.0053
2666.00,0.0054
2665.00,0.0054
2664.00,0.0055
2663.00,0.0055
2662.00,0.0056
2661.00,0.0056
2660.00,0.0056
2659.00,0.0055
2658.00,0.0055
2657.00,0.0055
2656.00,0.0055
2655.00,0.0055
2654.00,0.0055
2653.00,0.0055
2652.00,0.0054
2651.00,0.0054
2650.00,0.0053
2649.00,0.0052
2648.00,0.0051
2647.00,0.0050
2646.00,0.0050
2645.00,0.0050
2644.00,0.0049
2643.00,0.0049
2642.00,0.0048
2641.00,0.0048
2640.00,0.0048
2639.00,0.0047
2638.00,0.0047
2637.00,0.0047
2636.00,0.0047
2635.00,0.0047
2634.00,0.0047
2633.00,0.0046
2632.00,0.0046
2631.00,0.0046
2630.00,0.0046
2629.00,0.0046
2628.00,0.0047
2627.00,0.0047
2626.00,0.0047
2625.00,0.0048
2624.00,0.0048
2623.00,0.0048
2622.00,0.0048
2621.00,0.0048
2620.00,0.0048
2619.00,0.0048
2618.00,0.0047
2617.00,0.0047
2616.00,0.0046
2615.00,0.0046
2614.00,0.0045
2613.00,0.0044
2612.00,0.0043
2611.00,0.0043
2610.00,0.0043
2609.00,0.0043
2608.00,0.0042
2607.00,0.0042
2606.00,0.0041
2605.00,0.0041
2604.00,0.0041
2603.00,0.0041
2602.00,0.0040
2601.00,0.0040
2600.00,0.0039
2599.00,0.0039
2598.00,0.0039
2597.00,0.0039
2596.00,0.0039
2595.00,0.0039
2594.00,0.0039
2593.00,0.0040
2592.00,0.0040
2591.00,0.0040
2590.00,0.0040
2589.00,0.0040
2588.00,0.0040
2587.00,0.0041
2586.00,0.0042
2585.00,0.0044
2584.00,0.0044
2583.00,0.0044
2582.00,0.0044
2581.00,0.0044
2580.00,0.0043
2579.00,0.0041
2578.00,0.0040
2577.00,0.0039
2576.00,0.0038
2575.00,0.0038
2574.00,0.0037
2573.00,0.0036
2572.00,0.0036
2571.00,0.0035
2570.00,0.0034
2569.00,0.0033
2568.00,0.0032
2567.00,0.0031
2566.00,0.0031
2565.00,0.0030
2564.00,0.0030
2563.00,0.0030
2562.00,0.0030
2561.00,0.0030
2560.00,0.0029
2559.00,0.0029
2558.00,0.0029
2557.00,0.0029
2556.00,0.0029
2555.00,0.0029
2554.00,0.0029
2553.00,0.0028
2552.00,0.0028
2551.00,0.0028
2550.00,0.0027
2549.00,0.0027
2548.00,0.0027
2547.00,0.0026
2546.00,0.0025
2545.00,0.0025
2544.00,0.0024
2543.00,0.0024
2542.00,0.0024
2541.00,0.0024
2540.00,0.0024
2539.00,0.0024
2538.00,0.0024
2537.00,0.0024
2536.00,0.0024
2535.00,0.0024
2534.00,0.0024
2533.00,0.0024
2532.00,0.0023
2531.00,0.0023
2530.00,0.0022
2529.00,0.0022
2528.00,0.0023
2527.00,0.0023
2526.00,0.0023
2525.00,0.0022
2524.00,0.0021
2523.00,0.0021
2522.00,0.0021
2521.00,0.0021
2520.00,0.0020
2519.00,0.0020
2518.00,0.0019
2517.00,0.0018
2516.00,0.0018
2515.00,0.0017
2514.00,0.0017
2513.00,0.0017
2512.00,0.0018
2511.00,0.0018
2510.00,0.0018
2509.00,0.0019
2508.00,0.0019
2507.00,0.0019
2506.00,0.0019
2505.00,0.0019
2504.00,0.0019
2503.00,0.0018
2502.00,0.0017
2501.00,0.0017
2500.00,0.0017
2499.00,0.0017
2498.00,0.0018
2497.00,0.0018
2496.00,0.0017
2495.00,0.0017
2494.00,0.0017
2493.00,0.0017
2492.00,0.0018
2491.00,0.0018
2490.00,0.0018
2489.00,0.0018
2488.00,0.0018
2487.00,0.0018
2486.00,0.0017
2485.00,0.0017
2484.00,0.0017
2483.00,0.0018
2482.00,0.0018
2481.00,0.0018
2480.00,0.0018
2479.00,0.0018
2478.00,0.0017
2477.00,0.0017
2476.00,0.0016
2475.00,0.0015
2474.00,0.0015
2473.00,0.0015
2472.00,0.0015
2471.00,0.0015
2470.00,0.0015
2469.00,0.0016
2468.00,0.0016
2467.00,0.0016
2466.00,0.0017
2465.00,0.0017
2464.00,0.0017
2463.00,0.0017
2462.00,0.0017
2461.00,0.0017
2460.00,0.0017
2459.00,0.0017
2458.00,0.0017
2457.00,0.0017
2456.00,0.0017
2455.00,0.0017
2454.00,0.0017
2453.00,0.0017
2452.00,0.0017
2451.00,0.0017
2450.00,0.0017
2449.00,0.0018
2448.00,0.0018
2447.00,0.0019
2446.00,0.0019
2445.00,0.0018
2444.00,0.0017
2443.00,0.0017
2442.00,0.0017
2441.00,0.0016
2440.00,0.0016
2439.00,0.0016
2438.00,0.0017
2437.00,0.0017
2436.00,0.0018
2435.00,0.0018
2434.00,0.0017
2433.00,0.0017
2432.00,0.0017
2431.00,0.0017
2430.00,0.0016
2429.00,0.0016
2428.00,0.0016
2427.00,0.0017
2426.00,0.0017
2425.00,0.0017
2424.00,0.0018
2423.00,0.0017
2422.00,0.0017
2421.00,0.0016
2420.00,0.0015
2419.00,0.0015
2418.00,0.0015
2417.00,0.0015
2416.00,0.0016
2415.00,0.0016
2414.00,0.0016
2413.00,0.0016
2412.00,0.0015
2411.00,0.0015
2410.00,0.0015
2409.00,0.0015
2408.00,0.0015
2407.00,0.0015
2406.00,0.0014
2405.00,0.0013
2404.00,0.0013
2403.00,0.0014
2402.00,0.0015
2401.00,0.0015
2400.00,0.0016
2399.00,0.0016
2398.00,0.0015
2397.00,0.0015
2396.00,0.0015
2395.00,0.0014
2394.00,0.0014
2393.00,0.0015
2392.00,0.0015
2391.00,0.0015
2390.00,0.0014
2389.00,0.0014
2388.00,0.0014
2387.00,0.0015
2386.00,0.0015
2385.00,0.0015
2384.00,0.0015
2383.00,0.0014
2382.00,0.0014
2381.00,0.0013
2380.00,0.0013
2379.00,0.0012
2378.00,0.0012
2377.00,0.0011
2376.00,0.0011
2375.00,0.0011
2374.00,0.0012
2373.00,0.0013
2372.00,0.0014
2371.00,0.0014
2370.00,0.0013
2369.00,0.0013
2368.00,0.0012
2367.00,0.0012
2366.00,0.0013
2365.00,0.0014
2364.00,0.0014
2363.00,0.0015
2362.00,0.0014
2361.00,0.0013
2360.00,0.0013
2359.00,0.0014
2358.00,0.0014
2357.00,0.0015
2356.00,0.0015
2355.00,0.0015
2354.00,0.0014
2353.00,0.0014
2352.00,0.0014
2351.00,0.0014
2350.00,0.0015
2349.00,0.0015
2348.00,0.0015
2347.00,0.0015
2346.00,0.0015
2345.00,0.0015
2344.00,0.0016
2343.00,0.0017
2342.00,0.0017
2341.00,0.0017
2340.00,0.0017
2339.00,0.0017
2338.00,0.0017
2337.00,0.0016
2336.00,0.0016
2335.00,0.0015
2334.00,0.0014
2333.00,0.0014
2332.00,0.0014
2331.00,0.0015
2330.00,0.0016
2329.00,0.0017
2328.00,0.0019
2327.00,0.0022
2326.00,0.0025
2325.00,0.0028
2324.00,0.0029
2323.00,0.0028
2322.00,0.0026
2321.00,0.0025
2320.00,0.0023
2319.00,0.0022
2318.00,0.0022
2317.00,0.0021
2316.00,0.0021
2315.00,0.0020
2314.00,0.0020
2313.00,0.0020
2312.00,0.0020
2311.00,0.0020
2310.00,0.0020
2309.00,0.0020
2308.00,0.0021
2307.00,0.0021
2306.00,0.0021
2305.00,0.0021
2304.00,0.0021
2303.00,0.0021
2302.00,0.0020
2301.00,0.0021
2300.00,0.0021
2299.00,0.0021
2298.00,0.0021
2297.00,0.0021
2296.00,0.0021
2295.00,0.0022
2294.00,0.0022
2293.00,0.0023
2292.00,0.0024
2291.00,0.0025
2290.00,0.0025
2289.00,0.0025
2288.00,0.0025
2287.00,0.0025
2286.00,0.0025
2285.00,0.0025
2284.00,0.0024
2283.00,0.0022
2282.00,0.0021
2281.00,0.0021
2280.00,0.0021
2279.00,0.0020
2278.00,0.0019
2277.00,0.0019
2276.00,0.0019
2275.00,0.0019
2274.00,0.0020
2273.00,0.0020
2272.00,0.0020
2271.00,0.0019
2270.00,0.0018
2269.00,0.0018
2268.00,0.0018
2267.00,0.0019
2266.00,0.0018
2265.00,0.0018
2264.00,0.0017
2263.00,0.0017
2262.00,0.0017
2261.00,0.0018
2260.00,0.0019
2259.00,0.0019
2258.00,0.0019
2257.00,0.0019
2256.00,0.0018
2255.00,0.0018
2254.00,0.0018
2253.00,0.0017
2252.00,0.0016
2251.00,0.0015
2250.00,0.0015
2249.00,0.0015
2248.00,0.0015
2247.00,0.0015
2246.00,0.0015
2245.00,0.0015
2244.00,0.0015
2243.00,0.0015
2242.00,0.0014
2241.00,0.0014
2240.00,0.0014
2239.00,0.0014
2238.00,0.0014
2237.00,0.0014
2236.00,0.0014
2235.00,0.0014
2234.00,0.0014
2233.00,0.0015
2232.00,0.0015
2231.00,0.0015
2230.00,0.0016
2229.00,0.0016
2228.00,0.0016
2227.00,0.0015
2226.00,0.0014
2225.00,0.0012
2224.00,0.0011
2223.00,0.0010
2222.00,0.0011
2221.00,0.0012
2220.00,0.0013
2219.00,0.0013
2218.00,0.0013
2217.00,0.0013
2216.00,0.0012
2215.00,0.0010
2214.00,0.0009
2213.00,0.0009
2212.00,0.0009
2211.00,0.0011
2210.00,0.0012
2209.00,0.0012
2208.00,0.0013
2207.00,0.0012
2206.00,0.0012
2205.00,0.0013
2204.00,0.0014
2203.00,0.0014
2202.00,0.0014
2201.00,0.0013
2200.00,0.0012
2199.00,0.0012
2198.00,0.0012
2197.00,0.0012
2196.00,0.0012
2195.00,0.0013
2194.00,0.0013
2193.00,0.0014
2192.00,0.0015
2191.00,0.0014
2190.00,0.0014
2189.00,0.0014
2188.00,0.0013
2187.00,0.0013
2186.00,0.0013
2185.00,0.0012
2184.00,0.0010
2183.00,0.0008
2182.00,0.0006
2181.00,0.0006
2180.00,0.0008
2179.00,0.0009
2178.00,0.0009
2177.00,0.0007
2176.00,0.0006
2175.00,0.0004
2174.00,0.0004
2173.00,0.0006
2172.00,0.0009
2171.00,0.0013
2170.00,0.0015
2169.00,0.0017
2168.00,0.0017
2167.00,0.0016
2166.00,0.0017
2165.00,0.0019
2164.00,0.0021
2163.00,0.0023
2162.00,0.0021
2161.00,0.0014
2160.00,0.0004
2159.00,-0.0009
2158.00,-0.0020
2157.00,-0.0026
2156.00,-0.0026
2155.00,-0.0023
2154.00,-0.0018
2153.00,-0.0011
2152.00,-0.0006
2151.00,-0.0005
2150.00,-0.0005
2149.00,-0.0006
2148.00,-0.0008
2147.00,-0.0009
2146.00,-0.0011
2145.00,-0.0011
2144.00,-0.0011
2143.00,-0.0009
2142.00,-0.0007
2141.00,-0.0005
2140.00,-0.0004
2139.00,-0.0004
2138.00,-0.0005
2137.00,-0.0006
2136.00,-0.0007
2135.00,-0.0008
2134.00,-0.0008
2133.00,-0.0009
2132.00,-0.0009
2131.00,-0.0008
2130.00,-0.0006
2129.00,-0.0004
2128.00,-0.0003
2127.00,-0.0002
2126.00,-0.0001
2125.00,-0.0001
2124.00,-0.0000
2123.00,-0.0000
2122.00,0.0000
2121.00,0.0001
2120.00,0.0003
2119.00,0.0004
2118.00,0.0005
2117.00,0.0006
2116.00,0.0007
2115.00,0.0007
2114.00,0.0007
2113.00,0.0007
2112.00,0.0007
2111.00,0.0007
2110.00,0.0007
2109.00,0.0007
2108.00,0.0007
2107.00,0.0008
2106.00,0.0009
2105.00,0.0009
2104.00,0.0009
2103.00,0.0008
2102.00,0.0007
2101.00,0.0007
2100.00,0.0006
2099.00,0.0006
2098.00,0.0005
2097.00,0.0004
2096.00,0.0002
2095.00,0.0001
2094.00,0.0001
2093.00,0.0001
2092.00,0.0002
2091.00,0.0004
2090.00,0.0004
2089.00,0.0005
2088.00,0.0006
2087.00,0.0007
2086.00,0.0008
2085.00,0.0009
2084.00,0.0010
2083.00,0.0009
2082.00,0.0009
2081.00,0.0009
2080.00,0.0009
2079.00,0.0008
2078.00,0.0007
2077.00,0.0006
2076.00,0.0006
2075.00,0.0007
2074.00,0.0008
2073.00,0.0008
2072.00,0.0007
2071.00,0.0006
2070.00,0.0005
2069.00,0.0005
2068.00,0.0005
2067.00,0.0005
2066.00,0.0005
2065.00,0.0006
2064.00,0.0007
2063.00,0.0007
2062.00,0.0006
2061.00,0.0005
2060.00,0.0004
2059.00,0.0003
2058.00,0.0003
2057.00,0.0005
2056.00,0.0006
2055.00,0.0006
2054.00,0.0008
2053.00,0.0011
2052.00,0.0015
2051.00,0.0018
2050.00,0.0017
2049.00,0.0014
2048.00,0.0011
2047.00,0.0008
2046.00,0.0006
2045.00,0.0006
2044.00,0.0007
2043.00,0.0007
2042.00,0.0007
2041.00,0.0006
2040.00,0.0005
2039.00,0.0004
2038.00,0.0004
2037.00,0.0005
2036.00,0.0005
2035.00,0.0004
2034.00,0.0001
2033.00,-0.0001
2032.00,-0.0003
2031.00,-0.0005
2030.00,-0.0006
2029.00,-0.0004
2028.00,-0.0002
2027.00,-0.0002
2026.00,-0.0004
2025.00,-0.0007
2024.00,-0.0009
2023.00,-0.0007
2022.00,-0.0004
2021.00,-0.0000
2020.00,0.0002
2019.00,0.0003
2018.00,0.0003
2017.00,0.0002
2016.00,0.0001
2015.00,-0.0002
2014.00,-0.0006
2013.00,-0.0010
2012.00,-0.0013
2011.00,-0.0013
2010.00,-0.0012
2009.00,-0.0011
2008.00,-0.0010
2007.00,-0.0011
2006.00,-0.0012
2005.00,-0.0010
2004.00,-0.0007
2003.00,-0.0007
2002.00,-0.0007
2001.00,-0.0009
2000.00,-0.0009
1999.00,-0.0009
1998.00,-0.0008
1997.00,-0.0007
1996.00,-0.0005
1995.00,-0.0005
1994.00,-0.0004
1993.00,-0.0001
1992.00,0.0002
1991.00,0.0005
1990.00,0.0006
1989.00,0.0006
1988.00,0.0005
1987.00,0.0002
1986.00,0.0000
1985.00,0.0002
1984.00,0.0005
1983.00,0.0010
1982.00,0.0012
1981.00,0.0013
1980.00,0.0011
1979.00,0.0005
1978.00,-0.0002
1977.00,-0.0007
1976.00,-0.0010
1975.00,-0.0011
1974.00,-0.0012
1973.00,-0.0013
1972.00,-0.0012
1971.00,-0.0012
1970.00,-0.0012
1969.00,-0.0011
1968.00,-0.0010
1967.00,-0.0009
1966.00,-0.0008
1965.00,-0.0006
1964.00,-0.0006
1963.00,-0.0007
1962.00,-0.0009
1961.00,-0.0011
1960.00,-0.0011
1959.00,-0.0012
1958.00,-0.0011
1957.00,-0.0011
1956.00,-0.0011
1955.00,-0.0012
1954.00,-0.0012
1953.00,-0.0012
1952.00,-0.0012
1951.00,-0.0013
1950.00,-0.0015
1949.00,-0.0015
1948.00,-0.0014
1947.00,-0.0012
1946.00,-0.0011
1945.00,-0.0011
1944.00,-0.0011
1943.00,-0.0010
1942.00,-0.0010
1941.00,-0.0010
1940.00,-0.0009
1939.00,-0.0008
1938.00,-0.0007
1937.00,-0.0005
1936.00,-0.0003
1935.00,-0.0001
1934.00,-0.0001
1933.00,-0.0000
1932.00,-0.0000
1931.00,-0.0001
1930.00,-0.0002
1929.00,-0.0003
1928.00,-0.0003
1927.00,-0.0004
1926.00,-0.0003
1925.00,-0.0002
1924.00,0.0000
1923.00,0.0002
1922.00,0.0002
1921.00,0.0003
1920.00,0.0003
1919.00,0.0003
1918.00,0.0003
1917.00,0.0002
1916.00,0.0003
1915.00,0.0003
1914.00,0.0003
1913.00,0.0003
1912.00,0.0003
1911.00,0.0003
1910.00,0.0002
1909.00,0.0002
1908.00,0.0003
1907.00,0.0004
1906.00,0.0005
1905.00,0.0006
1904.00,0.0007
1903.00,0.0006
1902.00,0.0006
1901.00,0.0005
1900.00,0.0005
1899.00,0.0004
1898.00,0.0003
1897.00,0.0003
1896.00,0.0003
1895.00,0.0003
1894.00,0.0003
1893.00,0.0003
1892.00,0.0003
1891.00,0.0004
1890.00,0.0004
1889.00,0.0004
1888.00,0.0004
1887.00,0.0004
1886.00,0.0003
1885.00,0.0002
1884.00,0.0002
1883.00,0.0002
1882.00,0.0003
1881.00,0.0003
1880.00,0.0004
1879.00,0.0004
1878.00,0.0004
1877.00,0.0004
1876.00,0.0004
1875.00,0.0004
1874.00,0.0004
1873.00,0.0005
1872.00,0.0005
1871.00,0.0006
1870.00,0.0007
1869.00,0.0007
1868.00,0.0008
1867.00,0.0007
1866.00,0.0007
1865.00,0.0007
1864.00,0.0007
1863.00,0.0006
1862.00,0.0006
1861.00,0.0005
1860.00,0.0005
1859.00,0.0005
1858.00,0.0006
1857.00,0.0006
1856.00,0.0006
1855.00,0.0006
1854.00,0.0006
1853.00,0.0006
1852.00,0.0006
1851.00,0.0006
1850.00,0.0007
1849.00,0.0008
1848.00,0.0008
1847.00,0.0008
1846.00,0.0008
1845.00,0.0008
1844.00,0.0008
1843.00,0.0009
1842.00,0.0009
1841.00,0.0008
1840.00,0.0008
1839.00,0.0007
1838.00,0.0007
1837.00,0.0007
1836.00,0.0008
1835.00,0.0008
1834.00,0.0008
1833.00,0.0009
1832.00,0.0009
1831.00,0.0008
1830.00,0.0008
1829.00,0.0009
1828.00,0.0011
1827.00,0.0011
1826.00,0.0012
1825.00,0.0012
1824.00,0.0011
1823.00,0.0011
1822.00,0.0011
1821.00,0.0010
1820.00,0.0010
1819.00,0.0009
1818.00,0.0008
1817.00,0.0007
1816.00,0.0007
1815.00,0.0008
1814.00,0.0008
1813.00,0.0009
1812.00,0.0010
1811.00,0.0010
1810.00,0.0010
1809.00,0.0010
1808.00,0.0010
1807.00,0.0010
1806.00,0.0011
1805.00,0.0012
1804.00,0.0012
1803.00,0.0013
1802.00,0.0013
1801.00,0.0013
1800.00,0.0014
1799.00,0.0014
1798.00,0.0013
1797.00,0.0014
1796.00,0.0014
1795.00,0.0014
1794.00,0.0014
1793.00,0.0015
1792.00,0.0016
1791.00,0.0016
1790.00,0.0016
1789.00,0.0016
1788.00,0.0016
1787.00,0.0016
1786.00,0.0017
1785.00,0.0017
1784.00,0.0018
1783.00,0.0019
1782.00,0.0019
1781.00,0.0019
1780.00,0.0019
1779.00,0.0019
1778.00,0.0018
1777.00,0.0018
1776.00,0.0018
1775.00,0.0018
1774.00,0.0018
1773.00,0.0019
1772.00,0.0021
1771.00,0.0022
1770.00,0.0021
1769.00,0.0021
1768.00,0.0021
1767.00,0.0021
1766.00,0.0022
1765.00,0.0022
1764.00,0.0023
1763.00,0.0024
1762.00,0.0025
1761.00,0.0027
1760.00,0.0028
1759.00,0.0029
1758.00,0.0030
1757.00,0.0031
1756.00,0.0033
1755.00,0.0034
1754.00,0.0036
1753.00,0.0037
1752.00,0.0039
1751.00,0.0042
1750.00,0.0044
1749.00,0.0046
1748.00,0.0047
1747.00,0.0049
1746.00,0.0050
1745.00,0.0052
1744.00,0.0054
1743.00,0.0054
1742.00,0.0054
1741.00,0.0055
1740.00,0.0055
1739.00,0.0057
1738.00,0.0058
1737.00,0.0058
1736.00,0.0058
1735.00,0.0057
1734.00,0.0057
1733.00,0.0057
1732.00,0.0056
1731.00,0.0055
1730.00,0.0054
1729.00,0.0053
1728.00,0.0053
1727.00,0.0052
1726.00,0.0051
1725.00,0.0051
1724.00,0.0051
1723.00,0.0051
1722.00,0.0051
1721.00,0.0051
1720.00,0.0052
1719.00,0.0052
1718.00,0.0052
1717.00,0.0052
1716.00,0.0052
1715.00,0.0051
1714.00,0.0051
1713.00,0.0050
1712.00,0.0051
1711.00,0.0051
1710.00,0.0051
1709.00,0.0052
1708.00,0.0053
1707.00,0.0054
1706.00,0.0055
1705.00,0.0057
1704.00,0.0059
1703.00,0.0060
1702.00,0.0061
1701.00,0.0064
1700.00,0.0069
1699.00,0.0071
1698.00,0.0072
1697.00,0.0073
1696.00,0.0075
1695.00,0.0078
1694.00,0.0080
1693.00,0.0082
1692.00,0.0083
1691.00,0.0086
1690.00,0.0089
1689.00,0.0093
1688.00,0.0096
1687.00,0.0099
1686.00,0.0103
1685.00,0.0108
1684.00,0.0115
1683.00,0.0121
1682.00,0.0124
1681.00,0.0126
1680.00,0.0129
1679.00,0.0132
1678.00,0.0134
1677.00,0.0137
1676.00,0.0141
1675.00,0.0145
1674.00,0.0149
1673.00,0.0152
1672.00,0.0155
1671.00,0.0158
1670.00,0.0161
1669.00,0.0165
1668.00,0.0169
1667.00,0.0170
1666.00,0.0172
1665.00,0.0174
1664.00,0.0177
1663.00,0.0180
1662.00,0.0183
1661.00,0.0185
1660.00,0.0187
1659.00,0.0190
1658.00,0.0193
1657.00,0.0197
1656.00,0.0201
1655.00,0.0204
1654.00,0.0208
1653.00,0.0214
1652.00,0.0219
1651.00,0.0220
1650.00,0.0221
1649.00,0.0222
1648.00,0.0224
1647.00,0.0229
1646.00,0.0232
1645.00,0.0234
1644.00,0.0235
1643.00,0.0235
1642.00,0.0234
1641.00,0.0234
1640.00,0.0235
1639.00,0.0235
1638.00,0.0235
1637.00,0.0234
1636.00,0.0233
1635.00,0.0233
1634.00,0.0231
1633.00,0.0229
1632.00,0.0226
1631.00,0.0223
1630.00,0.0221
1629.00,0.0219
1628.00,0.0217
1627.00,0.0215
1626.00,0.0213
1625.00,0.0211
1624.00,0.0208
1623.00,0.0206
1622.00,0.0203
1621.00,0.0201
1620.00,0.0200
1619.00,0.0198
1618.00,0.0196
1617.00,0.0195
1616.00,0.0194
1615.00,0.0193
1614.00,0.0192
1613.00,0.0192
1612.00,0.0191
1611.00,0.0192
1610.00,0.0192
1609.00,0.0193
1608.00,0.0194
1607.00,0.0195
1606.00,0.0195
1605.00,0.0196
1604.00,0.0197
1603.00,0.0197
1602.00,0.0198
1601.00,0.0198
1600.00,0.0198
1599.00,0.0197
1598.00,0.0197
1597.00,0.0197
1596.00,0.0197
1595.00,0.0198
1594.00,0.0200
1593.00,0.0202
1592.00,0.0205
1591.00,0.0209
1590.00,0.0214
1589.00,0.0220
1588.00,0.0228
1587.00,0.0238
1586.00,0.0250
1585.00,0.0264
1584.00,0.0279
1583.00,0.0295
1582.00,0.0311
1581.00,0.0326
1580.00,0.0337
1579.00,0.0345
1578.00,0.0348
1577.00,0.0345
1576.00,0.0337
1575.00,0.0327
1574.00,0.0317
1573.00,0.0307
1572.00,0.0297
1571.00,0.0286
1570.00,0.0272
1569.00,0.0259
1568.00,0.0250
1567.00,0.0243
1566.00,0.0238
1565.00,0.0234
1564.00,0.0231
1563.00,0.0229
1562.00,0.0228
1561.00,0.0229
1560.00,0.0229
1559.00,0.0230
1558.00,0.0231
1557.00,0.0232
1556.00,0.0233
1555.00,0.0236
1554.00,0.0241
1553.00,0.0248
1552.00,0.0256
1551.00,0.0267
1550.00,0.0280
1549.00,0.0294
1548.00,0.0309
1547.00,0.0325
1546.00,0.0344
1545.00,0.0367
1544.00,0.0390
1543.00,0.0409
1542.00,0.0424
1541.00,0.0431
1540.00,0.0425
1539.00,0.0411
1538.00,0.0395
1537.00,0.0380
1536.00,0.0365
1535.00,0.0347
1534.00,0.0324
1533.00,0.0301
1532.00,0.0282
1531.00,0.0267
1530.00,0.0255
1529.00,0.0243
1528.00,0.0231
1527.00,0.0219
1526.00,0.0208
1525.00,0.0201
1524.00,0.0196
1523.00,0.0191
1522.00,0.0184
1521.00,0.0179
1520.00,0.0176
1519.00,0.0172
1518.00,0.0169
1517.00,0.0165
1516.00,0.0162
1515.00,0.0160
1514.00,0.0157
1513.00,0.0156
1512.00,0.0155
1511.00,0.0155
1510.00,0.0155
1509.00,0.0155
1508.00,0.0155
1507.00,0.0152
1506.00,0.0151
1505.00,0.0151
1504.00,0.0152
1503.00,0.0153
1502.00,0.0155
1501.00,0.0160
1500.00,0.0167
1499.00,0.0177
1498.00,0.0188
1497.00,0.0200
1496.00,0.0211
1495.00,0.0217
1494.00,0.0220
1493.00,0.0222
1492.00,0.0223
1491.00,0.0224
1490.00,0.0224
1489.00,0.0227
1488.00,0.0231
1487.00,0.0236
1486.00,0.0243
1485.00,0.0253
1484.00,0.0265
1483.00,0.0279
1482.00,0.0296
1481.00,0.0317
1480.00,0.0339
1479.00,0.0360
1478.00,0.0383
1477.00,0.0410
1476.00,0.0440
1475.00,0.0473
1474.00,0.0513
1473.00,0.0567
1472.00,0.0627
1471.00,0.0682
1470.00,0.0734
1469.00,0.0790
1468.00,0.0850
1467.00,0.0916
1466.00,0.0991
1465.00,0.1072
1464.00,0.1141
1463.00,0.1187
1462.00,0.1214
1461.00,0.1232
1460.00,0.1244
1459.00,0.1253
1458.00,0.1262
1457.00,0.1269
1456.00,0.1269
1455.00,0.1261
1454.00,0.1248
1453.00,0.1229
1452.00,0.1203
1451.00,0.1166
1450.00,0.1118
1449.00,0.1052
1448.00,0.0970
1447.00,0.0883
1446.00,0.0805
1445.00,0.0739
1444.00,0.0682
1443.00,0.0636
1442.00,0.0602
1441.00,0.0579
1440.00,0.0565
1439.00,0.0561
1438.00,0.0564
1437.00,0.0567
1436.00,0.0559
1435.00,0.0536
1434.00,0.0503
1433.00,0.0464
1432.00,0.0422
1431.00,0.0385
1430.00,0.0355
1429.00,0.0333
1428.00,0.0318
1427.00,0.0310
1426.00,0.0306
1425.00,0.0303
1424.00,0.0301
1423.00,0.0302
1422.00,0.0303
1421.00,0.0302
1420.00,0.0300
1419.00,0.0297
1418.00,0.0292
1417.00,0.0286
1416.00,0.0279
1415.00,0.0272
1414.00,0.0266
1413.00,0.0260
1412.00,0.0252
1411.00,0.0246
1410.00,0.0241
1409.00,0.0235
1408.00,0.0230
1407.00,0.0226
1406.00,0.0222
1405.00,0.0218
1404.00,0.0214
1403.00,0.0211
1402.00,0.0210
1401.00,0.0210
1400.00,0.0208
1399.00,0.0208
1398.00,0.0208
1397.00,0.0208
1396.00,0.0208
1395.00,0.0209
1394.00,0.0212
1393.00,0.0214
1392.00,0.0218
1391.00,0.0224
1390.00,0.0233
1389.00,0.0247
1388.00,0.0267
1387.00,0.0296
1386.00,0.0337
1385.00,0.0391
1384.00,0.0465
1383.00,0.0570
1382.00,0.0711
1381.00,0.0892
1380.00,0.1111
1379.00,0.1353
1378.00,0.1576
1377.00,0.1725
1376.00,0.1758
1375.00,0.1652
1374.00,0.1440
1373.00,0.1197
1372.00,0.0982
1371.00,0.0808
1370.00,0.0670
1369.00,0.0566
1368.00,0.0493
1367.00,0.0447
1366.00,0.0422
1365.00,0.0411
1364.00,0.0411
1363.00,0.0421
1362.00,0.0438
1361.00,0.0456
1360.00,0.0469
1359.00,0.0474
1358.00,0.0466
1357.00,0.0446
1356.00,0.0416
1355.00,0.0382
1354.00,0.0349
1353.00,0.0320
1352.00,0.0297
1351.00,0.0278
1350.00,0.0262
1349.00,0.0248
1348.00,0.0237
1347.00,0.0227
1346.00,0.0218
1345.00,0.0211
1344.00,0.0206
1343.00,0.0201
1342.00,0.0197
1341.00,0.0193
1340.00,0.0189
1339.00,0.0186
1338.00,0.0184
1337.00,0.0182
1336.00,0.0182
1335.00,0.0182
1334.00,0.0184
1333.00,0.0186
1332.00,0.0189
1331.00,0.0192
1330.00,0.0192
1329.00,0.0190
1328.00,0.0187
1327.00,0.0183
1326.00,0.0178
1325.00,0.0174
1324.00,0.0170
1323.00,0.0166
1322.00,0.0164
1321.00,0.0162
1320.00,0.0161
1319.00,0.0159
1318.00,0.0158
1317.00,0.0155
1316.00,0.0153
1315.00,0.0151
1314.00,0.0150
1313.00,0.0150
1312.00,0.0151
1311.00,0.0153
1310.00,0.0156
1309.00,0.0162
1308.00,0.0171
1307.00,0.0184
1306.00,0.0196
1305.00,0.0206
1304.00,0.0210
1303.00,0.0208
1302.00,0.0203
1301.00,0.0199
1300.00,0.0195
1299.00,0.0194
1298.00,0.0193
1297.00,0.0193
1296.00,0.0191
1295.00,0.0189
1294.00,0.0186
1293.00,0.0183
1292.00,0.0179
1291.00,0.0175
1290.00,0.0171
1289.00,0.0167
1288.00,0.0163
1287.00,0.0159
1286.00,0.0156
1285.00,0.0153
1284.00,0.0151
1283.00,0.0149
1282.00,0.0147
1281.00,0.0146
1280.00,0.0145
1279.00,0.0144
1278.00,0.0143
1277.00,0.0142
1276.00,0.0140
1275.00,0.0140
1274.00,0.0140
1273.00,0.0140
1272.00,0.0140
1271.00,0.0141
1270.00,0.0143
1269.00,0.0145
1268.00,0.0148
1267.00,0.0152
1266.00,0.0156
1265.00,0.0161
1264.00,0.0166
1263.00,0.0170
1262.00,0.0175
1261.00,0.0181
1260.00,0.0187
1259.00,0.0194
1258.00,0.0201
1257.00,0.0207
1256.00,0.0208
1255.00,0.0205
1254.00,0.0198
1253.00,0.0189
1252.00,0.0179
1251.00,0.0172
1250.00,0.0166
1249.00,0.0161
1248.00,0.0158
1247.00,0.0156
1246.00,0.0154
1245.00,0.0153
1244.00,0.0152
1243.00,0.0152
1242.00,0.0152
1241.00,0.0152
1240.00,0.0152
1239.00,0.0153
1238.00,0.0153
1237.00,0.0153
1236.00,0.0153
1235.00,0.0154
1234.00,0.0154
1233.00,0.0155
1232.00,0.0156
1231.00,0.0157
1230.00,0.0159
1229.00,0.0161
1228.00,0.0163
1227.00,0.0165
1226.00,0.0168
1225.00,0.0172
1224.00,0.0175
1223.00,0.0179
1222.00,0.0183
1221.00,0.0186
1220.00,0.0188
1219.00,0.0188
1218.00,0.0187
1217.00,0.0185
1216.00,0.0182
1215.00,0.0179
1214.00,0.0176
1213.00,0.0173
1212.00,0.0170
1211.00,0.0167
1210.00,0.0165
1209.00,0.0163
1208.00,0.0162
1207.00,0.0161
1206.00,0.0161
1205.00,0.0161
1204.00,0.0161
1203.00,0.0161
1202.00,0.0162
1201.00,0.0163
1200.00,0.0165
1199.00,0.0166
1198.00,0.0167
1197.00,0.0168
1196.00,0.0168
1195.00,0.0169
1194.00,0.0170
1193.00,0.0170
1192.00,0.0170
1191.00,0.0170
1190.00,0.0171
1189.00,0.0171
1188.00,0.0170
1187.00,0.0170
1186.00,0.0170
1185.00,0.0171
1184.00,0.0171
1183.00,0.0172
1182.00,0.0174
1181.00,0.0177
1180.00,0.0181
1179.00,0.0186
1178.00,0.0192
1177.00,0.0200
1176.00,0.0212
1175.00,0.0228
1174.00,0.0249
1173.00,0.0276
1172.00,0.0307
1171.00,0.0341
1170.00,0.0373
1169.00,0.0397
1168.00,0.0410
1167.00,0.0410
1166.00,0.0400
1165.00,0.0382
1164.00,0.0363
1163.00,0.0345
1162.00,0.0330
1161.00,0.0317
1160.00,0.0307
1159.00,0.0300
1158.00,0.0295
1157.00,0.0291
1156.00,0.0289
1155.00,0.0288
1154.00,0.0286
1153.00,0.0284
1152.00,0.0280
1151.00,0.0275
1150.00,0.0268
1149.00,0.0259
1148.00,0.0251
1147.00,0.0242
1146.00,0.0235
1145.00,0.0227
1144.00,0.0221
1143.00,0.0215
1142.00,0.0210
1141.00,0.0205
1140.00,0.0200
1139.00,0.0197
1138.00,0.0193
1137.00,0.0191
1136.00,0.0190
1135.00,0.0189
1134.00,0.0188
1133.00,0.0189
1132.00,0.0191
1131.00,0.0193
1130.00,0.0196
1129.00,0.0198
1128.00,0.0201
1127.00,0.0203
1126.00,0.0206
1125.00,0.0209
1124.00,0.0210
1123.00,0.0211
1122.00,0.0211
1121.00,0.0211
1120.00,0.0212
1119.00,0.0214
1118.00,0.0217
1117.00,0.0220
1116.00,0.0223
1115.00,0.0226
1114.00,0.0227
1113.00,0.0228
1112.00,0.0229
1111.00,0.0231
1110.00,0.0232
1109.00,0.0234
1108.00,0.0237
1107.00,0.0241
1106.00,0.0245
1105.00,0.0251
1104.00,0.0255
1103.00,0.0257
1102.00,0.0256
1101.00,0.0252
1100.00,0.0247
1099.00,0.0242
1098.00,0.0237
1097.00,0.0234
1096.00,0.0231
1095.00,0.0229
1094.00,0.0225
1093.00,0.0221
1092.00,0.0216
1091.00,0.0212
1090.00,0.0207
1089.00,0.0204
1088.00,0.0201
1087.00,0.0198
1086.00,0.0196
1085.00,0.0193
1084.00,0.0191
1083.00,0.0190
1082.00,0.0188
1081.00,0.0186
1080.00,0.0184
1079.00,0.0182
1078.00,0.0180
1077.00,0.0179
1076.00,0.0178
1075.00,0.0176
1074.00,0.0174
1073.00,0.0172
1072.00,0.0170
1071.00,0.0168
1070.00,0.0167
1069.00,0.0165
1068.00,0.0163
1067.00,0.0162
1066.00,0.0161
1065.00,0.0161
1064.00,0.0161
1063.00,0.0160
1062.00,0.0160
1061.00,0.0160
1060.00,0.0160
1059.00,0.0160
1058.00,0.0160
1057.00,0.0161
1056.00,0.0161
1055.00,0.0162
1054.00,0.0163
1053.00,0.0164
1052.00,0.0165
1051.00,0.0168
1050.00,0.0171
1049.00,0.0174
1048.00,0.0178
1047.00,0.0182
1046.00,0.0185
1045.00,0.0187
1044.00,0.0188
1043.00,0.0187
1042.00,0.0185
1041.00,0.0184
1040.00,0.0185
1039.00,0.0187
1038.00,0.0189
1037.00,0.0191
1036.00,0.0191
1035.00,0.0190
1034.00,0.0186
1033.00,0.0182
1032.00,0.0176
1031.00,0.0171
1030.00,0.0166
1029.00,0.0162
1028.00,0.0159
1027.00,0.0156
1026.00,0.0155
1025.00,0.0154
1024.00,0.0154
1023.00,0.0154
1022.00,0.0156
1021.00,0.0157
1020.00,0.0159
1019.00,0.0161
1018.00,0.0163
1017.00,0.0165
1016.00,0.0169
1015.00,0.0173
1014.00,0.0179
1013.00,0.0184
1012.00,0.0188
1011.00,0.0190
1010.00,0.0190
1009.00,0.0189
1008.00,0.0188
1007.00,0.0190
1006.00,0.0194
1005.00,0.0203
1004.00,0.0217
1003.00,0.0240
1002.00,0.0272
1001.00,0.0312
1000.00,0.0354
999.00,0.0389
998.00,0.0405
997.00,0.0397
996.00,0.0366
995.00,0.0324
994.00,0.0279
993.00,0.0240
992.00,0.0210
991.00,0.0189
990.00,0.0174
989.00,0.0164
988.00,0.0157
987.00,0.0153
986.00,0.0152
985.00,0.0152
984.00,0.0156
983.00,0.0163
982.00,0.0174
981.00,0.0190
980.00,0.0214
979.00,0.0245
978.00,0.0285
977.00,0.0332
976.00,0.0382
975.00,0.0427
974.00,0.0459
973.00,0.0467
972.00,0.0448
971.00,0.0404
970.00,0.0348
969.00,0.0293
968.00,0.0246
967.00,0.0211
966.00,0.0187
965.00,0.0169
964.00,0.0156
963.00,0.0146
962.00,0.0139
961.00,0.0133
960.00,0.0128
959.00,0.0124
958.00,0.0122
957.00,0.0120
956.00,0.0118
955.00,0.0116
954.00,0.0114
953.00,0.0112
952.00,0.0110
951.00,0.0109
950.00,0.0107
949.00,0.0105
948.00,0.0105
947.00,0.0107
946.00,0.0109
945.00,0.0111
944.00,0.0113
943.00,0.0116
942.00,0.0119
941.00,0.0120
940.00,0.0120
939.00,0.0117
938.00,0.0113
937.00,0.0109
936.00,0.0105
935.00,0.0101
934.00,0.0098
933.00,0.0095
932.00,0.0092
931.00,0.0091
930.00,0.0091
929.00,0.0091
928.00,0.0090
927.00,0.0089
926.00,0.0088
925.00,0.0087
924.00,0.0086
923.00,0.0086
922.00,0.0085
921.00,0.0085
920.00,0.0085
919.00,0.0086
918.00,0.0087
917.00,0.0087
916.00,0.0088
915.00,0.0088
914.00,0.0089
913.00,0.0091
912.00,0.0092
911.00,0.0094
910.00,0.0096
909.00,0.0098
908.00,0.0101
907.00,0.0105
906.00,0.0111
905.00,0.0120
904.00,0.0132
903.00,0.0148
902.00,0.0164
901.00,0.0179
900.00,0.0189
899.00,0.0190
898.00,0.0183
897.00,0.0170
896.00,0.0155
895.00,0.0141
894.00,0.0129
893.00,0.0119
892.00,0.0113
891.00,0.0108
890.00,0.0106
889.00,0.0104
888.00,0.0102
887.00,0.0102
886.00,0.0103
885.00,0.0104
884.00,0.0105
883.00,0.0107
882.00,0.0110
881.00,0.0112
880.00,0.0115
879.00,0.0118
878.00,0.0120
877.00,0.0122
876.00,0.0122
875.00,0.0121
874.00,0.0119
873.00,0.0115
872.00,0.0112
871.00,0.0110
870.00,0.0109
869.00,0.0108
868.00,0.0107
867.00,0.0106
866.00,0.0107
865.00,0.0108
864.00,0.0109
863.00,0.0109
862.00,0.0110
861.00,0.0110
860.00,0.0112
859.00,0.0115
858.00,0.0117
857.00,0.0119
856.00,0.0121
855.00,0.0123
854.00,0.0126
853.00,0.0128
852.00,0.0132
851.00,0.0137
850.00,0.0144
849.00,0.0152
848.00,0.0163
847.00,0.0178
846.00,0.0202
845.00,0.0239
844.00,0.0291
843.00,0.0348
842.00,0.0391
841.00,0.0400
840.00,0.0371
839.00,0.0318
838.00,0.0264
837.00,0.0222
836.00,0.0195
835.00,0.0178
834.00,0.0169
833.00,0.0163
832.00,0.0160
831.00,0.0159
830.00,0.0159
829.00,0.0158
828.00,0.0156
827.00,0.0153
826.00,0.0151
825.00,0.0150
824.00,0.0150
823.00,0.0150
822.00,0.0150
821.00,0.0149
820.00,0.0148
819.00,0.0148
818.00,0.0151
817.00,0.0155
816.00,0.0163
815.00,0.0173
814.00,0.0187
813.00,0.0203
812.00,0.0219
811.00,0.0234
810.00,0.0245
809.00,0.0250
808.00,0.0248
807.00,0.0239
806.00,0.0225
805.00,0.0208
804.00,0.0192
803.00,0.0179
802.00,0.0168
801.00,0.0160
800.00,0.0153
799.00,0.0148
798.00,0.0144
797.00,0.0140
796.00,0.0138
795.00,0.0136
794.00,0.0133
793.00,0.0131
792.00,0.0129
791.00,0.0127
790.00,0.0124
789.00,0.0120
788.00,0.0117
787.00,0.0113
786.00,0.0111
785.00,0.0109
784.00,0.0108
783.00,0.0106
782.00,0.0105
781.00,0.0104
780.00,0.0104
779.00,0.0104
778.00,0.0104
777.00,0.0103
776.00,0.0101
775.00,0.0101
774.00,0.0102
773.00,0.0104
772.00,0.0106
771.00,0.0107
770.00,0.0109
769.00,0.0109
768.00,0.0110
767.00,0.0110
766.00,0.0109
765.00,0.0109
764.00,0.0108
763.00,0.0108
762.00,0.0109
761.00,0.0110
760.00,0.0111
759.00,0.0111
758.00,0.0111
757.00,0.0111
756.00,0.0111
755.00,0.0112
754.00,0.0113
753.00,0.0116
752.00,0.0118
751.00,0.0121
750.00,0.0122
749.00,0.0123
748.00,0.0124
747.00,0.0125
746.00,0.0127
745.00,0.0129
744.00,0.0131
743.00,0.0133
742.00,0.0135
741.00,0.0138
740.00,0.0142
739.00,0.0146
738.00,0.0150
737.00,0.0154
736.00,0.0157
735.00,0.0160
734.00,0.0163
733.00,0.0170
732.00,0.0179
731.00,0.0189
730.00,0.0199
729.00,0.0206
728.00,0.0209
727.00,0.0210
726.00,0.0210
725.00,0.0212
724.00,0.0215
723.00,0.0221
722.00,0.0226
721.00,0.0230
720.00,0.0229
719.00,0.0221
718.00,0.0207
717.00,0.0191
716.00,0.0178
715.00,0.0168
714.00,0.0162
713.00,0.0158
712.00,0.0156
711.00,0.0155
710.00,0.0154
709.00,0.0152
708.00,0.0150
707.00,0.0149
706.00,0.0147
705.00,0.0146
704.00,0.0145
703.00,0.0144
702.00,0.0143
701.00,0.0141
700.00,0.0138
699.00,0.0134
698.00,0.0131
697.00,0.0129
696.00,0.0129
695.00,0.0130
694.00,0.0132
693.00,0.0133
692.00,0.0133
691.00,0.0134
690.00,0.0134
689.00,0.0135
688.00,0.0135
687.00,0.0135
686.00,0.0134
685.00,0.0133
684.00,0.0134
683.00,0.0134
682.00,0.0133
681.00,0.0132
680.00,0.0131
679.00,0.0131
678.00,0.0133
677.00,0.0135
676.00,0.0136
675.00,0.0137
674.00,0.0139
673.00,0.0141
672.00,0.0143
671.00,0.0142
670.00,0.0138
669.00,0.0133
668.00,0.0129
667.00,0.0130
666.00,0.0133
665.00,0.0136
664.00,0.0136
663.00,0.0135
662.00,0.0134
661.00,0.0133
660.00,0.0131
659.00,0.0130
658.00,0.0128
657.00,0.0126
656.00,0.0125
655.00,0.0124
654.00,0.0124
653.00,0.0123
652.00,0.0122
651.00,0.0121
650.00,0.0121
649.00,0.0121
648.00,0.0121
647.00,0.0122
646.00,0.0122
645.00,0.0122
644.00,0.0123
643.00,0.0124
642.00,0.0126
641.00,0.0128
640.00,0.0129
639.00,0.0128
638.00,0.0127
637.00,0.0125
636.00,0.0125
635.00,0.0127
634.00,0.0128
633.00,0.0130
632.00,0.0132
631.00,0.0134
630.00,0.0134
629.00,0.0133
628.00,0.0132
627.00,0.0131
626.00,0.0132
625.00,0.0133
624.00,0.0134
623.00,0.0134
622.00,0.0135
621.00,0.0135
620.00,0.0136
619.00,0.0134
618.00,0.0132
617.00,0.0129
616.00,0.0127
615.00,0.0127
614.00,0.0127
613.00,0.0129
612.00,0.0131
611.00,0.0133
610.00,0.0134
609.00,0.0135
608.00,0.0135
607.00,0.0135
606.00,0.0134
605.00,0.0133
604.00,0.0130
603.00,0.0126
602.00,0.0122
601.00,0.0121
600.00,0.0122
599.00,0.0124
598.00,0.0126
597.00,0.0129
596.00,0.0132
595.00,0.0136
594.00,0.0136
593.00,0.0133
592.00,0.0128
591.00,0.0124
590.00,0.0123
589.00,0.0125
588.00,0.0129
587.00,0.0133
586.00,0.0137
585.00,0.0141
584.00,0.0144
583.00,0.0145
582.00,0.0144
581.00,0.0142
580.00,0.0139
579.00,0.0137
578.00,0.0135
577.00,0.0134
576.00,0.0132
575.00,0.0131
574.00,0.0130
573.00,0.0130
572.00,0.0130
571.00,0.0130
570.00,0.0129
569.00,0.0129
568.00,0.0129
567.00,0.0130
566.00,0.0133
565.00,0.0135
564.00,0.0134
563.00,0.0133
562.00,0.0131
561.00,0.0131
560.00,0.0131
559.00,0.0132
558.00,0.0131
557.00,0.0128
556.00,0.0126
555.00,0.0126
554.00,0.0127
553.00,0.0128
552.00,0.0128
551.00,0.0127
550.00,0.0127
549.00,0.0128
548.00,0.0129
547.00,0.0128
546.00,0.0125
545.00,0.0122
544.00,0.0119
543.00,0.0117
542.00,0.0115
541.00,0.0114
540.00,0.0117
539.00,0.0122
538.00,0.0128
537.00,0.0133
536.00,0.0135
535.00,0.0135
534.00,0.0134
533.00,0.0134
532.00,0.0137
531.00,0.0140
530.00,0.0141
529.00,0.0138
528.00,0.0134
527.00,0.0131
526.00,0.0132
525.00,0.0135
524.00,0.0136
523.00,0.0136
522.00,0.0133
521.00,0.0129
520.00,0.0124
519.00,0.0121
518.00,0.0121
517.00,0.0122
516.00,0.0123
515.00,0.0124
514.00,0.0124
513.00,0.0124
512.00,0.0123
511.00,0.0125
510.00,0.0129
509.00,0.0132
508.00,0.0133
507.00,0.0132
506.00,0.0130
505.00,0.0129
504.00,0.0129
503.00,0.0128
502.00,0.0128
501.00,0.0129
500.00,0.0129
499.00,0.0126
498.00,0.0119
497.00,0.0111
496.00,0.0107
495.00,0.0107
494.00,0.0106
493.00,0.0106
492.00,0.0109
491.00,0.0117
490.00,0.0127
489.00,0.0134
488.00,0.0138
487.00,0.0140
486.00,0.0140
485.00,0.0138
484.00,0.0135
483.00,0.0135
482.00,0.0137
481.00,0.0138
480.00,0.0140
479.00,0.0142
478.00,0.0145
477.00,0.0148
476.00,0.0147
475.00,0.0147
474.00,0.0150
473.00,0.0157
472.00,0.0162
471.00,0.0160
470.00,0.0150
469.00,0.0141
468.00,0.0140
467.00,0.0148
466.00,0.0157
465.00,0.0159
464.00,0.0155
463.00,0.0153
462.00,0.0159
461.00,0.0172
460.00,0.0184
459.00,0.0189
458.00,0.0179
457.00,0.0163
456.00,0.0155
455.00,0.0160
454.00,0.0170
453.00,0.0173
452.00,0.0167
451.00,0.0162
450.00,0.0162
