Created as New Dataset,Sample 135 By Administrator Date Friday, September 05 2025
cm-1,A
4000.00,0.0011
3999.00,0.0011
3998.00,0.0011
3997.00,0.0011
3996.00,0.0011
3995.00,0.0011
3994.00,0.0011
3993.00,0.0011
3992.00,0.0011
3991.00,0.0011
3990.00,0.0011
3989.00,0.0011
3988.00,0.0010
3987.00,0.0010
3986.00,0.0010
3985.00,0.0009
3984.00,0.0009
3983.00,0.0009
3982.00,0.0009
3981.00,0.0009
3980.00,0.0009
3979.00,0.0009
3978.00,0.0009
3977.00,0.0009
3976.00,0.0009
3975.00,0.0009
3974.00,0.0009
3973.00,0.0009
3972.00,0.0009
3971.00,0.0009
3970.00,0.0009
3969.00,0.0009
3968.00,0.0009
3967.00,0.0009
3966.00,0.0008
3965.00,0.0008
3964.00,0.0008
3963.00,0.0008
3962.00,0.0008
3961.00,0.0009
3960.00,0.0009
3959.00,0.0009
3958.00,0.0008
3957.00,0.0008
3956.00,0.0008
3955.00,0.0008
3954.00,0.0008
3953.00,0.0008
3952.00,0.0009
3951.00,0.0009
3950.00,0.0009
3949.00,0.0009
3948.00,0.0008
3947.00,0.0008
3946.00,0.0008
3945.00,0.0008
3944.00,0.0008
3943.00,0.0008
3942.00,0.0008
3941.00,0.0009
3940.00,0.0008
3939.00,0.0008
3938.00,0.0008
3937.00,0.0008
3936.00,0.0008
3935.00,0.0008
3934.00,0.0008
3933.00,0.0008
3932.00,0.0008
3931.00,0.0009
3930.00,0.0009
3929.00,0.0009
3928.00,0.0009
3927.00,0.0010
3926.00,0.0010
3925.00,0.0010
3924.00,0.0010
3923.00,0.0009
3922.00,0.0009
3921.00,0.0009
3920.00,0.0008
3919.00,0.0008
3918.00,0.0008
3917.00,0.0008
3916.00,0.0008
3915.00,0.0008
3914.00,0.0008
3913.00,0.0008
3912.00,0.0008
3911.00,0.0008
3910.00,0.0008
3909.00,0.0008
3908.00,0.0009
3907.00,0.0009
3906.00,0.0008
3905.00,0.0008
3904.00,0.0008
3903.00,0.0008
3902.00,0.0008
3901.00,0.0008
3900.00,0.0008
3899.00,0.0008
3898.00,0.0009
3897.00,0.0009
3896.00,0.0009
3895.00,0.0009
3894.00,0.0009
3893.00,0.0009
3892.00,0.0009
3891.00,0.0008
3890.00,0.0008
3889.00,0.0008
3888.00,0.0009
3887.00,0.0009
3886.00,0.0009
3885.00,0.0009
3884.00,0.0009
3883.00,0.0009
3882.00,0.0009
3881.00,0.0008
3880.00,0.0008
3879.00,0.0008
3878.00,0.0008
3877.00,0.0008
3876.00,0.0007
3875.00,0.0007
3874.00,0.0007
3873.00,0.0007
3872.00,0.0008
3871.00,0.0008
3870.00,0.0008
3869.00,0.0009
3868.00,0.0009
3867.00,0.0009
3866.00,0.0008
3865.00,0.0007
3864.00,0.0007
3863.00,0.0007
3862.00,0.0007
3861.00,0.0007
3860.00,0.0007
3859.00,0.0007
3858.00,0.0008
3857.00,0.0009
3856.00,0.0009
3855.00,0.0009
3854.00,0.0009
3853.00,0.0009
3852.00,0.0009
3851.00,0.0009
3850.00,0.0008
3849.00,0.0008
3848.00,0.0008
3847.00,0.0008
3846.00,0.0008
3845.00,0.0008
3844.00,0.0008
3843.00,0.0008
3842.00,0.0009
3841.00,0.0009
3840.00,0.0009
3839.00,0.0010
3838.00,0.0010
3837.00,0.0010
3836.00,0.0010
3835.00,0.0009
3834.00,0.0008
3833.00,0.0008
3832.00,0.0008
3831.00,0.0008
3830.00,0.0008
3829.00,0.0008
3828.00,0.0007
3827.00,0.0007
3826.00,0.0007
3825.00,0.0008
3824.00,0.0008
3823.00,0.0008
3822.00,0.0008
3821.00,0.0007
3820.00,0.0007
3819.00,0.0008
3818.00,0.0008
3817.00,0.0008
3816.00,0.0009
3815.00,0.0009
3814.00,0.0009
3813.00,0.0009
3812.00,0.0008
3811.00,0.0008
3810.00,0.0008
3809.00,0.0009
3808.00,0.0008
3807.00,0.0008
3806.00,0.0008
3805.00,0.0009
3804.00,0.0009
3803.00,0.0009
3802.00,0.0009
3801.00,0.0009
3800.00,0.0009
3799.00,0.0009
3798.00,0.0008
3797.00,0.0008
3796.00,0.0008
3795.00,0.0008
3794.00,0.0008
3793.00,0.0008
3792.00,0.0007
3791.00,0.0007
3790.00,0.0008
3789.00,0.0008
3788.00,0.0008
3787.00,0.0008
3786.00,0.0008
3785.00,0.0007
3784.00,0.0007
3783.00,0.0007
3782.00,0.0007
3781.00,0.0008
3780.00,0.0008
3779.00,0.0008
3778.00,0.0009
3777.00,0.0009
3776.00,0.0009
3775.00,0.0009
3774.00,0.0009
3773.00,0.0009
3772.00,0.0009
3771.00,0.0009
3770.00,0.0009
3769.00,0.0009
3768.00,0.0008
3767.00,0.0008
3766.00,0.0007
3765.00,0.0007
3764.00,0.0008
3763.00,0.0008
3762.00,0.0008
3761.00,0.0007
3760.00,0.0007
3759.00,0.0008
3758.00,0.0008
3757.00,0.0008
3756.00,0.0009
3755.00,0.0009
3754.00,0.0009
3753.00,0.0009
3752.00,0.0010
3751.00,0.0010
3750.00,0.0011
3749.00,0.0011
3748.00,0.0011
3747.00,0.0011
3746.00,0.0011
3745.00,0.0010
3744.00,0.0009
3743.00,0.0009
3742.00,0.0009
3741.00,0.0008
3740.00,0.0008
3739.00,0.0008
3738.00,0.0008
3737.00,0.0008
3736.00,0.0008
3735.00,0.0008
3734.00,0.0009
3733.00,0.0008
3732.00,0.0008
3731.00,0.0008
3730.00,0.0007
3729.00,0.0007
3728.00,0.0007
3727.00,0.0006
3726.00,0.0006
3725.00,0.0006
3724.00,0.0006
3723.00,0.0006
3722.00,0.0006
3721.00,0.0007
3720.00,0.0007
3719.00,0.0007
3718.00,0.0007
3717.00,0.0007
3716.00,0.0007
3715.00,0.0007
3714.00,0.0007
3713.00,0.0007
3712.00,0.0008
3711.00,0.0008
3710.00,0.0008
3709.00,0.0008
3708.00,0.0008
3707.00,0.0008
3706.00,0.0008
3705.00,0.0008
3704.00,0.0008
3703.00,0.0008
3702.00,0.0007
3701.00,0.0007
3700.00,0.0007
3699.00,0.0007
3698.00,0.0007
3697.00,0.0007
3696.00,0.0007
3695.00,0.0007
3694.00,0.0008
3693.00,0.0008
3692.00,0.0008
3691.00,0.0009
3690.00,0.0009
3689.00,0.0009
3688.00,0.0009
3687.00,0.0009
3686.00,0.0009
3685.00,0.0009
3684.00,0.0009
3683.00,0.0009
3682.00,0.0009
3681.00,0.0009
3680.00,0.0009
3679.00,0.0009
3678.00,0.0009
3677.00,0.0009
3676.00,0.0010
3675.00,0.0010
3674.00,0.0011
3673.00,0.0012
3672.00,0.0012
3671.00,0.0012
3670.00,0.0011
3669.00,0.0012
3668.00,0.0012
3667.00,0.0011
3666.00,0.0010
3665.00,0.0010
3664.00,0.0010
3663.00,0.0009
3662.00,0.0009
3661.00,0.0009
3660.00,0.0010
3659.00,0.0010
3658.00,0.0009
3657.00,0.0009
3656.00,0.0009
3655.00,0.0010
3654.00,0.0010
3653.00,0.0010
3652.00,0.0010
3651.00,0.0010
3650.00,0.0010
3649.00,0.0011
3648.00,0.0012
3647.00,0.0012
3646.00,0.0011
3645.00,0.0011
3644.00,0.0011
3643.00,0.0012
3642.00,0.0012
3641.00,0.0012
3640.00,0.0013
3639.00,0.0013
3638.00,0.0014
3637.00,0.0014
3636.00,0.0014
3635.00,0.0014
3634.00,0.0014
3633.00,0.0015
3632.00,0.0014
3631.00,0.0014
3630.00,0.0014
3629.00,0.0015
3628.00,0.0015
3627.00,0.0016
3626.00,0.0016
3625.00,0.0016
3624.00,0.0016
3623.00,0.0015
3622.00,0.0016
3621.00,0.0016
3620.00,0.0016
3619.00,0.0016
3618.00,0.0017
3617.00,0.0018
3616.00,0.0019
3615.00,0.0019
3614.00,0.0019
3613.00,0.0018
3612.00,0.0018
3611.00,0.0018
3610.00,0.0018
3609.00,0.0019
3608.00,0.0020
3607.00,0.0022
3606.00,0.0023
3605.00,0.0023
3604.00,0.0023
3603.00,0.0022
3602.00,0.0022
3601.00,0.0021
3600.00,0.0022
3599.00,0.0022
3598.00,0.0023
3597.00,0.0024
3596.00,0.0024
3595.00,0.0024
3594.00,0.0024
3593.00,0.0025
3592.00,0.0026
3591.00,0.0026
3590.00,0.0027
3589.00,0.0027
3588.00,0.0027
3587.00,0.0028
3586.00,0.0028
3585.00,0.0028
3584.00,0.0028
3583.00,0.0029
3582.00,0.0029
3581.00,0.0029
3580.00,0.0030
3579.00,0.0030
3578.00,0.0031
3577.00,0.0031
3576.00,0.0032
3575.00,0.0032
3574.00,0.0032
3573.00,0.0032
3572.00,0.0033
3571.00,0.0033
3570.00,0.0033
3569.00,0.0033
3568.00,0.0033
3567.00,0.0034
3566.00,0.0035
3565.00,0.0036
3564.00,0.0037
3563.00,0.0037
3562.00,0.0037
3561.00,0.0038
3560.00,0.0038
3559.00,0.0039
3558.00,0.0039
3557.00,0.0040
3556.00,0.0040
3555.00,0.0041
3554.00,0.0042
3553.00,0.0042
3552.00,0.0042
3551.00,0.0042
3550.00,0.0042
3549.00,0.0042
3548.00,0.0043
3547.00,0.0043
3546.00,0.0044
3545.00,0.0045
3544.00,0.0046
3543.00,0.0046
3542.00,0.0047
3541.00,0.0047
3540.00,0.0048
3539.00,0.0048
3538.00,0.0049
3537.00,0.0049
3536.00,0.0050
3535.00,0.0050
3534.00,0.0051
3533.00,0.0051
3532.00,0.0052
3531.00,0.0053
3530.00,0.0053
3529.00,0.0054
3528.00,0.0054
3527.00,0.0054
3526.00,0.0055
3525.00,0.0055
3524.00,0.0056
3523.00,0.0057
3522.00,0.0057
3521.00,0.0058
3520.00,0.0058
3519.00,0.0059
3518.00,0.0059
3517.00,0.0060
3516.00,0.0060
3515.00,0.0061
3514.00,0.0061
3513.00,0.0061
3512.00,0.0062
3511.00,0.0062
3510.00,0.0063
3509.00,0.0064
3508.00,0.0064
3507.00,0.0065
3506.00,0.0066
3505.00,0.0066
3504.00,0.0066
3503.00,0.0067
3502.00,0.0067
3501.00,0.0068
3500.00,0.0068
3499.00,0.0069
3498.00,0.0070
3497.00,0.0071
3496.00,0.0071
3495.00,0.0072
3494.00,0.0072
3493.00,0.0072
3492.00,0.0072
3491.00,0.0073
3490.00,0.0073
3489.00,0.0074
3488.00,0.0075
3487.00,0.0076
3486.00,0.0076
3485.00,0.0077
3484.00,0.0078
3483.00,0.0078
3482.00,0.0079
3481.00,0.0080
3480.00,0.0080
3479.00,0.0080
3478.00,0.0080
3477.00,0.0080
3476.00,0.0080
3475.00,0.0081
3474.00,0.0081
3473.00,0.0082
3472.00,0.0083
3471.00,0.0084
3470.00,0.0084
3469.00,0.0084
3468.00,0.0084
3467.00,0.0085
3466.00,0.0086
3465.00,0.0086
3464.00,0.0086
3463.00,0.0086
3462.00,0.0087
3461.00,0.0087
3460.00,0.0088
3459.00,0.0088
3458.00,0.0089
3457.00,0.0090
3456.00,0.0090
3455.00,0.0090
3454.00,0.0091
3453.00,0.0091
3452.00,0.0091
3451.00,0.0091
3450.00,0.0092
3449.00,0.0092
3448.00,0.0092
3447.00,0.0093
3446.00,0.0093
3445.00,0.0094
3444.00,0.0094
3443.00,0.0095
3442.00,0.0095
3441.00,0.0096
3440.00,0.0096
3439.00,0.0096
3438.00,0.0097
3437.00,0.0097
3436.00,0.0097
3435.00,0.0097
3434.00,0.0098
3433.00,0.0098
3432.00,0.0098
3431.00,0.0099
3430.00,0.0099
3429.00,0.0100
3428.00,0.0100
3427.00,0.0101
3426.00,0.0101
3425.00,0.0102
3424.00,0.0102
3423.00,0.0102
3422.00,0.0102
3421.00,0.0103
3420.00,0.0103
3419.00,0.0104
3418.00,0.0105
3417.00,0.0105
3416.00,0.0106
3415.00,0.0106
3414.00,0.0106
3413.00,0.0106
3412.00,0.0106
3411.00,0.0107
3410.00,0.0108
3409.00,0.0108
3408.00,0.0109
3407.00,0.0109
3406.00,0.0109
3405.00,0.0110
3404.00,0.0110
3403.00,0.0111
3402.00,0.0112
3401.00,0.0112
3400.00,0.0112
3399.00,0.0113
3398.00,0.0113
3397.00,0.0114
3396.00,0.0114
3395.00,0.0114
3394.00,0.0114
3393.00,0.0114
3392.00,0.0114
3391.00,0.0113
3390.00,0.0113
3389.00,0.0113
3388.00,0.0113
3387.00,0.0113
3386.00,0.0113
3385.00,0.0113
3384.00,0.0113
3383.00,0.0113
3382.00,0.0113
3381.00,0.0113
3380.00,0.0112
3379.00,0.0112
3378.00,0.0112
3377.00,0.0112
3376.00,0.0112
3375.00,0.0112
3374.00,0.0112
3373.00,0.0112
3372.00,0.0112
3371.00,0.0112
3370.00,0.0112
3369.00,0.0112
3368.00,0.0112
3367.00,0.0112
3366.00,0.0112
3365.00,0.0112
3364.00,0.0112
3363.00,0.0112
3362.00,0.0112
3361.00,0.0112
3360.00,0.0112
3359.00,0.0112
3358.00,0.0112
3357.00,0.0112
3356.00,0.0113
3355.00,0.0113
3354.00,0.0112
3353.00,0.0112
3352.00,0.0112
3351.00,0.0112
3350.00,0.0112
3349.00,0.0112
3348.00,0.0112
3347.00,0.0112
3346.00,0.0112
3345.00,0.0112
3344.00,0.0112
3343.00,0.0112
3342.00,0.0112
3341.00,0.0112
3340.00,0.0112
3339.00,0.0112
3338.00,0.0112
3337.00,0.0111
3336.00,0.0111
3335.00,0.0111
3334.00,0.0110
3333.00,0.0110
3332.00,0.0110
3331.00,0.0109
3330.00,0.0109
3329.00,0.0109
3328.00,0.0109
3327.00,0.0109
3326.00,0.0109
3325.00,0.0109
3324.00,0.0109
3323.00,0.0108
3322.00,0.0108
3321.00,0.0107
3320.00,0.0107
3319.00,0.0107
3318.00,0.0107
3317.00,0.0107
3316.00,0.0107
3315.00,0.0107
3314.00,0.0107
3313.00,0.0107
3312.00,0.0106
3311.00,0.0106
3310.00,0.0106
3309.00,0.0105
3308.00,0.0105
3307.00,0.0105
3306.00,0.0105
3305.00,0.0105
3304.00,0.0105
3303.00,0.0105
3302.00,0.0105
3301.00,0.0104
3300.00,0.0104
3299.00,0.0104
3298.00,0.0103
3297.00,0.0103
3296.00,0.0102
3295.00,0.0101
3294.00,0.0101
3293.00,0.0101
3292.00,0.0101
3291.00,0.0101
3290.00,0.0101
3289.00,0.0100
3288.00,0.0100
3287.00,0.0100
3286.00,0.0099
3285.00,0.0099
3284.00,0.0098
3283.00,0.0098
3282.00,0.0097
3281.00,0.0097
3280.00,0.0097
3279.00,0.0096
3278.00,0.0096
3277.00,0.0096
3276.00,0.0095
3275.00,0.0095
3274.00,0.0094
3273.00,0.0094
3272.00,0.0093
3271.00,0.0093
3270.00,0.0093
3269.00,0.0093
3268.00,0.0093
3267.00,0.0093
3266.00,0.0092
3265.00,0.0092
3264.00,0.0092
3263.00,0.0091
3262.00,0.0091
3261.00,0.0090
3260.00,0.0090
3259.00,0.0089
3258.00,0.0089
3257.00,0.0089
3256.00,0.0088
3255.00,0.0088
3254.00,0.0087
3253.00,0.0087
3252.00,0.0087
3251.00,0.0087
3250.00,0.0087
3249.00,0.0087
3248.00,0.0087
3247.00,0.0086
3246.00,0.0086
3245.00,0.0086
3244.00,0.0085
3243.00,0.0085
3242.00,0.0084
3241.00,0.0084
3240.00,0.0084
3239.00,0.0084
3238.00,0.0083
3237.00,0.0083
3236.00,0.0083
3235.00,0.0083
3234.00,0.0083
3233.00,0.0082
3232.00,0.0082
3231.00,0.0082
3230.00,0.0082
3229.00,0.0082
3228.00,0.0082
3227.00,0.0083
3226.00,0.0083
3225.00,0.0083
3224.00,0.0083
3223.00,0.0083
3222.00,0.0083
3221.00,0.0083
3220.00,0.0083
3219.00,0.0083
3218.00,0.0083
3217.00,0.0083
3216.00,0.0083
3215.00,0.0083
3214.00,0.0083
3213.00,0.0083
3212.00,0.0083
3211.00,0.0083
3210.00,0.0083
3209.00,0.0083
3208.00,0.0083
3207.00,0.0083
3206.00,0.0084
3205.00,0.0084
3204.00,0.0084
3203.00,0.0084
3202.00,0.0084
3201.00,0.0084
3200.00,0.0084
3199.00,0.0084
3198.00,0.0084
3197.00,0.0084
3196.00,0.0084
3195.00,0.0084
3194.00,0.0084
3193.00,0.0084
3192.00,0.0083
3191.00,0.0083
3190.00,0.0083
3189.00,0.0083
3188.00,0.0083
3187.00,0.0083
3186.00,0.0082
3185.00,0.0082
3184.00,0.0082
3183.00,0.0082
3182.00,0.0082
3181.00,0.0081
3180.00,0.0080
3179.00,0.0080
3178.00,0.0079
3177.00,0.0079
3176.00,0.0079
3175.00,0.0078
3174.00,0.0077
3173.00,0.0076
3172.00,0.0075
3171.00,0.0075
3170.00,0.0075
3169.00,0.0075
3168.00,0.0074
3167.00,0.0074
3166.00,0.0074
3165.00,0.0074
3164.00,0.0073
3163.00,0.0073
3162.00,0.0072
3161.00,0.0072
3160.00,0.0071
3159.00,0.0071
3158.00,0.0071
3157.00,0.0071
3156.00,0.0070
3155.00,0.0070
3154.00,0.0070
3153.00,0.0069
3152.00,0.0069
3151.00,0.0069
3150.00,0.0069
3149.00,0.0069
3148.00,0.0069
3147.00,0.0069
3146.00,0.0068
3145.00,0.0068
3144.00,0.0067
3143.00,0.0067
3142.00,0.0066
3141.00,0.0066
3140.00,0.0066
3139.00,0.0066
3138.00,0.0066
3137.00,0.0066
3136.00,0.0066
3135.00,0.0066
3134.00,0.0066
3133.00,0.0065
3132.00,0.0065
3131.00,0.0064
3130.00,0.0064
3129.00,0.0063
3128.00,0.0062
3127.00,0.0062
3126.00,0.0061
3125.00,0.0061
3124.00,0.0061
3123.00,0.0061
3122.00,0.0061
3121.00,0.0060
3120.00,0.0060
3119.00,0.0059
3118.00,0.0059
3117.00,0.0058
3116.00,0.0058
3115.00,0.0058
3114.00,0.0058
3113.00,0.0058
3112.00,0.0058
3111.00,0.0057
3110.00,0.0057
3109.00,0.0057
3108.00,0.0057
3107.00,0.0056
3106.00,0.0056
3105.00,0.0055
3104.00,0.0055
3103.00,0.0055
3102.00,0.0054
3101.00,0.0054
3100.00,0.0054
3099.00,0.0054
3098.00,0.0054
3097.00,0.0054
3096.00,0.0054
3095.00,0.0053
3094.00,0.0053
3093.00,0.0052
3092.00,0.0052
3091.00,0.0051
3090.00,0.0051
3089.00,0.0051
3088.00,0.0051
3087.00,0.0050
3086.00,0.0050
3085.00,0.0050
3084.00,0.0050
3083.00,0.0050
3082.00,0.0050
3081.00,0.0050
3080.00,0.0050
3079.00,0.0050
3078.00,0.0049
3077.00,0.0049
3076.00,0.0050
3075.00,0.0050
3074.00,0.0050
3073.00,0.0051
3072.00,0.0051
3071.00,0.0051
3070.00,0.0051
3069.00,0.0051
3068.00,0.0052
3067.00,0.0052
3066.00,0.0052
3065.00,0.0052
3064.00,0.0053
3063.00,0.0053
3062.00,0.0053
3061.00,0.0053
3060.00,0.0053
3059.00,0.0052
3058.00,0.0052
3057.00,0.0052
3056.00,0.0052
3055.00,0.0052
3054.00,0.0052
3053.00,0.0052
3052.00,0.0052
3051.00,0.0052
3050.00,0.0053
3049.00,0.0053
3048.00,0.0053
3047.00,0.0053
3046.00,0.0053
3045.00,0.0052
3044.00,0.0053
3043.00,0.0053
3042.00,0.0054
3041.00,0.0054
3040.00,0.0055
3039.00,0.0056
3038.00,0.0056
3037.00,0.0056
3036.00,0.0057
3035.00,0.0057
3034.00,0.0058
3033.00,0.0058
3032.00,0.0058
3031.00,0.0059
3030.00,0.0059
3029.00,0.0060
3028.00,0.0060
3027.00,0.0060
3026.00,0.0060
3025.00,0.0061
3024.00,0.0061
3023.00,0.0061
3022.00,0.0062
3021.00,0.0062
3020.00,0.0063
3019.00,0.0064
3018.00,0.0065
3017.00,0.0066
3016.00,0.0066
3015.00,0.0067
3014.00,0.0068
3013.00,0.0069
3012.00,0.0070
3011.00,0.0071
3010.00,0.0073
3009.00,0.0074
3008.00,0.0075
3007.00,0.0077
3006.00,0.0078
3005.00,0.0080
3004.00,0.0081
3003.00,0.0083
3002.00,0.0085
3001.00,0.0087
3000.00,0.0090
2999.00,0.0093
2998.00,0.0096
2997.00,0.0099
2996.00,0.0102
2995.00,0.0105
2994.00,0.0109
2993.00,0.0113
2992.00,0.0118
2991.00,0.0124
2990.00,0.0131
2989.00,0.0138
2988.00,0.0145
2987.00,0.0154
2986.00,0.0163
2985.00,0.0174
2984.00,0.0185
2983.00,0.0197
2982.00,0.0211
2981.00,0.0227
2980.00,0.0246
2979.00,0.0267
2978.00,0.0291
2977.00,0.0318
2976.00,0.0349
2975.00,0.0385
2974.00,0.0425
2973.00,0.0471
2972.00,0.0523
2971.00,0.0581
2970.00,0.0646
2969.00,0.0717
2968.00,0.0794
2967.00,0.0875
2966.00,0.0960
2965.00,0.1045
2964.00,0.1127
2963.00,0.1203
2962.00,0.1269
2961.00,0.1323
2960.00,0.1367
2959.00,0.1404
2958.00,0.1438
2957.00,0.1475
2956.00,0.1519
2955.00,0.1572
2954.00,0.1633
2953.00,0.1694
2952.00,0.1748
2951.00,0.1786
2950.00,0.1796
2949.00,0.1774
2948.00,0.1718
2947.00,0.1632
2946.00,0.1526
2945.00,0.1413
2944.00,0.1306
2943.00,0.1213
2942.00,0.1141
2941.00,0.1093
2940.00,0.1067
2939.00,0.1062
2938.00,0.1076
2937.00,0.1106
2936.00,0.1152
2935.00,0.1212
2934.00,0.1285
2933.00,0.1369
2932.00,0.1462
2931.00,0.1564
2930.00,0.1671
2929.00,0.1781
2928.00,0.1890
2927.00,0.1997
2926.00,0.2099
2925.00,0.2197
2924.00,0.2291
2923.00,0.2383
2922.00,0.2472
2921.00,0.2555
2920.00,0.2627
2919.00,0.2678
2918.00,0.2699
2917.00,0.2684
2916.00,0.2633
2915.00,0.2552
2914.00,0.2451
2913.00,0.2342
2912.00,0.2235
2911.00,0.2137
2910.00,0.2049
2909.00,0.1971
2908.00,0.1900
2907.00,0.1834
2906.00,0.1770
2905.00,0.1706
2904.00,0.1643
2903.00,0.1579
2902.00,0.1516
2901.00,0.1453
2900.00,0.1393
2899.00,0.1336
2898.00,0.1283
2897.00,0.1233
2896.00,0.1189
2895.00,0.1150
2894.00,0.1117
2893.00,0.1089
2892.00,0.1067
2891.00,0.1051
2890.00,0.1039
2889.00,0.1032
2888.00,0.1028
2887.00,0.1027
2886.00,0.1030
2885.00,0.1036
2884.00,0.1047
2883.00,0.1062
2882.00,0.1082
2881.00,0.1105
2880.00,0.1128
2879.00,0.1148
2878.00,0.1163
2877.00,0.1170
2876.00,0.1169
2875.00,0.1165
2874.00,0.1160
2873.00,0.1159
2872.00,0.1164
2871.00,0.1176
2870.00,0.1192
2869.00,0.1207
2868.00,0.1216
2867.00,0.1211
2866.00,0.1189
2865.00,0.1146
2864.00,0.1087
2863.00,0.1019
2862.00,0.0952
2861.00,0.0894
2860.00,0.0850
2859.00,0.0819
2858.00,0.0803
2857.00,0.0797
2856.00,0.0800
2855.00,0.0810
2854.00,0.0824
2853.00,0.0842
2852.00,0.0860
2851.00,0.0875
2850.00,0.0886
2849.00,0.0892
2848.00,0.0895
2847.00,0.0900
2846.00,0.0913
2845.00,0.0934
2844.00,0.0967
2843.00,0.1009
2842.00,0.1055
2841.00,0.1101
2840.00,0.1139
2839.00,0.1162
2838.00,0.1162
2837.00,0.1134
2836.00,0.1079
2835.00,0.0999
2834.00,0.0904
2833.00,0.0803
2832.00,0.0705
2831.00,0.0618
2830.00,0.0544
2829.00,0.0483
2828.00,0.0434
2827.00,0.0393
2826.00,0.0360
2825.00,0.0333
2824.00,0.0310
2823.00,0.0291
2822.00,0.0274
2821.00,0.0260
2820.00,0.0247
2819.00,0.0236
2818.00,0.0227
2817.00,0.0218
2816.00,0.0211
2815.00,0.0205
2814.00,0.0199
2813.00,0.0193
2812.00,0.0188
2811.00,0.0182
2810.00,0.0177
2809.00,0.0171
2808.00,0.0166
2807.00,0.0160
2806.00,0.0154
2805.00,0.0148
2804.00,0.0142
2803.00,0.0136
2802.00,0.0131
2801.00,0.0126
2800.00,0.0122
2799.00,0.0119
2798.00,0.0116
2797.00,0.0114
2796.00,0.0112
2795.00,0.0110
2794.00,0.0107
2793.00,0.0105
2792.00,0.0102
2791.00,0.0099
2790.00,0.0095
2789.00,0.0092
2788.00,0.0089
2787.00,0.0086
2786.00,0.0083
2785.00,0.0081
2784.00,0.0079
2783.00,0.0077
2782.00,0.0075
2781.00,0.0073
2780.00,0.0072
2779.00,0.0070
2778.00,0.0069
2777.00,0.0067
2776.00,0.0066
2775.00,0.0064
2774.00,0.0063
2773.00,0.0063
2772.00,0.0062
2771.00,0.0062
2770.00,0.0062
2769.00,0.0061
2768.00,0.0061
2767.00,0.0060
2766.00,0.0060
2765.00,0.0060
2764.00,0.0060
2763.00,0.0059
2762.00,0.0059
2761.00,0.0059
2760.00,0.0058
2759.00,0.0058
2758.00,0.0057
2757.00,0.0057
2756.00,0.0057
2755.00,0.0057
2754.00,0.0056
2753.00,0.0056
2752.00,0.0056
2751.00,0.0055
2750.00,0.0055
2749.00,0.0055
2748.00,0.0055
2747.00,0.0056
2746.00,0.0056
2745.00,0.0057
2744.00,0.0057
2743.00,0.0058
2742.00,0.0059
2741.00,0.0059
2740.00,0.0060
2739.00,0.0061
2738.00,0.0063
2737.00,0.0064
2736.00,0.0066
2735.00,0.0067
2734.00,0.0068
2733.00,0.0070
2732.00,0.0071
2731.00,0.0072
2730.00,0.0074
2729.00,0.0077
2728.00,0.0079
2727.00,0.0082
2726.00,0.0085
2725.00,0.0087
2724.00,0.0088
2723.00,0.0088
2722.00,0.0087
2721.00,0.0085
2720.00,0.0083
2719.00,0.0080
2718.00,0.0077
2717.00,0.0074
2716.00,0.0071
2715.00,0.0069
2714.00,0.0067
2713.00,0.0065
2712.00,0.0063
2711.00,0.0061
2710.00,0.0060
2709.00,0.0058
2708.00,0.0057
2707.00,0.0056
2706.00,0.0055
2705.00,0.0053
2704.00,0.0052
2703.00,0.0051
2702.00,0.0050
2701.00,0.0050
2700.00,0.0049
2699.00,0.0049
2698.00,0.0049
2697.00,0.0048
2696.00,0.0048
2695.00,0.0048
2694.00,0.0049
2693.00,0.0049
2692.00,0.0049
2691.00,0.0049
2690.00,0.0049
2689.00,0.0048
2688.00,0.0048
2687.00,0.0048
2686.00,0.0048
2685.00,0.0048
2684.00,0.0048
2683.00,0.0048
2682.00,0.0048
2681.00,0.0048
2680.00,0.0048
2679.00,0.0048
2678.00,0.0048
2677.00,0.0048
2676.00,0.0048
2675.00,0.0048
2674.00,0.0048
2673.00,0.0047
2672.00,0.0047
2671.00,0.0046
2670.00,0.0046
2669.00,0.0046
2668.00,0.0047
2667.00,0.0047
2666.00,0.0047
2665.00,0.0048
2664.00,0.0048
2663.00,0.0049
2662.00,0.0049
2661.00,0.0049
2660.00,0.0049
2659.00,0.0049
2658.00,0.0049
2657.00,0.0049
2656.00,0.0049
2655.00,0.0049
2654.00,0.0048
2653.00,0.0048
2652.00,0.0048
2651.00,0.0047
2650.00,0.0047
2649.00,0.0046
2648.00,0.0045
2647.00,0.0044
2646.00,0.0044
2645.00,0.0044
2644.00,0.0044
2643.00,0.0043
2642.00,0.0043
2641.00,0.0042
2640.00,0.0042
2639.00,0.0041
2638.00,0.0041
2637.00,0.0041
2636.00,0.0041
2635.00,0.0041
2634.00,0.0041
2633.00,0.0041
2632.00,0.0041
2631.00,0.0041
2630.00,0.0041
2629.00,0.0042
2628.00,0.0042
2627.00,0.0042
2626.00,0.0042
2625.00,0.0043
2624.00,0.0043
2623.00,0.0043
2622.00,0.0043
2621.00,0.0042
2620.00,0.0042
2619.00,0.0041
2618.00,0.0041
2617.00,0.0041
2616.00,0.0041
2615.00,0.0040
2614.00,0.0039
2613.00,0.0039
2612.00,0.0038
2611.00,0.0038
2610.00,0.0038
2609.00,0.0038
2608.00,0.0038
2607.00,0.0037
2606.00,0.0037
2605.00,0.0036
2604.00,0.0036
2603.00,0.0035
2602.00,0.0035
2601.00,0.0034
2600.00,0.0033
2599.00,0.0033
2598.00,0.0033
2597.00,0.0034
2596.00,0.0035
2595.00,0.0035
2594.00,0.0035
2593.00,0.0035
2592.00,0.0035
2591.00,0.0035
2590.00,0.0035
2589.00,0.0035
2588.00,0.0035
2587.00,0.0036
2586.00,0.0037
2585.00,0.0038
2584.00,0.0038
2583.00,0.0038
2582.00,0.0038
2581.00,0.0039
2580.00,0.0038
2579.00,0.0038
2578.00,0.0037
2577.00,0.0035
2576.00,0.0034
2575.00,0.0033
2574.00,0.0032
2573.00,0.0031
2572.00,0.0030
2571.00,0.0029
2570.00,0.0029
2569.00,0.0028
2568.00,0.0027
2567.00,0.0026
2566.00,0.0026
2565.00,0.0025
2564.00,0.0025
2563.00,0.0025
2562.00,0.0025
2561.00,0.0024
2560.00,0.0023
2559.00,0.0023
2558.00,0.0023
2557.00,0.0023
2556.00,0.0024
2555.00,0.0024
2554.00,0.0024
2553.00,0.0024
2552.00,0.0024
2551.00,0.0023
2550.00,0.0023
2549.00,0.0022
2548.00,0.0022
2547.00,0.0022
2546.00,0.0021
2545.00,0.0021
2544.00,0.0021
2543.00,0.0020
2542.00,0.0020
2541.00,0.0019
2540.00,0.0019
2539.00,0.0019
2538.00,0.0019
2537.00,0.0020
2536.00,0.0020
2535.00,0.0019
2534.00,0.0019
2533.00,0.0019
2532.00,0.0018
2531.00,0.0018
2530.00,0.0018
2529.00,0.0017
2528.00,0.0017
2527.00,0.0017
2526.00,0.0016
2525.00,0.0016
2524.00,0.0016
2523.00,0.0015
2522.00,0.0016
2521.00,0.0016
2520.00,0.0016
2519.00,0.0016
2518.00,0.0015
2517.00,0.0014
2516.00,0.0014
2515.00,0.0013
2514.00,0.0013
2513.00,0.0013
2512.00,0.0013
2511.00,0.0013
2510.00,0.0013
2509.00,0.0013
2508.00,0.0013
2507.00,0.0013
2506.00,0.0014
2505.00,0.0014
2504.00,0.0014
2503.00,0.0014
2502.00,0.0013
2501.00,0.0013
2500.00,0.0012
2499.00,0.0013
2498.00,0.0013
2497.00,0.0013
2496.00,0.0013
2495.00,0.0012
2494.00,0.0012
2493.00,0.0012
2492.00,0.0012
2491.00,0.0013
2490.00,0.0013
2489.00,0.0013
2488.00,0.0013
2487.00,0.0013
2486.00,0.0012
2485.00,0.0012
2484.00,0.0012
2483.00,0.0012
2482.00,0.0013
2481.00,0.0014
2480.00,0.0014
2479.00,0.0014
2478.00,0.0013
2477.00,0.0013
2476.00,0.0013
2475.00,0.0012
2474.00,0.0011
2473.00,0.0010
2472.00,0.0010
2471.00,0.0010
2470.00,0.0011
2469.00,0.0011
2468.00,0.0011
2467.00,0.0011
2466.00,0.0011
2465.00,0.0011
2464.00,0.0012
2463.00,0.0012
2462.00,0.0012
2461.00,0.0013
2460.00,0.0013
2459.00,0.0013
2458.00,0.0013
2457.00,0.0013
2456.00,0.0012
2455.00,0.0012
2454.00,0.0012
2453.00,0.0012
2452.00,0.0012
2451.00,0.0013
2450.00,0.0013
2449.00,0.0013
2448.00,0.0013
2447.00,0.0013
2446.00,0.0013
2445.00,0.0014
2444.00,0.0014
2443.00,0.0014
2442.00,0.0013
2441.00,0.0013
2440.00,0.0012
2439.00,0.0012
2438.00,0.0013
2437.00,0.0013
2436.00,0.0014
2435.00,0.0013
2434.00,0.0013
2433.00,0.0013
2432.00,0.0013
2431.00,0.0012
2430.00,0.0012
2429.00,0.0012
2428.00,0.0013
2427.00,0.0013
2426.00,0.0013
2425.00,0.0013
2424.00,0.0013
2423.00,0.0013
2422.00,0.0013
2421.00,0.0012
2420.00,0.0012
2419.00,0.0012
2418.00,0.0012
2417.00,0.0012
2416.00,0.0012
2415.00,0.0012
2414.00,0.0012
2413.00,0.0011
2412.00,0.0011
2411.00,0.0011
2410.00,0.0011
2409.00,0.0011
2408.00,0.0011
2407.00,0.0010
2406.00,0.0010
2405.00,0.0009
2404.00,0.0010
2403.00,0.0010
2402.00,0.0011
2401.00,0.0011
2400.00,0.0011
2399.00,0.0011
2398.00,0.0010
2397.00,0.0010
2396.00,0.0010
2395.00,0.0010
2394.00,0.0010
2393.00,0.0010
2392.00,0.0010
2391.00,0.0009
2390.00,0.0009
2389.00,0.0008
2388.00,0.0009
2387.00,0.0009
2386.00,0.0009
2385.00,0.0010
2384.00,0.0010
2383.00,0.0009
2382.00,0.0008
2381.00,0.0007
2380.00,0.0006
2379.00,0.0005
2378.00,0.0005
2377.00,0.0005
2376.00,0.0005
2375.00,0.0005
2374.00,0.0006
2373.00,0.0006
2372.00,0.0007
2371.00,0.0007
2370.00,0.0007
2369.00,0.0006
2368.00,0.0006
2367.00,0.0005
2366.00,0.0006
2365.00,0.0006
2364.00,0.0007
2363.00,0.0007
2362.00,0.0007
2361.00,0.0007
2360.00,0.0007
2359.00,0.0008
2358.00,0.0008
2357.00,0.0008
2356.00,0.0008
2355.00,0.0008
2354.00,0.0008
2353.00,0.0008
2352.00,0.0008
2351.00,0.0008
2350.00,0.0008
2349.00,0.0008
2348.00,0.0007
2347.00,0.0007
2346.00,0.0007
2345.00,0.0008
2344.00,0.0009
2343.00,0.0010
2342.00,0.0010
2341.00,0.0010
2340.00,0.0011
2339.00,0.0011
2338.00,0.0012
2337.00,0.0012
2336.00,0.0012
2335.00,0.0011
2334.00,0.0010
2333.00,0.0010
2332.00,0.0009
2331.00,0.0010
2330.00,0.0010
2329.00,0.0012
2328.00,0.0014
2327.00,0.0016
2326.00,0.0019
2325.00,0.0021
2324.00,0.0022
2323.00,0.0021
2322.00,0.0019
2321.00,0.0018
2320.00,0.0017
2319.00,0.0016
2318.00,0.0016
2317.00,0.0015
2316.00,0.0015
2315.00,0.0015
2314.00,0.0015
2313.00,0.0015
2312.00,0.0014
2311.00,0.0014
2310.00,0.0013
2309.00,0.0014
2308.00,0.0014
2307.00,0.0015
2306.00,0.0016
2305.00,0.0016
2304.00,0.0016
2303.00,0.0017
2302.00,0.0017
2301.00,0.0017
2300.00,0.0017
2299.00,0.0016
2298.00,0.0016
2297.00,0.0016
2296.00,0.0016
2295.00,0.0017
2294.00,0.0018
2293.00,0.0019
2292.00,0.0020
2291.00,0.0021
2290.00,0.0021
2289.00,0.0021
2288.00,0.0021
2287.00,0.0021
2286.00,0.0021
2285.00,0.0021
2284.00,0.0020
2283.00,0.0019
2282.00,0.0019
2281.00,0.0018
2280.00,0.0017
2279.00,0.0017
2278.00,0.0016
2277.00,0.0016
2276.00,0.0016
2275.00,0.0016
2274.00,0.0016
2273.00,0.0016
2272.00,0.0016
2271.00,0.0015
2270.00,0.0016
2269.00,0.0016
2268.00,0.0017
2267.00,0.0016
2266.00,0.0015
2265.00,0.0014
2264.00,0.0013
2263.00,0.0014
2262.00,0.0014
2261.00,0.0015
2260.00,0.0016
2259.00,0.0016
2258.00,0.0017
2257.00,0.0017
2256.00,0.0017
2255.00,0.0015
2254.00,0.0013
2253.00,0.0012
2252.00,0.0012
2251.00,0.0012
2250.00,0.0012
2249.00,0.0012
2248.00,0.0012
2247.00,0.0011
2246.00,0.0011
2245.00,0.0011
2244.00,0.0012
2243.00,0.0012
2242.00,0.0012
2241.00,0.0012
2240.00,0.0011
2239.00,0.0010
2238.00,0.0010
2237.00,0.0010
2236.00,0.0010
2235.00,0.0010
2234.00,0.0009
2233.00,0.0009
2232.00,0.0009
2231.00,0.0011
2230.00,0.0012
2229.00,0.0012
2228.00,0.0011
2227.00,0.0009
2226.00,0.0008
2225.00,0.0008
2224.00,0.0008
2223.00,0.0008
2222.00,0.0009
2221.00,0.0009
2220.00,0.0008
2219.00,0.0007
2218.00,0.0006
2217.00,0.0006
2216.00,0.0006
2215.00,0.0006
2214.00,0.0006
2213.00,0.0006
2212.00,0.0008
2211.00,0.0010
2210.00,0.0012
2209.00,0.0012
2208.00,0.0012
2207.00,0.0011
2206.00,0.0010
2205.00,0.0010
2204.00,0.0011
2203.00,0.0011
2202.00,0.0011
2201.00,0.0010
2200.00,0.0009
2199.00,0.0009
2198.00,0.0009
2197.00,0.0010
2196.00,0.0010
2195.00,0.0010
2194.00,0.0010
2193.00,0.0011
2192.00,0.0012
2191.00,0.0014
2190.00,0.0015
2189.00,0.0016
2188.00,0.0016
2187.00,0.0016
2186.00,0.0015
2185.00,0.0014
2184.00,0.0013
2183.00,0.0012
2182.00,0.0010
2181.00,0.0010
2180.00,0.0010
2179.00,0.0009
2178.00,0.0006
2177.00,0.0004
2176.00,0.0003
2175.00,0.0004
2174.00,0.0005
2173.00,0.0008
2172.00,0.0012
2171.00,0.0017
2170.00,0.0021
2169.00,0.0022
2168.00,0.0021
2167.00,0.0019
2166.00,0.0017
2165.00,0.0017
2164.00,0.0018
2163.00,0.0020
2162.00,0.0020
2161.00,0.0015
2160.00,0.0004
2159.00,-0.0009
2158.00,-0.0019
2157.00,-0.0023
2156.00,-0.0022
2155.00,-0.0020
2154.00,-0.0016
2153.00,-0.0013
2152.00,-0.0010
2151.00,-0.0009
2150.00,-0.0010
2149.00,-0.0009
2148.00,-0.0009
2147.00,-0.0008
2146.00,-0.0008
2145.00,-0.0009
2144.00,-0.0011
2143.00,-0.0011
2142.00,-0.0009
2141.00,-0.0007
2140.00,-0.0006
2139.00,-0.0007
2138.00,-0.0009
2137.00,-0.0010
2136.00,-0.0011
2135.00,-0.0012
2134.00,-0.0013
2133.00,-0.0014
2132.00,-0.0014
2131.00,-0.0014
2130.00,-0.0012
2129.00,-0.0011
2128.00,-0.0009
2127.00,-0.0008
2126.00,-0.0007
2125.00,-0.0006
2124.00,-0.0004
2123.00,-0.0003
2122.00,-0.0002
2121.00,-0.0001
2120.00,0.0000
2119.00,0.0001
2118.00,0.0001
2117.00,0.0002
2116.00,0.0003
2115.00,0.0005
2114.00,0.0006
2113.00,0.0006
2112.00,0.0006
2111.00,0.0006
2110.00,0.0005
2109.00,0.0005
2108.00,0.0006
2107.00,0.0006
2106.00,0.0006
2105.00,0.0006
2104.00,0.0006
2103.00,0.0006
2102.00,0.0006
2101.00,0.0006
2100.00,0.0005
2099.00,0.0005
2098.00,0.0003
2097.00,0.0001
2096.00,-0.0001
2095.00,-0.0002
2094.00,-0.0003
2093.00,-0.0003
2092.00,-0.0003
2091.00,-0.0002
2090.00,-0.0000
2089.00,0.0001
2088.00,0.0001
2087.00,0.0003
2086.00,0.0004
2085.00,0.0006
2084.00,0.0008
2083.00,0.0009
2082.00,0.0008
2081.00,0.0007
2080.00,0.0006
2079.00,0.0004
2078.00,0.0003
2077.00,0.0003
2076.00,0.0003
2075.00,0.0003
2074.00,0.0004
2073.00,0.0005
2072.00,0.0005
2071.00,0.0005
2070.00,0.0004
2069.00,0.0004
2068.00,0.0004
2067.00,0.0004
2066.00,0.0004
2065.00,0.0004
2064.00,0.0004
2063.00,0.0003
2062.00,0.0003
2061.00,0.0004
2060.00,0.0003
2059.00,0.0003
2058.00,0.0003
2057.00,0.0003
2056.00,0.0003
2055.00,0.0003
2054.00,0.0005
2053.00,0.0009
2052.00,0.0015
2051.00,0.0018
2050.00,0.0018
2049.00,0.0014
2048.00,0.0009
2047.00,0.0003
2046.00,-0.0000
2045.00,-0.0002
2044.00,-0.0001
2043.00,0.0002
2042.00,0.0003
2041.00,0.0003
2040.00,0.0002
2039.00,-0.0000
2038.00,-0.0001
2037.00,0.0002
2036.00,0.0004
2035.00,0.0003
2034.00,-0.0001
2033.00,-0.0006
2032.00,-0.0008
2031.00,-0.0008
2030.00,-0.0007
2029.00,-0.0006
2028.00,-0.0005
2027.00,-0.0006
2026.00,-0.0009
2025.00,-0.0013
2024.00,-0.0014
2023.00,-0.0013
2022.00,-0.0009
2021.00,-0.0006
2020.00,-0.0004
2019.00,-0.0004
2018.00,-0.0005
2017.00,-0.0005
2016.00,-0.0004
2015.00,-0.0004
2014.00,-0.0004
2013.00,-0.0006
2012.00,-0.0007
2011.00,-0.0008
2010.00,-0.0009
2009.00,-0.0010
2008.00,-0.0013
2007.00,-0.0017
2006.00,-0.0020
2005.00,-0.0020
2004.00,-0.0017
2003.00,-0.0015
2002.00,-0.0013
2001.00,-0.0012
2000.00,-0.0011
1999.00,-0.0010
1998.00,-0.0008
1997.00,-0.0006
1996.00,-0.0004
1995.00,-0.0004
1994.00,-0.0004
1993.00,-0.0003
1992.00,-0.0001
1991.00,0.0001
1990.00,0.0002
1989.00,0.0002
1988.00,0.0001
1987.00,-0.0001
1986.00,-0.0001
1985.00,0.0000
1984.00,0.0003
1983.00,0.0006
1982.00,0.0010
1981.00,0.0012
1980.00,0.0012
1979.00,0.0008
1978.00,0.0002
1977.00,-0.0003
1976.00,-0.0007
1975.00,-0.0010
1974.00,-0.0013
1973.00,-0.0015
1972.00,-0.0016
1971.00,-0.0014
1970.00,-0.0012
1969.00,-0.0010
1968.00,-0.0008
1967.00,-0.0008
1966.00,-0.0009
1965.00,-0.0011
1964.00,-0.0013
1963.00,-0.0014
1962.00,-0.0015
1961.00,-0.0015
1960.00,-0.0015
1959.00,-0.0015
1958.00,-0.0014
1957.00,-0.0012
1956.00,-0.0012
1955.00,-0.0011
1954.00,-0.0012
1953.00,-0.0012
1952.00,-0.0012
1951.00,-0.0014
1950.00,-0.0015
1949.00,-0.0015
1948.00,-0.0014
1947.00,-0.0013
1946.00,-0.0012
1945.00,-0.0012
1944.00,-0.0014
1943.00,-0.0015
1942.00,-0.0016
1941.00,-0.0014
1940.00,-0.0013
1939.00,-0.0010
1938.00,-0.0008
1937.00,-0.0006
1936.00,-0.0004
1935.00,-0.0003
1934.00,-0.0004
1933.00,-0.0005
1932.00,-0.0005
1931.00,-0.0006
1930.00,-0.0005
1929.00,-0.0005
1928.00,-0.0004
1927.00,-0.0004
1926.00,-0.0005
1925.00,-0.0005
1924.00,-0.0005
1923.00,-0.0004
1922.00,-0.0003
1921.00,-0.0002
1920.00,-0.0001
1919.00,-0.0001
1918.00,-0.0001
1917.00,-0.0001
1916.00,-0.0000
1915.00,-0.0000
1914.00,0.0000
1913.00,0.0000
1912.00,0.0001
1911.00,0.0001
1910.00,0.0000
1909.00,-0.0000
1908.00,0.0000
1907.00,0.0001
1906.00,0.0001
1905.00,0.0002
1904.00,0.0002
1903.00,0.0001
1902.00,-0.0000
1901.00,-0.0001
1900.00,-0.0001
1899.00,-0.0001
1898.00,-0.0000
1897.00,-0.0000
1896.00,0.0000
1895.00,0.0000
1894.00,-0.0000
1893.00,-0.0001
1892.00,-0.0001
1891.00,-0.0001
1890.00,-0.0001
1889.00,-0.0001
1888.00,-0.0001
1887.00,-0.0002
1886.00,-0.0003
1885.00,-0.0003
1884.00,-0.0003
1883.00,-0.0002
1882.00,-0.0001
1881.00,-0.0000
1880.00,-0.0000
1879.00,-0.0001
1878.00,-0.0001
1877.00,-0.0001
1876.00,-0.0000
1875.00,0.0001
1874.00,0.0001
1873.00,0.0001
1872.00,0.0002
1871.00,0.0002
1870.00,0.0002
1869.00,0.0002
1868.00,0.0003
1867.00,0.0004
1866.00,0.0004
1865.00,0.0004
1864.00,0.0003
1863.00,0.0002
1862.00,0.0002
1861.00,0.0002
1860.00,0.0002
1859.00,0.0001
1858.00,0.0001
1857.00,0.0001
1856.00,0.0001
1855.00,0.0002
1854.00,0.0002
1853.00,0.0002
1852.00,0.0002
1851.00,0.0002
1850.00,0.0002
1849.00,0.0003
1848.00,0.0003
1847.00,0.0003
1846.00,0.0003
1845.00,0.0003
1844.00,0.0003
1843.00,0.0004
1842.00,0.0004
1841.00,0.0004
1840.00,0.0004
1839.00,0.0004
1838.00,0.0004
1837.00,0.0003
1836.00,0.0004
1835.00,0.0004
1834.00,0.0004
1833.00,0.0004
1832.00,0.0004
1831.00,0.0004
1830.00,0.0004
1829.00,0.0005
1828.00,0.0005
1827.00,0.0005
1826.00,0.0005
1825.00,0.0006
1824.00,0.0006
1823.00,0.0006
1822.00,0.0006
1821.00,0.0005
1820.00,0.0005
1819.00,0.0004
1818.00,0.0003
1817.00,0.0002
1816.00,0.0003
1815.00,0.0003
1814.00,0.0004
1813.00,0.0004
1812.00,0.0005
1811.00,0.0005
1810.00,0.0005
1809.00,0.0005
1808.00,0.0005
1807.00,0.0006
1806.00,0.0006
1805.00,0.0007
1804.00,0.0007
1803.00,0.0007
1802.00,0.0007
1801.00,0.0008
1800.00,0.0008
1799.00,0.0009
1798.00,0.0009
1797.00,0.0009
1796.00,0.0009
1795.00,0.0009
1794.00,0.0009
1793.00,0.0009
1792.00,0.0010
1791.00,0.0010
1790.00,0.0010
1789.00,0.0011
1788.00,0.0011
1787.00,0.0011
1786.00,0.0011
1785.00,0.0012
1784.00,0.0012
1783.00,0.0012
1782.00,0.0012
1781.00,0.0012
1780.00,0.0012
1779.00,0.0012
1778.00,0.0012
1777.00,0.0011
1776.00,0.0011
1775.00,0.0010
1774.00,0.0010
1773.00,0.0010
1772.00,0.0011
1771.00,0.0012
1770.00,0.0012
1769.00,0.0013
1768.00,0.0014
1767.00,0.0014
1766.00,0.0014
1765.00,0.0014
1764.00,0.0014
1763.00,0.0014
1762.00,0.0014
1761.00,0.0015
1760.00,0.0016
1759.00,0.0017
1758.00,0.0017
1757.00,0.0018
1756.00,0.0018
1755.00,0.0018
1754.00,0.0018
1753.00,0.0017
1752.00,0.0017
1751.00,0.0017
1750.00,0.0018
1749.00,0.0019
1748.00,0.0021
1747.00,0.0022
1746.00,0.0023
1745.00,0.0024
1744.00,0.0025
1743.00,0.0026
1742.00,0.0026
1741.00,0.0026
1740.00,0.0027
1739.00,0.0028
1738.00,0.0029
1737.00,0.0030
1736.00,0.0031
1735.00,0.0030
1734.00,0.0029
1733.00,0.0029
1732.00,0.0029
1731.00,0.0029
1730.00,0.0030
1729.00,0.0030
1728.00,0.0030
1727.00,0.0030
1726.00,0.0030
1725.00,0.0030
1724.00,0.0031
1723.00,0.0031
1722.00,0.0031
1721.00,0.0031
1720.00,0.0031
1719.00,0.0030
1718.00,0.0029
1717.00,0.0029
1716.00,0.0030
1715.00,0.0030
1714.00,0.0031
1713.00,0.0031
1712.00,0.0031
1711.00,0.0031
1710.00,0.0032
1709.00,0.0032
1708.00,0.0033
1707.00,0.0033
1706.00,0.0034
1705.00,0.0035
1704.00,0.0036
1703.00,0.0037
1702.00,0.0038
1701.00,0.0039
1700.00,0.0040
1699.00,0.0040
1698.00,0.0040
1697.00,0.0041
1696.00,0.0042
1695.00,0.0044
1694.00,0.0045
1693.00,0.0047
1692.00,0.0049
1691.00,0.0051
1690.00,0.0052
1689.00,0.0054
1688.00,0.0056
1687.00,0.0058
1686.00,0.0058
1685.00,0.0060
1684.00,0.0064
1683.00,0.0067
1682.00,0.0070
1681.00,0.0072
1680.00,0.0075
1679.00,0.0077
1678.00,0.0078
1677.00,0.0080
1676.00,0.0082
1675.00,0.0084
1674.00,0.0086
1673.00,0.0088
1672.00,0.0089
1671.00,0.0091
1670.00,0.0093
1669.00,0.0095
1668.00,0.0096
1667.00,0.0097
1666.00,0.0098
1665.00,0.0100
1664.00,0.0101
1663.00,0.0103
1662.00,0.0103
1661.00,0.0104
1660.00,0.0104
1659.00,0.0105
1658.00,0.0106
1657.00,0.0107
1656.00,0.0108
1655.00,0.0109
1654.00,0.0110
1653.00,0.0113
1652.00,0.0114
1651.00,0.0114
1650.00,0.0116
1649.00,0.0118
1648.00,0.0121
1647.00,0.0124
1646.00,0.0126
1645.00,0.0127
1644.00,0.0126
1643.00,0.0125
1642.00,0.0124
1641.00,0.0123
1640.00,0.0122
1639.00,0.0122
1638.00,0.0121
1637.00,0.0121
1636.00,0.0121
1635.00,0.0121
1634.00,0.0120
1633.00,0.0120
1632.00,0.0120
1631.00,0.0119
1630.00,0.0119
1629.00,0.0118
1628.00,0.0118
1627.00,0.0117
1626.00,0.0116
1625.00,0.0115
1624.00,0.0113
1623.00,0.0112
1622.00,0.0111
1621.00,0.0110
1620.00,0.0110
1619.00,0.0109
1618.00,0.0107
1617.00,0.0105
1616.00,0.0105
1615.00,0.0105
1614.00,0.0106
1613.00,0.0106
1612.00,0.0106
1611.00,0.0106
1610.00,0.0106
1609.00,0.0106
1608.00,0.0107
1607.00,0.0107
1606.00,0.0106
1605.00,0.0106
1604.00,0.0105
1603.00,0.0105
1602.00,0.0104
1601.00,0.0104
1600.00,0.0103
1599.00,0.0102
1598.00,0.0102
1597.00,0.0102
1596.00,0.0102
1595.00,0.0102
1594.00,0.0102
1593.00,0.0101
1592.00,0.0102
1591.00,0.0102
1590.00,0.0102
1589.00,0.0103
1588.00,0.0104
1587.00,0.0105
1586.00,0.0106
1585.00,0.0108
1584.00,0.0110
1583.00,0.0112
1582.00,0.0114
1581.00,0.0118
1580.00,0.0121
1579.00,0.0123
1578.00,0.0123
1577.00,0.0123
1576.00,0.0122
1575.00,0.0120
1574.00,0.0119
1573.00,0.0118
1572.00,0.0118
1571.00,0.0116
1570.00,0.0114
1569.00,0.0112
1568.00,0.0110
1567.00,0.0109
1566.00,0.0109
1565.00,0.0110
1564.00,0.0110
1563.00,0.0110
1562.00,0.0110
1561.00,0.0111
1560.00,0.0111
1559.00,0.0112
1558.00,0.0113
1557.00,0.0114
1556.00,0.0115
1555.00,0.0116
1554.00,0.0118
1553.00,0.0120
1552.00,0.0122
1551.00,0.0124
1550.00,0.0126
1549.00,0.0129
1548.00,0.0131
1547.00,0.0133
1546.00,0.0135
1545.00,0.0138
1544.00,0.0141
1543.00,0.0143
1542.00,0.0144
1541.00,0.0144
1540.00,0.0142
1539.00,0.0138
1538.00,0.0134
1537.00,0.0131
1536.00,0.0129
1535.00,0.0125
1534.00,0.0119
1533.00,0.0114
1532.00,0.0111
1531.00,0.0107
1530.00,0.0104
1529.00,0.0102
1528.00,0.0099
1527.00,0.0096
1526.00,0.0094
1525.00,0.0092
1524.00,0.0091
1523.00,0.0090
1522.00,0.0088
1521.00,0.0087
1520.00,0.0086
1519.00,0.0085
1518.00,0.0084
1517.00,0.0084
1516.00,0.0084
1515.00,0.0083
1514.00,0.0083
1513.00,0.0083
1512.00,0.0084
1511.00,0.0085
1510.00,0.0085
1509.00,0.0087
1508.00,0.0088
1507.00,0.0089
1506.00,0.0089
1505.00,0.0090
1504.00,0.0091
1503.00,0.0093
1502.00,0.0096
1501.00,0.0100
1500.00,0.0104
1499.00,0.0109
1498.00,0.0114
1497.00,0.0121
1496.00,0.0129
1495.00,0.0135
1494.00,0.0139
1493.00,0.0144
1492.00,0.0150
1491.00,0.0155
1490.00,0.0159
1489.00,0.0165
1488.00,0.0171
1487.00,0.0176
1486.00,0.0180
1485.00,0.0187
1484.00,0.0194
1483.00,0.0201
1482.00,0.0211
1481.00,0.0223
1480.00,0.0236
1479.00,0.0249
1478.00,0.0264
1477.00,0.0284
1476.00,0.0309
1475.00,0.0338
1474.00,0.0378
1473.00,0.0434
1472.00,0.0501
1471.00,0.0564
1470.00,0.0624
1469.00,0.0686
1468.00,0.0753
1467.00,0.0826
1466.00,0.0909
1465.00,0.1000
1464.00,0.1079
1463.00,0.1134
1462.00,0.1168
1461.00,0.1191
1460.00,0.1207
1459.00,0.1217
1458.00,0.1225
1457.00,0.1230
1456.00,0.1228
1455.00,0.1218
1454.00,0.1204
1453.00,0.1184
1452.00,0.1155
1451.00,0.1114
1450.00,0.1061
1449.00,0.0991
1448.00,0.0904
1447.00,0.0814
1446.00,0.0733
1445.00,0.0665
1444.00,0.0607
1443.00,0.0560
1442.00,0.0524
1441.00,0.0499
1440.00,0.0484
1439.00,0.0478
1438.00,0.0479
1437.00,0.0480
1436.00,0.0470
1435.00,0.0445
1434.00,0.0410
1433.00,0.0368
1432.00,0.0325
1431.00,0.0286
1430.00,0.0255
1429.00,0.0232
1428.00,0.0216
1427.00,0.0207
1426.00,0.0201
1425.00,0.0196
1424.00,0.0192
1423.00,0.0189
1422.00,0.0188
1421.00,0.0186
1420.00,0.0182
1419.00,0.0179
1418.00,0.0176
1417.00,0.0172
1416.00,0.0168
1415.00,0.0165
1414.00,0.0162
1413.00,0.0158
1412.00,0.0155
1411.00,0.0153
1410.00,0.0151
1409.00,0.0150
1408.00,0.0148
1407.00,0.0147
1406.00,0.0147
1405.00,0.0146
1404.00,0.0146
1403.00,0.0146
1402.00,0.0148
1401.00,0.0149
1400.00,0.0150
1399.00,0.0152
1398.00,0.0154
1397.00,0.0155
1396.00,0.0156
1395.00,0.0158
1394.00,0.0162
1393.00,0.0166
1392.00,0.0171
1391.00,0.0179
1390.00,0.0189
1389.00,0.0202
1388.00,0.0223
1387.00,0.0254
1386.00,0.0296
1385.00,0.0352
1384.00,0.0430
1383.00,0.0541
1382.00,0.0691
1381.00,0.0886
1380.00,0.1126
1379.00,0.1395
1378.00,0.1648
1377.00,0.1824
1376.00,0.1870
1375.00,0.1759
1374.00,0.1524
1373.00,0.1253
1372.00,0.1012
1371.00,0.0818
1370.00,0.0665
1369.00,0.0550
1368.00,0.0470
1367.00,0.0421
1366.00,0.0394
1365.00,0.0382
1364.00,0.0384
1363.00,0.0396
1362.00,0.0416
1361.00,0.0436
1360.00,0.0452
1359.00,0.0456
1358.00,0.0447
1357.00,0.0423
1356.00,0.0390
1355.00,0.0353
1354.00,0.0317
1353.00,0.0287
1352.00,0.0262
1351.00,0.0242
1350.00,0.0225
1349.00,0.0212
1348.00,0.0200
1347.00,0.0190
1346.00,0.0182
1345.00,0.0175
1344.00,0.0168
1343.00,0.0163
1342.00,0.0157
1341.00,0.0153
1340.00,0.0149
1339.00,0.0146
1338.00,0.0144
1337.00,0.0143
1336.00,0.0143
1335.00,0.0144
1334.00,0.0147
1333.00,0.0150
1332.00,0.0154
1331.00,0.0157
1330.00,0.0157
1329.00,0.0156
1328.00,0.0152
1327.00,0.0147
1326.00,0.0142
1325.00,0.0137
1324.00,0.0131
1323.00,0.0127
1322.00,0.0123
1321.00,0.0121
1320.00,0.0119
1319.00,0.0117
1318.00,0.0116
1317.00,0.0114
1316.00,0.0112
1315.00,0.0111
1314.00,0.0111
1313.00,0.0111
1312.00,0.0112
1311.00,0.0115
1310.00,0.0118
1309.00,0.0124
1308.00,0.0132
1307.00,0.0143
1306.00,0.0153
1305.00,0.0161
1304.00,0.0165
1303.00,0.0163
1302.00,0.0159
1301.00,0.0156
1300.00,0.0154
1299.00,0.0153
1298.00,0.0154
1297.00,0.0153
1296.00,0.0152
1295.00,0.0150
1294.00,0.0146
1293.00,0.0142
1292.00,0.0137
1291.00,0.0132
1290.00,0.0128
1289.00,0.0125
1288.00,0.0122
1287.00,0.0119
1286.00,0.0116
1285.00,0.0113
1284.00,0.0111
1283.00,0.0109
1282.00,0.0108
1281.00,0.0107
1280.00,0.0105
1279.00,0.0104
1278.00,0.0104
1277.00,0.0103
1276.00,0.0102
1275.00,0.0101
1274.00,0.0101
1273.00,0.0101
1272.00,0.0101
1271.00,0.0101
1270.00,0.0103
1269.00,0.0105
1268.00,0.0107
1267.00,0.0110
1266.00,0.0112
1265.00,0.0115
1264.00,0.0119
1263.00,0.0122
1262.00,0.0126
1261.00,0.0131
1260.00,0.0137
1259.00,0.0144
1258.00,0.0150
1257.00,0.0156
1256.00,0.0158
1255.00,0.0156
1254.00,0.0150
1253.00,0.0141
1252.00,0.0133
1251.00,0.0126
1250.00,0.0121
1249.00,0.0117
1248.00,0.0115
1247.00,0.0113
1246.00,0.0111
1245.00,0.0109
1244.00,0.0107
1243.00,0.0105
1242.00,0.0104
1241.00,0.0104
1240.00,0.0103
1239.00,0.0102
1238.00,0.0102
1237.00,0.0101
1236.00,0.0101
1235.00,0.0101
1234.00,0.0102
1233.00,0.0102
1232.00,0.0102
1231.00,0.0103
1230.00,0.0104
1229.00,0.0104
1228.00,0.0105
1227.00,0.0107
1226.00,0.0109
1225.00,0.0112
1224.00,0.0116
1223.00,0.0121
1222.00,0.0125
1221.00,0.0128
1220.00,0.0129
1219.00,0.0130
1218.00,0.0129
1217.00,0.0127
1216.00,0.0124
1215.00,0.0120
1214.00,0.0116
1213.00,0.0113
1212.00,0.0110
1211.00,0.0107
1210.00,0.0105
1209.00,0.0103
1208.00,0.0102
1207.00,0.0102
1206.00,0.0101
1205.00,0.0100
1204.00,0.0100
1203.00,0.0100
1202.00,0.0100
1201.00,0.0100
1200.00,0.0100
1199.00,0.0100
1198.00,0.0100
1197.00,0.0100
1196.00,0.0101
1195.00,0.0101
1194.00,0.0101
1193.00,0.0101
1192.00,0.0100
1191.00,0.0100
1190.00,0.0100
1189.00,0.0100
1188.00,0.0100
1187.00,0.0100
1186.00,0.0101
1185.00,0.0102
1184.00,0.0102
1183.00,0.0103
1182.00,0.0105
1181.00,0.0108
1180.00,0.0112
1179.00,0.0117
1178.00,0.0123
1177.00,0.0131
1176.00,0.0143
1175.00,0.0159
1174.00,0.0179
1173.00,0.0203
1172.00,0.0231
1171.00,0.0261
1170.00,0.0290
1169.00,0.0312
1168.00,0.0324
1167.00,0.0324
1166.00,0.0316
1165.00,0.0303
1164.00,0.0288
1163.00,0.0274
1162.00,0.0262
1161.00,0.0253
1160.00,0.0246
1159.00,0.0241
1158.00,0.0238
1157.00,0.0236
1156.00,0.0235
1155.00,0.0235
1154.00,0.0234
1153.00,0.0233
1152.00,0.0229
1151.00,0.0224
1150.00,0.0216
1149.00,0.0208
1148.00,0.0199
1147.00,0.0191
1146.00,0.0183
1145.00,0.0175
1144.00,0.0169
1143.00,0.0163
1142.00,0.0157
1141.00,0.0151
1140.00,0.0146
1139.00,0.0141
1138.00,0.0137
1137.00,0.0134
1136.00,0.0132
1135.00,0.0131
1134.00,0.0130
1133.00,0.0130
1132.00,0.0130
1131.00,0.0130
1130.00,0.0131
1129.00,0.0132
1128.00,0.0134
1127.00,0.0136
1126.00,0.0137
1125.00,0.0139
1124.00,0.0140
1123.00,0.0142
1122.00,0.0143
1121.00,0.0145
1120.00,0.0147
1119.00,0.0149
1118.00,0.0150
1117.00,0.0151
1116.00,0.0152
1115.00,0.0153
1114.00,0.0153
1113.00,0.0154
1112.00,0.0155
1111.00,0.0157
1110.00,0.0160
1109.00,0.0163
1108.00,0.0167
1107.00,0.0172
1106.00,0.0178
1105.00,0.0183
1104.00,0.0187
1103.00,0.0188
1102.00,0.0187
1101.00,0.0183
1100.00,0.0177
1099.00,0.0171
1098.00,0.0166
1097.00,0.0162
1096.00,0.0158
1095.00,0.0154
1094.00,0.0151
1093.00,0.0148
1092.00,0.0145
1091.00,0.0142
1090.00,0.0140
1089.00,0.0138
1088.00,0.0136
1087.00,0.0135
1086.00,0.0133
1085.00,0.0132
1084.00,0.0130
1083.00,0.0129
1082.00,0.0127
1081.00,0.0126
1080.00,0.0124
1079.00,0.0122
1078.00,0.0121
1077.00,0.0119
1076.00,0.0118
1075.00,0.0116
1074.00,0.0114
1073.00,0.0112
1072.00,0.0111
1071.00,0.0110
1070.00,0.0109
1069.00,0.0109
1068.00,0.0108
1067.00,0.0108
1066.00,0.0108
1065.00,0.0108
1064.00,0.0108
1063.00,0.0108
1062.00,0.0109
1061.00,0.0109
1060.00,0.0109
1059.00,0.0108
1058.00,0.0107
1057.00,0.0106
1056.00,0.0105
1055.00,0.0106
1054.00,0.0107
1053.00,0.0108
1052.00,0.0110
1051.00,0.0112
1050.00,0.0114
1049.00,0.0116
1048.00,0.0118
1047.00,0.0121
1046.00,0.0124
1045.00,0.0125
1044.00,0.0126
1043.00,0.0124
1042.00,0.0123
1041.00,0.0122
1040.00,0.0122
1039.00,0.0123
1038.00,0.0123
1037.00,0.0123
1036.00,0.0123
1035.00,0.0123
1034.00,0.0122
1033.00,0.0122
1032.00,0.0120
1031.00,0.0118
1030.00,0.0115
1029.00,0.0113
1028.00,0.0111
1027.00,0.0110
1026.00,0.0109
1025.00,0.0108
1024.00,0.0107
1023.00,0.0107
1022.00,0.0107
1021.00,0.0108
1020.00,0.0109
1019.00,0.0110
1018.00,0.0112
1017.00,0.0113
1016.00,0.0114
1015.00,0.0116
1014.00,0.0119
1013.00,0.0122
1012.00,0.0125
1011.00,0.0127
1010.00,0.0129
1009.00,0.0130
1008.00,0.0133
1007.00,0.0138
1006.00,0.0146
1005.00,0.0157
1004.00,0.0173
1003.00,0.0196
1002.00,0.0225
1001.00,0.0261
1000.00,0.0298
999.00,0.0329
998.00,0.0343
997.00,0.0335
996.00,0.0308
995.00,0.0270
994.00,0.0232
993.00,0.0199
992.00,0.0174
991.00,0.0157
990.00,0.0144
989.00,0.0135
988.00,0.0129
987.00,0.0126
986.00,0.0126
985.00,0.0128
984.00,0.0132
983.00,0.0140
982.00,0.0151
981.00,0.0167
980.00,0.0189
979.00,0.0218
978.00,0.0255
977.00,0.0299
976.00,0.0344
975.00,0.0384
974.00,0.0410
973.00,0.0415
972.00,0.0396
971.00,0.0357
970.00,0.0308
969.00,0.0259
968.00,0.0219
967.00,0.0188
966.00,0.0165
965.00,0.0149
964.00,0.0136
963.00,0.0127
962.00,0.0119
961.00,0.0114
960.00,0.0110
959.00,0.0108
958.00,0.0106
957.00,0.0104
956.00,0.0102
955.00,0.0099
954.00,0.0096
953.00,0.0095
952.00,0.0094
951.00,0.0093
950.00,0.0092
949.00,0.0092
948.00,0.0092
947.00,0.0093
946.00,0.0096
945.00,0.0098
944.00,0.0102
943.00,0.0105
942.00,0.0108
941.00,0.0109
940.00,0.0109
939.00,0.0107
938.00,0.0103
937.00,0.0099
936.00,0.0094
935.00,0.0089
934.00,0.0085
933.00,0.0082
932.00,0.0080
931.00,0.0079
930.00,0.0079
929.00,0.0079
928.00,0.0078
927.00,0.0078
926.00,0.0078
925.00,0.0078
924.00,0.0078
923.00,0.0078
922.00,0.0077
921.00,0.0076
920.00,0.0076
919.00,0.0076
918.00,0.0076
917.00,0.0077
916.00,0.0077
915.00,0.0078
914.00,0.0079
913.00,0.0081
912.00,0.0083
911.00,0.0085
910.00,0.0087
909.00,0.0089
908.00,0.0093
907.00,0.0098
906.00,0.0105
905.00,0.0116
904.00,0.0130
903.00,0.0147
902.00,0.0166
901.00,0.0182
900.00,0.0193
899.00,0.0194
898.00,0.0185
897.00,0.0170
896.00,0.0153
895.00,0.0136
894.00,0.0123
893.00,0.0112
892.00,0.0104
891.00,0.0098
890.00,0.0094
889.00,0.0091
888.00,0.0090
887.00,0.0090
886.00,0.0091
885.00,0.0091
884.00,0.0092
883.00,0.0092
882.00,0.0093
881.00,0.0095
880.00,0.0097
879.00,0.0100
878.00,0.0103
877.00,0.0105
876.00,0.0105
875.00,0.0103
874.00,0.0101
873.00,0.0100
872.00,0.0099
871.00,0.0099
870.00,0.0098
869.00,0.0097
868.00,0.0095
867.00,0.0094
866.00,0.0093
865.00,0.0093
864.00,0.0093
863.00,0.0093
862.00,0.0093
861.00,0.0094
860.00,0.0096
859.00,0.0098
858.00,0.0100
857.00,0.0102
856.00,0.0103
855.00,0.0104
854.00,0.0106
853.00,0.0108
852.00,0.0111
851.00,0.0114
850.00,0.0119
849.00,0.0127
848.00,0.0136
847.00,0.0148
846.00,0.0169
845.00,0.0201
844.00,0.0245
843.00,0.0293
842.00,0.0325
841.00,0.0329
840.00,0.0302
839.00,0.0256
838.00,0.0211
837.00,0.0177
836.00,0.0155
835.00,0.0142
834.00,0.0135
833.00,0.0131
832.00,0.0128
831.00,0.0126
830.00,0.0124
829.00,0.0122
828.00,0.0121
827.00,0.0119
826.00,0.0118
825.00,0.0116
824.00,0.0114
823.00,0.0114
822.00,0.0116
821.00,0.0118
820.00,0.0120
819.00,0.0123
818.00,0.0126
817.00,0.0131
816.00,0.0138
815.00,0.0148
814.00,0.0163
813.00,0.0181
812.00,0.0199
811.00,0.0216
810.00,0.0228
809.00,0.0234
808.00,0.0232
807.00,0.0223
806.00,0.0209
805.00,0.0192
804.00,0.0175
803.00,0.0160
802.00,0.0148
801.00,0.0139
800.00,0.0133
799.00,0.0127
798.00,0.0121
797.00,0.0117
796.00,0.0113
795.00,0.0111
794.00,0.0109
793.00,0.0108
792.00,0.0107
791.00,0.0105
790.00,0.0102
789.00,0.0097
788.00,0.0093
787.00,0.0088
786.00,0.0085
785.00,0.0083
784.00,0.0082
783.00,0.0082
782.00,0.0081
781.00,0.0080
780.00,0.0080
779.00,0.0080
778.00,0.0079
777.00,0.0078
776.00,0.0077
775.00,0.0076
774.00,0.0077
773.00,0.0078
772.00,0.0079
771.00,0.0080
770.00,0.0080
769.00,0.0081
768.00,0.0082
767.00,0.0082
766.00,0.0081
765.00,0.0081
764.00,0.0081
763.00,0.0082
762.00,0.0084
761.00,0.0085
760.00,0.0086
759.00,0.0085
758.00,0.0084
757.00,0.0083
756.00,0.0082
755.00,0.0082
754.00,0.0084
753.00,0.0086
752.00,0.0088
751.00,0.0090
750.00,0.0091
749.00,0.0092
748.00,0.0094
747.00,0.0095
746.00,0.0096
745.00,0.0097
744.00,0.0100
743.00,0.0103
742.00,0.0106
741.00,0.0109
740.00,0.0112
739.00,0.0116
738.00,0.0121
737.00,0.0125
736.00,0.0130
735.00,0.0134
734.00,0.0139
733.00,0.0144
732.00,0.0149
731.00,0.0156
730.00,0.0162
729.00,0.0165
728.00,0.0167
727.00,0.0168
726.00,0.0169
725.00,0.0171
724.00,0.0175
723.00,0.0180
722.00,0.0185
721.00,0.0189
720.00,0.0187
719.00,0.0178
718.00,0.0166
717.00,0.0152
716.00,0.0141
715.00,0.0133
714.00,0.0127
713.00,0.0123
712.00,0.0120
711.00,0.0118
710.00,0.0117
709.00,0.0117
708.00,0.0117
707.00,0.0116
706.00,0.0114
705.00,0.0113
704.00,0.0113
703.00,0.0112
702.00,0.0109
701.00,0.0105
700.00,0.0099
699.00,0.0094
698.00,0.0091
697.00,0.0089
696.00,0.0089
695.00,0.0089
694.00,0.0089
693.00,0.0088
692.00,0.0087
691.00,0.0086
690.00,0.0087
689.00,0.0087
688.00,0.0087
687.00,0.0086
686.00,0.0085
685.00,0.0085
684.00,0.0086
683.00,0.0087
682.00,0.0087
681.00,0.0085
680.00,0.0084
679.00,0.0084
678.00,0.0087
677.00,0.0090
676.00,0.0093
675.00,0.0094
674.00,0.0094
673.00,0.0094
672.00,0.0093
671.00,0.0092
670.00,0.0089
669.00,0.0085
668.00,0.0083
667.00,0.0085
666.00,0.0088
665.00,0.0090
664.00,0.0090
663.00,0.0089
662.00,0.0088
661.00,0.0087
660.00,0.0087
659.00,0.0087
658.00,0.0087
657.00,0.0088
656.00,0.0089
655.00,0.0090
654.00,0.0091
653.00,0.0090
652.00,0.0089
651.00,0.0088
650.00,0.0087
649.00,0.0086
648.00,0.0087
647.00,0.0088
646.00,0.0089
645.00,0.0090
644.00,0.0090
643.00,0.0090
642.00,0.0091
641.00,0.0093
640.00,0.0095
639.00,0.0096
638.00,0.0095
637.00,0.0093
636.00,0.0092
635.00,0.0091
634.00,0.0091
633.00,0.0093
632.00,0.0095
631.00,0.0097
630.00,0.0098
629.00,0.0097
628.00,0.0096
627.00,0.0095
626.00,0.0094
625.00,0.0093
624.00,0.0092
623.00,0.0091
622.00,0.0093
621.00,0.0095
620.00,0.0096
619.00,0.0097
618.00,0.0096
617.00,0.0095
616.00,0.0092
615.00,0.0091
614.00,0.0090
613.00,0.0091
612.00,0.0093
611.00,0.0096
610.00,0.0099
609.00,0.0100
608.00,0.0100
607.00,0.0099
606.00,0.0099
605.00,0.0098
604.00,0.0096
603.00,0.0092
602.00,0.0090
601.00,0.0090
600.00,0.0091
599.00,0.0093
598.00,0.0094
597.00,0.0096
596.00,0.0098
595.00,0.0100
594.00,0.0102
593.00,0.0101
592.00,0.0100
591.00,0.0097
590.00,0.0095
589.00,0.0092
588.00,0.0092
587.00,0.0094
586.00,0.0098
585.00,0.0102
584.00,0.0103
583.00,0.0101
582.00,0.0098
581.00,0.0094
580.00,0.0092
579.00,0.0091
578.00,0.0090
577.00,0.0088
576.00,0.0086
575.00,0.0084
574.00,0.0085
573.00,0.0088
572.00,0.0092
571.00,0.0096
570.00,0.0099
569.00,0.0101
568.00,0.0101
567.00,0.0101
566.00,0.0099
565.00,0.0097
564.00,0.0094
563.00,0.0092
562.00,0.0090
561.00,0.0091
560.00,0.0093
559.00,0.0097
558.00,0.0099
557.00,0.0099
556.00,0.0096
555.00,0.0094
554.00,0.0092
553.00,0.0091
552.00,0.0090
551.00,0.0088
550.00,0.0087
549.00,0.0088
548.00,0.0091
547.00,0.0094
546.00,0.0094
545.00,0.0093
544.00,0.0093
543.00,0.0094
542.00,0.0095
541.00,0.0093
540.00,0.0092
539.00,0.0092
538.00,0.0096
537.00,0.0102
536.00,0.0106
535.00,0.0106
534.00,0.0105
533.00,0.0105
532.00,0.0107
531.00,0.0111
530.00,0.0112
529.00,0.0110
528.00,0.0105
527.00,0.0101
526.00,0.0100
525.00,0.0101
524.00,0.0101
523.00,0.0100
522.00,0.0097
521.00,0.0096
520.00,0.0099
519.00,0.0104
518.00,0.0107
517.00,0.0107
516.00,0.0104
515.00,0.0102
514.00,0.0103
513.00,0.0102
512.00,0.0099
511.00,0.0095
510.00,0.0093
509.00,0.0092
508.00,0.0091
507.00,0.0089
506.00,0.0090
505.00,0.0091
504.00,0.0091
503.00,0.0089
502.00,0.0087
501.00,0.0086
500.00,0.0087
499.00,0.0085
498.00,0.0081
497.00,0.0077
496.00,0.0075
495.00,0.0075
494.00,0.0076
493.00,0.0077
492.00,0.0080
491.00,0.0084
490.00,0.0088
489.00,0.0092
488.00,0.0095
487.00,0.0099
486.00,0.0102
485.00,0.0104
484.00,0.0103
483.00,0.0098
482.00,0.0091
481.00,0.0086
480.00,0.0085
479.00,0.0089
478.00,0.0098
477.00,0.0107
476.00,0.0113
475.00,0.0114
474.00,0.0112
473.00,0.0113
472.00,0.0118
471.00,0.0123
470.00,0.0122
469.00,0.0118
468.00,0.0114
467.00,0.0112
466.00,0.0112
465.00,0.0111
464.00,0.0112
463.00,0.0121
462.00,0.0139
461.00,0.0163
460.00,0.0182
459.00,0.0188
458.00,0.0175
457.00,0.0155
456.00,0.0143
455.00,0.0146
454.00,0.0153
453.00,0.0157
452.00,0.0156
451.00,0.0154
450.00,0.0155
