Created as New Dataset,Sample 137 By Administrator Date Friday, September 05 2025
cm-1,A
4000.00,0.0011
3999.00,0.0011
3998.00,0.0011
3997.00,0.0011
3996.00,0.0011
3995.00,0.0011
3994.00,0.0012
3993.00,0.0012
3992.00,0.0012
3991.00,0.0012
3990.00,0.0012
3989.00,0.0012
3988.00,0.0011
3987.00,0.0011
3986.00,0.0010
3985.00,0.0010
3984.00,0.0010
3983.00,0.0010
3982.00,0.0010
3981.00,0.0011
3980.00,0.0011
3979.00,0.0011
3978.00,0.0011
3977.00,0.0011
3976.00,0.0010
3975.00,0.0010
3974.00,0.0010
3973.00,0.0010
3972.00,0.0010
3971.00,0.0010
3970.00,0.0010
3969.00,0.0010
3968.00,0.0010
3967.00,0.0010
3966.00,0.0010
3965.00,0.0009
3964.00,0.0009
3963.00,0.0009
3962.00,0.0009
3961.00,0.0009
3960.00,0.0010
3959.00,0.0010
3958.00,0.0010
3957.00,0.0009
3956.00,0.0009
3955.00,0.0009
3954.00,0.0009
3953.00,0.0010
3952.00,0.0010
3951.00,0.0010
3950.00,0.0010
3949.00,0.0009
3948.00,0.0009
3947.00,0.0009
3946.00,0.0008
3945.00,0.0008
3944.00,0.0008
3943.00,0.0008
3942.00,0.0008
3941.00,0.0008
3940.00,0.0008
3939.00,0.0008
3938.00,0.0008
3937.00,0.0009
3936.00,0.0009
3935.00,0.0009
3934.00,0.0009
3933.00,0.0009
3932.00,0.0009
3931.00,0.0010
3930.00,0.0010
3929.00,0.0010
3928.00,0.0010
3927.00,0.0010
3926.00,0.0010
3925.00,0.0010
3924.00,0.0010
3923.00,0.0010
3922.00,0.0010
3921.00,0.0010
3920.00,0.0010
3919.00,0.0010
3918.00,0.0010
3917.00,0.0010
3916.00,0.0010
3915.00,0.0009
3914.00,0.0009
3913.00,0.0009
3912.00,0.0009
3911.00,0.0009
3910.00,0.0009
3909.00,0.0010
3908.00,0.0010
3907.00,0.0010
3906.00,0.0010
3905.00,0.0009
3904.00,0.0009
3903.00,0.0009
3902.00,0.0009
3901.00,0.0009
3900.00,0.0009
3899.00,0.0009
3898.00,0.0010
3897.00,0.0010
3896.00,0.0009
3895.00,0.0009
3894.00,0.0009
3893.00,0.0009
3892.00,0.0009
3891.00,0.0009
3890.00,0.0009
3889.00,0.0009
3888.00,0.0009
3887.00,0.0009
3886.00,0.0009
3885.00,0.0010
3884.00,0.0010
3883.00,0.0010
3882.00,0.0010
3881.00,0.0009
3880.00,0.0009
3879.00,0.0009
3878.00,0.0009
3877.00,0.0009
3876.00,0.0009
3875.00,0.0009
3874.00,0.0009
3873.00,0.0009
3872.00,0.0009
3871.00,0.0009
3870.00,0.0009
3869.00,0.0009
3868.00,0.0010
3867.00,0.0010
3866.00,0.0009
3865.00,0.0009
3864.00,0.0009
3863.00,0.0009
3862.00,0.0008
3861.00,0.0008
3860.00,0.0008
3859.00,0.0008
3858.00,0.0009
3857.00,0.0009
3856.00,0.0010
3855.00,0.0009
3854.00,0.0009
3853.00,0.0009
3852.00,0.0009
3851.00,0.0009
3850.00,0.0009
3849.00,0.0008
3848.00,0.0008
3847.00,0.0009
3846.00,0.0009
3845.00,0.0009
3844.00,0.0010
3843.00,0.0010
3842.00,0.0010
3841.00,0.0010
3840.00,0.0010
3839.00,0.0010
3838.00,0.0010
3837.00,0.0010
3836.00,0.0010
3835.00,0.0010
3834.00,0.0009
3833.00,0.0009
3832.00,0.0009
3831.00,0.0008
3830.00,0.0008
3829.00,0.0008
3828.00,0.0008
3827.00,0.0008
3826.00,0.0008
3825.00,0.0009
3824.00,0.0009
3823.00,0.0009
3822.00,0.0008
3821.00,0.0008
3820.00,0.0009
3819.00,0.0009
3818.00,0.0009
3817.00,0.0009
3816.00,0.0009
3815.00,0.0009
3814.00,0.0009
3813.00,0.0009
3812.00,0.0009
3811.00,0.0009
3810.00,0.0010
3809.00,0.0010
3808.00,0.0009
3807.00,0.0009
3806.00,0.0009
3805.00,0.0009
3804.00,0.0009
3803.00,0.0009
3802.00,0.0008
3801.00,0.0008
3800.00,0.0008
3799.00,0.0009
3798.00,0.0008
3797.00,0.0008
3796.00,0.0008
3795.00,0.0008
3794.00,0.0008
3793.00,0.0008
3792.00,0.0008
3791.00,0.0008
3790.00,0.0008
3789.00,0.0009
3788.00,0.0009
3787.00,0.0009
3786.00,0.0009
3785.00,0.0009
3784.00,0.0009
3783.00,0.0009
3782.00,0.0008
3781.00,0.0008
3780.00,0.0008
3779.00,0.0008
3778.00,0.0009
3777.00,0.0009
3776.00,0.0009
3775.00,0.0009
3774.00,0.0009
3773.00,0.0009
3772.00,0.0009
3771.00,0.0009
3770.00,0.0009
3769.00,0.0009
3768.00,0.0009
3767.00,0.0009
3766.00,0.0008
3765.00,0.0008
3764.00,0.0009
3763.00,0.0009
3762.00,0.0009
3761.00,0.0009
3760.00,0.0009
3759.00,0.0009
3758.00,0.0009
3757.00,0.0009
3756.00,0.0009
3755.00,0.0009
3754.00,0.0009
3753.00,0.0009
3752.00,0.0009
3751.00,0.0010
3750.00,0.0010
3749.00,0.0011
3748.00,0.0012
3747.00,0.0012
3746.00,0.0011
3745.00,0.0010
3744.00,0.0010
3743.00,0.0009
3742.00,0.0009
3741.00,0.0008
3740.00,0.0008
3739.00,0.0008
3738.00,0.0007
3737.00,0.0007
3736.00,0.0006
3735.00,0.0007
3734.00,0.0007
3733.00,0.0008
3732.00,0.0008
3731.00,0.0008
3730.00,0.0008
3729.00,0.0008
3728.00,0.0008
3727.00,0.0008
3726.00,0.0008
3725.00,0.0007
3724.00,0.0007
3723.00,0.0007
3722.00,0.0007
3721.00,0.0007
3720.00,0.0008
3719.00,0.0008
3718.00,0.0008
3717.00,0.0008
3716.00,0.0008
3715.00,0.0008
3714.00,0.0008
3713.00,0.0007
3712.00,0.0008
3711.00,0.0008
3710.00,0.0008
3709.00,0.0008
3708.00,0.0008
3707.00,0.0008
3706.00,0.0008
3705.00,0.0009
3704.00,0.0009
3703.00,0.0008
3702.00,0.0008
3701.00,0.0008
3700.00,0.0008
3699.00,0.0009
3698.00,0.0009
3697.00,0.0009
3696.00,0.0009
3695.00,0.0009
3694.00,0.0010
3693.00,0.0010
3692.00,0.0011
3691.00,0.0011
3690.00,0.0011
3689.00,0.0010
3688.00,0.0010
3687.00,0.0010
3686.00,0.0010
3685.00,0.0011
3684.00,0.0011
3683.00,0.0012
3682.00,0.0012
3681.00,0.0012
3680.00,0.0012
3679.00,0.0012
3678.00,0.0012
3677.00,0.0012
3676.00,0.0012
3675.00,0.0013
3674.00,0.0014
3673.00,0.0014
3672.00,0.0014
3671.00,0.0014
3670.00,0.0014
3669.00,0.0015
3668.00,0.0015
3667.00,0.0014
3666.00,0.0014
3665.00,0.0013
3664.00,0.0013
3663.00,0.0013
3662.00,0.0013
3661.00,0.0013
3660.00,0.0013
3659.00,0.0013
3658.00,0.0013
3657.00,0.0013
3656.00,0.0014
3655.00,0.0014
3654.00,0.0014
3653.00,0.0014
3652.00,0.0014
3651.00,0.0014
3650.00,0.0014
3649.00,0.0015
3648.00,0.0016
3647.00,0.0016
3646.00,0.0017
3645.00,0.0017
3644.00,0.0017
3643.00,0.0017
3642.00,0.0017
3641.00,0.0017
3640.00,0.0018
3639.00,0.0019
3638.00,0.0019
3637.00,0.0020
3636.00,0.0020
3635.00,0.0021
3634.00,0.0021
3633.00,0.0022
3632.00,0.0022
3631.00,0.0022
3630.00,0.0022
3629.00,0.0023
3628.00,0.0023
3627.00,0.0023
3626.00,0.0023
3625.00,0.0023
3624.00,0.0023
3623.00,0.0024
3622.00,0.0024
3621.00,0.0025
3620.00,0.0025
3619.00,0.0025
3618.00,0.0025
3617.00,0.0026
3616.00,0.0026
3615.00,0.0027
3614.00,0.0027
3613.00,0.0028
3612.00,0.0028
3611.00,0.0028
3610.00,0.0028
3609.00,0.0029
3608.00,0.0030
3607.00,0.0031
3606.00,0.0032
3605.00,0.0032
3604.00,0.0032
3603.00,0.0032
3602.00,0.0032
3601.00,0.0033
3600.00,0.0033
3599.00,0.0034
3598.00,0.0035
3597.00,0.0035
3596.00,0.0036
3595.00,0.0037
3594.00,0.0037
3593.00,0.0038
3592.00,0.0039
3591.00,0.0039
3590.00,0.0040
3589.00,0.0041
3588.00,0.0041
3587.00,0.0042
3586.00,0.0042
3585.00,0.0042
3584.00,0.0043
3583.00,0.0043
3582.00,0.0044
3581.00,0.0044
3580.00,0.0045
3579.00,0.0046
3578.00,0.0047
3577.00,0.0048
3576.00,0.0048
3575.00,0.0049
3574.00,0.0049
3573.00,0.0049
3572.00,0.0050
3571.00,0.0051
3570.00,0.0051
3569.00,0.0052
3568.00,0.0053
3567.00,0.0054
3566.00,0.0055
3565.00,0.0056
3564.00,0.0057
3563.00,0.0057
3562.00,0.0057
3561.00,0.0058
3560.00,0.0058
3559.00,0.0059
3558.00,0.0060
3557.00,0.0061
3556.00,0.0062
3555.00,0.0063
3554.00,0.0064
3553.00,0.0065
3552.00,0.0065
3551.00,0.0066
3550.00,0.0066
3549.00,0.0067
3548.00,0.0067
3547.00,0.0068
3546.00,0.0069
3545.00,0.0070
3544.00,0.0070
3543.00,0.0071
3542.00,0.0072
3541.00,0.0073
3540.00,0.0074
3539.00,0.0075
3538.00,0.0076
3537.00,0.0077
3536.00,0.0078
3535.00,0.0079
3534.00,0.0080
3533.00,0.0080
3532.00,0.0081
3531.00,0.0082
3530.00,0.0083
3529.00,0.0084
3528.00,0.0084
3527.00,0.0085
3526.00,0.0085
3525.00,0.0086
3524.00,0.0087
3523.00,0.0088
3522.00,0.0089
3521.00,0.0090
3520.00,0.0091
3519.00,0.0091
3518.00,0.0092
3517.00,0.0092
3516.00,0.0093
3515.00,0.0095
3514.00,0.0096
3513.00,0.0097
3512.00,0.0097
3511.00,0.0098
3510.00,0.0099
3509.00,0.0100
3508.00,0.0101
3507.00,0.0102
3506.00,0.0102
3505.00,0.0103
3504.00,0.0104
3503.00,0.0104
3502.00,0.0105
3501.00,0.0106
3500.00,0.0107
3499.00,0.0108
3498.00,0.0110
3497.00,0.0111
3496.00,0.0112
3495.00,0.0113
3494.00,0.0114
3493.00,0.0114
3492.00,0.0115
3491.00,0.0116
3490.00,0.0117
3489.00,0.0118
3488.00,0.0118
3487.00,0.0119
3486.00,0.0119
3485.00,0.0120
3484.00,0.0122
3483.00,0.0123
3482.00,0.0124
3481.00,0.0125
3480.00,0.0125
3479.00,0.0126
3478.00,0.0127
3477.00,0.0127
3476.00,0.0128
3475.00,0.0129
3474.00,0.0130
3473.00,0.0130
3472.00,0.0131
3471.00,0.0131
3470.00,0.0132
3469.00,0.0132
3468.00,0.0133
3467.00,0.0134
3466.00,0.0135
3465.00,0.0136
3464.00,0.0136
3463.00,0.0137
3462.00,0.0137
3461.00,0.0138
3460.00,0.0139
3459.00,0.0139
3458.00,0.0140
3457.00,0.0141
3456.00,0.0141
3455.00,0.0142
3454.00,0.0143
3453.00,0.0143
3452.00,0.0143
3451.00,0.0143
3450.00,0.0144
3449.00,0.0145
3448.00,0.0146
3447.00,0.0147
3446.00,0.0148
3445.00,0.0148
3444.00,0.0149
3443.00,0.0150
3442.00,0.0151
3441.00,0.0151
3440.00,0.0152
3439.00,0.0153
3438.00,0.0153
3437.00,0.0153
3436.00,0.0154
3435.00,0.0154
3434.00,0.0155
3433.00,0.0155
3432.00,0.0156
3431.00,0.0156
3430.00,0.0157
3429.00,0.0158
3428.00,0.0158
3427.00,0.0159
3426.00,0.0160
3425.00,0.0160
3424.00,0.0160
3423.00,0.0161
3422.00,0.0161
3421.00,0.0161
3420.00,0.0162
3419.00,0.0163
3418.00,0.0163
3417.00,0.0164
3416.00,0.0164
3415.00,0.0165
3414.00,0.0165
3413.00,0.0166
3412.00,0.0166
3411.00,0.0167
3410.00,0.0167
3409.00,0.0168
3408.00,0.0168
3407.00,0.0168
3406.00,0.0168
3405.00,0.0169
3404.00,0.0169
3403.00,0.0169
3402.00,0.0170
3401.00,0.0170
3400.00,0.0171
3399.00,0.0171
3398.00,0.0171
3397.00,0.0172
3396.00,0.0172
3395.00,0.0172
3394.00,0.0172
3393.00,0.0173
3392.00,0.0173
3391.00,0.0172
3390.00,0.0173
3389.00,0.0173
3388.00,0.0173
3387.00,0.0173
3386.00,0.0174
3385.00,0.0174
3384.00,0.0174
3383.00,0.0174
3382.00,0.0175
3381.00,0.0174
3380.00,0.0174
3379.00,0.0174
3378.00,0.0174
3377.00,0.0174
3376.00,0.0175
3375.00,0.0175
3374.00,0.0175
3373.00,0.0175
3372.00,0.0175
3371.00,0.0175
3370.00,0.0175
3369.00,0.0175
3368.00,0.0175
3367.00,0.0175
3366.00,0.0175
3365.00,0.0175
3364.00,0.0175
3363.00,0.0175
3362.00,0.0175
3361.00,0.0174
3360.00,0.0174
3359.00,0.0174
3358.00,0.0174
3357.00,0.0174
3356.00,0.0174
3355.00,0.0174
3354.00,0.0174
3353.00,0.0174
3352.00,0.0174
3351.00,0.0174
3350.00,0.0174
3349.00,0.0174
3348.00,0.0174
3347.00,0.0174
3346.00,0.0174
3345.00,0.0174
3344.00,0.0174
3343.00,0.0174
3342.00,0.0174
3341.00,0.0174
3340.00,0.0173
3339.00,0.0173
3338.00,0.0173
3337.00,0.0173
3336.00,0.0172
3335.00,0.0172
3334.00,0.0172
3333.00,0.0171
3332.00,0.0171
3331.00,0.0170
3330.00,0.0170
3329.00,0.0170
3328.00,0.0169
3327.00,0.0169
3326.00,0.0168
3325.00,0.0168
3324.00,0.0168
3323.00,0.0168
3322.00,0.0167
3321.00,0.0167
3320.00,0.0167
3319.00,0.0167
3318.00,0.0167
3317.00,0.0167
3316.00,0.0167
3315.00,0.0166
3314.00,0.0166
3313.00,0.0165
3312.00,0.0164
3311.00,0.0164
3310.00,0.0163
3309.00,0.0163
3308.00,0.0163
3307.00,0.0163
3306.00,0.0162
3305.00,0.0162
3304.00,0.0162
3303.00,0.0161
3302.00,0.0161
3301.00,0.0161
3300.00,0.0161
3299.00,0.0160
3298.00,0.0159
3297.00,0.0159
3296.00,0.0158
3295.00,0.0157
3294.00,0.0157
3293.00,0.0157
3292.00,0.0156
3291.00,0.0156
3290.00,0.0155
3289.00,0.0154
3288.00,0.0153
3287.00,0.0153
3286.00,0.0152
3285.00,0.0152
3284.00,0.0151
3283.00,0.0150
3282.00,0.0150
3281.00,0.0149
3280.00,0.0148
3279.00,0.0148
3278.00,0.0147
3277.00,0.0147
3276.00,0.0146
3275.00,0.0145
3274.00,0.0145
3273.00,0.0145
3272.00,0.0144
3271.00,0.0144
3270.00,0.0144
3269.00,0.0143
3268.00,0.0143
3267.00,0.0142
3266.00,0.0141
3265.00,0.0141
3264.00,0.0140
3263.00,0.0140
3262.00,0.0139
3261.00,0.0139
3260.00,0.0138
3259.00,0.0138
3258.00,0.0137
3257.00,0.0137
3256.00,0.0136
3255.00,0.0136
3254.00,0.0135
3253.00,0.0134
3252.00,0.0134
3251.00,0.0133
3250.00,0.0133
3249.00,0.0133
3248.00,0.0132
3247.00,0.0131
3246.00,0.0131
3245.00,0.0130
3244.00,0.0130
3243.00,0.0130
3242.00,0.0130
3241.00,0.0129
3240.00,0.0128
3239.00,0.0127
3238.00,0.0127
3237.00,0.0126
3236.00,0.0126
3235.00,0.0126
3234.00,0.0125
3233.00,0.0125
3232.00,0.0125
3231.00,0.0125
3230.00,0.0124
3229.00,0.0124
3228.00,0.0123
3227.00,0.0123
3226.00,0.0123
3225.00,0.0123
3224.00,0.0123
3223.00,0.0122
3222.00,0.0122
3221.00,0.0122
3220.00,0.0122
3219.00,0.0122
3218.00,0.0122
3217.00,0.0122
3216.00,0.0122
3215.00,0.0122
3214.00,0.0122
3213.00,0.0122
3212.00,0.0122
3211.00,0.0122
3210.00,0.0121
3209.00,0.0121
3208.00,0.0121
3207.00,0.0121
3206.00,0.0121
3205.00,0.0120
3204.00,0.0120
3203.00,0.0120
3202.00,0.0120
3201.00,0.0120
3200.00,0.0119
3199.00,0.0119
3198.00,0.0118
3197.00,0.0118
3196.00,0.0118
3195.00,0.0118
3194.00,0.0118
3193.00,0.0118
3192.00,0.0117
3191.00,0.0117
3190.00,0.0116
3189.00,0.0116
3188.00,0.0116
3187.00,0.0116
3186.00,0.0115
3185.00,0.0114
3184.00,0.0114
3183.00,0.0113
3182.00,0.0113
3181.00,0.0112
3180.00,0.0112
3179.00,0.0111
3178.00,0.0110
3177.00,0.0110
3176.00,0.0110
3175.00,0.0110
3174.00,0.0109
3173.00,0.0108
3172.00,0.0108
3171.00,0.0107
3170.00,0.0107
3169.00,0.0106
3168.00,0.0106
3167.00,0.0106
3166.00,0.0105
3165.00,0.0105
3164.00,0.0104
3163.00,0.0104
3162.00,0.0103
3161.00,0.0103
3160.00,0.0102
3159.00,0.0102
3158.00,0.0101
3157.00,0.0101
3156.00,0.0100
3155.00,0.0100
3154.00,0.0099
3153.00,0.0098
3152.00,0.0098
3151.00,0.0097
3150.00,0.0097
3149.00,0.0097
3148.00,0.0097
3147.00,0.0097
3146.00,0.0096
3145.00,0.0096
3144.00,0.0095
3143.00,0.0095
3142.00,0.0094
3141.00,0.0093
3140.00,0.0093
3139.00,0.0093
3138.00,0.0092
3137.00,0.0092
3136.00,0.0092
3135.00,0.0092
3134.00,0.0092
3133.00,0.0092
3132.00,0.0092
3131.00,0.0091
3130.00,0.0090
3129.00,0.0089
3128.00,0.0089
3127.00,0.0088
3126.00,0.0088
3125.00,0.0088
3124.00,0.0088
3123.00,0.0087
3122.00,0.0087
3121.00,0.0086
3120.00,0.0085
3119.00,0.0085
3118.00,0.0084
3117.00,0.0083
3116.00,0.0083
3115.00,0.0082
3114.00,0.0082
3113.00,0.0081
3112.00,0.0081
3111.00,0.0081
3110.00,0.0080
3109.00,0.0080
3108.00,0.0079
3107.00,0.0078
3106.00,0.0078
3105.00,0.0078
3104.00,0.0078
3103.00,0.0077
3102.00,0.0077
3101.00,0.0076
3100.00,0.0075
3099.00,0.0075
3098.00,0.0074
3097.00,0.0074
3096.00,0.0074
3095.00,0.0074
3094.00,0.0074
3093.00,0.0073
3092.00,0.0073
3091.00,0.0072
3090.00,0.0072
3089.00,0.0072
3088.00,0.0071
3087.00,0.0071
3086.00,0.0070
3085.00,0.0070
3084.00,0.0070
3083.00,0.0070
3082.00,0.0070
3081.00,0.0070
3080.00,0.0069
3079.00,0.0069
3078.00,0.0069
3077.00,0.0069
3076.00,0.0069
3075.00,0.0069
3074.00,0.0070
3073.00,0.0070
3072.00,0.0070
3071.00,0.0070
3070.00,0.0071
3069.00,0.0071
3068.00,0.0071
3067.00,0.0071
3066.00,0.0071
3065.00,0.0071
3064.00,0.0071
3063.00,0.0072
3062.00,0.0072
3061.00,0.0071
3060.00,0.0071
3059.00,0.0071
3058.00,0.0071
3057.00,0.0071
3056.00,0.0071
3055.00,0.0071
3054.00,0.0070
3053.00,0.0070
3052.00,0.0070
3051.00,0.0070
3050.00,0.0071
3049.00,0.0071
3048.00,0.0071
3047.00,0.0071
3046.00,0.0071
3045.00,0.0071
3044.00,0.0071
3043.00,0.0071
3042.00,0.0072
3041.00,0.0072
3040.00,0.0073
3039.00,0.0074
3038.00,0.0074
3037.00,0.0075
3036.00,0.0075
3035.00,0.0075
3034.00,0.0076
3033.00,0.0076
3032.00,0.0077
3031.00,0.0077
3030.00,0.0078
3029.00,0.0078
3028.00,0.0078
3027.00,0.0078
3026.00,0.0078
3025.00,0.0078
3024.00,0.0079
3023.00,0.0079
3022.00,0.0080
3021.00,0.0080
3020.00,0.0081
3019.00,0.0082
3018.00,0.0082
3017.00,0.0083
3016.00,0.0084
3015.00,0.0084
3014.00,0.0085
3013.00,0.0086
3012.00,0.0087
3011.00,0.0087
3010.00,0.0089
3009.00,0.0090
3008.00,0.0091
3007.00,0.0093
3006.00,0.0094
3005.00,0.0095
3004.00,0.0096
3003.00,0.0097
3002.00,0.0099
3001.00,0.0101
3000.00,0.0103
2999.00,0.0106
2998.00,0.0109
2997.00,0.0112
2996.00,0.0115
2995.00,0.0119
2994.00,0.0122
2993.00,0.0127
2992.00,0.0132
2991.00,0.0137
2990.00,0.0143
2989.00,0.0150
2988.00,0.0157
2987.00,0.0166
2986.00,0.0175
2985.00,0.0184
2984.00,0.0195
2983.00,0.0207
2982.00,0.0220
2981.00,0.0235
2980.00,0.0252
2979.00,0.0272
2978.00,0.0295
2977.00,0.0321
2976.00,0.0350
2975.00,0.0383
2974.00,0.0421
2973.00,0.0465
2972.00,0.0514
2971.00,0.0568
2970.00,0.0629
2969.00,0.0695
2968.00,0.0768
2967.00,0.0845
2966.00,0.0926
2965.00,0.1009
2964.00,0.1090
2963.00,0.1166
2962.00,0.1233
2961.00,0.1289
2960.00,0.1335
2959.00,0.1372
2958.00,0.1404
2957.00,0.1435
2956.00,0.1470
2955.00,0.1511
2954.00,0.1556
2953.00,0.1602
2952.00,0.1641
2951.00,0.1665
2950.00,0.1668
2949.00,0.1645
2948.00,0.1594
2947.00,0.1519
2946.00,0.1430
2945.00,0.1335
2944.00,0.1246
2943.00,0.1170
2942.00,0.1112
2941.00,0.1075
2940.00,0.1058
2939.00,0.1060
2938.00,0.1078
2937.00,0.1111
2936.00,0.1157
2935.00,0.1216
2934.00,0.1286
2933.00,0.1365
2932.00,0.1454
2931.00,0.1548
2930.00,0.1647
2929.00,0.1747
2928.00,0.1845
2927.00,0.1940
2926.00,0.2030
2925.00,0.2115
2924.00,0.2195
2923.00,0.2271
2922.00,0.2342
2921.00,0.2407
2920.00,0.2461
2919.00,0.2496
2918.00,0.2508
2917.00,0.2490
2916.00,0.2442
2915.00,0.2370
2914.00,0.2281
2913.00,0.2186
2912.00,0.2093
2911.00,0.2008
2910.00,0.1931
2909.00,0.1863
2908.00,0.1801
2907.00,0.1743
2906.00,0.1687
2905.00,0.1631
2904.00,0.1575
2903.00,0.1518
2902.00,0.1461
2901.00,0.1404
2900.00,0.1349
2899.00,0.1296
2898.00,0.1247
2897.00,0.1201
2896.00,0.1159
2895.00,0.1122
2894.00,0.1089
2893.00,0.1062
2892.00,0.1040
2891.00,0.1022
2890.00,0.1010
2889.00,0.1000
2888.00,0.0995
2887.00,0.0992
2886.00,0.0992
2885.00,0.0996
2884.00,0.1004
2883.00,0.1016
2882.00,0.1032
2881.00,0.1051
2880.00,0.1071
2879.00,0.1090
2878.00,0.1103
2877.00,0.1111
2876.00,0.1112
2875.00,0.1109
2874.00,0.1107
2873.00,0.1107
2872.00,0.1113
2871.00,0.1123
2870.00,0.1137
2869.00,0.1151
2868.00,0.1160
2867.00,0.1157
2866.00,0.1140
2865.00,0.1106
2864.00,0.1060
2863.00,0.1007
2862.00,0.0956
2861.00,0.0913
2860.00,0.0881
2859.00,0.0861
2858.00,0.0853
2857.00,0.0854
2856.00,0.0860
2855.00,0.0870
2854.00,0.0883
2853.00,0.0895
2852.00,0.0906
2851.00,0.0913
2850.00,0.0915
2849.00,0.0912
2848.00,0.0906
2847.00,0.0903
2846.00,0.0906
2845.00,0.0920
2844.00,0.0943
2843.00,0.0976
2842.00,0.1013
2841.00,0.1050
2840.00,0.1081
2839.00,0.1099
2838.00,0.1097
2837.00,0.1070
2836.00,0.1019
2835.00,0.0946
2834.00,0.0858
2833.00,0.0766
2832.00,0.0676
2831.00,0.0596
2830.00,0.0527
2829.00,0.0471
2828.00,0.0424
2827.00,0.0386
2826.00,0.0355
2825.00,0.0329
2824.00,0.0307
2823.00,0.0289
2822.00,0.0274
2821.00,0.0260
2820.00,0.0248
2819.00,0.0237
2818.00,0.0228
2817.00,0.0220
2816.00,0.0212
2815.00,0.0206
2814.00,0.0200
2813.00,0.0194
2812.00,0.0189
2811.00,0.0184
2810.00,0.0179
2809.00,0.0174
2808.00,0.0168
2807.00,0.0162
2806.00,0.0156
2805.00,0.0151
2804.00,0.0145
2803.00,0.0140
2802.00,0.0135
2801.00,0.0131
2800.00,0.0127
2799.00,0.0124
2798.00,0.0122
2797.00,0.0120
2796.00,0.0118
2795.00,0.0115
2794.00,0.0113
2793.00,0.0110
2792.00,0.0107
2791.00,0.0104
2790.00,0.0101
2789.00,0.0098
2788.00,0.0095
2787.00,0.0092
2786.00,0.0090
2785.00,0.0087
2784.00,0.0085
2783.00,0.0083
2782.00,0.0081
2781.00,0.0079
2780.00,0.0077
2779.00,0.0076
2778.00,0.0074
2777.00,0.0073
2776.00,0.0072
2775.00,0.0071
2774.00,0.0070
2773.00,0.0069
2772.00,0.0068
2771.00,0.0067
2770.00,0.0067
2769.00,0.0066
2768.00,0.0066
2767.00,0.0065
2766.00,0.0065
2765.00,0.0064
2764.00,0.0064
2763.00,0.0064
2762.00,0.0063
2761.00,0.0063
2760.00,0.0062
2759.00,0.0062
2758.00,0.0062
2757.00,0.0062
2756.00,0.0062
2755.00,0.0062
2754.00,0.0062
2753.00,0.0061
2752.00,0.0061
2751.00,0.0060
2750.00,0.0060
2749.00,0.0060
2748.00,0.0060
2747.00,0.0060
2746.00,0.0061
2745.00,0.0061
2744.00,0.0062
2743.00,0.0063
2742.00,0.0063
2741.00,0.0064
2740.00,0.0065
2739.00,0.0066
2738.00,0.0067
2737.00,0.0068
2736.00,0.0069
2735.00,0.0070
2734.00,0.0071
2733.00,0.0072
2732.00,0.0073
2731.00,0.0074
2730.00,0.0076
2729.00,0.0078
2728.00,0.0080
2727.00,0.0083
2726.00,0.0085
2725.00,0.0086
2724.00,0.0087
2723.00,0.0087
2722.00,0.0087
2721.00,0.0085
2720.00,0.0083
2719.00,0.0080
2718.00,0.0078
2717.00,0.0075
2716.00,0.0072
2715.00,0.0070
2714.00,0.0068
2713.00,0.0066
2712.00,0.0065
2711.00,0.0063
2710.00,0.0062
2709.00,0.0061
2708.00,0.0059
2707.00,0.0058
2706.00,0.0057
2705.00,0.0056
2704.00,0.0055
2703.00,0.0054
2702.00,0.0053
2701.00,0.0053
2700.00,0.0052
2699.00,0.0052
2698.00,0.0052
2697.00,0.0052
2696.00,0.0051
2695.00,0.0051
2694.00,0.0051
2693.00,0.0051
2692.00,0.0051
2691.00,0.0051
2690.00,0.0051
2689.00,0.0051
2688.00,0.0051
2687.00,0.0051
2686.00,0.0051
2685.00,0.0051
2684.00,0.0051
2683.00,0.0051
2682.00,0.0051
2681.00,0.0051
2680.00,0.0051
2679.00,0.0051
2678.00,0.0051
2677.00,0.0051
2676.00,0.0051
2675.00,0.0051
2674.00,0.0050
2673.00,0.0050
2672.00,0.0049
2671.00,0.0049
2670.00,0.0049
2669.00,0.0049
2668.00,0.0049
2667.00,0.0049
2666.00,0.0049
2665.00,0.0050
2664.00,0.0050
2663.00,0.0050
2662.00,0.0051
2661.00,0.0051
2660.00,0.0051
2659.00,0.0051
2658.00,0.0051
2657.00,0.0051
2656.00,0.0051
2655.00,0.0051
2654.00,0.0050
2653.00,0.0050
2652.00,0.0050
2651.00,0.0049
2650.00,0.0049
2649.00,0.0048
2648.00,0.0047
2647.00,0.0047
2646.00,0.0046
2645.00,0.0046
2644.00,0.0045
2643.00,0.0045
2642.00,0.0045
2641.00,0.0045
2640.00,0.0044
2639.00,0.0044
2638.00,0.0043
2637.00,0.0043
2636.00,0.0043
2635.00,0.0043
2634.00,0.0043
2633.00,0.0043
2632.00,0.0042
2631.00,0.0042
2630.00,0.0042
2629.00,0.0043
2628.00,0.0043
2627.00,0.0043
2626.00,0.0043
2625.00,0.0043
2624.00,0.0043
2623.00,0.0043
2622.00,0.0043
2621.00,0.0043
2620.00,0.0043
2619.00,0.0043
2618.00,0.0043
2617.00,0.0043
2616.00,0.0043
2615.00,0.0042
2614.00,0.0042
2613.00,0.0041
2612.00,0.0040
2611.00,0.0040
2610.00,0.0039
2609.00,0.0039
2608.00,0.0038
2607.00,0.0038
2606.00,0.0037
2605.00,0.0036
2604.00,0.0036
2603.00,0.0036
2602.00,0.0036
2601.00,0.0035
2600.00,0.0035
2599.00,0.0034
2598.00,0.0034
2597.00,0.0034
2596.00,0.0034
2595.00,0.0035
2594.00,0.0036
2593.00,0.0037
2592.00,0.0037
2591.00,0.0037
2590.00,0.0036
2589.00,0.0036
2588.00,0.0037
2587.00,0.0038
2586.00,0.0039
2585.00,0.0040
2584.00,0.0040
2583.00,0.0040
2582.00,0.0040
2581.00,0.0040
2580.00,0.0040
2579.00,0.0039
2578.00,0.0037
2577.00,0.0035
2576.00,0.0034
2575.00,0.0033
2574.00,0.0032
2573.00,0.0032
2572.00,0.0031
2571.00,0.0031
2570.00,0.0030
2569.00,0.0029
2568.00,0.0029
2567.00,0.0028
2566.00,0.0028
2565.00,0.0027
2564.00,0.0027
2563.00,0.0027
2562.00,0.0027
2561.00,0.0026
2560.00,0.0026
2559.00,0.0025
2558.00,0.0025
2557.00,0.0025
2556.00,0.0025
2555.00,0.0025
2554.00,0.0025
2553.00,0.0026
2552.00,0.0026
2551.00,0.0025
2550.00,0.0024
2549.00,0.0024
2548.00,0.0023
2547.00,0.0023
2546.00,0.0022
2545.00,0.0022
2544.00,0.0022
2543.00,0.0022
2542.00,0.0021
2541.00,0.0021
2540.00,0.0021
2539.00,0.0020
2538.00,0.0020
2537.00,0.0020
2536.00,0.0020
2535.00,0.0020
2534.00,0.0020
2533.00,0.0020
2532.00,0.0020
2531.00,0.0020
2530.00,0.0019
2529.00,0.0019
2528.00,0.0019
2527.00,0.0019
2526.00,0.0018
2525.00,0.0017
2524.00,0.0017
2523.00,0.0016
2522.00,0.0017
2521.00,0.0017
2520.00,0.0017
2519.00,0.0017
2518.00,0.0016
2517.00,0.0016
2516.00,0.0015
2515.00,0.0015
2514.00,0.0015
2513.00,0.0015
2512.00,0.0015
2511.00,0.0015
2510.00,0.0015
2509.00,0.0014
2508.00,0.0014
2507.00,0.0014
2506.00,0.0014
2505.00,0.0014
2504.00,0.0014
2503.00,0.0014
2502.00,0.0014
2501.00,0.0014
2500.00,0.0013
2499.00,0.0013
2498.00,0.0013
2497.00,0.0013
2496.00,0.0013
2495.00,0.0013
2494.00,0.0013
2493.00,0.0013
2492.00,0.0014
2491.00,0.0014
2490.00,0.0014
2489.00,0.0014
2488.00,0.0014
2487.00,0.0014
2486.00,0.0014
2485.00,0.0014
2484.00,0.0014
2483.00,0.0014
2482.00,0.0014
2481.00,0.0014
2480.00,0.0014
2479.00,0.0014
2478.00,0.0014
2477.00,0.0014
2476.00,0.0014
2475.00,0.0013
2474.00,0.0013
2473.00,0.0013
2472.00,0.0012
2471.00,0.0013
2470.00,0.0013
2469.00,0.0013
2468.00,0.0013
2467.00,0.0013
2466.00,0.0013
2465.00,0.0013
2464.00,0.0013
2463.00,0.0013
2462.00,0.0013
2461.00,0.0013
2460.00,0.0014
2459.00,0.0014
2458.00,0.0015
2457.00,0.0015
2456.00,0.0015
2455.00,0.0014
2454.00,0.0014
2453.00,0.0013
2452.00,0.0013
2451.00,0.0013
2450.00,0.0013
2449.00,0.0013
2448.00,0.0013
2447.00,0.0013
2446.00,0.0013
2445.00,0.0013
2444.00,0.0014
2443.00,0.0015
2442.00,0.0015
2441.00,0.0015
2440.00,0.0014
2439.00,0.0014
2438.00,0.0015
2437.00,0.0015
2436.00,0.0015
2435.00,0.0015
2434.00,0.0015
2433.00,0.0015
2432.00,0.0015
2431.00,0.0015
2430.00,0.0014
2429.00,0.0013
2428.00,0.0013
2427.00,0.0013
2426.00,0.0014
2425.00,0.0014
2424.00,0.0014
2423.00,0.0014
2422.00,0.0014
2421.00,0.0014
2420.00,0.0013
2419.00,0.0013
2418.00,0.0012
2417.00,0.0012
2416.00,0.0012
2415.00,0.0012
2414.00,0.0012
2413.00,0.0012
2412.00,0.0013
2411.00,0.0013
2410.00,0.0013
2409.00,0.0013
2408.00,0.0013
2407.00,0.0012
2406.00,0.0011
2405.00,0.0011
2404.00,0.0011
2403.00,0.0012
2402.00,0.0012
2401.00,0.0012
2400.00,0.0012
2399.00,0.0012
2398.00,0.0012
2397.00,0.0012
2396.00,0.0012
2395.00,0.0012
2394.00,0.0011
2393.00,0.0011
2392.00,0.0011
2391.00,0.0011
2390.00,0.0010
2389.00,0.0010
2388.00,0.0010
2387.00,0.0010
2386.00,0.0010
2385.00,0.0010
2384.00,0.0010
2383.00,0.0009
2382.00,0.0009
2381.00,0.0009
2380.00,0.0009
2379.00,0.0009
2378.00,0.0009
2377.00,0.0009
2376.00,0.0009
2375.00,0.0009
2374.00,0.0009
2373.00,0.0009
2372.00,0.0009
2371.00,0.0009
2370.00,0.0008
2369.00,0.0007
2368.00,0.0007
2367.00,0.0007
2366.00,0.0008
2365.00,0.0008
2364.00,0.0009
2363.00,0.0009
2362.00,0.0009
2361.00,0.0009
2360.00,0.0010
2359.00,0.0010
2358.00,0.0011
2357.00,0.0012
2356.00,0.0012
2355.00,0.0011
2354.00,0.0011
2353.00,0.0010
2352.00,0.0010
2351.00,0.0010
2350.00,0.0010
2349.00,0.0010
2348.00,0.0010
2347.00,0.0009
2346.00,0.0009
2345.00,0.0009
2344.00,0.0010
2343.00,0.0011
2342.00,0.0012
2341.00,0.0012
2340.00,0.0013
2339.00,0.0013
2338.00,0.0013
2337.00,0.0013
2336.00,0.0013
2335.00,0.0014
2334.00,0.0013
2333.00,0.0012
2332.00,0.0012
2331.00,0.0011
2330.00,0.0012
2329.00,0.0013
2328.00,0.0015
2327.00,0.0019
2326.00,0.0023
2325.00,0.0026
2324.00,0.0027
2323.00,0.0025
2322.00,0.0022
2321.00,0.0020
2320.00,0.0019
2319.00,0.0018
2318.00,0.0017
2317.00,0.0017
2316.00,0.0017
2315.00,0.0017
2314.00,0.0017
2313.00,0.0017
2312.00,0.0016
2311.00,0.0016
2310.00,0.0016
2309.00,0.0016
2308.00,0.0016
2307.00,0.0017
2306.00,0.0017
2305.00,0.0017
2304.00,0.0017
2303.00,0.0017
2302.00,0.0018
2301.00,0.0018
2300.00,0.0017
2299.00,0.0017
2298.00,0.0017
2297.00,0.0017
2296.00,0.0017
2295.00,0.0018
2294.00,0.0019
2293.00,0.0020
2292.00,0.0020
2291.00,0.0021
2290.00,0.0021
2289.00,0.0021
2288.00,0.0022
2287.00,0.0022
2286.00,0.0023
2285.00,0.0023
2284.00,0.0022
2283.00,0.0021
2282.00,0.0019
2281.00,0.0018
2280.00,0.0017
2279.00,0.0016
2278.00,0.0015
2277.00,0.0015
2276.00,0.0016
2275.00,0.0017
2274.00,0.0017
2273.00,0.0017
2272.00,0.0017
2271.00,0.0016
2270.00,0.0015
2269.00,0.0015
2268.00,0.0015
2267.00,0.0016
2266.00,0.0016
2265.00,0.0016
2264.00,0.0016
2263.00,0.0016
2262.00,0.0016
2261.00,0.0016
2260.00,0.0015
2259.00,0.0015
2258.00,0.0015
2257.00,0.0016
2256.00,0.0016
2255.00,0.0016
2254.00,0.0016
2253.00,0.0016
2252.00,0.0016
2251.00,0.0015
2250.00,0.0013
2249.00,0.0012
2248.00,0.0012
2247.00,0.0012
2246.00,0.0012
2245.00,0.0013
2244.00,0.0013
2243.00,0.0013
2242.00,0.0012
2241.00,0.0011
2240.00,0.0010
2239.00,0.0010
2238.00,0.0010
2237.00,0.0011
2236.00,0.0011
2235.00,0.0011
2234.00,0.0012
2233.00,0.0013
2232.00,0.0014
2231.00,0.0015
2230.00,0.0014
2229.00,0.0014
2228.00,0.0014
2227.00,0.0013
2226.00,0.0012
2225.00,0.0012
2224.00,0.0011
2223.00,0.0011
2222.00,0.0011
2221.00,0.0011
2220.00,0.0011
2219.00,0.0010
2218.00,0.0009
2217.00,0.0008
2216.00,0.0008
2215.00,0.0009
2214.00,0.0009
2213.00,0.0009
2212.00,0.0007
2211.00,0.0006
2210.00,0.0006
2209.00,0.0008
2208.00,0.0009
2207.00,0.0010
2206.00,0.0010
2205.00,0.0011
2204.00,0.0013
2203.00,0.0014
2202.00,0.0016
2201.00,0.0016
2200.00,0.0016
2199.00,0.0016
2198.00,0.0016
2197.00,0.0016
2196.00,0.0016
2195.00,0.0015
2194.00,0.0014
2193.00,0.0014
2192.00,0.0013
2191.00,0.0012
2190.00,0.0011
2189.00,0.0012
2188.00,0.0013
2187.00,0.0014
2186.00,0.0013
2185.00,0.0013
2184.00,0.0013
2183.00,0.0013
2182.00,0.0013
2181.00,0.0013
2180.00,0.0014
2179.00,0.0014
2178.00,0.0014
2177.00,0.0013
2176.00,0.0011
2175.00,0.0010
2174.00,0.0009
2173.00,0.0012
2172.00,0.0015
2171.00,0.0018
2170.00,0.0019
2169.00,0.0020
2168.00,0.0020
2167.00,0.0020
2166.00,0.0020
2165.00,0.0021
2164.00,0.0022
2163.00,0.0023
2162.00,0.0022
2161.00,0.0017
2160.00,0.0005
2159.00,-0.0011
2158.00,-0.0023
2157.00,-0.0027
2156.00,-0.0025
2155.00,-0.0020
2154.00,-0.0016
2153.00,-0.0012
2152.00,-0.0009
2151.00,-0.0008
2150.00,-0.0008
2149.00,-0.0008
2148.00,-0.0007
2147.00,-0.0008
2146.00,-0.0011
2145.00,-0.0013
2144.00,-0.0013
2143.00,-0.0011
2142.00,-0.0008
2141.00,-0.0005
2140.00,-0.0004
2139.00,-0.0005
2138.00,-0.0007
2137.00,-0.0009
2136.00,-0.0010
2135.00,-0.0010
2134.00,-0.0011
2133.00,-0.0012
2132.00,-0.0012
2131.00,-0.0012
2130.00,-0.0012
2129.00,-0.0010
2128.00,-0.0008
2127.00,-0.0005
2126.00,-0.0004
2125.00,-0.0002
2124.00,-0.0001
2123.00,-0.0001
2122.00,-0.0000
2121.00,0.0001
2120.00,0.0002
2119.00,0.0003
2118.00,0.0004
2117.00,0.0005
2116.00,0.0005
2115.00,0.0006
2114.00,0.0006
2113.00,0.0007
2112.00,0.0007
2111.00,0.0008
2110.00,0.0007
2109.00,0.0007
2108.00,0.0007
2107.00,0.0007
2106.00,0.0008
2105.00,0.0009
2104.00,0.0009
2103.00,0.0010
2102.00,0.0009
2101.00,0.0008
2100.00,0.0007
2099.00,0.0007
2098.00,0.0006
2097.00,0.0006
2096.00,0.0005
2095.00,0.0003
2094.00,0.0002
2093.00,0.0001
2092.00,0.0001
2091.00,0.0002
2090.00,0.0002
2089.00,0.0003
2088.00,0.0003
2087.00,0.0005
2086.00,0.0007
2085.00,0.0009
2084.00,0.0010
2083.00,0.0011
2082.00,0.0010
2081.00,0.0009
2080.00,0.0008
2079.00,0.0006
2078.00,0.0005
2077.00,0.0006
2076.00,0.0009
2075.00,0.0011
2074.00,0.0011
2073.00,0.0011
2072.00,0.0009
2071.00,0.0008
2070.00,0.0007
2069.00,0.0007
2068.00,0.0007
2067.00,0.0007
2066.00,0.0007
2065.00,0.0007
2064.00,0.0006
2063.00,0.0005
2062.00,0.0004
2061.00,0.0004
2060.00,0.0003
2059.00,0.0003
2058.00,0.0004
2057.00,0.0005
2056.00,0.0006
2055.00,0.0008
2054.00,0.0010
2053.00,0.0014
2052.00,0.0019
2051.00,0.0021
2050.00,0.0021
2049.00,0.0017
2048.00,0.0012
2047.00,0.0008
2046.00,0.0005
2045.00,0.0005
2044.00,0.0006
2043.00,0.0007
2042.00,0.0007
2041.00,0.0006
2040.00,0.0005
2039.00,0.0004
2038.00,0.0004
2037.00,0.0005
2036.00,0.0006
2035.00,0.0005
2034.00,0.0002
2033.00,-0.0001
2032.00,-0.0003
2031.00,-0.0005
2030.00,-0.0005
2029.00,-0.0004
2028.00,-0.0002
2027.00,-0.0001
2026.00,-0.0003
2025.00,-0.0005
2024.00,-0.0007
2023.00,-0.0007
2022.00,-0.0007
2021.00,-0.0006
2020.00,-0.0005
2019.00,-0.0006
2018.00,-0.0006
2017.00,-0.0006
2016.00,-0.0005
2015.00,-0.0005
2014.00,-0.0006
2013.00,-0.0008
2012.00,-0.0009
2011.00,-0.0011
2010.00,-0.0011
2009.00,-0.0011
2008.00,-0.0012
2007.00,-0.0015
2006.00,-0.0017
2005.00,-0.0017
2004.00,-0.0014
2003.00,-0.0012
2002.00,-0.0012
2001.00,-0.0012
2000.00,-0.0012
1999.00,-0.0013
1998.00,-0.0012
1997.00,-0.0010
1996.00,-0.0008
1995.00,-0.0005
1994.00,-0.0004
1993.00,-0.0002
1992.00,-0.0000
1991.00,0.0002
1990.00,0.0004
1989.00,0.0005
1988.00,0.0004
1987.00,0.0001
1986.00,-0.0001
1985.00,-0.0001
1984.00,0.0001
1983.00,0.0005
1982.00,0.0008
1981.00,0.0011
1980.00,0.0012
1979.00,0.0009
1978.00,0.0004
1977.00,-0.0002
1976.00,-0.0007
1975.00,-0.0013
1974.00,-0.0017
1973.00,-0.0018
1972.00,-0.0015
1971.00,-0.0011
1970.00,-0.0009
1969.00,-0.0008
1968.00,-0.0008
1967.00,-0.0008
1966.00,-0.0010
1965.00,-0.0011
1964.00,-0.0012
1963.00,-0.0013
1962.00,-0.0013
1961.00,-0.0012
1960.00,-0.0012
1959.00,-0.0013
1958.00,-0.0013
1957.00,-0.0012
1956.00,-0.0011
1955.00,-0.0011
1954.00,-0.0010
1953.00,-0.0009
1952.00,-0.0009
1951.00,-0.0009
1950.00,-0.0010
1949.00,-0.0011
1948.00,-0.0011
1947.00,-0.0011
1946.00,-0.0011
1945.00,-0.0011
1944.00,-0.0010
1943.00,-0.0009
1942.00,-0.0008
1941.00,-0.0008
1940.00,-0.0009
1939.00,-0.0010
1938.00,-0.0011
1937.00,-0.0010
1936.00,-0.0008
1935.00,-0.0007
1934.00,-0.0005
1933.00,-0.0004
1932.00,-0.0004
1931.00,-0.0005
1930.00,-0.0006
1929.00,-0.0005
1928.00,-0.0004
1927.00,-0.0003
1926.00,-0.0002
1925.00,-0.0001
1924.00,-0.0000
1923.00,0.0001
1922.00,0.0001
1921.00,0.0002
1920.00,0.0002
1919.00,0.0002
1918.00,0.0001
1917.00,0.0000
1916.00,-0.0000
1915.00,-0.0001
1914.00,-0.0001
1913.00,0.0000
1912.00,0.0001
1911.00,0.0001
1910.00,0.0001
1909.00,0.0002
1908.00,0.0002
1907.00,0.0002
1906.00,0.0002
1905.00,0.0002
1904.00,0.0002
1903.00,0.0002
1902.00,0.0001
1901.00,0.0001
1900.00,0.0002
1899.00,0.0002
1898.00,0.0001
1897.00,0.0002
1896.00,0.0002
1895.00,0.0003
1894.00,0.0002
1893.00,0.0002
1892.00,0.0001
1891.00,0.0001
1890.00,0.0001
1889.00,0.0001
1888.00,0.0001
1887.00,0.0001
1886.00,0.0001
1885.00,0.0001
1884.00,0.0002
1883.00,0.0002
1882.00,0.0002
1881.00,0.0002
1880.00,0.0002
1879.00,0.0001
1878.00,0.0001
1877.00,0.0000
1876.00,0.0000
1875.00,0.0001
1874.00,0.0001
1873.00,0.0001
1872.00,0.0002
1871.00,0.0003
1870.00,0.0004
1869.00,0.0005
1868.00,0.0005
1867.00,0.0005
1866.00,0.0005
1865.00,0.0004
1864.00,0.0003
1863.00,0.0003
1862.00,0.0002
1861.00,0.0003
1860.00,0.0003
1859.00,0.0004
1858.00,0.0004
1857.00,0.0003
1856.00,0.0003
1855.00,0.0003
1854.00,0.0004
1853.00,0.0004
1852.00,0.0004
1851.00,0.0004
1850.00,0.0005
1849.00,0.0005
1848.00,0.0006
1847.00,0.0006
1846.00,0.0006
1845.00,0.0006
1844.00,0.0005
1843.00,0.0005
1842.00,0.0004
1841.00,0.0004
1840.00,0.0004
1839.00,0.0005
1838.00,0.0005
1837.00,0.0006
1836.00,0.0006
1835.00,0.0006
1834.00,0.0006
1833.00,0.0006
1832.00,0.0005
1831.00,0.0005
1830.00,0.0005
1829.00,0.0005
1828.00,0.0006
1827.00,0.0007
1826.00,0.0008
1825.00,0.0009
1824.00,0.0009
1823.00,0.0008
1822.00,0.0007
1821.00,0.0007
1820.00,0.0006
1819.00,0.0005
1818.00,0.0004
1817.00,0.0004
1816.00,0.0004
1815.00,0.0005
1814.00,0.0006
1813.00,0.0006
1812.00,0.0007
1811.00,0.0007
1810.00,0.0007
1809.00,0.0007
1808.00,0.0008
1807.00,0.0008
1806.00,0.0009
1805.00,0.0009
1804.00,0.0009
1803.00,0.0009
1802.00,0.0010
1801.00,0.0010
1800.00,0.0011
1799.00,0.0011
1798.00,0.0011
1797.00,0.0010
1796.00,0.0010
1795.00,0.0010
1794.00,0.0010
1793.00,0.0010
1792.00,0.0011
1791.00,0.0012
1790.00,0.0012
1789.00,0.0012
1788.00,0.0012
1787.00,0.0013
1786.00,0.0013
1785.00,0.0013
1784.00,0.0013
1783.00,0.0014
1782.00,0.0014
1781.00,0.0015
1780.00,0.0015
1779.00,0.0015
1778.00,0.0015
1777.00,0.0014
1776.00,0.0014
1775.00,0.0013
1774.00,0.0012
1773.00,0.0012
1772.00,0.0012
1771.00,0.0013
1770.00,0.0013
1769.00,0.0014
1768.00,0.0015
1767.00,0.0016
1766.00,0.0016
1765.00,0.0016
1764.00,0.0017
1763.00,0.0017
1762.00,0.0018
1761.00,0.0019
1760.00,0.0019
1759.00,0.0020
1758.00,0.0020
1757.00,0.0021
1756.00,0.0021
1755.00,0.0021
1754.00,0.0021
1753.00,0.0022
1752.00,0.0022
1751.00,0.0023
1750.00,0.0023
1749.00,0.0025
1748.00,0.0027
1747.00,0.0028
1746.00,0.0030
1745.00,0.0031
1744.00,0.0033
1743.00,0.0035
1742.00,0.0035
1741.00,0.0036
1740.00,0.0037
1739.00,0.0038
1738.00,0.0038
1737.00,0.0039
1736.00,0.0039
1735.00,0.0039
1734.00,0.0039
1733.00,0.0040
1732.00,0.0040
1731.00,0.0041
1730.00,0.0041
1729.00,0.0041
1728.00,0.0041
1727.00,0.0040
1726.00,0.0040
1725.00,0.0040
1724.00,0.0040
1723.00,0.0040
1722.00,0.0040
1721.00,0.0039
1720.00,0.0039
1719.00,0.0038
1718.00,0.0038
1717.00,0.0039
1716.00,0.0039
1715.00,0.0040
1714.00,0.0040
1713.00,0.0040
1712.00,0.0040
1711.00,0.0041
1710.00,0.0041
1709.00,0.0042
1708.00,0.0041
1707.00,0.0041
1706.00,0.0042
1705.00,0.0043
1704.00,0.0044
1703.00,0.0045
1702.00,0.0045
1701.00,0.0046
1700.00,0.0047
1699.00,0.0048
1698.00,0.0049
1697.00,0.0051
1696.00,0.0055
1695.00,0.0058
1694.00,0.0060
1693.00,0.0061
1692.00,0.0063
1691.00,0.0066
1690.00,0.0068
1689.00,0.0071
1688.00,0.0074
1687.00,0.0076
1686.00,0.0078
1685.00,0.0082
1684.00,0.0087
1683.00,0.0091
1682.00,0.0094
1681.00,0.0098
1680.00,0.0102
1679.00,0.0105
1678.00,0.0107
1677.00,0.0109
1676.00,0.0112
1675.00,0.0115
1674.00,0.0118
1673.00,0.0120
1672.00,0.0122
1671.00,0.0124
1670.00,0.0127
1669.00,0.0131
1668.00,0.0133
1667.00,0.0135
1666.00,0.0136
1665.00,0.0137
1664.00,0.0139
1663.00,0.0141
1662.00,0.0143
1661.00,0.0144
1660.00,0.0146
1659.00,0.0147
1658.00,0.0149
1657.00,0.0150
1656.00,0.0152
1655.00,0.0152
1654.00,0.0153
1653.00,0.0155
1652.00,0.0156
1651.00,0.0156
1650.00,0.0157
1649.00,0.0158
1648.00,0.0161
1647.00,0.0163
1646.00,0.0165
1645.00,0.0165
1644.00,0.0165
1643.00,0.0165
1642.00,0.0166
1641.00,0.0166
1640.00,0.0167
1639.00,0.0167
1638.00,0.0166
1637.00,0.0166
1636.00,0.0165
1635.00,0.0165
1634.00,0.0165
1633.00,0.0165
1632.00,0.0165
1631.00,0.0165
1630.00,0.0164
1629.00,0.0164
1628.00,0.0163
1627.00,0.0163
1626.00,0.0161
1625.00,0.0160
1624.00,0.0158
1623.00,0.0157
1622.00,0.0157
1621.00,0.0156
1620.00,0.0156
1619.00,0.0156
1618.00,0.0155
1617.00,0.0154
1616.00,0.0153
1615.00,0.0153
1614.00,0.0153
1613.00,0.0153
1612.00,0.0154
1611.00,0.0154
1610.00,0.0154
1609.00,0.0154
1608.00,0.0154
1607.00,0.0154
1606.00,0.0154
1605.00,0.0153
1604.00,0.0153
1603.00,0.0152
1602.00,0.0151
1601.00,0.0151
1600.00,0.0150
1599.00,0.0149
1598.00,0.0148
1597.00,0.0147
1596.00,0.0146
1595.00,0.0146
1594.00,0.0145
1593.00,0.0144
1592.00,0.0144
1591.00,0.0144
1590.00,0.0144
1589.00,0.0144
1588.00,0.0144
1587.00,0.0145
1586.00,0.0146
1585.00,0.0148
1584.00,0.0149
1583.00,0.0151
1582.00,0.0153
1581.00,0.0155
1580.00,0.0157
1579.00,0.0159
1578.00,0.0160
1577.00,0.0161
1576.00,0.0161
1575.00,0.0160
1574.00,0.0158
1573.00,0.0157
1572.00,0.0156
1571.00,0.0154
1570.00,0.0152
1569.00,0.0150
1568.00,0.0149
1567.00,0.0149
1566.00,0.0150
1565.00,0.0151
1564.00,0.0152
1563.00,0.0153
1562.00,0.0153
1561.00,0.0154
1560.00,0.0155
1559.00,0.0157
1558.00,0.0160
1557.00,0.0160
1556.00,0.0161
1555.00,0.0164
1554.00,0.0166
1553.00,0.0169
1552.00,0.0171
1551.00,0.0174
1550.00,0.0177
1549.00,0.0178
1548.00,0.0180
1547.00,0.0181
1546.00,0.0182
1545.00,0.0184
1544.00,0.0187
1543.00,0.0189
1542.00,0.0189
1541.00,0.0189
1540.00,0.0186
1539.00,0.0181
1538.00,0.0176
1537.00,0.0172
1536.00,0.0169
1535.00,0.0164
1534.00,0.0158
1533.00,0.0151
1532.00,0.0145
1531.00,0.0141
1530.00,0.0137
1529.00,0.0133
1528.00,0.0129
1527.00,0.0125
1526.00,0.0121
1525.00,0.0118
1524.00,0.0116
1523.00,0.0113
1522.00,0.0111
1521.00,0.0109
1520.00,0.0107
1519.00,0.0106
1518.00,0.0105
1517.00,0.0104
1516.00,0.0104
1515.00,0.0103
1514.00,0.0102
1513.00,0.0103
1512.00,0.0103
1511.00,0.0104
1510.00,0.0103
1509.00,0.0103
1508.00,0.0103
1507.00,0.0104
1506.00,0.0104
1505.00,0.0105
1504.00,0.0108
1503.00,0.0111
1502.00,0.0115
1501.00,0.0120
1500.00,0.0126
1499.00,0.0132
1498.00,0.0139
1497.00,0.0148
1496.00,0.0158
1495.00,0.0166
1494.00,0.0172
1493.00,0.0178
1492.00,0.0185
1491.00,0.0190
1490.00,0.0196
1489.00,0.0203
1488.00,0.0209
1487.00,0.0214
1486.00,0.0219
1485.00,0.0225
1484.00,0.0231
1483.00,0.0238
1482.00,0.0247
1481.00,0.0257
1480.00,0.0269
1479.00,0.0281
1478.00,0.0296
1477.00,0.0316
1476.00,0.0340
1475.00,0.0368
1474.00,0.0405
1473.00,0.0460
1472.00,0.0525
1471.00,0.0587
1470.00,0.0646
1469.00,0.0706
1468.00,0.0770
1467.00,0.0838
1466.00,0.0915
1465.00,0.0997
1464.00,0.1069
1463.00,0.1119
1462.00,0.1151
1461.00,0.1173
1460.00,0.1188
1459.00,0.1199
1458.00,0.1209
1457.00,0.1217
1456.00,0.1216
1455.00,0.1207
1454.00,0.1194
1453.00,0.1175
1452.00,0.1147
1451.00,0.1109
1450.00,0.1058
1449.00,0.0991
1448.00,0.0909
1447.00,0.0823
1446.00,0.0747
1445.00,0.0681
1444.00,0.0625
1443.00,0.0579
1442.00,0.0544
1441.00,0.0519
1440.00,0.0504
1439.00,0.0496
1438.00,0.0495
1437.00,0.0493
1436.00,0.0480
1435.00,0.0455
1434.00,0.0421
1433.00,0.0381
1432.00,0.0340
1431.00,0.0302
1430.00,0.0273
1429.00,0.0251
1428.00,0.0235
1427.00,0.0226
1426.00,0.0221
1425.00,0.0216
1424.00,0.0212
1423.00,0.0210
1422.00,0.0209
1421.00,0.0207
1420.00,0.0203
1419.00,0.0201
1418.00,0.0198
1417.00,0.0194
1416.00,0.0190
1415.00,0.0187
1414.00,0.0183
1413.00,0.0180
1412.00,0.0176
1411.00,0.0173
1410.00,0.0172
1409.00,0.0169
1408.00,0.0167
1407.00,0.0166
1406.00,0.0166
1405.00,0.0166
1404.00,0.0165
1403.00,0.0166
1402.00,0.0167
1401.00,0.0167
1400.00,0.0168
1399.00,0.0169
1398.00,0.0171
1397.00,0.0172
1396.00,0.0174
1395.00,0.0177
1394.00,0.0181
1393.00,0.0185
1392.00,0.0189
1391.00,0.0195
1390.00,0.0205
1389.00,0.0218
1388.00,0.0238
1387.00,0.0268
1386.00,0.0308
1385.00,0.0361
1384.00,0.0435
1383.00,0.0539
1382.00,0.0681
1381.00,0.0864
1380.00,0.1088
1379.00,0.1335
1378.00,0.1564
1377.00,0.1719
1376.00,0.1755
1375.00,0.1650
1374.00,0.1435
1373.00,0.1188
1372.00,0.0969
1371.00,0.0792
1370.00,0.0652
1369.00,0.0546
1368.00,0.0472
1367.00,0.0427
1366.00,0.0401
1365.00,0.0391
1364.00,0.0392
1363.00,0.0404
1362.00,0.0422
1361.00,0.0440
1360.00,0.0453
1359.00,0.0457
1358.00,0.0448
1357.00,0.0427
1356.00,0.0397
1355.00,0.0363
1354.00,0.0330
1353.00,0.0302
1352.00,0.0280
1351.00,0.0261
1350.00,0.0246
1349.00,0.0234
1348.00,0.0224
1347.00,0.0216
1346.00,0.0210
1345.00,0.0204
1344.00,0.0198
1343.00,0.0191
1342.00,0.0183
1341.00,0.0177
1340.00,0.0171
1339.00,0.0167
1338.00,0.0164
1337.00,0.0163
1336.00,0.0163
1335.00,0.0163
1334.00,0.0164
1333.00,0.0167
1332.00,0.0170
1331.00,0.0172
1330.00,0.0173
1329.00,0.0172
1328.00,0.0169
1327.00,0.0165
1326.00,0.0160
1325.00,0.0154
1324.00,0.0149
1323.00,0.0145
1322.00,0.0141
1321.00,0.0139
1320.00,0.0138
1319.00,0.0136
1318.00,0.0135
1317.00,0.0133
1316.00,0.0132
1315.00,0.0131
1314.00,0.0131
1313.00,0.0131
1312.00,0.0132
1311.00,0.0135
1310.00,0.0138
1309.00,0.0144
1308.00,0.0153
1307.00,0.0164
1306.00,0.0175
1305.00,0.0183
1304.00,0.0187
1303.00,0.0185
1302.00,0.0180
1301.00,0.0176
1300.00,0.0173
1299.00,0.0172
1298.00,0.0172
1297.00,0.0172
1296.00,0.0171
1295.00,0.0169
1294.00,0.0166
1293.00,0.0162
1292.00,0.0157
1291.00,0.0153
1290.00,0.0150
1289.00,0.0146
1288.00,0.0143
1287.00,0.0140
1286.00,0.0137
1285.00,0.0134
1284.00,0.0132
1283.00,0.0130
1282.00,0.0129
1281.00,0.0128
1280.00,0.0126
1279.00,0.0125
1278.00,0.0123
1277.00,0.0122
1276.00,0.0121
1275.00,0.0120
1274.00,0.0120
1273.00,0.0120
1272.00,0.0120
1271.00,0.0121
1270.00,0.0122
1269.00,0.0123
1268.00,0.0125
1267.00,0.0128
1266.00,0.0131
1265.00,0.0135
1264.00,0.0138
1263.00,0.0142
1262.00,0.0147
1261.00,0.0152
1260.00,0.0158
1259.00,0.0165
1258.00,0.0172
1257.00,0.0178
1256.00,0.0180
1255.00,0.0178
1254.00,0.0172
1253.00,0.0164
1252.00,0.0156
1251.00,0.0149
1250.00,0.0144
1249.00,0.0140
1248.00,0.0138
1247.00,0.0135
1246.00,0.0134
1245.00,0.0132
1244.00,0.0130
1243.00,0.0129
1242.00,0.0128
1241.00,0.0127
1240.00,0.0126
1239.00,0.0125
1238.00,0.0124
1237.00,0.0123
1236.00,0.0121
1235.00,0.0120
1234.00,0.0120
1233.00,0.0119
1232.00,0.0119
1231.00,0.0119
1230.00,0.0120
1229.00,0.0121
1228.00,0.0123
1227.00,0.0125
1226.00,0.0127
1225.00,0.0131
1224.00,0.0135
1223.00,0.0139
1222.00,0.0144
1221.00,0.0147
1220.00,0.0148
1219.00,0.0148
1218.00,0.0147
1217.00,0.0145
1216.00,0.0142
1215.00,0.0138
1214.00,0.0134
1213.00,0.0130
1212.00,0.0127
1211.00,0.0124
1210.00,0.0122
1209.00,0.0120
1208.00,0.0118
1207.00,0.0117
1206.00,0.0117
1205.00,0.0116
1204.00,0.0116
1203.00,0.0116
1202.00,0.0116
1201.00,0.0116
1200.00,0.0116
1199.00,0.0116
1198.00,0.0116
1197.00,0.0116
1196.00,0.0116
1195.00,0.0117
1194.00,0.0117
1193.00,0.0117
1192.00,0.0117
1191.00,0.0117
1190.00,0.0117
1189.00,0.0117
1188.00,0.0117
1187.00,0.0117
1186.00,0.0117
1185.00,0.0118
1184.00,0.0118
1183.00,0.0120
1182.00,0.0122
1181.00,0.0125
1180.00,0.0130
1179.00,0.0136
1178.00,0.0143
1177.00,0.0151
1176.00,0.0163
1175.00,0.0179
1174.00,0.0199
1173.00,0.0225
1172.00,0.0254
1171.00,0.0286
1170.00,0.0316
1169.00,0.0340
1168.00,0.0354
1167.00,0.0356
1166.00,0.0348
1165.00,0.0334
1164.00,0.0319
1163.00,0.0305
1162.00,0.0293
1161.00,0.0284
1160.00,0.0277
1159.00,0.0272
1158.00,0.0269
1157.00,0.0268
1156.00,0.0268
1155.00,0.0269
1154.00,0.0269
1153.00,0.0268
1152.00,0.0266
1151.00,0.0261
1150.00,0.0255
1149.00,0.0248
1148.00,0.0241
1147.00,0.0233
1146.00,0.0227
1145.00,0.0220
1144.00,0.0215
1143.00,0.0209
1142.00,0.0204
1141.00,0.0199
1140.00,0.0194
1139.00,0.0190
1138.00,0.0187
1137.00,0.0184
1136.00,0.0182
1135.00,0.0181
1134.00,0.0180
1133.00,0.0179
1132.00,0.0179
1131.00,0.0180
1130.00,0.0181
1129.00,0.0183
1128.00,0.0185
1127.00,0.0188
1126.00,0.0192
1125.00,0.0197
1124.00,0.0201
1123.00,0.0205
1122.00,0.0209
1121.00,0.0213
1120.00,0.0217
1119.00,0.0220
1118.00,0.0221
1117.00,0.0221
1116.00,0.0220
1115.00,0.0219
1114.00,0.0217
1113.00,0.0217
1112.00,0.0217
1111.00,0.0218
1110.00,0.0219
1109.00,0.0221
1108.00,0.0224
1107.00,0.0228
1106.00,0.0232
1105.00,0.0237
1104.00,0.0240
1103.00,0.0241
1102.00,0.0239
1101.00,0.0234
1100.00,0.0228
1099.00,0.0222
1098.00,0.0216
1097.00,0.0212
1096.00,0.0208
1095.00,0.0205
1094.00,0.0202
1093.00,0.0199
1092.00,0.0196
1091.00,0.0192
1090.00,0.0189
1089.00,0.0186
1088.00,0.0184
1087.00,0.0182
1086.00,0.0179
1085.00,0.0177
1084.00,0.0175
1083.00,0.0173
1082.00,0.0170
1081.00,0.0168
1080.00,0.0166
1079.00,0.0163
1078.00,0.0161
1077.00,0.0159
1076.00,0.0158
1075.00,0.0156
1074.00,0.0154
1073.00,0.0152
1072.00,0.0150
1071.00,0.0148
1070.00,0.0146
1069.00,0.0144
1068.00,0.0142
1067.00,0.0142
1066.00,0.0142
1065.00,0.0142
1064.00,0.0141
1063.00,0.0140
1062.00,0.0140
1061.00,0.0140
1060.00,0.0140
1059.00,0.0139
1058.00,0.0139
1057.00,0.0138
1056.00,0.0138
1055.00,0.0138
1054.00,0.0137
1053.00,0.0137
1052.00,0.0138
1051.00,0.0139
1050.00,0.0141
1049.00,0.0144
1048.00,0.0147
1047.00,0.0151
1046.00,0.0155
1045.00,0.0157
1044.00,0.0157
1043.00,0.0156
1042.00,0.0153
1041.00,0.0150
1040.00,0.0148
1039.00,0.0147
1038.00,0.0148
1037.00,0.0149
1036.00,0.0150
1035.00,0.0150
1034.00,0.0150
1033.00,0.0149
1032.00,0.0148
1031.00,0.0146
1030.00,0.0144
1029.00,0.0142
1028.00,0.0139
1027.00,0.0137
1026.00,0.0136
1025.00,0.0135
1024.00,0.0135
1023.00,0.0135
1022.00,0.0135
1021.00,0.0134
1020.00,0.0133
1019.00,0.0133
1018.00,0.0133
1017.00,0.0134
1016.00,0.0135
1015.00,0.0138
1014.00,0.0141
1013.00,0.0144
1012.00,0.0146
1011.00,0.0147
1010.00,0.0149
1009.00,0.0151
1008.00,0.0155
1007.00,0.0161
1006.00,0.0170
1005.00,0.0182
1004.00,0.0198
1003.00,0.0220
1002.00,0.0251
1001.00,0.0288
1000.00,0.0327
999.00,0.0359
998.00,0.0373
997.00,0.0366
996.00,0.0339
995.00,0.0300
994.00,0.0259
993.00,0.0223
992.00,0.0196
991.00,0.0177
990.00,0.0163
989.00,0.0154
988.00,0.0148
987.00,0.0144
986.00,0.0143
985.00,0.0145
984.00,0.0149
983.00,0.0156
982.00,0.0167
981.00,0.0183
980.00,0.0205
979.00,0.0235
978.00,0.0273
977.00,0.0317
976.00,0.0364
975.00,0.0406
974.00,0.0435
973.00,0.0441
972.00,0.0423
971.00,0.0382
970.00,0.0331
969.00,0.0282
968.00,0.0240
967.00,0.0208
966.00,0.0185
965.00,0.0168
964.00,0.0156
963.00,0.0146
962.00,0.0138
961.00,0.0132
960.00,0.0128
959.00,0.0125
958.00,0.0123
957.00,0.0122
956.00,0.0119
955.00,0.0117
954.00,0.0115
953.00,0.0113
952.00,0.0112
951.00,0.0111
950.00,0.0110
949.00,0.0110
948.00,0.0109
947.00,0.0110
946.00,0.0112
945.00,0.0114
944.00,0.0117
943.00,0.0121
942.00,0.0124
941.00,0.0125
940.00,0.0125
939.00,0.0123
938.00,0.0120
937.00,0.0116
936.00,0.0111
935.00,0.0106
934.00,0.0103
933.00,0.0100
932.00,0.0099
931.00,0.0099
930.00,0.0099
929.00,0.0098
928.00,0.0097
927.00,0.0095
926.00,0.0094
925.00,0.0094
924.00,0.0094
923.00,0.0094
922.00,0.0094
921.00,0.0094
920.00,0.0094
919.00,0.0094
918.00,0.0095
917.00,0.0095
916.00,0.0095
915.00,0.0095
914.00,0.0096
913.00,0.0098
912.00,0.0101
911.00,0.0104
910.00,0.0106
909.00,0.0107
908.00,0.0111
907.00,0.0116
906.00,0.0123
905.00,0.0133
904.00,0.0146
903.00,0.0162
902.00,0.0179
901.00,0.0194
900.00,0.0204
899.00,0.0205
898.00,0.0198
897.00,0.0184
896.00,0.0167
895.00,0.0152
894.00,0.0140
893.00,0.0130
892.00,0.0123
891.00,0.0118
890.00,0.0114
889.00,0.0112
888.00,0.0111
887.00,0.0112
886.00,0.0112
885.00,0.0112
884.00,0.0111
883.00,0.0111
882.00,0.0111
881.00,0.0112
880.00,0.0113
879.00,0.0115
878.00,0.0118
877.00,0.0121
876.00,0.0123
875.00,0.0123
874.00,0.0121
873.00,0.0119
872.00,0.0116
871.00,0.0114
870.00,0.0113
869.00,0.0112
868.00,0.0112
867.00,0.0111
866.00,0.0112
865.00,0.0112
864.00,0.0112
863.00,0.0111
862.00,0.0111
861.00,0.0110
860.00,0.0110
859.00,0.0111
858.00,0.0112
857.00,0.0114
856.00,0.0115
855.00,0.0118
854.00,0.0120
853.00,0.0123
852.00,0.0126
851.00,0.0130
850.00,0.0136
849.00,0.0144
848.00,0.0154
847.00,0.0169
846.00,0.0190
845.00,0.0224
844.00,0.0271
843.00,0.0322
842.00,0.0358
841.00,0.0363
840.00,0.0334
839.00,0.0286
838.00,0.0237
837.00,0.0199
836.00,0.0175
835.00,0.0160
834.00,0.0151
833.00,0.0144
832.00,0.0140
831.00,0.0138
830.00,0.0138
829.00,0.0137
828.00,0.0135
827.00,0.0132
826.00,0.0129
825.00,0.0127
824.00,0.0126
823.00,0.0126
822.00,0.0127
821.00,0.0129
820.00,0.0130
819.00,0.0133
818.00,0.0136
817.00,0.0142
816.00,0.0150
815.00,0.0160
814.00,0.0175
813.00,0.0192
812.00,0.0209
811.00,0.0224
810.00,0.0235
809.00,0.0240
808.00,0.0237
807.00,0.0227
806.00,0.0214
805.00,0.0197
804.00,0.0181
803.00,0.0168
802.00,0.0158
801.00,0.0150
800.00,0.0145
799.00,0.0140
798.00,0.0136
797.00,0.0132
796.00,0.0129
795.00,0.0126
794.00,0.0124
793.00,0.0122
792.00,0.0121
791.00,0.0120
790.00,0.0118
789.00,0.0116
788.00,0.0113
787.00,0.0110
786.00,0.0108
785.00,0.0107
784.00,0.0106
783.00,0.0106
782.00,0.0104
781.00,0.0103
780.00,0.0103
779.00,0.0104
778.00,0.0105
777.00,0.0104
776.00,0.0102
775.00,0.0101
774.00,0.0100
773.00,0.0100
772.00,0.0099
771.00,0.0099
770.00,0.0100
769.00,0.0100
768.00,0.0101
767.00,0.0100
766.00,0.0099
765.00,0.0099
764.00,0.0098
763.00,0.0099
762.00,0.0100
761.00,0.0101
760.00,0.0103
759.00,0.0104
758.00,0.0106
757.00,0.0107
756.00,0.0108
755.00,0.0108
754.00,0.0108
753.00,0.0109
752.00,0.0110
751.00,0.0111
750.00,0.0113
749.00,0.0114
748.00,0.0116
747.00,0.0118
746.00,0.0121
745.00,0.0123
744.00,0.0126
743.00,0.0128
742.00,0.0132
741.00,0.0136
740.00,0.0142
739.00,0.0148
738.00,0.0153
737.00,0.0159
736.00,0.0164
735.00,0.0169
734.00,0.0174
733.00,0.0181
732.00,0.0189
731.00,0.0197
730.00,0.0204
729.00,0.0208
728.00,0.0208
727.00,0.0208
726.00,0.0207
725.00,0.0208
724.00,0.0210
723.00,0.0212
722.00,0.0216
721.00,0.0218
720.00,0.0216
719.00,0.0208
718.00,0.0197
717.00,0.0184
716.00,0.0172
715.00,0.0164
714.00,0.0157
713.00,0.0153
712.00,0.0150
711.00,0.0149
710.00,0.0150
709.00,0.0151
708.00,0.0153
707.00,0.0154
706.00,0.0155
705.00,0.0155
704.00,0.0153
703.00,0.0149
702.00,0.0143
701.00,0.0136
700.00,0.0128
699.00,0.0121
698.00,0.0117
697.00,0.0114
696.00,0.0113
695.00,0.0112
694.00,0.0112
693.00,0.0113
692.00,0.0114
691.00,0.0115
690.00,0.0115
689.00,0.0115
688.00,0.0114
687.00,0.0113
686.00,0.0111
685.00,0.0109
684.00,0.0109
683.00,0.0110
682.00,0.0110
681.00,0.0110
680.00,0.0111
679.00,0.0111
678.00,0.0113
677.00,0.0114
676.00,0.0115
675.00,0.0115
674.00,0.0116
673.00,0.0116
672.00,0.0116
671.00,0.0115
670.00,0.0113
669.00,0.0111
668.00,0.0110
667.00,0.0111
666.00,0.0112
665.00,0.0112
664.00,0.0112
663.00,0.0112
662.00,0.0112
661.00,0.0112
660.00,0.0112
659.00,0.0113
658.00,0.0113
657.00,0.0113
656.00,0.0114
655.00,0.0115
654.00,0.0115
653.00,0.0114
652.00,0.0112
651.00,0.0110
650.00,0.0108
649.00,0.0108
648.00,0.0110
647.00,0.0112
646.00,0.0114
645.00,0.0115
644.00,0.0114
643.00,0.0113
642.00,0.0114
641.00,0.0116
640.00,0.0119
639.00,0.0120
638.00,0.0120
637.00,0.0120
636.00,0.0119
635.00,0.0119
634.00,0.0120
633.00,0.0122
632.00,0.0123
631.00,0.0123
630.00,0.0121
629.00,0.0118
628.00,0.0116
627.00,0.0116
626.00,0.0119
625.00,0.0121
624.00,0.0123
623.00,0.0123
622.00,0.0123
621.00,0.0123
620.00,0.0124
619.00,0.0124
618.00,0.0124
617.00,0.0123
616.00,0.0123
615.00,0.0123
614.00,0.0122
613.00,0.0121
612.00,0.0121
611.00,0.0121
610.00,0.0123
609.00,0.0124
608.00,0.0126
607.00,0.0127
606.00,0.0127
605.00,0.0127
604.00,0.0125
603.00,0.0121
602.00,0.0117
601.00,0.0115
600.00,0.0115
599.00,0.0116
598.00,0.0118
597.00,0.0120
596.00,0.0123
595.00,0.0128
594.00,0.0131
593.00,0.0132
592.00,0.0130
591.00,0.0128
590.00,0.0126
589.00,0.0125
588.00,0.0126
587.00,0.0127
586.00,0.0129
585.00,0.0130
584.00,0.0131
583.00,0.0131
582.00,0.0131
581.00,0.0132
580.00,0.0132
579.00,0.0132
578.00,0.0130
577.00,0.0128
576.00,0.0125
575.00,0.0124
574.00,0.0124
573.00,0.0125
572.00,0.0126
571.00,0.0126
570.00,0.0126
569.00,0.0126
568.00,0.0127
567.00,0.0128
566.00,0.0129
565.00,0.0128
564.00,0.0125
563.00,0.0122
562.00,0.0122
561.00,0.0125
560.00,0.0131
559.00,0.0134
558.00,0.0134
557.00,0.0130
556.00,0.0125
555.00,0.0121
554.00,0.0119
553.00,0.0121
552.00,0.0124
551.00,0.0127
550.00,0.0128
549.00,0.0128
548.00,0.0128
547.00,0.0128
546.00,0.0126
545.00,0.0123
544.00,0.0120
543.00,0.0117
542.00,0.0116
541.00,0.0114
540.00,0.0113
539.00,0.0114
538.00,0.0116
537.00,0.0121
536.00,0.0125
535.00,0.0128
534.00,0.0128
533.00,0.0129
532.00,0.0131
531.00,0.0133
530.00,0.0133
529.00,0.0131
528.00,0.0128
527.00,0.0127
526.00,0.0130
525.00,0.0134
524.00,0.0136
523.00,0.0134
522.00,0.0129
521.00,0.0123
520.00,0.0119
519.00,0.0119
518.00,0.0123
517.00,0.0128
516.00,0.0135
515.00,0.0140
514.00,0.0142
513.00,0.0142
512.00,0.0140
511.00,0.0138
510.00,0.0134
509.00,0.0128
508.00,0.0124
507.00,0.0125
506.00,0.0130
505.00,0.0134
504.00,0.0130
503.00,0.0119
502.00,0.0108
501.00,0.0104
500.00,0.0106
499.00,0.0110
498.00,0.0115
497.00,0.0117
496.00,0.0117
495.00,0.0113
494.00,0.0107
493.00,0.0104
492.00,0.0107
491.00,0.0112
490.00,0.0112
489.00,0.0108
488.00,0.0108
487.00,0.0112
486.00,0.0116
485.00,0.0115
484.00,0.0111
483.00,0.0110
482.00,0.0113
481.00,0.0117
480.00,0.0122
479.00,0.0126
478.00,0.0128
477.00,0.0126
476.00,0.0124
475.00,0.0127
474.00,0.0136
473.00,0.0145
472.00,0.0149
471.00,0.0146
470.00,0.0138
469.00,0.0128
468.00,0.0119
467.00,0.0113
466.00,0.0110
465.00,0.0110
464.00,0.0112
463.00,0.0120
462.00,0.0133
461.00,0.0150
460.00,0.0166
459.00,0.0174
458.00,0.0166
457.00,0.0147
456.00,0.0136
455.00,0.0141
454.00,0.0152
453.00,0.0159
452.00,0.0161
451.00,0.0163
450.00,0.0168
