Created as New Dataset,Sample 147 By Administrator Date Friday, September 05 2025
cm-1,A
4000.00,0.0012
3999.00,0.0012
3998.00,0.0012
3997.00,0.0012
3996.00,0.0012
3995.00,0.0012
3994.00,0.0012
3993.00,0.0012
3992.00,0.0012
3991.00,0.0012
3990.00,0.0012
3989.00,0.0012
3988.00,0.0012
3987.00,0.0012
3986.00,0.0012
3985.00,0.0012
3984.00,0.0012
3983.00,0.0012
3982.00,0.0012
3981.00,0.0011
3980.00,0.0011
3979.00,0.0011
3978.00,0.0011
3977.00,0.0011
3976.00,0.0010
3975.00,0.0010
3974.00,0.0010
3973.00,0.0010
3972.00,0.0010
3971.00,0.0010
3970.00,0.0010
3969.00,0.0010
3968.00,0.0010
3967.00,0.0010
3966.00,0.0010
3965.00,0.0010
3964.00,0.0010
3963.00,0.0010
3962.00,0.0010
3961.00,0.0010
3960.00,0.0011
3959.00,0.0011
3958.00,0.0011
3957.00,0.0011
3956.00,0.0011
3955.00,0.0010
3954.00,0.0010
3953.00,0.0010
3952.00,0.0010
3951.00,0.0010
3950.00,0.0010
3949.00,0.0010
3948.00,0.0009
3947.00,0.0009
3946.00,0.0009
3945.00,0.0009
3944.00,0.0009
3943.00,0.0010
3942.00,0.0010
3941.00,0.0010
3940.00,0.0010
3939.00,0.0009
3938.00,0.0009
3937.00,0.0010
3936.00,0.0010
3935.00,0.0010
3934.00,0.0009
3933.00,0.0009
3932.00,0.0009
3931.00,0.0010
3930.00,0.0010
3929.00,0.0010
3928.00,0.0010
3927.00,0.0011
3926.00,0.0011
3925.00,0.0011
3924.00,0.0011
3923.00,0.0011
3922.00,0.0010
3921.00,0.0010
3920.00,0.0009
3919.00,0.0009
3918.00,0.0009
3917.00,0.0010
3916.00,0.0010
3915.00,0.0010
3914.00,0.0010
3913.00,0.0010
3912.00,0.0009
3911.00,0.0009
3910.00,0.0010
3909.00,0.0010
3908.00,0.0010
3907.00,0.0010
3906.00,0.0009
3905.00,0.0009
3904.00,0.0009
3903.00,0.0009
3902.00,0.0009
3901.00,0.0009
3900.00,0.0009
3899.00,0.0009
3898.00,0.0010
3897.00,0.0010
3896.00,0.0010
3895.00,0.0010
3894.00,0.0010
3893.00,0.0010
3892.00,0.0010
3891.00,0.0010
3890.00,0.0010
3889.00,0.0010
3888.00,0.0010
3887.00,0.0010
3886.00,0.0010
3885.00,0.0010
3884.00,0.0010
3883.00,0.0010
3882.00,0.0010
3881.00,0.0010
3880.00,0.0010
3879.00,0.0010
3878.00,0.0009
3877.00,0.0009
3876.00,0.0009
3875.00,0.0009
3874.00,0.0008
3873.00,0.0008
3872.00,0.0008
3871.00,0.0008
3870.00,0.0008
3869.00,0.0009
3868.00,0.0009
3867.00,0.0008
3866.00,0.0008
3865.00,0.0008
3864.00,0.0009
3863.00,0.0008
3862.00,0.0008
3861.00,0.0008
3860.00,0.0008
3859.00,0.0008
3858.00,0.0009
3857.00,0.0009
3856.00,0.0010
3855.00,0.0009
3854.00,0.0009
3853.00,0.0009
3852.00,0.0009
3851.00,0.0009
3850.00,0.0008
3849.00,0.0008
3848.00,0.0008
3847.00,0.0008
3846.00,0.0008
3845.00,0.0009
3844.00,0.0009
3843.00,0.0009
3842.00,0.0009
3841.00,0.0009
3840.00,0.0010
3839.00,0.0010
3838.00,0.0011
3837.00,0.0011
3836.00,0.0010
3835.00,0.0009
3834.00,0.0008
3833.00,0.0008
3832.00,0.0007
3831.00,0.0008
3830.00,0.0008
3829.00,0.0009
3828.00,0.0009
3827.00,0.0009
3826.00,0.0009
3825.00,0.0009
3824.00,0.0009
3823.00,0.0009
3822.00,0.0009
3821.00,0.0010
3820.00,0.0010
3819.00,0.0009
3818.00,0.0009
3817.00,0.0009
3816.00,0.0009
3815.00,0.0009
3814.00,0.0009
3813.00,0.0009
3812.00,0.0009
3811.00,0.0009
3810.00,0.0010
3809.00,0.0010
3808.00,0.0010
3807.00,0.0010
3806.00,0.0009
3805.00,0.0009
3804.00,0.0009
3803.00,0.0009
3802.00,0.0009
3801.00,0.0009
3800.00,0.0010
3799.00,0.0009
3798.00,0.0009
3797.00,0.0009
3796.00,0.0009
3795.00,0.0009
3794.00,0.0009
3793.00,0.0009
3792.00,0.0009
3791.00,0.0009
3790.00,0.0009
3789.00,0.0009
3788.00,0.0009
3787.00,0.0009
3786.00,0.0008
3785.00,0.0008
3784.00,0.0008
3783.00,0.0008
3782.00,0.0009
3781.00,0.0009
3780.00,0.0009
3779.00,0.0009
3778.00,0.0009
3777.00,0.0009
3776.00,0.0009
3775.00,0.0009
3774.00,0.0009
3773.00,0.0009
3772.00,0.0009
3771.00,0.0009
3770.00,0.0009
3769.00,0.0009
3768.00,0.0009
3767.00,0.0008
3766.00,0.0009
3765.00,0.0009
3764.00,0.0009
3763.00,0.0009
3762.00,0.0008
3761.00,0.0008
3760.00,0.0008
3759.00,0.0009
3758.00,0.0009
3757.00,0.0009
3756.00,0.0009
3755.00,0.0009
3754.00,0.0009
3753.00,0.0009
3752.00,0.0009
3751.00,0.0009
3750.00,0.0009
3749.00,0.0009
3748.00,0.0009
3747.00,0.0009
3746.00,0.0009
3745.00,0.0009
3744.00,0.0009
3743.00,0.0008
3742.00,0.0008
3741.00,0.0008
3740.00,0.0007
3739.00,0.0007
3738.00,0.0007
3737.00,0.0007
3736.00,0.0007
3735.00,0.0007
3734.00,0.0008
3733.00,0.0008
3732.00,0.0008
3731.00,0.0008
3730.00,0.0008
3729.00,0.0008
3728.00,0.0008
3727.00,0.0008
3726.00,0.0008
3725.00,0.0007
3724.00,0.0007
3723.00,0.0007
3722.00,0.0007
3721.00,0.0007
3720.00,0.0008
3719.00,0.0008
3718.00,0.0008
3717.00,0.0008
3716.00,0.0008
3715.00,0.0008
3714.00,0.0008
3713.00,0.0008
3712.00,0.0008
3711.00,0.0008
3710.00,0.0009
3709.00,0.0009
3708.00,0.0009
3707.00,0.0009
3706.00,0.0009
3705.00,0.0008
3704.00,0.0008
3703.00,0.0008
3702.00,0.0008
3701.00,0.0009
3700.00,0.0009
3699.00,0.0009
3698.00,0.0009
3697.00,0.0009
3696.00,0.0009
3695.00,0.0010
3694.00,0.0010
3693.00,0.0010
3692.00,0.0010
3691.00,0.0010
3690.00,0.0010
3689.00,0.0010
3688.00,0.0011
3687.00,0.0011
3686.00,0.0012
3685.00,0.0012
3684.00,0.0012
3683.00,0.0012
3682.00,0.0012
3681.00,0.0012
3680.00,0.0012
3679.00,0.0012
3678.00,0.0013
3677.00,0.0013
3676.00,0.0013
3675.00,0.0014
3674.00,0.0014
3673.00,0.0014
3672.00,0.0014
3671.00,0.0014
3670.00,0.0014
3669.00,0.0015
3668.00,0.0015
3667.00,0.0015
3666.00,0.0014
3665.00,0.0014
3664.00,0.0014
3663.00,0.0014
3662.00,0.0014
3661.00,0.0014
3660.00,0.0014
3659.00,0.0014
3658.00,0.0014
3657.00,0.0014
3656.00,0.0014
3655.00,0.0015
3654.00,0.0015
3653.00,0.0015
3652.00,0.0015
3651.00,0.0016
3650.00,0.0016
3649.00,0.0017
3648.00,0.0017
3647.00,0.0018
3646.00,0.0018
3645.00,0.0018
3644.00,0.0019
3643.00,0.0019
3642.00,0.0020
3641.00,0.0020
3640.00,0.0020
3639.00,0.0020
3638.00,0.0021
3637.00,0.0022
3636.00,0.0022
3635.00,0.0023
3634.00,0.0024
3633.00,0.0024
3632.00,0.0023
3631.00,0.0023
3630.00,0.0024
3629.00,0.0025
3628.00,0.0026
3627.00,0.0026
3626.00,0.0026
3625.00,0.0026
3624.00,0.0026
3623.00,0.0026
3622.00,0.0026
3621.00,0.0027
3620.00,0.0028
3619.00,0.0028
3618.00,0.0029
3617.00,0.0030
3616.00,0.0031
3615.00,0.0031
3614.00,0.0031
3613.00,0.0031
3612.00,0.0031
3611.00,0.0031
3610.00,0.0032
3609.00,0.0033
3608.00,0.0034
3607.00,0.0036
3606.00,0.0037
3605.00,0.0037
3604.00,0.0037
3603.00,0.0038
3602.00,0.0038
3601.00,0.0038
3600.00,0.0039
3599.00,0.0040
3598.00,0.0041
3597.00,0.0041
3596.00,0.0042
3595.00,0.0042
3594.00,0.0042
3593.00,0.0043
3592.00,0.0043
3591.00,0.0044
3590.00,0.0045
3589.00,0.0046
3588.00,0.0048
3587.00,0.0049
3586.00,0.0050
3585.00,0.0050
3584.00,0.0050
3583.00,0.0051
3582.00,0.0051
3581.00,0.0052
3580.00,0.0053
3579.00,0.0054
3578.00,0.0055
3577.00,0.0056
3576.00,0.0056
3575.00,0.0057
3574.00,0.0058
3573.00,0.0058
3572.00,0.0059
3571.00,0.0059
3570.00,0.0059
3569.00,0.0060
3568.00,0.0061
3567.00,0.0062
3566.00,0.0064
3565.00,0.0065
3564.00,0.0066
3563.00,0.0067
3562.00,0.0067
3561.00,0.0068
3560.00,0.0069
3559.00,0.0070
3558.00,0.0070
3557.00,0.0071
3556.00,0.0071
3555.00,0.0072
3554.00,0.0073
3553.00,0.0074
3552.00,0.0075
3551.00,0.0076
3550.00,0.0076
3549.00,0.0076
3548.00,0.0076
3547.00,0.0077
3546.00,0.0079
3545.00,0.0080
3544.00,0.0081
3543.00,0.0083
3542.00,0.0083
3541.00,0.0084
3540.00,0.0085
3539.00,0.0086
3538.00,0.0087
3537.00,0.0088
3536.00,0.0089
3535.00,0.0090
3534.00,0.0091
3533.00,0.0092
3532.00,0.0093
3531.00,0.0094
3530.00,0.0095
3529.00,0.0096
3528.00,0.0097
3527.00,0.0097
3526.00,0.0098
3525.00,0.0100
3524.00,0.0101
3523.00,0.0102
3522.00,0.0103
3521.00,0.0104
3520.00,0.0104
3519.00,0.0105
3518.00,0.0105
3517.00,0.0106
3516.00,0.0107
3515.00,0.0108
3514.00,0.0109
3513.00,0.0110
3512.00,0.0111
3511.00,0.0112
3510.00,0.0113
3509.00,0.0115
3508.00,0.0116
3507.00,0.0116
3506.00,0.0117
3505.00,0.0117
3504.00,0.0118
3503.00,0.0119
3502.00,0.0120
3501.00,0.0121
3500.00,0.0122
3499.00,0.0124
3498.00,0.0125
3497.00,0.0125
3496.00,0.0126
3495.00,0.0127
3494.00,0.0128
3493.00,0.0129
3492.00,0.0130
3491.00,0.0131
3490.00,0.0132
3489.00,0.0133
3488.00,0.0133
3487.00,0.0134
3486.00,0.0135
3485.00,0.0136
3484.00,0.0138
3483.00,0.0139
3482.00,0.0140
3481.00,0.0141
3480.00,0.0142
3479.00,0.0143
3478.00,0.0143
3477.00,0.0144
3476.00,0.0145
3475.00,0.0145
3474.00,0.0146
3473.00,0.0147
3472.00,0.0148
3471.00,0.0149
3470.00,0.0149
3469.00,0.0150
3468.00,0.0151
3467.00,0.0152
3466.00,0.0153
3465.00,0.0154
3464.00,0.0154
3463.00,0.0155
3462.00,0.0156
3461.00,0.0157
3460.00,0.0158
3459.00,0.0159
3458.00,0.0159
3457.00,0.0160
3456.00,0.0161
3455.00,0.0162
3454.00,0.0162
3453.00,0.0162
3452.00,0.0163
3451.00,0.0163
3450.00,0.0164
3449.00,0.0166
3448.00,0.0167
3447.00,0.0168
3446.00,0.0168
3445.00,0.0169
3444.00,0.0170
3443.00,0.0171
3442.00,0.0172
3441.00,0.0173
3440.00,0.0174
3439.00,0.0174
3438.00,0.0175
3437.00,0.0175
3436.00,0.0176
3435.00,0.0177
3434.00,0.0177
3433.00,0.0178
3432.00,0.0179
3431.00,0.0180
3430.00,0.0181
3429.00,0.0182
3428.00,0.0182
3427.00,0.0183
3426.00,0.0183
3425.00,0.0184
3424.00,0.0185
3423.00,0.0185
3422.00,0.0186
3421.00,0.0188
3420.00,0.0189
3419.00,0.0190
3418.00,0.0191
3417.00,0.0191
3416.00,0.0192
3415.00,0.0193
3414.00,0.0193
3413.00,0.0194
3412.00,0.0195
3411.00,0.0196
3410.00,0.0197
3409.00,0.0198
3408.00,0.0198
3407.00,0.0199
3406.00,0.0199
3405.00,0.0200
3404.00,0.0201
3403.00,0.0202
3402.00,0.0203
3401.00,0.0204
3400.00,0.0205
3399.00,0.0206
3398.00,0.0207
3397.00,0.0207
3396.00,0.0207
3395.00,0.0208
3394.00,0.0208
3393.00,0.0209
3392.00,0.0209
3391.00,0.0209
3390.00,0.0209
3389.00,0.0209
3388.00,0.0209
3387.00,0.0209
3386.00,0.0210
3385.00,0.0210
3384.00,0.0211
3383.00,0.0211
3382.00,0.0212
3381.00,0.0212
3380.00,0.0212
3379.00,0.0212
3378.00,0.0212
3377.00,0.0212
3376.00,0.0212
3375.00,0.0212
3374.00,0.0213
3373.00,0.0213
3372.00,0.0213
3371.00,0.0213
3370.00,0.0213
3369.00,0.0214
3368.00,0.0214
3367.00,0.0214
3366.00,0.0214
3365.00,0.0215
3364.00,0.0215
3363.00,0.0215
3362.00,0.0215
3361.00,0.0216
3360.00,0.0216
3359.00,0.0216
3358.00,0.0216
3357.00,0.0216
3356.00,0.0216
3355.00,0.0217
3354.00,0.0217
3353.00,0.0217
3352.00,0.0218
3351.00,0.0218
3350.00,0.0218
3349.00,0.0218
3348.00,0.0219
3347.00,0.0219
3346.00,0.0220
3345.00,0.0221
3344.00,0.0221
3343.00,0.0222
3342.00,0.0222
3341.00,0.0222
3340.00,0.0221
3339.00,0.0222
3338.00,0.0222
3337.00,0.0223
3336.00,0.0224
3335.00,0.0224
3334.00,0.0224
3333.00,0.0224
3332.00,0.0225
3331.00,0.0225
3330.00,0.0225
3329.00,0.0226
3328.00,0.0226
3327.00,0.0227
3326.00,0.0228
3325.00,0.0229
3324.00,0.0229
3323.00,0.0230
3322.00,0.0230
3321.00,0.0230
3320.00,0.0230
3319.00,0.0230
3318.00,0.0230
3317.00,0.0230
3316.00,0.0231
3315.00,0.0231
3314.00,0.0231
3313.00,0.0231
3312.00,0.0231
3311.00,0.0231
3310.00,0.0230
3309.00,0.0229
3308.00,0.0228
3307.00,0.0228
3306.00,0.0227
3305.00,0.0227
3304.00,0.0226
3303.00,0.0225
3302.00,0.0225
3301.00,0.0224
3300.00,0.0223
3299.00,0.0223
3298.00,0.0222
3297.00,0.0221
3296.00,0.0220
3295.00,0.0218
3294.00,0.0217
3293.00,0.0216
3292.00,0.0215
3291.00,0.0214
3290.00,0.0213
3289.00,0.0212
3288.00,0.0212
3287.00,0.0211
3286.00,0.0210
3285.00,0.0209
3284.00,0.0208
3283.00,0.0207
3282.00,0.0206
3281.00,0.0205
3280.00,0.0204
3279.00,0.0203
3278.00,0.0202
3277.00,0.0202
3276.00,0.0201
3275.00,0.0200
3274.00,0.0199
3273.00,0.0199
3272.00,0.0198
3271.00,0.0198
3270.00,0.0197
3269.00,0.0197
3268.00,0.0196
3267.00,0.0195
3266.00,0.0194
3265.00,0.0194
3264.00,0.0193
3263.00,0.0192
3262.00,0.0191
3261.00,0.0190
3260.00,0.0189
3259.00,0.0188
3258.00,0.0188
3257.00,0.0187
3256.00,0.0186
3255.00,0.0185
3254.00,0.0184
3253.00,0.0183
3252.00,0.0182
3251.00,0.0181
3250.00,0.0181
3249.00,0.0180
3248.00,0.0180
3247.00,0.0179
3246.00,0.0178
3245.00,0.0178
3244.00,0.0178
3243.00,0.0177
3242.00,0.0177
3241.00,0.0176
3240.00,0.0175
3239.00,0.0174
3238.00,0.0173
3237.00,0.0173
3236.00,0.0172
3235.00,0.0172
3234.00,0.0171
3233.00,0.0171
3232.00,0.0171
3231.00,0.0171
3230.00,0.0171
3229.00,0.0171
3228.00,0.0171
3227.00,0.0171
3226.00,0.0171
3225.00,0.0171
3224.00,0.0171
3223.00,0.0171
3222.00,0.0172
3221.00,0.0172
3220.00,0.0172
3219.00,0.0173
3218.00,0.0174
3217.00,0.0174
3216.00,0.0175
3215.00,0.0175
3214.00,0.0176
3213.00,0.0176
3212.00,0.0176
3211.00,0.0177
3210.00,0.0177
3209.00,0.0177
3208.00,0.0177
3207.00,0.0178
3206.00,0.0178
3205.00,0.0178
3204.00,0.0178
3203.00,0.0179
3202.00,0.0179
3201.00,0.0179
3200.00,0.0178
3199.00,0.0177
3198.00,0.0177
3197.00,0.0176
3196.00,0.0176
3195.00,0.0176
3194.00,0.0175
3193.00,0.0174
3192.00,0.0174
3191.00,0.0173
3190.00,0.0173
3189.00,0.0172
3188.00,0.0171
3187.00,0.0170
3186.00,0.0169
3185.00,0.0168
3184.00,0.0167
3183.00,0.0166
3182.00,0.0165
3181.00,0.0163
3180.00,0.0161
3179.00,0.0160
3178.00,0.0158
3177.00,0.0157
3176.00,0.0156
3175.00,0.0155
3174.00,0.0154
3173.00,0.0153
3172.00,0.0153
3171.00,0.0152
3170.00,0.0151
3169.00,0.0150
3168.00,0.0150
3167.00,0.0149
3166.00,0.0148
3165.00,0.0147
3164.00,0.0146
3163.00,0.0146
3162.00,0.0145
3161.00,0.0144
3160.00,0.0144
3159.00,0.0143
3158.00,0.0142
3157.00,0.0141
3156.00,0.0141
3155.00,0.0140
3154.00,0.0139
3153.00,0.0138
3152.00,0.0138
3151.00,0.0137
3150.00,0.0137
3149.00,0.0137
3148.00,0.0137
3147.00,0.0136
3146.00,0.0136
3145.00,0.0135
3144.00,0.0135
3143.00,0.0134
3142.00,0.0134
3141.00,0.0133
3140.00,0.0132
3139.00,0.0132
3138.00,0.0132
3137.00,0.0132
3136.00,0.0132
3135.00,0.0131
3134.00,0.0131
3133.00,0.0130
3132.00,0.0130
3131.00,0.0129
3130.00,0.0128
3129.00,0.0128
3128.00,0.0127
3127.00,0.0127
3126.00,0.0127
3125.00,0.0126
3124.00,0.0126
3123.00,0.0125
3122.00,0.0124
3121.00,0.0123
3120.00,0.0122
3119.00,0.0122
3118.00,0.0121
3117.00,0.0121
3116.00,0.0120
3115.00,0.0119
3114.00,0.0118
3113.00,0.0117
3112.00,0.0117
3111.00,0.0116
3110.00,0.0115
3109.00,0.0115
3108.00,0.0114
3107.00,0.0113
3106.00,0.0111
3105.00,0.0110
3104.00,0.0109
3103.00,0.0108
3102.00,0.0108
3101.00,0.0107
3100.00,0.0106
3099.00,0.0105
3098.00,0.0104
3097.00,0.0104
3096.00,0.0103
3095.00,0.0103
3094.00,0.0103
3093.00,0.0102
3092.00,0.0102
3091.00,0.0101
3090.00,0.0100
3089.00,0.0099
3088.00,0.0098
3087.00,0.0097
3086.00,0.0096
3085.00,0.0096
3084.00,0.0096
3083.00,0.0096
3082.00,0.0096
3081.00,0.0095
3080.00,0.0095
3079.00,0.0095
3078.00,0.0095
3077.00,0.0095
3076.00,0.0095
3075.00,0.0095
3074.00,0.0095
3073.00,0.0094
3072.00,0.0094
3071.00,0.0094
3070.00,0.0094
3069.00,0.0094
3068.00,0.0095
3067.00,0.0095
3066.00,0.0095
3065.00,0.0094
3064.00,0.0094
3063.00,0.0094
3062.00,0.0094
3061.00,0.0094
3060.00,0.0094
3059.00,0.0093
3058.00,0.0093
3057.00,0.0092
3056.00,0.0092
3055.00,0.0092
3054.00,0.0091
3053.00,0.0091
3052.00,0.0091
3051.00,0.0091
3050.00,0.0091
3049.00,0.0091
3048.00,0.0091
3047.00,0.0091
3046.00,0.0091
3045.00,0.0091
3044.00,0.0091
3043.00,0.0091
3042.00,0.0091
3041.00,0.0092
3040.00,0.0093
3039.00,0.0093
3038.00,0.0094
3037.00,0.0095
3036.00,0.0095
3035.00,0.0095
3034.00,0.0096
3033.00,0.0096
3032.00,0.0096
3031.00,0.0097
3030.00,0.0097
3029.00,0.0098
3028.00,0.0097
3027.00,0.0097
3026.00,0.0097
3025.00,0.0097
3024.00,0.0098
3023.00,0.0098
3022.00,0.0099
3021.00,0.0099
3020.00,0.0100
3019.00,0.0100
3018.00,0.0101
3017.00,0.0101
3016.00,0.0102
3015.00,0.0102
3014.00,0.0102
3013.00,0.0103
3012.00,0.0104
3011.00,0.0105
3010.00,0.0107
3009.00,0.0108
3008.00,0.0110
3007.00,0.0111
3006.00,0.0112
3005.00,0.0113
3004.00,0.0114
3003.00,0.0115
3002.00,0.0117
3001.00,0.0118
3000.00,0.0120
2999.00,0.0122
2998.00,0.0125
2997.00,0.0128
2996.00,0.0131
2995.00,0.0134
2994.00,0.0138
2993.00,0.0142
2992.00,0.0147
2991.00,0.0152
2990.00,0.0157
2989.00,0.0164
2988.00,0.0171
2987.00,0.0179
2986.00,0.0187
2985.00,0.0197
2984.00,0.0207
2983.00,0.0219
2982.00,0.0231
2981.00,0.0246
2980.00,0.0263
2979.00,0.0282
2978.00,0.0305
2977.00,0.0329
2976.00,0.0357
2975.00,0.0389
2974.00,0.0425
2973.00,0.0467
2972.00,0.0513
2971.00,0.0566
2970.00,0.0625
2969.00,0.0689
2968.00,0.0759
2967.00,0.0834
2966.00,0.0913
2965.00,0.0993
2964.00,0.1072
2963.00,0.1146
2962.00,0.1212
2961.00,0.1267
2960.00,0.1311
2959.00,0.1347
2958.00,0.1377
2957.00,0.1407
2956.00,0.1440
2955.00,0.1478
2954.00,0.1520
2953.00,0.1563
2952.00,0.1600
2951.00,0.1623
2950.00,0.1625
2949.00,0.1603
2948.00,0.1554
2947.00,0.1484
2946.00,0.1400
2945.00,0.1312
2944.00,0.1228
2943.00,0.1157
2942.00,0.1103
2941.00,0.1068
2940.00,0.1053
2939.00,0.1055
2938.00,0.1073
2937.00,0.1104
2936.00,0.1149
2935.00,0.1205
2934.00,0.1272
2933.00,0.1349
2932.00,0.1433
2931.00,0.1524
2930.00,0.1619
2929.00,0.1716
2928.00,0.1812
2927.00,0.1904
2926.00,0.1992
2925.00,0.2074
2924.00,0.2152
2923.00,0.2225
2922.00,0.2294
2921.00,0.2356
2920.00,0.2408
2919.00,0.2442
2918.00,0.2453
2917.00,0.2435
2916.00,0.2388
2915.00,0.2316
2914.00,0.2229
2913.00,0.2135
2912.00,0.2044
2911.00,0.1961
2910.00,0.1887
2909.00,0.1821
2908.00,0.1762
2907.00,0.1706
2906.00,0.1653
2905.00,0.1599
2904.00,0.1544
2903.00,0.1489
2902.00,0.1434
2901.00,0.1379
2900.00,0.1325
2899.00,0.1274
2898.00,0.1226
2897.00,0.1181
2896.00,0.1141
2895.00,0.1105
2894.00,0.1073
2893.00,0.1046
2892.00,0.1024
2891.00,0.1007
2890.00,0.0994
2889.00,0.0984
2888.00,0.0978
2887.00,0.0975
2886.00,0.0975
2885.00,0.0978
2884.00,0.0986
2883.00,0.0997
2882.00,0.1012
2881.00,0.1030
2880.00,0.1049
2879.00,0.1065
2878.00,0.1078
2877.00,0.1084
2876.00,0.1084
2875.00,0.1082
2874.00,0.1080
2873.00,0.1081
2872.00,0.1086
2871.00,0.1097
2870.00,0.1111
2869.00,0.1124
2868.00,0.1133
2867.00,0.1132
2866.00,0.1117
2865.00,0.1087
2864.00,0.1044
2863.00,0.0996
2862.00,0.0950
2861.00,0.0910
2860.00,0.0881
2859.00,0.0864
2858.00,0.0858
2857.00,0.0860
2856.00,0.0868
2855.00,0.0879
2854.00,0.0892
2853.00,0.0905
2852.00,0.0916
2851.00,0.0923
2850.00,0.0924
2849.00,0.0919
2848.00,0.0911
2847.00,0.0905
2846.00,0.0904
2845.00,0.0914
2844.00,0.0933
2843.00,0.0961
2842.00,0.0995
2841.00,0.1029
2840.00,0.1057
2839.00,0.1073
2838.00,0.1070
2837.00,0.1044
2836.00,0.0994
2835.00,0.0923
2834.00,0.0839
2833.00,0.0750
2832.00,0.0665
2831.00,0.0588
2830.00,0.0522
2829.00,0.0467
2828.00,0.0423
2827.00,0.0386
2826.00,0.0356
2825.00,0.0330
2824.00,0.0309
2823.00,0.0291
2822.00,0.0276
2821.00,0.0263
2820.00,0.0251
2819.00,0.0241
2818.00,0.0232
2817.00,0.0224
2816.00,0.0217
2815.00,0.0211
2814.00,0.0205
2813.00,0.0199
2812.00,0.0194
2811.00,0.0189
2810.00,0.0184
2809.00,0.0179
2808.00,0.0173
2807.00,0.0167
2806.00,0.0162
2805.00,0.0156
2804.00,0.0151
2803.00,0.0146
2802.00,0.0141
2801.00,0.0137
2800.00,0.0133
2799.00,0.0130
2798.00,0.0127
2797.00,0.0125
2796.00,0.0123
2795.00,0.0121
2794.00,0.0119
2793.00,0.0116
2792.00,0.0113
2791.00,0.0110
2790.00,0.0106
2789.00,0.0103
2788.00,0.0100
2787.00,0.0098
2786.00,0.0095
2785.00,0.0093
2784.00,0.0091
2783.00,0.0089
2782.00,0.0086
2781.00,0.0085
2780.00,0.0083
2779.00,0.0081
2778.00,0.0080
2777.00,0.0078
2776.00,0.0077
2775.00,0.0076
2774.00,0.0075
2773.00,0.0074
2772.00,0.0074
2771.00,0.0073
2770.00,0.0073
2769.00,0.0072
2768.00,0.0072
2767.00,0.0072
2766.00,0.0071
2765.00,0.0071
2764.00,0.0070
2763.00,0.0069
2762.00,0.0069
2761.00,0.0069
2760.00,0.0068
2759.00,0.0068
2758.00,0.0067
2757.00,0.0067
2756.00,0.0067
2755.00,0.0067
2754.00,0.0067
2753.00,0.0067
2752.00,0.0067
2751.00,0.0066
2750.00,0.0066
2749.00,0.0065
2748.00,0.0065
2747.00,0.0065
2746.00,0.0065
2745.00,0.0066
2744.00,0.0067
2743.00,0.0067
2742.00,0.0068
2741.00,0.0069
2740.00,0.0070
2739.00,0.0070
2738.00,0.0071
2737.00,0.0072
2736.00,0.0073
2735.00,0.0074
2734.00,0.0075
2733.00,0.0076
2732.00,0.0077
2731.00,0.0079
2730.00,0.0080
2729.00,0.0082
2728.00,0.0084
2727.00,0.0086
2726.00,0.0088
2725.00,0.0090
2724.00,0.0091
2723.00,0.0091
2722.00,0.0090
2721.00,0.0088
2720.00,0.0086
2719.00,0.0084
2718.00,0.0081
2717.00,0.0078
2716.00,0.0076
2715.00,0.0075
2714.00,0.0073
2713.00,0.0071
2712.00,0.0069
2711.00,0.0068
2710.00,0.0066
2709.00,0.0065
2708.00,0.0064
2707.00,0.0063
2706.00,0.0062
2705.00,0.0061
2704.00,0.0060
2703.00,0.0059
2702.00,0.0058
2701.00,0.0058
2700.00,0.0057
2699.00,0.0057
2698.00,0.0057
2697.00,0.0056
2696.00,0.0056
2695.00,0.0056
2694.00,0.0056
2693.00,0.0056
2692.00,0.0056
2691.00,0.0056
2690.00,0.0056
2689.00,0.0056
2688.00,0.0056
2687.00,0.0055
2686.00,0.0055
2685.00,0.0055
2684.00,0.0055
2683.00,0.0055
2682.00,0.0055
2681.00,0.0055
2680.00,0.0055
2679.00,0.0055
2678.00,0.0055
2677.00,0.0055
2676.00,0.0055
2675.00,0.0055
2674.00,0.0055
2673.00,0.0054
2672.00,0.0053
2671.00,0.0053
2670.00,0.0053
2669.00,0.0052
2668.00,0.0053
2667.00,0.0053
2666.00,0.0053
2665.00,0.0054
2664.00,0.0054
2663.00,0.0054
2662.00,0.0055
2661.00,0.0055
2660.00,0.0055
2659.00,0.0055
2658.00,0.0055
2657.00,0.0054
2656.00,0.0054
2655.00,0.0054
2654.00,0.0054
2653.00,0.0054
2652.00,0.0053
2651.00,0.0053
2650.00,0.0052
2649.00,0.0052
2648.00,0.0051
2647.00,0.0050
2646.00,0.0050
2645.00,0.0050
2644.00,0.0049
2643.00,0.0049
2642.00,0.0048
2641.00,0.0048
2640.00,0.0047
2639.00,0.0047
2638.00,0.0046
2637.00,0.0046
2636.00,0.0046
2635.00,0.0046
2634.00,0.0046
2633.00,0.0046
2632.00,0.0046
2631.00,0.0046
2630.00,0.0046
2629.00,0.0046
2628.00,0.0046
2627.00,0.0046
2626.00,0.0046
2625.00,0.0046
2624.00,0.0047
2623.00,0.0047
2622.00,0.0047
2621.00,0.0047
2620.00,0.0047
2619.00,0.0046
2618.00,0.0046
2617.00,0.0046
2616.00,0.0046
2615.00,0.0045
2614.00,0.0045
2613.00,0.0044
2612.00,0.0043
2611.00,0.0043
2610.00,0.0043
2609.00,0.0042
2608.00,0.0041
2607.00,0.0041
2606.00,0.0040
2605.00,0.0040
2604.00,0.0040
2603.00,0.0040
2602.00,0.0040
2601.00,0.0039
2600.00,0.0038
2599.00,0.0038
2598.00,0.0037
2597.00,0.0037
2596.00,0.0038
2595.00,0.0038
2594.00,0.0039
2593.00,0.0039
2592.00,0.0039
2591.00,0.0039
2590.00,0.0039
2589.00,0.0039
2588.00,0.0039
2587.00,0.0040
2586.00,0.0041
2585.00,0.0041
2584.00,0.0042
2583.00,0.0042
2582.00,0.0042
2581.00,0.0042
2580.00,0.0042
2579.00,0.0041
2578.00,0.0040
2577.00,0.0038
2576.00,0.0037
2575.00,0.0036
2574.00,0.0035
2573.00,0.0034
2572.00,0.0034
2571.00,0.0033
2570.00,0.0032
2569.00,0.0032
2568.00,0.0031
2567.00,0.0031
2566.00,0.0031
2565.00,0.0031
2564.00,0.0031
2563.00,0.0030
2562.00,0.0030
2561.00,0.0029
2560.00,0.0028
2559.00,0.0028
2558.00,0.0028
2557.00,0.0028
2556.00,0.0028
2555.00,0.0028
2554.00,0.0029
2553.00,0.0029
2552.00,0.0028
2551.00,0.0028
2550.00,0.0028
2549.00,0.0027
2548.00,0.0027
2547.00,0.0026
2546.00,0.0025
2545.00,0.0024
2544.00,0.0024
2543.00,0.0024
2542.00,0.0024
2541.00,0.0023
2540.00,0.0023
2539.00,0.0023
2538.00,0.0023
2537.00,0.0023
2536.00,0.0022
2535.00,0.0022
2534.00,0.0023
2533.00,0.0023
2532.00,0.0023
2531.00,0.0023
2530.00,0.0023
2529.00,0.0023
2528.00,0.0023
2527.00,0.0023
2526.00,0.0022
2525.00,0.0022
2524.00,0.0021
2523.00,0.0021
2522.00,0.0020
2521.00,0.0020
2520.00,0.0019
2519.00,0.0019
2518.00,0.0018
2517.00,0.0018
2516.00,0.0017
2515.00,0.0017
2514.00,0.0017
2513.00,0.0018
2512.00,0.0018
2511.00,0.0018
2510.00,0.0018
2509.00,0.0017
2508.00,0.0017
2507.00,0.0017
2506.00,0.0017
2505.00,0.0017
2504.00,0.0017
2503.00,0.0017
2502.00,0.0017
2501.00,0.0017
2500.00,0.0017
2499.00,0.0017
2498.00,0.0017
2497.00,0.0017
2496.00,0.0016
2495.00,0.0015
2494.00,0.0015
2493.00,0.0015
2492.00,0.0016
2491.00,0.0016
2490.00,0.0016
2489.00,0.0017
2488.00,0.0017
2487.00,0.0017
2486.00,0.0017
2485.00,0.0017
2484.00,0.0017
2483.00,0.0017
2482.00,0.0017
2481.00,0.0017
2480.00,0.0017
2479.00,0.0017
2478.00,0.0016
2477.00,0.0016
2476.00,0.0015
2475.00,0.0015
2474.00,0.0015
2473.00,0.0015
2472.00,0.0015
2471.00,0.0015
2470.00,0.0015
2469.00,0.0015
2468.00,0.0015
2467.00,0.0015
2466.00,0.0015
2465.00,0.0016
2464.00,0.0016
2463.00,0.0016
2462.00,0.0017
2461.00,0.0017
2460.00,0.0017
2459.00,0.0018
2458.00,0.0018
2457.00,0.0018
2456.00,0.0018
2455.00,0.0017
2454.00,0.0017
2453.00,0.0017
2452.00,0.0017
2451.00,0.0017
2450.00,0.0017
2449.00,0.0017
2448.00,0.0017
2447.00,0.0017
2446.00,0.0016
2445.00,0.0016
2444.00,0.0016
2443.00,0.0015
2442.00,0.0015
2441.00,0.0015
2440.00,0.0015
2439.00,0.0016
2438.00,0.0016
2437.00,0.0017
2436.00,0.0017
2435.00,0.0017
2434.00,0.0017
2433.00,0.0017
2432.00,0.0017
2431.00,0.0017
2430.00,0.0016
2429.00,0.0016
2428.00,0.0016
2427.00,0.0016
2426.00,0.0016
2425.00,0.0016
2424.00,0.0016
2423.00,0.0016
2422.00,0.0015
2421.00,0.0015
2420.00,0.0015
2419.00,0.0014
2418.00,0.0014
2417.00,0.0014
2416.00,0.0014
2415.00,0.0014
2414.00,0.0014
2413.00,0.0014
2412.00,0.0014
2411.00,0.0014
2410.00,0.0015
2409.00,0.0015
2408.00,0.0015
2407.00,0.0014
2406.00,0.0013
2405.00,0.0013
2404.00,0.0013
2403.00,0.0013
2402.00,0.0013
2401.00,0.0013
2400.00,0.0014
2399.00,0.0014
2398.00,0.0014
2397.00,0.0013
2396.00,0.0013
2395.00,0.0012
2394.00,0.0012
2393.00,0.0013
2392.00,0.0013
2391.00,0.0012
2390.00,0.0012
2389.00,0.0012
2388.00,0.0012
2387.00,0.0012
2386.00,0.0012
2385.00,0.0012
2384.00,0.0012
2383.00,0.0011
2382.00,0.0011
2381.00,0.0010
2380.00,0.0009
2379.00,0.0009
2378.00,0.0009
2377.00,0.0009
2376.00,0.0010
2375.00,0.0010
2374.00,0.0010
2373.00,0.0011
2372.00,0.0011
2371.00,0.0010
2370.00,0.0010
2369.00,0.0009
2368.00,0.0008
2367.00,0.0009
2366.00,0.0010
2365.00,0.0011
2364.00,0.0011
2363.00,0.0011
2362.00,0.0010
2361.00,0.0011
2360.00,0.0011
2359.00,0.0011
2358.00,0.0012
2357.00,0.0012
2356.00,0.0012
2355.00,0.0012
2354.00,0.0012
2353.00,0.0012
2352.00,0.0012
2351.00,0.0012
2350.00,0.0012
2349.00,0.0012
2348.00,0.0013
2347.00,0.0013
2346.00,0.0013
2345.00,0.0014
2344.00,0.0014
2343.00,0.0014
2342.00,0.0014
2341.00,0.0014
2340.00,0.0014
2339.00,0.0015
2338.00,0.0015
2337.00,0.0016
2336.00,0.0016
2335.00,0.0015
2334.00,0.0014
2333.00,0.0013
2332.00,0.0012
2331.00,0.0012
2330.00,0.0013
2329.00,0.0015
2328.00,0.0017
2327.00,0.0020
2326.00,0.0024
2325.00,0.0026
2324.00,0.0027
2323.00,0.0027
2322.00,0.0025
2321.00,0.0023
2320.00,0.0021
2319.00,0.0020
2318.00,0.0019
2317.00,0.0018
2316.00,0.0018
2315.00,0.0018
2314.00,0.0018
2313.00,0.0018
2312.00,0.0017
2311.00,0.0017
2310.00,0.0016
2309.00,0.0016
2308.00,0.0016
2307.00,0.0017
2306.00,0.0017
2305.00,0.0017
2304.00,0.0017
2303.00,0.0017
2302.00,0.0017
2301.00,0.0018
2300.00,0.0018
2299.00,0.0018
2298.00,0.0018
2297.00,0.0019
2296.00,0.0019
2295.00,0.0019
2294.00,0.0020
2293.00,0.0021
2292.00,0.0021
2291.00,0.0021
2290.00,0.0022
2289.00,0.0022
2288.00,0.0023
2287.00,0.0024
2286.00,0.0024
2285.00,0.0024
2284.00,0.0024
2283.00,0.0023
2282.00,0.0021
2281.00,0.0020
2280.00,0.0020
2279.00,0.0020
2278.00,0.0020
2277.00,0.0020
2276.00,0.0020
2275.00,0.0019
2274.00,0.0019
2273.00,0.0018
2272.00,0.0018
2271.00,0.0018
2270.00,0.0018
2269.00,0.0018
2268.00,0.0019
2267.00,0.0019
2266.00,0.0019
2265.00,0.0018
2264.00,0.0017
2263.00,0.0017
2262.00,0.0016
2261.00,0.0017
2260.00,0.0018
2259.00,0.0019
2258.00,0.0020
2257.00,0.0020
2256.00,0.0019
2255.00,0.0018
2254.00,0.0017
2253.00,0.0016
2252.00,0.0016
2251.00,0.0014
2250.00,0.0013
2249.00,0.0013
2248.00,0.0013
2247.00,0.0013
2246.00,0.0013
2245.00,0.0014
2244.00,0.0015
2243.00,0.0014
2242.00,0.0013
2241.00,0.0013
2240.00,0.0013
2239.00,0.0012
2238.00,0.0012
2237.00,0.0012
2236.00,0.0013
2235.00,0.0014
2234.00,0.0014
2233.00,0.0014
2232.00,0.0015
2231.00,0.0016
2230.00,0.0017
2229.00,0.0018
2228.00,0.0018
2227.00,0.0018
2226.00,0.0016
2225.00,0.0015
2224.00,0.0014
2223.00,0.0012
2222.00,0.0011
2221.00,0.0010
2220.00,0.0009
2219.00,0.0008
2218.00,0.0008
2217.00,0.0010
2216.00,0.0012
2215.00,0.0014
2214.00,0.0015
2213.00,0.0014
2212.00,0.0013
2211.00,0.0012
2210.00,0.0012
2209.00,0.0014
2208.00,0.0016
2207.00,0.0016
2206.00,0.0016
2205.00,0.0015
2204.00,0.0015
2203.00,0.0014
2202.00,0.0015
2201.00,0.0015
2200.00,0.0015
2199.00,0.0015
2198.00,0.0015
2197.00,0.0015
2196.00,0.0015
2195.00,0.0016
2194.00,0.0016
2193.00,0.0016
2192.00,0.0016
2191.00,0.0016
2190.00,0.0017
2189.00,0.0019
2188.00,0.0022
2187.00,0.0024
2186.00,0.0024
2185.00,0.0023
2184.00,0.0021
2183.00,0.0017
2182.00,0.0015
2181.00,0.0013
2180.00,0.0014
2179.00,0.0014
2178.00,0.0014
2177.00,0.0012
2176.00,0.0012
2175.00,0.0011
2174.00,0.0012
2173.00,0.0013
2172.00,0.0016
2171.00,0.0020
2170.00,0.0024
2169.00,0.0026
2168.00,0.0026
2167.00,0.0024
2166.00,0.0022
2165.00,0.0022
2164.00,0.0023
2163.00,0.0025
2162.00,0.0025
2161.00,0.0020
2160.00,0.0008
2159.00,-0.0007
2158.00,-0.0019
2157.00,-0.0024
2156.00,-0.0022
2155.00,-0.0018
2154.00,-0.0013
2153.00,-0.0008
2152.00,-0.0004
2151.00,-0.0003
2150.00,-0.0004
2149.00,-0.0005
2148.00,-0.0006
2147.00,-0.0006
2146.00,-0.0007
2145.00,-0.0007
2144.00,-0.0006
2143.00,-0.0005
2142.00,-0.0003
2141.00,-0.0001
2140.00,-0.0000
2139.00,-0.0002
2138.00,-0.0004
2137.00,-0.0005
2136.00,-0.0006
2135.00,-0.0008
2134.00,-0.0010
2133.00,-0.0011
2132.00,-0.0011
2131.00,-0.0009
2130.00,-0.0007
2129.00,-0.0005
2128.00,-0.0003
2127.00,-0.0001
2126.00,0.0001
2125.00,0.0002
2124.00,0.0002
2123.00,0.0002
2122.00,0.0003
2121.00,0.0004
2120.00,0.0006
2119.00,0.0007
2118.00,0.0007
2117.00,0.0008
2116.00,0.0009
2115.00,0.0010
2114.00,0.0010
2113.00,0.0010
2112.00,0.0009
2111.00,0.0009
2110.00,0.0008
2109.00,0.0009
2108.00,0.0010
2107.00,0.0011
2106.00,0.0011
2105.00,0.0012
2104.00,0.0012
2103.00,0.0012
2102.00,0.0012
2101.00,0.0011
2100.00,0.0010
2099.00,0.0009
2098.00,0.0007
2097.00,0.0005
2096.00,0.0002
2095.00,-0.0000
2094.00,-0.0001
2093.00,-0.0001
2092.00,0.0001
2091.00,0.0003
2090.00,0.0004
2089.00,0.0006
2088.00,0.0006
2087.00,0.0006
2086.00,0.0006
2085.00,0.0007
2084.00,0.0008
2083.00,0.0009
2082.00,0.0009
2081.00,0.0009
2080.00,0.0009
2079.00,0.0009
2078.00,0.0009
2077.00,0.0009
2076.00,0.0009
2075.00,0.0009
2074.00,0.0009
2073.00,0.0008
2072.00,0.0007
2071.00,0.0007
2070.00,0.0008
2069.00,0.0008
2068.00,0.0008
2067.00,0.0008
2066.00,0.0008
2065.00,0.0008
2064.00,0.0008
2063.00,0.0007
2062.00,0.0006
2061.00,0.0005
2060.00,0.0004
2059.00,0.0005
2058.00,0.0005
2057.00,0.0006
2056.00,0.0006
2055.00,0.0006
2054.00,0.0007
2053.00,0.0011
2052.00,0.0016
2051.00,0.0019
2050.00,0.0020
2049.00,0.0017
2048.00,0.0012
2047.00,0.0008
2046.00,0.0006
2045.00,0.0005
2044.00,0.0006
2043.00,0.0007
2042.00,0.0008
2041.00,0.0007
2040.00,0.0005
2039.00,0.0002
2038.00,0.0001
2037.00,0.0002
2036.00,0.0003
2035.00,0.0003
2034.00,0.0001
2033.00,-0.0002
2032.00,-0.0005
2031.00,-0.0007
2030.00,-0.0008
2029.00,-0.0007
2028.00,-0.0004
2027.00,-0.0002
2026.00,-0.0002
2025.00,-0.0004
2024.00,-0.0007
2023.00,-0.0008
2022.00,-0.0008
2021.00,-0.0007
2020.00,-0.0006
2019.00,-0.0006
2018.00,-0.0006
2017.00,-0.0005
2016.00,-0.0004
2015.00,-0.0004
2014.00,-0.0004
2013.00,-0.0005
2012.00,-0.0006
2011.00,-0.0007
2010.00,-0.0008
2009.00,-0.0008
2008.00,-0.0010
2007.00,-0.0012
2006.00,-0.0014
2005.00,-0.0013
2004.00,-0.0010
2003.00,-0.0007
2002.00,-0.0005
2001.00,-0.0004
2000.00,-0.0004
1999.00,-0.0005
1998.00,-0.0007
1997.00,-0.0007
1996.00,-0.0006
1995.00,-0.0005
1994.00,-0.0004
1993.00,-0.0002
1992.00,-0.0000
1991.00,0.0001
1990.00,0.0002
1989.00,0.0001
1988.00,0.0000
1987.00,-0.0001
1986.00,-0.0001
1985.00,0.0001
1984.00,0.0004
1983.00,0.0007
1982.00,0.0009
1981.00,0.0009
1980.00,0.0008
1979.00,0.0006
1978.00,0.0003
1977.00,0.0002
1976.00,0.0000
1975.00,-0.0003
1974.00,-0.0007
1973.00,-0.0010
1972.00,-0.0009
1971.00,-0.0007
1970.00,-0.0005
1969.00,-0.0003
1968.00,-0.0002
1967.00,-0.0002
1966.00,-0.0002
1965.00,-0.0004
1964.00,-0.0005
1963.00,-0.0008
1962.00,-0.0010
1961.00,-0.0012
1960.00,-0.0012
1959.00,-0.0011
1958.00,-0.0011
1957.00,-0.0010
1956.00,-0.0010
1955.00,-0.0010
1954.00,-0.0010
1953.00,-0.0009
1952.00,-0.0010
1951.00,-0.0011
1950.00,-0.0012
1949.00,-0.0013
1948.00,-0.0013
1947.00,-0.0011
1946.00,-0.0009
1945.00,-0.0007
1944.00,-0.0006
1943.00,-0.0008
1942.00,-0.0009
1941.00,-0.0009
1940.00,-0.0009
1939.00,-0.0009
1938.00,-0.0008
1937.00,-0.0006
1936.00,-0.0004
1935.00,-0.0002
1934.00,-0.0001
1933.00,-0.0000
1932.00,-0.0001
1931.00,-0.0003
1930.00,-0.0004
1929.00,-0.0005
1928.00,-0.0004
1927.00,-0.0003
1926.00,-0.0002
1925.00,0.0000
1924.00,0.0002
1923.00,0.0004
1922.00,0.0004
1921.00,0.0005
1920.00,0.0005
1919.00,0.0005
1918.00,0.0005
1917.00,0.0004
1916.00,0.0003
1915.00,0.0003
1914.00,0.0002
1913.00,0.0002
1912.00,0.0002
1911.00,0.0002
1910.00,0.0002
1909.00,0.0002
1908.00,0.0003
1907.00,0.0004
1906.00,0.0005
1905.00,0.0005
1904.00,0.0005
1903.00,0.0004
1902.00,0.0003
1901.00,0.0002
1900.00,0.0003
1899.00,0.0003
1898.00,0.0004
1897.00,0.0004
1896.00,0.0004
1895.00,0.0004
1894.00,0.0003
1893.00,0.0002
1892.00,0.0002
1891.00,0.0003
1890.00,0.0004
1889.00,0.0005
1888.00,0.0005
1887.00,0.0004
1886.00,0.0003
1885.00,0.0002
1884.00,0.0002
1883.00,0.0003
1882.00,0.0003
1881.00,0.0004
1880.00,0.0004
1879.00,0.0003
1878.00,0.0003
1877.00,0.0003
1876.00,0.0004
1875.00,0.0004
1874.00,0.0005
1873.00,0.0006
1872.00,0.0007
1871.00,0.0008
1870.00,0.0008
1869.00,0.0009
1868.00,0.0008
1867.00,0.0007
1866.00,0.0006
1865.00,0.0006
1864.00,0.0005
1863.00,0.0005
1862.00,0.0005
1861.00,0.0005
1860.00,0.0005
1859.00,0.0005
1858.00,0.0006
1857.00,0.0006
1856.00,0.0007
1855.00,0.0007
1854.00,0.0007
1853.00,0.0007
1852.00,0.0007
1851.00,0.0007
1850.00,0.0007
1849.00,0.0008
1848.00,0.0008
1847.00,0.0008
1846.00,0.0008
1845.00,0.0007
1844.00,0.0007
1843.00,0.0007
1842.00,0.0007
1841.00,0.0007
1840.00,0.0008
1839.00,0.0008
1838.00,0.0008
1837.00,0.0008
1836.00,0.0008
1835.00,0.0008
1834.00,0.0009
1833.00,0.0009
1832.00,0.0009
1831.00,0.0009
1830.00,0.0009
1829.00,0.0009
1828.00,0.0010
1827.00,0.0011
1826.00,0.0011
1825.00,0.0011
1824.00,0.0010
1823.00,0.0010
1822.00,0.0009
1821.00,0.0009
1820.00,0.0009
1819.00,0.0008
1818.00,0.0007
1817.00,0.0006
1816.00,0.0006
1815.00,0.0007
1814.00,0.0008
1813.00,0.0009
1812.00,0.0010
1811.00,0.0010
1810.00,0.0010
1809.00,0.0010
1808.00,0.0010
1807.00,0.0011
1806.00,0.0011
1805.00,0.0012
1804.00,0.0012
1803.00,0.0013
1802.00,0.0013
1801.00,0.0014
1800.00,0.0015
1799.00,0.0015
1798.00,0.0015
1797.00,0.0015
1796.00,0.0015
1795.00,0.0015
1794.00,0.0016
1793.00,0.0017
1792.00,0.0018
1791.00,0.0018
1790.00,0.0017
1789.00,0.0017
1788.00,0.0017
1787.00,0.0017
1786.00,0.0017
1785.00,0.0017
1784.00,0.0017
1783.00,0.0018
1782.00,0.0019
1781.00,0.0019
1780.00,0.0020
1779.00,0.0019
1778.00,0.0019
1777.00,0.0018
1776.00,0.0018
1775.00,0.0018
1774.00,0.0018
1773.00,0.0019
1772.00,0.0020
1771.00,0.0021
1770.00,0.0021
1769.00,0.0022
1768.00,0.0022
1767.00,0.0022
1766.00,0.0022
1765.00,0.0023
1764.00,0.0023
1763.00,0.0024
1762.00,0.0025
1761.00,0.0026
1760.00,0.0027
1759.00,0.0027
1758.00,0.0028
1757.00,0.0028
1756.00,0.0028
1755.00,0.0029
1754.00,0.0029
1753.00,0.0031
1752.00,0.0032
1751.00,0.0034
1750.00,0.0035
1749.00,0.0037
1748.00,0.0038
1747.00,0.0039
1746.00,0.0040
1745.00,0.0042
1744.00,0.0044
1743.00,0.0046
1742.00,0.0048
1741.00,0.0049
1740.00,0.0051
1739.00,0.0052
1738.00,0.0053
1737.00,0.0053
1736.00,0.0054
1735.00,0.0054
1734.00,0.0053
1733.00,0.0054
1732.00,0.0055
1731.00,0.0055
1730.00,0.0055
1729.00,0.0054
1728.00,0.0054
1727.00,0.0054
1726.00,0.0053
1725.00,0.0054
1724.00,0.0054
1723.00,0.0054
1722.00,0.0054
1721.00,0.0055
1720.00,0.0056
1719.00,0.0057
1718.00,0.0056
1717.00,0.0055
1716.00,0.0055
1715.00,0.0055
1714.00,0.0055
1713.00,0.0054
1712.00,0.0054
1711.00,0.0055
1710.00,0.0055
1709.00,0.0056
1708.00,0.0058
1707.00,0.0059
1706.00,0.0059
1705.00,0.0061
1704.00,0.0063
1703.00,0.0064
1702.00,0.0066
1701.00,0.0068
1700.00,0.0071
1699.00,0.0072
1698.00,0.0073
1697.00,0.0074
1696.00,0.0076
1695.00,0.0080
1694.00,0.0083
1693.00,0.0086
1692.00,0.0089
1691.00,0.0092
1690.00,0.0096
1689.00,0.0100
1688.00,0.0105
1687.00,0.0108
1686.00,0.0113
1685.00,0.0120
1684.00,0.0128
1683.00,0.0134
1682.00,0.0137
1681.00,0.0140
1680.00,0.0144
1679.00,0.0149
1678.00,0.0153
1677.00,0.0158
1676.00,0.0164
1675.00,0.0169
1674.00,0.0173
1673.00,0.0177
1672.00,0.0180
1671.00,0.0184
1670.00,0.0188
1669.00,0.0193
1668.00,0.0196
1667.00,0.0198
1666.00,0.0200
1665.00,0.0203
1664.00,0.0207
1663.00,0.0210
1662.00,0.0214
1661.00,0.0216
1660.00,0.0219
1659.00,0.0223
1658.00,0.0228
1657.00,0.0232
1656.00,0.0237
1655.00,0.0241
1654.00,0.0247
1653.00,0.0255
1652.00,0.0260
1651.00,0.0264
1650.00,0.0267
1649.00,0.0271
1648.00,0.0277
1647.00,0.0283
1646.00,0.0289
1645.00,0.0292
1644.00,0.0294
1643.00,0.0294
1642.00,0.0295
1641.00,0.0295
1640.00,0.0296
1639.00,0.0296
1638.00,0.0295
1637.00,0.0294
1636.00,0.0291
1635.00,0.0288
1634.00,0.0284
1633.00,0.0280
1632.00,0.0277
1631.00,0.0273
1630.00,0.0269
1629.00,0.0265
1628.00,0.0262
1627.00,0.0259
1626.00,0.0256
1625.00,0.0253
1624.00,0.0249
1623.00,0.0245
1622.00,0.0241
1621.00,0.0238
1620.00,0.0235
1619.00,0.0233
1618.00,0.0231
1617.00,0.0228
1616.00,0.0227
1615.00,0.0226
1614.00,0.0226
1613.00,0.0226
1612.00,0.0227
1611.00,0.0227
1610.00,0.0228
1609.00,0.0229
1608.00,0.0230
1607.00,0.0230
1606.00,0.0230
1605.00,0.0230
1604.00,0.0230
1603.00,0.0229
1602.00,0.0228
1601.00,0.0226
1600.00,0.0224
1599.00,0.0222
1598.00,0.0220
1597.00,0.0217
1596.00,0.0215
1595.00,0.0213
1594.00,0.0211
1593.00,0.0210
1592.00,0.0209
1591.00,0.0209
1590.00,0.0209
1589.00,0.0211
1588.00,0.0213
1587.00,0.0217
1586.00,0.0221
1585.00,0.0226
1584.00,0.0232
1583.00,0.0237
1582.00,0.0241
1581.00,0.0244
1580.00,0.0246
1579.00,0.0247
1578.00,0.0246
1577.00,0.0243
1576.00,0.0240
1575.00,0.0236
1574.00,0.0234
1573.00,0.0232
1572.00,0.0230
1571.00,0.0228
1570.00,0.0225
1569.00,0.0223
1568.00,0.0221
1567.00,0.0220
1566.00,0.0220
1565.00,0.0221
1564.00,0.0221
1563.00,0.0222
1562.00,0.0222
1561.00,0.0225
1560.00,0.0228
1559.00,0.0229
1558.00,0.0230
1557.00,0.0230
1556.00,0.0231
1555.00,0.0233
1554.00,0.0237
1553.00,0.0241
1552.00,0.0247
1551.00,0.0253
1550.00,0.0260
1549.00,0.0267
1548.00,0.0275
1547.00,0.0283
1546.00,0.0293
1545.00,0.0305
1544.00,0.0317
1543.00,0.0327
1542.00,0.0337
1541.00,0.0346
1540.00,0.0353
1539.00,0.0355
1538.00,0.0353
1537.00,0.0350
1536.00,0.0346
1535.00,0.0338
1534.00,0.0326
1533.00,0.0312
1532.00,0.0299
1531.00,0.0288
1530.00,0.0277
1529.00,0.0267
1528.00,0.0255
1527.00,0.0243
1526.00,0.0232
1525.00,0.0223
1524.00,0.0216
1523.00,0.0208
1522.00,0.0199
1521.00,0.0191
1520.00,0.0186
1519.00,0.0182
1518.00,0.0177
1517.00,0.0172
1516.00,0.0168
1515.00,0.0164
1514.00,0.0161
1513.00,0.0159
1512.00,0.0159
1511.00,0.0159
1510.00,0.0159
1509.00,0.0159
1508.00,0.0158
1507.00,0.0156
1506.00,0.0155
1505.00,0.0155
1504.00,0.0157
1503.00,0.0160
1502.00,0.0165
1501.00,0.0173
1500.00,0.0185
1499.00,0.0199
1498.00,0.0216
1497.00,0.0236
1496.00,0.0254
1495.00,0.0266
1494.00,0.0273
1493.00,0.0276
1492.00,0.0278
1491.00,0.0276
1490.00,0.0273
1489.00,0.0271
1488.00,0.0271
1487.00,0.0271
1486.00,0.0273
1485.00,0.0277
1484.00,0.0282
1483.00,0.0288
1482.00,0.0297
1481.00,0.0308
1480.00,0.0321
1479.00,0.0334
1478.00,0.0349
1477.00,0.0369
1476.00,0.0394
1475.00,0.0422
1474.00,0.0459
1473.00,0.0513
1472.00,0.0576
1471.00,0.0636
1470.00,0.0693
1469.00,0.0751
1468.00,0.0814
1467.00,0.0882
1466.00,0.0958
1465.00,0.1038
1464.00,0.1108
1463.00,0.1156
1462.00,0.1188
1461.00,0.1210
1460.00,0.1227
1459.00,0.1239
1458.00,0.1249
1457.00,0.1257
1456.00,0.1258
1455.00,0.1250
1454.00,0.1237
1453.00,0.1219
1452.00,0.1192
1451.00,0.1155
1450.00,0.1107
1449.00,0.1043
1448.00,0.0963
1447.00,0.0880
1446.00,0.0805
1445.00,0.0740
1444.00,0.0685
1443.00,0.0639
1442.00,0.0604
1441.00,0.0580
1440.00,0.0566
1439.00,0.0560
1438.00,0.0560
1437.00,0.0558
1436.00,0.0546
1435.00,0.0522
1434.00,0.0488
1433.00,0.0449
1432.00,0.0408
1431.00,0.0372
1430.00,0.0343
1429.00,0.0321
1428.00,0.0306
1427.00,0.0298
1426.00,0.0294
1425.00,0.0291
1424.00,0.0289
1423.00,0.0290
1422.00,0.0291
1421.00,0.0292
1420.00,0.0292
1419.00,0.0291
1418.00,0.0289
1417.00,0.0284
1416.00,0.0278
1415.00,0.0272
1414.00,0.0266
1413.00,0.0258
1412.00,0.0251
1411.00,0.0245
1410.00,0.0240
1409.00,0.0235
1408.00,0.0230
1407.00,0.0227
1406.00,0.0225
1405.00,0.0222
1404.00,0.0219
1403.00,0.0218
1402.00,0.0218
1401.00,0.0218
1400.00,0.0218
1399.00,0.0219
1398.00,0.0220
1397.00,0.0220
1396.00,0.0220
1395.00,0.0222
1394.00,0.0225
1393.00,0.0227
1392.00,0.0230
1391.00,0.0236
1390.00,0.0246
1389.00,0.0258
1388.00,0.0277
1387.00,0.0306
1386.00,0.0346
1385.00,0.0398
1384.00,0.0469
1383.00,0.0571
1382.00,0.0707
1381.00,0.0883
1380.00,0.1099
1379.00,0.1338
1378.00,0.1560
1377.00,0.1712
1376.00,0.1749
1375.00,0.1650
1374.00,0.1444
1373.00,0.1205
1372.00,0.0991
1371.00,0.0818
1370.00,0.0680
1369.00,0.0575
1368.00,0.0502
1367.00,0.0456
1366.00,0.0430
1365.00,0.0419
1364.00,0.0421
1363.00,0.0432
1362.00,0.0449
1361.00,0.0467
1360.00,0.0481
1359.00,0.0485
1358.00,0.0477
1357.00,0.0457
1356.00,0.0428
1355.00,0.0394
1354.00,0.0362
1353.00,0.0333
1352.00,0.0310
1351.00,0.0291
1350.00,0.0275
1349.00,0.0263
1348.00,0.0252
1347.00,0.0244
1346.00,0.0237
1345.00,0.0230
1344.00,0.0224
1343.00,0.0218
1342.00,0.0212
1341.00,0.0207
1340.00,0.0201
1339.00,0.0197
1338.00,0.0193
1337.00,0.0191
1336.00,0.0190
1335.00,0.0190
1334.00,0.0190
1333.00,0.0193
1332.00,0.0196
1331.00,0.0198
1330.00,0.0199
1329.00,0.0198
1328.00,0.0195
1327.00,0.0191
1326.00,0.0186
1325.00,0.0181
1324.00,0.0176
1323.00,0.0171
1322.00,0.0168
1321.00,0.0166
1320.00,0.0164
1319.00,0.0163
1318.00,0.0162
1317.00,0.0160
1316.00,0.0158
1315.00,0.0157
1314.00,0.0157
1313.00,0.0157
1312.00,0.0158
1311.00,0.0160
1310.00,0.0164
1309.00,0.0170
1308.00,0.0179
1307.00,0.0191
1306.00,0.0202
1305.00,0.0211
1304.00,0.0215
1303.00,0.0214
1302.00,0.0210
1301.00,0.0205
1300.00,0.0202
1299.00,0.0200
1298.00,0.0199
1297.00,0.0199
1296.00,0.0198
1295.00,0.0197
1294.00,0.0195
1293.00,0.0192
1292.00,0.0188
1291.00,0.0184
1290.00,0.0180
1289.00,0.0176
1288.00,0.0172
1287.00,0.0168
1286.00,0.0165
1285.00,0.0162
1284.00,0.0159
1283.00,0.0157
1282.00,0.0155
1281.00,0.0153
1280.00,0.0151
1279.00,0.0149
1278.00,0.0148
1277.00,0.0146
1276.00,0.0145
1275.00,0.0144
1274.00,0.0144
1273.00,0.0145
1272.00,0.0145
1271.00,0.0146
1270.00,0.0148
1269.00,0.0150
1268.00,0.0152
1267.00,0.0155
1266.00,0.0159
1265.00,0.0163
1264.00,0.0167
1263.00,0.0172
1262.00,0.0177
1261.00,0.0182
1260.00,0.0188
1259.00,0.0196
1258.00,0.0203
1257.00,0.0209
1256.00,0.0212
1255.00,0.0210
1254.00,0.0204
1253.00,0.0196
1252.00,0.0188
1251.00,0.0180
1250.00,0.0174
1249.00,0.0169
1248.00,0.0166
1247.00,0.0163
1246.00,0.0161
1245.00,0.0159
1244.00,0.0157
1243.00,0.0156
1242.00,0.0156
1241.00,0.0155
1240.00,0.0154
1239.00,0.0153
1238.00,0.0151
1237.00,0.0149
1236.00,0.0147
1235.00,0.0146
1234.00,0.0146
1233.00,0.0146
1232.00,0.0146
1231.00,0.0146
1230.00,0.0147
1229.00,0.0148
1228.00,0.0149
1227.00,0.0151
1226.00,0.0154
1225.00,0.0157
1224.00,0.0161
1223.00,0.0166
1222.00,0.0171
1221.00,0.0174
1220.00,0.0176
1219.00,0.0176
1218.00,0.0175
1217.00,0.0172
1216.00,0.0169
1215.00,0.0165
1214.00,0.0160
1213.00,0.0156
1212.00,0.0153
1211.00,0.0151
1210.00,0.0148
1209.00,0.0147
1208.00,0.0145
1207.00,0.0144
1206.00,0.0143
1205.00,0.0142
1204.00,0.0142
1203.00,0.0142
1202.00,0.0143
1201.00,0.0144
1200.00,0.0144
1199.00,0.0144
1198.00,0.0144
1197.00,0.0144
1196.00,0.0145
1195.00,0.0145
1194.00,0.0145
1193.00,0.0144
1192.00,0.0144
1191.00,0.0144
1190.00,0.0143
1189.00,0.0143
1188.00,0.0143
1187.00,0.0144
1186.00,0.0144
1185.00,0.0145
1184.00,0.0146
1183.00,0.0147
1182.00,0.0149
1181.00,0.0152
1180.00,0.0156
1179.00,0.0161
1178.00,0.0168
1177.00,0.0176
1176.00,0.0188
1175.00,0.0203
1174.00,0.0224
1173.00,0.0249
1172.00,0.0280
1171.00,0.0312
1170.00,0.0343
1169.00,0.0367
1168.00,0.0381
1167.00,0.0384
1166.00,0.0377
1165.00,0.0364
1164.00,0.0348
1163.00,0.0334
1162.00,0.0322
1161.00,0.0313
1160.00,0.0306
1159.00,0.0301
1158.00,0.0298
1157.00,0.0296
1156.00,0.0295
1155.00,0.0296
1154.00,0.0296
1153.00,0.0296
1152.00,0.0294
1151.00,0.0290
1150.00,0.0284
1149.00,0.0277
1148.00,0.0270
1147.00,0.0262
1146.00,0.0256
1145.00,0.0249
1144.00,0.0243
1143.00,0.0237
1142.00,0.0232
1141.00,0.0227
1140.00,0.0222
1139.00,0.0217
1138.00,0.0213
1137.00,0.0210
1136.00,0.0208
1135.00,0.0207
1134.00,0.0206
1133.00,0.0206
1132.00,0.0206
1131.00,0.0207
1130.00,0.0209
1129.00,0.0212
1128.00,0.0215
1127.00,0.0218
1126.00,0.0222
1125.00,0.0225
1124.00,0.0228
1123.00,0.0232
1122.00,0.0235
1121.00,0.0238
1120.00,0.0241
1119.00,0.0244
1118.00,0.0245
1117.00,0.0246
1116.00,0.0247
1115.00,0.0248
1114.00,0.0249
1113.00,0.0249
1112.00,0.0250
1111.00,0.0251
1110.00,0.0253
1109.00,0.0255
1108.00,0.0257
1107.00,0.0261
1106.00,0.0266
1105.00,0.0271
1104.00,0.0276
1103.00,0.0278
1102.00,0.0277
1101.00,0.0274
1100.00,0.0269
1099.00,0.0264
1098.00,0.0260
1097.00,0.0258
1096.00,0.0257
1095.00,0.0256
1094.00,0.0254
1093.00,0.0251
1092.00,0.0247
1091.00,0.0241
1090.00,0.0236
1089.00,0.0231
1088.00,0.0227
1087.00,0.0224
1086.00,0.0222
1085.00,0.0219
1084.00,0.0217
1083.00,0.0215
1082.00,0.0213
1081.00,0.0211
1080.00,0.0208
1079.00,0.0206
1078.00,0.0203
1077.00,0.0201
1076.00,0.0199
1075.00,0.0196
1074.00,0.0193
1073.00,0.0191
1072.00,0.0189
1071.00,0.0187
1070.00,0.0185
1069.00,0.0183
1068.00,0.0181
1067.00,0.0180
1066.00,0.0179
1065.00,0.0178
1064.00,0.0177
1063.00,0.0176
1062.00,0.0175
1061.00,0.0174
1060.00,0.0173
1059.00,0.0172
1058.00,0.0171
1057.00,0.0170
1056.00,0.0169
1055.00,0.0169
1054.00,0.0170
1053.00,0.0171
1052.00,0.0172
1051.00,0.0173
1050.00,0.0175
1049.00,0.0177
1048.00,0.0180
1047.00,0.0184
1046.00,0.0187
1045.00,0.0190
1044.00,0.0190
1043.00,0.0188
1042.00,0.0186
1041.00,0.0185
1040.00,0.0184
1039.00,0.0184
1038.00,0.0185
1037.00,0.0185
1036.00,0.0185
1035.00,0.0185
1034.00,0.0185
1033.00,0.0183
1032.00,0.0180
1031.00,0.0178
1030.00,0.0175
1029.00,0.0172
1028.00,0.0170
1027.00,0.0168
1026.00,0.0166
1025.00,0.0164
1024.00,0.0163
1023.00,0.0163
1022.00,0.0163
1021.00,0.0163
1020.00,0.0163
1019.00,0.0163
1018.00,0.0164
1017.00,0.0166
1016.00,0.0168
1015.00,0.0170
1014.00,0.0172
1013.00,0.0175
1012.00,0.0177
1011.00,0.0178
1010.00,0.0178
1009.00,0.0179
1008.00,0.0182
1007.00,0.0186
1006.00,0.0194
1005.00,0.0205
1004.00,0.0221
1003.00,0.0243
1002.00,0.0274
1001.00,0.0312
1000.00,0.0351
999.00,0.0383
998.00,0.0399
997.00,0.0391
996.00,0.0363
995.00,0.0322
994.00,0.0280
993.00,0.0243
992.00,0.0215
991.00,0.0196
990.00,0.0182
989.00,0.0173
988.00,0.0166
987.00,0.0162
986.00,0.0160
985.00,0.0161
984.00,0.0164
983.00,0.0171
982.00,0.0182
981.00,0.0197
980.00,0.0218
979.00,0.0247
978.00,0.0284
977.00,0.0327
976.00,0.0374
975.00,0.0416
974.00,0.0446
973.00,0.0455
972.00,0.0437
971.00,0.0397
970.00,0.0345
969.00,0.0294
968.00,0.0251
967.00,0.0218
966.00,0.0195
965.00,0.0179
964.00,0.0167
963.00,0.0157
962.00,0.0150
961.00,0.0144
960.00,0.0140
959.00,0.0137
958.00,0.0135
957.00,0.0133
956.00,0.0131
955.00,0.0128
954.00,0.0126
953.00,0.0124
952.00,0.0122
951.00,0.0122
950.00,0.0121
949.00,0.0121
948.00,0.0120
947.00,0.0121
946.00,0.0122
945.00,0.0124
944.00,0.0127
943.00,0.0130
942.00,0.0133
941.00,0.0135
940.00,0.0134
939.00,0.0133
938.00,0.0130
937.00,0.0126
936.00,0.0122
935.00,0.0118
934.00,0.0115
933.00,0.0112
932.00,0.0110
931.00,0.0109
930.00,0.0108
929.00,0.0108
928.00,0.0107
927.00,0.0106
926.00,0.0105
925.00,0.0104
924.00,0.0104
923.00,0.0103
922.00,0.0103
921.00,0.0102
920.00,0.0102
919.00,0.0102
918.00,0.0102
917.00,0.0102
916.00,0.0103
915.00,0.0104
914.00,0.0106
913.00,0.0108
912.00,0.0110
911.00,0.0113
910.00,0.0115
909.00,0.0117
908.00,0.0120
907.00,0.0124
906.00,0.0131
905.00,0.0141
904.00,0.0153
903.00,0.0168
902.00,0.0185
901.00,0.0199
900.00,0.0209
899.00,0.0210
898.00,0.0204
897.00,0.0191
896.00,0.0176
895.00,0.0162
894.00,0.0151
893.00,0.0141
892.00,0.0134
891.00,0.0128
890.00,0.0124
889.00,0.0122
888.00,0.0121
887.00,0.0121
886.00,0.0121
885.00,0.0121
884.00,0.0120
883.00,0.0120
882.00,0.0122
881.00,0.0124
880.00,0.0128
879.00,0.0132
878.00,0.0137
877.00,0.0141
876.00,0.0143
875.00,0.0144
874.00,0.0142
873.00,0.0139
872.00,0.0135
871.00,0.0131
870.00,0.0128
869.00,0.0126
868.00,0.0125
867.00,0.0124
866.00,0.0123
865.00,0.0121
864.00,0.0120
863.00,0.0120
862.00,0.0121
861.00,0.0122
860.00,0.0124
859.00,0.0126
858.00,0.0128
857.00,0.0129
856.00,0.0130
855.00,0.0132
854.00,0.0133
853.00,0.0135
852.00,0.0138
851.00,0.0142
850.00,0.0148
849.00,0.0156
848.00,0.0167
847.00,0.0182
846.00,0.0205
845.00,0.0239
844.00,0.0287
843.00,0.0338
842.00,0.0375
841.00,0.0382
840.00,0.0356
839.00,0.0308
838.00,0.0260
837.00,0.0223
836.00,0.0199
835.00,0.0184
834.00,0.0175
833.00,0.0170
832.00,0.0167
831.00,0.0167
830.00,0.0166
829.00,0.0166
828.00,0.0165
827.00,0.0163
826.00,0.0161
825.00,0.0161
824.00,0.0160
823.00,0.0160
822.00,0.0158
821.00,0.0155
820.00,0.0152
819.00,0.0151
818.00,0.0153
817.00,0.0158
816.00,0.0166
815.00,0.0178
814.00,0.0192
813.00,0.0209
812.00,0.0226
811.00,0.0242
810.00,0.0252
809.00,0.0257
808.00,0.0254
807.00,0.0244
806.00,0.0230
805.00,0.0215
804.00,0.0199
803.00,0.0187
802.00,0.0177
801.00,0.0169
800.00,0.0163
799.00,0.0158
798.00,0.0153
797.00,0.0150
796.00,0.0148
795.00,0.0145
794.00,0.0143
793.00,0.0140
792.00,0.0138
791.00,0.0136
790.00,0.0133
789.00,0.0131
788.00,0.0128
787.00,0.0126
786.00,0.0124
785.00,0.0123
784.00,0.0121
783.00,0.0120
782.00,0.0120
781.00,0.0120
780.00,0.0121
779.00,0.0123
778.00,0.0123
777.00,0.0122
776.00,0.0119
775.00,0.0117
774.00,0.0116
773.00,0.0116
772.00,0.0117
771.00,0.0119
770.00,0.0120
769.00,0.0123
768.00,0.0124
767.00,0.0124
766.00,0.0123
765.00,0.0122
764.00,0.0121
763.00,0.0122
762.00,0.0123
761.00,0.0126
760.00,0.0128
759.00,0.0130
758.00,0.0131
757.00,0.0130
756.00,0.0130
755.00,0.0130
754.00,0.0131
753.00,0.0133
752.00,0.0137
751.00,0.0141
750.00,0.0144
749.00,0.0146
748.00,0.0148
747.00,0.0150
746.00,0.0153
745.00,0.0155
744.00,0.0157
743.00,0.0159
742.00,0.0162
741.00,0.0166
740.00,0.0171
739.00,0.0176
738.00,0.0181
737.00,0.0186
736.00,0.0192
735.00,0.0198
734.00,0.0206
733.00,0.0214
732.00,0.0222
731.00,0.0230
730.00,0.0237
729.00,0.0241
728.00,0.0242
727.00,0.0242
726.00,0.0242
725.00,0.0243
724.00,0.0245
723.00,0.0249
722.00,0.0253
721.00,0.0255
720.00,0.0252
719.00,0.0243
718.00,0.0230
717.00,0.0217
716.00,0.0205
715.00,0.0196
714.00,0.0188
713.00,0.0183
712.00,0.0180
711.00,0.0180
710.00,0.0180
709.00,0.0181
708.00,0.0182
707.00,0.0182
706.00,0.0181
705.00,0.0180
704.00,0.0178
703.00,0.0176
702.00,0.0173
701.00,0.0167
700.00,0.0158
699.00,0.0150
698.00,0.0143
697.00,0.0141
696.00,0.0140
695.00,0.0140
694.00,0.0140
693.00,0.0139
692.00,0.0139
691.00,0.0138
690.00,0.0138
689.00,0.0138
688.00,0.0138
687.00,0.0137
686.00,0.0136
685.00,0.0136
684.00,0.0137
683.00,0.0138
682.00,0.0139
681.00,0.0139
680.00,0.0138
679.00,0.0137
678.00,0.0136
677.00,0.0135
676.00,0.0136
675.00,0.0138
674.00,0.0142
673.00,0.0145
672.00,0.0147
671.00,0.0147
670.00,0.0147
669.00,0.0145
668.00,0.0143
667.00,0.0142
666.00,0.0142
665.00,0.0142
664.00,0.0141
663.00,0.0141
662.00,0.0140
661.00,0.0139
660.00,0.0138
659.00,0.0138
658.00,0.0138
657.00,0.0138
656.00,0.0138
655.00,0.0138
654.00,0.0139
653.00,0.0139
652.00,0.0138
651.00,0.0137
650.00,0.0136
649.00,0.0136
648.00,0.0137
647.00,0.0137
646.00,0.0138
645.00,0.0139
644.00,0.0141
643.00,0.0142
642.00,0.0143
641.00,0.0144
640.00,0.0144
639.00,0.0144
638.00,0.0144
637.00,0.0144
636.00,0.0144
635.00,0.0143
634.00,0.0141
633.00,0.0139
632.00,0.0139
631.00,0.0139
630.00,0.0141
629.00,0.0144
628.00,0.0146
627.00,0.0146
626.00,0.0147
625.00,0.0147
624.00,0.0147
623.00,0.0147
622.00,0.0147
621.00,0.0148
620.00,0.0150
619.00,0.0150
618.00,0.0149
617.00,0.0149
616.00,0.0149
615.00,0.0149
614.00,0.0149
613.00,0.0148
612.00,0.0148
611.00,0.0148
610.00,0.0148
609.00,0.0149
608.00,0.0149
607.00,0.0149
606.00,0.0149
605.00,0.0150
604.00,0.0149
603.00,0.0148
602.00,0.0145
601.00,0.0144
600.00,0.0145
599.00,0.0148
598.00,0.0151
597.00,0.0154
596.00,0.0155
595.00,0.0156
594.00,0.0156
593.00,0.0155
592.00,0.0152
591.00,0.0149
590.00,0.0147
589.00,0.0147
588.00,0.0149
587.00,0.0151
586.00,0.0153
585.00,0.0155
584.00,0.0157
583.00,0.0158
582.00,0.0159
581.00,0.0158
580.00,0.0157
579.00,0.0156
578.00,0.0155
577.00,0.0154
576.00,0.0151
575.00,0.0149
574.00,0.0146
573.00,0.0144
572.00,0.0145
571.00,0.0149
570.00,0.0153
569.00,0.0154
568.00,0.0153
567.00,0.0151
566.00,0.0149
565.00,0.0148
564.00,0.0148
563.00,0.0148
562.00,0.0149
561.00,0.0150
560.00,0.0151
559.00,0.0150
558.00,0.0147
557.00,0.0142
556.00,0.0136
555.00,0.0131
554.00,0.0133
553.00,0.0139
552.00,0.0146
551.00,0.0149
550.00,0.0148
549.00,0.0145
548.00,0.0144
547.00,0.0143
546.00,0.0141
545.00,0.0137
544.00,0.0134
543.00,0.0134
542.00,0.0136
541.00,0.0138
540.00,0.0140
539.00,0.0143
538.00,0.0147
537.00,0.0151
536.00,0.0153
535.00,0.0152
534.00,0.0152
533.00,0.0153
532.00,0.0156
531.00,0.0157
530.00,0.0156
529.00,0.0153
528.00,0.0150
527.00,0.0151
526.00,0.0153
525.00,0.0156
524.00,0.0156
523.00,0.0155
522.00,0.0151
521.00,0.0148
520.00,0.0146
519.00,0.0148
518.00,0.0152
517.00,0.0154
516.00,0.0156
515.00,0.0156
514.00,0.0154
513.00,0.0152
512.00,0.0150
511.00,0.0151
510.00,0.0152
509.00,0.0149
508.00,0.0142
507.00,0.0134
506.00,0.0133
505.00,0.0137
504.00,0.0142
503.00,0.0145
502.00,0.0148
501.00,0.0154
500.00,0.0159
499.00,0.0158
498.00,0.0149
497.00,0.0140
496.00,0.0134
495.00,0.0134
494.00,0.0136
493.00,0.0139
492.00,0.0143
491.00,0.0146
490.00,0.0146
489.00,0.0145
488.00,0.0144
487.00,0.0146
486.00,0.0146
485.00,0.0143
484.00,0.0137
483.00,0.0133
482.00,0.0135
481.00,0.0141
480.00,0.0148
479.00,0.0152
478.00,0.0154
477.00,0.0155
476.00,0.0156
475.00,0.0158
474.00,0.0161
473.00,0.0167
472.00,0.0171
471.00,0.0169
470.00,0.0161
469.00,0.0152
468.00,0.0150
467.00,0.0155
466.00,0.0162
465.00,0.0167
464.00,0.0168
463.00,0.0167
462.00,0.0169
461.00,0.0172
460.00,0.0176
459.00,0.0176
458.00,0.0171
457.00,0.0163
456.00,0.0159
455.00,0.0164
454.00,0.0173
453.00,0.0182
452.00,0.0189
451.00,0.0194
450.00,0.0197
