Created as New Dataset,Sample 150 By Administrator Date Friday, September 05 2025
cm-1,A
4000.00,0.0012
3999.00,0.0012
3998.00,0.0012
3997.00,0.0012
3996.00,0.0012
3995.00,0.0012
3994.00,0.0012
3993.00,0.0012
3992.00,0.0011
3991.00,0.0011
3990.00,0.0011
3989.00,0.0012
3988.00,0.0012
3987.00,0.0011
3986.00,0.0011
3985.00,0.0011
3984.00,0.0011
3983.00,0.0011
3982.00,0.0011
3981.00,0.0011
3980.00,0.0011
3979.00,0.0010
3978.00,0.0010
3977.00,0.0010
3976.00,0.0010
3975.00,0.0010
3974.00,0.0010
3973.00,0.0010
3972.00,0.0011
3971.00,0.0011
3970.00,0.0011
3969.00,0.0011
3968.00,0.0011
3967.00,0.0011
3966.00,0.0011
3965.00,0.0010
3964.00,0.0010
3963.00,0.0010
3962.00,0.0009
3961.00,0.0009
3960.00,0.0009
3959.00,0.0009
3958.00,0.0010
3957.00,0.0010
3956.00,0.0009
3955.00,0.0009
3954.00,0.0009
3953.00,0.0009
3952.00,0.0010
3951.00,0.0010
3950.00,0.0010
3949.00,0.0009
3948.00,0.0009
3947.00,0.0009
3946.00,0.0009
3945.00,0.0009
3944.00,0.0009
3943.00,0.0010
3942.00,0.0010
3941.00,0.0010
3940.00,0.0010
3939.00,0.0009
3938.00,0.0009
3937.00,0.0009
3936.00,0.0009
3935.00,0.0009
3934.00,0.0009
3933.00,0.0009
3932.00,0.0009
3931.00,0.0009
3930.00,0.0009
3929.00,0.0009
3928.00,0.0009
3927.00,0.0010
3926.00,0.0010
3925.00,0.0010
3924.00,0.0010
3923.00,0.0010
3922.00,0.0010
3921.00,0.0010
3920.00,0.0009
3919.00,0.0009
3918.00,0.0009
3917.00,0.0009
3916.00,0.0009
3915.00,0.0009
3914.00,0.0009
3913.00,0.0009
3912.00,0.0009
3911.00,0.0010
3910.00,0.0010
3909.00,0.0010
3908.00,0.0010
3907.00,0.0010
3906.00,0.0009
3905.00,0.0009
3904.00,0.0009
3903.00,0.0009
3902.00,0.0009
3901.00,0.0009
3900.00,0.0009
3899.00,0.0010
3898.00,0.0010
3897.00,0.0010
3896.00,0.0010
3895.00,0.0010
3894.00,0.0010
3893.00,0.0010
3892.00,0.0010
3891.00,0.0010
3890.00,0.0010
3889.00,0.0010
3888.00,0.0010
3887.00,0.0010
3886.00,0.0010
3885.00,0.0010
3884.00,0.0009
3883.00,0.0009
3882.00,0.0009
3881.00,0.0009
3880.00,0.0009
3879.00,0.0009
3878.00,0.0009
3877.00,0.0009
3876.00,0.0009
3875.00,0.0009
3874.00,0.0009
3873.00,0.0009
3872.00,0.0008
3871.00,0.0008
3870.00,0.0008
3869.00,0.0008
3868.00,0.0008
3867.00,0.0008
3866.00,0.0007
3865.00,0.0007
3864.00,0.0007
3863.00,0.0008
3862.00,0.0008
3861.00,0.0008
3860.00,0.0008
3859.00,0.0008
3858.00,0.0008
3857.00,0.0009
3856.00,0.0009
3855.00,0.0009
3854.00,0.0009
3853.00,0.0009
3852.00,0.0009
3851.00,0.0008
3850.00,0.0008
3849.00,0.0008
3848.00,0.0008
3847.00,0.0008
3846.00,0.0008
3845.00,0.0009
3844.00,0.0009
3843.00,0.0009
3842.00,0.0009
3841.00,0.0009
3840.00,0.0009
3839.00,0.0009
3838.00,0.0009
3837.00,0.0009
3836.00,0.0009
3835.00,0.0009
3834.00,0.0008
3833.00,0.0008
3832.00,0.0007
3831.00,0.0008
3830.00,0.0008
3829.00,0.0008
3828.00,0.0008
3827.00,0.0008
3826.00,0.0008
3825.00,0.0009
3824.00,0.0009
3823.00,0.0009
3822.00,0.0009
3821.00,0.0009
3820.00,0.0009
3819.00,0.0009
3818.00,0.0009
3817.00,0.0009
3816.00,0.0009
3815.00,0.0009
3814.00,0.0009
3813.00,0.0009
3812.00,0.0009
3811.00,0.0009
3810.00,0.0009
3809.00,0.0010
3808.00,0.0010
3807.00,0.0009
3806.00,0.0009
3805.00,0.0009
3804.00,0.0009
3803.00,0.0008
3802.00,0.0008
3801.00,0.0008
3800.00,0.0008
3799.00,0.0008
3798.00,0.0008
3797.00,0.0008
3796.00,0.0008
3795.00,0.0009
3794.00,0.0009
3793.00,0.0009
3792.00,0.0008
3791.00,0.0009
3790.00,0.0009
3789.00,0.0010
3788.00,0.0010
3787.00,0.0010
3786.00,0.0010
3785.00,0.0009
3784.00,0.0009
3783.00,0.0009
3782.00,0.0009
3781.00,0.0009
3780.00,0.0009
3779.00,0.0009
3778.00,0.0010
3777.00,0.0010
3776.00,0.0010
3775.00,0.0010
3774.00,0.0010
3773.00,0.0010
3772.00,0.0010
3771.00,0.0010
3770.00,0.0010
3769.00,0.0010
3768.00,0.0009
3767.00,0.0009
3766.00,0.0008
3765.00,0.0009
3764.00,0.0009
3763.00,0.0009
3762.00,0.0009
3761.00,0.0009
3760.00,0.0009
3759.00,0.0009
3758.00,0.0009
3757.00,0.0009
3756.00,0.0009
3755.00,0.0009
3754.00,0.0009
3753.00,0.0008
3752.00,0.0008
3751.00,0.0008
3750.00,0.0009
3749.00,0.0009
3748.00,0.0010
3747.00,0.0010
3746.00,0.0009
3745.00,0.0009
3744.00,0.0008
3743.00,0.0008
3742.00,0.0007
3741.00,0.0007
3740.00,0.0006
3739.00,0.0006
3738.00,0.0006
3737.00,0.0006
3736.00,0.0007
3735.00,0.0007
3734.00,0.0008
3733.00,0.0008
3732.00,0.0008
3731.00,0.0008
3730.00,0.0008
3729.00,0.0007
3728.00,0.0007
3727.00,0.0007
3726.00,0.0007
3725.00,0.0007
3724.00,0.0006
3723.00,0.0006
3722.00,0.0007
3721.00,0.0007
3720.00,0.0008
3719.00,0.0008
3718.00,0.0008
3717.00,0.0008
3716.00,0.0008
3715.00,0.0008
3714.00,0.0008
3713.00,0.0008
3712.00,0.0008
3711.00,0.0008
3710.00,0.0008
3709.00,0.0008
3708.00,0.0009
3707.00,0.0009
3706.00,0.0010
3705.00,0.0010
3704.00,0.0009
3703.00,0.0009
3702.00,0.0009
3701.00,0.0008
3700.00,0.0008
3699.00,0.0009
3698.00,0.0009
3697.00,0.0009
3696.00,0.0009
3695.00,0.0009
3694.00,0.0009
3693.00,0.0010
3692.00,0.0010
3691.00,0.0010
3690.00,0.0010
3689.00,0.0010
3688.00,0.0010
3687.00,0.0010
3686.00,0.0010
3685.00,0.0011
3684.00,0.0011
3683.00,0.0011
3682.00,0.0011
3681.00,0.0010
3680.00,0.0010
3679.00,0.0010
3678.00,0.0010
3677.00,0.0011
3676.00,0.0012
3675.00,0.0012
3674.00,0.0013
3673.00,0.0012
3672.00,0.0012
3671.00,0.0012
3670.00,0.0012
3669.00,0.0013
3668.00,0.0013
3667.00,0.0012
3666.00,0.0012
3665.00,0.0012
3664.00,0.0012
3663.00,0.0012
3662.00,0.0012
3661.00,0.0012
3660.00,0.0012
3659.00,0.0012
3658.00,0.0011
3657.00,0.0011
3656.00,0.0011
3655.00,0.0012
3654.00,0.0012
3653.00,0.0013
3652.00,0.0013
3651.00,0.0013
3650.00,0.0014
3649.00,0.0014
3648.00,0.0015
3647.00,0.0015
3646.00,0.0015
3645.00,0.0015
3644.00,0.0016
3643.00,0.0016
3642.00,0.0017
3641.00,0.0017
3640.00,0.0017
3639.00,0.0018
3638.00,0.0018
3637.00,0.0018
3636.00,0.0019
3635.00,0.0019
3634.00,0.0019
3633.00,0.0019
3632.00,0.0018
3631.00,0.0018
3630.00,0.0018
3629.00,0.0019
3628.00,0.0020
3627.00,0.0020
3626.00,0.0021
3625.00,0.0021
3624.00,0.0021
3623.00,0.0022
3622.00,0.0022
3621.00,0.0023
3620.00,0.0023
3619.00,0.0023
3618.00,0.0024
3617.00,0.0024
3616.00,0.0024
3615.00,0.0025
3614.00,0.0025
3613.00,0.0025
3612.00,0.0026
3611.00,0.0026
3610.00,0.0026
3609.00,0.0027
3608.00,0.0028
3607.00,0.0029
3606.00,0.0030
3605.00,0.0031
3604.00,0.0031
3603.00,0.0031
3602.00,0.0031
3601.00,0.0031
3600.00,0.0032
3599.00,0.0033
3598.00,0.0034
3597.00,0.0034
3596.00,0.0034
3595.00,0.0034
3594.00,0.0035
3593.00,0.0035
3592.00,0.0035
3591.00,0.0036
3590.00,0.0036
3589.00,0.0037
3588.00,0.0038
3587.00,0.0038
3586.00,0.0039
3585.00,0.0039
3584.00,0.0040
3583.00,0.0040
3582.00,0.0041
3581.00,0.0042
3580.00,0.0042
3579.00,0.0043
3578.00,0.0044
3577.00,0.0044
3576.00,0.0044
3575.00,0.0045
3574.00,0.0045
3573.00,0.0046
3572.00,0.0046
3571.00,0.0046
3570.00,0.0047
3569.00,0.0047
3568.00,0.0047
3567.00,0.0048
3566.00,0.0050
3565.00,0.0051
3564.00,0.0052
3563.00,0.0052
3562.00,0.0053
3561.00,0.0053
3560.00,0.0054
3559.00,0.0055
3558.00,0.0055
3557.00,0.0056
3556.00,0.0056
3555.00,0.0057
3554.00,0.0057
3553.00,0.0058
3552.00,0.0059
3551.00,0.0059
3550.00,0.0059
3549.00,0.0059
3548.00,0.0059
3547.00,0.0060
3546.00,0.0061
3545.00,0.0062
3544.00,0.0063
3543.00,0.0064
3542.00,0.0064
3541.00,0.0065
3540.00,0.0065
3539.00,0.0066
3538.00,0.0066
3537.00,0.0067
3536.00,0.0067
3535.00,0.0068
3534.00,0.0068
3533.00,0.0069
3532.00,0.0070
3531.00,0.0071
3530.00,0.0071
3529.00,0.0072
3528.00,0.0072
3527.00,0.0073
3526.00,0.0073
3525.00,0.0074
3524.00,0.0075
3523.00,0.0076
3522.00,0.0077
3521.00,0.0077
3520.00,0.0078
3519.00,0.0078
3518.00,0.0078
3517.00,0.0079
3516.00,0.0079
3515.00,0.0080
3514.00,0.0080
3513.00,0.0080
3512.00,0.0080
3511.00,0.0081
3510.00,0.0082
3509.00,0.0083
3508.00,0.0084
3507.00,0.0085
3506.00,0.0085
3505.00,0.0085
3504.00,0.0085
3503.00,0.0086
3502.00,0.0087
3501.00,0.0088
3500.00,0.0089
3499.00,0.0090
3498.00,0.0090
3497.00,0.0091
3496.00,0.0092
3495.00,0.0093
3494.00,0.0093
3493.00,0.0094
3492.00,0.0094
3491.00,0.0095
3490.00,0.0095
3489.00,0.0095
3488.00,0.0095
3487.00,0.0096
3486.00,0.0097
3485.00,0.0098
3484.00,0.0099
3483.00,0.0100
3482.00,0.0100
3481.00,0.0101
3480.00,0.0101
3479.00,0.0102
3478.00,0.0102
3477.00,0.0102
3476.00,0.0103
3475.00,0.0103
3474.00,0.0103
3473.00,0.0104
3472.00,0.0105
3471.00,0.0105
3470.00,0.0106
3469.00,0.0106
3468.00,0.0107
3467.00,0.0108
3466.00,0.0108
3465.00,0.0109
3464.00,0.0110
3463.00,0.0110
3462.00,0.0111
3461.00,0.0111
3460.00,0.0111
3459.00,0.0112
3458.00,0.0112
3457.00,0.0113
3456.00,0.0113
3455.00,0.0114
3454.00,0.0114
3453.00,0.0115
3452.00,0.0115
3451.00,0.0115
3450.00,0.0115
3449.00,0.0115
3448.00,0.0116
3447.00,0.0117
3446.00,0.0117
3445.00,0.0118
3444.00,0.0119
3443.00,0.0119
3442.00,0.0120
3441.00,0.0121
3440.00,0.0121
3439.00,0.0122
3438.00,0.0122
3437.00,0.0123
3436.00,0.0123
3435.00,0.0124
3434.00,0.0125
3433.00,0.0125
3432.00,0.0126
3431.00,0.0127
3430.00,0.0127
3429.00,0.0128
3428.00,0.0128
3427.00,0.0129
3426.00,0.0130
3425.00,0.0130
3424.00,0.0131
3423.00,0.0131
3422.00,0.0131
3421.00,0.0132
3420.00,0.0133
3419.00,0.0133
3418.00,0.0134
3417.00,0.0135
3416.00,0.0135
3415.00,0.0136
3414.00,0.0136
3413.00,0.0137
3412.00,0.0138
3411.00,0.0139
3410.00,0.0140
3409.00,0.0140
3408.00,0.0140
3407.00,0.0141
3406.00,0.0141
3405.00,0.0141
3404.00,0.0142
3403.00,0.0142
3402.00,0.0143
3401.00,0.0143
3400.00,0.0144
3399.00,0.0145
3398.00,0.0145
3397.00,0.0145
3396.00,0.0145
3395.00,0.0145
3394.00,0.0146
3393.00,0.0146
3392.00,0.0146
3391.00,0.0146
3390.00,0.0147
3389.00,0.0147
3388.00,0.0147
3387.00,0.0148
3386.00,0.0148
3385.00,0.0149
3384.00,0.0149
3383.00,0.0149
3382.00,0.0149
3381.00,0.0149
3380.00,0.0149
3379.00,0.0149
3378.00,0.0149
3377.00,0.0149
3376.00,0.0149
3375.00,0.0150
3374.00,0.0150
3373.00,0.0150
3372.00,0.0150
3371.00,0.0150
3370.00,0.0150
3369.00,0.0151
3368.00,0.0151
3367.00,0.0151
3366.00,0.0152
3365.00,0.0152
3364.00,0.0153
3363.00,0.0153
3362.00,0.0153
3361.00,0.0153
3360.00,0.0153
3359.00,0.0153
3358.00,0.0153
3357.00,0.0153
3356.00,0.0154
3355.00,0.0155
3354.00,0.0155
3353.00,0.0155
3352.00,0.0155
3351.00,0.0156
3350.00,0.0156
3349.00,0.0156
3348.00,0.0156
3347.00,0.0156
3346.00,0.0157
3345.00,0.0157
3344.00,0.0158
3343.00,0.0159
3342.00,0.0159
3341.00,0.0160
3340.00,0.0160
3339.00,0.0160
3338.00,0.0160
3337.00,0.0160
3336.00,0.0160
3335.00,0.0160
3334.00,0.0160
3333.00,0.0160
3332.00,0.0161
3331.00,0.0161
3330.00,0.0161
3329.00,0.0162
3328.00,0.0162
3327.00,0.0162
3326.00,0.0163
3325.00,0.0163
3324.00,0.0164
3323.00,0.0164
3322.00,0.0165
3321.00,0.0165
3320.00,0.0165
3319.00,0.0165
3318.00,0.0165
3317.00,0.0165
3316.00,0.0165
3315.00,0.0165
3314.00,0.0165
3313.00,0.0165
3312.00,0.0164
3311.00,0.0164
3310.00,0.0164
3309.00,0.0164
3308.00,0.0164
3307.00,0.0164
3306.00,0.0164
3305.00,0.0163
3304.00,0.0163
3303.00,0.0163
3302.00,0.0162
3301.00,0.0162
3300.00,0.0162
3299.00,0.0161
3298.00,0.0161
3297.00,0.0160
3296.00,0.0159
3295.00,0.0158
3294.00,0.0157
3293.00,0.0157
3292.00,0.0156
3291.00,0.0156
3290.00,0.0155
3289.00,0.0155
3288.00,0.0155
3287.00,0.0154
3286.00,0.0153
3285.00,0.0153
3284.00,0.0152
3283.00,0.0151
3282.00,0.0150
3281.00,0.0149
3280.00,0.0149
3279.00,0.0148
3278.00,0.0148
3277.00,0.0147
3276.00,0.0147
3275.00,0.0146
3274.00,0.0146
3273.00,0.0145
3272.00,0.0145
3271.00,0.0145
3270.00,0.0144
3269.00,0.0144
3268.00,0.0143
3267.00,0.0143
3266.00,0.0142
3265.00,0.0141
3264.00,0.0141
3263.00,0.0141
3262.00,0.0140
3261.00,0.0139
3260.00,0.0138
3259.00,0.0137
3258.00,0.0137
3257.00,0.0136
3256.00,0.0136
3255.00,0.0135
3254.00,0.0135
3253.00,0.0134
3252.00,0.0134
3251.00,0.0133
3250.00,0.0133
3249.00,0.0132
3248.00,0.0131
3247.00,0.0131
3246.00,0.0130
3245.00,0.0130
3244.00,0.0130
3243.00,0.0130
3242.00,0.0129
3241.00,0.0129
3240.00,0.0129
3239.00,0.0129
3238.00,0.0129
3237.00,0.0128
3236.00,0.0128
3235.00,0.0127
3234.00,0.0127
3233.00,0.0127
3232.00,0.0127
3231.00,0.0128
3230.00,0.0127
3229.00,0.0127
3228.00,0.0127
3227.00,0.0127
3226.00,0.0127
3225.00,0.0127
3224.00,0.0127
3223.00,0.0127
3222.00,0.0128
3221.00,0.0128
3220.00,0.0128
3219.00,0.0129
3218.00,0.0130
3217.00,0.0130
3216.00,0.0131
3215.00,0.0131
3214.00,0.0131
3213.00,0.0131
3212.00,0.0132
3211.00,0.0132
3210.00,0.0132
3209.00,0.0132
3208.00,0.0132
3207.00,0.0132
3206.00,0.0132
3205.00,0.0132
3204.00,0.0133
3203.00,0.0133
3202.00,0.0133
3201.00,0.0133
3200.00,0.0133
3199.00,0.0132
3198.00,0.0132
3197.00,0.0132
3196.00,0.0132
3195.00,0.0131
3194.00,0.0131
3193.00,0.0131
3192.00,0.0130
3191.00,0.0130
3190.00,0.0129
3189.00,0.0129
3188.00,0.0128
3187.00,0.0128
3186.00,0.0127
3185.00,0.0126
3184.00,0.0126
3183.00,0.0125
3182.00,0.0124
3181.00,0.0123
3180.00,0.0121
3179.00,0.0120
3178.00,0.0120
3177.00,0.0119
3176.00,0.0118
3175.00,0.0117
3174.00,0.0116
3173.00,0.0115
3172.00,0.0114
3171.00,0.0114
3170.00,0.0113
3169.00,0.0113
3168.00,0.0113
3167.00,0.0113
3166.00,0.0112
3165.00,0.0112
3164.00,0.0111
3163.00,0.0111
3162.00,0.0110
3161.00,0.0110
3160.00,0.0109
3159.00,0.0109
3158.00,0.0108
3157.00,0.0108
3156.00,0.0108
3155.00,0.0107
3154.00,0.0106
3153.00,0.0106
3152.00,0.0105
3151.00,0.0105
3150.00,0.0105
3149.00,0.0105
3148.00,0.0105
3147.00,0.0104
3146.00,0.0104
3145.00,0.0103
3144.00,0.0103
3143.00,0.0103
3142.00,0.0102
3141.00,0.0102
3140.00,0.0101
3139.00,0.0101
3138.00,0.0100
3137.00,0.0101
3136.00,0.0101
3135.00,0.0101
3134.00,0.0100
3133.00,0.0100
3132.00,0.0099
3131.00,0.0098
3130.00,0.0097
3129.00,0.0097
3128.00,0.0097
3127.00,0.0097
3126.00,0.0097
3125.00,0.0097
3124.00,0.0096
3123.00,0.0096
3122.00,0.0095
3121.00,0.0094
3120.00,0.0094
3119.00,0.0093
3118.00,0.0093
3117.00,0.0092
3116.00,0.0091
3115.00,0.0091
3114.00,0.0090
3113.00,0.0090
3112.00,0.0089
3111.00,0.0089
3110.00,0.0088
3109.00,0.0088
3108.00,0.0087
3107.00,0.0087
3106.00,0.0086
3105.00,0.0085
3104.00,0.0084
3103.00,0.0083
3102.00,0.0083
3101.00,0.0083
3100.00,0.0082
3099.00,0.0081
3098.00,0.0081
3097.00,0.0081
3096.00,0.0081
3095.00,0.0081
3094.00,0.0080
3093.00,0.0080
3092.00,0.0079
3091.00,0.0079
3090.00,0.0078
3089.00,0.0078
3088.00,0.0077
3087.00,0.0077
3086.00,0.0076
3085.00,0.0076
3084.00,0.0076
3083.00,0.0076
3082.00,0.0076
3081.00,0.0076
3080.00,0.0076
3079.00,0.0075
3078.00,0.0075
3077.00,0.0075
3076.00,0.0075
3075.00,0.0075
3074.00,0.0075
3073.00,0.0075
3072.00,0.0075
3071.00,0.0075
3070.00,0.0075
3069.00,0.0075
3068.00,0.0075
3067.00,0.0075
3066.00,0.0075
3065.00,0.0075
3064.00,0.0076
3063.00,0.0076
3062.00,0.0076
3061.00,0.0075
3060.00,0.0075
3059.00,0.0074
3058.00,0.0074
3057.00,0.0074
3056.00,0.0074
3055.00,0.0074
3054.00,0.0074
3053.00,0.0074
3052.00,0.0074
3051.00,0.0074
3050.00,0.0074
3049.00,0.0074
3048.00,0.0074
3047.00,0.0074
3046.00,0.0074
3045.00,0.0074
3044.00,0.0074
3043.00,0.0074
3042.00,0.0074
3041.00,0.0075
3040.00,0.0075
3039.00,0.0075
3038.00,0.0076
3037.00,0.0076
3036.00,0.0077
3035.00,0.0077
3034.00,0.0077
3033.00,0.0077
3032.00,0.0077
3031.00,0.0078
3030.00,0.0079
3029.00,0.0079
3028.00,0.0079
3027.00,0.0079
3026.00,0.0079
3025.00,0.0079
3024.00,0.0080
3023.00,0.0080
3022.00,0.0080
3021.00,0.0081
3020.00,0.0081
3019.00,0.0082
3018.00,0.0083
3017.00,0.0084
3016.00,0.0084
3015.00,0.0085
3014.00,0.0085
3013.00,0.0086
3012.00,0.0087
3011.00,0.0088
3010.00,0.0090
3009.00,0.0092
3008.00,0.0093
3007.00,0.0095
3006.00,0.0096
3005.00,0.0097
3004.00,0.0099
3003.00,0.0100
3002.00,0.0102
3001.00,0.0104
3000.00,0.0106
2999.00,0.0108
2998.00,0.0111
2997.00,0.0114
2996.00,0.0117
2995.00,0.0120
2994.00,0.0124
2993.00,0.0128
2992.00,0.0133
2991.00,0.0138
2990.00,0.0144
2989.00,0.0150
2988.00,0.0158
2987.00,0.0166
2986.00,0.0175
2985.00,0.0185
2984.00,0.0196
2983.00,0.0208
2982.00,0.0222
2981.00,0.0238
2980.00,0.0256
2979.00,0.0276
2978.00,0.0300
2977.00,0.0326
2976.00,0.0356
2975.00,0.0390
2974.00,0.0429
2973.00,0.0473
2972.00,0.0524
2971.00,0.0580
2970.00,0.0643
2969.00,0.0713
2968.00,0.0788
2967.00,0.0868
2966.00,0.0952
2965.00,0.1037
2964.00,0.1119
2963.00,0.1196
2962.00,0.1263
2961.00,0.1317
2960.00,0.1360
2959.00,0.1394
2958.00,0.1424
2957.00,0.1455
2956.00,0.1492
2955.00,0.1538
2954.00,0.1590
2953.00,0.1644
2952.00,0.1691
2951.00,0.1723
2950.00,0.1731
2949.00,0.1708
2948.00,0.1654
2947.00,0.1573
2946.00,0.1475
2945.00,0.1370
2944.00,0.1271
2943.00,0.1186
2942.00,0.1121
2941.00,0.1076
2940.00,0.1053
2939.00,0.1049
2938.00,0.1062
2937.00,0.1092
2936.00,0.1135
2935.00,0.1192
2934.00,0.1261
2933.00,0.1341
2932.00,0.1430
2931.00,0.1526
2930.00,0.1628
2929.00,0.1732
2928.00,0.1836
2927.00,0.1938
2926.00,0.2037
2925.00,0.2132
2924.00,0.2225
2923.00,0.2316
2922.00,0.2404
2921.00,0.2487
2920.00,0.2559
2919.00,0.2611
2918.00,0.2634
2917.00,0.2620
2916.00,0.2569
2915.00,0.2487
2914.00,0.2385
2913.00,0.2276
2912.00,0.2169
2911.00,0.2072
2910.00,0.1987
2909.00,0.1912
2908.00,0.1845
2907.00,0.1783
2906.00,0.1724
2905.00,0.1664
2904.00,0.1604
2903.00,0.1544
2902.00,0.1484
2901.00,0.1425
2900.00,0.1367
2899.00,0.1312
2898.00,0.1260
2897.00,0.1212
2896.00,0.1169
2895.00,0.1131
2894.00,0.1098
2893.00,0.1071
2892.00,0.1049
2891.00,0.1033
2890.00,0.1020
2889.00,0.1012
2888.00,0.1007
2887.00,0.1005
2886.00,0.1006
2885.00,0.1011
2884.00,0.1020
2883.00,0.1034
2882.00,0.1051
2881.00,0.1072
2880.00,0.1092
2879.00,0.1110
2878.00,0.1122
2877.00,0.1127
2876.00,0.1127
2875.00,0.1122
2874.00,0.1118
2873.00,0.1117
2872.00,0.1123
2871.00,0.1134
2870.00,0.1149
2869.00,0.1165
2868.00,0.1174
2867.00,0.1171
2866.00,0.1151
2865.00,0.1113
2864.00,0.1060
2863.00,0.1000
2862.00,0.0941
2861.00,0.0889
2860.00,0.0850
2859.00,0.0824
2858.00,0.0812
2857.00,0.0810
2856.00,0.0817
2855.00,0.0831
2854.00,0.0850
2853.00,0.0873
2852.00,0.0895
2851.00,0.0914
2850.00,0.0925
2849.00,0.0928
2848.00,0.0925
2847.00,0.0923
2846.00,0.0926
2845.00,0.0939
2844.00,0.0963
2843.00,0.0998
2842.00,0.1037
2841.00,0.1077
2840.00,0.1110
2839.00,0.1129
2838.00,0.1126
2837.00,0.1098
2836.00,0.1044
2835.00,0.0967
2834.00,0.0877
2833.00,0.0781
2832.00,0.0689
2831.00,0.0607
2830.00,0.0537
2829.00,0.0479
2828.00,0.0431
2827.00,0.0393
2826.00,0.0361
2825.00,0.0334
2824.00,0.0312
2823.00,0.0294
2822.00,0.0278
2821.00,0.0264
2820.00,0.0251
2819.00,0.0241
2818.00,0.0231
2817.00,0.0223
2816.00,0.0216
2815.00,0.0210
2814.00,0.0204
2813.00,0.0199
2812.00,0.0194
2811.00,0.0188
2810.00,0.0183
2809.00,0.0178
2808.00,0.0172
2807.00,0.0167
2806.00,0.0161
2805.00,0.0155
2804.00,0.0149
2803.00,0.0144
2802.00,0.0138
2801.00,0.0134
2800.00,0.0130
2799.00,0.0127
2798.00,0.0124
2797.00,0.0122
2796.00,0.0119
2795.00,0.0117
2794.00,0.0115
2793.00,0.0112
2792.00,0.0109
2791.00,0.0106
2790.00,0.0103
2789.00,0.0100
2788.00,0.0097
2787.00,0.0094
2786.00,0.0092
2785.00,0.0089
2784.00,0.0087
2783.00,0.0085
2782.00,0.0083
2781.00,0.0081
2780.00,0.0079
2779.00,0.0077
2778.00,0.0075
2777.00,0.0074
2776.00,0.0072
2775.00,0.0071
2774.00,0.0071
2773.00,0.0070
2772.00,0.0070
2771.00,0.0069
2770.00,0.0069
2769.00,0.0068
2768.00,0.0068
2767.00,0.0068
2766.00,0.0067
2765.00,0.0067
2764.00,0.0067
2763.00,0.0066
2762.00,0.0066
2761.00,0.0066
2760.00,0.0065
2759.00,0.0065
2758.00,0.0064
2757.00,0.0064
2756.00,0.0064
2755.00,0.0064
2754.00,0.0064
2753.00,0.0064
2752.00,0.0063
2751.00,0.0063
2750.00,0.0062
2749.00,0.0062
2748.00,0.0062
2747.00,0.0063
2746.00,0.0063
2745.00,0.0063
2744.00,0.0064
2743.00,0.0064
2742.00,0.0065
2741.00,0.0066
2740.00,0.0067
2739.00,0.0068
2738.00,0.0069
2737.00,0.0070
2736.00,0.0072
2735.00,0.0073
2734.00,0.0074
2733.00,0.0076
2732.00,0.0077
2731.00,0.0078
2730.00,0.0080
2729.00,0.0082
2728.00,0.0084
2727.00,0.0087
2726.00,0.0089
2725.00,0.0091
2724.00,0.0092
2723.00,0.0092
2722.00,0.0091
2721.00,0.0089
2720.00,0.0087
2719.00,0.0084
2718.00,0.0082
2717.00,0.0079
2716.00,0.0076
2715.00,0.0074
2714.00,0.0072
2713.00,0.0070
2712.00,0.0068
2711.00,0.0066
2710.00,0.0065
2709.00,0.0063
2708.00,0.0062
2707.00,0.0061
2706.00,0.0060
2705.00,0.0059
2704.00,0.0058
2703.00,0.0057
2702.00,0.0056
2701.00,0.0055
2700.00,0.0055
2699.00,0.0055
2698.00,0.0054
2697.00,0.0054
2696.00,0.0054
2695.00,0.0054
2694.00,0.0054
2693.00,0.0054
2692.00,0.0054
2691.00,0.0054
2690.00,0.0054
2689.00,0.0054
2688.00,0.0054
2687.00,0.0054
2686.00,0.0054
2685.00,0.0054
2684.00,0.0054
2683.00,0.0054
2682.00,0.0054
2681.00,0.0054
2680.00,0.0054
2679.00,0.0054
2678.00,0.0054
2677.00,0.0054
2676.00,0.0054
2675.00,0.0053
2674.00,0.0053
2673.00,0.0052
2672.00,0.0052
2671.00,0.0052
2670.00,0.0052
2669.00,0.0052
2668.00,0.0052
2667.00,0.0052
2666.00,0.0052
2665.00,0.0052
2664.00,0.0052
2663.00,0.0053
2662.00,0.0053
2661.00,0.0054
2660.00,0.0054
2659.00,0.0054
2658.00,0.0054
2657.00,0.0054
2656.00,0.0053
2655.00,0.0053
2654.00,0.0053
2653.00,0.0053
2652.00,0.0052
2651.00,0.0052
2650.00,0.0051
2649.00,0.0051
2648.00,0.0050
2647.00,0.0049
2646.00,0.0049
2645.00,0.0048
2644.00,0.0047
2643.00,0.0047
2642.00,0.0047
2641.00,0.0046
2640.00,0.0046
2639.00,0.0045
2638.00,0.0045
2637.00,0.0045
2636.00,0.0045
2635.00,0.0045
2634.00,0.0045
2633.00,0.0045
2632.00,0.0045
2631.00,0.0045
2630.00,0.0045
2629.00,0.0045
2628.00,0.0045
2627.00,0.0046
2626.00,0.0046
2625.00,0.0047
2624.00,0.0047
2623.00,0.0047
2622.00,0.0047
2621.00,0.0047
2620.00,0.0046
2619.00,0.0046
2618.00,0.0045
2617.00,0.0046
2616.00,0.0046
2615.00,0.0046
2614.00,0.0046
2613.00,0.0045
2612.00,0.0044
2611.00,0.0043
2610.00,0.0042
2609.00,0.0042
2608.00,0.0041
2607.00,0.0041
2606.00,0.0040
2605.00,0.0040
2604.00,0.0039
2603.00,0.0039
2602.00,0.0038
2601.00,0.0038
2600.00,0.0037
2599.00,0.0036
2598.00,0.0036
2597.00,0.0036
2596.00,0.0036
2595.00,0.0037
2594.00,0.0037
2593.00,0.0038
2592.00,0.0038
2591.00,0.0038
2590.00,0.0038
2589.00,0.0038
2588.00,0.0039
2587.00,0.0040
2586.00,0.0041
2585.00,0.0042
2584.00,0.0043
2583.00,0.0042
2582.00,0.0042
2581.00,0.0041
2580.00,0.0041
2579.00,0.0040
2578.00,0.0039
2577.00,0.0038
2576.00,0.0037
2575.00,0.0035
2574.00,0.0035
2573.00,0.0034
2572.00,0.0034
2571.00,0.0034
2570.00,0.0033
2569.00,0.0032
2568.00,0.0031
2567.00,0.0030
2566.00,0.0030
2565.00,0.0030
2564.00,0.0030
2563.00,0.0030
2562.00,0.0029
2561.00,0.0029
2560.00,0.0028
2559.00,0.0027
2558.00,0.0027
2557.00,0.0027
2556.00,0.0027
2555.00,0.0027
2554.00,0.0027
2553.00,0.0027
2552.00,0.0026
2551.00,0.0026
2550.00,0.0026
2549.00,0.0026
2548.00,0.0025
2547.00,0.0024
2546.00,0.0023
2545.00,0.0022
2544.00,0.0022
2543.00,0.0023
2542.00,0.0023
2541.00,0.0023
2540.00,0.0022
2539.00,0.0022
2538.00,0.0022
2537.00,0.0022
2536.00,0.0022
2535.00,0.0022
2534.00,0.0022
2533.00,0.0022
2532.00,0.0022
2531.00,0.0022
2530.00,0.0022
2529.00,0.0022
2528.00,0.0021
2527.00,0.0021
2526.00,0.0020
2525.00,0.0020
2524.00,0.0019
2523.00,0.0019
2522.00,0.0019
2521.00,0.0019
2520.00,0.0019
2519.00,0.0019
2518.00,0.0019
2517.00,0.0019
2516.00,0.0018
2515.00,0.0018
2514.00,0.0017
2513.00,0.0018
2512.00,0.0018
2511.00,0.0018
2510.00,0.0017
2509.00,0.0017
2508.00,0.0016
2507.00,0.0016
2506.00,0.0016
2505.00,0.0017
2504.00,0.0017
2503.00,0.0017
2502.00,0.0016
2501.00,0.0015
2500.00,0.0015
2499.00,0.0015
2498.00,0.0015
2497.00,0.0015
2496.00,0.0015
2495.00,0.0015
2494.00,0.0015
2493.00,0.0015
2492.00,0.0015
2491.00,0.0016
2490.00,0.0016
2489.00,0.0016
2488.00,0.0016
2487.00,0.0016
2486.00,0.0016
2485.00,0.0016
2484.00,0.0016
2483.00,0.0016
2482.00,0.0016
2481.00,0.0016
2480.00,0.0016
2479.00,0.0016
2478.00,0.0016
2477.00,0.0016
2476.00,0.0015
2475.00,0.0015
2474.00,0.0015
2473.00,0.0014
2472.00,0.0014
2471.00,0.0014
2470.00,0.0015
2469.00,0.0015
2468.00,0.0015
2467.00,0.0015
2466.00,0.0015
2465.00,0.0015
2464.00,0.0015
2463.00,0.0016
2462.00,0.0016
2461.00,0.0016
2460.00,0.0016
2459.00,0.0016
2458.00,0.0016
2457.00,0.0016
2456.00,0.0016
2455.00,0.0016
2454.00,0.0016
2453.00,0.0016
2452.00,0.0016
2451.00,0.0017
2450.00,0.0017
2449.00,0.0017
2448.00,0.0017
2447.00,0.0017
2446.00,0.0017
2445.00,0.0017
2444.00,0.0017
2443.00,0.0017
2442.00,0.0016
2441.00,0.0016
2440.00,0.0016
2439.00,0.0016
2438.00,0.0016
2437.00,0.0016
2436.00,0.0016
2435.00,0.0016
2434.00,0.0016
2433.00,0.0016
2432.00,0.0015
2431.00,0.0015
2430.00,0.0015
2429.00,0.0015
2428.00,0.0016
2427.00,0.0016
2426.00,0.0016
2425.00,0.0016
2424.00,0.0016
2423.00,0.0016
2422.00,0.0016
2421.00,0.0016
2420.00,0.0015
2419.00,0.0015
2418.00,0.0014
2417.00,0.0014
2416.00,0.0014
2415.00,0.0014
2414.00,0.0014
2413.00,0.0014
2412.00,0.0014
2411.00,0.0015
2410.00,0.0014
2409.00,0.0014
2408.00,0.0014
2407.00,0.0013
2406.00,0.0013
2405.00,0.0013
2404.00,0.0013
2403.00,0.0014
2402.00,0.0014
2401.00,0.0015
2400.00,0.0015
2399.00,0.0015
2398.00,0.0015
2397.00,0.0014
2396.00,0.0014
2395.00,0.0014
2394.00,0.0014
2393.00,0.0014
2392.00,0.0013
2391.00,0.0013
2390.00,0.0012
2389.00,0.0012
2388.00,0.0012
2387.00,0.0011
2386.00,0.0012
2385.00,0.0012
2384.00,0.0012
2383.00,0.0012
2382.00,0.0011
2381.00,0.0011
2380.00,0.0011
2379.00,0.0011
2378.00,0.0011
2377.00,0.0011
2376.00,0.0010
2375.00,0.0010
2374.00,0.0010
2373.00,0.0010
2372.00,0.0010
2371.00,0.0009
2370.00,0.0009
2369.00,0.0009
2368.00,0.0009
2367.00,0.0010
2366.00,0.0010
2365.00,0.0011
2364.00,0.0011
2363.00,0.0011
2362.00,0.0010
2361.00,0.0010
2360.00,0.0011
2359.00,0.0012
2358.00,0.0013
2357.00,0.0013
2356.00,0.0013
2355.00,0.0012
2354.00,0.0011
2353.00,0.0011
2352.00,0.0011
2351.00,0.0011
2350.00,0.0012
2349.00,0.0012
2348.00,0.0012
2347.00,0.0012
2346.00,0.0012
2345.00,0.0012
2344.00,0.0012
2343.00,0.0012
2342.00,0.0013
2341.00,0.0013
2340.00,0.0014
2339.00,0.0014
2338.00,0.0015
2337.00,0.0015
2336.00,0.0014
2335.00,0.0013
2334.00,0.0013
2333.00,0.0013
2332.00,0.0013
2331.00,0.0014
2330.00,0.0014
2329.00,0.0015
2328.00,0.0017
2327.00,0.0020
2326.00,0.0023
2325.00,0.0026
2324.00,0.0027
2323.00,0.0026
2322.00,0.0024
2321.00,0.0022
2320.00,0.0021
2319.00,0.0020
2318.00,0.0020
2317.00,0.0019
2316.00,0.0018
2315.00,0.0018
2314.00,0.0017
2313.00,0.0017
2312.00,0.0016
2311.00,0.0016
2310.00,0.0016
2309.00,0.0017
2308.00,0.0017
2307.00,0.0018
2306.00,0.0018
2305.00,0.0018
2304.00,0.0017
2303.00,0.0017
2302.00,0.0018
2301.00,0.0018
2300.00,0.0018
2299.00,0.0018
2298.00,0.0018
2297.00,0.0019
2296.00,0.0019
2295.00,0.0020
2294.00,0.0020
2293.00,0.0020
2292.00,0.0021
2291.00,0.0021
2290.00,0.0022
2289.00,0.0022
2288.00,0.0022
2287.00,0.0022
2286.00,0.0022
2285.00,0.0022
2284.00,0.0021
2283.00,0.0020
2282.00,0.0020
2281.00,0.0019
2280.00,0.0019
2279.00,0.0018
2278.00,0.0017
2277.00,0.0016
2276.00,0.0016
2275.00,0.0017
2274.00,0.0018
2273.00,0.0019
2272.00,0.0019
2271.00,0.0018
2270.00,0.0018
2269.00,0.0017
2268.00,0.0016
2267.00,0.0016
2266.00,0.0015
2265.00,0.0015
2264.00,0.0015
2263.00,0.0014
2262.00,0.0014
2261.00,0.0014
2260.00,0.0014
2259.00,0.0015
2258.00,0.0016
2257.00,0.0017
2256.00,0.0016
2255.00,0.0016
2254.00,0.0015
2253.00,0.0015
2252.00,0.0015
2251.00,0.0014
2250.00,0.0014
2249.00,0.0015
2248.00,0.0015
2247.00,0.0015
2246.00,0.0014
2245.00,0.0013
2244.00,0.0012
2243.00,0.0011
2242.00,0.0011
2241.00,0.0011
2240.00,0.0011
2239.00,0.0011
2238.00,0.0012
2237.00,0.0012
2236.00,0.0013
2235.00,0.0013
2234.00,0.0013
2233.00,0.0013
2232.00,0.0013
2231.00,0.0013
2230.00,0.0014
2229.00,0.0015
2228.00,0.0016
2227.00,0.0016
2226.00,0.0015
2225.00,0.0013
2224.00,0.0012
2223.00,0.0011
2222.00,0.0011
2221.00,0.0011
2220.00,0.0010
2219.00,0.0009
2218.00,0.0009
2217.00,0.0009
2216.00,0.0010
2215.00,0.0010
2214.00,0.0010
2213.00,0.0009
2212.00,0.0007
2211.00,0.0006
2210.00,0.0005
2209.00,0.0005
2208.00,0.0006
2207.00,0.0007
2206.00,0.0009
2205.00,0.0011
2204.00,0.0012
2203.00,0.0012
2202.00,0.0011
2201.00,0.0011
2200.00,0.0012
2199.00,0.0013
2198.00,0.0013
2197.00,0.0013
2196.00,0.0013
2195.00,0.0013
2194.00,0.0014
2193.00,0.0015
2192.00,0.0016
2191.00,0.0016
2190.00,0.0016
2189.00,0.0016
2188.00,0.0015
2187.00,0.0015
2186.00,0.0014
2185.00,0.0014
2184.00,0.0013
2183.00,0.0011
2182.00,0.0008
2181.00,0.0007
2180.00,0.0006
2179.00,0.0005
2178.00,0.0004
2177.00,0.0002
2176.00,0.0001
2175.00,0.0001
2174.00,0.0003
2173.00,0.0007
2172.00,0.0012
2171.00,0.0016
2170.00,0.0017
2169.00,0.0017
2168.00,0.0017
2167.00,0.0018
2166.00,0.0020
2165.00,0.0021
2164.00,0.0022
2163.00,0.0021
2162.00,0.0018
2161.00,0.0012
2160.00,0.0002
2159.00,-0.0008
2158.00,-0.0017
2157.00,-0.0020
2156.00,-0.0018
2155.00,-0.0015
2154.00,-0.0011
2153.00,-0.0009
2152.00,-0.0007
2151.00,-0.0007
2150.00,-0.0007
2149.00,-0.0006
2148.00,-0.0006
2147.00,-0.0007
2146.00,-0.0009
2145.00,-0.0010
2144.00,-0.0010
2143.00,-0.0008
2142.00,-0.0005
2141.00,-0.0002
2140.00,-0.0002
2139.00,-0.0004
2138.00,-0.0006
2137.00,-0.0007
2136.00,-0.0008
2135.00,-0.0009
2134.00,-0.0011
2133.00,-0.0012
2132.00,-0.0013
2131.00,-0.0012
2130.00,-0.0011
2129.00,-0.0009
2128.00,-0.0007
2127.00,-0.0005
2126.00,-0.0004
2125.00,-0.0003
2124.00,-0.0002
2123.00,-0.0001
2122.00,0.0000
2121.00,0.0001
2120.00,0.0001
2119.00,0.0001
2118.00,0.0002
2117.00,0.0003
2116.00,0.0005
2115.00,0.0007
2114.00,0.0008
2113.00,0.0008
2112.00,0.0007
2111.00,0.0006
2110.00,0.0006
2109.00,0.0005
2108.00,0.0006
2107.00,0.0007
2106.00,0.0008
2105.00,0.0009
2104.00,0.0010
2103.00,0.0010
2102.00,0.0010
2101.00,0.0008
2100.00,0.0007
2099.00,0.0005
2098.00,0.0004
2097.00,0.0003
2096.00,0.0002
2095.00,0.0001
2094.00,0.0001
2093.00,0.0001
2092.00,0.0002
2091.00,0.0003
2090.00,0.0004
2089.00,0.0005
2088.00,0.0006
2087.00,0.0006
2086.00,0.0007
2085.00,0.0008
2084.00,0.0008
2083.00,0.0008
2082.00,0.0008
2081.00,0.0009
2080.00,0.0009
2079.00,0.0008
2078.00,0.0007
2077.00,0.0007
2076.00,0.0007
2075.00,0.0007
2074.00,0.0008
2073.00,0.0009
2072.00,0.0009
2071.00,0.0008
2070.00,0.0006
2069.00,0.0005
2068.00,0.0004
2067.00,0.0004
2066.00,0.0003
2065.00,0.0003
2064.00,0.0003
2063.00,0.0003
2062.00,0.0002
2061.00,0.0001
2060.00,0.0001
2059.00,0.0002
2058.00,0.0004
2057.00,0.0006
2056.00,0.0007
2055.00,0.0007
2054.00,0.0008
2053.00,0.0010
2052.00,0.0014
2051.00,0.0018
2050.00,0.0019
2049.00,0.0016
2048.00,0.0012
2047.00,0.0007
2046.00,0.0003
2045.00,0.0001
2044.00,0.0002
2043.00,0.0004
2042.00,0.0005
2041.00,0.0006
2040.00,0.0006
2039.00,0.0005
2038.00,0.0005
2037.00,0.0005
2036.00,0.0003
2035.00,-0.0000
2034.00,-0.0005
2033.00,-0.0009
2032.00,-0.0011
2031.00,-0.0012
2030.00,-0.0011
2029.00,-0.0009
2028.00,-0.0006
2027.00,-0.0003
2026.00,-0.0002
2025.00,-0.0002
2024.00,-0.0004
2023.00,-0.0005
2022.00,-0.0005
2021.00,-0.0004
2020.00,-0.0003
2019.00,-0.0004
2018.00,-0.0006
2017.00,-0.0006
2016.00,-0.0005
2015.00,-0.0003
2014.00,-0.0002
2013.00,-0.0003
2012.00,-0.0005
2011.00,-0.0008
2010.00,-0.0009
2009.00,-0.0009
2008.00,-0.0009
2007.00,-0.0011
2006.00,-0.0012
2005.00,-0.0012
2004.00,-0.0011
2003.00,-0.0012
2002.00,-0.0013
2001.00,-0.0014
2000.00,-0.0013
1999.00,-0.0011
1998.00,-0.0008
1997.00,-0.0005
1996.00,-0.0002
1995.00,-0.0002
1994.00,-0.0002
1993.00,-0.0002
1992.00,0.0000
1991.00,0.0002
1990.00,0.0004
1989.00,0.0004
1988.00,0.0003
1987.00,0.0002
1986.00,0.0001
1985.00,0.0002
1984.00,0.0003
1983.00,0.0006
1982.00,0.0010
1981.00,0.0014
1980.00,0.0015
1979.00,0.0012
1978.00,0.0005
1977.00,-0.0002
1976.00,-0.0007
1975.00,-0.0011
1974.00,-0.0014
1973.00,-0.0014
1972.00,-0.0012
1971.00,-0.0008
1970.00,-0.0004
1969.00,-0.0003
1968.00,-0.0003
1967.00,-0.0003
1966.00,-0.0004
1965.00,-0.0005
1964.00,-0.0006
1963.00,-0.0010
1962.00,-0.0012
1961.00,-0.0013
1960.00,-0.0012
1959.00,-0.0011
1958.00,-0.0009
1957.00,-0.0008
1956.00,-0.0006
1955.00,-0.0005
1954.00,-0.0005
1953.00,-0.0004
1952.00,-0.0004
1951.00,-0.0007
1950.00,-0.0011
1949.00,-0.0014
1948.00,-0.0015
1947.00,-0.0014
1946.00,-0.0012
1945.00,-0.0011
1944.00,-0.0011
1943.00,-0.0011
1942.00,-0.0011
1941.00,-0.0011
1940.00,-0.0011
1939.00,-0.0011
1938.00,-0.0010
1937.00,-0.0007
1936.00,-0.0005
1935.00,-0.0003
1934.00,-0.0002
1933.00,-0.0001
1932.00,-0.0001
1931.00,-0.0002
1930.00,-0.0002
1929.00,-0.0002
1928.00,-0.0001
1927.00,-0.0000
1926.00,0.0000
1925.00,0.0001
1924.00,0.0002
1923.00,0.0002
1922.00,0.0003
1921.00,0.0003
1920.00,0.0002
1919.00,0.0002
1918.00,0.0003
1917.00,0.0003
1916.00,0.0003
1915.00,0.0002
1914.00,0.0001
1913.00,0.0001
1912.00,0.0002
1911.00,0.0002
1910.00,0.0002
1909.00,0.0003
1908.00,0.0003
1907.00,0.0004
1906.00,0.0005
1905.00,0.0005
1904.00,0.0006
1903.00,0.0005
1902.00,0.0004
1901.00,0.0003
1900.00,0.0003
1899.00,0.0003
1898.00,0.0003
1897.00,0.0004
1896.00,0.0004
1895.00,0.0004
1894.00,0.0003
1893.00,0.0003
1892.00,0.0002
1891.00,0.0002
1890.00,0.0002
1889.00,0.0002
1888.00,0.0002
1887.00,0.0001
1886.00,0.0001
1885.00,0.0001
1884.00,0.0001
1883.00,0.0002
1882.00,0.0002
1881.00,0.0003
1880.00,0.0003
1879.00,0.0003
1878.00,0.0003
1877.00,0.0003
1876.00,0.0004
1875.00,0.0004
1874.00,0.0005
1873.00,0.0005
1872.00,0.0006
1871.00,0.0005
1870.00,0.0005
1869.00,0.0005
1868.00,0.0005
1867.00,0.0005
1866.00,0.0005
1865.00,0.0005
1864.00,0.0005
1863.00,0.0005
1862.00,0.0004
1861.00,0.0004
1860.00,0.0004
1859.00,0.0005
1858.00,0.0005
1857.00,0.0006
1856.00,0.0007
1855.00,0.0007
1854.00,0.0006
1853.00,0.0006
1852.00,0.0005
1851.00,0.0005
1850.00,0.0006
1849.00,0.0007
1848.00,0.0008
1847.00,0.0008
1846.00,0.0008
1845.00,0.0008
1844.00,0.0008
1843.00,0.0008
1842.00,0.0007
1841.00,0.0007
1840.00,0.0007
1839.00,0.0007
1838.00,0.0007
1837.00,0.0007
1836.00,0.0007
1835.00,0.0006
1834.00,0.0007
1833.00,0.0007
1832.00,0.0008
1831.00,0.0008
1830.00,0.0008
1829.00,0.0009
1828.00,0.0009
1827.00,0.0009
1826.00,0.0009
1825.00,0.0009
1824.00,0.0009
1823.00,0.0009
1822.00,0.0008
1821.00,0.0008
1820.00,0.0007
1819.00,0.0007
1818.00,0.0005
1817.00,0.0005
1816.00,0.0005
1815.00,0.0006
1814.00,0.0007
1813.00,0.0008
1812.00,0.0009
1811.00,0.0010
1810.00,0.0009
1809.00,0.0009
1808.00,0.0009
1807.00,0.0009
1806.00,0.0010
1805.00,0.0011
1804.00,0.0011
1803.00,0.0012
1802.00,0.0012
1801.00,0.0012
1800.00,0.0013
1799.00,0.0013
1798.00,0.0013
1797.00,0.0013
1796.00,0.0013
1795.00,0.0013
1794.00,0.0014
1793.00,0.0014
1792.00,0.0014
1791.00,0.0015
1790.00,0.0014
1789.00,0.0014
1788.00,0.0015
1787.00,0.0015
1786.00,0.0015
1785.00,0.0016
1784.00,0.0016
1783.00,0.0016
1782.00,0.0016
1781.00,0.0016
1780.00,0.0016
1779.00,0.0016
1778.00,0.0016
1777.00,0.0016
1776.00,0.0016
1775.00,0.0017
1774.00,0.0017
1773.00,0.0018
1772.00,0.0019
1771.00,0.0019
1770.00,0.0020
1769.00,0.0020
1768.00,0.0020
1767.00,0.0020
1766.00,0.0021
1765.00,0.0021
1764.00,0.0022
1763.00,0.0023
1762.00,0.0023
1761.00,0.0024
1760.00,0.0025
1759.00,0.0026
1758.00,0.0026
1757.00,0.0027
1756.00,0.0028
1755.00,0.0029
1754.00,0.0029
1753.00,0.0030
1752.00,0.0032
1751.00,0.0034
1750.00,0.0036
1749.00,0.0037
1748.00,0.0038
1747.00,0.0040
1746.00,0.0041
1745.00,0.0043
1744.00,0.0044
1743.00,0.0046
1742.00,0.0047
1741.00,0.0048
1740.00,0.0048
1739.00,0.0049
1738.00,0.0049
1737.00,0.0050
1736.00,0.0050
1735.00,0.0051
1734.00,0.0051
1733.00,0.0051
1732.00,0.0051
1731.00,0.0050
1730.00,0.0049
1729.00,0.0048
1728.00,0.0048
1727.00,0.0047
1726.00,0.0047
1725.00,0.0046
1724.00,0.0047
1723.00,0.0047
1722.00,0.0048
1721.00,0.0049
1720.00,0.0050
1719.00,0.0050
1718.00,0.0049
1717.00,0.0048
1716.00,0.0048
1715.00,0.0049
1714.00,0.0048
1713.00,0.0048
1712.00,0.0048
1711.00,0.0049
1710.00,0.0049
1709.00,0.0050
1708.00,0.0051
1707.00,0.0052
1706.00,0.0052
1705.00,0.0054
1704.00,0.0057
1703.00,0.0059
1702.00,0.0062
1701.00,0.0064
1700.00,0.0067
1699.00,0.0069
1698.00,0.0069
1697.00,0.0071
1696.00,0.0073
1695.00,0.0076
1694.00,0.0078
1693.00,0.0079
1692.00,0.0081
1691.00,0.0084
1690.00,0.0087
1689.00,0.0091
1688.00,0.0095
1687.00,0.0099
1686.00,0.0104
1685.00,0.0110
1684.00,0.0116
1683.00,0.0121
1682.00,0.0123
1681.00,0.0125
1680.00,0.0128
1679.00,0.0131
1678.00,0.0135
1677.00,0.0138
1676.00,0.0142
1675.00,0.0147
1674.00,0.0150
1673.00,0.0153
1672.00,0.0155
1671.00,0.0158
1670.00,0.0161
1669.00,0.0165
1668.00,0.0168
1667.00,0.0170
1666.00,0.0171
1665.00,0.0173
1664.00,0.0177
1663.00,0.0180
1662.00,0.0182
1661.00,0.0184
1660.00,0.0186
1659.00,0.0188
1658.00,0.0191
1657.00,0.0194
1656.00,0.0198
1655.00,0.0201
1654.00,0.0205
1653.00,0.0210
1652.00,0.0214
1651.00,0.0216
1650.00,0.0216
1649.00,0.0217
1648.00,0.0219
1647.00,0.0222
1646.00,0.0226
1645.00,0.0228
1644.00,0.0228
1643.00,0.0228
1642.00,0.0227
1641.00,0.0227
1640.00,0.0227
1639.00,0.0227
1638.00,0.0227
1637.00,0.0227
1636.00,0.0227
1635.00,0.0225
1634.00,0.0223
1633.00,0.0220
1632.00,0.0216
1631.00,0.0213
1630.00,0.0211
1629.00,0.0208
1628.00,0.0206
1627.00,0.0204
1626.00,0.0203
1625.00,0.0201
1624.00,0.0198
1623.00,0.0195
1622.00,0.0193
1621.00,0.0191
1620.00,0.0190
1619.00,0.0188
1618.00,0.0187
1617.00,0.0186
1616.00,0.0185
1615.00,0.0183
1614.00,0.0182
1613.00,0.0182
1612.00,0.0182
1611.00,0.0182
1610.00,0.0182
1609.00,0.0183
1608.00,0.0184
1607.00,0.0184
1606.00,0.0184
1605.00,0.0184
1604.00,0.0185
1603.00,0.0185
1602.00,0.0184
1601.00,0.0184
1600.00,0.0184
1599.00,0.0183
1598.00,0.0181
1597.00,0.0181
1596.00,0.0180
1595.00,0.0179
1594.00,0.0179
1593.00,0.0179
1592.00,0.0180
1591.00,0.0181
1590.00,0.0183
1589.00,0.0187
1588.00,0.0191
1587.00,0.0196
1586.00,0.0202
1585.00,0.0210
1584.00,0.0218
1583.00,0.0226
1582.00,0.0234
1581.00,0.0242
1580.00,0.0247
1579.00,0.0251
1578.00,0.0252
1577.00,0.0251
1576.00,0.0248
1575.00,0.0243
1574.00,0.0237
1573.00,0.0231
1572.00,0.0226
1571.00,0.0221
1570.00,0.0214
1569.00,0.0209
1568.00,0.0205
1567.00,0.0202
1566.00,0.0200
1565.00,0.0198
1564.00,0.0198
1563.00,0.0197
1562.00,0.0198
1561.00,0.0200
1560.00,0.0201
1559.00,0.0202
1558.00,0.0203
1557.00,0.0204
1556.00,0.0204
1555.00,0.0205
1554.00,0.0208
1553.00,0.0213
1552.00,0.0218
1551.00,0.0224
1550.00,0.0232
1549.00,0.0240
1548.00,0.0249
1547.00,0.0258
1546.00,0.0269
1545.00,0.0282
1544.00,0.0296
1543.00,0.0308
1542.00,0.0319
1541.00,0.0325
1540.00,0.0325
1539.00,0.0318
1538.00,0.0308
1537.00,0.0299
1536.00,0.0290
1535.00,0.0279
1534.00,0.0265
1533.00,0.0251
1532.00,0.0238
1531.00,0.0228
1530.00,0.0219
1529.00,0.0210
1528.00,0.0202
1527.00,0.0193
1526.00,0.0184
1525.00,0.0178
1524.00,0.0174
1523.00,0.0170
1522.00,0.0165
1521.00,0.0160
1520.00,0.0158
1519.00,0.0155
1518.00,0.0151
1517.00,0.0148
1516.00,0.0145
1515.00,0.0142
1514.00,0.0140
1513.00,0.0138
1512.00,0.0138
1511.00,0.0138
1510.00,0.0138
1509.00,0.0138
1508.00,0.0138
1507.00,0.0136
1506.00,0.0135
1505.00,0.0136
1504.00,0.0137
1503.00,0.0139
1502.00,0.0141
1501.00,0.0146
1500.00,0.0154
1499.00,0.0164
1498.00,0.0174
1497.00,0.0187
1496.00,0.0199
1495.00,0.0206
1494.00,0.0210
1493.00,0.0213
1492.00,0.0215
1491.00,0.0215
1490.00,0.0215
1489.00,0.0216
1488.00,0.0219
1487.00,0.0223
1486.00,0.0227
1485.00,0.0234
1484.00,0.0242
1483.00,0.0251
1482.00,0.0263
1481.00,0.0278
1480.00,0.0294
1479.00,0.0310
1478.00,0.0328
1477.00,0.0351
1476.00,0.0378
1475.00,0.0408
1474.00,0.0447
1473.00,0.0502
1472.00,0.0564
1471.00,0.0623
1470.00,0.0678
1469.00,0.0736
1468.00,0.0800
1467.00,0.0870
1466.00,0.0950
1465.00,0.1035
1464.00,0.1109
1463.00,0.1159
1462.00,0.1190
1461.00,0.1212
1460.00,0.1227
1459.00,0.1237
1458.00,0.1245
1457.00,0.1251
1456.00,0.1249
1455.00,0.1239
1454.00,0.1226
1453.00,0.1206
1452.00,0.1178
1451.00,0.1140
1450.00,0.1090
1449.00,0.1023
1448.00,0.0940
1447.00,0.0853
1446.00,0.0775
1445.00,0.0709
1444.00,0.0653
1443.00,0.0606
1442.00,0.0572
1441.00,0.0548
1440.00,0.0534
1439.00,0.0529
1438.00,0.0531
1437.00,0.0532
1436.00,0.0523
1435.00,0.0499
1434.00,0.0464
1433.00,0.0424
1432.00,0.0382
1431.00,0.0344
1430.00,0.0315
1429.00,0.0293
1428.00,0.0278
1427.00,0.0269
1426.00,0.0264
1425.00,0.0261
1424.00,0.0258
1423.00,0.0257
1422.00,0.0258
1421.00,0.0258
1420.00,0.0257
1419.00,0.0255
1418.00,0.0252
1417.00,0.0246
1416.00,0.0240
1415.00,0.0235
1414.00,0.0230
1413.00,0.0224
1412.00,0.0219
1411.00,0.0214
1410.00,0.0211
1409.00,0.0207
1408.00,0.0203
1407.00,0.0200
1406.00,0.0198
1405.00,0.0196
1404.00,0.0194
1403.00,0.0193
1402.00,0.0193
1401.00,0.0194
1400.00,0.0194
1399.00,0.0194
1398.00,0.0195
1397.00,0.0195
1396.00,0.0195
1395.00,0.0197
1394.00,0.0200
1393.00,0.0203
1392.00,0.0207
1391.00,0.0214
1390.00,0.0224
1389.00,0.0237
1388.00,0.0257
1387.00,0.0287
1386.00,0.0328
1385.00,0.0381
1384.00,0.0456
1383.00,0.0561
1382.00,0.0704
1381.00,0.0888
1380.00,0.1114
1379.00,0.1368
1378.00,0.1608
1377.00,0.1775
1376.00,0.1820
1375.00,0.1718
1374.00,0.1498
1373.00,0.1241
1372.00,0.1013
1371.00,0.0827
1370.00,0.0681
1369.00,0.0570
1368.00,0.0493
1367.00,0.0445
1366.00,0.0420
1365.00,0.0409
1364.00,0.0411
1363.00,0.0423
1362.00,0.0441
1361.00,0.0460
1360.00,0.0475
1359.00,0.0479
1358.00,0.0470
1357.00,0.0448
1356.00,0.0416
1355.00,0.0380
1354.00,0.0345
1353.00,0.0316
1352.00,0.0292
1351.00,0.0272
1350.00,0.0256
1349.00,0.0242
1348.00,0.0231
1347.00,0.0221
1346.00,0.0213
1345.00,0.0206
1344.00,0.0200
1343.00,0.0195
1342.00,0.0189
1341.00,0.0185
1340.00,0.0181
1339.00,0.0177
1338.00,0.0175
1337.00,0.0174
1336.00,0.0174
1335.00,0.0174
1334.00,0.0176
1333.00,0.0179
1332.00,0.0182
1331.00,0.0185
1330.00,0.0186
1329.00,0.0185
1328.00,0.0181
1327.00,0.0176
1326.00,0.0171
1325.00,0.0166
1324.00,0.0162
1323.00,0.0158
1322.00,0.0155
1321.00,0.0153
1320.00,0.0152
1319.00,0.0150
1318.00,0.0148
1317.00,0.0146
1316.00,0.0144
1315.00,0.0142
1314.00,0.0141
1313.00,0.0141
1312.00,0.0142
1311.00,0.0144
1310.00,0.0148
1309.00,0.0154
1308.00,0.0163
1307.00,0.0174
1306.00,0.0186
1305.00,0.0195
1304.00,0.0198
1303.00,0.0197
1302.00,0.0193
1301.00,0.0189
1300.00,0.0186
1299.00,0.0185
1298.00,0.0185
1297.00,0.0185
1296.00,0.0184
1295.00,0.0182
1294.00,0.0180
1293.00,0.0176
1292.00,0.0172
1291.00,0.0168
1290.00,0.0164
1289.00,0.0160
1288.00,0.0156
1287.00,0.0153
1286.00,0.0149
1285.00,0.0146
1284.00,0.0144
1283.00,0.0141
1282.00,0.0140
1281.00,0.0138
1280.00,0.0137
1279.00,0.0135
1278.00,0.0134
1277.00,0.0133
1276.00,0.0132
1275.00,0.0132
1274.00,0.0131
1273.00,0.0131
1272.00,0.0132
1271.00,0.0132
1270.00,0.0134
1269.00,0.0136
1268.00,0.0139
1267.00,0.0142
1266.00,0.0146
1265.00,0.0150
1264.00,0.0154
1263.00,0.0158
1262.00,0.0163
1261.00,0.0168
1260.00,0.0174
1259.00,0.0181
1258.00,0.0188
1257.00,0.0193
1256.00,0.0195
1255.00,0.0192
1254.00,0.0186
1253.00,0.0177
1252.00,0.0169
1251.00,0.0161
1250.00,0.0155
1249.00,0.0151
1248.00,0.0148
1247.00,0.0146
1246.00,0.0144
1245.00,0.0142
1244.00,0.0141
1243.00,0.0140
1242.00,0.0139
1241.00,0.0139
1240.00,0.0138
1239.00,0.0138
1238.00,0.0138
1237.00,0.0137
1236.00,0.0137
1235.00,0.0137
1234.00,0.0137
1233.00,0.0137
1232.00,0.0137
1231.00,0.0138
1230.00,0.0140
1229.00,0.0141
1228.00,0.0143
1227.00,0.0144
1226.00,0.0147
1225.00,0.0151
1224.00,0.0155
1223.00,0.0160
1222.00,0.0164
1221.00,0.0167
1220.00,0.0169
1219.00,0.0169
1218.00,0.0168
1217.00,0.0166
1216.00,0.0163
1215.00,0.0159
1214.00,0.0155
1213.00,0.0152
1212.00,0.0149
1211.00,0.0146
1210.00,0.0144
1209.00,0.0142
1208.00,0.0141
1207.00,0.0140
1206.00,0.0140
1205.00,0.0139
1204.00,0.0139
1203.00,0.0140
1202.00,0.0141
1201.00,0.0141
1200.00,0.0142
1199.00,0.0142
1198.00,0.0142
1197.00,0.0142
1196.00,0.0142
1195.00,0.0143
1194.00,0.0143
1193.00,0.0143
1192.00,0.0142
1191.00,0.0142
1190.00,0.0143
1189.00,0.0142
1188.00,0.0142
1187.00,0.0141
1186.00,0.0141
1185.00,0.0141
1184.00,0.0142
1183.00,0.0143
1182.00,0.0145
1181.00,0.0148
1180.00,0.0152
1179.00,0.0157
1178.00,0.0164
1177.00,0.0172
1176.00,0.0184
1175.00,0.0199
1174.00,0.0219
1173.00,0.0245
1172.00,0.0274
1171.00,0.0307
1170.00,0.0337
1169.00,0.0360
1168.00,0.0373
1167.00,0.0375
1166.00,0.0366
1165.00,0.0352
1164.00,0.0336
1163.00,0.0320
1162.00,0.0307
1161.00,0.0296
1160.00,0.0288
1159.00,0.0283
1158.00,0.0279
1157.00,0.0277
1156.00,0.0275
1155.00,0.0275
1154.00,0.0274
1153.00,0.0273
1152.00,0.0270
1151.00,0.0264
1150.00,0.0257
1149.00,0.0249
1148.00,0.0241
1147.00,0.0234
1146.00,0.0226
1145.00,0.0219
1144.00,0.0212
1143.00,0.0206
1142.00,0.0200
1141.00,0.0194
1140.00,0.0190
1139.00,0.0186
1138.00,0.0183
1137.00,0.0181
1136.00,0.0179
1135.00,0.0177
1134.00,0.0176
1133.00,0.0176
1132.00,0.0177
1131.00,0.0178
1130.00,0.0180
1129.00,0.0182
1128.00,0.0185
1127.00,0.0188
1126.00,0.0191
1125.00,0.0193
1124.00,0.0195
1123.00,0.0197
1122.00,0.0199
1121.00,0.0201
1120.00,0.0202
1119.00,0.0204
1118.00,0.0207
1117.00,0.0208
1116.00,0.0210
1115.00,0.0212
1114.00,0.0213
1113.00,0.0214
1112.00,0.0216
1111.00,0.0218
1110.00,0.0219
1109.00,0.0221
1108.00,0.0223
1107.00,0.0227
1106.00,0.0232
1105.00,0.0238
1104.00,0.0243
1103.00,0.0246
1102.00,0.0245
1101.00,0.0242
1100.00,0.0236
1099.00,0.0230
1098.00,0.0226
1097.00,0.0222
1096.00,0.0220
1095.00,0.0218
1094.00,0.0214
1093.00,0.0210
1092.00,0.0206
1091.00,0.0201
1090.00,0.0196
1089.00,0.0193
1088.00,0.0190
1087.00,0.0189
1086.00,0.0188
1085.00,0.0186
1084.00,0.0184
1083.00,0.0182
1082.00,0.0180
1081.00,0.0177
1080.00,0.0175
1079.00,0.0174
1078.00,0.0172
1077.00,0.0171
1076.00,0.0170
1075.00,0.0168
1074.00,0.0165
1073.00,0.0162
1072.00,0.0160
1071.00,0.0158
1070.00,0.0158
1069.00,0.0157
1068.00,0.0157
1067.00,0.0156
1066.00,0.0155
1065.00,0.0155
1064.00,0.0154
1063.00,0.0154
1062.00,0.0154
1061.00,0.0153
1060.00,0.0152
1059.00,0.0151
1058.00,0.0150
1057.00,0.0149
1056.00,0.0149
1055.00,0.0149
1054.00,0.0150
1053.00,0.0152
1052.00,0.0154
1051.00,0.0156
1050.00,0.0159
1049.00,0.0161
1048.00,0.0164
1047.00,0.0168
1046.00,0.0172
1045.00,0.0174
1044.00,0.0174
1043.00,0.0172
1042.00,0.0170
1041.00,0.0168
1040.00,0.0167
1039.00,0.0168
1038.00,0.0170
1037.00,0.0171
1036.00,0.0171
1035.00,0.0171
1034.00,0.0169
1033.00,0.0167
1032.00,0.0163
1031.00,0.0159
1030.00,0.0156
1029.00,0.0153
1028.00,0.0151
1027.00,0.0149
1026.00,0.0148
1025.00,0.0148
1024.00,0.0148
1023.00,0.0148
1022.00,0.0149
1021.00,0.0149
1020.00,0.0149
1019.00,0.0150
1018.00,0.0151
1017.00,0.0153
1016.00,0.0155
1015.00,0.0158
1014.00,0.0162
1013.00,0.0165
1012.00,0.0168
1011.00,0.0170
1010.00,0.0170
1009.00,0.0170
1008.00,0.0170
1007.00,0.0173
1006.00,0.0179
1005.00,0.0189
1004.00,0.0205
1003.00,0.0227
1002.00,0.0258
1001.00,0.0295
1000.00,0.0333
999.00,0.0365
998.00,0.0380
997.00,0.0371
996.00,0.0343
995.00,0.0303
994.00,0.0261
993.00,0.0225
992.00,0.0198
991.00,0.0179
990.00,0.0166
989.00,0.0157
988.00,0.0151
987.00,0.0147
986.00,0.0145
985.00,0.0145
984.00,0.0148
983.00,0.0156
982.00,0.0167
981.00,0.0183
980.00,0.0205
979.00,0.0235
978.00,0.0272
977.00,0.0316
976.00,0.0362
975.00,0.0404
974.00,0.0433
973.00,0.0440
972.00,0.0423
971.00,0.0383
970.00,0.0333
969.00,0.0282
968.00,0.0239
967.00,0.0206
966.00,0.0182
965.00,0.0165
964.00,0.0152
963.00,0.0142
962.00,0.0135
961.00,0.0129
960.00,0.0125
959.00,0.0122
958.00,0.0119
957.00,0.0117
956.00,0.0115
955.00,0.0113
954.00,0.0111
953.00,0.0110
952.00,0.0109
951.00,0.0108
950.00,0.0107
949.00,0.0106
948.00,0.0106
947.00,0.0106
946.00,0.0107
945.00,0.0109
944.00,0.0112
943.00,0.0115
942.00,0.0119
941.00,0.0121
940.00,0.0121
939.00,0.0120
938.00,0.0116
937.00,0.0111
936.00,0.0106
935.00,0.0102
934.00,0.0100
933.00,0.0097
932.00,0.0096
931.00,0.0095
930.00,0.0094
929.00,0.0093
928.00,0.0092
927.00,0.0091
926.00,0.0090
925.00,0.0089
924.00,0.0088
923.00,0.0088
922.00,0.0088
921.00,0.0088
920.00,0.0088
919.00,0.0089
918.00,0.0090
917.00,0.0090
916.00,0.0090
915.00,0.0091
914.00,0.0092
913.00,0.0094
912.00,0.0096
911.00,0.0098
910.00,0.0099
909.00,0.0101
908.00,0.0103
907.00,0.0108
906.00,0.0116
905.00,0.0126
904.00,0.0139
903.00,0.0154
902.00,0.0171
901.00,0.0186
900.00,0.0197
899.00,0.0199
898.00,0.0191
897.00,0.0177
896.00,0.0161
895.00,0.0145
894.00,0.0132
893.00,0.0122
892.00,0.0114
891.00,0.0109
890.00,0.0106
889.00,0.0105
888.00,0.0106
887.00,0.0106
886.00,0.0106
885.00,0.0106
884.00,0.0105
883.00,0.0106
882.00,0.0107
881.00,0.0109
880.00,0.0112
879.00,0.0116
878.00,0.0119
877.00,0.0121
876.00,0.0121
875.00,0.0120
874.00,0.0118
873.00,0.0115
872.00,0.0112
871.00,0.0110
870.00,0.0109
869.00,0.0108
868.00,0.0108
867.00,0.0107
866.00,0.0107
865.00,0.0107
864.00,0.0107
863.00,0.0107
862.00,0.0108
861.00,0.0109
860.00,0.0111
859.00,0.0113
858.00,0.0114
857.00,0.0115
856.00,0.0117
855.00,0.0118
854.00,0.0121
853.00,0.0123
852.00,0.0126
851.00,0.0131
850.00,0.0137
849.00,0.0145
848.00,0.0155
847.00,0.0169
846.00,0.0191
845.00,0.0225
844.00,0.0271
843.00,0.0321
842.00,0.0358
841.00,0.0365
840.00,0.0338
839.00,0.0291
838.00,0.0242
837.00,0.0205
836.00,0.0181
835.00,0.0167
834.00,0.0159
833.00,0.0155
832.00,0.0153
831.00,0.0152
830.00,0.0151
829.00,0.0149
828.00,0.0146
827.00,0.0143
826.00,0.0141
825.00,0.0141
824.00,0.0141
823.00,0.0141
822.00,0.0141
821.00,0.0140
820.00,0.0140
819.00,0.0140
818.00,0.0143
817.00,0.0148
816.00,0.0155
815.00,0.0166
814.00,0.0181
813.00,0.0199
812.00,0.0218
811.00,0.0233
810.00,0.0245
809.00,0.0250
808.00,0.0247
807.00,0.0237
806.00,0.0222
805.00,0.0204
804.00,0.0188
803.00,0.0175
802.00,0.0165
801.00,0.0158
800.00,0.0152
799.00,0.0148
798.00,0.0144
797.00,0.0140
796.00,0.0137
795.00,0.0133
794.00,0.0130
793.00,0.0128
792.00,0.0126
791.00,0.0124
790.00,0.0122
789.00,0.0120
788.00,0.0117
787.00,0.0114
786.00,0.0110
785.00,0.0107
784.00,0.0104
783.00,0.0103
782.00,0.0102
781.00,0.0102
780.00,0.0102
779.00,0.0103
778.00,0.0103
777.00,0.0102
776.00,0.0101
775.00,0.0100
774.00,0.0100
773.00,0.0101
772.00,0.0100
771.00,0.0100
770.00,0.0100
769.00,0.0102
768.00,0.0103
767.00,0.0104
766.00,0.0104
765.00,0.0103
764.00,0.0101
763.00,0.0101
762.00,0.0101
761.00,0.0102
760.00,0.0103
759.00,0.0105
758.00,0.0106
757.00,0.0107
756.00,0.0108
755.00,0.0109
754.00,0.0110
753.00,0.0110
752.00,0.0112
751.00,0.0114
750.00,0.0116
749.00,0.0118
748.00,0.0119
747.00,0.0120
746.00,0.0122
745.00,0.0125
744.00,0.0127
743.00,0.0129
742.00,0.0131
741.00,0.0134
740.00,0.0138
739.00,0.0142
738.00,0.0147
737.00,0.0153
736.00,0.0159
735.00,0.0164
734.00,0.0169
733.00,0.0176
732.00,0.0183
731.00,0.0192
730.00,0.0199
729.00,0.0204
728.00,0.0205
727.00,0.0204
726.00,0.0202
725.00,0.0203
724.00,0.0206
723.00,0.0212
722.00,0.0218
721.00,0.0221
720.00,0.0218
719.00,0.0208
718.00,0.0194
717.00,0.0180
716.00,0.0169
715.00,0.0161
714.00,0.0155
713.00,0.0151
712.00,0.0148
711.00,0.0147
710.00,0.0147
709.00,0.0147
708.00,0.0148
707.00,0.0147
706.00,0.0146
705.00,0.0144
704.00,0.0143
703.00,0.0141
702.00,0.0139
701.00,0.0136
700.00,0.0132
699.00,0.0127
698.00,0.0123
697.00,0.0120
696.00,0.0118
695.00,0.0117
694.00,0.0116
693.00,0.0115
692.00,0.0115
691.00,0.0116
690.00,0.0117
689.00,0.0117
688.00,0.0116
687.00,0.0114
686.00,0.0113
685.00,0.0114
684.00,0.0116
683.00,0.0118
682.00,0.0119
681.00,0.0119
680.00,0.0118
679.00,0.0118
678.00,0.0119
677.00,0.0120
676.00,0.0122
675.00,0.0122
674.00,0.0123
673.00,0.0123
672.00,0.0123
671.00,0.0124
670.00,0.0125
669.00,0.0125
668.00,0.0124
667.00,0.0123
666.00,0.0122
665.00,0.0121
664.00,0.0120
663.00,0.0118
662.00,0.0118
661.00,0.0117
660.00,0.0116
659.00,0.0116
658.00,0.0115
657.00,0.0115
656.00,0.0115
655.00,0.0115
654.00,0.0115
653.00,0.0114
652.00,0.0112
651.00,0.0111
650.00,0.0112
649.00,0.0113
648.00,0.0115
647.00,0.0117
646.00,0.0117
645.00,0.0117
644.00,0.0116
643.00,0.0116
642.00,0.0117
641.00,0.0120
640.00,0.0122
639.00,0.0123
638.00,0.0123
637.00,0.0124
636.00,0.0125
635.00,0.0125
634.00,0.0125
633.00,0.0124
632.00,0.0124
631.00,0.0125
630.00,0.0126
629.00,0.0127
628.00,0.0126
627.00,0.0125
626.00,0.0123
625.00,0.0122
624.00,0.0122
623.00,0.0123
622.00,0.0125
621.00,0.0128
620.00,0.0129
619.00,0.0129
618.00,0.0127
617.00,0.0125
616.00,0.0124
615.00,0.0124
614.00,0.0126
613.00,0.0128
612.00,0.0129
611.00,0.0130
610.00,0.0129
609.00,0.0127
608.00,0.0126
607.00,0.0127
606.00,0.0128
605.00,0.0130
604.00,0.0130
603.00,0.0128
602.00,0.0126
601.00,0.0124
600.00,0.0123
599.00,0.0123
598.00,0.0123
597.00,0.0123
596.00,0.0125
595.00,0.0127
594.00,0.0129
593.00,0.0130
592.00,0.0128
591.00,0.0125
590.00,0.0122
589.00,0.0121
588.00,0.0123
587.00,0.0125
586.00,0.0128
585.00,0.0130
584.00,0.0132
583.00,0.0133
582.00,0.0133
581.00,0.0132
580.00,0.0132
579.00,0.0131
578.00,0.0129
577.00,0.0125
576.00,0.0121
575.00,0.0119
574.00,0.0120
573.00,0.0122
572.00,0.0122
571.00,0.0123
570.00,0.0123
569.00,0.0124
568.00,0.0123
567.00,0.0121
566.00,0.0120
565.00,0.0120
564.00,0.0120
563.00,0.0121
562.00,0.0123
561.00,0.0124
560.00,0.0125
559.00,0.0125
558.00,0.0125
557.00,0.0123
556.00,0.0119
555.00,0.0116
554.00,0.0116
553.00,0.0119
552.00,0.0123
551.00,0.0125
550.00,0.0125
549.00,0.0123
548.00,0.0121
547.00,0.0121
546.00,0.0121
545.00,0.0120
544.00,0.0120
543.00,0.0118
542.00,0.0116
541.00,0.0113
540.00,0.0112
539.00,0.0116
538.00,0.0123
537.00,0.0130
536.00,0.0135
535.00,0.0138
534.00,0.0138
533.00,0.0138
532.00,0.0138
531.00,0.0138
530.00,0.0139
529.00,0.0139
528.00,0.0138
527.00,0.0136
526.00,0.0134
525.00,0.0132
524.00,0.0131
523.00,0.0130
522.00,0.0128
521.00,0.0126
520.00,0.0123
519.00,0.0122
518.00,0.0122
517.00,0.0123
516.00,0.0124
515.00,0.0122
514.00,0.0120
513.00,0.0117
512.00,0.0116
511.00,0.0115
510.00,0.0114
509.00,0.0112
508.00,0.0111
507.00,0.0114
506.00,0.0122
505.00,0.0129
504.00,0.0131
503.00,0.0128
502.00,0.0124
501.00,0.0122
500.00,0.0121
499.00,0.0118
498.00,0.0113
497.00,0.0108
496.00,0.0106
495.00,0.0105
494.00,0.0106
493.00,0.0108
492.00,0.0113
491.00,0.0117
490.00,0.0119
489.00,0.0119
488.00,0.0119
487.00,0.0121
486.00,0.0121
485.00,0.0119
484.00,0.0116
483.00,0.0118
482.00,0.0126
481.00,0.0133
480.00,0.0136
479.00,0.0135
478.00,0.0134
477.00,0.0134
476.00,0.0136
475.00,0.0140
474.00,0.0146
473.00,0.0149
472.00,0.0147
471.00,0.0140
470.00,0.0131
469.00,0.0122
468.00,0.0116
467.00,0.0113
466.00,0.0113
465.00,0.0113
464.00,0.0115
463.00,0.0125
462.00,0.0147
461.00,0.0178
460.00,0.0207
459.00,0.0223
458.00,0.0218
457.00,0.0200
456.00,0.0182
455.00,0.0171
454.00,0.0166
453.00,0.0161
452.00,0.0156
451.00,0.0154
450.00,0.0154
