Created as New Dataset,Sample 142 By Administrator Date Friday, September 05 2025
cm-1,A
4000.00,0.0011
3999.00,0.0011
3998.00,0.0011
3997.00,0.0011
3996.00,0.0011
3995.00,0.0011
3994.00,0.0011
3993.00,0.0011
3992.00,0.0011
3991.00,0.0011
3990.00,0.0010
3989.00,0.0010
3988.00,0.0010
3987.00,0.0010
3986.00,0.0009
3985.00,0.0009
3984.00,0.0009
3983.00,0.0010
3982.00,0.0010
3981.00,0.0009
3980.00,0.0009
3979.00,0.0010
3978.00,0.0010
3977.00,0.0010
3976.00,0.0010
3975.00,0.0010
3974.00,0.0009
3973.00,0.0009
3972.00,0.0009
3971.00,0.0009
3970.00,0.0009
3969.00,0.0009
3968.00,0.0009
3967.00,0.0009
3966.00,0.0009
3965.00,0.0009
3964.00,0.0008
3963.00,0.0008
3962.00,0.0009
3961.00,0.0009
3960.00,0.0009
3959.00,0.0009
3958.00,0.0009
3957.00,0.0009
3956.00,0.0009
3955.00,0.0008
3954.00,0.0008
3953.00,0.0008
3952.00,0.0008
3951.00,0.0009
3950.00,0.0009
3949.00,0.0009
3948.00,0.0008
3947.00,0.0008
3946.00,0.0008
3945.00,0.0008
3944.00,0.0008
3943.00,0.0008
3942.00,0.0008
3941.00,0.0008
3940.00,0.0008
3939.00,0.0008
3938.00,0.0008
3937.00,0.0008
3936.00,0.0008
3935.00,0.0008
3934.00,0.0008
3933.00,0.0008
3932.00,0.0009
3931.00,0.0009
3930.00,0.0009
3929.00,0.0009
3928.00,0.0009
3927.00,0.0009
3926.00,0.0009
3925.00,0.0009
3924.00,0.0009
3923.00,0.0009
3922.00,0.0009
3921.00,0.0009
3920.00,0.0009
3919.00,0.0008
3918.00,0.0008
3917.00,0.0009
3916.00,0.0009
3915.00,0.0009
3914.00,0.0009
3913.00,0.0009
3912.00,0.0009
3911.00,0.0009
3910.00,0.0009
3909.00,0.0010
3908.00,0.0010
3907.00,0.0009
3906.00,0.0009
3905.00,0.0008
3904.00,0.0008
3903.00,0.0008
3902.00,0.0008
3901.00,0.0008
3900.00,0.0008
3899.00,0.0008
3898.00,0.0009
3897.00,0.0009
3896.00,0.0009
3895.00,0.0009
3894.00,0.0009
3893.00,0.0009
3892.00,0.0009
3891.00,0.0009
3890.00,0.0009
3889.00,0.0009
3888.00,0.0009
3887.00,0.0009
3886.00,0.0009
3885.00,0.0009
3884.00,0.0009
3883.00,0.0010
3882.00,0.0010
3881.00,0.0010
3880.00,0.0010
3879.00,0.0010
3878.00,0.0010
3877.00,0.0009
3876.00,0.0009
3875.00,0.0008
3874.00,0.0008
3873.00,0.0009
3872.00,0.0008
3871.00,0.0008
3870.00,0.0008
3869.00,0.0009
3868.00,0.0009
3867.00,0.0009
3866.00,0.0009
3865.00,0.0009
3864.00,0.0009
3863.00,0.0009
3862.00,0.0008
3861.00,0.0008
3860.00,0.0008
3859.00,0.0008
3858.00,0.0009
3857.00,0.0010
3856.00,0.0011
3855.00,0.0011
3854.00,0.0011
3853.00,0.0011
3852.00,0.0011
3851.00,0.0010
3850.00,0.0009
3849.00,0.0009
3848.00,0.0008
3847.00,0.0008
3846.00,0.0008
3845.00,0.0008
3844.00,0.0008
3843.00,0.0009
3842.00,0.0009
3841.00,0.0010
3840.00,0.0010
3839.00,0.0011
3838.00,0.0011
3837.00,0.0010
3836.00,0.0010
3835.00,0.0009
3834.00,0.0009
3833.00,0.0008
3832.00,0.0008
3831.00,0.0008
3830.00,0.0008
3829.00,0.0008
3828.00,0.0008
3827.00,0.0008
3826.00,0.0009
3825.00,0.0009
3824.00,0.0010
3823.00,0.0010
3822.00,0.0010
3821.00,0.0009
3820.00,0.0010
3819.00,0.0010
3818.00,0.0009
3817.00,0.0009
3816.00,0.0009
3815.00,0.0009
3814.00,0.0009
3813.00,0.0008
3812.00,0.0008
3811.00,0.0008
3810.00,0.0009
3809.00,0.0009
3808.00,0.0009
3807.00,0.0009
3806.00,0.0010
3805.00,0.0010
3804.00,0.0011
3803.00,0.0011
3802.00,0.0011
3801.00,0.0011
3800.00,0.0011
3799.00,0.0010
3798.00,0.0009
3797.00,0.0009
3796.00,0.0009
3795.00,0.0009
3794.00,0.0008
3793.00,0.0008
3792.00,0.0008
3791.00,0.0008
3790.00,0.0008
3789.00,0.0008
3788.00,0.0008
3787.00,0.0008
3786.00,0.0008
3785.00,0.0008
3784.00,0.0008
3783.00,0.0008
3782.00,0.0008
3781.00,0.0008
3780.00,0.0008
3779.00,0.0009
3778.00,0.0009
3777.00,0.0009
3776.00,0.0009
3775.00,0.0009
3774.00,0.0009
3773.00,0.0009
3772.00,0.0009
3771.00,0.0009
3770.00,0.0008
3769.00,0.0008
3768.00,0.0008
3767.00,0.0008
3766.00,0.0007
3765.00,0.0008
3764.00,0.0008
3763.00,0.0008
3762.00,0.0008
3761.00,0.0008
3760.00,0.0008
3759.00,0.0009
3758.00,0.0009
3757.00,0.0010
3756.00,0.0010
3755.00,0.0011
3754.00,0.0011
3753.00,0.0012
3752.00,0.0012
3751.00,0.0013
3750.00,0.0013
3749.00,0.0012
3748.00,0.0012
3747.00,0.0012
3746.00,0.0011
3745.00,0.0010
3744.00,0.0009
3743.00,0.0009
3742.00,0.0009
3741.00,0.0008
3740.00,0.0008
3739.00,0.0008
3738.00,0.0008
3737.00,0.0008
3736.00,0.0009
3735.00,0.0009
3734.00,0.0009
3733.00,0.0008
3732.00,0.0008
3731.00,0.0008
3730.00,0.0008
3729.00,0.0007
3728.00,0.0007
3727.00,0.0007
3726.00,0.0007
3725.00,0.0007
3724.00,0.0007
3723.00,0.0007
3722.00,0.0007
3721.00,0.0007
3720.00,0.0008
3719.00,0.0008
3718.00,0.0008
3717.00,0.0008
3716.00,0.0008
3715.00,0.0008
3714.00,0.0008
3713.00,0.0008
3712.00,0.0009
3711.00,0.0009
3710.00,0.0009
3709.00,0.0009
3708.00,0.0009
3707.00,0.0009
3706.00,0.0009
3705.00,0.0009
3704.00,0.0008
3703.00,0.0008
3702.00,0.0007
3701.00,0.0008
3700.00,0.0008
3699.00,0.0009
3698.00,0.0009
3697.00,0.0009
3696.00,0.0010
3695.00,0.0010
3694.00,0.0010
3693.00,0.0011
3692.00,0.0012
3691.00,0.0012
3690.00,0.0012
3689.00,0.0012
3688.00,0.0011
3687.00,0.0011
3686.00,0.0011
3685.00,0.0011
3684.00,0.0011
3683.00,0.0012
3682.00,0.0012
3681.00,0.0012
3680.00,0.0013
3679.00,0.0013
3678.00,0.0014
3677.00,0.0014
3676.00,0.0015
3675.00,0.0015
3674.00,0.0016
3673.00,0.0016
3672.00,0.0015
3671.00,0.0015
3670.00,0.0015
3669.00,0.0014
3668.00,0.0014
3667.00,0.0013
3666.00,0.0012
3665.00,0.0012
3664.00,0.0012
3663.00,0.0012
3662.00,0.0012
3661.00,0.0013
3660.00,0.0013
3659.00,0.0014
3658.00,0.0014
3657.00,0.0014
3656.00,0.0014
3655.00,0.0015
3654.00,0.0015
3653.00,0.0015
3652.00,0.0015
3651.00,0.0016
3650.00,0.0016
3649.00,0.0017
3648.00,0.0017
3647.00,0.0017
3646.00,0.0017
3645.00,0.0017
3644.00,0.0017
3643.00,0.0017
3642.00,0.0017
3641.00,0.0018
3640.00,0.0018
3639.00,0.0019
3638.00,0.0020
3637.00,0.0020
3636.00,0.0021
3635.00,0.0021
3634.00,0.0022
3633.00,0.0022
3632.00,0.0022
3631.00,0.0021
3630.00,0.0020
3629.00,0.0021
3628.00,0.0022
3627.00,0.0023
3626.00,0.0023
3625.00,0.0023
3624.00,0.0024
3623.00,0.0024
3622.00,0.0025
3621.00,0.0025
3620.00,0.0026
3619.00,0.0026
3618.00,0.0027
3617.00,0.0027
3616.00,0.0028
3615.00,0.0028
3614.00,0.0029
3613.00,0.0029
3612.00,0.0029
3611.00,0.0029
3610.00,0.0029
3609.00,0.0030
3608.00,0.0031
3607.00,0.0032
3606.00,0.0032
3605.00,0.0033
3604.00,0.0033
3603.00,0.0034
3602.00,0.0034
3601.00,0.0035
3600.00,0.0035
3599.00,0.0036
3598.00,0.0037
3597.00,0.0038
3596.00,0.0039
3595.00,0.0039
3594.00,0.0040
3593.00,0.0040
3592.00,0.0040
3591.00,0.0041
3590.00,0.0041
3589.00,0.0042
3588.00,0.0043
3587.00,0.0044
3586.00,0.0044
3585.00,0.0045
3584.00,0.0045
3583.00,0.0046
3582.00,0.0046
3581.00,0.0047
3580.00,0.0048
3579.00,0.0049
3578.00,0.0050
3577.00,0.0050
3576.00,0.0051
3575.00,0.0052
3574.00,0.0052
3573.00,0.0053
3572.00,0.0053
3571.00,0.0054
3570.00,0.0054
3569.00,0.0054
3568.00,0.0055
3567.00,0.0056
3566.00,0.0057
3565.00,0.0058
3564.00,0.0059
3563.00,0.0060
3562.00,0.0061
3561.00,0.0062
3560.00,0.0062
3559.00,0.0063
3558.00,0.0064
3557.00,0.0064
3556.00,0.0065
3555.00,0.0066
3554.00,0.0067
3553.00,0.0068
3552.00,0.0068
3551.00,0.0069
3550.00,0.0069
3549.00,0.0070
3548.00,0.0070
3547.00,0.0071
3546.00,0.0072
3545.00,0.0073
3544.00,0.0074
3543.00,0.0075
3542.00,0.0076
3541.00,0.0077
3540.00,0.0078
3539.00,0.0078
3538.00,0.0079
3537.00,0.0080
3536.00,0.0081
3535.00,0.0082
3534.00,0.0083
3533.00,0.0083
3532.00,0.0084
3531.00,0.0086
3530.00,0.0087
3529.00,0.0087
3528.00,0.0088
3527.00,0.0088
3526.00,0.0089
3525.00,0.0090
3524.00,0.0091
3523.00,0.0092
3522.00,0.0093
3521.00,0.0094
3520.00,0.0094
3519.00,0.0095
3518.00,0.0096
3517.00,0.0097
3516.00,0.0097
3515.00,0.0098
3514.00,0.0099
3513.00,0.0100
3512.00,0.0101
3511.00,0.0102
3510.00,0.0104
3509.00,0.0105
3508.00,0.0106
3507.00,0.0106
3506.00,0.0107
3505.00,0.0108
3504.00,0.0108
3503.00,0.0109
3502.00,0.0110
3501.00,0.0111
3500.00,0.0112
3499.00,0.0113
3498.00,0.0114
3497.00,0.0116
3496.00,0.0117
3495.00,0.0117
3494.00,0.0118
3493.00,0.0119
3492.00,0.0119
3491.00,0.0120
3490.00,0.0120
3489.00,0.0121
3488.00,0.0122
3487.00,0.0123
3486.00,0.0124
3485.00,0.0125
3484.00,0.0126
3483.00,0.0128
3482.00,0.0129
3481.00,0.0130
3480.00,0.0131
3479.00,0.0131
3478.00,0.0132
3477.00,0.0132
3476.00,0.0133
3475.00,0.0134
3474.00,0.0134
3473.00,0.0135
3472.00,0.0136
3471.00,0.0136
3470.00,0.0137
3469.00,0.0137
3468.00,0.0138
3467.00,0.0139
3466.00,0.0141
3465.00,0.0141
3464.00,0.0142
3463.00,0.0142
3462.00,0.0143
3461.00,0.0144
3460.00,0.0144
3459.00,0.0145
3458.00,0.0146
3457.00,0.0147
3456.00,0.0147
3455.00,0.0148
3454.00,0.0148
3453.00,0.0148
3452.00,0.0149
3451.00,0.0150
3450.00,0.0151
3449.00,0.0152
3448.00,0.0153
3447.00,0.0153
3446.00,0.0154
3445.00,0.0154
3444.00,0.0155
3443.00,0.0156
3442.00,0.0156
3441.00,0.0157
3440.00,0.0157
3439.00,0.0158
3438.00,0.0159
3437.00,0.0159
3436.00,0.0160
3435.00,0.0161
3434.00,0.0161
3433.00,0.0162
3432.00,0.0163
3431.00,0.0163
3430.00,0.0164
3429.00,0.0165
3428.00,0.0166
3427.00,0.0166
3426.00,0.0166
3425.00,0.0166
3424.00,0.0166
3423.00,0.0167
3422.00,0.0168
3421.00,0.0168
3420.00,0.0169
3419.00,0.0170
3418.00,0.0171
3417.00,0.0172
3416.00,0.0172
3415.00,0.0173
3414.00,0.0173
3413.00,0.0174
3412.00,0.0175
3411.00,0.0175
3410.00,0.0176
3409.00,0.0177
3408.00,0.0177
3407.00,0.0178
3406.00,0.0178
3405.00,0.0179
3404.00,0.0180
3403.00,0.0181
3402.00,0.0181
3401.00,0.0182
3400.00,0.0182
3399.00,0.0183
3398.00,0.0183
3397.00,0.0184
3396.00,0.0184
3395.00,0.0184
3394.00,0.0184
3393.00,0.0184
3392.00,0.0184
3391.00,0.0184
3390.00,0.0184
3389.00,0.0184
3388.00,0.0185
3387.00,0.0185
3386.00,0.0185
3385.00,0.0186
3384.00,0.0186
3383.00,0.0186
3382.00,0.0186
3381.00,0.0186
3380.00,0.0186
3379.00,0.0186
3378.00,0.0186
3377.00,0.0186
3376.00,0.0186
3375.00,0.0185
3374.00,0.0186
3373.00,0.0186
3372.00,0.0186
3371.00,0.0186
3370.00,0.0186
3369.00,0.0186
3368.00,0.0186
3367.00,0.0186
3366.00,0.0187
3365.00,0.0187
3364.00,0.0187
3363.00,0.0187
3362.00,0.0187
3361.00,0.0187
3360.00,0.0187
3359.00,0.0187
3358.00,0.0187
3357.00,0.0187
3356.00,0.0187
3355.00,0.0187
3354.00,0.0188
3353.00,0.0188
3352.00,0.0188
3351.00,0.0188
3350.00,0.0187
3349.00,0.0187
3348.00,0.0186
3347.00,0.0186
3346.00,0.0186
3345.00,0.0187
3344.00,0.0187
3343.00,0.0188
3342.00,0.0188
3341.00,0.0188
3340.00,0.0187
3339.00,0.0187
3338.00,0.0187
3337.00,0.0187
3336.00,0.0186
3335.00,0.0186
3334.00,0.0186
3333.00,0.0186
3332.00,0.0186
3331.00,0.0185
3330.00,0.0185
3329.00,0.0185
3328.00,0.0185
3327.00,0.0185
3326.00,0.0185
3325.00,0.0185
3324.00,0.0185
3323.00,0.0185
3322.00,0.0185
3321.00,0.0185
3320.00,0.0185
3319.00,0.0185
3318.00,0.0185
3317.00,0.0185
3316.00,0.0185
3315.00,0.0184
3314.00,0.0184
3313.00,0.0183
3312.00,0.0183
3311.00,0.0182
3310.00,0.0182
3309.00,0.0182
3308.00,0.0182
3307.00,0.0181
3306.00,0.0181
3305.00,0.0180
3304.00,0.0180
3303.00,0.0179
3302.00,0.0179
3301.00,0.0179
3300.00,0.0178
3299.00,0.0178
3298.00,0.0177
3297.00,0.0177
3296.00,0.0176
3295.00,0.0175
3294.00,0.0174
3293.00,0.0173
3292.00,0.0172
3291.00,0.0172
3290.00,0.0171
3289.00,0.0170
3288.00,0.0170
3287.00,0.0169
3286.00,0.0168
3285.00,0.0168
3284.00,0.0167
3283.00,0.0166
3282.00,0.0166
3281.00,0.0165
3280.00,0.0164
3279.00,0.0164
3278.00,0.0163
3277.00,0.0163
3276.00,0.0162
3275.00,0.0161
3274.00,0.0160
3273.00,0.0160
3272.00,0.0159
3271.00,0.0159
3270.00,0.0158
3269.00,0.0158
3268.00,0.0157
3267.00,0.0156
3266.00,0.0156
3265.00,0.0155
3264.00,0.0155
3263.00,0.0154
3262.00,0.0154
3261.00,0.0153
3260.00,0.0152
3259.00,0.0152
3258.00,0.0151
3257.00,0.0150
3256.00,0.0150
3255.00,0.0149
3254.00,0.0148
3253.00,0.0147
3252.00,0.0147
3251.00,0.0146
3250.00,0.0145
3249.00,0.0145
3248.00,0.0144
3247.00,0.0144
3246.00,0.0143
3245.00,0.0143
3244.00,0.0143
3243.00,0.0143
3242.00,0.0142
3241.00,0.0142
3240.00,0.0141
3239.00,0.0141
3238.00,0.0140
3237.00,0.0140
3236.00,0.0140
3235.00,0.0139
3234.00,0.0139
3233.00,0.0139
3232.00,0.0138
3231.00,0.0138
3230.00,0.0137
3229.00,0.0137
3228.00,0.0137
3227.00,0.0137
3226.00,0.0137
3225.00,0.0137
3224.00,0.0136
3223.00,0.0136
3222.00,0.0136
3221.00,0.0136
3220.00,0.0136
3219.00,0.0137
3218.00,0.0137
3217.00,0.0138
3216.00,0.0138
3215.00,0.0138
3214.00,0.0138
3213.00,0.0138
3212.00,0.0138
3211.00,0.0138
3210.00,0.0138
3209.00,0.0137
3208.00,0.0137
3207.00,0.0137
3206.00,0.0137
3205.00,0.0137
3204.00,0.0137
3203.00,0.0137
3202.00,0.0137
3201.00,0.0137
3200.00,0.0137
3199.00,0.0136
3198.00,0.0136
3197.00,0.0136
3196.00,0.0135
3195.00,0.0135
3194.00,0.0135
3193.00,0.0134
3192.00,0.0134
3191.00,0.0134
3190.00,0.0134
3189.00,0.0134
3188.00,0.0133
3187.00,0.0132
3186.00,0.0131
3185.00,0.0131
3184.00,0.0130
3183.00,0.0130
3182.00,0.0130
3181.00,0.0129
3180.00,0.0128
3179.00,0.0127
3178.00,0.0126
3177.00,0.0125
3176.00,0.0125
3175.00,0.0124
3174.00,0.0123
3173.00,0.0122
3172.00,0.0121
3171.00,0.0120
3170.00,0.0119
3169.00,0.0119
3168.00,0.0119
3167.00,0.0119
3166.00,0.0118
3165.00,0.0118
3164.00,0.0117
3163.00,0.0116
3162.00,0.0116
3161.00,0.0115
3160.00,0.0115
3159.00,0.0114
3158.00,0.0114
3157.00,0.0113
3156.00,0.0113
3155.00,0.0112
3154.00,0.0111
3153.00,0.0110
3152.00,0.0109
3151.00,0.0109
3150.00,0.0109
3149.00,0.0109
3148.00,0.0109
3147.00,0.0109
3146.00,0.0108
3145.00,0.0107
3144.00,0.0106
3143.00,0.0106
3142.00,0.0105
3141.00,0.0105
3140.00,0.0104
3139.00,0.0104
3138.00,0.0104
3137.00,0.0104
3136.00,0.0104
3135.00,0.0104
3134.00,0.0103
3133.00,0.0103
3132.00,0.0102
3131.00,0.0101
3130.00,0.0101
3129.00,0.0100
3128.00,0.0100
3127.00,0.0099
3126.00,0.0098
3125.00,0.0098
3124.00,0.0097
3123.00,0.0097
3122.00,0.0096
3121.00,0.0096
3120.00,0.0095
3119.00,0.0095
3118.00,0.0094
3117.00,0.0094
3116.00,0.0093
3115.00,0.0093
3114.00,0.0092
3113.00,0.0091
3112.00,0.0091
3111.00,0.0090
3110.00,0.0090
3109.00,0.0090
3108.00,0.0089
3107.00,0.0089
3106.00,0.0088
3105.00,0.0087
3104.00,0.0086
3103.00,0.0086
3102.00,0.0085
3101.00,0.0085
3100.00,0.0084
3099.00,0.0083
3098.00,0.0083
3097.00,0.0082
3096.00,0.0082
3095.00,0.0082
3094.00,0.0081
3093.00,0.0081
3092.00,0.0081
3091.00,0.0080
3090.00,0.0080
3089.00,0.0079
3088.00,0.0079
3087.00,0.0078
3086.00,0.0078
3085.00,0.0077
3084.00,0.0077
3083.00,0.0077
3082.00,0.0076
3081.00,0.0076
3080.00,0.0076
3079.00,0.0076
3078.00,0.0076
3077.00,0.0076
3076.00,0.0076
3075.00,0.0076
3074.00,0.0077
3073.00,0.0077
3072.00,0.0077
3071.00,0.0077
3070.00,0.0077
3069.00,0.0077
3068.00,0.0078
3067.00,0.0077
3066.00,0.0077
3065.00,0.0077
3064.00,0.0077
3063.00,0.0077
3062.00,0.0077
3061.00,0.0077
3060.00,0.0077
3059.00,0.0077
3058.00,0.0077
3057.00,0.0076
3056.00,0.0076
3055.00,0.0076
3054.00,0.0075
3053.00,0.0075
3052.00,0.0075
3051.00,0.0076
3050.00,0.0076
3049.00,0.0076
3048.00,0.0077
3047.00,0.0077
3046.00,0.0077
3045.00,0.0077
3044.00,0.0077
3043.00,0.0077
3042.00,0.0077
3041.00,0.0078
3040.00,0.0078
3039.00,0.0079
3038.00,0.0080
3037.00,0.0080
3036.00,0.0080
3035.00,0.0080
3034.00,0.0081
3033.00,0.0081
3032.00,0.0082
3031.00,0.0082
3030.00,0.0083
3029.00,0.0083
3028.00,0.0083
3027.00,0.0083
3026.00,0.0083
3025.00,0.0083
3024.00,0.0084
3023.00,0.0084
3022.00,0.0084
3021.00,0.0085
3020.00,0.0085
3019.00,0.0086
3018.00,0.0087
3017.00,0.0088
3016.00,0.0088
3015.00,0.0089
3014.00,0.0089
3013.00,0.0090
3012.00,0.0091
3011.00,0.0092
3010.00,0.0093
3009.00,0.0095
3008.00,0.0096
3007.00,0.0097
3006.00,0.0098
3005.00,0.0099
3004.00,0.0101
3003.00,0.0102
3002.00,0.0104
3001.00,0.0105
3000.00,0.0107
2999.00,0.0110
2998.00,0.0112
2997.00,0.0115
2996.00,0.0119
2995.00,0.0122
2994.00,0.0126
2993.00,0.0130
2992.00,0.0134
2991.00,0.0140
2990.00,0.0146
2989.00,0.0153
2988.00,0.0160
2987.00,0.0168
2986.00,0.0177
2985.00,0.0186
2984.00,0.0196
2983.00,0.0208
2982.00,0.0221
2981.00,0.0235
2980.00,0.0252
2979.00,0.0272
2978.00,0.0295
2977.00,0.0321
2976.00,0.0350
2975.00,0.0383
2974.00,0.0420
2973.00,0.0462
2972.00,0.0510
2971.00,0.0564
2970.00,0.0625
2969.00,0.0691
2968.00,0.0764
2967.00,0.0841
2966.00,0.0922
2965.00,0.1004
2964.00,0.1085
2963.00,0.1159
2962.00,0.1225
2961.00,0.1280
2960.00,0.1323
2959.00,0.1358
2958.00,0.1389
2957.00,0.1420
2956.00,0.1455
2955.00,0.1497
2954.00,0.1543
2953.00,0.1590
2952.00,0.1631
2951.00,0.1658
2950.00,0.1662
2949.00,0.1640
2948.00,0.1589
2947.00,0.1515
2946.00,0.1426
2945.00,0.1331
2944.00,0.1242
2943.00,0.1166
2942.00,0.1108
2941.00,0.1071
2940.00,0.1053
2939.00,0.1054
2938.00,0.1071
2937.00,0.1103
2936.00,0.1149
2935.00,0.1207
2934.00,0.1276
2933.00,0.1356
2932.00,0.1444
2931.00,0.1539
2930.00,0.1638
2929.00,0.1739
2928.00,0.1839
2927.00,0.1935
2926.00,0.2027
2925.00,0.2114
2924.00,0.2197
2923.00,0.2276
2922.00,0.2350
2921.00,0.2418
2920.00,0.2475
2919.00,0.2513
2918.00,0.2526
2917.00,0.2507
2916.00,0.2457
2915.00,0.2381
2914.00,0.2287
2913.00,0.2187
2912.00,0.2089
2911.00,0.2000
2910.00,0.1921
2909.00,0.1851
2908.00,0.1788
2907.00,0.1730
2906.00,0.1674
2905.00,0.1618
2904.00,0.1561
2903.00,0.1503
2902.00,0.1446
2901.00,0.1389
2900.00,0.1333
2899.00,0.1280
2898.00,0.1231
2897.00,0.1185
2896.00,0.1143
2895.00,0.1106
2894.00,0.1074
2893.00,0.1047
2892.00,0.1026
2891.00,0.1009
2890.00,0.0996
2889.00,0.0988
2888.00,0.0982
2887.00,0.0979
2886.00,0.0979
2885.00,0.0983
2884.00,0.0991
2883.00,0.1003
2882.00,0.1020
2881.00,0.1040
2880.00,0.1060
2879.00,0.1078
2878.00,0.1091
2877.00,0.1097
2876.00,0.1098
2875.00,0.1096
2874.00,0.1094
2873.00,0.1095
2872.00,0.1100
2871.00,0.1111
2870.00,0.1125
2869.00,0.1139
2868.00,0.1147
2867.00,0.1145
2866.00,0.1128
2865.00,0.1094
2864.00,0.1048
2863.00,0.0996
2862.00,0.0945
2861.00,0.0902
2860.00,0.0870
2859.00,0.0851
2858.00,0.0843
2857.00,0.0844
2856.00,0.0851
2855.00,0.0863
2854.00,0.0877
2853.00,0.0892
2852.00,0.0906
2851.00,0.0916
2850.00,0.0919
2849.00,0.0917
2848.00,0.0911
2847.00,0.0906
2846.00,0.0907
2845.00,0.0917
2844.00,0.0939
2843.00,0.0969
2842.00,0.1005
2841.00,0.1041
2840.00,0.1072
2839.00,0.1089
2838.00,0.1087
2837.00,0.1060
2836.00,0.1009
2835.00,0.0936
2834.00,0.0850
2833.00,0.0758
2832.00,0.0670
2831.00,0.0590
2830.00,0.0523
2829.00,0.0466
2828.00,0.0420
2827.00,0.0383
2826.00,0.0352
2825.00,0.0326
2824.00,0.0305
2823.00,0.0287
2822.00,0.0271
2821.00,0.0258
2820.00,0.0246
2819.00,0.0235
2818.00,0.0226
2817.00,0.0218
2816.00,0.0210
2815.00,0.0204
2814.00,0.0199
2813.00,0.0193
2812.00,0.0188
2811.00,0.0183
2810.00,0.0178
2809.00,0.0173
2808.00,0.0167
2807.00,0.0161
2806.00,0.0156
2805.00,0.0150
2804.00,0.0145
2803.00,0.0139
2802.00,0.0135
2801.00,0.0130
2800.00,0.0126
2799.00,0.0124
2798.00,0.0121
2797.00,0.0119
2796.00,0.0117
2795.00,0.0115
2794.00,0.0112
2793.00,0.0110
2792.00,0.0107
2791.00,0.0104
2790.00,0.0101
2789.00,0.0098
2788.00,0.0096
2787.00,0.0093
2786.00,0.0090
2785.00,0.0087
2784.00,0.0085
2783.00,0.0083
2782.00,0.0081
2781.00,0.0079
2780.00,0.0077
2779.00,0.0076
2778.00,0.0074
2777.00,0.0073
2776.00,0.0072
2775.00,0.0070
2774.00,0.0069
2773.00,0.0069
2772.00,0.0068
2771.00,0.0068
2770.00,0.0068
2769.00,0.0067
2768.00,0.0067
2767.00,0.0066
2766.00,0.0066
2765.00,0.0065
2764.00,0.0064
2763.00,0.0064
2762.00,0.0064
2761.00,0.0064
2760.00,0.0063
2759.00,0.0063
2758.00,0.0063
2757.00,0.0062
2756.00,0.0062
2755.00,0.0062
2754.00,0.0062
2753.00,0.0062
2752.00,0.0061
2751.00,0.0061
2750.00,0.0060
2749.00,0.0060
2748.00,0.0060
2747.00,0.0060
2746.00,0.0061
2745.00,0.0061
2744.00,0.0062
2743.00,0.0063
2742.00,0.0063
2741.00,0.0064
2740.00,0.0065
2739.00,0.0065
2738.00,0.0066
2737.00,0.0068
2736.00,0.0069
2735.00,0.0070
2734.00,0.0071
2733.00,0.0072
2732.00,0.0073
2731.00,0.0075
2730.00,0.0077
2729.00,0.0079
2728.00,0.0081
2727.00,0.0083
2726.00,0.0085
2725.00,0.0086
2724.00,0.0087
2723.00,0.0087
2722.00,0.0086
2721.00,0.0085
2720.00,0.0083
2719.00,0.0080
2718.00,0.0078
2717.00,0.0075
2716.00,0.0073
2715.00,0.0071
2714.00,0.0068
2713.00,0.0066
2712.00,0.0065
2711.00,0.0063
2710.00,0.0062
2709.00,0.0061
2708.00,0.0060
2707.00,0.0059
2706.00,0.0058
2705.00,0.0057
2704.00,0.0056
2703.00,0.0055
2702.00,0.0054
2701.00,0.0053
2700.00,0.0053
2699.00,0.0052
2698.00,0.0052
2697.00,0.0052
2696.00,0.0052
2695.00,0.0051
2694.00,0.0051
2693.00,0.0051
2692.00,0.0051
2691.00,0.0051
2690.00,0.0051
2689.00,0.0051
2688.00,0.0051
2687.00,0.0051
2686.00,0.0051
2685.00,0.0051
2684.00,0.0051
2683.00,0.0051
2682.00,0.0051
2681.00,0.0051
2680.00,0.0051
2679.00,0.0051
2678.00,0.0051
2677.00,0.0052
2676.00,0.0052
2675.00,0.0052
2674.00,0.0051
2673.00,0.0050
2672.00,0.0049
2671.00,0.0049
2670.00,0.0049
2669.00,0.0049
2668.00,0.0049
2667.00,0.0049
2666.00,0.0049
2665.00,0.0049
2664.00,0.0050
2663.00,0.0051
2662.00,0.0051
2661.00,0.0051
2660.00,0.0051
2659.00,0.0051
2658.00,0.0051
2657.00,0.0051
2656.00,0.0051
2655.00,0.0051
2654.00,0.0051
2653.00,0.0050
2652.00,0.0050
2651.00,0.0049
2650.00,0.0049
2649.00,0.0048
2648.00,0.0048
2647.00,0.0047
2646.00,0.0047
2645.00,0.0046
2644.00,0.0046
2643.00,0.0045
2642.00,0.0045
2641.00,0.0044
2640.00,0.0043
2639.00,0.0043
2638.00,0.0043
2637.00,0.0043
2636.00,0.0043
2635.00,0.0043
2634.00,0.0043
2633.00,0.0043
2632.00,0.0043
2631.00,0.0043
2630.00,0.0043
2629.00,0.0043
2628.00,0.0043
2627.00,0.0043
2626.00,0.0043
2625.00,0.0043
2624.00,0.0043
2623.00,0.0044
2622.00,0.0044
2621.00,0.0044
2620.00,0.0044
2619.00,0.0043
2618.00,0.0043
2617.00,0.0043
2616.00,0.0043
2615.00,0.0043
2614.00,0.0042
2613.00,0.0041
2612.00,0.0041
2611.00,0.0040
2610.00,0.0040
2609.00,0.0039
2608.00,0.0039
2607.00,0.0038
2606.00,0.0038
2605.00,0.0037
2604.00,0.0037
2603.00,0.0037
2602.00,0.0036
2601.00,0.0035
2600.00,0.0034
2599.00,0.0033
2598.00,0.0034
2597.00,0.0035
2596.00,0.0035
2595.00,0.0036
2594.00,0.0036
2593.00,0.0036
2592.00,0.0036
2591.00,0.0036
2590.00,0.0036
2589.00,0.0036
2588.00,0.0037
2587.00,0.0038
2586.00,0.0039
2585.00,0.0039
2584.00,0.0040
2583.00,0.0040
2582.00,0.0040
2581.00,0.0040
2580.00,0.0040
2579.00,0.0039
2578.00,0.0038
2577.00,0.0036
2576.00,0.0035
2575.00,0.0033
2574.00,0.0032
2573.00,0.0032
2572.00,0.0031
2571.00,0.0031
2570.00,0.0031
2569.00,0.0030
2568.00,0.0029
2567.00,0.0029
2566.00,0.0028
2565.00,0.0027
2564.00,0.0027
2563.00,0.0027
2562.00,0.0027
2561.00,0.0027
2560.00,0.0026
2559.00,0.0025
2558.00,0.0025
2557.00,0.0024
2556.00,0.0024
2555.00,0.0025
2554.00,0.0025
2553.00,0.0025
2552.00,0.0025
2551.00,0.0025
2550.00,0.0024
2549.00,0.0024
2548.00,0.0024
2547.00,0.0023
2546.00,0.0022
2545.00,0.0021
2544.00,0.0021
2543.00,0.0021
2542.00,0.0021
2541.00,0.0020
2540.00,0.0020
2539.00,0.0019
2538.00,0.0020
2537.00,0.0020
2536.00,0.0021
2535.00,0.0021
2534.00,0.0021
2533.00,0.0020
2532.00,0.0020
2531.00,0.0020
2530.00,0.0020
2529.00,0.0020
2528.00,0.0020
2527.00,0.0020
2526.00,0.0019
2525.00,0.0018
2524.00,0.0017
2523.00,0.0017
2522.00,0.0016
2521.00,0.0017
2520.00,0.0017
2519.00,0.0017
2518.00,0.0017
2517.00,0.0017
2516.00,0.0017
2515.00,0.0016
2514.00,0.0016
2513.00,0.0015
2512.00,0.0015
2511.00,0.0014
2510.00,0.0014
2509.00,0.0014
2508.00,0.0015
2507.00,0.0015
2506.00,0.0016
2505.00,0.0016
2504.00,0.0016
2503.00,0.0016
2502.00,0.0015
2501.00,0.0015
2500.00,0.0015
2499.00,0.0015
2498.00,0.0015
2497.00,0.0015
2496.00,0.0014
2495.00,0.0013
2494.00,0.0013
2493.00,0.0013
2492.00,0.0014
2491.00,0.0014
2490.00,0.0014
2489.00,0.0014
2488.00,0.0013
2487.00,0.0013
2486.00,0.0013
2485.00,0.0013
2484.00,0.0014
2483.00,0.0014
2482.00,0.0014
2481.00,0.0014
2480.00,0.0014
2479.00,0.0014
2478.00,0.0013
2477.00,0.0013
2476.00,0.0013
2475.00,0.0013
2474.00,0.0013
2473.00,0.0013
2472.00,0.0012
2471.00,0.0012
2470.00,0.0012
2469.00,0.0012
2468.00,0.0012
2467.00,0.0013
2466.00,0.0013
2465.00,0.0014
2464.00,0.0014
2463.00,0.0014
2462.00,0.0013
2461.00,0.0014
2460.00,0.0014
2459.00,0.0014
2458.00,0.0014
2457.00,0.0014
2456.00,0.0014
2455.00,0.0014
2454.00,0.0014
2453.00,0.0014
2452.00,0.0015
2451.00,0.0015
2450.00,0.0014
2449.00,0.0014
2448.00,0.0014
2447.00,0.0014
2446.00,0.0014
2445.00,0.0014
2444.00,0.0014
2443.00,0.0014
2442.00,0.0014
2441.00,0.0014
2440.00,0.0014
2439.00,0.0014
2438.00,0.0015
2437.00,0.0015
2436.00,0.0015
2435.00,0.0014
2434.00,0.0014
2433.00,0.0014
2432.00,0.0014
2431.00,0.0014
2430.00,0.0014
2429.00,0.0014
2428.00,0.0015
2427.00,0.0015
2426.00,0.0015
2425.00,0.0014
2424.00,0.0014
2423.00,0.0014
2422.00,0.0014
2421.00,0.0014
2420.00,0.0013
2419.00,0.0013
2418.00,0.0013
2417.00,0.0013
2416.00,0.0013
2415.00,0.0013
2414.00,0.0014
2413.00,0.0014
2412.00,0.0013
2411.00,0.0013
2410.00,0.0013
2409.00,0.0013
2408.00,0.0012
2407.00,0.0012
2406.00,0.0012
2405.00,0.0012
2404.00,0.0012
2403.00,0.0012
2402.00,0.0012
2401.00,0.0012
2400.00,0.0013
2399.00,0.0013
2398.00,0.0012
2397.00,0.0012
2396.00,0.0012
2395.00,0.0012
2394.00,0.0012
2393.00,0.0012
2392.00,0.0012
2391.00,0.0011
2390.00,0.0011
2389.00,0.0011
2388.00,0.0011
2387.00,0.0011
2386.00,0.0011
2385.00,0.0011
2384.00,0.0011
2383.00,0.0010
2382.00,0.0010
2381.00,0.0010
2380.00,0.0010
2379.00,0.0010
2378.00,0.0010
2377.00,0.0010
2376.00,0.0010
2375.00,0.0010
2374.00,0.0010
2373.00,0.0010
2372.00,0.0011
2371.00,0.0011
2370.00,0.0011
2369.00,0.0010
2368.00,0.0009
2367.00,0.0009
2366.00,0.0009
2365.00,0.0010
2364.00,0.0010
2363.00,0.0010
2362.00,0.0010
2361.00,0.0010
2360.00,0.0010
2359.00,0.0011
2358.00,0.0012
2357.00,0.0012
2356.00,0.0012
2355.00,0.0011
2354.00,0.0011
2353.00,0.0011
2352.00,0.0010
2351.00,0.0010
2350.00,0.0011
2349.00,0.0011
2348.00,0.0011
2347.00,0.0011
2346.00,0.0011
2345.00,0.0011
2344.00,0.0011
2343.00,0.0012
2342.00,0.0012
2341.00,0.0013
2340.00,0.0013
2339.00,0.0013
2338.00,0.0013
2337.00,0.0013
2336.00,0.0013
2335.00,0.0012
2334.00,0.0011
2333.00,0.0011
2332.00,0.0011
2331.00,0.0011
2330.00,0.0012
2329.00,0.0013
2328.00,0.0015
2327.00,0.0019
2326.00,0.0023
2325.00,0.0026
2324.00,0.0027
2323.00,0.0025
2322.00,0.0022
2321.00,0.0020
2320.00,0.0019
2319.00,0.0018
2318.00,0.0018
2317.00,0.0018
2316.00,0.0018
2315.00,0.0018
2314.00,0.0017
2313.00,0.0017
2312.00,0.0017
2311.00,0.0016
2310.00,0.0016
2309.00,0.0016
2308.00,0.0016
2307.00,0.0016
2306.00,0.0017
2305.00,0.0017
2304.00,0.0017
2303.00,0.0018
2302.00,0.0018
2301.00,0.0018
2300.00,0.0017
2299.00,0.0017
2298.00,0.0017
2297.00,0.0017
2296.00,0.0018
2295.00,0.0019
2294.00,0.0020
2293.00,0.0020
2292.00,0.0021
2291.00,0.0021
2290.00,0.0021
2289.00,0.0020
2288.00,0.0020
2287.00,0.0021
2286.00,0.0021
2285.00,0.0021
2284.00,0.0021
2283.00,0.0020
2282.00,0.0019
2281.00,0.0019
2280.00,0.0018
2279.00,0.0018
2278.00,0.0018
2277.00,0.0018
2276.00,0.0017
2275.00,0.0017
2274.00,0.0016
2273.00,0.0016
2272.00,0.0015
2271.00,0.0015
2270.00,0.0015
2269.00,0.0016
2268.00,0.0016
2267.00,0.0016
2266.00,0.0016
2265.00,0.0015
2264.00,0.0015
2263.00,0.0015
2262.00,0.0015
2261.00,0.0015
2260.00,0.0015
2259.00,0.0014
2258.00,0.0014
2257.00,0.0015
2256.00,0.0015
2255.00,0.0016
2254.00,0.0015
2253.00,0.0015
2252.00,0.0014
2251.00,0.0013
2250.00,0.0012
2249.00,0.0011
2248.00,0.0011
2247.00,0.0011
2246.00,0.0012
2245.00,0.0012
2244.00,0.0013
2243.00,0.0013
2242.00,0.0012
2241.00,0.0012
2240.00,0.0011
2239.00,0.0011
2238.00,0.0011
2237.00,0.0012
2236.00,0.0011
2235.00,0.0011
2234.00,0.0011
2233.00,0.0012
2232.00,0.0013
2231.00,0.0014
2230.00,0.0015
2229.00,0.0014
2228.00,0.0013
2227.00,0.0011
2226.00,0.0010
2225.00,0.0010
2224.00,0.0010
2223.00,0.0011
2222.00,0.0012
2221.00,0.0013
2220.00,0.0013
2219.00,0.0013
2218.00,0.0012
2217.00,0.0010
2216.00,0.0009
2215.00,0.0008
2214.00,0.0007
2213.00,0.0008
2212.00,0.0009
2211.00,0.0011
2210.00,0.0013
2209.00,0.0014
2208.00,0.0014
2207.00,0.0012
2206.00,0.0011
2205.00,0.0011
2204.00,0.0012
2203.00,0.0014
2202.00,0.0016
2201.00,0.0016
2200.00,0.0016
2199.00,0.0014
2198.00,0.0013
2197.00,0.0012
2196.00,0.0012
2195.00,0.0012
2194.00,0.0012
2193.00,0.0013
2192.00,0.0014
2191.00,0.0014
2190.00,0.0013
2189.00,0.0014
2188.00,0.0014
2187.00,0.0015
2186.00,0.0016
2185.00,0.0016
2184.00,0.0014
2183.00,0.0012
2182.00,0.0010
2181.00,0.0010
2180.00,0.0012
2179.00,0.0013
2178.00,0.0014
2177.00,0.0014
2176.00,0.0014
2175.00,0.0014
2174.00,0.0014
2173.00,0.0013
2172.00,0.0013
2171.00,0.0014
2170.00,0.0016
2169.00,0.0018
2168.00,0.0018
2167.00,0.0016
2166.00,0.0014
2165.00,0.0013
2164.00,0.0013
2163.00,0.0015
2162.00,0.0016
2161.00,0.0012
2160.00,0.0003
2159.00,-0.0010
2158.00,-0.0022
2157.00,-0.0027
2156.00,-0.0026
2155.00,-0.0022
2154.00,-0.0017
2153.00,-0.0011
2152.00,-0.0006
2151.00,-0.0005
2150.00,-0.0006
2149.00,-0.0008
2148.00,-0.0011
2147.00,-0.0011
2146.00,-0.0011
2145.00,-0.0009
2144.00,-0.0008
2143.00,-0.0006
2142.00,-0.0003
2141.00,-0.0001
2140.00,0.0000
2139.00,-0.0001
2138.00,-0.0004
2137.00,-0.0006
2136.00,-0.0007
2135.00,-0.0008
2134.00,-0.0009
2133.00,-0.0009
2132.00,-0.0008
2131.00,-0.0008
2130.00,-0.0006
2129.00,-0.0004
2128.00,-0.0002
2127.00,0.0000
2126.00,0.0001
2125.00,0.0001
2124.00,0.0001
2123.00,0.0001
2122.00,0.0001
2121.00,0.0001
2120.00,0.0002
2119.00,0.0003
2118.00,0.0004
2117.00,0.0006
2116.00,0.0008
2115.00,0.0011
2114.00,0.0012
2113.00,0.0012
2112.00,0.0011
2111.00,0.0009
2110.00,0.0008
2109.00,0.0008
2108.00,0.0009
2107.00,0.0010
2106.00,0.0011
2105.00,0.0011
2104.00,0.0011
2103.00,0.0011
2102.00,0.0011
2101.00,0.0011
2100.00,0.0009
2099.00,0.0008
2098.00,0.0006
2097.00,0.0005
2096.00,0.0004
2095.00,0.0002
2094.00,0.0000
2093.00,-0.0000
2092.00,0.0001
2091.00,0.0002
2090.00,0.0002
2089.00,0.0003
2088.00,0.0005
2087.00,0.0006
2086.00,0.0008
2085.00,0.0010
2084.00,0.0010
2083.00,0.0010
2082.00,0.0009
2081.00,0.0008
2080.00,0.0007
2079.00,0.0006
2078.00,0.0005
2077.00,0.0005
2076.00,0.0005
2075.00,0.0006
2074.00,0.0007
2073.00,0.0009
2072.00,0.0009
2071.00,0.0008
2070.00,0.0007
2069.00,0.0004
2068.00,0.0002
2067.00,0.0001
2066.00,0.0001
2065.00,0.0002
2064.00,0.0003
2063.00,0.0005
2062.00,0.0005
2061.00,0.0005
2060.00,0.0004
2059.00,0.0003
2058.00,0.0004
2057.00,0.0005
2056.00,0.0006
2055.00,0.0007
2054.00,0.0009
2053.00,0.0012
2052.00,0.0016
2051.00,0.0019
2050.00,0.0020
2049.00,0.0018
2048.00,0.0015
2047.00,0.0012
2046.00,0.0011
2045.00,0.0011
2044.00,0.0012
2043.00,0.0012
2042.00,0.0011
2041.00,0.0009
2040.00,0.0007
2039.00,0.0005
2038.00,0.0004
2037.00,0.0004
2036.00,0.0005
2035.00,0.0005
2034.00,0.0003
2033.00,-0.0000
2032.00,-0.0004
2031.00,-0.0007
2030.00,-0.0008
2029.00,-0.0008
2028.00,-0.0006
2027.00,-0.0005
2026.00,-0.0005
2025.00,-0.0006
2024.00,-0.0007
2023.00,-0.0007
2022.00,-0.0005
2021.00,-0.0002
2020.00,-0.0000
2019.00,0.0001
2018.00,0.0002
2017.00,0.0003
2016.00,0.0005
2015.00,0.0005
2014.00,0.0003
2013.00,0.0001
2012.00,-0.0002
2011.00,-0.0005
2010.00,-0.0006
2009.00,-0.0007
2008.00,-0.0009
2007.00,-0.0011
2006.00,-0.0013
2005.00,-0.0014
2004.00,-0.0013
2003.00,-0.0013
2002.00,-0.0013
2001.00,-0.0013
2000.00,-0.0012
1999.00,-0.0011
1998.00,-0.0011
1997.00,-0.0009
1996.00,-0.0008
1995.00,-0.0007
1994.00,-0.0005
1993.00,-0.0002
1992.00,0.0001
1991.00,0.0003
1990.00,0.0004
1989.00,0.0004
1988.00,0.0004
1987.00,0.0002
1986.00,0.0000
1985.00,-0.0001
1984.00,0.0001
1983.00,0.0004
1982.00,0.0008
1981.00,0.0012
1980.00,0.0013
1979.00,0.0011
1978.00,0.0006
1977.00,0.0001
1976.00,-0.0003
1975.00,-0.0006
1974.00,-0.0010
1973.00,-0.0013
1972.00,-0.0013
1971.00,-0.0011
1970.00,-0.0006
1969.00,-0.0002
1968.00,0.0001
1967.00,0.0002
1966.00,-0.0000
1965.00,-0.0003
1964.00,-0.0006
1963.00,-0.0008
1962.00,-0.0010
1961.00,-0.0012
1960.00,-0.0014
1959.00,-0.0014
1958.00,-0.0013
1957.00,-0.0010
1956.00,-0.0009
1955.00,-0.0009
1954.00,-0.0009
1953.00,-0.0009
1952.00,-0.0008
1951.00,-0.0008
1950.00,-0.0008
1949.00,-0.0008
1948.00,-0.0008
1947.00,-0.0008
1946.00,-0.0007
1945.00,-0.0007
1944.00,-0.0008
1943.00,-0.0008
1942.00,-0.0009
1941.00,-0.0009
1940.00,-0.0009
1939.00,-0.0009
1938.00,-0.0009
1937.00,-0.0008
1936.00,-0.0006
1935.00,-0.0005
1934.00,-0.0004
1933.00,-0.0004
1932.00,-0.0005
1931.00,-0.0005
1930.00,-0.0005
1929.00,-0.0004
1928.00,-0.0002
1927.00,-0.0002
1926.00,-0.0001
1925.00,-0.0000
1924.00,0.0001
1923.00,0.0002
1922.00,0.0002
1921.00,0.0003
1920.00,0.0003
1919.00,0.0003
1918.00,0.0002
1917.00,0.0002
1916.00,0.0001
1915.00,0.0001
1914.00,0.0001
1913.00,0.0001
1912.00,0.0001
1911.00,0.0001
1910.00,0.0000
1909.00,-0.0000
1908.00,0.0001
1907.00,0.0002
1906.00,0.0003
1905.00,0.0004
1904.00,0.0004
1903.00,0.0004
1902.00,0.0003
1901.00,0.0002
1900.00,0.0001
1899.00,0.0001
1898.00,0.0002
1897.00,0.0002
1896.00,0.0003
1895.00,0.0003
1894.00,0.0002
1893.00,0.0002
1892.00,0.0001
1891.00,0.0001
1890.00,0.0000
1889.00,0.0001
1888.00,0.0001
1887.00,0.0001
1886.00,0.0002
1885.00,0.0002
1884.00,0.0002
1883.00,0.0002
1882.00,0.0002
1881.00,0.0003
1880.00,0.0003
1879.00,0.0004
1878.00,0.0003
1877.00,0.0003
1876.00,0.0004
1875.00,0.0004
1874.00,0.0004
1873.00,0.0005
1872.00,0.0005
1871.00,0.0005
1870.00,0.0005
1869.00,0.0004
1868.00,0.0004
1867.00,0.0004
1866.00,0.0004
1865.00,0.0005
1864.00,0.0005
1863.00,0.0004
1862.00,0.0004
1861.00,0.0004
1860.00,0.0005
1859.00,0.0005
1858.00,0.0005
1857.00,0.0005
1856.00,0.0005
1855.00,0.0006
1854.00,0.0006
1853.00,0.0006
1852.00,0.0005
1851.00,0.0005
1850.00,0.0005
1849.00,0.0006
1848.00,0.0006
1847.00,0.0006
1846.00,0.0006
1845.00,0.0006
1844.00,0.0006
1843.00,0.0006
1842.00,0.0006
1841.00,0.0006
1840.00,0.0006
1839.00,0.0006
1838.00,0.0006
1837.00,0.0006
1836.00,0.0007
1835.00,0.0007
1834.00,0.0007
1833.00,0.0007
1832.00,0.0007
1831.00,0.0007
1830.00,0.0007
1829.00,0.0007
1828.00,0.0008
1827.00,0.0008
1826.00,0.0009
1825.00,0.0009
1824.00,0.0009
1823.00,0.0008
1822.00,0.0008
1821.00,0.0008
1820.00,0.0008
1819.00,0.0007
1818.00,0.0006
1817.00,0.0005
1816.00,0.0005
1815.00,0.0005
1814.00,0.0006
1813.00,0.0008
1812.00,0.0009
1811.00,0.0009
1810.00,0.0009
1809.00,0.0009
1808.00,0.0009
1807.00,0.0009
1806.00,0.0009
1805.00,0.0010
1804.00,0.0010
1803.00,0.0011
1802.00,0.0011
1801.00,0.0011
1800.00,0.0012
1799.00,0.0012
1798.00,0.0011
1797.00,0.0011
1796.00,0.0011
1795.00,0.0011
1794.00,0.0011
1793.00,0.0011
1792.00,0.0012
1791.00,0.0013
1790.00,0.0013
1789.00,0.0013
1788.00,0.0014
1787.00,0.0014
1786.00,0.0014
1785.00,0.0015
1784.00,0.0015
1783.00,0.0015
1782.00,0.0015
1781.00,0.0015
1780.00,0.0015
1779.00,0.0015
1778.00,0.0015
1777.00,0.0015
1776.00,0.0014
1775.00,0.0014
1774.00,0.0014
1773.00,0.0013
1772.00,0.0014
1771.00,0.0015
1770.00,0.0015
1769.00,0.0016
1768.00,0.0017
1767.00,0.0017
1766.00,0.0017
1765.00,0.0017
1764.00,0.0017
1763.00,0.0018
1762.00,0.0018
1761.00,0.0019
1760.00,0.0020
1759.00,0.0020
1758.00,0.0021
1757.00,0.0021
1756.00,0.0022
1755.00,0.0022
1754.00,0.0023
1753.00,0.0024
1752.00,0.0025
1751.00,0.0025
1750.00,0.0026
1749.00,0.0027
1748.00,0.0028
1747.00,0.0029
1746.00,0.0030
1745.00,0.0031
1744.00,0.0033
1743.00,0.0035
1742.00,0.0036
1741.00,0.0037
1740.00,0.0038
1739.00,0.0039
1738.00,0.0039
1737.00,0.0040
1736.00,0.0041
1735.00,0.0041
1734.00,0.0040
1733.00,0.0040
1732.00,0.0041
1731.00,0.0041
1730.00,0.0042
1729.00,0.0042
1728.00,0.0042
1727.00,0.0041
1726.00,0.0041
1725.00,0.0041
1724.00,0.0042
1723.00,0.0042
1722.00,0.0042
1721.00,0.0042
1720.00,0.0042
1719.00,0.0042
1718.00,0.0042
1717.00,0.0042
1716.00,0.0042
1715.00,0.0042
1714.00,0.0042
1713.00,0.0043
1712.00,0.0043
1711.00,0.0044
1710.00,0.0044
1709.00,0.0045
1708.00,0.0045
1707.00,0.0045
1706.00,0.0046
1705.00,0.0047
1704.00,0.0049
1703.00,0.0050
1702.00,0.0051
1701.00,0.0053
1700.00,0.0055
1699.00,0.0055
1698.00,0.0056
1697.00,0.0058
1696.00,0.0062
1695.00,0.0065
1694.00,0.0066
1693.00,0.0068
1692.00,0.0071
1691.00,0.0074
1690.00,0.0077
1689.00,0.0081
1688.00,0.0085
1687.00,0.0087
1686.00,0.0090
1685.00,0.0093
1684.00,0.0099
1683.00,0.0105
1682.00,0.0108
1681.00,0.0113
1680.00,0.0117
1679.00,0.0121
1678.00,0.0124
1677.00,0.0128
1676.00,0.0132
1675.00,0.0136
1674.00,0.0139
1673.00,0.0141
1672.00,0.0144
1671.00,0.0147
1670.00,0.0151
1669.00,0.0155
1668.00,0.0157
1667.00,0.0159
1666.00,0.0161
1665.00,0.0163
1664.00,0.0166
1663.00,0.0168
1662.00,0.0170
1661.00,0.0172
1660.00,0.0173
1659.00,0.0175
1658.00,0.0177
1657.00,0.0179
1656.00,0.0181
1655.00,0.0183
1654.00,0.0185
1653.00,0.0189
1652.00,0.0192
1651.00,0.0192
1650.00,0.0194
1649.00,0.0196
1648.00,0.0200
1647.00,0.0204
1646.00,0.0206
1645.00,0.0208
1644.00,0.0208
1643.00,0.0208
1642.00,0.0208
1641.00,0.0208
1640.00,0.0208
1639.00,0.0208
1638.00,0.0207
1637.00,0.0207
1636.00,0.0206
1635.00,0.0205
1634.00,0.0202
1633.00,0.0200
1632.00,0.0199
1631.00,0.0198
1630.00,0.0196
1629.00,0.0194
1628.00,0.0193
1627.00,0.0191
1626.00,0.0189
1625.00,0.0187
1624.00,0.0185
1623.00,0.0182
1622.00,0.0180
1621.00,0.0179
1620.00,0.0178
1619.00,0.0177
1618.00,0.0175
1617.00,0.0174
1616.00,0.0172
1615.00,0.0172
1614.00,0.0172
1613.00,0.0172
1612.00,0.0173
1611.00,0.0173
1610.00,0.0173
1609.00,0.0174
1608.00,0.0174
1607.00,0.0174
1606.00,0.0174
1605.00,0.0173
1604.00,0.0173
1603.00,0.0172
1602.00,0.0171
1601.00,0.0170
1600.00,0.0169
1599.00,0.0168
1598.00,0.0166
1597.00,0.0165
1596.00,0.0164
1595.00,0.0163
1594.00,0.0162
1593.00,0.0162
1592.00,0.0162
1591.00,0.0162
1590.00,0.0162
1589.00,0.0163
1588.00,0.0165
1587.00,0.0167
1586.00,0.0170
1585.00,0.0174
1584.00,0.0178
1583.00,0.0182
1582.00,0.0186
1581.00,0.0190
1580.00,0.0194
1579.00,0.0197
1578.00,0.0198
1577.00,0.0198
1576.00,0.0196
1575.00,0.0193
1574.00,0.0190
1573.00,0.0188
1572.00,0.0186
1571.00,0.0183
1570.00,0.0179
1569.00,0.0176
1568.00,0.0173
1567.00,0.0172
1566.00,0.0172
1565.00,0.0172
1564.00,0.0173
1563.00,0.0173
1562.00,0.0173
1561.00,0.0174
1560.00,0.0174
1559.00,0.0176
1558.00,0.0178
1557.00,0.0178
1556.00,0.0180
1555.00,0.0183
1554.00,0.0186
1553.00,0.0190
1552.00,0.0193
1551.00,0.0197
1550.00,0.0201
1549.00,0.0206
1548.00,0.0211
1547.00,0.0215
1546.00,0.0221
1545.00,0.0227
1544.00,0.0234
1543.00,0.0241
1542.00,0.0246
1541.00,0.0250
1540.00,0.0251
1539.00,0.0247
1538.00,0.0241
1537.00,0.0237
1536.00,0.0232
1535.00,0.0226
1534.00,0.0216
1533.00,0.0206
1532.00,0.0197
1531.00,0.0190
1530.00,0.0183
1529.00,0.0177
1528.00,0.0171
1527.00,0.0164
1526.00,0.0157
1525.00,0.0152
1524.00,0.0149
1523.00,0.0145
1522.00,0.0141
1521.00,0.0138
1520.00,0.0135
1519.00,0.0133
1518.00,0.0130
1517.00,0.0129
1516.00,0.0127
1515.00,0.0125
1514.00,0.0123
1513.00,0.0122
1512.00,0.0122
1511.00,0.0122
1510.00,0.0122
1509.00,0.0122
1508.00,0.0123
1507.00,0.0123
1506.00,0.0123
1505.00,0.0123
1504.00,0.0125
1503.00,0.0128
1502.00,0.0132
1501.00,0.0138
1500.00,0.0146
1499.00,0.0155
1498.00,0.0165
1497.00,0.0178
1496.00,0.0192
1495.00,0.0202
1494.00,0.0209
1493.00,0.0215
1492.00,0.0220
1491.00,0.0223
1490.00,0.0225
1489.00,0.0228
1488.00,0.0232
1487.00,0.0236
1486.00,0.0241
1485.00,0.0247
1484.00,0.0254
1483.00,0.0262
1482.00,0.0272
1481.00,0.0285
1480.00,0.0298
1479.00,0.0311
1478.00,0.0326
1477.00,0.0346
1476.00,0.0370
1475.00,0.0397
1474.00,0.0434
1473.00,0.0489
1472.00,0.0553
1471.00,0.0614
1470.00,0.0671
1469.00,0.0731
1468.00,0.0794
1467.00,0.0861
1466.00,0.0937
1465.00,0.1019
1464.00,0.1090
1463.00,0.1139
1462.00,0.1170
1461.00,0.1191
1460.00,0.1206
1459.00,0.1217
1458.00,0.1227
1457.00,0.1236
1456.00,0.1235
1455.00,0.1226
1454.00,0.1213
1453.00,0.1194
1452.00,0.1166
1451.00,0.1128
1450.00,0.1078
1449.00,0.1012
1448.00,0.0930
1447.00,0.0845
1446.00,0.0769
1445.00,0.0704
1444.00,0.0649
1443.00,0.0603
1442.00,0.0568
1441.00,0.0543
1440.00,0.0528
1439.00,0.0521
1438.00,0.0521
1437.00,0.0519
1436.00,0.0507
1435.00,0.0483
1434.00,0.0450
1433.00,0.0411
1432.00,0.0370
1431.00,0.0333
1430.00,0.0304
1429.00,0.0282
1428.00,0.0267
1427.00,0.0258
1426.00,0.0252
1425.00,0.0248
1424.00,0.0245
1423.00,0.0244
1422.00,0.0244
1421.00,0.0242
1420.00,0.0239
1419.00,0.0236
1418.00,0.0232
1417.00,0.0228
1416.00,0.0222
1415.00,0.0218
1414.00,0.0213
1413.00,0.0208
1412.00,0.0203
1411.00,0.0198
1410.00,0.0195
1409.00,0.0191
1408.00,0.0187
1407.00,0.0185
1406.00,0.0184
1405.00,0.0182
1404.00,0.0181
1403.00,0.0181
1402.00,0.0182
1401.00,0.0182
1400.00,0.0182
1399.00,0.0183
1398.00,0.0185
1397.00,0.0186
1396.00,0.0187
1395.00,0.0189
1394.00,0.0192
1393.00,0.0195
1392.00,0.0199
1391.00,0.0205
1390.00,0.0215
1389.00,0.0228
1388.00,0.0248
1387.00,0.0277
1386.00,0.0318
1385.00,0.0370
1384.00,0.0444
1383.00,0.0547
1382.00,0.0688
1381.00,0.0870
1380.00,0.1093
1379.00,0.1341
1378.00,0.1572
1377.00,0.1728
1376.00,0.1764
1375.00,0.1658
1374.00,0.1440
1373.00,0.1191
1372.00,0.0971
1371.00,0.0794
1370.00,0.0655
1369.00,0.0549
1368.00,0.0477
1367.00,0.0431
1366.00,0.0406
1365.00,0.0396
1364.00,0.0398
1363.00,0.0409
1362.00,0.0426
1361.00,0.0444
1360.00,0.0457
1359.00,0.0461
1358.00,0.0452
1357.00,0.0431
1356.00,0.0401
1355.00,0.0367
1354.00,0.0335
1353.00,0.0306
1352.00,0.0283
1351.00,0.0265
1350.00,0.0250
1349.00,0.0237
1348.00,0.0226
1347.00,0.0218
1346.00,0.0210
1345.00,0.0204
1344.00,0.0198
1343.00,0.0192
1342.00,0.0186
1341.00,0.0181
1340.00,0.0177
1339.00,0.0173
1338.00,0.0171
1337.00,0.0169
1336.00,0.0168
1335.00,0.0168
1334.00,0.0169
1333.00,0.0172
1332.00,0.0176
1331.00,0.0178
1330.00,0.0179
1329.00,0.0178
1328.00,0.0174
1327.00,0.0170
1326.00,0.0165
1325.00,0.0160
1324.00,0.0155
1323.00,0.0151
1322.00,0.0148
1321.00,0.0146
1320.00,0.0144
1319.00,0.0143
1318.00,0.0142
1317.00,0.0140
1316.00,0.0138
1315.00,0.0137
1314.00,0.0137
1313.00,0.0137
1312.00,0.0138
1311.00,0.0140
1310.00,0.0144
1309.00,0.0150
1308.00,0.0158
1307.00,0.0169
1306.00,0.0181
1305.00,0.0189
1304.00,0.0193
1303.00,0.0192
1302.00,0.0188
1301.00,0.0183
1300.00,0.0181
1299.00,0.0180
1298.00,0.0179
1297.00,0.0179
1296.00,0.0178
1295.00,0.0176
1294.00,0.0173
1293.00,0.0169
1292.00,0.0165
1291.00,0.0161
1290.00,0.0157
1289.00,0.0153
1288.00,0.0149
1287.00,0.0146
1286.00,0.0143
1285.00,0.0141
1284.00,0.0138
1283.00,0.0136
1282.00,0.0134
1281.00,0.0132
1280.00,0.0130
1279.00,0.0129
1278.00,0.0128
1277.00,0.0127
1276.00,0.0126
1275.00,0.0126
1274.00,0.0125
1273.00,0.0125
1272.00,0.0125
1271.00,0.0126
1270.00,0.0128
1269.00,0.0129
1268.00,0.0131
1267.00,0.0134
1266.00,0.0138
1265.00,0.0142
1264.00,0.0145
1263.00,0.0149
1262.00,0.0153
1261.00,0.0157
1260.00,0.0163
1259.00,0.0171
1258.00,0.0178
1257.00,0.0184
1256.00,0.0186
1255.00,0.0184
1254.00,0.0179
1253.00,0.0171
1252.00,0.0162
1251.00,0.0155
1250.00,0.0150
1249.00,0.0146
1248.00,0.0142
1247.00,0.0140
1246.00,0.0138
1245.00,0.0136
1244.00,0.0134
1243.00,0.0132
1242.00,0.0132
1241.00,0.0131
1240.00,0.0130
1239.00,0.0130
1238.00,0.0129
1237.00,0.0128
1236.00,0.0128
1235.00,0.0127
1234.00,0.0126
1233.00,0.0126
1232.00,0.0127
1231.00,0.0127
1230.00,0.0129
1229.00,0.0130
1228.00,0.0131
1227.00,0.0133
1226.00,0.0136
1225.00,0.0139
1224.00,0.0143
1223.00,0.0148
1222.00,0.0152
1221.00,0.0155
1220.00,0.0156
1219.00,0.0157
1218.00,0.0156
1217.00,0.0154
1216.00,0.0151
1215.00,0.0147
1214.00,0.0143
1213.00,0.0139
1212.00,0.0136
1211.00,0.0133
1210.00,0.0130
1209.00,0.0128
1208.00,0.0126
1207.00,0.0125
1206.00,0.0125
1205.00,0.0125
1204.00,0.0125
1203.00,0.0125
1202.00,0.0125
1201.00,0.0125
1200.00,0.0125
1199.00,0.0126
1198.00,0.0126
1197.00,0.0126
1196.00,0.0126
1195.00,0.0126
1194.00,0.0126
1193.00,0.0126
1192.00,0.0126
1191.00,0.0126
1190.00,0.0126
1189.00,0.0126
1188.00,0.0125
1187.00,0.0125
1186.00,0.0125
1185.00,0.0126
1184.00,0.0127
1183.00,0.0129
1182.00,0.0131
1181.00,0.0133
1180.00,0.0137
1179.00,0.0142
1178.00,0.0149
1177.00,0.0157
1176.00,0.0169
1175.00,0.0184
1174.00,0.0205
1173.00,0.0232
1172.00,0.0262
1171.00,0.0295
1170.00,0.0325
1169.00,0.0348
1168.00,0.0360
1167.00,0.0361
1166.00,0.0352
1165.00,0.0338
1164.00,0.0322
1163.00,0.0307
1162.00,0.0295
1161.00,0.0285
1160.00,0.0278
1159.00,0.0272
1158.00,0.0269
1157.00,0.0268
1156.00,0.0268
1155.00,0.0268
1154.00,0.0267
1153.00,0.0266
1152.00,0.0264
1151.00,0.0259
1150.00,0.0253
1149.00,0.0245
1148.00,0.0237
1147.00,0.0229
1146.00,0.0222
1145.00,0.0215
1144.00,0.0209
1143.00,0.0203
1142.00,0.0198
1141.00,0.0193
1140.00,0.0188
1139.00,0.0185
1138.00,0.0181
1137.00,0.0178
1136.00,0.0175
1135.00,0.0174
1134.00,0.0173
1133.00,0.0173
1132.00,0.0173
1131.00,0.0175
1130.00,0.0177
1129.00,0.0180
1128.00,0.0183
1127.00,0.0186
1126.00,0.0189
1125.00,0.0191
1124.00,0.0193
1123.00,0.0196
1122.00,0.0199
1121.00,0.0201
1120.00,0.0203
1119.00,0.0205
1118.00,0.0206
1117.00,0.0208
1116.00,0.0208
1115.00,0.0209
1114.00,0.0209
1113.00,0.0209
1112.00,0.0209
1111.00,0.0210
1110.00,0.0212
1109.00,0.0214
1108.00,0.0217
1107.00,0.0221
1106.00,0.0227
1105.00,0.0232
1104.00,0.0236
1103.00,0.0237
1102.00,0.0236
1101.00,0.0232
1100.00,0.0228
1099.00,0.0223
1098.00,0.0218
1097.00,0.0214
1096.00,0.0211
1095.00,0.0209
1094.00,0.0206
1093.00,0.0203
1092.00,0.0199
1091.00,0.0196
1090.00,0.0192
1089.00,0.0189
1088.00,0.0186
1087.00,0.0184
1086.00,0.0181
1085.00,0.0179
1084.00,0.0178
1083.00,0.0176
1082.00,0.0174
1081.00,0.0172
1080.00,0.0170
1079.00,0.0168
1078.00,0.0167
1077.00,0.0165
1076.00,0.0162
1075.00,0.0160
1074.00,0.0157
1073.00,0.0155
1072.00,0.0153
1071.00,0.0152
1070.00,0.0151
1069.00,0.0149
1068.00,0.0148
1067.00,0.0147
1066.00,0.0147
1065.00,0.0147
1064.00,0.0147
1063.00,0.0146
1062.00,0.0145
1061.00,0.0145
1060.00,0.0144
1059.00,0.0143
1058.00,0.0142
1057.00,0.0140
1056.00,0.0139
1055.00,0.0139
1054.00,0.0140
1053.00,0.0141
1052.00,0.0144
1051.00,0.0146
1050.00,0.0149
1049.00,0.0152
1048.00,0.0155
1047.00,0.0159
1046.00,0.0162
1045.00,0.0163
1044.00,0.0163
1043.00,0.0161
1042.00,0.0159
1041.00,0.0158
1040.00,0.0158
1039.00,0.0158
1038.00,0.0159
1037.00,0.0160
1036.00,0.0160
1035.00,0.0160
1034.00,0.0159
1033.00,0.0157
1032.00,0.0155
1031.00,0.0152
1030.00,0.0149
1029.00,0.0147
1028.00,0.0144
1027.00,0.0143
1026.00,0.0141
1025.00,0.0141
1024.00,0.0141
1023.00,0.0141
1022.00,0.0142
1021.00,0.0141
1020.00,0.0140
1019.00,0.0140
1018.00,0.0140
1017.00,0.0142
1016.00,0.0145
1015.00,0.0148
1014.00,0.0152
1013.00,0.0155
1012.00,0.0157
1011.00,0.0158
1010.00,0.0159
1009.00,0.0159
1008.00,0.0161
1007.00,0.0166
1006.00,0.0174
1005.00,0.0185
1004.00,0.0203
1003.00,0.0226
1002.00,0.0258
1001.00,0.0295
1000.00,0.0333
999.00,0.0365
998.00,0.0380
997.00,0.0372
996.00,0.0344
995.00,0.0304
994.00,0.0263
993.00,0.0227
992.00,0.0199
991.00,0.0180
990.00,0.0167
989.00,0.0158
988.00,0.0152
987.00,0.0148
986.00,0.0146
985.00,0.0147
984.00,0.0150
983.00,0.0158
982.00,0.0169
981.00,0.0184
980.00,0.0206
979.00,0.0236
978.00,0.0273
977.00,0.0318
976.00,0.0364
975.00,0.0407
974.00,0.0436
973.00,0.0442
972.00,0.0423
971.00,0.0383
970.00,0.0332
969.00,0.0281
968.00,0.0239
967.00,0.0206
966.00,0.0182
965.00,0.0165
964.00,0.0152
963.00,0.0142
962.00,0.0134
961.00,0.0129
960.00,0.0126
959.00,0.0124
958.00,0.0123
957.00,0.0121
956.00,0.0119
955.00,0.0117
954.00,0.0114
953.00,0.0113
952.00,0.0112
951.00,0.0111
950.00,0.0110
949.00,0.0109
948.00,0.0109
947.00,0.0110
946.00,0.0111
945.00,0.0114
944.00,0.0117
943.00,0.0121
942.00,0.0125
941.00,0.0127
940.00,0.0126
939.00,0.0123
938.00,0.0119
937.00,0.0115
936.00,0.0111
935.00,0.0108
934.00,0.0105
933.00,0.0102
932.00,0.0100
931.00,0.0098
930.00,0.0097
929.00,0.0096
928.00,0.0096
927.00,0.0095
926.00,0.0095
925.00,0.0095
924.00,0.0095
923.00,0.0095
922.00,0.0095
921.00,0.0095
920.00,0.0095
919.00,0.0095
918.00,0.0095
917.00,0.0095
916.00,0.0096
915.00,0.0097
914.00,0.0097
913.00,0.0099
912.00,0.0101
911.00,0.0103
910.00,0.0105
909.00,0.0107
908.00,0.0110
907.00,0.0114
906.00,0.0122
905.00,0.0132
904.00,0.0145
903.00,0.0161
902.00,0.0178
901.00,0.0194
900.00,0.0203
899.00,0.0205
898.00,0.0197
897.00,0.0184
896.00,0.0168
895.00,0.0153
894.00,0.0140
893.00,0.0130
892.00,0.0122
891.00,0.0117
890.00,0.0114
889.00,0.0112
888.00,0.0111
887.00,0.0111
886.00,0.0111
885.00,0.0111
884.00,0.0111
883.00,0.0112
882.00,0.0113
881.00,0.0115
880.00,0.0117
879.00,0.0121
878.00,0.0125
877.00,0.0128
876.00,0.0130
875.00,0.0129
874.00,0.0126
873.00,0.0121
872.00,0.0118
871.00,0.0115
870.00,0.0114
869.00,0.0114
868.00,0.0114
867.00,0.0114
866.00,0.0113
865.00,0.0113
864.00,0.0112
863.00,0.0112
862.00,0.0112
861.00,0.0112
860.00,0.0113
859.00,0.0114
858.00,0.0116
857.00,0.0118
856.00,0.0120
855.00,0.0122
854.00,0.0123
853.00,0.0124
852.00,0.0126
851.00,0.0130
850.00,0.0136
849.00,0.0144
848.00,0.0154
847.00,0.0169
846.00,0.0191
845.00,0.0225
844.00,0.0273
843.00,0.0324
842.00,0.0361
841.00,0.0366
840.00,0.0337
839.00,0.0287
838.00,0.0238
837.00,0.0202
836.00,0.0179
835.00,0.0166
834.00,0.0157
833.00,0.0152
832.00,0.0149
831.00,0.0148
830.00,0.0147
829.00,0.0147
828.00,0.0144
827.00,0.0141
826.00,0.0138
825.00,0.0135
824.00,0.0134
823.00,0.0133
822.00,0.0133
821.00,0.0134
820.00,0.0134
819.00,0.0136
818.00,0.0139
817.00,0.0144
816.00,0.0152
815.00,0.0162
814.00,0.0177
813.00,0.0193
812.00,0.0211
811.00,0.0227
810.00,0.0238
809.00,0.0244
808.00,0.0241
807.00,0.0232
806.00,0.0218
805.00,0.0201
804.00,0.0185
803.00,0.0172
802.00,0.0161
801.00,0.0153
800.00,0.0147
799.00,0.0142
798.00,0.0138
797.00,0.0135
796.00,0.0133
795.00,0.0130
794.00,0.0128
793.00,0.0126
792.00,0.0124
791.00,0.0122
790.00,0.0119
789.00,0.0117
788.00,0.0115
787.00,0.0113
786.00,0.0111
785.00,0.0109
784.00,0.0108
783.00,0.0107
782.00,0.0107
781.00,0.0107
780.00,0.0108
779.00,0.0109
778.00,0.0109
777.00,0.0107
776.00,0.0105
775.00,0.0104
774.00,0.0103
773.00,0.0103
772.00,0.0103
771.00,0.0103
770.00,0.0104
769.00,0.0105
768.00,0.0106
767.00,0.0107
766.00,0.0107
765.00,0.0107
764.00,0.0107
763.00,0.0107
762.00,0.0108
761.00,0.0109
760.00,0.0110
759.00,0.0110
758.00,0.0111
757.00,0.0112
756.00,0.0114
755.00,0.0115
754.00,0.0116
753.00,0.0116
752.00,0.0117
751.00,0.0117
750.00,0.0118
749.00,0.0119
748.00,0.0120
747.00,0.0122
746.00,0.0125
745.00,0.0129
744.00,0.0132
743.00,0.0136
742.00,0.0140
741.00,0.0144
740.00,0.0148
739.00,0.0153
738.00,0.0158
737.00,0.0164
736.00,0.0169
735.00,0.0175
734.00,0.0181
733.00,0.0187
732.00,0.0194
731.00,0.0202
730.00,0.0209
729.00,0.0213
728.00,0.0215
727.00,0.0214
726.00,0.0215
725.00,0.0216
724.00,0.0219
723.00,0.0224
722.00,0.0230
721.00,0.0234
720.00,0.0232
719.00,0.0223
718.00,0.0209
717.00,0.0193
716.00,0.0179
715.00,0.0169
714.00,0.0163
713.00,0.0159
712.00,0.0157
711.00,0.0156
710.00,0.0156
709.00,0.0156
708.00,0.0157
707.00,0.0159
706.00,0.0159
705.00,0.0159
704.00,0.0158
703.00,0.0155
702.00,0.0150
701.00,0.0144
700.00,0.0137
699.00,0.0130
698.00,0.0124
697.00,0.0120
696.00,0.0118
695.00,0.0118
694.00,0.0118
693.00,0.0117
692.00,0.0116
691.00,0.0115
690.00,0.0116
689.00,0.0117
688.00,0.0118
687.00,0.0117
686.00,0.0117
685.00,0.0117
684.00,0.0119
683.00,0.0121
682.00,0.0122
681.00,0.0121
680.00,0.0120
679.00,0.0119
678.00,0.0120
677.00,0.0121
676.00,0.0123
675.00,0.0124
674.00,0.0125
673.00,0.0126
672.00,0.0126
671.00,0.0126
670.00,0.0125
669.00,0.0125
668.00,0.0123
667.00,0.0123
666.00,0.0123
665.00,0.0124
664.00,0.0124
663.00,0.0124
662.00,0.0123
661.00,0.0122
660.00,0.0120
659.00,0.0119
658.00,0.0117
657.00,0.0116
656.00,0.0117
655.00,0.0119
654.00,0.0121
653.00,0.0122
652.00,0.0121
651.00,0.0118
650.00,0.0117
649.00,0.0118
648.00,0.0121
647.00,0.0125
646.00,0.0128
645.00,0.0128
644.00,0.0126
643.00,0.0124
642.00,0.0124
641.00,0.0127
640.00,0.0129
639.00,0.0130
638.00,0.0130
637.00,0.0128
636.00,0.0125
635.00,0.0124
634.00,0.0124
633.00,0.0126
632.00,0.0129
631.00,0.0131
630.00,0.0132
629.00,0.0131
628.00,0.0130
627.00,0.0131
626.00,0.0132
625.00,0.0133
624.00,0.0133
623.00,0.0133
622.00,0.0133
621.00,0.0133
620.00,0.0132
619.00,0.0130
618.00,0.0129
617.00,0.0129
616.00,0.0129
615.00,0.0130
614.00,0.0132
613.00,0.0133
612.00,0.0133
611.00,0.0132
610.00,0.0133
609.00,0.0133
608.00,0.0132
607.00,0.0132
606.00,0.0134
605.00,0.0137
604.00,0.0138
603.00,0.0136
602.00,0.0132
601.00,0.0130
600.00,0.0129
599.00,0.0128
598.00,0.0129
597.00,0.0131
596.00,0.0134
595.00,0.0136
594.00,0.0136
593.00,0.0134
592.00,0.0131
591.00,0.0128
590.00,0.0126
589.00,0.0125
588.00,0.0125
587.00,0.0126
586.00,0.0129
585.00,0.0133
584.00,0.0138
583.00,0.0141
582.00,0.0143
581.00,0.0144
580.00,0.0143
579.00,0.0141
578.00,0.0139
577.00,0.0136
576.00,0.0133
575.00,0.0131
574.00,0.0129
573.00,0.0129
572.00,0.0129
571.00,0.0131
570.00,0.0133
569.00,0.0135
568.00,0.0135
567.00,0.0134
566.00,0.0133
565.00,0.0131
564.00,0.0128
563.00,0.0126
562.00,0.0126
561.00,0.0127
560.00,0.0130
559.00,0.0132
558.00,0.0132
557.00,0.0130
556.00,0.0127
555.00,0.0124
554.00,0.0124
553.00,0.0126
552.00,0.0129
551.00,0.0131
550.00,0.0134
549.00,0.0138
548.00,0.0140
547.00,0.0138
546.00,0.0134
545.00,0.0129
544.00,0.0126
543.00,0.0125
542.00,0.0124
541.00,0.0124
540.00,0.0126
539.00,0.0127
538.00,0.0130
537.00,0.0133
536.00,0.0138
535.00,0.0141
534.00,0.0143
533.00,0.0143
532.00,0.0144
531.00,0.0145
530.00,0.0146
529.00,0.0144
528.00,0.0140
527.00,0.0136
526.00,0.0132
525.00,0.0131
524.00,0.0131
523.00,0.0132
522.00,0.0133
521.00,0.0136
520.00,0.0140
519.00,0.0141
518.00,0.0139
517.00,0.0135
516.00,0.0131
515.00,0.0129
514.00,0.0127
513.00,0.0124
512.00,0.0122
511.00,0.0123
510.00,0.0125
509.00,0.0124
508.00,0.0118
507.00,0.0113
506.00,0.0114
505.00,0.0120
504.00,0.0126
503.00,0.0128
502.00,0.0127
501.00,0.0125
500.00,0.0126
499.00,0.0126
498.00,0.0124
497.00,0.0119
496.00,0.0115
495.00,0.0114
494.00,0.0114
493.00,0.0116
492.00,0.0118
491.00,0.0121
490.00,0.0123
489.00,0.0125
488.00,0.0125
487.00,0.0126
486.00,0.0128
485.00,0.0130
484.00,0.0128
483.00,0.0123
482.00,0.0120
481.00,0.0121
480.00,0.0124
479.00,0.0127
478.00,0.0130
477.00,0.0133
476.00,0.0134
475.00,0.0133
474.00,0.0132
473.00,0.0134
472.00,0.0136
471.00,0.0136
470.00,0.0134
469.00,0.0131
468.00,0.0132
467.00,0.0137
466.00,0.0145
465.00,0.0151
464.00,0.0157
463.00,0.0165
462.00,0.0175
461.00,0.0187
460.00,0.0197
459.00,0.0201
458.00,0.0193
457.00,0.0178
456.00,0.0170
455.00,0.0172
454.00,0.0179
453.00,0.0180
452.00,0.0174
451.00,0.0167
450.00,0.0166
