Created as New Dataset,Sample 134 By Administrator Date Friday, September 05 2025
cm-1,A
4000.00,0.0009
3999.00,0.0010
3998.00,0.0010
3997.00,0.0010
3996.00,0.0010
3995.00,0.0010
3994.00,0.0010
3993.00,0.0010
3992.00,0.0010
3991.00,0.0010
3990.00,0.0010
3989.00,0.0009
3988.00,0.0009
3987.00,0.0009
3986.00,0.0009
3985.00,0.0009
3984.00,0.0009
3983.00,0.0009
3982.00,0.0009
3981.00,0.0009
3980.00,0.0009
3979.00,0.0009
3978.00,0.0009
3977.00,0.0008
3976.00,0.0008
3975.00,0.0008
3974.00,0.0008
3973.00,0.0008
3972.00,0.0008
3971.00,0.0008
3970.00,0.0008
3969.00,0.0008
3968.00,0.0008
3967.00,0.0008
3966.00,0.0008
3965.00,0.0008
3964.00,0.0007
3963.00,0.0007
3962.00,0.0007
3961.00,0.0007
3960.00,0.0007
3959.00,0.0007
3958.00,0.0007
3957.00,0.0007
3956.00,0.0007
3955.00,0.0007
3954.00,0.0007
3953.00,0.0007
3952.00,0.0008
3951.00,0.0008
3950.00,0.0008
3949.00,0.0008
3948.00,0.0007
3947.00,0.0007
3946.00,0.0007
3945.00,0.0007
3944.00,0.0007
3943.00,0.0007
3942.00,0.0007
3941.00,0.0007
3940.00,0.0007
3939.00,0.0007
3938.00,0.0007
3937.00,0.0007
3936.00,0.0008
3935.00,0.0008
3934.00,0.0008
3933.00,0.0008
3932.00,0.0008
3931.00,0.0008
3930.00,0.0008
3929.00,0.0008
3928.00,0.0008
3927.00,0.0008
3926.00,0.0009
3925.00,0.0009
3924.00,0.0009
3923.00,0.0008
3922.00,0.0008
3921.00,0.0008
3920.00,0.0008
3919.00,0.0008
3918.00,0.0008
3917.00,0.0008
3916.00,0.0008
3915.00,0.0008
3914.00,0.0008
3913.00,0.0007
3912.00,0.0007
3911.00,0.0007
3910.00,0.0008
3909.00,0.0008
3908.00,0.0008
3907.00,0.0008
3906.00,0.0008
3905.00,0.0008
3904.00,0.0008
3903.00,0.0008
3902.00,0.0008
3901.00,0.0008
3900.00,0.0009
3899.00,0.0009
3898.00,0.0009
3897.00,0.0009
3896.00,0.0009
3895.00,0.0009
3894.00,0.0009
3893.00,0.0009
3892.00,0.0008
3891.00,0.0008
3890.00,0.0008
3889.00,0.0008
3888.00,0.0009
3887.00,0.0008
3886.00,0.0008
3885.00,0.0009
3884.00,0.0009
3883.00,0.0009
3882.00,0.0009
3881.00,0.0008
3880.00,0.0008
3879.00,0.0008
3878.00,0.0008
3877.00,0.0008
3876.00,0.0008
3875.00,0.0007
3874.00,0.0007
3873.00,0.0008
3872.00,0.0008
3871.00,0.0008
3870.00,0.0008
3869.00,0.0008
3868.00,0.0009
3867.00,0.0008
3866.00,0.0008
3865.00,0.0007
3864.00,0.0007
3863.00,0.0007
3862.00,0.0007
3861.00,0.0007
3860.00,0.0007
3859.00,0.0008
3858.00,0.0009
3857.00,0.0009
3856.00,0.0009
3855.00,0.0009
3854.00,0.0008
3853.00,0.0008
3852.00,0.0008
3851.00,0.0008
3850.00,0.0008
3849.00,0.0007
3848.00,0.0007
3847.00,0.0007
3846.00,0.0008
3845.00,0.0008
3844.00,0.0008
3843.00,0.0008
3842.00,0.0009
3841.00,0.0009
3840.00,0.0009
3839.00,0.0009
3838.00,0.0009
3837.00,0.0009
3836.00,0.0009
3835.00,0.0008
3834.00,0.0008
3833.00,0.0007
3832.00,0.0006
3831.00,0.0006
3830.00,0.0006
3829.00,0.0007
3828.00,0.0007
3827.00,0.0007
3826.00,0.0007
3825.00,0.0008
3824.00,0.0009
3823.00,0.0009
3822.00,0.0009
3821.00,0.0009
3820.00,0.0009
3819.00,0.0009
3818.00,0.0009
3817.00,0.0008
3816.00,0.0007
3815.00,0.0007
3814.00,0.0008
3813.00,0.0008
3812.00,0.0007
3811.00,0.0008
3810.00,0.0008
3809.00,0.0008
3808.00,0.0008
3807.00,0.0008
3806.00,0.0008
3805.00,0.0009
3804.00,0.0009
3803.00,0.0009
3802.00,0.0008
3801.00,0.0008
3800.00,0.0009
3799.00,0.0009
3798.00,0.0008
3797.00,0.0008
3796.00,0.0007
3795.00,0.0007
3794.00,0.0007
3793.00,0.0007
3792.00,0.0007
3791.00,0.0007
3790.00,0.0008
3789.00,0.0008
3788.00,0.0008
3787.00,0.0008
3786.00,0.0007
3785.00,0.0007
3784.00,0.0007
3783.00,0.0007
3782.00,0.0007
3781.00,0.0007
3780.00,0.0007
3779.00,0.0008
3778.00,0.0008
3777.00,0.0009
3776.00,0.0009
3775.00,0.0008
3774.00,0.0008
3773.00,0.0008
3772.00,0.0008
3771.00,0.0008
3770.00,0.0008
3769.00,0.0008
3768.00,0.0008
3767.00,0.0008
3766.00,0.0007
3765.00,0.0007
3764.00,0.0007
3763.00,0.0007
3762.00,0.0007
3761.00,0.0007
3760.00,0.0007
3759.00,0.0008
3758.00,0.0008
3757.00,0.0009
3756.00,0.0009
3755.00,0.0010
3754.00,0.0010
3753.00,0.0010
3752.00,0.0010
3751.00,0.0010
3750.00,0.0011
3749.00,0.0011
3748.00,0.0012
3747.00,0.0012
3746.00,0.0011
3745.00,0.0009
3744.00,0.0008
3743.00,0.0008
3742.00,0.0008
3741.00,0.0007
3740.00,0.0007
3739.00,0.0007
3738.00,0.0008
3737.00,0.0008
3736.00,0.0008
3735.00,0.0008
3734.00,0.0007
3733.00,0.0007
3732.00,0.0007
3731.00,0.0007
3730.00,0.0008
3729.00,0.0007
3728.00,0.0007
3727.00,0.0006
3726.00,0.0005
3725.00,0.0005
3724.00,0.0005
3723.00,0.0005
3722.00,0.0005
3721.00,0.0006
3720.00,0.0006
3719.00,0.0006
3718.00,0.0006
3717.00,0.0007
3716.00,0.0007
3715.00,0.0007
3714.00,0.0007
3713.00,0.0007
3712.00,0.0007
3711.00,0.0007
3710.00,0.0007
3709.00,0.0007
3708.00,0.0007
3707.00,0.0007
3706.00,0.0007
3705.00,0.0007
3704.00,0.0006
3703.00,0.0006
3702.00,0.0006
3701.00,0.0006
3700.00,0.0006
3699.00,0.0006
3698.00,0.0006
3697.00,0.0006
3696.00,0.0006
3695.00,0.0007
3694.00,0.0007
3693.00,0.0007
3692.00,0.0007
3691.00,0.0008
3690.00,0.0007
3689.00,0.0007
3688.00,0.0007
3687.00,0.0008
3686.00,0.0008
3685.00,0.0007
3684.00,0.0007
3683.00,0.0007
3682.00,0.0007
3681.00,0.0007
3680.00,0.0008
3679.00,0.0008
3678.00,0.0009
3677.00,0.0009
3676.00,0.0009
3675.00,0.0010
3674.00,0.0010
3673.00,0.0011
3672.00,0.0011
3671.00,0.0010
3670.00,0.0011
3669.00,0.0011
3668.00,0.0010
3667.00,0.0009
3666.00,0.0008
3665.00,0.0008
3664.00,0.0007
3663.00,0.0007
3662.00,0.0007
3661.00,0.0007
3660.00,0.0008
3659.00,0.0008
3658.00,0.0008
3657.00,0.0008
3656.00,0.0008
3655.00,0.0008
3654.00,0.0008
3653.00,0.0009
3652.00,0.0008
3651.00,0.0008
3650.00,0.0009
3649.00,0.0010
3648.00,0.0010
3647.00,0.0011
3646.00,0.0010
3645.00,0.0010
3644.00,0.0010
3643.00,0.0010
3642.00,0.0010
3641.00,0.0010
3640.00,0.0010
3639.00,0.0011
3638.00,0.0011
3637.00,0.0011
3636.00,0.0011
3635.00,0.0011
3634.00,0.0011
3633.00,0.0011
3632.00,0.0012
3631.00,0.0012
3630.00,0.0012
3629.00,0.0012
3628.00,0.0012
3627.00,0.0013
3626.00,0.0012
3625.00,0.0012
3624.00,0.0012
3623.00,0.0012
3622.00,0.0012
3621.00,0.0012
3620.00,0.0012
3619.00,0.0013
3618.00,0.0014
3617.00,0.0015
3616.00,0.0015
3615.00,0.0015
3614.00,0.0015
3613.00,0.0015
3612.00,0.0014
3611.00,0.0014
3610.00,0.0014
3609.00,0.0014
3608.00,0.0015
3607.00,0.0015
3606.00,0.0016
3605.00,0.0016
3604.00,0.0016
3603.00,0.0016
3602.00,0.0015
3601.00,0.0016
3600.00,0.0016
3599.00,0.0018
3598.00,0.0018
3597.00,0.0019
3596.00,0.0019
3595.00,0.0018
3594.00,0.0018
3593.00,0.0018
3592.00,0.0018
3591.00,0.0019
3590.00,0.0019
3589.00,0.0019
3588.00,0.0019
3587.00,0.0020
3586.00,0.0021
3585.00,0.0022
3584.00,0.0022
3583.00,0.0022
3582.00,0.0022
3581.00,0.0022
3580.00,0.0023
3579.00,0.0023
3578.00,0.0023
3577.00,0.0024
3576.00,0.0024
3575.00,0.0024
3574.00,0.0024
3573.00,0.0025
3572.00,0.0025
3571.00,0.0025
3570.00,0.0025
3569.00,0.0025
3568.00,0.0025
3567.00,0.0026
3566.00,0.0027
3565.00,0.0028
3564.00,0.0028
3563.00,0.0028
3562.00,0.0028
3561.00,0.0028
3560.00,0.0029
3559.00,0.0029
3558.00,0.0030
3557.00,0.0030
3556.00,0.0030
3555.00,0.0031
3554.00,0.0031
3553.00,0.0032
3552.00,0.0032
3551.00,0.0032
3550.00,0.0032
3549.00,0.0032
3548.00,0.0032
3547.00,0.0033
3546.00,0.0034
3545.00,0.0034
3544.00,0.0035
3543.00,0.0035
3542.00,0.0035
3541.00,0.0035
3540.00,0.0035
3539.00,0.0036
3538.00,0.0036
3537.00,0.0036
3536.00,0.0037
3535.00,0.0037
3534.00,0.0038
3533.00,0.0038
3532.00,0.0039
3531.00,0.0039
3530.00,0.0040
3529.00,0.0040
3528.00,0.0040
3527.00,0.0041
3526.00,0.0041
3525.00,0.0041
3524.00,0.0042
3523.00,0.0042
3522.00,0.0042
3521.00,0.0043
3520.00,0.0043
3519.00,0.0043
3518.00,0.0044
3517.00,0.0045
3516.00,0.0045
3515.00,0.0045
3514.00,0.0045
3513.00,0.0046
3512.00,0.0046
3511.00,0.0046
3510.00,0.0046
3509.00,0.0047
3508.00,0.0048
3507.00,0.0048
3506.00,0.0049
3505.00,0.0049
3504.00,0.0049
3503.00,0.0049
3502.00,0.0049
3501.00,0.0050
3500.00,0.0051
3499.00,0.0051
3498.00,0.0052
3497.00,0.0053
3496.00,0.0053
3495.00,0.0053
3494.00,0.0053
3493.00,0.0054
3492.00,0.0054
3491.00,0.0054
3490.00,0.0054
3489.00,0.0055
3488.00,0.0055
3487.00,0.0056
3486.00,0.0057
3485.00,0.0058
3484.00,0.0058
3483.00,0.0059
3482.00,0.0059
3481.00,0.0059
3480.00,0.0059
3479.00,0.0059
3478.00,0.0059
3477.00,0.0059
3476.00,0.0060
3475.00,0.0060
3474.00,0.0061
3473.00,0.0061
3472.00,0.0062
3471.00,0.0062
3470.00,0.0062
3469.00,0.0062
3468.00,0.0063
3467.00,0.0063
3466.00,0.0064
3465.00,0.0064
3464.00,0.0064
3463.00,0.0064
3462.00,0.0064
3461.00,0.0064
3460.00,0.0064
3459.00,0.0064
3458.00,0.0065
3457.00,0.0065
3456.00,0.0066
3455.00,0.0066
3454.00,0.0067
3453.00,0.0067
3452.00,0.0067
3451.00,0.0067
3450.00,0.0068
3449.00,0.0069
3448.00,0.0069
3447.00,0.0070
3446.00,0.0070
3445.00,0.0070
3444.00,0.0070
3443.00,0.0070
3442.00,0.0070
3441.00,0.0070
3440.00,0.0070
3439.00,0.0070
3438.00,0.0071
3437.00,0.0071
3436.00,0.0071
3435.00,0.0072
3434.00,0.0072
3433.00,0.0073
3432.00,0.0073
3431.00,0.0074
3430.00,0.0074
3429.00,0.0075
3428.00,0.0075
3427.00,0.0075
3426.00,0.0075
3425.00,0.0075
3424.00,0.0075
3423.00,0.0075
3422.00,0.0075
3421.00,0.0076
3420.00,0.0076
3419.00,0.0077
3418.00,0.0077
3417.00,0.0077
3416.00,0.0078
3415.00,0.0078
3414.00,0.0078
3413.00,0.0078
3412.00,0.0079
3411.00,0.0079
3410.00,0.0080
3409.00,0.0080
3408.00,0.0080
3407.00,0.0080
3406.00,0.0081
3405.00,0.0081
3404.00,0.0081
3403.00,0.0082
3402.00,0.0082
3401.00,0.0082
3400.00,0.0082
3399.00,0.0082
3398.00,0.0082
3397.00,0.0082
3396.00,0.0082
3395.00,0.0082
3394.00,0.0082
3393.00,0.0083
3392.00,0.0083
3391.00,0.0083
3390.00,0.0083
3389.00,0.0082
3388.00,0.0082
3387.00,0.0083
3386.00,0.0083
3385.00,0.0083
3384.00,0.0084
3383.00,0.0084
3382.00,0.0083
3381.00,0.0083
3380.00,0.0083
3379.00,0.0083
3378.00,0.0083
3377.00,0.0083
3376.00,0.0083
3375.00,0.0082
3374.00,0.0082
3373.00,0.0082
3372.00,0.0083
3371.00,0.0083
3370.00,0.0084
3369.00,0.0084
3368.00,0.0084
3367.00,0.0084
3366.00,0.0084
3365.00,0.0084
3364.00,0.0084
3363.00,0.0083
3362.00,0.0083
3361.00,0.0083
3360.00,0.0083
3359.00,0.0083
3358.00,0.0083
3357.00,0.0083
3356.00,0.0083
3355.00,0.0083
3354.00,0.0083
3353.00,0.0083
3352.00,0.0083
3351.00,0.0083
3350.00,0.0083
3349.00,0.0083
3348.00,0.0083
3347.00,0.0083
3346.00,0.0083
3345.00,0.0084
3344.00,0.0084
3343.00,0.0085
3342.00,0.0085
3341.00,0.0085
3340.00,0.0084
3339.00,0.0084
3338.00,0.0084
3337.00,0.0084
3336.00,0.0084
3335.00,0.0083
3334.00,0.0083
3333.00,0.0082
3332.00,0.0081
3331.00,0.0081
3330.00,0.0081
3329.00,0.0081
3328.00,0.0081
3327.00,0.0081
3326.00,0.0081
3325.00,0.0081
3324.00,0.0081
3323.00,0.0081
3322.00,0.0081
3321.00,0.0080
3320.00,0.0080
3319.00,0.0080
3318.00,0.0080
3317.00,0.0080
3316.00,0.0080
3315.00,0.0080
3314.00,0.0080
3313.00,0.0080
3312.00,0.0079
3311.00,0.0079
3310.00,0.0079
3309.00,0.0079
3308.00,0.0079
3307.00,0.0079
3306.00,0.0079
3305.00,0.0079
3304.00,0.0079
3303.00,0.0079
3302.00,0.0079
3301.00,0.0078
3300.00,0.0078
3299.00,0.0079
3298.00,0.0079
3297.00,0.0078
3296.00,0.0078
3295.00,0.0077
3294.00,0.0077
3293.00,0.0077
3292.00,0.0076
3291.00,0.0076
3290.00,0.0076
3289.00,0.0076
3288.00,0.0075
3287.00,0.0075
3286.00,0.0075
3285.00,0.0075
3284.00,0.0074
3283.00,0.0074
3282.00,0.0074
3281.00,0.0074
3280.00,0.0074
3279.00,0.0073
3278.00,0.0073
3277.00,0.0073
3276.00,0.0072
3275.00,0.0072
3274.00,0.0072
3273.00,0.0071
3272.00,0.0071
3271.00,0.0071
3270.00,0.0071
3269.00,0.0071
3268.00,0.0070
3267.00,0.0070
3266.00,0.0070
3265.00,0.0070
3264.00,0.0070
3263.00,0.0070
3262.00,0.0069
3261.00,0.0069
3260.00,0.0068
3259.00,0.0068
3258.00,0.0067
3257.00,0.0067
3256.00,0.0067
3255.00,0.0066
3254.00,0.0066
3253.00,0.0065
3252.00,0.0065
3251.00,0.0065
3250.00,0.0065
3249.00,0.0065
3248.00,0.0065
3247.00,0.0065
3246.00,0.0065
3245.00,0.0065
3244.00,0.0065
3243.00,0.0065
3242.00,0.0065
3241.00,0.0064
3240.00,0.0064
3239.00,0.0064
3238.00,0.0064
3237.00,0.0064
3236.00,0.0064
3235.00,0.0064
3234.00,0.0064
3233.00,0.0064
3232.00,0.0064
3231.00,0.0063
3230.00,0.0063
3229.00,0.0063
3228.00,0.0063
3227.00,0.0064
3226.00,0.0064
3225.00,0.0064
3224.00,0.0063
3223.00,0.0063
3222.00,0.0063
3221.00,0.0063
3220.00,0.0063
3219.00,0.0064
3218.00,0.0064
3217.00,0.0065
3216.00,0.0065
3215.00,0.0065
3214.00,0.0065
3213.00,0.0065
3212.00,0.0065
3211.00,0.0065
3210.00,0.0065
3209.00,0.0065
3208.00,0.0065
3207.00,0.0065
3206.00,0.0065
3205.00,0.0065
3204.00,0.0065
3203.00,0.0065
3202.00,0.0065
3201.00,0.0065
3200.00,0.0065
3199.00,0.0064
3198.00,0.0064
3197.00,0.0064
3196.00,0.0064
3195.00,0.0065
3194.00,0.0065
3193.00,0.0065
3192.00,0.0065
3191.00,0.0065
3190.00,0.0065
3189.00,0.0064
3188.00,0.0064
3187.00,0.0063
3186.00,0.0063
3185.00,0.0063
3184.00,0.0063
3183.00,0.0063
3182.00,0.0063
3181.00,0.0063
3180.00,0.0062
3179.00,0.0062
3178.00,0.0061
3177.00,0.0061
3176.00,0.0061
3175.00,0.0061
3174.00,0.0060
3173.00,0.0060
3172.00,0.0060
3171.00,0.0059
3170.00,0.0059
3169.00,0.0059
3168.00,0.0059
3167.00,0.0059
3166.00,0.0058
3165.00,0.0058
3164.00,0.0058
3163.00,0.0058
3162.00,0.0057
3161.00,0.0057
3160.00,0.0057
3159.00,0.0056
3158.00,0.0056
3157.00,0.0056
3156.00,0.0056
3155.00,0.0056
3154.00,0.0056
3153.00,0.0056
3152.00,0.0055
3151.00,0.0055
3150.00,0.0055
3149.00,0.0055
3148.00,0.0055
3147.00,0.0055
3146.00,0.0055
3145.00,0.0055
3144.00,0.0055
3143.00,0.0054
3142.00,0.0054
3141.00,0.0053
3140.00,0.0053
3139.00,0.0053
3138.00,0.0053
3137.00,0.0053
3136.00,0.0053
3135.00,0.0053
3134.00,0.0053
3133.00,0.0053
3132.00,0.0052
3131.00,0.0052
3130.00,0.0051
3129.00,0.0051
3128.00,0.0050
3127.00,0.0050
3126.00,0.0050
3125.00,0.0050
3124.00,0.0049
3123.00,0.0049
3122.00,0.0048
3121.00,0.0048
3120.00,0.0048
3119.00,0.0048
3118.00,0.0048
3117.00,0.0047
3116.00,0.0047
3115.00,0.0046
3114.00,0.0046
3113.00,0.0046
3112.00,0.0046
3111.00,0.0046
3110.00,0.0046
3109.00,0.0046
3108.00,0.0046
3107.00,0.0045
3106.00,0.0044
3105.00,0.0044
3104.00,0.0044
3103.00,0.0044
3102.00,0.0044
3101.00,0.0044
3100.00,0.0043
3099.00,0.0043
3098.00,0.0043
3097.00,0.0043
3096.00,0.0042
3095.00,0.0042
3094.00,0.0042
3093.00,0.0042
3092.00,0.0042
3091.00,0.0042
3090.00,0.0042
3089.00,0.0042
3088.00,0.0042
3087.00,0.0041
3086.00,0.0041
3085.00,0.0041
3084.00,0.0041
3083.00,0.0041
3082.00,0.0041
3081.00,0.0041
3080.00,0.0041
3079.00,0.0041
3078.00,0.0041
3077.00,0.0041
3076.00,0.0041
3075.00,0.0041
3074.00,0.0042
3073.00,0.0042
3072.00,0.0042
3071.00,0.0042
3070.00,0.0042
3069.00,0.0043
3068.00,0.0043
3067.00,0.0043
3066.00,0.0043
3065.00,0.0043
3064.00,0.0043
3063.00,0.0043
3062.00,0.0043
3061.00,0.0043
3060.00,0.0043
3059.00,0.0043
3058.00,0.0043
3057.00,0.0043
3056.00,0.0044
3055.00,0.0044
3054.00,0.0044
3053.00,0.0044
3052.00,0.0044
3051.00,0.0044
3050.00,0.0044
3049.00,0.0045
3048.00,0.0045
3047.00,0.0045
3046.00,0.0045
3045.00,0.0045
3044.00,0.0045
3043.00,0.0046
3042.00,0.0046
3041.00,0.0046
3040.00,0.0047
3039.00,0.0047
3038.00,0.0048
3037.00,0.0048
3036.00,0.0049
3035.00,0.0049
3034.00,0.0049
3033.00,0.0049
3032.00,0.0050
3031.00,0.0051
3030.00,0.0051
3029.00,0.0052
3028.00,0.0052
3027.00,0.0052
3026.00,0.0052
3025.00,0.0053
3024.00,0.0053
3023.00,0.0054
3022.00,0.0054
3021.00,0.0055
3020.00,0.0055
3019.00,0.0056
3018.00,0.0058
3017.00,0.0059
3016.00,0.0060
3015.00,0.0060
3014.00,0.0061
3013.00,0.0062
3012.00,0.0063
3011.00,0.0064
3010.00,0.0065
3009.00,0.0067
3008.00,0.0069
3007.00,0.0070
3006.00,0.0072
3005.00,0.0073
3004.00,0.0075
3003.00,0.0077
3002.00,0.0079
3001.00,0.0081
3000.00,0.0084
2999.00,0.0087
2998.00,0.0090
2997.00,0.0093
2996.00,0.0096
2995.00,0.0100
2994.00,0.0104
2993.00,0.0109
2992.00,0.0114
2991.00,0.0120
2990.00,0.0126
2989.00,0.0133
2988.00,0.0141
2987.00,0.0150
2986.00,0.0159
2985.00,0.0170
2984.00,0.0181
2983.00,0.0194
2982.00,0.0209
2981.00,0.0226
2980.00,0.0245
2979.00,0.0267
2978.00,0.0292
2977.00,0.0320
2976.00,0.0352
2975.00,0.0388
2974.00,0.0430
2973.00,0.0477
2972.00,0.0530
2971.00,0.0590
2970.00,0.0656
2969.00,0.0729
2968.00,0.0809
2967.00,0.0894
2966.00,0.0983
2965.00,0.1075
2964.00,0.1164
2963.00,0.1249
2962.00,0.1324
2961.00,0.1387
2960.00,0.1438
2959.00,0.1480
2958.00,0.1517
2957.00,0.1554
2956.00,0.1595
2955.00,0.1643
2954.00,0.1696
2953.00,0.1750
2952.00,0.1797
2951.00,0.1827
2950.00,0.1831
2949.00,0.1804
2948.00,0.1743
2947.00,0.1653
2946.00,0.1544
2945.00,0.1428
2944.00,0.1318
2943.00,0.1222
2942.00,0.1147
2941.00,0.1097
2940.00,0.1069
2939.00,0.1063
2938.00,0.1076
2937.00,0.1106
2936.00,0.1151
2935.00,0.1211
2934.00,0.1283
2933.00,0.1368
2932.00,0.1461
2931.00,0.1563
2930.00,0.1669
2929.00,0.1778
2928.00,0.1885
2927.00,0.1989
2926.00,0.2089
2925.00,0.2184
2924.00,0.2276
2923.00,0.2365
2922.00,0.2452
2921.00,0.2533
2920.00,0.2604
2919.00,0.2655
2918.00,0.2679
2917.00,0.2668
2916.00,0.2623
2915.00,0.2549
2914.00,0.2454
2913.00,0.2352
2912.00,0.2251
2911.00,0.2157
2910.00,0.2072
2909.00,0.1996
2908.00,0.1928
2907.00,0.1863
2906.00,0.1800
2905.00,0.1737
2904.00,0.1673
2903.00,0.1608
2902.00,0.1544
2901.00,0.1480
2900.00,0.1418
2899.00,0.1360
2898.00,0.1305
2897.00,0.1254
2896.00,0.1208
2895.00,0.1168
2894.00,0.1133
2893.00,0.1105
2892.00,0.1082
2891.00,0.1065
2890.00,0.1053
2889.00,0.1046
2888.00,0.1042
2887.00,0.1041
2886.00,0.1044
2885.00,0.1050
2884.00,0.1062
2883.00,0.1078
2882.00,0.1098
2881.00,0.1122
2880.00,0.1145
2879.00,0.1166
2878.00,0.1180
2877.00,0.1185
2876.00,0.1183
2875.00,0.1177
2874.00,0.1171
2873.00,0.1169
2872.00,0.1174
2871.00,0.1186
2870.00,0.1201
2869.00,0.1215
2868.00,0.1222
2867.00,0.1216
2866.00,0.1190
2865.00,0.1144
2864.00,0.1082
2863.00,0.1012
2862.00,0.0943
2861.00,0.0882
2860.00,0.0835
2859.00,0.0803
2858.00,0.0785
2857.00,0.0779
2856.00,0.0782
2855.00,0.0793
2854.00,0.0808
2853.00,0.0827
2852.00,0.0846
2851.00,0.0862
2850.00,0.0874
2849.00,0.0882
2848.00,0.0888
2847.00,0.0897
2846.00,0.0913
2845.00,0.0939
2844.00,0.0977
2843.00,0.1023
2842.00,0.1074
2841.00,0.1125
2840.00,0.1167
2839.00,0.1193
2838.00,0.1194
2837.00,0.1167
2836.00,0.1109
2835.00,0.1027
2834.00,0.0927
2833.00,0.0822
2832.00,0.0721
2831.00,0.0631
2830.00,0.0554
2829.00,0.0491
2828.00,0.0439
2827.00,0.0398
2826.00,0.0363
2825.00,0.0335
2824.00,0.0311
2823.00,0.0292
2822.00,0.0275
2821.00,0.0261
2820.00,0.0248
2819.00,0.0237
2818.00,0.0227
2817.00,0.0219
2816.00,0.0211
2815.00,0.0205
2814.00,0.0198
2813.00,0.0193
2812.00,0.0187
2811.00,0.0181
2810.00,0.0176
2809.00,0.0170
2808.00,0.0165
2807.00,0.0159
2806.00,0.0152
2805.00,0.0146
2804.00,0.0140
2803.00,0.0135
2802.00,0.0129
2801.00,0.0125
2800.00,0.0121
2799.00,0.0118
2798.00,0.0115
2797.00,0.0113
2796.00,0.0111
2795.00,0.0108
2794.00,0.0106
2793.00,0.0103
2792.00,0.0100
2791.00,0.0097
2790.00,0.0093
2789.00,0.0090
2788.00,0.0087
2787.00,0.0084
2786.00,0.0082
2785.00,0.0079
2784.00,0.0077
2783.00,0.0074
2782.00,0.0073
2781.00,0.0071
2780.00,0.0069
2779.00,0.0067
2778.00,0.0066
2777.00,0.0065
2776.00,0.0063
2775.00,0.0062
2774.00,0.0061
2773.00,0.0061
2772.00,0.0060
2771.00,0.0060
2770.00,0.0060
2769.00,0.0060
2768.00,0.0059
2767.00,0.0059
2766.00,0.0058
2765.00,0.0058
2764.00,0.0057
2763.00,0.0056
2762.00,0.0056
2761.00,0.0055
2760.00,0.0055
2759.00,0.0055
2758.00,0.0055
2757.00,0.0055
2756.00,0.0055
2755.00,0.0055
2754.00,0.0055
2753.00,0.0054
2752.00,0.0054
2751.00,0.0053
2750.00,0.0053
2749.00,0.0053
2748.00,0.0053
2747.00,0.0054
2746.00,0.0054
2745.00,0.0055
2744.00,0.0055
2743.00,0.0056
2742.00,0.0057
2741.00,0.0058
2740.00,0.0059
2739.00,0.0061
2738.00,0.0062
2737.00,0.0063
2736.00,0.0064
2735.00,0.0066
2734.00,0.0067
2733.00,0.0068
2732.00,0.0070
2731.00,0.0072
2730.00,0.0074
2729.00,0.0076
2728.00,0.0078
2727.00,0.0081
2726.00,0.0083
2725.00,0.0085
2724.00,0.0087
2723.00,0.0087
2722.00,0.0086
2721.00,0.0084
2720.00,0.0082
2719.00,0.0079
2718.00,0.0076
2717.00,0.0073
2716.00,0.0070
2715.00,0.0068
2714.00,0.0065
2713.00,0.0063
2712.00,0.0061
2711.00,0.0060
2710.00,0.0058
2709.00,0.0057
2708.00,0.0055
2707.00,0.0054
2706.00,0.0053
2705.00,0.0052
2704.00,0.0051
2703.00,0.0050
2702.00,0.0050
2701.00,0.0049
2700.00,0.0048
2699.00,0.0048
2698.00,0.0047
2697.00,0.0047
2696.00,0.0047
2695.00,0.0047
2694.00,0.0047
2693.00,0.0047
2692.00,0.0047
2691.00,0.0046
2690.00,0.0046
2689.00,0.0046
2688.00,0.0046
2687.00,0.0046
2686.00,0.0046
2685.00,0.0046
2684.00,0.0046
2683.00,0.0046
2682.00,0.0046
2681.00,0.0047
2680.00,0.0047
2679.00,0.0047
2678.00,0.0047
2677.00,0.0047
2676.00,0.0047
2675.00,0.0047
2674.00,0.0047
2673.00,0.0046
2672.00,0.0046
2671.00,0.0045
2670.00,0.0045
2669.00,0.0045
2668.00,0.0045
2667.00,0.0045
2666.00,0.0046
2665.00,0.0046
2664.00,0.0046
2663.00,0.0047
2662.00,0.0047
2661.00,0.0048
2660.00,0.0048
2659.00,0.0048
2658.00,0.0048
2657.00,0.0048
2656.00,0.0048
2655.00,0.0047
2654.00,0.0047
2653.00,0.0047
2652.00,0.0046
2651.00,0.0046
2650.00,0.0046
2649.00,0.0045
2648.00,0.0044
2647.00,0.0043
2646.00,0.0043
2645.00,0.0043
2644.00,0.0042
2643.00,0.0042
2642.00,0.0041
2641.00,0.0041
2640.00,0.0040
2639.00,0.0040
2638.00,0.0040
2637.00,0.0040
2636.00,0.0040
2635.00,0.0040
2634.00,0.0040
2633.00,0.0040
2632.00,0.0040
2631.00,0.0040
2630.00,0.0040
2629.00,0.0040
2628.00,0.0040
2627.00,0.0040
2626.00,0.0041
2625.00,0.0041
2624.00,0.0042
2623.00,0.0042
2622.00,0.0042
2621.00,0.0042
2620.00,0.0041
2619.00,0.0041
2618.00,0.0041
2617.00,0.0041
2616.00,0.0041
2615.00,0.0040
2614.00,0.0040
2613.00,0.0039
2612.00,0.0038
2611.00,0.0038
2610.00,0.0037
2609.00,0.0037
2608.00,0.0036
2607.00,0.0035
2606.00,0.0035
2605.00,0.0034
2604.00,0.0034
2603.00,0.0034
2602.00,0.0034
2601.00,0.0033
2600.00,0.0032
2599.00,0.0032
2598.00,0.0031
2597.00,0.0032
2596.00,0.0032
2595.00,0.0033
2594.00,0.0034
2593.00,0.0034
2592.00,0.0034
2591.00,0.0034
2590.00,0.0034
2589.00,0.0035
2588.00,0.0036
2587.00,0.0038
2586.00,0.0039
2585.00,0.0040
2584.00,0.0040
2583.00,0.0039
2582.00,0.0038
2581.00,0.0038
2580.00,0.0037
2579.00,0.0037
2578.00,0.0035
2577.00,0.0034
2576.00,0.0033
2575.00,0.0032
2574.00,0.0031
2573.00,0.0031
2572.00,0.0030
2571.00,0.0029
2570.00,0.0028
2569.00,0.0027
2568.00,0.0027
2567.00,0.0026
2566.00,0.0025
2565.00,0.0025
2564.00,0.0025
2563.00,0.0026
2562.00,0.0026
2561.00,0.0025
2560.00,0.0024
2559.00,0.0023
2558.00,0.0023
2557.00,0.0023
2556.00,0.0023
2555.00,0.0023
2554.00,0.0023
2553.00,0.0023
2552.00,0.0023
2551.00,0.0022
2550.00,0.0021
2549.00,0.0021
2548.00,0.0020
2547.00,0.0019
2546.00,0.0019
2545.00,0.0019
2544.00,0.0019
2543.00,0.0020
2542.00,0.0020
2541.00,0.0019
2540.00,0.0019
2539.00,0.0018
2538.00,0.0018
2537.00,0.0018
2536.00,0.0018
2535.00,0.0018
2534.00,0.0018
2533.00,0.0018
2532.00,0.0018
2531.00,0.0017
2530.00,0.0017
2529.00,0.0017
2528.00,0.0016
2527.00,0.0016
2526.00,0.0016
2525.00,0.0015
2524.00,0.0015
2523.00,0.0014
2522.00,0.0015
2521.00,0.0015
2520.00,0.0015
2519.00,0.0015
2518.00,0.0015
2517.00,0.0014
2516.00,0.0013
2515.00,0.0012
2514.00,0.0012
2513.00,0.0011
2512.00,0.0011
2511.00,0.0012
2510.00,0.0012
2509.00,0.0012
2508.00,0.0012
2507.00,0.0012
2506.00,0.0012
2505.00,0.0013
2504.00,0.0012
2503.00,0.0012
2502.00,0.0012
2501.00,0.0012
2500.00,0.0012
2499.00,0.0012
2498.00,0.0012
2497.00,0.0012
2496.00,0.0011
2495.00,0.0011
2494.00,0.0010
2493.00,0.0010
2492.00,0.0011
2491.00,0.0011
2490.00,0.0011
2489.00,0.0011
2488.00,0.0011
2487.00,0.0011
2486.00,0.0011
2485.00,0.0011
2484.00,0.0011
2483.00,0.0012
2482.00,0.0012
2481.00,0.0012
2480.00,0.0012
2479.00,0.0012
2478.00,0.0012
2477.00,0.0012
2476.00,0.0011
2475.00,0.0010
2474.00,0.0010
2473.00,0.0010
2472.00,0.0010
2471.00,0.0010
2470.00,0.0010
2469.00,0.0010
2468.00,0.0010
2467.00,0.0010
2466.00,0.0010
2465.00,0.0010
2464.00,0.0010
2463.00,0.0011
2462.00,0.0011
2461.00,0.0012
2460.00,0.0012
2459.00,0.0012
2458.00,0.0013
2457.00,0.0013
2456.00,0.0013
2455.00,0.0012
2454.00,0.0012
2453.00,0.0012
2452.00,0.0013
2451.00,0.0013
2450.00,0.0013
2449.00,0.0013
2448.00,0.0013
2447.00,0.0013
2446.00,0.0012
2445.00,0.0012
2444.00,0.0013
2443.00,0.0013
2442.00,0.0013
2441.00,0.0013
2440.00,0.0012
2439.00,0.0013
2438.00,0.0013
2437.00,0.0014
2436.00,0.0014
2435.00,0.0014
2434.00,0.0013
2433.00,0.0013
2432.00,0.0012
2431.00,0.0012
2430.00,0.0012
2429.00,0.0012
2428.00,0.0012
2427.00,0.0012
2426.00,0.0012
2425.00,0.0012
2424.00,0.0012
2423.00,0.0012
2422.00,0.0012
2421.00,0.0011
2420.00,0.0011
2419.00,0.0011
2418.00,0.0011
2417.00,0.0012
2416.00,0.0012
2415.00,0.0011
2414.00,0.0011
2413.00,0.0010
2412.00,0.0009
2411.00,0.0009
2410.00,0.0010
2409.00,0.0010
2408.00,0.0010
2407.00,0.0010
2406.00,0.0009
2405.00,0.0009
2404.00,0.0009
2403.00,0.0009
2402.00,0.0009
2401.00,0.0010
2400.00,0.0010
2399.00,0.0010
2398.00,0.0010
2397.00,0.0010
2396.00,0.0010
2395.00,0.0010
2394.00,0.0009
2393.00,0.0009
2392.00,0.0009
2391.00,0.0009
2390.00,0.0009
2389.00,0.0009
2388.00,0.0008
2387.00,0.0008
2386.00,0.0008
2385.00,0.0008
2384.00,0.0007
2383.00,0.0007
2382.00,0.0007
2381.00,0.0006
2380.00,0.0005
2379.00,0.0005
2378.00,0.0004
2377.00,0.0004
2376.00,0.0004
2375.00,0.0004
2374.00,0.0004
2373.00,0.0005
2372.00,0.0005
2371.00,0.0005
2370.00,0.0005
2369.00,0.0004
2368.00,0.0004
2367.00,0.0004
2366.00,0.0004
2365.00,0.0005
2364.00,0.0005
2363.00,0.0005
2362.00,0.0005
2361.00,0.0005
2360.00,0.0005
2359.00,0.0006
2358.00,0.0007
2357.00,0.0007
2356.00,0.0008
2355.00,0.0007
2354.00,0.0006
2353.00,0.0006
2352.00,0.0006
2351.00,0.0006
2350.00,0.0006
2349.00,0.0007
2348.00,0.0007
2347.00,0.0007
2346.00,0.0007
2345.00,0.0007
2344.00,0.0007
2343.00,0.0007
2342.00,0.0008
2341.00,0.0009
2340.00,0.0010
2339.00,0.0010
2338.00,0.0010
2337.00,0.0010
2336.00,0.0010
2335.00,0.0010
2334.00,0.0009
2333.00,0.0008
2332.00,0.0008
2331.00,0.0008
2330.00,0.0008
2329.00,0.0009
2328.00,0.0012
2327.00,0.0016
2326.00,0.0020
2325.00,0.0023
2324.00,0.0023
2323.00,0.0022
2322.00,0.0020
2321.00,0.0018
2320.00,0.0016
2319.00,0.0015
2318.00,0.0015
2317.00,0.0015
2316.00,0.0015
2315.00,0.0015
2314.00,0.0014
2313.00,0.0013
2312.00,0.0012
2311.00,0.0011
2310.00,0.0011
2309.00,0.0011
2308.00,0.0012
2307.00,0.0013
2306.00,0.0014
2305.00,0.0014
2304.00,0.0014
2303.00,0.0013
2302.00,0.0013
2301.00,0.0013
2300.00,0.0013
2299.00,0.0013
2298.00,0.0013
2297.00,0.0014
2296.00,0.0014
2295.00,0.0015
2294.00,0.0016
2293.00,0.0017
2292.00,0.0017
2291.00,0.0018
2290.00,0.0018
2289.00,0.0018
2288.00,0.0019
2287.00,0.0019
2286.00,0.0019
2285.00,0.0019
2284.00,0.0019
2283.00,0.0018
2282.00,0.0016
2281.00,0.0016
2280.00,0.0016
2279.00,0.0016
2278.00,0.0016
2277.00,0.0016
2276.00,0.0016
2275.00,0.0016
2274.00,0.0015
2273.00,0.0015
2272.00,0.0014
2271.00,0.0014
2270.00,0.0014
2269.00,0.0014
2268.00,0.0015
2267.00,0.0016
2266.00,0.0016
2265.00,0.0016
2264.00,0.0015
2263.00,0.0013
2262.00,0.0012
2261.00,0.0012
2260.00,0.0012
2259.00,0.0013
2258.00,0.0014
2257.00,0.0014
2256.00,0.0013
2255.00,0.0012
2254.00,0.0010
2253.00,0.0009
2252.00,0.0008
2251.00,0.0007
2250.00,0.0008
2249.00,0.0009
2248.00,0.0010
2247.00,0.0011
2246.00,0.0011
2245.00,0.0010
2244.00,0.0010
2243.00,0.0010
2242.00,0.0010
2241.00,0.0010
2240.00,0.0009
2239.00,0.0009
2238.00,0.0008
2237.00,0.0008
2236.00,0.0009
2235.00,0.0010
2234.00,0.0010
2233.00,0.0010
2232.00,0.0011
2231.00,0.0013
2230.00,0.0014
2229.00,0.0014
2228.00,0.0014
2227.00,0.0013
2226.00,0.0011
2225.00,0.0010
2224.00,0.0010
2223.00,0.0009
2222.00,0.0008
2221.00,0.0007
2220.00,0.0006
2219.00,0.0005
2218.00,0.0005
2217.00,0.0006
2216.00,0.0007
2215.00,0.0007
2214.00,0.0008
2213.00,0.0008
2212.00,0.0008
2211.00,0.0008
2210.00,0.0007
2209.00,0.0007
2208.00,0.0008
2207.00,0.0008
2206.00,0.0009
2205.00,0.0010
2204.00,0.0012
2203.00,0.0013
2202.00,0.0012
2201.00,0.0010
2200.00,0.0010
2199.00,0.0010
2198.00,0.0012
2197.00,0.0012
2196.00,0.0012
2195.00,0.0012
2194.00,0.0013
2193.00,0.0014
2192.00,0.0015
2191.00,0.0015
2190.00,0.0015
2189.00,0.0015
2188.00,0.0016
2187.00,0.0018
2186.00,0.0020
2185.00,0.0021
2184.00,0.0018
2183.00,0.0014
2182.00,0.0010
2181.00,0.0007
2180.00,0.0007
2179.00,0.0007
2178.00,0.0007
2177.00,0.0006
2176.00,0.0003
2175.00,0.0001
2174.00,0.0001
2173.00,0.0003
2172.00,0.0007
2171.00,0.0012
2170.00,0.0017
2169.00,0.0020
2168.00,0.0022
2167.00,0.0022
2166.00,0.0019
2165.00,0.0018
2164.00,0.0018
2163.00,0.0018
2162.00,0.0017
2161.00,0.0011
2160.00,-0.0001
2159.00,-0.0015
2158.00,-0.0027
2157.00,-0.0032
2156.00,-0.0029
2155.00,-0.0023
2154.00,-0.0016
2153.00,-0.0010
2152.00,-0.0007
2151.00,-0.0006
2150.00,-0.0007
2149.00,-0.0007
2148.00,-0.0008
2147.00,-0.0010
2146.00,-0.0012
2145.00,-0.0014
2144.00,-0.0014
2143.00,-0.0012
2142.00,-0.0009
2141.00,-0.0006
2140.00,-0.0005
2139.00,-0.0005
2138.00,-0.0005
2137.00,-0.0005
2136.00,-0.0006
2135.00,-0.0008
2134.00,-0.0011
2133.00,-0.0013
2132.00,-0.0015
2131.00,-0.0015
2130.00,-0.0014
2129.00,-0.0013
2128.00,-0.0011
2127.00,-0.0009
2126.00,-0.0008
2125.00,-0.0006
2124.00,-0.0006
2123.00,-0.0005
2122.00,-0.0005
2121.00,-0.0003
2120.00,-0.0002
2119.00,-0.0001
2118.00,0.0000
2117.00,0.0002
2116.00,0.0003
2115.00,0.0005
2114.00,0.0005
2113.00,0.0005
2112.00,0.0004
2111.00,0.0003
2110.00,0.0002
2109.00,0.0002
2108.00,0.0003
2107.00,0.0005
2106.00,0.0006
2105.00,0.0006
2104.00,0.0005
2103.00,0.0005
2102.00,0.0005
2101.00,0.0005
2100.00,0.0005
2099.00,0.0003
2098.00,0.0002
2097.00,-0.0000
2096.00,-0.0002
2095.00,-0.0004
2094.00,-0.0005
2093.00,-0.0004
2092.00,-0.0003
2091.00,-0.0000
2090.00,0.0001
2089.00,0.0002
2088.00,0.0002
2087.00,0.0002
2086.00,0.0002
2085.00,0.0003
2084.00,0.0004
2083.00,0.0004
2082.00,0.0005
2081.00,0.0005
2080.00,0.0005
2079.00,0.0004
2078.00,0.0003
2077.00,0.0003
2076.00,0.0004
2075.00,0.0004
2074.00,0.0004
2073.00,0.0004
2072.00,0.0004
2071.00,0.0004
2070.00,0.0003
2069.00,0.0002
2068.00,0.0001
2067.00,-0.0000
2066.00,-0.0001
2065.00,-0.0001
2064.00,-0.0001
2063.00,-0.0001
2062.00,-0.0001
2061.00,-0.0001
2060.00,-0.0001
2059.00,0.0001
2058.00,0.0003
2057.00,0.0005
2056.00,0.0006
2055.00,0.0005
2054.00,0.0005
2053.00,0.0007
2052.00,0.0011
2051.00,0.0013
2050.00,0.0012
2049.00,0.0009
2048.00,0.0006
2047.00,0.0003
2046.00,0.0002
2045.00,0.0001
2044.00,0.0001
2043.00,0.0001
2042.00,0.0002
2041.00,0.0002
2040.00,0.0002
2039.00,0.0001
2038.00,0.0001
2037.00,0.0003
2036.00,0.0005
2035.00,0.0004
2034.00,-0.0001
2033.00,-0.0007
2032.00,-0.0012
2031.00,-0.0013
2030.00,-0.0011
2029.00,-0.0007
2028.00,-0.0005
2027.00,-0.0004
2026.00,-0.0006
2025.00,-0.0008
2024.00,-0.0009
2023.00,-0.0010
2022.00,-0.0008
2021.00,-0.0005
2020.00,-0.0002
2019.00,-0.0000
2018.00,0.0000
2017.00,0.0000
2016.00,-0.0001
2015.00,-0.0003
2014.00,-0.0005
2013.00,-0.0007
2012.00,-0.0009
2011.00,-0.0011
2010.00,-0.0013
2009.00,-0.0015
2008.00,-0.0016
2007.00,-0.0018
2006.00,-0.0019
2005.00,-0.0018
2004.00,-0.0016
2003.00,-0.0014
2002.00,-0.0014
2001.00,-0.0013
2000.00,-0.0013
1999.00,-0.0013
1998.00,-0.0012
1997.00,-0.0009
1996.00,-0.0006
1995.00,-0.0003
1994.00,-0.0001
1993.00,0.0001
1992.00,0.0002
1991.00,0.0003
1990.00,0.0003
1989.00,0.0002
1988.00,0.0000
1987.00,-0.0002
1986.00,-0.0004
1985.00,-0.0003
1984.00,0.0000
1983.00,0.0004
1982.00,0.0008
1981.00,0.0011
1980.00,0.0011
1979.00,0.0006
1978.00,-0.0001
1977.00,-0.0005
1976.00,-0.0007
1975.00,-0.0008
1974.00,-0.0011
1973.00,-0.0012
1972.00,-0.0012
1971.00,-0.0010
1970.00,-0.0008
1969.00,-0.0008
1968.00,-0.0008
1967.00,-0.0009
1966.00,-0.0009
1965.00,-0.0009
1964.00,-0.0009
1963.00,-0.0009
1962.00,-0.0009
1961.00,-0.0010
1960.00,-0.0011
1959.00,-0.0013
1958.00,-0.0013
1957.00,-0.0012
1956.00,-0.0011
1955.00,-0.0011
1954.00,-0.0011
1953.00,-0.0012
1952.00,-0.0013
1951.00,-0.0014
1950.00,-0.0016
1949.00,-0.0017
1948.00,-0.0016
1947.00,-0.0014
1946.00,-0.0013
1945.00,-0.0013
1944.00,-0.0012
1943.00,-0.0012
1942.00,-0.0013
1941.00,-0.0013
1940.00,-0.0014
1939.00,-0.0014
1938.00,-0.0013
1937.00,-0.0011
1936.00,-0.0008
1935.00,-0.0007
1934.00,-0.0007
1933.00,-0.0008
1932.00,-0.0008
1931.00,-0.0009
1930.00,-0.0008
1929.00,-0.0008
1928.00,-0.0007
1927.00,-0.0007
1926.00,-0.0007
1925.00,-0.0007
1924.00,-0.0006
1923.00,-0.0006
1922.00,-0.0005
1921.00,-0.0005
1920.00,-0.0004
1919.00,-0.0003
1918.00,-0.0002
1917.00,-0.0001
1916.00,-0.0001
1915.00,-0.0000
1914.00,-0.0000
1913.00,-0.0000
1912.00,-0.0000
1911.00,-0.0001
1910.00,-0.0002
1909.00,-0.0002
1908.00,-0.0001
1907.00,0.0000
1906.00,0.0001
1905.00,0.0002
1904.00,0.0002
1903.00,0.0001
1902.00,0.0001
1901.00,0.0001
1900.00,0.0001
1899.00,0.0000
1898.00,-0.0001
1897.00,-0.0001
1896.00,-0.0002
1895.00,-0.0003
1894.00,-0.0002
1893.00,-0.0002
1892.00,-0.0001
1891.00,-0.0001
1890.00,-0.0001
1889.00,-0.0001
1888.00,-0.0002
1887.00,-0.0003
1886.00,-0.0003
1885.00,-0.0003
1884.00,-0.0002
1883.00,-0.0001
1882.00,-0.0000
1881.00,-0.0000
1880.00,0.0000
1879.00,0.0000
1878.00,0.0000
1877.00,0.0000
1876.00,0.0001
1875.00,0.0001
1874.00,0.0001
1873.00,0.0001
1872.00,0.0001
1871.00,0.0001
1870.00,0.0001
1869.00,0.0000
1868.00,0.0000
1867.00,0.0000
1866.00,0.0000
1865.00,0.0000
1864.00,0.0001
1863.00,0.0001
1862.00,0.0001
1861.00,0.0001
1860.00,0.0001
1859.00,0.0002
1858.00,0.0001
1857.00,0.0001
1856.00,0.0001
1855.00,0.0001
1854.00,0.0001
1853.00,0.0001
1852.00,0.0002
1851.00,0.0003
1850.00,0.0003
1849.00,0.0004
1848.00,0.0004
1847.00,0.0003
1846.00,0.0003
1845.00,0.0003
1844.00,0.0003
1843.00,0.0003
1842.00,0.0003
1841.00,0.0003
1840.00,0.0003
1839.00,0.0003
1838.00,0.0002
1837.00,0.0002
1836.00,0.0002
1835.00,0.0002
1834.00,0.0002
1833.00,0.0002
1832.00,0.0003
1831.00,0.0003
1830.00,0.0003
1829.00,0.0003
1828.00,0.0004
1827.00,0.0004
1826.00,0.0005
1825.00,0.0005
1824.00,0.0005
1823.00,0.0005
1822.00,0.0005
1821.00,0.0005
1820.00,0.0004
1819.00,0.0003
1818.00,0.0001
1817.00,0.0000
1816.00,0.0000
1815.00,0.0001
1814.00,0.0001
1813.00,0.0002
1812.00,0.0003
1811.00,0.0004
1810.00,0.0004
1809.00,0.0004
1808.00,0.0005
1807.00,0.0005
1806.00,0.0005
1805.00,0.0005
1804.00,0.0005
1803.00,0.0005
1802.00,0.0004
1801.00,0.0005
1800.00,0.0005
1799.00,0.0006
1798.00,0.0007
1797.00,0.0007
1796.00,0.0007
1795.00,0.0007
1794.00,0.0007
1793.00,0.0007
1792.00,0.0008
1791.00,0.0008
1790.00,0.0009
1789.00,0.0010
1788.00,0.0010
1787.00,0.0010
1786.00,0.0010
1785.00,0.0010
1784.00,0.0010
1783.00,0.0010
1782.00,0.0010
1781.00,0.0010
1780.00,0.0010
1779.00,0.0010
1778.00,0.0009
1777.00,0.0009
1776.00,0.0008
1775.00,0.0008
1774.00,0.0008
1773.00,0.0008
1772.00,0.0009
1771.00,0.0009
1770.00,0.0010
1769.00,0.0010
1768.00,0.0011
1767.00,0.0012
1766.00,0.0012
1765.00,0.0012
1764.00,0.0012
1763.00,0.0013
1762.00,0.0014
1761.00,0.0015
1760.00,0.0016
1759.00,0.0017
1758.00,0.0018
1757.00,0.0019
1756.00,0.0020
1755.00,0.0020
1754.00,0.0021
1753.00,0.0022
1752.00,0.0023
1751.00,0.0023
1750.00,0.0023
1749.00,0.0024
1748.00,0.0025
1747.00,0.0026
1746.00,0.0027
1745.00,0.0027
1744.00,0.0028
1743.00,0.0028
1742.00,0.0027
1741.00,0.0027
1740.00,0.0027
1739.00,0.0027
1738.00,0.0028
1737.00,0.0029
1736.00,0.0029
1735.00,0.0029
1734.00,0.0028
1733.00,0.0027
1732.00,0.0027
1731.00,0.0027
1730.00,0.0027
1729.00,0.0028
1728.00,0.0028
1727.00,0.0028
1726.00,0.0028
1725.00,0.0028
1724.00,0.0028
1723.00,0.0028
1722.00,0.0028
1721.00,0.0027
1720.00,0.0027
1719.00,0.0026
1718.00,0.0025
1717.00,0.0026
1716.00,0.0027
1715.00,0.0027
1714.00,0.0027
1713.00,0.0027
1712.00,0.0028
1711.00,0.0028
1710.00,0.0028
1709.00,0.0029
1708.00,0.0029
1707.00,0.0029
1706.00,0.0029
1705.00,0.0030
1704.00,0.0031
1703.00,0.0032
1702.00,0.0032
1701.00,0.0033
1700.00,0.0034
1699.00,0.0034
1698.00,0.0034
1697.00,0.0035
1696.00,0.0037
1695.00,0.0039
1694.00,0.0040
1693.00,0.0041
1692.00,0.0042
1691.00,0.0043
1690.00,0.0044
1689.00,0.0046
1688.00,0.0048
1687.00,0.0050
1686.00,0.0051
1685.00,0.0053
1684.00,0.0055
1683.00,0.0057
1682.00,0.0058
1681.00,0.0060
1680.00,0.0062
1679.00,0.0063
1678.00,0.0064
1677.00,0.0066
1676.00,0.0067
1675.00,0.0069
1674.00,0.0070
1673.00,0.0071
1672.00,0.0072
1671.00,0.0073
1670.00,0.0075
1669.00,0.0077
1668.00,0.0078
1667.00,0.0079
1666.00,0.0080
1665.00,0.0081
1664.00,0.0082
1663.00,0.0084
1662.00,0.0084
1661.00,0.0085
1660.00,0.0085
1659.00,0.0086
1658.00,0.0087
1657.00,0.0088
1656.00,0.0089
1655.00,0.0089
1654.00,0.0089
1653.00,0.0091
1652.00,0.0092
1651.00,0.0093
1650.00,0.0093
1649.00,0.0094
1648.00,0.0095
1647.00,0.0097
1646.00,0.0098
1645.00,0.0098
1644.00,0.0098
1643.00,0.0098
1642.00,0.0097
1641.00,0.0097
1640.00,0.0097
1639.00,0.0097
1638.00,0.0097
1637.00,0.0097
1636.00,0.0097
1635.00,0.0097
1634.00,0.0096
1633.00,0.0096
1632.00,0.0096
1631.00,0.0095
1630.00,0.0095
1629.00,0.0094
1628.00,0.0094
1627.00,0.0094
1626.00,0.0093
1625.00,0.0092
1624.00,0.0091
1623.00,0.0090
1622.00,0.0089
1621.00,0.0089
1620.00,0.0089
1619.00,0.0088
1618.00,0.0087
1617.00,0.0087
1616.00,0.0086
1615.00,0.0086
1614.00,0.0086
1613.00,0.0086
1612.00,0.0086
1611.00,0.0086
1610.00,0.0086
1609.00,0.0086
1608.00,0.0086
1607.00,0.0086
1606.00,0.0086
1605.00,0.0086
1604.00,0.0086
1603.00,0.0085
1602.00,0.0085
1601.00,0.0085
1600.00,0.0084
1599.00,0.0084
1598.00,0.0083
1597.00,0.0083
1596.00,0.0083
1595.00,0.0083
1594.00,0.0083
1593.00,0.0083
1592.00,0.0084
1591.00,0.0084
1590.00,0.0084
1589.00,0.0085
1588.00,0.0086
1587.00,0.0087
1586.00,0.0089
1585.00,0.0091
1584.00,0.0093
1583.00,0.0095
1582.00,0.0097
1581.00,0.0100
1580.00,0.0102
1579.00,0.0105
1578.00,0.0106
1577.00,0.0107
1576.00,0.0107
1575.00,0.0105
1574.00,0.0103
1573.00,0.0102
1572.00,0.0101
1571.00,0.0099
1570.00,0.0096
1569.00,0.0095
1568.00,0.0094
1567.00,0.0093
1566.00,0.0093
1565.00,0.0093
1564.00,0.0094
1563.00,0.0094
1562.00,0.0094
1561.00,0.0095
1560.00,0.0095
1559.00,0.0096
1558.00,0.0096
1557.00,0.0096
1556.00,0.0097
1555.00,0.0098
1554.00,0.0100
1553.00,0.0101
1552.00,0.0103
1551.00,0.0105
1550.00,0.0106
1549.00,0.0108
1548.00,0.0110
1547.00,0.0112
1546.00,0.0113
1545.00,0.0116
1544.00,0.0119
1543.00,0.0121
1542.00,0.0123
1541.00,0.0124
1540.00,0.0123
1539.00,0.0119
1538.00,0.0115
1537.00,0.0112
1536.00,0.0109
1535.00,0.0105
1534.00,0.0100
1533.00,0.0095
1532.00,0.0092
1531.00,0.0089
1530.00,0.0087
1529.00,0.0085
1528.00,0.0083
1527.00,0.0080
1526.00,0.0077
1525.00,0.0076
1524.00,0.0076
1523.00,0.0075
1522.00,0.0074
1521.00,0.0073
1520.00,0.0073
1519.00,0.0072
1518.00,0.0072
1517.00,0.0072
1516.00,0.0072
1515.00,0.0072
1514.00,0.0072
1513.00,0.0073
1512.00,0.0073
1511.00,0.0074
1510.00,0.0074
1509.00,0.0075
1508.00,0.0075
1507.00,0.0075
1506.00,0.0076
1505.00,0.0078
1504.00,0.0080
1503.00,0.0082
1502.00,0.0085
1501.00,0.0088
1500.00,0.0092
1499.00,0.0096
1498.00,0.0100
1497.00,0.0105
1496.00,0.0112
1495.00,0.0116
1494.00,0.0120
1493.00,0.0124
1492.00,0.0128
1491.00,0.0131
1490.00,0.0135
1489.00,0.0141
1488.00,0.0147
1487.00,0.0152
1486.00,0.0158
1485.00,0.0164
1484.00,0.0171
1483.00,0.0179
1482.00,0.0189
1481.00,0.0202
1480.00,0.0215
1479.00,0.0228
1478.00,0.0243
1477.00,0.0263
1476.00,0.0288
1475.00,0.0318
1474.00,0.0358
1473.00,0.0414
1472.00,0.0481
1471.00,0.0544
1470.00,0.0604
1469.00,0.0668
1468.00,0.0736
1467.00,0.0810
1466.00,0.0894
1465.00,0.0986
1464.00,0.1066
1463.00,0.1121
1462.00,0.1157
1461.00,0.1181
1460.00,0.1198
1459.00,0.1209
1458.00,0.1217
1457.00,0.1224
1456.00,0.1223
1455.00,0.1215
1454.00,0.1202
1453.00,0.1183
1452.00,0.1154
1451.00,0.1114
1450.00,0.1060
1449.00,0.0988
1448.00,0.0900
1447.00,0.0808
1446.00,0.0727
1445.00,0.0658
1444.00,0.0598
1443.00,0.0549
1442.00,0.0513
1441.00,0.0488
1440.00,0.0473
1439.00,0.0467
1438.00,0.0467
1437.00,0.0466
1436.00,0.0455
1435.00,0.0430
1434.00,0.0396
1433.00,0.0354
1432.00,0.0310
1431.00,0.0271
1430.00,0.0240
1429.00,0.0217
1428.00,0.0201
1427.00,0.0191
1426.00,0.0185
1425.00,0.0179
1424.00,0.0174
1423.00,0.0172
1422.00,0.0170
1421.00,0.0167
1420.00,0.0162
1419.00,0.0158
1418.00,0.0155
1417.00,0.0152
1416.00,0.0149
1415.00,0.0147
1414.00,0.0145
1413.00,0.0142
1412.00,0.0139
1411.00,0.0137
1410.00,0.0136
1409.00,0.0135
1408.00,0.0133
1407.00,0.0132
1406.00,0.0133
1405.00,0.0132
1404.00,0.0132
1403.00,0.0133
1402.00,0.0134
1401.00,0.0135
1400.00,0.0136
1399.00,0.0138
1398.00,0.0140
1397.00,0.0142
1396.00,0.0143
1395.00,0.0146
1394.00,0.0151
1393.00,0.0155
1392.00,0.0161
1391.00,0.0168
1390.00,0.0179
1389.00,0.0193
1388.00,0.0214
1387.00,0.0246
1386.00,0.0290
1385.00,0.0348
1384.00,0.0428
1383.00,0.0540
1382.00,0.0692
1381.00,0.0888
1380.00,0.1128
1379.00,0.1396
1378.00,0.1644
1377.00,0.1815
1376.00,0.1856
1375.00,0.1743
1374.00,0.1510
1373.00,0.1242
1372.00,0.1004
1371.00,0.0811
1370.00,0.0659
1369.00,0.0543
1368.00,0.0463
1367.00,0.0414
1366.00,0.0386
1365.00,0.0375
1364.00,0.0376
1363.00,0.0389
1362.00,0.0408
1361.00,0.0428
1360.00,0.0444
1359.00,0.0448
1358.00,0.0439
1357.00,0.0415
1356.00,0.0382
1355.00,0.0344
1354.00,0.0308
1353.00,0.0277
1352.00,0.0252
1351.00,0.0232
1350.00,0.0215
1349.00,0.0202
1348.00,0.0190
1347.00,0.0180
1346.00,0.0172
1345.00,0.0165
1344.00,0.0158
1343.00,0.0152
1342.00,0.0147
1341.00,0.0142
1340.00,0.0138
1339.00,0.0135
1338.00,0.0134
1337.00,0.0134
1336.00,0.0134
1335.00,0.0136
1334.00,0.0138
1333.00,0.0141
1332.00,0.0145
1331.00,0.0149
1330.00,0.0150
1329.00,0.0149
1328.00,0.0145
1327.00,0.0141
1326.00,0.0135
1325.00,0.0129
1324.00,0.0124
1323.00,0.0119
1322.00,0.0116
1321.00,0.0113
1320.00,0.0111
1319.00,0.0109
1318.00,0.0108
1317.00,0.0106
1316.00,0.0104
1315.00,0.0103
1314.00,0.0103
1313.00,0.0103
1312.00,0.0105
1311.00,0.0107
1310.00,0.0110
1309.00,0.0116
1308.00,0.0125
1307.00,0.0136
1306.00,0.0147
1305.00,0.0156
1304.00,0.0159
1303.00,0.0157
1302.00,0.0153
1301.00,0.0149
1300.00,0.0147
1299.00,0.0147
1298.00,0.0148
1297.00,0.0147
1296.00,0.0146
1295.00,0.0143
1294.00,0.0139
1293.00,0.0134
1292.00,0.0129
1291.00,0.0124
1290.00,0.0120
1289.00,0.0116
1288.00,0.0113
1287.00,0.0110
1286.00,0.0107
1285.00,0.0105
1284.00,0.0103
1283.00,0.0102
1282.00,0.0101
1281.00,0.0099
1280.00,0.0098
1279.00,0.0097
1278.00,0.0096
1277.00,0.0096
1276.00,0.0095
1275.00,0.0094
1274.00,0.0094
1273.00,0.0094
1272.00,0.0094
1271.00,0.0095
1270.00,0.0096
1269.00,0.0097
1268.00,0.0099
1267.00,0.0101
1266.00,0.0104
1265.00,0.0107
1264.00,0.0110
1263.00,0.0113
1262.00,0.0117
1261.00,0.0122
1260.00,0.0128
1259.00,0.0135
1258.00,0.0142
1257.00,0.0148
1256.00,0.0151
1255.00,0.0149
1254.00,0.0143
1253.00,0.0135
1252.00,0.0126
1251.00,0.0118
1250.00,0.0113
1249.00,0.0109
1248.00,0.0107
1247.00,0.0105
1246.00,0.0103
1245.00,0.0101
1244.00,0.0099
1243.00,0.0098
1242.00,0.0097
1241.00,0.0096
1240.00,0.0096
1239.00,0.0096
1238.00,0.0095
1237.00,0.0095
1236.00,0.0095
1235.00,0.0094
1234.00,0.0093
1233.00,0.0093
1232.00,0.0094
1231.00,0.0095
1230.00,0.0096
1229.00,0.0097
1228.00,0.0097
1227.00,0.0098
1226.00,0.0100
1225.00,0.0103
1224.00,0.0108
1223.00,0.0112
1222.00,0.0116
1221.00,0.0119
1220.00,0.0120
1219.00,0.0120
1218.00,0.0119
1217.00,0.0117
1216.00,0.0114
1215.00,0.0110
1214.00,0.0107
1213.00,0.0103
1212.00,0.0101
1211.00,0.0099
1210.00,0.0097
1209.00,0.0095
1208.00,0.0094
1207.00,0.0093
1206.00,0.0093
1205.00,0.0092
1204.00,0.0092
1203.00,0.0092
1202.00,0.0093
1201.00,0.0093
1200.00,0.0093
1199.00,0.0092
1198.00,0.0092
1197.00,0.0092
1196.00,0.0092
1195.00,0.0092
1194.00,0.0092
1193.00,0.0092
1192.00,0.0092
1191.00,0.0092
1190.00,0.0093
1189.00,0.0093
1188.00,0.0094
1187.00,0.0093
1186.00,0.0093
1185.00,0.0094
1184.00,0.0095
1183.00,0.0097
1182.00,0.0100
1181.00,0.0103
1180.00,0.0107
1179.00,0.0113
1178.00,0.0119
1177.00,0.0128
1176.00,0.0139
1175.00,0.0155
1174.00,0.0176
1173.00,0.0202
1172.00,0.0232
1171.00,0.0264
1170.00,0.0295
1169.00,0.0318
1168.00,0.0331
1167.00,0.0332
1166.00,0.0324
1165.00,0.0309
1164.00,0.0293
1163.00,0.0278
1162.00,0.0265
1161.00,0.0254
1160.00,0.0246
1159.00,0.0240
1158.00,0.0236
1157.00,0.0233
1156.00,0.0231
1155.00,0.0230
1154.00,0.0229
1153.00,0.0227
1152.00,0.0223
1151.00,0.0217
1150.00,0.0209
1149.00,0.0200
1148.00,0.0191
1147.00,0.0183
1146.00,0.0175
1145.00,0.0168
1144.00,0.0161
1143.00,0.0154
1142.00,0.0148
1141.00,0.0141
1140.00,0.0136
1139.00,0.0131
1138.00,0.0127
1137.00,0.0124
1136.00,0.0121
1135.00,0.0119
1134.00,0.0118
1133.00,0.0117
1132.00,0.0116
1131.00,0.0116
1130.00,0.0116
1129.00,0.0116
1128.00,0.0118
1127.00,0.0119
1126.00,0.0122
1125.00,0.0124
1124.00,0.0126
1123.00,0.0128
1122.00,0.0130
1121.00,0.0131
1120.00,0.0132
1119.00,0.0133
1118.00,0.0133
1117.00,0.0134
1116.00,0.0136
1115.00,0.0137
1114.00,0.0138
1113.00,0.0138
1112.00,0.0140
1111.00,0.0142
1110.00,0.0144
1109.00,0.0146
1108.00,0.0149
1107.00,0.0154
1106.00,0.0160
1105.00,0.0166
1104.00,0.0170
1103.00,0.0172
1102.00,0.0171
1101.00,0.0166
1100.00,0.0160
1099.00,0.0154
1098.00,0.0148
1097.00,0.0144
1096.00,0.0141
1095.00,0.0138
1094.00,0.0135
1093.00,0.0132
1092.00,0.0129
1091.00,0.0126
1090.00,0.0123
1089.00,0.0120
1088.00,0.0119
1087.00,0.0118
1086.00,0.0117
1085.00,0.0116
1084.00,0.0115
1083.00,0.0114
1082.00,0.0112
1081.00,0.0110
1080.00,0.0109
1079.00,0.0107
1078.00,0.0107
1077.00,0.0106
1076.00,0.0105
1075.00,0.0104
1074.00,0.0102
1073.00,0.0100
1072.00,0.0099
1071.00,0.0098
1070.00,0.0098
1069.00,0.0097
1068.00,0.0097
1067.00,0.0097
1066.00,0.0096
1065.00,0.0096
1064.00,0.0096
1063.00,0.0095
1062.00,0.0095
1061.00,0.0095
1060.00,0.0094
1059.00,0.0095
1058.00,0.0095
1057.00,0.0096
1056.00,0.0096
1055.00,0.0096
1054.00,0.0096
1053.00,0.0097
1052.00,0.0098
1051.00,0.0101
1050.00,0.0104
1049.00,0.0106
1048.00,0.0109
1047.00,0.0112
1046.00,0.0115
1045.00,0.0117
1044.00,0.0117
1043.00,0.0115
1042.00,0.0113
1041.00,0.0110
1040.00,0.0109
1039.00,0.0108
1038.00,0.0108
1037.00,0.0108
1036.00,0.0108
1035.00,0.0107
1034.00,0.0106
1033.00,0.0106
1032.00,0.0105
1031.00,0.0104
1030.00,0.0103
1029.00,0.0101
1028.00,0.0100
1027.00,0.0099
1026.00,0.0098
1025.00,0.0098
1024.00,0.0098
1023.00,0.0099
1022.00,0.0099
1021.00,0.0099
1020.00,0.0099
1019.00,0.0100
1018.00,0.0101
1017.00,0.0102
1016.00,0.0104
1015.00,0.0106
1014.00,0.0109
1013.00,0.0112
1012.00,0.0114
1011.00,0.0117
1010.00,0.0119
1009.00,0.0122
1008.00,0.0126
1007.00,0.0132
1006.00,0.0140
1005.00,0.0153
1004.00,0.0170
1003.00,0.0193
1002.00,0.0224
1001.00,0.0262
1000.00,0.0301
999.00,0.0333
998.00,0.0348
997.00,0.0341
996.00,0.0314
995.00,0.0275
994.00,0.0235
993.00,0.0200
992.00,0.0173
991.00,0.0154
990.00,0.0140
989.00,0.0131
988.00,0.0124
987.00,0.0121
986.00,0.0119
985.00,0.0121
984.00,0.0125
983.00,0.0132
982.00,0.0144
981.00,0.0162
980.00,0.0185
979.00,0.0216
978.00,0.0255
977.00,0.0300
976.00,0.0348
975.00,0.0391
974.00,0.0420
973.00,0.0426
972.00,0.0407
971.00,0.0366
970.00,0.0314
969.00,0.0263
968.00,0.0219
967.00,0.0186
966.00,0.0163
965.00,0.0146
964.00,0.0133
963.00,0.0122
962.00,0.0115
961.00,0.0109
960.00,0.0105
959.00,0.0102
958.00,0.0100
957.00,0.0098
956.00,0.0096
955.00,0.0094
954.00,0.0092
953.00,0.0090
952.00,0.0089
951.00,0.0089
950.00,0.0088
949.00,0.0087
948.00,0.0087
947.00,0.0087
946.00,0.0089
945.00,0.0091
944.00,0.0095
943.00,0.0098
942.00,0.0101
941.00,0.0103
940.00,0.0103
939.00,0.0100
938.00,0.0096
937.00,0.0091
936.00,0.0086
935.00,0.0082
934.00,0.0078
933.00,0.0075
932.00,0.0073
931.00,0.0072
930.00,0.0071
929.00,0.0071
928.00,0.0071
927.00,0.0070
926.00,0.0070
925.00,0.0070
924.00,0.0070
923.00,0.0070
922.00,0.0070
921.00,0.0070
920.00,0.0069
919.00,0.0069
918.00,0.0070
917.00,0.0071
916.00,0.0072
915.00,0.0074
914.00,0.0075
913.00,0.0077
912.00,0.0078
911.00,0.0079
910.00,0.0081
909.00,0.0083
908.00,0.0086
907.00,0.0091
906.00,0.0099
905.00,0.0109
904.00,0.0123
903.00,0.0141
902.00,0.0159
901.00,0.0175
900.00,0.0185
899.00,0.0187
898.00,0.0179
897.00,0.0165
896.00,0.0148
895.00,0.0132
894.00,0.0118
893.00,0.0107
892.00,0.0099
891.00,0.0093
890.00,0.0088
889.00,0.0085
888.00,0.0084
887.00,0.0084
886.00,0.0084
885.00,0.0085
884.00,0.0084
883.00,0.0085
882.00,0.0086
881.00,0.0087
880.00,0.0089
879.00,0.0092
878.00,0.0094
877.00,0.0096
876.00,0.0097
875.00,0.0097
874.00,0.0095
873.00,0.0093
872.00,0.0091
871.00,0.0090
870.00,0.0089
869.00,0.0089
868.00,0.0088
867.00,0.0088
866.00,0.0088
865.00,0.0087
864.00,0.0087
863.00,0.0086
862.00,0.0087
861.00,0.0089
860.00,0.0091
859.00,0.0093
858.00,0.0095
857.00,0.0097
856.00,0.0099
855.00,0.0101
854.00,0.0103
853.00,0.0104
852.00,0.0107
851.00,0.0111
850.00,0.0116
849.00,0.0123
848.00,0.0133
847.00,0.0147
846.00,0.0170
845.00,0.0205
844.00,0.0251
843.00,0.0300
842.00,0.0335
841.00,0.0341
840.00,0.0314
839.00,0.0266
838.00,0.0217
837.00,0.0180
836.00,0.0156
835.00,0.0142
834.00,0.0133
833.00,0.0126
832.00,0.0122
831.00,0.0120
830.00,0.0119
829.00,0.0117
828.00,0.0115
827.00,0.0112
826.00,0.0109
825.00,0.0106
824.00,0.0105
823.00,0.0105
822.00,0.0107
821.00,0.0109
820.00,0.0111
819.00,0.0114
818.00,0.0117
817.00,0.0122
816.00,0.0130
815.00,0.0141
814.00,0.0155
813.00,0.0173
812.00,0.0191
811.00,0.0208
810.00,0.0221
809.00,0.0227
808.00,0.0224
807.00,0.0213
806.00,0.0197
805.00,0.0179
804.00,0.0162
803.00,0.0148
802.00,0.0138
801.00,0.0130
800.00,0.0123
799.00,0.0117
798.00,0.0112
797.00,0.0109
796.00,0.0106
795.00,0.0104
794.00,0.0102
793.00,0.0099
792.00,0.0096
791.00,0.0093
790.00,0.0089
789.00,0.0086
788.00,0.0083
787.00,0.0080
786.00,0.0078
785.00,0.0076
784.00,0.0075
783.00,0.0074
782.00,0.0073
781.00,0.0072
780.00,0.0072
779.00,0.0073
778.00,0.0073
777.00,0.0072
776.00,0.0070
775.00,0.0070
774.00,0.0070
773.00,0.0071
772.00,0.0071
771.00,0.0071
770.00,0.0071
769.00,0.0072
768.00,0.0073
767.00,0.0074
766.00,0.0074
765.00,0.0073
764.00,0.0071
763.00,0.0070
762.00,0.0070
761.00,0.0071
760.00,0.0072
759.00,0.0073
758.00,0.0074
757.00,0.0073
756.00,0.0073
755.00,0.0073
754.00,0.0074
753.00,0.0075
752.00,0.0077
751.00,0.0078
750.00,0.0079
749.00,0.0080
748.00,0.0081
747.00,0.0083
746.00,0.0085
745.00,0.0086
744.00,0.0087
743.00,0.0089
742.00,0.0092
741.00,0.0094
740.00,0.0097
739.00,0.0100
738.00,0.0104
737.00,0.0108
736.00,0.0112
735.00,0.0117
734.00,0.0123
733.00,0.0129
732.00,0.0135
731.00,0.0142
730.00,0.0148
729.00,0.0151
728.00,0.0152
727.00,0.0151
726.00,0.0149
725.00,0.0150
724.00,0.0152
723.00,0.0157
722.00,0.0164
721.00,0.0169
720.00,0.0168
719.00,0.0161
718.00,0.0149
717.00,0.0136
716.00,0.0124
715.00,0.0115
714.00,0.0109
713.00,0.0106
712.00,0.0103
711.00,0.0102
710.00,0.0102
709.00,0.0101
708.00,0.0101
707.00,0.0101
706.00,0.0101
705.00,0.0100
704.00,0.0099
703.00,0.0096
702.00,0.0093
701.00,0.0090
700.00,0.0087
699.00,0.0084
698.00,0.0080
697.00,0.0077
696.00,0.0075
695.00,0.0073
694.00,0.0073
693.00,0.0073
692.00,0.0073
691.00,0.0073
690.00,0.0074
689.00,0.0075
688.00,0.0075
687.00,0.0075
686.00,0.0074
685.00,0.0074
684.00,0.0075
683.00,0.0075
682.00,0.0075
681.00,0.0074
680.00,0.0073
679.00,0.0073
678.00,0.0074
677.00,0.0075
676.00,0.0077
675.00,0.0078
674.00,0.0080
673.00,0.0080
672.00,0.0079
671.00,0.0079
670.00,0.0080
669.00,0.0080
668.00,0.0080
667.00,0.0080
666.00,0.0079
665.00,0.0079
664.00,0.0079
663.00,0.0079
662.00,0.0078
661.00,0.0076
660.00,0.0074
659.00,0.0072
658.00,0.0071
657.00,0.0071
656.00,0.0071
655.00,0.0072
654.00,0.0072
653.00,0.0071
652.00,0.0071
651.00,0.0072
650.00,0.0074
649.00,0.0075
648.00,0.0077
647.00,0.0078
646.00,0.0078
645.00,0.0078
644.00,0.0077
643.00,0.0076
642.00,0.0077
641.00,0.0079
640.00,0.0081
639.00,0.0082
638.00,0.0082
637.00,0.0080
636.00,0.0078
635.00,0.0076
634.00,0.0077
633.00,0.0079
632.00,0.0082
631.00,0.0085
630.00,0.0086
629.00,0.0086
628.00,0.0085
627.00,0.0085
626.00,0.0085
625.00,0.0086
624.00,0.0086
623.00,0.0086
622.00,0.0084
621.00,0.0082
620.00,0.0081
619.00,0.0081
618.00,0.0081
617.00,0.0081
616.00,0.0081
615.00,0.0082
614.00,0.0084
613.00,0.0084
612.00,0.0082
611.00,0.0079
610.00,0.0076
609.00,0.0075
608.00,0.0076
607.00,0.0079
606.00,0.0081
605.00,0.0083
604.00,0.0082
603.00,0.0080
602.00,0.0079
601.00,0.0079
600.00,0.0081
599.00,0.0084
598.00,0.0085
597.00,0.0085
596.00,0.0084
595.00,0.0084
594.00,0.0085
593.00,0.0086
592.00,0.0086
591.00,0.0086
590.00,0.0084
589.00,0.0082
588.00,0.0079
587.00,0.0078
586.00,0.0079
585.00,0.0081
584.00,0.0083
583.00,0.0085
582.00,0.0086
581.00,0.0088
580.00,0.0089
579.00,0.0088
578.00,0.0087
577.00,0.0085
576.00,0.0082
575.00,0.0079
574.00,0.0078
573.00,0.0078
572.00,0.0079
571.00,0.0080
570.00,0.0081
569.00,0.0081
568.00,0.0079
567.00,0.0078
566.00,0.0078
565.00,0.0079
564.00,0.0078
563.00,0.0078
562.00,0.0078
561.00,0.0079
560.00,0.0081
559.00,0.0083
558.00,0.0084
557.00,0.0085
556.00,0.0085
555.00,0.0085
554.00,0.0087
553.00,0.0088
552.00,0.0088
551.00,0.0085
550.00,0.0082
549.00,0.0082
548.00,0.0084
547.00,0.0084
546.00,0.0081
545.00,0.0078
544.00,0.0078
543.00,0.0079
542.00,0.0081
541.00,0.0083
540.00,0.0084
539.00,0.0085
538.00,0.0087
537.00,0.0090
536.00,0.0094
535.00,0.0097
534.00,0.0098
533.00,0.0098
532.00,0.0099
531.00,0.0099
530.00,0.0099
529.00,0.0098
528.00,0.0098
527.00,0.0099
526.00,0.0101
525.00,0.0099
524.00,0.0095
523.00,0.0090
522.00,0.0085
521.00,0.0082
520.00,0.0081
519.00,0.0084
518.00,0.0088
517.00,0.0092
516.00,0.0093
515.00,0.0093
514.00,0.0092
513.00,0.0092
512.00,0.0091
511.00,0.0092
510.00,0.0094
509.00,0.0095
508.00,0.0093
507.00,0.0089
506.00,0.0085
505.00,0.0084
504.00,0.0083
503.00,0.0081
502.00,0.0081
501.00,0.0083
500.00,0.0087
499.00,0.0087
498.00,0.0084
497.00,0.0079
496.00,0.0075
495.00,0.0071
494.00,0.0067
493.00,0.0066
492.00,0.0068
491.00,0.0072
490.00,0.0073
489.00,0.0072
488.00,0.0071
487.00,0.0074
486.00,0.0077
485.00,0.0079
484.00,0.0081
483.00,0.0083
482.00,0.0086
481.00,0.0089
480.00,0.0092
479.00,0.0095
478.00,0.0096
477.00,0.0098
476.00,0.0100
475.00,0.0103
474.00,0.0107
473.00,0.0108
472.00,0.0103
471.00,0.0093
470.00,0.0083
469.00,0.0077
468.00,0.0077
467.00,0.0086
466.00,0.0097
465.00,0.0107
464.00,0.0113
463.00,0.0118
462.00,0.0126
461.00,0.0137
460.00,0.0149
459.00,0.0155
458.00,0.0150
457.00,0.0137
456.00,0.0126
455.00,0.0124
454.00,0.0125
453.00,0.0125
452.00,0.0126
451.00,0.0132
450.00,0.0139
