Created as New Dataset,Sample 139 By Administrator Date Friday, September 05 2025
cm-1,A
4000.00,0.0011
3999.00,0.0011
3998.00,0.0010
3997.00,0.0010
3996.00,0.0010
3995.00,0.0010
3994.00,0.0010
3993.00,0.0010
3992.00,0.0011
3991.00,0.0011
3990.00,0.0011
3989.00,0.0011
3988.00,0.0010
3987.00,0.0010
3986.00,0.0010
3985.00,0.0010
3984.00,0.0010
3983.00,0.0010
3982.00,0.0010
3981.00,0.0009
3980.00,0.0009
3979.00,0.0009
3978.00,0.0009
3977.00,0.0009
3976.00,0.0009
3975.00,0.0009
3974.00,0.0009
3973.00,0.0009
3972.00,0.0009
3971.00,0.0009
3970.00,0.0009
3969.00,0.0009
3968.00,0.0009
3967.00,0.0009
3966.00,0.0009
3965.00,0.0009
3964.00,0.0009
3963.00,0.0009
3962.00,0.0009
3961.00,0.0009
3960.00,0.0009
3959.00,0.0009
3958.00,0.0009
3957.00,0.0009
3956.00,0.0009
3955.00,0.0008
3954.00,0.0008
3953.00,0.0008
3952.00,0.0008
3951.00,0.0009
3950.00,0.0009
3949.00,0.0009
3948.00,0.0008
3947.00,0.0008
3946.00,0.0008
3945.00,0.0009
3944.00,0.0009
3943.00,0.0009
3942.00,0.0009
3941.00,0.0009
3940.00,0.0008
3939.00,0.0008
3938.00,0.0008
3937.00,0.0008
3936.00,0.0008
3935.00,0.0008
3934.00,0.0008
3933.00,0.0008
3932.00,0.0008
3931.00,0.0009
3930.00,0.0009
3929.00,0.0009
3928.00,0.0009
3927.00,0.0009
3926.00,0.0009
3925.00,0.0009
3924.00,0.0009
3923.00,0.0009
3922.00,0.0009
3921.00,0.0009
3920.00,0.0009
3919.00,0.0009
3918.00,0.0009
3917.00,0.0009
3916.00,0.0009
3915.00,0.0009
3914.00,0.0008
3913.00,0.0008
3912.00,0.0008
3911.00,0.0008
3910.00,0.0008
3909.00,0.0008
3908.00,0.0008
3907.00,0.0008
3906.00,0.0008
3905.00,0.0008
3904.00,0.0008
3903.00,0.0009
3902.00,0.0009
3901.00,0.0009
3900.00,0.0009
3899.00,0.0009
3898.00,0.0009
3897.00,0.0009
3896.00,0.0009
3895.00,0.0009
3894.00,0.0009
3893.00,0.0009
3892.00,0.0009
3891.00,0.0009
3890.00,0.0009
3889.00,0.0009
3888.00,0.0009
3887.00,0.0009
3886.00,0.0009
3885.00,0.0009
3884.00,0.0009
3883.00,0.0009
3882.00,0.0009
3881.00,0.0009
3880.00,0.0008
3879.00,0.0008
3878.00,0.0008
3877.00,0.0008
3876.00,0.0007
3875.00,0.0007
3874.00,0.0007
3873.00,0.0007
3872.00,0.0007
3871.00,0.0007
3870.00,0.0008
3869.00,0.0008
3868.00,0.0009
3867.00,0.0009
3866.00,0.0008
3865.00,0.0008
3864.00,0.0008
3863.00,0.0008
3862.00,0.0007
3861.00,0.0007
3860.00,0.0007
3859.00,0.0007
3858.00,0.0008
3857.00,0.0009
3856.00,0.0009
3855.00,0.0009
3854.00,0.0009
3853.00,0.0009
3852.00,0.0009
3851.00,0.0008
3850.00,0.0008
3849.00,0.0007
3848.00,0.0007
3847.00,0.0008
3846.00,0.0008
3845.00,0.0008
3844.00,0.0008
3843.00,0.0008
3842.00,0.0008
3841.00,0.0008
3840.00,0.0008
3839.00,0.0008
3838.00,0.0009
3837.00,0.0009
3836.00,0.0009
3835.00,0.0009
3834.00,0.0008
3833.00,0.0008
3832.00,0.0008
3831.00,0.0008
3830.00,0.0007
3829.00,0.0007
3828.00,0.0007
3827.00,0.0006
3826.00,0.0007
3825.00,0.0007
3824.00,0.0008
3823.00,0.0008
3822.00,0.0008
3821.00,0.0008
3820.00,0.0008
3819.00,0.0008
3818.00,0.0008
3817.00,0.0008
3816.00,0.0008
3815.00,0.0008
3814.00,0.0008
3813.00,0.0008
3812.00,0.0008
3811.00,0.0009
3810.00,0.0009
3809.00,0.0009
3808.00,0.0008
3807.00,0.0008
3806.00,0.0008
3805.00,0.0008
3804.00,0.0008
3803.00,0.0008
3802.00,0.0008
3801.00,0.0008
3800.00,0.0008
3799.00,0.0008
3798.00,0.0007
3797.00,0.0007
3796.00,0.0008
3795.00,0.0008
3794.00,0.0008
3793.00,0.0008
3792.00,0.0007
3791.00,0.0007
3790.00,0.0008
3789.00,0.0008
3788.00,0.0008
3787.00,0.0007
3786.00,0.0007
3785.00,0.0007
3784.00,0.0007
3783.00,0.0008
3782.00,0.0008
3781.00,0.0008
3780.00,0.0008
3779.00,0.0009
3778.00,0.0009
3777.00,0.0009
3776.00,0.0009
3775.00,0.0009
3774.00,0.0009
3773.00,0.0009
3772.00,0.0008
3771.00,0.0008
3770.00,0.0008
3769.00,0.0008
3768.00,0.0008
3767.00,0.0008
3766.00,0.0008
3765.00,0.0008
3764.00,0.0008
3763.00,0.0008
3762.00,0.0008
3761.00,0.0007
3760.00,0.0008
3759.00,0.0008
3758.00,0.0008
3757.00,0.0008
3756.00,0.0008
3755.00,0.0009
3754.00,0.0008
3753.00,0.0008
3752.00,0.0008
3751.00,0.0008
3750.00,0.0009
3749.00,0.0009
3748.00,0.0009
3747.00,0.0010
3746.00,0.0009
3745.00,0.0009
3744.00,0.0009
3743.00,0.0008
3742.00,0.0008
3741.00,0.0007
3740.00,0.0007
3739.00,0.0007
3738.00,0.0007
3737.00,0.0007
3736.00,0.0007
3735.00,0.0007
3734.00,0.0008
3733.00,0.0007
3732.00,0.0007
3731.00,0.0007
3730.00,0.0007
3729.00,0.0007
3728.00,0.0007
3727.00,0.0007
3726.00,0.0007
3725.00,0.0007
3724.00,0.0007
3723.00,0.0007
3722.00,0.0007
3721.00,0.0007
3720.00,0.0007
3719.00,0.0007
3718.00,0.0007
3717.00,0.0007
3716.00,0.0007
3715.00,0.0007
3714.00,0.0006
3713.00,0.0006
3712.00,0.0007
3711.00,0.0007
3710.00,0.0007
3709.00,0.0007
3708.00,0.0007
3707.00,0.0007
3706.00,0.0007
3705.00,0.0008
3704.00,0.0008
3703.00,0.0008
3702.00,0.0008
3701.00,0.0008
3700.00,0.0008
3699.00,0.0008
3698.00,0.0008
3697.00,0.0008
3696.00,0.0008
3695.00,0.0008
3694.00,0.0008
3693.00,0.0008
3692.00,0.0008
3691.00,0.0009
3690.00,0.0009
3689.00,0.0010
3688.00,0.0009
3687.00,0.0009
3686.00,0.0009
3685.00,0.0009
3684.00,0.0009
3683.00,0.0009
3682.00,0.0009
3681.00,0.0009
3680.00,0.0009
3679.00,0.0009
3678.00,0.0009
3677.00,0.0009
3676.00,0.0009
3675.00,0.0010
3674.00,0.0011
3673.00,0.0012
3672.00,0.0012
3671.00,0.0012
3670.00,0.0012
3669.00,0.0012
3668.00,0.0011
3667.00,0.0011
3666.00,0.0010
3665.00,0.0010
3664.00,0.0010
3663.00,0.0010
3662.00,0.0010
3661.00,0.0010
3660.00,0.0010
3659.00,0.0010
3658.00,0.0011
3657.00,0.0011
3656.00,0.0011
3655.00,0.0011
3654.00,0.0011
3653.00,0.0011
3652.00,0.0011
3651.00,0.0011
3650.00,0.0011
3649.00,0.0012
3648.00,0.0013
3647.00,0.0013
3646.00,0.0012
3645.00,0.0012
3644.00,0.0012
3643.00,0.0012
3642.00,0.0013
3641.00,0.0013
3640.00,0.0014
3639.00,0.0015
3638.00,0.0015
3637.00,0.0015
3636.00,0.0016
3635.00,0.0016
3634.00,0.0016
3633.00,0.0017
3632.00,0.0016
3631.00,0.0016
3630.00,0.0016
3629.00,0.0016
3628.00,0.0017
3627.00,0.0018
3626.00,0.0018
3625.00,0.0018
3624.00,0.0017
3623.00,0.0017
3622.00,0.0018
3621.00,0.0018
3620.00,0.0019
3619.00,0.0020
3618.00,0.0020
3617.00,0.0021
3616.00,0.0020
3615.00,0.0020
3614.00,0.0020
3613.00,0.0020
3612.00,0.0020
3611.00,0.0020
3610.00,0.0021
3609.00,0.0022
3608.00,0.0023
3607.00,0.0024
3606.00,0.0025
3605.00,0.0025
3604.00,0.0025
3603.00,0.0025
3602.00,0.0025
3601.00,0.0025
3600.00,0.0026
3599.00,0.0027
3598.00,0.0027
3597.00,0.0028
3596.00,0.0028
3595.00,0.0028
3594.00,0.0028
3593.00,0.0029
3592.00,0.0029
3591.00,0.0030
3590.00,0.0030
3589.00,0.0031
3588.00,0.0031
3587.00,0.0032
3586.00,0.0032
3585.00,0.0032
3584.00,0.0033
3583.00,0.0033
3582.00,0.0034
3581.00,0.0034
3580.00,0.0034
3579.00,0.0035
3578.00,0.0036
3577.00,0.0037
3576.00,0.0037
3575.00,0.0038
3574.00,0.0038
3573.00,0.0038
3572.00,0.0038
3571.00,0.0038
3570.00,0.0038
3569.00,0.0038
3568.00,0.0039
3567.00,0.0040
3566.00,0.0041
3565.00,0.0042
3564.00,0.0042
3563.00,0.0043
3562.00,0.0043
3561.00,0.0044
3560.00,0.0044
3559.00,0.0045
3558.00,0.0046
3557.00,0.0046
3556.00,0.0047
3555.00,0.0047
3554.00,0.0048
3553.00,0.0049
3552.00,0.0049
3551.00,0.0049
3550.00,0.0049
3549.00,0.0049
3548.00,0.0049
3547.00,0.0050
3546.00,0.0051
3545.00,0.0052
3544.00,0.0053
3543.00,0.0053
3542.00,0.0054
3541.00,0.0054
3540.00,0.0055
3539.00,0.0055
3538.00,0.0056
3537.00,0.0056
3536.00,0.0057
3535.00,0.0057
3534.00,0.0058
3533.00,0.0058
3532.00,0.0059
3531.00,0.0059
3530.00,0.0060
3529.00,0.0061
3528.00,0.0061
3527.00,0.0062
3526.00,0.0062
3525.00,0.0063
3524.00,0.0063
3523.00,0.0064
3522.00,0.0064
3521.00,0.0065
3520.00,0.0066
3519.00,0.0066
3518.00,0.0066
3517.00,0.0067
3516.00,0.0068
3515.00,0.0068
3514.00,0.0069
3513.00,0.0069
3512.00,0.0069
3511.00,0.0070
3510.00,0.0071
3509.00,0.0071
3508.00,0.0072
3507.00,0.0073
3506.00,0.0073
3505.00,0.0074
3504.00,0.0075
3503.00,0.0075
3502.00,0.0076
3501.00,0.0076
3500.00,0.0077
3499.00,0.0078
3498.00,0.0079
3497.00,0.0079
3496.00,0.0080
3495.00,0.0080
3494.00,0.0080
3493.00,0.0081
3492.00,0.0081
3491.00,0.0082
3490.00,0.0082
3489.00,0.0082
3488.00,0.0082
3487.00,0.0083
3486.00,0.0084
3485.00,0.0085
3484.00,0.0086
3483.00,0.0087
3482.00,0.0087
3481.00,0.0088
3480.00,0.0088
3479.00,0.0088
3478.00,0.0088
3477.00,0.0089
3476.00,0.0089
3475.00,0.0090
3474.00,0.0090
3473.00,0.0091
3472.00,0.0091
3471.00,0.0092
3470.00,0.0092
3469.00,0.0092
3468.00,0.0093
3467.00,0.0093
3466.00,0.0094
3465.00,0.0094
3464.00,0.0095
3463.00,0.0095
3462.00,0.0096
3461.00,0.0096
3460.00,0.0097
3459.00,0.0097
3458.00,0.0098
3457.00,0.0098
3456.00,0.0099
3455.00,0.0099
3454.00,0.0099
3453.00,0.0100
3452.00,0.0100
3451.00,0.0100
3450.00,0.0101
3449.00,0.0101
3448.00,0.0102
3447.00,0.0102
3446.00,0.0102
3445.00,0.0103
3444.00,0.0103
3443.00,0.0104
3442.00,0.0104
3441.00,0.0105
3440.00,0.0105
3439.00,0.0105
3438.00,0.0106
3437.00,0.0106
3436.00,0.0107
3435.00,0.0107
3434.00,0.0107
3433.00,0.0107
3432.00,0.0108
3431.00,0.0108
3430.00,0.0109
3429.00,0.0110
3428.00,0.0111
3427.00,0.0111
3426.00,0.0111
3425.00,0.0111
3424.00,0.0111
3423.00,0.0111
3422.00,0.0111
3421.00,0.0112
3420.00,0.0113
3419.00,0.0114
3418.00,0.0114
3417.00,0.0115
3416.00,0.0115
3415.00,0.0115
3414.00,0.0116
3413.00,0.0116
3412.00,0.0117
3411.00,0.0117
3410.00,0.0117
3409.00,0.0117
3408.00,0.0117
3407.00,0.0117
3406.00,0.0117
3405.00,0.0117
3404.00,0.0117
3403.00,0.0118
3402.00,0.0118
3401.00,0.0118
3400.00,0.0119
3399.00,0.0119
3398.00,0.0119
3397.00,0.0119
3396.00,0.0120
3395.00,0.0120
3394.00,0.0121
3393.00,0.0121
3392.00,0.0121
3391.00,0.0121
3390.00,0.0121
3389.00,0.0121
3388.00,0.0121
3387.00,0.0121
3386.00,0.0122
3385.00,0.0123
3384.00,0.0123
3383.00,0.0123
3382.00,0.0123
3381.00,0.0123
3380.00,0.0123
3379.00,0.0123
3378.00,0.0122
3377.00,0.0123
3376.00,0.0123
3375.00,0.0123
3374.00,0.0123
3373.00,0.0123
3372.00,0.0124
3371.00,0.0124
3370.00,0.0124
3369.00,0.0124
3368.00,0.0124
3367.00,0.0124
3366.00,0.0125
3365.00,0.0125
3364.00,0.0125
3363.00,0.0125
3362.00,0.0124
3361.00,0.0124
3360.00,0.0124
3359.00,0.0124
3358.00,0.0124
3357.00,0.0124
3356.00,0.0124
3355.00,0.0124
3354.00,0.0125
3353.00,0.0125
3352.00,0.0125
3351.00,0.0125
3350.00,0.0125
3349.00,0.0125
3348.00,0.0125
3347.00,0.0125
3346.00,0.0125
3345.00,0.0125
3344.00,0.0126
3343.00,0.0126
3342.00,0.0126
3341.00,0.0126
3340.00,0.0127
3339.00,0.0126
3338.00,0.0126
3337.00,0.0126
3336.00,0.0125
3335.00,0.0125
3334.00,0.0125
3333.00,0.0124
3332.00,0.0124
3331.00,0.0124
3330.00,0.0124
3329.00,0.0124
3328.00,0.0124
3327.00,0.0124
3326.00,0.0124
3325.00,0.0124
3324.00,0.0124
3323.00,0.0124
3322.00,0.0123
3321.00,0.0123
3320.00,0.0122
3319.00,0.0122
3318.00,0.0122
3317.00,0.0123
3316.00,0.0123
3315.00,0.0123
3314.00,0.0123
3313.00,0.0122
3312.00,0.0122
3311.00,0.0121
3310.00,0.0121
3309.00,0.0121
3308.00,0.0121
3307.00,0.0120
3306.00,0.0120
3305.00,0.0120
3304.00,0.0120
3303.00,0.0120
3302.00,0.0120
3301.00,0.0120
3300.00,0.0119
3299.00,0.0119
3298.00,0.0119
3297.00,0.0119
3296.00,0.0118
3295.00,0.0117
3294.00,0.0117
3293.00,0.0116
3292.00,0.0115
3291.00,0.0115
3290.00,0.0114
3289.00,0.0114
3288.00,0.0114
3287.00,0.0114
3286.00,0.0114
3285.00,0.0114
3284.00,0.0114
3283.00,0.0113
3282.00,0.0112
3281.00,0.0112
3280.00,0.0111
3279.00,0.0111
3278.00,0.0110
3277.00,0.0110
3276.00,0.0109
3275.00,0.0108
3274.00,0.0108
3273.00,0.0108
3272.00,0.0108
3271.00,0.0108
3270.00,0.0108
3269.00,0.0108
3268.00,0.0107
3267.00,0.0107
3266.00,0.0107
3265.00,0.0106
3264.00,0.0106
3263.00,0.0106
3262.00,0.0105
3261.00,0.0104
3260.00,0.0104
3259.00,0.0103
3258.00,0.0102
3257.00,0.0102
3256.00,0.0101
3255.00,0.0101
3254.00,0.0100
3253.00,0.0100
3252.00,0.0099
3251.00,0.0099
3250.00,0.0099
3249.00,0.0098
3248.00,0.0098
3247.00,0.0098
3246.00,0.0097
3245.00,0.0098
3244.00,0.0098
3243.00,0.0098
3242.00,0.0098
3241.00,0.0097
3240.00,0.0097
3239.00,0.0097
3238.00,0.0096
3237.00,0.0096
3236.00,0.0096
3235.00,0.0095
3234.00,0.0095
3233.00,0.0095
3232.00,0.0095
3231.00,0.0094
3230.00,0.0094
3229.00,0.0094
3228.00,0.0095
3227.00,0.0095
3226.00,0.0095
3225.00,0.0095
3224.00,0.0095
3223.00,0.0095
3222.00,0.0095
3221.00,0.0095
3220.00,0.0095
3219.00,0.0095
3218.00,0.0095
3217.00,0.0095
3216.00,0.0095
3215.00,0.0095
3214.00,0.0095
3213.00,0.0095
3212.00,0.0095
3211.00,0.0095
3210.00,0.0095
3209.00,0.0094
3208.00,0.0094
3207.00,0.0094
3206.00,0.0094
3205.00,0.0094
3204.00,0.0094
3203.00,0.0095
3202.00,0.0095
3201.00,0.0095
3200.00,0.0094
3199.00,0.0094
3198.00,0.0094
3197.00,0.0094
3196.00,0.0093
3195.00,0.0093
3194.00,0.0093
3193.00,0.0093
3192.00,0.0093
3191.00,0.0093
3190.00,0.0093
3189.00,0.0093
3188.00,0.0093
3187.00,0.0092
3186.00,0.0092
3185.00,0.0091
3184.00,0.0091
3183.00,0.0091
3182.00,0.0090
3181.00,0.0090
3180.00,0.0090
3179.00,0.0089
3178.00,0.0089
3177.00,0.0088
3176.00,0.0087
3175.00,0.0086
3174.00,0.0086
3173.00,0.0085
3172.00,0.0085
3171.00,0.0085
3170.00,0.0085
3169.00,0.0085
3168.00,0.0085
3167.00,0.0084
3166.00,0.0084
3165.00,0.0084
3164.00,0.0083
3163.00,0.0083
3162.00,0.0082
3161.00,0.0082
3160.00,0.0082
3159.00,0.0081
3158.00,0.0081
3157.00,0.0081
3156.00,0.0080
3155.00,0.0080
3154.00,0.0080
3153.00,0.0079
3152.00,0.0079
3151.00,0.0079
3150.00,0.0079
3149.00,0.0079
3148.00,0.0079
3147.00,0.0079
3146.00,0.0078
3145.00,0.0078
3144.00,0.0078
3143.00,0.0077
3142.00,0.0076
3141.00,0.0076
3140.00,0.0076
3139.00,0.0075
3138.00,0.0075
3137.00,0.0075
3136.00,0.0075
3135.00,0.0075
3134.00,0.0075
3133.00,0.0074
3132.00,0.0074
3131.00,0.0073
3130.00,0.0073
3129.00,0.0072
3128.00,0.0072
3127.00,0.0072
3126.00,0.0072
3125.00,0.0071
3124.00,0.0071
3123.00,0.0070
3122.00,0.0069
3121.00,0.0069
3120.00,0.0068
3119.00,0.0068
3118.00,0.0068
3117.00,0.0068
3116.00,0.0067
3115.00,0.0067
3114.00,0.0067
3113.00,0.0067
3112.00,0.0066
3111.00,0.0066
3110.00,0.0066
3109.00,0.0065
3108.00,0.0065
3107.00,0.0064
3106.00,0.0064
3105.00,0.0064
3104.00,0.0064
3103.00,0.0064
3102.00,0.0063
3101.00,0.0063
3100.00,0.0063
3099.00,0.0062
3098.00,0.0062
3097.00,0.0062
3096.00,0.0061
3095.00,0.0061
3094.00,0.0061
3093.00,0.0061
3092.00,0.0060
3091.00,0.0059
3090.00,0.0059
3089.00,0.0059
3088.00,0.0059
3087.00,0.0058
3086.00,0.0058
3085.00,0.0058
3084.00,0.0058
3083.00,0.0058
3082.00,0.0058
3081.00,0.0058
3080.00,0.0057
3079.00,0.0057
3078.00,0.0057
3077.00,0.0057
3076.00,0.0057
3075.00,0.0057
3074.00,0.0057
3073.00,0.0058
3072.00,0.0058
3071.00,0.0058
3070.00,0.0058
3069.00,0.0058
3068.00,0.0058
3067.00,0.0058
3066.00,0.0058
3065.00,0.0058
3064.00,0.0058
3063.00,0.0059
3062.00,0.0059
3061.00,0.0059
3060.00,0.0059
3059.00,0.0059
3058.00,0.0059
3057.00,0.0059
3056.00,0.0058
3055.00,0.0058
3054.00,0.0058
3053.00,0.0058
3052.00,0.0058
3051.00,0.0059
3050.00,0.0059
3049.00,0.0059
3048.00,0.0059
3047.00,0.0059
3046.00,0.0059
3045.00,0.0059
3044.00,0.0060
3043.00,0.0060
3042.00,0.0060
3041.00,0.0060
3040.00,0.0060
3039.00,0.0061
3038.00,0.0061
3037.00,0.0062
3036.00,0.0062
3035.00,0.0063
3034.00,0.0063
3033.00,0.0063
3032.00,0.0063
3031.00,0.0064
3030.00,0.0064
3029.00,0.0064
3028.00,0.0064
3027.00,0.0064
3026.00,0.0064
3025.00,0.0065
3024.00,0.0066
3023.00,0.0067
3022.00,0.0068
3021.00,0.0068
3020.00,0.0069
3019.00,0.0069
3018.00,0.0070
3017.00,0.0071
3016.00,0.0072
3015.00,0.0072
3014.00,0.0073
3013.00,0.0073
3012.00,0.0074
3011.00,0.0076
3010.00,0.0077
3009.00,0.0079
3008.00,0.0080
3007.00,0.0081
3006.00,0.0083
3005.00,0.0084
3004.00,0.0086
3003.00,0.0087
3002.00,0.0089
3001.00,0.0092
3000.00,0.0094
2999.00,0.0097
2998.00,0.0099
2997.00,0.0102
2996.00,0.0106
2995.00,0.0109
2994.00,0.0113
2993.00,0.0117
2992.00,0.0122
2991.00,0.0128
2990.00,0.0134
2989.00,0.0141
2988.00,0.0148
2987.00,0.0156
2986.00,0.0165
2985.00,0.0176
2984.00,0.0187
2983.00,0.0199
2982.00,0.0212
2981.00,0.0228
2980.00,0.0245
2979.00,0.0266
2978.00,0.0289
2977.00,0.0315
2976.00,0.0345
2975.00,0.0379
2974.00,0.0417
2973.00,0.0461
2972.00,0.0510
2971.00,0.0565
2970.00,0.0625
2969.00,0.0692
2968.00,0.0764
2967.00,0.0840
2966.00,0.0920
2965.00,0.1001
2964.00,0.1079
2963.00,0.1153
2962.00,0.1218
2961.00,0.1273
2960.00,0.1320
2959.00,0.1360
2958.00,0.1397
2957.00,0.1437
2956.00,0.1482
2955.00,0.1534
2954.00,0.1591
2953.00,0.1650
2952.00,0.1701
2951.00,0.1737
2950.00,0.1748
2949.00,0.1729
2948.00,0.1678
2947.00,0.1599
2946.00,0.1500
2945.00,0.1394
2944.00,0.1291
2943.00,0.1203
2942.00,0.1134
2941.00,0.1088
2940.00,0.1064
2939.00,0.1061
2938.00,0.1075
2937.00,0.1106
2936.00,0.1152
2935.00,0.1211
2934.00,0.1283
2933.00,0.1366
2932.00,0.1459
2931.00,0.1559
2930.00,0.1664
2929.00,0.1771
2928.00,0.1878
2927.00,0.1982
2926.00,0.2082
2925.00,0.2178
2924.00,0.2271
2923.00,0.2362
2922.00,0.2452
2921.00,0.2536
2920.00,0.2610
2919.00,0.2665
2918.00,0.2693
2917.00,0.2686
2916.00,0.2642
2915.00,0.2566
2914.00,0.2468
2913.00,0.2359
2912.00,0.2251
2911.00,0.2150
2910.00,0.2059
2909.00,0.1977
2908.00,0.1903
2907.00,0.1834
2906.00,0.1768
2905.00,0.1704
2904.00,0.1639
2903.00,0.1575
2902.00,0.1512
2901.00,0.1451
2900.00,0.1391
2899.00,0.1335
2898.00,0.1282
2897.00,0.1234
2896.00,0.1190
2895.00,0.1151
2894.00,0.1118
2893.00,0.1091
2892.00,0.1069
2891.00,0.1053
2890.00,0.1041
2889.00,0.1033
2888.00,0.1029
2887.00,0.1028
2886.00,0.1030
2885.00,0.1036
2884.00,0.1047
2883.00,0.1063
2882.00,0.1083
2881.00,0.1107
2880.00,0.1132
2879.00,0.1153
2878.00,0.1169
2877.00,0.1177
2876.00,0.1177
2875.00,0.1173
2874.00,0.1168
2873.00,0.1167
2872.00,0.1172
2871.00,0.1183
2870.00,0.1197
2869.00,0.1212
2868.00,0.1221
2867.00,0.1217
2866.00,0.1195
2865.00,0.1154
2864.00,0.1097
2863.00,0.1032
2862.00,0.0967
2861.00,0.0910
2860.00,0.0867
2859.00,0.0838
2858.00,0.0822
2857.00,0.0819
2856.00,0.0824
2855.00,0.0835
2854.00,0.0852
2853.00,0.0872
2852.00,0.0891
2851.00,0.0907
2850.00,0.0917
2849.00,0.0920
2848.00,0.0918
2847.00,0.0918
2846.00,0.0924
2845.00,0.0940
2844.00,0.0967
2843.00,0.1004
2842.00,0.1047
2841.00,0.1090
2840.00,0.1126
2839.00,0.1148
2838.00,0.1148
2837.00,0.1122
2836.00,0.1068
2835.00,0.0990
2834.00,0.0897
2833.00,0.0797
2832.00,0.0701
2831.00,0.0615
2830.00,0.0542
2829.00,0.0482
2828.00,0.0433
2827.00,0.0393
2826.00,0.0360
2825.00,0.0333
2824.00,0.0310
2823.00,0.0291
2822.00,0.0275
2821.00,0.0261
2820.00,0.0249
2819.00,0.0238
2818.00,0.0228
2817.00,0.0220
2816.00,0.0213
2815.00,0.0206
2814.00,0.0201
2813.00,0.0195
2812.00,0.0190
2811.00,0.0185
2810.00,0.0180
2809.00,0.0174
2808.00,0.0168
2807.00,0.0162
2806.00,0.0156
2805.00,0.0150
2804.00,0.0144
2803.00,0.0139
2802.00,0.0133
2801.00,0.0128
2800.00,0.0124
2799.00,0.0121
2798.00,0.0118
2797.00,0.0115
2796.00,0.0113
2795.00,0.0111
2794.00,0.0109
2793.00,0.0106
2792.00,0.0103
2791.00,0.0100
2790.00,0.0097
2789.00,0.0095
2788.00,0.0092
2787.00,0.0089
2786.00,0.0086
2785.00,0.0083
2784.00,0.0081
2783.00,0.0079
2782.00,0.0077
2781.00,0.0075
2780.00,0.0074
2779.00,0.0072
2778.00,0.0070
2777.00,0.0069
2776.00,0.0068
2775.00,0.0067
2774.00,0.0066
2773.00,0.0065
2772.00,0.0065
2771.00,0.0064
2770.00,0.0064
2769.00,0.0063
2768.00,0.0063
2767.00,0.0063
2766.00,0.0062
2765.00,0.0062
2764.00,0.0062
2763.00,0.0061
2762.00,0.0061
2761.00,0.0060
2760.00,0.0060
2759.00,0.0060
2758.00,0.0060
2757.00,0.0059
2756.00,0.0059
2755.00,0.0059
2754.00,0.0059
2753.00,0.0059
2752.00,0.0058
2751.00,0.0058
2750.00,0.0057
2749.00,0.0057
2748.00,0.0057
2747.00,0.0058
2746.00,0.0058
2745.00,0.0058
2744.00,0.0059
2743.00,0.0060
2742.00,0.0060
2741.00,0.0062
2740.00,0.0063
2739.00,0.0064
2738.00,0.0065
2737.00,0.0066
2736.00,0.0067
2735.00,0.0069
2734.00,0.0070
2733.00,0.0071
2732.00,0.0073
2731.00,0.0074
2730.00,0.0076
2729.00,0.0079
2728.00,0.0081
2727.00,0.0084
2726.00,0.0086
2725.00,0.0088
2724.00,0.0089
2723.00,0.0089
2722.00,0.0088
2721.00,0.0086
2720.00,0.0084
2719.00,0.0081
2718.00,0.0078
2717.00,0.0075
2716.00,0.0073
2715.00,0.0070
2714.00,0.0068
2713.00,0.0066
2712.00,0.0064
2711.00,0.0062
2710.00,0.0061
2709.00,0.0060
2708.00,0.0059
2707.00,0.0057
2706.00,0.0056
2705.00,0.0055
2704.00,0.0054
2703.00,0.0053
2702.00,0.0052
2701.00,0.0051
2700.00,0.0050
2699.00,0.0050
2698.00,0.0050
2697.00,0.0049
2696.00,0.0049
2695.00,0.0049
2694.00,0.0049
2693.00,0.0049
2692.00,0.0049
2691.00,0.0049
2690.00,0.0049
2689.00,0.0049
2688.00,0.0049
2687.00,0.0049
2686.00,0.0049
2685.00,0.0049
2684.00,0.0049
2683.00,0.0049
2682.00,0.0049
2681.00,0.0049
2680.00,0.0049
2679.00,0.0049
2678.00,0.0049
2677.00,0.0049
2676.00,0.0049
2675.00,0.0049
2674.00,0.0049
2673.00,0.0049
2672.00,0.0048
2671.00,0.0048
2670.00,0.0048
2669.00,0.0048
2668.00,0.0048
2667.00,0.0048
2666.00,0.0049
2665.00,0.0049
2664.00,0.0049
2663.00,0.0050
2662.00,0.0050
2661.00,0.0050
2660.00,0.0050
2659.00,0.0050
2658.00,0.0050
2657.00,0.0050
2656.00,0.0050
2655.00,0.0050
2654.00,0.0049
2653.00,0.0049
2652.00,0.0048
2651.00,0.0048
2650.00,0.0047
2649.00,0.0046
2648.00,0.0046
2647.00,0.0045
2646.00,0.0045
2645.00,0.0045
2644.00,0.0044
2643.00,0.0044
2642.00,0.0043
2641.00,0.0043
2640.00,0.0042
2639.00,0.0042
2638.00,0.0042
2637.00,0.0042
2636.00,0.0042
2635.00,0.0042
2634.00,0.0041
2633.00,0.0041
2632.00,0.0041
2631.00,0.0042
2630.00,0.0042
2629.00,0.0042
2628.00,0.0042
2627.00,0.0042
2626.00,0.0042
2625.00,0.0043
2624.00,0.0043
2623.00,0.0044
2622.00,0.0044
2621.00,0.0043
2620.00,0.0042
2619.00,0.0042
2618.00,0.0042
2617.00,0.0042
2616.00,0.0042
2615.00,0.0042
2614.00,0.0042
2613.00,0.0041
2612.00,0.0041
2611.00,0.0041
2610.00,0.0040
2609.00,0.0039
2608.00,0.0038
2607.00,0.0038
2606.00,0.0037
2605.00,0.0037
2604.00,0.0037
2603.00,0.0037
2602.00,0.0036
2601.00,0.0035
2600.00,0.0034
2599.00,0.0033
2598.00,0.0033
2597.00,0.0034
2596.00,0.0034
2595.00,0.0035
2594.00,0.0036
2593.00,0.0036
2592.00,0.0036
2591.00,0.0036
2590.00,0.0036
2589.00,0.0037
2588.00,0.0037
2587.00,0.0038
2586.00,0.0040
2585.00,0.0040
2584.00,0.0041
2583.00,0.0041
2582.00,0.0041
2581.00,0.0041
2580.00,0.0041
2579.00,0.0040
2578.00,0.0038
2577.00,0.0036
2576.00,0.0035
2575.00,0.0034
2574.00,0.0032
2573.00,0.0032
2572.00,0.0031
2571.00,0.0030
2570.00,0.0030
2569.00,0.0029
2568.00,0.0029
2567.00,0.0028
2566.00,0.0027
2565.00,0.0027
2564.00,0.0027
2563.00,0.0027
2562.00,0.0026
2561.00,0.0026
2560.00,0.0025
2559.00,0.0024
2558.00,0.0024
2557.00,0.0024
2556.00,0.0025
2555.00,0.0025
2554.00,0.0024
2553.00,0.0024
2552.00,0.0024
2551.00,0.0024
2550.00,0.0024
2549.00,0.0024
2548.00,0.0023
2547.00,0.0023
2546.00,0.0022
2545.00,0.0021
2544.00,0.0020
2543.00,0.0020
2542.00,0.0020
2541.00,0.0020
2540.00,0.0020
2539.00,0.0020
2538.00,0.0020
2537.00,0.0020
2536.00,0.0021
2535.00,0.0021
2534.00,0.0021
2533.00,0.0021
2532.00,0.0020
2531.00,0.0020
2530.00,0.0019
2529.00,0.0018
2528.00,0.0018
2527.00,0.0018
2526.00,0.0018
2525.00,0.0018
2524.00,0.0018
2523.00,0.0018
2522.00,0.0018
2521.00,0.0018
2520.00,0.0017
2519.00,0.0017
2518.00,0.0016
2517.00,0.0015
2516.00,0.0014
2515.00,0.0014
2514.00,0.0014
2513.00,0.0014
2512.00,0.0014
2511.00,0.0014
2510.00,0.0014
2509.00,0.0014
2508.00,0.0013
2507.00,0.0013
2506.00,0.0013
2505.00,0.0014
2504.00,0.0014
2503.00,0.0013
2502.00,0.0012
2501.00,0.0012
2500.00,0.0012
2499.00,0.0012
2498.00,0.0013
2497.00,0.0014
2496.00,0.0014
2495.00,0.0014
2494.00,0.0014
2493.00,0.0014
2492.00,0.0014
2491.00,0.0014
2490.00,0.0014
2489.00,0.0014
2488.00,0.0013
2487.00,0.0013
2486.00,0.0013
2485.00,0.0013
2484.00,0.0013
2483.00,0.0014
2482.00,0.0014
2481.00,0.0014
2480.00,0.0014
2479.00,0.0014
2478.00,0.0014
2477.00,0.0014
2476.00,0.0014
2475.00,0.0013
2474.00,0.0012
2473.00,0.0012
2472.00,0.0011
2471.00,0.0012
2470.00,0.0012
2469.00,0.0012
2468.00,0.0012
2467.00,0.0012
2466.00,0.0012
2465.00,0.0013
2464.00,0.0013
2463.00,0.0013
2462.00,0.0013
2461.00,0.0014
2460.00,0.0014
2459.00,0.0014
2458.00,0.0014
2457.00,0.0014
2456.00,0.0014
2455.00,0.0013
2454.00,0.0013
2453.00,0.0013
2452.00,0.0013
2451.00,0.0013
2450.00,0.0014
2449.00,0.0014
2448.00,0.0014
2447.00,0.0014
2446.00,0.0014
2445.00,0.0014
2444.00,0.0014
2443.00,0.0013
2442.00,0.0013
2441.00,0.0013
2440.00,0.0014
2439.00,0.0014
2438.00,0.0014
2437.00,0.0015
2436.00,0.0015
2435.00,0.0014
2434.00,0.0014
2433.00,0.0013
2432.00,0.0012
2431.00,0.0012
2430.00,0.0012
2429.00,0.0012
2428.00,0.0013
2427.00,0.0013
2426.00,0.0013
2425.00,0.0013
2424.00,0.0013
2423.00,0.0013
2422.00,0.0013
2421.00,0.0012
2420.00,0.0012
2419.00,0.0011
2418.00,0.0011
2417.00,0.0011
2416.00,0.0011
2415.00,0.0012
2414.00,0.0012
2413.00,0.0012
2412.00,0.0012
2411.00,0.0012
2410.00,0.0012
2409.00,0.0013
2408.00,0.0012
2407.00,0.0012
2406.00,0.0011
2405.00,0.0010
2404.00,0.0011
2403.00,0.0011
2402.00,0.0012
2401.00,0.0012
2400.00,0.0012
2399.00,0.0012
2398.00,0.0012
2397.00,0.0011
2396.00,0.0011
2395.00,0.0011
2394.00,0.0011
2393.00,0.0011
2392.00,0.0011
2391.00,0.0010
2390.00,0.0010
2389.00,0.0009
2388.00,0.0009
2387.00,0.0009
2386.00,0.0009
2385.00,0.0009
2384.00,0.0009
2383.00,0.0009
2382.00,0.0009
2381.00,0.0009
2380.00,0.0009
2379.00,0.0008
2378.00,0.0008
2377.00,0.0008
2376.00,0.0007
2375.00,0.0007
2374.00,0.0007
2373.00,0.0007
2372.00,0.0008
2371.00,0.0008
2370.00,0.0008
2369.00,0.0008
2368.00,0.0008
2367.00,0.0008
2366.00,0.0009
2365.00,0.0009
2364.00,0.0009
2363.00,0.0009
2362.00,0.0008
2361.00,0.0008
2360.00,0.0009
2359.00,0.0010
2358.00,0.0011
2357.00,0.0011
2356.00,0.0012
2355.00,0.0011
2354.00,0.0011
2353.00,0.0010
2352.00,0.0010
2351.00,0.0010
2350.00,0.0010
2349.00,0.0010
2348.00,0.0010
2347.00,0.0011
2346.00,0.0011
2345.00,0.0011
2344.00,0.0011
2343.00,0.0011
2342.00,0.0012
2341.00,0.0012
2340.00,0.0012
2339.00,0.0013
2338.00,0.0013
2337.00,0.0013
2336.00,0.0013
2335.00,0.0013
2334.00,0.0012
2333.00,0.0011
2332.00,0.0011
2331.00,0.0011
2330.00,0.0011
2329.00,0.0013
2328.00,0.0015
2327.00,0.0018
2326.00,0.0022
2325.00,0.0024
2324.00,0.0025
2323.00,0.0024
2322.00,0.0021
2321.00,0.0019
2320.00,0.0018
2319.00,0.0017
2318.00,0.0016
2317.00,0.0016
2316.00,0.0016
2315.00,0.0016
2314.00,0.0015
2313.00,0.0015
2312.00,0.0014
2311.00,0.0014
2310.00,0.0014
2309.00,0.0014
2308.00,0.0015
2307.00,0.0016
2306.00,0.0016
2305.00,0.0016
2304.00,0.0016
2303.00,0.0016
2302.00,0.0016
2301.00,0.0016
2300.00,0.0016
2299.00,0.0015
2298.00,0.0015
2297.00,0.0016
2296.00,0.0016
2295.00,0.0017
2294.00,0.0018
2293.00,0.0019
2292.00,0.0019
2291.00,0.0019
2290.00,0.0020
2289.00,0.0020
2288.00,0.0021
2287.00,0.0022
2286.00,0.0023
2285.00,0.0022
2284.00,0.0021
2283.00,0.0020
2282.00,0.0019
2281.00,0.0019
2280.00,0.0018
2279.00,0.0018
2278.00,0.0017
2277.00,0.0017
2276.00,0.0016
2275.00,0.0016
2274.00,0.0016
2273.00,0.0016
2272.00,0.0016
2271.00,0.0016
2270.00,0.0016
2269.00,0.0016
2268.00,0.0015
2267.00,0.0015
2266.00,0.0014
2265.00,0.0014
2264.00,0.0014
2263.00,0.0013
2262.00,0.0013
2261.00,0.0014
2260.00,0.0015
2259.00,0.0015
2258.00,0.0016
2257.00,0.0016
2256.00,0.0015
2255.00,0.0014
2254.00,0.0012
2253.00,0.0010
2252.00,0.0008
2251.00,0.0008
2250.00,0.0008
2249.00,0.0010
2248.00,0.0012
2247.00,0.0013
2246.00,0.0013
2245.00,0.0013
2244.00,0.0013
2243.00,0.0012
2242.00,0.0010
2241.00,0.0009
2240.00,0.0008
2239.00,0.0008
2238.00,0.0009
2237.00,0.0010
2236.00,0.0010
2235.00,0.0011
2234.00,0.0012
2233.00,0.0013
2232.00,0.0014
2231.00,0.0015
2230.00,0.0015
2229.00,0.0016
2228.00,0.0015
2227.00,0.0015
2226.00,0.0014
2225.00,0.0015
2224.00,0.0015
2223.00,0.0014
2222.00,0.0014
2221.00,0.0012
2220.00,0.0010
2219.00,0.0009
2218.00,0.0008
2217.00,0.0007
2216.00,0.0008
2215.00,0.0008
2214.00,0.0008
2213.00,0.0008
2212.00,0.0008
2211.00,0.0010
2210.00,0.0011
2209.00,0.0012
2208.00,0.0013
2207.00,0.0013
2206.00,0.0012
2205.00,0.0011
2204.00,0.0011
2203.00,0.0010
2202.00,0.0010
2201.00,0.0010
2200.00,0.0011
2199.00,0.0012
2198.00,0.0014
2197.00,0.0015
2196.00,0.0015
2195.00,0.0014
2194.00,0.0013
2193.00,0.0013
2192.00,0.0012
2191.00,0.0011
2190.00,0.0012
2189.00,0.0014
2188.00,0.0017
2187.00,0.0019
2186.00,0.0019
2185.00,0.0017
2184.00,0.0014
2183.00,0.0011
2182.00,0.0008
2181.00,0.0005
2180.00,0.0003
2179.00,0.0001
2178.00,0.0001
2177.00,0.0001
2176.00,0.0002
2175.00,0.0002
2174.00,0.0003
2173.00,0.0004
2172.00,0.0006
2171.00,0.0009
2170.00,0.0011
2169.00,0.0013
2168.00,0.0016
2167.00,0.0019
2166.00,0.0023
2165.00,0.0025
2164.00,0.0025
2163.00,0.0025
2162.00,0.0022
2161.00,0.0015
2160.00,0.0005
2159.00,-0.0008
2158.00,-0.0018
2157.00,-0.0022
2156.00,-0.0023
2155.00,-0.0021
2154.00,-0.0018
2153.00,-0.0014
2152.00,-0.0010
2151.00,-0.0009
2150.00,-0.0009
2149.00,-0.0010
2148.00,-0.0011
2147.00,-0.0011
2146.00,-0.0010
2145.00,-0.0008
2144.00,-0.0007
2143.00,-0.0005
2142.00,-0.0003
2141.00,-0.0001
2140.00,-0.0001
2139.00,-0.0003
2138.00,-0.0007
2137.00,-0.0010
2136.00,-0.0011
2135.00,-0.0011
2134.00,-0.0011
2133.00,-0.0011
2132.00,-0.0010
2131.00,-0.0010
2130.00,-0.0009
2129.00,-0.0008
2128.00,-0.0007
2127.00,-0.0006
2126.00,-0.0005
2125.00,-0.0003
2124.00,-0.0002
2123.00,-0.0001
2122.00,-0.0001
2121.00,-0.0001
2120.00,-0.0001
2119.00,-0.0001
2118.00,0.0000
2117.00,0.0002
2116.00,0.0004
2115.00,0.0006
2114.00,0.0007
2113.00,0.0008
2112.00,0.0008
2111.00,0.0007
2110.00,0.0006
2109.00,0.0006
2108.00,0.0007
2107.00,0.0008
2106.00,0.0008
2105.00,0.0008
2104.00,0.0008
2103.00,0.0007
2102.00,0.0006
2101.00,0.0005
2100.00,0.0004
2099.00,0.0004
2098.00,0.0003
2097.00,0.0002
2096.00,0.0001
2095.00,-0.0002
2094.00,-0.0003
2093.00,-0.0003
2092.00,-0.0002
2091.00,0.0001
2090.00,0.0002
2089.00,0.0003
2088.00,0.0003
2087.00,0.0004
2086.00,0.0005
2085.00,0.0006
2084.00,0.0007
2083.00,0.0007
2082.00,0.0006
2081.00,0.0005
2080.00,0.0005
2079.00,0.0004
2078.00,0.0004
2077.00,0.0005
2076.00,0.0006
2075.00,0.0007
2074.00,0.0008
2073.00,0.0008
2072.00,0.0009
2071.00,0.0008
2070.00,0.0006
2069.00,0.0005
2068.00,0.0003
2067.00,0.0002
2066.00,0.0001
2065.00,0.0001
2064.00,0.0002
2063.00,0.0003
2062.00,0.0003
2061.00,0.0003
2060.00,0.0002
2059.00,0.0001
2058.00,0.0002
2057.00,0.0004
2056.00,0.0005
2055.00,0.0005
2054.00,0.0005
2053.00,0.0007
2052.00,0.0011
2051.00,0.0014
2050.00,0.0014
2049.00,0.0011
2048.00,0.0007
2047.00,0.0003
2046.00,-0.0000
2045.00,-0.0001
2044.00,-0.0001
2043.00,-0.0001
2042.00,-0.0001
2041.00,-0.0000
2040.00,-0.0000
2039.00,-0.0001
2038.00,-0.0001
2037.00,0.0001
2036.00,0.0001
2035.00,0.0000
2034.00,-0.0002
2033.00,-0.0005
2032.00,-0.0007
2031.00,-0.0008
2030.00,-0.0007
2029.00,-0.0004
2028.00,-0.0001
2027.00,-0.0002
2026.00,-0.0006
2025.00,-0.0010
2024.00,-0.0011
2023.00,-0.0009
2022.00,-0.0005
2021.00,-0.0001
2020.00,0.0001
2019.00,-0.0000
2018.00,-0.0002
2017.00,-0.0004
2016.00,-0.0004
2015.00,-0.0005
2014.00,-0.0006
2013.00,-0.0006
2012.00,-0.0007
2011.00,-0.0008
2010.00,-0.0009
2009.00,-0.0009
2008.00,-0.0011
2007.00,-0.0015
2006.00,-0.0017
2005.00,-0.0017
2004.00,-0.0015
2003.00,-0.0013
2002.00,-0.0013
2001.00,-0.0014
2000.00,-0.0015
1999.00,-0.0014
1998.00,-0.0011
1997.00,-0.0006
1996.00,-0.0001
1995.00,0.0002
1994.00,0.0003
1993.00,0.0004
1992.00,0.0006
1991.00,0.0007
1990.00,0.0007
1989.00,0.0006
1988.00,0.0003
1987.00,0.0000
1986.00,-0.0002
1985.00,-0.0001
1984.00,0.0003
1983.00,0.0007
1982.00,0.0010
1981.00,0.0012
1980.00,0.0011
1979.00,0.0007
1978.00,-0.0000
1977.00,-0.0006
1976.00,-0.0010
1975.00,-0.0012
1974.00,-0.0012
1973.00,-0.0011
1972.00,-0.0008
1971.00,-0.0005
1970.00,-0.0004
1969.00,-0.0005
1968.00,-0.0007
1967.00,-0.0009
1966.00,-0.0009
1965.00,-0.0009
1964.00,-0.0009
1963.00,-0.0011
1962.00,-0.0014
1961.00,-0.0017
1960.00,-0.0019
1959.00,-0.0020
1958.00,-0.0019
1957.00,-0.0017
1956.00,-0.0015
1955.00,-0.0012
1954.00,-0.0010
1953.00,-0.0008
1952.00,-0.0008
1951.00,-0.0009
1950.00,-0.0011
1949.00,-0.0012
1948.00,-0.0012
1947.00,-0.0012
1946.00,-0.0012
1945.00,-0.0012
1944.00,-0.0013
1943.00,-0.0013
1942.00,-0.0012
1941.00,-0.0010
1940.00,-0.0010
1939.00,-0.0011
1938.00,-0.0012
1937.00,-0.0011
1936.00,-0.0010
1935.00,-0.0008
1934.00,-0.0007
1933.00,-0.0006
1932.00,-0.0005
1931.00,-0.0004
1930.00,-0.0004
1929.00,-0.0003
1928.00,-0.0003
1927.00,-0.0003
1926.00,-0.0004
1925.00,-0.0004
1924.00,-0.0003
1923.00,-0.0002
1922.00,-0.0001
1921.00,0.0000
1920.00,0.0000
1919.00,-0.0000
1918.00,-0.0001
1917.00,-0.0002
1916.00,-0.0002
1915.00,-0.0001
1914.00,0.0000
1913.00,0.0002
1912.00,0.0002
1911.00,0.0001
1910.00,0.0001
1909.00,0.0001
1908.00,0.0001
1907.00,0.0001
1906.00,0.0001
1905.00,0.0002
1904.00,0.0002
1903.00,0.0002
1902.00,0.0001
1901.00,0.0001
1900.00,0.0001
1899.00,0.0001
1898.00,0.0001
1897.00,0.0002
1896.00,0.0002
1895.00,0.0001
1894.00,0.0002
1893.00,0.0002
1892.00,0.0003
1891.00,0.0004
1890.00,0.0004
1889.00,0.0004
1888.00,0.0004
1887.00,0.0003
1886.00,0.0002
1885.00,0.0001
1884.00,0.0001
1883.00,0.0001
1882.00,0.0001
1881.00,0.0001
1880.00,0.0001
1879.00,0.0000
1878.00,0.0000
1877.00,0.0001
1876.00,0.0002
1875.00,0.0003
1874.00,0.0003
1873.00,0.0003
1872.00,0.0003
1871.00,0.0004
1870.00,0.0004
1869.00,0.0005
1868.00,0.0005
1867.00,0.0006
1866.00,0.0005
1865.00,0.0005
1864.00,0.0005
1863.00,0.0004
1862.00,0.0004
1861.00,0.0004
1860.00,0.0005
1859.00,0.0005
1858.00,0.0005
1857.00,0.0005
1856.00,0.0005
1855.00,0.0004
1854.00,0.0004
1853.00,0.0004
1852.00,0.0004
1851.00,0.0004
1850.00,0.0005
1849.00,0.0005
1848.00,0.0006
1847.00,0.0006
1846.00,0.0005
1845.00,0.0004
1844.00,0.0004
1843.00,0.0005
1842.00,0.0005
1841.00,0.0005
1840.00,0.0004
1839.00,0.0004
1838.00,0.0004
1837.00,0.0004
1836.00,0.0005
1835.00,0.0005
1834.00,0.0006
1833.00,0.0006
1832.00,0.0006
1831.00,0.0005
1830.00,0.0005
1829.00,0.0006
1828.00,0.0007
1827.00,0.0007
1826.00,0.0007
1825.00,0.0007
1824.00,0.0007
1823.00,0.0007
1822.00,0.0007
1821.00,0.0007
1820.00,0.0006
1819.00,0.0005
1818.00,0.0004
1817.00,0.0003
1816.00,0.0003
1815.00,0.0004
1814.00,0.0005
1813.00,0.0006
1812.00,0.0007
1811.00,0.0008
1810.00,0.0008
1809.00,0.0008
1808.00,0.0008
1807.00,0.0008
1806.00,0.0008
1805.00,0.0007
1804.00,0.0007
1803.00,0.0008
1802.00,0.0008
1801.00,0.0008
1800.00,0.0009
1799.00,0.0009
1798.00,0.0010
1797.00,0.0010
1796.00,0.0011
1795.00,0.0011
1794.00,0.0010
1793.00,0.0010
1792.00,0.0011
1791.00,0.0012
1790.00,0.0013
1789.00,0.0012
1788.00,0.0012
1787.00,0.0012
1786.00,0.0012
1785.00,0.0013
1784.00,0.0013
1783.00,0.0013
1782.00,0.0013
1781.00,0.0014
1780.00,0.0014
1779.00,0.0014
1778.00,0.0014
1777.00,0.0013
1776.00,0.0012
1775.00,0.0012
1774.00,0.0012
1773.00,0.0012
1772.00,0.0012
1771.00,0.0013
1770.00,0.0014
1769.00,0.0015
1768.00,0.0016
1767.00,0.0016
1766.00,0.0016
1765.00,0.0016
1764.00,0.0016
1763.00,0.0016
1762.00,0.0017
1761.00,0.0018
1760.00,0.0020
1759.00,0.0021
1758.00,0.0022
1757.00,0.0024
1756.00,0.0025
1755.00,0.0025
1754.00,0.0026
1753.00,0.0027
1752.00,0.0028
1751.00,0.0029
1750.00,0.0029
1749.00,0.0030
1748.00,0.0031
1747.00,0.0032
1746.00,0.0033
1745.00,0.0034
1744.00,0.0035
1743.00,0.0036
1742.00,0.0036
1741.00,0.0036
1740.00,0.0036
1739.00,0.0036
1738.00,0.0037
1737.00,0.0037
1736.00,0.0038
1735.00,0.0037
1734.00,0.0037
1733.00,0.0037
1732.00,0.0037
1731.00,0.0037
1730.00,0.0037
1729.00,0.0037
1728.00,0.0037
1727.00,0.0036
1726.00,0.0035
1725.00,0.0035
1724.00,0.0035
1723.00,0.0035
1722.00,0.0035
1721.00,0.0036
1720.00,0.0036
1719.00,0.0036
1718.00,0.0035
1717.00,0.0035
1716.00,0.0035
1715.00,0.0036
1714.00,0.0036
1713.00,0.0036
1712.00,0.0036
1711.00,0.0036
1710.00,0.0037
1709.00,0.0037
1708.00,0.0037
1707.00,0.0037
1706.00,0.0038
1705.00,0.0040
1704.00,0.0042
1703.00,0.0043
1702.00,0.0044
1701.00,0.0044
1700.00,0.0046
1699.00,0.0047
1698.00,0.0048
1697.00,0.0049
1696.00,0.0052
1695.00,0.0053
1694.00,0.0054
1693.00,0.0056
1692.00,0.0058
1691.00,0.0060
1690.00,0.0063
1689.00,0.0066
1688.00,0.0068
1687.00,0.0070
1686.00,0.0072
1685.00,0.0074
1684.00,0.0079
1683.00,0.0084
1682.00,0.0086
1681.00,0.0089
1680.00,0.0092
1679.00,0.0094
1678.00,0.0096
1677.00,0.0098
1676.00,0.0101
1675.00,0.0103
1674.00,0.0106
1673.00,0.0108
1672.00,0.0110
1671.00,0.0113
1670.00,0.0116
1669.00,0.0119
1668.00,0.0121
1667.00,0.0122
1666.00,0.0123
1665.00,0.0124
1664.00,0.0125
1663.00,0.0127
1662.00,0.0128
1661.00,0.0129
1660.00,0.0130
1659.00,0.0131
1658.00,0.0132
1657.00,0.0134
1656.00,0.0136
1655.00,0.0137
1654.00,0.0137
1653.00,0.0139
1652.00,0.0139
1651.00,0.0137
1650.00,0.0138
1649.00,0.0139
1648.00,0.0141
1647.00,0.0143
1646.00,0.0144
1645.00,0.0144
1644.00,0.0144
1643.00,0.0144
1642.00,0.0144
1641.00,0.0145
1640.00,0.0145
1639.00,0.0146
1638.00,0.0146
1637.00,0.0145
1636.00,0.0145
1635.00,0.0144
1634.00,0.0143
1633.00,0.0143
1632.00,0.0142
1631.00,0.0142
1630.00,0.0141
1629.00,0.0140
1628.00,0.0140
1627.00,0.0140
1626.00,0.0139
1625.00,0.0137
1624.00,0.0136
1623.00,0.0135
1622.00,0.0134
1621.00,0.0133
1620.00,0.0133
1619.00,0.0132
1618.00,0.0131
1617.00,0.0130
1616.00,0.0130
1615.00,0.0129
1614.00,0.0130
1613.00,0.0130
1612.00,0.0130
1611.00,0.0130
1610.00,0.0130
1609.00,0.0130
1608.00,0.0131
1607.00,0.0131
1606.00,0.0131
1605.00,0.0131
1604.00,0.0131
1603.00,0.0130
1602.00,0.0130
1601.00,0.0130
1600.00,0.0129
1599.00,0.0129
1598.00,0.0128
1597.00,0.0128
1596.00,0.0128
1595.00,0.0128
1594.00,0.0128
1593.00,0.0128
1592.00,0.0129
1591.00,0.0129
1590.00,0.0130
1589.00,0.0131
1588.00,0.0133
1587.00,0.0135
1586.00,0.0138
1585.00,0.0141
1584.00,0.0146
1583.00,0.0150
1582.00,0.0155
1581.00,0.0161
1580.00,0.0166
1579.00,0.0170
1578.00,0.0172
1577.00,0.0172
1576.00,0.0170
1575.00,0.0167
1574.00,0.0164
1573.00,0.0162
1572.00,0.0159
1571.00,0.0156
1570.00,0.0151
1569.00,0.0147
1568.00,0.0145
1567.00,0.0143
1566.00,0.0142
1565.00,0.0142
1564.00,0.0142
1563.00,0.0142
1562.00,0.0142
1561.00,0.0143
1560.00,0.0143
1559.00,0.0144
1558.00,0.0145
1557.00,0.0146
1556.00,0.0147
1555.00,0.0149
1554.00,0.0151
1553.00,0.0153
1552.00,0.0156
1551.00,0.0160
1550.00,0.0164
1549.00,0.0168
1548.00,0.0171
1547.00,0.0175
1546.00,0.0179
1545.00,0.0185
1544.00,0.0191
1543.00,0.0197
1542.00,0.0201
1541.00,0.0202
1540.00,0.0200
1539.00,0.0194
1538.00,0.0187
1537.00,0.0181
1536.00,0.0176
1535.00,0.0169
1534.00,0.0160
1533.00,0.0151
1532.00,0.0144
1531.00,0.0138
1530.00,0.0133
1529.00,0.0128
1528.00,0.0124
1527.00,0.0120
1526.00,0.0116
1525.00,0.0113
1524.00,0.0112
1523.00,0.0110
1522.00,0.0107
1521.00,0.0105
1520.00,0.0105
1519.00,0.0104
1518.00,0.0103
1517.00,0.0102
1516.00,0.0102
1515.00,0.0101
1514.00,0.0100
1513.00,0.0099
1512.00,0.0099
1511.00,0.0100
1510.00,0.0100
1509.00,0.0100
1508.00,0.0100
1507.00,0.0100
1506.00,0.0101
1505.00,0.0101
1504.00,0.0102
1503.00,0.0104
1502.00,0.0107
1501.00,0.0112
1500.00,0.0117
1499.00,0.0122
1498.00,0.0129
1497.00,0.0136
1496.00,0.0145
1495.00,0.0151
1494.00,0.0155
1493.00,0.0160
1492.00,0.0164
1491.00,0.0169
1490.00,0.0174
1489.00,0.0180
1488.00,0.0185
1487.00,0.0190
1486.00,0.0195
1485.00,0.0202
1484.00,0.0211
1483.00,0.0220
1482.00,0.0231
1481.00,0.0245
1480.00,0.0260
1479.00,0.0275
1478.00,0.0291
1477.00,0.0313
1476.00,0.0339
1475.00,0.0368
1474.00,0.0407
1473.00,0.0463
1472.00,0.0527
1471.00,0.0588
1470.00,0.0646
1469.00,0.0708
1468.00,0.0774
1467.00,0.0846
1466.00,0.0929
1465.00,0.1018
1464.00,0.1096
1463.00,0.1150
1462.00,0.1183
1461.00,0.1205
1460.00,0.1220
1459.00,0.1230
1458.00,0.1238
1457.00,0.1243
1456.00,0.1239
1455.00,0.1226
1454.00,0.1210
1453.00,0.1188
1452.00,0.1157
1451.00,0.1115
1450.00,0.1061
1449.00,0.0990
1448.00,0.0905
1447.00,0.0816
1446.00,0.0739
1445.00,0.0672
1444.00,0.0616
1443.00,0.0570
1442.00,0.0536
1441.00,0.0513
1440.00,0.0499
1439.00,0.0495
1438.00,0.0498
1437.00,0.0500
1436.00,0.0491
1435.00,0.0466
1434.00,0.0431
1433.00,0.0389
1432.00,0.0344
1431.00,0.0305
1430.00,0.0273
1429.00,0.0250
1428.00,0.0233
1427.00,0.0224
1426.00,0.0218
1425.00,0.0213
1424.00,0.0209
1423.00,0.0206
1422.00,0.0205
1421.00,0.0203
1420.00,0.0199
1419.00,0.0196
1418.00,0.0193
1417.00,0.0188
1416.00,0.0184
1415.00,0.0180
1414.00,0.0176
1413.00,0.0172
1412.00,0.0168
1411.00,0.0166
1410.00,0.0164
1409.00,0.0161
1408.00,0.0159
1407.00,0.0157
1406.00,0.0157
1405.00,0.0156
1404.00,0.0156
1403.00,0.0156
1402.00,0.0157
1401.00,0.0158
1400.00,0.0158
1399.00,0.0160
1398.00,0.0162
1397.00,0.0164
1396.00,0.0165
1395.00,0.0168
1394.00,0.0172
1393.00,0.0176
1392.00,0.0180
1391.00,0.0187
1390.00,0.0197
1389.00,0.0211
1388.00,0.0231
1387.00,0.0262
1386.00,0.0303
1385.00,0.0359
1384.00,0.0436
1383.00,0.0545
1382.00,0.0695
1381.00,0.0889
1380.00,0.1128
1379.00,0.1397
1378.00,0.1649
1377.00,0.1827
1376.00,0.1876
1375.00,0.1770
1374.00,0.1541
1373.00,0.1274
1372.00,0.1033
1371.00,0.0837
1370.00,0.0682
1369.00,0.0565
1368.00,0.0484
1367.00,0.0433
1366.00,0.0406
1365.00,0.0394
1364.00,0.0396
1363.00,0.0409
1362.00,0.0429
1361.00,0.0450
1360.00,0.0465
1359.00,0.0469
1358.00,0.0459
1357.00,0.0436
1356.00,0.0403
1355.00,0.0366
1354.00,0.0329
1353.00,0.0298
1352.00,0.0273
1351.00,0.0253
1350.00,0.0237
1349.00,0.0223
1348.00,0.0211
1347.00,0.0201
1346.00,0.0192
1345.00,0.0185
1344.00,0.0178
1343.00,0.0172
1342.00,0.0167
1341.00,0.0162
1340.00,0.0159
1339.00,0.0156
1338.00,0.0154
1337.00,0.0153
1336.00,0.0152
1335.00,0.0153
1334.00,0.0155
1333.00,0.0159
1332.00,0.0163
1331.00,0.0166
1330.00,0.0167
1329.00,0.0165
1328.00,0.0161
1327.00,0.0156
1326.00,0.0151
1325.00,0.0145
1324.00,0.0140
1323.00,0.0136
1322.00,0.0133
1321.00,0.0130
1320.00,0.0129
1319.00,0.0127
1318.00,0.0125
1317.00,0.0123
1316.00,0.0121
1315.00,0.0119
1314.00,0.0119
1313.00,0.0119
1312.00,0.0120
1311.00,0.0122
1310.00,0.0126
1309.00,0.0131
1308.00,0.0139
1307.00,0.0148
1306.00,0.0158
1305.00,0.0165
1304.00,0.0169
1303.00,0.0169
1302.00,0.0166
1301.00,0.0163
1300.00,0.0162
1299.00,0.0162
1298.00,0.0163
1297.00,0.0164
1296.00,0.0163
1295.00,0.0161
1294.00,0.0158
1293.00,0.0154
1292.00,0.0149
1291.00,0.0145
1290.00,0.0140
1289.00,0.0137
1288.00,0.0133
1287.00,0.0130
1286.00,0.0127
1285.00,0.0124
1284.00,0.0121
1283.00,0.0119
1282.00,0.0118
1281.00,0.0117
1280.00,0.0116
1279.00,0.0114
1278.00,0.0113
1277.00,0.0111
1276.00,0.0110
1275.00,0.0109
1274.00,0.0109
1273.00,0.0109
1272.00,0.0109
1271.00,0.0109
1270.00,0.0111
1269.00,0.0112
1268.00,0.0114
1267.00,0.0116
1266.00,0.0118
1265.00,0.0121
1264.00,0.0124
1263.00,0.0127
1262.00,0.0131
1261.00,0.0135
1260.00,0.0141
1259.00,0.0147
1258.00,0.0154
1257.00,0.0159
1256.00,0.0161
1255.00,0.0160
1254.00,0.0155
1253.00,0.0148
1252.00,0.0140
1251.00,0.0134
1250.00,0.0129
1249.00,0.0126
1248.00,0.0123
1247.00,0.0121
1246.00,0.0119
1245.00,0.0118
1244.00,0.0116
1243.00,0.0115
1242.00,0.0114
1241.00,0.0113
1240.00,0.0113
1239.00,0.0112
1238.00,0.0112
1237.00,0.0111
1236.00,0.0111
1235.00,0.0111
1234.00,0.0111
1233.00,0.0111
1232.00,0.0111
1231.00,0.0112
1230.00,0.0113
1229.00,0.0114
1228.00,0.0116
1227.00,0.0118
1226.00,0.0121
1225.00,0.0124
1224.00,0.0128
1223.00,0.0132
1222.00,0.0136
1221.00,0.0139
1220.00,0.0140
1219.00,0.0141
1218.00,0.0140
1217.00,0.0138
1216.00,0.0135
1215.00,0.0131
1214.00,0.0127
1213.00,0.0123
1212.00,0.0120
1211.00,0.0117
1210.00,0.0115
1209.00,0.0113
1208.00,0.0111
1207.00,0.0110
1206.00,0.0110
1205.00,0.0110
1204.00,0.0110
1203.00,0.0111
1202.00,0.0112
1201.00,0.0112
1200.00,0.0112
1199.00,0.0112
1198.00,0.0112
1197.00,0.0111
1196.00,0.0112
1195.00,0.0112
1194.00,0.0112
1193.00,0.0111
1192.00,0.0111
1191.00,0.0111
1190.00,0.0110
1189.00,0.0110
1188.00,0.0109
1187.00,0.0109
1186.00,0.0110
1185.00,0.0111
1184.00,0.0112
1183.00,0.0114
1182.00,0.0116
1181.00,0.0118
1180.00,0.0122
1179.00,0.0127
1178.00,0.0133
1177.00,0.0141
1176.00,0.0151
1175.00,0.0164
1174.00,0.0182
1173.00,0.0204
1172.00,0.0230
1171.00,0.0259
1170.00,0.0285
1169.00,0.0306
1168.00,0.0318
1167.00,0.0320
1166.00,0.0313
1165.00,0.0302
1164.00,0.0289
1163.00,0.0277
1162.00,0.0267
1161.00,0.0259
1160.00,0.0253
1159.00,0.0250
1158.00,0.0247
1157.00,0.0246
1156.00,0.0245
1155.00,0.0246
1154.00,0.0247
1153.00,0.0247
1152.00,0.0244
1151.00,0.0239
1150.00,0.0231
1149.00,0.0223
1148.00,0.0214
1147.00,0.0206
1146.00,0.0199
1145.00,0.0193
1144.00,0.0186
1143.00,0.0181
1142.00,0.0175
1141.00,0.0170
1140.00,0.0165
1139.00,0.0161
1138.00,0.0158
1137.00,0.0155
1136.00,0.0152
1135.00,0.0149
1134.00,0.0148
1133.00,0.0147
1132.00,0.0147
1131.00,0.0148
1130.00,0.0149
1129.00,0.0151
1128.00,0.0152
1127.00,0.0155
1126.00,0.0157
1125.00,0.0160
1124.00,0.0163
1123.00,0.0165
1122.00,0.0168
1121.00,0.0170
1120.00,0.0171
1119.00,0.0172
1118.00,0.0173
1117.00,0.0175
1116.00,0.0176
1115.00,0.0178
1114.00,0.0179
1113.00,0.0181
1112.00,0.0182
1111.00,0.0183
1110.00,0.0184
1109.00,0.0186
1108.00,0.0188
1107.00,0.0193
1106.00,0.0198
1105.00,0.0203
1104.00,0.0208
1103.00,0.0210
1102.00,0.0209
1101.00,0.0204
1100.00,0.0198
1099.00,0.0191
1098.00,0.0185
1097.00,0.0180
1096.00,0.0176
1095.00,0.0173
1094.00,0.0170
1093.00,0.0166
1092.00,0.0162
1091.00,0.0159
1090.00,0.0156
1089.00,0.0154
1088.00,0.0153
1087.00,0.0151
1086.00,0.0150
1085.00,0.0148
1084.00,0.0146
1083.00,0.0144
1082.00,0.0142
1081.00,0.0140
1080.00,0.0138
1079.00,0.0136
1078.00,0.0134
1077.00,0.0132
1076.00,0.0131
1075.00,0.0129
1074.00,0.0128
1073.00,0.0127
1072.00,0.0125
1071.00,0.0124
1070.00,0.0123
1069.00,0.0122
1068.00,0.0121
1067.00,0.0121
1066.00,0.0121
1065.00,0.0120
1064.00,0.0119
1063.00,0.0119
1062.00,0.0119
1061.00,0.0119
1060.00,0.0119
1059.00,0.0119
1058.00,0.0118
1057.00,0.0117
1056.00,0.0117
1055.00,0.0117
1054.00,0.0118
1053.00,0.0118
1052.00,0.0119
1051.00,0.0121
1050.00,0.0123
1049.00,0.0126
1048.00,0.0129
1047.00,0.0132
1046.00,0.0135
1045.00,0.0137
1044.00,0.0136
1043.00,0.0135
1042.00,0.0133
1041.00,0.0132
1040.00,0.0132
1039.00,0.0132
1038.00,0.0132
1037.00,0.0132
1036.00,0.0132
1035.00,0.0132
1034.00,0.0131
1033.00,0.0130
1032.00,0.0128
1031.00,0.0126
1030.00,0.0124
1029.00,0.0122
1028.00,0.0121
1027.00,0.0119
1026.00,0.0118
1025.00,0.0117
1024.00,0.0116
1023.00,0.0116
1022.00,0.0117
1021.00,0.0117
1020.00,0.0118
1019.00,0.0118
1018.00,0.0119
1017.00,0.0120
1016.00,0.0122
1015.00,0.0125
1014.00,0.0127
1013.00,0.0130
1012.00,0.0133
1011.00,0.0134
1010.00,0.0136
1009.00,0.0137
1008.00,0.0139
1007.00,0.0143
1006.00,0.0150
1005.00,0.0160
1004.00,0.0174
1003.00,0.0194
1002.00,0.0221
1001.00,0.0252
1000.00,0.0285
999.00,0.0312
998.00,0.0325
997.00,0.0318
996.00,0.0293
995.00,0.0259
994.00,0.0224
993.00,0.0193
992.00,0.0171
991.00,0.0155
990.00,0.0144
989.00,0.0136
988.00,0.0131
987.00,0.0128
986.00,0.0128
985.00,0.0129
984.00,0.0133
983.00,0.0140
982.00,0.0150
981.00,0.0165
980.00,0.0185
979.00,0.0214
978.00,0.0249
977.00,0.0290
976.00,0.0331
975.00,0.0368
974.00,0.0392
973.00,0.0396
972.00,0.0378
971.00,0.0341
970.00,0.0296
969.00,0.0251
968.00,0.0214
967.00,0.0185
966.00,0.0165
965.00,0.0150
964.00,0.0138
963.00,0.0129
962.00,0.0122
961.00,0.0117
960.00,0.0114
959.00,0.0112
958.00,0.0110
957.00,0.0108
956.00,0.0105
955.00,0.0103
954.00,0.0101
953.00,0.0099
952.00,0.0099
951.00,0.0098
950.00,0.0097
949.00,0.0096
948.00,0.0096
947.00,0.0097
946.00,0.0098
945.00,0.0101
944.00,0.0105
943.00,0.0109
942.00,0.0113
941.00,0.0115
940.00,0.0115
939.00,0.0113
938.00,0.0109
937.00,0.0104
936.00,0.0099
935.00,0.0094
934.00,0.0089
933.00,0.0086
932.00,0.0084
931.00,0.0083
930.00,0.0083
929.00,0.0083
928.00,0.0082
927.00,0.0082
926.00,0.0082
925.00,0.0082
924.00,0.0081
923.00,0.0081
922.00,0.0081
921.00,0.0081
920.00,0.0080
919.00,0.0080
918.00,0.0080
917.00,0.0080
916.00,0.0081
915.00,0.0082
914.00,0.0083
913.00,0.0085
912.00,0.0086
911.00,0.0088
910.00,0.0089
909.00,0.0091
908.00,0.0094
907.00,0.0100
906.00,0.0108
905.00,0.0119
904.00,0.0134
903.00,0.0152
902.00,0.0171
901.00,0.0188
900.00,0.0199
899.00,0.0201
898.00,0.0193
897.00,0.0178
896.00,0.0160
895.00,0.0144
894.00,0.0130
893.00,0.0119
892.00,0.0110
891.00,0.0103
890.00,0.0098
889.00,0.0096
888.00,0.0094
887.00,0.0094
886.00,0.0095
885.00,0.0095
884.00,0.0095
883.00,0.0096
882.00,0.0097
881.00,0.0098
880.00,0.0100
879.00,0.0102
878.00,0.0104
877.00,0.0105
876.00,0.0105
875.00,0.0104
874.00,0.0103
873.00,0.0101
872.00,0.0101
871.00,0.0100
870.00,0.0099
869.00,0.0098
868.00,0.0097
867.00,0.0097
866.00,0.0098
865.00,0.0098
864.00,0.0098
863.00,0.0097
862.00,0.0097
861.00,0.0098
860.00,0.0099
859.00,0.0100
858.00,0.0102
857.00,0.0104
856.00,0.0106
855.00,0.0108
854.00,0.0110
853.00,0.0112
852.00,0.0114
851.00,0.0118
850.00,0.0124
849.00,0.0131
848.00,0.0139
847.00,0.0151
846.00,0.0168
845.00,0.0196
844.00,0.0234
843.00,0.0276
842.00,0.0305
841.00,0.0310
840.00,0.0286
839.00,0.0246
838.00,0.0206
837.00,0.0175
836.00,0.0156
835.00,0.0144
834.00,0.0137
833.00,0.0132
832.00,0.0128
831.00,0.0127
830.00,0.0126
829.00,0.0125
828.00,0.0124
827.00,0.0122
826.00,0.0120
825.00,0.0118
824.00,0.0117
823.00,0.0118
822.00,0.0119
821.00,0.0120
820.00,0.0122
819.00,0.0124
818.00,0.0127
817.00,0.0131
816.00,0.0139
815.00,0.0150
814.00,0.0165
813.00,0.0183
812.00,0.0202
811.00,0.0218
810.00,0.0230
809.00,0.0236
808.00,0.0233
807.00,0.0223
806.00,0.0208
805.00,0.0190
804.00,0.0172
803.00,0.0157
802.00,0.0146
801.00,0.0137
800.00,0.0131
799.00,0.0126
798.00,0.0122
797.00,0.0119
796.00,0.0116
795.00,0.0114
794.00,0.0112
793.00,0.0111
792.00,0.0110
791.00,0.0108
790.00,0.0105
789.00,0.0102
788.00,0.0098
787.00,0.0094
786.00,0.0092
785.00,0.0090
784.00,0.0089
783.00,0.0088
782.00,0.0087
781.00,0.0087
780.00,0.0087
779.00,0.0087
778.00,0.0087
777.00,0.0087
776.00,0.0085
775.00,0.0084
774.00,0.0083
773.00,0.0083
772.00,0.0083
771.00,0.0084
770.00,0.0086
769.00,0.0087
768.00,0.0088
767.00,0.0088
766.00,0.0088
765.00,0.0087
764.00,0.0087
763.00,0.0088
762.00,0.0088
761.00,0.0089
760.00,0.0089
759.00,0.0089
758.00,0.0090
757.00,0.0091
756.00,0.0092
755.00,0.0093
754.00,0.0093
753.00,0.0094
752.00,0.0095
751.00,0.0096
750.00,0.0097
749.00,0.0098
748.00,0.0099
747.00,0.0101
746.00,0.0103
745.00,0.0104
744.00,0.0106
743.00,0.0108
742.00,0.0112
741.00,0.0117
740.00,0.0122
739.00,0.0127
738.00,0.0131
737.00,0.0135
736.00,0.0139
735.00,0.0143
734.00,0.0147
733.00,0.0152
732.00,0.0159
731.00,0.0166
730.00,0.0173
729.00,0.0177
728.00,0.0178
727.00,0.0178
726.00,0.0178
725.00,0.0180
724.00,0.0183
723.00,0.0189
722.00,0.0196
721.00,0.0200
720.00,0.0199
719.00,0.0192
718.00,0.0179
717.00,0.0165
716.00,0.0152
715.00,0.0141
714.00,0.0134
713.00,0.0129
712.00,0.0127
711.00,0.0126
710.00,0.0126
709.00,0.0127
708.00,0.0127
707.00,0.0127
706.00,0.0126
705.00,0.0124
704.00,0.0121
703.00,0.0118
702.00,0.0114
701.00,0.0111
700.00,0.0108
699.00,0.0104
698.00,0.0100
697.00,0.0097
696.00,0.0096
695.00,0.0096
694.00,0.0097
693.00,0.0098
692.00,0.0099
691.00,0.0098
690.00,0.0097
689.00,0.0095
688.00,0.0093
687.00,0.0092
686.00,0.0091
685.00,0.0093
684.00,0.0096
683.00,0.0098
682.00,0.0099
681.00,0.0098
680.00,0.0096
679.00,0.0095
678.00,0.0095
677.00,0.0097
676.00,0.0100
675.00,0.0103
674.00,0.0105
673.00,0.0104
672.00,0.0103
671.00,0.0100
670.00,0.0098
669.00,0.0096
668.00,0.0095
667.00,0.0096
666.00,0.0098
665.00,0.0099
664.00,0.0100
663.00,0.0100
662.00,0.0100
661.00,0.0098
660.00,0.0096
659.00,0.0094
658.00,0.0094
657.00,0.0096
656.00,0.0098
655.00,0.0100
654.00,0.0099
653.00,0.0096
652.00,0.0093
651.00,0.0092
650.00,0.0094
649.00,0.0097
648.00,0.0100
647.00,0.0100
646.00,0.0098
645.00,0.0097
644.00,0.0097
643.00,0.0099
642.00,0.0101
641.00,0.0102
640.00,0.0102
639.00,0.0103
638.00,0.0104
637.00,0.0105
636.00,0.0106
635.00,0.0104
634.00,0.0101
633.00,0.0100
632.00,0.0100
631.00,0.0101
630.00,0.0103
629.00,0.0104
628.00,0.0103
627.00,0.0102
626.00,0.0101
625.00,0.0100
624.00,0.0101
623.00,0.0102
622.00,0.0103
621.00,0.0103
620.00,0.0103
619.00,0.0103
618.00,0.0104
617.00,0.0105
616.00,0.0106
615.00,0.0105
614.00,0.0103
613.00,0.0102
612.00,0.0101
611.00,0.0101
610.00,0.0101
609.00,0.0101
608.00,0.0101
607.00,0.0103
606.00,0.0105
605.00,0.0106
604.00,0.0105
603.00,0.0102
602.00,0.0099
601.00,0.0098
600.00,0.0098
599.00,0.0098
598.00,0.0098
597.00,0.0100
596.00,0.0104
595.00,0.0108
594.00,0.0110
593.00,0.0108
592.00,0.0105
591.00,0.0101
590.00,0.0099
589.00,0.0099
588.00,0.0101
587.00,0.0104
586.00,0.0106
585.00,0.0106
584.00,0.0105
583.00,0.0105
582.00,0.0105
581.00,0.0107
580.00,0.0110
579.00,0.0111
578.00,0.0110
577.00,0.0107
576.00,0.0103
575.00,0.0100
574.00,0.0099
573.00,0.0099
572.00,0.0101
571.00,0.0103
570.00,0.0104
569.00,0.0105
568.00,0.0106
567.00,0.0108
566.00,0.0108
565.00,0.0107
564.00,0.0104
563.00,0.0103
562.00,0.0103
561.00,0.0106
560.00,0.0108
559.00,0.0109
558.00,0.0107
557.00,0.0104
556.00,0.0101
555.00,0.0100
554.00,0.0100
553.00,0.0100
552.00,0.0100
551.00,0.0101
550.00,0.0103
549.00,0.0107
548.00,0.0110
547.00,0.0109
546.00,0.0106
545.00,0.0101
544.00,0.0099
543.00,0.0101
542.00,0.0102
541.00,0.0101
540.00,0.0097
539.00,0.0093
538.00,0.0093
537.00,0.0097
536.00,0.0103
535.00,0.0109
534.00,0.0113
533.00,0.0116
532.00,0.0118
531.00,0.0119
530.00,0.0119
529.00,0.0115
528.00,0.0111
527.00,0.0109
526.00,0.0112
525.00,0.0117
524.00,0.0119
523.00,0.0118
522.00,0.0114
521.00,0.0109
520.00,0.0104
519.00,0.0100
518.00,0.0099
517.00,0.0099
516.00,0.0102
515.00,0.0107
514.00,0.0115
513.00,0.0121
512.00,0.0124
511.00,0.0124
510.00,0.0120
509.00,0.0114
508.00,0.0106
507.00,0.0099
506.00,0.0095
505.00,0.0095
504.00,0.0094
503.00,0.0092
502.00,0.0091
501.00,0.0093
500.00,0.0096
499.00,0.0096
498.00,0.0091
497.00,0.0085
496.00,0.0081
495.00,0.0079
494.00,0.0081
493.00,0.0084
492.00,0.0088
491.00,0.0090
490.00,0.0090
489.00,0.0091
488.00,0.0094
487.00,0.0100
486.00,0.0106
485.00,0.0108
484.00,0.0107
483.00,0.0105
482.00,0.0106
481.00,0.0108
480.00,0.0108
479.00,0.0105
478.00,0.0101
477.00,0.0097
476.00,0.0099
475.00,0.0108
474.00,0.0125
473.00,0.0142
472.00,0.0150
471.00,0.0145
470.00,0.0133
469.00,0.0124
468.00,0.0122
467.00,0.0124
466.00,0.0125
465.00,0.0124
464.00,0.0126
463.00,0.0135
462.00,0.0152
461.00,0.0175
460.00,0.0197
459.00,0.0207
458.00,0.0195
457.00,0.0169
456.00,0.0148
455.00,0.0143
454.00,0.0146
453.00,0.0149
452.00,0.0148
451.00,0.0147
450.00,0.0149
