Created as New Dataset,Sample 007 By Administrator Date Friday, September 05 2025
cm-1,A
4000.00,0.0015
3999.00,0.0015
3998.00,0.0015
3997.00,0.0014
3996.00,0.0014
3995.00,0.0014
3994.00,0.0014
3993.00,0.0015
3992.00,0.0015
3991.00,0.0015
3990.00,0.0015
3989.00,0.0015
3988.00,0.0015
3987.00,0.0014
3986.00,0.0014
3985.00,0.0014
3984.00,0.0014
3983.00,0.0014
3982.00,0.0014
3981.00,0.0014
3980.00,0.0013
3979.00,0.0013
3978.00,0.0013
3977.00,0.0013
3976.00,0.0013
3975.00,0.0013
3974.00,0.0013
3973.00,0.0013
3972.00,0.0013
3971.00,0.0013
3970.00,0.0013
3969.00,0.0013
3968.00,0.0013
3967.00,0.0013
3966.00,0.0013
3965.00,0.0013
3964.00,0.0013
3963.00,0.0013
3962.00,0.0013
3961.00,0.0013
3960.00,0.0013
3959.00,0.0013
3958.00,0.0012
3957.00,0.0013
3956.00,0.0013
3955.00,0.0013
3954.00,0.0013
3953.00,0.0013
3952.00,0.0013
3951.00,0.0012
3950.00,0.0012
3949.00,0.0012
3948.00,0.0012
3947.00,0.0013
3946.00,0.0013
3945.00,0.0013
3944.00,0.0013
3943.00,0.0013
3942.00,0.0013
3941.00,0.0013
3940.00,0.0013
3939.00,0.0013
3938.00,0.0013
3937.00,0.0013
3936.00,0.0013
3935.00,0.0013
3934.00,0.0014
3933.00,0.0014
3932.00,0.0014
3931.00,0.0014
3930.00,0.0014
3929.00,0.0014
3928.00,0.0014
3927.00,0.0013
3926.00,0.0013
3925.00,0.0013
3924.00,0.0013
3923.00,0.0013
3922.00,0.0014
3921.00,0.0014
3920.00,0.0014
3919.00,0.0014
3918.00,0.0014
3917.00,0.0013
3916.00,0.0014
3915.00,0.0014
3914.00,0.0014
3913.00,0.0014
3912.00,0.0015
3911.00,0.0015
3910.00,0.0014
3909.00,0.0014
3908.00,0.0014
3907.00,0.0013
3906.00,0.0013
3905.00,0.0013
3904.00,0.0013
3903.00,0.0013
3902.00,0.0014
3901.00,0.0014
3900.00,0.0014
3899.00,0.0015
3898.00,0.0015
3897.00,0.0016
3896.00,0.0016
3895.00,0.0015
3894.00,0.0015
3893.00,0.0015
3892.00,0.0014
3891.00,0.0014
3890.00,0.0014
3889.00,0.0014
3888.00,0.0015
3887.00,0.0015
3886.00,0.0015
3885.00,0.0014
3884.00,0.0014
3883.00,0.0014
3882.00,0.0014
3881.00,0.0014
3880.00,0.0014
3879.00,0.0014
3878.00,0.0014
3877.00,0.0014
3876.00,0.0014
3875.00,0.0013
3874.00,0.0013
3873.00,0.0013
3872.00,0.0013
3871.00,0.0013
3870.00,0.0014
3869.00,0.0015
3868.00,0.0015
3867.00,0.0015
3866.00,0.0016
3865.00,0.0015
3864.00,0.0015
3863.00,0.0015
3862.00,0.0014
3861.00,0.0014
3860.00,0.0014
3859.00,0.0014
3858.00,0.0013
3857.00,0.0013
3856.00,0.0013
3855.00,0.0014
3854.00,0.0015
3853.00,0.0015
3852.00,0.0015
3851.00,0.0015
3850.00,0.0015
3849.00,0.0015
3848.00,0.0015
3847.00,0.0015
3846.00,0.0014
3845.00,0.0014
3844.00,0.0014
3843.00,0.0014
3842.00,0.0014
3841.00,0.0014
3840.00,0.0014
3839.00,0.0014
3838.00,0.0014
3837.00,0.0014
3836.00,0.0014
3835.00,0.0015
3834.00,0.0015
3833.00,0.0015
3832.00,0.0015
3831.00,0.0015
3830.00,0.0016
3829.00,0.0016
3828.00,0.0016
3827.00,0.0016
3826.00,0.0015
3825.00,0.0015
3824.00,0.0015
3823.00,0.0016
3822.00,0.0015
3821.00,0.0015
3820.00,0.0014
3819.00,0.0014
3818.00,0.0013
3817.00,0.0014
3816.00,0.0014
3815.00,0.0015
3814.00,0.0015
3813.00,0.0015
3812.00,0.0015
3811.00,0.0015
3810.00,0.0015
3809.00,0.0016
3808.00,0.0016
3807.00,0.0015
3806.00,0.0015
3805.00,0.0015
3804.00,0.0015
3803.00,0.0015
3802.00,0.0015
3801.00,0.0014
3800.00,0.0014
3799.00,0.0014
3798.00,0.0014
3797.00,0.0014
3796.00,0.0014
3795.00,0.0014
3794.00,0.0014
3793.00,0.0014
3792.00,0.0014
3791.00,0.0014
3790.00,0.0014
3789.00,0.0014
3788.00,0.0014
3787.00,0.0014
3786.00,0.0013
3785.00,0.0013
3784.00,0.0013
3783.00,0.0013
3782.00,0.0013
3781.00,0.0013
3780.00,0.0013
3779.00,0.0012
3778.00,0.0013
3777.00,0.0013
3776.00,0.0013
3775.00,0.0013
3774.00,0.0013
3773.00,0.0013
3772.00,0.0013
3771.00,0.0013
3770.00,0.0013
3769.00,0.0013
3768.00,0.0013
3767.00,0.0013
3766.00,0.0013
3765.00,0.0013
3764.00,0.0014
3763.00,0.0014
3762.00,0.0014
3761.00,0.0014
3760.00,0.0014
3759.00,0.0013
3758.00,0.0013
3757.00,0.0012
3756.00,0.0011
3755.00,0.0011
3754.00,0.0010
3753.00,0.0010
3752.00,0.0010
3751.00,0.0010
3750.00,0.0010
3749.00,0.0011
3748.00,0.0011
3747.00,0.0011
3746.00,0.0012
3745.00,0.0012
3744.00,0.0011
3743.00,0.0011
3742.00,0.0011
3741.00,0.0011
3740.00,0.0011
3739.00,0.0012
3738.00,0.0012
3737.00,0.0012
3736.00,0.0012
3735.00,0.0012
3734.00,0.0012
3733.00,0.0012
3732.00,0.0012
3731.00,0.0012
3730.00,0.0012
3729.00,0.0012
3728.00,0.0012
3727.00,0.0012
3726.00,0.0013
3725.00,0.0013
3724.00,0.0013
3723.00,0.0014
3722.00,0.0014
3721.00,0.0014
3720.00,0.0013
3719.00,0.0013
3718.00,0.0013
3717.00,0.0013
3716.00,0.0013
3715.00,0.0013
3714.00,0.0013
3713.00,0.0013
3712.00,0.0013
3711.00,0.0012
3710.00,0.0012
3709.00,0.0012
3708.00,0.0012
3707.00,0.0012
3706.00,0.0013
3705.00,0.0014
3704.00,0.0015
3703.00,0.0015
3702.00,0.0015
3701.00,0.0015
3700.00,0.0016
3699.00,0.0016
3698.00,0.0016
3697.00,0.0016
3696.00,0.0017
3695.00,0.0017
3694.00,0.0018
3693.00,0.0019
3692.00,0.0020
3691.00,0.0022
3690.00,0.0024
3689.00,0.0026
3688.00,0.0028
3687.00,0.0031
3686.00,0.0034
3685.00,0.0038
3684.00,0.0042
3683.00,0.0047
3682.00,0.0051
3681.00,0.0056
3680.00,0.0060
3679.00,0.0064
3678.00,0.0069
3677.00,0.0074
3676.00,0.0081
3675.00,0.0086
3674.00,0.0090
3673.00,0.0092
3672.00,0.0094
3671.00,0.0096
3670.00,0.0098
3669.00,0.0100
3668.00,0.0101
3667.00,0.0103
3666.00,0.0105
3665.00,0.0107
3664.00,0.0109
3663.00,0.0112
3662.00,0.0113
3661.00,0.0114
3660.00,0.0115
3659.00,0.0115
3658.00,0.0115
3657.00,0.0114
3656.00,0.0113
3655.00,0.0112
3654.00,0.0111
3653.00,0.0110
3652.00,0.0110
3651.00,0.0109
3650.00,0.0108
3649.00,0.0107
3648.00,0.0105
3647.00,0.0103
3646.00,0.0101
3645.00,0.0099
3644.00,0.0096
3643.00,0.0093
3642.00,0.0090
3641.00,0.0088
3640.00,0.0087
3639.00,0.0088
3638.00,0.0088
3637.00,0.0086
3636.00,0.0080
3635.00,0.0071
3634.00,0.0062
3633.00,0.0054
3632.00,0.0050
3631.00,0.0047
3630.00,0.0045
3629.00,0.0042
3628.00,0.0040
3627.00,0.0039
3626.00,0.0039
3625.00,0.0038
3624.00,0.0038
3623.00,0.0037
3622.00,0.0036
3621.00,0.0035
3620.00,0.0033
3619.00,0.0032
3618.00,0.0032
3617.00,0.0031
3616.00,0.0031
3615.00,0.0031
3614.00,0.0031
3613.00,0.0031
3612.00,0.0030
3611.00,0.0030
3610.00,0.0030
3609.00,0.0030
3608.00,0.0030
3607.00,0.0030
3606.00,0.0030
3605.00,0.0030
3604.00,0.0030
3603.00,0.0031
3602.00,0.0031
3601.00,0.0030
3600.00,0.0030
3599.00,0.0030
3598.00,0.0030
3597.00,0.0030
3596.00,0.0031
3595.00,0.0031
3594.00,0.0031
3593.00,0.0031
3592.00,0.0031
3591.00,0.0032
3590.00,0.0033
3589.00,0.0034
3588.00,0.0034
3587.00,0.0035
3586.00,0.0035
3585.00,0.0035
3584.00,0.0035
3583.00,0.0035
3582.00,0.0036
3581.00,0.0036
3580.00,0.0037
3579.00,0.0037
3578.00,0.0038
3577.00,0.0038
3576.00,0.0038
3575.00,0.0039
3574.00,0.0039
3573.00,0.0040
3572.00,0.0040
3571.00,0.0041
3570.00,0.0041
3569.00,0.0042
3568.00,0.0042
3567.00,0.0042
3566.00,0.0042
3565.00,0.0043
3564.00,0.0044
3563.00,0.0044
3562.00,0.0045
3561.00,0.0045
3560.00,0.0046
3559.00,0.0046
3558.00,0.0047
3557.00,0.0048
3556.00,0.0048
3555.00,0.0049
3554.00,0.0049
3553.00,0.0049
3552.00,0.0050
3551.00,0.0050
3550.00,0.0051
3549.00,0.0052
3548.00,0.0053
3547.00,0.0053
3546.00,0.0054
3545.00,0.0054
3544.00,0.0055
3543.00,0.0055
3542.00,0.0056
3541.00,0.0057
3540.00,0.0057
3539.00,0.0058
3538.00,0.0058
3537.00,0.0058
3536.00,0.0058
3535.00,0.0058
3534.00,0.0059
3533.00,0.0060
3532.00,0.0061
3531.00,0.0062
3530.00,0.0062
3529.00,0.0062
3528.00,0.0062
3527.00,0.0063
3526.00,0.0063
3525.00,0.0064
3524.00,0.0065
3523.00,0.0065
3522.00,0.0066
3521.00,0.0067
3520.00,0.0067
3519.00,0.0068
3518.00,0.0069
3517.00,0.0069
3516.00,0.0070
3515.00,0.0070
3514.00,0.0071
3513.00,0.0072
3512.00,0.0073
3511.00,0.0074
3510.00,0.0075
3509.00,0.0075
3508.00,0.0076
3507.00,0.0076
3506.00,0.0077
3505.00,0.0077
3504.00,0.0078
3503.00,0.0078
3502.00,0.0079
3501.00,0.0080
3500.00,0.0081
3499.00,0.0082
3498.00,0.0082
3497.00,0.0083
3496.00,0.0083
3495.00,0.0084
3494.00,0.0084
3493.00,0.0085
3492.00,0.0085
3491.00,0.0086
3490.00,0.0086
3489.00,0.0087
3488.00,0.0088
3487.00,0.0089
3486.00,0.0090
3485.00,0.0091
3484.00,0.0091
3483.00,0.0092
3482.00,0.0092
3481.00,0.0092
3480.00,0.0092
3479.00,0.0093
3478.00,0.0094
3477.00,0.0095
3476.00,0.0095
3475.00,0.0096
3474.00,0.0096
3473.00,0.0097
3472.00,0.0098
3471.00,0.0099
3470.00,0.0100
3469.00,0.0100
3468.00,0.0101
3467.00,0.0101
3466.00,0.0101
3465.00,0.0102
3464.00,0.0102
3463.00,0.0102
3462.00,0.0103
3461.00,0.0103
3460.00,0.0104
3459.00,0.0104
3458.00,0.0105
3457.00,0.0105
3456.00,0.0106
3455.00,0.0106
3454.00,0.0106
3453.00,0.0107
3452.00,0.0108
3451.00,0.0109
3450.00,0.0109
3449.00,0.0110
3448.00,0.0110
3447.00,0.0111
3446.00,0.0111
3445.00,0.0111
3444.00,0.0111
3443.00,0.0112
3442.00,0.0112
3441.00,0.0113
3440.00,0.0113
3439.00,0.0114
3438.00,0.0114
3437.00,0.0115
3436.00,0.0115
3435.00,0.0116
3434.00,0.0116
3433.00,0.0116
3432.00,0.0116
3431.00,0.0117
3430.00,0.0117
3429.00,0.0117
3428.00,0.0118
3427.00,0.0118
3426.00,0.0119
3425.00,0.0119
3424.00,0.0120
3423.00,0.0121
3422.00,0.0121
3421.00,0.0121
3420.00,0.0121
3419.00,0.0121
3418.00,0.0121
3417.00,0.0121
3416.00,0.0121
3415.00,0.0122
3414.00,0.0122
3413.00,0.0123
3412.00,0.0123
3411.00,0.0123
3410.00,0.0123
3409.00,0.0123
3408.00,0.0123
3407.00,0.0123
3406.00,0.0124
3405.00,0.0124
3404.00,0.0125
3403.00,0.0125
3402.00,0.0126
3401.00,0.0126
3400.00,0.0126
3399.00,0.0126
3398.00,0.0126
3397.00,0.0126
3396.00,0.0126
3395.00,0.0126
3394.00,0.0126
3393.00,0.0126
3392.00,0.0126
3391.00,0.0126
3390.00,0.0126
3389.00,0.0126
3388.00,0.0127
3387.00,0.0127
3386.00,0.0127
3385.00,0.0127
3384.00,0.0127
3383.00,0.0126
3382.00,0.0126
3381.00,0.0126
3380.00,0.0127
3379.00,0.0127
3378.00,0.0127
3377.00,0.0127
3376.00,0.0127
3375.00,0.0127
3374.00,0.0128
3373.00,0.0128
3372.00,0.0128
3371.00,0.0128
3370.00,0.0128
3369.00,0.0128
3368.00,0.0128
3367.00,0.0128
3366.00,0.0128
3365.00,0.0128
3364.00,0.0128
3363.00,0.0128
3362.00,0.0128
3361.00,0.0128
3360.00,0.0128
3359.00,0.0128
3358.00,0.0128
3357.00,0.0128
3356.00,0.0128
3355.00,0.0128
3354.00,0.0128
3353.00,0.0129
3352.00,0.0129
3351.00,0.0129
3350.00,0.0129
3349.00,0.0128
3348.00,0.0128
3347.00,0.0128
3346.00,0.0128
3345.00,0.0128
3344.00,0.0128
3343.00,0.0128
3342.00,0.0127
3341.00,0.0127
3340.00,0.0127
3339.00,0.0127
3338.00,0.0126
3337.00,0.0126
3336.00,0.0126
3335.00,0.0126
3334.00,0.0126
3333.00,0.0126
3332.00,0.0126
3331.00,0.0125
3330.00,0.0125
3329.00,0.0124
3328.00,0.0124
3327.00,0.0123
3326.00,0.0123
3325.00,0.0123
3324.00,0.0123
3323.00,0.0123
3322.00,0.0122
3321.00,0.0122
3320.00,0.0121
3319.00,0.0121
3318.00,0.0121
3317.00,0.0121
3316.00,0.0121
3315.00,0.0121
3314.00,0.0121
3313.00,0.0120
3312.00,0.0120
3311.00,0.0120
3310.00,0.0119
3309.00,0.0119
3308.00,0.0119
3307.00,0.0119
3306.00,0.0119
3305.00,0.0118
3304.00,0.0118
3303.00,0.0118
3302.00,0.0118
3301.00,0.0118
3300.00,0.0117
3299.00,0.0117
3298.00,0.0116
3297.00,0.0116
3296.00,0.0115
3295.00,0.0115
3294.00,0.0114
3293.00,0.0114
3292.00,0.0114
3291.00,0.0113
3290.00,0.0113
3289.00,0.0113
3288.00,0.0113
3287.00,0.0112
3286.00,0.0111
3285.00,0.0111
3284.00,0.0111
3283.00,0.0111
3282.00,0.0111
3281.00,0.0111
3280.00,0.0110
3279.00,0.0109
3278.00,0.0109
3277.00,0.0108
3276.00,0.0108
3275.00,0.0108
3274.00,0.0108
3273.00,0.0107
3272.00,0.0107
3271.00,0.0106
3270.00,0.0106
3269.00,0.0106
3268.00,0.0106
3267.00,0.0106
3266.00,0.0106
3265.00,0.0106
3264.00,0.0106
3263.00,0.0105
3262.00,0.0105
3261.00,0.0104
3260.00,0.0104
3259.00,0.0103
3258.00,0.0103
3257.00,0.0103
3256.00,0.0103
3255.00,0.0102
3254.00,0.0102
3253.00,0.0102
3252.00,0.0103
3251.00,0.0103
3250.00,0.0102
3249.00,0.0102
3248.00,0.0101
3247.00,0.0100
3246.00,0.0100
3245.00,0.0100
3244.00,0.0100
3243.00,0.0100
3242.00,0.0100
3241.00,0.0100
3240.00,0.0100
3239.00,0.0099
3238.00,0.0099
3237.00,0.0099
3236.00,0.0099
3235.00,0.0099
3234.00,0.0099
3233.00,0.0099
3232.00,0.0099
3231.00,0.0099
3230.00,0.0099
3229.00,0.0099
3228.00,0.0099
3227.00,0.0100
3226.00,0.0100
3225.00,0.0100
3224.00,0.0100
3223.00,0.0099
3222.00,0.0099
3221.00,0.0100
3220.00,0.0100
3219.00,0.0100
3218.00,0.0100
3217.00,0.0100
3216.00,0.0100
3215.00,0.0101
3214.00,0.0101
3213.00,0.0101
3212.00,0.0101
3211.00,0.0101
3210.00,0.0101
3209.00,0.0101
3208.00,0.0101
3207.00,0.0101
3206.00,0.0101
3205.00,0.0101
3204.00,0.0101
3203.00,0.0101
3202.00,0.0101
3201.00,0.0100
3200.00,0.0100
3199.00,0.0100
3198.00,0.0100
3197.00,0.0100
3196.00,0.0099
3195.00,0.0099
3194.00,0.0099
3193.00,0.0099
3192.00,0.0099
3191.00,0.0099
3190.00,0.0099
3189.00,0.0099
3188.00,0.0099
3187.00,0.0098
3186.00,0.0097
3185.00,0.0097
3184.00,0.0097
3183.00,0.0096
3182.00,0.0096
3181.00,0.0095
3180.00,0.0095
3179.00,0.0095
3178.00,0.0094
3177.00,0.0094
3176.00,0.0093
3175.00,0.0092
3174.00,0.0091
3173.00,0.0091
3172.00,0.0090
3171.00,0.0090
3170.00,0.0089
3169.00,0.0089
3168.00,0.0088
3167.00,0.0087
3166.00,0.0087
3165.00,0.0087
3164.00,0.0086
3163.00,0.0086
3162.00,0.0085
3161.00,0.0084
3160.00,0.0084
3159.00,0.0084
3158.00,0.0083
3157.00,0.0083
3156.00,0.0082
3155.00,0.0082
3154.00,0.0081
3153.00,0.0081
3152.00,0.0081
3151.00,0.0081
3150.00,0.0081
3149.00,0.0081
3148.00,0.0080
3147.00,0.0079
3146.00,0.0079
3145.00,0.0078
3144.00,0.0078
3143.00,0.0077
3142.00,0.0077
3141.00,0.0077
3140.00,0.0076
3139.00,0.0076
3138.00,0.0075
3137.00,0.0075
3136.00,0.0075
3135.00,0.0075
3134.00,0.0075
3133.00,0.0074
3132.00,0.0074
3131.00,0.0073
3130.00,0.0072
3129.00,0.0072
3128.00,0.0071
3127.00,0.0071
3126.00,0.0071
3125.00,0.0070
3124.00,0.0070
3123.00,0.0070
3122.00,0.0069
3121.00,0.0069
3120.00,0.0069
3119.00,0.0068
3118.00,0.0068
3117.00,0.0068
3116.00,0.0068
3115.00,0.0067
3114.00,0.0067
3113.00,0.0067
3112.00,0.0066
3111.00,0.0066
3110.00,0.0066
3109.00,0.0066
3108.00,0.0065
3107.00,0.0065
3106.00,0.0065
3105.00,0.0065
3104.00,0.0064
3103.00,0.0064
3102.00,0.0063
3101.00,0.0063
3100.00,0.0063
3099.00,0.0062
3098.00,0.0062
3097.00,0.0062
3096.00,0.0061
3095.00,0.0061
3094.00,0.0061
3093.00,0.0061
3092.00,0.0061
3091.00,0.0061
3090.00,0.0060
3089.00,0.0060
3088.00,0.0060
3087.00,0.0060
3086.00,0.0060
3085.00,0.0060
3084.00,0.0059
3083.00,0.0059
3082.00,0.0058
3081.00,0.0058
3080.00,0.0058
3079.00,0.0058
3078.00,0.0059
3077.00,0.0059
3076.00,0.0059
3075.00,0.0059
3074.00,0.0058
3073.00,0.0058
3072.00,0.0058
3071.00,0.0059
3070.00,0.0059
3069.00,0.0059
3068.00,0.0060
3067.00,0.0060
3066.00,0.0060
3065.00,0.0061
3064.00,0.0061
3063.00,0.0061
3062.00,0.0061
3061.00,0.0061
3060.00,0.0061
3059.00,0.0061
3058.00,0.0060
3057.00,0.0060
3056.00,0.0060
3055.00,0.0060
3054.00,0.0060
3053.00,0.0061
3052.00,0.0061
3051.00,0.0061
3050.00,0.0061
3049.00,0.0061
3048.00,0.0062
3047.00,0.0062
3046.00,0.0063
3045.00,0.0064
3044.00,0.0064
3043.00,0.0065
3042.00,0.0065
3041.00,0.0066
3040.00,0.0066
3039.00,0.0066
3038.00,0.0066
3037.00,0.0067
3036.00,0.0068
3035.00,0.0068
3034.00,0.0069
3033.00,0.0070
3032.00,0.0071
3031.00,0.0071
3030.00,0.0072
3029.00,0.0073
3028.00,0.0075
3027.00,0.0077
3026.00,0.0079
3025.00,0.0082
3024.00,0.0084
3023.00,0.0087
3022.00,0.0091
3021.00,0.0095
3020.00,0.0100
3019.00,0.0106
3018.00,0.0113
3017.00,0.0121
3016.00,0.0131
3015.00,0.0142
3014.00,0.0154
3013.00,0.0169
3012.00,0.0186
3011.00,0.0205
3010.00,0.0226
3009.00,0.0250
3008.00,0.0275
3007.00,0.0302
3006.00,0.0330
3005.00,0.0360
3004.00,0.0391
3003.00,0.0421
3002.00,0.0452
3001.00,0.0481
3000.00,0.0509
2999.00,0.0535
2998.00,0.0559
2997.00,0.0581
2996.00,0.0601
2995.00,0.0620
2994.00,0.0639
2993.00,0.0658
2992.00,0.0676
2991.00,0.0695
2990.00,0.0713
2989.00,0.0734
2988.00,0.0760
2987.00,0.0795
2986.00,0.0849
2985.00,0.0928
2984.00,0.1025
2983.00,0.1121
2982.00,0.1190
2981.00,0.1218
2980.00,0.1209
2979.00,0.1182
2978.00,0.1154
2977.00,0.1136
2976.00,0.1136
2975.00,0.1156
2974.00,0.1195
2973.00,0.1245
2972.00,0.1295
2971.00,0.1334
2970.00,0.1359
2969.00,0.1381
2968.00,0.1408
2967.00,0.1447
2966.00,0.1493
2965.00,0.1541
2964.00,0.1588
2963.00,0.1630
2962.00,0.1667
2961.00,0.1698
2960.00,0.1723
2959.00,0.1747
2958.00,0.1773
2957.00,0.1805
2956.00,0.1846
2955.00,0.1898
2954.00,0.1959
2953.00,0.2025
2952.00,0.2088
2951.00,0.2140
2950.00,0.2168
2949.00,0.2164
2948.00,0.2121
2947.00,0.2039
2946.00,0.1926
2945.00,0.1796
2944.00,0.1666
2943.00,0.1549
2942.00,0.1456
2941.00,0.1389
2940.00,0.1349
2939.00,0.1331
2938.00,0.1333
2937.00,0.1354
2936.00,0.1392
2935.00,0.1447
2934.00,0.1518
2933.00,0.1601
2932.00,0.1694
2931.00,0.1796
2930.00,0.1902
2929.00,0.2011
2928.00,0.2119
2927.00,0.2224
2926.00,0.2325
2925.00,0.2422
2924.00,0.2517
2923.00,0.2610
2922.00,0.2703
2921.00,0.2794
2920.00,0.2877
2919.00,0.2945
2918.00,0.2987
2917.00,0.2994
2916.00,0.2962
2915.00,0.2894
2914.00,0.2799
2913.00,0.2688
2912.00,0.2573
2911.00,0.2462
2910.00,0.2359
2909.00,0.2265
2908.00,0.2178
2907.00,0.2097
2906.00,0.2020
2905.00,0.1944
2904.00,0.1871
2903.00,0.1799
2902.00,0.1730
2901.00,0.1665
2900.00,0.1603
2899.00,0.1545
2898.00,0.1493
2897.00,0.1447
2896.00,0.1409
2895.00,0.1377
2894.00,0.1354
2893.00,0.1338
2892.00,0.1328
2891.00,0.1322
2890.00,0.1319
2889.00,0.1319
2888.00,0.1320
2887.00,0.1325
2886.00,0.1334
2885.00,0.1348
2884.00,0.1364
2883.00,0.1380
2882.00,0.1396
2881.00,0.1414
2880.00,0.1431
2879.00,0.1447
2878.00,0.1458
2877.00,0.1462
2876.00,0.1456
2875.00,0.1446
2874.00,0.1435
2873.00,0.1428
2872.00,0.1428
2871.00,0.1436
2870.00,0.1450
2869.00,0.1467
2868.00,0.1479
2867.00,0.1478
2866.00,0.1457
2865.00,0.1410
2864.00,0.1339
2863.00,0.1252
2862.00,0.1160
2861.00,0.1071
2860.00,0.0994
2859.00,0.0931
2858.00,0.0882
2857.00,0.0846
2856.00,0.0821
2855.00,0.0803
2854.00,0.0792
2853.00,0.0785
2852.00,0.0782
2851.00,0.0782
2850.00,0.0786
2849.00,0.0794
2848.00,0.0806
2847.00,0.0826
2846.00,0.0854
2845.00,0.0891
2844.00,0.0937
2843.00,0.0991
2842.00,0.1050
2841.00,0.1107
2840.00,0.1156
2839.00,0.1188
2838.00,0.1197
2837.00,0.1175
2836.00,0.1122
2835.00,0.1043
2834.00,0.0947
2833.00,0.0845
2832.00,0.0746
2831.00,0.0657
2830.00,0.0581
2829.00,0.0519
2828.00,0.0468
2827.00,0.0427
2826.00,0.0394
2825.00,0.0367
2824.00,0.0344
2823.00,0.0325
2822.00,0.0308
2821.00,0.0294
2820.00,0.0281
2819.00,0.0270
2818.00,0.0260
2817.00,0.0252
2816.00,0.0245
2815.00,0.0238
2814.00,0.0231
2813.00,0.0225
2812.00,0.0219
2811.00,0.0213
2810.00,0.0207
2809.00,0.0201
2808.00,0.0194
2807.00,0.0188
2806.00,0.0181
2805.00,0.0174
2804.00,0.0168
2803.00,0.0162
2802.00,0.0157
2801.00,0.0153
2800.00,0.0149
2799.00,0.0145
2798.00,0.0142
2797.00,0.0139
2796.00,0.0137
2795.00,0.0134
2794.00,0.0132
2793.00,0.0129
2792.00,0.0125
2791.00,0.0122
2790.00,0.0119
2789.00,0.0116
2788.00,0.0113
2787.00,0.0111
2786.00,0.0109
2785.00,0.0106
2784.00,0.0104
2783.00,0.0102
2782.00,0.0099
2781.00,0.0097
2780.00,0.0095
2779.00,0.0093
2778.00,0.0091
2777.00,0.0089
2776.00,0.0088
2775.00,0.0087
2774.00,0.0086
2773.00,0.0086
2772.00,0.0085
2771.00,0.0085
2770.00,0.0085
2769.00,0.0084
2768.00,0.0083
2767.00,0.0083
2766.00,0.0082
2765.00,0.0082
2764.00,0.0081
2763.00,0.0080
2762.00,0.0079
2761.00,0.0078
2760.00,0.0078
2759.00,0.0077
2758.00,0.0076
2757.00,0.0076
2756.00,0.0076
2755.00,0.0075
2754.00,0.0075
2753.00,0.0075
2752.00,0.0075
2751.00,0.0075
2750.00,0.0075
2749.00,0.0075
2748.00,0.0075
2747.00,0.0075
2746.00,0.0075
2745.00,0.0076
2744.00,0.0077
2743.00,0.0078
2742.00,0.0079
2741.00,0.0080
2740.00,0.0081
2739.00,0.0082
2738.00,0.0084
2737.00,0.0085
2736.00,0.0086
2735.00,0.0087
2734.00,0.0089
2733.00,0.0090
2732.00,0.0092
2731.00,0.0094
2730.00,0.0096
2729.00,0.0098
2728.00,0.0100
2727.00,0.0103
2726.00,0.0105
2725.00,0.0107
2724.00,0.0108
2723.00,0.0108
2722.00,0.0107
2721.00,0.0105
2720.00,0.0102
2719.00,0.0099
2718.00,0.0095
2717.00,0.0092
2716.00,0.0088
2715.00,0.0085
2714.00,0.0083
2713.00,0.0080
2712.00,0.0078
2711.00,0.0076
2710.00,0.0074
2709.00,0.0072
2708.00,0.0070
2707.00,0.0069
2706.00,0.0068
2705.00,0.0067
2704.00,0.0066
2703.00,0.0065
2702.00,0.0064
2701.00,0.0063
2700.00,0.0063
2699.00,0.0062
2698.00,0.0062
2697.00,0.0062
2696.00,0.0062
2695.00,0.0061
2694.00,0.0061
2693.00,0.0061
2692.00,0.0061
2691.00,0.0061
2690.00,0.0062
2689.00,0.0062
2688.00,0.0062
2687.00,0.0062
2686.00,0.0063
2685.00,0.0063
2684.00,0.0063
2683.00,0.0064
2682.00,0.0064
2681.00,0.0064
2680.00,0.0065
2679.00,0.0065
2678.00,0.0065
2677.00,0.0066
2676.00,0.0066
2675.00,0.0066
2674.00,0.0066
2673.00,0.0066
2672.00,0.0066
2671.00,0.0067
2670.00,0.0067
2669.00,0.0068
2668.00,0.0069
2667.00,0.0070
2666.00,0.0070
2665.00,0.0070
2664.00,0.0070
2663.00,0.0070
2662.00,0.0070
2661.00,0.0070
2660.00,0.0071
2659.00,0.0070
2658.00,0.0070
2657.00,0.0070
2656.00,0.0069
2655.00,0.0069
2654.00,0.0068
2653.00,0.0067
2652.00,0.0067
2651.00,0.0066
2650.00,0.0065
2649.00,0.0065
2648.00,0.0064
2647.00,0.0063
2646.00,0.0063
2645.00,0.0062
2644.00,0.0062
2643.00,0.0062
2642.00,0.0061
2641.00,0.0061
2640.00,0.0061
2639.00,0.0060
2638.00,0.0060
2637.00,0.0059
2636.00,0.0058
2635.00,0.0057
2634.00,0.0056
2633.00,0.0056
2632.00,0.0056
2631.00,0.0056
2630.00,0.0056
2629.00,0.0056
2628.00,0.0056
2627.00,0.0055
2626.00,0.0055
2625.00,0.0055
2624.00,0.0055
2623.00,0.0055
2622.00,0.0055
2621.00,0.0055
2620.00,0.0055
2619.00,0.0054
2618.00,0.0054
2617.00,0.0053
2616.00,0.0052
2615.00,0.0052
2614.00,0.0051
2613.00,0.0051
2612.00,0.0051
2611.00,0.0051
2610.00,0.0051
2609.00,0.0050
2608.00,0.0049
2607.00,0.0048
2606.00,0.0047
2605.00,0.0046
2604.00,0.0045
2603.00,0.0045
2602.00,0.0044
2601.00,0.0044
2600.00,0.0043
2599.00,0.0043
2598.00,0.0042
2597.00,0.0042
2596.00,0.0042
2595.00,0.0042
2594.00,0.0043
2593.00,0.0043
2592.00,0.0043
2591.00,0.0043
2590.00,0.0044
2589.00,0.0044
2588.00,0.0045
2587.00,0.0046
2586.00,0.0046
2585.00,0.0047
2584.00,0.0048
2583.00,0.0048
2582.00,0.0049
2581.00,0.0049
2580.00,0.0049
2579.00,0.0048
2578.00,0.0046
2577.00,0.0044
2576.00,0.0043
2575.00,0.0042
2574.00,0.0040
2573.00,0.0039
2572.00,0.0038
2571.00,0.0036
2570.00,0.0035
2569.00,0.0034
2568.00,0.0033
2567.00,0.0033
2566.00,0.0033
2565.00,0.0032
2564.00,0.0032
2563.00,0.0032
2562.00,0.0031
2561.00,0.0031
2560.00,0.0031
2559.00,0.0032
2558.00,0.0032
2557.00,0.0032
2556.00,0.0031
2555.00,0.0030
2554.00,0.0030
2553.00,0.0029
2552.00,0.0029
2551.00,0.0029
2550.00,0.0029
2549.00,0.0029
2548.00,0.0029
2547.00,0.0029
2546.00,0.0028
2545.00,0.0028
2544.00,0.0027
2543.00,0.0026
2542.00,0.0026
2541.00,0.0026
2540.00,0.0026
2539.00,0.0026
2538.00,0.0025
2537.00,0.0024
2536.00,0.0024
2535.00,0.0024
2534.00,0.0023
2533.00,0.0024
2532.00,0.0024
2531.00,0.0024
2530.00,0.0024
2529.00,0.0024
2528.00,0.0024
2527.00,0.0024
2526.00,0.0024
2525.00,0.0023
2524.00,0.0023
2523.00,0.0022
2522.00,0.0022
2521.00,0.0022
2520.00,0.0022
2519.00,0.0022
2518.00,0.0022
2517.00,0.0023
2516.00,0.0023
2515.00,0.0022
2514.00,0.0022
2513.00,0.0021
2512.00,0.0021
2511.00,0.0021
2510.00,0.0020
2509.00,0.0020
2508.00,0.0020
2507.00,0.0021
2506.00,0.0021
2505.00,0.0022
2504.00,0.0022
2503.00,0.0021
2502.00,0.0021
2501.00,0.0021
2500.00,0.0020
2499.00,0.0020
2498.00,0.0019
2497.00,0.0019
2496.00,0.0019
2495.00,0.0019
2494.00,0.0019
2493.00,0.0019
2492.00,0.0019
2491.00,0.0019
2490.00,0.0019
2489.00,0.0019
2488.00,0.0019
2487.00,0.0020
2486.00,0.0020
2485.00,0.0019
2484.00,0.0019
2483.00,0.0019
2482.00,0.0019
2481.00,0.0019
2480.00,0.0019
2479.00,0.0018
2478.00,0.0018
2477.00,0.0017
2476.00,0.0017
2475.00,0.0017
2474.00,0.0017
2473.00,0.0017
2472.00,0.0017
2471.00,0.0018
2470.00,0.0018
2469.00,0.0018
2468.00,0.0018
2467.00,0.0018
2466.00,0.0019
2465.00,0.0019
2464.00,0.0019
2463.00,0.0018
2462.00,0.0018
2461.00,0.0018
2460.00,0.0018
2459.00,0.0018
2458.00,0.0018
2457.00,0.0018
2456.00,0.0018
2455.00,0.0018
2454.00,0.0019
2453.00,0.0019
2452.00,0.0019
2451.00,0.0019
2450.00,0.0019
2449.00,0.0019
2448.00,0.0019
2447.00,0.0019
2446.00,0.0019
2445.00,0.0019
2444.00,0.0019
2443.00,0.0019
2442.00,0.0020
2441.00,0.0020
2440.00,0.0019
2439.00,0.0019
2438.00,0.0019
2437.00,0.0018
2436.00,0.0018
2435.00,0.0018
2434.00,0.0019
2433.00,0.0019
2432.00,0.0020
2431.00,0.0020
2430.00,0.0020
2429.00,0.0019
2428.00,0.0019
2427.00,0.0018
2426.00,0.0017
2425.00,0.0017
2424.00,0.0017
2423.00,0.0018
2422.00,0.0018
2421.00,0.0019
2420.00,0.0019
2419.00,0.0019
2418.00,0.0019
2417.00,0.0019
2416.00,0.0018
2415.00,0.0017
2414.00,0.0017
2413.00,0.0017
2412.00,0.0017
2411.00,0.0017
2410.00,0.0017
2409.00,0.0017
2408.00,0.0017
2407.00,0.0016
2406.00,0.0016
2405.00,0.0016
2404.00,0.0016
2403.00,0.0016
2402.00,0.0016
2401.00,0.0016
2400.00,0.0016
2399.00,0.0016
2398.00,0.0016
2397.00,0.0016
2396.00,0.0016
2395.00,0.0016
2394.00,0.0015
2393.00,0.0015
2392.00,0.0015
2391.00,0.0014
2390.00,0.0014
2389.00,0.0014
2388.00,0.0014
2387.00,0.0014
2386.00,0.0013
2385.00,0.0013
2384.00,0.0013
2383.00,0.0012
2382.00,0.0012
2381.00,0.0010
2380.00,0.0009
2379.00,0.0009
2378.00,0.0010
2377.00,0.0011
2376.00,0.0012
2375.00,0.0012
2374.00,0.0013
2373.00,0.0012
2372.00,0.0012
2371.00,0.0012
2370.00,0.0012
2369.00,0.0012
2368.00,0.0012
2367.00,0.0012
2366.00,0.0013
2365.00,0.0013
2364.00,0.0012
2363.00,0.0012
2362.00,0.0012
2361.00,0.0013
2360.00,0.0013
2359.00,0.0014
2358.00,0.0015
2357.00,0.0015
2356.00,0.0015
2355.00,0.0015
2354.00,0.0014
2353.00,0.0014
2352.00,0.0014
2351.00,0.0015
2350.00,0.0015
2349.00,0.0015
2348.00,0.0014
2347.00,0.0013
2346.00,0.0014
2345.00,0.0015
2344.00,0.0017
2343.00,0.0018
2342.00,0.0019
2341.00,0.0018
2340.00,0.0018
2339.00,0.0018
2338.00,0.0018
2337.00,0.0018
2336.00,0.0019
2335.00,0.0019
2334.00,0.0018
2333.00,0.0018
2332.00,0.0017
2331.00,0.0018
2330.00,0.0018
2329.00,0.0020
2328.00,0.0021
2327.00,0.0024
2326.00,0.0028
2325.00,0.0030
2324.00,0.0031
2323.00,0.0030
2322.00,0.0028
2321.00,0.0026
2320.00,0.0025
2319.00,0.0024
2318.00,0.0023
2317.00,0.0022
2316.00,0.0021
2315.00,0.0020
2314.00,0.0019
2313.00,0.0019
2312.00,0.0019
2311.00,0.0019
2310.00,0.0018
2309.00,0.0018
2308.00,0.0018
2307.00,0.0018
2306.00,0.0018
2305.00,0.0019
2304.00,0.0019
2303.00,0.0020
2302.00,0.0021
2301.00,0.0021
2300.00,0.0021
2299.00,0.0021
2298.00,0.0021
2297.00,0.0021
2296.00,0.0022
2295.00,0.0022
2294.00,0.0022
2293.00,0.0022
2292.00,0.0023
2291.00,0.0024
2290.00,0.0025
2289.00,0.0026
2288.00,0.0027
2287.00,0.0027
2286.00,0.0027
2285.00,0.0027
2284.00,0.0025
2283.00,0.0023
2282.00,0.0021
2281.00,0.0020
2280.00,0.0020
2279.00,0.0020
2278.00,0.0019
2277.00,0.0019
2276.00,0.0018
2275.00,0.0018
2274.00,0.0018
2273.00,0.0018
2272.00,0.0017
2271.00,0.0017
2270.00,0.0016
2269.00,0.0017
2268.00,0.0017
2267.00,0.0018
2266.00,0.0017
2265.00,0.0016
2264.00,0.0014
2263.00,0.0013
2262.00,0.0013
2261.00,0.0013
2260.00,0.0014
2259.00,0.0015
2258.00,0.0015
2257.00,0.0014
2256.00,0.0013
2255.00,0.0012
2254.00,0.0011
2253.00,0.0011
2252.00,0.0011
2251.00,0.0012
2250.00,0.0012
2249.00,0.0012
2248.00,0.0011
2247.00,0.0010
2246.00,0.0010
2245.00,0.0009
2244.00,0.0009
2243.00,0.0009
2242.00,0.0010
2241.00,0.0011
2240.00,0.0012
2239.00,0.0013
2238.00,0.0012
2237.00,0.0012
2236.00,0.0011
2235.00,0.0010
2234.00,0.0010
2233.00,0.0011
2232.00,0.0012
2231.00,0.0013
2230.00,0.0015
2229.00,0.0017
2228.00,0.0018
2227.00,0.0017
2226.00,0.0016
2225.00,0.0014
2224.00,0.0014
2223.00,0.0013
2222.00,0.0013
2221.00,0.0013
2220.00,0.0013
2219.00,0.0012
2218.00,0.0012
2217.00,0.0014
2216.00,0.0015
2215.00,0.0015
2214.00,0.0015
2213.00,0.0015
2212.00,0.0015
2211.00,0.0013
2210.00,0.0012
2209.00,0.0010
2208.00,0.0010
2207.00,0.0010
2206.00,0.0012
2205.00,0.0013
2204.00,0.0015
2203.00,0.0017
2202.00,0.0018
2201.00,0.0019
2200.00,0.0018
2199.00,0.0015
2198.00,0.0012
2197.00,0.0010
2196.00,0.0011
2195.00,0.0013
2194.00,0.0015
2193.00,0.0017
2192.00,0.0017
2191.00,0.0016
2190.00,0.0014
2189.00,0.0012
2188.00,0.0012
2187.00,0.0013
2186.00,0.0016
2185.00,0.0019
2184.00,0.0021
2183.00,0.0020
2182.00,0.0017
2181.00,0.0013
2180.00,0.0010
2179.00,0.0008
2178.00,0.0007
2177.00,0.0007
2176.00,0.0008
2175.00,0.0010
2174.00,0.0013
2173.00,0.0015
2172.00,0.0017
2171.00,0.0020
2170.00,0.0022
2169.00,0.0024
2168.00,0.0024
2167.00,0.0023
2166.00,0.0021
2165.00,0.0019
2164.00,0.0018
2163.00,0.0018
2162.00,0.0019
2161.00,0.0017
2160.00,0.0009
2159.00,-0.0004
2158.00,-0.0019
2157.00,-0.0027
2156.00,-0.0028
2155.00,-0.0025
2154.00,-0.0021
2153.00,-0.0015
2152.00,-0.0011
2151.00,-0.0008
2150.00,-0.0006
2149.00,-0.0005
2148.00,-0.0006
2147.00,-0.0007
2146.00,-0.0007
2145.00,-0.0007
2144.00,-0.0006
2143.00,-0.0006
2142.00,-0.0008
2141.00,-0.0009
2140.00,-0.0008
2139.00,-0.0007
2138.00,-0.0006
2137.00,-0.0005
2136.00,-0.0005
2135.00,-0.0007
2134.00,-0.0010
2133.00,-0.0011
2132.00,-0.0012
2131.00,-0.0010
2130.00,-0.0008
2129.00,-0.0006
2128.00,-0.0005
2127.00,-0.0003
2126.00,-0.0002
2125.00,-0.0000
2124.00,0.0001
2123.00,0.0003
2122.00,0.0004
2121.00,0.0005
2120.00,0.0005
2119.00,0.0005
2118.00,0.0005
2117.00,0.0005
2116.00,0.0006
2115.00,0.0006
2114.00,0.0007
2113.00,0.0008
2112.00,0.0009
2111.00,0.0009
2110.00,0.0009
2109.00,0.0009
2108.00,0.0009
2107.00,0.0009
2106.00,0.0009
2105.00,0.0011
2104.00,0.0013
2103.00,0.0015
2102.00,0.0015
2101.00,0.0013
2100.00,0.0012
2099.00,0.0011
2098.00,0.0010
2097.00,0.0009
2096.00,0.0007
2095.00,0.0005
2094.00,0.0004
2093.00,0.0005
2092.00,0.0006
2091.00,0.0007
2090.00,0.0009
2089.00,0.0010
2088.00,0.0011
2087.00,0.0012
2086.00,0.0011
2085.00,0.0011
2084.00,0.0010
2083.00,0.0010
2082.00,0.0011
2081.00,0.0011
2080.00,0.0010
2079.00,0.0010
2078.00,0.0010
2077.00,0.0011
2076.00,0.0011
2075.00,0.0009
2074.00,0.0008
2073.00,0.0009
2072.00,0.0010
2071.00,0.0010
2070.00,0.0010
2069.00,0.0008
2068.00,0.0006
2067.00,0.0005
2066.00,0.0006
2065.00,0.0008
2064.00,0.0009
2063.00,0.0010
2062.00,0.0009
2061.00,0.0009
2060.00,0.0008
2059.00,0.0009
2058.00,0.0010
2057.00,0.0011
2056.00,0.0012
2055.00,0.0013
2054.00,0.0014
2053.00,0.0017
2052.00,0.0020
2051.00,0.0021
2050.00,0.0019
2049.00,0.0015
2048.00,0.0011
2047.00,0.0007
2046.00,0.0006
2045.00,0.0006
2044.00,0.0007
2043.00,0.0008
2042.00,0.0009
2041.00,0.0012
2040.00,0.0013
2039.00,0.0012
2038.00,0.0010
2037.00,0.0006
2036.00,0.0004
2035.00,0.0003
2034.00,0.0001
2033.00,-0.0001
2032.00,-0.0002
2031.00,-0.0001
2030.00,-0.0002
2029.00,-0.0003
2028.00,-0.0004
2027.00,-0.0004
2026.00,-0.0002
2025.00,0.0000
2024.00,0.0002
2023.00,0.0001
2022.00,-0.0000
2021.00,-0.0001
2020.00,0.0000
2019.00,0.0001
2018.00,0.0001
2017.00,-0.0000
2016.00,-0.0002
2015.00,-0.0005
2014.00,-0.0007
2013.00,-0.0007
2012.00,-0.0006
2011.00,-0.0005
2010.00,-0.0003
2009.00,-0.0003
2008.00,-0.0005
2007.00,-0.0006
2006.00,-0.0007
2005.00,-0.0006
2004.00,-0.0003
2003.00,-0.0001
2002.00,-0.0000
2001.00,0.0001
2000.00,0.0001
1999.00,-0.0000
1998.00,-0.0001
1997.00,-0.0001
1996.00,-0.0002
1995.00,-0.0002
1994.00,-0.0003
1993.00,-0.0003
1992.00,-0.0002
1991.00,-0.0001
1990.00,0.0002
1989.00,0.0005
1988.00,0.0009
1987.00,0.0012
1986.00,0.0014
1985.00,0.0014
1984.00,0.0015
1983.00,0.0016
1982.00,0.0018
1981.00,0.0021
1980.00,0.0021
1979.00,0.0015
1978.00,0.0006
1977.00,-0.0004
1976.00,-0.0010
1975.00,-0.0013
1974.00,-0.0014
1973.00,-0.0014
1972.00,-0.0014
1971.00,-0.0015
1970.00,-0.0014
1969.00,-0.0013
1968.00,-0.0010
1967.00,-0.0007
1966.00,-0.0005
1965.00,-0.0003
1964.00,-0.0003
1963.00,-0.0005
1962.00,-0.0007
1961.00,-0.0009
1960.00,-0.0010
1959.00,-0.0010
1958.00,-0.0011
1957.00,-0.0013
1956.00,-0.0014
1955.00,-0.0014
1954.00,-0.0014
1953.00,-0.0012
1952.00,-0.0010
1951.00,-0.0009
1950.00,-0.0008
1949.00,-0.0008
1948.00,-0.0009
1947.00,-0.0009
1946.00,-0.0010
1945.00,-0.0009
1944.00,-0.0009
1943.00,-0.0009
1942.00,-0.0009
1941.00,-0.0009
1940.00,-0.0008
1939.00,-0.0008
1938.00,-0.0008
1937.00,-0.0008
1936.00,-0.0008
1935.00,-0.0008
1934.00,-0.0008
1933.00,-0.0007
1932.00,-0.0006
1931.00,-0.0005
1930.00,-0.0004
1929.00,-0.0002
1928.00,-0.0000
1927.00,0.0000
1926.00,-0.0001
1925.00,-0.0001
1924.00,-0.0002
1923.00,-0.0002
1922.00,-0.0002
1921.00,-0.0001
1920.00,0.0000
1919.00,0.0001
1918.00,0.0002
1917.00,0.0002
1916.00,0.0002
1915.00,0.0002
1914.00,0.0002
1913.00,0.0002
1912.00,0.0003
1911.00,0.0004
1910.00,0.0004
1909.00,0.0004
1908.00,0.0005
1907.00,0.0005
1906.00,0.0005
1905.00,0.0006
1904.00,0.0006
1903.00,0.0006
1902.00,0.0007
1901.00,0.0007
1900.00,0.0008
1899.00,0.0008
1898.00,0.0007
1897.00,0.0007
1896.00,0.0006
1895.00,0.0006
1894.00,0.0007
1893.00,0.0007
1892.00,0.0007
1891.00,0.0007
1890.00,0.0006
1889.00,0.0006
1888.00,0.0006
1887.00,0.0006
1886.00,0.0006
1885.00,0.0005
1884.00,0.0004
1883.00,0.0005
1882.00,0.0005
1881.00,0.0006
1880.00,0.0007
1879.00,0.0006
1878.00,0.0005
1877.00,0.0004
1876.00,0.0004
1875.00,0.0004
1874.00,0.0004
1873.00,0.0003
1872.00,0.0003
1871.00,0.0002
1870.00,0.0002
1869.00,0.0003
1868.00,0.0004
1867.00,0.0005
1866.00,0.0005
1865.00,0.0006
1864.00,0.0006
1863.00,0.0006
1862.00,0.0006
1861.00,0.0007
1860.00,0.0007
1859.00,0.0007
1858.00,0.0006
1857.00,0.0006
1856.00,0.0006
1855.00,0.0006
1854.00,0.0006
1853.00,0.0007
1852.00,0.0007
1851.00,0.0008
1850.00,0.0008
1849.00,0.0008
1848.00,0.0008
1847.00,0.0008
1846.00,0.0008
1845.00,0.0008
1844.00,0.0009
1843.00,0.0009
1842.00,0.0010
1841.00,0.0010
1840.00,0.0010
1839.00,0.0010
1838.00,0.0010
1837.00,0.0010
1836.00,0.0010
1835.00,0.0010
1834.00,0.0010
1833.00,0.0010
1832.00,0.0009
1831.00,0.0009
1830.00,0.0009
1829.00,0.0009
1828.00,0.0010
1827.00,0.0010
1826.00,0.0010
1825.00,0.0009
1824.00,0.0009
1823.00,0.0009
1822.00,0.0009
1821.00,0.0008
1820.00,0.0008
1819.00,0.0008
1818.00,0.0008
1817.00,0.0008
1816.00,0.0008
1815.00,0.0008
1814.00,0.0008
1813.00,0.0008
1812.00,0.0008
1811.00,0.0009
1810.00,0.0009
1809.00,0.0009
1808.00,0.0010
1807.00,0.0010
1806.00,0.0010
1805.00,0.0010
1804.00,0.0010
1803.00,0.0010
1802.00,0.0010
1801.00,0.0010
1800.00,0.0010
1799.00,0.0011
1798.00,0.0012
1797.00,0.0013
1796.00,0.0014
1795.00,0.0014
1794.00,0.0015
1793.00,0.0015
1792.00,0.0016
1791.00,0.0017
1790.00,0.0017
1789.00,0.0018
1788.00,0.0018
1787.00,0.0018
1786.00,0.0019
1785.00,0.0020
1784.00,0.0021
1783.00,0.0021
1782.00,0.0021
1781.00,0.0021
1780.00,0.0021
1779.00,0.0021
1778.00,0.0021
1777.00,0.0021
1776.00,0.0021
1775.00,0.0021
1774.00,0.0021
1773.00,0.0021
1772.00,0.0022
1771.00,0.0023
1770.00,0.0023
1769.00,0.0024
1768.00,0.0024
1767.00,0.0024
1766.00,0.0024
1765.00,0.0025
1764.00,0.0025
1763.00,0.0025
1762.00,0.0026
1761.00,0.0026
1760.00,0.0026
1759.00,0.0026
1758.00,0.0027
1757.00,0.0027
1756.00,0.0028
1755.00,0.0029
1754.00,0.0029
1753.00,0.0030
1752.00,0.0031
1751.00,0.0032
1750.00,0.0032
1749.00,0.0033
1748.00,0.0032
1747.00,0.0032
1746.00,0.0032
1745.00,0.0033
1744.00,0.0034
1743.00,0.0035
1742.00,0.0035
1741.00,0.0036
1740.00,0.0037
1739.00,0.0037
1738.00,0.0037
1737.00,0.0038
1736.00,0.0038
1735.00,0.0039
1734.00,0.0039
1733.00,0.0039
1732.00,0.0040
1731.00,0.0040
1730.00,0.0039
1729.00,0.0039
1728.00,0.0039
1727.00,0.0038
1726.00,0.0038
1725.00,0.0037
1724.00,0.0037
1723.00,0.0037
1722.00,0.0037
1721.00,0.0038
1720.00,0.0038
1719.00,0.0037
1718.00,0.0036
1717.00,0.0035
1716.00,0.0035
1715.00,0.0036
1714.00,0.0037
1713.00,0.0038
1712.00,0.0038
1711.00,0.0038
1710.00,0.0038
1709.00,0.0039
1708.00,0.0039
1707.00,0.0040
1706.00,0.0040
1705.00,0.0040
1704.00,0.0041
1703.00,0.0042
1702.00,0.0042
1701.00,0.0042
1700.00,0.0043
1699.00,0.0043
1698.00,0.0043
1697.00,0.0045
1696.00,0.0047
1695.00,0.0049
1694.00,0.0051
1693.00,0.0052
1692.00,0.0053
1691.00,0.0054
1690.00,0.0055
1689.00,0.0056
1688.00,0.0057
1687.00,0.0057
1686.00,0.0058
1685.00,0.0059
1684.00,0.0062
1683.00,0.0065
1682.00,0.0068
1681.00,0.0070
1680.00,0.0073
1679.00,0.0074
1678.00,0.0075
1677.00,0.0076
1676.00,0.0078
1675.00,0.0081
1674.00,0.0083
1673.00,0.0085
1672.00,0.0086
1671.00,0.0087
1670.00,0.0087
1669.00,0.0089
1668.00,0.0090
1667.00,0.0092
1666.00,0.0094
1665.00,0.0095
1664.00,0.0096
1663.00,0.0098
1662.00,0.0099
1661.00,0.0101
1660.00,0.0103
1659.00,0.0105
1658.00,0.0107
1657.00,0.0108
1656.00,0.0110
1655.00,0.0111
1654.00,0.0111
1653.00,0.0112
1652.00,0.0114
1651.00,0.0116
1650.00,0.0118
1649.00,0.0119
1648.00,0.0121
1647.00,0.0122
1646.00,0.0123
1645.00,0.0124
1644.00,0.0125
1643.00,0.0126
1642.00,0.0127
1641.00,0.0129
1640.00,0.0129
1639.00,0.0130
1638.00,0.0129
1637.00,0.0129
1636.00,0.0129
1635.00,0.0129
1634.00,0.0129
1633.00,0.0129
1632.00,0.0129
1631.00,0.0128
1630.00,0.0127
1629.00,0.0126
1628.00,0.0125
1627.00,0.0124
1626.00,0.0123
1625.00,0.0122
1624.00,0.0121
1623.00,0.0120
1622.00,0.0119
1621.00,0.0119
1620.00,0.0119
1619.00,0.0118
1618.00,0.0116
1617.00,0.0115
1616.00,0.0115
1615.00,0.0116
1614.00,0.0116
1613.00,0.0116
1612.00,0.0116
1611.00,0.0116
1610.00,0.0115
1609.00,0.0115
1608.00,0.0115
1607.00,0.0115
1606.00,0.0115
1605.00,0.0115
1604.00,0.0115
1603.00,0.0114
1602.00,0.0113
1601.00,0.0112
1600.00,0.0111
1599.00,0.0111
1598.00,0.0111
1597.00,0.0111
1596.00,0.0110
1595.00,0.0109
1594.00,0.0109
1593.00,0.0108
1592.00,0.0108
1591.00,0.0108
1590.00,0.0108
1589.00,0.0109
1588.00,0.0110
1587.00,0.0110
1586.00,0.0112
1585.00,0.0113
1584.00,0.0116
1583.00,0.0118
1582.00,0.0120
1581.00,0.0123
1580.00,0.0125
1579.00,0.0126
1578.00,0.0127
1577.00,0.0127
1576.00,0.0127
1575.00,0.0126
1574.00,0.0125
1573.00,0.0123
1572.00,0.0122
1571.00,0.0120
1570.00,0.0117
1569.00,0.0115
1568.00,0.0114
1567.00,0.0114
1566.00,0.0113
1565.00,0.0113
1564.00,0.0114
1563.00,0.0114
1562.00,0.0114
1561.00,0.0115
1560.00,0.0118
1559.00,0.0119
1558.00,0.0120
1557.00,0.0121
1556.00,0.0122
1555.00,0.0124
1554.00,0.0125
1553.00,0.0127
1552.00,0.0130
1551.00,0.0132
1550.00,0.0134
1549.00,0.0136
1548.00,0.0139
1547.00,0.0142
1546.00,0.0144
1545.00,0.0147
1544.00,0.0150
1543.00,0.0151
1542.00,0.0152
1541.00,0.0152
1540.00,0.0152
1539.00,0.0151
1538.00,0.0149
1537.00,0.0148
1536.00,0.0146
1535.00,0.0142
1534.00,0.0137
1533.00,0.0132
1532.00,0.0129
1531.00,0.0126
1530.00,0.0123
1529.00,0.0121
1528.00,0.0119
1527.00,0.0116
1526.00,0.0114
1525.00,0.0112
1524.00,0.0110
1523.00,0.0109
1522.00,0.0106
1521.00,0.0105
1520.00,0.0105
1519.00,0.0105
1518.00,0.0104
1517.00,0.0104
1516.00,0.0104
1515.00,0.0103
1514.00,0.0104
1513.00,0.0104
1512.00,0.0106
1511.00,0.0107
1510.00,0.0107
1509.00,0.0107
1508.00,0.0108
1507.00,0.0110
1506.00,0.0112
1505.00,0.0116
1504.00,0.0120
1503.00,0.0124
1502.00,0.0128
1501.00,0.0134
1500.00,0.0140
1499.00,0.0146
1498.00,0.0154
1497.00,0.0166
1496.00,0.0179
1495.00,0.0190
1494.00,0.0199
1493.00,0.0208
1492.00,0.0215
1491.00,0.0221
1490.00,0.0226
1489.00,0.0232
1488.00,0.0239
1487.00,0.0245
1486.00,0.0251
1485.00,0.0258
1484.00,0.0266
1483.00,0.0273
1482.00,0.0283
1481.00,0.0295
1480.00,0.0308
1479.00,0.0322
1478.00,0.0341
1477.00,0.0366
1476.00,0.0398
1475.00,0.0434
1474.00,0.0478
1473.00,0.0534
1472.00,0.0592
1471.00,0.0646
1470.00,0.0698
1469.00,0.0756
1468.00,0.0822
1467.00,0.0901
1466.00,0.0998
1465.00,0.1108
1464.00,0.1206
1463.00,0.1274
1462.00,0.1316
1461.00,0.1341
1460.00,0.1356
1459.00,0.1363
1458.00,0.1364
1457.00,0.1362
1456.00,0.1353
1455.00,0.1339
1454.00,0.1322
1453.00,0.1299
1452.00,0.1266
1451.00,0.1222
1450.00,0.1164
1449.00,0.1086
1448.00,0.0990
1447.00,0.0891
1446.00,0.0804
1445.00,0.0732
1444.00,0.0671
1443.00,0.0622
1442.00,0.0585
1441.00,0.0561
1440.00,0.0548
1439.00,0.0544
1438.00,0.0548
1437.00,0.0552
1436.00,0.0544
1435.00,0.0517
1434.00,0.0477
1433.00,0.0429
1432.00,0.0379
1431.00,0.0335
1430.00,0.0301
1429.00,0.0278
1428.00,0.0262
1427.00,0.0254
1426.00,0.0250
1425.00,0.0246
1424.00,0.0243
1423.00,0.0243
1422.00,0.0244
1421.00,0.0244
1420.00,0.0245
1419.00,0.0248
1418.00,0.0250
1417.00,0.0251
1416.00,0.0252
1415.00,0.0255
1414.00,0.0258
1413.00,0.0262
1412.00,0.0267
1411.00,0.0273
1410.00,0.0281
1409.00,0.0289
1408.00,0.0296
1407.00,0.0305
1406.00,0.0317
1405.00,0.0330
1404.00,0.0345
1403.00,0.0362
1402.00,0.0379
1401.00,0.0396
1400.00,0.0415
1399.00,0.0435
1398.00,0.0455
1397.00,0.0473
1396.00,0.0491
1395.00,0.0509
1394.00,0.0525
1393.00,0.0536
1392.00,0.0544
1391.00,0.0552
1390.00,0.0565
1389.00,0.0584
1388.00,0.0612
1387.00,0.0653
1386.00,0.0705
1385.00,0.0771
1384.00,0.0856
1383.00,0.0970
1382.00,0.1118
1381.00,0.1306
1380.00,0.1544
1379.00,0.1823
1378.00,0.2107
1377.00,0.2332
1376.00,0.2430
1375.00,0.2350
1374.00,0.2108
1373.00,0.1795
1372.00,0.1495
1371.00,0.1239
1370.00,0.1031
1369.00,0.0870
1368.00,0.0756
1367.00,0.0683
1366.00,0.0640
1365.00,0.0620
1364.00,0.0616
1363.00,0.0624
1362.00,0.0643
1361.00,0.0664
1360.00,0.0679
1359.00,0.0681
1358.00,0.0664
1357.00,0.0630
1356.00,0.0583
1355.00,0.0530
1354.00,0.0480
1353.00,0.0436
1352.00,0.0400
1351.00,0.0372
1350.00,0.0349
1349.00,0.0330
1348.00,0.0316
1347.00,0.0303
1346.00,0.0293
1345.00,0.0285
1344.00,0.0278
1343.00,0.0272
1342.00,0.0265
1341.00,0.0258
1340.00,0.0251
1339.00,0.0245
1338.00,0.0241
1337.00,0.0238
1336.00,0.0236
1335.00,0.0236
1334.00,0.0237
1333.00,0.0238
1332.00,0.0240
1331.00,0.0241
1330.00,0.0240
1329.00,0.0235
1328.00,0.0228
1327.00,0.0220
1326.00,0.0210
1325.00,0.0201
1324.00,0.0193
1323.00,0.0185
1322.00,0.0178
1321.00,0.0172
1320.00,0.0168
1319.00,0.0163
1318.00,0.0160
1317.00,0.0156
1316.00,0.0153
1315.00,0.0150
1314.00,0.0148
1313.00,0.0147
1312.00,0.0147
1311.00,0.0148
1310.00,0.0150
1309.00,0.0154
1308.00,0.0160
1307.00,0.0168
1306.00,0.0176
1305.00,0.0183
1304.00,0.0186
1303.00,0.0186
1302.00,0.0185
1301.00,0.0184
1300.00,0.0185
1299.00,0.0187
1298.00,0.0189
1297.00,0.0190
1296.00,0.0190
1295.00,0.0189
1294.00,0.0185
1293.00,0.0181
1292.00,0.0177
1291.00,0.0172
1290.00,0.0169
1289.00,0.0166
1288.00,0.0164
1287.00,0.0163
1286.00,0.0162
1285.00,0.0162
1284.00,0.0163
1283.00,0.0164
1282.00,0.0166
1281.00,0.0169
1280.00,0.0172
1279.00,0.0176
1278.00,0.0181
1277.00,0.0187
1276.00,0.0193
1275.00,0.0200
1274.00,0.0207
1273.00,0.0215
1272.00,0.0225
1271.00,0.0235
1270.00,0.0245
1269.00,0.0255
1268.00,0.0266
1267.00,0.0276
1266.00,0.0286
1265.00,0.0296
1264.00,0.0305
1263.00,0.0312
1262.00,0.0317
1261.00,0.0322
1260.00,0.0328
1259.00,0.0335
1258.00,0.0343
1257.00,0.0352
1256.00,0.0360
1255.00,0.0365
1254.00,0.0367
1253.00,0.0367
1252.00,0.0364
1251.00,0.0359
1250.00,0.0350
1249.00,0.0341
1248.00,0.0331
1247.00,0.0321
1246.00,0.0314
1245.00,0.0310
1244.00,0.0307
1243.00,0.0305
1242.00,0.0303
1241.00,0.0300
1240.00,0.0297
1239.00,0.0292
1238.00,0.0287
1237.00,0.0282
1236.00,0.0276
1235.00,0.0269
1234.00,0.0262
1233.00,0.0254
1232.00,0.0247
1231.00,0.0239
1230.00,0.0233
1229.00,0.0226
1228.00,0.0219
1227.00,0.0214
1226.00,0.0209
1225.00,0.0206
1224.00,0.0203
1223.00,0.0202
1222.00,0.0202
1221.00,0.0201
1220.00,0.0200
1219.00,0.0197
1218.00,0.0192
1217.00,0.0187
1216.00,0.0181
1215.00,0.0174
1214.00,0.0168
1213.00,0.0162
1212.00,0.0157
1211.00,0.0152
1210.00,0.0149
1209.00,0.0146
1208.00,0.0144
1207.00,0.0143
1206.00,0.0142
1205.00,0.0141
1204.00,0.0141
1203.00,0.0141
1202.00,0.0141
1201.00,0.0141
1200.00,0.0141
1199.00,0.0142
1198.00,0.0144
1197.00,0.0147
1196.00,0.0151
1195.00,0.0154
1194.00,0.0158
1193.00,0.0163
1192.00,0.0167
1191.00,0.0173
1190.00,0.0179
1189.00,0.0186
1188.00,0.0193
1187.00,0.0201
1186.00,0.0210
1185.00,0.0220
1184.00,0.0230
1183.00,0.0239
1182.00,0.0250
1181.00,0.0260
1180.00,0.0272
1179.00,0.0284
1178.00,0.0296
1177.00,0.0311
1176.00,0.0327
1175.00,0.0346
1174.00,0.0369
1173.00,0.0395
1172.00,0.0425
1171.00,0.0456
1170.00,0.0487
1169.00,0.0515
1168.00,0.0535
1167.00,0.0548
1166.00,0.0554
1165.00,0.0556
1164.00,0.0555
1163.00,0.0552
1162.00,0.0549
1161.00,0.0547
1160.00,0.0548
1159.00,0.0551
1158.00,0.0554
1157.00,0.0558
1156.00,0.0562
1155.00,0.0566
1154.00,0.0569
1153.00,0.0571
1152.00,0.0570
1151.00,0.0566
1150.00,0.0557
1149.00,0.0545
1148.00,0.0532
1147.00,0.0517
1146.00,0.0502
1145.00,0.0487
1144.00,0.0474
1143.00,0.0461
1142.00,0.0449
1141.00,0.0439
1140.00,0.0431
1139.00,0.0423
1138.00,0.0415
1137.00,0.0406
1136.00,0.0397
1135.00,0.0387
1134.00,0.0379
1133.00,0.0373
1132.00,0.0370
1131.00,0.0367
1130.00,0.0364
1129.00,0.0361
1128.00,0.0357
1127.00,0.0354
1126.00,0.0350
1125.00,0.0346
1124.00,0.0342
1123.00,0.0337
1122.00,0.0334
1121.00,0.0330
1120.00,0.0327
1119.00,0.0324
1118.00,0.0320
1117.00,0.0316
1116.00,0.0312
1115.00,0.0308
1114.00,0.0304
1113.00,0.0301
1112.00,0.0299
1111.00,0.0297
1110.00,0.0298
1109.00,0.0300
1108.00,0.0304
1107.00,0.0311
1106.00,0.0319
1105.00,0.0327
1104.00,0.0334
1103.00,0.0339
1102.00,0.0342
1101.00,0.0343
1100.00,0.0343
1099.00,0.0342
1098.00,0.0342
1097.00,0.0343
1096.00,0.0346
1095.00,0.0349
1094.00,0.0354
1093.00,0.0358
1092.00,0.0363
1091.00,0.0368
1090.00,0.0371
1089.00,0.0374
1088.00,0.0376
1087.00,0.0377
1086.00,0.0377
1085.00,0.0378
1084.00,0.0379
1083.00,0.0380
1082.00,0.0380
1081.00,0.0379
1080.00,0.0378
1079.00,0.0377
1078.00,0.0375
1077.00,0.0374
1076.00,0.0375
1075.00,0.0377
1074.00,0.0380
1073.00,0.0382
1072.00,0.0381
1071.00,0.0377
1070.00,0.0369
1069.00,0.0360
1068.00,0.0350
1067.00,0.0339
1066.00,0.0330
1065.00,0.0321
1064.00,0.0314
1063.00,0.0308
1062.00,0.0302
1061.00,0.0297
1060.00,0.0292
1059.00,0.0285
1058.00,0.0277
1057.00,0.0267
1056.00,0.0258
1055.00,0.0249
1054.00,0.0241
1053.00,0.0233
1052.00,0.0225
1051.00,0.0217
1050.00,0.0210
1049.00,0.0205
1048.00,0.0201
1047.00,0.0197
1046.00,0.0193
1045.00,0.0187
1044.00,0.0181
1043.00,0.0176
1042.00,0.0170
1041.00,0.0166
1040.00,0.0163
1039.00,0.0160
1038.00,0.0159
1037.00,0.0158
1036.00,0.0156
1035.00,0.0155
1034.00,0.0153
1033.00,0.0151
1032.00,0.0148
1031.00,0.0146
1030.00,0.0142
1029.00,0.0139
1028.00,0.0137
1027.00,0.0135
1026.00,0.0133
1025.00,0.0132
1024.00,0.0131
1023.00,0.0130
1022.00,0.0130
1021.00,0.0130
1020.00,0.0130
1019.00,0.0131
1018.00,0.0132
1017.00,0.0132
1016.00,0.0134
1015.00,0.0136
1014.00,0.0138
1013.00,0.0141
1012.00,0.0143
1011.00,0.0145
1010.00,0.0146
1009.00,0.0147
1008.00,0.0149
1007.00,0.0153
1006.00,0.0159
1005.00,0.0167
1004.00,0.0178
1003.00,0.0192
1002.00,0.0211
1001.00,0.0234
1000.00,0.0257
999.00,0.0275
998.00,0.0283
997.00,0.0277
996.00,0.0259
995.00,0.0234
994.00,0.0209
993.00,0.0187
992.00,0.0170
991.00,0.0158
990.00,0.0149
989.00,0.0144
988.00,0.0141
987.00,0.0141
986.00,0.0144
985.00,0.0150
984.00,0.0159
983.00,0.0172
982.00,0.0189
981.00,0.0211
980.00,0.0239
979.00,0.0274
978.00,0.0316
977.00,0.0363
976.00,0.0414
975.00,0.0463
974.00,0.0503
973.00,0.0528
972.00,0.0535
971.00,0.0527
970.00,0.0509
969.00,0.0489
968.00,0.0470
967.00,0.0454
966.00,0.0441
965.00,0.0429
964.00,0.0417
963.00,0.0408
962.00,0.0401
961.00,0.0400
960.00,0.0404
959.00,0.0412
958.00,0.0421
957.00,0.0426
956.00,0.0429
955.00,0.0429
954.00,0.0428
953.00,0.0426
952.00,0.0422
951.00,0.0414
950.00,0.0405
949.00,0.0396
948.00,0.0388
947.00,0.0384
946.00,0.0383
945.00,0.0383
944.00,0.0385
943.00,0.0385
942.00,0.0383
941.00,0.0378
940.00,0.0370
939.00,0.0356
938.00,0.0339
937.00,0.0320
936.00,0.0300
935.00,0.0281
934.00,0.0263
933.00,0.0245
932.00,0.0229
931.00,0.0214
930.00,0.0200
929.00,0.0187
928.00,0.0175
927.00,0.0165
926.00,0.0156
925.00,0.0149
924.00,0.0142
923.00,0.0136
922.00,0.0132
921.00,0.0129
920.00,0.0127
919.00,0.0125
918.00,0.0123
917.00,0.0120
916.00,0.0119
915.00,0.0117
914.00,0.0116
913.00,0.0114
912.00,0.0112
911.00,0.0112
910.00,0.0112
909.00,0.0113
908.00,0.0116
907.00,0.0120
906.00,0.0128
905.00,0.0139
904.00,0.0155
903.00,0.0175
902.00,0.0197
901.00,0.0218
900.00,0.0233
899.00,0.0237
898.00,0.0229
897.00,0.0211
896.00,0.0188
895.00,0.0165
894.00,0.0146
893.00,0.0133
892.00,0.0124
891.00,0.0117
890.00,0.0112
889.00,0.0108
888.00,0.0104
887.00,0.0102
886.00,0.0100
885.00,0.0100
884.00,0.0101
883.00,0.0101
882.00,0.0102
881.00,0.0103
880.00,0.0105
879.00,0.0106
878.00,0.0107
877.00,0.0107
876.00,0.0107
875.00,0.0107
874.00,0.0106
873.00,0.0105
872.00,0.0103
871.00,0.0102
870.00,0.0102
869.00,0.0102
868.00,0.0102
867.00,0.0101
866.00,0.0100
865.00,0.0100
864.00,0.0100
863.00,0.0101
862.00,0.0102
861.00,0.0103
860.00,0.0105
859.00,0.0107
858.00,0.0108
857.00,0.0108
856.00,0.0109
855.00,0.0110
854.00,0.0110
853.00,0.0112
852.00,0.0114
851.00,0.0117
850.00,0.0122
849.00,0.0128
848.00,0.0135
847.00,0.0146
846.00,0.0162
845.00,0.0183
844.00,0.0211
843.00,0.0242
842.00,0.0264
841.00,0.0270
840.00,0.0257
839.00,0.0232
838.00,0.0208
837.00,0.0190
836.00,0.0181
835.00,0.0176
834.00,0.0173
833.00,0.0173
832.00,0.0173
831.00,0.0174
830.00,0.0176
829.00,0.0177
828.00,0.0177
827.00,0.0175
826.00,0.0174
825.00,0.0174
824.00,0.0175
823.00,0.0177
822.00,0.0178
821.00,0.0180
820.00,0.0183
819.00,0.0187
818.00,0.0195
817.00,0.0204
816.00,0.0215
815.00,0.0226
814.00,0.0240
813.00,0.0258
812.00,0.0277
811.00,0.0295
810.00,0.0308
809.00,0.0314
808.00,0.0311
807.00,0.0299
806.00,0.0282
805.00,0.0261
804.00,0.0242
803.00,0.0225
802.00,0.0211
801.00,0.0200
800.00,0.0189
799.00,0.0179
798.00,0.0170
797.00,0.0162
796.00,0.0155
795.00,0.0149
794.00,0.0142
793.00,0.0137
792.00,0.0133
791.00,0.0130
790.00,0.0127
789.00,0.0123
788.00,0.0118
787.00,0.0114
786.00,0.0111
785.00,0.0109
784.00,0.0107
783.00,0.0104
782.00,0.0102
781.00,0.0099
780.00,0.0097
779.00,0.0095
778.00,0.0095
777.00,0.0095
776.00,0.0096
775.00,0.0097
774.00,0.0098
773.00,0.0100
772.00,0.0102
771.00,0.0104
770.00,0.0107
769.00,0.0108
768.00,0.0108
767.00,0.0106
766.00,0.0104
765.00,0.0103
764.00,0.0102
763.00,0.0101
762.00,0.0100
761.00,0.0100
760.00,0.0099
759.00,0.0098
758.00,0.0096
757.00,0.0094
756.00,0.0092
755.00,0.0090
754.00,0.0090
753.00,0.0089
752.00,0.0089
751.00,0.0089
750.00,0.0088
749.00,0.0088
748.00,0.0087
747.00,0.0087
746.00,0.0089
745.00,0.0092
744.00,0.0095
743.00,0.0097
742.00,0.0101
741.00,0.0104
740.00,0.0107
739.00,0.0109
738.00,0.0111
737.00,0.0113
736.00,0.0116
735.00,0.0120
734.00,0.0124
733.00,0.0126
732.00,0.0127
731.00,0.0128
730.00,0.0128
729.00,0.0129
728.00,0.0129
727.00,0.0128
726.00,0.0128
725.00,0.0128
724.00,0.0128
723.00,0.0128
722.00,0.0127
721.00,0.0126
720.00,0.0123
719.00,0.0118
718.00,0.0113
717.00,0.0110
716.00,0.0108
715.00,0.0108
714.00,0.0107
713.00,0.0107
712.00,0.0107
711.00,0.0108
710.00,0.0110
709.00,0.0112
708.00,0.0115
707.00,0.0118
706.00,0.0120
705.00,0.0121
704.00,0.0120
703.00,0.0117
702.00,0.0114
701.00,0.0110
700.00,0.0106
699.00,0.0103
698.00,0.0099
697.00,0.0096
696.00,0.0094
695.00,0.0094
694.00,0.0095
693.00,0.0096
692.00,0.0097
691.00,0.0098
690.00,0.0097
689.00,0.0096
688.00,0.0094
687.00,0.0093
686.00,0.0092
685.00,0.0093
684.00,0.0094
683.00,0.0095
682.00,0.0096
681.00,0.0097
680.00,0.0097
679.00,0.0097
678.00,0.0097
677.00,0.0097
676.00,0.0098
675.00,0.0099
674.00,0.0099
673.00,0.0099
672.00,0.0100
671.00,0.0102
670.00,0.0103
669.00,0.0101
668.00,0.0099
667.00,0.0097
666.00,0.0097
665.00,0.0097
664.00,0.0097
663.00,0.0098
662.00,0.0099
661.00,0.0099
660.00,0.0099
659.00,0.0099
658.00,0.0099
657.00,0.0098
656.00,0.0099
655.00,0.0099
654.00,0.0098
653.00,0.0096
652.00,0.0095
651.00,0.0094
650.00,0.0094
649.00,0.0096
648.00,0.0098
647.00,0.0101
646.00,0.0104
645.00,0.0107
644.00,0.0108
643.00,0.0107
642.00,0.0105
641.00,0.0102
640.00,0.0099
639.00,0.0098
638.00,0.0100
637.00,0.0102
636.00,0.0103
635.00,0.0103
634.00,0.0103
633.00,0.0104
632.00,0.0105
631.00,0.0106
630.00,0.0107
629.00,0.0107
628.00,0.0107
627.00,0.0106
626.00,0.0106
625.00,0.0106
624.00,0.0106
623.00,0.0106
622.00,0.0107
621.00,0.0109
620.00,0.0110
619.00,0.0111
618.00,0.0112
617.00,0.0112
616.00,0.0111
615.00,0.0111
614.00,0.0110
613.00,0.0109
612.00,0.0108
611.00,0.0107
610.00,0.0106
609.00,0.0106
608.00,0.0106
607.00,0.0105
606.00,0.0104
605.00,0.0103
604.00,0.0104
603.00,0.0104
602.00,0.0102
601.00,0.0100
600.00,0.0099
599.00,0.0099
598.00,0.0101
597.00,0.0103
596.00,0.0104
595.00,0.0105
594.00,0.0107
593.00,0.0109
592.00,0.0111
591.00,0.0112
590.00,0.0111
589.00,0.0110
588.00,0.0107
587.00,0.0105
586.00,0.0104
585.00,0.0105
584.00,0.0108
583.00,0.0112
582.00,0.0114
581.00,0.0114
580.00,0.0112
579.00,0.0111
578.00,0.0111
577.00,0.0112
576.00,0.0114
575.00,0.0113
574.00,0.0109
573.00,0.0105
572.00,0.0103
571.00,0.0104
570.00,0.0107
569.00,0.0109
568.00,0.0109
567.00,0.0109
566.00,0.0110
565.00,0.0111
564.00,0.0111
563.00,0.0110
562.00,0.0108
561.00,0.0106
560.00,0.0106
559.00,0.0106
558.00,0.0108
557.00,0.0111
556.00,0.0114
555.00,0.0115
554.00,0.0116
553.00,0.0115
552.00,0.0112
551.00,0.0108
550.00,0.0103
549.00,0.0099
548.00,0.0097
547.00,0.0097
546.00,0.0099
545.00,0.0101
544.00,0.0104
543.00,0.0108
542.00,0.0112
541.00,0.0115
540.00,0.0115
539.00,0.0114
538.00,0.0116
537.00,0.0119
536.00,0.0123
535.00,0.0125
534.00,0.0126
533.00,0.0128
532.00,0.0131
531.00,0.0135
530.00,0.0137
529.00,0.0137
528.00,0.0136
527.00,0.0138
526.00,0.0140
525.00,0.0139
524.00,0.0135
523.00,0.0132
522.00,0.0130
521.00,0.0130
520.00,0.0130
519.00,0.0128
518.00,0.0123
517.00,0.0117
516.00,0.0113
515.00,0.0115
514.00,0.0118
513.00,0.0119
512.00,0.0117
511.00,0.0115
510.00,0.0113
509.00,0.0111
508.00,0.0108
507.00,0.0107
506.00,0.0111
505.00,0.0120
504.00,0.0131
503.00,0.0138
502.00,0.0141
501.00,0.0143
500.00,0.0145
499.00,0.0146
498.00,0.0148
497.00,0.0147
496.00,0.0144
495.00,0.0141
494.00,0.0139
493.00,0.0140
492.00,0.0144
491.00,0.0147
490.00,0.0146
489.00,0.0143
488.00,0.0140
487.00,0.0138
486.00,0.0140
485.00,0.0143
484.00,0.0148
483.00,0.0151
482.00,0.0149
481.00,0.0143
480.00,0.0136
479.00,0.0130
478.00,0.0127
477.00,0.0124
476.00,0.0123
475.00,0.0122
474.00,0.0119
473.00,0.0117
472.00,0.0121
471.00,0.0130
470.00,0.0141
469.00,0.0145
468.00,0.0143
467.00,0.0139
466.00,0.0137
465.00,0.0143
464.00,0.0157
463.00,0.0174
462.00,0.0187
461.00,0.0193
460.00,0.0194
459.00,0.0192
458.00,0.0189
457.00,0.0186
456.00,0.0185
455.00,0.0186
454.00,0.0184
453.00,0.0175
452.00,0.0161
451.00,0.0151
450.00,0.0145
