Created as New Dataset,Sample 011 By Administrator Date Friday, September 05 2025
cm-1,A
4000.00,0.0016
3999.00,0.0016
3998.00,0.0015
3997.00,0.0015
3996.00,0.0015
3995.00,0.0016
3994.00,0.0016
3993.00,0.0016
3992.00,0.0016
3991.00,0.0016
3990.00,0.0015
3989.00,0.0015
3988.00,0.0015
3987.00,0.0015
3986.00,0.0015
3985.00,0.0015
3984.00,0.0014
3983.00,0.0014
3982.00,0.0014
3981.00,0.0014
3980.00,0.0014
3979.00,0.0014
3978.00,0.0014
3977.00,0.0014
3976.00,0.0015
3975.00,0.0015
3974.00,0.0015
3973.00,0.0014
3972.00,0.0014
3971.00,0.0014
3970.00,0.0014
3969.00,0.0014
3968.00,0.0014
3967.00,0.0014
3966.00,0.0014
3965.00,0.0014
3964.00,0.0014
3963.00,0.0014
3962.00,0.0014
3961.00,0.0014
3960.00,0.0013
3959.00,0.0013
3958.00,0.0013
3957.00,0.0013
3956.00,0.0014
3955.00,0.0014
3954.00,0.0014
3953.00,0.0014
3952.00,0.0013
3951.00,0.0013
3950.00,0.0013
3949.00,0.0013
3948.00,0.0013
3947.00,0.0013
3946.00,0.0013
3945.00,0.0014
3944.00,0.0014
3943.00,0.0015
3942.00,0.0015
3941.00,0.0015
3940.00,0.0015
3939.00,0.0015
3938.00,0.0015
3937.00,0.0015
3936.00,0.0015
3935.00,0.0015
3934.00,0.0015
3933.00,0.0015
3932.00,0.0015
3931.00,0.0015
3930.00,0.0015
3929.00,0.0015
3928.00,0.0015
3927.00,0.0015
3926.00,0.0015
3925.00,0.0015
3924.00,0.0015
3923.00,0.0015
3922.00,0.0015
3921.00,0.0015
3920.00,0.0015
3919.00,0.0015
3918.00,0.0015
3917.00,0.0015
3916.00,0.0015
3915.00,0.0015
3914.00,0.0015
3913.00,0.0016
3912.00,0.0016
3911.00,0.0016
3910.00,0.0016
3909.00,0.0016
3908.00,0.0015
3907.00,0.0015
3906.00,0.0015
3905.00,0.0015
3904.00,0.0016
3903.00,0.0016
3902.00,0.0017
3901.00,0.0017
3900.00,0.0016
3899.00,0.0016
3898.00,0.0016
3897.00,0.0017
3896.00,0.0017
3895.00,0.0017
3894.00,0.0017
3893.00,0.0016
3892.00,0.0015
3891.00,0.0015
3890.00,0.0015
3889.00,0.0016
3888.00,0.0016
3887.00,0.0016
3886.00,0.0016
3885.00,0.0016
3884.00,0.0016
3883.00,0.0016
3882.00,0.0016
3881.00,0.0016
3880.00,0.0016
3879.00,0.0016
3878.00,0.0015
3877.00,0.0015
3876.00,0.0015
3875.00,0.0015
3874.00,0.0016
3873.00,0.0016
3872.00,0.0016
3871.00,0.0016
3870.00,0.0017
3869.00,0.0017
3868.00,0.0017
3867.00,0.0017
3866.00,0.0017
3865.00,0.0016
3864.00,0.0016
3863.00,0.0015
3862.00,0.0015
3861.00,0.0015
3860.00,0.0015
3859.00,0.0015
3858.00,0.0015
3857.00,0.0015
3856.00,0.0015
3855.00,0.0016
3854.00,0.0016
3853.00,0.0016
3852.00,0.0016
3851.00,0.0015
3850.00,0.0015
3849.00,0.0015
3848.00,0.0015
3847.00,0.0015
3846.00,0.0015
3845.00,0.0015
3844.00,0.0016
3843.00,0.0016
3842.00,0.0016
3841.00,0.0016
3840.00,0.0016
3839.00,0.0016
3838.00,0.0016
3837.00,0.0016
3836.00,0.0016
3835.00,0.0016
3834.00,0.0016
3833.00,0.0016
3832.00,0.0016
3831.00,0.0017
3830.00,0.0017
3829.00,0.0017
3828.00,0.0018
3827.00,0.0018
3826.00,0.0018
3825.00,0.0018
3824.00,0.0017
3823.00,0.0017
3822.00,0.0017
3821.00,0.0016
3820.00,0.0016
3819.00,0.0016
3818.00,0.0016
3817.00,0.0016
3816.00,0.0017
3815.00,0.0018
3814.00,0.0018
3813.00,0.0018
3812.00,0.0017
3811.00,0.0017
3810.00,0.0017
3809.00,0.0017
3808.00,0.0017
3807.00,0.0018
3806.00,0.0018
3805.00,0.0018
3804.00,0.0018
3803.00,0.0017
3802.00,0.0017
3801.00,0.0016
3800.00,0.0016
3799.00,0.0016
3798.00,0.0016
3797.00,0.0015
3796.00,0.0015
3795.00,0.0015
3794.00,0.0015
3793.00,0.0015
3792.00,0.0014
3791.00,0.0014
3790.00,0.0015
3789.00,0.0015
3788.00,0.0016
3787.00,0.0016
3786.00,0.0015
3785.00,0.0015
3784.00,0.0014
3783.00,0.0013
3782.00,0.0013
3781.00,0.0014
3780.00,0.0014
3779.00,0.0014
3778.00,0.0015
3777.00,0.0015
3776.00,0.0015
3775.00,0.0015
3774.00,0.0014
3773.00,0.0014
3772.00,0.0014
3771.00,0.0014
3770.00,0.0014
3769.00,0.0014
3768.00,0.0015
3767.00,0.0015
3766.00,0.0015
3765.00,0.0015
3764.00,0.0015
3763.00,0.0015
3762.00,0.0015
3761.00,0.0015
3760.00,0.0015
3759.00,0.0014
3758.00,0.0014
3757.00,0.0014
3756.00,0.0014
3755.00,0.0014
3754.00,0.0014
3753.00,0.0014
3752.00,0.0013
3751.00,0.0013
3750.00,0.0013
3749.00,0.0014
3748.00,0.0014
3747.00,0.0014
3746.00,0.0014
3745.00,0.0013
3744.00,0.0013
3743.00,0.0013
3742.00,0.0013
3741.00,0.0013
3740.00,0.0014
3739.00,0.0013
3738.00,0.0013
3737.00,0.0013
3736.00,0.0014
3735.00,0.0014
3734.00,0.0013
3733.00,0.0013
3732.00,0.0013
3731.00,0.0013
3730.00,0.0013
3729.00,0.0013
3728.00,0.0013
3727.00,0.0013
3726.00,0.0013
3725.00,0.0013
3724.00,0.0013
3723.00,0.0014
3722.00,0.0014
3721.00,0.0014
3720.00,0.0014
3719.00,0.0014
3718.00,0.0013
3717.00,0.0013
3716.00,0.0014
3715.00,0.0014
3714.00,0.0014
3713.00,0.0014
3712.00,0.0014
3711.00,0.0014
3710.00,0.0014
3709.00,0.0014
3708.00,0.0014
3707.00,0.0014
3706.00,0.0014
3705.00,0.0015
3704.00,0.0015
3703.00,0.0015
3702.00,0.0015
3701.00,0.0015
3700.00,0.0015
3699.00,0.0015
3698.00,0.0016
3697.00,0.0017
3696.00,0.0017
3695.00,0.0018
3694.00,0.0019
3693.00,0.0020
3692.00,0.0021
3691.00,0.0023
3690.00,0.0025
3689.00,0.0027
3688.00,0.0029
3687.00,0.0031
3686.00,0.0034
3685.00,0.0037
3684.00,0.0041
3683.00,0.0045
3682.00,0.0050
3681.00,0.0054
3680.00,0.0059
3679.00,0.0063
3678.00,0.0068
3677.00,0.0074
3676.00,0.0080
3675.00,0.0086
3674.00,0.0089
3673.00,0.0092
3672.00,0.0094
3671.00,0.0096
3670.00,0.0098
3669.00,0.0100
3668.00,0.0101
3667.00,0.0103
3666.00,0.0104
3665.00,0.0106
3664.00,0.0108
3663.00,0.0110
3662.00,0.0112
3661.00,0.0113
3660.00,0.0114
3659.00,0.0114
3658.00,0.0114
3657.00,0.0113
3656.00,0.0112
3655.00,0.0111
3654.00,0.0110
3653.00,0.0109
3652.00,0.0108
3651.00,0.0108
3650.00,0.0108
3649.00,0.0107
3648.00,0.0105
3647.00,0.0103
3646.00,0.0100
3645.00,0.0098
3644.00,0.0095
3643.00,0.0092
3642.00,0.0089
3641.00,0.0087
3640.00,0.0086
3639.00,0.0086
3638.00,0.0086
3637.00,0.0084
3636.00,0.0078
3635.00,0.0069
3634.00,0.0061
3633.00,0.0054
3632.00,0.0049
3631.00,0.0046
3630.00,0.0044
3629.00,0.0042
3628.00,0.0040
3627.00,0.0039
3626.00,0.0038
3625.00,0.0037
3624.00,0.0036
3623.00,0.0035
3622.00,0.0034
3621.00,0.0033
3620.00,0.0032
3619.00,0.0031
3618.00,0.0031
3617.00,0.0031
3616.00,0.0031
3615.00,0.0032
3614.00,0.0031
3613.00,0.0031
3612.00,0.0031
3611.00,0.0030
3610.00,0.0030
3609.00,0.0029
3608.00,0.0029
3607.00,0.0029
3606.00,0.0029
3605.00,0.0029
3604.00,0.0029
3603.00,0.0029
3602.00,0.0029
3601.00,0.0029
3600.00,0.0028
3599.00,0.0028
3598.00,0.0029
3597.00,0.0029
3596.00,0.0029
3595.00,0.0030
3594.00,0.0030
3593.00,0.0030
3592.00,0.0030
3591.00,0.0031
3590.00,0.0031
3589.00,0.0031
3588.00,0.0032
3587.00,0.0032
3586.00,0.0033
3585.00,0.0033
3584.00,0.0034
3583.00,0.0034
3582.00,0.0035
3581.00,0.0035
3580.00,0.0035
3579.00,0.0035
3578.00,0.0035
3577.00,0.0035
3576.00,0.0036
3575.00,0.0036
3574.00,0.0036
3573.00,0.0037
3572.00,0.0038
3571.00,0.0038
3570.00,0.0039
3569.00,0.0040
3568.00,0.0040
3567.00,0.0040
3566.00,0.0041
3565.00,0.0041
3564.00,0.0041
3563.00,0.0041
3562.00,0.0042
3561.00,0.0043
3560.00,0.0043
3559.00,0.0044
3558.00,0.0044
3557.00,0.0044
3556.00,0.0044
3555.00,0.0044
3554.00,0.0044
3553.00,0.0045
3552.00,0.0045
3551.00,0.0046
3550.00,0.0046
3549.00,0.0047
3548.00,0.0047
3547.00,0.0048
3546.00,0.0049
3545.00,0.0049
3544.00,0.0050
3543.00,0.0050
3542.00,0.0051
3541.00,0.0051
3540.00,0.0052
3539.00,0.0052
3538.00,0.0052
3537.00,0.0052
3536.00,0.0052
3535.00,0.0053
3534.00,0.0053
3533.00,0.0054
3532.00,0.0054
3531.00,0.0055
3530.00,0.0056
3529.00,0.0056
3528.00,0.0057
3527.00,0.0057
3526.00,0.0058
3525.00,0.0058
3524.00,0.0058
3523.00,0.0059
3522.00,0.0059
3521.00,0.0060
3520.00,0.0060
3519.00,0.0061
3518.00,0.0062
3517.00,0.0062
3516.00,0.0063
3515.00,0.0063
3514.00,0.0063
3513.00,0.0064
3512.00,0.0064
3511.00,0.0065
3510.00,0.0066
3509.00,0.0066
3508.00,0.0067
3507.00,0.0067
3506.00,0.0067
3505.00,0.0067
3504.00,0.0068
3503.00,0.0068
3502.00,0.0069
3501.00,0.0070
3500.00,0.0071
3499.00,0.0071
3498.00,0.0072
3497.00,0.0073
3496.00,0.0073
3495.00,0.0074
3494.00,0.0074
3493.00,0.0075
3492.00,0.0075
3491.00,0.0076
3490.00,0.0076
3489.00,0.0077
3488.00,0.0078
3487.00,0.0078
3486.00,0.0079
3485.00,0.0080
3484.00,0.0080
3483.00,0.0080
3482.00,0.0080
3481.00,0.0081
3480.00,0.0081
3479.00,0.0081
3478.00,0.0082
3477.00,0.0083
3476.00,0.0084
3475.00,0.0084
3474.00,0.0085
3473.00,0.0085
3472.00,0.0086
3471.00,0.0086
3470.00,0.0087
3469.00,0.0087
3468.00,0.0087
3467.00,0.0088
3466.00,0.0088
3465.00,0.0088
3464.00,0.0088
3463.00,0.0089
3462.00,0.0089
3461.00,0.0090
3460.00,0.0091
3459.00,0.0091
3458.00,0.0092
3457.00,0.0092
3456.00,0.0093
3455.00,0.0093
3454.00,0.0093
3453.00,0.0094
3452.00,0.0094
3451.00,0.0095
3450.00,0.0095
3449.00,0.0096
3448.00,0.0096
3447.00,0.0096
3446.00,0.0097
3445.00,0.0097
3444.00,0.0097
3443.00,0.0098
3442.00,0.0098
3441.00,0.0098
3440.00,0.0098
3439.00,0.0099
3438.00,0.0099
3437.00,0.0100
3436.00,0.0101
3435.00,0.0101
3434.00,0.0101
3433.00,0.0102
3432.00,0.0102
3431.00,0.0102
3430.00,0.0103
3429.00,0.0103
3428.00,0.0103
3427.00,0.0104
3426.00,0.0104
3425.00,0.0105
3424.00,0.0105
3423.00,0.0106
3422.00,0.0106
3421.00,0.0106
3420.00,0.0107
3419.00,0.0107
3418.00,0.0107
3417.00,0.0106
3416.00,0.0106
3415.00,0.0106
3414.00,0.0107
3413.00,0.0107
3412.00,0.0108
3411.00,0.0108
3410.00,0.0108
3409.00,0.0108
3408.00,0.0108
3407.00,0.0108
3406.00,0.0109
3405.00,0.0109
3404.00,0.0109
3403.00,0.0110
3402.00,0.0110
3401.00,0.0110
3400.00,0.0110
3399.00,0.0110
3398.00,0.0110
3397.00,0.0110
3396.00,0.0110
3395.00,0.0110
3394.00,0.0109
3393.00,0.0109
3392.00,0.0109
3391.00,0.0110
3390.00,0.0110
3389.00,0.0110
3388.00,0.0110
3387.00,0.0110
3386.00,0.0110
3385.00,0.0111
3384.00,0.0111
3383.00,0.0111
3382.00,0.0111
3381.00,0.0111
3380.00,0.0111
3379.00,0.0111
3378.00,0.0111
3377.00,0.0112
3376.00,0.0112
3375.00,0.0112
3374.00,0.0112
3373.00,0.0112
3372.00,0.0112
3371.00,0.0113
3370.00,0.0113
3369.00,0.0113
3368.00,0.0113
3367.00,0.0113
3366.00,0.0113
3365.00,0.0113
3364.00,0.0113
3363.00,0.0113
3362.00,0.0112
3361.00,0.0112
3360.00,0.0112
3359.00,0.0112
3358.00,0.0113
3357.00,0.0113
3356.00,0.0114
3355.00,0.0114
3354.00,0.0114
3353.00,0.0114
3352.00,0.0114
3351.00,0.0114
3350.00,0.0114
3349.00,0.0114
3348.00,0.0114
3347.00,0.0114
3346.00,0.0114
3345.00,0.0114
3344.00,0.0114
3343.00,0.0114
3342.00,0.0114
3341.00,0.0114
3340.00,0.0114
3339.00,0.0114
3338.00,0.0114
3337.00,0.0114
3336.00,0.0114
3335.00,0.0114
3334.00,0.0113
3333.00,0.0113
3332.00,0.0113
3331.00,0.0113
3330.00,0.0113
3329.00,0.0112
3328.00,0.0112
3327.00,0.0111
3326.00,0.0111
3325.00,0.0111
3324.00,0.0111
3323.00,0.0111
3322.00,0.0111
3321.00,0.0111
3320.00,0.0110
3319.00,0.0110
3318.00,0.0109
3317.00,0.0109
3316.00,0.0109
3315.00,0.0109
3314.00,0.0109
3313.00,0.0109
3312.00,0.0109
3311.00,0.0108
3310.00,0.0108
3309.00,0.0108
3308.00,0.0108
3307.00,0.0108
3306.00,0.0108
3305.00,0.0107
3304.00,0.0107
3303.00,0.0107
3302.00,0.0107
3301.00,0.0107
3300.00,0.0106
3299.00,0.0106
3298.00,0.0106
3297.00,0.0105
3296.00,0.0105
3295.00,0.0105
3294.00,0.0104
3293.00,0.0104
3292.00,0.0104
3291.00,0.0104
3290.00,0.0104
3289.00,0.0104
3288.00,0.0104
3287.00,0.0103
3286.00,0.0102
3285.00,0.0102
3284.00,0.0102
3283.00,0.0101
3282.00,0.0101
3281.00,0.0101
3280.00,0.0100
3279.00,0.0100
3278.00,0.0099
3277.00,0.0099
3276.00,0.0099
3275.00,0.0099
3274.00,0.0099
3273.00,0.0099
3272.00,0.0099
3271.00,0.0099
3270.00,0.0099
3269.00,0.0098
3268.00,0.0098
3267.00,0.0098
3266.00,0.0097
3265.00,0.0097
3264.00,0.0097
3263.00,0.0097
3262.00,0.0096
3261.00,0.0096
3260.00,0.0095
3259.00,0.0095
3258.00,0.0094
3257.00,0.0094
3256.00,0.0094
3255.00,0.0094
3254.00,0.0094
3253.00,0.0094
3252.00,0.0094
3251.00,0.0094
3250.00,0.0094
3249.00,0.0094
3248.00,0.0093
3247.00,0.0093
3246.00,0.0093
3245.00,0.0093
3244.00,0.0093
3243.00,0.0093
3242.00,0.0093
3241.00,0.0092
3240.00,0.0092
3239.00,0.0093
3238.00,0.0093
3237.00,0.0092
3236.00,0.0092
3235.00,0.0092
3234.00,0.0091
3233.00,0.0091
3232.00,0.0091
3231.00,0.0092
3230.00,0.0092
3229.00,0.0092
3228.00,0.0093
3227.00,0.0093
3226.00,0.0093
3225.00,0.0093
3224.00,0.0093
3223.00,0.0093
3222.00,0.0093
3221.00,0.0093
3220.00,0.0094
3219.00,0.0094
3218.00,0.0094
3217.00,0.0094
3216.00,0.0094
3215.00,0.0093
3214.00,0.0094
3213.00,0.0094
3212.00,0.0094
3211.00,0.0095
3210.00,0.0095
3209.00,0.0095
3208.00,0.0096
3207.00,0.0096
3206.00,0.0096
3205.00,0.0096
3204.00,0.0096
3203.00,0.0096
3202.00,0.0096
3201.00,0.0095
3200.00,0.0095
3199.00,0.0095
3198.00,0.0094
3197.00,0.0094
3196.00,0.0094
3195.00,0.0094
3194.00,0.0094
3193.00,0.0095
3192.00,0.0095
3191.00,0.0095
3190.00,0.0095
3189.00,0.0094
3188.00,0.0094
3187.00,0.0093
3186.00,0.0093
3185.00,0.0092
3184.00,0.0092
3183.00,0.0092
3182.00,0.0091
3181.00,0.0091
3180.00,0.0091
3179.00,0.0090
3178.00,0.0090
3177.00,0.0089
3176.00,0.0089
3175.00,0.0088
3174.00,0.0087
3173.00,0.0087
3172.00,0.0086
3171.00,0.0086
3170.00,0.0085
3169.00,0.0085
3168.00,0.0084
3167.00,0.0083
3166.00,0.0083
3165.00,0.0083
3164.00,0.0082
3163.00,0.0082
3162.00,0.0081
3161.00,0.0080
3160.00,0.0080
3159.00,0.0079
3158.00,0.0079
3157.00,0.0079
3156.00,0.0078
3155.00,0.0078
3154.00,0.0078
3153.00,0.0078
3152.00,0.0077
3151.00,0.0077
3150.00,0.0077
3149.00,0.0077
3148.00,0.0077
3147.00,0.0077
3146.00,0.0076
3145.00,0.0076
3144.00,0.0076
3143.00,0.0075
3142.00,0.0074
3141.00,0.0074
3140.00,0.0074
3139.00,0.0073
3138.00,0.0073
3137.00,0.0073
3136.00,0.0072
3135.00,0.0072
3134.00,0.0072
3133.00,0.0072
3132.00,0.0071
3131.00,0.0071
3130.00,0.0071
3129.00,0.0070
3128.00,0.0070
3127.00,0.0069
3126.00,0.0069
3125.00,0.0068
3124.00,0.0068
3123.00,0.0067
3122.00,0.0067
3121.00,0.0066
3120.00,0.0066
3119.00,0.0066
3118.00,0.0066
3117.00,0.0065
3116.00,0.0065
3115.00,0.0065
3114.00,0.0064
3113.00,0.0064
3112.00,0.0063
3111.00,0.0063
3110.00,0.0063
3109.00,0.0063
3108.00,0.0063
3107.00,0.0063
3106.00,0.0063
3105.00,0.0062
3104.00,0.0062
3103.00,0.0062
3102.00,0.0061
3101.00,0.0061
3100.00,0.0061
3099.00,0.0060
3098.00,0.0060
3097.00,0.0060
3096.00,0.0059
3095.00,0.0059
3094.00,0.0059
3093.00,0.0059
3092.00,0.0059
3091.00,0.0059
3090.00,0.0059
3089.00,0.0059
3088.00,0.0059
3087.00,0.0058
3086.00,0.0058
3085.00,0.0058
3084.00,0.0057
3083.00,0.0057
3082.00,0.0057
3081.00,0.0057
3080.00,0.0057
3079.00,0.0057
3078.00,0.0057
3077.00,0.0058
3076.00,0.0058
3075.00,0.0058
3074.00,0.0057
3073.00,0.0057
3072.00,0.0057
3071.00,0.0057
3070.00,0.0057
3069.00,0.0058
3068.00,0.0058
3067.00,0.0059
3066.00,0.0059
3065.00,0.0059
3064.00,0.0059
3063.00,0.0059
3062.00,0.0059
3061.00,0.0059
3060.00,0.0059
3059.00,0.0059
3058.00,0.0059
3057.00,0.0059
3056.00,0.0059
3055.00,0.0058
3054.00,0.0058
3053.00,0.0058
3052.00,0.0058
3051.00,0.0059
3050.00,0.0059
3049.00,0.0059
3048.00,0.0060
3047.00,0.0060
3046.00,0.0060
3045.00,0.0061
3044.00,0.0062
3043.00,0.0062
3042.00,0.0062
3041.00,0.0063
3040.00,0.0063
3039.00,0.0064
3038.00,0.0064
3037.00,0.0064
3036.00,0.0065
3035.00,0.0066
3034.00,0.0066
3033.00,0.0067
3032.00,0.0067
3031.00,0.0068
3030.00,0.0069
3029.00,0.0071
3028.00,0.0072
3027.00,0.0075
3026.00,0.0077
3025.00,0.0079
3024.00,0.0081
3023.00,0.0084
3022.00,0.0088
3021.00,0.0092
3020.00,0.0097
3019.00,0.0102
3018.00,0.0109
3017.00,0.0117
3016.00,0.0127
3015.00,0.0138
3014.00,0.0150
3013.00,0.0165
3012.00,0.0182
3011.00,0.0201
3010.00,0.0222
3009.00,0.0245
3008.00,0.0270
3007.00,0.0297
3006.00,0.0325
3005.00,0.0354
3004.00,0.0384
3003.00,0.0414
3002.00,0.0444
3001.00,0.0473
3000.00,0.0501
2999.00,0.0526
2998.00,0.0550
2997.00,0.0571
2996.00,0.0592
2995.00,0.0611
2994.00,0.0630
2993.00,0.0649
2992.00,0.0668
2991.00,0.0686
2990.00,0.0705
2989.00,0.0726
2988.00,0.0751
2987.00,0.0786
2986.00,0.0839
2985.00,0.0917
2984.00,0.1013
2983.00,0.1108
2982.00,0.1178
2981.00,0.1207
2980.00,0.1201
2979.00,0.1176
2978.00,0.1152
2977.00,0.1138
2976.00,0.1141
2975.00,0.1164
2974.00,0.1206
2973.00,0.1261
2972.00,0.1315
2971.00,0.1360
2970.00,0.1393
2969.00,0.1424
2968.00,0.1462
2967.00,0.1513
2966.00,0.1573
2965.00,0.1638
2964.00,0.1702
2963.00,0.1764
2962.00,0.1819
2961.00,0.1865
2960.00,0.1901
2959.00,0.1929
2958.00,0.1953
2957.00,0.1977
2956.00,0.2004
2955.00,0.2040
2954.00,0.2082
2953.00,0.2129
2952.00,0.2173
2951.00,0.2207
2950.00,0.2219
2949.00,0.2199
2948.00,0.2143
2947.00,0.2050
2946.00,0.1930
2945.00,0.1796
2944.00,0.1664
2943.00,0.1546
2942.00,0.1451
2941.00,0.1383
2940.00,0.1341
2939.00,0.1322
2938.00,0.1323
2937.00,0.1343
2936.00,0.1380
2935.00,0.1434
2934.00,0.1503
2933.00,0.1584
2932.00,0.1674
2931.00,0.1771
2930.00,0.1872
2929.00,0.1974
2928.00,0.2075
2927.00,0.2173
2926.00,0.2266
2925.00,0.2354
2924.00,0.2438
2923.00,0.2521
2922.00,0.2603
2921.00,0.2682
2920.00,0.2754
2919.00,0.2811
2918.00,0.2844
2917.00,0.2846
2916.00,0.2815
2915.00,0.2754
2914.00,0.2670
2913.00,0.2575
2912.00,0.2477
2911.00,0.2383
2910.00,0.2296
2909.00,0.2218
2908.00,0.2146
2907.00,0.2078
2906.00,0.2011
2905.00,0.1944
2904.00,0.1876
2903.00,0.1809
2902.00,0.1743
2901.00,0.1677
2900.00,0.1615
2899.00,0.1556
2898.00,0.1503
2897.00,0.1456
2896.00,0.1415
2895.00,0.1383
2894.00,0.1358
2893.00,0.1340
2892.00,0.1329
2891.00,0.1323
2890.00,0.1319
2889.00,0.1317
2888.00,0.1318
2887.00,0.1321
2886.00,0.1330
2885.00,0.1343
2884.00,0.1358
2883.00,0.1373
2882.00,0.1388
2881.00,0.1402
2880.00,0.1417
2879.00,0.1430
2878.00,0.1438
2877.00,0.1438
2876.00,0.1432
2875.00,0.1420
2874.00,0.1408
2873.00,0.1400
2872.00,0.1398
2871.00,0.1405
2870.00,0.1417
2869.00,0.1431
2868.00,0.1439
2867.00,0.1435
2866.00,0.1410
2865.00,0.1361
2864.00,0.1290
2863.00,0.1203
2862.00,0.1112
2861.00,0.1025
2860.00,0.0949
2859.00,0.0887
2858.00,0.0840
2857.00,0.0805
2856.00,0.0781
2855.00,0.0765
2854.00,0.0756
2853.00,0.0752
2852.00,0.0753
2851.00,0.0757
2850.00,0.0765
2849.00,0.0777
2848.00,0.0795
2847.00,0.0820
2846.00,0.0853
2845.00,0.0896
2844.00,0.0948
2843.00,0.1009
2842.00,0.1073
2841.00,0.1137
2840.00,0.1192
2839.00,0.1229
2838.00,0.1240
2837.00,0.1220
2836.00,0.1167
2835.00,0.1085
2834.00,0.0984
2833.00,0.0877
2832.00,0.0773
2831.00,0.0680
2830.00,0.0601
2829.00,0.0536
2828.00,0.0483
2827.00,0.0440
2826.00,0.0406
2825.00,0.0377
2824.00,0.0354
2823.00,0.0333
2822.00,0.0316
2821.00,0.0301
2820.00,0.0287
2819.00,0.0276
2818.00,0.0266
2817.00,0.0257
2816.00,0.0249
2815.00,0.0242
2814.00,0.0235
2813.00,0.0229
2812.00,0.0223
2811.00,0.0217
2810.00,0.0211
2809.00,0.0205
2808.00,0.0199
2807.00,0.0192
2806.00,0.0185
2805.00,0.0179
2804.00,0.0172
2803.00,0.0166
2802.00,0.0161
2801.00,0.0157
2800.00,0.0153
2799.00,0.0149
2798.00,0.0146
2797.00,0.0143
2796.00,0.0141
2795.00,0.0138
2794.00,0.0135
2793.00,0.0132
2792.00,0.0129
2791.00,0.0125
2790.00,0.0122
2789.00,0.0118
2788.00,0.0115
2787.00,0.0112
2786.00,0.0110
2785.00,0.0108
2784.00,0.0105
2783.00,0.0102
2782.00,0.0100
2781.00,0.0098
2780.00,0.0095
2779.00,0.0093
2778.00,0.0091
2777.00,0.0090
2776.00,0.0089
2775.00,0.0088
2774.00,0.0087
2773.00,0.0086
2772.00,0.0086
2771.00,0.0085
2770.00,0.0085
2769.00,0.0085
2768.00,0.0084
2767.00,0.0084
2766.00,0.0083
2765.00,0.0083
2764.00,0.0082
2763.00,0.0081
2762.00,0.0080
2761.00,0.0079
2760.00,0.0078
2759.00,0.0078
2758.00,0.0077
2757.00,0.0077
2756.00,0.0077
2755.00,0.0076
2754.00,0.0076
2753.00,0.0076
2752.00,0.0076
2751.00,0.0075
2750.00,0.0075
2749.00,0.0075
2748.00,0.0075
2747.00,0.0075
2746.00,0.0076
2745.00,0.0076
2744.00,0.0077
2743.00,0.0078
2742.00,0.0079
2741.00,0.0080
2740.00,0.0081
2739.00,0.0083
2738.00,0.0084
2737.00,0.0085
2736.00,0.0086
2735.00,0.0088
2734.00,0.0089
2733.00,0.0091
2732.00,0.0092
2731.00,0.0094
2730.00,0.0096
2729.00,0.0098
2728.00,0.0100
2727.00,0.0102
2726.00,0.0105
2725.00,0.0107
2724.00,0.0108
2723.00,0.0108
2722.00,0.0107
2721.00,0.0105
2720.00,0.0102
2719.00,0.0099
2718.00,0.0095
2717.00,0.0092
2716.00,0.0089
2715.00,0.0086
2714.00,0.0083
2713.00,0.0081
2712.00,0.0079
2711.00,0.0077
2710.00,0.0075
2709.00,0.0073
2708.00,0.0071
2707.00,0.0070
2706.00,0.0069
2705.00,0.0068
2704.00,0.0067
2703.00,0.0066
2702.00,0.0065
2701.00,0.0064
2700.00,0.0064
2699.00,0.0063
2698.00,0.0063
2697.00,0.0062
2696.00,0.0062
2695.00,0.0062
2694.00,0.0062
2693.00,0.0062
2692.00,0.0062
2691.00,0.0062
2690.00,0.0063
2689.00,0.0063
2688.00,0.0063
2687.00,0.0063
2686.00,0.0064
2685.00,0.0064
2684.00,0.0064
2683.00,0.0064
2682.00,0.0065
2681.00,0.0065
2680.00,0.0065
2679.00,0.0066
2678.00,0.0066
2677.00,0.0066
2676.00,0.0067
2675.00,0.0067
2674.00,0.0067
2673.00,0.0068
2672.00,0.0068
2671.00,0.0068
2670.00,0.0068
2669.00,0.0069
2668.00,0.0069
2667.00,0.0070
2666.00,0.0070
2665.00,0.0070
2664.00,0.0070
2663.00,0.0071
2662.00,0.0071
2661.00,0.0071
2660.00,0.0071
2659.00,0.0071
2658.00,0.0071
2657.00,0.0070
2656.00,0.0070
2655.00,0.0070
2654.00,0.0069
2653.00,0.0068
2652.00,0.0067
2651.00,0.0067
2650.00,0.0066
2649.00,0.0066
2648.00,0.0065
2647.00,0.0065
2646.00,0.0064
2645.00,0.0064
2644.00,0.0063
2643.00,0.0063
2642.00,0.0062
2641.00,0.0062
2640.00,0.0061
2639.00,0.0060
2638.00,0.0060
2637.00,0.0059
2636.00,0.0058
2635.00,0.0057
2634.00,0.0056
2633.00,0.0056
2632.00,0.0057
2631.00,0.0057
2630.00,0.0057
2629.00,0.0057
2628.00,0.0057
2627.00,0.0056
2626.00,0.0056
2625.00,0.0055
2624.00,0.0055
2623.00,0.0056
2622.00,0.0056
2621.00,0.0056
2620.00,0.0057
2619.00,0.0056
2618.00,0.0056
2617.00,0.0055
2616.00,0.0054
2615.00,0.0054
2614.00,0.0053
2613.00,0.0053
2612.00,0.0053
2611.00,0.0052
2610.00,0.0052
2609.00,0.0051
2608.00,0.0050
2607.00,0.0049
2606.00,0.0048
2605.00,0.0047
2604.00,0.0046
2603.00,0.0046
2602.00,0.0045
2601.00,0.0044
2600.00,0.0043
2599.00,0.0043
2598.00,0.0043
2597.00,0.0043
2596.00,0.0043
2595.00,0.0043
2594.00,0.0043
2593.00,0.0043
2592.00,0.0043
2591.00,0.0043
2590.00,0.0044
2589.00,0.0044
2588.00,0.0045
2587.00,0.0046
2586.00,0.0047
2585.00,0.0048
2584.00,0.0048
2583.00,0.0049
2582.00,0.0049
2581.00,0.0049
2580.00,0.0049
2579.00,0.0048
2578.00,0.0047
2577.00,0.0045
2576.00,0.0044
2575.00,0.0043
2574.00,0.0042
2573.00,0.0040
2572.00,0.0039
2571.00,0.0038
2570.00,0.0037
2569.00,0.0036
2568.00,0.0036
2567.00,0.0036
2566.00,0.0035
2565.00,0.0034
2564.00,0.0033
2563.00,0.0033
2562.00,0.0033
2561.00,0.0032
2560.00,0.0032
2559.00,0.0032
2558.00,0.0033
2557.00,0.0033
2556.00,0.0032
2555.00,0.0032
2554.00,0.0031
2553.00,0.0030
2552.00,0.0030
2551.00,0.0029
2550.00,0.0029
2549.00,0.0029
2548.00,0.0029
2547.00,0.0029
2546.00,0.0029
2545.00,0.0029
2544.00,0.0028
2543.00,0.0027
2542.00,0.0027
2541.00,0.0027
2540.00,0.0027
2539.00,0.0027
2538.00,0.0027
2537.00,0.0027
2536.00,0.0026
2535.00,0.0025
2534.00,0.0025
2533.00,0.0024
2532.00,0.0024
2531.00,0.0024
2530.00,0.0024
2529.00,0.0024
2528.00,0.0024
2527.00,0.0024
2526.00,0.0024
2525.00,0.0024
2524.00,0.0024
2523.00,0.0024
2522.00,0.0024
2521.00,0.0024
2520.00,0.0024
2519.00,0.0024
2518.00,0.0023
2517.00,0.0023
2516.00,0.0022
2515.00,0.0022
2514.00,0.0022
2513.00,0.0023
2512.00,0.0022
2511.00,0.0022
2510.00,0.0022
2509.00,0.0022
2508.00,0.0022
2507.00,0.0022
2506.00,0.0022
2505.00,0.0022
2504.00,0.0022
2503.00,0.0022
2502.00,0.0022
2501.00,0.0022
2500.00,0.0022
2499.00,0.0021
2498.00,0.0021
2497.00,0.0020
2496.00,0.0020
2495.00,0.0020
2494.00,0.0020
2493.00,0.0020
2492.00,0.0020
2491.00,0.0020
2490.00,0.0019
2489.00,0.0019
2488.00,0.0019
2487.00,0.0020
2486.00,0.0020
2485.00,0.0020
2484.00,0.0020
2483.00,0.0020
2482.00,0.0020
2481.00,0.0020
2480.00,0.0020
2479.00,0.0020
2478.00,0.0019
2477.00,0.0018
2476.00,0.0018
2475.00,0.0017
2474.00,0.0017
2473.00,0.0018
2472.00,0.0019
2471.00,0.0019
2470.00,0.0019
2469.00,0.0019
2468.00,0.0019
2467.00,0.0019
2466.00,0.0019
2465.00,0.0019
2464.00,0.0019
2463.00,0.0019
2462.00,0.0020
2461.00,0.0020
2460.00,0.0020
2459.00,0.0020
2458.00,0.0020
2457.00,0.0020
2456.00,0.0019
2455.00,0.0019
2454.00,0.0019
2453.00,0.0020
2452.00,0.0020
2451.00,0.0020
2450.00,0.0020
2449.00,0.0020
2448.00,0.0020
2447.00,0.0020
2446.00,0.0020
2445.00,0.0020
2444.00,0.0020
2443.00,0.0020
2442.00,0.0020
2441.00,0.0021
2440.00,0.0021
2439.00,0.0020
2438.00,0.0020
2437.00,0.0020
2436.00,0.0021
2435.00,0.0021
2434.00,0.0021
2433.00,0.0021
2432.00,0.0021
2431.00,0.0021
2430.00,0.0021
2429.00,0.0021
2428.00,0.0021
2427.00,0.0020
2426.00,0.0020
2425.00,0.0019
2424.00,0.0019
2423.00,0.0019
2422.00,0.0019
2421.00,0.0019
2420.00,0.0019
2419.00,0.0019
2418.00,0.0019
2417.00,0.0019
2416.00,0.0018
2415.00,0.0018
2414.00,0.0017
2413.00,0.0017
2412.00,0.0017
2411.00,0.0017
2410.00,0.0018
2409.00,0.0018
2408.00,0.0017
2407.00,0.0017
2406.00,0.0017
2405.00,0.0017
2404.00,0.0018
2403.00,0.0018
2402.00,0.0018
2401.00,0.0018
2400.00,0.0018
2399.00,0.0018
2398.00,0.0018
2397.00,0.0017
2396.00,0.0017
2395.00,0.0017
2394.00,0.0017
2393.00,0.0016
2392.00,0.0016
2391.00,0.0016
2390.00,0.0016
2389.00,0.0015
2388.00,0.0015
2387.00,0.0015
2386.00,0.0014
2385.00,0.0013
2384.00,0.0013
2383.00,0.0013
2382.00,0.0013
2381.00,0.0012
2380.00,0.0012
2379.00,0.0011
2378.00,0.0011
2377.00,0.0012
2376.00,0.0012
2375.00,0.0013
2374.00,0.0012
2373.00,0.0012
2372.00,0.0011
2371.00,0.0011
2370.00,0.0011
2369.00,0.0011
2368.00,0.0011
2367.00,0.0011
2366.00,0.0010
2365.00,0.0010
2364.00,0.0010
2363.00,0.0010
2362.00,0.0011
2361.00,0.0011
2360.00,0.0011
2359.00,0.0012
2358.00,0.0012
2357.00,0.0013
2356.00,0.0013
2355.00,0.0014
2354.00,0.0013
2353.00,0.0013
2352.00,0.0012
2351.00,0.0012
2350.00,0.0012
2349.00,0.0012
2348.00,0.0013
2347.00,0.0013
2346.00,0.0014
2345.00,0.0013
2344.00,0.0013
2343.00,0.0014
2342.00,0.0014
2341.00,0.0015
2340.00,0.0015
2339.00,0.0016
2338.00,0.0016
2337.00,0.0016
2336.00,0.0016
2335.00,0.0017
2334.00,0.0017
2333.00,0.0017
2332.00,0.0016
2331.00,0.0016
2330.00,0.0016
2329.00,0.0017
2328.00,0.0019
2327.00,0.0022
2326.00,0.0026
2325.00,0.0029
2324.00,0.0030
2323.00,0.0029
2322.00,0.0027
2321.00,0.0025
2320.00,0.0023
2319.00,0.0022
2318.00,0.0021
2317.00,0.0020
2316.00,0.0019
2315.00,0.0018
2314.00,0.0018
2313.00,0.0017
2312.00,0.0017
2311.00,0.0016
2310.00,0.0015
2309.00,0.0015
2308.00,0.0015
2307.00,0.0016
2306.00,0.0016
2305.00,0.0017
2304.00,0.0016
2303.00,0.0016
2302.00,0.0017
2301.00,0.0017
2300.00,0.0018
2299.00,0.0018
2298.00,0.0018
2297.00,0.0019
2296.00,0.0019
2295.00,0.0020
2294.00,0.0020
2293.00,0.0021
2292.00,0.0023
2291.00,0.0024
2290.00,0.0025
2289.00,0.0026
2288.00,0.0026
2287.00,0.0026
2286.00,0.0026
2285.00,0.0025
2284.00,0.0024
2283.00,0.0022
2282.00,0.0021
2281.00,0.0021
2280.00,0.0020
2279.00,0.0019
2278.00,0.0019
2277.00,0.0018
2276.00,0.0019
2275.00,0.0019
2274.00,0.0019
2273.00,0.0019
2272.00,0.0018
2271.00,0.0017
2270.00,0.0017
2269.00,0.0018
2268.00,0.0019
2267.00,0.0019
2266.00,0.0018
2265.00,0.0017
2264.00,0.0017
2263.00,0.0016
2262.00,0.0017
2261.00,0.0018
2260.00,0.0018
2259.00,0.0017
2258.00,0.0016
2257.00,0.0015
2256.00,0.0014
2255.00,0.0013
2254.00,0.0012
2253.00,0.0012
2252.00,0.0012
2251.00,0.0012
2250.00,0.0012
2249.00,0.0012
2248.00,0.0013
2247.00,0.0014
2246.00,0.0014
2245.00,0.0013
2244.00,0.0013
2243.00,0.0013
2242.00,0.0013
2241.00,0.0013
2240.00,0.0014
2239.00,0.0014
2238.00,0.0015
2237.00,0.0015
2236.00,0.0014
2235.00,0.0013
2234.00,0.0012
2233.00,0.0011
2232.00,0.0011
2231.00,0.0012
2230.00,0.0014
2229.00,0.0015
2228.00,0.0016
2227.00,0.0015
2226.00,0.0015
2225.00,0.0015
2224.00,0.0016
2223.00,0.0015
2222.00,0.0014
2221.00,0.0014
2220.00,0.0014
2219.00,0.0014
2218.00,0.0014
2217.00,0.0014
2216.00,0.0013
2215.00,0.0013
2214.00,0.0012
2213.00,0.0012
2212.00,0.0012
2211.00,0.0012
2210.00,0.0012
2209.00,0.0012
2208.00,0.0012
2207.00,0.0012
2206.00,0.0012
2205.00,0.0012
2204.00,0.0014
2203.00,0.0015
2202.00,0.0016
2201.00,0.0018
2200.00,0.0018
2199.00,0.0017
2198.00,0.0017
2197.00,0.0017
2196.00,0.0018
2195.00,0.0019
2194.00,0.0020
2193.00,0.0020
2192.00,0.0019
2191.00,0.0018
2190.00,0.0017
2189.00,0.0017
2188.00,0.0018
2187.00,0.0018
2186.00,0.0019
2185.00,0.0020
2184.00,0.0021
2183.00,0.0022
2182.00,0.0021
2181.00,0.0018
2180.00,0.0015
2179.00,0.0013
2178.00,0.0012
2177.00,0.0011
2176.00,0.0011
2175.00,0.0011
2174.00,0.0012
2173.00,0.0014
2172.00,0.0015
2171.00,0.0017
2170.00,0.0020
2169.00,0.0023
2168.00,0.0025
2167.00,0.0026
2166.00,0.0026
2165.00,0.0025
2164.00,0.0023
2163.00,0.0021
2162.00,0.0017
2161.00,0.0011
2160.00,0.0003
2159.00,-0.0008
2158.00,-0.0018
2157.00,-0.0024
2156.00,-0.0025
2155.00,-0.0023
2154.00,-0.0019
2153.00,-0.0015
2152.00,-0.0011
2151.00,-0.0008
2150.00,-0.0007
2149.00,-0.0006
2148.00,-0.0005
2147.00,-0.0004
2146.00,-0.0004
2145.00,-0.0004
2144.00,-0.0004
2143.00,-0.0005
2142.00,-0.0006
2141.00,-0.0006
2140.00,-0.0006
2139.00,-0.0007
2138.00,-0.0008
2137.00,-0.0008
2136.00,-0.0008
2135.00,-0.0009
2134.00,-0.0009
2133.00,-0.0010
2132.00,-0.0009
2131.00,-0.0008
2130.00,-0.0007
2129.00,-0.0005
2128.00,-0.0004
2127.00,-0.0002
2126.00,-0.0000
2125.00,0.0002
2124.00,0.0003
2123.00,0.0004
2122.00,0.0005
2121.00,0.0004
2120.00,0.0004
2119.00,0.0004
2118.00,0.0004
2117.00,0.0005
2116.00,0.0006
2115.00,0.0006
2114.00,0.0006
2113.00,0.0007
2112.00,0.0007
2111.00,0.0008
2110.00,0.0009
2109.00,0.0009
2108.00,0.0009
2107.00,0.0009
2106.00,0.0009
2105.00,0.0010
2104.00,0.0011
2103.00,0.0013
2102.00,0.0014
2101.00,0.0014
2100.00,0.0013
2099.00,0.0013
2098.00,0.0012
2097.00,0.0011
2096.00,0.0009
2095.00,0.0008
2094.00,0.0008
2093.00,0.0008
2092.00,0.0009
2091.00,0.0009
2090.00,0.0010
2089.00,0.0011
2088.00,0.0012
2087.00,0.0012
2086.00,0.0011
2085.00,0.0010
2084.00,0.0010
2083.00,0.0010
2082.00,0.0010
2081.00,0.0011
2080.00,0.0012
2079.00,0.0012
2078.00,0.0012
2077.00,0.0011
2076.00,0.0011
2075.00,0.0011
2074.00,0.0012
2073.00,0.0012
2072.00,0.0012
2071.00,0.0011
2070.00,0.0008
2069.00,0.0006
2068.00,0.0005
2067.00,0.0005
2066.00,0.0007
2065.00,0.0009
2064.00,0.0010
2063.00,0.0010
2062.00,0.0009
2061.00,0.0010
2060.00,0.0010
2059.00,0.0011
2058.00,0.0013
2057.00,0.0014
2056.00,0.0014
2055.00,0.0012
2054.00,0.0011
2053.00,0.0013
2052.00,0.0017
2051.00,0.0019
2050.00,0.0017
2049.00,0.0012
2048.00,0.0007
2047.00,0.0005
2046.00,0.0005
2045.00,0.0006
2044.00,0.0007
2043.00,0.0008
2042.00,0.0008
2041.00,0.0009
2040.00,0.0009
2039.00,0.0008
2038.00,0.0008
2037.00,0.0008
2036.00,0.0007
2035.00,0.0005
2034.00,0.0003
2033.00,0.0002
2032.00,0.0001
2031.00,-0.0001
2030.00,-0.0004
2029.00,-0.0005
2028.00,-0.0004
2027.00,-0.0003
2026.00,-0.0002
2025.00,-0.0003
2024.00,-0.0004
2023.00,-0.0005
2022.00,-0.0005
2021.00,-0.0003
2020.00,-0.0001
2019.00,-0.0001
2018.00,-0.0001
2017.00,-0.0001
2016.00,-0.0002
2015.00,-0.0004
2014.00,-0.0007
2013.00,-0.0007
2012.00,-0.0005
2011.00,-0.0001
2010.00,0.0002
2009.00,0.0002
2008.00,-0.0002
2007.00,-0.0006
2006.00,-0.0010
2005.00,-0.0010
2004.00,-0.0007
2003.00,-0.0002
2002.00,0.0002
2001.00,0.0005
2000.00,0.0007
1999.00,0.0007
1998.00,0.0005
1997.00,0.0003
1996.00,0.0002
1995.00,0.0000
1994.00,-0.0000
1993.00,0.0001
1992.00,0.0003
1991.00,0.0005
1990.00,0.0008
1989.00,0.0010
1988.00,0.0012
1987.00,0.0012
1986.00,0.0012
1985.00,0.0011
1984.00,0.0011
1983.00,0.0011
1982.00,0.0013
1981.00,0.0015
1980.00,0.0016
1979.00,0.0011
1978.00,0.0003
1977.00,-0.0004
1976.00,-0.0008
1975.00,-0.0009
1974.00,-0.0009
1973.00,-0.0008
1972.00,-0.0007
1971.00,-0.0006
1970.00,-0.0007
1969.00,-0.0008
1968.00,-0.0008
1967.00,-0.0008
1966.00,-0.0008
1965.00,-0.0006
1964.00,-0.0004
1963.00,-0.0003
1962.00,-0.0004
1961.00,-0.0004
1960.00,-0.0005
1959.00,-0.0007
1958.00,-0.0010
1957.00,-0.0012
1956.00,-0.0015
1955.00,-0.0016
1954.00,-0.0016
1953.00,-0.0014
1952.00,-0.0011
1951.00,-0.0009
1950.00,-0.0008
1949.00,-0.0008
1948.00,-0.0009
1947.00,-0.0011
1946.00,-0.0012
1945.00,-0.0012
1944.00,-0.0011
1943.00,-0.0010
1942.00,-0.0009
1941.00,-0.0008
1940.00,-0.0008
1939.00,-0.0007
1938.00,-0.0008
1937.00,-0.0008
1936.00,-0.0007
1935.00,-0.0006
1934.00,-0.0006
1933.00,-0.0007
1932.00,-0.0007
1931.00,-0.0007
1930.00,-0.0007
1929.00,-0.0005
1928.00,-0.0003
1927.00,-0.0002
1926.00,-0.0002
1925.00,-0.0002
1924.00,-0.0002
1923.00,-0.0002
1922.00,-0.0002
1921.00,-0.0001
1920.00,0.0001
1919.00,0.0002
1918.00,0.0002
1917.00,0.0002
1916.00,0.0001
1915.00,-0.0000
1914.00,-0.0001
1913.00,0.0000
1912.00,0.0001
1911.00,0.0002
1910.00,0.0002
1909.00,0.0003
1908.00,0.0004
1907.00,0.0005
1906.00,0.0006
1905.00,0.0007
1904.00,0.0007
1903.00,0.0007
1902.00,0.0007
1901.00,0.0008
1900.00,0.0008
1899.00,0.0008
1898.00,0.0006
1897.00,0.0006
1896.00,0.0006
1895.00,0.0007
1894.00,0.0008
1893.00,0.0008
1892.00,0.0008
1891.00,0.0008
1890.00,0.0008
1889.00,0.0008
1888.00,0.0008
1887.00,0.0008
1886.00,0.0008
1885.00,0.0007
1884.00,0.0008
1883.00,0.0008
1882.00,0.0008
1881.00,0.0008
1880.00,0.0008
1879.00,0.0008
1878.00,0.0007
1877.00,0.0006
1876.00,0.0005
1875.00,0.0004
1874.00,0.0004
1873.00,0.0004
1872.00,0.0004
1871.00,0.0005
1870.00,0.0005
1869.00,0.0005
1868.00,0.0006
1867.00,0.0006
1866.00,0.0006
1865.00,0.0007
1864.00,0.0007
1863.00,0.0007
1862.00,0.0007
1861.00,0.0007
1860.00,0.0007
1859.00,0.0007
1858.00,0.0007
1857.00,0.0007
1856.00,0.0007
1855.00,0.0007
1854.00,0.0008
1853.00,0.0008
1852.00,0.0009
1851.00,0.0009
1850.00,0.0009
1849.00,0.0009
1848.00,0.0009
1847.00,0.0009
1846.00,0.0009
1845.00,0.0009
1844.00,0.0009
1843.00,0.0009
1842.00,0.0009
1841.00,0.0010
1840.00,0.0011
1839.00,0.0011
1838.00,0.0011
1837.00,0.0011
1836.00,0.0010
1835.00,0.0011
1834.00,0.0011
1833.00,0.0011
1832.00,0.0011
1831.00,0.0010
1830.00,0.0010
1829.00,0.0010
1828.00,0.0010
1827.00,0.0010
1826.00,0.0010
1825.00,0.0010
1824.00,0.0010
1823.00,0.0010
1822.00,0.0010
1821.00,0.0010
1820.00,0.0009
1819.00,0.0009
1818.00,0.0008
1817.00,0.0008
1816.00,0.0008
1815.00,0.0009
1814.00,0.0009
1813.00,0.0009
1812.00,0.0009
1811.00,0.0009
1810.00,0.0009
1809.00,0.0009
1808.00,0.0010
1807.00,0.0010
1806.00,0.0010
1805.00,0.0011
1804.00,0.0011
1803.00,0.0012
1802.00,0.0012
1801.00,0.0012
1800.00,0.0012
1799.00,0.0013
1798.00,0.0013
1797.00,0.0013
1796.00,0.0014
1795.00,0.0014
1794.00,0.0015
1793.00,0.0015
1792.00,0.0016
1791.00,0.0016
1790.00,0.0017
1789.00,0.0017
1788.00,0.0018
1787.00,0.0018
1786.00,0.0019
1785.00,0.0020
1784.00,0.0021
1783.00,0.0021
1782.00,0.0021
1781.00,0.0021
1780.00,0.0021
1779.00,0.0021
1778.00,0.0021
1777.00,0.0020
1776.00,0.0020
1775.00,0.0020
1774.00,0.0020
1773.00,0.0020
1772.00,0.0021
1771.00,0.0023
1770.00,0.0024
1769.00,0.0025
1768.00,0.0025
1767.00,0.0025
1766.00,0.0024
1765.00,0.0024
1764.00,0.0025
1763.00,0.0025
1762.00,0.0025
1761.00,0.0025
1760.00,0.0025
1759.00,0.0026
1758.00,0.0026
1757.00,0.0027
1756.00,0.0028
1755.00,0.0029
1754.00,0.0030
1753.00,0.0030
1752.00,0.0031
1751.00,0.0032
1750.00,0.0032
1749.00,0.0031
1748.00,0.0031
1747.00,0.0031
1746.00,0.0032
1745.00,0.0033
1744.00,0.0034
1743.00,0.0034
1742.00,0.0035
1741.00,0.0035
1740.00,0.0035
1739.00,0.0035
1738.00,0.0035
1737.00,0.0035
1736.00,0.0036
1735.00,0.0036
1734.00,0.0037
1733.00,0.0038
1732.00,0.0038
1731.00,0.0038
1730.00,0.0038
1729.00,0.0037
1728.00,0.0037
1727.00,0.0037
1726.00,0.0037
1725.00,0.0037
1724.00,0.0037
1723.00,0.0037
1722.00,0.0037
1721.00,0.0037
1720.00,0.0037
1719.00,0.0036
1718.00,0.0034
1717.00,0.0034
1716.00,0.0034
1715.00,0.0035
1714.00,0.0036
1713.00,0.0037
1712.00,0.0038
1711.00,0.0038
1710.00,0.0039
1709.00,0.0039
1708.00,0.0039
1707.00,0.0038
1706.00,0.0038
1705.00,0.0038
1704.00,0.0039
1703.00,0.0040
1702.00,0.0041
1701.00,0.0042
1700.00,0.0043
1699.00,0.0043
1698.00,0.0044
1697.00,0.0045
1696.00,0.0047
1695.00,0.0049
1694.00,0.0050
1693.00,0.0051
1692.00,0.0052
1691.00,0.0053
1690.00,0.0054
1689.00,0.0055
1688.00,0.0056
1687.00,0.0057
1686.00,0.0057
1685.00,0.0058
1684.00,0.0060
1683.00,0.0062
1682.00,0.0065
1681.00,0.0067
1680.00,0.0070
1679.00,0.0071
1678.00,0.0071
1677.00,0.0072
1676.00,0.0073
1675.00,0.0075
1674.00,0.0076
1673.00,0.0078
1672.00,0.0079
1671.00,0.0080
1670.00,0.0081
1669.00,0.0083
1668.00,0.0085
1667.00,0.0087
1666.00,0.0088
1665.00,0.0090
1664.00,0.0091
1663.00,0.0093
1662.00,0.0095
1661.00,0.0097
1660.00,0.0099
1659.00,0.0101
1658.00,0.0102
1657.00,0.0103
1656.00,0.0104
1655.00,0.0105
1654.00,0.0106
1653.00,0.0108
1652.00,0.0110
1651.00,0.0111
1650.00,0.0112
1649.00,0.0113
1648.00,0.0114
1647.00,0.0116
1646.00,0.0118
1645.00,0.0120
1644.00,0.0121
1643.00,0.0122
1642.00,0.0123
1641.00,0.0124
1640.00,0.0124
1639.00,0.0124
1638.00,0.0124
1637.00,0.0124
1636.00,0.0124
1635.00,0.0124
1634.00,0.0124
1633.00,0.0124
1632.00,0.0124
1631.00,0.0123
1630.00,0.0123
1629.00,0.0122
1628.00,0.0121
1627.00,0.0120
1626.00,0.0119
1625.00,0.0118
1624.00,0.0117
1623.00,0.0116
1622.00,0.0116
1621.00,0.0116
1620.00,0.0116
1619.00,0.0115
1618.00,0.0114
1617.00,0.0113
1616.00,0.0113
1615.00,0.0113
1614.00,0.0114
1613.00,0.0114
1612.00,0.0114
1611.00,0.0114
1610.00,0.0114
1609.00,0.0114
1608.00,0.0114
1607.00,0.0114
1606.00,0.0114
1605.00,0.0114
1604.00,0.0114
1603.00,0.0114
1602.00,0.0113
1601.00,0.0112
1600.00,0.0112
1599.00,0.0111
1598.00,0.0111
1597.00,0.0111
1596.00,0.0110
1595.00,0.0109
1594.00,0.0109
1593.00,0.0108
1592.00,0.0109
1591.00,0.0109
1590.00,0.0110
1589.00,0.0110
1588.00,0.0111
1587.00,0.0112
1586.00,0.0114
1585.00,0.0116
1584.00,0.0119
1583.00,0.0122
1582.00,0.0124
1581.00,0.0127
1580.00,0.0130
1579.00,0.0131
1578.00,0.0132
1577.00,0.0132
1576.00,0.0131
1575.00,0.0129
1574.00,0.0128
1573.00,0.0126
1572.00,0.0125
1571.00,0.0122
1570.00,0.0119
1569.00,0.0117
1568.00,0.0115
1567.00,0.0115
1566.00,0.0114
1565.00,0.0115
1564.00,0.0115
1563.00,0.0116
1562.00,0.0117
1561.00,0.0118
1560.00,0.0118
1559.00,0.0119
1558.00,0.0120
1557.00,0.0122
1556.00,0.0124
1555.00,0.0126
1554.00,0.0129
1553.00,0.0131
1552.00,0.0133
1551.00,0.0135
1550.00,0.0137
1549.00,0.0140
1548.00,0.0143
1547.00,0.0145
1546.00,0.0148
1545.00,0.0151
1544.00,0.0154
1543.00,0.0156
1542.00,0.0156
1541.00,0.0157
1540.00,0.0157
1539.00,0.0155
1538.00,0.0152
1537.00,0.0149
1536.00,0.0146
1535.00,0.0141
1534.00,0.0135
1533.00,0.0130
1532.00,0.0127
1531.00,0.0124
1530.00,0.0121
1529.00,0.0118
1528.00,0.0116
1527.00,0.0113
1526.00,0.0110
1525.00,0.0108
1524.00,0.0107
1523.00,0.0106
1522.00,0.0104
1521.00,0.0103
1520.00,0.0103
1519.00,0.0102
1518.00,0.0102
1517.00,0.0102
1516.00,0.0103
1515.00,0.0103
1514.00,0.0103
1513.00,0.0104
1512.00,0.0105
1511.00,0.0106
1510.00,0.0106
1509.00,0.0107
1508.00,0.0108
1507.00,0.0109
1506.00,0.0112
1505.00,0.0115
1504.00,0.0119
1503.00,0.0122
1502.00,0.0126
1501.00,0.0130
1500.00,0.0136
1499.00,0.0142
1498.00,0.0149
1497.00,0.0159
1496.00,0.0170
1495.00,0.0179
1494.00,0.0187
1493.00,0.0194
1492.00,0.0201
1491.00,0.0207
1490.00,0.0213
1489.00,0.0220
1488.00,0.0228
1487.00,0.0234
1486.00,0.0241
1485.00,0.0247
1484.00,0.0255
1483.00,0.0263
1482.00,0.0273
1481.00,0.0286
1480.00,0.0300
1479.00,0.0315
1478.00,0.0334
1477.00,0.0359
1476.00,0.0391
1475.00,0.0427
1474.00,0.0471
1473.00,0.0525
1472.00,0.0583
1471.00,0.0635
1470.00,0.0686
1469.00,0.0742
1468.00,0.0807
1467.00,0.0884
1466.00,0.0979
1465.00,0.1088
1464.00,0.1185
1463.00,0.1252
1462.00,0.1292
1461.00,0.1318
1460.00,0.1335
1459.00,0.1345
1458.00,0.1352
1457.00,0.1357
1456.00,0.1355
1455.00,0.1346
1454.00,0.1335
1453.00,0.1317
1452.00,0.1290
1451.00,0.1250
1450.00,0.1195
1449.00,0.1118
1448.00,0.1021
1447.00,0.0919
1446.00,0.0829
1445.00,0.0752
1444.00,0.0688
1443.00,0.0635
1442.00,0.0595
1441.00,0.0568
1440.00,0.0552
1439.00,0.0546
1438.00,0.0548
1437.00,0.0549
1436.00,0.0537
1435.00,0.0509
1434.00,0.0469
1433.00,0.0422
1432.00,0.0373
1431.00,0.0330
1430.00,0.0298
1429.00,0.0275
1428.00,0.0260
1427.00,0.0252
1426.00,0.0248
1425.00,0.0244
1424.00,0.0240
1423.00,0.0240
1422.00,0.0241
1421.00,0.0241
1420.00,0.0242
1419.00,0.0244
1418.00,0.0247
1417.00,0.0248
1416.00,0.0248
1415.00,0.0251
1414.00,0.0255
1413.00,0.0258
1412.00,0.0263
1411.00,0.0269
1410.00,0.0277
1409.00,0.0284
1408.00,0.0291
1407.00,0.0300
1406.00,0.0311
1405.00,0.0324
1404.00,0.0338
1403.00,0.0354
1402.00,0.0371
1401.00,0.0388
1400.00,0.0407
1399.00,0.0428
1398.00,0.0447
1397.00,0.0465
1396.00,0.0482
1395.00,0.0500
1394.00,0.0515
1393.00,0.0526
1392.00,0.0534
1391.00,0.0543
1390.00,0.0555
1389.00,0.0575
1388.00,0.0604
1387.00,0.0646
1386.00,0.0699
1385.00,0.0766
1384.00,0.0853
1383.00,0.0968
1382.00,0.1116
1381.00,0.1303
1380.00,0.1534
1379.00,0.1798
1378.00,0.2057
1377.00,0.2251
1376.00,0.2321
1375.00,0.2227
1374.00,0.1990
1373.00,0.1694
1372.00,0.1417
1371.00,0.1182
1370.00,0.0989
1369.00,0.0839
1368.00,0.0733
1367.00,0.0664
1366.00,0.0624
1365.00,0.0604
1364.00,0.0600
1363.00,0.0607
1362.00,0.0624
1361.00,0.0642
1360.00,0.0656
1359.00,0.0657
1358.00,0.0641
1357.00,0.0609
1356.00,0.0565
1355.00,0.0515
1354.00,0.0467
1353.00,0.0425
1352.00,0.0392
1351.00,0.0365
1350.00,0.0342
1349.00,0.0325
1348.00,0.0310
1347.00,0.0299
1346.00,0.0289
1345.00,0.0281
1344.00,0.0274
1343.00,0.0268
1342.00,0.0261
1341.00,0.0255
1340.00,0.0249
1339.00,0.0243
1338.00,0.0238
1337.00,0.0235
1336.00,0.0234
1335.00,0.0233
1334.00,0.0234
1333.00,0.0236
1332.00,0.0238
1331.00,0.0239
1330.00,0.0237
1329.00,0.0233
1328.00,0.0226
1327.00,0.0218
1326.00,0.0209
1325.00,0.0200
1324.00,0.0191
1323.00,0.0183
1322.00,0.0176
1321.00,0.0171
1320.00,0.0166
1319.00,0.0162
1318.00,0.0159
1317.00,0.0156
1316.00,0.0153
1315.00,0.0151
1314.00,0.0149
1313.00,0.0148
1312.00,0.0148
1311.00,0.0150
1310.00,0.0153
1309.00,0.0159
1308.00,0.0168
1307.00,0.0179
1306.00,0.0189
1305.00,0.0197
1304.00,0.0199
1303.00,0.0197
1302.00,0.0193
1301.00,0.0190
1300.00,0.0188
1299.00,0.0188
1298.00,0.0189
1297.00,0.0190
1296.00,0.0190
1295.00,0.0188
1294.00,0.0184
1293.00,0.0179
1292.00,0.0175
1291.00,0.0170
1290.00,0.0167
1289.00,0.0164
1288.00,0.0162
1287.00,0.0160
1286.00,0.0160
1285.00,0.0161
1284.00,0.0162
1283.00,0.0163
1282.00,0.0165
1281.00,0.0167
1280.00,0.0171
1279.00,0.0175
1278.00,0.0180
1277.00,0.0185
1276.00,0.0192
1275.00,0.0198
1274.00,0.0206
1273.00,0.0214
1272.00,0.0223
1271.00,0.0233
1270.00,0.0243
1269.00,0.0253
1268.00,0.0263
1267.00,0.0273
1266.00,0.0283
1265.00,0.0293
1264.00,0.0303
1263.00,0.0310
1262.00,0.0316
1261.00,0.0322
1260.00,0.0329
1259.00,0.0337
1258.00,0.0347
1257.00,0.0357
1256.00,0.0366
1255.00,0.0371
1254.00,0.0372
1253.00,0.0371
1252.00,0.0366
1251.00,0.0358
1250.00,0.0349
1249.00,0.0338
1248.00,0.0328
1247.00,0.0319
1246.00,0.0312
1245.00,0.0307
1244.00,0.0304
1243.00,0.0302
1242.00,0.0299
1241.00,0.0297
1240.00,0.0293
1239.00,0.0289
1238.00,0.0284
1237.00,0.0279
1236.00,0.0272
1235.00,0.0265
1234.00,0.0258
1233.00,0.0251
1232.00,0.0243
1231.00,0.0236
1230.00,0.0229
1229.00,0.0222
1228.00,0.0215
1227.00,0.0210
1226.00,0.0205
1225.00,0.0202
1224.00,0.0200
1223.00,0.0198
1222.00,0.0197
1221.00,0.0196
1220.00,0.0194
1219.00,0.0191
1218.00,0.0187
1217.00,0.0182
1216.00,0.0177
1215.00,0.0171
1214.00,0.0165
1213.00,0.0159
1212.00,0.0154
1211.00,0.0150
1210.00,0.0146
1209.00,0.0143
1208.00,0.0141
1207.00,0.0140
1206.00,0.0139
1205.00,0.0138
1204.00,0.0138
1203.00,0.0138
1202.00,0.0138
1201.00,0.0139
1200.00,0.0139
1199.00,0.0141
1198.00,0.0143
1197.00,0.0146
1196.00,0.0148
1195.00,0.0151
1194.00,0.0155
1193.00,0.0159
1192.00,0.0164
1191.00,0.0170
1190.00,0.0177
1189.00,0.0184
1188.00,0.0192
1187.00,0.0200
1186.00,0.0209
1185.00,0.0218
1184.00,0.0228
1183.00,0.0238
1182.00,0.0249
1181.00,0.0261
1180.00,0.0274
1179.00,0.0287
1178.00,0.0302
1177.00,0.0318
1176.00,0.0337
1175.00,0.0359
1174.00,0.0386
1173.00,0.0418
1172.00,0.0455
1171.00,0.0496
1170.00,0.0535
1169.00,0.0569
1168.00,0.0593
1167.00,0.0605
1166.00,0.0608
1165.00,0.0603
1164.00,0.0595
1163.00,0.0585
1162.00,0.0576
1161.00,0.0570
1160.00,0.0566
1159.00,0.0566
1158.00,0.0567
1157.00,0.0568
1156.00,0.0571
1155.00,0.0572
1154.00,0.0574
1153.00,0.0574
1152.00,0.0573
1151.00,0.0568
1150.00,0.0558
1149.00,0.0546
1148.00,0.0531
1147.00,0.0516
1146.00,0.0500
1145.00,0.0485
1144.00,0.0472
1143.00,0.0459
1142.00,0.0448
1141.00,0.0439
1140.00,0.0430
1139.00,0.0421
1138.00,0.0413
1137.00,0.0404
1136.00,0.0394
1135.00,0.0385
1134.00,0.0377
1133.00,0.0371
1132.00,0.0367
1131.00,0.0364
1130.00,0.0361
1129.00,0.0357
1128.00,0.0354
1127.00,0.0350
1126.00,0.0347
1125.00,0.0343
1124.00,0.0339
1123.00,0.0334
1122.00,0.0331
1121.00,0.0328
1120.00,0.0325
1119.00,0.0322
1118.00,0.0319
1117.00,0.0316
1116.00,0.0312
1115.00,0.0309
1114.00,0.0305
1113.00,0.0302
1112.00,0.0299
1111.00,0.0298
1110.00,0.0298
1109.00,0.0299
1108.00,0.0303
1107.00,0.0308
1106.00,0.0315
1105.00,0.0323
1104.00,0.0330
1103.00,0.0336
1102.00,0.0339
1101.00,0.0341
1100.00,0.0340
1099.00,0.0339
1098.00,0.0338
1097.00,0.0339
1096.00,0.0341
1095.00,0.0345
1094.00,0.0349
1093.00,0.0353
1092.00,0.0358
1091.00,0.0363
1090.00,0.0366
1089.00,0.0368
1088.00,0.0370
1087.00,0.0371
1086.00,0.0372
1085.00,0.0373
1084.00,0.0374
1083.00,0.0374
1082.00,0.0374
1081.00,0.0373
1080.00,0.0372
1079.00,0.0371
1078.00,0.0370
1077.00,0.0370
1076.00,0.0370
1075.00,0.0372
1074.00,0.0375
1073.00,0.0377
1072.00,0.0376
1071.00,0.0372
1070.00,0.0364
1069.00,0.0355
1068.00,0.0345
1067.00,0.0335
1066.00,0.0325
1065.00,0.0318
1064.00,0.0312
1063.00,0.0306
1062.00,0.0300
1061.00,0.0294
1060.00,0.0288
1059.00,0.0282
1058.00,0.0275
1057.00,0.0267
1056.00,0.0259
1055.00,0.0251
1054.00,0.0242
1053.00,0.0234
1052.00,0.0227
1051.00,0.0219
1050.00,0.0213
1049.00,0.0208
1048.00,0.0205
1047.00,0.0202
1046.00,0.0199
1045.00,0.0195
1044.00,0.0189
1043.00,0.0184
1042.00,0.0178
1041.00,0.0172
1040.00,0.0167
1039.00,0.0162
1038.00,0.0159
1037.00,0.0158
1036.00,0.0157
1035.00,0.0156
1034.00,0.0154
1033.00,0.0151
1032.00,0.0149
1031.00,0.0146
1030.00,0.0143
1029.00,0.0140
1028.00,0.0138
1027.00,0.0137
1026.00,0.0136
1025.00,0.0136
1024.00,0.0135
1023.00,0.0134
1022.00,0.0134
1021.00,0.0133
1020.00,0.0133
1019.00,0.0134
1018.00,0.0135
1017.00,0.0137
1016.00,0.0138
1015.00,0.0141
1014.00,0.0144
1013.00,0.0147
1012.00,0.0150
1011.00,0.0152
1010.00,0.0155
1009.00,0.0157
1008.00,0.0162
1007.00,0.0168
1006.00,0.0176
1005.00,0.0186
1004.00,0.0200
1003.00,0.0220
1002.00,0.0246
1001.00,0.0279
1000.00,0.0314
999.00,0.0343
998.00,0.0356
997.00,0.0350
996.00,0.0325
995.00,0.0291
994.00,0.0255
993.00,0.0223
992.00,0.0198
991.00,0.0180
990.00,0.0167
989.00,0.0159
988.00,0.0154
987.00,0.0154
986.00,0.0156
985.00,0.0163
984.00,0.0172
983.00,0.0185
982.00,0.0203
981.00,0.0226
980.00,0.0256
979.00,0.0295
978.00,0.0342
977.00,0.0397
976.00,0.0457
975.00,0.0517
974.00,0.0568
973.00,0.0599
972.00,0.0607
971.00,0.0593
970.00,0.0564
969.00,0.0530
968.00,0.0500
967.00,0.0474
966.00,0.0454
965.00,0.0436
964.00,0.0421
963.00,0.0408
962.00,0.0400
961.00,0.0397
960.00,0.0401
959.00,0.0410
958.00,0.0419
957.00,0.0424
956.00,0.0426
955.00,0.0425
954.00,0.0424
953.00,0.0422
952.00,0.0418
951.00,0.0411
950.00,0.0401
949.00,0.0392
948.00,0.0384
947.00,0.0380
946.00,0.0378
945.00,0.0377
944.00,0.0378
943.00,0.0378
942.00,0.0376
941.00,0.0371
940.00,0.0362
939.00,0.0349
938.00,0.0333
937.00,0.0315
936.00,0.0296
935.00,0.0277
934.00,0.0259
933.00,0.0242
932.00,0.0226
931.00,0.0210
930.00,0.0195
929.00,0.0181
928.00,0.0169
927.00,0.0160
926.00,0.0152
925.00,0.0145
924.00,0.0139
923.00,0.0134
922.00,0.0130
921.00,0.0128
920.00,0.0126
919.00,0.0124
918.00,0.0122
917.00,0.0119
916.00,0.0116
915.00,0.0114
914.00,0.0113
913.00,0.0112
912.00,0.0112
911.00,0.0112
910.00,0.0112
909.00,0.0113
908.00,0.0115
907.00,0.0118
906.00,0.0125
905.00,0.0135
904.00,0.0150
903.00,0.0169
902.00,0.0190
901.00,0.0209
900.00,0.0222
899.00,0.0224
898.00,0.0216
897.00,0.0200
896.00,0.0179
895.00,0.0158
894.00,0.0141
893.00,0.0127
892.00,0.0118
891.00,0.0111
890.00,0.0106
889.00,0.0102
888.00,0.0100
887.00,0.0098
886.00,0.0098
885.00,0.0099
884.00,0.0100
883.00,0.0101
882.00,0.0102
881.00,0.0103
880.00,0.0104
879.00,0.0105
878.00,0.0105
877.00,0.0106
876.00,0.0105
875.00,0.0105
874.00,0.0104
873.00,0.0103
872.00,0.0102
871.00,0.0102
870.00,0.0102
869.00,0.0102
868.00,0.0102
867.00,0.0102
866.00,0.0101
865.00,0.0100
864.00,0.0100
863.00,0.0100
862.00,0.0100
861.00,0.0102
860.00,0.0105
859.00,0.0107
858.00,0.0110
857.00,0.0112
856.00,0.0113
855.00,0.0114
854.00,0.0115
853.00,0.0118
852.00,0.0121
851.00,0.0125
850.00,0.0130
849.00,0.0137
848.00,0.0146
847.00,0.0160
846.00,0.0182
845.00,0.0216
844.00,0.0259
843.00,0.0306
842.00,0.0342
841.00,0.0352
840.00,0.0333
839.00,0.0294
838.00,0.0254
837.00,0.0222
836.00,0.0203
835.00,0.0192
834.00,0.0187
833.00,0.0185
832.00,0.0184
831.00,0.0184
830.00,0.0185
829.00,0.0185
828.00,0.0184
827.00,0.0182
826.00,0.0179
825.00,0.0178
824.00,0.0179
823.00,0.0180
822.00,0.0181
821.00,0.0183
820.00,0.0184
819.00,0.0187
818.00,0.0192
817.00,0.0200
816.00,0.0209
815.00,0.0221
814.00,0.0234
813.00,0.0250
812.00,0.0267
811.00,0.0283
810.00,0.0296
809.00,0.0302
808.00,0.0299
807.00,0.0289
806.00,0.0272
805.00,0.0252
804.00,0.0233
803.00,0.0217
802.00,0.0204
801.00,0.0192
800.00,0.0182
799.00,0.0172
798.00,0.0164
797.00,0.0158
796.00,0.0153
795.00,0.0148
794.00,0.0143
793.00,0.0138
792.00,0.0133
791.00,0.0128
790.00,0.0123
789.00,0.0119
788.00,0.0114
787.00,0.0110
786.00,0.0108
785.00,0.0106
784.00,0.0105
783.00,0.0103
782.00,0.0100
781.00,0.0098
780.00,0.0095
779.00,0.0094
778.00,0.0093
777.00,0.0093
776.00,0.0093
775.00,0.0095
774.00,0.0096
773.00,0.0098
772.00,0.0100
771.00,0.0102
770.00,0.0104
769.00,0.0105
768.00,0.0105
767.00,0.0105
766.00,0.0105
765.00,0.0105
764.00,0.0104
763.00,0.0102
762.00,0.0099
761.00,0.0097
760.00,0.0095
759.00,0.0093
758.00,0.0091
757.00,0.0089
756.00,0.0087
755.00,0.0085
754.00,0.0085
753.00,0.0086
752.00,0.0087
751.00,0.0087
750.00,0.0087
749.00,0.0087
748.00,0.0088
747.00,0.0089
746.00,0.0092
745.00,0.0093
744.00,0.0094
743.00,0.0094
742.00,0.0094
741.00,0.0095
740.00,0.0097
739.00,0.0100
738.00,0.0103
737.00,0.0107
736.00,0.0111
735.00,0.0115
734.00,0.0117
733.00,0.0118
732.00,0.0118
731.00,0.0119
730.00,0.0119
729.00,0.0120
728.00,0.0120
727.00,0.0121
726.00,0.0120
725.00,0.0119
724.00,0.0117
723.00,0.0116
722.00,0.0116
721.00,0.0116
720.00,0.0114
719.00,0.0111
718.00,0.0107
717.00,0.0105
716.00,0.0104
715.00,0.0103
714.00,0.0102
713.00,0.0100
712.00,0.0100
711.00,0.0101
710.00,0.0102
709.00,0.0103
708.00,0.0104
707.00,0.0107
706.00,0.0111
705.00,0.0113
704.00,0.0113
703.00,0.0111
702.00,0.0107
701.00,0.0103
700.00,0.0098
699.00,0.0094
698.00,0.0092
697.00,0.0091
696.00,0.0090
695.00,0.0089
694.00,0.0089
693.00,0.0089
692.00,0.0090
691.00,0.0092
690.00,0.0094
689.00,0.0096
688.00,0.0095
687.00,0.0093
686.00,0.0092
685.00,0.0091
684.00,0.0092
683.00,0.0094
682.00,0.0096
681.00,0.0097
680.00,0.0097
679.00,0.0096
678.00,0.0094
677.00,0.0093
676.00,0.0091
675.00,0.0091
674.00,0.0093
673.00,0.0095
672.00,0.0098
671.00,0.0101
670.00,0.0104
669.00,0.0105
668.00,0.0105
667.00,0.0103
666.00,0.0101
665.00,0.0098
664.00,0.0098
663.00,0.0099
662.00,0.0100
661.00,0.0099
660.00,0.0096
659.00,0.0094
658.00,0.0092
657.00,0.0092
656.00,0.0092
655.00,0.0093
654.00,0.0092
653.00,0.0091
652.00,0.0090
651.00,0.0090
650.00,0.0092
649.00,0.0094
648.00,0.0096
647.00,0.0097
646.00,0.0097
645.00,0.0098
644.00,0.0098
643.00,0.0097
642.00,0.0096
641.00,0.0095
640.00,0.0094
639.00,0.0096
638.00,0.0099
637.00,0.0100
636.00,0.0099
635.00,0.0096
634.00,0.0095
633.00,0.0095
632.00,0.0095
631.00,0.0096
630.00,0.0097
629.00,0.0099
628.00,0.0101
627.00,0.0101
626.00,0.0101
625.00,0.0101
624.00,0.0101
623.00,0.0102
622.00,0.0103
621.00,0.0104
620.00,0.0105
619.00,0.0106
618.00,0.0107
617.00,0.0107
616.00,0.0108
615.00,0.0110
614.00,0.0110
613.00,0.0110
612.00,0.0109
611.00,0.0108
610.00,0.0109
609.00,0.0110
608.00,0.0110
607.00,0.0107
606.00,0.0105
605.00,0.0103
604.00,0.0103
603.00,0.0104
602.00,0.0103
601.00,0.0101
600.00,0.0097
599.00,0.0094
598.00,0.0093
597.00,0.0095
596.00,0.0099
595.00,0.0102
594.00,0.0103
593.00,0.0103
592.00,0.0102
591.00,0.0102
590.00,0.0103
589.00,0.0104
588.00,0.0104
587.00,0.0103
586.00,0.0102
585.00,0.0103
584.00,0.0105
583.00,0.0108
582.00,0.0110
581.00,0.0109
580.00,0.0107
579.00,0.0105
578.00,0.0104
577.00,0.0105
576.00,0.0106
575.00,0.0105
574.00,0.0102
573.00,0.0100
572.00,0.0098
571.00,0.0099
570.00,0.0102
569.00,0.0104
568.00,0.0104
567.00,0.0102
566.00,0.0100
565.00,0.0098
564.00,0.0097
563.00,0.0098
562.00,0.0101
561.00,0.0104
560.00,0.0106
559.00,0.0107
558.00,0.0107
557.00,0.0109
556.00,0.0111
555.00,0.0113
554.00,0.0112
553.00,0.0110
552.00,0.0106
551.00,0.0102
550.00,0.0099
549.00,0.0100
548.00,0.0102
547.00,0.0104
546.00,0.0103
545.00,0.0102
544.00,0.0103
543.00,0.0105
542.00,0.0108
541.00,0.0110
540.00,0.0111
539.00,0.0111
538.00,0.0111
537.00,0.0113
536.00,0.0116
535.00,0.0120
534.00,0.0125
533.00,0.0130
532.00,0.0133
531.00,0.0135
530.00,0.0137
529.00,0.0138
528.00,0.0138
527.00,0.0136
526.00,0.0131
525.00,0.0124
524.00,0.0119
523.00,0.0118
522.00,0.0120
521.00,0.0122
520.00,0.0120
519.00,0.0116
518.00,0.0112
517.00,0.0112
516.00,0.0115
515.00,0.0118
514.00,0.0118
513.00,0.0116
512.00,0.0115
511.00,0.0114
510.00,0.0114
509.00,0.0112
508.00,0.0108
507.00,0.0105
506.00,0.0107
505.00,0.0115
504.00,0.0126
503.00,0.0136
502.00,0.0141
501.00,0.0140
500.00,0.0136
499.00,0.0134
498.00,0.0133
497.00,0.0133
496.00,0.0130
495.00,0.0124
494.00,0.0119
493.00,0.0118
492.00,0.0121
491.00,0.0126
490.00,0.0129
489.00,0.0130
488.00,0.0129
487.00,0.0129
486.00,0.0133
485.00,0.0137
484.00,0.0140
483.00,0.0137
482.00,0.0130
481.00,0.0125
480.00,0.0125
479.00,0.0128
478.00,0.0130
477.00,0.0127
476.00,0.0122
475.00,0.0118
474.00,0.0115
473.00,0.0116
472.00,0.0121
471.00,0.0132
470.00,0.0142
469.00,0.0145
468.00,0.0140
467.00,0.0133
466.00,0.0132
465.00,0.0141
464.00,0.0157
463.00,0.0174
462.00,0.0187
461.00,0.0194
460.00,0.0199
459.00,0.0201
458.00,0.0199
457.00,0.0193
456.00,0.0188
455.00,0.0184
454.00,0.0178
453.00,0.0171
452.00,0.0165
451.00,0.0162
450.00,0.0157
