Created as New Dataset,Sample 020 By Administrator Date Friday, September 05 2025
cm-1,A
4000.00,0.0014
3999.00,0.0014
3998.00,0.0013
3997.00,0.0013
3996.00,0.0013
3995.00,0.0012
3994.00,0.0012
3993.00,0.0012
3992.00,0.0012
3991.00,0.0012
3990.00,0.0012
3989.00,0.0012
3988.00,0.0012
3987.00,0.0012
3986.00,0.0012
3985.00,0.0012
3984.00,0.0012
3983.00,0.0011
3982.00,0.0011
3981.00,0.0011
3980.00,0.0011
3979.00,0.0012
3978.00,0.0012
3977.00,0.0012
3976.00,0.0012
3975.00,0.0012
3974.00,0.0012
3973.00,0.0012
3972.00,0.0012
3971.00,0.0012
3970.00,0.0012
3969.00,0.0012
3968.00,0.0012
3967.00,0.0011
3966.00,0.0011
3965.00,0.0011
3964.00,0.0011
3963.00,0.0011
3962.00,0.0011
3961.00,0.0011
3960.00,0.0010
3959.00,0.0010
3958.00,0.0010
3957.00,0.0010
3956.00,0.0011
3955.00,0.0011
3954.00,0.0011
3953.00,0.0011
3952.00,0.0011
3951.00,0.0011
3950.00,0.0011
3949.00,0.0011
3948.00,0.0011
3947.00,0.0011
3946.00,0.0011
3945.00,0.0011
3944.00,0.0012
3943.00,0.0012
3942.00,0.0012
3941.00,0.0012
3940.00,0.0012
3939.00,0.0012
3938.00,0.0012
3937.00,0.0012
3936.00,0.0012
3935.00,0.0012
3934.00,0.0012
3933.00,0.0012
3932.00,0.0011
3931.00,0.0011
3930.00,0.0011
3929.00,0.0011
3928.00,0.0012
3927.00,0.0012
3926.00,0.0012
3925.00,0.0012
3924.00,0.0013
3923.00,0.0013
3922.00,0.0013
3921.00,0.0013
3920.00,0.0013
3919.00,0.0012
3918.00,0.0012
3917.00,0.0012
3916.00,0.0012
3915.00,0.0012
3914.00,0.0013
3913.00,0.0013
3912.00,0.0013
3911.00,0.0013
3910.00,0.0013
3909.00,0.0013
3908.00,0.0013
3907.00,0.0013
3906.00,0.0013
3905.00,0.0013
3904.00,0.0013
3903.00,0.0013
3902.00,0.0013
3901.00,0.0013
3900.00,0.0013
3899.00,0.0013
3898.00,0.0013
3897.00,0.0013
3896.00,0.0014
3895.00,0.0014
3894.00,0.0014
3893.00,0.0013
3892.00,0.0013
3891.00,0.0013
3890.00,0.0013
3889.00,0.0014
3888.00,0.0014
3887.00,0.0014
3886.00,0.0014
3885.00,0.0013
3884.00,0.0013
3883.00,0.0013
3882.00,0.0013
3881.00,0.0012
3880.00,0.0012
3879.00,0.0012
3878.00,0.0012
3877.00,0.0012
3876.00,0.0012
3875.00,0.0012
3874.00,0.0012
3873.00,0.0013
3872.00,0.0013
3871.00,0.0013
3870.00,0.0014
3869.00,0.0014
3868.00,0.0014
3867.00,0.0014
3866.00,0.0014
3865.00,0.0013
3864.00,0.0013
3863.00,0.0013
3862.00,0.0012
3861.00,0.0012
3860.00,0.0011
3859.00,0.0012
3858.00,0.0012
3857.00,0.0013
3856.00,0.0014
3855.00,0.0014
3854.00,0.0015
3853.00,0.0015
3852.00,0.0015
3851.00,0.0014
3850.00,0.0013
3849.00,0.0013
3848.00,0.0012
3847.00,0.0012
3846.00,0.0012
3845.00,0.0012
3844.00,0.0011
3843.00,0.0012
3842.00,0.0012
3841.00,0.0013
3840.00,0.0014
3839.00,0.0014
3838.00,0.0014
3837.00,0.0013
3836.00,0.0012
3835.00,0.0012
3834.00,0.0012
3833.00,0.0012
3832.00,0.0013
3831.00,0.0013
3830.00,0.0013
3829.00,0.0014
3828.00,0.0014
3827.00,0.0014
3826.00,0.0013
3825.00,0.0013
3824.00,0.0013
3823.00,0.0013
3822.00,0.0013
3821.00,0.0013
3820.00,0.0014
3819.00,0.0014
3818.00,0.0013
3817.00,0.0013
3816.00,0.0014
3815.00,0.0014
3814.00,0.0014
3813.00,0.0014
3812.00,0.0013
3811.00,0.0013
3810.00,0.0013
3809.00,0.0013
3808.00,0.0013
3807.00,0.0013
3806.00,0.0013
3805.00,0.0013
3804.00,0.0013
3803.00,0.0013
3802.00,0.0013
3801.00,0.0013
3800.00,0.0013
3799.00,0.0013
3798.00,0.0012
3797.00,0.0012
3796.00,0.0012
3795.00,0.0012
3794.00,0.0012
3793.00,0.0012
3792.00,0.0012
3791.00,0.0012
3790.00,0.0012
3789.00,0.0012
3788.00,0.0012
3787.00,0.0012
3786.00,0.0012
3785.00,0.0012
3784.00,0.0011
3783.00,0.0011
3782.00,0.0011
3781.00,0.0011
3780.00,0.0011
3779.00,0.0011
3778.00,0.0011
3777.00,0.0012
3776.00,0.0012
3775.00,0.0012
3774.00,0.0012
3773.00,0.0012
3772.00,0.0012
3771.00,0.0012
3770.00,0.0011
3769.00,0.0012
3768.00,0.0012
3767.00,0.0012
3766.00,0.0012
3765.00,0.0012
3764.00,0.0012
3763.00,0.0012
3762.00,0.0012
3761.00,0.0011
3760.00,0.0011
3759.00,0.0011
3758.00,0.0012
3757.00,0.0012
3756.00,0.0012
3755.00,0.0012
3754.00,0.0012
3753.00,0.0012
3752.00,0.0012
3751.00,0.0012
3750.00,0.0012
3749.00,0.0013
3748.00,0.0013
3747.00,0.0013
3746.00,0.0013
3745.00,0.0012
3744.00,0.0011
3743.00,0.0010
3742.00,0.0010
3741.00,0.0010
3740.00,0.0010
3739.00,0.0010
3738.00,0.0010
3737.00,0.0010
3736.00,0.0010
3735.00,0.0010
3734.00,0.0010
3733.00,0.0010
3732.00,0.0010
3731.00,0.0011
3730.00,0.0011
3729.00,0.0011
3728.00,0.0012
3727.00,0.0012
3726.00,0.0012
3725.00,0.0013
3724.00,0.0013
3723.00,0.0013
3722.00,0.0012
3721.00,0.0012
3720.00,0.0011
3719.00,0.0010
3718.00,0.0010
3717.00,0.0010
3716.00,0.0010
3715.00,0.0010
3714.00,0.0010
3713.00,0.0010
3712.00,0.0011
3711.00,0.0011
3710.00,0.0012
3709.00,0.0012
3708.00,0.0012
3707.00,0.0012
3706.00,0.0012
3705.00,0.0012
3704.00,0.0013
3703.00,0.0013
3702.00,0.0013
3701.00,0.0013
3700.00,0.0013
3699.00,0.0013
3698.00,0.0014
3697.00,0.0014
3696.00,0.0015
3695.00,0.0015
3694.00,0.0016
3693.00,0.0016
3692.00,0.0017
3691.00,0.0018
3690.00,0.0019
3689.00,0.0021
3688.00,0.0023
3687.00,0.0025
3686.00,0.0027
3685.00,0.0030
3684.00,0.0033
3683.00,0.0036
3682.00,0.0039
3681.00,0.0043
3680.00,0.0046
3679.00,0.0050
3678.00,0.0054
3677.00,0.0058
3676.00,0.0063
3675.00,0.0067
3674.00,0.0070
3673.00,0.0072
3672.00,0.0074
3671.00,0.0075
3670.00,0.0077
3669.00,0.0078
3668.00,0.0079
3667.00,0.0081
3666.00,0.0082
3665.00,0.0084
3664.00,0.0085
3663.00,0.0087
3662.00,0.0088
3661.00,0.0089
3660.00,0.0089
3659.00,0.0089
3658.00,0.0089
3657.00,0.0088
3656.00,0.0088
3655.00,0.0087
3654.00,0.0087
3653.00,0.0086
3652.00,0.0086
3651.00,0.0085
3650.00,0.0085
3649.00,0.0085
3648.00,0.0084
3647.00,0.0082
3646.00,0.0080
3645.00,0.0077
3644.00,0.0075
3643.00,0.0072
3642.00,0.0070
3641.00,0.0068
3640.00,0.0068
3639.00,0.0068
3638.00,0.0068
3637.00,0.0067
3636.00,0.0062
3635.00,0.0056
3634.00,0.0049
3633.00,0.0044
3632.00,0.0041
3631.00,0.0039
3630.00,0.0036
3629.00,0.0034
3628.00,0.0033
3627.00,0.0032
3626.00,0.0031
3625.00,0.0030
3624.00,0.0030
3623.00,0.0029
3622.00,0.0028
3621.00,0.0028
3620.00,0.0027
3619.00,0.0026
3618.00,0.0026
3617.00,0.0026
3616.00,0.0026
3615.00,0.0026
3614.00,0.0026
3613.00,0.0026
3612.00,0.0026
3611.00,0.0026
3610.00,0.0025
3609.00,0.0025
3608.00,0.0025
3607.00,0.0025
3606.00,0.0025
3605.00,0.0025
3604.00,0.0025
3603.00,0.0025
3602.00,0.0025
3601.00,0.0025
3600.00,0.0025
3599.00,0.0025
3598.00,0.0025
3597.00,0.0026
3596.00,0.0027
3595.00,0.0027
3594.00,0.0027
3593.00,0.0027
3592.00,0.0027
3591.00,0.0027
3590.00,0.0027
3589.00,0.0028
3588.00,0.0028
3587.00,0.0029
3586.00,0.0029
3585.00,0.0029
3584.00,0.0030
3583.00,0.0030
3582.00,0.0030
3581.00,0.0031
3580.00,0.0031
3579.00,0.0031
3578.00,0.0032
3577.00,0.0032
3576.00,0.0033
3575.00,0.0033
3574.00,0.0034
3573.00,0.0034
3572.00,0.0034
3571.00,0.0035
3570.00,0.0035
3569.00,0.0035
3568.00,0.0035
3567.00,0.0036
3566.00,0.0036
3565.00,0.0037
3564.00,0.0037
3563.00,0.0037
3562.00,0.0038
3561.00,0.0038
3560.00,0.0038
3559.00,0.0039
3558.00,0.0039
3557.00,0.0039
3556.00,0.0039
3555.00,0.0039
3554.00,0.0040
3553.00,0.0040
3552.00,0.0041
3551.00,0.0042
3550.00,0.0042
3549.00,0.0042
3548.00,0.0043
3547.00,0.0043
3546.00,0.0044
3545.00,0.0045
3544.00,0.0045
3543.00,0.0045
3542.00,0.0046
3541.00,0.0046
3540.00,0.0047
3539.00,0.0047
3538.00,0.0048
3537.00,0.0048
3536.00,0.0048
3535.00,0.0049
3534.00,0.0049
3533.00,0.0049
3532.00,0.0050
3531.00,0.0050
3530.00,0.0051
3529.00,0.0051
3528.00,0.0052
3527.00,0.0052
3526.00,0.0052
3525.00,0.0053
3524.00,0.0053
3523.00,0.0054
3522.00,0.0054
3521.00,0.0054
3520.00,0.0055
3519.00,0.0055
3518.00,0.0056
3517.00,0.0056
3516.00,0.0057
3515.00,0.0057
3514.00,0.0058
3513.00,0.0059
3512.00,0.0059
3511.00,0.0060
3510.00,0.0061
3509.00,0.0061
3508.00,0.0061
3507.00,0.0061
3506.00,0.0061
3505.00,0.0062
3504.00,0.0062
3503.00,0.0063
3502.00,0.0064
3501.00,0.0065
3500.00,0.0065
3499.00,0.0066
3498.00,0.0066
3497.00,0.0067
3496.00,0.0067
3495.00,0.0067
3494.00,0.0067
3493.00,0.0068
3492.00,0.0068
3491.00,0.0069
3490.00,0.0070
3489.00,0.0070
3488.00,0.0071
3487.00,0.0072
3486.00,0.0073
3485.00,0.0073
3484.00,0.0073
3483.00,0.0073
3482.00,0.0073
3481.00,0.0074
3480.00,0.0075
3479.00,0.0075
3478.00,0.0076
3477.00,0.0077
3476.00,0.0077
3475.00,0.0077
3474.00,0.0077
3473.00,0.0078
3472.00,0.0078
3471.00,0.0079
3470.00,0.0080
3469.00,0.0080
3468.00,0.0081
3467.00,0.0081
3466.00,0.0081
3465.00,0.0081
3464.00,0.0082
3463.00,0.0082
3462.00,0.0083
3461.00,0.0083
3460.00,0.0084
3459.00,0.0085
3458.00,0.0085
3457.00,0.0086
3456.00,0.0086
3455.00,0.0086
3454.00,0.0086
3453.00,0.0087
3452.00,0.0087
3451.00,0.0088
3450.00,0.0089
3449.00,0.0089
3448.00,0.0089
3447.00,0.0089
3446.00,0.0090
3445.00,0.0090
3444.00,0.0090
3443.00,0.0090
3442.00,0.0091
3441.00,0.0092
3440.00,0.0092
3439.00,0.0092
3438.00,0.0092
3437.00,0.0093
3436.00,0.0093
3435.00,0.0094
3434.00,0.0095
3433.00,0.0095
3432.00,0.0096
3431.00,0.0096
3430.00,0.0096
3429.00,0.0096
3428.00,0.0096
3427.00,0.0096
3426.00,0.0096
3425.00,0.0097
3424.00,0.0097
3423.00,0.0098
3422.00,0.0098
3421.00,0.0099
3420.00,0.0099
3419.00,0.0099
3418.00,0.0099
3417.00,0.0099
3416.00,0.0100
3415.00,0.0100
3414.00,0.0101
3413.00,0.0101
3412.00,0.0101
3411.00,0.0102
3410.00,0.0102
3409.00,0.0102
3408.00,0.0102
3407.00,0.0103
3406.00,0.0103
3405.00,0.0103
3404.00,0.0104
3403.00,0.0104
3402.00,0.0104
3401.00,0.0104
3400.00,0.0104
3399.00,0.0104
3398.00,0.0104
3397.00,0.0105
3396.00,0.0105
3395.00,0.0105
3394.00,0.0105
3393.00,0.0105
3392.00,0.0105
3391.00,0.0106
3390.00,0.0106
3389.00,0.0106
3388.00,0.0106
3387.00,0.0106
3386.00,0.0106
3385.00,0.0106
3384.00,0.0106
3383.00,0.0105
3382.00,0.0105
3381.00,0.0105
3380.00,0.0106
3379.00,0.0106
3378.00,0.0106
3377.00,0.0106
3376.00,0.0106
3375.00,0.0106
3374.00,0.0107
3373.00,0.0107
3372.00,0.0107
3371.00,0.0107
3370.00,0.0107
3369.00,0.0107
3368.00,0.0108
3367.00,0.0108
3366.00,0.0108
3365.00,0.0108
3364.00,0.0108
3363.00,0.0108
3362.00,0.0108
3361.00,0.0109
3360.00,0.0109
3359.00,0.0109
3358.00,0.0109
3357.00,0.0109
3356.00,0.0109
3355.00,0.0110
3354.00,0.0110
3353.00,0.0110
3352.00,0.0110
3351.00,0.0110
3350.00,0.0110
3349.00,0.0110
3348.00,0.0109
3347.00,0.0109
3346.00,0.0109
3345.00,0.0110
3344.00,0.0110
3343.00,0.0109
3342.00,0.0109
3341.00,0.0109
3340.00,0.0109
3339.00,0.0110
3338.00,0.0110
3337.00,0.0111
3336.00,0.0110
3335.00,0.0110
3334.00,0.0110
3333.00,0.0110
3332.00,0.0110
3331.00,0.0110
3330.00,0.0110
3329.00,0.0109
3328.00,0.0109
3327.00,0.0108
3326.00,0.0108
3325.00,0.0108
3324.00,0.0108
3323.00,0.0108
3322.00,0.0108
3321.00,0.0108
3320.00,0.0107
3319.00,0.0107
3318.00,0.0107
3317.00,0.0107
3316.00,0.0107
3315.00,0.0107
3314.00,0.0107
3313.00,0.0107
3312.00,0.0107
3311.00,0.0107
3310.00,0.0106
3309.00,0.0106
3308.00,0.0106
3307.00,0.0106
3306.00,0.0106
3305.00,0.0106
3304.00,0.0106
3303.00,0.0106
3302.00,0.0105
3301.00,0.0105
3300.00,0.0105
3299.00,0.0105
3298.00,0.0104
3297.00,0.0104
3296.00,0.0104
3295.00,0.0104
3294.00,0.0103
3293.00,0.0103
3292.00,0.0103
3291.00,0.0103
3290.00,0.0103
3289.00,0.0103
3288.00,0.0102
3287.00,0.0101
3286.00,0.0101
3285.00,0.0100
3284.00,0.0100
3283.00,0.0100
3282.00,0.0101
3281.00,0.0100
3280.00,0.0100
3279.00,0.0099
3278.00,0.0099
3277.00,0.0098
3276.00,0.0098
3275.00,0.0098
3274.00,0.0098
3273.00,0.0097
3272.00,0.0097
3271.00,0.0097
3270.00,0.0097
3269.00,0.0097
3268.00,0.0097
3267.00,0.0097
3266.00,0.0096
3265.00,0.0096
3264.00,0.0096
3263.00,0.0095
3262.00,0.0095
3261.00,0.0095
3260.00,0.0094
3259.00,0.0093
3258.00,0.0093
3257.00,0.0093
3256.00,0.0092
3255.00,0.0092
3254.00,0.0093
3253.00,0.0093
3252.00,0.0092
3251.00,0.0092
3250.00,0.0092
3249.00,0.0092
3248.00,0.0091
3247.00,0.0091
3246.00,0.0090
3245.00,0.0090
3244.00,0.0090
3243.00,0.0090
3242.00,0.0090
3241.00,0.0090
3240.00,0.0090
3239.00,0.0090
3238.00,0.0090
3237.00,0.0090
3236.00,0.0090
3235.00,0.0089
3234.00,0.0089
3233.00,0.0089
3232.00,0.0090
3231.00,0.0090
3230.00,0.0090
3229.00,0.0091
3228.00,0.0091
3227.00,0.0091
3226.00,0.0090
3225.00,0.0090
3224.00,0.0090
3223.00,0.0090
3222.00,0.0090
3221.00,0.0091
3220.00,0.0092
3219.00,0.0092
3218.00,0.0092
3217.00,0.0092
3216.00,0.0092
3215.00,0.0092
3214.00,0.0092
3213.00,0.0092
3212.00,0.0093
3211.00,0.0093
3210.00,0.0093
3209.00,0.0093
3208.00,0.0093
3207.00,0.0093
3206.00,0.0093
3205.00,0.0093
3204.00,0.0093
3203.00,0.0093
3202.00,0.0093
3201.00,0.0093
3200.00,0.0093
3199.00,0.0093
3198.00,0.0093
3197.00,0.0093
3196.00,0.0093
3195.00,0.0092
3194.00,0.0092
3193.00,0.0091
3192.00,0.0091
3191.00,0.0092
3190.00,0.0092
3189.00,0.0092
3188.00,0.0092
3187.00,0.0091
3186.00,0.0091
3185.00,0.0090
3184.00,0.0089
3183.00,0.0089
3182.00,0.0088
3181.00,0.0088
3180.00,0.0088
3179.00,0.0088
3178.00,0.0087
3177.00,0.0087
3176.00,0.0086
3175.00,0.0085
3174.00,0.0085
3173.00,0.0085
3172.00,0.0084
3171.00,0.0084
3170.00,0.0084
3169.00,0.0083
3168.00,0.0082
3167.00,0.0081
3166.00,0.0081
3165.00,0.0081
3164.00,0.0081
3163.00,0.0080
3162.00,0.0080
3161.00,0.0079
3160.00,0.0078
3159.00,0.0078
3158.00,0.0078
3157.00,0.0077
3156.00,0.0077
3155.00,0.0077
3154.00,0.0076
3153.00,0.0076
3152.00,0.0076
3151.00,0.0076
3150.00,0.0076
3149.00,0.0076
3148.00,0.0076
3147.00,0.0075
3146.00,0.0075
3145.00,0.0074
3144.00,0.0074
3143.00,0.0073
3142.00,0.0073
3141.00,0.0073
3140.00,0.0072
3139.00,0.0072
3138.00,0.0071
3137.00,0.0071
3136.00,0.0070
3135.00,0.0070
3134.00,0.0070
3133.00,0.0070
3132.00,0.0070
3131.00,0.0070
3130.00,0.0069
3129.00,0.0069
3128.00,0.0068
3127.00,0.0067
3126.00,0.0067
3125.00,0.0067
3124.00,0.0066
3123.00,0.0066
3122.00,0.0066
3121.00,0.0065
3120.00,0.0065
3119.00,0.0065
3118.00,0.0064
3117.00,0.0064
3116.00,0.0064
3115.00,0.0064
3114.00,0.0063
3113.00,0.0063
3112.00,0.0062
3111.00,0.0062
3110.00,0.0062
3109.00,0.0062
3108.00,0.0062
3107.00,0.0062
3106.00,0.0062
3105.00,0.0062
3104.00,0.0061
3103.00,0.0061
3102.00,0.0060
3101.00,0.0060
3100.00,0.0059
3099.00,0.0059
3098.00,0.0059
3097.00,0.0059
3096.00,0.0059
3095.00,0.0058
3094.00,0.0058
3093.00,0.0058
3092.00,0.0058
3091.00,0.0057
3090.00,0.0057
3089.00,0.0057
3088.00,0.0057
3087.00,0.0057
3086.00,0.0057
3085.00,0.0057
3084.00,0.0056
3083.00,0.0056
3082.00,0.0056
3081.00,0.0056
3080.00,0.0056
3079.00,0.0056
3078.00,0.0056
3077.00,0.0056
3076.00,0.0056
3075.00,0.0056
3074.00,0.0056
3073.00,0.0056
3072.00,0.0056
3071.00,0.0056
3070.00,0.0056
3069.00,0.0057
3068.00,0.0057
3067.00,0.0057
3066.00,0.0057
3065.00,0.0058
3064.00,0.0058
3063.00,0.0059
3062.00,0.0059
3061.00,0.0058
3060.00,0.0058
3059.00,0.0058
3058.00,0.0058
3057.00,0.0058
3056.00,0.0058
3055.00,0.0058
3054.00,0.0058
3053.00,0.0058
3052.00,0.0058
3051.00,0.0058
3050.00,0.0058
3049.00,0.0059
3048.00,0.0059
3047.00,0.0059
3046.00,0.0060
3045.00,0.0060
3044.00,0.0061
3043.00,0.0061
3042.00,0.0062
3041.00,0.0062
3040.00,0.0062
3039.00,0.0062
3038.00,0.0062
3037.00,0.0063
3036.00,0.0064
3035.00,0.0064
3034.00,0.0065
3033.00,0.0066
3032.00,0.0066
3031.00,0.0067
3030.00,0.0067
3029.00,0.0069
3028.00,0.0070
3027.00,0.0072
3026.00,0.0073
3025.00,0.0075
3024.00,0.0077
3023.00,0.0079
3022.00,0.0082
3021.00,0.0086
3020.00,0.0090
3019.00,0.0094
3018.00,0.0100
3017.00,0.0106
3016.00,0.0114
3015.00,0.0123
3014.00,0.0133
3013.00,0.0145
3012.00,0.0159
3011.00,0.0174
3010.00,0.0190
3009.00,0.0208
3008.00,0.0227
3007.00,0.0249
3006.00,0.0271
3005.00,0.0295
3004.00,0.0319
3003.00,0.0343
3002.00,0.0366
3001.00,0.0389
3000.00,0.0411
2999.00,0.0431
2998.00,0.0450
2997.00,0.0468
2996.00,0.0484
2995.00,0.0500
2994.00,0.0516
2993.00,0.0531
2992.00,0.0547
2991.00,0.0562
2990.00,0.0578
2989.00,0.0595
2988.00,0.0617
2987.00,0.0646
2986.00,0.0690
2985.00,0.0753
2984.00,0.0831
2983.00,0.0908
2982.00,0.0965
2981.00,0.0990
2980.00,0.0987
2979.00,0.0972
2978.00,0.0956
2977.00,0.0950
2976.00,0.0957
2975.00,0.0981
2974.00,0.1021
2973.00,0.1070
2972.00,0.1121
2971.00,0.1164
2970.00,0.1198
2969.00,0.1231
2968.00,0.1269
2967.00,0.1317
2966.00,0.1372
2965.00,0.1428
2964.00,0.1482
2963.00,0.1533
2962.00,0.1578
2961.00,0.1616
2960.00,0.1648
2959.00,0.1678
2958.00,0.1709
2957.00,0.1745
2956.00,0.1789
2955.00,0.1842
2954.00,0.1904
2953.00,0.1969
2952.00,0.2031
2951.00,0.2081
2950.00,0.2108
2949.00,0.2103
2948.00,0.2060
2947.00,0.1978
2946.00,0.1867
2945.00,0.1739
2944.00,0.1610
2943.00,0.1494
2942.00,0.1401
2941.00,0.1333
2940.00,0.1292
2939.00,0.1274
2938.00,0.1277
2937.00,0.1298
2936.00,0.1338
2935.00,0.1393
2934.00,0.1463
2933.00,0.1546
2932.00,0.1639
2931.00,0.1740
2930.00,0.1846
2929.00,0.1954
2928.00,0.2062
2927.00,0.2167
2926.00,0.2267
2925.00,0.2362
2924.00,0.2455
2923.00,0.2546
2922.00,0.2636
2921.00,0.2724
2920.00,0.2804
2919.00,0.2870
2918.00,0.2912
2917.00,0.2921
2916.00,0.2894
2915.00,0.2833
2914.00,0.2746
2913.00,0.2642
2912.00,0.2532
2911.00,0.2424
2910.00,0.2323
2909.00,0.2229
2908.00,0.2141
2907.00,0.2059
2906.00,0.1980
2905.00,0.1904
2904.00,0.1829
2903.00,0.1757
2902.00,0.1687
2901.00,0.1620
2900.00,0.1556
2899.00,0.1497
2898.00,0.1443
2897.00,0.1395
2896.00,0.1354
2895.00,0.1320
2894.00,0.1294
2893.00,0.1276
2892.00,0.1264
2891.00,0.1257
2890.00,0.1253
2889.00,0.1252
2888.00,0.1254
2887.00,0.1259
2886.00,0.1269
2885.00,0.1283
2884.00,0.1300
2883.00,0.1319
2882.00,0.1339
2881.00,0.1361
2880.00,0.1384
2879.00,0.1406
2878.00,0.1422
2877.00,0.1430
2876.00,0.1428
2875.00,0.1419
2874.00,0.1409
2873.00,0.1401
2872.00,0.1401
2871.00,0.1408
2870.00,0.1422
2869.00,0.1438
2868.00,0.1449
2867.00,0.1448
2866.00,0.1425
2865.00,0.1377
2864.00,0.1305
2863.00,0.1216
2862.00,0.1122
2861.00,0.1032
2860.00,0.0953
2859.00,0.0889
2858.00,0.0839
2857.00,0.0803
2856.00,0.0777
2855.00,0.0760
2854.00,0.0750
2853.00,0.0745
2852.00,0.0745
2851.00,0.0749
2850.00,0.0757
2849.00,0.0768
2848.00,0.0783
2847.00,0.0805
2846.00,0.0835
2845.00,0.0874
2844.00,0.0923
2843.00,0.0980
2842.00,0.1042
2841.00,0.1103
2840.00,0.1157
2839.00,0.1195
2838.00,0.1209
2837.00,0.1192
2836.00,0.1143
2835.00,0.1065
2834.00,0.0968
2833.00,0.0863
2832.00,0.0761
2831.00,0.0668
2830.00,0.0588
2829.00,0.0523
2828.00,0.0469
2827.00,0.0426
2826.00,0.0392
2825.00,0.0363
2824.00,0.0340
2823.00,0.0320
2822.00,0.0303
2821.00,0.0288
2820.00,0.0276
2819.00,0.0264
2818.00,0.0255
2817.00,0.0246
2816.00,0.0239
2815.00,0.0232
2814.00,0.0226
2813.00,0.0220
2812.00,0.0214
2811.00,0.0208
2810.00,0.0202
2809.00,0.0195
2808.00,0.0189
2807.00,0.0182
2806.00,0.0176
2805.00,0.0169
2804.00,0.0163
2803.00,0.0157
2802.00,0.0152
2801.00,0.0147
2800.00,0.0143
2799.00,0.0140
2798.00,0.0136
2797.00,0.0133
2796.00,0.0130
2795.00,0.0128
2794.00,0.0125
2793.00,0.0122
2792.00,0.0119
2791.00,0.0116
2790.00,0.0113
2789.00,0.0110
2788.00,0.0107
2787.00,0.0104
2786.00,0.0102
2785.00,0.0100
2784.00,0.0098
2783.00,0.0096
2782.00,0.0094
2781.00,0.0092
2780.00,0.0090
2779.00,0.0088
2778.00,0.0086
2777.00,0.0084
2776.00,0.0083
2775.00,0.0082
2774.00,0.0081
2773.00,0.0080
2772.00,0.0080
2771.00,0.0080
2770.00,0.0080
2769.00,0.0080
2768.00,0.0079
2767.00,0.0078
2766.00,0.0078
2765.00,0.0077
2764.00,0.0076
2763.00,0.0076
2762.00,0.0075
2761.00,0.0074
2760.00,0.0074
2759.00,0.0073
2758.00,0.0072
2757.00,0.0072
2756.00,0.0071
2755.00,0.0071
2754.00,0.0071
2753.00,0.0071
2752.00,0.0071
2751.00,0.0070
2750.00,0.0070
2749.00,0.0070
2748.00,0.0070
2747.00,0.0070
2746.00,0.0071
2745.00,0.0071
2744.00,0.0072
2743.00,0.0073
2742.00,0.0074
2741.00,0.0075
2740.00,0.0077
2739.00,0.0078
2738.00,0.0079
2737.00,0.0080
2736.00,0.0082
2735.00,0.0083
2734.00,0.0085
2733.00,0.0086
2732.00,0.0088
2731.00,0.0090
2730.00,0.0092
2729.00,0.0095
2728.00,0.0097
2727.00,0.0099
2726.00,0.0102
2725.00,0.0104
2724.00,0.0105
2723.00,0.0105
2722.00,0.0104
2721.00,0.0102
2720.00,0.0099
2719.00,0.0096
2718.00,0.0092
2717.00,0.0089
2716.00,0.0085
2715.00,0.0083
2714.00,0.0080
2713.00,0.0078
2712.00,0.0076
2711.00,0.0073
2710.00,0.0071
2709.00,0.0069
2708.00,0.0067
2707.00,0.0066
2706.00,0.0065
2705.00,0.0064
2704.00,0.0063
2703.00,0.0062
2702.00,0.0061
2701.00,0.0060
2700.00,0.0059
2699.00,0.0059
2698.00,0.0058
2697.00,0.0058
2696.00,0.0058
2695.00,0.0058
2694.00,0.0058
2693.00,0.0058
2692.00,0.0058
2691.00,0.0058
2690.00,0.0058
2689.00,0.0059
2688.00,0.0059
2687.00,0.0059
2686.00,0.0059
2685.00,0.0059
2684.00,0.0059
2683.00,0.0060
2682.00,0.0060
2681.00,0.0061
2680.00,0.0061
2679.00,0.0061
2678.00,0.0062
2677.00,0.0062
2676.00,0.0062
2675.00,0.0062
2674.00,0.0062
2673.00,0.0062
2672.00,0.0062
2671.00,0.0063
2670.00,0.0063
2669.00,0.0063
2668.00,0.0064
2667.00,0.0064
2666.00,0.0065
2665.00,0.0065
2664.00,0.0065
2663.00,0.0065
2662.00,0.0066
2661.00,0.0066
2660.00,0.0066
2659.00,0.0066
2658.00,0.0066
2657.00,0.0066
2656.00,0.0065
2655.00,0.0065
2654.00,0.0064
2653.00,0.0063
2652.00,0.0063
2651.00,0.0062
2650.00,0.0061
2649.00,0.0061
2648.00,0.0060
2647.00,0.0060
2646.00,0.0059
2645.00,0.0059
2644.00,0.0059
2643.00,0.0059
2642.00,0.0058
2641.00,0.0057
2640.00,0.0057
2639.00,0.0056
2638.00,0.0056
2637.00,0.0055
2636.00,0.0054
2635.00,0.0053
2634.00,0.0052
2633.00,0.0052
2632.00,0.0053
2631.00,0.0053
2630.00,0.0053
2629.00,0.0053
2628.00,0.0053
2627.00,0.0053
2626.00,0.0053
2625.00,0.0052
2624.00,0.0052
2623.00,0.0052
2622.00,0.0053
2621.00,0.0053
2620.00,0.0053
2619.00,0.0053
2618.00,0.0053
2617.00,0.0052
2616.00,0.0052
2615.00,0.0051
2614.00,0.0050
2613.00,0.0050
2612.00,0.0049
2611.00,0.0049
2610.00,0.0049
2609.00,0.0048
2608.00,0.0047
2607.00,0.0046
2606.00,0.0045
2605.00,0.0045
2604.00,0.0044
2603.00,0.0044
2602.00,0.0043
2601.00,0.0043
2600.00,0.0042
2599.00,0.0041
2598.00,0.0041
2597.00,0.0041
2596.00,0.0040
2595.00,0.0040
2594.00,0.0040
2593.00,0.0040
2592.00,0.0041
2591.00,0.0042
2590.00,0.0043
2589.00,0.0044
2588.00,0.0044
2587.00,0.0045
2586.00,0.0045
2585.00,0.0046
2584.00,0.0046
2583.00,0.0046
2582.00,0.0047
2581.00,0.0047
2580.00,0.0047
2579.00,0.0046
2578.00,0.0045
2577.00,0.0043
2576.00,0.0042
2575.00,0.0041
2574.00,0.0039
2573.00,0.0038
2572.00,0.0037
2571.00,0.0036
2570.00,0.0035
2569.00,0.0034
2568.00,0.0034
2567.00,0.0033
2566.00,0.0032
2565.00,0.0032
2564.00,0.0031
2563.00,0.0031
2562.00,0.0031
2561.00,0.0031
2560.00,0.0031
2559.00,0.0031
2558.00,0.0032
2557.00,0.0031
2556.00,0.0031
2555.00,0.0030
2554.00,0.0029
2553.00,0.0028
2552.00,0.0027
2551.00,0.0027
2550.00,0.0027
2549.00,0.0026
2548.00,0.0026
2547.00,0.0026
2546.00,0.0026
2545.00,0.0025
2544.00,0.0025
2543.00,0.0024
2542.00,0.0024
2541.00,0.0024
2540.00,0.0024
2539.00,0.0024
2538.00,0.0023
2537.00,0.0023
2536.00,0.0023
2535.00,0.0023
2534.00,0.0023
2533.00,0.0022
2532.00,0.0022
2531.00,0.0022
2530.00,0.0022
2529.00,0.0022
2528.00,0.0022
2527.00,0.0022
2526.00,0.0022
2525.00,0.0021
2524.00,0.0021
2523.00,0.0020
2522.00,0.0019
2521.00,0.0019
2520.00,0.0020
2519.00,0.0020
2518.00,0.0021
2517.00,0.0021
2516.00,0.0021
2515.00,0.0020
2514.00,0.0020
2513.00,0.0019
2512.00,0.0019
2511.00,0.0019
2510.00,0.0019
2509.00,0.0019
2508.00,0.0019
2507.00,0.0018
2506.00,0.0018
2505.00,0.0019
2504.00,0.0019
2503.00,0.0019
2502.00,0.0019
2501.00,0.0020
2500.00,0.0019
2499.00,0.0019
2498.00,0.0018
2497.00,0.0018
2496.00,0.0018
2495.00,0.0018
2494.00,0.0017
2493.00,0.0017
2492.00,0.0017
2491.00,0.0017
2490.00,0.0018
2489.00,0.0018
2488.00,0.0019
2487.00,0.0019
2486.00,0.0019
2485.00,0.0019
2484.00,0.0018
2483.00,0.0018
2482.00,0.0018
2481.00,0.0018
2480.00,0.0018
2479.00,0.0017
2478.00,0.0017
2477.00,0.0016
2476.00,0.0015
2475.00,0.0014
2474.00,0.0014
2473.00,0.0014
2472.00,0.0015
2471.00,0.0015
2470.00,0.0016
2469.00,0.0016
2468.00,0.0017
2467.00,0.0017
2466.00,0.0018
2465.00,0.0018
2464.00,0.0018
2463.00,0.0017
2462.00,0.0017
2461.00,0.0017
2460.00,0.0017
2459.00,0.0017
2458.00,0.0017
2457.00,0.0017
2456.00,0.0017
2455.00,0.0017
2454.00,0.0017
2453.00,0.0017
2452.00,0.0018
2451.00,0.0019
2450.00,0.0019
2449.00,0.0019
2448.00,0.0019
2447.00,0.0019
2446.00,0.0019
2445.00,0.0018
2444.00,0.0018
2443.00,0.0018
2442.00,0.0019
2441.00,0.0019
2440.00,0.0019
2439.00,0.0018
2438.00,0.0018
2437.00,0.0017
2436.00,0.0017
2435.00,0.0017
2434.00,0.0017
2433.00,0.0017
2432.00,0.0018
2431.00,0.0018
2430.00,0.0018
2429.00,0.0018
2428.00,0.0017
2427.00,0.0017
2426.00,0.0016
2425.00,0.0016
2424.00,0.0016
2423.00,0.0016
2422.00,0.0017
2421.00,0.0017
2420.00,0.0017
2419.00,0.0017
2418.00,0.0017
2417.00,0.0017
2416.00,0.0016
2415.00,0.0016
2414.00,0.0015
2413.00,0.0015
2412.00,0.0015
2411.00,0.0015
2410.00,0.0016
2409.00,0.0016
2408.00,0.0015
2407.00,0.0015
2406.00,0.0015
2405.00,0.0015
2404.00,0.0015
2403.00,0.0015
2402.00,0.0016
2401.00,0.0016
2400.00,0.0015
2399.00,0.0015
2398.00,0.0014
2397.00,0.0014
2396.00,0.0014
2395.00,0.0013
2394.00,0.0013
2393.00,0.0013
2392.00,0.0013
2391.00,0.0013
2390.00,0.0013
2389.00,0.0013
2388.00,0.0012
2387.00,0.0011
2386.00,0.0011
2385.00,0.0010
2384.00,0.0010
2383.00,0.0010
2382.00,0.0009
2381.00,0.0008
2380.00,0.0008
2379.00,0.0007
2378.00,0.0007
2377.00,0.0007
2376.00,0.0007
2375.00,0.0007
2374.00,0.0006
2373.00,0.0006
2372.00,0.0006
2371.00,0.0006
2370.00,0.0007
2369.00,0.0007
2368.00,0.0008
2367.00,0.0009
2366.00,0.0009
2365.00,0.0008
2364.00,0.0007
2363.00,0.0007
2362.00,0.0007
2361.00,0.0008
2360.00,0.0009
2359.00,0.0010
2358.00,0.0011
2357.00,0.0011
2356.00,0.0011
2355.00,0.0010
2354.00,0.0010
2353.00,0.0009
2352.00,0.0009
2351.00,0.0010
2350.00,0.0012
2349.00,0.0015
2348.00,0.0016
2347.00,0.0015
2346.00,0.0014
2345.00,0.0012
2344.00,0.0012
2343.00,0.0012
2342.00,0.0013
2341.00,0.0013
2340.00,0.0013
2339.00,0.0012
2338.00,0.0012
2337.00,0.0013
2336.00,0.0013
2335.00,0.0013
2334.00,0.0013
2333.00,0.0012
2332.00,0.0011
2331.00,0.0010
2330.00,0.0010
2329.00,0.0011
2328.00,0.0013
2327.00,0.0016
2326.00,0.0020
2325.00,0.0023
2324.00,0.0023
2323.00,0.0021
2322.00,0.0018
2321.00,0.0016
2320.00,0.0015
2319.00,0.0015
2318.00,0.0014
2317.00,0.0014
2316.00,0.0014
2315.00,0.0014
2314.00,0.0013
2313.00,0.0012
2312.00,0.0011
2311.00,0.0010
2310.00,0.0010
2309.00,0.0010
2308.00,0.0011
2307.00,0.0011
2306.00,0.0012
2305.00,0.0013
2304.00,0.0013
2303.00,0.0013
2302.00,0.0013
2301.00,0.0014
2300.00,0.0014
2299.00,0.0015
2298.00,0.0016
2297.00,0.0016
2296.00,0.0017
2295.00,0.0016
2294.00,0.0017
2293.00,0.0017
2292.00,0.0019
2291.00,0.0020
2290.00,0.0022
2289.00,0.0023
2288.00,0.0023
2287.00,0.0024
2286.00,0.0024
2285.00,0.0024
2284.00,0.0023
2283.00,0.0022
2282.00,0.0021
2281.00,0.0020
2280.00,0.0020
2279.00,0.0020
2278.00,0.0019
2277.00,0.0018
2276.00,0.0017
2275.00,0.0017
2274.00,0.0017
2273.00,0.0017
2272.00,0.0016
2271.00,0.0015
2270.00,0.0015
2269.00,0.0015
2268.00,0.0016
2267.00,0.0015
2266.00,0.0013
2265.00,0.0012
2264.00,0.0011
2263.00,0.0012
2262.00,0.0014
2261.00,0.0015
2260.00,0.0017
2259.00,0.0017
2258.00,0.0016
2257.00,0.0015
2256.00,0.0014
2255.00,0.0013
2254.00,0.0011
2253.00,0.0011
2252.00,0.0011
2251.00,0.0012
2250.00,0.0012
2249.00,0.0013
2248.00,0.0013
2247.00,0.0014
2246.00,0.0014
2245.00,0.0013
2244.00,0.0012
2243.00,0.0011
2242.00,0.0010
2241.00,0.0010
2240.00,0.0010
2239.00,0.0011
2238.00,0.0012
2237.00,0.0013
2236.00,0.0014
2235.00,0.0013
2234.00,0.0012
2233.00,0.0010
2232.00,0.0009
2231.00,0.0010
2230.00,0.0012
2229.00,0.0013
2228.00,0.0013
2227.00,0.0012
2226.00,0.0011
2225.00,0.0011
2224.00,0.0011
2223.00,0.0012
2222.00,0.0012
2221.00,0.0012
2220.00,0.0012
2219.00,0.0012
2218.00,0.0013
2217.00,0.0014
2216.00,0.0016
2215.00,0.0016
2214.00,0.0015
2213.00,0.0015
2212.00,0.0016
2211.00,0.0015
2210.00,0.0014
2209.00,0.0013
2208.00,0.0012
2207.00,0.0012
2206.00,0.0012
2205.00,0.0012
2204.00,0.0012
2203.00,0.0012
2202.00,0.0012
2201.00,0.0012
2200.00,0.0012
2199.00,0.0012
2198.00,0.0011
2197.00,0.0010
2196.00,0.0010
2195.00,0.0011
2194.00,0.0013
2193.00,0.0016
2192.00,0.0018
2191.00,0.0018
2190.00,0.0016
2189.00,0.0014
2188.00,0.0013
2187.00,0.0014
2186.00,0.0016
2185.00,0.0017
2184.00,0.0018
2183.00,0.0016
2182.00,0.0013
2181.00,0.0010
2180.00,0.0008
2179.00,0.0008
2178.00,0.0008
2177.00,0.0006
2176.00,0.0005
2175.00,0.0005
2174.00,0.0005
2173.00,0.0006
2172.00,0.0008
2171.00,0.0011
2170.00,0.0015
2169.00,0.0018
2168.00,0.0020
2167.00,0.0021
2166.00,0.0020
2165.00,0.0020
2164.00,0.0020
2163.00,0.0020
2162.00,0.0020
2161.00,0.0017
2160.00,0.0009
2159.00,-0.0004
2158.00,-0.0016
2157.00,-0.0023
2156.00,-0.0024
2155.00,-0.0021
2154.00,-0.0017
2153.00,-0.0012
2152.00,-0.0009
2151.00,-0.0008
2150.00,-0.0007
2149.00,-0.0007
2148.00,-0.0007
2147.00,-0.0007
2146.00,-0.0007
2145.00,-0.0006
2144.00,-0.0006
2143.00,-0.0007
2142.00,-0.0008
2141.00,-0.0009
2140.00,-0.0009
2139.00,-0.0008
2138.00,-0.0007
2137.00,-0.0006
2136.00,-0.0005
2135.00,-0.0007
2134.00,-0.0009
2133.00,-0.0010
2132.00,-0.0010
2131.00,-0.0010
2130.00,-0.0008
2129.00,-0.0007
2128.00,-0.0005
2127.00,-0.0003
2126.00,-0.0002
2125.00,-0.0001
2124.00,0.0001
2123.00,0.0002
2122.00,0.0004
2121.00,0.0004
2120.00,0.0004
2119.00,0.0003
2118.00,0.0002
2117.00,0.0002
2116.00,0.0002
2115.00,0.0003
2114.00,0.0004
2113.00,0.0005
2112.00,0.0005
2111.00,0.0005
2110.00,0.0006
2109.00,0.0006
2108.00,0.0006
2107.00,0.0007
2106.00,0.0007
2105.00,0.0009
2104.00,0.0011
2103.00,0.0011
2102.00,0.0010
2101.00,0.0009
2100.00,0.0008
2099.00,0.0007
2098.00,0.0007
2097.00,0.0006
2096.00,0.0004
2095.00,0.0002
2094.00,0.0002
2093.00,0.0003
2092.00,0.0005
2091.00,0.0006
2090.00,0.0007
2089.00,0.0009
2088.00,0.0010
2087.00,0.0010
2086.00,0.0009
2085.00,0.0008
2084.00,0.0007
2083.00,0.0006
2082.00,0.0007
2081.00,0.0008
2080.00,0.0009
2079.00,0.0009
2078.00,0.0009
2077.00,0.0009
2076.00,0.0009
2075.00,0.0009
2074.00,0.0008
2073.00,0.0009
2072.00,0.0009
2071.00,0.0010
2070.00,0.0010
2069.00,0.0009
2068.00,0.0008
2067.00,0.0007
2066.00,0.0007
2065.00,0.0008
2064.00,0.0010
2063.00,0.0010
2062.00,0.0009
2061.00,0.0008
2060.00,0.0007
2059.00,0.0008
2058.00,0.0010
2057.00,0.0011
2056.00,0.0010
2055.00,0.0009
2054.00,0.0008
2053.00,0.0011
2052.00,0.0017
2051.00,0.0021
2050.00,0.0021
2049.00,0.0017
2048.00,0.0013
2047.00,0.0009
2046.00,0.0008
2045.00,0.0007
2044.00,0.0006
2043.00,0.0006
2042.00,0.0007
2041.00,0.0009
2040.00,0.0010
2039.00,0.0010
2038.00,0.0007
2037.00,0.0005
2036.00,0.0002
2035.00,-0.0000
2034.00,-0.0003
2033.00,-0.0004
2032.00,-0.0005
2031.00,-0.0005
2030.00,-0.0005
2029.00,-0.0004
2028.00,-0.0003
2027.00,-0.0003
2026.00,-0.0002
2025.00,-0.0000
2024.00,0.0001
2023.00,0.0000
2022.00,-0.0001
2021.00,-0.0002
2020.00,-0.0002
2019.00,-0.0001
2018.00,0.0001
2017.00,0.0003
2016.00,0.0004
2015.00,0.0002
2014.00,-0.0002
2013.00,-0.0005
2012.00,-0.0006
2011.00,-0.0006
2010.00,-0.0005
2009.00,-0.0002
2008.00,-0.0001
2007.00,-0.0002
2006.00,-0.0004
2005.00,-0.0006
2004.00,-0.0006
2003.00,-0.0005
2002.00,-0.0004
2001.00,-0.0002
2000.00,-0.0000
1999.00,0.0000
1998.00,-0.0001
1997.00,-0.0002
1996.00,-0.0003
1995.00,-0.0004
1994.00,-0.0004
1993.00,-0.0003
1992.00,-0.0000
1991.00,0.0002
1990.00,0.0005
1989.00,0.0007
1988.00,0.0009
1987.00,0.0012
1986.00,0.0014
1985.00,0.0014
1984.00,0.0013
1983.00,0.0013
1982.00,0.0014
1981.00,0.0016
1980.00,0.0016
1979.00,0.0011
1978.00,0.0003
1977.00,-0.0005
1976.00,-0.0009
1975.00,-0.0011
1974.00,-0.0010
1973.00,-0.0010
1972.00,-0.0009
1971.00,-0.0009
1970.00,-0.0010
1969.00,-0.0009
1968.00,-0.0009
1967.00,-0.0009
1966.00,-0.0008
1965.00,-0.0007
1964.00,-0.0007
1963.00,-0.0007
1962.00,-0.0008
1961.00,-0.0009
1960.00,-0.0009
1959.00,-0.0010
1958.00,-0.0010
1957.00,-0.0011
1956.00,-0.0012
1955.00,-0.0014
1954.00,-0.0015
1953.00,-0.0015
1952.00,-0.0014
1951.00,-0.0014
1950.00,-0.0013
1949.00,-0.0011
1948.00,-0.0010
1947.00,-0.0009
1946.00,-0.0009
1945.00,-0.0009
1944.00,-0.0009
1943.00,-0.0009
1942.00,-0.0008
1941.00,-0.0006
1940.00,-0.0006
1939.00,-0.0006
1938.00,-0.0008
1937.00,-0.0008
1936.00,-0.0007
1935.00,-0.0006
1934.00,-0.0005
1933.00,-0.0006
1932.00,-0.0007
1931.00,-0.0009
1930.00,-0.0009
1929.00,-0.0007
1928.00,-0.0005
1927.00,-0.0004
1926.00,-0.0004
1925.00,-0.0003
1924.00,-0.0003
1923.00,-0.0002
1922.00,-0.0001
1921.00,0.0000
1920.00,0.0002
1919.00,0.0003
1918.00,0.0004
1917.00,0.0004
1916.00,0.0002
1915.00,0.0001
1914.00,0.0000
1913.00,0.0001
1912.00,0.0002
1911.00,0.0003
1910.00,0.0002
1909.00,0.0002
1908.00,0.0001
1907.00,0.0002
1906.00,0.0003
1905.00,0.0004
1904.00,0.0005
1903.00,0.0006
1902.00,0.0006
1901.00,0.0006
1900.00,0.0006
1899.00,0.0006
1898.00,0.0005
1897.00,0.0004
1896.00,0.0003
1895.00,0.0003
1894.00,0.0003
1893.00,0.0003
1892.00,0.0004
1891.00,0.0004
1890.00,0.0004
1889.00,0.0004
1888.00,0.0005
1887.00,0.0006
1886.00,0.0006
1885.00,0.0005
1884.00,0.0005
1883.00,0.0005
1882.00,0.0005
1881.00,0.0005
1880.00,0.0005
1879.00,0.0005
1878.00,0.0004
1877.00,0.0004
1876.00,0.0004
1875.00,0.0004
1874.00,0.0004
1873.00,0.0004
1872.00,0.0004
1871.00,0.0005
1870.00,0.0005
1869.00,0.0005
1868.00,0.0005
1867.00,0.0004
1866.00,0.0004
1865.00,0.0004
1864.00,0.0005
1863.00,0.0006
1862.00,0.0007
1861.00,0.0007
1860.00,0.0008
1859.00,0.0007
1858.00,0.0006
1857.00,0.0005
1856.00,0.0005
1855.00,0.0005
1854.00,0.0005
1853.00,0.0006
1852.00,0.0007
1851.00,0.0007
1850.00,0.0007
1849.00,0.0007
1848.00,0.0007
1847.00,0.0007
1846.00,0.0007
1845.00,0.0007
1844.00,0.0007
1843.00,0.0007
1842.00,0.0007
1841.00,0.0007
1840.00,0.0008
1839.00,0.0009
1838.00,0.0009
1837.00,0.0009
1836.00,0.0010
1835.00,0.0009
1834.00,0.0009
1833.00,0.0009
1832.00,0.0009
1831.00,0.0009
1830.00,0.0010
1829.00,0.0010
1828.00,0.0010
1827.00,0.0009
1826.00,0.0009
1825.00,0.0008
1824.00,0.0008
1823.00,0.0008
1822.00,0.0008
1821.00,0.0008
1820.00,0.0008
1819.00,0.0007
1818.00,0.0006
1817.00,0.0006
1816.00,0.0006
1815.00,0.0006
1814.00,0.0006
1813.00,0.0006
1812.00,0.0006
1811.00,0.0006
1810.00,0.0007
1809.00,0.0007
1808.00,0.0008
1807.00,0.0008
1806.00,0.0008
1805.00,0.0008
1804.00,0.0008
1803.00,0.0008
1802.00,0.0009
1801.00,0.0009
1800.00,0.0010
1799.00,0.0010
1798.00,0.0010
1797.00,0.0010
1796.00,0.0011
1795.00,0.0011
1794.00,0.0011
1793.00,0.0011
1792.00,0.0012
1791.00,0.0013
1790.00,0.0014
1789.00,0.0014
1788.00,0.0015
1787.00,0.0016
1786.00,0.0017
1785.00,0.0018
1784.00,0.0018
1783.00,0.0018
1782.00,0.0018
1781.00,0.0018
1780.00,0.0018
1779.00,0.0018
1778.00,0.0018
1777.00,0.0017
1776.00,0.0018
1775.00,0.0018
1774.00,0.0017
1773.00,0.0017
1772.00,0.0018
1771.00,0.0019
1770.00,0.0019
1769.00,0.0020
1768.00,0.0020
1767.00,0.0021
1766.00,0.0020
1765.00,0.0021
1764.00,0.0021
1763.00,0.0022
1762.00,0.0023
1761.00,0.0023
1760.00,0.0023
1759.00,0.0024
1758.00,0.0024
1757.00,0.0025
1756.00,0.0025
1755.00,0.0026
1754.00,0.0027
1753.00,0.0028
1752.00,0.0029
1751.00,0.0029
1750.00,0.0030
1749.00,0.0030
1748.00,0.0031
1747.00,0.0031
1746.00,0.0032
1745.00,0.0034
1744.00,0.0035
1743.00,0.0035
1742.00,0.0036
1741.00,0.0036
1740.00,0.0036
1739.00,0.0037
1738.00,0.0037
1737.00,0.0037
1736.00,0.0037
1735.00,0.0037
1734.00,0.0037
1733.00,0.0037
1732.00,0.0037
1731.00,0.0038
1730.00,0.0038
1729.00,0.0038
1728.00,0.0038
1727.00,0.0038
1726.00,0.0037
1725.00,0.0037
1724.00,0.0038
1723.00,0.0038
1722.00,0.0038
1721.00,0.0037
1720.00,0.0037
1719.00,0.0036
1718.00,0.0035
1717.00,0.0034
1716.00,0.0034
1715.00,0.0035
1714.00,0.0035
1713.00,0.0036
1712.00,0.0037
1711.00,0.0038
1710.00,0.0038
1709.00,0.0038
1708.00,0.0038
1707.00,0.0039
1706.00,0.0039
1705.00,0.0040
1704.00,0.0040
1703.00,0.0041
1702.00,0.0041
1701.00,0.0042
1700.00,0.0043
1699.00,0.0043
1698.00,0.0044
1697.00,0.0046
1696.00,0.0049
1695.00,0.0050
1694.00,0.0051
1693.00,0.0052
1692.00,0.0053
1691.00,0.0055
1690.00,0.0056
1689.00,0.0057
1688.00,0.0059
1687.00,0.0060
1686.00,0.0062
1685.00,0.0063
1684.00,0.0065
1683.00,0.0067
1682.00,0.0069
1681.00,0.0071
1680.00,0.0074
1679.00,0.0076
1678.00,0.0078
1677.00,0.0079
1676.00,0.0080
1675.00,0.0082
1674.00,0.0083
1673.00,0.0085
1672.00,0.0086
1671.00,0.0087
1670.00,0.0089
1669.00,0.0091
1668.00,0.0092
1667.00,0.0094
1666.00,0.0095
1665.00,0.0097
1664.00,0.0099
1663.00,0.0101
1662.00,0.0103
1661.00,0.0104
1660.00,0.0106
1659.00,0.0108
1658.00,0.0109
1657.00,0.0111
1656.00,0.0113
1655.00,0.0114
1654.00,0.0114
1653.00,0.0116
1652.00,0.0117
1651.00,0.0118
1650.00,0.0120
1649.00,0.0122
1648.00,0.0125
1647.00,0.0127
1646.00,0.0129
1645.00,0.0130
1644.00,0.0130
1643.00,0.0131
1642.00,0.0131
1641.00,0.0131
1640.00,0.0131
1639.00,0.0131
1638.00,0.0131
1637.00,0.0131
1636.00,0.0131
1635.00,0.0130
1634.00,0.0130
1633.00,0.0129
1632.00,0.0130
1631.00,0.0130
1630.00,0.0129
1629.00,0.0129
1628.00,0.0128
1627.00,0.0127
1626.00,0.0125
1625.00,0.0124
1624.00,0.0123
1623.00,0.0122
1622.00,0.0121
1621.00,0.0120
1620.00,0.0120
1619.00,0.0119
1618.00,0.0118
1617.00,0.0117
1616.00,0.0116
1615.00,0.0116
1614.00,0.0116
1613.00,0.0117
1612.00,0.0117
1611.00,0.0117
1610.00,0.0116
1609.00,0.0116
1608.00,0.0116
1607.00,0.0116
1606.00,0.0116
1605.00,0.0116
1604.00,0.0116
1603.00,0.0116
1602.00,0.0115
1601.00,0.0115
1600.00,0.0114
1599.00,0.0114
1598.00,0.0113
1597.00,0.0113
1596.00,0.0113
1595.00,0.0112
1594.00,0.0112
1593.00,0.0112
1592.00,0.0112
1591.00,0.0112
1590.00,0.0112
1589.00,0.0113
1588.00,0.0114
1587.00,0.0115
1586.00,0.0116
1585.00,0.0119
1584.00,0.0122
1583.00,0.0124
1582.00,0.0127
1581.00,0.0130
1580.00,0.0132
1579.00,0.0134
1578.00,0.0136
1577.00,0.0136
1576.00,0.0135
1575.00,0.0133
1574.00,0.0131
1573.00,0.0129
1572.00,0.0128
1571.00,0.0126
1570.00,0.0123
1569.00,0.0121
1568.00,0.0120
1567.00,0.0119
1566.00,0.0119
1565.00,0.0119
1564.00,0.0119
1563.00,0.0119
1562.00,0.0120
1561.00,0.0121
1560.00,0.0122
1559.00,0.0123
1558.00,0.0124
1557.00,0.0125
1556.00,0.0126
1555.00,0.0129
1554.00,0.0131
1553.00,0.0134
1552.00,0.0136
1551.00,0.0139
1550.00,0.0142
1549.00,0.0145
1548.00,0.0147
1547.00,0.0150
1546.00,0.0153
1545.00,0.0156
1544.00,0.0159
1543.00,0.0161
1542.00,0.0161
1541.00,0.0160
1540.00,0.0158
1539.00,0.0154
1538.00,0.0150
1537.00,0.0148
1536.00,0.0145
1535.00,0.0142
1534.00,0.0136
1533.00,0.0131
1532.00,0.0127
1531.00,0.0124
1530.00,0.0121
1529.00,0.0119
1528.00,0.0117
1527.00,0.0114
1526.00,0.0111
1525.00,0.0109
1524.00,0.0108
1523.00,0.0106
1522.00,0.0104
1521.00,0.0103
1520.00,0.0103
1519.00,0.0102
1518.00,0.0102
1517.00,0.0102
1516.00,0.0102
1515.00,0.0101
1514.00,0.0101
1513.00,0.0102
1512.00,0.0103
1511.00,0.0103
1510.00,0.0104
1509.00,0.0104
1508.00,0.0105
1507.00,0.0105
1506.00,0.0107
1505.00,0.0109
1504.00,0.0112
1503.00,0.0116
1502.00,0.0120
1501.00,0.0125
1500.00,0.0130
1499.00,0.0135
1498.00,0.0141
1497.00,0.0149
1496.00,0.0159
1495.00,0.0166
1494.00,0.0173
1493.00,0.0179
1492.00,0.0186
1491.00,0.0192
1490.00,0.0198
1489.00,0.0205
1488.00,0.0212
1487.00,0.0218
1486.00,0.0224
1485.00,0.0230
1484.00,0.0238
1483.00,0.0246
1482.00,0.0256
1481.00,0.0268
1480.00,0.0282
1479.00,0.0297
1478.00,0.0314
1477.00,0.0339
1476.00,0.0369
1475.00,0.0404
1474.00,0.0446
1473.00,0.0501
1472.00,0.0561
1471.00,0.0616
1470.00,0.0670
1469.00,0.0730
1468.00,0.0798
1467.00,0.0877
1466.00,0.0973
1465.00,0.1081
1464.00,0.1177
1463.00,0.1244
1462.00,0.1284
1461.00,0.1310
1460.00,0.1326
1459.00,0.1334
1458.00,0.1338
1457.00,0.1339
1456.00,0.1333
1455.00,0.1321
1454.00,0.1305
1453.00,0.1283
1452.00,0.1250
1451.00,0.1206
1450.00,0.1146
1449.00,0.1067
1448.00,0.0970
1447.00,0.0871
1446.00,0.0784
1445.00,0.0711
1444.00,0.0650
1443.00,0.0601
1442.00,0.0564
1441.00,0.0540
1440.00,0.0527
1439.00,0.0524
1438.00,0.0529
1437.00,0.0534
1436.00,0.0526
1435.00,0.0500
1434.00,0.0460
1433.00,0.0412
1432.00,0.0362
1431.00,0.0318
1430.00,0.0285
1429.00,0.0261
1428.00,0.0245
1427.00,0.0237
1426.00,0.0232
1425.00,0.0227
1424.00,0.0224
1423.00,0.0223
1422.00,0.0224
1421.00,0.0224
1420.00,0.0223
1419.00,0.0225
1418.00,0.0226
1417.00,0.0227
1416.00,0.0227
1415.00,0.0229
1414.00,0.0232
1413.00,0.0234
1412.00,0.0237
1411.00,0.0243
1410.00,0.0249
1409.00,0.0254
1408.00,0.0259
1407.00,0.0266
1406.00,0.0276
1405.00,0.0286
1404.00,0.0298
1403.00,0.0310
1402.00,0.0323
1401.00,0.0336
1400.00,0.0351
1399.00,0.0367
1398.00,0.0383
1397.00,0.0398
1396.00,0.0412
1395.00,0.0427
1394.00,0.0440
1393.00,0.0450
1392.00,0.0457
1391.00,0.0466
1390.00,0.0479
1389.00,0.0498
1388.00,0.0526
1387.00,0.0568
1386.00,0.0621
1385.00,0.0687
1384.00,0.0774
1383.00,0.0890
1382.00,0.1042
1381.00,0.1239
1380.00,0.1486
1379.00,0.1773
1378.00,0.2060
1377.00,0.2280
1376.00,0.2366
1375.00,0.2274
1374.00,0.2024
1373.00,0.1711
1372.00,0.1417
1371.00,0.1169
1370.00,0.0968
1369.00,0.0814
1368.00,0.0704
1367.00,0.0635
1366.00,0.0595
1365.00,0.0576
1364.00,0.0573
1363.00,0.0583
1362.00,0.0603
1361.00,0.0625
1360.00,0.0641
1359.00,0.0644
1358.00,0.0629
1357.00,0.0597
1356.00,0.0551
1355.00,0.0500
1354.00,0.0451
1353.00,0.0409
1352.00,0.0375
1351.00,0.0347
1350.00,0.0324
1349.00,0.0306
1348.00,0.0291
1347.00,0.0279
1346.00,0.0270
1345.00,0.0262
1344.00,0.0255
1343.00,0.0249
1342.00,0.0243
1341.00,0.0238
1340.00,0.0233
1339.00,0.0228
1338.00,0.0224
1337.00,0.0222
1336.00,0.0221
1335.00,0.0221
1334.00,0.0222
1333.00,0.0225
1332.00,0.0227
1331.00,0.0229
1330.00,0.0228
1329.00,0.0224
1328.00,0.0218
1327.00,0.0210
1326.00,0.0201
1325.00,0.0192
1324.00,0.0183
1323.00,0.0176
1322.00,0.0169
1321.00,0.0164
1320.00,0.0160
1319.00,0.0156
1318.00,0.0153
1317.00,0.0149
1316.00,0.0147
1315.00,0.0145
1314.00,0.0143
1313.00,0.0142
1312.00,0.0142
1311.00,0.0143
1310.00,0.0145
1309.00,0.0150
1308.00,0.0156
1307.00,0.0164
1306.00,0.0172
1305.00,0.0179
1304.00,0.0181
1303.00,0.0181
1302.00,0.0179
1301.00,0.0178
1300.00,0.0179
1299.00,0.0181
1298.00,0.0183
1297.00,0.0184
1296.00,0.0184
1295.00,0.0183
1294.00,0.0180
1293.00,0.0175
1292.00,0.0170
1291.00,0.0165
1290.00,0.0160
1289.00,0.0157
1288.00,0.0154
1287.00,0.0153
1286.00,0.0152
1285.00,0.0151
1284.00,0.0151
1283.00,0.0152
1282.00,0.0153
1281.00,0.0155
1280.00,0.0157
1279.00,0.0160
1278.00,0.0164
1277.00,0.0168
1276.00,0.0172
1275.00,0.0178
1274.00,0.0184
1273.00,0.0191
1272.00,0.0198
1271.00,0.0207
1270.00,0.0215
1269.00,0.0224
1268.00,0.0232
1267.00,0.0241
1266.00,0.0250
1265.00,0.0258
1264.00,0.0265
1263.00,0.0271
1262.00,0.0276
1261.00,0.0281
1260.00,0.0286
1259.00,0.0292
1258.00,0.0299
1257.00,0.0306
1256.00,0.0312
1255.00,0.0316
1254.00,0.0317
1253.00,0.0315
1252.00,0.0311
1251.00,0.0306
1250.00,0.0298
1249.00,0.0290
1248.00,0.0282
1247.00,0.0275
1246.00,0.0269
1245.00,0.0266
1244.00,0.0264
1243.00,0.0262
1242.00,0.0260
1241.00,0.0258
1240.00,0.0255
1239.00,0.0252
1238.00,0.0249
1237.00,0.0245
1236.00,0.0240
1235.00,0.0234
1234.00,0.0228
1233.00,0.0223
1232.00,0.0217
1231.00,0.0212
1230.00,0.0208
1229.00,0.0203
1228.00,0.0199
1227.00,0.0195
1226.00,0.0192
1225.00,0.0191
1224.00,0.0190
1223.00,0.0190
1222.00,0.0190
1221.00,0.0190
1220.00,0.0189
1219.00,0.0187
1218.00,0.0184
1217.00,0.0179
1216.00,0.0174
1215.00,0.0168
1214.00,0.0163
1213.00,0.0157
1212.00,0.0152
1211.00,0.0147
1210.00,0.0144
1209.00,0.0141
1208.00,0.0139
1207.00,0.0138
1206.00,0.0137
1205.00,0.0137
1204.00,0.0136
1203.00,0.0136
1202.00,0.0136
1201.00,0.0136
1200.00,0.0137
1199.00,0.0138
1198.00,0.0139
1197.00,0.0141
1196.00,0.0144
1195.00,0.0147
1194.00,0.0150
1193.00,0.0153
1192.00,0.0157
1191.00,0.0162
1190.00,0.0167
1189.00,0.0172
1188.00,0.0177
1187.00,0.0183
1186.00,0.0190
1185.00,0.0198
1184.00,0.0206
1183.00,0.0214
1182.00,0.0222
1181.00,0.0230
1180.00,0.0239
1179.00,0.0249
1178.00,0.0260
1177.00,0.0272
1176.00,0.0287
1175.00,0.0304
1174.00,0.0326
1173.00,0.0351
1172.00,0.0380
1171.00,0.0410
1170.00,0.0440
1169.00,0.0466
1168.00,0.0484
1167.00,0.0495
1166.00,0.0498
1165.00,0.0498
1164.00,0.0494
1163.00,0.0489
1162.00,0.0484
1161.00,0.0480
1160.00,0.0479
1159.00,0.0480
1158.00,0.0482
1157.00,0.0485
1156.00,0.0488
1155.00,0.0490
1154.00,0.0492
1153.00,0.0492
1152.00,0.0491
1151.00,0.0486
1150.00,0.0478
1149.00,0.0467
1148.00,0.0454
1147.00,0.0440
1146.00,0.0427
1145.00,0.0415
1144.00,0.0402
1143.00,0.0391
1142.00,0.0381
1141.00,0.0372
1140.00,0.0365
1139.00,0.0358
1138.00,0.0352
1137.00,0.0345
1136.00,0.0338
1135.00,0.0330
1134.00,0.0324
1133.00,0.0319
1132.00,0.0316
1131.00,0.0314
1130.00,0.0313
1129.00,0.0311
1128.00,0.0309
1127.00,0.0306
1126.00,0.0302
1125.00,0.0299
1124.00,0.0296
1123.00,0.0294
1122.00,0.0291
1121.00,0.0289
1120.00,0.0286
1119.00,0.0283
1118.00,0.0280
1117.00,0.0277
1116.00,0.0275
1115.00,0.0273
1114.00,0.0271
1113.00,0.0269
1112.00,0.0268
1111.00,0.0268
1110.00,0.0269
1109.00,0.0272
1108.00,0.0276
1107.00,0.0283
1106.00,0.0291
1105.00,0.0299
1104.00,0.0306
1103.00,0.0311
1102.00,0.0313
1101.00,0.0313
1100.00,0.0312
1099.00,0.0310
1098.00,0.0308
1097.00,0.0307
1096.00,0.0307
1095.00,0.0308
1094.00,0.0310
1093.00,0.0312
1092.00,0.0314
1091.00,0.0317
1090.00,0.0320
1089.00,0.0321
1088.00,0.0322
1087.00,0.0322
1086.00,0.0322
1085.00,0.0323
1084.00,0.0323
1083.00,0.0324
1082.00,0.0324
1081.00,0.0323
1080.00,0.0321
1079.00,0.0320
1078.00,0.0318
1077.00,0.0317
1076.00,0.0317
1075.00,0.0318
1074.00,0.0319
1073.00,0.0320
1072.00,0.0319
1071.00,0.0317
1070.00,0.0312
1069.00,0.0306
1068.00,0.0298
1067.00,0.0290
1066.00,0.0283
1065.00,0.0277
1064.00,0.0272
1063.00,0.0267
1062.00,0.0263
1061.00,0.0259
1060.00,0.0254
1059.00,0.0249
1058.00,0.0243
1057.00,0.0236
1056.00,0.0230
1055.00,0.0224
1054.00,0.0218
1053.00,0.0211
1052.00,0.0204
1051.00,0.0198
1050.00,0.0193
1049.00,0.0190
1048.00,0.0189
1047.00,0.0187
1046.00,0.0184
1045.00,0.0180
1044.00,0.0176
1043.00,0.0171
1042.00,0.0167
1041.00,0.0164
1040.00,0.0161
1039.00,0.0159
1038.00,0.0159
1037.00,0.0159
1036.00,0.0159
1035.00,0.0158
1034.00,0.0156
1033.00,0.0154
1032.00,0.0151
1031.00,0.0149
1030.00,0.0146
1029.00,0.0142
1028.00,0.0140
1027.00,0.0137
1026.00,0.0136
1025.00,0.0134
1024.00,0.0132
1023.00,0.0131
1022.00,0.0130
1021.00,0.0131
1020.00,0.0132
1019.00,0.0133
1018.00,0.0134
1017.00,0.0135
1016.00,0.0137
1015.00,0.0139
1014.00,0.0143
1013.00,0.0147
1012.00,0.0149
1011.00,0.0151
1010.00,0.0152
1009.00,0.0153
1008.00,0.0154
1007.00,0.0157
1006.00,0.0161
1005.00,0.0169
1004.00,0.0179
1003.00,0.0194
1002.00,0.0214
1001.00,0.0238
1000.00,0.0263
999.00,0.0282
998.00,0.0290
997.00,0.0284
996.00,0.0265
995.00,0.0239
994.00,0.0213
993.00,0.0190
992.00,0.0172
991.00,0.0158
990.00,0.0148
989.00,0.0141
988.00,0.0137
987.00,0.0136
986.00,0.0138
985.00,0.0143
984.00,0.0151
983.00,0.0162
982.00,0.0178
981.00,0.0198
980.00,0.0223
979.00,0.0255
978.00,0.0295
977.00,0.0340
976.00,0.0388
975.00,0.0433
974.00,0.0470
973.00,0.0491
972.00,0.0494
971.00,0.0480
970.00,0.0457
969.00,0.0430
968.00,0.0407
967.00,0.0388
966.00,0.0373
965.00,0.0360
964.00,0.0349
963.00,0.0339
962.00,0.0332
961.00,0.0330
960.00,0.0333
959.00,0.0339
958.00,0.0345
957.00,0.0349
956.00,0.0350
955.00,0.0349
954.00,0.0348
953.00,0.0346
952.00,0.0342
951.00,0.0337
950.00,0.0330
949.00,0.0324
948.00,0.0319
947.00,0.0316
946.00,0.0315
945.00,0.0316
944.00,0.0317
943.00,0.0317
942.00,0.0316
941.00,0.0313
940.00,0.0307
939.00,0.0296
938.00,0.0283
937.00,0.0266
936.00,0.0249
935.00,0.0233
934.00,0.0218
933.00,0.0204
932.00,0.0192
931.00,0.0181
930.00,0.0170
929.00,0.0160
928.00,0.0151
927.00,0.0143
926.00,0.0136
925.00,0.0130
924.00,0.0125
923.00,0.0121
922.00,0.0119
921.00,0.0117
920.00,0.0116
919.00,0.0114
918.00,0.0113
917.00,0.0111
916.00,0.0109
915.00,0.0107
914.00,0.0106
913.00,0.0106
912.00,0.0106
911.00,0.0107
910.00,0.0107
909.00,0.0108
908.00,0.0110
907.00,0.0115
906.00,0.0122
905.00,0.0133
904.00,0.0149
903.00,0.0169
902.00,0.0192
901.00,0.0213
900.00,0.0227
899.00,0.0231
898.00,0.0222
897.00,0.0204
896.00,0.0181
895.00,0.0159
894.00,0.0141
893.00,0.0127
892.00,0.0117
891.00,0.0110
890.00,0.0104
889.00,0.0100
888.00,0.0097
887.00,0.0096
886.00,0.0096
885.00,0.0096
884.00,0.0096
883.00,0.0097
882.00,0.0097
881.00,0.0098
880.00,0.0098
879.00,0.0098
878.00,0.0099
877.00,0.0099
876.00,0.0099
875.00,0.0098
874.00,0.0097
873.00,0.0096
872.00,0.0096
871.00,0.0096
870.00,0.0096
869.00,0.0097
868.00,0.0097
867.00,0.0097
866.00,0.0096
865.00,0.0096
864.00,0.0097
863.00,0.0098
862.00,0.0099
861.00,0.0099
860.00,0.0100
859.00,0.0102
858.00,0.0103
857.00,0.0105
856.00,0.0106
855.00,0.0107
854.00,0.0108
853.00,0.0110
852.00,0.0113
851.00,0.0116
850.00,0.0120
849.00,0.0124
848.00,0.0131
847.00,0.0141
846.00,0.0158
845.00,0.0183
844.00,0.0214
843.00,0.0245
842.00,0.0268
841.00,0.0272
840.00,0.0257
839.00,0.0230
838.00,0.0204
837.00,0.0184
836.00,0.0173
835.00,0.0167
834.00,0.0164
833.00,0.0163
832.00,0.0163
831.00,0.0163
830.00,0.0164
829.00,0.0164
828.00,0.0164
827.00,0.0163
826.00,0.0162
825.00,0.0162
824.00,0.0163
823.00,0.0164
822.00,0.0165
821.00,0.0166
820.00,0.0168
819.00,0.0171
818.00,0.0177
817.00,0.0186
816.00,0.0197
815.00,0.0210
814.00,0.0225
813.00,0.0242
812.00,0.0261
811.00,0.0279
810.00,0.0293
809.00,0.0299
808.00,0.0298
807.00,0.0287
806.00,0.0270
805.00,0.0250
804.00,0.0230
803.00,0.0213
802.00,0.0199
801.00,0.0188
800.00,0.0178
799.00,0.0168
798.00,0.0159
797.00,0.0152
796.00,0.0145
795.00,0.0139
794.00,0.0133
793.00,0.0129
792.00,0.0125
791.00,0.0122
790.00,0.0119
789.00,0.0116
788.00,0.0113
787.00,0.0109
786.00,0.0106
785.00,0.0104
784.00,0.0100
783.00,0.0097
782.00,0.0093
781.00,0.0090
780.00,0.0089
779.00,0.0089
778.00,0.0090
777.00,0.0091
776.00,0.0092
775.00,0.0092
774.00,0.0093
773.00,0.0095
772.00,0.0098
771.00,0.0100
770.00,0.0102
769.00,0.0103
768.00,0.0103
767.00,0.0102
766.00,0.0101
765.00,0.0100
764.00,0.0099
763.00,0.0098
762.00,0.0097
761.00,0.0097
760.00,0.0096
759.00,0.0095
758.00,0.0092
757.00,0.0090
756.00,0.0088
755.00,0.0086
754.00,0.0085
753.00,0.0085
752.00,0.0084
751.00,0.0085
750.00,0.0085
749.00,0.0085
748.00,0.0086
747.00,0.0087
746.00,0.0089
745.00,0.0091
744.00,0.0093
743.00,0.0095
742.00,0.0097
741.00,0.0099
740.00,0.0102
739.00,0.0103
738.00,0.0104
737.00,0.0105
736.00,0.0106
735.00,0.0109
734.00,0.0111
733.00,0.0114
732.00,0.0116
731.00,0.0117
730.00,0.0118
729.00,0.0119
728.00,0.0119
727.00,0.0119
726.00,0.0119
725.00,0.0118
724.00,0.0117
723.00,0.0117
722.00,0.0117
721.00,0.0117
720.00,0.0116
719.00,0.0113
718.00,0.0109
717.00,0.0105
716.00,0.0102
715.00,0.0100
714.00,0.0098
713.00,0.0097
712.00,0.0097
711.00,0.0098
710.00,0.0101
709.00,0.0104
708.00,0.0107
707.00,0.0110
706.00,0.0113
705.00,0.0113
704.00,0.0111
703.00,0.0108
702.00,0.0105
701.00,0.0101
700.00,0.0097
699.00,0.0094
698.00,0.0091
697.00,0.0089
696.00,0.0088
695.00,0.0089
694.00,0.0091
693.00,0.0093
692.00,0.0094
691.00,0.0095
690.00,0.0094
689.00,0.0094
688.00,0.0094
687.00,0.0095
686.00,0.0095
685.00,0.0095
684.00,0.0095
683.00,0.0095
682.00,0.0095
681.00,0.0096
680.00,0.0095
679.00,0.0094
678.00,0.0094
677.00,0.0093
676.00,0.0094
675.00,0.0096
674.00,0.0098
673.00,0.0099
672.00,0.0100
671.00,0.0100
670.00,0.0098
669.00,0.0094
668.00,0.0089
667.00,0.0087
666.00,0.0090
665.00,0.0094
664.00,0.0096
663.00,0.0097
662.00,0.0097
661.00,0.0096
660.00,0.0094
659.00,0.0093
658.00,0.0092
657.00,0.0093
656.00,0.0094
655.00,0.0093
654.00,0.0093
653.00,0.0092
652.00,0.0093
651.00,0.0093
650.00,0.0092
649.00,0.0092
648.00,0.0093
647.00,0.0094
646.00,0.0097
645.00,0.0099
644.00,0.0101
643.00,0.0102
642.00,0.0100
641.00,0.0097
640.00,0.0093
639.00,0.0092
638.00,0.0092
637.00,0.0092
636.00,0.0093
635.00,0.0095
634.00,0.0098
633.00,0.0101
632.00,0.0102
631.00,0.0102
630.00,0.0101
629.00,0.0101
628.00,0.0101
627.00,0.0101
626.00,0.0101
625.00,0.0102
624.00,0.0103
623.00,0.0103
622.00,0.0103
621.00,0.0104
620.00,0.0105
619.00,0.0106
618.00,0.0106
617.00,0.0105
616.00,0.0104
615.00,0.0104
614.00,0.0103
613.00,0.0102
612.00,0.0102
611.00,0.0102
610.00,0.0103
609.00,0.0102
608.00,0.0100
607.00,0.0098
606.00,0.0097
605.00,0.0097
604.00,0.0099
603.00,0.0102
602.00,0.0103
601.00,0.0101
600.00,0.0099
599.00,0.0097
598.00,0.0097
597.00,0.0098
596.00,0.0099
595.00,0.0100
594.00,0.0101
593.00,0.0101
592.00,0.0102
591.00,0.0103
590.00,0.0103
589.00,0.0103
588.00,0.0101
587.00,0.0098
586.00,0.0097
585.00,0.0100
584.00,0.0105
583.00,0.0111
582.00,0.0115
581.00,0.0115
580.00,0.0111
579.00,0.0107
578.00,0.0105
577.00,0.0103
576.00,0.0102
575.00,0.0101
574.00,0.0099
573.00,0.0098
572.00,0.0097
571.00,0.0098
570.00,0.0100
569.00,0.0100
568.00,0.0100
567.00,0.0100
566.00,0.0099
565.00,0.0099
564.00,0.0098
563.00,0.0099
562.00,0.0101
561.00,0.0103
560.00,0.0103
559.00,0.0101
558.00,0.0101
557.00,0.0102
556.00,0.0104
555.00,0.0104
554.00,0.0103
553.00,0.0100
552.00,0.0098
551.00,0.0096
550.00,0.0094
549.00,0.0094
548.00,0.0096
547.00,0.0098
546.00,0.0099
545.00,0.0099
544.00,0.0099
543.00,0.0100
542.00,0.0102
541.00,0.0104
540.00,0.0106
539.00,0.0108
538.00,0.0110
537.00,0.0116
536.00,0.0122
535.00,0.0127
534.00,0.0129
533.00,0.0129
532.00,0.0130
531.00,0.0132
530.00,0.0134
529.00,0.0135
528.00,0.0136
527.00,0.0137
526.00,0.0135
525.00,0.0131
524.00,0.0125
523.00,0.0121
522.00,0.0119
521.00,0.0117
520.00,0.0113
519.00,0.0106
518.00,0.0101
517.00,0.0101
516.00,0.0107
515.00,0.0116
514.00,0.0124
513.00,0.0128
512.00,0.0128
511.00,0.0126
510.00,0.0125
509.00,0.0122
508.00,0.0116
507.00,0.0109
506.00,0.0107
505.00,0.0112
504.00,0.0120
503.00,0.0125
502.00,0.0124
501.00,0.0120
500.00,0.0118
499.00,0.0119
498.00,0.0122
497.00,0.0126
496.00,0.0127
495.00,0.0124
494.00,0.0118
493.00,0.0113
492.00,0.0112
491.00,0.0116
490.00,0.0124
489.00,0.0131
488.00,0.0138
487.00,0.0143
486.00,0.0147
485.00,0.0150
484.00,0.0149
483.00,0.0143
482.00,0.0136
481.00,0.0132
480.00,0.0132
479.00,0.0134
478.00,0.0134
477.00,0.0132
476.00,0.0130
475.00,0.0129
474.00,0.0128
473.00,0.0127
472.00,0.0127
471.00,0.0128
470.00,0.0131
469.00,0.0133
468.00,0.0135
467.00,0.0136
466.00,0.0138
465.00,0.0144
464.00,0.0152
463.00,0.0161
462.00,0.0171
461.00,0.0181
460.00,0.0190
459.00,0.0190
458.00,0.0181
457.00,0.0168
456.00,0.0163
455.00,0.0165
454.00,0.0165
453.00,0.0164
452.00,0.0163
451.00,0.0163
450.00,0.0159
