Created as New Dataset,Sample 003 By Administrator Date Friday, September 05 2025
cm-1,A
4000.00,0.0016
3999.00,0.0016
3998.00,0.0016
3997.00,0.0015
3996.00,0.0015
3995.00,0.0015
3994.00,0.0016
3993.00,0.0016
3992.00,0.0016
3991.00,0.0016
3990.00,0.0016
3989.00,0.0016
3988.00,0.0016
3987.00,0.0016
3986.00,0.0015
3985.00,0.0015
3984.00,0.0015
3983.00,0.0015
3982.00,0.0014
3981.00,0.0014
3980.00,0.0014
3979.00,0.0014
3978.00,0.0014
3977.00,0.0015
3976.00,0.0015
3975.00,0.0014
3974.00,0.0014
3973.00,0.0014
3972.00,0.0014
3971.00,0.0014
3970.00,0.0014
3969.00,0.0014
3968.00,0.0014
3967.00,0.0014
3966.00,0.0014
3965.00,0.0014
3964.00,0.0014
3963.00,0.0014
3962.00,0.0014
3961.00,0.0014
3960.00,0.0014
3959.00,0.0014
3958.00,0.0014
3957.00,0.0014
3956.00,0.0014
3955.00,0.0014
3954.00,0.0014
3953.00,0.0014
3952.00,0.0014
3951.00,0.0014
3950.00,0.0013
3949.00,0.0013
3948.00,0.0013
3947.00,0.0013
3946.00,0.0014
3945.00,0.0014
3944.00,0.0014
3943.00,0.0015
3942.00,0.0015
3941.00,0.0015
3940.00,0.0015
3939.00,0.0015
3938.00,0.0015
3937.00,0.0014
3936.00,0.0014
3935.00,0.0014
3934.00,0.0014
3933.00,0.0015
3932.00,0.0015
3931.00,0.0015
3930.00,0.0015
3929.00,0.0015
3928.00,0.0015
3927.00,0.0015
3926.00,0.0015
3925.00,0.0015
3924.00,0.0015
3923.00,0.0015
3922.00,0.0015
3921.00,0.0015
3920.00,0.0015
3919.00,0.0015
3918.00,0.0015
3917.00,0.0015
3916.00,0.0015
3915.00,0.0015
3914.00,0.0015
3913.00,0.0015
3912.00,0.0016
3911.00,0.0016
3910.00,0.0016
3909.00,0.0015
3908.00,0.0015
3907.00,0.0014
3906.00,0.0014
3905.00,0.0014
3904.00,0.0014
3903.00,0.0015
3902.00,0.0015
3901.00,0.0015
3900.00,0.0015
3899.00,0.0015
3898.00,0.0016
3897.00,0.0016
3896.00,0.0016
3895.00,0.0016
3894.00,0.0016
3893.00,0.0016
3892.00,0.0015
3891.00,0.0015
3890.00,0.0016
3889.00,0.0016
3888.00,0.0016
3887.00,0.0016
3886.00,0.0015
3885.00,0.0015
3884.00,0.0015
3883.00,0.0015
3882.00,0.0015
3881.00,0.0015
3880.00,0.0016
3879.00,0.0016
3878.00,0.0016
3877.00,0.0015
3876.00,0.0015
3875.00,0.0015
3874.00,0.0014
3873.00,0.0014
3872.00,0.0015
3871.00,0.0015
3870.00,0.0015
3869.00,0.0016
3868.00,0.0016
3867.00,0.0017
3866.00,0.0016
3865.00,0.0016
3864.00,0.0015
3863.00,0.0015
3862.00,0.0015
3861.00,0.0015
3860.00,0.0015
3859.00,0.0015
3858.00,0.0015
3857.00,0.0015
3856.00,0.0015
3855.00,0.0016
3854.00,0.0016
3853.00,0.0016
3852.00,0.0016
3851.00,0.0015
3850.00,0.0015
3849.00,0.0015
3848.00,0.0015
3847.00,0.0015
3846.00,0.0014
3845.00,0.0014
3844.00,0.0014
3843.00,0.0015
3842.00,0.0015
3841.00,0.0015
3840.00,0.0015
3839.00,0.0015
3838.00,0.0015
3837.00,0.0015
3836.00,0.0015
3835.00,0.0015
3834.00,0.0015
3833.00,0.0016
3832.00,0.0016
3831.00,0.0016
3830.00,0.0016
3829.00,0.0016
3828.00,0.0016
3827.00,0.0016
3826.00,0.0016
3825.00,0.0016
3824.00,0.0016
3823.00,0.0016
3822.00,0.0015
3821.00,0.0015
3820.00,0.0015
3819.00,0.0015
3818.00,0.0015
3817.00,0.0016
3816.00,0.0016
3815.00,0.0017
3814.00,0.0017
3813.00,0.0017
3812.00,0.0018
3811.00,0.0018
3810.00,0.0018
3809.00,0.0018
3808.00,0.0017
3807.00,0.0017
3806.00,0.0017
3805.00,0.0016
3804.00,0.0016
3803.00,0.0015
3802.00,0.0014
3801.00,0.0014
3800.00,0.0015
3799.00,0.0015
3798.00,0.0016
3797.00,0.0016
3796.00,0.0016
3795.00,0.0015
3794.00,0.0015
3793.00,0.0015
3792.00,0.0015
3791.00,0.0015
3790.00,0.0015
3789.00,0.0015
3788.00,0.0015
3787.00,0.0015
3786.00,0.0014
3785.00,0.0014
3784.00,0.0014
3783.00,0.0014
3782.00,0.0014
3781.00,0.0014
3780.00,0.0014
3779.00,0.0014
3778.00,0.0014
3777.00,0.0014
3776.00,0.0014
3775.00,0.0014
3774.00,0.0014
3773.00,0.0014
3772.00,0.0014
3771.00,0.0014
3770.00,0.0013
3769.00,0.0013
3768.00,0.0013
3767.00,0.0014
3766.00,0.0014
3765.00,0.0014
3764.00,0.0014
3763.00,0.0014
3762.00,0.0014
3761.00,0.0013
3760.00,0.0013
3759.00,0.0013
3758.00,0.0013
3757.00,0.0013
3756.00,0.0013
3755.00,0.0013
3754.00,0.0014
3753.00,0.0014
3752.00,0.0014
3751.00,0.0014
3750.00,0.0014
3749.00,0.0014
3748.00,0.0014
3747.00,0.0014
3746.00,0.0014
3745.00,0.0013
3744.00,0.0013
3743.00,0.0013
3742.00,0.0013
3741.00,0.0013
3740.00,0.0014
3739.00,0.0013
3738.00,0.0013
3737.00,0.0013
3736.00,0.0013
3735.00,0.0012
3734.00,0.0012
3733.00,0.0012
3732.00,0.0013
3731.00,0.0013
3730.00,0.0013
3729.00,0.0013
3728.00,0.0013
3727.00,0.0013
3726.00,0.0014
3725.00,0.0014
3724.00,0.0014
3723.00,0.0014
3722.00,0.0014
3721.00,0.0014
3720.00,0.0014
3719.00,0.0014
3718.00,0.0014
3717.00,0.0014
3716.00,0.0014
3715.00,0.0014
3714.00,0.0013
3713.00,0.0013
3712.00,0.0013
3711.00,0.0013
3710.00,0.0013
3709.00,0.0013
3708.00,0.0013
3707.00,0.0014
3706.00,0.0015
3705.00,0.0015
3704.00,0.0016
3703.00,0.0016
3702.00,0.0016
3701.00,0.0015
3700.00,0.0015
3699.00,0.0015
3698.00,0.0015
3697.00,0.0016
3696.00,0.0016
3695.00,0.0017
3694.00,0.0017
3693.00,0.0018
3692.00,0.0019
3691.00,0.0021
3690.00,0.0022
3689.00,0.0024
3688.00,0.0025
3687.00,0.0027
3686.00,0.0029
3685.00,0.0032
3684.00,0.0035
3683.00,0.0038
3682.00,0.0041
3681.00,0.0045
3680.00,0.0048
3679.00,0.0051
3678.00,0.0055
3677.00,0.0059
3676.00,0.0064
3675.00,0.0068
3674.00,0.0071
3673.00,0.0073
3672.00,0.0075
3671.00,0.0076
3670.00,0.0077
3669.00,0.0078
3668.00,0.0079
3667.00,0.0081
3666.00,0.0082
3665.00,0.0084
3664.00,0.0086
3663.00,0.0088
3662.00,0.0089
3661.00,0.0090
3660.00,0.0091
3659.00,0.0090
3658.00,0.0090
3657.00,0.0089
3656.00,0.0089
3655.00,0.0088
3654.00,0.0087
3653.00,0.0086
3652.00,0.0086
3651.00,0.0086
3650.00,0.0085
3649.00,0.0084
3648.00,0.0082
3647.00,0.0080
3646.00,0.0078
3645.00,0.0076
3644.00,0.0075
3643.00,0.0073
3642.00,0.0071
3641.00,0.0069
3640.00,0.0069
3639.00,0.0069
3638.00,0.0069
3637.00,0.0067
3636.00,0.0062
3635.00,0.0055
3634.00,0.0048
3633.00,0.0043
3632.00,0.0040
3631.00,0.0038
3630.00,0.0036
3629.00,0.0034
3628.00,0.0032
3627.00,0.0031
3626.00,0.0030
3625.00,0.0030
3624.00,0.0029
3623.00,0.0028
3622.00,0.0027
3621.00,0.0025
3620.00,0.0024
3619.00,0.0024
3618.00,0.0023
3617.00,0.0023
3616.00,0.0023
3615.00,0.0023
3614.00,0.0023
3613.00,0.0023
3612.00,0.0023
3611.00,0.0023
3610.00,0.0022
3609.00,0.0022
3608.00,0.0022
3607.00,0.0022
3606.00,0.0022
3605.00,0.0022
3604.00,0.0021
3603.00,0.0021
3602.00,0.0021
3601.00,0.0021
3600.00,0.0021
3599.00,0.0021
3598.00,0.0021
3597.00,0.0021
3596.00,0.0022
3595.00,0.0022
3594.00,0.0022
3593.00,0.0022
3592.00,0.0021
3591.00,0.0021
3590.00,0.0021
3589.00,0.0022
3588.00,0.0022
3587.00,0.0023
3586.00,0.0024
3585.00,0.0024
3584.00,0.0024
3583.00,0.0024
3582.00,0.0024
3581.00,0.0024
3580.00,0.0024
3579.00,0.0025
3578.00,0.0025
3577.00,0.0025
3576.00,0.0025
3575.00,0.0025
3574.00,0.0025
3573.00,0.0026
3572.00,0.0026
3571.00,0.0026
3570.00,0.0026
3569.00,0.0026
3568.00,0.0026
3567.00,0.0026
3566.00,0.0026
3565.00,0.0027
3564.00,0.0027
3563.00,0.0028
3562.00,0.0028
3561.00,0.0028
3560.00,0.0029
3559.00,0.0029
3558.00,0.0030
3557.00,0.0030
3556.00,0.0030
3555.00,0.0030
3554.00,0.0030
3553.00,0.0030
3552.00,0.0030
3551.00,0.0030
3550.00,0.0030
3549.00,0.0030
3548.00,0.0031
3547.00,0.0032
3546.00,0.0032
3545.00,0.0033
3544.00,0.0033
3543.00,0.0033
3542.00,0.0033
3541.00,0.0034
3540.00,0.0034
3539.00,0.0034
3538.00,0.0034
3537.00,0.0035
3536.00,0.0035
3535.00,0.0035
3534.00,0.0035
3533.00,0.0036
3532.00,0.0036
3531.00,0.0036
3530.00,0.0036
3529.00,0.0036
3528.00,0.0037
3527.00,0.0037
3526.00,0.0037
3525.00,0.0038
3524.00,0.0038
3523.00,0.0038
3522.00,0.0038
3521.00,0.0039
3520.00,0.0039
3519.00,0.0040
3518.00,0.0040
3517.00,0.0041
3516.00,0.0041
3515.00,0.0041
3514.00,0.0041
3513.00,0.0041
3512.00,0.0041
3511.00,0.0042
3510.00,0.0042
3509.00,0.0042
3508.00,0.0043
3507.00,0.0043
3506.00,0.0044
3505.00,0.0044
3504.00,0.0044
3503.00,0.0045
3502.00,0.0045
3501.00,0.0046
3500.00,0.0046
3499.00,0.0046
3498.00,0.0046
3497.00,0.0047
3496.00,0.0047
3495.00,0.0047
3494.00,0.0048
3493.00,0.0048
3492.00,0.0048
3491.00,0.0048
3490.00,0.0049
3489.00,0.0049
3488.00,0.0050
3487.00,0.0051
3486.00,0.0051
3485.00,0.0052
3484.00,0.0052
3483.00,0.0051
3482.00,0.0051
3481.00,0.0052
3480.00,0.0052
3479.00,0.0052
3478.00,0.0053
3477.00,0.0053
3476.00,0.0053
3475.00,0.0054
3474.00,0.0054
3473.00,0.0055
3472.00,0.0055
3471.00,0.0056
3470.00,0.0056
3469.00,0.0056
3468.00,0.0056
3467.00,0.0056
3466.00,0.0056
3465.00,0.0057
3464.00,0.0057
3463.00,0.0057
3462.00,0.0057
3461.00,0.0057
3460.00,0.0058
3459.00,0.0059
3458.00,0.0059
3457.00,0.0060
3456.00,0.0060
3455.00,0.0060
3454.00,0.0060
3453.00,0.0060
3452.00,0.0060
3451.00,0.0060
3450.00,0.0061
3449.00,0.0061
3448.00,0.0061
3447.00,0.0062
3446.00,0.0062
3445.00,0.0062
3444.00,0.0063
3443.00,0.0063
3442.00,0.0063
3441.00,0.0063
3440.00,0.0063
3439.00,0.0063
3438.00,0.0064
3437.00,0.0064
3436.00,0.0065
3435.00,0.0065
3434.00,0.0065
3433.00,0.0065
3432.00,0.0065
3431.00,0.0065
3430.00,0.0065
3429.00,0.0066
3428.00,0.0066
3427.00,0.0066
3426.00,0.0067
3425.00,0.0067
3424.00,0.0067
3423.00,0.0067
3422.00,0.0067
3421.00,0.0067
3420.00,0.0067
3419.00,0.0067
3418.00,0.0067
3417.00,0.0067
3416.00,0.0067
3415.00,0.0067
3414.00,0.0067
3413.00,0.0067
3412.00,0.0067
3411.00,0.0067
3410.00,0.0067
3409.00,0.0067
3408.00,0.0068
3407.00,0.0068
3406.00,0.0068
3405.00,0.0069
3404.00,0.0069
3403.00,0.0069
3402.00,0.0069
3401.00,0.0069
3400.00,0.0069
3399.00,0.0069
3398.00,0.0069
3397.00,0.0069
3396.00,0.0069
3395.00,0.0069
3394.00,0.0069
3393.00,0.0068
3392.00,0.0068
3391.00,0.0068
3390.00,0.0068
3389.00,0.0069
3388.00,0.0069
3387.00,0.0069
3386.00,0.0069
3385.00,0.0069
3384.00,0.0069
3383.00,0.0069
3382.00,0.0069
3381.00,0.0069
3380.00,0.0068
3379.00,0.0068
3378.00,0.0068
3377.00,0.0068
3376.00,0.0069
3375.00,0.0069
3374.00,0.0069
3373.00,0.0070
3372.00,0.0070
3371.00,0.0070
3370.00,0.0070
3369.00,0.0070
3368.00,0.0070
3367.00,0.0070
3366.00,0.0070
3365.00,0.0070
3364.00,0.0069
3363.00,0.0069
3362.00,0.0069
3361.00,0.0069
3360.00,0.0069
3359.00,0.0069
3358.00,0.0069
3357.00,0.0069
3356.00,0.0070
3355.00,0.0070
3354.00,0.0070
3353.00,0.0070
3352.00,0.0070
3351.00,0.0071
3350.00,0.0071
3349.00,0.0071
3348.00,0.0071
3347.00,0.0070
3346.00,0.0070
3345.00,0.0070
3344.00,0.0069
3343.00,0.0069
3342.00,0.0069
3341.00,0.0069
3340.00,0.0069
3339.00,0.0069
3338.00,0.0069
3337.00,0.0069
3336.00,0.0069
3335.00,0.0069
3334.00,0.0069
3333.00,0.0069
3332.00,0.0069
3331.00,0.0069
3330.00,0.0069
3329.00,0.0069
3328.00,0.0068
3327.00,0.0068
3326.00,0.0067
3325.00,0.0067
3324.00,0.0067
3323.00,0.0067
3322.00,0.0067
3321.00,0.0067
3320.00,0.0067
3319.00,0.0066
3318.00,0.0066
3317.00,0.0066
3316.00,0.0066
3315.00,0.0066
3314.00,0.0066
3313.00,0.0065
3312.00,0.0065
3311.00,0.0066
3310.00,0.0066
3309.00,0.0066
3308.00,0.0065
3307.00,0.0065
3306.00,0.0065
3305.00,0.0065
3304.00,0.0065
3303.00,0.0065
3302.00,0.0065
3301.00,0.0065
3300.00,0.0065
3299.00,0.0064
3298.00,0.0064
3297.00,0.0063
3296.00,0.0063
3295.00,0.0063
3294.00,0.0063
3293.00,0.0063
3292.00,0.0063
3291.00,0.0063
3290.00,0.0063
3289.00,0.0062
3288.00,0.0062
3287.00,0.0062
3286.00,0.0062
3285.00,0.0062
3284.00,0.0061
3283.00,0.0061
3282.00,0.0061
3281.00,0.0061
3280.00,0.0061
3279.00,0.0060
3278.00,0.0060
3277.00,0.0060
3276.00,0.0060
3275.00,0.0060
3274.00,0.0060
3273.00,0.0060
3272.00,0.0060
3271.00,0.0060
3270.00,0.0059
3269.00,0.0060
3268.00,0.0060
3267.00,0.0060
3266.00,0.0060
3265.00,0.0060
3264.00,0.0059
3263.00,0.0059
3262.00,0.0059
3261.00,0.0059
3260.00,0.0058
3259.00,0.0058
3258.00,0.0058
3257.00,0.0058
3256.00,0.0058
3255.00,0.0058
3254.00,0.0058
3253.00,0.0058
3252.00,0.0058
3251.00,0.0058
3250.00,0.0058
3249.00,0.0058
3248.00,0.0057
3247.00,0.0057
3246.00,0.0057
3245.00,0.0057
3244.00,0.0057
3243.00,0.0057
3242.00,0.0057
3241.00,0.0058
3240.00,0.0058
3239.00,0.0058
3238.00,0.0058
3237.00,0.0058
3236.00,0.0058
3235.00,0.0058
3234.00,0.0057
3233.00,0.0057
3232.00,0.0057
3231.00,0.0058
3230.00,0.0058
3229.00,0.0058
3228.00,0.0058
3227.00,0.0058
3226.00,0.0058
3225.00,0.0058
3224.00,0.0058
3223.00,0.0058
3222.00,0.0058
3221.00,0.0059
3220.00,0.0059
3219.00,0.0059
3218.00,0.0059
3217.00,0.0059
3216.00,0.0059
3215.00,0.0059
3214.00,0.0060
3213.00,0.0060
3212.00,0.0059
3211.00,0.0059
3210.00,0.0059
3209.00,0.0059
3208.00,0.0060
3207.00,0.0060
3206.00,0.0060
3205.00,0.0060
3204.00,0.0060
3203.00,0.0059
3202.00,0.0059
3201.00,0.0059
3200.00,0.0059
3199.00,0.0059
3198.00,0.0059
3197.00,0.0059
3196.00,0.0059
3195.00,0.0058
3194.00,0.0059
3193.00,0.0059
3192.00,0.0059
3191.00,0.0059
3190.00,0.0059
3189.00,0.0059
3188.00,0.0059
3187.00,0.0059
3186.00,0.0058
3185.00,0.0058
3184.00,0.0057
3183.00,0.0057
3182.00,0.0056
3181.00,0.0056
3180.00,0.0056
3179.00,0.0056
3178.00,0.0056
3177.00,0.0055
3176.00,0.0055
3175.00,0.0054
3174.00,0.0054
3173.00,0.0054
3172.00,0.0054
3171.00,0.0054
3170.00,0.0054
3169.00,0.0053
3168.00,0.0053
3167.00,0.0052
3166.00,0.0052
3165.00,0.0052
3164.00,0.0051
3163.00,0.0051
3162.00,0.0051
3161.00,0.0050
3160.00,0.0050
3159.00,0.0049
3158.00,0.0049
3157.00,0.0049
3156.00,0.0048
3155.00,0.0048
3154.00,0.0048
3153.00,0.0048
3152.00,0.0048
3151.00,0.0048
3150.00,0.0048
3149.00,0.0048
3148.00,0.0048
3147.00,0.0048
3146.00,0.0047
3145.00,0.0047
3144.00,0.0047
3143.00,0.0047
3142.00,0.0046
3141.00,0.0046
3140.00,0.0046
3139.00,0.0045
3138.00,0.0045
3137.00,0.0045
3136.00,0.0045
3135.00,0.0045
3134.00,0.0045
3133.00,0.0045
3132.00,0.0045
3131.00,0.0045
3130.00,0.0045
3129.00,0.0044
3128.00,0.0044
3127.00,0.0043
3126.00,0.0043
3125.00,0.0043
3124.00,0.0042
3123.00,0.0042
3122.00,0.0042
3121.00,0.0042
3120.00,0.0041
3119.00,0.0041
3118.00,0.0041
3117.00,0.0041
3116.00,0.0041
3115.00,0.0041
3114.00,0.0041
3113.00,0.0041
3112.00,0.0040
3111.00,0.0040
3110.00,0.0039
3109.00,0.0039
3108.00,0.0040
3107.00,0.0040
3106.00,0.0040
3105.00,0.0040
3104.00,0.0040
3103.00,0.0039
3102.00,0.0039
3101.00,0.0038
3100.00,0.0038
3099.00,0.0038
3098.00,0.0038
3097.00,0.0038
3096.00,0.0038
3095.00,0.0038
3094.00,0.0038
3093.00,0.0038
3092.00,0.0038
3091.00,0.0038
3090.00,0.0038
3089.00,0.0038
3088.00,0.0038
3087.00,0.0038
3086.00,0.0037
3085.00,0.0037
3084.00,0.0036
3083.00,0.0036
3082.00,0.0036
3081.00,0.0036
3080.00,0.0036
3079.00,0.0036
3078.00,0.0037
3077.00,0.0037
3076.00,0.0037
3075.00,0.0037
3074.00,0.0037
3073.00,0.0036
3072.00,0.0036
3071.00,0.0037
3070.00,0.0037
3069.00,0.0037
3068.00,0.0037
3067.00,0.0037
3066.00,0.0037
3065.00,0.0038
3064.00,0.0038
3063.00,0.0038
3062.00,0.0038
3061.00,0.0038
3060.00,0.0038
3059.00,0.0038
3058.00,0.0037
3057.00,0.0037
3056.00,0.0037
3055.00,0.0038
3054.00,0.0038
3053.00,0.0038
3052.00,0.0038
3051.00,0.0038
3050.00,0.0038
3049.00,0.0038
3048.00,0.0038
3047.00,0.0039
3046.00,0.0039
3045.00,0.0040
3044.00,0.0040
3043.00,0.0041
3042.00,0.0041
3041.00,0.0041
3040.00,0.0041
3039.00,0.0041
3038.00,0.0041
3037.00,0.0041
3036.00,0.0041
3035.00,0.0042
3034.00,0.0043
3033.00,0.0043
3032.00,0.0044
3031.00,0.0044
3030.00,0.0045
3029.00,0.0046
3028.00,0.0048
3027.00,0.0049
3026.00,0.0051
3025.00,0.0052
3024.00,0.0054
3023.00,0.0056
3022.00,0.0058
3021.00,0.0062
3020.00,0.0066
3019.00,0.0070
3018.00,0.0075
3017.00,0.0081
3016.00,0.0088
3015.00,0.0097
3014.00,0.0106
3013.00,0.0117
3012.00,0.0130
3011.00,0.0144
3010.00,0.0160
3009.00,0.0178
3008.00,0.0197
3007.00,0.0218
3006.00,0.0239
3005.00,0.0262
3004.00,0.0284
3003.00,0.0308
3002.00,0.0330
3001.00,0.0353
3000.00,0.0374
2999.00,0.0393
2998.00,0.0411
2997.00,0.0427
2996.00,0.0442
2995.00,0.0456
2994.00,0.0470
2993.00,0.0484
2992.00,0.0497
2991.00,0.0510
2990.00,0.0524
2989.00,0.0539
2988.00,0.0557
2987.00,0.0583
2986.00,0.0624
2985.00,0.0682
2984.00,0.0755
2983.00,0.0826
2982.00,0.0877
2981.00,0.0895
2980.00,0.0887
2979.00,0.0864
2978.00,0.0840
2977.00,0.0824
2976.00,0.0820
2975.00,0.0831
2974.00,0.0857
2973.00,0.0890
2972.00,0.0923
2971.00,0.0946
2970.00,0.0959
2969.00,0.0969
2968.00,0.0984
2967.00,0.1007
2966.00,0.1037
2965.00,0.1071
2964.00,0.1104
2963.00,0.1137
2962.00,0.1166
2961.00,0.1190
2960.00,0.1207
2959.00,0.1219
2958.00,0.1226
2957.00,0.1232
2956.00,0.1238
2955.00,0.1247
2954.00,0.1260
2953.00,0.1275
2952.00,0.1288
2951.00,0.1297
2950.00,0.1295
2949.00,0.1278
2948.00,0.1243
2947.00,0.1189
2946.00,0.1123
2945.00,0.1049
2944.00,0.0976
2943.00,0.0911
2942.00,0.0859
2941.00,0.0822
2940.00,0.0798
2939.00,0.0788
2938.00,0.0788
2937.00,0.0797
2936.00,0.0816
2935.00,0.0845
2934.00,0.0881
2933.00,0.0924
2932.00,0.0970
2931.00,0.1020
2930.00,0.1070
2929.00,0.1120
2928.00,0.1168
2927.00,0.1213
2926.00,0.1256
2925.00,0.1295
2924.00,0.1331
2923.00,0.1366
2922.00,0.1401
2921.00,0.1434
2920.00,0.1463
2919.00,0.1485
2918.00,0.1496
2917.00,0.1494
2916.00,0.1479
2915.00,0.1452
2914.00,0.1417
2913.00,0.1377
2912.00,0.1336
2911.00,0.1297
2910.00,0.1261
2909.00,0.1229
2908.00,0.1198
2907.00,0.1169
2906.00,0.1140
2905.00,0.1109
2904.00,0.1077
2903.00,0.1045
2902.00,0.1012
2901.00,0.0979
2900.00,0.0946
2899.00,0.0915
2898.00,0.0887
2897.00,0.0863
2896.00,0.0842
2895.00,0.0826
2894.00,0.0814
2893.00,0.0807
2892.00,0.0802
2891.00,0.0800
2890.00,0.0799
2889.00,0.0798
2888.00,0.0798
2887.00,0.0799
2886.00,0.0803
2885.00,0.0809
2884.00,0.0816
2883.00,0.0822
2882.00,0.0826
2881.00,0.0829
2880.00,0.0832
2879.00,0.0834
2878.00,0.0834
2877.00,0.0830
2876.00,0.0824
2875.00,0.0816
2874.00,0.0808
2873.00,0.0803
2872.00,0.0801
2871.00,0.0804
2870.00,0.0809
2869.00,0.0815
2868.00,0.0818
2867.00,0.0814
2866.00,0.0799
2865.00,0.0771
2864.00,0.0731
2863.00,0.0684
2862.00,0.0634
2861.00,0.0587
2860.00,0.0546
2859.00,0.0512
2858.00,0.0486
2857.00,0.0466
2856.00,0.0451
2855.00,0.0441
2854.00,0.0434
2853.00,0.0430
2852.00,0.0428
2851.00,0.0428
2850.00,0.0431
2849.00,0.0438
2848.00,0.0449
2847.00,0.0465
2846.00,0.0486
2845.00,0.0511
2844.00,0.0542
2843.00,0.0577
2842.00,0.0613
2841.00,0.0649
2840.00,0.0680
2839.00,0.0701
2838.00,0.0707
2837.00,0.0696
2836.00,0.0667
2835.00,0.0622
2834.00,0.0567
2833.00,0.0508
2832.00,0.0451
2831.00,0.0399
2830.00,0.0355
2829.00,0.0319
2828.00,0.0288
2827.00,0.0264
2826.00,0.0244
2825.00,0.0228
2824.00,0.0214
2823.00,0.0203
2822.00,0.0193
2821.00,0.0184
2820.00,0.0176
2819.00,0.0170
2818.00,0.0164
2817.00,0.0158
2816.00,0.0154
2815.00,0.0150
2814.00,0.0146
2813.00,0.0143
2812.00,0.0139
2811.00,0.0136
2810.00,0.0132
2809.00,0.0129
2808.00,0.0125
2807.00,0.0122
2806.00,0.0118
2805.00,0.0114
2804.00,0.0111
2803.00,0.0107
2802.00,0.0105
2801.00,0.0102
2800.00,0.0100
2799.00,0.0098
2798.00,0.0096
2797.00,0.0094
2796.00,0.0092
2795.00,0.0091
2794.00,0.0089
2793.00,0.0087
2792.00,0.0085
2791.00,0.0083
2790.00,0.0081
2789.00,0.0079
2788.00,0.0077
2787.00,0.0075
2786.00,0.0074
2785.00,0.0072
2784.00,0.0071
2783.00,0.0070
2782.00,0.0068
2781.00,0.0067
2780.00,0.0065
2779.00,0.0064
2778.00,0.0063
2777.00,0.0061
2776.00,0.0061
2775.00,0.0060
2774.00,0.0060
2773.00,0.0060
2772.00,0.0059
2771.00,0.0059
2770.00,0.0059
2769.00,0.0059
2768.00,0.0058
2767.00,0.0058
2766.00,0.0058
2765.00,0.0057
2764.00,0.0057
2763.00,0.0056
2762.00,0.0056
2761.00,0.0055
2760.00,0.0055
2759.00,0.0054
2758.00,0.0054
2757.00,0.0053
2756.00,0.0053
2755.00,0.0053
2754.00,0.0053
2753.00,0.0053
2752.00,0.0053
2751.00,0.0053
2750.00,0.0053
2749.00,0.0053
2748.00,0.0053
2747.00,0.0053
2746.00,0.0053
2745.00,0.0053
2744.00,0.0054
2743.00,0.0055
2742.00,0.0055
2741.00,0.0056
2740.00,0.0057
2739.00,0.0057
2738.00,0.0058
2737.00,0.0059
2736.00,0.0059
2735.00,0.0060
2734.00,0.0060
2733.00,0.0061
2732.00,0.0062
2731.00,0.0063
2730.00,0.0064
2729.00,0.0065
2728.00,0.0066
2727.00,0.0067
2726.00,0.0069
2725.00,0.0070
2724.00,0.0070
2723.00,0.0070
2722.00,0.0070
2721.00,0.0069
2720.00,0.0067
2719.00,0.0065
2718.00,0.0063
2717.00,0.0061
2716.00,0.0059
2715.00,0.0058
2714.00,0.0057
2713.00,0.0055
2712.00,0.0054
2711.00,0.0053
2710.00,0.0052
2709.00,0.0050
2708.00,0.0049
2707.00,0.0049
2706.00,0.0048
2705.00,0.0048
2704.00,0.0047
2703.00,0.0046
2702.00,0.0046
2701.00,0.0046
2700.00,0.0045
2699.00,0.0045
2698.00,0.0045
2697.00,0.0045
2696.00,0.0045
2695.00,0.0045
2694.00,0.0045
2693.00,0.0044
2692.00,0.0044
2691.00,0.0044
2690.00,0.0045
2689.00,0.0045
2688.00,0.0045
2687.00,0.0045
2686.00,0.0045
2685.00,0.0045
2684.00,0.0045
2683.00,0.0046
2682.00,0.0046
2681.00,0.0046
2680.00,0.0046
2679.00,0.0047
2678.00,0.0047
2677.00,0.0047
2676.00,0.0047
2675.00,0.0048
2674.00,0.0048
2673.00,0.0048
2672.00,0.0048
2671.00,0.0048
2670.00,0.0049
2669.00,0.0049
2668.00,0.0050
2667.00,0.0050
2666.00,0.0050
2665.00,0.0051
2664.00,0.0051
2663.00,0.0052
2662.00,0.0052
2661.00,0.0052
2660.00,0.0052
2659.00,0.0052
2658.00,0.0052
2657.00,0.0051
2656.00,0.0051
2655.00,0.0051
2654.00,0.0050
2653.00,0.0050
2652.00,0.0050
2651.00,0.0050
2650.00,0.0049
2649.00,0.0049
2648.00,0.0048
2647.00,0.0048
2646.00,0.0047
2645.00,0.0047
2644.00,0.0047
2643.00,0.0047
2642.00,0.0046
2641.00,0.0046
2640.00,0.0046
2639.00,0.0045
2638.00,0.0045
2637.00,0.0044
2636.00,0.0043
2635.00,0.0042
2634.00,0.0041
2633.00,0.0041
2632.00,0.0042
2631.00,0.0042
2630.00,0.0042
2629.00,0.0041
2628.00,0.0041
2627.00,0.0041
2626.00,0.0041
2625.00,0.0041
2624.00,0.0041
2623.00,0.0041
2622.00,0.0041
2621.00,0.0041
2620.00,0.0041
2619.00,0.0041
2618.00,0.0040
2617.00,0.0040
2616.00,0.0039
2615.00,0.0038
2614.00,0.0038
2613.00,0.0037
2612.00,0.0037
2611.00,0.0037
2610.00,0.0037
2609.00,0.0037
2608.00,0.0036
2607.00,0.0035
2606.00,0.0034
2605.00,0.0034
2604.00,0.0033
2603.00,0.0033
2602.00,0.0033
2601.00,0.0032
2600.00,0.0031
2599.00,0.0030
2598.00,0.0030
2597.00,0.0030
2596.00,0.0030
2595.00,0.0031
2594.00,0.0031
2593.00,0.0031
2592.00,0.0031
2591.00,0.0032
2590.00,0.0032
2589.00,0.0032
2588.00,0.0033
2587.00,0.0033
2586.00,0.0033
2585.00,0.0033
2584.00,0.0033
2583.00,0.0033
2582.00,0.0033
2581.00,0.0033
2580.00,0.0033
2579.00,0.0032
2578.00,0.0031
2577.00,0.0031
2576.00,0.0030
2575.00,0.0030
2574.00,0.0029
2573.00,0.0029
2572.00,0.0028
2571.00,0.0027
2570.00,0.0026
2569.00,0.0025
2568.00,0.0025
2567.00,0.0024
2566.00,0.0024
2565.00,0.0024
2564.00,0.0024
2563.00,0.0025
2562.00,0.0025
2561.00,0.0025
2560.00,0.0025
2559.00,0.0024
2558.00,0.0024
2557.00,0.0024
2556.00,0.0023
2555.00,0.0022
2554.00,0.0022
2553.00,0.0022
2552.00,0.0023
2551.00,0.0023
2550.00,0.0023
2549.00,0.0022
2548.00,0.0022
2547.00,0.0022
2546.00,0.0022
2545.00,0.0022
2544.00,0.0022
2543.00,0.0021
2542.00,0.0021
2541.00,0.0021
2540.00,0.0021
2539.00,0.0021
2538.00,0.0021
2537.00,0.0021
2536.00,0.0020
2535.00,0.0019
2534.00,0.0019
2533.00,0.0018
2532.00,0.0018
2531.00,0.0019
2530.00,0.0019
2529.00,0.0019
2528.00,0.0019
2527.00,0.0019
2526.00,0.0019
2525.00,0.0020
2524.00,0.0020
2523.00,0.0020
2522.00,0.0019
2521.00,0.0019
2520.00,0.0019
2519.00,0.0020
2518.00,0.0020
2517.00,0.0019
2516.00,0.0019
2515.00,0.0018
2514.00,0.0018
2513.00,0.0017
2512.00,0.0017
2511.00,0.0016
2510.00,0.0016
2509.00,0.0016
2508.00,0.0016
2507.00,0.0017
2506.00,0.0017
2505.00,0.0017
2504.00,0.0017
2503.00,0.0017
2502.00,0.0017
2501.00,0.0017
2500.00,0.0017
2499.00,0.0017
2498.00,0.0017
2497.00,0.0017
2496.00,0.0017
2495.00,0.0017
2494.00,0.0017
2493.00,0.0017
2492.00,0.0017
2491.00,0.0017
2490.00,0.0016
2489.00,0.0016
2488.00,0.0017
2487.00,0.0017
2486.00,0.0017
2485.00,0.0017
2484.00,0.0016
2483.00,0.0016
2482.00,0.0016
2481.00,0.0017
2480.00,0.0017
2479.00,0.0017
2478.00,0.0017
2477.00,0.0016
2476.00,0.0015
2475.00,0.0014
2474.00,0.0014
2473.00,0.0015
2472.00,0.0015
2471.00,0.0015
2470.00,0.0015
2469.00,0.0015
2468.00,0.0015
2467.00,0.0016
2466.00,0.0016
2465.00,0.0016
2464.00,0.0016
2463.00,0.0016
2462.00,0.0016
2461.00,0.0016
2460.00,0.0016
2459.00,0.0016
2458.00,0.0017
2457.00,0.0017
2456.00,0.0017
2455.00,0.0016
2454.00,0.0016
2453.00,0.0016
2452.00,0.0016
2451.00,0.0016
2450.00,0.0017
2449.00,0.0017
2448.00,0.0017
2447.00,0.0017
2446.00,0.0017
2445.00,0.0016
2444.00,0.0016
2443.00,0.0016
2442.00,0.0017
2441.00,0.0017
2440.00,0.0017
2439.00,0.0017
2438.00,0.0017
2437.00,0.0017
2436.00,0.0017
2435.00,0.0017
2434.00,0.0017
2433.00,0.0017
2432.00,0.0017
2431.00,0.0016
2430.00,0.0016
2429.00,0.0016
2428.00,0.0016
2427.00,0.0015
2426.00,0.0015
2425.00,0.0015
2424.00,0.0015
2423.00,0.0016
2422.00,0.0016
2421.00,0.0017
2420.00,0.0017
2419.00,0.0016
2418.00,0.0016
2417.00,0.0015
2416.00,0.0014
2415.00,0.0014
2414.00,0.0013
2413.00,0.0014
2412.00,0.0014
2411.00,0.0015
2410.00,0.0015
2409.00,0.0015
2408.00,0.0014
2407.00,0.0014
2406.00,0.0014
2405.00,0.0014
2404.00,0.0014
2403.00,0.0015
2402.00,0.0015
2401.00,0.0015
2400.00,0.0014
2399.00,0.0014
2398.00,0.0014
2397.00,0.0014
2396.00,0.0014
2395.00,0.0014
2394.00,0.0014
2393.00,0.0014
2392.00,0.0013
2391.00,0.0013
2390.00,0.0013
2389.00,0.0013
2388.00,0.0013
2387.00,0.0013
2386.00,0.0013
2385.00,0.0013
2384.00,0.0013
2383.00,0.0012
2382.00,0.0012
2381.00,0.0010
2380.00,0.0010
2379.00,0.0009
2378.00,0.0010
2377.00,0.0011
2376.00,0.0012
2375.00,0.0013
2374.00,0.0013
2373.00,0.0013
2372.00,0.0013
2371.00,0.0013
2370.00,0.0013
2369.00,0.0014
2368.00,0.0015
2367.00,0.0015
2366.00,0.0015
2365.00,0.0014
2364.00,0.0012
2363.00,0.0012
2362.00,0.0012
2361.00,0.0013
2360.00,0.0014
2359.00,0.0014
2358.00,0.0014
2357.00,0.0014
2356.00,0.0015
2355.00,0.0016
2354.00,0.0016
2353.00,0.0016
2352.00,0.0016
2351.00,0.0015
2350.00,0.0014
2349.00,0.0014
2348.00,0.0013
2347.00,0.0013
2346.00,0.0015
2345.00,0.0016
2344.00,0.0017
2343.00,0.0017
2342.00,0.0017
2341.00,0.0018
2340.00,0.0018
2339.00,0.0017
2338.00,0.0017
2337.00,0.0017
2336.00,0.0016
2335.00,0.0016
2334.00,0.0015
2333.00,0.0016
2332.00,0.0017
2331.00,0.0018
2330.00,0.0020
2329.00,0.0021
2328.00,0.0022
2327.00,0.0023
2326.00,0.0025
2325.00,0.0027
2324.00,0.0028
2323.00,0.0027
2322.00,0.0026
2321.00,0.0025
2320.00,0.0024
2319.00,0.0024
2318.00,0.0023
2317.00,0.0022
2316.00,0.0022
2315.00,0.0022
2314.00,0.0021
2313.00,0.0021
2312.00,0.0021
2311.00,0.0020
2310.00,0.0020
2309.00,0.0020
2308.00,0.0020
2307.00,0.0021
2306.00,0.0021
2305.00,0.0020
2304.00,0.0020
2303.00,0.0020
2302.00,0.0020
2301.00,0.0020
2300.00,0.0020
2299.00,0.0020
2298.00,0.0020
2297.00,0.0020
2296.00,0.0021
2295.00,0.0021
2294.00,0.0021
2293.00,0.0021
2292.00,0.0022
2291.00,0.0022
2290.00,0.0022
2289.00,0.0022
2288.00,0.0023
2287.00,0.0024
2286.00,0.0024
2285.00,0.0024
2284.00,0.0023
2283.00,0.0023
2282.00,0.0022
2281.00,0.0021
2280.00,0.0020
2279.00,0.0019
2278.00,0.0017
2277.00,0.0016
2276.00,0.0015
2275.00,0.0015
2274.00,0.0015
2273.00,0.0016
2272.00,0.0016
2271.00,0.0016
2270.00,0.0016
2269.00,0.0017
2268.00,0.0017
2267.00,0.0017
2266.00,0.0016
2265.00,0.0014
2264.00,0.0013
2263.00,0.0013
2262.00,0.0012
2261.00,0.0013
2260.00,0.0013
2259.00,0.0014
2258.00,0.0014
2257.00,0.0014
2256.00,0.0012
2255.00,0.0011
2254.00,0.0009
2253.00,0.0009
2252.00,0.0011
2251.00,0.0012
2250.00,0.0014
2249.00,0.0015
2248.00,0.0015
2247.00,0.0014
2246.00,0.0012
2245.00,0.0011
2244.00,0.0010
2243.00,0.0010
2242.00,0.0010
2241.00,0.0010
2240.00,0.0010
2239.00,0.0010
2238.00,0.0011
2237.00,0.0011
2236.00,0.0011
2235.00,0.0010
2234.00,0.0008
2233.00,0.0008
2232.00,0.0009
2231.00,0.0011
2230.00,0.0013
2229.00,0.0015
2228.00,0.0015
2227.00,0.0014
2226.00,0.0014
2225.00,0.0014
2224.00,0.0014
2223.00,0.0013
2222.00,0.0012
2221.00,0.0011
2220.00,0.0012
2219.00,0.0013
2218.00,0.0014
2217.00,0.0014
2216.00,0.0013
2215.00,0.0012
2214.00,0.0010
2213.00,0.0010
2212.00,0.0011
2211.00,0.0012
2210.00,0.0013
2209.00,0.0013
2208.00,0.0012
2207.00,0.0012
2206.00,0.0013
2205.00,0.0014
2204.00,0.0016
2203.00,0.0018
2202.00,0.0018
2201.00,0.0016
2200.00,0.0013
2199.00,0.0011
2198.00,0.0009
2197.00,0.0009
2196.00,0.0009
2195.00,0.0010
2194.00,0.0011
2193.00,0.0014
2192.00,0.0015
2191.00,0.0015
2190.00,0.0014
2189.00,0.0012
2188.00,0.0010
2187.00,0.0009
2186.00,0.0008
2185.00,0.0008
2184.00,0.0008
2183.00,0.0008
2182.00,0.0007
2181.00,0.0005
2180.00,0.0003
2179.00,0.0001
2178.00,-0.0000
2177.00,0.0000
2176.00,0.0002
2175.00,0.0004
2174.00,0.0006
2173.00,0.0008
2172.00,0.0011
2171.00,0.0014
2170.00,0.0017
2169.00,0.0019
2168.00,0.0019
2167.00,0.0017
2166.00,0.0015
2165.00,0.0013
2164.00,0.0012
2163.00,0.0011
2162.00,0.0011
2161.00,0.0010
2160.00,0.0006
2159.00,-0.0003
2158.00,-0.0012
2157.00,-0.0018
2156.00,-0.0019
2155.00,-0.0015
2154.00,-0.0011
2153.00,-0.0007
2152.00,-0.0006
2151.00,-0.0005
2150.00,-0.0006
2149.00,-0.0005
2148.00,-0.0005
2147.00,-0.0004
2146.00,-0.0004
2145.00,-0.0002
2144.00,-0.0001
2143.00,-0.0002
2142.00,-0.0004
2141.00,-0.0006
2140.00,-0.0007
2139.00,-0.0006
2138.00,-0.0004
2137.00,-0.0002
2136.00,-0.0001
2135.00,-0.0002
2134.00,-0.0003
2133.00,-0.0004
2132.00,-0.0004
2131.00,-0.0003
2130.00,-0.0002
2129.00,-0.0002
2128.00,-0.0002
2127.00,-0.0002
2126.00,-0.0001
2125.00,0.0001
2124.00,0.0003
2123.00,0.0005
2122.00,0.0006
2121.00,0.0007
2120.00,0.0006
2119.00,0.0006
2118.00,0.0006
2117.00,0.0006
2116.00,0.0006
2115.00,0.0006
2114.00,0.0006
2113.00,0.0007
2112.00,0.0008
2111.00,0.0009
2110.00,0.0010
2109.00,0.0010
2108.00,0.0010
2107.00,0.0009
2106.00,0.0009
2105.00,0.0009
2104.00,0.0010
2103.00,0.0011
2102.00,0.0012
2101.00,0.0011
2100.00,0.0011
2099.00,0.0010
2098.00,0.0009
2097.00,0.0007
2096.00,0.0005
2095.00,0.0003
2094.00,0.0002
2093.00,0.0003
2092.00,0.0006
2091.00,0.0008
2090.00,0.0010
2089.00,0.0012
2088.00,0.0012
2087.00,0.0011
2086.00,0.0009
2085.00,0.0007
2084.00,0.0006
2083.00,0.0006
2082.00,0.0007
2081.00,0.0009
2080.00,0.0010
2079.00,0.0012
2078.00,0.0013
2077.00,0.0013
2076.00,0.0012
2075.00,0.0011
2074.00,0.0010
2073.00,0.0010
2072.00,0.0011
2071.00,0.0012
2070.00,0.0012
2069.00,0.0010
2068.00,0.0010
2067.00,0.0010
2066.00,0.0011
2065.00,0.0012
2064.00,0.0013
2063.00,0.0013
2062.00,0.0012
2061.00,0.0010
2060.00,0.0010
2059.00,0.0011
2058.00,0.0013
2057.00,0.0014
2056.00,0.0015
2055.00,0.0013
2054.00,0.0012
2053.00,0.0014
2052.00,0.0018
2051.00,0.0021
2050.00,0.0021
2049.00,0.0017
2048.00,0.0012
2047.00,0.0009
2046.00,0.0009
2045.00,0.0011
2044.00,0.0012
2043.00,0.0011
2042.00,0.0010
2041.00,0.0009
2040.00,0.0008
2039.00,0.0008
2038.00,0.0007
2037.00,0.0006
2036.00,0.0006
2035.00,0.0004
2034.00,0.0003
2033.00,0.0001
2032.00,-0.0001
2031.00,-0.0003
2030.00,-0.0004
2029.00,-0.0004
2028.00,-0.0002
2027.00,-0.0001
2026.00,-0.0001
2025.00,-0.0001
2024.00,-0.0001
2023.00,-0.0001
2022.00,-0.0003
2021.00,-0.0004
2020.00,-0.0004
2019.00,-0.0002
2018.00,-0.0000
2017.00,0.0000
2016.00,-0.0001
2015.00,-0.0003
2014.00,-0.0005
2013.00,-0.0005
2012.00,-0.0004
2011.00,-0.0004
2010.00,-0.0005
2009.00,-0.0005
2008.00,-0.0006
2007.00,-0.0006
2006.00,-0.0005
2005.00,-0.0003
2004.00,-0.0001
2003.00,0.0001
2002.00,0.0002
2001.00,0.0003
2000.00,0.0004
1999.00,0.0005
1998.00,0.0004
1997.00,0.0003
1996.00,0.0000
1995.00,-0.0003
1994.00,-0.0005
1993.00,-0.0005
1992.00,-0.0002
1991.00,0.0001
1990.00,0.0006
1989.00,0.0011
1988.00,0.0015
1987.00,0.0016
1986.00,0.0015
1985.00,0.0013
1984.00,0.0012
1983.00,0.0010
1982.00,0.0010
1981.00,0.0012
1980.00,0.0013
1979.00,0.0012
1978.00,0.0008
1977.00,0.0002
1976.00,-0.0003
1975.00,-0.0007
1974.00,-0.0008
1973.00,-0.0007
1972.00,-0.0005
1971.00,-0.0003
1970.00,-0.0003
1969.00,-0.0004
1968.00,-0.0007
1967.00,-0.0008
1966.00,-0.0008
1965.00,-0.0006
1964.00,-0.0003
1963.00,-0.0001
1962.00,-0.0001
1961.00,-0.0002
1960.00,-0.0004
1959.00,-0.0005
1958.00,-0.0007
1957.00,-0.0008
1956.00,-0.0009
1955.00,-0.0009
1954.00,-0.0008
1953.00,-0.0007
1952.00,-0.0007
1951.00,-0.0007
1950.00,-0.0007
1949.00,-0.0006
1948.00,-0.0006
1947.00,-0.0007
1946.00,-0.0007
1945.00,-0.0008
1944.00,-0.0008
1943.00,-0.0008
1942.00,-0.0008
1941.00,-0.0007
1940.00,-0.0005
1939.00,-0.0005
1938.00,-0.0005
1937.00,-0.0005
1936.00,-0.0005
1935.00,-0.0005
1934.00,-0.0005
1933.00,-0.0005
1932.00,-0.0006
1931.00,-0.0005
1930.00,-0.0004
1929.00,-0.0003
1928.00,-0.0001
1927.00,-0.0000
1926.00,-0.0000
1925.00,-0.0001
1924.00,-0.0001
1923.00,-0.0001
1922.00,0.0000
1921.00,0.0003
1920.00,0.0005
1919.00,0.0005
1918.00,0.0005
1917.00,0.0003
1916.00,0.0002
1915.00,0.0002
1914.00,0.0003
1913.00,0.0004
1912.00,0.0006
1911.00,0.0007
1910.00,0.0006
1909.00,0.0006
1908.00,0.0005
1907.00,0.0004
1906.00,0.0004
1905.00,0.0004
1904.00,0.0004
1903.00,0.0005
1902.00,0.0005
1901.00,0.0006
1900.00,0.0006
1899.00,0.0006
1898.00,0.0005
1897.00,0.0004
1896.00,0.0004
1895.00,0.0004
1894.00,0.0004
1893.00,0.0005
1892.00,0.0005
1891.00,0.0005
1890.00,0.0006
1889.00,0.0006
1888.00,0.0007
1887.00,0.0006
1886.00,0.0006
1885.00,0.0006
1884.00,0.0006
1883.00,0.0007
1882.00,0.0008
1881.00,0.0008
1880.00,0.0008
1879.00,0.0007
1878.00,0.0006
1877.00,0.0005
1876.00,0.0005
1875.00,0.0004
1874.00,0.0004
1873.00,0.0004
1872.00,0.0004
1871.00,0.0005
1870.00,0.0006
1869.00,0.0007
1868.00,0.0008
1867.00,0.0008
1866.00,0.0008
1865.00,0.0009
1864.00,0.0009
1863.00,0.0008
1862.00,0.0008
1861.00,0.0008
1860.00,0.0008
1859.00,0.0007
1858.00,0.0006
1857.00,0.0005
1856.00,0.0005
1855.00,0.0005
1854.00,0.0006
1853.00,0.0007
1852.00,0.0008
1851.00,0.0009
1850.00,0.0009
1849.00,0.0009
1848.00,0.0009
1847.00,0.0009
1846.00,0.0010
1845.00,0.0010
1844.00,0.0010
1843.00,0.0009
1842.00,0.0008
1841.00,0.0008
1840.00,0.0009
1839.00,0.0009
1838.00,0.0009
1837.00,0.0008
1836.00,0.0008
1835.00,0.0008
1834.00,0.0009
1833.00,0.0009
1832.00,0.0009
1831.00,0.0009
1830.00,0.0009
1829.00,0.0009
1828.00,0.0008
1827.00,0.0008
1826.00,0.0008
1825.00,0.0008
1824.00,0.0009
1823.00,0.0009
1822.00,0.0009
1821.00,0.0009
1820.00,0.0008
1819.00,0.0008
1818.00,0.0008
1817.00,0.0008
1816.00,0.0008
1815.00,0.0008
1814.00,0.0008
1813.00,0.0009
1812.00,0.0009
1811.00,0.0009
1810.00,0.0009
1809.00,0.0010
1808.00,0.0010
1807.00,0.0009
1806.00,0.0009
1805.00,0.0009
1804.00,0.0009
1803.00,0.0009
1802.00,0.0010
1801.00,0.0010
1800.00,0.0010
1799.00,0.0011
1798.00,0.0011
1797.00,0.0011
1796.00,0.0012
1795.00,0.0012
1794.00,0.0013
1793.00,0.0014
1792.00,0.0014
1791.00,0.0014
1790.00,0.0014
1789.00,0.0014
1788.00,0.0015
1787.00,0.0015
1786.00,0.0016
1785.00,0.0017
1784.00,0.0018
1783.00,0.0018
1782.00,0.0018
1781.00,0.0018
1780.00,0.0018
1779.00,0.0018
1778.00,0.0018
1777.00,0.0018
1776.00,0.0018
1775.00,0.0018
1774.00,0.0018
1773.00,0.0019
1772.00,0.0019
1771.00,0.0020
1770.00,0.0020
1769.00,0.0020
1768.00,0.0019
1767.00,0.0020
1766.00,0.0020
1765.00,0.0020
1764.00,0.0021
1763.00,0.0020
1762.00,0.0020
1761.00,0.0020
1760.00,0.0020
1759.00,0.0020
1758.00,0.0021
1757.00,0.0022
1756.00,0.0022
1755.00,0.0022
1754.00,0.0023
1753.00,0.0023
1752.00,0.0024
1751.00,0.0024
1750.00,0.0025
1749.00,0.0025
1748.00,0.0025
1747.00,0.0024
1746.00,0.0024
1745.00,0.0024
1744.00,0.0024
1743.00,0.0024
1742.00,0.0025
1741.00,0.0025
1740.00,0.0026
1739.00,0.0026
1738.00,0.0026
1737.00,0.0026
1736.00,0.0026
1735.00,0.0026
1734.00,0.0026
1733.00,0.0026
1732.00,0.0027
1731.00,0.0027
1730.00,0.0027
1729.00,0.0027
1728.00,0.0027
1727.00,0.0027
1726.00,0.0027
1725.00,0.0027
1724.00,0.0027
1723.00,0.0027
1722.00,0.0027
1721.00,0.0027
1720.00,0.0027
1719.00,0.0027
1718.00,0.0026
1717.00,0.0026
1716.00,0.0026
1715.00,0.0026
1714.00,0.0026
1713.00,0.0026
1712.00,0.0026
1711.00,0.0027
1710.00,0.0027
1709.00,0.0027
1708.00,0.0027
1707.00,0.0027
1706.00,0.0027
1705.00,0.0027
1704.00,0.0028
1703.00,0.0028
1702.00,0.0028
1701.00,0.0028
1700.00,0.0029
1699.00,0.0029
1698.00,0.0029
1697.00,0.0030
1696.00,0.0032
1695.00,0.0033
1694.00,0.0034
1693.00,0.0034
1692.00,0.0034
1691.00,0.0034
1690.00,0.0035
1689.00,0.0035
1688.00,0.0036
1687.00,0.0036
1686.00,0.0036
1685.00,0.0037
1684.00,0.0038
1683.00,0.0040
1682.00,0.0041
1681.00,0.0042
1680.00,0.0043
1679.00,0.0043
1678.00,0.0043
1677.00,0.0043
1676.00,0.0044
1675.00,0.0046
1674.00,0.0047
1673.00,0.0048
1672.00,0.0049
1671.00,0.0050
1670.00,0.0050
1669.00,0.0051
1668.00,0.0053
1667.00,0.0054
1666.00,0.0054
1665.00,0.0055
1664.00,0.0055
1663.00,0.0056
1662.00,0.0057
1661.00,0.0058
1660.00,0.0060
1659.00,0.0061
1658.00,0.0062
1657.00,0.0063
1656.00,0.0063
1655.00,0.0064
1654.00,0.0065
1653.00,0.0066
1652.00,0.0067
1651.00,0.0067
1650.00,0.0067
1649.00,0.0068
1648.00,0.0068
1647.00,0.0069
1646.00,0.0069
1645.00,0.0070
1644.00,0.0070
1643.00,0.0071
1642.00,0.0072
1641.00,0.0073
1640.00,0.0074
1639.00,0.0074
1638.00,0.0074
1637.00,0.0073
1636.00,0.0073
1635.00,0.0073
1634.00,0.0073
1633.00,0.0074
1632.00,0.0074
1631.00,0.0073
1630.00,0.0073
1629.00,0.0072
1628.00,0.0072
1627.00,0.0071
1626.00,0.0070
1625.00,0.0069
1624.00,0.0069
1623.00,0.0068
1622.00,0.0068
1621.00,0.0068
1620.00,0.0068
1619.00,0.0067
1618.00,0.0066
1617.00,0.0066
1616.00,0.0066
1615.00,0.0066
1614.00,0.0066
1613.00,0.0066
1612.00,0.0066
1611.00,0.0066
1610.00,0.0066
1609.00,0.0066
1608.00,0.0066
1607.00,0.0066
1606.00,0.0066
1605.00,0.0066
1604.00,0.0067
1603.00,0.0067
1602.00,0.0066
1601.00,0.0065
1600.00,0.0065
1599.00,0.0065
1598.00,0.0065
1597.00,0.0065
1596.00,0.0065
1595.00,0.0065
1594.00,0.0064
1593.00,0.0064
1592.00,0.0064
1591.00,0.0064
1590.00,0.0064
1589.00,0.0064
1588.00,0.0064
1587.00,0.0064
1586.00,0.0063
1585.00,0.0063
1584.00,0.0064
1583.00,0.0064
1582.00,0.0064
1581.00,0.0064
1580.00,0.0064
1579.00,0.0064
1578.00,0.0063
1577.00,0.0063
1576.00,0.0062
1575.00,0.0062
1574.00,0.0062
1573.00,0.0062
1572.00,0.0062
1571.00,0.0062
1570.00,0.0062
1569.00,0.0063
1568.00,0.0063
1567.00,0.0063
1566.00,0.0064
1565.00,0.0064
1564.00,0.0065
1563.00,0.0065
1562.00,0.0066
1561.00,0.0067
1560.00,0.0068
1559.00,0.0069
1558.00,0.0068
1557.00,0.0068
1556.00,0.0069
1555.00,0.0069
1554.00,0.0070
1553.00,0.0071
1552.00,0.0072
1551.00,0.0073
1550.00,0.0073
1549.00,0.0074
1548.00,0.0075
1547.00,0.0076
1546.00,0.0076
1545.00,0.0076
1544.00,0.0076
1543.00,0.0076
1542.00,0.0076
1541.00,0.0076
1540.00,0.0076
1539.00,0.0076
1538.00,0.0076
1537.00,0.0076
1536.00,0.0076
1535.00,0.0076
1534.00,0.0076
1533.00,0.0075
1532.00,0.0074
1531.00,0.0073
1530.00,0.0072
1529.00,0.0072
1528.00,0.0071
1527.00,0.0070
1526.00,0.0069
1525.00,0.0069
1524.00,0.0069
1523.00,0.0068
1522.00,0.0068
1521.00,0.0068
1520.00,0.0068
1519.00,0.0068
1518.00,0.0068
1517.00,0.0068
1516.00,0.0067
1515.00,0.0067
1514.00,0.0067
1513.00,0.0068
1512.00,0.0069
1511.00,0.0070
1510.00,0.0071
1509.00,0.0072
1508.00,0.0073
1507.00,0.0074
1506.00,0.0075
1505.00,0.0077
1504.00,0.0079
1503.00,0.0081
1502.00,0.0084
1501.00,0.0087
1500.00,0.0090
1499.00,0.0095
1498.00,0.0100
1497.00,0.0107
1496.00,0.0115
1495.00,0.0122
1494.00,0.0127
1493.00,0.0132
1492.00,0.0137
1491.00,0.0141
1490.00,0.0144
1489.00,0.0148
1488.00,0.0153
1487.00,0.0156
1486.00,0.0159
1485.00,0.0162
1484.00,0.0166
1483.00,0.0170
1482.00,0.0174
1481.00,0.0181
1480.00,0.0188
1479.00,0.0197
1478.00,0.0208
1477.00,0.0225
1476.00,0.0246
1475.00,0.0270
1474.00,0.0299
1473.00,0.0335
1472.00,0.0370
1471.00,0.0402
1470.00,0.0432
1469.00,0.0466
1468.00,0.0505
1467.00,0.0552
1466.00,0.0611
1465.00,0.0680
1464.00,0.0741
1463.00,0.0783
1462.00,0.0808
1461.00,0.0824
1460.00,0.0833
1459.00,0.0839
1458.00,0.0844
1457.00,0.0848
1456.00,0.0848
1455.00,0.0844
1454.00,0.0837
1453.00,0.0827
1452.00,0.0811
1451.00,0.0787
1450.00,0.0755
1449.00,0.0708
1448.00,0.0649
1447.00,0.0587
1446.00,0.0530
1445.00,0.0482
1444.00,0.0441
1443.00,0.0408
1442.00,0.0383
1441.00,0.0365
1440.00,0.0354
1439.00,0.0349
1438.00,0.0348
1437.00,0.0347
1436.00,0.0338
1435.00,0.0320
1434.00,0.0295
1433.00,0.0266
1432.00,0.0236
1431.00,0.0210
1430.00,0.0190
1429.00,0.0176
1428.00,0.0168
1427.00,0.0164
1426.00,0.0162
1425.00,0.0160
1424.00,0.0158
1423.00,0.0157
1422.00,0.0158
1421.00,0.0159
1420.00,0.0160
1419.00,0.0162
1418.00,0.0165
1417.00,0.0166
1416.00,0.0168
1415.00,0.0170
1414.00,0.0174
1413.00,0.0178
1412.00,0.0182
1411.00,0.0187
1410.00,0.0194
1409.00,0.0200
1408.00,0.0206
1407.00,0.0214
1406.00,0.0223
1405.00,0.0234
1404.00,0.0245
1403.00,0.0258
1402.00,0.0270
1401.00,0.0284
1400.00,0.0298
1399.00,0.0314
1398.00,0.0329
1397.00,0.0343
1396.00,0.0356
1395.00,0.0369
1394.00,0.0381
1393.00,0.0389
1392.00,0.0395
1391.00,0.0400
1390.00,0.0409
1389.00,0.0422
1388.00,0.0442
1387.00,0.0469
1386.00,0.0503
1385.00,0.0546
1384.00,0.0601
1383.00,0.0674
1382.00,0.0767
1381.00,0.0881
1380.00,0.1018
1379.00,0.1171
1378.00,0.1316
1377.00,0.1418
1376.00,0.1449
1375.00,0.1388
1374.00,0.1248
1373.00,0.1074
1372.00,0.0909
1371.00,0.0767
1370.00,0.0650
1369.00,0.0558
1368.00,0.0491
1367.00,0.0448
1366.00,0.0422
1365.00,0.0409
1364.00,0.0405
1363.00,0.0409
1362.00,0.0418
1361.00,0.0428
1360.00,0.0435
1359.00,0.0435
1358.00,0.0425
1357.00,0.0404
1356.00,0.0376
1355.00,0.0345
1354.00,0.0314
1353.00,0.0288
1352.00,0.0267
1351.00,0.0250
1350.00,0.0236
1349.00,0.0225
1348.00,0.0215
1347.00,0.0207
1346.00,0.0201
1345.00,0.0196
1344.00,0.0191
1343.00,0.0187
1342.00,0.0183
1341.00,0.0179
1340.00,0.0175
1339.00,0.0171
1338.00,0.0168
1337.00,0.0166
1336.00,0.0165
1335.00,0.0164
1334.00,0.0164
1333.00,0.0164
1332.00,0.0165
1331.00,0.0166
1330.00,0.0164
1329.00,0.0162
1328.00,0.0157
1327.00,0.0152
1326.00,0.0146
1325.00,0.0140
1324.00,0.0135
1323.00,0.0129
1322.00,0.0125
1321.00,0.0122
1320.00,0.0119
1319.00,0.0116
1318.00,0.0113
1317.00,0.0110
1316.00,0.0109
1315.00,0.0107
1314.00,0.0106
1313.00,0.0106
1312.00,0.0106
1311.00,0.0107
1310.00,0.0109
1309.00,0.0114
1308.00,0.0120
1307.00,0.0128
1306.00,0.0135
1305.00,0.0141
1304.00,0.0143
1303.00,0.0141
1302.00,0.0138
1301.00,0.0135
1300.00,0.0133
1299.00,0.0132
1298.00,0.0132
1297.00,0.0133
1296.00,0.0132
1295.00,0.0131
1294.00,0.0129
1293.00,0.0126
1292.00,0.0123
1291.00,0.0121
1290.00,0.0119
1289.00,0.0118
1288.00,0.0117
1287.00,0.0116
1286.00,0.0116
1285.00,0.0116
1284.00,0.0117
1283.00,0.0118
1282.00,0.0120
1281.00,0.0121
1280.00,0.0124
1279.00,0.0127
1278.00,0.0131
1277.00,0.0136
1276.00,0.0142
1275.00,0.0147
1274.00,0.0153
1273.00,0.0159
1272.00,0.0166
1271.00,0.0174
1270.00,0.0181
1269.00,0.0189
1268.00,0.0196
1267.00,0.0202
1266.00,0.0209
1265.00,0.0216
1264.00,0.0222
1263.00,0.0227
1262.00,0.0231
1261.00,0.0236
1260.00,0.0242
1259.00,0.0249
1258.00,0.0257
1257.00,0.0265
1256.00,0.0272
1255.00,0.0276
1254.00,0.0278
1253.00,0.0276
1252.00,0.0273
1251.00,0.0268
1250.00,0.0261
1249.00,0.0253
1248.00,0.0245
1247.00,0.0238
1246.00,0.0233
1245.00,0.0230
1244.00,0.0228
1243.00,0.0227
1242.00,0.0225
1241.00,0.0223
1240.00,0.0220
1239.00,0.0217
1238.00,0.0213
1237.00,0.0209
1236.00,0.0204
1235.00,0.0199
1234.00,0.0192
1233.00,0.0186
1232.00,0.0180
1231.00,0.0175
1230.00,0.0170
1229.00,0.0164
1228.00,0.0159
1227.00,0.0154
1226.00,0.0149
1225.00,0.0146
1224.00,0.0143
1223.00,0.0141
1222.00,0.0139
1221.00,0.0137
1220.00,0.0136
1219.00,0.0133
1218.00,0.0131
1217.00,0.0127
1216.00,0.0123
1215.00,0.0119
1214.00,0.0115
1213.00,0.0112
1212.00,0.0108
1211.00,0.0105
1210.00,0.0102
1209.00,0.0100
1208.00,0.0099
1207.00,0.0099
1206.00,0.0098
1205.00,0.0098
1204.00,0.0098
1203.00,0.0099
1202.00,0.0099
1201.00,0.0098
1200.00,0.0099
1199.00,0.0099
1198.00,0.0101
1197.00,0.0104
1196.00,0.0106
1195.00,0.0109
1194.00,0.0112
1193.00,0.0114
1192.00,0.0118
1191.00,0.0122
1190.00,0.0127
1189.00,0.0133
1188.00,0.0139
1187.00,0.0146
1186.00,0.0154
1185.00,0.0162
1184.00,0.0170
1183.00,0.0178
1182.00,0.0186
1181.00,0.0195
1180.00,0.0204
1179.00,0.0214
1178.00,0.0224
1177.00,0.0236
1176.00,0.0251
1175.00,0.0268
1174.00,0.0289
1173.00,0.0314
1172.00,0.0342
1171.00,0.0372
1170.00,0.0401
1169.00,0.0426
1168.00,0.0444
1167.00,0.0453
1166.00,0.0455
1165.00,0.0451
1164.00,0.0444
1163.00,0.0436
1162.00,0.0430
1161.00,0.0425
1160.00,0.0422
1159.00,0.0422
1158.00,0.0421
1157.00,0.0422
1156.00,0.0422
1155.00,0.0423
1154.00,0.0424
1153.00,0.0423
1152.00,0.0422
1151.00,0.0418
1150.00,0.0411
1149.00,0.0402
1148.00,0.0392
1147.00,0.0381
1146.00,0.0369
1145.00,0.0358
1144.00,0.0348
1143.00,0.0338
1142.00,0.0330
1141.00,0.0323
1140.00,0.0316
1139.00,0.0310
1138.00,0.0304
1137.00,0.0298
1136.00,0.0291
1135.00,0.0283
1134.00,0.0276
1133.00,0.0271
1132.00,0.0267
1131.00,0.0265
1130.00,0.0262
1129.00,0.0259
1128.00,0.0256
1127.00,0.0252
1126.00,0.0248
1125.00,0.0244
1124.00,0.0241
1123.00,0.0238
1122.00,0.0236
1121.00,0.0233
1120.00,0.0229
1119.00,0.0226
1118.00,0.0222
1117.00,0.0219
1116.00,0.0216
1115.00,0.0212
1114.00,0.0209
1113.00,0.0206
1112.00,0.0205
1111.00,0.0204
1110.00,0.0203
1109.00,0.0204
1108.00,0.0206
1107.00,0.0209
1106.00,0.0214
1105.00,0.0220
1104.00,0.0225
1103.00,0.0229
1102.00,0.0232
1101.00,0.0233
1100.00,0.0235
1099.00,0.0236
1098.00,0.0237
1097.00,0.0239
1096.00,0.0242
1095.00,0.0245
1094.00,0.0249
1093.00,0.0253
1092.00,0.0257
1091.00,0.0261
1090.00,0.0264
1089.00,0.0267
1088.00,0.0269
1087.00,0.0270
1086.00,0.0270
1085.00,0.0270
1084.00,0.0271
1083.00,0.0272
1082.00,0.0273
1081.00,0.0273
1080.00,0.0272
1079.00,0.0271
1078.00,0.0271
1077.00,0.0272
1076.00,0.0273
1075.00,0.0276
1074.00,0.0278
1073.00,0.0280
1072.00,0.0279
1071.00,0.0276
1070.00,0.0270
1069.00,0.0263
1068.00,0.0256
1067.00,0.0248
1066.00,0.0240
1065.00,0.0234
1064.00,0.0229
1063.00,0.0225
1062.00,0.0222
1061.00,0.0219
1060.00,0.0214
1059.00,0.0209
1058.00,0.0203
1057.00,0.0196
1056.00,0.0190
1055.00,0.0185
1054.00,0.0178
1053.00,0.0172
1052.00,0.0165
1051.00,0.0158
1050.00,0.0153
1049.00,0.0150
1048.00,0.0148
1047.00,0.0146
1046.00,0.0144
1045.00,0.0140
1044.00,0.0136
1043.00,0.0131
1042.00,0.0127
1041.00,0.0122
1040.00,0.0118
1039.00,0.0114
1038.00,0.0111
1037.00,0.0109
1036.00,0.0107
1035.00,0.0105
1034.00,0.0104
1033.00,0.0103
1032.00,0.0103
1031.00,0.0102
1030.00,0.0100
1029.00,0.0098
1028.00,0.0096
1027.00,0.0094
1026.00,0.0093
1025.00,0.0093
1024.00,0.0094
1023.00,0.0094
1022.00,0.0094
1021.00,0.0095
1020.00,0.0095
1019.00,0.0097
1018.00,0.0098
1017.00,0.0099
1016.00,0.0100
1015.00,0.0101
1014.00,0.0103
1013.00,0.0105
1012.00,0.0107
1011.00,0.0109
1010.00,0.0111
1009.00,0.0113
1008.00,0.0117
1007.00,0.0123
1006.00,0.0129
1005.00,0.0137
1004.00,0.0148
1003.00,0.0164
1002.00,0.0186
1001.00,0.0212
1000.00,0.0239
999.00,0.0262
998.00,0.0273
997.00,0.0270
996.00,0.0252
995.00,0.0225
994.00,0.0197
993.00,0.0173
992.00,0.0154
991.00,0.0140
990.00,0.0130
989.00,0.0124
988.00,0.0121
987.00,0.0120
986.00,0.0122
985.00,0.0127
984.00,0.0134
983.00,0.0144
982.00,0.0157
981.00,0.0174
980.00,0.0196
979.00,0.0224
978.00,0.0260
977.00,0.0301
976.00,0.0348
975.00,0.0395
974.00,0.0436
973.00,0.0463
972.00,0.0471
971.00,0.0461
970.00,0.0439
969.00,0.0412
968.00,0.0388
967.00,0.0367
966.00,0.0351
965.00,0.0338
964.00,0.0327
963.00,0.0318
962.00,0.0311
961.00,0.0309
960.00,0.0312
959.00,0.0318
958.00,0.0324
957.00,0.0328
956.00,0.0329
955.00,0.0328
954.00,0.0328
953.00,0.0326
952.00,0.0323
951.00,0.0317
950.00,0.0309
949.00,0.0302
948.00,0.0296
947.00,0.0293
946.00,0.0292
945.00,0.0292
944.00,0.0293
943.00,0.0292
942.00,0.0290
941.00,0.0285
940.00,0.0277
939.00,0.0267
938.00,0.0255
937.00,0.0242
936.00,0.0228
935.00,0.0214
934.00,0.0200
933.00,0.0187
932.00,0.0175
931.00,0.0164
930.00,0.0154
929.00,0.0144
928.00,0.0135
927.00,0.0127
926.00,0.0120
925.00,0.0115
924.00,0.0110
923.00,0.0105
922.00,0.0102
921.00,0.0099
920.00,0.0097
919.00,0.0096
918.00,0.0094
917.00,0.0093
916.00,0.0090
915.00,0.0088
914.00,0.0087
913.00,0.0086
912.00,0.0086
911.00,0.0087
910.00,0.0088
909.00,0.0089
908.00,0.0090
907.00,0.0092
906.00,0.0095
905.00,0.0101
904.00,0.0110
903.00,0.0122
902.00,0.0137
901.00,0.0150
900.00,0.0159
899.00,0.0161
898.00,0.0156
897.00,0.0145
896.00,0.0131
895.00,0.0118
894.00,0.0106
893.00,0.0098
892.00,0.0091
891.00,0.0087
890.00,0.0084
889.00,0.0081
888.00,0.0079
887.00,0.0078
886.00,0.0078
885.00,0.0078
884.00,0.0078
883.00,0.0078
882.00,0.0079
881.00,0.0079
880.00,0.0080
879.00,0.0080
878.00,0.0080
877.00,0.0080
876.00,0.0079
875.00,0.0079
874.00,0.0079
873.00,0.0079
872.00,0.0079
871.00,0.0078
870.00,0.0078
869.00,0.0078
868.00,0.0078
867.00,0.0078
866.00,0.0078
865.00,0.0078
864.00,0.0079
863.00,0.0079
862.00,0.0079
861.00,0.0080
860.00,0.0081
859.00,0.0083
858.00,0.0086
857.00,0.0088
856.00,0.0089
855.00,0.0089
854.00,0.0090
853.00,0.0092
852.00,0.0094
851.00,0.0098
850.00,0.0102
849.00,0.0107
848.00,0.0115
847.00,0.0127
846.00,0.0145
845.00,0.0172
844.00,0.0207
843.00,0.0245
842.00,0.0274
841.00,0.0283
840.00,0.0268
839.00,0.0238
838.00,0.0205
837.00,0.0179
836.00,0.0162
835.00,0.0152
834.00,0.0146
833.00,0.0143
832.00,0.0142
831.00,0.0141
830.00,0.0141
829.00,0.0142
828.00,0.0143
827.00,0.0142
826.00,0.0140
825.00,0.0139
824.00,0.0138
823.00,0.0137
822.00,0.0136
821.00,0.0136
820.00,0.0138
819.00,0.0141
818.00,0.0145
817.00,0.0150
816.00,0.0156
815.00,0.0163
814.00,0.0171
813.00,0.0181
812.00,0.0193
811.00,0.0203
810.00,0.0211
809.00,0.0213
808.00,0.0211
807.00,0.0204
806.00,0.0194
805.00,0.0181
804.00,0.0169
803.00,0.0159
802.00,0.0152
801.00,0.0145
800.00,0.0138
799.00,0.0131
798.00,0.0125
797.00,0.0120
796.00,0.0115
795.00,0.0111
794.00,0.0106
793.00,0.0102
792.00,0.0100
791.00,0.0098
790.00,0.0096
789.00,0.0093
788.00,0.0089
787.00,0.0086
786.00,0.0084
785.00,0.0084
784.00,0.0083
783.00,0.0082
782.00,0.0079
781.00,0.0077
780.00,0.0074
779.00,0.0072
778.00,0.0072
777.00,0.0072
776.00,0.0073
775.00,0.0074
774.00,0.0075
773.00,0.0077
772.00,0.0080
771.00,0.0083
770.00,0.0085
769.00,0.0085
768.00,0.0084
767.00,0.0083
766.00,0.0083
765.00,0.0083
764.00,0.0082
763.00,0.0081
762.00,0.0080
761.00,0.0078
760.00,0.0078
759.00,0.0077
758.00,0.0075
757.00,0.0073
756.00,0.0071
755.00,0.0069
754.00,0.0069
753.00,0.0068
752.00,0.0068
751.00,0.0068
750.00,0.0067
749.00,0.0066
748.00,0.0067
747.00,0.0068
746.00,0.0070
745.00,0.0072
744.00,0.0073
743.00,0.0073
742.00,0.0074
741.00,0.0075
740.00,0.0076
739.00,0.0078
738.00,0.0080
737.00,0.0082
736.00,0.0085
735.00,0.0087
734.00,0.0088
733.00,0.0088
732.00,0.0088
731.00,0.0088
730.00,0.0089
729.00,0.0090
728.00,0.0091
727.00,0.0090
726.00,0.0090
725.00,0.0089
724.00,0.0089
723.00,0.0089
722.00,0.0089
721.00,0.0089
720.00,0.0088
719.00,0.0086
718.00,0.0084
717.00,0.0082
716.00,0.0081
715.00,0.0080
714.00,0.0078
713.00,0.0076
712.00,0.0075
711.00,0.0076
710.00,0.0077
709.00,0.0078
708.00,0.0079
707.00,0.0081
706.00,0.0083
705.00,0.0085
704.00,0.0086
703.00,0.0085
702.00,0.0083
701.00,0.0081
700.00,0.0078
699.00,0.0075
698.00,0.0073
697.00,0.0073
696.00,0.0073
695.00,0.0073
694.00,0.0073
693.00,0.0072
692.00,0.0070
691.00,0.0070
690.00,0.0070
689.00,0.0071
688.00,0.0072
687.00,0.0072
686.00,0.0072
685.00,0.0071
684.00,0.0070
683.00,0.0071
682.00,0.0072
681.00,0.0072
680.00,0.0072
679.00,0.0071
678.00,0.0070
677.00,0.0070
676.00,0.0071
675.00,0.0071
674.00,0.0072
673.00,0.0072
672.00,0.0074
671.00,0.0076
670.00,0.0077
669.00,0.0076
668.00,0.0075
667.00,0.0074
666.00,0.0073
665.00,0.0072
664.00,0.0073
663.00,0.0073
662.00,0.0074
661.00,0.0075
660.00,0.0076
659.00,0.0076
658.00,0.0075
657.00,0.0074
656.00,0.0073
655.00,0.0072
654.00,0.0071
653.00,0.0070
652.00,0.0069
651.00,0.0069
650.00,0.0070
649.00,0.0071
648.00,0.0072
647.00,0.0074
646.00,0.0077
645.00,0.0079
644.00,0.0081
643.00,0.0081
642.00,0.0079
641.00,0.0076
640.00,0.0075
639.00,0.0076
638.00,0.0079
637.00,0.0080
636.00,0.0079
635.00,0.0077
634.00,0.0077
633.00,0.0080
632.00,0.0082
631.00,0.0081
630.00,0.0079
629.00,0.0077
628.00,0.0077
627.00,0.0078
626.00,0.0079
625.00,0.0079
624.00,0.0079
623.00,0.0079
622.00,0.0079
621.00,0.0080
620.00,0.0081
619.00,0.0081
618.00,0.0082
617.00,0.0082
616.00,0.0082
615.00,0.0082
614.00,0.0081
613.00,0.0080
612.00,0.0080
611.00,0.0080
610.00,0.0081
609.00,0.0081
608.00,0.0080
607.00,0.0078
606.00,0.0076
605.00,0.0075
604.00,0.0077
603.00,0.0080
602.00,0.0083
601.00,0.0084
600.00,0.0083
599.00,0.0081
598.00,0.0080
597.00,0.0079
596.00,0.0079
595.00,0.0079
594.00,0.0080
593.00,0.0082
592.00,0.0083
591.00,0.0083
590.00,0.0082
589.00,0.0080
588.00,0.0078
587.00,0.0076
586.00,0.0077
585.00,0.0079
584.00,0.0082
583.00,0.0085
582.00,0.0087
581.00,0.0087
580.00,0.0084
579.00,0.0082
578.00,0.0082
577.00,0.0083
576.00,0.0084
575.00,0.0084
574.00,0.0081
573.00,0.0078
572.00,0.0077
571.00,0.0078
570.00,0.0082
569.00,0.0084
568.00,0.0083
567.00,0.0079
566.00,0.0078
565.00,0.0078
564.00,0.0079
563.00,0.0081
562.00,0.0083
561.00,0.0084
560.00,0.0084
559.00,0.0083
558.00,0.0085
557.00,0.0088
556.00,0.0091
555.00,0.0091
554.00,0.0089
553.00,0.0087
552.00,0.0086
551.00,0.0084
550.00,0.0080
549.00,0.0077
548.00,0.0075
547.00,0.0075
546.00,0.0077
545.00,0.0079
544.00,0.0080
543.00,0.0082
542.00,0.0086
541.00,0.0090
540.00,0.0092
539.00,0.0091
538.00,0.0090
537.00,0.0090
536.00,0.0094
535.00,0.0099
534.00,0.0103
533.00,0.0106
532.00,0.0109
531.00,0.0110
530.00,0.0108
529.00,0.0104
528.00,0.0100
527.00,0.0097
526.00,0.0095
525.00,0.0092
524.00,0.0090
523.00,0.0090
522.00,0.0091
521.00,0.0092
520.00,0.0091
519.00,0.0091
518.00,0.0090
517.00,0.0090
516.00,0.0092
515.00,0.0095
514.00,0.0098
513.00,0.0100
512.00,0.0100
511.00,0.0097
510.00,0.0094
509.00,0.0090
508.00,0.0088
507.00,0.0087
506.00,0.0088
505.00,0.0090
504.00,0.0094
503.00,0.0100
502.00,0.0109
501.00,0.0117
500.00,0.0122
499.00,0.0122
498.00,0.0118
497.00,0.0112
496.00,0.0108
495.00,0.0106
494.00,0.0107
493.00,0.0108
492.00,0.0109
491.00,0.0110
490.00,0.0109
489.00,0.0106
488.00,0.0102
487.00,0.0098
486.00,0.0097
485.00,0.0100
484.00,0.0105
483.00,0.0108
482.00,0.0110
481.00,0.0113
480.00,0.0117
479.00,0.0118
478.00,0.0116
477.00,0.0111
476.00,0.0105
475.00,0.0102
474.00,0.0105
473.00,0.0115
472.00,0.0125
471.00,0.0131
470.00,0.0132
469.00,0.0128
468.00,0.0123
467.00,0.0118
466.00,0.0116
465.00,0.0118
464.00,0.0125
463.00,0.0135
462.00,0.0146
461.00,0.0156
460.00,0.0165
459.00,0.0167
458.00,0.0160
457.00,0.0150
456.00,0.0148
455.00,0.0154
454.00,0.0161
453.00,0.0163
452.00,0.0157
451.00,0.0144
450.00,0.0129
