Created as New Dataset,Sample 019 By Administrator Date Friday, September 05 2025
cm-1,A
4000.00,0.0014
3999.00,0.0014
3998.00,0.0014
3997.00,0.0013
3996.00,0.0013
3995.00,0.0013
3994.00,0.0013
3993.00,0.0013
3992.00,0.0013
3991.00,0.0014
3990.00,0.0014
3989.00,0.0014
3988.00,0.0013
3987.00,0.0013
3986.00,0.0013
3985.00,0.0012
3984.00,0.0012
3983.00,0.0012
3982.00,0.0012
3981.00,0.0012
3980.00,0.0012
3979.00,0.0012
3978.00,0.0012
3977.00,0.0012
3976.00,0.0012
3975.00,0.0013
3974.00,0.0013
3973.00,0.0012
3972.00,0.0012
3971.00,0.0012
3970.00,0.0012
3969.00,0.0012
3968.00,0.0012
3967.00,0.0012
3966.00,0.0012
3965.00,0.0012
3964.00,0.0011
3963.00,0.0011
3962.00,0.0011
3961.00,0.0011
3960.00,0.0011
3959.00,0.0011
3958.00,0.0011
3957.00,0.0011
3956.00,0.0011
3955.00,0.0012
3954.00,0.0012
3953.00,0.0012
3952.00,0.0012
3951.00,0.0011
3950.00,0.0011
3949.00,0.0011
3948.00,0.0011
3947.00,0.0011
3946.00,0.0011
3945.00,0.0011
3944.00,0.0011
3943.00,0.0012
3942.00,0.0012
3941.00,0.0012
3940.00,0.0012
3939.00,0.0012
3938.00,0.0012
3937.00,0.0012
3936.00,0.0012
3935.00,0.0012
3934.00,0.0012
3933.00,0.0012
3932.00,0.0012
3931.00,0.0012
3930.00,0.0013
3929.00,0.0013
3928.00,0.0013
3927.00,0.0013
3926.00,0.0013
3925.00,0.0013
3924.00,0.0013
3923.00,0.0014
3922.00,0.0014
3921.00,0.0014
3920.00,0.0014
3919.00,0.0013
3918.00,0.0013
3917.00,0.0013
3916.00,0.0013
3915.00,0.0013
3914.00,0.0013
3913.00,0.0013
3912.00,0.0013
3911.00,0.0013
3910.00,0.0013
3909.00,0.0013
3908.00,0.0013
3907.00,0.0013
3906.00,0.0013
3905.00,0.0013
3904.00,0.0013
3903.00,0.0013
3902.00,0.0013
3901.00,0.0014
3900.00,0.0014
3899.00,0.0014
3898.00,0.0014
3897.00,0.0014
3896.00,0.0014
3895.00,0.0014
3894.00,0.0014
3893.00,0.0014
3892.00,0.0014
3891.00,0.0014
3890.00,0.0014
3889.00,0.0014
3888.00,0.0015
3887.00,0.0015
3886.00,0.0015
3885.00,0.0015
3884.00,0.0014
3883.00,0.0014
3882.00,0.0013
3881.00,0.0013
3880.00,0.0012
3879.00,0.0012
3878.00,0.0012
3877.00,0.0012
3876.00,0.0012
3875.00,0.0012
3874.00,0.0013
3873.00,0.0013
3872.00,0.0014
3871.00,0.0015
3870.00,0.0015
3869.00,0.0015
3868.00,0.0015
3867.00,0.0015
3866.00,0.0015
3865.00,0.0015
3864.00,0.0014
3863.00,0.0014
3862.00,0.0013
3861.00,0.0013
3860.00,0.0012
3859.00,0.0012
3858.00,0.0013
3857.00,0.0013
3856.00,0.0014
3855.00,0.0014
3854.00,0.0014
3853.00,0.0014
3852.00,0.0014
3851.00,0.0014
3850.00,0.0013
3849.00,0.0013
3848.00,0.0012
3847.00,0.0012
3846.00,0.0012
3845.00,0.0011
3844.00,0.0012
3843.00,0.0012
3842.00,0.0012
3841.00,0.0013
3840.00,0.0013
3839.00,0.0013
3838.00,0.0013
3837.00,0.0013
3836.00,0.0013
3835.00,0.0013
3834.00,0.0013
3833.00,0.0014
3832.00,0.0014
3831.00,0.0014
3830.00,0.0015
3829.00,0.0015
3828.00,0.0015
3827.00,0.0015
3826.00,0.0014
3825.00,0.0014
3824.00,0.0013
3823.00,0.0013
3822.00,0.0013
3821.00,0.0013
3820.00,0.0013
3819.00,0.0013
3818.00,0.0013
3817.00,0.0013
3816.00,0.0014
3815.00,0.0014
3814.00,0.0015
3813.00,0.0015
3812.00,0.0014
3811.00,0.0014
3810.00,0.0014
3809.00,0.0014
3808.00,0.0014
3807.00,0.0013
3806.00,0.0013
3805.00,0.0014
3804.00,0.0014
3803.00,0.0013
3802.00,0.0013
3801.00,0.0013
3800.00,0.0013
3799.00,0.0013
3798.00,0.0013
3797.00,0.0013
3796.00,0.0013
3795.00,0.0013
3794.00,0.0013
3793.00,0.0013
3792.00,0.0013
3791.00,0.0013
3790.00,0.0013
3789.00,0.0013
3788.00,0.0013
3787.00,0.0013
3786.00,0.0013
3785.00,0.0013
3784.00,0.0012
3783.00,0.0012
3782.00,0.0012
3781.00,0.0012
3780.00,0.0012
3779.00,0.0012
3778.00,0.0012
3777.00,0.0013
3776.00,0.0013
3775.00,0.0012
3774.00,0.0012
3773.00,0.0012
3772.00,0.0012
3771.00,0.0012
3770.00,0.0012
3769.00,0.0012
3768.00,0.0012
3767.00,0.0012
3766.00,0.0012
3765.00,0.0012
3764.00,0.0012
3763.00,0.0012
3762.00,0.0012
3761.00,0.0012
3760.00,0.0012
3759.00,0.0012
3758.00,0.0012
3757.00,0.0012
3756.00,0.0012
3755.00,0.0011
3754.00,0.0011
3753.00,0.0011
3752.00,0.0010
3751.00,0.0010
3750.00,0.0011
3749.00,0.0011
3748.00,0.0012
3747.00,0.0012
3746.00,0.0012
3745.00,0.0012
3744.00,0.0011
3743.00,0.0010
3742.00,0.0010
3741.00,0.0010
3740.00,0.0010
3739.00,0.0011
3738.00,0.0011
3737.00,0.0011
3736.00,0.0011
3735.00,0.0011
3734.00,0.0011
3733.00,0.0011
3732.00,0.0011
3731.00,0.0011
3730.00,0.0012
3729.00,0.0012
3728.00,0.0012
3727.00,0.0012
3726.00,0.0012
3725.00,0.0012
3724.00,0.0012
3723.00,0.0013
3722.00,0.0012
3721.00,0.0012
3720.00,0.0012
3719.00,0.0012
3718.00,0.0012
3717.00,0.0012
3716.00,0.0012
3715.00,0.0012
3714.00,0.0012
3713.00,0.0012
3712.00,0.0012
3711.00,0.0013
3710.00,0.0013
3709.00,0.0013
3708.00,0.0013
3707.00,0.0013
3706.00,0.0013
3705.00,0.0013
3704.00,0.0013
3703.00,0.0013
3702.00,0.0013
3701.00,0.0013
3700.00,0.0014
3699.00,0.0014
3698.00,0.0014
3697.00,0.0015
3696.00,0.0015
3695.00,0.0015
3694.00,0.0015
3693.00,0.0016
3692.00,0.0017
3691.00,0.0019
3690.00,0.0021
3689.00,0.0023
3688.00,0.0025
3687.00,0.0027
3686.00,0.0030
3685.00,0.0033
3684.00,0.0036
3683.00,0.0039
3682.00,0.0042
3681.00,0.0046
3680.00,0.0049
3679.00,0.0053
3678.00,0.0057
3677.00,0.0062
3676.00,0.0067
3675.00,0.0071
3674.00,0.0074
3673.00,0.0075
3672.00,0.0076
3671.00,0.0078
3670.00,0.0080
3669.00,0.0083
3668.00,0.0084
3667.00,0.0085
3666.00,0.0087
3665.00,0.0088
3664.00,0.0090
3663.00,0.0091
3662.00,0.0093
3661.00,0.0094
3660.00,0.0095
3659.00,0.0095
3658.00,0.0094
3657.00,0.0094
3656.00,0.0093
3655.00,0.0092
3654.00,0.0091
3653.00,0.0090
3652.00,0.0090
3651.00,0.0089
3650.00,0.0089
3649.00,0.0089
3648.00,0.0088
3647.00,0.0087
3646.00,0.0084
3645.00,0.0082
3644.00,0.0080
3643.00,0.0078
3642.00,0.0075
3641.00,0.0073
3640.00,0.0072
3639.00,0.0073
3638.00,0.0073
3637.00,0.0070
3636.00,0.0065
3635.00,0.0058
3634.00,0.0051
3633.00,0.0046
3632.00,0.0042
3631.00,0.0040
3630.00,0.0038
3629.00,0.0036
3628.00,0.0035
3627.00,0.0034
3626.00,0.0034
3625.00,0.0033
3624.00,0.0033
3623.00,0.0032
3622.00,0.0031
3621.00,0.0030
3620.00,0.0029
3619.00,0.0028
3618.00,0.0028
3617.00,0.0028
3616.00,0.0028
3615.00,0.0028
3614.00,0.0028
3613.00,0.0028
3612.00,0.0028
3611.00,0.0027
3610.00,0.0027
3609.00,0.0027
3608.00,0.0028
3607.00,0.0028
3606.00,0.0028
3605.00,0.0028
3604.00,0.0028
3603.00,0.0028
3602.00,0.0028
3601.00,0.0028
3600.00,0.0028
3599.00,0.0028
3598.00,0.0028
3597.00,0.0028
3596.00,0.0029
3595.00,0.0029
3594.00,0.0029
3593.00,0.0029
3592.00,0.0029
3591.00,0.0030
3590.00,0.0030
3589.00,0.0030
3588.00,0.0031
3587.00,0.0031
3586.00,0.0032
3585.00,0.0032
3584.00,0.0033
3583.00,0.0033
3582.00,0.0033
3581.00,0.0034
3580.00,0.0034
3579.00,0.0035
3578.00,0.0035
3577.00,0.0035
3576.00,0.0035
3575.00,0.0035
3574.00,0.0036
3573.00,0.0037
3572.00,0.0038
3571.00,0.0038
3570.00,0.0039
3569.00,0.0039
3568.00,0.0039
3567.00,0.0039
3566.00,0.0039
3565.00,0.0040
3564.00,0.0040
3563.00,0.0041
3562.00,0.0041
3561.00,0.0042
3560.00,0.0042
3559.00,0.0042
3558.00,0.0042
3557.00,0.0043
3556.00,0.0043
3555.00,0.0043
3554.00,0.0044
3553.00,0.0045
3552.00,0.0046
3551.00,0.0046
3550.00,0.0047
3549.00,0.0047
3548.00,0.0047
3547.00,0.0047
3546.00,0.0047
3545.00,0.0048
3544.00,0.0049
3543.00,0.0049
3542.00,0.0050
3541.00,0.0051
3540.00,0.0051
3539.00,0.0052
3538.00,0.0052
3537.00,0.0052
3536.00,0.0052
3535.00,0.0053
3534.00,0.0053
3533.00,0.0054
3532.00,0.0054
3531.00,0.0055
3530.00,0.0055
3529.00,0.0056
3528.00,0.0056
3527.00,0.0057
3526.00,0.0057
3525.00,0.0058
3524.00,0.0058
3523.00,0.0059
3522.00,0.0059
3521.00,0.0059
3520.00,0.0060
3519.00,0.0061
3518.00,0.0061
3517.00,0.0062
3516.00,0.0062
3515.00,0.0063
3514.00,0.0063
3513.00,0.0063
3512.00,0.0064
3511.00,0.0064
3510.00,0.0065
3509.00,0.0065
3508.00,0.0066
3507.00,0.0066
3506.00,0.0067
3505.00,0.0068
3504.00,0.0069
3503.00,0.0069
3502.00,0.0070
3501.00,0.0071
3500.00,0.0071
3499.00,0.0072
3498.00,0.0072
3497.00,0.0072
3496.00,0.0073
3495.00,0.0073
3494.00,0.0074
3493.00,0.0074
3492.00,0.0075
3491.00,0.0075
3490.00,0.0076
3489.00,0.0077
3488.00,0.0078
3487.00,0.0079
3486.00,0.0079
3485.00,0.0080
3484.00,0.0080
3483.00,0.0080
3482.00,0.0080
3481.00,0.0081
3480.00,0.0081
3479.00,0.0081
3478.00,0.0082
3477.00,0.0083
3476.00,0.0084
3475.00,0.0085
3474.00,0.0085
3473.00,0.0086
3472.00,0.0087
3471.00,0.0087
3470.00,0.0088
3469.00,0.0088
3468.00,0.0088
3467.00,0.0088
3466.00,0.0089
3465.00,0.0089
3464.00,0.0089
3463.00,0.0090
3462.00,0.0091
3461.00,0.0091
3460.00,0.0092
3459.00,0.0092
3458.00,0.0093
3457.00,0.0093
3456.00,0.0093
3455.00,0.0093
3454.00,0.0094
3453.00,0.0094
3452.00,0.0094
3451.00,0.0095
3450.00,0.0095
3449.00,0.0096
3448.00,0.0097
3447.00,0.0097
3446.00,0.0098
3445.00,0.0098
3444.00,0.0098
3443.00,0.0098
3442.00,0.0098
3441.00,0.0099
3440.00,0.0099
3439.00,0.0100
3438.00,0.0100
3437.00,0.0101
3436.00,0.0101
3435.00,0.0102
3434.00,0.0102
3433.00,0.0103
3432.00,0.0103
3431.00,0.0103
3430.00,0.0104
3429.00,0.0104
3428.00,0.0105
3427.00,0.0105
3426.00,0.0106
3425.00,0.0106
3424.00,0.0106
3423.00,0.0107
3422.00,0.0107
3421.00,0.0108
3420.00,0.0108
3419.00,0.0108
3418.00,0.0108
3417.00,0.0108
3416.00,0.0109
3415.00,0.0109
3414.00,0.0109
3413.00,0.0110
3412.00,0.0110
3411.00,0.0110
3410.00,0.0110
3409.00,0.0110
3408.00,0.0111
3407.00,0.0111
3406.00,0.0112
3405.00,0.0112
3404.00,0.0112
3403.00,0.0113
3402.00,0.0113
3401.00,0.0113
3400.00,0.0113
3399.00,0.0113
3398.00,0.0113
3397.00,0.0114
3396.00,0.0114
3395.00,0.0114
3394.00,0.0114
3393.00,0.0114
3392.00,0.0114
3391.00,0.0114
3390.00,0.0114
3389.00,0.0114
3388.00,0.0114
3387.00,0.0114
3386.00,0.0114
3385.00,0.0114
3384.00,0.0115
3383.00,0.0115
3382.00,0.0115
3381.00,0.0115
3380.00,0.0115
3379.00,0.0115
3378.00,0.0115
3377.00,0.0115
3376.00,0.0115
3375.00,0.0116
3374.00,0.0116
3373.00,0.0116
3372.00,0.0117
3371.00,0.0117
3370.00,0.0117
3369.00,0.0118
3368.00,0.0118
3367.00,0.0118
3366.00,0.0117
3365.00,0.0117
3364.00,0.0116
3363.00,0.0116
3362.00,0.0116
3361.00,0.0116
3360.00,0.0117
3359.00,0.0117
3358.00,0.0118
3357.00,0.0118
3356.00,0.0118
3355.00,0.0119
3354.00,0.0119
3353.00,0.0119
3352.00,0.0120
3351.00,0.0120
3350.00,0.0120
3349.00,0.0120
3348.00,0.0119
3347.00,0.0119
3346.00,0.0119
3345.00,0.0119
3344.00,0.0118
3343.00,0.0118
3342.00,0.0118
3341.00,0.0118
3340.00,0.0118
3339.00,0.0118
3338.00,0.0119
3337.00,0.0119
3336.00,0.0119
3335.00,0.0118
3334.00,0.0118
3333.00,0.0118
3332.00,0.0118
3331.00,0.0118
3330.00,0.0118
3329.00,0.0118
3328.00,0.0117
3327.00,0.0117
3326.00,0.0117
3325.00,0.0117
3324.00,0.0117
3323.00,0.0117
3322.00,0.0117
3321.00,0.0117
3320.00,0.0117
3319.00,0.0116
3318.00,0.0116
3317.00,0.0116
3316.00,0.0116
3315.00,0.0116
3314.00,0.0115
3313.00,0.0115
3312.00,0.0114
3311.00,0.0114
3310.00,0.0114
3309.00,0.0114
3308.00,0.0114
3307.00,0.0114
3306.00,0.0113
3305.00,0.0113
3304.00,0.0113
3303.00,0.0113
3302.00,0.0113
3301.00,0.0113
3300.00,0.0113
3299.00,0.0112
3298.00,0.0112
3297.00,0.0111
3296.00,0.0111
3295.00,0.0111
3294.00,0.0111
3293.00,0.0111
3292.00,0.0111
3291.00,0.0111
3290.00,0.0111
3289.00,0.0110
3288.00,0.0110
3287.00,0.0109
3286.00,0.0108
3285.00,0.0108
3284.00,0.0108
3283.00,0.0108
3282.00,0.0108
3281.00,0.0108
3280.00,0.0107
3279.00,0.0107
3278.00,0.0106
3277.00,0.0106
3276.00,0.0106
3275.00,0.0105
3274.00,0.0105
3273.00,0.0105
3272.00,0.0105
3271.00,0.0104
3270.00,0.0103
3269.00,0.0103
3268.00,0.0102
3267.00,0.0102
3266.00,0.0102
3265.00,0.0102
3264.00,0.0102
3263.00,0.0102
3262.00,0.0102
3261.00,0.0101
3260.00,0.0101
3259.00,0.0101
3258.00,0.0100
3257.00,0.0100
3256.00,0.0099
3255.00,0.0099
3254.00,0.0099
3253.00,0.0099
3252.00,0.0099
3251.00,0.0099
3250.00,0.0099
3249.00,0.0099
3248.00,0.0098
3247.00,0.0097
3246.00,0.0097
3245.00,0.0097
3244.00,0.0097
3243.00,0.0097
3242.00,0.0097
3241.00,0.0097
3240.00,0.0097
3239.00,0.0097
3238.00,0.0097
3237.00,0.0096
3236.00,0.0096
3235.00,0.0096
3234.00,0.0096
3233.00,0.0096
3232.00,0.0096
3231.00,0.0097
3230.00,0.0097
3229.00,0.0097
3228.00,0.0097
3227.00,0.0097
3226.00,0.0097
3225.00,0.0097
3224.00,0.0096
3223.00,0.0096
3222.00,0.0096
3221.00,0.0097
3220.00,0.0097
3219.00,0.0097
3218.00,0.0097
3217.00,0.0097
3216.00,0.0097
3215.00,0.0097
3214.00,0.0098
3213.00,0.0098
3212.00,0.0098
3211.00,0.0098
3210.00,0.0099
3209.00,0.0099
3208.00,0.0099
3207.00,0.0099
3206.00,0.0098
3205.00,0.0098
3204.00,0.0098
3203.00,0.0098
3202.00,0.0098
3201.00,0.0098
3200.00,0.0098
3199.00,0.0098
3198.00,0.0098
3197.00,0.0098
3196.00,0.0098
3195.00,0.0097
3194.00,0.0097
3193.00,0.0097
3192.00,0.0098
3191.00,0.0098
3190.00,0.0098
3189.00,0.0098
3188.00,0.0098
3187.00,0.0097
3186.00,0.0096
3185.00,0.0095
3184.00,0.0094
3183.00,0.0094
3182.00,0.0093
3181.00,0.0093
3180.00,0.0093
3179.00,0.0092
3178.00,0.0092
3177.00,0.0091
3176.00,0.0091
3175.00,0.0090
3174.00,0.0090
3173.00,0.0089
3172.00,0.0089
3171.00,0.0089
3170.00,0.0088
3169.00,0.0088
3168.00,0.0087
3167.00,0.0086
3166.00,0.0086
3165.00,0.0086
3164.00,0.0085
3163.00,0.0084
3162.00,0.0084
3161.00,0.0083
3160.00,0.0083
3159.00,0.0082
3158.00,0.0082
3157.00,0.0082
3156.00,0.0081
3155.00,0.0081
3154.00,0.0080
3153.00,0.0079
3152.00,0.0079
3151.00,0.0079
3150.00,0.0080
3149.00,0.0080
3148.00,0.0080
3147.00,0.0079
3146.00,0.0079
3145.00,0.0078
3144.00,0.0078
3143.00,0.0078
3142.00,0.0077
3141.00,0.0077
3140.00,0.0076
3139.00,0.0076
3138.00,0.0076
3137.00,0.0075
3136.00,0.0075
3135.00,0.0074
3134.00,0.0074
3133.00,0.0074
3132.00,0.0074
3131.00,0.0073
3130.00,0.0073
3129.00,0.0072
3128.00,0.0072
3127.00,0.0072
3126.00,0.0071
3125.00,0.0071
3124.00,0.0070
3123.00,0.0070
3122.00,0.0069
3121.00,0.0069
3120.00,0.0068
3119.00,0.0068
3118.00,0.0068
3117.00,0.0068
3116.00,0.0067
3115.00,0.0067
3114.00,0.0067
3113.00,0.0066
3112.00,0.0066
3111.00,0.0066
3110.00,0.0065
3109.00,0.0065
3108.00,0.0065
3107.00,0.0065
3106.00,0.0065
3105.00,0.0064
3104.00,0.0064
3103.00,0.0064
3102.00,0.0063
3101.00,0.0063
3100.00,0.0063
3099.00,0.0062
3098.00,0.0062
3097.00,0.0062
3096.00,0.0061
3095.00,0.0061
3094.00,0.0061
3093.00,0.0061
3092.00,0.0061
3091.00,0.0061
3090.00,0.0061
3089.00,0.0061
3088.00,0.0061
3087.00,0.0061
3086.00,0.0060
3085.00,0.0060
3084.00,0.0060
3083.00,0.0059
3082.00,0.0059
3081.00,0.0059
3080.00,0.0059
3079.00,0.0060
3078.00,0.0060
3077.00,0.0060
3076.00,0.0060
3075.00,0.0060
3074.00,0.0060
3073.00,0.0060
3072.00,0.0060
3071.00,0.0060
3070.00,0.0060
3069.00,0.0060
3068.00,0.0061
3067.00,0.0061
3066.00,0.0061
3065.00,0.0062
3064.00,0.0062
3063.00,0.0062
3062.00,0.0062
3061.00,0.0061
3060.00,0.0061
3059.00,0.0061
3058.00,0.0061
3057.00,0.0061
3056.00,0.0061
3055.00,0.0061
3054.00,0.0061
3053.00,0.0061
3052.00,0.0062
3051.00,0.0062
3050.00,0.0062
3049.00,0.0062
3048.00,0.0062
3047.00,0.0062
3046.00,0.0063
3045.00,0.0063
3044.00,0.0064
3043.00,0.0065
3042.00,0.0065
3041.00,0.0066
3040.00,0.0066
3039.00,0.0066
3038.00,0.0067
3037.00,0.0067
3036.00,0.0068
3035.00,0.0068
3034.00,0.0069
3033.00,0.0070
3032.00,0.0071
3031.00,0.0071
3030.00,0.0072
3029.00,0.0073
3028.00,0.0074
3027.00,0.0076
3026.00,0.0077
3025.00,0.0079
3024.00,0.0081
3023.00,0.0084
3022.00,0.0087
3021.00,0.0090
3020.00,0.0095
3019.00,0.0100
3018.00,0.0105
3017.00,0.0112
3016.00,0.0120
3015.00,0.0129
3014.00,0.0140
3013.00,0.0152
3012.00,0.0166
3011.00,0.0182
3010.00,0.0199
3009.00,0.0218
3008.00,0.0239
3007.00,0.0261
3006.00,0.0285
3005.00,0.0309
3004.00,0.0334
3003.00,0.0359
3002.00,0.0384
3001.00,0.0408
3000.00,0.0431
2999.00,0.0452
2998.00,0.0471
2997.00,0.0490
2996.00,0.0507
2995.00,0.0523
2994.00,0.0539
2993.00,0.0555
2992.00,0.0570
2991.00,0.0586
2990.00,0.0602
2989.00,0.0620
2988.00,0.0642
2987.00,0.0672
2986.00,0.0717
2985.00,0.0783
2984.00,0.0864
2983.00,0.0944
2982.00,0.1002
2981.00,0.1027
2980.00,0.1023
2979.00,0.1004
2978.00,0.0985
2977.00,0.0975
2976.00,0.0980
2975.00,0.1002
2974.00,0.1040
2973.00,0.1089
2972.00,0.1137
2971.00,0.1176
2970.00,0.1206
2969.00,0.1233
2968.00,0.1266
2967.00,0.1308
2966.00,0.1355
2965.00,0.1404
2964.00,0.1452
2963.00,0.1495
2962.00,0.1534
2961.00,0.1568
2960.00,0.1598
2959.00,0.1627
2958.00,0.1659
2957.00,0.1696
2956.00,0.1741
2955.00,0.1797
2954.00,0.1860
2953.00,0.1927
2952.00,0.1992
2951.00,0.2045
2950.00,0.2077
2949.00,0.2078
2948.00,0.2040
2947.00,0.1965
2946.00,0.1858
2945.00,0.1734
2944.00,0.1608
2943.00,0.1495
2942.00,0.1404
2941.00,0.1339
2940.00,0.1299
2939.00,0.1283
2938.00,0.1286
2937.00,0.1308
2936.00,0.1347
2935.00,0.1403
2934.00,0.1474
2933.00,0.1557
2932.00,0.1651
2931.00,0.1752
2930.00,0.1858
2929.00,0.1966
2928.00,0.2074
2927.00,0.2180
2926.00,0.2282
2925.00,0.2379
2924.00,0.2474
2923.00,0.2567
2922.00,0.2661
2921.00,0.2752
2920.00,0.2837
2919.00,0.2907
2918.00,0.2954
2917.00,0.2966
2916.00,0.2941
2915.00,0.2879
2914.00,0.2788
2913.00,0.2679
2912.00,0.2563
2911.00,0.2449
2910.00,0.2341
2909.00,0.2241
2908.00,0.2149
2907.00,0.2062
2906.00,0.1980
2905.00,0.1901
2904.00,0.1824
2903.00,0.1751
2902.00,0.1681
2901.00,0.1614
2900.00,0.1552
2899.00,0.1493
2898.00,0.1440
2897.00,0.1394
2896.00,0.1354
2895.00,0.1321
2894.00,0.1296
2893.00,0.1278
2892.00,0.1266
2891.00,0.1259
2890.00,0.1256
2889.00,0.1255
2888.00,0.1257
2887.00,0.1263
2886.00,0.1273
2885.00,0.1287
2884.00,0.1304
2883.00,0.1322
2882.00,0.1342
2881.00,0.1364
2880.00,0.1387
2879.00,0.1409
2878.00,0.1426
2877.00,0.1435
2876.00,0.1433
2875.00,0.1425
2874.00,0.1415
2873.00,0.1407
2872.00,0.1406
2871.00,0.1413
2870.00,0.1427
2869.00,0.1444
2868.00,0.1457
2867.00,0.1457
2866.00,0.1437
2865.00,0.1391
2864.00,0.1322
2863.00,0.1236
2862.00,0.1143
2861.00,0.1054
2860.00,0.0977
2859.00,0.0914
2858.00,0.0866
2857.00,0.0831
2856.00,0.0807
2855.00,0.0791
2854.00,0.0781
2853.00,0.0777
2852.00,0.0777
2851.00,0.0780
2850.00,0.0785
2849.00,0.0793
2848.00,0.0803
2847.00,0.0820
2846.00,0.0844
2845.00,0.0877
2844.00,0.0920
2843.00,0.0971
2842.00,0.1029
2841.00,0.1087
2840.00,0.1138
2839.00,0.1174
2838.00,0.1187
2837.00,0.1170
2836.00,0.1123
2835.00,0.1047
2834.00,0.0953
2833.00,0.0850
2832.00,0.0750
2831.00,0.0659
2830.00,0.0582
2829.00,0.0517
2828.00,0.0465
2827.00,0.0423
2826.00,0.0389
2825.00,0.0361
2824.00,0.0338
2823.00,0.0319
2822.00,0.0303
2821.00,0.0288
2820.00,0.0275
2819.00,0.0264
2818.00,0.0255
2817.00,0.0247
2816.00,0.0239
2815.00,0.0233
2814.00,0.0226
2813.00,0.0221
2812.00,0.0215
2811.00,0.0209
2810.00,0.0203
2809.00,0.0196
2808.00,0.0190
2807.00,0.0183
2806.00,0.0176
2805.00,0.0170
2804.00,0.0163
2803.00,0.0158
2802.00,0.0153
2801.00,0.0148
2800.00,0.0144
2799.00,0.0141
2798.00,0.0138
2797.00,0.0135
2796.00,0.0132
2795.00,0.0130
2794.00,0.0127
2793.00,0.0124
2792.00,0.0121
2791.00,0.0118
2790.00,0.0115
2789.00,0.0112
2788.00,0.0109
2787.00,0.0107
2786.00,0.0105
2785.00,0.0102
2784.00,0.0100
2783.00,0.0098
2782.00,0.0096
2781.00,0.0094
2780.00,0.0092
2779.00,0.0090
2778.00,0.0088
2777.00,0.0086
2776.00,0.0085
2775.00,0.0084
2774.00,0.0083
2773.00,0.0083
2772.00,0.0082
2771.00,0.0082
2770.00,0.0081
2769.00,0.0081
2768.00,0.0080
2767.00,0.0080
2766.00,0.0079
2765.00,0.0079
2764.00,0.0078
2763.00,0.0078
2762.00,0.0077
2761.00,0.0076
2760.00,0.0075
2759.00,0.0075
2758.00,0.0074
2757.00,0.0074
2756.00,0.0074
2755.00,0.0073
2754.00,0.0073
2753.00,0.0072
2752.00,0.0072
2751.00,0.0073
2750.00,0.0073
2749.00,0.0073
2748.00,0.0073
2747.00,0.0073
2746.00,0.0073
2745.00,0.0074
2744.00,0.0074
2743.00,0.0075
2742.00,0.0076
2741.00,0.0077
2740.00,0.0078
2739.00,0.0080
2738.00,0.0081
2737.00,0.0082
2736.00,0.0083
2735.00,0.0085
2734.00,0.0086
2733.00,0.0088
2732.00,0.0089
2731.00,0.0091
2730.00,0.0094
2729.00,0.0096
2728.00,0.0098
2727.00,0.0100
2726.00,0.0103
2725.00,0.0105
2724.00,0.0106
2723.00,0.0106
2722.00,0.0105
2721.00,0.0103
2720.00,0.0100
2719.00,0.0096
2718.00,0.0093
2717.00,0.0089
2716.00,0.0086
2715.00,0.0083
2714.00,0.0081
2713.00,0.0079
2712.00,0.0077
2711.00,0.0075
2710.00,0.0073
2709.00,0.0071
2708.00,0.0069
2707.00,0.0067
2706.00,0.0066
2705.00,0.0065
2704.00,0.0064
2703.00,0.0064
2702.00,0.0063
2701.00,0.0062
2700.00,0.0061
2699.00,0.0061
2698.00,0.0060
2697.00,0.0060
2696.00,0.0060
2695.00,0.0060
2694.00,0.0060
2693.00,0.0059
2692.00,0.0059
2691.00,0.0059
2690.00,0.0060
2689.00,0.0060
2688.00,0.0060
2687.00,0.0061
2686.00,0.0061
2685.00,0.0061
2684.00,0.0061
2683.00,0.0061
2682.00,0.0062
2681.00,0.0062
2680.00,0.0062
2679.00,0.0062
2678.00,0.0062
2677.00,0.0063
2676.00,0.0063
2675.00,0.0064
2674.00,0.0064
2673.00,0.0064
2672.00,0.0064
2671.00,0.0064
2670.00,0.0065
2669.00,0.0065
2668.00,0.0066
2667.00,0.0067
2666.00,0.0067
2665.00,0.0067
2664.00,0.0067
2663.00,0.0067
2662.00,0.0068
2661.00,0.0068
2660.00,0.0068
2659.00,0.0068
2658.00,0.0067
2657.00,0.0067
2656.00,0.0066
2655.00,0.0066
2654.00,0.0066
2653.00,0.0065
2652.00,0.0065
2651.00,0.0064
2650.00,0.0063
2649.00,0.0063
2648.00,0.0062
2647.00,0.0061
2646.00,0.0061
2645.00,0.0060
2644.00,0.0060
2643.00,0.0059
2642.00,0.0059
2641.00,0.0058
2640.00,0.0058
2639.00,0.0057
2638.00,0.0057
2637.00,0.0056
2636.00,0.0055
2635.00,0.0054
2634.00,0.0054
2633.00,0.0054
2632.00,0.0054
2631.00,0.0054
2630.00,0.0054
2629.00,0.0054
2628.00,0.0053
2627.00,0.0053
2626.00,0.0053
2625.00,0.0053
2624.00,0.0053
2623.00,0.0054
2622.00,0.0054
2621.00,0.0054
2620.00,0.0054
2619.00,0.0053
2618.00,0.0053
2617.00,0.0052
2616.00,0.0052
2615.00,0.0051
2614.00,0.0051
2613.00,0.0050
2612.00,0.0050
2611.00,0.0050
2610.00,0.0049
2609.00,0.0049
2608.00,0.0048
2607.00,0.0048
2606.00,0.0047
2605.00,0.0047
2604.00,0.0046
2603.00,0.0045
2602.00,0.0044
2601.00,0.0043
2600.00,0.0042
2599.00,0.0042
2598.00,0.0041
2597.00,0.0041
2596.00,0.0041
2595.00,0.0041
2594.00,0.0042
2593.00,0.0042
2592.00,0.0043
2591.00,0.0043
2590.00,0.0044
2589.00,0.0044
2588.00,0.0045
2587.00,0.0046
2586.00,0.0047
2585.00,0.0047
2584.00,0.0048
2583.00,0.0048
2582.00,0.0048
2581.00,0.0048
2580.00,0.0048
2579.00,0.0047
2578.00,0.0045
2577.00,0.0044
2576.00,0.0043
2575.00,0.0042
2574.00,0.0041
2573.00,0.0040
2572.00,0.0038
2571.00,0.0037
2570.00,0.0035
2569.00,0.0034
2568.00,0.0033
2567.00,0.0033
2566.00,0.0032
2565.00,0.0032
2564.00,0.0032
2563.00,0.0032
2562.00,0.0032
2561.00,0.0032
2560.00,0.0032
2559.00,0.0032
2558.00,0.0032
2557.00,0.0031
2556.00,0.0031
2555.00,0.0030
2554.00,0.0029
2553.00,0.0028
2552.00,0.0028
2551.00,0.0029
2550.00,0.0029
2549.00,0.0029
2548.00,0.0029
2547.00,0.0029
2546.00,0.0029
2545.00,0.0028
2544.00,0.0027
2543.00,0.0026
2542.00,0.0025
2541.00,0.0025
2540.00,0.0026
2539.00,0.0026
2538.00,0.0026
2537.00,0.0025
2536.00,0.0025
2535.00,0.0024
2534.00,0.0023
2533.00,0.0023
2532.00,0.0023
2531.00,0.0023
2530.00,0.0024
2529.00,0.0024
2528.00,0.0025
2527.00,0.0024
2526.00,0.0024
2525.00,0.0023
2524.00,0.0022
2523.00,0.0022
2522.00,0.0022
2521.00,0.0022
2520.00,0.0023
2519.00,0.0023
2518.00,0.0023
2517.00,0.0022
2516.00,0.0022
2515.00,0.0021
2514.00,0.0021
2513.00,0.0020
2512.00,0.0020
2511.00,0.0020
2510.00,0.0020
2509.00,0.0020
2508.00,0.0020
2507.00,0.0020
2506.00,0.0019
2505.00,0.0019
2504.00,0.0019
2503.00,0.0020
2502.00,0.0020
2501.00,0.0021
2500.00,0.0021
2499.00,0.0020
2498.00,0.0019
2497.00,0.0019
2496.00,0.0018
2495.00,0.0018
2494.00,0.0019
2493.00,0.0019
2492.00,0.0019
2491.00,0.0019
2490.00,0.0019
2489.00,0.0019
2488.00,0.0019
2487.00,0.0020
2486.00,0.0020
2485.00,0.0019
2484.00,0.0019
2483.00,0.0019
2482.00,0.0019
2481.00,0.0019
2480.00,0.0019
2479.00,0.0019
2478.00,0.0018
2477.00,0.0017
2476.00,0.0017
2475.00,0.0017
2474.00,0.0017
2473.00,0.0017
2472.00,0.0017
2471.00,0.0017
2470.00,0.0017
2469.00,0.0018
2468.00,0.0018
2467.00,0.0018
2466.00,0.0019
2465.00,0.0019
2464.00,0.0018
2463.00,0.0018
2462.00,0.0018
2461.00,0.0018
2460.00,0.0018
2459.00,0.0018
2458.00,0.0019
2457.00,0.0019
2456.00,0.0018
2455.00,0.0018
2454.00,0.0018
2453.00,0.0018
2452.00,0.0018
2451.00,0.0018
2450.00,0.0019
2449.00,0.0019
2448.00,0.0019
2447.00,0.0019
2446.00,0.0019
2445.00,0.0019
2444.00,0.0019
2443.00,0.0020
2442.00,0.0020
2441.00,0.0020
2440.00,0.0020
2439.00,0.0020
2438.00,0.0020
2437.00,0.0019
2436.00,0.0018
2435.00,0.0018
2434.00,0.0018
2433.00,0.0018
2432.00,0.0018
2431.00,0.0019
2430.00,0.0019
2429.00,0.0019
2428.00,0.0019
2427.00,0.0018
2426.00,0.0018
2425.00,0.0018
2424.00,0.0018
2423.00,0.0018
2422.00,0.0018
2421.00,0.0018
2420.00,0.0018
2419.00,0.0018
2418.00,0.0017
2417.00,0.0017
2416.00,0.0017
2415.00,0.0017
2414.00,0.0016
2413.00,0.0017
2412.00,0.0017
2411.00,0.0018
2410.00,0.0018
2409.00,0.0018
2408.00,0.0018
2407.00,0.0017
2406.00,0.0017
2405.00,0.0016
2404.00,0.0016
2403.00,0.0016
2402.00,0.0016
2401.00,0.0016
2400.00,0.0016
2399.00,0.0016
2398.00,0.0016
2397.00,0.0016
2396.00,0.0016
2395.00,0.0015
2394.00,0.0015
2393.00,0.0015
2392.00,0.0014
2391.00,0.0014
2390.00,0.0014
2389.00,0.0014
2388.00,0.0014
2387.00,0.0013
2386.00,0.0013
2385.00,0.0013
2384.00,0.0013
2383.00,0.0013
2382.00,0.0013
2381.00,0.0012
2380.00,0.0012
2379.00,0.0011
2378.00,0.0011
2377.00,0.0011
2376.00,0.0012
2375.00,0.0012
2374.00,0.0013
2373.00,0.0013
2372.00,0.0012
2371.00,0.0012
2370.00,0.0012
2369.00,0.0012
2368.00,0.0012
2367.00,0.0012
2366.00,0.0012
2365.00,0.0012
2364.00,0.0012
2363.00,0.0012
2362.00,0.0013
2361.00,0.0013
2360.00,0.0013
2359.00,0.0013
2358.00,0.0013
2357.00,0.0013
2356.00,0.0013
2355.00,0.0014
2354.00,0.0014
2353.00,0.0013
2352.00,0.0013
2351.00,0.0012
2350.00,0.0013
2349.00,0.0014
2348.00,0.0015
2347.00,0.0016
2346.00,0.0016
2345.00,0.0015
2344.00,0.0015
2343.00,0.0016
2342.00,0.0016
2341.00,0.0016
2340.00,0.0016
2339.00,0.0016
2338.00,0.0016
2337.00,0.0016
2336.00,0.0017
2335.00,0.0017
2334.00,0.0016
2333.00,0.0016
2332.00,0.0015
2331.00,0.0015
2330.00,0.0016
2329.00,0.0017
2328.00,0.0019
2327.00,0.0022
2326.00,0.0025
2325.00,0.0028
2324.00,0.0028
2323.00,0.0026
2322.00,0.0024
2321.00,0.0022
2320.00,0.0020
2319.00,0.0019
2318.00,0.0019
2317.00,0.0019
2316.00,0.0019
2315.00,0.0019
2314.00,0.0018
2313.00,0.0018
2312.00,0.0017
2311.00,0.0016
2310.00,0.0016
2309.00,0.0016
2308.00,0.0016
2307.00,0.0016
2306.00,0.0016
2305.00,0.0016
2304.00,0.0016
2303.00,0.0016
2302.00,0.0016
2301.00,0.0017
2300.00,0.0017
2299.00,0.0017
2298.00,0.0017
2297.00,0.0018
2296.00,0.0018
2295.00,0.0019
2294.00,0.0020
2293.00,0.0021
2292.00,0.0022
2291.00,0.0023
2290.00,0.0023
2289.00,0.0024
2288.00,0.0024
2287.00,0.0025
2286.00,0.0025
2285.00,0.0025
2284.00,0.0024
2283.00,0.0022
2282.00,0.0021
2281.00,0.0021
2280.00,0.0020
2279.00,0.0020
2278.00,0.0020
2277.00,0.0018
2276.00,0.0018
2275.00,0.0017
2274.00,0.0017
2273.00,0.0017
2272.00,0.0017
2271.00,0.0017
2270.00,0.0017
2269.00,0.0017
2268.00,0.0018
2267.00,0.0018
2266.00,0.0018
2265.00,0.0017
2264.00,0.0015
2263.00,0.0014
2262.00,0.0013
2261.00,0.0013
2260.00,0.0014
2259.00,0.0015
2258.00,0.0016
2257.00,0.0016
2256.00,0.0015
2255.00,0.0013
2254.00,0.0012
2253.00,0.0012
2252.00,0.0014
2251.00,0.0015
2250.00,0.0015
2249.00,0.0014
2248.00,0.0013
2247.00,0.0012
2246.00,0.0012
2245.00,0.0012
2244.00,0.0012
2243.00,0.0012
2242.00,0.0012
2241.00,0.0012
2240.00,0.0013
2239.00,0.0013
2238.00,0.0013
2237.00,0.0012
2236.00,0.0012
2235.00,0.0011
2234.00,0.0011
2233.00,0.0011
2232.00,0.0012
2231.00,0.0013
2230.00,0.0015
2229.00,0.0016
2228.00,0.0017
2227.00,0.0016
2226.00,0.0015
2225.00,0.0014
2224.00,0.0013
2223.00,0.0012
2222.00,0.0012
2221.00,0.0013
2220.00,0.0014
2219.00,0.0014
2218.00,0.0015
2217.00,0.0015
2216.00,0.0014
2215.00,0.0012
2214.00,0.0011
2213.00,0.0012
2212.00,0.0013
2211.00,0.0013
2210.00,0.0014
2209.00,0.0014
2208.00,0.0016
2207.00,0.0017
2206.00,0.0017
2205.00,0.0017
2204.00,0.0017
2203.00,0.0016
2202.00,0.0016
2201.00,0.0016
2200.00,0.0015
2199.00,0.0014
2198.00,0.0012
2197.00,0.0012
2196.00,0.0013
2195.00,0.0015
2194.00,0.0017
2193.00,0.0018
2192.00,0.0019
2191.00,0.0019
2190.00,0.0018
2189.00,0.0016
2188.00,0.0014
2187.00,0.0014
2186.00,0.0015
2185.00,0.0017
2184.00,0.0018
2183.00,0.0017
2182.00,0.0014
2181.00,0.0012
2180.00,0.0010
2179.00,0.0008
2178.00,0.0006
2177.00,0.0005
2176.00,0.0005
2175.00,0.0006
2174.00,0.0008
2173.00,0.0011
2172.00,0.0014
2171.00,0.0017
2170.00,0.0019
2169.00,0.0022
2168.00,0.0022
2167.00,0.0020
2166.00,0.0017
2165.00,0.0014
2164.00,0.0012
2163.00,0.0014
2162.00,0.0017
2161.00,0.0018
2160.00,0.0013
2159.00,0.0001
2158.00,-0.0012
2157.00,-0.0019
2156.00,-0.0020
2155.00,-0.0018
2154.00,-0.0015
2153.00,-0.0011
2152.00,-0.0009
2151.00,-0.0008
2150.00,-0.0007
2149.00,-0.0007
2148.00,-0.0007
2147.00,-0.0008
2146.00,-0.0010
2145.00,-0.0010
2144.00,-0.0009
2143.00,-0.0008
2142.00,-0.0007
2141.00,-0.0007
2140.00,-0.0006
2139.00,-0.0004
2138.00,-0.0004
2137.00,-0.0004
2136.00,-0.0006
2135.00,-0.0008
2134.00,-0.0010
2133.00,-0.0010
2132.00,-0.0009
2131.00,-0.0007
2130.00,-0.0006
2129.00,-0.0005
2128.00,-0.0003
2127.00,-0.0002
2126.00,-0.0000
2125.00,0.0001
2124.00,0.0002
2123.00,0.0003
2122.00,0.0003
2121.00,0.0004
2120.00,0.0004
2119.00,0.0004
2118.00,0.0004
2117.00,0.0003
2116.00,0.0003
2115.00,0.0003
2114.00,0.0004
2113.00,0.0005
2112.00,0.0006
2111.00,0.0006
2110.00,0.0008
2109.00,0.0009
2108.00,0.0010
2107.00,0.0010
2106.00,0.0010
2105.00,0.0009
2104.00,0.0010
2103.00,0.0010
2102.00,0.0010
2101.00,0.0009
2100.00,0.0008
2099.00,0.0007
2098.00,0.0007
2097.00,0.0007
2096.00,0.0006
2095.00,0.0004
2094.00,0.0002
2093.00,0.0003
2092.00,0.0005
2091.00,0.0007
2090.00,0.0008
2089.00,0.0010
2088.00,0.0011
2087.00,0.0011
2086.00,0.0010
2085.00,0.0010
2084.00,0.0009
2083.00,0.0009
2082.00,0.0009
2081.00,0.0010
2080.00,0.0011
2079.00,0.0011
2078.00,0.0012
2077.00,0.0012
2076.00,0.0011
2075.00,0.0011
2074.00,0.0010
2073.00,0.0010
2072.00,0.0010
2071.00,0.0011
2070.00,0.0010
2069.00,0.0010
2068.00,0.0008
2067.00,0.0007
2066.00,0.0006
2065.00,0.0007
2064.00,0.0008
2063.00,0.0009
2062.00,0.0008
2061.00,0.0007
2060.00,0.0007
2059.00,0.0008
2058.00,0.0011
2057.00,0.0013
2056.00,0.0013
2055.00,0.0011
2054.00,0.0010
2053.00,0.0012
2052.00,0.0017
2051.00,0.0020
2050.00,0.0020
2049.00,0.0015
2048.00,0.0010
2047.00,0.0006
2046.00,0.0004
2045.00,0.0004
2044.00,0.0005
2043.00,0.0005
2042.00,0.0005
2041.00,0.0006
2040.00,0.0007
2039.00,0.0008
2038.00,0.0008
2037.00,0.0007
2036.00,0.0006
2035.00,0.0004
2034.00,0.0002
2033.00,-0.0001
2032.00,-0.0004
2031.00,-0.0006
2030.00,-0.0006
2029.00,-0.0005
2028.00,-0.0003
2027.00,-0.0001
2026.00,0.0001
2025.00,0.0002
2024.00,0.0002
2023.00,-0.0001
2022.00,-0.0004
2021.00,-0.0006
2020.00,-0.0005
2019.00,-0.0004
2018.00,-0.0002
2017.00,-0.0001
2016.00,-0.0001
2015.00,-0.0003
2014.00,-0.0006
2013.00,-0.0008
2012.00,-0.0007
2011.00,-0.0006
2010.00,-0.0005
2009.00,-0.0004
2008.00,-0.0006
2007.00,-0.0010
2006.00,-0.0013
2005.00,-0.0013
2004.00,-0.0011
2003.00,-0.0006
2002.00,-0.0001
2001.00,0.0002
2000.00,0.0004
1999.00,0.0003
1998.00,0.0002
1997.00,0.0000
1996.00,-0.0001
1995.00,-0.0002
1994.00,-0.0002
1993.00,-0.0001
1992.00,-0.0000
1991.00,0.0001
1990.00,0.0002
1989.00,0.0005
1988.00,0.0008
1987.00,0.0009
1986.00,0.0009
1985.00,0.0008
1984.00,0.0009
1983.00,0.0012
1982.00,0.0016
1981.00,0.0018
1980.00,0.0017
1979.00,0.0012
1978.00,0.0004
1977.00,-0.0003
1976.00,-0.0007
1975.00,-0.0011
1974.00,-0.0012
1973.00,-0.0012
1972.00,-0.0010
1971.00,-0.0008
1970.00,-0.0008
1969.00,-0.0009
1968.00,-0.0009
1967.00,-0.0009
1966.00,-0.0009
1965.00,-0.0007
1964.00,-0.0006
1963.00,-0.0006
1962.00,-0.0008
1961.00,-0.0009
1960.00,-0.0011
1959.00,-0.0013
1958.00,-0.0014
1957.00,-0.0013
1956.00,-0.0013
1955.00,-0.0012
1954.00,-0.0011
1953.00,-0.0011
1952.00,-0.0011
1951.00,-0.0010
1950.00,-0.0009
1949.00,-0.0008
1948.00,-0.0007
1947.00,-0.0007
1946.00,-0.0008
1945.00,-0.0009
1944.00,-0.0010
1943.00,-0.0009
1942.00,-0.0009
1941.00,-0.0008
1940.00,-0.0007
1939.00,-0.0007
1938.00,-0.0007
1937.00,-0.0008
1936.00,-0.0007
1935.00,-0.0006
1934.00,-0.0006
1933.00,-0.0006
1932.00,-0.0007
1931.00,-0.0006
1930.00,-0.0006
1929.00,-0.0004
1928.00,-0.0003
1927.00,-0.0002
1926.00,-0.0001
1925.00,-0.0001
1924.00,-0.0000
1923.00,-0.0000
1922.00,-0.0000
1921.00,0.0001
1920.00,0.0002
1919.00,0.0003
1918.00,0.0003
1917.00,0.0003
1916.00,0.0002
1915.00,0.0001
1914.00,0.0001
1913.00,0.0001
1912.00,0.0003
1911.00,0.0004
1910.00,0.0005
1909.00,0.0006
1908.00,0.0006
1907.00,0.0006
1906.00,0.0006
1905.00,0.0006
1904.00,0.0006
1903.00,0.0006
1902.00,0.0006
1901.00,0.0007
1900.00,0.0007
1899.00,0.0007
1898.00,0.0006
1897.00,0.0005
1896.00,0.0005
1895.00,0.0005
1894.00,0.0006
1893.00,0.0006
1892.00,0.0006
1891.00,0.0005
1890.00,0.0004
1889.00,0.0005
1888.00,0.0005
1887.00,0.0006
1886.00,0.0006
1885.00,0.0005
1884.00,0.0006
1883.00,0.0006
1882.00,0.0007
1881.00,0.0007
1880.00,0.0006
1879.00,0.0006
1878.00,0.0005
1877.00,0.0005
1876.00,0.0004
1875.00,0.0003
1874.00,0.0003
1873.00,0.0003
1872.00,0.0003
1871.00,0.0004
1870.00,0.0004
1869.00,0.0005
1868.00,0.0006
1867.00,0.0006
1866.00,0.0007
1865.00,0.0007
1864.00,0.0007
1863.00,0.0008
1862.00,0.0008
1861.00,0.0007
1860.00,0.0007
1859.00,0.0007
1858.00,0.0006
1857.00,0.0006
1856.00,0.0006
1855.00,0.0007
1854.00,0.0008
1853.00,0.0009
1852.00,0.0010
1851.00,0.0010
1850.00,0.0010
1849.00,0.0010
1848.00,0.0010
1847.00,0.0010
1846.00,0.0010
1845.00,0.0010
1844.00,0.0010
1843.00,0.0009
1842.00,0.0008
1841.00,0.0008
1840.00,0.0009
1839.00,0.0009
1838.00,0.0010
1837.00,0.0010
1836.00,0.0010
1835.00,0.0010
1834.00,0.0010
1833.00,0.0010
1832.00,0.0010
1831.00,0.0010
1830.00,0.0011
1829.00,0.0011
1828.00,0.0011
1827.00,0.0010
1826.00,0.0009
1825.00,0.0009
1824.00,0.0009
1823.00,0.0008
1822.00,0.0008
1821.00,0.0008
1820.00,0.0008
1819.00,0.0008
1818.00,0.0008
1817.00,0.0008
1816.00,0.0008
1815.00,0.0007
1814.00,0.0007
1813.00,0.0007
1812.00,0.0007
1811.00,0.0008
1810.00,0.0008
1809.00,0.0008
1808.00,0.0009
1807.00,0.0009
1806.00,0.0009
1805.00,0.0009
1804.00,0.0010
1803.00,0.0010
1802.00,0.0011
1801.00,0.0011
1800.00,0.0012
1799.00,0.0012
1798.00,0.0012
1797.00,0.0013
1796.00,0.0013
1795.00,0.0013
1794.00,0.0013
1793.00,0.0013
1792.00,0.0014
1791.00,0.0014
1790.00,0.0015
1789.00,0.0015
1788.00,0.0016
1787.00,0.0016
1786.00,0.0017
1785.00,0.0018
1784.00,0.0019
1783.00,0.0020
1782.00,0.0020
1781.00,0.0021
1780.00,0.0021
1779.00,0.0021
1778.00,0.0020
1777.00,0.0020
1776.00,0.0019
1775.00,0.0019
1774.00,0.0019
1773.00,0.0020
1772.00,0.0021
1771.00,0.0022
1770.00,0.0022
1769.00,0.0023
1768.00,0.0023
1767.00,0.0022
1766.00,0.0022
1765.00,0.0023
1764.00,0.0023
1763.00,0.0024
1762.00,0.0025
1761.00,0.0025
1760.00,0.0026
1759.00,0.0026
1758.00,0.0026
1757.00,0.0028
1756.00,0.0029
1755.00,0.0030
1754.00,0.0031
1753.00,0.0032
1752.00,0.0034
1751.00,0.0035
1750.00,0.0035
1749.00,0.0035
1748.00,0.0035
1747.00,0.0036
1746.00,0.0038
1745.00,0.0039
1744.00,0.0040
1743.00,0.0041
1742.00,0.0041
1741.00,0.0041
1740.00,0.0041
1739.00,0.0042
1738.00,0.0042
1737.00,0.0042
1736.00,0.0042
1735.00,0.0042
1734.00,0.0042
1733.00,0.0043
1732.00,0.0043
1731.00,0.0044
1730.00,0.0043
1729.00,0.0043
1728.00,0.0043
1727.00,0.0042
1726.00,0.0041
1725.00,0.0041
1724.00,0.0041
1723.00,0.0041
1722.00,0.0041
1721.00,0.0041
1720.00,0.0041
1719.00,0.0040
1718.00,0.0039
1717.00,0.0038
1716.00,0.0037
1715.00,0.0038
1714.00,0.0038
1713.00,0.0039
1712.00,0.0040
1711.00,0.0040
1710.00,0.0041
1709.00,0.0041
1708.00,0.0042
1707.00,0.0042
1706.00,0.0043
1705.00,0.0043
1704.00,0.0044
1703.00,0.0045
1702.00,0.0045
1701.00,0.0045
1700.00,0.0045
1699.00,0.0045
1698.00,0.0046
1697.00,0.0048
1696.00,0.0051
1695.00,0.0054
1694.00,0.0055
1693.00,0.0056
1692.00,0.0057
1691.00,0.0058
1690.00,0.0059
1689.00,0.0061
1688.00,0.0062
1687.00,0.0063
1686.00,0.0064
1685.00,0.0066
1684.00,0.0068
1683.00,0.0071
1682.00,0.0073
1681.00,0.0076
1680.00,0.0079
1679.00,0.0081
1678.00,0.0082
1677.00,0.0083
1676.00,0.0084
1675.00,0.0086
1674.00,0.0089
1673.00,0.0091
1672.00,0.0093
1671.00,0.0095
1670.00,0.0097
1669.00,0.0098
1668.00,0.0100
1667.00,0.0101
1666.00,0.0102
1665.00,0.0103
1664.00,0.0105
1663.00,0.0107
1662.00,0.0109
1661.00,0.0111
1660.00,0.0112
1659.00,0.0114
1658.00,0.0116
1657.00,0.0117
1656.00,0.0119
1655.00,0.0120
1654.00,0.0122
1653.00,0.0124
1652.00,0.0125
1651.00,0.0126
1650.00,0.0127
1649.00,0.0128
1648.00,0.0130
1647.00,0.0133
1646.00,0.0134
1645.00,0.0135
1644.00,0.0136
1643.00,0.0136
1642.00,0.0137
1641.00,0.0138
1640.00,0.0138
1639.00,0.0138
1638.00,0.0138
1637.00,0.0138
1636.00,0.0137
1635.00,0.0137
1634.00,0.0137
1633.00,0.0137
1632.00,0.0137
1631.00,0.0137
1630.00,0.0137
1629.00,0.0137
1628.00,0.0135
1627.00,0.0134
1626.00,0.0132
1625.00,0.0131
1624.00,0.0130
1623.00,0.0128
1622.00,0.0128
1621.00,0.0127
1620.00,0.0127
1619.00,0.0127
1618.00,0.0126
1617.00,0.0125
1616.00,0.0124
1615.00,0.0124
1614.00,0.0124
1613.00,0.0124
1612.00,0.0124
1611.00,0.0124
1610.00,0.0123
1609.00,0.0123
1608.00,0.0122
1607.00,0.0122
1606.00,0.0122
1605.00,0.0122
1604.00,0.0123
1603.00,0.0123
1602.00,0.0122
1601.00,0.0121
1600.00,0.0121
1599.00,0.0121
1598.00,0.0121
1597.00,0.0121
1596.00,0.0121
1595.00,0.0121
1594.00,0.0120
1593.00,0.0120
1592.00,0.0120
1591.00,0.0120
1590.00,0.0121
1589.00,0.0122
1588.00,0.0123
1587.00,0.0125
1586.00,0.0127
1585.00,0.0130
1584.00,0.0134
1583.00,0.0138
1582.00,0.0142
1581.00,0.0147
1580.00,0.0151
1579.00,0.0154
1578.00,0.0156
1577.00,0.0157
1576.00,0.0156
1575.00,0.0153
1574.00,0.0150
1573.00,0.0148
1572.00,0.0145
1571.00,0.0142
1570.00,0.0138
1569.00,0.0134
1568.00,0.0131
1567.00,0.0130
1566.00,0.0129
1565.00,0.0128
1564.00,0.0129
1563.00,0.0129
1562.00,0.0129
1561.00,0.0130
1560.00,0.0131
1559.00,0.0132
1558.00,0.0134
1557.00,0.0135
1556.00,0.0137
1555.00,0.0140
1554.00,0.0142
1553.00,0.0144
1552.00,0.0147
1551.00,0.0150
1550.00,0.0154
1549.00,0.0157
1548.00,0.0161
1547.00,0.0165
1546.00,0.0169
1545.00,0.0174
1544.00,0.0178
1543.00,0.0182
1542.00,0.0184
1541.00,0.0185
1540.00,0.0184
1539.00,0.0179
1538.00,0.0174
1537.00,0.0170
1536.00,0.0166
1535.00,0.0160
1534.00,0.0153
1533.00,0.0145
1532.00,0.0140
1531.00,0.0136
1530.00,0.0132
1529.00,0.0129
1528.00,0.0126
1527.00,0.0123
1526.00,0.0120
1525.00,0.0118
1524.00,0.0116
1523.00,0.0114
1522.00,0.0112
1521.00,0.0110
1520.00,0.0110
1519.00,0.0109
1518.00,0.0109
1517.00,0.0109
1516.00,0.0109
1515.00,0.0109
1514.00,0.0109
1513.00,0.0109
1512.00,0.0109
1511.00,0.0110
1510.00,0.0111
1509.00,0.0112
1508.00,0.0113
1507.00,0.0114
1506.00,0.0115
1505.00,0.0116
1504.00,0.0119
1503.00,0.0122
1502.00,0.0126
1501.00,0.0131
1500.00,0.0136
1499.00,0.0142
1498.00,0.0149
1497.00,0.0158
1496.00,0.0169
1495.00,0.0178
1494.00,0.0185
1493.00,0.0191
1492.00,0.0198
1491.00,0.0203
1490.00,0.0208
1489.00,0.0215
1488.00,0.0223
1487.00,0.0230
1486.00,0.0237
1485.00,0.0245
1484.00,0.0253
1483.00,0.0262
1482.00,0.0272
1481.00,0.0286
1480.00,0.0301
1479.00,0.0316
1478.00,0.0334
1477.00,0.0359
1476.00,0.0390
1475.00,0.0424
1474.00,0.0467
1473.00,0.0522
1472.00,0.0581
1471.00,0.0635
1470.00,0.0688
1469.00,0.0747
1468.00,0.0813
1467.00,0.0891
1466.00,0.0987
1465.00,0.1095
1464.00,0.1191
1463.00,0.1256
1462.00,0.1296
1461.00,0.1321
1460.00,0.1336
1459.00,0.1342
1458.00,0.1343
1457.00,0.1340
1456.00,0.1330
1455.00,0.1315
1454.00,0.1298
1453.00,0.1275
1452.00,0.1241
1451.00,0.1195
1450.00,0.1135
1449.00,0.1057
1448.00,0.0961
1447.00,0.0863
1446.00,0.0778
1445.00,0.0706
1444.00,0.0646
1443.00,0.0599
1442.00,0.0564
1441.00,0.0542
1440.00,0.0531
1439.00,0.0529
1438.00,0.0535
1437.00,0.0540
1436.00,0.0533
1435.00,0.0507
1434.00,0.0468
1433.00,0.0420
1432.00,0.0369
1431.00,0.0325
1430.00,0.0291
1429.00,0.0267
1428.00,0.0252
1427.00,0.0244
1426.00,0.0239
1425.00,0.0236
1424.00,0.0233
1423.00,0.0233
1422.00,0.0234
1421.00,0.0234
1420.00,0.0235
1419.00,0.0236
1418.00,0.0238
1417.00,0.0238
1416.00,0.0237
1415.00,0.0239
1414.00,0.0242
1413.00,0.0244
1412.00,0.0248
1411.00,0.0253
1410.00,0.0259
1409.00,0.0264
1408.00,0.0270
1407.00,0.0278
1406.00,0.0287
1405.00,0.0298
1404.00,0.0309
1403.00,0.0322
1402.00,0.0335
1401.00,0.0350
1400.00,0.0365
1399.00,0.0383
1398.00,0.0400
1397.00,0.0415
1396.00,0.0430
1395.00,0.0445
1394.00,0.0458
1393.00,0.0468
1392.00,0.0475
1391.00,0.0483
1390.00,0.0496
1389.00,0.0514
1388.00,0.0542
1387.00,0.0582
1386.00,0.0635
1385.00,0.0700
1384.00,0.0786
1383.00,0.0902
1382.00,0.1054
1381.00,0.1250
1380.00,0.1498
1379.00,0.1788
1378.00,0.2078
1377.00,0.2303
1376.00,0.2394
1375.00,0.2304
1374.00,0.2053
1373.00,0.1736
1372.00,0.1438
1371.00,0.1187
1370.00,0.0983
1369.00,0.0826
1368.00,0.0715
1367.00,0.0645
1366.00,0.0605
1365.00,0.0586
1364.00,0.0584
1363.00,0.0594
1362.00,0.0614
1361.00,0.0636
1360.00,0.0652
1359.00,0.0654
1358.00,0.0639
1357.00,0.0607
1356.00,0.0562
1355.00,0.0511
1354.00,0.0461
1353.00,0.0418
1352.00,0.0383
1351.00,0.0355
1350.00,0.0332
1349.00,0.0313
1348.00,0.0298
1347.00,0.0286
1346.00,0.0276
1345.00,0.0268
1344.00,0.0262
1343.00,0.0256
1342.00,0.0249
1341.00,0.0244
1340.00,0.0239
1339.00,0.0234
1338.00,0.0230
1337.00,0.0227
1336.00,0.0226
1335.00,0.0226
1334.00,0.0228
1333.00,0.0230
1332.00,0.0233
1331.00,0.0234
1330.00,0.0233
1329.00,0.0229
1328.00,0.0223
1327.00,0.0215
1326.00,0.0206
1325.00,0.0197
1324.00,0.0188
1323.00,0.0181
1322.00,0.0174
1321.00,0.0169
1320.00,0.0165
1319.00,0.0161
1318.00,0.0158
1317.00,0.0155
1316.00,0.0152
1315.00,0.0150
1314.00,0.0147
1313.00,0.0146
1312.00,0.0146
1311.00,0.0146
1310.00,0.0148
1309.00,0.0152
1308.00,0.0158
1307.00,0.0165
1306.00,0.0173
1305.00,0.0178
1304.00,0.0181
1303.00,0.0181
1302.00,0.0180
1301.00,0.0180
1300.00,0.0181
1299.00,0.0184
1298.00,0.0187
1297.00,0.0189
1296.00,0.0189
1295.00,0.0187
1294.00,0.0184
1293.00,0.0179
1292.00,0.0174
1291.00,0.0169
1290.00,0.0165
1289.00,0.0162
1288.00,0.0159
1287.00,0.0158
1286.00,0.0157
1285.00,0.0157
1284.00,0.0157
1283.00,0.0158
1282.00,0.0159
1281.00,0.0161
1280.00,0.0163
1279.00,0.0167
1278.00,0.0171
1277.00,0.0175
1276.00,0.0180
1275.00,0.0185
1274.00,0.0192
1273.00,0.0199
1272.00,0.0208
1271.00,0.0216
1270.00,0.0225
1269.00,0.0233
1268.00,0.0242
1267.00,0.0251
1266.00,0.0259
1265.00,0.0268
1264.00,0.0276
1263.00,0.0282
1262.00,0.0286
1261.00,0.0291
1260.00,0.0296
1259.00,0.0302
1258.00,0.0308
1257.00,0.0315
1256.00,0.0321
1255.00,0.0324
1254.00,0.0326
1253.00,0.0325
1252.00,0.0323
1251.00,0.0318
1250.00,0.0311
1249.00,0.0303
1248.00,0.0294
1247.00,0.0287
1246.00,0.0281
1245.00,0.0277
1244.00,0.0275
1243.00,0.0274
1242.00,0.0272
1241.00,0.0270
1240.00,0.0267
1239.00,0.0264
1238.00,0.0261
1237.00,0.0257
1236.00,0.0252
1235.00,0.0247
1234.00,0.0241
1233.00,0.0235
1232.00,0.0229
1231.00,0.0224
1230.00,0.0219
1229.00,0.0214
1228.00,0.0209
1227.00,0.0205
1226.00,0.0202
1225.00,0.0200
1224.00,0.0199
1223.00,0.0199
1222.00,0.0199
1221.00,0.0199
1220.00,0.0198
1219.00,0.0197
1218.00,0.0193
1217.00,0.0189
1216.00,0.0183
1215.00,0.0178
1214.00,0.0171
1213.00,0.0166
1212.00,0.0160
1211.00,0.0156
1210.00,0.0152
1209.00,0.0149
1208.00,0.0147
1207.00,0.0146
1206.00,0.0145
1205.00,0.0145
1204.00,0.0145
1203.00,0.0144
1202.00,0.0144
1201.00,0.0144
1200.00,0.0145
1199.00,0.0146
1198.00,0.0148
1197.00,0.0150
1196.00,0.0152
1195.00,0.0154
1194.00,0.0157
1193.00,0.0161
1192.00,0.0165
1191.00,0.0170
1190.00,0.0176
1189.00,0.0182
1188.00,0.0187
1187.00,0.0193
1186.00,0.0200
1185.00,0.0208
1184.00,0.0215
1183.00,0.0223
1182.00,0.0232
1181.00,0.0240
1180.00,0.0250
1179.00,0.0261
1178.00,0.0271
1177.00,0.0283
1176.00,0.0297
1175.00,0.0314
1174.00,0.0334
1173.00,0.0358
1172.00,0.0384
1171.00,0.0413
1170.00,0.0440
1169.00,0.0464
1168.00,0.0481
1167.00,0.0492
1166.00,0.0496
1165.00,0.0496
1164.00,0.0494
1163.00,0.0491
1162.00,0.0488
1161.00,0.0487
1160.00,0.0487
1159.00,0.0489
1158.00,0.0493
1157.00,0.0496
1156.00,0.0499
1155.00,0.0502
1154.00,0.0505
1153.00,0.0506
1152.00,0.0505
1151.00,0.0501
1150.00,0.0493
1149.00,0.0482
1148.00,0.0469
1147.00,0.0455
1146.00,0.0442
1145.00,0.0429
1144.00,0.0417
1143.00,0.0406
1142.00,0.0397
1141.00,0.0389
1140.00,0.0382
1139.00,0.0375
1138.00,0.0367
1137.00,0.0359
1136.00,0.0351
1135.00,0.0343
1134.00,0.0336
1133.00,0.0332
1132.00,0.0329
1131.00,0.0327
1130.00,0.0325
1129.00,0.0323
1128.00,0.0321
1127.00,0.0318
1126.00,0.0316
1125.00,0.0312
1124.00,0.0309
1123.00,0.0305
1122.00,0.0302
1121.00,0.0299
1120.00,0.0297
1119.00,0.0294
1118.00,0.0292
1117.00,0.0289
1116.00,0.0286
1115.00,0.0283
1114.00,0.0279
1113.00,0.0277
1112.00,0.0276
1111.00,0.0277
1110.00,0.0278
1109.00,0.0281
1108.00,0.0285
1107.00,0.0292
1106.00,0.0300
1105.00,0.0308
1104.00,0.0316
1103.00,0.0321
1102.00,0.0324
1101.00,0.0324
1100.00,0.0322
1099.00,0.0320
1098.00,0.0318
1097.00,0.0316
1096.00,0.0317
1095.00,0.0319
1094.00,0.0322
1093.00,0.0325
1092.00,0.0328
1091.00,0.0331
1090.00,0.0333
1089.00,0.0334
1088.00,0.0335
1087.00,0.0335
1086.00,0.0335
1085.00,0.0336
1084.00,0.0337
1083.00,0.0338
1082.00,0.0339
1081.00,0.0338
1080.00,0.0337
1079.00,0.0335
1078.00,0.0333
1077.00,0.0332
1076.00,0.0332
1075.00,0.0334
1074.00,0.0336
1073.00,0.0338
1072.00,0.0337
1071.00,0.0333
1070.00,0.0328
1069.00,0.0320
1068.00,0.0312
1067.00,0.0304
1066.00,0.0296
1065.00,0.0290
1064.00,0.0285
1063.00,0.0280
1062.00,0.0276
1061.00,0.0271
1060.00,0.0266
1059.00,0.0260
1058.00,0.0254
1057.00,0.0247
1056.00,0.0241
1055.00,0.0234
1054.00,0.0228
1053.00,0.0221
1052.00,0.0213
1051.00,0.0206
1050.00,0.0200
1049.00,0.0197
1048.00,0.0194
1047.00,0.0192
1046.00,0.0188
1045.00,0.0184
1044.00,0.0179
1043.00,0.0175
1042.00,0.0172
1041.00,0.0170
1040.00,0.0168
1039.00,0.0167
1038.00,0.0166
1037.00,0.0166
1036.00,0.0165
1035.00,0.0164
1034.00,0.0162
1033.00,0.0160
1032.00,0.0157
1031.00,0.0154
1030.00,0.0150
1029.00,0.0146
1028.00,0.0143
1027.00,0.0141
1026.00,0.0139
1025.00,0.0138
1024.00,0.0137
1023.00,0.0136
1022.00,0.0135
1021.00,0.0135
1020.00,0.0136
1019.00,0.0137
1018.00,0.0138
1017.00,0.0140
1016.00,0.0141
1015.00,0.0144
1014.00,0.0147
1013.00,0.0150
1012.00,0.0153
1011.00,0.0154
1010.00,0.0154
1009.00,0.0154
1008.00,0.0156
1007.00,0.0159
1006.00,0.0163
1005.00,0.0169
1004.00,0.0177
1003.00,0.0190
1002.00,0.0207
1001.00,0.0228
1000.00,0.0249
999.00,0.0265
998.00,0.0271
997.00,0.0264
996.00,0.0247
995.00,0.0224
994.00,0.0201
993.00,0.0181
992.00,0.0165
991.00,0.0153
990.00,0.0145
989.00,0.0139
988.00,0.0136
987.00,0.0136
986.00,0.0139
985.00,0.0145
984.00,0.0153
983.00,0.0165
982.00,0.0180
981.00,0.0199
980.00,0.0223
979.00,0.0253
978.00,0.0290
977.00,0.0333
976.00,0.0379
975.00,0.0422
974.00,0.0457
973.00,0.0477
972.00,0.0481
971.00,0.0470
970.00,0.0451
969.00,0.0430
968.00,0.0411
967.00,0.0395
966.00,0.0382
965.00,0.0370
964.00,0.0360
963.00,0.0351
962.00,0.0344
961.00,0.0342
960.00,0.0345
959.00,0.0351
958.00,0.0358
957.00,0.0362
956.00,0.0363
955.00,0.0363
954.00,0.0363
953.00,0.0361
952.00,0.0357
951.00,0.0351
950.00,0.0343
949.00,0.0335
948.00,0.0330
947.00,0.0326
946.00,0.0326
945.00,0.0327
944.00,0.0329
943.00,0.0330
942.00,0.0329
941.00,0.0326
940.00,0.0319
939.00,0.0309
938.00,0.0296
937.00,0.0279
936.00,0.0262
935.00,0.0245
934.00,0.0229
933.00,0.0215
932.00,0.0202
931.00,0.0190
930.00,0.0178
929.00,0.0168
928.00,0.0159
927.00,0.0150
926.00,0.0144
925.00,0.0138
924.00,0.0132
923.00,0.0128
922.00,0.0124
921.00,0.0121
920.00,0.0120
919.00,0.0119
918.00,0.0117
917.00,0.0116
916.00,0.0113
915.00,0.0112
914.00,0.0110
913.00,0.0110
912.00,0.0110
911.00,0.0111
910.00,0.0112
909.00,0.0113
908.00,0.0114
907.00,0.0118
906.00,0.0124
905.00,0.0135
904.00,0.0152
903.00,0.0173
902.00,0.0196
901.00,0.0217
900.00,0.0231
899.00,0.0235
898.00,0.0226
897.00,0.0208
896.00,0.0185
895.00,0.0163
894.00,0.0145
893.00,0.0132
892.00,0.0122
891.00,0.0114
890.00,0.0109
889.00,0.0104
888.00,0.0101
887.00,0.0100
886.00,0.0099
885.00,0.0099
884.00,0.0099
883.00,0.0100
882.00,0.0101
881.00,0.0102
880.00,0.0102
879.00,0.0103
878.00,0.0103
877.00,0.0102
876.00,0.0100
875.00,0.0099
874.00,0.0098
873.00,0.0098
872.00,0.0098
871.00,0.0097
870.00,0.0098
869.00,0.0098
868.00,0.0099
867.00,0.0099
866.00,0.0099
865.00,0.0098
864.00,0.0098
863.00,0.0098
862.00,0.0099
861.00,0.0100
860.00,0.0102
859.00,0.0104
858.00,0.0106
857.00,0.0107
856.00,0.0108
855.00,0.0109
854.00,0.0109
853.00,0.0111
852.00,0.0113
851.00,0.0116
850.00,0.0120
849.00,0.0125
848.00,0.0131
847.00,0.0139
846.00,0.0153
845.00,0.0173
844.00,0.0199
843.00,0.0227
842.00,0.0247
841.00,0.0253
840.00,0.0241
839.00,0.0219
838.00,0.0197
837.00,0.0181
836.00,0.0171
835.00,0.0166
834.00,0.0164
833.00,0.0163
832.00,0.0163
831.00,0.0163
830.00,0.0164
829.00,0.0165
828.00,0.0165
827.00,0.0165
826.00,0.0165
825.00,0.0166
824.00,0.0168
823.00,0.0169
822.00,0.0170
821.00,0.0172
820.00,0.0175
819.00,0.0179
818.00,0.0185
817.00,0.0192
816.00,0.0201
815.00,0.0213
814.00,0.0228
813.00,0.0247
812.00,0.0267
811.00,0.0285
810.00,0.0299
809.00,0.0306
808.00,0.0305
807.00,0.0295
806.00,0.0278
805.00,0.0257
804.00,0.0237
803.00,0.0219
802.00,0.0206
801.00,0.0194
800.00,0.0184
799.00,0.0174
798.00,0.0165
797.00,0.0158
796.00,0.0151
795.00,0.0146
794.00,0.0140
793.00,0.0136
792.00,0.0133
791.00,0.0130
790.00,0.0126
789.00,0.0122
788.00,0.0118
787.00,0.0114
786.00,0.0113
785.00,0.0111
784.00,0.0110
783.00,0.0108
782.00,0.0105
781.00,0.0102
780.00,0.0099
779.00,0.0097
778.00,0.0096
777.00,0.0095
776.00,0.0094
775.00,0.0094
774.00,0.0094
773.00,0.0096
772.00,0.0098
771.00,0.0101
770.00,0.0105
769.00,0.0107
768.00,0.0108
767.00,0.0107
766.00,0.0105
765.00,0.0104
764.00,0.0103
763.00,0.0101
762.00,0.0099
761.00,0.0097
760.00,0.0095
759.00,0.0095
758.00,0.0093
757.00,0.0091
756.00,0.0089
755.00,0.0089
754.00,0.0089
753.00,0.0090
752.00,0.0091
751.00,0.0090
750.00,0.0089
749.00,0.0088
748.00,0.0089
747.00,0.0091
746.00,0.0093
745.00,0.0095
744.00,0.0097
743.00,0.0099
742.00,0.0101
741.00,0.0103
740.00,0.0104
739.00,0.0105
738.00,0.0107
737.00,0.0110
736.00,0.0114
735.00,0.0117
734.00,0.0120
733.00,0.0122
732.00,0.0122
731.00,0.0123
730.00,0.0124
729.00,0.0125
728.00,0.0126
727.00,0.0127
726.00,0.0129
725.00,0.0130
724.00,0.0130
723.00,0.0129
722.00,0.0129
721.00,0.0128
720.00,0.0125
719.00,0.0121
718.00,0.0116
717.00,0.0112
716.00,0.0109
715.00,0.0107
714.00,0.0105
713.00,0.0104
712.00,0.0104
711.00,0.0105
710.00,0.0106
709.00,0.0109
708.00,0.0112
707.00,0.0114
706.00,0.0117
705.00,0.0117
704.00,0.0116
703.00,0.0113
702.00,0.0110
701.00,0.0107
700.00,0.0104
699.00,0.0101
698.00,0.0099
697.00,0.0098
696.00,0.0097
695.00,0.0097
694.00,0.0098
693.00,0.0099
692.00,0.0099
691.00,0.0099
690.00,0.0099
689.00,0.0099
688.00,0.0098
687.00,0.0099
686.00,0.0100
685.00,0.0101
684.00,0.0102
683.00,0.0102
682.00,0.0103
681.00,0.0102
680.00,0.0100
679.00,0.0097
678.00,0.0096
677.00,0.0097
676.00,0.0099
675.00,0.0101
674.00,0.0102
673.00,0.0104
672.00,0.0106
671.00,0.0108
670.00,0.0110
669.00,0.0109
668.00,0.0104
667.00,0.0100
666.00,0.0099
665.00,0.0100
664.00,0.0101
663.00,0.0103
662.00,0.0103
661.00,0.0101
660.00,0.0100
659.00,0.0100
658.00,0.0100
657.00,0.0102
656.00,0.0103
655.00,0.0103
654.00,0.0101
653.00,0.0100
652.00,0.0099
651.00,0.0099
650.00,0.0099
649.00,0.0099
648.00,0.0100
647.00,0.0102
646.00,0.0104
645.00,0.0105
644.00,0.0106
643.00,0.0105
642.00,0.0105
641.00,0.0104
640.00,0.0103
639.00,0.0103
638.00,0.0104
637.00,0.0105
636.00,0.0105
635.00,0.0104
634.00,0.0104
633.00,0.0105
632.00,0.0106
631.00,0.0106
630.00,0.0106
629.00,0.0105
628.00,0.0104
627.00,0.0104
626.00,0.0105
625.00,0.0108
624.00,0.0110
623.00,0.0112
622.00,0.0114
621.00,0.0115
620.00,0.0115
619.00,0.0114
618.00,0.0113
617.00,0.0113
616.00,0.0113
615.00,0.0114
614.00,0.0114
613.00,0.0114
612.00,0.0114
611.00,0.0113
610.00,0.0113
609.00,0.0112
608.00,0.0110
607.00,0.0108
606.00,0.0106
605.00,0.0105
604.00,0.0104
603.00,0.0103
602.00,0.0102
601.00,0.0102
600.00,0.0103
599.00,0.0106
598.00,0.0109
597.00,0.0109
596.00,0.0108
595.00,0.0105
594.00,0.0102
593.00,0.0102
592.00,0.0103
591.00,0.0105
590.00,0.0107
589.00,0.0107
588.00,0.0104
587.00,0.0101
586.00,0.0099
585.00,0.0099
584.00,0.0102
583.00,0.0107
582.00,0.0114
581.00,0.0118
580.00,0.0118
579.00,0.0115
578.00,0.0112
577.00,0.0111
576.00,0.0109
575.00,0.0107
574.00,0.0104
573.00,0.0101
572.00,0.0099
571.00,0.0100
570.00,0.0103
569.00,0.0108
568.00,0.0111
567.00,0.0112
566.00,0.0110
565.00,0.0108
564.00,0.0107
563.00,0.0106
562.00,0.0106
561.00,0.0106
560.00,0.0104
559.00,0.0104
558.00,0.0106
557.00,0.0109
556.00,0.0111
555.00,0.0112
554.00,0.0113
553.00,0.0113
552.00,0.0114
551.00,0.0113
550.00,0.0111
549.00,0.0109
548.00,0.0106
547.00,0.0105
546.00,0.0103
545.00,0.0104
544.00,0.0108
543.00,0.0114
542.00,0.0119
541.00,0.0120
540.00,0.0117
539.00,0.0113
538.00,0.0114
537.00,0.0119
536.00,0.0125
535.00,0.0130
534.00,0.0132
533.00,0.0134
532.00,0.0137
531.00,0.0139
530.00,0.0141
529.00,0.0141
528.00,0.0142
527.00,0.0141
526.00,0.0138
525.00,0.0134
524.00,0.0131
523.00,0.0130
522.00,0.0131
521.00,0.0130
520.00,0.0127
519.00,0.0120
518.00,0.0114
517.00,0.0112
516.00,0.0113
515.00,0.0117
514.00,0.0122
513.00,0.0124
512.00,0.0122
511.00,0.0119
510.00,0.0115
509.00,0.0111
508.00,0.0106
507.00,0.0103
506.00,0.0105
505.00,0.0110
504.00,0.0117
503.00,0.0121
502.00,0.0123
501.00,0.0124
500.00,0.0126
499.00,0.0128
498.00,0.0130
497.00,0.0131
496.00,0.0131
495.00,0.0133
494.00,0.0136
493.00,0.0138
492.00,0.0138
491.00,0.0137
490.00,0.0134
489.00,0.0128
488.00,0.0123
487.00,0.0120
486.00,0.0121
485.00,0.0125
484.00,0.0128
483.00,0.0128
482.00,0.0125
481.00,0.0124
480.00,0.0127
479.00,0.0131
478.00,0.0133
477.00,0.0129
476.00,0.0120
475.00,0.0115
474.00,0.0120
473.00,0.0133
472.00,0.0146
471.00,0.0152
470.00,0.0152
469.00,0.0150
468.00,0.0149
467.00,0.0153
466.00,0.0164
465.00,0.0180
464.00,0.0190
463.00,0.0190
462.00,0.0185
461.00,0.0186
460.00,0.0194
459.00,0.0206
458.00,0.0213
457.00,0.0218
456.00,0.0218
455.00,0.0210
454.00,0.0194
453.00,0.0176
452.00,0.0163
451.00,0.0162
450.00,0.0164
