Created as New Dataset,Sample 018 By Administrator Date Friday, September 05 2025
cm-1,A
4000.00,0.0015
3999.00,0.0015
3998.00,0.0014
3997.00,0.0014
3996.00,0.0014
3995.00,0.0014
3994.00,0.0014
3993.00,0.0014
3992.00,0.0014
3991.00,0.0014
3990.00,0.0014
3989.00,0.0013
3988.00,0.0013
3987.00,0.0013
3986.00,0.0013
3985.00,0.0013
3984.00,0.0013
3983.00,0.0013
3982.00,0.0013
3981.00,0.0013
3980.00,0.0013
3979.00,0.0013
3978.00,0.0013
3977.00,0.0013
3976.00,0.0013
3975.00,0.0012
3974.00,0.0012
3973.00,0.0012
3972.00,0.0012
3971.00,0.0013
3970.00,0.0013
3969.00,0.0013
3968.00,0.0013
3967.00,0.0012
3966.00,0.0012
3965.00,0.0012
3964.00,0.0012
3963.00,0.0012
3962.00,0.0012
3961.00,0.0012
3960.00,0.0012
3959.00,0.0012
3958.00,0.0012
3957.00,0.0012
3956.00,0.0013
3955.00,0.0013
3954.00,0.0012
3953.00,0.0012
3952.00,0.0012
3951.00,0.0012
3950.00,0.0012
3949.00,0.0012
3948.00,0.0012
3947.00,0.0012
3946.00,0.0012
3945.00,0.0013
3944.00,0.0013
3943.00,0.0014
3942.00,0.0014
3941.00,0.0014
3940.00,0.0013
3939.00,0.0013
3938.00,0.0013
3937.00,0.0012
3936.00,0.0012
3935.00,0.0013
3934.00,0.0013
3933.00,0.0013
3932.00,0.0013
3931.00,0.0014
3930.00,0.0014
3929.00,0.0013
3928.00,0.0013
3927.00,0.0013
3926.00,0.0013
3925.00,0.0013
3924.00,0.0013
3923.00,0.0013
3922.00,0.0014
3921.00,0.0014
3920.00,0.0014
3919.00,0.0013
3918.00,0.0013
3917.00,0.0013
3916.00,0.0013
3915.00,0.0013
3914.00,0.0014
3913.00,0.0014
3912.00,0.0013
3911.00,0.0013
3910.00,0.0013
3909.00,0.0013
3908.00,0.0013
3907.00,0.0013
3906.00,0.0013
3905.00,0.0013
3904.00,0.0013
3903.00,0.0013
3902.00,0.0013
3901.00,0.0014
3900.00,0.0014
3899.00,0.0014
3898.00,0.0014
3897.00,0.0014
3896.00,0.0014
3895.00,0.0014
3894.00,0.0014
3893.00,0.0014
3892.00,0.0014
3891.00,0.0013
3890.00,0.0013
3889.00,0.0014
3888.00,0.0014
3887.00,0.0014
3886.00,0.0014
3885.00,0.0014
3884.00,0.0014
3883.00,0.0013
3882.00,0.0013
3881.00,0.0013
3880.00,0.0013
3879.00,0.0013
3878.00,0.0013
3877.00,0.0012
3876.00,0.0012
3875.00,0.0012
3874.00,0.0012
3873.00,0.0013
3872.00,0.0013
3871.00,0.0013
3870.00,0.0014
3869.00,0.0014
3868.00,0.0015
3867.00,0.0015
3866.00,0.0015
3865.00,0.0015
3864.00,0.0014
3863.00,0.0014
3862.00,0.0013
3861.00,0.0012
3860.00,0.0012
3859.00,0.0012
3858.00,0.0013
3857.00,0.0013
3856.00,0.0014
3855.00,0.0015
3854.00,0.0015
3853.00,0.0015
3852.00,0.0015
3851.00,0.0015
3850.00,0.0014
3849.00,0.0014
3848.00,0.0014
3847.00,0.0013
3846.00,0.0013
3845.00,0.0012
3844.00,0.0012
3843.00,0.0012
3842.00,0.0012
3841.00,0.0012
3840.00,0.0013
3839.00,0.0014
3838.00,0.0014
3837.00,0.0014
3836.00,0.0013
3835.00,0.0013
3834.00,0.0013
3833.00,0.0013
3832.00,0.0013
3831.00,0.0014
3830.00,0.0014
3829.00,0.0014
3828.00,0.0013
3827.00,0.0013
3826.00,0.0013
3825.00,0.0013
3824.00,0.0013
3823.00,0.0013
3822.00,0.0013
3821.00,0.0013
3820.00,0.0014
3819.00,0.0014
3818.00,0.0014
3817.00,0.0014
3816.00,0.0015
3815.00,0.0015
3814.00,0.0015
3813.00,0.0015
3812.00,0.0014
3811.00,0.0014
3810.00,0.0014
3809.00,0.0014
3808.00,0.0014
3807.00,0.0014
3806.00,0.0014
3805.00,0.0014
3804.00,0.0014
3803.00,0.0014
3802.00,0.0014
3801.00,0.0014
3800.00,0.0014
3799.00,0.0014
3798.00,0.0014
3797.00,0.0014
3796.00,0.0013
3795.00,0.0013
3794.00,0.0013
3793.00,0.0013
3792.00,0.0013
3791.00,0.0013
3790.00,0.0014
3789.00,0.0014
3788.00,0.0013
3787.00,0.0013
3786.00,0.0013
3785.00,0.0013
3784.00,0.0012
3783.00,0.0012
3782.00,0.0012
3781.00,0.0011
3780.00,0.0012
3779.00,0.0012
3778.00,0.0012
3777.00,0.0012
3776.00,0.0012
3775.00,0.0012
3774.00,0.0012
3773.00,0.0011
3772.00,0.0011
3771.00,0.0011
3770.00,0.0011
3769.00,0.0011
3768.00,0.0012
3767.00,0.0012
3766.00,0.0012
3765.00,0.0012
3764.00,0.0012
3763.00,0.0012
3762.00,0.0011
3761.00,0.0011
3760.00,0.0011
3759.00,0.0011
3758.00,0.0012
3757.00,0.0012
3756.00,0.0011
3755.00,0.0011
3754.00,0.0010
3753.00,0.0010
3752.00,0.0010
3751.00,0.0011
3750.00,0.0011
3749.00,0.0012
3748.00,0.0012
3747.00,0.0012
3746.00,0.0012
3745.00,0.0012
3744.00,0.0012
3743.00,0.0012
3742.00,0.0011
3741.00,0.0011
3740.00,0.0011
3739.00,0.0011
3738.00,0.0011
3737.00,0.0011
3736.00,0.0011
3735.00,0.0011
3734.00,0.0011
3733.00,0.0011
3732.00,0.0011
3731.00,0.0011
3730.00,0.0011
3729.00,0.0011
3728.00,0.0011
3727.00,0.0011
3726.00,0.0011
3725.00,0.0011
3724.00,0.0012
3723.00,0.0012
3722.00,0.0012
3721.00,0.0012
3720.00,0.0012
3719.00,0.0012
3718.00,0.0012
3717.00,0.0012
3716.00,0.0012
3715.00,0.0011
3714.00,0.0011
3713.00,0.0011
3712.00,0.0011
3711.00,0.0012
3710.00,0.0012
3709.00,0.0012
3708.00,0.0012
3707.00,0.0012
3706.00,0.0012
3705.00,0.0012
3704.00,0.0012
3703.00,0.0013
3702.00,0.0013
3701.00,0.0013
3700.00,0.0014
3699.00,0.0014
3698.00,0.0014
3697.00,0.0014
3696.00,0.0014
3695.00,0.0015
3694.00,0.0016
3693.00,0.0017
3692.00,0.0018
3691.00,0.0019
3690.00,0.0021
3689.00,0.0023
3688.00,0.0025
3687.00,0.0027
3686.00,0.0030
3685.00,0.0032
3684.00,0.0035
3683.00,0.0038
3682.00,0.0042
3681.00,0.0046
3680.00,0.0050
3679.00,0.0053
3678.00,0.0057
3677.00,0.0061
3676.00,0.0067
3675.00,0.0072
3674.00,0.0076
3673.00,0.0078
3672.00,0.0080
3671.00,0.0082
3670.00,0.0084
3669.00,0.0085
3668.00,0.0087
3667.00,0.0088
3666.00,0.0090
3665.00,0.0091
3664.00,0.0093
3663.00,0.0094
3662.00,0.0095
3661.00,0.0096
3660.00,0.0097
3659.00,0.0097
3658.00,0.0097
3657.00,0.0096
3656.00,0.0095
3655.00,0.0094
3654.00,0.0093
3653.00,0.0092
3652.00,0.0091
3651.00,0.0091
3650.00,0.0091
3649.00,0.0091
3648.00,0.0091
3647.00,0.0089
3646.00,0.0086
3645.00,0.0084
3644.00,0.0082
3643.00,0.0080
3642.00,0.0078
3641.00,0.0076
3640.00,0.0075
3639.00,0.0076
3638.00,0.0075
3637.00,0.0073
3636.00,0.0068
3635.00,0.0061
3634.00,0.0053
3633.00,0.0048
3632.00,0.0044
3631.00,0.0042
3630.00,0.0040
3629.00,0.0039
3628.00,0.0037
3627.00,0.0036
3626.00,0.0035
3625.00,0.0034
3624.00,0.0033
3623.00,0.0032
3622.00,0.0032
3621.00,0.0031
3620.00,0.0030
3619.00,0.0030
3618.00,0.0029
3617.00,0.0029
3616.00,0.0030
3615.00,0.0030
3614.00,0.0030
3613.00,0.0030
3612.00,0.0030
3611.00,0.0029
3610.00,0.0029
3609.00,0.0029
3608.00,0.0029
3607.00,0.0029
3606.00,0.0029
3605.00,0.0029
3604.00,0.0029
3603.00,0.0029
3602.00,0.0029
3601.00,0.0029
3600.00,0.0029
3599.00,0.0029
3598.00,0.0029
3597.00,0.0030
3596.00,0.0031
3595.00,0.0031
3594.00,0.0032
3593.00,0.0032
3592.00,0.0032
3591.00,0.0032
3590.00,0.0033
3589.00,0.0034
3588.00,0.0034
3587.00,0.0035
3586.00,0.0035
3585.00,0.0035
3584.00,0.0035
3583.00,0.0035
3582.00,0.0035
3581.00,0.0036
3580.00,0.0037
3579.00,0.0037
3578.00,0.0037
3577.00,0.0038
3576.00,0.0038
3575.00,0.0039
3574.00,0.0039
3573.00,0.0040
3572.00,0.0040
3571.00,0.0041
3570.00,0.0041
3569.00,0.0042
3568.00,0.0042
3567.00,0.0043
3566.00,0.0044
3565.00,0.0044
3564.00,0.0045
3563.00,0.0045
3562.00,0.0046
3561.00,0.0046
3560.00,0.0047
3559.00,0.0047
3558.00,0.0047
3557.00,0.0047
3556.00,0.0047
3555.00,0.0047
3554.00,0.0047
3553.00,0.0048
3552.00,0.0049
3551.00,0.0050
3550.00,0.0051
3549.00,0.0052
3548.00,0.0052
3547.00,0.0053
3546.00,0.0054
3545.00,0.0054
3544.00,0.0055
3543.00,0.0055
3542.00,0.0056
3541.00,0.0056
3540.00,0.0056
3539.00,0.0057
3538.00,0.0058
3537.00,0.0058
3536.00,0.0059
3535.00,0.0059
3534.00,0.0059
3533.00,0.0060
3532.00,0.0060
3531.00,0.0061
3530.00,0.0062
3529.00,0.0062
3528.00,0.0063
3527.00,0.0063
3526.00,0.0064
3525.00,0.0064
3524.00,0.0065
3523.00,0.0065
3522.00,0.0066
3521.00,0.0066
3520.00,0.0067
3519.00,0.0068
3518.00,0.0068
3517.00,0.0069
3516.00,0.0069
3515.00,0.0070
3514.00,0.0070
3513.00,0.0071
3512.00,0.0071
3511.00,0.0072
3510.00,0.0073
3509.00,0.0073
3508.00,0.0074
3507.00,0.0074
3506.00,0.0074
3505.00,0.0075
3504.00,0.0075
3503.00,0.0076
3502.00,0.0077
3501.00,0.0077
3500.00,0.0078
3499.00,0.0079
3498.00,0.0080
3497.00,0.0081
3496.00,0.0082
3495.00,0.0082
3494.00,0.0083
3493.00,0.0083
3492.00,0.0083
3491.00,0.0084
3490.00,0.0085
3489.00,0.0086
3488.00,0.0087
3487.00,0.0088
3486.00,0.0089
3485.00,0.0089
3484.00,0.0089
3483.00,0.0090
3482.00,0.0090
3481.00,0.0091
3480.00,0.0091
3479.00,0.0092
3478.00,0.0092
3477.00,0.0093
3476.00,0.0093
3475.00,0.0094
3474.00,0.0094
3473.00,0.0095
3472.00,0.0096
3471.00,0.0096
3470.00,0.0097
3469.00,0.0097
3468.00,0.0098
3467.00,0.0098
3466.00,0.0098
3465.00,0.0099
3464.00,0.0100
3463.00,0.0101
3462.00,0.0102
3461.00,0.0102
3460.00,0.0102
3459.00,0.0103
3458.00,0.0103
3457.00,0.0103
3456.00,0.0104
3455.00,0.0104
3454.00,0.0104
3453.00,0.0105
3452.00,0.0106
3451.00,0.0106
3450.00,0.0107
3449.00,0.0108
3448.00,0.0108
3447.00,0.0109
3446.00,0.0109
3445.00,0.0110
3444.00,0.0110
3443.00,0.0111
3442.00,0.0111
3441.00,0.0111
3440.00,0.0111
3439.00,0.0112
3438.00,0.0112
3437.00,0.0113
3436.00,0.0114
3435.00,0.0114
3434.00,0.0115
3433.00,0.0115
3432.00,0.0115
3431.00,0.0116
3430.00,0.0116
3429.00,0.0116
3428.00,0.0117
3427.00,0.0118
3426.00,0.0118
3425.00,0.0118
3424.00,0.0119
3423.00,0.0119
3422.00,0.0120
3421.00,0.0120
3420.00,0.0120
3419.00,0.0120
3418.00,0.0121
3417.00,0.0121
3416.00,0.0121
3415.00,0.0121
3414.00,0.0121
3413.00,0.0121
3412.00,0.0122
3411.00,0.0122
3410.00,0.0123
3409.00,0.0123
3408.00,0.0123
3407.00,0.0124
3406.00,0.0124
3405.00,0.0125
3404.00,0.0125
3403.00,0.0126
3402.00,0.0126
3401.00,0.0126
3400.00,0.0127
3399.00,0.0127
3398.00,0.0127
3397.00,0.0127
3396.00,0.0127
3395.00,0.0127
3394.00,0.0127
3393.00,0.0127
3392.00,0.0127
3391.00,0.0127
3390.00,0.0127
3389.00,0.0127
3388.00,0.0127
3387.00,0.0127
3386.00,0.0127
3385.00,0.0127
3384.00,0.0127
3383.00,0.0128
3382.00,0.0128
3381.00,0.0128
3380.00,0.0128
3379.00,0.0128
3378.00,0.0128
3377.00,0.0128
3376.00,0.0128
3375.00,0.0129
3374.00,0.0129
3373.00,0.0129
3372.00,0.0129
3371.00,0.0129
3370.00,0.0129
3369.00,0.0129
3368.00,0.0129
3367.00,0.0129
3366.00,0.0129
3365.00,0.0129
3364.00,0.0129
3363.00,0.0129
3362.00,0.0129
3361.00,0.0129
3360.00,0.0129
3359.00,0.0130
3358.00,0.0130
3357.00,0.0130
3356.00,0.0130
3355.00,0.0130
3354.00,0.0131
3353.00,0.0131
3352.00,0.0131
3351.00,0.0131
3350.00,0.0131
3349.00,0.0130
3348.00,0.0130
3347.00,0.0130
3346.00,0.0130
3345.00,0.0130
3344.00,0.0130
3343.00,0.0130
3342.00,0.0130
3341.00,0.0130
3340.00,0.0130
3339.00,0.0130
3338.00,0.0131
3337.00,0.0131
3336.00,0.0130
3335.00,0.0130
3334.00,0.0130
3333.00,0.0129
3332.00,0.0129
3331.00,0.0129
3330.00,0.0129
3329.00,0.0129
3328.00,0.0128
3327.00,0.0128
3326.00,0.0128
3325.00,0.0128
3324.00,0.0128
3323.00,0.0128
3322.00,0.0128
3321.00,0.0128
3320.00,0.0127
3319.00,0.0127
3318.00,0.0127
3317.00,0.0126
3316.00,0.0126
3315.00,0.0126
3314.00,0.0125
3313.00,0.0125
3312.00,0.0125
3311.00,0.0125
3310.00,0.0125
3309.00,0.0125
3308.00,0.0124
3307.00,0.0124
3306.00,0.0123
3305.00,0.0123
3304.00,0.0123
3303.00,0.0123
3302.00,0.0123
3301.00,0.0123
3300.00,0.0122
3299.00,0.0122
3298.00,0.0121
3297.00,0.0121
3296.00,0.0120
3295.00,0.0120
3294.00,0.0120
3293.00,0.0119
3292.00,0.0119
3291.00,0.0119
3290.00,0.0119
3289.00,0.0119
3288.00,0.0119
3287.00,0.0118
3286.00,0.0118
3285.00,0.0117
3284.00,0.0117
3283.00,0.0117
3282.00,0.0117
3281.00,0.0116
3280.00,0.0116
3279.00,0.0116
3278.00,0.0115
3277.00,0.0115
3276.00,0.0114
3275.00,0.0114
3274.00,0.0113
3273.00,0.0113
3272.00,0.0112
3271.00,0.0112
3270.00,0.0111
3269.00,0.0111
3268.00,0.0111
3267.00,0.0111
3266.00,0.0111
3265.00,0.0111
3264.00,0.0111
3263.00,0.0110
3262.00,0.0110
3261.00,0.0109
3260.00,0.0108
3259.00,0.0108
3258.00,0.0107
3257.00,0.0107
3256.00,0.0107
3255.00,0.0107
3254.00,0.0107
3253.00,0.0107
3252.00,0.0107
3251.00,0.0107
3250.00,0.0107
3249.00,0.0106
3248.00,0.0105
3247.00,0.0105
3246.00,0.0104
3245.00,0.0104
3244.00,0.0104
3243.00,0.0104
3242.00,0.0104
3241.00,0.0104
3240.00,0.0104
3239.00,0.0104
3238.00,0.0104
3237.00,0.0104
3236.00,0.0104
3235.00,0.0104
3234.00,0.0104
3233.00,0.0104
3232.00,0.0104
3231.00,0.0103
3230.00,0.0103
3229.00,0.0103
3228.00,0.0103
3227.00,0.0103
3226.00,0.0103
3225.00,0.0104
3224.00,0.0104
3223.00,0.0104
3222.00,0.0104
3221.00,0.0104
3220.00,0.0105
3219.00,0.0104
3218.00,0.0104
3217.00,0.0104
3216.00,0.0104
3215.00,0.0104
3214.00,0.0105
3213.00,0.0105
3212.00,0.0105
3211.00,0.0105
3210.00,0.0105
3209.00,0.0105
3208.00,0.0105
3207.00,0.0105
3206.00,0.0105
3205.00,0.0105
3204.00,0.0105
3203.00,0.0105
3202.00,0.0105
3201.00,0.0105
3200.00,0.0105
3199.00,0.0105
3198.00,0.0105
3197.00,0.0105
3196.00,0.0104
3195.00,0.0104
3194.00,0.0104
3193.00,0.0104
3192.00,0.0104
3191.00,0.0104
3190.00,0.0104
3189.00,0.0104
3188.00,0.0103
3187.00,0.0103
3186.00,0.0103
3185.00,0.0102
3184.00,0.0102
3183.00,0.0101
3182.00,0.0100
3181.00,0.0100
3180.00,0.0100
3179.00,0.0099
3178.00,0.0099
3177.00,0.0098
3176.00,0.0098
3175.00,0.0097
3174.00,0.0096
3173.00,0.0096
3172.00,0.0095
3171.00,0.0095
3170.00,0.0094
3169.00,0.0094
3168.00,0.0093
3167.00,0.0093
3166.00,0.0092
3165.00,0.0092
3164.00,0.0091
3163.00,0.0091
3162.00,0.0090
3161.00,0.0089
3160.00,0.0088
3159.00,0.0088
3158.00,0.0088
3157.00,0.0087
3156.00,0.0087
3155.00,0.0087
3154.00,0.0086
3153.00,0.0086
3152.00,0.0085
3151.00,0.0085
3150.00,0.0085
3149.00,0.0085
3148.00,0.0085
3147.00,0.0084
3146.00,0.0083
3145.00,0.0083
3144.00,0.0082
3143.00,0.0082
3142.00,0.0082
3141.00,0.0081
3140.00,0.0081
3139.00,0.0080
3138.00,0.0080
3137.00,0.0079
3136.00,0.0079
3135.00,0.0078
3134.00,0.0078
3133.00,0.0078
3132.00,0.0078
3131.00,0.0078
3130.00,0.0078
3129.00,0.0077
3128.00,0.0077
3127.00,0.0076
3126.00,0.0075
3125.00,0.0075
3124.00,0.0075
3123.00,0.0074
3122.00,0.0074
3121.00,0.0073
3120.00,0.0073
3119.00,0.0072
3118.00,0.0072
3117.00,0.0072
3116.00,0.0071
3115.00,0.0071
3114.00,0.0070
3113.00,0.0070
3112.00,0.0070
3111.00,0.0069
3110.00,0.0069
3109.00,0.0069
3108.00,0.0069
3107.00,0.0069
3106.00,0.0069
3105.00,0.0068
3104.00,0.0068
3103.00,0.0068
3102.00,0.0067
3101.00,0.0067
3100.00,0.0066
3099.00,0.0066
3098.00,0.0066
3097.00,0.0066
3096.00,0.0065
3095.00,0.0065
3094.00,0.0065
3093.00,0.0065
3092.00,0.0064
3091.00,0.0064
3090.00,0.0064
3089.00,0.0064
3088.00,0.0064
3087.00,0.0064
3086.00,0.0064
3085.00,0.0063
3084.00,0.0062
3083.00,0.0062
3082.00,0.0062
3081.00,0.0062
3080.00,0.0062
3079.00,0.0063
3078.00,0.0063
3077.00,0.0063
3076.00,0.0063
3075.00,0.0063
3074.00,0.0062
3073.00,0.0062
3072.00,0.0062
3071.00,0.0063
3070.00,0.0063
3069.00,0.0063
3068.00,0.0064
3067.00,0.0064
3066.00,0.0064
3065.00,0.0064
3064.00,0.0064
3063.00,0.0064
3062.00,0.0064
3061.00,0.0064
3060.00,0.0064
3059.00,0.0064
3058.00,0.0064
3057.00,0.0063
3056.00,0.0063
3055.00,0.0063
3054.00,0.0063
3053.00,0.0063
3052.00,0.0063
3051.00,0.0064
3050.00,0.0064
3049.00,0.0065
3048.00,0.0065
3047.00,0.0066
3046.00,0.0066
3045.00,0.0067
3044.00,0.0067
3043.00,0.0068
3042.00,0.0068
3041.00,0.0068
3040.00,0.0068
3039.00,0.0068
3038.00,0.0069
3037.00,0.0069
3036.00,0.0070
3035.00,0.0071
3034.00,0.0072
3033.00,0.0072
3032.00,0.0073
3031.00,0.0074
3030.00,0.0074
3029.00,0.0075
3028.00,0.0077
3027.00,0.0078
3026.00,0.0080
3025.00,0.0082
3024.00,0.0085
3023.00,0.0087
3022.00,0.0090
3021.00,0.0094
3020.00,0.0098
3019.00,0.0103
3018.00,0.0109
3017.00,0.0116
3016.00,0.0125
3015.00,0.0134
3014.00,0.0145
3013.00,0.0157
3012.00,0.0171
3011.00,0.0187
3010.00,0.0204
3009.00,0.0224
3008.00,0.0245
3007.00,0.0268
3006.00,0.0292
3005.00,0.0317
3004.00,0.0343
3003.00,0.0368
3002.00,0.0393
3001.00,0.0418
3000.00,0.0441
2999.00,0.0463
2998.00,0.0483
2997.00,0.0502
2996.00,0.0520
2995.00,0.0536
2994.00,0.0553
2993.00,0.0570
2992.00,0.0586
2991.00,0.0603
2990.00,0.0619
2989.00,0.0638
2988.00,0.0660
2987.00,0.0691
2986.00,0.0738
2985.00,0.0805
2984.00,0.0887
2983.00,0.0970
2982.00,0.1030
2981.00,0.1056
2980.00,0.1053
2979.00,0.1036
2978.00,0.1018
2977.00,0.1011
2976.00,0.1017
2975.00,0.1042
2974.00,0.1083
2973.00,0.1135
2972.00,0.1188
2971.00,0.1233
2970.00,0.1270
2969.00,0.1306
2968.00,0.1349
2967.00,0.1403
2966.00,0.1467
2965.00,0.1535
2964.00,0.1604
2963.00,0.1670
2962.00,0.1731
2961.00,0.1784
2960.00,0.1825
2959.00,0.1858
2958.00,0.1885
2957.00,0.1909
2956.00,0.1934
2955.00,0.1965
2954.00,0.2000
2953.00,0.2038
2952.00,0.2072
2951.00,0.2096
2950.00,0.2100
2949.00,0.2076
2948.00,0.2020
2947.00,0.1933
2946.00,0.1822
2945.00,0.1700
2944.00,0.1579
2943.00,0.1473
2942.00,0.1388
2941.00,0.1328
2940.00,0.1292
2939.00,0.1278
2938.00,0.1283
2937.00,0.1305
2936.00,0.1343
2935.00,0.1397
2934.00,0.1464
2933.00,0.1544
2932.00,0.1632
2931.00,0.1726
2930.00,0.1823
2929.00,0.1921
2928.00,0.2017
2927.00,0.2109
2926.00,0.2196
2925.00,0.2278
2924.00,0.2356
2923.00,0.2431
2922.00,0.2504
2921.00,0.2573
2920.00,0.2634
2919.00,0.2681
2918.00,0.2706
2917.00,0.2703
2916.00,0.2672
2915.00,0.2614
2914.00,0.2537
2913.00,0.2449
2912.00,0.2359
2911.00,0.2273
2910.00,0.2194
2909.00,0.2122
2908.00,0.2055
2907.00,0.1992
2906.00,0.1930
2905.00,0.1868
2904.00,0.1804
2903.00,0.1741
2902.00,0.1677
2901.00,0.1614
2900.00,0.1553
2899.00,0.1496
2898.00,0.1443
2897.00,0.1396
2896.00,0.1355
2895.00,0.1321
2894.00,0.1295
2893.00,0.1276
2892.00,0.1262
2891.00,0.1254
2890.00,0.1248
2889.00,0.1245
2888.00,0.1244
2887.00,0.1246
2886.00,0.1253
2885.00,0.1263
2884.00,0.1276
2883.00,0.1290
2882.00,0.1304
2881.00,0.1318
2880.00,0.1333
2879.00,0.1346
2878.00,0.1355
2877.00,0.1358
2876.00,0.1353
2875.00,0.1344
2874.00,0.1335
2873.00,0.1329
2872.00,0.1328
2871.00,0.1334
2870.00,0.1345
2869.00,0.1357
2868.00,0.1365
2867.00,0.1360
2866.00,0.1338
2865.00,0.1294
2864.00,0.1231
2863.00,0.1154
2862.00,0.1074
2861.00,0.0998
2860.00,0.0933
2859.00,0.0880
2858.00,0.0841
2857.00,0.0812
2856.00,0.0792
2855.00,0.0779
2854.00,0.0772
2853.00,0.0768
2852.00,0.0768
2851.00,0.0770
2850.00,0.0776
2849.00,0.0784
2848.00,0.0798
2847.00,0.0817
2846.00,0.0845
2845.00,0.0881
2844.00,0.0927
2843.00,0.0981
2842.00,0.1041
2841.00,0.1099
2840.00,0.1150
2839.00,0.1185
2838.00,0.1196
2837.00,0.1178
2836.00,0.1128
2835.00,0.1051
2834.00,0.0955
2833.00,0.0853
2832.00,0.0753
2831.00,0.0664
2830.00,0.0587
2829.00,0.0523
2828.00,0.0472
2827.00,0.0430
2826.00,0.0396
2825.00,0.0368
2824.00,0.0344
2823.00,0.0325
2822.00,0.0308
2821.00,0.0293
2820.00,0.0279
2819.00,0.0268
2818.00,0.0258
2817.00,0.0249
2816.00,0.0242
2815.00,0.0235
2814.00,0.0229
2813.00,0.0223
2812.00,0.0217
2811.00,0.0211
2810.00,0.0205
2809.00,0.0199
2808.00,0.0193
2807.00,0.0187
2806.00,0.0180
2805.00,0.0174
2804.00,0.0168
2803.00,0.0162
2802.00,0.0157
2801.00,0.0153
2800.00,0.0149
2799.00,0.0146
2798.00,0.0143
2797.00,0.0140
2796.00,0.0138
2795.00,0.0135
2794.00,0.0132
2793.00,0.0129
2792.00,0.0126
2791.00,0.0122
2790.00,0.0119
2789.00,0.0116
2788.00,0.0113
2787.00,0.0110
2786.00,0.0108
2785.00,0.0105
2784.00,0.0103
2783.00,0.0100
2782.00,0.0098
2781.00,0.0096
2780.00,0.0094
2779.00,0.0091
2778.00,0.0089
2777.00,0.0087
2776.00,0.0086
2775.00,0.0085
2774.00,0.0085
2773.00,0.0084
2772.00,0.0084
2771.00,0.0083
2770.00,0.0083
2769.00,0.0083
2768.00,0.0082
2767.00,0.0081
2766.00,0.0081
2765.00,0.0080
2764.00,0.0079
2763.00,0.0079
2762.00,0.0078
2761.00,0.0077
2760.00,0.0076
2759.00,0.0076
2758.00,0.0075
2757.00,0.0075
2756.00,0.0074
2755.00,0.0074
2754.00,0.0074
2753.00,0.0074
2752.00,0.0073
2751.00,0.0073
2750.00,0.0073
2749.00,0.0073
2748.00,0.0073
2747.00,0.0074
2746.00,0.0074
2745.00,0.0074
2744.00,0.0075
2743.00,0.0076
2742.00,0.0077
2741.00,0.0078
2740.00,0.0079
2739.00,0.0080
2738.00,0.0081
2737.00,0.0083
2736.00,0.0084
2735.00,0.0085
2734.00,0.0086
2733.00,0.0088
2732.00,0.0089
2731.00,0.0091
2730.00,0.0093
2729.00,0.0095
2728.00,0.0097
2727.00,0.0099
2726.00,0.0101
2725.00,0.0103
2724.00,0.0104
2723.00,0.0104
2722.00,0.0103
2721.00,0.0101
2720.00,0.0098
2719.00,0.0095
2718.00,0.0092
2717.00,0.0089
2716.00,0.0085
2715.00,0.0083
2714.00,0.0080
2713.00,0.0078
2712.00,0.0076
2711.00,0.0075
2710.00,0.0073
2709.00,0.0071
2708.00,0.0069
2707.00,0.0068
2706.00,0.0067
2705.00,0.0067
2704.00,0.0066
2703.00,0.0065
2702.00,0.0064
2701.00,0.0063
2700.00,0.0062
2699.00,0.0061
2698.00,0.0061
2697.00,0.0061
2696.00,0.0061
2695.00,0.0061
2694.00,0.0061
2693.00,0.0061
2692.00,0.0061
2691.00,0.0061
2690.00,0.0061
2689.00,0.0062
2688.00,0.0062
2687.00,0.0062
2686.00,0.0062
2685.00,0.0062
2684.00,0.0063
2683.00,0.0063
2682.00,0.0063
2681.00,0.0063
2680.00,0.0063
2679.00,0.0063
2678.00,0.0063
2677.00,0.0064
2676.00,0.0064
2675.00,0.0064
2674.00,0.0064
2673.00,0.0065
2672.00,0.0065
2671.00,0.0065
2670.00,0.0066
2669.00,0.0066
2668.00,0.0067
2667.00,0.0067
2666.00,0.0067
2665.00,0.0068
2664.00,0.0068
2663.00,0.0068
2662.00,0.0068
2661.00,0.0069
2660.00,0.0069
2659.00,0.0068
2658.00,0.0068
2657.00,0.0068
2656.00,0.0067
2655.00,0.0067
2654.00,0.0066
2653.00,0.0066
2652.00,0.0065
2651.00,0.0064
2650.00,0.0064
2649.00,0.0063
2648.00,0.0062
2647.00,0.0062
2646.00,0.0062
2645.00,0.0061
2644.00,0.0061
2643.00,0.0060
2642.00,0.0060
2641.00,0.0059
2640.00,0.0059
2639.00,0.0058
2638.00,0.0058
2637.00,0.0057
2636.00,0.0056
2635.00,0.0055
2634.00,0.0054
2633.00,0.0054
2632.00,0.0055
2631.00,0.0055
2630.00,0.0055
2629.00,0.0054
2628.00,0.0054
2627.00,0.0054
2626.00,0.0054
2625.00,0.0054
2624.00,0.0054
2623.00,0.0054
2622.00,0.0055
2621.00,0.0055
2620.00,0.0055
2619.00,0.0055
2618.00,0.0054
2617.00,0.0053
2616.00,0.0053
2615.00,0.0052
2614.00,0.0051
2613.00,0.0051
2612.00,0.0050
2611.00,0.0050
2610.00,0.0050
2609.00,0.0049
2608.00,0.0049
2607.00,0.0048
2606.00,0.0047
2605.00,0.0046
2604.00,0.0045
2603.00,0.0045
2602.00,0.0044
2601.00,0.0044
2600.00,0.0043
2599.00,0.0043
2598.00,0.0043
2597.00,0.0042
2596.00,0.0042
2595.00,0.0042
2594.00,0.0042
2593.00,0.0043
2592.00,0.0043
2591.00,0.0043
2590.00,0.0044
2589.00,0.0044
2588.00,0.0045
2587.00,0.0045
2586.00,0.0046
2585.00,0.0046
2584.00,0.0047
2583.00,0.0048
2582.00,0.0048
2581.00,0.0048
2580.00,0.0047
2579.00,0.0046
2578.00,0.0045
2577.00,0.0044
2576.00,0.0043
2575.00,0.0041
2574.00,0.0040
2573.00,0.0039
2572.00,0.0038
2571.00,0.0037
2570.00,0.0036
2569.00,0.0035
2568.00,0.0034
2567.00,0.0034
2566.00,0.0033
2565.00,0.0032
2564.00,0.0032
2563.00,0.0031
2562.00,0.0032
2561.00,0.0032
2560.00,0.0032
2559.00,0.0033
2558.00,0.0032
2557.00,0.0032
2556.00,0.0031
2555.00,0.0030
2554.00,0.0030
2553.00,0.0030
2552.00,0.0030
2551.00,0.0029
2550.00,0.0028
2549.00,0.0027
2548.00,0.0027
2547.00,0.0027
2546.00,0.0026
2545.00,0.0026
2544.00,0.0026
2543.00,0.0025
2542.00,0.0025
2541.00,0.0025
2540.00,0.0025
2539.00,0.0025
2538.00,0.0025
2537.00,0.0024
2536.00,0.0024
2535.00,0.0023
2534.00,0.0023
2533.00,0.0023
2532.00,0.0024
2531.00,0.0024
2530.00,0.0024
2529.00,0.0024
2528.00,0.0024
2527.00,0.0023
2526.00,0.0024
2525.00,0.0024
2524.00,0.0024
2523.00,0.0023
2522.00,0.0023
2521.00,0.0023
2520.00,0.0023
2519.00,0.0023
2518.00,0.0024
2517.00,0.0024
2516.00,0.0023
2515.00,0.0022
2514.00,0.0022
2513.00,0.0021
2512.00,0.0020
2511.00,0.0020
2510.00,0.0019
2509.00,0.0020
2508.00,0.0020
2507.00,0.0020
2506.00,0.0021
2505.00,0.0021
2504.00,0.0021
2503.00,0.0020
2502.00,0.0020
2501.00,0.0020
2500.00,0.0020
2499.00,0.0020
2498.00,0.0020
2497.00,0.0020
2496.00,0.0020
2495.00,0.0020
2494.00,0.0020
2493.00,0.0020
2492.00,0.0020
2491.00,0.0019
2490.00,0.0019
2489.00,0.0019
2488.00,0.0019
2487.00,0.0020
2486.00,0.0020
2485.00,0.0020
2484.00,0.0020
2483.00,0.0020
2482.00,0.0019
2481.00,0.0019
2480.00,0.0018
2479.00,0.0018
2478.00,0.0018
2477.00,0.0018
2476.00,0.0017
2475.00,0.0017
2474.00,0.0017
2473.00,0.0017
2472.00,0.0017
2471.00,0.0018
2470.00,0.0018
2469.00,0.0018
2468.00,0.0018
2467.00,0.0018
2466.00,0.0019
2465.00,0.0019
2464.00,0.0019
2463.00,0.0019
2462.00,0.0019
2461.00,0.0020
2460.00,0.0020
2459.00,0.0020
2458.00,0.0019
2457.00,0.0019
2456.00,0.0020
2455.00,0.0020
2454.00,0.0020
2453.00,0.0020
2452.00,0.0020
2451.00,0.0019
2450.00,0.0019
2449.00,0.0019
2448.00,0.0019
2447.00,0.0019
2446.00,0.0019
2445.00,0.0019
2444.00,0.0018
2443.00,0.0018
2442.00,0.0019
2441.00,0.0019
2440.00,0.0019
2439.00,0.0019
2438.00,0.0019
2437.00,0.0019
2436.00,0.0019
2435.00,0.0019
2434.00,0.0019
2433.00,0.0019
2432.00,0.0019
2431.00,0.0019
2430.00,0.0019
2429.00,0.0019
2428.00,0.0019
2427.00,0.0019
2426.00,0.0019
2425.00,0.0019
2424.00,0.0018
2423.00,0.0018
2422.00,0.0018
2421.00,0.0017
2420.00,0.0018
2419.00,0.0018
2418.00,0.0018
2417.00,0.0018
2416.00,0.0017
2415.00,0.0017
2414.00,0.0017
2413.00,0.0017
2412.00,0.0018
2411.00,0.0019
2410.00,0.0019
2409.00,0.0019
2408.00,0.0018
2407.00,0.0018
2406.00,0.0017
2405.00,0.0017
2404.00,0.0017
2403.00,0.0017
2402.00,0.0016
2401.00,0.0016
2400.00,0.0016
2399.00,0.0016
2398.00,0.0016
2397.00,0.0016
2396.00,0.0016
2395.00,0.0015
2394.00,0.0015
2393.00,0.0015
2392.00,0.0015
2391.00,0.0015
2390.00,0.0015
2389.00,0.0015
2388.00,0.0015
2387.00,0.0015
2386.00,0.0014
2385.00,0.0014
2384.00,0.0013
2383.00,0.0013
2382.00,0.0012
2381.00,0.0011
2380.00,0.0010
2379.00,0.0010
2378.00,0.0010
2377.00,0.0011
2376.00,0.0012
2375.00,0.0012
2374.00,0.0011
2373.00,0.0011
2372.00,0.0010
2371.00,0.0011
2370.00,0.0010
2369.00,0.0010
2368.00,0.0010
2367.00,0.0010
2366.00,0.0010
2365.00,0.0010
2364.00,0.0009
2363.00,0.0009
2362.00,0.0010
2361.00,0.0010
2360.00,0.0011
2359.00,0.0011
2358.00,0.0010
2357.00,0.0010
2356.00,0.0011
2355.00,0.0011
2354.00,0.0011
2353.00,0.0010
2352.00,0.0009
2351.00,0.0008
2350.00,0.0008
2349.00,0.0009
2348.00,0.0011
2347.00,0.0012
2346.00,0.0013
2345.00,0.0013
2344.00,0.0013
2343.00,0.0014
2342.00,0.0014
2341.00,0.0015
2340.00,0.0014
2339.00,0.0014
2338.00,0.0014
2337.00,0.0014
2336.00,0.0015
2335.00,0.0015
2334.00,0.0015
2333.00,0.0015
2332.00,0.0015
2331.00,0.0015
2330.00,0.0015
2329.00,0.0016
2328.00,0.0017
2327.00,0.0020
2326.00,0.0024
2325.00,0.0027
2324.00,0.0028
2323.00,0.0026
2322.00,0.0023
2321.00,0.0021
2320.00,0.0020
2319.00,0.0019
2318.00,0.0019
2317.00,0.0018
2316.00,0.0017
2315.00,0.0016
2314.00,0.0015
2313.00,0.0015
2312.00,0.0014
2311.00,0.0014
2310.00,0.0014
2309.00,0.0013
2308.00,0.0014
2307.00,0.0014
2306.00,0.0014
2305.00,0.0015
2304.00,0.0015
2303.00,0.0015
2302.00,0.0015
2301.00,0.0015
2300.00,0.0016
2299.00,0.0016
2298.00,0.0016
2297.00,0.0017
2296.00,0.0017
2295.00,0.0018
2294.00,0.0018
2293.00,0.0019
2292.00,0.0020
2291.00,0.0022
2290.00,0.0023
2289.00,0.0024
2288.00,0.0025
2287.00,0.0025
2286.00,0.0025
2285.00,0.0024
2284.00,0.0023
2283.00,0.0022
2282.00,0.0022
2281.00,0.0021
2280.00,0.0021
2279.00,0.0020
2278.00,0.0020
2277.00,0.0019
2276.00,0.0019
2275.00,0.0018
2274.00,0.0018
2273.00,0.0018
2272.00,0.0017
2271.00,0.0017
2270.00,0.0016
2269.00,0.0017
2268.00,0.0017
2267.00,0.0017
2266.00,0.0016
2265.00,0.0015
2264.00,0.0015
2263.00,0.0015
2262.00,0.0015
2261.00,0.0016
2260.00,0.0017
2259.00,0.0018
2258.00,0.0018
2257.00,0.0018
2256.00,0.0017
2255.00,0.0016
2254.00,0.0014
2253.00,0.0014
2252.00,0.0014
2251.00,0.0015
2250.00,0.0015
2249.00,0.0014
2248.00,0.0013
2247.00,0.0012
2246.00,0.0012
2245.00,0.0013
2244.00,0.0014
2243.00,0.0015
2242.00,0.0014
2241.00,0.0014
2240.00,0.0013
2239.00,0.0013
2238.00,0.0013
2237.00,0.0013
2236.00,0.0013
2235.00,0.0013
2234.00,0.0012
2233.00,0.0012
2232.00,0.0013
2231.00,0.0014
2230.00,0.0014
2229.00,0.0015
2228.00,0.0014
2227.00,0.0014
2226.00,0.0015
2225.00,0.0015
2224.00,0.0016
2223.00,0.0015
2222.00,0.0015
2221.00,0.0014
2220.00,0.0013
2219.00,0.0013
2218.00,0.0013
2217.00,0.0013
2216.00,0.0014
2215.00,0.0014
2214.00,0.0014
2213.00,0.0015
2212.00,0.0015
2211.00,0.0015
2210.00,0.0013
2209.00,0.0013
2208.00,0.0013
2207.00,0.0014
2206.00,0.0015
2205.00,0.0016
2204.00,0.0017
2203.00,0.0017
2202.00,0.0016
2201.00,0.0015
2200.00,0.0015
2199.00,0.0015
2198.00,0.0015
2197.00,0.0014
2196.00,0.0014
2195.00,0.0014
2194.00,0.0016
2193.00,0.0017
2192.00,0.0018
2191.00,0.0018
2190.00,0.0016
2189.00,0.0014
2188.00,0.0013
2187.00,0.0013
2186.00,0.0015
2185.00,0.0016
2184.00,0.0016
2183.00,0.0015
2182.00,0.0013
2181.00,0.0012
2180.00,0.0011
2179.00,0.0010
2178.00,0.0008
2177.00,0.0008
2176.00,0.0009
2175.00,0.0011
2174.00,0.0013
2173.00,0.0015
2172.00,0.0016
2171.00,0.0016
2170.00,0.0017
2169.00,0.0019
2168.00,0.0021
2167.00,0.0022
2166.00,0.0022
2165.00,0.0021
2164.00,0.0020
2163.00,0.0020
2162.00,0.0020
2161.00,0.0019
2160.00,0.0012
2159.00,-0.0000
2158.00,-0.0014
2157.00,-0.0022
2156.00,-0.0025
2155.00,-0.0024
2154.00,-0.0021
2153.00,-0.0017
2152.00,-0.0013
2151.00,-0.0011
2150.00,-0.0010
2149.00,-0.0009
2148.00,-0.0007
2147.00,-0.0006
2146.00,-0.0006
2145.00,-0.0006
2144.00,-0.0005
2143.00,-0.0005
2142.00,-0.0006
2141.00,-0.0007
2140.00,-0.0008
2139.00,-0.0008
2138.00,-0.0007
2137.00,-0.0006
2136.00,-0.0005
2135.00,-0.0005
2134.00,-0.0007
2133.00,-0.0008
2132.00,-0.0008
2131.00,-0.0007
2130.00,-0.0006
2129.00,-0.0004
2128.00,-0.0003
2127.00,-0.0002
2126.00,-0.0001
2125.00,0.0000
2124.00,0.0002
2123.00,0.0004
2122.00,0.0005
2121.00,0.0006
2120.00,0.0007
2119.00,0.0007
2118.00,0.0007
2117.00,0.0008
2116.00,0.0009
2115.00,0.0010
2114.00,0.0011
2113.00,0.0011
2112.00,0.0011
2111.00,0.0010
2110.00,0.0010
2109.00,0.0010
2108.00,0.0011
2107.00,0.0012
2106.00,0.0012
2105.00,0.0012
2104.00,0.0013
2103.00,0.0014
2102.00,0.0014
2101.00,0.0014
2100.00,0.0013
2099.00,0.0012
2098.00,0.0010
2097.00,0.0009
2096.00,0.0008
2095.00,0.0006
2094.00,0.0005
2093.00,0.0005
2092.00,0.0005
2091.00,0.0006
2090.00,0.0007
2089.00,0.0010
2088.00,0.0013
2087.00,0.0013
2086.00,0.0012
2085.00,0.0010
2084.00,0.0008
2083.00,0.0007
2082.00,0.0007
2081.00,0.0007
2080.00,0.0008
2079.00,0.0010
2078.00,0.0011
2077.00,0.0012
2076.00,0.0012
2075.00,0.0011
2074.00,0.0010
2073.00,0.0011
2072.00,0.0012
2071.00,0.0012
2070.00,0.0011
2069.00,0.0009
2068.00,0.0007
2067.00,0.0006
2066.00,0.0007
2065.00,0.0008
2064.00,0.0009
2063.00,0.0009
2062.00,0.0010
2061.00,0.0010
2060.00,0.0010
2059.00,0.0011
2058.00,0.0012
2057.00,0.0013
2056.00,0.0012
2055.00,0.0009
2054.00,0.0008
2053.00,0.0010
2052.00,0.0015
2051.00,0.0019
2050.00,0.0020
2049.00,0.0018
2048.00,0.0015
2047.00,0.0011
2046.00,0.0009
2045.00,0.0007
2044.00,0.0006
2043.00,0.0006
2042.00,0.0006
2041.00,0.0006
2040.00,0.0006
2039.00,0.0005
2038.00,0.0005
2037.00,0.0004
2036.00,0.0005
2035.00,0.0004
2034.00,0.0002
2033.00,-0.0001
2032.00,-0.0002
2031.00,-0.0004
2030.00,-0.0005
2029.00,-0.0006
2028.00,-0.0006
2027.00,-0.0004
2026.00,-0.0003
2025.00,-0.0002
2024.00,-0.0001
2023.00,-0.0001
2022.00,-0.0002
2021.00,-0.0002
2020.00,-0.0001
2019.00,0.0001
2018.00,0.0002
2017.00,0.0002
2016.00,0.0001
2015.00,-0.0002
2014.00,-0.0006
2013.00,-0.0008
2012.00,-0.0009
2011.00,-0.0009
2010.00,-0.0009
2009.00,-0.0009
2008.00,-0.0010
2007.00,-0.0012
2006.00,-0.0013
2005.00,-0.0012
2004.00,-0.0009
2003.00,-0.0005
2002.00,-0.0001
2001.00,0.0002
2000.00,0.0003
1999.00,0.0003
1998.00,0.0002
1997.00,0.0001
1996.00,-0.0000
1995.00,-0.0002
1994.00,-0.0003
1993.00,-0.0003
1992.00,-0.0001
1991.00,0.0001
1990.00,0.0004
1989.00,0.0006
1988.00,0.0009
1987.00,0.0011
1986.00,0.0013
1985.00,0.0014
1984.00,0.0014
1983.00,0.0015
1982.00,0.0015
1981.00,0.0016
1980.00,0.0016
1979.00,0.0011
1978.00,0.0004
1977.00,-0.0004
1976.00,-0.0009
1975.00,-0.0012
1974.00,-0.0013
1973.00,-0.0011
1972.00,-0.0008
1971.00,-0.0006
1970.00,-0.0006
1969.00,-0.0005
1968.00,-0.0005
1967.00,-0.0005
1966.00,-0.0005
1965.00,-0.0005
1964.00,-0.0005
1963.00,-0.0006
1962.00,-0.0007
1961.00,-0.0008
1960.00,-0.0008
1959.00,-0.0008
1958.00,-0.0007
1957.00,-0.0007
1956.00,-0.0008
1955.00,-0.0010
1954.00,-0.0011
1953.00,-0.0011
1952.00,-0.0010
1951.00,-0.0009
1950.00,-0.0009
1949.00,-0.0009
1948.00,-0.0010
1947.00,-0.0010
1946.00,-0.0011
1945.00,-0.0011
1944.00,-0.0011
1943.00,-0.0010
1942.00,-0.0009
1941.00,-0.0008
1940.00,-0.0007
1939.00,-0.0007
1938.00,-0.0008
1937.00,-0.0008
1936.00,-0.0008
1935.00,-0.0007
1934.00,-0.0005
1933.00,-0.0004
1932.00,-0.0003
1931.00,-0.0003
1930.00,-0.0003
1929.00,-0.0002
1928.00,-0.0002
1927.00,-0.0002
1926.00,-0.0002
1925.00,-0.0001
1924.00,-0.0001
1923.00,-0.0001
1922.00,-0.0000
1921.00,0.0001
1920.00,0.0003
1919.00,0.0004
1918.00,0.0004
1917.00,0.0004
1916.00,0.0004
1915.00,0.0003
1914.00,0.0003
1913.00,0.0004
1912.00,0.0006
1911.00,0.0006
1910.00,0.0006
1909.00,0.0005
1908.00,0.0004
1907.00,0.0004
1906.00,0.0004
1905.00,0.0005
1904.00,0.0004
1903.00,0.0004
1902.00,0.0004
1901.00,0.0006
1900.00,0.0007
1899.00,0.0007
1898.00,0.0006
1897.00,0.0005
1896.00,0.0004
1895.00,0.0004
1894.00,0.0004
1893.00,0.0005
1892.00,0.0005
1891.00,0.0006
1890.00,0.0006
1889.00,0.0006
1888.00,0.0006
1887.00,0.0005
1886.00,0.0005
1885.00,0.0004
1884.00,0.0005
1883.00,0.0006
1882.00,0.0007
1881.00,0.0007
1880.00,0.0006
1879.00,0.0005
1878.00,0.0004
1877.00,0.0004
1876.00,0.0003
1875.00,0.0003
1874.00,0.0003
1873.00,0.0003
1872.00,0.0004
1871.00,0.0004
1870.00,0.0005
1869.00,0.0006
1868.00,0.0007
1867.00,0.0007
1866.00,0.0008
1865.00,0.0008
1864.00,0.0009
1863.00,0.0008
1862.00,0.0008
1861.00,0.0008
1860.00,0.0008
1859.00,0.0007
1858.00,0.0007
1857.00,0.0006
1856.00,0.0006
1855.00,0.0007
1854.00,0.0007
1853.00,0.0007
1852.00,0.0008
1851.00,0.0008
1850.00,0.0008
1849.00,0.0008
1848.00,0.0007
1847.00,0.0008
1846.00,0.0008
1845.00,0.0008
1844.00,0.0009
1843.00,0.0009
1842.00,0.0009
1841.00,0.0009
1840.00,0.0010
1839.00,0.0010
1838.00,0.0010
1837.00,0.0010
1836.00,0.0010
1835.00,0.0010
1834.00,0.0010
1833.00,0.0010
1832.00,0.0010
1831.00,0.0010
1830.00,0.0010
1829.00,0.0010
1828.00,0.0010
1827.00,0.0010
1826.00,0.0010
1825.00,0.0010
1824.00,0.0010
1823.00,0.0010
1822.00,0.0009
1821.00,0.0009
1820.00,0.0009
1819.00,0.0008
1818.00,0.0008
1817.00,0.0007
1816.00,0.0007
1815.00,0.0008
1814.00,0.0008
1813.00,0.0009
1812.00,0.0009
1811.00,0.0009
1810.00,0.0009
1809.00,0.0010
1808.00,0.0010
1807.00,0.0010
1806.00,0.0010
1805.00,0.0010
1804.00,0.0011
1803.00,0.0012
1802.00,0.0012
1801.00,0.0012
1800.00,0.0012
1799.00,0.0013
1798.00,0.0013
1797.00,0.0014
1796.00,0.0014
1795.00,0.0015
1794.00,0.0015
1793.00,0.0016
1792.00,0.0017
1791.00,0.0017
1790.00,0.0017
1789.00,0.0017
1788.00,0.0017
1787.00,0.0017
1786.00,0.0018
1785.00,0.0019
1784.00,0.0020
1783.00,0.0020
1782.00,0.0020
1781.00,0.0020
1780.00,0.0021
1779.00,0.0020
1778.00,0.0020
1777.00,0.0020
1776.00,0.0020
1775.00,0.0020
1774.00,0.0020
1773.00,0.0020
1772.00,0.0020
1771.00,0.0022
1770.00,0.0022
1769.00,0.0023
1768.00,0.0024
1767.00,0.0024
1766.00,0.0024
1765.00,0.0025
1764.00,0.0025
1763.00,0.0025
1762.00,0.0025
1761.00,0.0026
1760.00,0.0026
1759.00,0.0027
1758.00,0.0028
1757.00,0.0029
1756.00,0.0030
1755.00,0.0031
1754.00,0.0031
1753.00,0.0032
1752.00,0.0033
1751.00,0.0034
1750.00,0.0035
1749.00,0.0035
1748.00,0.0036
1747.00,0.0036
1746.00,0.0037
1745.00,0.0039
1744.00,0.0040
1743.00,0.0041
1742.00,0.0041
1741.00,0.0041
1740.00,0.0042
1739.00,0.0042
1738.00,0.0043
1737.00,0.0044
1736.00,0.0044
1735.00,0.0044
1734.00,0.0045
1733.00,0.0045
1732.00,0.0046
1731.00,0.0046
1730.00,0.0046
1729.00,0.0045
1728.00,0.0045
1727.00,0.0044
1726.00,0.0043
1725.00,0.0043
1724.00,0.0043
1723.00,0.0043
1722.00,0.0043
1721.00,0.0042
1720.00,0.0042
1719.00,0.0040
1718.00,0.0039
1717.00,0.0038
1716.00,0.0039
1715.00,0.0039
1714.00,0.0040
1713.00,0.0041
1712.00,0.0041
1711.00,0.0041
1710.00,0.0042
1709.00,0.0042
1708.00,0.0042
1707.00,0.0042
1706.00,0.0042
1705.00,0.0043
1704.00,0.0044
1703.00,0.0045
1702.00,0.0046
1701.00,0.0046
1700.00,0.0047
1699.00,0.0047
1698.00,0.0048
1697.00,0.0050
1696.00,0.0052
1695.00,0.0054
1694.00,0.0055
1693.00,0.0056
1692.00,0.0058
1691.00,0.0059
1690.00,0.0060
1689.00,0.0062
1688.00,0.0063
1687.00,0.0064
1686.00,0.0065
1685.00,0.0066
1684.00,0.0069
1683.00,0.0072
1682.00,0.0075
1681.00,0.0078
1680.00,0.0081
1679.00,0.0083
1678.00,0.0084
1677.00,0.0084
1676.00,0.0086
1675.00,0.0089
1674.00,0.0091
1673.00,0.0094
1672.00,0.0096
1671.00,0.0097
1670.00,0.0099
1669.00,0.0100
1668.00,0.0102
1667.00,0.0104
1666.00,0.0105
1665.00,0.0107
1664.00,0.0108
1663.00,0.0110
1662.00,0.0112
1661.00,0.0113
1660.00,0.0115
1659.00,0.0117
1658.00,0.0119
1657.00,0.0120
1656.00,0.0121
1655.00,0.0122
1654.00,0.0123
1653.00,0.0125
1652.00,0.0128
1651.00,0.0130
1650.00,0.0132
1649.00,0.0134
1648.00,0.0136
1647.00,0.0138
1646.00,0.0140
1645.00,0.0141
1644.00,0.0142
1643.00,0.0143
1642.00,0.0143
1641.00,0.0144
1640.00,0.0144
1639.00,0.0144
1638.00,0.0143
1637.00,0.0142
1636.00,0.0142
1635.00,0.0142
1634.00,0.0142
1633.00,0.0142
1632.00,0.0142
1631.00,0.0141
1630.00,0.0141
1629.00,0.0140
1628.00,0.0139
1627.00,0.0137
1626.00,0.0136
1625.00,0.0135
1624.00,0.0133
1623.00,0.0132
1622.00,0.0131
1621.00,0.0131
1620.00,0.0131
1619.00,0.0130
1618.00,0.0128
1617.00,0.0127
1616.00,0.0127
1615.00,0.0127
1614.00,0.0128
1613.00,0.0128
1612.00,0.0129
1611.00,0.0129
1610.00,0.0128
1609.00,0.0128
1608.00,0.0128
1607.00,0.0127
1606.00,0.0127
1605.00,0.0127
1604.00,0.0127
1603.00,0.0126
1602.00,0.0125
1601.00,0.0124
1600.00,0.0124
1599.00,0.0123
1598.00,0.0122
1597.00,0.0122
1596.00,0.0122
1595.00,0.0121
1594.00,0.0121
1593.00,0.0120
1592.00,0.0120
1591.00,0.0120
1590.00,0.0121
1589.00,0.0121
1588.00,0.0122
1587.00,0.0123
1586.00,0.0125
1585.00,0.0126
1584.00,0.0129
1583.00,0.0131
1582.00,0.0134
1581.00,0.0137
1580.00,0.0139
1579.00,0.0141
1578.00,0.0142
1577.00,0.0142
1576.00,0.0141
1575.00,0.0140
1574.00,0.0139
1573.00,0.0137
1572.00,0.0136
1571.00,0.0133
1570.00,0.0130
1569.00,0.0128
1568.00,0.0127
1567.00,0.0127
1566.00,0.0127
1565.00,0.0127
1564.00,0.0127
1563.00,0.0127
1562.00,0.0128
1561.00,0.0128
1560.00,0.0130
1559.00,0.0131
1558.00,0.0133
1557.00,0.0135
1556.00,0.0138
1555.00,0.0140
1554.00,0.0143
1553.00,0.0145
1552.00,0.0148
1551.00,0.0151
1550.00,0.0154
1549.00,0.0156
1548.00,0.0159
1547.00,0.0161
1546.00,0.0164
1545.00,0.0167
1544.00,0.0170
1543.00,0.0172
1542.00,0.0172
1541.00,0.0172
1540.00,0.0171
1539.00,0.0168
1538.00,0.0165
1537.00,0.0162
1536.00,0.0159
1535.00,0.0155
1534.00,0.0149
1533.00,0.0144
1532.00,0.0139
1531.00,0.0136
1530.00,0.0133
1529.00,0.0131
1528.00,0.0128
1527.00,0.0125
1526.00,0.0123
1525.00,0.0120
1524.00,0.0118
1523.00,0.0116
1522.00,0.0114
1521.00,0.0112
1520.00,0.0112
1519.00,0.0112
1518.00,0.0112
1517.00,0.0112
1516.00,0.0112
1515.00,0.0111
1514.00,0.0111
1513.00,0.0111
1512.00,0.0112
1511.00,0.0112
1510.00,0.0112
1509.00,0.0112
1508.00,0.0113
1507.00,0.0114
1506.00,0.0115
1505.00,0.0117
1504.00,0.0121
1503.00,0.0125
1502.00,0.0129
1501.00,0.0134
1500.00,0.0139
1499.00,0.0145
1498.00,0.0153
1497.00,0.0163
1496.00,0.0173
1495.00,0.0183
1494.00,0.0190
1493.00,0.0198
1492.00,0.0205
1491.00,0.0211
1490.00,0.0217
1489.00,0.0224
1488.00,0.0231
1487.00,0.0237
1486.00,0.0242
1485.00,0.0249
1484.00,0.0256
1483.00,0.0264
1482.00,0.0273
1481.00,0.0286
1480.00,0.0299
1479.00,0.0314
1478.00,0.0331
1477.00,0.0355
1476.00,0.0386
1475.00,0.0420
1474.00,0.0462
1473.00,0.0515
1472.00,0.0573
1471.00,0.0626
1470.00,0.0677
1469.00,0.0734
1468.00,0.0797
1467.00,0.0872
1466.00,0.0962
1465.00,0.1063
1464.00,0.1154
1463.00,0.1217
1462.00,0.1256
1461.00,0.1282
1460.00,0.1300
1459.00,0.1312
1458.00,0.1321
1457.00,0.1328
1456.00,0.1327
1455.00,0.1319
1454.00,0.1307
1453.00,0.1290
1452.00,0.1263
1451.00,0.1225
1450.00,0.1171
1449.00,0.1098
1448.00,0.1004
1447.00,0.0906
1446.00,0.0817
1445.00,0.0742
1444.00,0.0678
1443.00,0.0626
1442.00,0.0587
1441.00,0.0560
1440.00,0.0544
1439.00,0.0537
1438.00,0.0538
1437.00,0.0537
1436.00,0.0525
1435.00,0.0498
1434.00,0.0459
1433.00,0.0413
1432.00,0.0366
1431.00,0.0325
1430.00,0.0293
1429.00,0.0270
1428.00,0.0255
1427.00,0.0247
1426.00,0.0243
1425.00,0.0239
1424.00,0.0237
1423.00,0.0236
1422.00,0.0236
1421.00,0.0237
1420.00,0.0237
1419.00,0.0239
1418.00,0.0241
1417.00,0.0242
1416.00,0.0242
1415.00,0.0244
1414.00,0.0247
1413.00,0.0249
1412.00,0.0252
1411.00,0.0257
1410.00,0.0264
1409.00,0.0269
1408.00,0.0275
1407.00,0.0283
1406.00,0.0292
1405.00,0.0303
1404.00,0.0315
1403.00,0.0328
1402.00,0.0343
1401.00,0.0357
1400.00,0.0374
1399.00,0.0391
1398.00,0.0408
1397.00,0.0423
1396.00,0.0438
1395.00,0.0453
1394.00,0.0468
1393.00,0.0477
1392.00,0.0484
1391.00,0.0492
1390.00,0.0505
1389.00,0.0524
1388.00,0.0552
1387.00,0.0593
1386.00,0.0645
1385.00,0.0709
1384.00,0.0793
1383.00,0.0905
1382.00,0.1051
1381.00,0.1234
1380.00,0.1457
1379.00,0.1710
1378.00,0.1954
1377.00,0.2132
1376.00,0.2190
1375.00,0.2094
1374.00,0.1866
1373.00,0.1588
1372.00,0.1328
1371.00,0.1109
1370.00,0.0930
1369.00,0.0791
1368.00,0.0692
1367.00,0.0629
1366.00,0.0591
1365.00,0.0573
1364.00,0.0569
1363.00,0.0577
1362.00,0.0593
1361.00,0.0611
1360.00,0.0623
1359.00,0.0624
1358.00,0.0609
1357.00,0.0579
1356.00,0.0538
1355.00,0.0492
1354.00,0.0447
1353.00,0.0409
1352.00,0.0378
1351.00,0.0352
1350.00,0.0331
1349.00,0.0314
1348.00,0.0300
1347.00,0.0288
1346.00,0.0278
1345.00,0.0271
1344.00,0.0265
1343.00,0.0259
1342.00,0.0254
1341.00,0.0249
1340.00,0.0244
1339.00,0.0239
1338.00,0.0234
1337.00,0.0231
1336.00,0.0230
1335.00,0.0229
1334.00,0.0230
1333.00,0.0232
1332.00,0.0234
1331.00,0.0235
1330.00,0.0233
1329.00,0.0230
1328.00,0.0223
1327.00,0.0216
1326.00,0.0208
1325.00,0.0199
1324.00,0.0192
1323.00,0.0184
1322.00,0.0178
1321.00,0.0173
1320.00,0.0169
1319.00,0.0165
1318.00,0.0162
1317.00,0.0159
1316.00,0.0156
1315.00,0.0154
1314.00,0.0152
1313.00,0.0151
1312.00,0.0152
1311.00,0.0153
1310.00,0.0157
1309.00,0.0163
1308.00,0.0171
1307.00,0.0182
1306.00,0.0193
1305.00,0.0201
1304.00,0.0204
1303.00,0.0203
1302.00,0.0198
1301.00,0.0193
1300.00,0.0191
1299.00,0.0191
1298.00,0.0191
1297.00,0.0191
1296.00,0.0191
1295.00,0.0188
1294.00,0.0185
1293.00,0.0181
1292.00,0.0176
1291.00,0.0172
1290.00,0.0169
1289.00,0.0166
1288.00,0.0163
1287.00,0.0162
1286.00,0.0161
1285.00,0.0161
1284.00,0.0161
1283.00,0.0162
1282.00,0.0164
1281.00,0.0166
1280.00,0.0168
1279.00,0.0171
1278.00,0.0175
1277.00,0.0180
1276.00,0.0185
1275.00,0.0191
1274.00,0.0198
1273.00,0.0206
1272.00,0.0214
1271.00,0.0223
1270.00,0.0231
1269.00,0.0240
1268.00,0.0249
1267.00,0.0258
1266.00,0.0268
1265.00,0.0277
1264.00,0.0285
1263.00,0.0292
1262.00,0.0298
1261.00,0.0304
1260.00,0.0312
1259.00,0.0320
1258.00,0.0330
1257.00,0.0339
1256.00,0.0346
1255.00,0.0350
1254.00,0.0350
1253.00,0.0347
1252.00,0.0341
1251.00,0.0333
1250.00,0.0324
1249.00,0.0314
1248.00,0.0305
1247.00,0.0297
1246.00,0.0291
1245.00,0.0287
1244.00,0.0285
1243.00,0.0283
1242.00,0.0281
1241.00,0.0279
1240.00,0.0275
1239.00,0.0271
1238.00,0.0267
1237.00,0.0263
1236.00,0.0258
1235.00,0.0252
1234.00,0.0247
1233.00,0.0240
1232.00,0.0234
1231.00,0.0228
1230.00,0.0222
1229.00,0.0217
1228.00,0.0212
1227.00,0.0208
1226.00,0.0204
1225.00,0.0202
1224.00,0.0200
1223.00,0.0199
1222.00,0.0199
1221.00,0.0198
1220.00,0.0197
1219.00,0.0195
1218.00,0.0192
1217.00,0.0187
1216.00,0.0182
1215.00,0.0176
1214.00,0.0170
1213.00,0.0165
1212.00,0.0159
1211.00,0.0155
1210.00,0.0152
1209.00,0.0149
1208.00,0.0148
1207.00,0.0147
1206.00,0.0146
1205.00,0.0146
1204.00,0.0146
1203.00,0.0146
1202.00,0.0146
1201.00,0.0146
1200.00,0.0146
1199.00,0.0147
1198.00,0.0149
1197.00,0.0152
1196.00,0.0155
1195.00,0.0158
1194.00,0.0160
1193.00,0.0164
1192.00,0.0168
1191.00,0.0173
1190.00,0.0178
1189.00,0.0184
1188.00,0.0190
1187.00,0.0197
1186.00,0.0205
1185.00,0.0213
1184.00,0.0222
1183.00,0.0230
1182.00,0.0239
1181.00,0.0248
1180.00,0.0259
1179.00,0.0271
1178.00,0.0284
1177.00,0.0299
1176.00,0.0317
1175.00,0.0339
1174.00,0.0365
1173.00,0.0397
1172.00,0.0434
1171.00,0.0474
1170.00,0.0513
1169.00,0.0547
1168.00,0.0571
1167.00,0.0583
1166.00,0.0584
1165.00,0.0578
1164.00,0.0568
1163.00,0.0556
1162.00,0.0545
1161.00,0.0537
1160.00,0.0532
1159.00,0.0529
1158.00,0.0528
1157.00,0.0529
1156.00,0.0530
1155.00,0.0530
1154.00,0.0530
1153.00,0.0530
1152.00,0.0527
1151.00,0.0523
1150.00,0.0514
1149.00,0.0503
1148.00,0.0489
1147.00,0.0474
1146.00,0.0460
1145.00,0.0446
1144.00,0.0432
1143.00,0.0420
1142.00,0.0409
1141.00,0.0400
1140.00,0.0393
1139.00,0.0386
1138.00,0.0379
1137.00,0.0372
1136.00,0.0363
1135.00,0.0355
1134.00,0.0348
1133.00,0.0343
1132.00,0.0340
1131.00,0.0337
1130.00,0.0335
1129.00,0.0333
1128.00,0.0330
1127.00,0.0328
1126.00,0.0325
1125.00,0.0322
1124.00,0.0318
1123.00,0.0315
1122.00,0.0311
1121.00,0.0308
1120.00,0.0304
1119.00,0.0301
1118.00,0.0298
1117.00,0.0295
1116.00,0.0292
1115.00,0.0290
1114.00,0.0287
1113.00,0.0285
1112.00,0.0283
1111.00,0.0283
1110.00,0.0284
1109.00,0.0287
1108.00,0.0292
1107.00,0.0297
1106.00,0.0304
1105.00,0.0311
1104.00,0.0318
1103.00,0.0323
1102.00,0.0327
1101.00,0.0328
1100.00,0.0327
1099.00,0.0326
1098.00,0.0325
1097.00,0.0325
1096.00,0.0327
1095.00,0.0329
1094.00,0.0331
1093.00,0.0334
1092.00,0.0338
1091.00,0.0341
1090.00,0.0343
1089.00,0.0345
1088.00,0.0346
1087.00,0.0347
1086.00,0.0348
1085.00,0.0349
1084.00,0.0349
1083.00,0.0350
1082.00,0.0349
1081.00,0.0348
1080.00,0.0347
1079.00,0.0345
1078.00,0.0343
1077.00,0.0342
1076.00,0.0342
1075.00,0.0344
1074.00,0.0345
1073.00,0.0346
1072.00,0.0345
1071.00,0.0342
1070.00,0.0336
1069.00,0.0329
1068.00,0.0320
1067.00,0.0311
1066.00,0.0302
1065.00,0.0295
1064.00,0.0290
1063.00,0.0285
1062.00,0.0282
1061.00,0.0278
1060.00,0.0274
1059.00,0.0268
1058.00,0.0261
1057.00,0.0253
1056.00,0.0246
1055.00,0.0240
1054.00,0.0234
1053.00,0.0228
1052.00,0.0222
1051.00,0.0216
1050.00,0.0210
1049.00,0.0207
1048.00,0.0206
1047.00,0.0204
1046.00,0.0202
1045.00,0.0198
1044.00,0.0193
1043.00,0.0188
1042.00,0.0184
1041.00,0.0180
1040.00,0.0176
1039.00,0.0173
1038.00,0.0171
1037.00,0.0170
1036.00,0.0170
1035.00,0.0168
1034.00,0.0166
1033.00,0.0162
1032.00,0.0159
1031.00,0.0157
1030.00,0.0154
1029.00,0.0151
1028.00,0.0149
1027.00,0.0148
1026.00,0.0147
1025.00,0.0146
1024.00,0.0144
1023.00,0.0143
1022.00,0.0142
1021.00,0.0142
1020.00,0.0142
1019.00,0.0144
1018.00,0.0146
1017.00,0.0147
1016.00,0.0149
1015.00,0.0152
1014.00,0.0155
1013.00,0.0158
1012.00,0.0161
1011.00,0.0165
1010.00,0.0167
1009.00,0.0169
1008.00,0.0173
1007.00,0.0177
1006.00,0.0185
1005.00,0.0195
1004.00,0.0210
1003.00,0.0231
1002.00,0.0259
1001.00,0.0292
1000.00,0.0328
999.00,0.0358
998.00,0.0373
997.00,0.0367
996.00,0.0342
995.00,0.0306
994.00,0.0268
993.00,0.0234
992.00,0.0208
991.00,0.0188
990.00,0.0174
989.00,0.0166
988.00,0.0160
987.00,0.0159
986.00,0.0160
985.00,0.0164
984.00,0.0173
983.00,0.0185
982.00,0.0203
981.00,0.0225
980.00,0.0253
979.00,0.0289
978.00,0.0334
977.00,0.0388
976.00,0.0448
975.00,0.0508
974.00,0.0559
973.00,0.0590
972.00,0.0596
971.00,0.0578
970.00,0.0545
969.00,0.0506
968.00,0.0470
967.00,0.0441
966.00,0.0419
965.00,0.0401
964.00,0.0386
963.00,0.0373
962.00,0.0364
961.00,0.0361
960.00,0.0363
959.00,0.0369
958.00,0.0375
957.00,0.0379
956.00,0.0380
955.00,0.0380
954.00,0.0378
953.00,0.0375
952.00,0.0370
951.00,0.0363
950.00,0.0355
949.00,0.0347
948.00,0.0341
947.00,0.0337
946.00,0.0336
945.00,0.0337
944.00,0.0338
943.00,0.0338
942.00,0.0337
941.00,0.0334
940.00,0.0327
939.00,0.0316
938.00,0.0302
937.00,0.0285
936.00,0.0267
935.00,0.0251
934.00,0.0236
933.00,0.0222
932.00,0.0209
931.00,0.0195
930.00,0.0183
929.00,0.0171
928.00,0.0161
927.00,0.0153
926.00,0.0146
925.00,0.0140
924.00,0.0135
923.00,0.0131
922.00,0.0127
921.00,0.0125
920.00,0.0123
919.00,0.0121
918.00,0.0119
917.00,0.0117
916.00,0.0115
915.00,0.0112
914.00,0.0111
913.00,0.0110
912.00,0.0111
911.00,0.0112
910.00,0.0114
909.00,0.0115
908.00,0.0117
907.00,0.0120
906.00,0.0126
905.00,0.0135
904.00,0.0149
903.00,0.0168
902.00,0.0189
901.00,0.0208
900.00,0.0222
899.00,0.0225
898.00,0.0217
897.00,0.0201
896.00,0.0180
895.00,0.0160
894.00,0.0143
893.00,0.0130
892.00,0.0121
891.00,0.0115
890.00,0.0111
889.00,0.0108
888.00,0.0105
887.00,0.0103
886.00,0.0102
885.00,0.0103
884.00,0.0104
883.00,0.0105
882.00,0.0106
881.00,0.0107
880.00,0.0107
879.00,0.0107
878.00,0.0108
877.00,0.0108
876.00,0.0108
875.00,0.0106
874.00,0.0105
873.00,0.0105
872.00,0.0104
871.00,0.0103
870.00,0.0103
869.00,0.0103
868.00,0.0104
867.00,0.0104
866.00,0.0104
865.00,0.0104
864.00,0.0104
863.00,0.0104
862.00,0.0104
861.00,0.0105
860.00,0.0107
859.00,0.0110
858.00,0.0113
857.00,0.0115
856.00,0.0115
855.00,0.0116
854.00,0.0117
853.00,0.0120
852.00,0.0123
851.00,0.0128
850.00,0.0133
849.00,0.0140
848.00,0.0151
847.00,0.0167
846.00,0.0191
845.00,0.0225
844.00,0.0269
843.00,0.0318
842.00,0.0356
841.00,0.0369
840.00,0.0350
839.00,0.0310
838.00,0.0267
837.00,0.0232
836.00,0.0211
835.00,0.0198
834.00,0.0191
833.00,0.0187
832.00,0.0184
831.00,0.0182
830.00,0.0181
829.00,0.0180
828.00,0.0180
827.00,0.0178
826.00,0.0176
825.00,0.0175
824.00,0.0176
823.00,0.0177
822.00,0.0177
821.00,0.0177
820.00,0.0178
819.00,0.0182
818.00,0.0189
817.00,0.0197
816.00,0.0206
815.00,0.0216
814.00,0.0228
813.00,0.0243
812.00,0.0260
811.00,0.0276
810.00,0.0289
809.00,0.0295
808.00,0.0292
807.00,0.0282
806.00,0.0266
805.00,0.0248
804.00,0.0230
803.00,0.0216
802.00,0.0206
801.00,0.0196
800.00,0.0186
799.00,0.0176
798.00,0.0168
797.00,0.0160
796.00,0.0154
795.00,0.0148
794.00,0.0143
793.00,0.0138
792.00,0.0135
791.00,0.0132
790.00,0.0129
789.00,0.0126
788.00,0.0122
787.00,0.0118
786.00,0.0116
785.00,0.0114
784.00,0.0112
783.00,0.0110
782.00,0.0106
781.00,0.0103
780.00,0.0099
779.00,0.0097
778.00,0.0096
777.00,0.0097
776.00,0.0098
775.00,0.0099
774.00,0.0100
773.00,0.0103
772.00,0.0106
771.00,0.0109
770.00,0.0112
769.00,0.0114
768.00,0.0114
767.00,0.0113
766.00,0.0112
765.00,0.0111
764.00,0.0111
763.00,0.0109
762.00,0.0107
761.00,0.0105
760.00,0.0103
759.00,0.0102
758.00,0.0099
757.00,0.0097
756.00,0.0095
755.00,0.0094
754.00,0.0093
753.00,0.0093
752.00,0.0092
751.00,0.0092
750.00,0.0092
749.00,0.0092
748.00,0.0093
747.00,0.0094
746.00,0.0097
745.00,0.0100
744.00,0.0103
743.00,0.0105
742.00,0.0107
741.00,0.0108
740.00,0.0109
739.00,0.0110
738.00,0.0111
737.00,0.0113
736.00,0.0117
735.00,0.0122
734.00,0.0127
733.00,0.0130
732.00,0.0130
731.00,0.0131
730.00,0.0132
729.00,0.0134
728.00,0.0135
727.00,0.0136
726.00,0.0136
725.00,0.0135
724.00,0.0133
723.00,0.0131
722.00,0.0130
721.00,0.0129
720.00,0.0127
719.00,0.0123
718.00,0.0119
717.00,0.0115
716.00,0.0112
715.00,0.0112
714.00,0.0111
713.00,0.0112
712.00,0.0112
711.00,0.0112
710.00,0.0113
709.00,0.0115
708.00,0.0118
707.00,0.0123
706.00,0.0126
705.00,0.0128
704.00,0.0127
703.00,0.0125
702.00,0.0121
701.00,0.0116
700.00,0.0110
699.00,0.0104
698.00,0.0100
697.00,0.0098
696.00,0.0097
695.00,0.0097
694.00,0.0097
693.00,0.0098
692.00,0.0099
691.00,0.0100
690.00,0.0100
689.00,0.0100
688.00,0.0100
687.00,0.0101
686.00,0.0103
685.00,0.0103
684.00,0.0104
683.00,0.0105
682.00,0.0106
681.00,0.0106
680.00,0.0105
679.00,0.0104
678.00,0.0103
677.00,0.0102
676.00,0.0102
675.00,0.0103
674.00,0.0103
673.00,0.0104
672.00,0.0105
671.00,0.0108
670.00,0.0111
669.00,0.0111
668.00,0.0107
667.00,0.0104
666.00,0.0103
665.00,0.0103
664.00,0.0105
663.00,0.0106
662.00,0.0107
661.00,0.0106
660.00,0.0105
659.00,0.0105
658.00,0.0106
657.00,0.0106
656.00,0.0106
655.00,0.0104
654.00,0.0101
653.00,0.0098
652.00,0.0097
651.00,0.0099
650.00,0.0101
649.00,0.0103
648.00,0.0104
647.00,0.0106
646.00,0.0107
645.00,0.0108
644.00,0.0109
643.00,0.0109
642.00,0.0108
641.00,0.0106
640.00,0.0104
639.00,0.0104
638.00,0.0106
637.00,0.0107
636.00,0.0107
635.00,0.0106
634.00,0.0107
633.00,0.0110
632.00,0.0112
631.00,0.0113
630.00,0.0113
629.00,0.0111
628.00,0.0111
627.00,0.0112
626.00,0.0113
625.00,0.0113
624.00,0.0114
623.00,0.0114
622.00,0.0116
621.00,0.0118
620.00,0.0118
619.00,0.0118
618.00,0.0118
617.00,0.0119
616.00,0.0119
615.00,0.0119
614.00,0.0118
613.00,0.0116
612.00,0.0113
611.00,0.0111
610.00,0.0110
609.00,0.0110
608.00,0.0109
607.00,0.0110
606.00,0.0111
605.00,0.0112
604.00,0.0113
603.00,0.0113
602.00,0.0113
601.00,0.0111
600.00,0.0107
599.00,0.0104
598.00,0.0105
597.00,0.0108
596.00,0.0111
595.00,0.0112
594.00,0.0114
593.00,0.0115
592.00,0.0116
591.00,0.0117
590.00,0.0116
589.00,0.0113
588.00,0.0110
587.00,0.0108
586.00,0.0108
585.00,0.0110
584.00,0.0113
583.00,0.0116
582.00,0.0119
581.00,0.0120
580.00,0.0118
579.00,0.0115
578.00,0.0113
577.00,0.0113
576.00,0.0113
575.00,0.0112
574.00,0.0111
573.00,0.0109
572.00,0.0108
571.00,0.0108
570.00,0.0109
569.00,0.0110
568.00,0.0112
567.00,0.0112
566.00,0.0114
565.00,0.0115
564.00,0.0115
563.00,0.0116
562.00,0.0116
561.00,0.0117
560.00,0.0117
559.00,0.0116
558.00,0.0117
557.00,0.0121
556.00,0.0126
555.00,0.0128
554.00,0.0127
553.00,0.0124
552.00,0.0122
551.00,0.0119
550.00,0.0117
549.00,0.0115
548.00,0.0113
547.00,0.0110
546.00,0.0108
545.00,0.0107
544.00,0.0110
543.00,0.0115
542.00,0.0120
541.00,0.0123
540.00,0.0122
539.00,0.0120
538.00,0.0118
537.00,0.0120
536.00,0.0126
535.00,0.0132
534.00,0.0134
533.00,0.0133
532.00,0.0129
531.00,0.0127
530.00,0.0126
529.00,0.0129
528.00,0.0132
527.00,0.0135
526.00,0.0134
525.00,0.0131
524.00,0.0129
523.00,0.0131
522.00,0.0135
521.00,0.0137
520.00,0.0134
519.00,0.0128
518.00,0.0124
517.00,0.0124
516.00,0.0127
515.00,0.0131
514.00,0.0133
513.00,0.0134
512.00,0.0132
511.00,0.0128
510.00,0.0121
509.00,0.0115
508.00,0.0110
507.00,0.0109
506.00,0.0112
505.00,0.0117
504.00,0.0122
503.00,0.0126
502.00,0.0129
501.00,0.0131
500.00,0.0134
499.00,0.0137
498.00,0.0139
497.00,0.0140
496.00,0.0138
495.00,0.0133
494.00,0.0126
493.00,0.0122
492.00,0.0122
491.00,0.0126
490.00,0.0130
489.00,0.0133
488.00,0.0136
487.00,0.0139
486.00,0.0145
485.00,0.0152
484.00,0.0158
483.00,0.0159
482.00,0.0154
481.00,0.0147
480.00,0.0143
479.00,0.0142
478.00,0.0143
477.00,0.0143
476.00,0.0142
475.00,0.0141
474.00,0.0140
473.00,0.0139
472.00,0.0142
471.00,0.0148
470.00,0.0154
469.00,0.0154
468.00,0.0148
467.00,0.0140
466.00,0.0138
465.00,0.0144
464.00,0.0156
463.00,0.0169
462.00,0.0183
461.00,0.0195
460.00,0.0203
459.00,0.0206
458.00,0.0203
457.00,0.0199
456.00,0.0196
455.00,0.0189
454.00,0.0179
453.00,0.0168
452.00,0.0162
451.00,0.0158
450.00,0.0150
