Created as New Dataset,Sample 012 By Administrator Date Friday, September 05 2025
cm-1,A
4000.00,0.0016
3999.00,0.0015
3998.00,0.0015
3997.00,0.0015
3996.00,0.0015
3995.00,0.0015
3994.00,0.0015
3993.00,0.0015
3992.00,0.0015
3991.00,0.0015
3990.00,0.0015
3989.00,0.0015
3988.00,0.0015
3987.00,0.0015
3986.00,0.0015
3985.00,0.0014
3984.00,0.0014
3983.00,0.0014
3982.00,0.0014
3981.00,0.0013
3980.00,0.0013
3979.00,0.0013
3978.00,0.0014
3977.00,0.0014
3976.00,0.0014
3975.00,0.0014
3974.00,0.0014
3973.00,0.0014
3972.00,0.0014
3971.00,0.0014
3970.00,0.0014
3969.00,0.0014
3968.00,0.0014
3967.00,0.0013
3966.00,0.0013
3965.00,0.0013
3964.00,0.0013
3963.00,0.0013
3962.00,0.0014
3961.00,0.0014
3960.00,0.0014
3959.00,0.0013
3958.00,0.0013
3957.00,0.0013
3956.00,0.0013
3955.00,0.0013
3954.00,0.0013
3953.00,0.0013
3952.00,0.0013
3951.00,0.0013
3950.00,0.0013
3949.00,0.0013
3948.00,0.0012
3947.00,0.0012
3946.00,0.0013
3945.00,0.0013
3944.00,0.0014
3943.00,0.0014
3942.00,0.0015
3941.00,0.0015
3940.00,0.0014
3939.00,0.0014
3938.00,0.0014
3937.00,0.0014
3936.00,0.0014
3935.00,0.0015
3934.00,0.0015
3933.00,0.0015
3932.00,0.0014
3931.00,0.0014
3930.00,0.0014
3929.00,0.0014
3928.00,0.0014
3927.00,0.0014
3926.00,0.0014
3925.00,0.0014
3924.00,0.0014
3923.00,0.0015
3922.00,0.0015
3921.00,0.0015
3920.00,0.0015
3919.00,0.0015
3918.00,0.0015
3917.00,0.0014
3916.00,0.0014
3915.00,0.0014
3914.00,0.0014
3913.00,0.0015
3912.00,0.0015
3911.00,0.0015
3910.00,0.0015
3909.00,0.0015
3908.00,0.0015
3907.00,0.0015
3906.00,0.0015
3905.00,0.0015
3904.00,0.0015
3903.00,0.0015
3902.00,0.0015
3901.00,0.0016
3900.00,0.0016
3899.00,0.0016
3898.00,0.0016
3897.00,0.0016
3896.00,0.0016
3895.00,0.0016
3894.00,0.0016
3893.00,0.0016
3892.00,0.0015
3891.00,0.0015
3890.00,0.0015
3889.00,0.0015
3888.00,0.0015
3887.00,0.0016
3886.00,0.0016
3885.00,0.0016
3884.00,0.0016
3883.00,0.0015
3882.00,0.0015
3881.00,0.0015
3880.00,0.0015
3879.00,0.0015
3878.00,0.0015
3877.00,0.0015
3876.00,0.0015
3875.00,0.0014
3874.00,0.0014
3873.00,0.0014
3872.00,0.0014
3871.00,0.0015
3870.00,0.0015
3869.00,0.0016
3868.00,0.0016
3867.00,0.0017
3866.00,0.0017
3865.00,0.0016
3864.00,0.0016
3863.00,0.0015
3862.00,0.0015
3861.00,0.0015
3860.00,0.0015
3859.00,0.0014
3858.00,0.0014
3857.00,0.0015
3856.00,0.0015
3855.00,0.0016
3854.00,0.0017
3853.00,0.0017
3852.00,0.0017
3851.00,0.0016
3850.00,0.0016
3849.00,0.0015
3848.00,0.0015
3847.00,0.0014
3846.00,0.0014
3845.00,0.0014
3844.00,0.0014
3843.00,0.0014
3842.00,0.0014
3841.00,0.0014
3840.00,0.0015
3839.00,0.0015
3838.00,0.0015
3837.00,0.0015
3836.00,0.0015
3835.00,0.0015
3834.00,0.0015
3833.00,0.0016
3832.00,0.0016
3831.00,0.0017
3830.00,0.0017
3829.00,0.0017
3828.00,0.0017
3827.00,0.0016
3826.00,0.0016
3825.00,0.0016
3824.00,0.0015
3823.00,0.0015
3822.00,0.0015
3821.00,0.0015
3820.00,0.0015
3819.00,0.0015
3818.00,0.0016
3817.00,0.0016
3816.00,0.0017
3815.00,0.0017
3814.00,0.0017
3813.00,0.0017
3812.00,0.0017
3811.00,0.0017
3810.00,0.0016
3809.00,0.0016
3808.00,0.0016
3807.00,0.0016
3806.00,0.0016
3805.00,0.0016
3804.00,0.0015
3803.00,0.0015
3802.00,0.0015
3801.00,0.0015
3800.00,0.0015
3799.00,0.0015
3798.00,0.0015
3797.00,0.0015
3796.00,0.0015
3795.00,0.0015
3794.00,0.0015
3793.00,0.0015
3792.00,0.0015
3791.00,0.0015
3790.00,0.0015
3789.00,0.0015
3788.00,0.0015
3787.00,0.0015
3786.00,0.0014
3785.00,0.0014
3784.00,0.0013
3783.00,0.0013
3782.00,0.0013
3781.00,0.0013
3780.00,0.0013
3779.00,0.0014
3778.00,0.0014
3777.00,0.0014
3776.00,0.0014
3775.00,0.0014
3774.00,0.0014
3773.00,0.0014
3772.00,0.0013
3771.00,0.0013
3770.00,0.0013
3769.00,0.0014
3768.00,0.0014
3767.00,0.0014
3766.00,0.0014
3765.00,0.0014
3764.00,0.0014
3763.00,0.0014
3762.00,0.0013
3761.00,0.0013
3760.00,0.0013
3759.00,0.0013
3758.00,0.0013
3757.00,0.0013
3756.00,0.0013
3755.00,0.0013
3754.00,0.0012
3753.00,0.0012
3752.00,0.0013
3751.00,0.0013
3750.00,0.0014
3749.00,0.0014
3748.00,0.0014
3747.00,0.0014
3746.00,0.0014
3745.00,0.0014
3744.00,0.0013
3743.00,0.0013
3742.00,0.0013
3741.00,0.0013
3740.00,0.0013
3739.00,0.0013
3738.00,0.0013
3737.00,0.0013
3736.00,0.0013
3735.00,0.0012
3734.00,0.0012
3733.00,0.0013
3732.00,0.0013
3731.00,0.0014
3730.00,0.0014
3729.00,0.0014
3728.00,0.0014
3727.00,0.0014
3726.00,0.0014
3725.00,0.0015
3724.00,0.0015
3723.00,0.0015
3722.00,0.0014
3721.00,0.0014
3720.00,0.0013
3719.00,0.0013
3718.00,0.0013
3717.00,0.0013
3716.00,0.0014
3715.00,0.0014
3714.00,0.0015
3713.00,0.0015
3712.00,0.0014
3711.00,0.0014
3710.00,0.0014
3709.00,0.0014
3708.00,0.0014
3707.00,0.0014
3706.00,0.0014
3705.00,0.0014
3704.00,0.0014
3703.00,0.0015
3702.00,0.0015
3701.00,0.0015
3700.00,0.0015
3699.00,0.0016
3698.00,0.0016
3697.00,0.0017
3696.00,0.0017
3695.00,0.0018
3694.00,0.0019
3693.00,0.0020
3692.00,0.0021
3691.00,0.0023
3690.00,0.0025
3689.00,0.0027
3688.00,0.0029
3687.00,0.0032
3686.00,0.0035
3685.00,0.0038
3684.00,0.0042
3683.00,0.0045
3682.00,0.0049
3681.00,0.0054
3680.00,0.0058
3679.00,0.0062
3678.00,0.0067
3677.00,0.0072
3676.00,0.0078
3675.00,0.0084
3674.00,0.0088
3673.00,0.0090
3672.00,0.0093
3671.00,0.0095
3670.00,0.0097
3669.00,0.0099
3668.00,0.0101
3667.00,0.0103
3666.00,0.0104
3665.00,0.0106
3664.00,0.0108
3663.00,0.0109
3662.00,0.0111
3661.00,0.0112
3660.00,0.0112
3659.00,0.0112
3658.00,0.0113
3657.00,0.0112
3656.00,0.0111
3655.00,0.0110
3654.00,0.0109
3653.00,0.0107
3652.00,0.0107
3651.00,0.0106
3650.00,0.0106
3649.00,0.0105
3648.00,0.0104
3647.00,0.0102
3646.00,0.0100
3645.00,0.0097
3644.00,0.0095
3643.00,0.0092
3642.00,0.0089
3641.00,0.0086
3640.00,0.0086
3639.00,0.0086
3638.00,0.0087
3637.00,0.0084
3636.00,0.0079
3635.00,0.0070
3634.00,0.0062
3633.00,0.0055
3632.00,0.0051
3631.00,0.0047
3630.00,0.0045
3629.00,0.0043
3628.00,0.0041
3627.00,0.0040
3626.00,0.0040
3625.00,0.0039
3624.00,0.0039
3623.00,0.0038
3622.00,0.0037
3621.00,0.0036
3620.00,0.0034
3619.00,0.0034
3618.00,0.0033
3617.00,0.0033
3616.00,0.0033
3615.00,0.0033
3614.00,0.0033
3613.00,0.0033
3612.00,0.0032
3611.00,0.0032
3610.00,0.0033
3609.00,0.0033
3608.00,0.0033
3607.00,0.0033
3606.00,0.0033
3605.00,0.0032
3604.00,0.0032
3603.00,0.0032
3602.00,0.0033
3601.00,0.0032
3600.00,0.0032
3599.00,0.0032
3598.00,0.0032
3597.00,0.0033
3596.00,0.0034
3595.00,0.0034
3594.00,0.0035
3593.00,0.0035
3592.00,0.0035
3591.00,0.0035
3590.00,0.0036
3589.00,0.0036
3588.00,0.0037
3587.00,0.0038
3586.00,0.0038
3585.00,0.0038
3584.00,0.0038
3583.00,0.0038
3582.00,0.0039
3581.00,0.0039
3580.00,0.0040
3579.00,0.0040
3578.00,0.0040
3577.00,0.0041
3576.00,0.0041
3575.00,0.0041
3574.00,0.0042
3573.00,0.0043
3572.00,0.0044
3571.00,0.0044
3570.00,0.0045
3569.00,0.0045
3568.00,0.0045
3567.00,0.0046
3566.00,0.0046
3565.00,0.0046
3564.00,0.0047
3563.00,0.0048
3562.00,0.0049
3561.00,0.0049
3560.00,0.0050
3559.00,0.0050
3558.00,0.0050
3557.00,0.0050
3556.00,0.0051
3555.00,0.0051
3554.00,0.0051
3553.00,0.0052
3552.00,0.0052
3551.00,0.0053
3550.00,0.0054
3549.00,0.0055
3548.00,0.0056
3547.00,0.0057
3546.00,0.0058
3545.00,0.0058
3544.00,0.0059
3543.00,0.0059
3542.00,0.0060
3541.00,0.0061
3540.00,0.0061
3539.00,0.0061
3538.00,0.0062
3537.00,0.0062
3536.00,0.0062
3535.00,0.0063
3534.00,0.0064
3533.00,0.0064
3532.00,0.0065
3531.00,0.0065
3530.00,0.0066
3529.00,0.0067
3528.00,0.0067
3527.00,0.0068
3526.00,0.0068
3525.00,0.0069
3524.00,0.0069
3523.00,0.0070
3522.00,0.0071
3521.00,0.0071
3520.00,0.0072
3519.00,0.0073
3518.00,0.0074
3517.00,0.0074
3516.00,0.0075
3515.00,0.0076
3514.00,0.0076
3513.00,0.0077
3512.00,0.0078
3511.00,0.0078
3510.00,0.0079
3509.00,0.0080
3508.00,0.0080
3507.00,0.0081
3506.00,0.0082
3505.00,0.0082
3504.00,0.0083
3503.00,0.0083
3502.00,0.0084
3501.00,0.0085
3500.00,0.0085
3499.00,0.0086
3498.00,0.0087
3497.00,0.0087
3496.00,0.0088
3495.00,0.0089
3494.00,0.0089
3493.00,0.0090
3492.00,0.0091
3491.00,0.0091
3490.00,0.0092
3489.00,0.0093
3488.00,0.0094
3487.00,0.0095
3486.00,0.0096
3485.00,0.0096
3484.00,0.0097
3483.00,0.0097
3482.00,0.0097
3481.00,0.0098
3480.00,0.0098
3479.00,0.0099
3478.00,0.0100
3477.00,0.0100
3476.00,0.0101
3475.00,0.0102
3474.00,0.0103
3473.00,0.0104
3472.00,0.0104
3471.00,0.0105
3470.00,0.0105
3469.00,0.0106
3468.00,0.0106
3467.00,0.0106
3466.00,0.0107
3465.00,0.0107
3464.00,0.0108
3463.00,0.0109
3462.00,0.0109
3461.00,0.0110
3460.00,0.0111
3459.00,0.0112
3458.00,0.0112
3457.00,0.0113
3456.00,0.0114
3455.00,0.0114
3454.00,0.0114
3453.00,0.0115
3452.00,0.0115
3451.00,0.0116
3450.00,0.0117
3449.00,0.0117
3448.00,0.0118
3447.00,0.0118
3446.00,0.0119
3445.00,0.0119
3444.00,0.0119
3443.00,0.0120
3442.00,0.0120
3441.00,0.0120
3440.00,0.0121
3439.00,0.0121
3438.00,0.0121
3437.00,0.0122
3436.00,0.0123
3435.00,0.0123
3434.00,0.0123
3433.00,0.0124
3432.00,0.0124
3431.00,0.0124
3430.00,0.0124
3429.00,0.0125
3428.00,0.0125
3427.00,0.0126
3426.00,0.0126
3425.00,0.0127
3424.00,0.0128
3423.00,0.0128
3422.00,0.0129
3421.00,0.0129
3420.00,0.0129
3419.00,0.0130
3418.00,0.0130
3417.00,0.0130
3416.00,0.0130
3415.00,0.0131
3414.00,0.0131
3413.00,0.0131
3412.00,0.0131
3411.00,0.0131
3410.00,0.0131
3409.00,0.0131
3408.00,0.0132
3407.00,0.0132
3406.00,0.0132
3405.00,0.0132
3404.00,0.0133
3403.00,0.0133
3402.00,0.0134
3401.00,0.0134
3400.00,0.0134
3399.00,0.0134
3398.00,0.0135
3397.00,0.0135
3396.00,0.0134
3395.00,0.0134
3394.00,0.0134
3393.00,0.0134
3392.00,0.0134
3391.00,0.0135
3390.00,0.0135
3389.00,0.0135
3388.00,0.0135
3387.00,0.0135
3386.00,0.0135
3385.00,0.0135
3384.00,0.0136
3383.00,0.0136
3382.00,0.0136
3381.00,0.0136
3380.00,0.0136
3379.00,0.0136
3378.00,0.0136
3377.00,0.0136
3376.00,0.0136
3375.00,0.0136
3374.00,0.0136
3373.00,0.0136
3372.00,0.0137
3371.00,0.0137
3370.00,0.0137
3369.00,0.0137
3368.00,0.0137
3367.00,0.0137
3366.00,0.0137
3365.00,0.0137
3364.00,0.0137
3363.00,0.0137
3362.00,0.0137
3361.00,0.0137
3360.00,0.0137
3359.00,0.0137
3358.00,0.0137
3357.00,0.0137
3356.00,0.0138
3355.00,0.0138
3354.00,0.0139
3353.00,0.0139
3352.00,0.0139
3351.00,0.0139
3350.00,0.0138
3349.00,0.0138
3348.00,0.0138
3347.00,0.0138
3346.00,0.0138
3345.00,0.0138
3344.00,0.0137
3343.00,0.0137
3342.00,0.0137
3341.00,0.0137
3340.00,0.0137
3339.00,0.0137
3338.00,0.0137
3337.00,0.0137
3336.00,0.0137
3335.00,0.0137
3334.00,0.0137
3333.00,0.0136
3332.00,0.0136
3331.00,0.0136
3330.00,0.0135
3329.00,0.0135
3328.00,0.0135
3327.00,0.0134
3326.00,0.0134
3325.00,0.0134
3324.00,0.0134
3323.00,0.0134
3322.00,0.0133
3321.00,0.0133
3320.00,0.0133
3319.00,0.0132
3318.00,0.0132
3317.00,0.0131
3316.00,0.0131
3315.00,0.0131
3314.00,0.0131
3313.00,0.0131
3312.00,0.0130
3311.00,0.0130
3310.00,0.0130
3309.00,0.0130
3308.00,0.0130
3307.00,0.0129
3306.00,0.0129
3305.00,0.0129
3304.00,0.0129
3303.00,0.0129
3302.00,0.0129
3301.00,0.0128
3300.00,0.0128
3299.00,0.0127
3298.00,0.0127
3297.00,0.0126
3296.00,0.0126
3295.00,0.0125
3294.00,0.0125
3293.00,0.0125
3292.00,0.0124
3291.00,0.0124
3290.00,0.0123
3289.00,0.0123
3288.00,0.0123
3287.00,0.0122
3286.00,0.0121
3285.00,0.0121
3284.00,0.0121
3283.00,0.0121
3282.00,0.0121
3281.00,0.0120
3280.00,0.0120
3279.00,0.0119
3278.00,0.0118
3277.00,0.0118
3276.00,0.0118
3275.00,0.0118
3274.00,0.0118
3273.00,0.0117
3272.00,0.0117
3271.00,0.0116
3270.00,0.0116
3269.00,0.0116
3268.00,0.0115
3267.00,0.0115
3266.00,0.0115
3265.00,0.0114
3264.00,0.0114
3263.00,0.0113
3262.00,0.0113
3261.00,0.0112
3260.00,0.0112
3259.00,0.0111
3258.00,0.0111
3257.00,0.0111
3256.00,0.0110
3255.00,0.0110
3254.00,0.0111
3253.00,0.0111
3252.00,0.0111
3251.00,0.0111
3250.00,0.0111
3249.00,0.0110
3248.00,0.0110
3247.00,0.0109
3246.00,0.0108
3245.00,0.0108
3244.00,0.0108
3243.00,0.0108
3242.00,0.0108
3241.00,0.0108
3240.00,0.0108
3239.00,0.0108
3238.00,0.0108
3237.00,0.0108
3236.00,0.0107
3235.00,0.0107
3234.00,0.0107
3233.00,0.0107
3232.00,0.0107
3231.00,0.0107
3230.00,0.0108
3229.00,0.0108
3228.00,0.0108
3227.00,0.0108
3226.00,0.0108
3225.00,0.0108
3224.00,0.0107
3223.00,0.0107
3222.00,0.0107
3221.00,0.0107
3220.00,0.0107
3219.00,0.0108
3218.00,0.0108
3217.00,0.0108
3216.00,0.0108
3215.00,0.0108
3214.00,0.0108
3213.00,0.0109
3212.00,0.0109
3211.00,0.0109
3210.00,0.0109
3209.00,0.0109
3208.00,0.0109
3207.00,0.0109
3206.00,0.0108
3205.00,0.0108
3204.00,0.0108
3203.00,0.0108
3202.00,0.0108
3201.00,0.0108
3200.00,0.0108
3199.00,0.0108
3198.00,0.0108
3197.00,0.0107
3196.00,0.0107
3195.00,0.0107
3194.00,0.0106
3193.00,0.0107
3192.00,0.0107
3191.00,0.0107
3190.00,0.0107
3189.00,0.0106
3188.00,0.0106
3187.00,0.0105
3186.00,0.0105
3185.00,0.0104
3184.00,0.0103
3183.00,0.0103
3182.00,0.0102
3181.00,0.0102
3180.00,0.0102
3179.00,0.0102
3178.00,0.0101
3177.00,0.0101
3176.00,0.0100
3175.00,0.0100
3174.00,0.0099
3173.00,0.0098
3172.00,0.0097
3171.00,0.0097
3170.00,0.0096
3169.00,0.0096
3168.00,0.0095
3167.00,0.0094
3166.00,0.0093
3165.00,0.0093
3164.00,0.0093
3163.00,0.0093
3162.00,0.0092
3161.00,0.0091
3160.00,0.0090
3159.00,0.0090
3158.00,0.0089
3157.00,0.0089
3156.00,0.0088
3155.00,0.0088
3154.00,0.0087
3153.00,0.0087
3152.00,0.0086
3151.00,0.0086
3150.00,0.0087
3149.00,0.0087
3148.00,0.0087
3147.00,0.0087
3146.00,0.0086
3145.00,0.0086
3144.00,0.0085
3143.00,0.0084
3142.00,0.0084
3141.00,0.0083
3140.00,0.0083
3139.00,0.0082
3138.00,0.0081
3137.00,0.0081
3136.00,0.0081
3135.00,0.0080
3134.00,0.0080
3133.00,0.0080
3132.00,0.0080
3131.00,0.0080
3130.00,0.0079
3129.00,0.0079
3128.00,0.0078
3127.00,0.0077
3126.00,0.0077
3125.00,0.0076
3124.00,0.0076
3123.00,0.0075
3122.00,0.0075
3121.00,0.0074
3120.00,0.0074
3119.00,0.0074
3118.00,0.0074
3117.00,0.0074
3116.00,0.0073
3115.00,0.0073
3114.00,0.0073
3113.00,0.0072
3112.00,0.0072
3111.00,0.0072
3110.00,0.0071
3109.00,0.0071
3108.00,0.0071
3107.00,0.0070
3106.00,0.0070
3105.00,0.0070
3104.00,0.0070
3103.00,0.0069
3102.00,0.0069
3101.00,0.0068
3100.00,0.0067
3099.00,0.0067
3098.00,0.0067
3097.00,0.0067
3096.00,0.0067
3095.00,0.0066
3094.00,0.0066
3093.00,0.0066
3092.00,0.0065
3091.00,0.0065
3090.00,0.0065
3089.00,0.0065
3088.00,0.0065
3087.00,0.0065
3086.00,0.0064
3085.00,0.0064
3084.00,0.0064
3083.00,0.0063
3082.00,0.0063
3081.00,0.0063
3080.00,0.0063
3079.00,0.0063
3078.00,0.0063
3077.00,0.0063
3076.00,0.0063
3075.00,0.0063
3074.00,0.0063
3073.00,0.0063
3072.00,0.0063
3071.00,0.0063
3070.00,0.0063
3069.00,0.0064
3068.00,0.0064
3067.00,0.0064
3066.00,0.0064
3065.00,0.0065
3064.00,0.0065
3063.00,0.0064
3062.00,0.0064
3061.00,0.0064
3060.00,0.0064
3059.00,0.0064
3058.00,0.0064
3057.00,0.0064
3056.00,0.0064
3055.00,0.0064
3054.00,0.0065
3053.00,0.0065
3052.00,0.0065
3051.00,0.0065
3050.00,0.0065
3049.00,0.0065
3048.00,0.0066
3047.00,0.0066
3046.00,0.0067
3045.00,0.0067
3044.00,0.0068
3043.00,0.0068
3042.00,0.0069
3041.00,0.0069
3040.00,0.0070
3039.00,0.0070
3038.00,0.0071
3037.00,0.0071
3036.00,0.0072
3035.00,0.0072
3034.00,0.0073
3033.00,0.0073
3032.00,0.0074
3031.00,0.0075
3030.00,0.0076
3029.00,0.0077
3028.00,0.0079
3027.00,0.0081
3026.00,0.0083
3025.00,0.0085
3024.00,0.0088
3023.00,0.0091
3022.00,0.0094
3021.00,0.0098
3020.00,0.0102
3019.00,0.0108
3018.00,0.0115
3017.00,0.0123
3016.00,0.0132
3015.00,0.0143
3014.00,0.0155
3013.00,0.0170
3012.00,0.0186
3011.00,0.0205
3010.00,0.0225
3009.00,0.0248
3008.00,0.0272
3007.00,0.0297
3006.00,0.0325
3005.00,0.0353
3004.00,0.0383
3003.00,0.0412
3002.00,0.0442
3001.00,0.0470
3000.00,0.0497
2999.00,0.0522
2998.00,0.0545
2997.00,0.0566
2996.00,0.0586
2995.00,0.0605
2994.00,0.0623
2993.00,0.0641
2992.00,0.0659
2991.00,0.0677
2990.00,0.0695
2989.00,0.0716
2988.00,0.0741
2987.00,0.0776
2986.00,0.0828
2985.00,0.0904
2984.00,0.0998
2983.00,0.1091
2982.00,0.1159
2981.00,0.1187
2980.00,0.1180
2979.00,0.1156
2978.00,0.1131
2977.00,0.1117
2976.00,0.1119
2975.00,0.1141
2974.00,0.1182
2973.00,0.1235
2972.00,0.1287
2971.00,0.1329
2970.00,0.1359
2969.00,0.1387
2968.00,0.1422
2967.00,0.1469
2966.00,0.1525
2965.00,0.1584
2964.00,0.1642
2963.00,0.1698
2962.00,0.1748
2961.00,0.1790
2960.00,0.1824
2959.00,0.1852
2958.00,0.1877
2957.00,0.1902
2956.00,0.1931
2955.00,0.1968
2954.00,0.2011
2953.00,0.2058
2952.00,0.2101
2951.00,0.2134
2950.00,0.2146
2949.00,0.2130
2948.00,0.2078
2947.00,0.1992
2946.00,0.1880
2945.00,0.1754
2944.00,0.1629
2943.00,0.1519
2942.00,0.1431
2941.00,0.1368
2940.00,0.1331
2939.00,0.1315
2938.00,0.1320
2937.00,0.1342
2936.00,0.1380
2935.00,0.1434
2934.00,0.1503
2933.00,0.1584
2932.00,0.1674
2931.00,0.1770
2930.00,0.1869
2929.00,0.1970
2928.00,0.2069
2927.00,0.2164
2926.00,0.2255
2925.00,0.2340
2924.00,0.2422
2923.00,0.2501
2922.00,0.2578
2921.00,0.2653
2920.00,0.2720
2919.00,0.2773
2918.00,0.2805
2917.00,0.2808
2916.00,0.2780
2915.00,0.2723
2914.00,0.2644
2913.00,0.2551
2912.00,0.2455
2911.00,0.2362
2910.00,0.2275
2909.00,0.2195
2908.00,0.2121
2907.00,0.2052
2906.00,0.1983
2905.00,0.1916
2904.00,0.1848
2903.00,0.1782
2902.00,0.1716
2901.00,0.1652
2900.00,0.1591
2899.00,0.1534
2898.00,0.1482
2897.00,0.1435
2896.00,0.1395
2895.00,0.1362
2894.00,0.1337
2893.00,0.1320
2892.00,0.1308
2891.00,0.1300
2890.00,0.1296
2889.00,0.1293
2888.00,0.1293
2887.00,0.1296
2886.00,0.1304
2885.00,0.1316
2884.00,0.1330
2883.00,0.1345
2882.00,0.1360
2881.00,0.1375
2880.00,0.1390
2879.00,0.1405
2878.00,0.1415
2877.00,0.1418
2876.00,0.1414
2875.00,0.1405
2874.00,0.1394
2873.00,0.1386
2872.00,0.1385
2871.00,0.1391
2870.00,0.1402
2869.00,0.1415
2868.00,0.1424
2867.00,0.1421
2866.00,0.1398
2865.00,0.1353
2864.00,0.1286
2863.00,0.1205
2862.00,0.1120
2861.00,0.1039
2860.00,0.0968
2859.00,0.0911
2858.00,0.0867
2857.00,0.0835
2856.00,0.0812
2855.00,0.0796
2854.00,0.0785
2853.00,0.0778
2852.00,0.0775
2851.00,0.0775
2850.00,0.0779
2849.00,0.0786
2848.00,0.0798
2847.00,0.0818
2846.00,0.0845
2845.00,0.0883
2844.00,0.0929
2843.00,0.0984
2842.00,0.1044
2841.00,0.1103
2840.00,0.1155
2839.00,0.1191
2838.00,0.1203
2837.00,0.1186
2836.00,0.1137
2835.00,0.1061
2834.00,0.0965
2833.00,0.0862
2832.00,0.0762
2831.00,0.0671
2830.00,0.0593
2829.00,0.0529
2828.00,0.0476
2827.00,0.0434
2826.00,0.0400
2825.00,0.0371
2824.00,0.0348
2823.00,0.0328
2822.00,0.0311
2821.00,0.0296
2820.00,0.0283
2819.00,0.0272
2818.00,0.0263
2817.00,0.0254
2816.00,0.0246
2815.00,0.0239
2814.00,0.0232
2813.00,0.0226
2812.00,0.0220
2811.00,0.0214
2810.00,0.0209
2809.00,0.0203
2808.00,0.0196
2807.00,0.0190
2806.00,0.0183
2805.00,0.0176
2804.00,0.0170
2803.00,0.0164
2802.00,0.0160
2801.00,0.0155
2800.00,0.0151
2799.00,0.0148
2798.00,0.0145
2797.00,0.0142
2796.00,0.0140
2795.00,0.0137
2794.00,0.0134
2793.00,0.0131
2792.00,0.0128
2791.00,0.0124
2790.00,0.0121
2789.00,0.0118
2788.00,0.0115
2787.00,0.0112
2786.00,0.0110
2785.00,0.0107
2784.00,0.0105
2783.00,0.0102
2782.00,0.0100
2781.00,0.0098
2780.00,0.0096
2779.00,0.0094
2778.00,0.0092
2777.00,0.0091
2776.00,0.0090
2775.00,0.0089
2774.00,0.0088
2773.00,0.0087
2772.00,0.0087
2771.00,0.0086
2770.00,0.0086
2769.00,0.0085
2768.00,0.0084
2767.00,0.0084
2766.00,0.0083
2765.00,0.0082
2764.00,0.0082
2763.00,0.0081
2762.00,0.0080
2761.00,0.0079
2760.00,0.0079
2759.00,0.0078
2758.00,0.0078
2757.00,0.0077
2756.00,0.0076
2755.00,0.0076
2754.00,0.0076
2753.00,0.0076
2752.00,0.0076
2751.00,0.0076
2750.00,0.0076
2749.00,0.0076
2748.00,0.0076
2747.00,0.0076
2746.00,0.0076
2745.00,0.0077
2744.00,0.0077
2743.00,0.0078
2742.00,0.0079
2741.00,0.0080
2740.00,0.0082
2739.00,0.0083
2738.00,0.0084
2737.00,0.0085
2736.00,0.0086
2735.00,0.0088
2734.00,0.0089
2733.00,0.0090
2732.00,0.0092
2731.00,0.0094
2730.00,0.0096
2729.00,0.0097
2728.00,0.0099
2727.00,0.0101
2726.00,0.0104
2725.00,0.0106
2724.00,0.0107
2723.00,0.0107
2722.00,0.0106
2721.00,0.0104
2720.00,0.0101
2719.00,0.0098
2718.00,0.0095
2717.00,0.0091
2716.00,0.0088
2715.00,0.0085
2714.00,0.0082
2713.00,0.0080
2712.00,0.0079
2711.00,0.0077
2710.00,0.0074
2709.00,0.0072
2708.00,0.0071
2707.00,0.0070
2706.00,0.0069
2705.00,0.0068
2704.00,0.0067
2703.00,0.0067
2702.00,0.0066
2701.00,0.0065
2700.00,0.0064
2699.00,0.0063
2698.00,0.0063
2697.00,0.0063
2696.00,0.0062
2695.00,0.0062
2694.00,0.0062
2693.00,0.0062
2692.00,0.0062
2691.00,0.0062
2690.00,0.0062
2689.00,0.0063
2688.00,0.0063
2687.00,0.0063
2686.00,0.0063
2685.00,0.0064
2684.00,0.0064
2683.00,0.0064
2682.00,0.0065
2681.00,0.0065
2680.00,0.0065
2679.00,0.0066
2678.00,0.0066
2677.00,0.0066
2676.00,0.0066
2675.00,0.0066
2674.00,0.0067
2673.00,0.0067
2672.00,0.0067
2671.00,0.0067
2670.00,0.0067
2669.00,0.0068
2668.00,0.0069
2667.00,0.0070
2666.00,0.0070
2665.00,0.0070
2664.00,0.0071
2663.00,0.0071
2662.00,0.0071
2661.00,0.0071
2660.00,0.0071
2659.00,0.0071
2658.00,0.0070
2657.00,0.0070
2656.00,0.0069
2655.00,0.0069
2654.00,0.0068
2653.00,0.0068
2652.00,0.0067
2651.00,0.0066
2650.00,0.0066
2649.00,0.0066
2648.00,0.0065
2647.00,0.0065
2646.00,0.0064
2645.00,0.0064
2644.00,0.0064
2643.00,0.0063
2642.00,0.0063
2641.00,0.0062
2640.00,0.0061
2639.00,0.0061
2638.00,0.0060
2637.00,0.0059
2636.00,0.0058
2635.00,0.0057
2634.00,0.0056
2633.00,0.0056
2632.00,0.0056
2631.00,0.0056
2630.00,0.0057
2629.00,0.0057
2628.00,0.0057
2627.00,0.0056
2626.00,0.0056
2625.00,0.0055
2624.00,0.0055
2623.00,0.0055
2622.00,0.0056
2621.00,0.0056
2620.00,0.0056
2619.00,0.0055
2618.00,0.0054
2617.00,0.0054
2616.00,0.0054
2615.00,0.0053
2614.00,0.0053
2613.00,0.0052
2612.00,0.0052
2611.00,0.0051
2610.00,0.0050
2609.00,0.0050
2608.00,0.0049
2607.00,0.0048
2606.00,0.0048
2605.00,0.0047
2604.00,0.0046
2603.00,0.0045
2602.00,0.0045
2601.00,0.0044
2600.00,0.0043
2599.00,0.0043
2598.00,0.0042
2597.00,0.0042
2596.00,0.0043
2595.00,0.0043
2594.00,0.0043
2593.00,0.0043
2592.00,0.0043
2591.00,0.0043
2590.00,0.0043
2589.00,0.0044
2588.00,0.0045
2587.00,0.0046
2586.00,0.0047
2585.00,0.0047
2584.00,0.0048
2583.00,0.0049
2582.00,0.0049
2581.00,0.0049
2580.00,0.0048
2579.00,0.0047
2578.00,0.0046
2577.00,0.0045
2576.00,0.0043
2575.00,0.0042
2574.00,0.0041
2573.00,0.0040
2572.00,0.0039
2571.00,0.0037
2570.00,0.0036
2569.00,0.0035
2568.00,0.0035
2567.00,0.0034
2566.00,0.0033
2565.00,0.0033
2564.00,0.0032
2563.00,0.0033
2562.00,0.0033
2561.00,0.0033
2560.00,0.0033
2559.00,0.0033
2558.00,0.0032
2557.00,0.0031
2556.00,0.0030
2555.00,0.0030
2554.00,0.0030
2553.00,0.0030
2552.00,0.0030
2551.00,0.0030
2550.00,0.0029
2549.00,0.0029
2548.00,0.0029
2547.00,0.0028
2546.00,0.0028
2545.00,0.0028
2544.00,0.0027
2543.00,0.0027
2542.00,0.0027
2541.00,0.0027
2540.00,0.0027
2539.00,0.0026
2538.00,0.0025
2537.00,0.0025
2536.00,0.0024
2535.00,0.0024
2534.00,0.0024
2533.00,0.0024
2532.00,0.0025
2531.00,0.0025
2530.00,0.0025
2529.00,0.0025
2528.00,0.0025
2527.00,0.0025
2526.00,0.0024
2525.00,0.0024
2524.00,0.0023
2523.00,0.0023
2522.00,0.0023
2521.00,0.0023
2520.00,0.0023
2519.00,0.0024
2518.00,0.0024
2517.00,0.0024
2516.00,0.0023
2515.00,0.0023
2514.00,0.0022
2513.00,0.0022
2512.00,0.0021
2511.00,0.0020
2510.00,0.0020
2509.00,0.0021
2508.00,0.0021
2507.00,0.0021
2506.00,0.0021
2505.00,0.0020
2504.00,0.0020
2503.00,0.0020
2502.00,0.0020
2501.00,0.0020
2500.00,0.0020
2499.00,0.0020
2498.00,0.0020
2497.00,0.0020
2496.00,0.0020
2495.00,0.0020
2494.00,0.0020
2493.00,0.0020
2492.00,0.0020
2491.00,0.0020
2490.00,0.0020
2489.00,0.0019
2488.00,0.0019
2487.00,0.0020
2486.00,0.0021
2485.00,0.0021
2484.00,0.0021
2483.00,0.0021
2482.00,0.0020
2481.00,0.0020
2480.00,0.0021
2479.00,0.0021
2478.00,0.0020
2477.00,0.0020
2476.00,0.0019
2475.00,0.0018
2474.00,0.0018
2473.00,0.0017
2472.00,0.0017
2471.00,0.0017
2470.00,0.0017
2469.00,0.0017
2468.00,0.0018
2467.00,0.0018
2466.00,0.0019
2465.00,0.0020
2464.00,0.0020
2463.00,0.0020
2462.00,0.0020
2461.00,0.0019
2460.00,0.0019
2459.00,0.0020
2458.00,0.0020
2457.00,0.0020
2456.00,0.0020
2455.00,0.0020
2454.00,0.0020
2453.00,0.0020
2452.00,0.0020
2451.00,0.0020
2450.00,0.0020
2449.00,0.0020
2448.00,0.0020
2447.00,0.0020
2446.00,0.0020
2445.00,0.0020
2444.00,0.0020
2443.00,0.0020
2442.00,0.0020
2441.00,0.0020
2440.00,0.0020
2439.00,0.0020
2438.00,0.0020
2437.00,0.0020
2436.00,0.0020
2435.00,0.0020
2434.00,0.0019
2433.00,0.0020
2432.00,0.0020
2431.00,0.0021
2430.00,0.0021
2429.00,0.0020
2428.00,0.0020
2427.00,0.0019
2426.00,0.0018
2425.00,0.0018
2424.00,0.0018
2423.00,0.0018
2422.00,0.0018
2421.00,0.0018
2420.00,0.0018
2419.00,0.0018
2418.00,0.0018
2417.00,0.0018
2416.00,0.0018
2415.00,0.0018
2414.00,0.0017
2413.00,0.0018
2412.00,0.0018
2411.00,0.0019
2410.00,0.0019
2409.00,0.0018
2408.00,0.0018
2407.00,0.0017
2406.00,0.0017
2405.00,0.0017
2404.00,0.0017
2403.00,0.0018
2402.00,0.0018
2401.00,0.0018
2400.00,0.0018
2399.00,0.0017
2398.00,0.0016
2397.00,0.0016
2396.00,0.0016
2395.00,0.0016
2394.00,0.0016
2393.00,0.0016
2392.00,0.0016
2391.00,0.0015
2390.00,0.0015
2389.00,0.0016
2388.00,0.0016
2387.00,0.0016
2386.00,0.0015
2385.00,0.0015
2384.00,0.0014
2383.00,0.0014
2382.00,0.0013
2381.00,0.0013
2380.00,0.0012
2379.00,0.0012
2378.00,0.0012
2377.00,0.0013
2376.00,0.0014
2375.00,0.0014
2374.00,0.0013
2373.00,0.0013
2372.00,0.0013
2371.00,0.0014
2370.00,0.0014
2369.00,0.0014
2368.00,0.0014
2367.00,0.0014
2366.00,0.0014
2365.00,0.0014
2364.00,0.0014
2363.00,0.0014
2362.00,0.0014
2361.00,0.0014
2360.00,0.0014
2359.00,0.0015
2358.00,0.0016
2357.00,0.0016
2356.00,0.0016
2355.00,0.0016
2354.00,0.0016
2353.00,0.0016
2352.00,0.0015
2351.00,0.0015
2350.00,0.0016
2349.00,0.0016
2348.00,0.0017
2347.00,0.0017
2346.00,0.0017
2345.00,0.0017
2344.00,0.0018
2343.00,0.0019
2342.00,0.0019
2341.00,0.0019
2340.00,0.0019
2339.00,0.0019
2338.00,0.0019
2337.00,0.0019
2336.00,0.0019
2335.00,0.0019
2334.00,0.0019
2333.00,0.0018
2332.00,0.0018
2331.00,0.0018
2330.00,0.0018
2329.00,0.0019
2328.00,0.0021
2327.00,0.0024
2326.00,0.0027
2325.00,0.0030
2324.00,0.0030
2323.00,0.0028
2322.00,0.0026
2321.00,0.0024
2320.00,0.0023
2319.00,0.0022
2318.00,0.0022
2317.00,0.0022
2316.00,0.0021
2315.00,0.0021
2314.00,0.0020
2313.00,0.0020
2312.00,0.0019
2311.00,0.0019
2310.00,0.0019
2309.00,0.0018
2308.00,0.0018
2307.00,0.0018
2306.00,0.0019
2305.00,0.0019
2304.00,0.0018
2303.00,0.0018
2302.00,0.0018
2301.00,0.0019
2300.00,0.0020
2299.00,0.0020
2298.00,0.0021
2297.00,0.0021
2296.00,0.0021
2295.00,0.0021
2294.00,0.0022
2293.00,0.0022
2292.00,0.0023
2291.00,0.0024
2290.00,0.0025
2289.00,0.0026
2288.00,0.0027
2287.00,0.0027
2286.00,0.0027
2285.00,0.0027
2284.00,0.0026
2283.00,0.0024
2282.00,0.0023
2281.00,0.0023
2280.00,0.0022
2279.00,0.0021
2278.00,0.0020
2277.00,0.0019
2276.00,0.0018
2275.00,0.0017
2274.00,0.0018
2273.00,0.0018
2272.00,0.0018
2271.00,0.0017
2270.00,0.0017
2269.00,0.0017
2268.00,0.0017
2267.00,0.0017
2266.00,0.0017
2265.00,0.0016
2264.00,0.0015
2263.00,0.0015
2262.00,0.0015
2261.00,0.0015
2260.00,0.0016
2259.00,0.0017
2258.00,0.0016
2257.00,0.0016
2256.00,0.0014
2255.00,0.0013
2254.00,0.0011
2253.00,0.0011
2252.00,0.0012
2251.00,0.0013
2250.00,0.0014
2249.00,0.0014
2248.00,0.0015
2247.00,0.0014
2246.00,0.0014
2245.00,0.0013
2244.00,0.0013
2243.00,0.0013
2242.00,0.0012
2241.00,0.0013
2240.00,0.0013
2239.00,0.0014
2238.00,0.0015
2237.00,0.0015
2236.00,0.0015
2235.00,0.0015
2234.00,0.0015
2233.00,0.0014
2232.00,0.0013
2231.00,0.0013
2230.00,0.0014
2229.00,0.0014
2228.00,0.0015
2227.00,0.0014
2226.00,0.0014
2225.00,0.0014
2224.00,0.0015
2223.00,0.0016
2222.00,0.0017
2221.00,0.0018
2220.00,0.0017
2219.00,0.0015
2218.00,0.0014
2217.00,0.0014
2216.00,0.0014
2215.00,0.0014
2214.00,0.0013
2213.00,0.0013
2212.00,0.0012
2211.00,0.0012
2210.00,0.0012
2209.00,0.0012
2208.00,0.0013
2207.00,0.0013
2206.00,0.0013
2205.00,0.0013
2204.00,0.0012
2203.00,0.0013
2202.00,0.0013
2201.00,0.0014
2200.00,0.0014
2199.00,0.0014
2198.00,0.0012
2197.00,0.0011
2196.00,0.0012
2195.00,0.0014
2194.00,0.0018
2193.00,0.0022
2192.00,0.0024
2191.00,0.0023
2190.00,0.0020
2189.00,0.0017
2188.00,0.0015
2187.00,0.0014
2186.00,0.0013
2185.00,0.0014
2184.00,0.0014
2183.00,0.0014
2182.00,0.0013
2181.00,0.0012
2180.00,0.0010
2179.00,0.0009
2178.00,0.0008
2177.00,0.0009
2176.00,0.0010
2175.00,0.0011
2174.00,0.0011
2173.00,0.0012
2172.00,0.0013
2171.00,0.0014
2170.00,0.0016
2169.00,0.0019
2168.00,0.0022
2167.00,0.0022
2166.00,0.0022
2165.00,0.0020
2164.00,0.0020
2163.00,0.0022
2162.00,0.0024
2161.00,0.0021
2160.00,0.0011
2159.00,-0.0005
2158.00,-0.0019
2157.00,-0.0025
2156.00,-0.0025
2155.00,-0.0022
2154.00,-0.0019
2153.00,-0.0015
2152.00,-0.0011
2151.00,-0.0007
2150.00,-0.0005
2149.00,-0.0005
2148.00,-0.0006
2147.00,-0.0007
2146.00,-0.0007
2145.00,-0.0006
2144.00,-0.0004
2143.00,-0.0003
2142.00,-0.0004
2141.00,-0.0005
2140.00,-0.0007
2139.00,-0.0008
2138.00,-0.0007
2137.00,-0.0006
2136.00,-0.0006
2135.00,-0.0007
2134.00,-0.0009
2133.00,-0.0010
2132.00,-0.0010
2131.00,-0.0008
2130.00,-0.0006
2129.00,-0.0005
2128.00,-0.0004
2127.00,-0.0002
2126.00,-0.0000
2125.00,0.0001
2124.00,0.0003
2123.00,0.0003
2122.00,0.0003
2121.00,0.0004
2120.00,0.0005
2119.00,0.0006
2118.00,0.0007
2117.00,0.0008
2116.00,0.0008
2115.00,0.0008
2114.00,0.0007
2113.00,0.0007
2112.00,0.0008
2111.00,0.0008
2110.00,0.0009
2109.00,0.0010
2108.00,0.0011
2107.00,0.0012
2106.00,0.0013
2105.00,0.0015
2104.00,0.0015
2103.00,0.0015
2102.00,0.0014
2101.00,0.0013
2100.00,0.0012
2099.00,0.0011
2098.00,0.0011
2097.00,0.0009
2096.00,0.0007
2095.00,0.0005
2094.00,0.0004
2093.00,0.0005
2092.00,0.0006
2091.00,0.0008
2090.00,0.0010
2089.00,0.0012
2088.00,0.0013
2087.00,0.0014
2086.00,0.0013
2085.00,0.0012
2084.00,0.0010
2083.00,0.0010
2082.00,0.0010
2081.00,0.0011
2080.00,0.0012
2079.00,0.0012
2078.00,0.0012
2077.00,0.0012
2076.00,0.0012
2075.00,0.0011
2074.00,0.0010
2073.00,0.0011
2072.00,0.0012
2071.00,0.0013
2070.00,0.0013
2069.00,0.0012
2068.00,0.0010
2067.00,0.0008
2066.00,0.0007
2065.00,0.0008
2064.00,0.0009
2063.00,0.0010
2062.00,0.0009
2061.00,0.0009
2060.00,0.0010
2059.00,0.0012
2058.00,0.0014
2057.00,0.0017
2056.00,0.0017
2055.00,0.0016
2054.00,0.0016
2053.00,0.0018
2052.00,0.0023
2051.00,0.0025
2050.00,0.0023
2049.00,0.0018
2048.00,0.0012
2047.00,0.0008
2046.00,0.0006
2045.00,0.0005
2044.00,0.0004
2043.00,0.0003
2042.00,0.0004
2041.00,0.0005
2040.00,0.0008
2039.00,0.0009
2038.00,0.0009
2037.00,0.0008
2036.00,0.0005
2035.00,0.0002
2034.00,0.0000
2033.00,-0.0000
2032.00,-0.0001
2031.00,-0.0002
2030.00,-0.0004
2029.00,-0.0006
2028.00,-0.0005
2027.00,-0.0003
2026.00,0.0001
2025.00,0.0004
2024.00,0.0006
2023.00,0.0005
2022.00,0.0004
2021.00,0.0003
2020.00,0.0002
2019.00,0.0002
2018.00,0.0001
2017.00,0.0001
2016.00,0.0000
2015.00,-0.0002
2014.00,-0.0005
2013.00,-0.0006
2012.00,-0.0006
2011.00,-0.0006
2010.00,-0.0006
2009.00,-0.0006
2008.00,-0.0007
2007.00,-0.0010
2006.00,-0.0013
2005.00,-0.0013
2004.00,-0.0009
2003.00,-0.0003
2002.00,0.0002
2001.00,0.0006
2000.00,0.0007
1999.00,0.0005
1998.00,0.0002
1997.00,0.0001
1996.00,0.0001
1995.00,0.0002
1994.00,0.0004
1993.00,0.0005
1992.00,0.0007
1991.00,0.0008
1990.00,0.0008
1989.00,0.0008
1988.00,0.0008
1987.00,0.0008
1986.00,0.0009
1985.00,0.0011
1984.00,0.0012
1983.00,0.0014
1982.00,0.0017
1981.00,0.0020
1980.00,0.0019
1979.00,0.0013
1978.00,0.0004
1977.00,-0.0004
1976.00,-0.0008
1975.00,-0.0010
1974.00,-0.0010
1973.00,-0.0009
1972.00,-0.0007
1971.00,-0.0006
1970.00,-0.0007
1969.00,-0.0009
1968.00,-0.0009
1967.00,-0.0009
1966.00,-0.0007
1965.00,-0.0006
1964.00,-0.0005
1963.00,-0.0005
1962.00,-0.0007
1961.00,-0.0008
1960.00,-0.0009
1959.00,-0.0008
1958.00,-0.0009
1957.00,-0.0009
1956.00,-0.0009
1955.00,-0.0010
1954.00,-0.0011
1953.00,-0.0012
1952.00,-0.0011
1951.00,-0.0011
1950.00,-0.0010
1949.00,-0.0009
1948.00,-0.0009
1947.00,-0.0009
1946.00,-0.0010
1945.00,-0.0011
1944.00,-0.0010
1943.00,-0.0010
1942.00,-0.0009
1941.00,-0.0008
1940.00,-0.0007
1939.00,-0.0008
1938.00,-0.0008
1937.00,-0.0007
1936.00,-0.0006
1935.00,-0.0005
1934.00,-0.0004
1933.00,-0.0004
1932.00,-0.0005
1931.00,-0.0006
1930.00,-0.0006
1929.00,-0.0004
1928.00,-0.0003
1927.00,-0.0002
1926.00,-0.0002
1925.00,-0.0003
1924.00,-0.0002
1923.00,-0.0002
1922.00,-0.0001
1921.00,0.0001
1920.00,0.0002
1919.00,0.0002
1918.00,0.0003
1917.00,0.0003
1916.00,0.0003
1915.00,0.0003
1914.00,0.0002
1913.00,0.0003
1912.00,0.0004
1911.00,0.0004
1910.00,0.0004
1909.00,0.0003
1908.00,0.0004
1907.00,0.0005
1906.00,0.0006
1905.00,0.0006
1904.00,0.0005
1903.00,0.0005
1902.00,0.0005
1901.00,0.0005
1900.00,0.0006
1899.00,0.0006
1898.00,0.0006
1897.00,0.0006
1896.00,0.0007
1895.00,0.0007
1894.00,0.0007
1893.00,0.0007
1892.00,0.0007
1891.00,0.0006
1890.00,0.0005
1889.00,0.0005
1888.00,0.0006
1887.00,0.0007
1886.00,0.0008
1885.00,0.0009
1884.00,0.0009
1883.00,0.0008
1882.00,0.0008
1881.00,0.0008
1880.00,0.0008
1879.00,0.0007
1878.00,0.0007
1877.00,0.0006
1876.00,0.0005
1875.00,0.0004
1874.00,0.0004
1873.00,0.0005
1872.00,0.0006
1871.00,0.0007
1870.00,0.0007
1869.00,0.0006
1868.00,0.0006
1867.00,0.0005
1866.00,0.0005
1865.00,0.0006
1864.00,0.0007
1863.00,0.0008
1862.00,0.0008
1861.00,0.0008
1860.00,0.0008
1859.00,0.0007
1858.00,0.0006
1857.00,0.0006
1856.00,0.0007
1855.00,0.0007
1854.00,0.0008
1853.00,0.0008
1852.00,0.0009
1851.00,0.0009
1850.00,0.0009
1849.00,0.0009
1848.00,0.0008
1847.00,0.0008
1846.00,0.0008
1845.00,0.0009
1844.00,0.0009
1843.00,0.0010
1842.00,0.0010
1841.00,0.0010
1840.00,0.0011
1839.00,0.0011
1838.00,0.0012
1837.00,0.0012
1836.00,0.0011
1835.00,0.0011
1834.00,0.0010
1833.00,0.0010
1832.00,0.0010
1831.00,0.0010
1830.00,0.0010
1829.00,0.0009
1828.00,0.0009
1827.00,0.0009
1826.00,0.0009
1825.00,0.0009
1824.00,0.0010
1823.00,0.0010
1822.00,0.0010
1821.00,0.0010
1820.00,0.0010
1819.00,0.0009
1818.00,0.0009
1817.00,0.0008
1816.00,0.0008
1815.00,0.0008
1814.00,0.0008
1813.00,0.0009
1812.00,0.0009
1811.00,0.0009
1810.00,0.0009
1809.00,0.0010
1808.00,0.0011
1807.00,0.0011
1806.00,0.0011
1805.00,0.0011
1804.00,0.0011
1803.00,0.0012
1802.00,0.0012
1801.00,0.0012
1800.00,0.0012
1799.00,0.0013
1798.00,0.0013
1797.00,0.0013
1796.00,0.0014
1795.00,0.0014
1794.00,0.0014
1793.00,0.0015
1792.00,0.0015
1791.00,0.0016
1790.00,0.0016
1789.00,0.0017
1788.00,0.0018
1787.00,0.0019
1786.00,0.0020
1785.00,0.0021
1784.00,0.0021
1783.00,0.0021
1782.00,0.0021
1781.00,0.0022
1780.00,0.0022
1779.00,0.0022
1778.00,0.0022
1777.00,0.0022
1776.00,0.0021
1775.00,0.0021
1774.00,0.0021
1773.00,0.0021
1772.00,0.0022
1771.00,0.0023
1770.00,0.0024
1769.00,0.0025
1768.00,0.0026
1767.00,0.0025
1766.00,0.0025
1765.00,0.0025
1764.00,0.0026
1763.00,0.0026
1762.00,0.0026
1761.00,0.0026
1760.00,0.0027
1759.00,0.0027
1758.00,0.0028
1757.00,0.0028
1756.00,0.0029
1755.00,0.0029
1754.00,0.0030
1753.00,0.0031
1752.00,0.0032
1751.00,0.0032
1750.00,0.0032
1749.00,0.0032
1748.00,0.0032
1747.00,0.0033
1746.00,0.0033
1745.00,0.0034
1744.00,0.0035
1743.00,0.0036
1742.00,0.0036
1741.00,0.0036
1740.00,0.0037
1739.00,0.0038
1738.00,0.0038
1737.00,0.0039
1736.00,0.0038
1735.00,0.0038
1734.00,0.0039
1733.00,0.0040
1732.00,0.0041
1731.00,0.0041
1730.00,0.0041
1729.00,0.0041
1728.00,0.0040
1727.00,0.0040
1726.00,0.0039
1725.00,0.0039
1724.00,0.0039
1723.00,0.0039
1722.00,0.0039
1721.00,0.0039
1720.00,0.0039
1719.00,0.0038
1718.00,0.0037
1717.00,0.0037
1716.00,0.0037
1715.00,0.0038
1714.00,0.0038
1713.00,0.0039
1712.00,0.0040
1711.00,0.0040
1710.00,0.0040
1709.00,0.0041
1708.00,0.0041
1707.00,0.0041
1706.00,0.0042
1705.00,0.0042
1704.00,0.0043
1703.00,0.0043
1702.00,0.0043
1701.00,0.0044
1700.00,0.0044
1699.00,0.0044
1698.00,0.0044
1697.00,0.0046
1696.00,0.0048
1695.00,0.0050
1694.00,0.0052
1693.00,0.0053
1692.00,0.0055
1691.00,0.0056
1690.00,0.0057
1689.00,0.0059
1688.00,0.0060
1687.00,0.0060
1686.00,0.0061
1685.00,0.0062
1684.00,0.0065
1683.00,0.0069
1682.00,0.0072
1681.00,0.0074
1680.00,0.0076
1679.00,0.0077
1678.00,0.0078
1677.00,0.0079
1676.00,0.0081
1675.00,0.0084
1674.00,0.0086
1673.00,0.0088
1672.00,0.0089
1671.00,0.0090
1670.00,0.0092
1669.00,0.0094
1668.00,0.0096
1667.00,0.0098
1666.00,0.0100
1665.00,0.0101
1664.00,0.0103
1663.00,0.0104
1662.00,0.0106
1661.00,0.0108
1660.00,0.0111
1659.00,0.0113
1658.00,0.0114
1657.00,0.0116
1656.00,0.0117
1655.00,0.0118
1654.00,0.0119
1653.00,0.0122
1652.00,0.0124
1651.00,0.0126
1650.00,0.0126
1649.00,0.0127
1648.00,0.0128
1647.00,0.0129
1646.00,0.0131
1645.00,0.0133
1644.00,0.0135
1643.00,0.0136
1642.00,0.0137
1641.00,0.0138
1640.00,0.0139
1639.00,0.0139
1638.00,0.0139
1637.00,0.0139
1636.00,0.0139
1635.00,0.0139
1634.00,0.0139
1633.00,0.0139
1632.00,0.0139
1631.00,0.0138
1630.00,0.0138
1629.00,0.0137
1628.00,0.0136
1627.00,0.0134
1626.00,0.0133
1625.00,0.0132
1624.00,0.0130
1623.00,0.0129
1622.00,0.0129
1621.00,0.0129
1620.00,0.0129
1619.00,0.0127
1618.00,0.0126
1617.00,0.0125
1616.00,0.0125
1615.00,0.0126
1614.00,0.0126
1613.00,0.0126
1612.00,0.0127
1611.00,0.0126
1610.00,0.0126
1609.00,0.0126
1608.00,0.0126
1607.00,0.0126
1606.00,0.0126
1605.00,0.0126
1604.00,0.0126
1603.00,0.0125
1602.00,0.0124
1601.00,0.0124
1600.00,0.0123
1599.00,0.0122
1598.00,0.0122
1597.00,0.0121
1596.00,0.0120
1595.00,0.0120
1594.00,0.0119
1593.00,0.0119
1592.00,0.0119
1591.00,0.0119
1590.00,0.0119
1589.00,0.0119
1588.00,0.0119
1587.00,0.0119
1586.00,0.0120
1585.00,0.0122
1584.00,0.0124
1583.00,0.0126
1582.00,0.0129
1581.00,0.0131
1580.00,0.0133
1579.00,0.0133
1578.00,0.0134
1577.00,0.0133
1576.00,0.0133
1575.00,0.0133
1574.00,0.0131
1573.00,0.0130
1572.00,0.0128
1571.00,0.0126
1570.00,0.0124
1569.00,0.0123
1568.00,0.0123
1567.00,0.0122
1566.00,0.0122
1565.00,0.0123
1564.00,0.0124
1563.00,0.0124
1562.00,0.0124
1561.00,0.0125
1560.00,0.0125
1559.00,0.0126
1558.00,0.0128
1557.00,0.0131
1556.00,0.0134
1555.00,0.0136
1554.00,0.0138
1553.00,0.0141
1552.00,0.0143
1551.00,0.0146
1550.00,0.0148
1549.00,0.0150
1548.00,0.0152
1547.00,0.0155
1546.00,0.0157
1545.00,0.0159
1544.00,0.0161
1543.00,0.0162
1542.00,0.0163
1541.00,0.0164
1540.00,0.0164
1539.00,0.0162
1538.00,0.0160
1537.00,0.0157
1536.00,0.0154
1535.00,0.0150
1534.00,0.0144
1533.00,0.0139
1532.00,0.0136
1531.00,0.0133
1530.00,0.0130
1529.00,0.0128
1528.00,0.0125
1527.00,0.0122
1526.00,0.0119
1525.00,0.0117
1524.00,0.0114
1523.00,0.0112
1522.00,0.0109
1521.00,0.0108
1520.00,0.0108
1519.00,0.0107
1518.00,0.0107
1517.00,0.0106
1516.00,0.0107
1515.00,0.0107
1514.00,0.0106
1513.00,0.0107
1512.00,0.0108
1511.00,0.0109
1510.00,0.0109
1509.00,0.0110
1508.00,0.0111
1507.00,0.0112
1506.00,0.0113
1505.00,0.0117
1504.00,0.0121
1503.00,0.0125
1502.00,0.0129
1501.00,0.0134
1500.00,0.0140
1499.00,0.0147
1498.00,0.0155
1497.00,0.0167
1496.00,0.0180
1495.00,0.0191
1494.00,0.0199
1493.00,0.0207
1492.00,0.0214
1491.00,0.0220
1490.00,0.0226
1489.00,0.0232
1488.00,0.0239
1487.00,0.0245
1486.00,0.0251
1485.00,0.0258
1484.00,0.0265
1483.00,0.0273
1482.00,0.0282
1481.00,0.0293
1480.00,0.0306
1479.00,0.0320
1478.00,0.0338
1477.00,0.0364
1476.00,0.0395
1475.00,0.0431
1474.00,0.0474
1473.00,0.0528
1472.00,0.0585
1471.00,0.0638
1470.00,0.0689
1469.00,0.0746
1468.00,0.0811
1467.00,0.0887
1466.00,0.0980
1465.00,0.1086
1464.00,0.1181
1463.00,0.1247
1462.00,0.1287
1461.00,0.1312
1460.00,0.1327
1459.00,0.1335
1458.00,0.1341
1457.00,0.1345
1456.00,0.1342
1455.00,0.1333
1454.00,0.1320
1453.00,0.1301
1452.00,0.1271
1451.00,0.1230
1450.00,0.1173
1449.00,0.1097
1448.00,0.1001
1447.00,0.0901
1446.00,0.0813
1445.00,0.0739
1444.00,0.0677
1443.00,0.0626
1442.00,0.0588
1441.00,0.0562
1440.00,0.0547
1439.00,0.0541
1438.00,0.0543
1437.00,0.0544
1436.00,0.0533
1435.00,0.0506
1434.00,0.0467
1433.00,0.0420
1432.00,0.0371
1431.00,0.0328
1430.00,0.0295
1429.00,0.0272
1428.00,0.0257
1427.00,0.0249
1426.00,0.0245
1425.00,0.0241
1424.00,0.0238
1423.00,0.0237
1422.00,0.0238
1421.00,0.0239
1420.00,0.0240
1419.00,0.0242
1418.00,0.0245
1417.00,0.0246
1416.00,0.0247
1415.00,0.0249
1414.00,0.0253
1413.00,0.0256
1412.00,0.0260
1411.00,0.0266
1410.00,0.0273
1409.00,0.0280
1408.00,0.0287
1407.00,0.0296
1406.00,0.0307
1405.00,0.0320
1404.00,0.0334
1403.00,0.0350
1402.00,0.0366
1401.00,0.0383
1400.00,0.0401
1399.00,0.0422
1398.00,0.0442
1397.00,0.0459
1396.00,0.0476
1395.00,0.0493
1394.00,0.0509
1393.00,0.0520
1392.00,0.0527
1391.00,0.0536
1390.00,0.0548
1389.00,0.0567
1388.00,0.0595
1387.00,0.0637
1386.00,0.0690
1385.00,0.0756
1384.00,0.0842
1383.00,0.0955
1382.00,0.1103
1381.00,0.1291
1380.00,0.1522
1379.00,0.1787
1378.00,0.2046
1377.00,0.2239
1376.00,0.2306
1375.00,0.2210
1374.00,0.1972
1373.00,0.1678
1372.00,0.1402
1371.00,0.1169
1370.00,0.0979
1369.00,0.0832
1368.00,0.0726
1367.00,0.0659
1366.00,0.0619
1365.00,0.0600
1364.00,0.0595
1363.00,0.0603
1362.00,0.0619
1361.00,0.0638
1360.00,0.0652
1359.00,0.0653
1358.00,0.0638
1357.00,0.0606
1356.00,0.0563
1355.00,0.0514
1354.00,0.0466
1353.00,0.0425
1352.00,0.0392
1351.00,0.0365
1350.00,0.0343
1349.00,0.0325
1348.00,0.0311
1347.00,0.0300
1346.00,0.0290
1345.00,0.0283
1344.00,0.0276
1343.00,0.0269
1342.00,0.0263
1341.00,0.0256
1340.00,0.0250
1339.00,0.0245
1338.00,0.0241
1337.00,0.0237
1336.00,0.0235
1335.00,0.0235
1334.00,0.0235
1333.00,0.0237
1332.00,0.0239
1331.00,0.0240
1330.00,0.0239
1329.00,0.0235
1328.00,0.0228
1327.00,0.0220
1326.00,0.0211
1325.00,0.0202
1324.00,0.0194
1323.00,0.0186
1322.00,0.0179
1321.00,0.0174
1320.00,0.0169
1319.00,0.0165
1318.00,0.0162
1317.00,0.0158
1316.00,0.0155
1315.00,0.0153
1314.00,0.0152
1313.00,0.0151
1312.00,0.0151
1311.00,0.0152
1310.00,0.0155
1309.00,0.0161
1308.00,0.0169
1307.00,0.0179
1306.00,0.0189
1305.00,0.0196
1304.00,0.0199
1303.00,0.0197
1302.00,0.0194
1301.00,0.0191
1300.00,0.0190
1299.00,0.0191
1298.00,0.0192
1297.00,0.0193
1296.00,0.0192
1295.00,0.0190
1294.00,0.0187
1293.00,0.0183
1292.00,0.0178
1291.00,0.0174
1290.00,0.0170
1289.00,0.0167
1288.00,0.0165
1287.00,0.0163
1286.00,0.0163
1285.00,0.0164
1284.00,0.0165
1283.00,0.0166
1282.00,0.0168
1281.00,0.0170
1280.00,0.0173
1279.00,0.0177
1278.00,0.0182
1277.00,0.0188
1276.00,0.0193
1275.00,0.0200
1274.00,0.0207
1273.00,0.0215
1272.00,0.0225
1271.00,0.0234
1270.00,0.0244
1269.00,0.0254
1268.00,0.0264
1267.00,0.0274
1266.00,0.0285
1265.00,0.0295
1264.00,0.0304
1263.00,0.0311
1262.00,0.0317
1261.00,0.0323
1260.00,0.0330
1259.00,0.0338
1258.00,0.0347
1257.00,0.0356
1256.00,0.0364
1255.00,0.0368
1254.00,0.0370
1253.00,0.0368
1252.00,0.0364
1251.00,0.0357
1250.00,0.0349
1249.00,0.0339
1248.00,0.0328
1247.00,0.0319
1246.00,0.0311
1245.00,0.0306
1244.00,0.0304
1243.00,0.0302
1242.00,0.0301
1241.00,0.0298
1240.00,0.0295
1239.00,0.0291
1238.00,0.0286
1237.00,0.0281
1236.00,0.0274
1235.00,0.0267
1234.00,0.0260
1233.00,0.0253
1232.00,0.0246
1231.00,0.0239
1230.00,0.0233
1229.00,0.0227
1228.00,0.0221
1227.00,0.0215
1226.00,0.0210
1225.00,0.0207
1224.00,0.0204
1223.00,0.0203
1222.00,0.0203
1221.00,0.0202
1220.00,0.0200
1219.00,0.0198
1218.00,0.0194
1217.00,0.0189
1216.00,0.0183
1215.00,0.0177
1214.00,0.0171
1213.00,0.0166
1212.00,0.0160
1211.00,0.0155
1210.00,0.0151
1209.00,0.0148
1208.00,0.0145
1207.00,0.0144
1206.00,0.0143
1205.00,0.0142
1204.00,0.0142
1203.00,0.0142
1202.00,0.0142
1201.00,0.0143
1200.00,0.0143
1199.00,0.0145
1198.00,0.0147
1197.00,0.0150
1196.00,0.0153
1195.00,0.0156
1194.00,0.0160
1193.00,0.0164
1192.00,0.0168
1191.00,0.0174
1190.00,0.0181
1189.00,0.0188
1188.00,0.0195
1187.00,0.0203
1186.00,0.0211
1185.00,0.0220
1184.00,0.0230
1183.00,0.0240
1182.00,0.0250
1181.00,0.0261
1180.00,0.0273
1179.00,0.0285
1178.00,0.0299
1177.00,0.0315
1176.00,0.0333
1175.00,0.0355
1174.00,0.0381
1173.00,0.0412
1172.00,0.0446
1171.00,0.0484
1170.00,0.0521
1169.00,0.0553
1168.00,0.0576
1167.00,0.0588
1166.00,0.0591
1165.00,0.0588
1164.00,0.0582
1163.00,0.0574
1162.00,0.0566
1161.00,0.0561
1160.00,0.0559
1159.00,0.0559
1158.00,0.0561
1157.00,0.0563
1156.00,0.0566
1155.00,0.0568
1154.00,0.0570
1153.00,0.0571
1152.00,0.0569
1151.00,0.0564
1150.00,0.0556
1149.00,0.0544
1148.00,0.0530
1147.00,0.0516
1146.00,0.0501
1145.00,0.0486
1144.00,0.0473
1143.00,0.0460
1142.00,0.0449
1141.00,0.0440
1140.00,0.0432
1139.00,0.0424
1138.00,0.0416
1137.00,0.0406
1136.00,0.0397
1135.00,0.0388
1134.00,0.0380
1133.00,0.0375
1132.00,0.0371
1131.00,0.0367
1130.00,0.0364
1129.00,0.0361
1128.00,0.0357
1127.00,0.0354
1126.00,0.0351
1125.00,0.0348
1124.00,0.0345
1123.00,0.0341
1122.00,0.0337
1121.00,0.0334
1120.00,0.0331
1119.00,0.0328
1118.00,0.0324
1117.00,0.0320
1116.00,0.0316
1115.00,0.0312
1114.00,0.0308
1113.00,0.0304
1112.00,0.0302
1111.00,0.0301
1110.00,0.0302
1109.00,0.0304
1108.00,0.0309
1107.00,0.0316
1106.00,0.0324
1105.00,0.0332
1104.00,0.0339
1103.00,0.0344
1102.00,0.0347
1101.00,0.0348
1100.00,0.0347
1099.00,0.0345
1098.00,0.0345
1097.00,0.0346
1096.00,0.0349
1095.00,0.0352
1094.00,0.0356
1093.00,0.0360
1092.00,0.0364
1091.00,0.0368
1090.00,0.0372
1089.00,0.0374
1088.00,0.0376
1087.00,0.0376
1086.00,0.0377
1085.00,0.0377
1084.00,0.0378
1083.00,0.0379
1082.00,0.0380
1081.00,0.0379
1080.00,0.0377
1079.00,0.0375
1078.00,0.0372
1077.00,0.0371
1076.00,0.0372
1075.00,0.0374
1074.00,0.0377
1073.00,0.0378
1072.00,0.0377
1071.00,0.0373
1070.00,0.0367
1069.00,0.0358
1068.00,0.0348
1067.00,0.0338
1066.00,0.0329
1065.00,0.0321
1064.00,0.0315
1063.00,0.0309
1062.00,0.0304
1061.00,0.0299
1060.00,0.0294
1059.00,0.0287
1058.00,0.0279
1057.00,0.0271
1056.00,0.0262
1055.00,0.0254
1054.00,0.0247
1053.00,0.0240
1052.00,0.0232
1051.00,0.0224
1050.00,0.0217
1049.00,0.0212
1048.00,0.0209
1047.00,0.0206
1046.00,0.0203
1045.00,0.0199
1044.00,0.0193
1043.00,0.0187
1042.00,0.0181
1041.00,0.0176
1040.00,0.0172
1039.00,0.0169
1038.00,0.0167
1037.00,0.0165
1036.00,0.0164
1035.00,0.0162
1034.00,0.0161
1033.00,0.0159
1032.00,0.0157
1031.00,0.0155
1030.00,0.0152
1029.00,0.0149
1028.00,0.0146
1027.00,0.0144
1026.00,0.0142
1025.00,0.0141
1024.00,0.0140
1023.00,0.0139
1022.00,0.0139
1021.00,0.0139
1020.00,0.0140
1019.00,0.0141
1018.00,0.0142
1017.00,0.0143
1016.00,0.0145
1015.00,0.0147
1014.00,0.0150
1013.00,0.0153
1012.00,0.0155
1011.00,0.0157
1010.00,0.0159
1009.00,0.0161
1008.00,0.0165
1007.00,0.0170
1006.00,0.0178
1005.00,0.0188
1004.00,0.0201
1003.00,0.0220
1002.00,0.0245
1001.00,0.0275
1000.00,0.0306
999.00,0.0331
998.00,0.0343
997.00,0.0337
996.00,0.0314
995.00,0.0282
994.00,0.0248
993.00,0.0219
992.00,0.0196
991.00,0.0180
990.00,0.0168
989.00,0.0160
988.00,0.0156
987.00,0.0154
986.00,0.0156
985.00,0.0162
984.00,0.0171
983.00,0.0185
982.00,0.0202
981.00,0.0225
980.00,0.0254
979.00,0.0291
978.00,0.0336
977.00,0.0389
976.00,0.0447
975.00,0.0503
974.00,0.0550
973.00,0.0580
972.00,0.0587
971.00,0.0574
970.00,0.0547
969.00,0.0516
968.00,0.0488
967.00,0.0465
966.00,0.0447
965.00,0.0431
964.00,0.0416
963.00,0.0405
962.00,0.0396
961.00,0.0394
960.00,0.0398
959.00,0.0406
958.00,0.0415
957.00,0.0420
956.00,0.0421
955.00,0.0421
954.00,0.0420
953.00,0.0419
952.00,0.0415
951.00,0.0408
950.00,0.0399
949.00,0.0390
948.00,0.0382
947.00,0.0377
946.00,0.0375
945.00,0.0375
944.00,0.0376
943.00,0.0375
942.00,0.0373
941.00,0.0368
940.00,0.0359
939.00,0.0346
938.00,0.0331
937.00,0.0313
936.00,0.0295
935.00,0.0277
934.00,0.0259
933.00,0.0243
932.00,0.0227
931.00,0.0212
930.00,0.0197
929.00,0.0184
928.00,0.0173
927.00,0.0163
926.00,0.0155
925.00,0.0149
924.00,0.0144
923.00,0.0139
922.00,0.0136
921.00,0.0133
920.00,0.0131
919.00,0.0129
918.00,0.0126
917.00,0.0123
916.00,0.0120
915.00,0.0118
914.00,0.0117
913.00,0.0117
912.00,0.0117
911.00,0.0117
910.00,0.0117
909.00,0.0118
908.00,0.0120
907.00,0.0123
906.00,0.0130
905.00,0.0141
904.00,0.0156
903.00,0.0175
902.00,0.0196
901.00,0.0216
900.00,0.0230
899.00,0.0233
898.00,0.0224
897.00,0.0207
896.00,0.0185
895.00,0.0164
894.00,0.0147
893.00,0.0134
892.00,0.0124
891.00,0.0117
890.00,0.0111
889.00,0.0107
888.00,0.0105
887.00,0.0105
886.00,0.0105
885.00,0.0106
884.00,0.0105
883.00,0.0105
882.00,0.0105
881.00,0.0105
880.00,0.0106
879.00,0.0107
878.00,0.0108
877.00,0.0108
876.00,0.0107
875.00,0.0107
874.00,0.0107
873.00,0.0106
872.00,0.0105
871.00,0.0104
870.00,0.0104
869.00,0.0104
868.00,0.0104
867.00,0.0104
866.00,0.0104
865.00,0.0104
864.00,0.0104
863.00,0.0104
862.00,0.0105
861.00,0.0106
860.00,0.0108
859.00,0.0110
858.00,0.0113
857.00,0.0114
856.00,0.0114
855.00,0.0114
854.00,0.0115
853.00,0.0118
852.00,0.0121
851.00,0.0126
850.00,0.0131
849.00,0.0137
848.00,0.0145
847.00,0.0159
846.00,0.0180
845.00,0.0210
844.00,0.0250
843.00,0.0292
842.00,0.0323
841.00,0.0332
840.00,0.0313
839.00,0.0279
838.00,0.0243
837.00,0.0216
836.00,0.0199
835.00,0.0190
834.00,0.0186
833.00,0.0185
832.00,0.0185
831.00,0.0185
830.00,0.0185
829.00,0.0186
828.00,0.0185
827.00,0.0183
826.00,0.0181
825.00,0.0179
824.00,0.0179
823.00,0.0179
822.00,0.0180
821.00,0.0182
820.00,0.0184
819.00,0.0188
818.00,0.0194
817.00,0.0203
816.00,0.0212
815.00,0.0223
814.00,0.0237
813.00,0.0254
812.00,0.0272
811.00,0.0289
810.00,0.0300
809.00,0.0305
808.00,0.0303
807.00,0.0294
806.00,0.0279
805.00,0.0261
804.00,0.0243
803.00,0.0226
802.00,0.0213
801.00,0.0202
800.00,0.0191
799.00,0.0181
798.00,0.0171
797.00,0.0163
796.00,0.0157
795.00,0.0151
794.00,0.0145
793.00,0.0139
792.00,0.0134
791.00,0.0130
790.00,0.0127
789.00,0.0124
788.00,0.0121
787.00,0.0118
786.00,0.0115
785.00,0.0113
784.00,0.0110
783.00,0.0107
782.00,0.0105
781.00,0.0103
780.00,0.0102
779.00,0.0100
778.00,0.0099
777.00,0.0099
776.00,0.0099
775.00,0.0100
774.00,0.0102
773.00,0.0104
772.00,0.0107
771.00,0.0110
770.00,0.0113
769.00,0.0114
768.00,0.0115
767.00,0.0114
766.00,0.0112
765.00,0.0111
764.00,0.0110
763.00,0.0109
762.00,0.0107
761.00,0.0106
760.00,0.0104
759.00,0.0101
758.00,0.0098
757.00,0.0095
756.00,0.0092
755.00,0.0090
754.00,0.0091
753.00,0.0091
752.00,0.0092
751.00,0.0092
750.00,0.0093
749.00,0.0093
748.00,0.0094
747.00,0.0096
746.00,0.0098
745.00,0.0101
744.00,0.0102
743.00,0.0104
742.00,0.0106
741.00,0.0109
740.00,0.0111
739.00,0.0113
738.00,0.0115
737.00,0.0118
736.00,0.0122
735.00,0.0125
734.00,0.0127
733.00,0.0129
732.00,0.0129
731.00,0.0130
730.00,0.0132
729.00,0.0133
728.00,0.0135
727.00,0.0136
726.00,0.0137
725.00,0.0137
724.00,0.0136
723.00,0.0135
722.00,0.0133
721.00,0.0132
720.00,0.0128
719.00,0.0124
718.00,0.0119
717.00,0.0116
716.00,0.0113
715.00,0.0111
714.00,0.0109
713.00,0.0107
712.00,0.0107
711.00,0.0108
710.00,0.0111
709.00,0.0114
708.00,0.0118
707.00,0.0123
706.00,0.0128
705.00,0.0130
704.00,0.0129
703.00,0.0126
702.00,0.0122
701.00,0.0117
700.00,0.0111
699.00,0.0107
698.00,0.0104
697.00,0.0102
696.00,0.0101
695.00,0.0101
694.00,0.0102
693.00,0.0102
692.00,0.0102
691.00,0.0102
690.00,0.0102
689.00,0.0102
688.00,0.0101
687.00,0.0101
686.00,0.0102
685.00,0.0103
684.00,0.0103
683.00,0.0103
682.00,0.0103
681.00,0.0104
680.00,0.0104
679.00,0.0104
678.00,0.0102
677.00,0.0101
676.00,0.0100
675.00,0.0100
674.00,0.0101
673.00,0.0102
672.00,0.0105
671.00,0.0109
670.00,0.0112
669.00,0.0111
668.00,0.0106
667.00,0.0102
666.00,0.0102
665.00,0.0103
664.00,0.0104
663.00,0.0105
662.00,0.0106
661.00,0.0106
660.00,0.0105
659.00,0.0105
658.00,0.0106
657.00,0.0108
656.00,0.0108
655.00,0.0107
654.00,0.0104
653.00,0.0102
652.00,0.0101
651.00,0.0101
650.00,0.0102
649.00,0.0104
648.00,0.0105
647.00,0.0106
646.00,0.0107
645.00,0.0109
644.00,0.0110
643.00,0.0108
642.00,0.0106
641.00,0.0103
640.00,0.0102
639.00,0.0103
638.00,0.0105
637.00,0.0107
636.00,0.0109
635.00,0.0109
634.00,0.0110
633.00,0.0111
632.00,0.0110
631.00,0.0109
630.00,0.0107
629.00,0.0107
628.00,0.0108
627.00,0.0110
626.00,0.0112
625.00,0.0113
624.00,0.0112
623.00,0.0112
622.00,0.0113
621.00,0.0114
620.00,0.0114
619.00,0.0114
618.00,0.0113
617.00,0.0113
616.00,0.0114
615.00,0.0115
614.00,0.0115
613.00,0.0115
612.00,0.0114
611.00,0.0113
610.00,0.0113
609.00,0.0113
608.00,0.0112
607.00,0.0111
606.00,0.0109
605.00,0.0108
604.00,0.0107
603.00,0.0107
602.00,0.0106
601.00,0.0106
600.00,0.0106
599.00,0.0106
598.00,0.0108
597.00,0.0110
596.00,0.0112
595.00,0.0116
594.00,0.0118
593.00,0.0119
592.00,0.0118
591.00,0.0116
590.00,0.0114
589.00,0.0112
588.00,0.0110
587.00,0.0109
586.00,0.0109
585.00,0.0110
584.00,0.0112
583.00,0.0115
582.00,0.0117
581.00,0.0118
580.00,0.0117
579.00,0.0114
578.00,0.0113
577.00,0.0113
576.00,0.0114
575.00,0.0112
574.00,0.0109
573.00,0.0104
572.00,0.0101
571.00,0.0101
570.00,0.0104
569.00,0.0107
568.00,0.0108
567.00,0.0109
566.00,0.0111
565.00,0.0113
564.00,0.0114
563.00,0.0114
562.00,0.0113
561.00,0.0113
560.00,0.0116
559.00,0.0118
558.00,0.0120
557.00,0.0121
556.00,0.0120
555.00,0.0119
554.00,0.0119
553.00,0.0119
552.00,0.0120
551.00,0.0119
550.00,0.0117
549.00,0.0115
548.00,0.0114
547.00,0.0112
546.00,0.0110
545.00,0.0107
544.00,0.0106
543.00,0.0109
542.00,0.0116
541.00,0.0123
540.00,0.0127
539.00,0.0125
538.00,0.0121
537.00,0.0120
536.00,0.0123
535.00,0.0129
534.00,0.0134
533.00,0.0138
532.00,0.0140
531.00,0.0143
530.00,0.0144
529.00,0.0145
528.00,0.0144
527.00,0.0143
526.00,0.0139
525.00,0.0135
524.00,0.0131
523.00,0.0129
522.00,0.0130
521.00,0.0131
520.00,0.0131
519.00,0.0129
518.00,0.0126
517.00,0.0124
516.00,0.0123
515.00,0.0126
514.00,0.0129
513.00,0.0132
512.00,0.0132
511.00,0.0129
510.00,0.0124
509.00,0.0120
508.00,0.0117
507.00,0.0117
506.00,0.0118
505.00,0.0120
504.00,0.0124
503.00,0.0130
502.00,0.0137
501.00,0.0144
500.00,0.0147
499.00,0.0146
498.00,0.0144
497.00,0.0144
496.00,0.0146
495.00,0.0148
494.00,0.0148
493.00,0.0146
492.00,0.0142
491.00,0.0141
490.00,0.0144
489.00,0.0149
488.00,0.0153
487.00,0.0153
486.00,0.0152
485.00,0.0152
484.00,0.0152
483.00,0.0150
482.00,0.0145
481.00,0.0143
480.00,0.0145
479.00,0.0147
478.00,0.0146
477.00,0.0137
476.00,0.0125
475.00,0.0117
474.00,0.0117
473.00,0.0126
472.00,0.0139
471.00,0.0152
470.00,0.0159
469.00,0.0158
468.00,0.0150
467.00,0.0141
466.00,0.0139
465.00,0.0147
464.00,0.0159
463.00,0.0169
462.00,0.0179
461.00,0.0191
460.00,0.0205
459.00,0.0217
458.00,0.0222
457.00,0.0219
456.00,0.0212
455.00,0.0203
454.00,0.0194
453.00,0.0184
452.00,0.0175
451.00,0.0169
450.00,0.0163
