Created as New Dataset,Sample 017 By Administrator Date Friday, September 05 2025
cm-1,A
4000.00,0.0014
3999.00,0.0013
3998.00,0.0013
3997.00,0.0012
3996.00,0.0012
3995.00,0.0013
3994.00,0.0013
3993.00,0.0013
3992.00,0.0013
3991.00,0.0013
3990.00,0.0013
3989.00,0.0013
3988.00,0.0012
3987.00,0.0012
3986.00,0.0012
3985.00,0.0012
3984.00,0.0012
3983.00,0.0012
3982.00,0.0012
3981.00,0.0012
3980.00,0.0012
3979.00,0.0012
3978.00,0.0012
3977.00,0.0012
3976.00,0.0012
3975.00,0.0012
3974.00,0.0012
3973.00,0.0012
3972.00,0.0012
3971.00,0.0012
3970.00,0.0011
3969.00,0.0011
3968.00,0.0011
3967.00,0.0011
3966.00,0.0012
3965.00,0.0012
3964.00,0.0012
3963.00,0.0012
3962.00,0.0012
3961.00,0.0012
3960.00,0.0012
3959.00,0.0011
3958.00,0.0011
3957.00,0.0011
3956.00,0.0011
3955.00,0.0011
3954.00,0.0012
3953.00,0.0012
3952.00,0.0012
3951.00,0.0012
3950.00,0.0012
3949.00,0.0012
3948.00,0.0012
3947.00,0.0012
3946.00,0.0012
3945.00,0.0012
3944.00,0.0012
3943.00,0.0013
3942.00,0.0013
3941.00,0.0013
3940.00,0.0013
3939.00,0.0013
3938.00,0.0013
3937.00,0.0013
3936.00,0.0013
3935.00,0.0013
3934.00,0.0013
3933.00,0.0013
3932.00,0.0013
3931.00,0.0013
3930.00,0.0012
3929.00,0.0012
3928.00,0.0012
3927.00,0.0012
3926.00,0.0012
3925.00,0.0012
3924.00,0.0012
3923.00,0.0013
3922.00,0.0013
3921.00,0.0013
3920.00,0.0013
3919.00,0.0013
3918.00,0.0013
3917.00,0.0012
3916.00,0.0012
3915.00,0.0012
3914.00,0.0012
3913.00,0.0013
3912.00,0.0013
3911.00,0.0013
3910.00,0.0013
3909.00,0.0012
3908.00,0.0012
3907.00,0.0011
3906.00,0.0011
3905.00,0.0011
3904.00,0.0011
3903.00,0.0011
3902.00,0.0011
3901.00,0.0011
3900.00,0.0012
3899.00,0.0013
3898.00,0.0013
3897.00,0.0014
3896.00,0.0014
3895.00,0.0014
3894.00,0.0014
3893.00,0.0013
3892.00,0.0013
3891.00,0.0012
3890.00,0.0012
3889.00,0.0012
3888.00,0.0012
3887.00,0.0012
3886.00,0.0012
3885.00,0.0012
3884.00,0.0011
3883.00,0.0011
3882.00,0.0011
3881.00,0.0011
3880.00,0.0012
3879.00,0.0012
3878.00,0.0011
3877.00,0.0011
3876.00,0.0010
3875.00,0.0010
3874.00,0.0010
3873.00,0.0010
3872.00,0.0010
3871.00,0.0011
3870.00,0.0012
3869.00,0.0012
3868.00,0.0012
3867.00,0.0012
3866.00,0.0012
3865.00,0.0012
3864.00,0.0012
3863.00,0.0011
3862.00,0.0011
3861.00,0.0011
3860.00,0.0011
3859.00,0.0010
3858.00,0.0010
3857.00,0.0010
3856.00,0.0011
3855.00,0.0011
3854.00,0.0011
3853.00,0.0012
3852.00,0.0012
3851.00,0.0011
3850.00,0.0011
3849.00,0.0011
3848.00,0.0011
3847.00,0.0011
3846.00,0.0010
3845.00,0.0010
3844.00,0.0010
3843.00,0.0010
3842.00,0.0010
3841.00,0.0010
3840.00,0.0011
3839.00,0.0011
3838.00,0.0011
3837.00,0.0010
3836.00,0.0010
3835.00,0.0009
3834.00,0.0010
3833.00,0.0010
3832.00,0.0011
3831.00,0.0012
3830.00,0.0012
3829.00,0.0012
3828.00,0.0012
3827.00,0.0012
3826.00,0.0012
3825.00,0.0011
3824.00,0.0011
3823.00,0.0010
3822.00,0.0009
3821.00,0.0009
3820.00,0.0009
3819.00,0.0009
3818.00,0.0009
3817.00,0.0011
3816.00,0.0012
3815.00,0.0013
3814.00,0.0013
3813.00,0.0013
3812.00,0.0013
3811.00,0.0013
3810.00,0.0013
3809.00,0.0012
3808.00,0.0012
3807.00,0.0012
3806.00,0.0012
3805.00,0.0011
3804.00,0.0011
3803.00,0.0011
3802.00,0.0011
3801.00,0.0010
3800.00,0.0010
3799.00,0.0010
3798.00,0.0011
3797.00,0.0011
3796.00,0.0012
3795.00,0.0012
3794.00,0.0012
3793.00,0.0012
3792.00,0.0012
3791.00,0.0012
3790.00,0.0013
3789.00,0.0012
3788.00,0.0012
3787.00,0.0012
3786.00,0.0012
3785.00,0.0011
3784.00,0.0011
3783.00,0.0010
3782.00,0.0010
3781.00,0.0010
3780.00,0.0010
3779.00,0.0011
3778.00,0.0011
3777.00,0.0011
3776.00,0.0011
3775.00,0.0011
3774.00,0.0010
3773.00,0.0010
3772.00,0.0010
3771.00,0.0009
3770.00,0.0009
3769.00,0.0010
3768.00,0.0010
3767.00,0.0010
3766.00,0.0011
3765.00,0.0011
3764.00,0.0011
3763.00,0.0011
3762.00,0.0010
3761.00,0.0010
3760.00,0.0010
3759.00,0.0009
3758.00,0.0009
3757.00,0.0009
3756.00,0.0008
3755.00,0.0008
3754.00,0.0007
3753.00,0.0007
3752.00,0.0006
3751.00,0.0006
3750.00,0.0007
3749.00,0.0007
3748.00,0.0007
3747.00,0.0007
3746.00,0.0007
3745.00,0.0008
3744.00,0.0008
3743.00,0.0007
3742.00,0.0007
3741.00,0.0007
3740.00,0.0008
3739.00,0.0008
3738.00,0.0007
3737.00,0.0007
3736.00,0.0008
3735.00,0.0008
3734.00,0.0009
3733.00,0.0009
3732.00,0.0009
3731.00,0.0009
3730.00,0.0009
3729.00,0.0010
3728.00,0.0010
3727.00,0.0010
3726.00,0.0010
3725.00,0.0010
3724.00,0.0010
3723.00,0.0011
3722.00,0.0011
3721.00,0.0011
3720.00,0.0011
3719.00,0.0010
3718.00,0.0010
3717.00,0.0010
3716.00,0.0010
3715.00,0.0010
3714.00,0.0010
3713.00,0.0009
3712.00,0.0009
3711.00,0.0009
3710.00,0.0009
3709.00,0.0009
3708.00,0.0009
3707.00,0.0010
3706.00,0.0010
3705.00,0.0010
3704.00,0.0011
3703.00,0.0012
3702.00,0.0012
3701.00,0.0013
3700.00,0.0013
3699.00,0.0013
3698.00,0.0013
3697.00,0.0014
3696.00,0.0014
3695.00,0.0014
3694.00,0.0014
3693.00,0.0014
3692.00,0.0015
3691.00,0.0016
3690.00,0.0018
3689.00,0.0021
3688.00,0.0024
3687.00,0.0027
3686.00,0.0029
3685.00,0.0032
3684.00,0.0035
3683.00,0.0039
3682.00,0.0042
3681.00,0.0045
3680.00,0.0049
3679.00,0.0052
3678.00,0.0055
3677.00,0.0060
3676.00,0.0065
3675.00,0.0069
3674.00,0.0072
3673.00,0.0075
3672.00,0.0077
3671.00,0.0080
3670.00,0.0082
3669.00,0.0084
3668.00,0.0085
3667.00,0.0087
3666.00,0.0089
3665.00,0.0091
3664.00,0.0093
3663.00,0.0095
3662.00,0.0097
3661.00,0.0098
3660.00,0.0098
3659.00,0.0098
3658.00,0.0098
3657.00,0.0097
3656.00,0.0096
3655.00,0.0094
3654.00,0.0092
3653.00,0.0091
3652.00,0.0089
3651.00,0.0088
3650.00,0.0088
3649.00,0.0088
3648.00,0.0088
3647.00,0.0086
3646.00,0.0085
3645.00,0.0083
3644.00,0.0082
3643.00,0.0080
3642.00,0.0077
3641.00,0.0076
3640.00,0.0075
3639.00,0.0075
3638.00,0.0074
3637.00,0.0072
3636.00,0.0066
3635.00,0.0059
3634.00,0.0052
3633.00,0.0046
3632.00,0.0042
3631.00,0.0039
3630.00,0.0037
3629.00,0.0036
3628.00,0.0034
3627.00,0.0033
3626.00,0.0033
3625.00,0.0032
3624.00,0.0032
3623.00,0.0031
3622.00,0.0030
3621.00,0.0029
3620.00,0.0029
3619.00,0.0028
3618.00,0.0027
3617.00,0.0027
3616.00,0.0026
3615.00,0.0026
3614.00,0.0026
3613.00,0.0026
3612.00,0.0026
3611.00,0.0026
3610.00,0.0026
3609.00,0.0026
3608.00,0.0027
3607.00,0.0027
3606.00,0.0028
3605.00,0.0028
3604.00,0.0028
3603.00,0.0028
3602.00,0.0028
3601.00,0.0028
3600.00,0.0028
3599.00,0.0028
3598.00,0.0028
3597.00,0.0029
3596.00,0.0030
3595.00,0.0030
3594.00,0.0030
3593.00,0.0030
3592.00,0.0030
3591.00,0.0029
3590.00,0.0030
3589.00,0.0030
3588.00,0.0031
3587.00,0.0031
3586.00,0.0031
3585.00,0.0031
3584.00,0.0032
3583.00,0.0032
3582.00,0.0033
3581.00,0.0033
3580.00,0.0034
3579.00,0.0034
3578.00,0.0035
3577.00,0.0035
3576.00,0.0035
3575.00,0.0036
3574.00,0.0036
3573.00,0.0037
3572.00,0.0037
3571.00,0.0038
3570.00,0.0038
3569.00,0.0038
3568.00,0.0039
3567.00,0.0039
3566.00,0.0040
3565.00,0.0040
3564.00,0.0040
3563.00,0.0041
3562.00,0.0041
3561.00,0.0041
3560.00,0.0042
3559.00,0.0043
3558.00,0.0044
3557.00,0.0045
3556.00,0.0045
3555.00,0.0045
3554.00,0.0045
3553.00,0.0045
3552.00,0.0046
3551.00,0.0046
3550.00,0.0047
3549.00,0.0048
3548.00,0.0049
3547.00,0.0049
3546.00,0.0050
3545.00,0.0050
3544.00,0.0051
3543.00,0.0051
3542.00,0.0052
3541.00,0.0052
3540.00,0.0053
3539.00,0.0053
3538.00,0.0053
3537.00,0.0053
3536.00,0.0054
3535.00,0.0054
3534.00,0.0054
3533.00,0.0055
3532.00,0.0055
3531.00,0.0056
3530.00,0.0057
3529.00,0.0058
3528.00,0.0059
3527.00,0.0059
3526.00,0.0060
3525.00,0.0060
3524.00,0.0060
3523.00,0.0061
3522.00,0.0061
3521.00,0.0061
3520.00,0.0062
3519.00,0.0063
3518.00,0.0063
3517.00,0.0064
3516.00,0.0064
3515.00,0.0065
3514.00,0.0065
3513.00,0.0066
3512.00,0.0067
3511.00,0.0068
3510.00,0.0069
3509.00,0.0069
3508.00,0.0070
3507.00,0.0070
3506.00,0.0070
3505.00,0.0071
3504.00,0.0072
3503.00,0.0072
3502.00,0.0073
3501.00,0.0073
3500.00,0.0074
3499.00,0.0074
3498.00,0.0075
3497.00,0.0076
3496.00,0.0076
3495.00,0.0077
3494.00,0.0077
3493.00,0.0078
3492.00,0.0078
3491.00,0.0079
3490.00,0.0079
3489.00,0.0080
3488.00,0.0081
3487.00,0.0082
3486.00,0.0082
3485.00,0.0083
3484.00,0.0083
3483.00,0.0084
3482.00,0.0084
3481.00,0.0085
3480.00,0.0085
3479.00,0.0085
3478.00,0.0086
3477.00,0.0087
3476.00,0.0088
3475.00,0.0089
3474.00,0.0089
3473.00,0.0090
3472.00,0.0091
3471.00,0.0091
3470.00,0.0091
3469.00,0.0092
3468.00,0.0092
3467.00,0.0092
3466.00,0.0092
3465.00,0.0093
3464.00,0.0093
3463.00,0.0094
3462.00,0.0094
3461.00,0.0095
3460.00,0.0096
3459.00,0.0096
3458.00,0.0097
3457.00,0.0098
3456.00,0.0099
3455.00,0.0099
3454.00,0.0099
3453.00,0.0099
3452.00,0.0100
3451.00,0.0100
3450.00,0.0100
3449.00,0.0101
3448.00,0.0102
3447.00,0.0102
3446.00,0.0103
3445.00,0.0103
3444.00,0.0103
3443.00,0.0104
3442.00,0.0104
3441.00,0.0104
3440.00,0.0104
3439.00,0.0105
3438.00,0.0106
3437.00,0.0106
3436.00,0.0107
3435.00,0.0107
3434.00,0.0108
3433.00,0.0109
3432.00,0.0109
3431.00,0.0109
3430.00,0.0109
3429.00,0.0109
3428.00,0.0109
3427.00,0.0109
3426.00,0.0110
3425.00,0.0110
3424.00,0.0111
3423.00,0.0112
3422.00,0.0113
3421.00,0.0113
3420.00,0.0113
3419.00,0.0113
3418.00,0.0113
3417.00,0.0113
3416.00,0.0113
3415.00,0.0113
3414.00,0.0114
3413.00,0.0114
3412.00,0.0115
3411.00,0.0115
3410.00,0.0116
3409.00,0.0116
3408.00,0.0116
3407.00,0.0117
3406.00,0.0117
3405.00,0.0118
3404.00,0.0118
3403.00,0.0118
3402.00,0.0118
3401.00,0.0118
3400.00,0.0118
3399.00,0.0119
3398.00,0.0119
3397.00,0.0119
3396.00,0.0119
3395.00,0.0119
3394.00,0.0119
3393.00,0.0119
3392.00,0.0119
3391.00,0.0119
3390.00,0.0119
3389.00,0.0119
3388.00,0.0119
3387.00,0.0119
3386.00,0.0119
3385.00,0.0119
3384.00,0.0119
3383.00,0.0119
3382.00,0.0119
3381.00,0.0120
3380.00,0.0120
3379.00,0.0120
3378.00,0.0120
3377.00,0.0120
3376.00,0.0120
3375.00,0.0120
3374.00,0.0120
3373.00,0.0120
3372.00,0.0121
3371.00,0.0121
3370.00,0.0121
3369.00,0.0121
3368.00,0.0121
3367.00,0.0122
3366.00,0.0122
3365.00,0.0122
3364.00,0.0122
3363.00,0.0121
3362.00,0.0121
3361.00,0.0121
3360.00,0.0121
3359.00,0.0121
3358.00,0.0121
3357.00,0.0122
3356.00,0.0122
3355.00,0.0122
3354.00,0.0123
3353.00,0.0123
3352.00,0.0123
3351.00,0.0122
3350.00,0.0122
3349.00,0.0122
3348.00,0.0122
3347.00,0.0122
3346.00,0.0122
3345.00,0.0122
3344.00,0.0122
3343.00,0.0122
3342.00,0.0121
3341.00,0.0121
3340.00,0.0121
3339.00,0.0122
3338.00,0.0122
3337.00,0.0122
3336.00,0.0122
3335.00,0.0122
3334.00,0.0121
3333.00,0.0121
3332.00,0.0121
3331.00,0.0121
3330.00,0.0121
3329.00,0.0120
3328.00,0.0120
3327.00,0.0119
3326.00,0.0119
3325.00,0.0119
3324.00,0.0119
3323.00,0.0119
3322.00,0.0119
3321.00,0.0119
3320.00,0.0119
3319.00,0.0118
3318.00,0.0118
3317.00,0.0118
3316.00,0.0118
3315.00,0.0117
3314.00,0.0117
3313.00,0.0117
3312.00,0.0117
3311.00,0.0117
3310.00,0.0117
3309.00,0.0117
3308.00,0.0116
3307.00,0.0116
3306.00,0.0116
3305.00,0.0115
3304.00,0.0115
3303.00,0.0115
3302.00,0.0115
3301.00,0.0115
3300.00,0.0115
3299.00,0.0114
3298.00,0.0114
3297.00,0.0113
3296.00,0.0113
3295.00,0.0113
3294.00,0.0112
3293.00,0.0112
3292.00,0.0112
3291.00,0.0111
3290.00,0.0111
3289.00,0.0111
3288.00,0.0110
3287.00,0.0110
3286.00,0.0109
3285.00,0.0109
3284.00,0.0109
3283.00,0.0109
3282.00,0.0109
3281.00,0.0108
3280.00,0.0108
3279.00,0.0107
3278.00,0.0107
3277.00,0.0107
3276.00,0.0107
3275.00,0.0107
3274.00,0.0106
3273.00,0.0106
3272.00,0.0105
3271.00,0.0105
3270.00,0.0105
3269.00,0.0105
3268.00,0.0105
3267.00,0.0105
3266.00,0.0104
3265.00,0.0104
3264.00,0.0103
3263.00,0.0103
3262.00,0.0103
3261.00,0.0102
3260.00,0.0102
3259.00,0.0101
3258.00,0.0101
3257.00,0.0100
3256.00,0.0100
3255.00,0.0100
3254.00,0.0100
3253.00,0.0101
3252.00,0.0101
3251.00,0.0100
3250.00,0.0100
3249.00,0.0100
3248.00,0.0099
3247.00,0.0099
3246.00,0.0098
3245.00,0.0097
3244.00,0.0097
3243.00,0.0097
3242.00,0.0097
3241.00,0.0097
3240.00,0.0098
3239.00,0.0098
3238.00,0.0098
3237.00,0.0098
3236.00,0.0098
3235.00,0.0097
3234.00,0.0097
3233.00,0.0097
3232.00,0.0097
3231.00,0.0097
3230.00,0.0098
3229.00,0.0098
3228.00,0.0098
3227.00,0.0098
3226.00,0.0098
3225.00,0.0097
3224.00,0.0097
3223.00,0.0097
3222.00,0.0097
3221.00,0.0097
3220.00,0.0098
3219.00,0.0098
3218.00,0.0098
3217.00,0.0098
3216.00,0.0098
3215.00,0.0099
3214.00,0.0099
3213.00,0.0099
3212.00,0.0099
3211.00,0.0099
3210.00,0.0099
3209.00,0.0100
3208.00,0.0100
3207.00,0.0100
3206.00,0.0100
3205.00,0.0100
3204.00,0.0100
3203.00,0.0100
3202.00,0.0100
3201.00,0.0100
3200.00,0.0100
3199.00,0.0101
3198.00,0.0100
3197.00,0.0100
3196.00,0.0100
3195.00,0.0099
3194.00,0.0099
3193.00,0.0099
3192.00,0.0099
3191.00,0.0099
3190.00,0.0099
3189.00,0.0099
3188.00,0.0099
3187.00,0.0098
3186.00,0.0098
3185.00,0.0097
3184.00,0.0096
3183.00,0.0095
3182.00,0.0095
3181.00,0.0094
3180.00,0.0094
3179.00,0.0094
3178.00,0.0094
3177.00,0.0093
3176.00,0.0093
3175.00,0.0092
3174.00,0.0092
3173.00,0.0092
3172.00,0.0091
3171.00,0.0091
3170.00,0.0090
3169.00,0.0089
3168.00,0.0088
3167.00,0.0088
3166.00,0.0087
3165.00,0.0087
3164.00,0.0086
3163.00,0.0086
3162.00,0.0085
3161.00,0.0084
3160.00,0.0084
3159.00,0.0083
3158.00,0.0083
3157.00,0.0083
3156.00,0.0082
3155.00,0.0082
3154.00,0.0081
3153.00,0.0081
3152.00,0.0080
3151.00,0.0080
3150.00,0.0080
3149.00,0.0080
3148.00,0.0080
3147.00,0.0080
3146.00,0.0080
3145.00,0.0079
3144.00,0.0079
3143.00,0.0078
3142.00,0.0078
3141.00,0.0077
3140.00,0.0077
3139.00,0.0076
3138.00,0.0076
3137.00,0.0075
3136.00,0.0075
3135.00,0.0075
3134.00,0.0075
3133.00,0.0074
3132.00,0.0074
3131.00,0.0074
3130.00,0.0073
3129.00,0.0073
3128.00,0.0073
3127.00,0.0072
3126.00,0.0072
3125.00,0.0072
3124.00,0.0071
3123.00,0.0071
3122.00,0.0070
3121.00,0.0069
3120.00,0.0069
3119.00,0.0068
3118.00,0.0068
3117.00,0.0068
3116.00,0.0067
3115.00,0.0067
3114.00,0.0067
3113.00,0.0067
3112.00,0.0066
3111.00,0.0066
3110.00,0.0066
3109.00,0.0066
3108.00,0.0066
3107.00,0.0066
3106.00,0.0065
3105.00,0.0065
3104.00,0.0065
3103.00,0.0064
3102.00,0.0064
3101.00,0.0063
3100.00,0.0063
3099.00,0.0062
3098.00,0.0062
3097.00,0.0062
3096.00,0.0062
3095.00,0.0062
3094.00,0.0061
3093.00,0.0061
3092.00,0.0062
3091.00,0.0062
3090.00,0.0062
3089.00,0.0061
3088.00,0.0061
3087.00,0.0061
3086.00,0.0060
3085.00,0.0060
3084.00,0.0060
3083.00,0.0060
3082.00,0.0059
3081.00,0.0059
3080.00,0.0059
3079.00,0.0059
3078.00,0.0059
3077.00,0.0060
3076.00,0.0060
3075.00,0.0060
3074.00,0.0059
3073.00,0.0059
3072.00,0.0059
3071.00,0.0060
3070.00,0.0060
3069.00,0.0060
3068.00,0.0061
3067.00,0.0061
3066.00,0.0061
3065.00,0.0062
3064.00,0.0062
3063.00,0.0062
3062.00,0.0062
3061.00,0.0061
3060.00,0.0061
3059.00,0.0061
3058.00,0.0061
3057.00,0.0061
3056.00,0.0061
3055.00,0.0061
3054.00,0.0061
3053.00,0.0061
3052.00,0.0061
3051.00,0.0061
3050.00,0.0061
3049.00,0.0061
3048.00,0.0062
3047.00,0.0062
3046.00,0.0063
3045.00,0.0064
3044.00,0.0064
3043.00,0.0065
3042.00,0.0065
3041.00,0.0065
3040.00,0.0066
3039.00,0.0066
3038.00,0.0067
3037.00,0.0067
3036.00,0.0068
3035.00,0.0068
3034.00,0.0069
3033.00,0.0070
3032.00,0.0071
3031.00,0.0072
3030.00,0.0072
3029.00,0.0073
3028.00,0.0075
3027.00,0.0076
3026.00,0.0078
3025.00,0.0081
3024.00,0.0083
3023.00,0.0086
3022.00,0.0089
3021.00,0.0093
3020.00,0.0097
3019.00,0.0101
3018.00,0.0107
3017.00,0.0114
3016.00,0.0123
3015.00,0.0132
3014.00,0.0144
3013.00,0.0156
3012.00,0.0171
3011.00,0.0187
3010.00,0.0205
3009.00,0.0225
3008.00,0.0247
3007.00,0.0271
3006.00,0.0295
3005.00,0.0321
3004.00,0.0347
3003.00,0.0373
3002.00,0.0399
3001.00,0.0425
3000.00,0.0449
2999.00,0.0471
2998.00,0.0492
2997.00,0.0511
2996.00,0.0529
2995.00,0.0546
2994.00,0.0563
2993.00,0.0581
2992.00,0.0598
2991.00,0.0615
2990.00,0.0632
2989.00,0.0651
2988.00,0.0675
2987.00,0.0707
2986.00,0.0755
2985.00,0.0824
2984.00,0.0909
2983.00,0.0994
2982.00,0.1056
2981.00,0.1084
2980.00,0.1081
2979.00,0.1064
2978.00,0.1047
2977.00,0.1040
2976.00,0.1048
2975.00,0.1074
2974.00,0.1118
2973.00,0.1174
2972.00,0.1231
2971.00,0.1280
2970.00,0.1322
2969.00,0.1362
2968.00,0.1413
2967.00,0.1477
2966.00,0.1553
2965.00,0.1637
2964.00,0.1726
2963.00,0.1816
2962.00,0.1904
2961.00,0.1983
2960.00,0.2051
2959.00,0.2102
2958.00,0.2138
2957.00,0.2159
2956.00,0.2169
2955.00,0.2173
2954.00,0.2175
2953.00,0.2177
2952.00,0.2176
2951.00,0.2166
2950.00,0.2141
2949.00,0.2093
2948.00,0.2020
2947.00,0.1922
2946.00,0.1806
2945.00,0.1683
2944.00,0.1564
2943.00,0.1460
2942.00,0.1377
2941.00,0.1318
2940.00,0.1283
2939.00,0.1268
2938.00,0.1272
2937.00,0.1292
2936.00,0.1328
2935.00,0.1378
2934.00,0.1441
2933.00,0.1514
2932.00,0.1595
2931.00,0.1681
2930.00,0.1769
2929.00,0.1857
2928.00,0.1942
2927.00,0.2023
2926.00,0.2099
2925.00,0.2169
2924.00,0.2234
2923.00,0.2296
2922.00,0.2356
2921.00,0.2412
2920.00,0.2460
2919.00,0.2497
2918.00,0.2516
2917.00,0.2513
2916.00,0.2486
2915.00,0.2439
2914.00,0.2377
2913.00,0.2307
2912.00,0.2236
2911.00,0.2169
2910.00,0.2109
2909.00,0.2055
2908.00,0.2004
2907.00,0.1955
2906.00,0.1905
2905.00,0.1852
2904.00,0.1796
2903.00,0.1738
2902.00,0.1677
2901.00,0.1615
2900.00,0.1555
2899.00,0.1497
2898.00,0.1444
2897.00,0.1396
2896.00,0.1354
2895.00,0.1320
2894.00,0.1293
2893.00,0.1273
2892.00,0.1259
2891.00,0.1249
2890.00,0.1242
2889.00,0.1237
2888.00,0.1235
2887.00,0.1236
2886.00,0.1241
2885.00,0.1249
2884.00,0.1259
2883.00,0.1270
2882.00,0.1279
2881.00,0.1288
2880.00,0.1297
2879.00,0.1304
2878.00,0.1307
2877.00,0.1304
2876.00,0.1297
2875.00,0.1286
2874.00,0.1276
2873.00,0.1270
2872.00,0.1270
2871.00,0.1275
2870.00,0.1285
2869.00,0.1295
2868.00,0.1301
2867.00,0.1295
2866.00,0.1272
2865.00,0.1230
2864.00,0.1170
2863.00,0.1099
2862.00,0.1025
2861.00,0.0956
2860.00,0.0896
2859.00,0.0849
2858.00,0.0813
2857.00,0.0787
2856.00,0.0770
2855.00,0.0760
2854.00,0.0755
2853.00,0.0754
2852.00,0.0757
2851.00,0.0762
2850.00,0.0770
2849.00,0.0781
2848.00,0.0796
2847.00,0.0818
2846.00,0.0848
2845.00,0.0888
2844.00,0.0939
2843.00,0.0997
2842.00,0.1061
2841.00,0.1124
2840.00,0.1179
2839.00,0.1216
2838.00,0.1227
2837.00,0.1207
2836.00,0.1154
2835.00,0.1072
2834.00,0.0973
2833.00,0.0867
2832.00,0.0765
2831.00,0.0674
2830.00,0.0596
2829.00,0.0531
2828.00,0.0479
2827.00,0.0437
2826.00,0.0402
2825.00,0.0374
2824.00,0.0350
2823.00,0.0330
2822.00,0.0312
2821.00,0.0296
2820.00,0.0282
2819.00,0.0270
2818.00,0.0260
2817.00,0.0251
2816.00,0.0243
2815.00,0.0236
2814.00,0.0229
2813.00,0.0223
2812.00,0.0217
2811.00,0.0212
2810.00,0.0206
2809.00,0.0201
2808.00,0.0195
2807.00,0.0189
2806.00,0.0183
2805.00,0.0177
2804.00,0.0171
2803.00,0.0165
2802.00,0.0160
2801.00,0.0155
2800.00,0.0152
2799.00,0.0148
2798.00,0.0146
2797.00,0.0143
2796.00,0.0141
2795.00,0.0138
2794.00,0.0135
2793.00,0.0132
2792.00,0.0129
2791.00,0.0125
2790.00,0.0121
2789.00,0.0117
2788.00,0.0114
2787.00,0.0111
2786.00,0.0108
2785.00,0.0105
2784.00,0.0102
2783.00,0.0100
2782.00,0.0097
2781.00,0.0095
2780.00,0.0092
2779.00,0.0090
2778.00,0.0089
2777.00,0.0087
2776.00,0.0086
2775.00,0.0085
2774.00,0.0085
2773.00,0.0084
2772.00,0.0083
2771.00,0.0083
2770.00,0.0082
2769.00,0.0081
2768.00,0.0081
2767.00,0.0080
2766.00,0.0079
2765.00,0.0079
2764.00,0.0078
2763.00,0.0078
2762.00,0.0077
2761.00,0.0076
2760.00,0.0075
2759.00,0.0075
2758.00,0.0075
2757.00,0.0074
2756.00,0.0074
2755.00,0.0073
2754.00,0.0073
2753.00,0.0073
2752.00,0.0073
2751.00,0.0073
2750.00,0.0073
2749.00,0.0072
2748.00,0.0072
2747.00,0.0072
2746.00,0.0073
2745.00,0.0074
2744.00,0.0075
2743.00,0.0075
2742.00,0.0076
2741.00,0.0078
2740.00,0.0079
2739.00,0.0080
2738.00,0.0081
2737.00,0.0082
2736.00,0.0083
2735.00,0.0084
2734.00,0.0085
2733.00,0.0086
2732.00,0.0088
2731.00,0.0090
2730.00,0.0092
2729.00,0.0094
2728.00,0.0095
2727.00,0.0097
2726.00,0.0099
2725.00,0.0101
2724.00,0.0102
2723.00,0.0102
2722.00,0.0101
2721.00,0.0099
2720.00,0.0097
2719.00,0.0094
2718.00,0.0091
2717.00,0.0087
2716.00,0.0084
2715.00,0.0082
2714.00,0.0080
2713.00,0.0078
2712.00,0.0076
2711.00,0.0074
2710.00,0.0073
2709.00,0.0071
2708.00,0.0069
2707.00,0.0068
2706.00,0.0067
2705.00,0.0066
2704.00,0.0066
2703.00,0.0065
2702.00,0.0064
2701.00,0.0063
2700.00,0.0062
2699.00,0.0062
2698.00,0.0061
2697.00,0.0061
2696.00,0.0061
2695.00,0.0061
2694.00,0.0061
2693.00,0.0060
2692.00,0.0061
2691.00,0.0061
2690.00,0.0061
2689.00,0.0062
2688.00,0.0062
2687.00,0.0062
2686.00,0.0062
2685.00,0.0062
2684.00,0.0062
2683.00,0.0062
2682.00,0.0062
2681.00,0.0062
2680.00,0.0062
2679.00,0.0063
2678.00,0.0063
2677.00,0.0063
2676.00,0.0064
2675.00,0.0064
2674.00,0.0065
2673.00,0.0065
2672.00,0.0065
2671.00,0.0065
2670.00,0.0065
2669.00,0.0066
2668.00,0.0066
2667.00,0.0067
2666.00,0.0067
2665.00,0.0067
2664.00,0.0067
2663.00,0.0067
2662.00,0.0068
2661.00,0.0068
2660.00,0.0068
2659.00,0.0068
2658.00,0.0067
2657.00,0.0067
2656.00,0.0067
2655.00,0.0066
2654.00,0.0065
2653.00,0.0065
2652.00,0.0064
2651.00,0.0063
2650.00,0.0063
2649.00,0.0062
2648.00,0.0062
2647.00,0.0062
2646.00,0.0061
2645.00,0.0061
2644.00,0.0061
2643.00,0.0060
2642.00,0.0060
2641.00,0.0059
2640.00,0.0059
2639.00,0.0058
2638.00,0.0057
2637.00,0.0057
2636.00,0.0056
2635.00,0.0055
2634.00,0.0054
2633.00,0.0054
2632.00,0.0054
2631.00,0.0054
2630.00,0.0055
2629.00,0.0055
2628.00,0.0054
2627.00,0.0054
2626.00,0.0054
2625.00,0.0054
2624.00,0.0054
2623.00,0.0054
2622.00,0.0054
2621.00,0.0055
2620.00,0.0055
2619.00,0.0054
2618.00,0.0053
2617.00,0.0052
2616.00,0.0051
2615.00,0.0050
2614.00,0.0050
2613.00,0.0050
2612.00,0.0050
2611.00,0.0050
2610.00,0.0050
2609.00,0.0049
2608.00,0.0049
2607.00,0.0048
2606.00,0.0047
2605.00,0.0045
2604.00,0.0045
2603.00,0.0044
2602.00,0.0044
2601.00,0.0043
2600.00,0.0042
2599.00,0.0042
2598.00,0.0041
2597.00,0.0041
2596.00,0.0041
2595.00,0.0041
2594.00,0.0042
2593.00,0.0042
2592.00,0.0042
2591.00,0.0042
2590.00,0.0043
2589.00,0.0043
2588.00,0.0043
2587.00,0.0044
2586.00,0.0044
2585.00,0.0045
2584.00,0.0045
2583.00,0.0046
2582.00,0.0046
2581.00,0.0046
2580.00,0.0045
2579.00,0.0044
2578.00,0.0043
2577.00,0.0042
2576.00,0.0041
2575.00,0.0040
2574.00,0.0039
2573.00,0.0038
2572.00,0.0037
2571.00,0.0036
2570.00,0.0034
2569.00,0.0033
2568.00,0.0033
2567.00,0.0033
2566.00,0.0032
2565.00,0.0031
2564.00,0.0031
2563.00,0.0031
2562.00,0.0031
2561.00,0.0031
2560.00,0.0031
2559.00,0.0031
2558.00,0.0031
2557.00,0.0031
2556.00,0.0031
2555.00,0.0030
2554.00,0.0029
2553.00,0.0028
2552.00,0.0028
2551.00,0.0028
2550.00,0.0028
2549.00,0.0027
2548.00,0.0028
2547.00,0.0028
2546.00,0.0028
2545.00,0.0027
2544.00,0.0027
2543.00,0.0026
2542.00,0.0026
2541.00,0.0026
2540.00,0.0026
2539.00,0.0026
2538.00,0.0025
2537.00,0.0024
2536.00,0.0024
2535.00,0.0024
2534.00,0.0023
2533.00,0.0023
2532.00,0.0023
2531.00,0.0024
2530.00,0.0024
2529.00,0.0024
2528.00,0.0024
2527.00,0.0024
2526.00,0.0023
2525.00,0.0023
2524.00,0.0022
2523.00,0.0022
2522.00,0.0021
2521.00,0.0021
2520.00,0.0022
2519.00,0.0022
2518.00,0.0023
2517.00,0.0022
2516.00,0.0022
2515.00,0.0021
2514.00,0.0021
2513.00,0.0021
2512.00,0.0020
2511.00,0.0020
2510.00,0.0020
2509.00,0.0019
2508.00,0.0019
2507.00,0.0019
2506.00,0.0019
2505.00,0.0019
2504.00,0.0019
2503.00,0.0019
2502.00,0.0019
2501.00,0.0020
2500.00,0.0020
2499.00,0.0020
2498.00,0.0019
2497.00,0.0019
2496.00,0.0018
2495.00,0.0018
2494.00,0.0018
2493.00,0.0018
2492.00,0.0018
2491.00,0.0018
2490.00,0.0018
2489.00,0.0018
2488.00,0.0018
2487.00,0.0019
2486.00,0.0019
2485.00,0.0018
2484.00,0.0018
2483.00,0.0018
2482.00,0.0018
2481.00,0.0018
2480.00,0.0017
2479.00,0.0017
2478.00,0.0017
2477.00,0.0016
2476.00,0.0016
2475.00,0.0015
2474.00,0.0015
2473.00,0.0015
2472.00,0.0015
2471.00,0.0016
2470.00,0.0016
2469.00,0.0016
2468.00,0.0017
2467.00,0.0017
2466.00,0.0017
2465.00,0.0018
2464.00,0.0018
2463.00,0.0018
2462.00,0.0018
2461.00,0.0019
2460.00,0.0019
2459.00,0.0019
2458.00,0.0019
2457.00,0.0019
2456.00,0.0019
2455.00,0.0019
2454.00,0.0019
2453.00,0.0019
2452.00,0.0019
2451.00,0.0019
2450.00,0.0019
2449.00,0.0019
2448.00,0.0019
2447.00,0.0019
2446.00,0.0019
2445.00,0.0019
2444.00,0.0018
2443.00,0.0018
2442.00,0.0019
2441.00,0.0019
2440.00,0.0019
2439.00,0.0019
2438.00,0.0019
2437.00,0.0018
2436.00,0.0018
2435.00,0.0018
2434.00,0.0019
2433.00,0.0019
2432.00,0.0020
2431.00,0.0020
2430.00,0.0020
2429.00,0.0019
2428.00,0.0019
2427.00,0.0019
2426.00,0.0018
2425.00,0.0017
2424.00,0.0017
2423.00,0.0017
2422.00,0.0017
2421.00,0.0017
2420.00,0.0018
2419.00,0.0018
2418.00,0.0018
2417.00,0.0017
2416.00,0.0017
2415.00,0.0016
2414.00,0.0016
2413.00,0.0016
2412.00,0.0016
2411.00,0.0017
2410.00,0.0017
2409.00,0.0017
2408.00,0.0017
2407.00,0.0016
2406.00,0.0016
2405.00,0.0016
2404.00,0.0016
2403.00,0.0016
2402.00,0.0016
2401.00,0.0016
2400.00,0.0016
2399.00,0.0016
2398.00,0.0016
2397.00,0.0016
2396.00,0.0016
2395.00,0.0015
2394.00,0.0015
2393.00,0.0015
2392.00,0.0014
2391.00,0.0014
2390.00,0.0014
2389.00,0.0014
2388.00,0.0014
2387.00,0.0014
2386.00,0.0014
2385.00,0.0013
2384.00,0.0013
2383.00,0.0013
2382.00,0.0013
2381.00,0.0013
2380.00,0.0012
2379.00,0.0012
2378.00,0.0012
2377.00,0.0012
2376.00,0.0012
2375.00,0.0012
2374.00,0.0012
2373.00,0.0012
2372.00,0.0012
2371.00,0.0012
2370.00,0.0012
2369.00,0.0013
2368.00,0.0013
2367.00,0.0013
2366.00,0.0013
2365.00,0.0013
2364.00,0.0013
2363.00,0.0013
2362.00,0.0013
2361.00,0.0013
2360.00,0.0013
2359.00,0.0013
2358.00,0.0014
2357.00,0.0014
2356.00,0.0014
2355.00,0.0015
2354.00,0.0014
2353.00,0.0014
2352.00,0.0013
2351.00,0.0014
2350.00,0.0015
2349.00,0.0016
2348.00,0.0017
2347.00,0.0017
2346.00,0.0016
2345.00,0.0016
2344.00,0.0016
2343.00,0.0016
2342.00,0.0016
2341.00,0.0017
2340.00,0.0017
2339.00,0.0016
2338.00,0.0017
2337.00,0.0017
2336.00,0.0018
2335.00,0.0018
2334.00,0.0017
2333.00,0.0016
2332.00,0.0015
2331.00,0.0015
2330.00,0.0015
2329.00,0.0017
2328.00,0.0019
2327.00,0.0022
2326.00,0.0025
2325.00,0.0028
2324.00,0.0029
2323.00,0.0027
2322.00,0.0025
2321.00,0.0023
2320.00,0.0022
2319.00,0.0021
2318.00,0.0020
2317.00,0.0020
2316.00,0.0019
2315.00,0.0019
2314.00,0.0018
2313.00,0.0017
2312.00,0.0016
2311.00,0.0016
2310.00,0.0016
2309.00,0.0016
2308.00,0.0016
2307.00,0.0016
2306.00,0.0016
2305.00,0.0016
2304.00,0.0016
2303.00,0.0016
2302.00,0.0017
2301.00,0.0018
2300.00,0.0018
2299.00,0.0018
2298.00,0.0019
2297.00,0.0019
2296.00,0.0019
2295.00,0.0019
2294.00,0.0019
2293.00,0.0020
2292.00,0.0021
2291.00,0.0022
2290.00,0.0023
2289.00,0.0024
2288.00,0.0025
2287.00,0.0025
2286.00,0.0025
2285.00,0.0025
2284.00,0.0024
2283.00,0.0023
2282.00,0.0021
2281.00,0.0020
2280.00,0.0019
2279.00,0.0019
2278.00,0.0018
2277.00,0.0017
2276.00,0.0017
2275.00,0.0016
2274.00,0.0015
2273.00,0.0015
2272.00,0.0014
2271.00,0.0013
2270.00,0.0013
2269.00,0.0014
2268.00,0.0014
2267.00,0.0014
2266.00,0.0013
2265.00,0.0013
2264.00,0.0013
2263.00,0.0013
2262.00,0.0013
2261.00,0.0013
2260.00,0.0013
2259.00,0.0013
2258.00,0.0014
2257.00,0.0014
2256.00,0.0014
2255.00,0.0013
2254.00,0.0012
2253.00,0.0012
2252.00,0.0013
2251.00,0.0013
2250.00,0.0014
2249.00,0.0014
2248.00,0.0013
2247.00,0.0012
2246.00,0.0012
2245.00,0.0013
2244.00,0.0013
2243.00,0.0014
2242.00,0.0014
2241.00,0.0014
2240.00,0.0015
2239.00,0.0015
2238.00,0.0015
2237.00,0.0014
2236.00,0.0013
2235.00,0.0012
2234.00,0.0012
2233.00,0.0012
2232.00,0.0013
2231.00,0.0014
2230.00,0.0015
2229.00,0.0016
2228.00,0.0015
2227.00,0.0014
2226.00,0.0013
2225.00,0.0012
2224.00,0.0011
2223.00,0.0010
2222.00,0.0009
2221.00,0.0008
2220.00,0.0008
2219.00,0.0008
2218.00,0.0010
2217.00,0.0011
2216.00,0.0013
2215.00,0.0013
2214.00,0.0012
2213.00,0.0012
2212.00,0.0012
2211.00,0.0012
2210.00,0.0012
2209.00,0.0012
2208.00,0.0013
2207.00,0.0014
2206.00,0.0015
2205.00,0.0015
2204.00,0.0015
2203.00,0.0016
2202.00,0.0016
2201.00,0.0016
2200.00,0.0015
2199.00,0.0014
2198.00,0.0012
2197.00,0.0011
2196.00,0.0011
2195.00,0.0011
2194.00,0.0013
2193.00,0.0016
2192.00,0.0018
2191.00,0.0019
2190.00,0.0020
2189.00,0.0019
2188.00,0.0019
2187.00,0.0018
2186.00,0.0017
2185.00,0.0016
2184.00,0.0016
2183.00,0.0015
2182.00,0.0012
2181.00,0.0010
2180.00,0.0008
2179.00,0.0007
2178.00,0.0007
2177.00,0.0006
2176.00,0.0005
2175.00,0.0006
2174.00,0.0008
2173.00,0.0012
2172.00,0.0014
2171.00,0.0016
2170.00,0.0018
2169.00,0.0020
2168.00,0.0023
2167.00,0.0024
2166.00,0.0024
2165.00,0.0022
2164.00,0.0019
2163.00,0.0017
2162.00,0.0016
2161.00,0.0015
2160.00,0.0009
2159.00,-0.0001
2158.00,-0.0013
2157.00,-0.0019
2156.00,-0.0021
2155.00,-0.0019
2154.00,-0.0015
2153.00,-0.0011
2152.00,-0.0007
2151.00,-0.0005
2150.00,-0.0004
2149.00,-0.0004
2148.00,-0.0005
2147.00,-0.0006
2146.00,-0.0006
2145.00,-0.0005
2144.00,-0.0005
2143.00,-0.0005
2142.00,-0.0005
2141.00,-0.0006
2140.00,-0.0006
2139.00,-0.0005
2138.00,-0.0004
2137.00,-0.0003
2136.00,-0.0004
2135.00,-0.0005
2134.00,-0.0007
2133.00,-0.0008
2132.00,-0.0007
2131.00,-0.0006
2130.00,-0.0005
2129.00,-0.0004
2128.00,-0.0002
2127.00,-0.0001
2126.00,0.0000
2125.00,0.0001
2124.00,0.0002
2123.00,0.0003
2122.00,0.0004
2121.00,0.0004
2120.00,0.0004
2119.00,0.0005
2118.00,0.0005
2117.00,0.0006
2116.00,0.0007
2115.00,0.0008
2114.00,0.0008
2113.00,0.0007
2112.00,0.0007
2111.00,0.0006
2110.00,0.0005
2109.00,0.0006
2108.00,0.0007
2107.00,0.0007
2106.00,0.0008
2105.00,0.0008
2104.00,0.0010
2103.00,0.0011
2102.00,0.0011
2101.00,0.0010
2100.00,0.0009
2099.00,0.0009
2098.00,0.0009
2097.00,0.0008
2096.00,0.0006
2095.00,0.0005
2094.00,0.0004
2093.00,0.0004
2092.00,0.0005
2091.00,0.0006
2090.00,0.0007
2089.00,0.0008
2088.00,0.0010
2087.00,0.0011
2086.00,0.0011
2085.00,0.0010
2084.00,0.0009
2083.00,0.0008
2082.00,0.0007
2081.00,0.0008
2080.00,0.0009
2079.00,0.0009
2078.00,0.0010
2077.00,0.0010
2076.00,0.0010
2075.00,0.0010
2074.00,0.0010
2073.00,0.0011
2072.00,0.0011
2071.00,0.0010
2070.00,0.0009
2069.00,0.0007
2068.00,0.0006
2067.00,0.0006
2066.00,0.0007
2065.00,0.0008
2064.00,0.0008
2063.00,0.0007
2062.00,0.0007
2061.00,0.0007
2060.00,0.0008
2059.00,0.0009
2058.00,0.0011
2057.00,0.0012
2056.00,0.0011
2055.00,0.0010
2054.00,0.0009
2053.00,0.0011
2052.00,0.0015
2051.00,0.0018
2050.00,0.0016
2049.00,0.0013
2048.00,0.0010
2047.00,0.0008
2046.00,0.0008
2045.00,0.0009
2044.00,0.0009
2043.00,0.0010
2042.00,0.0010
2041.00,0.0012
2040.00,0.0013
2039.00,0.0013
2038.00,0.0011
2037.00,0.0009
2036.00,0.0006
2035.00,0.0003
2034.00,0.0002
2033.00,0.0001
2032.00,0.0000
2031.00,-0.0002
2030.00,-0.0004
2029.00,-0.0005
2028.00,-0.0005
2027.00,-0.0004
2026.00,-0.0004
2025.00,-0.0003
2024.00,-0.0001
2023.00,-0.0000
2022.00,-0.0001
2021.00,-0.0004
2020.00,-0.0007
2019.00,-0.0008
2018.00,-0.0007
2017.00,-0.0004
2016.00,-0.0002
2015.00,-0.0002
2014.00,-0.0004
2013.00,-0.0005
2012.00,-0.0005
2011.00,-0.0005
2010.00,-0.0005
2009.00,-0.0004
2008.00,-0.0005
2007.00,-0.0007
2006.00,-0.0010
2005.00,-0.0011
2004.00,-0.0010
2003.00,-0.0007
2002.00,-0.0004
2001.00,-0.0000
2000.00,0.0001
1999.00,0.0001
1998.00,-0.0000
1997.00,-0.0001
1996.00,-0.0002
1995.00,-0.0003
1994.00,-0.0004
1993.00,-0.0003
1992.00,-0.0000
1991.00,0.0003
1990.00,0.0005
1989.00,0.0008
1988.00,0.0010
1987.00,0.0011
1986.00,0.0011
1985.00,0.0011
1984.00,0.0012
1983.00,0.0013
1982.00,0.0014
1981.00,0.0015
1980.00,0.0013
1979.00,0.0007
1978.00,-0.0000
1977.00,-0.0007
1976.00,-0.0009
1975.00,-0.0009
1974.00,-0.0009
1973.00,-0.0009
1972.00,-0.0007
1971.00,-0.0006
1970.00,-0.0005
1969.00,-0.0005
1968.00,-0.0006
1967.00,-0.0009
1966.00,-0.0011
1965.00,-0.0013
1964.00,-0.0014
1963.00,-0.0015
1962.00,-0.0015
1961.00,-0.0014
1960.00,-0.0012
1959.00,-0.0011
1958.00,-0.0012
1957.00,-0.0014
1956.00,-0.0015
1955.00,-0.0016
1954.00,-0.0016
1953.00,-0.0015
1952.00,-0.0014
1951.00,-0.0013
1950.00,-0.0013
1949.00,-0.0013
1948.00,-0.0013
1947.00,-0.0013
1946.00,-0.0012
1945.00,-0.0011
1944.00,-0.0010
1943.00,-0.0008
1942.00,-0.0007
1941.00,-0.0006
1940.00,-0.0007
1939.00,-0.0009
1938.00,-0.0011
1937.00,-0.0012
1936.00,-0.0011
1935.00,-0.0009
1934.00,-0.0007
1933.00,-0.0006
1932.00,-0.0006
1931.00,-0.0006
1930.00,-0.0005
1929.00,-0.0004
1928.00,-0.0004
1927.00,-0.0004
1926.00,-0.0004
1925.00,-0.0005
1924.00,-0.0004
1923.00,-0.0004
1922.00,-0.0003
1921.00,-0.0001
1920.00,0.0001
1919.00,0.0003
1918.00,0.0004
1917.00,0.0004
1916.00,0.0004
1915.00,0.0003
1914.00,0.0002
1913.00,0.0002
1912.00,0.0002
1911.00,0.0003
1910.00,0.0003
1909.00,0.0003
1908.00,0.0003
1907.00,0.0003
1906.00,0.0003
1905.00,0.0003
1904.00,0.0004
1903.00,0.0004
1902.00,0.0005
1901.00,0.0005
1900.00,0.0006
1899.00,0.0006
1898.00,0.0005
1897.00,0.0004
1896.00,0.0004
1895.00,0.0004
1894.00,0.0004
1893.00,0.0004
1892.00,0.0004
1891.00,0.0004
1890.00,0.0003
1889.00,0.0004
1888.00,0.0004
1887.00,0.0004
1886.00,0.0004
1885.00,0.0004
1884.00,0.0004
1883.00,0.0004
1882.00,0.0005
1881.00,0.0005
1880.00,0.0006
1879.00,0.0006
1878.00,0.0005
1877.00,0.0005
1876.00,0.0004
1875.00,0.0003
1874.00,0.0002
1873.00,0.0002
1872.00,0.0002
1871.00,0.0003
1870.00,0.0004
1869.00,0.0004
1868.00,0.0004
1867.00,0.0005
1866.00,0.0005
1865.00,0.0005
1864.00,0.0006
1863.00,0.0006
1862.00,0.0006
1861.00,0.0006
1860.00,0.0006
1859.00,0.0005
1858.00,0.0005
1857.00,0.0004
1856.00,0.0004
1855.00,0.0004
1854.00,0.0005
1853.00,0.0006
1852.00,0.0007
1851.00,0.0008
1850.00,0.0008
1849.00,0.0008
1848.00,0.0009
1847.00,0.0009
1846.00,0.0009
1845.00,0.0009
1844.00,0.0009
1843.00,0.0009
1842.00,0.0008
1841.00,0.0008
1840.00,0.0008
1839.00,0.0009
1838.00,0.0009
1837.00,0.0010
1836.00,0.0010
1835.00,0.0009
1834.00,0.0009
1833.00,0.0009
1832.00,0.0009
1831.00,0.0009
1830.00,0.0008
1829.00,0.0008
1828.00,0.0009
1827.00,0.0008
1826.00,0.0008
1825.00,0.0009
1824.00,0.0009
1823.00,0.0009
1822.00,0.0009
1821.00,0.0009
1820.00,0.0008
1819.00,0.0008
1818.00,0.0007
1817.00,0.0007
1816.00,0.0007
1815.00,0.0007
1814.00,0.0007
1813.00,0.0008
1812.00,0.0008
1811.00,0.0008
1810.00,0.0008
1809.00,0.0008
1808.00,0.0009
1807.00,0.0009
1806.00,0.0009
1805.00,0.0010
1804.00,0.0011
1803.00,0.0011
1802.00,0.0011
1801.00,0.0011
1800.00,0.0012
1799.00,0.0012
1798.00,0.0012
1797.00,0.0012
1796.00,0.0012
1795.00,0.0013
1794.00,0.0012
1793.00,0.0013
1792.00,0.0013
1791.00,0.0014
1790.00,0.0015
1789.00,0.0015
1788.00,0.0016
1787.00,0.0017
1786.00,0.0018
1785.00,0.0019
1784.00,0.0019
1783.00,0.0020
1782.00,0.0020
1781.00,0.0020
1780.00,0.0020
1779.00,0.0020
1778.00,0.0020
1777.00,0.0019
1776.00,0.0019
1775.00,0.0020
1774.00,0.0020
1773.00,0.0020
1772.00,0.0021
1771.00,0.0022
1770.00,0.0023
1769.00,0.0024
1768.00,0.0025
1767.00,0.0024
1766.00,0.0024
1765.00,0.0024
1764.00,0.0025
1763.00,0.0025
1762.00,0.0026
1761.00,0.0026
1760.00,0.0027
1759.00,0.0027
1758.00,0.0028
1757.00,0.0029
1756.00,0.0030
1755.00,0.0031
1754.00,0.0032
1753.00,0.0033
1752.00,0.0034
1751.00,0.0035
1750.00,0.0036
1749.00,0.0036
1748.00,0.0036
1747.00,0.0037
1746.00,0.0038
1745.00,0.0039
1744.00,0.0040
1743.00,0.0041
1742.00,0.0042
1741.00,0.0042
1740.00,0.0042
1739.00,0.0043
1738.00,0.0044
1737.00,0.0044
1736.00,0.0044
1735.00,0.0043
1734.00,0.0043
1733.00,0.0043
1732.00,0.0043
1731.00,0.0044
1730.00,0.0044
1729.00,0.0044
1728.00,0.0044
1727.00,0.0044
1726.00,0.0044
1725.00,0.0043
1724.00,0.0043
1723.00,0.0042
1722.00,0.0041
1721.00,0.0041
1720.00,0.0041
1719.00,0.0040
1718.00,0.0038
1717.00,0.0037
1716.00,0.0038
1715.00,0.0039
1714.00,0.0040
1713.00,0.0040
1712.00,0.0041
1711.00,0.0041
1710.00,0.0040
1709.00,0.0041
1708.00,0.0041
1707.00,0.0041
1706.00,0.0041
1705.00,0.0042
1704.00,0.0043
1703.00,0.0044
1702.00,0.0044
1701.00,0.0044
1700.00,0.0044
1699.00,0.0044
1698.00,0.0044
1697.00,0.0046
1696.00,0.0049
1695.00,0.0051
1694.00,0.0052
1693.00,0.0053
1692.00,0.0054
1691.00,0.0055
1690.00,0.0057
1689.00,0.0058
1688.00,0.0059
1687.00,0.0061
1686.00,0.0061
1685.00,0.0062
1684.00,0.0065
1683.00,0.0069
1682.00,0.0071
1681.00,0.0074
1680.00,0.0076
1679.00,0.0077
1678.00,0.0078
1677.00,0.0079
1676.00,0.0081
1675.00,0.0084
1674.00,0.0086
1673.00,0.0088
1672.00,0.0089
1671.00,0.0091
1670.00,0.0092
1669.00,0.0094
1668.00,0.0096
1667.00,0.0097
1666.00,0.0098
1665.00,0.0100
1664.00,0.0101
1663.00,0.0103
1662.00,0.0105
1661.00,0.0107
1660.00,0.0109
1659.00,0.0110
1658.00,0.0112
1657.00,0.0113
1656.00,0.0115
1655.00,0.0117
1654.00,0.0118
1653.00,0.0120
1652.00,0.0121
1651.00,0.0122
1650.00,0.0123
1649.00,0.0125
1648.00,0.0127
1647.00,0.0130
1646.00,0.0132
1645.00,0.0133
1644.00,0.0133
1643.00,0.0133
1642.00,0.0133
1641.00,0.0133
1640.00,0.0134
1639.00,0.0134
1638.00,0.0134
1637.00,0.0134
1636.00,0.0133
1635.00,0.0134
1634.00,0.0133
1633.00,0.0133
1632.00,0.0133
1631.00,0.0133
1630.00,0.0132
1629.00,0.0131
1628.00,0.0130
1627.00,0.0129
1626.00,0.0128
1625.00,0.0127
1624.00,0.0126
1623.00,0.0125
1622.00,0.0124
1621.00,0.0124
1620.00,0.0124
1619.00,0.0122
1618.00,0.0121
1617.00,0.0119
1616.00,0.0119
1615.00,0.0119
1614.00,0.0119
1613.00,0.0120
1612.00,0.0119
1611.00,0.0119
1610.00,0.0119
1609.00,0.0119
1608.00,0.0119
1607.00,0.0119
1606.00,0.0119
1605.00,0.0119
1604.00,0.0119
1603.00,0.0119
1602.00,0.0118
1601.00,0.0117
1600.00,0.0116
1599.00,0.0116
1598.00,0.0115
1597.00,0.0115
1596.00,0.0115
1595.00,0.0114
1594.00,0.0114
1593.00,0.0114
1592.00,0.0114
1591.00,0.0114
1590.00,0.0115
1589.00,0.0116
1588.00,0.0117
1587.00,0.0118
1586.00,0.0119
1585.00,0.0121
1584.00,0.0124
1583.00,0.0127
1582.00,0.0130
1581.00,0.0133
1580.00,0.0136
1579.00,0.0138
1578.00,0.0139
1577.00,0.0139
1576.00,0.0138
1575.00,0.0137
1574.00,0.0135
1573.00,0.0134
1572.00,0.0132
1571.00,0.0130
1570.00,0.0127
1569.00,0.0125
1568.00,0.0123
1567.00,0.0122
1566.00,0.0121
1565.00,0.0120
1564.00,0.0120
1563.00,0.0121
1562.00,0.0122
1561.00,0.0123
1560.00,0.0124
1559.00,0.0126
1558.00,0.0128
1557.00,0.0129
1556.00,0.0131
1555.00,0.0133
1554.00,0.0135
1553.00,0.0137
1552.00,0.0139
1551.00,0.0142
1550.00,0.0145
1549.00,0.0147
1548.00,0.0150
1547.00,0.0153
1546.00,0.0156
1545.00,0.0160
1544.00,0.0163
1543.00,0.0167
1542.00,0.0169
1541.00,0.0170
1540.00,0.0169
1539.00,0.0165
1538.00,0.0161
1537.00,0.0157
1536.00,0.0154
1535.00,0.0150
1534.00,0.0144
1533.00,0.0138
1532.00,0.0134
1531.00,0.0130
1530.00,0.0127
1529.00,0.0124
1528.00,0.0121
1527.00,0.0118
1526.00,0.0116
1525.00,0.0113
1524.00,0.0112
1523.00,0.0110
1522.00,0.0108
1521.00,0.0107
1520.00,0.0107
1519.00,0.0106
1518.00,0.0106
1517.00,0.0106
1516.00,0.0106
1515.00,0.0106
1514.00,0.0105
1513.00,0.0105
1512.00,0.0105
1511.00,0.0106
1510.00,0.0106
1509.00,0.0107
1508.00,0.0108
1507.00,0.0110
1506.00,0.0112
1505.00,0.0114
1504.00,0.0116
1503.00,0.0119
1502.00,0.0123
1501.00,0.0128
1500.00,0.0134
1499.00,0.0141
1498.00,0.0148
1497.00,0.0158
1496.00,0.0169
1495.00,0.0177
1494.00,0.0184
1493.00,0.0191
1492.00,0.0198
1491.00,0.0204
1490.00,0.0210
1489.00,0.0218
1488.00,0.0226
1487.00,0.0231
1486.00,0.0237
1485.00,0.0243
1484.00,0.0250
1483.00,0.0258
1482.00,0.0267
1481.00,0.0279
1480.00,0.0293
1479.00,0.0307
1478.00,0.0325
1477.00,0.0349
1476.00,0.0380
1475.00,0.0414
1474.00,0.0456
1473.00,0.0508
1472.00,0.0565
1471.00,0.0615
1470.00,0.0664
1469.00,0.0717
1468.00,0.0778
1467.00,0.0849
1466.00,0.0936
1465.00,0.1034
1464.00,0.1123
1463.00,0.1185
1462.00,0.1224
1461.00,0.1250
1460.00,0.1269
1459.00,0.1283
1458.00,0.1298
1457.00,0.1313
1456.00,0.1321
1455.00,0.1320
1454.00,0.1314
1453.00,0.1303
1452.00,0.1282
1451.00,0.1249
1450.00,0.1198
1449.00,0.1125
1448.00,0.1031
1447.00,0.0929
1446.00,0.0837
1445.00,0.0759
1444.00,0.0691
1443.00,0.0635
1442.00,0.0593
1441.00,0.0564
1440.00,0.0545
1439.00,0.0535
1438.00,0.0531
1437.00,0.0525
1436.00,0.0510
1435.00,0.0481
1434.00,0.0443
1433.00,0.0399
1432.00,0.0354
1431.00,0.0314
1430.00,0.0285
1429.00,0.0263
1428.00,0.0249
1427.00,0.0241
1426.00,0.0236
1425.00,0.0232
1424.00,0.0229
1423.00,0.0229
1422.00,0.0230
1421.00,0.0231
1420.00,0.0231
1419.00,0.0233
1418.00,0.0235
1417.00,0.0236
1416.00,0.0236
1415.00,0.0237
1414.00,0.0240
1413.00,0.0243
1412.00,0.0246
1411.00,0.0252
1410.00,0.0258
1409.00,0.0264
1408.00,0.0270
1407.00,0.0278
1406.00,0.0288
1405.00,0.0299
1404.00,0.0312
1403.00,0.0326
1402.00,0.0340
1401.00,0.0355
1400.00,0.0371
1399.00,0.0389
1398.00,0.0407
1397.00,0.0422
1396.00,0.0437
1395.00,0.0453
1394.00,0.0468
1393.00,0.0477
1392.00,0.0485
1391.00,0.0493
1390.00,0.0505
1389.00,0.0524
1388.00,0.0553
1387.00,0.0594
1386.00,0.0646
1385.00,0.0712
1384.00,0.0796
1383.00,0.0907
1382.00,0.1046
1381.00,0.1216
1380.00,0.1418
1379.00,0.1639
1378.00,0.1844
1377.00,0.1986
1376.00,0.2022
1375.00,0.1927
1374.00,0.1721
1373.00,0.1474
1372.00,0.1243
1371.00,0.1047
1370.00,0.0885
1369.00,0.0758
1368.00,0.0667
1367.00,0.0607
1366.00,0.0572
1365.00,0.0555
1364.00,0.0551
1363.00,0.0557
1362.00,0.0570
1361.00,0.0585
1360.00,0.0596
1359.00,0.0596
1358.00,0.0582
1357.00,0.0554
1356.00,0.0515
1355.00,0.0473
1354.00,0.0431
1353.00,0.0395
1352.00,0.0366
1351.00,0.0342
1350.00,0.0322
1349.00,0.0307
1348.00,0.0294
1347.00,0.0283
1346.00,0.0274
1345.00,0.0267
1344.00,0.0261
1343.00,0.0255
1342.00,0.0250
1341.00,0.0244
1340.00,0.0238
1339.00,0.0233
1338.00,0.0229
1337.00,0.0227
1336.00,0.0225
1335.00,0.0225
1334.00,0.0225
1333.00,0.0226
1332.00,0.0227
1331.00,0.0228
1330.00,0.0227
1329.00,0.0223
1328.00,0.0218
1327.00,0.0211
1326.00,0.0203
1325.00,0.0195
1324.00,0.0187
1323.00,0.0180
1322.00,0.0174
1321.00,0.0170
1320.00,0.0166
1319.00,0.0162
1318.00,0.0159
1317.00,0.0156
1316.00,0.0153
1315.00,0.0151
1314.00,0.0149
1313.00,0.0149
1312.00,0.0150
1311.00,0.0153
1310.00,0.0158
1309.00,0.0166
1308.00,0.0178
1307.00,0.0192
1306.00,0.0206
1305.00,0.0216
1304.00,0.0219
1303.00,0.0215
1302.00,0.0208
1301.00,0.0200
1300.00,0.0194
1299.00,0.0191
1298.00,0.0190
1297.00,0.0189
1296.00,0.0187
1295.00,0.0184
1294.00,0.0181
1293.00,0.0177
1292.00,0.0173
1291.00,0.0169
1290.00,0.0166
1289.00,0.0163
1288.00,0.0161
1287.00,0.0160
1286.00,0.0159
1285.00,0.0159
1284.00,0.0160
1283.00,0.0161
1282.00,0.0162
1281.00,0.0164
1280.00,0.0167
1279.00,0.0171
1278.00,0.0175
1277.00,0.0180
1276.00,0.0186
1275.00,0.0192
1274.00,0.0199
1273.00,0.0206
1272.00,0.0215
1271.00,0.0224
1270.00,0.0232
1269.00,0.0241
1268.00,0.0250
1267.00,0.0259
1266.00,0.0268
1265.00,0.0278
1264.00,0.0286
1263.00,0.0294
1262.00,0.0301
1261.00,0.0309
1260.00,0.0318
1259.00,0.0329
1258.00,0.0342
1257.00,0.0353
1256.00,0.0362
1255.00,0.0366
1254.00,0.0364
1253.00,0.0359
1252.00,0.0351
1251.00,0.0341
1250.00,0.0331
1249.00,0.0320
1248.00,0.0310
1247.00,0.0302
1246.00,0.0295
1245.00,0.0291
1244.00,0.0288
1243.00,0.0287
1242.00,0.0285
1241.00,0.0282
1240.00,0.0278
1239.00,0.0274
1238.00,0.0269
1237.00,0.0265
1236.00,0.0259
1235.00,0.0253
1234.00,0.0247
1233.00,0.0240
1232.00,0.0234
1231.00,0.0228
1230.00,0.0222
1229.00,0.0217
1228.00,0.0211
1227.00,0.0207
1226.00,0.0203
1225.00,0.0199
1224.00,0.0197
1223.00,0.0195
1222.00,0.0194
1221.00,0.0193
1220.00,0.0192
1219.00,0.0190
1218.00,0.0187
1217.00,0.0182
1216.00,0.0177
1215.00,0.0172
1214.00,0.0167
1213.00,0.0163
1212.00,0.0159
1211.00,0.0155
1210.00,0.0151
1209.00,0.0148
1208.00,0.0145
1207.00,0.0144
1206.00,0.0143
1205.00,0.0143
1204.00,0.0143
1203.00,0.0144
1202.00,0.0144
1201.00,0.0145
1200.00,0.0145
1199.00,0.0146
1198.00,0.0149
1197.00,0.0152
1196.00,0.0155
1195.00,0.0158
1194.00,0.0161
1193.00,0.0165
1192.00,0.0169
1191.00,0.0175
1190.00,0.0180
1189.00,0.0186
1188.00,0.0192
1187.00,0.0199
1186.00,0.0207
1185.00,0.0216
1184.00,0.0226
1183.00,0.0236
1182.00,0.0246
1181.00,0.0257
1180.00,0.0269
1179.00,0.0283
1178.00,0.0297
1177.00,0.0314
1176.00,0.0335
1175.00,0.0361
1174.00,0.0393
1173.00,0.0432
1172.00,0.0477
1171.00,0.0526
1170.00,0.0574
1169.00,0.0615
1168.00,0.0643
1167.00,0.0655
1166.00,0.0653
1165.00,0.0641
1164.00,0.0624
1163.00,0.0605
1162.00,0.0587
1161.00,0.0572
1160.00,0.0562
1159.00,0.0556
1158.00,0.0552
1157.00,0.0550
1156.00,0.0549
1155.00,0.0547
1154.00,0.0546
1153.00,0.0543
1152.00,0.0539
1151.00,0.0532
1150.00,0.0522
1149.00,0.0510
1148.00,0.0496
1147.00,0.0481
1146.00,0.0467
1145.00,0.0453
1144.00,0.0439
1143.00,0.0427
1142.00,0.0415
1141.00,0.0406
1140.00,0.0397
1139.00,0.0390
1138.00,0.0382
1137.00,0.0373
1136.00,0.0364
1135.00,0.0356
1134.00,0.0348
1133.00,0.0343
1132.00,0.0339
1131.00,0.0337
1130.00,0.0334
1129.00,0.0331
1128.00,0.0328
1127.00,0.0325
1126.00,0.0323
1125.00,0.0320
1124.00,0.0317
1123.00,0.0313
1122.00,0.0310
1121.00,0.0307
1120.00,0.0304
1119.00,0.0301
1118.00,0.0297
1117.00,0.0294
1116.00,0.0291
1115.00,0.0287
1114.00,0.0284
1113.00,0.0281
1112.00,0.0279
1111.00,0.0278
1110.00,0.0278
1109.00,0.0280
1108.00,0.0284
1107.00,0.0289
1106.00,0.0296
1105.00,0.0303
1104.00,0.0309
1103.00,0.0314
1102.00,0.0316
1101.00,0.0317
1100.00,0.0316
1099.00,0.0315
1098.00,0.0314
1097.00,0.0315
1096.00,0.0317
1095.00,0.0320
1094.00,0.0324
1093.00,0.0327
1092.00,0.0331
1091.00,0.0335
1090.00,0.0338
1089.00,0.0340
1088.00,0.0340
1087.00,0.0341
1086.00,0.0342
1085.00,0.0343
1084.00,0.0344
1083.00,0.0345
1082.00,0.0345
1081.00,0.0344
1080.00,0.0343
1079.00,0.0342
1078.00,0.0340
1077.00,0.0340
1076.00,0.0340
1075.00,0.0342
1074.00,0.0344
1073.00,0.0346
1072.00,0.0344
1071.00,0.0340
1070.00,0.0333
1069.00,0.0326
1068.00,0.0317
1067.00,0.0308
1066.00,0.0301
1065.00,0.0294
1064.00,0.0289
1063.00,0.0284
1062.00,0.0280
1061.00,0.0275
1060.00,0.0270
1059.00,0.0264
1058.00,0.0258
1057.00,0.0250
1056.00,0.0243
1055.00,0.0236
1054.00,0.0230
1053.00,0.0224
1052.00,0.0219
1051.00,0.0214
1050.00,0.0210
1049.00,0.0208
1048.00,0.0206
1047.00,0.0206
1046.00,0.0204
1045.00,0.0201
1044.00,0.0196
1043.00,0.0190
1042.00,0.0184
1041.00,0.0178
1040.00,0.0172
1039.00,0.0167
1038.00,0.0165
1037.00,0.0164
1036.00,0.0163
1035.00,0.0162
1034.00,0.0159
1033.00,0.0157
1032.00,0.0154
1031.00,0.0152
1030.00,0.0149
1029.00,0.0146
1028.00,0.0143
1027.00,0.0140
1026.00,0.0139
1025.00,0.0138
1024.00,0.0137
1023.00,0.0138
1022.00,0.0138
1021.00,0.0139
1020.00,0.0140
1019.00,0.0141
1018.00,0.0142
1017.00,0.0144
1016.00,0.0147
1015.00,0.0150
1014.00,0.0155
1013.00,0.0160
1012.00,0.0165
1011.00,0.0169
1010.00,0.0173
1009.00,0.0177
1008.00,0.0182
1007.00,0.0189
1006.00,0.0200
1005.00,0.0213
1004.00,0.0232
1003.00,0.0258
1002.00,0.0293
1001.00,0.0337
1000.00,0.0385
999.00,0.0427
998.00,0.0451
997.00,0.0448
996.00,0.0418
995.00,0.0372
994.00,0.0321
993.00,0.0275
992.00,0.0238
991.00,0.0211
990.00,0.0192
989.00,0.0180
988.00,0.0173
987.00,0.0170
986.00,0.0172
985.00,0.0178
984.00,0.0187
983.00,0.0200
982.00,0.0218
981.00,0.0242
980.00,0.0274
979.00,0.0316
978.00,0.0368
977.00,0.0431
976.00,0.0501
975.00,0.0573
974.00,0.0636
973.00,0.0677
972.00,0.0686
971.00,0.0664
970.00,0.0620
969.00,0.0567
968.00,0.0519
967.00,0.0479
966.00,0.0448
965.00,0.0423
964.00,0.0404
963.00,0.0389
962.00,0.0378
961.00,0.0373
960.00,0.0374
959.00,0.0379
958.00,0.0384
957.00,0.0387
956.00,0.0387
955.00,0.0386
954.00,0.0384
953.00,0.0381
952.00,0.0376
951.00,0.0369
950.00,0.0361
949.00,0.0353
948.00,0.0347
947.00,0.0343
946.00,0.0341
945.00,0.0340
944.00,0.0339
943.00,0.0339
942.00,0.0337
941.00,0.0333
940.00,0.0326
939.00,0.0314
938.00,0.0300
937.00,0.0284
936.00,0.0267
935.00,0.0251
934.00,0.0236
933.00,0.0221
932.00,0.0207
931.00,0.0194
930.00,0.0182
929.00,0.0171
928.00,0.0161
927.00,0.0152
926.00,0.0145
925.00,0.0139
924.00,0.0133
923.00,0.0129
922.00,0.0126
921.00,0.0123
920.00,0.0121
919.00,0.0119
918.00,0.0117
917.00,0.0115
916.00,0.0113
915.00,0.0112
914.00,0.0111
913.00,0.0111
912.00,0.0112
911.00,0.0112
910.00,0.0112
909.00,0.0112
908.00,0.0113
907.00,0.0116
906.00,0.0122
905.00,0.0131
904.00,0.0144
903.00,0.0160
902.00,0.0178
901.00,0.0195
900.00,0.0207
899.00,0.0209
898.00,0.0202
897.00,0.0187
896.00,0.0169
895.00,0.0152
894.00,0.0138
893.00,0.0127
892.00,0.0119
891.00,0.0113
890.00,0.0108
889.00,0.0104
888.00,0.0101
887.00,0.0099
886.00,0.0099
885.00,0.0100
884.00,0.0101
883.00,0.0101
882.00,0.0101
881.00,0.0102
880.00,0.0103
879.00,0.0104
878.00,0.0105
877.00,0.0105
876.00,0.0104
875.00,0.0103
874.00,0.0102
873.00,0.0100
872.00,0.0100
871.00,0.0100
870.00,0.0100
869.00,0.0101
868.00,0.0102
867.00,0.0102
866.00,0.0101
865.00,0.0101
864.00,0.0101
863.00,0.0102
862.00,0.0103
861.00,0.0104
860.00,0.0106
859.00,0.0108
858.00,0.0111
857.00,0.0113
856.00,0.0115
855.00,0.0117
854.00,0.0119
853.00,0.0122
852.00,0.0127
851.00,0.0133
850.00,0.0141
849.00,0.0151
848.00,0.0165
847.00,0.0186
846.00,0.0217
845.00,0.0261
844.00,0.0320
843.00,0.0385
842.00,0.0438
841.00,0.0457
840.00,0.0433
839.00,0.0379
838.00,0.0319
837.00,0.0271
836.00,0.0240
835.00,0.0221
834.00,0.0210
833.00,0.0203
832.00,0.0199
831.00,0.0196
830.00,0.0193
829.00,0.0191
828.00,0.0188
827.00,0.0185
826.00,0.0182
825.00,0.0180
824.00,0.0179
823.00,0.0178
822.00,0.0179
821.00,0.0180
820.00,0.0182
819.00,0.0185
818.00,0.0190
817.00,0.0197
816.00,0.0205
815.00,0.0213
814.00,0.0224
813.00,0.0236
812.00,0.0249
811.00,0.0262
810.00,0.0272
809.00,0.0277
808.00,0.0276
807.00,0.0268
806.00,0.0254
805.00,0.0237
804.00,0.0221
803.00,0.0207
802.00,0.0196
801.00,0.0186
800.00,0.0177
799.00,0.0168
798.00,0.0160
797.00,0.0153
796.00,0.0147
795.00,0.0142
794.00,0.0137
793.00,0.0133
792.00,0.0130
791.00,0.0127
790.00,0.0124
789.00,0.0121
788.00,0.0116
787.00,0.0112
786.00,0.0109
785.00,0.0107
784.00,0.0106
783.00,0.0104
782.00,0.0102
781.00,0.0100
780.00,0.0098
779.00,0.0096
778.00,0.0095
777.00,0.0095
776.00,0.0096
775.00,0.0097
774.00,0.0099
773.00,0.0102
772.00,0.0106
771.00,0.0111
770.00,0.0114
769.00,0.0115
768.00,0.0115
767.00,0.0114
766.00,0.0112
765.00,0.0110
764.00,0.0108
763.00,0.0106
762.00,0.0104
761.00,0.0102
760.00,0.0101
759.00,0.0099
758.00,0.0096
757.00,0.0093
756.00,0.0090
755.00,0.0088
754.00,0.0088
753.00,0.0088
752.00,0.0088
751.00,0.0088
750.00,0.0089
749.00,0.0089
748.00,0.0088
747.00,0.0089
746.00,0.0091
745.00,0.0094
744.00,0.0096
743.00,0.0098
742.00,0.0100
741.00,0.0103
740.00,0.0105
739.00,0.0108
738.00,0.0110
737.00,0.0112
736.00,0.0115
735.00,0.0118
734.00,0.0121
733.00,0.0122
732.00,0.0123
731.00,0.0124
730.00,0.0125
729.00,0.0126
728.00,0.0127
727.00,0.0128
726.00,0.0128
725.00,0.0128
724.00,0.0127
723.00,0.0127
722.00,0.0128
721.00,0.0128
720.00,0.0125
719.00,0.0122
718.00,0.0117
717.00,0.0113
716.00,0.0111
715.00,0.0109
714.00,0.0108
713.00,0.0107
712.00,0.0106
711.00,0.0107
710.00,0.0108
709.00,0.0110
708.00,0.0112
707.00,0.0114
706.00,0.0116
705.00,0.0117
704.00,0.0116
703.00,0.0113
702.00,0.0111
701.00,0.0108
700.00,0.0104
699.00,0.0101
698.00,0.0098
697.00,0.0096
696.00,0.0095
695.00,0.0095
694.00,0.0095
693.00,0.0097
692.00,0.0098
691.00,0.0099
690.00,0.0099
689.00,0.0100
688.00,0.0099
687.00,0.0099
686.00,0.0099
685.00,0.0098
684.00,0.0098
683.00,0.0100
682.00,0.0102
681.00,0.0103
680.00,0.0101
679.00,0.0098
678.00,0.0096
677.00,0.0096
676.00,0.0096
675.00,0.0097
674.00,0.0099
673.00,0.0101
672.00,0.0104
671.00,0.0106
670.00,0.0107
669.00,0.0107
668.00,0.0104
667.00,0.0102
666.00,0.0102
665.00,0.0102
664.00,0.0103
663.00,0.0103
662.00,0.0104
661.00,0.0104
660.00,0.0103
659.00,0.0102
658.00,0.0100
657.00,0.0099
656.00,0.0099
655.00,0.0099
654.00,0.0098
653.00,0.0097
652.00,0.0096
651.00,0.0095
650.00,0.0094
649.00,0.0094
648.00,0.0094
647.00,0.0095
646.00,0.0097
645.00,0.0100
644.00,0.0103
643.00,0.0105
642.00,0.0106
641.00,0.0106
640.00,0.0105
639.00,0.0104
638.00,0.0103
637.00,0.0102
636.00,0.0101
635.00,0.0101
634.00,0.0102
633.00,0.0105
632.00,0.0106
631.00,0.0106
630.00,0.0105
629.00,0.0106
628.00,0.0107
627.00,0.0109
626.00,0.0109
625.00,0.0108
624.00,0.0106
623.00,0.0106
622.00,0.0107
621.00,0.0108
620.00,0.0110
619.00,0.0110
618.00,0.0111
617.00,0.0112
616.00,0.0113
615.00,0.0112
614.00,0.0111
613.00,0.0109
612.00,0.0108
611.00,0.0108
610.00,0.0109
609.00,0.0108
608.00,0.0105
607.00,0.0101
606.00,0.0098
605.00,0.0098
604.00,0.0102
603.00,0.0106
602.00,0.0107
601.00,0.0105
600.00,0.0103
599.00,0.0103
598.00,0.0106
597.00,0.0110
596.00,0.0111
595.00,0.0110
594.00,0.0108
593.00,0.0107
592.00,0.0108
591.00,0.0110
590.00,0.0110
589.00,0.0109
588.00,0.0106
587.00,0.0104
586.00,0.0103
585.00,0.0105
584.00,0.0107
583.00,0.0111
582.00,0.0114
581.00,0.0115
580.00,0.0115
579.00,0.0113
578.00,0.0109
577.00,0.0106
576.00,0.0104
575.00,0.0102
574.00,0.0102
573.00,0.0101
572.00,0.0101
571.00,0.0101
570.00,0.0102
569.00,0.0103
568.00,0.0104
567.00,0.0104
566.00,0.0102
565.00,0.0099
564.00,0.0096
563.00,0.0095
562.00,0.0097
561.00,0.0100
560.00,0.0102
559.00,0.0102
558.00,0.0104
557.00,0.0108
556.00,0.0114
555.00,0.0117
554.00,0.0119
553.00,0.0118
552.00,0.0116
551.00,0.0113
550.00,0.0109
549.00,0.0105
548.00,0.0101
547.00,0.0098
546.00,0.0096
545.00,0.0097
544.00,0.0101
543.00,0.0106
542.00,0.0110
541.00,0.0112
540.00,0.0114
539.00,0.0115
538.00,0.0118
537.00,0.0122
536.00,0.0126
535.00,0.0129
534.00,0.0130
533.00,0.0130
532.00,0.0131
531.00,0.0133
530.00,0.0133
529.00,0.0132
528.00,0.0131
527.00,0.0131
526.00,0.0131
525.00,0.0128
524.00,0.0124
523.00,0.0121
522.00,0.0123
521.00,0.0128
520.00,0.0132
519.00,0.0131
518.00,0.0125
517.00,0.0119
516.00,0.0116
515.00,0.0117
514.00,0.0118
513.00,0.0118
512.00,0.0116
511.00,0.0114
510.00,0.0114
509.00,0.0118
508.00,0.0122
507.00,0.0124
506.00,0.0124
505.00,0.0123
504.00,0.0122
503.00,0.0121
502.00,0.0122
501.00,0.0126
500.00,0.0130
499.00,0.0134
498.00,0.0135
497.00,0.0133
496.00,0.0130
495.00,0.0125
494.00,0.0120
493.00,0.0120
492.00,0.0124
491.00,0.0132
490.00,0.0138
489.00,0.0139
488.00,0.0138
487.00,0.0137
486.00,0.0136
485.00,0.0134
484.00,0.0131
483.00,0.0128
482.00,0.0127
481.00,0.0128
480.00,0.0133
479.00,0.0139
478.00,0.0142
477.00,0.0140
476.00,0.0134
475.00,0.0130
474.00,0.0129
473.00,0.0130
472.00,0.0133
471.00,0.0135
470.00,0.0137
469.00,0.0139
468.00,0.0144
467.00,0.0152
466.00,0.0163
465.00,0.0171
464.00,0.0177
463.00,0.0179
462.00,0.0179
461.00,0.0180
460.00,0.0184
459.00,0.0190
458.00,0.0198
457.00,0.0204
456.00,0.0208
455.00,0.0210
454.00,0.0209
453.00,0.0203
452.00,0.0195
451.00,0.0187
450.00,0.0179
