Created as New Dataset,Sample 016 By Administrator Date Friday, September 05 2025
cm-1,A
4000.00,0.0014
3999.00,0.0013
3998.00,0.0013
3997.00,0.0013
3996.00,0.0013
3995.00,0.0013
3994.00,0.0013
3993.00,0.0013
3992.00,0.0013
3991.00,0.0013
3990.00,0.0013
3989.00,0.0012
3988.00,0.0012
3987.00,0.0013
3986.00,0.0013
3985.00,0.0013
3984.00,0.0013
3983.00,0.0013
3982.00,0.0012
3981.00,0.0012
3980.00,0.0012
3979.00,0.0012
3978.00,0.0012
3977.00,0.0012
3976.00,0.0012
3975.00,0.0012
3974.00,0.0012
3973.00,0.0012
3972.00,0.0012
3971.00,0.0012
3970.00,0.0012
3969.00,0.0012
3968.00,0.0012
3967.00,0.0012
3966.00,0.0012
3965.00,0.0012
3964.00,0.0012
3963.00,0.0012
3962.00,0.0012
3961.00,0.0012
3960.00,0.0012
3959.00,0.0012
3958.00,0.0011
3957.00,0.0011
3956.00,0.0011
3955.00,0.0011
3954.00,0.0011
3953.00,0.0011
3952.00,0.0011
3951.00,0.0011
3950.00,0.0011
3949.00,0.0011
3948.00,0.0011
3947.00,0.0011
3946.00,0.0012
3945.00,0.0012
3944.00,0.0012
3943.00,0.0012
3942.00,0.0013
3941.00,0.0013
3940.00,0.0012
3939.00,0.0012
3938.00,0.0012
3937.00,0.0012
3936.00,0.0012
3935.00,0.0012
3934.00,0.0012
3933.00,0.0012
3932.00,0.0012
3931.00,0.0012
3930.00,0.0013
3929.00,0.0013
3928.00,0.0013
3927.00,0.0013
3926.00,0.0013
3925.00,0.0013
3924.00,0.0013
3923.00,0.0013
3922.00,0.0013
3921.00,0.0013
3920.00,0.0013
3919.00,0.0013
3918.00,0.0013
3917.00,0.0012
3916.00,0.0012
3915.00,0.0012
3914.00,0.0012
3913.00,0.0013
3912.00,0.0013
3911.00,0.0013
3910.00,0.0013
3909.00,0.0013
3908.00,0.0013
3907.00,0.0012
3906.00,0.0012
3905.00,0.0013
3904.00,0.0013
3903.00,0.0013
3902.00,0.0013
3901.00,0.0013
3900.00,0.0013
3899.00,0.0014
3898.00,0.0014
3897.00,0.0014
3896.00,0.0014
3895.00,0.0014
3894.00,0.0014
3893.00,0.0013
3892.00,0.0013
3891.00,0.0013
3890.00,0.0013
3889.00,0.0013
3888.00,0.0013
3887.00,0.0013
3886.00,0.0013
3885.00,0.0013
3884.00,0.0013
3883.00,0.0013
3882.00,0.0013
3881.00,0.0013
3880.00,0.0013
3879.00,0.0013
3878.00,0.0013
3877.00,0.0012
3876.00,0.0012
3875.00,0.0012
3874.00,0.0013
3873.00,0.0013
3872.00,0.0013
3871.00,0.0014
3870.00,0.0014
3869.00,0.0014
3868.00,0.0014
3867.00,0.0015
3866.00,0.0014
3865.00,0.0014
3864.00,0.0013
3863.00,0.0013
3862.00,0.0012
3861.00,0.0012
3860.00,0.0012
3859.00,0.0012
3858.00,0.0012
3857.00,0.0012
3856.00,0.0013
3855.00,0.0013
3854.00,0.0014
3853.00,0.0015
3852.00,0.0015
3851.00,0.0014
3850.00,0.0013
3849.00,0.0013
3848.00,0.0013
3847.00,0.0012
3846.00,0.0012
3845.00,0.0012
3844.00,0.0012
3843.00,0.0012
3842.00,0.0013
3841.00,0.0013
3840.00,0.0013
3839.00,0.0013
3838.00,0.0013
3837.00,0.0013
3836.00,0.0012
3835.00,0.0012
3834.00,0.0012
3833.00,0.0013
3832.00,0.0013
3831.00,0.0014
3830.00,0.0014
3829.00,0.0014
3828.00,0.0014
3827.00,0.0014
3826.00,0.0014
3825.00,0.0014
3824.00,0.0014
3823.00,0.0013
3822.00,0.0013
3821.00,0.0013
3820.00,0.0013
3819.00,0.0013
3818.00,0.0014
3817.00,0.0014
3816.00,0.0014
3815.00,0.0015
3814.00,0.0015
3813.00,0.0015
3812.00,0.0015
3811.00,0.0015
3810.00,0.0015
3809.00,0.0015
3808.00,0.0014
3807.00,0.0014
3806.00,0.0014
3805.00,0.0014
3804.00,0.0014
3803.00,0.0013
3802.00,0.0013
3801.00,0.0013
3800.00,0.0012
3799.00,0.0013
3798.00,0.0013
3797.00,0.0013
3796.00,0.0013
3795.00,0.0013
3794.00,0.0013
3793.00,0.0013
3792.00,0.0013
3791.00,0.0013
3790.00,0.0013
3789.00,0.0013
3788.00,0.0014
3787.00,0.0014
3786.00,0.0013
3785.00,0.0013
3784.00,0.0012
3783.00,0.0012
3782.00,0.0011
3781.00,0.0012
3780.00,0.0012
3779.00,0.0012
3778.00,0.0012
3777.00,0.0012
3776.00,0.0012
3775.00,0.0012
3774.00,0.0012
3773.00,0.0012
3772.00,0.0012
3771.00,0.0012
3770.00,0.0011
3769.00,0.0012
3768.00,0.0012
3767.00,0.0012
3766.00,0.0012
3765.00,0.0013
3764.00,0.0012
3763.00,0.0012
3762.00,0.0012
3761.00,0.0011
3760.00,0.0011
3759.00,0.0011
3758.00,0.0012
3757.00,0.0011
3756.00,0.0011
3755.00,0.0011
3754.00,0.0011
3753.00,0.0010
3752.00,0.0010
3751.00,0.0010
3750.00,0.0011
3749.00,0.0011
3748.00,0.0011
3747.00,0.0011
3746.00,0.0011
3745.00,0.0011
3744.00,0.0011
3743.00,0.0011
3742.00,0.0011
3741.00,0.0011
3740.00,0.0011
3739.00,0.0012
3738.00,0.0012
3737.00,0.0011
3736.00,0.0011
3735.00,0.0011
3734.00,0.0010
3733.00,0.0010
3732.00,0.0010
3731.00,0.0010
3730.00,0.0011
3729.00,0.0011
3728.00,0.0012
3727.00,0.0012
3726.00,0.0012
3725.00,0.0012
3724.00,0.0012
3723.00,0.0012
3722.00,0.0012
3721.00,0.0012
3720.00,0.0012
3719.00,0.0012
3718.00,0.0012
3717.00,0.0012
3716.00,0.0013
3715.00,0.0013
3714.00,0.0012
3713.00,0.0012
3712.00,0.0012
3711.00,0.0012
3710.00,0.0012
3709.00,0.0012
3708.00,0.0012
3707.00,0.0012
3706.00,0.0012
3705.00,0.0012
3704.00,0.0012
3703.00,0.0013
3702.00,0.0013
3701.00,0.0013
3700.00,0.0013
3699.00,0.0013
3698.00,0.0014
3697.00,0.0014
3696.00,0.0015
3695.00,0.0015
3694.00,0.0016
3693.00,0.0016
3692.00,0.0018
3691.00,0.0019
3690.00,0.0021
3689.00,0.0023
3688.00,0.0025
3687.00,0.0028
3686.00,0.0030
3685.00,0.0033
3684.00,0.0036
3683.00,0.0039
3682.00,0.0043
3681.00,0.0046
3680.00,0.0050
3679.00,0.0055
3678.00,0.0059
3677.00,0.0064
3676.00,0.0070
3675.00,0.0074
3674.00,0.0077
3673.00,0.0080
3672.00,0.0082
3671.00,0.0084
3670.00,0.0086
3669.00,0.0087
3668.00,0.0088
3667.00,0.0090
3666.00,0.0091
3665.00,0.0093
3664.00,0.0095
3663.00,0.0097
3662.00,0.0098
3661.00,0.0099
3660.00,0.0100
3659.00,0.0100
3658.00,0.0100
3657.00,0.0099
3656.00,0.0099
3655.00,0.0098
3654.00,0.0096
3653.00,0.0095
3652.00,0.0094
3651.00,0.0094
3650.00,0.0094
3649.00,0.0093
3648.00,0.0093
3647.00,0.0091
3646.00,0.0089
3645.00,0.0087
3644.00,0.0084
3643.00,0.0082
3642.00,0.0079
3641.00,0.0077
3640.00,0.0076
3639.00,0.0077
3638.00,0.0076
3637.00,0.0074
3636.00,0.0068
3635.00,0.0061
3634.00,0.0053
3633.00,0.0047
3632.00,0.0044
3631.00,0.0041
3630.00,0.0039
3629.00,0.0037
3628.00,0.0035
3627.00,0.0034
3626.00,0.0033
3625.00,0.0032
3624.00,0.0032
3623.00,0.0031
3622.00,0.0030
3621.00,0.0029
3620.00,0.0029
3619.00,0.0028
3618.00,0.0028
3617.00,0.0027
3616.00,0.0028
3615.00,0.0028
3614.00,0.0028
3613.00,0.0028
3612.00,0.0027
3611.00,0.0027
3610.00,0.0027
3609.00,0.0027
3608.00,0.0027
3607.00,0.0027
3606.00,0.0027
3605.00,0.0027
3604.00,0.0027
3603.00,0.0028
3602.00,0.0028
3601.00,0.0028
3600.00,0.0028
3599.00,0.0027
3598.00,0.0027
3597.00,0.0027
3596.00,0.0028
3595.00,0.0028
3594.00,0.0028
3593.00,0.0028
3592.00,0.0028
3591.00,0.0028
3590.00,0.0028
3589.00,0.0029
3588.00,0.0029
3587.00,0.0030
3586.00,0.0030
3585.00,0.0031
3584.00,0.0031
3583.00,0.0032
3582.00,0.0032
3581.00,0.0033
3580.00,0.0033
3579.00,0.0033
3578.00,0.0033
3577.00,0.0034
3576.00,0.0034
3575.00,0.0035
3574.00,0.0035
3573.00,0.0035
3572.00,0.0036
3571.00,0.0036
3570.00,0.0037
3569.00,0.0037
3568.00,0.0038
3567.00,0.0038
3566.00,0.0039
3565.00,0.0039
3564.00,0.0040
3563.00,0.0040
3562.00,0.0040
3561.00,0.0041
3560.00,0.0041
3559.00,0.0041
3558.00,0.0042
3557.00,0.0042
3556.00,0.0042
3555.00,0.0042
3554.00,0.0043
3553.00,0.0043
3552.00,0.0043
3551.00,0.0044
3550.00,0.0044
3549.00,0.0045
3548.00,0.0045
3547.00,0.0046
3546.00,0.0047
3545.00,0.0047
3544.00,0.0047
3543.00,0.0048
3542.00,0.0049
3541.00,0.0049
3540.00,0.0050
3539.00,0.0051
3538.00,0.0051
3537.00,0.0051
3536.00,0.0051
3535.00,0.0051
3534.00,0.0052
3533.00,0.0052
3532.00,0.0053
3531.00,0.0053
3530.00,0.0053
3529.00,0.0054
3528.00,0.0054
3527.00,0.0055
3526.00,0.0055
3525.00,0.0056
3524.00,0.0057
3523.00,0.0057
3522.00,0.0057
3521.00,0.0057
3520.00,0.0057
3519.00,0.0058
3518.00,0.0059
3517.00,0.0059
3516.00,0.0060
3515.00,0.0060
3514.00,0.0060
3513.00,0.0061
3512.00,0.0061
3511.00,0.0062
3510.00,0.0062
3509.00,0.0062
3508.00,0.0063
3507.00,0.0063
3506.00,0.0063
3505.00,0.0064
3504.00,0.0065
3503.00,0.0066
3502.00,0.0067
3501.00,0.0067
3500.00,0.0068
3499.00,0.0068
3498.00,0.0069
3497.00,0.0069
3496.00,0.0070
3495.00,0.0070
3494.00,0.0070
3493.00,0.0071
3492.00,0.0071
3491.00,0.0072
3490.00,0.0072
3489.00,0.0073
3488.00,0.0074
3487.00,0.0075
3486.00,0.0075
3485.00,0.0076
3484.00,0.0076
3483.00,0.0077
3482.00,0.0077
3481.00,0.0077
3480.00,0.0077
3479.00,0.0077
3478.00,0.0078
3477.00,0.0078
3476.00,0.0079
3475.00,0.0079
3474.00,0.0080
3473.00,0.0080
3472.00,0.0081
3471.00,0.0082
3470.00,0.0083
3469.00,0.0083
3468.00,0.0083
3467.00,0.0084
3466.00,0.0084
3465.00,0.0085
3464.00,0.0085
3463.00,0.0086
3462.00,0.0086
3461.00,0.0087
3460.00,0.0087
3459.00,0.0087
3458.00,0.0088
3457.00,0.0088
3456.00,0.0088
3455.00,0.0089
3454.00,0.0089
3453.00,0.0090
3452.00,0.0090
3451.00,0.0091
3450.00,0.0091
3449.00,0.0092
3448.00,0.0092
3447.00,0.0093
3446.00,0.0093
3445.00,0.0093
3444.00,0.0094
3443.00,0.0094
3442.00,0.0094
3441.00,0.0094
3440.00,0.0094
3439.00,0.0094
3438.00,0.0095
3437.00,0.0095
3436.00,0.0096
3435.00,0.0096
3434.00,0.0097
3433.00,0.0097
3432.00,0.0097
3431.00,0.0097
3430.00,0.0097
3429.00,0.0098
3428.00,0.0098
3427.00,0.0098
3426.00,0.0099
3425.00,0.0099
3424.00,0.0100
3423.00,0.0100
3422.00,0.0101
3421.00,0.0101
3420.00,0.0101
3419.00,0.0101
3418.00,0.0101
3417.00,0.0101
3416.00,0.0101
3415.00,0.0101
3414.00,0.0102
3413.00,0.0102
3412.00,0.0102
3411.00,0.0102
3410.00,0.0102
3409.00,0.0103
3408.00,0.0103
3407.00,0.0103
3406.00,0.0104
3405.00,0.0104
3404.00,0.0105
3403.00,0.0105
3402.00,0.0105
3401.00,0.0105
3400.00,0.0105
3399.00,0.0105
3398.00,0.0105
3397.00,0.0104
3396.00,0.0104
3395.00,0.0104
3394.00,0.0104
3393.00,0.0105
3392.00,0.0105
3391.00,0.0105
3390.00,0.0105
3389.00,0.0106
3388.00,0.0106
3387.00,0.0106
3386.00,0.0106
3385.00,0.0106
3384.00,0.0106
3383.00,0.0106
3382.00,0.0106
3381.00,0.0106
3380.00,0.0106
3379.00,0.0107
3378.00,0.0107
3377.00,0.0108
3376.00,0.0108
3375.00,0.0108
3374.00,0.0108
3373.00,0.0108
3372.00,0.0108
3371.00,0.0107
3370.00,0.0107
3369.00,0.0108
3368.00,0.0108
3367.00,0.0108
3366.00,0.0108
3365.00,0.0108
3364.00,0.0108
3363.00,0.0108
3362.00,0.0109
3361.00,0.0109
3360.00,0.0109
3359.00,0.0109
3358.00,0.0109
3357.00,0.0109
3356.00,0.0109
3355.00,0.0110
3354.00,0.0110
3353.00,0.0110
3352.00,0.0110
3351.00,0.0110
3350.00,0.0110
3349.00,0.0110
3348.00,0.0110
3347.00,0.0110
3346.00,0.0110
3345.00,0.0110
3344.00,0.0109
3343.00,0.0109
3342.00,0.0109
3341.00,0.0109
3340.00,0.0109
3339.00,0.0109
3338.00,0.0109
3337.00,0.0109
3336.00,0.0109
3335.00,0.0108
3334.00,0.0108
3333.00,0.0108
3332.00,0.0108
3331.00,0.0108
3330.00,0.0108
3329.00,0.0107
3328.00,0.0107
3327.00,0.0106
3326.00,0.0106
3325.00,0.0106
3324.00,0.0106
3323.00,0.0106
3322.00,0.0106
3321.00,0.0106
3320.00,0.0106
3319.00,0.0106
3318.00,0.0105
3317.00,0.0105
3316.00,0.0105
3315.00,0.0105
3314.00,0.0104
3313.00,0.0104
3312.00,0.0104
3311.00,0.0104
3310.00,0.0104
3309.00,0.0104
3308.00,0.0104
3307.00,0.0103
3306.00,0.0103
3305.00,0.0103
3304.00,0.0103
3303.00,0.0103
3302.00,0.0103
3301.00,0.0103
3300.00,0.0103
3299.00,0.0102
3298.00,0.0102
3297.00,0.0101
3296.00,0.0101
3295.00,0.0101
3294.00,0.0100
3293.00,0.0100
3292.00,0.0100
3291.00,0.0100
3290.00,0.0100
3289.00,0.0100
3288.00,0.0100
3287.00,0.0099
3286.00,0.0099
3285.00,0.0098
3284.00,0.0098
3283.00,0.0098
3282.00,0.0098
3281.00,0.0098
3280.00,0.0098
3279.00,0.0097
3278.00,0.0096
3277.00,0.0096
3276.00,0.0096
3275.00,0.0096
3274.00,0.0095
3273.00,0.0095
3272.00,0.0095
3271.00,0.0095
3270.00,0.0095
3269.00,0.0095
3268.00,0.0095
3267.00,0.0094
3266.00,0.0094
3265.00,0.0094
3264.00,0.0093
3263.00,0.0093
3262.00,0.0092
3261.00,0.0092
3260.00,0.0091
3259.00,0.0091
3258.00,0.0092
3257.00,0.0092
3256.00,0.0092
3255.00,0.0092
3254.00,0.0092
3253.00,0.0092
3252.00,0.0092
3251.00,0.0092
3250.00,0.0091
3249.00,0.0090
3248.00,0.0089
3247.00,0.0089
3246.00,0.0088
3245.00,0.0088
3244.00,0.0088
3243.00,0.0088
3242.00,0.0089
3241.00,0.0089
3240.00,0.0089
3239.00,0.0089
3238.00,0.0089
3237.00,0.0088
3236.00,0.0088
3235.00,0.0088
3234.00,0.0089
3233.00,0.0089
3232.00,0.0089
3231.00,0.0089
3230.00,0.0089
3229.00,0.0089
3228.00,0.0089
3227.00,0.0089
3226.00,0.0089
3225.00,0.0089
3224.00,0.0089
3223.00,0.0089
3222.00,0.0089
3221.00,0.0089
3220.00,0.0090
3219.00,0.0090
3218.00,0.0091
3217.00,0.0091
3216.00,0.0091
3215.00,0.0091
3214.00,0.0091
3213.00,0.0091
3212.00,0.0091
3211.00,0.0091
3210.00,0.0091
3209.00,0.0091
3208.00,0.0091
3207.00,0.0091
3206.00,0.0092
3205.00,0.0092
3204.00,0.0092
3203.00,0.0092
3202.00,0.0092
3201.00,0.0092
3200.00,0.0092
3199.00,0.0092
3198.00,0.0092
3197.00,0.0091
3196.00,0.0090
3195.00,0.0090
3194.00,0.0090
3193.00,0.0090
3192.00,0.0090
3191.00,0.0090
3190.00,0.0090
3189.00,0.0090
3188.00,0.0090
3187.00,0.0089
3186.00,0.0089
3185.00,0.0088
3184.00,0.0088
3183.00,0.0087
3182.00,0.0087
3181.00,0.0087
3180.00,0.0086
3179.00,0.0086
3178.00,0.0086
3177.00,0.0085
3176.00,0.0084
3175.00,0.0084
3174.00,0.0083
3173.00,0.0082
3172.00,0.0082
3171.00,0.0082
3170.00,0.0081
3169.00,0.0081
3168.00,0.0080
3167.00,0.0079
3166.00,0.0079
3165.00,0.0079
3164.00,0.0079
3163.00,0.0078
3162.00,0.0078
3161.00,0.0077
3160.00,0.0076
3159.00,0.0076
3158.00,0.0076
3157.00,0.0076
3156.00,0.0076
3155.00,0.0076
3154.00,0.0075
3153.00,0.0074
3152.00,0.0074
3151.00,0.0074
3150.00,0.0074
3149.00,0.0073
3148.00,0.0073
3147.00,0.0073
3146.00,0.0072
3145.00,0.0072
3144.00,0.0071
3143.00,0.0071
3142.00,0.0071
3141.00,0.0071
3140.00,0.0070
3139.00,0.0070
3138.00,0.0070
3137.00,0.0070
3136.00,0.0070
3135.00,0.0069
3134.00,0.0069
3133.00,0.0069
3132.00,0.0068
3131.00,0.0068
3130.00,0.0068
3129.00,0.0067
3128.00,0.0067
3127.00,0.0066
3126.00,0.0066
3125.00,0.0065
3124.00,0.0065
3123.00,0.0064
3122.00,0.0064
3121.00,0.0063
3120.00,0.0063
3119.00,0.0063
3118.00,0.0063
3117.00,0.0063
3116.00,0.0062
3115.00,0.0062
3114.00,0.0062
3113.00,0.0061
3112.00,0.0061
3111.00,0.0061
3110.00,0.0060
3109.00,0.0060
3108.00,0.0060
3107.00,0.0060
3106.00,0.0060
3105.00,0.0060
3104.00,0.0060
3103.00,0.0060
3102.00,0.0060
3101.00,0.0059
3100.00,0.0059
3099.00,0.0059
3098.00,0.0058
3097.00,0.0058
3096.00,0.0058
3095.00,0.0057
3094.00,0.0057
3093.00,0.0057
3092.00,0.0057
3091.00,0.0057
3090.00,0.0057
3089.00,0.0057
3088.00,0.0057
3087.00,0.0057
3086.00,0.0056
3085.00,0.0056
3084.00,0.0055
3083.00,0.0055
3082.00,0.0055
3081.00,0.0055
3080.00,0.0055
3079.00,0.0055
3078.00,0.0055
3077.00,0.0056
3076.00,0.0056
3075.00,0.0056
3074.00,0.0056
3073.00,0.0056
3072.00,0.0056
3071.00,0.0056
3070.00,0.0056
3069.00,0.0057
3068.00,0.0057
3067.00,0.0057
3066.00,0.0057
3065.00,0.0058
3064.00,0.0058
3063.00,0.0058
3062.00,0.0058
3061.00,0.0058
3060.00,0.0057
3059.00,0.0057
3058.00,0.0057
3057.00,0.0057
3056.00,0.0057
3055.00,0.0057
3054.00,0.0057
3053.00,0.0058
3052.00,0.0058
3051.00,0.0058
3050.00,0.0058
3049.00,0.0059
3048.00,0.0059
3047.00,0.0059
3046.00,0.0060
3045.00,0.0060
3044.00,0.0061
3043.00,0.0061
3042.00,0.0062
3041.00,0.0062
3040.00,0.0062
3039.00,0.0063
3038.00,0.0063
3037.00,0.0063
3036.00,0.0064
3035.00,0.0064
3034.00,0.0065
3033.00,0.0066
3032.00,0.0066
3031.00,0.0067
3030.00,0.0068
3029.00,0.0069
3028.00,0.0071
3027.00,0.0073
3026.00,0.0075
3025.00,0.0077
3024.00,0.0079
3023.00,0.0082
3022.00,0.0085
3021.00,0.0088
3020.00,0.0093
3019.00,0.0098
3018.00,0.0105
3017.00,0.0112
3016.00,0.0121
3015.00,0.0130
3014.00,0.0142
3013.00,0.0155
3012.00,0.0170
3011.00,0.0187
3010.00,0.0205
3009.00,0.0226
3008.00,0.0248
3007.00,0.0272
3006.00,0.0297
3005.00,0.0324
3004.00,0.0350
3003.00,0.0377
3002.00,0.0404
3001.00,0.0430
3000.00,0.0454
2999.00,0.0477
2998.00,0.0498
2997.00,0.0518
2996.00,0.0536
2995.00,0.0553
2994.00,0.0571
2993.00,0.0588
2992.00,0.0605
2991.00,0.0622
2990.00,0.0640
2989.00,0.0659
2988.00,0.0683
2987.00,0.0715
2986.00,0.0764
2985.00,0.0834
2984.00,0.0921
2983.00,0.1007
2982.00,0.1071
2981.00,0.1099
2980.00,0.1096
2979.00,0.1078
2978.00,0.1059
2977.00,0.1051
2976.00,0.1058
2975.00,0.1084
2974.00,0.1128
2973.00,0.1183
2972.00,0.1240
2971.00,0.1289
2970.00,0.1328
2969.00,0.1367
2968.00,0.1415
2967.00,0.1476
2966.00,0.1547
2965.00,0.1625
2964.00,0.1706
2963.00,0.1786
2962.00,0.1861
2961.00,0.1927
2960.00,0.1980
2959.00,0.2019
2958.00,0.2046
2957.00,0.2065
2956.00,0.2080
2955.00,0.2097
2954.00,0.2118
2953.00,0.2140
2952.00,0.2160
2951.00,0.2170
2950.00,0.2161
2949.00,0.2127
2948.00,0.2061
2947.00,0.1966
2946.00,0.1849
2945.00,0.1721
2944.00,0.1597
2943.00,0.1487
2942.00,0.1400
2941.00,0.1337
2940.00,0.1299
2939.00,0.1283
2938.00,0.1286
2937.00,0.1306
2936.00,0.1343
2935.00,0.1395
2934.00,0.1460
2933.00,0.1537
2932.00,0.1623
2931.00,0.1715
2930.00,0.1809
2929.00,0.1905
2928.00,0.1998
2927.00,0.2088
2926.00,0.2172
2925.00,0.2251
2924.00,0.2326
2923.00,0.2399
2922.00,0.2471
2921.00,0.2539
2920.00,0.2599
2919.00,0.2646
2918.00,0.2671
2917.00,0.2670
2916.00,0.2639
2915.00,0.2583
2914.00,0.2508
2913.00,0.2423
2912.00,0.2338
2911.00,0.2258
2910.00,0.2185
2909.00,0.2120
2908.00,0.2060
2907.00,0.2003
2906.00,0.1946
2905.00,0.1887
2904.00,0.1826
2903.00,0.1764
2902.00,0.1700
2901.00,0.1637
2900.00,0.1575
2899.00,0.1516
2898.00,0.1462
2897.00,0.1414
2896.00,0.1372
2895.00,0.1338
2894.00,0.1311
2893.00,0.1292
2892.00,0.1278
2891.00,0.1269
2890.00,0.1263
2889.00,0.1260
2888.00,0.1258
2887.00,0.1260
2886.00,0.1266
2885.00,0.1277
2884.00,0.1289
2883.00,0.1301
2882.00,0.1313
2881.00,0.1325
2880.00,0.1336
2879.00,0.1346
2878.00,0.1351
2877.00,0.1350
2876.00,0.1343
2875.00,0.1332
2874.00,0.1321
2873.00,0.1315
2872.00,0.1314
2871.00,0.1320
2870.00,0.1331
2869.00,0.1343
2868.00,0.1349
2867.00,0.1344
2866.00,0.1320
2865.00,0.1275
2864.00,0.1210
2863.00,0.1133
2862.00,0.1053
2861.00,0.0977
2860.00,0.0912
2859.00,0.0859
2858.00,0.0819
2857.00,0.0791
2856.00,0.0773
2855.00,0.0763
2854.00,0.0759
2853.00,0.0760
2852.00,0.0765
2851.00,0.0772
2850.00,0.0782
2849.00,0.0794
2848.00,0.0810
2847.00,0.0831
2846.00,0.0860
2845.00,0.0899
2844.00,0.0948
2843.00,0.1006
2842.00,0.1069
2841.00,0.1131
2840.00,0.1185
2839.00,0.1221
2838.00,0.1232
2837.00,0.1211
2836.00,0.1157
2835.00,0.1075
2834.00,0.0975
2833.00,0.0868
2832.00,0.0765
2831.00,0.0674
2830.00,0.0596
2829.00,0.0531
2828.00,0.0478
2827.00,0.0436
2826.00,0.0401
2825.00,0.0373
2824.00,0.0349
2823.00,0.0329
2822.00,0.0311
2821.00,0.0296
2820.00,0.0282
2819.00,0.0270
2818.00,0.0260
2817.00,0.0251
2816.00,0.0243
2815.00,0.0236
2814.00,0.0229
2813.00,0.0223
2812.00,0.0217
2811.00,0.0212
2810.00,0.0206
2809.00,0.0201
2808.00,0.0195
2807.00,0.0189
2806.00,0.0182
2805.00,0.0176
2804.00,0.0169
2803.00,0.0163
2802.00,0.0158
2801.00,0.0153
2800.00,0.0150
2799.00,0.0146
2798.00,0.0144
2797.00,0.0141
2796.00,0.0139
2795.00,0.0136
2794.00,0.0133
2793.00,0.0130
2792.00,0.0126
2791.00,0.0123
2790.00,0.0119
2789.00,0.0116
2788.00,0.0113
2787.00,0.0109
2786.00,0.0107
2785.00,0.0104
2784.00,0.0102
2783.00,0.0100
2782.00,0.0098
2781.00,0.0095
2780.00,0.0093
2779.00,0.0091
2778.00,0.0089
2777.00,0.0087
2776.00,0.0086
2775.00,0.0085
2774.00,0.0084
2773.00,0.0083
2772.00,0.0083
2771.00,0.0082
2770.00,0.0081
2769.00,0.0081
2768.00,0.0080
2767.00,0.0080
2766.00,0.0079
2765.00,0.0079
2764.00,0.0079
2763.00,0.0078
2762.00,0.0077
2761.00,0.0076
2760.00,0.0076
2759.00,0.0075
2758.00,0.0074
2757.00,0.0074
2756.00,0.0073
2755.00,0.0073
2754.00,0.0072
2753.00,0.0072
2752.00,0.0072
2751.00,0.0072
2750.00,0.0071
2749.00,0.0072
2748.00,0.0072
2747.00,0.0072
2746.00,0.0073
2745.00,0.0074
2744.00,0.0075
2743.00,0.0076
2742.00,0.0077
2741.00,0.0078
2740.00,0.0079
2739.00,0.0080
2738.00,0.0081
2737.00,0.0082
2736.00,0.0083
2735.00,0.0084
2734.00,0.0086
2733.00,0.0087
2732.00,0.0089
2731.00,0.0090
2730.00,0.0092
2729.00,0.0094
2728.00,0.0096
2727.00,0.0098
2726.00,0.0100
2725.00,0.0102
2724.00,0.0103
2723.00,0.0103
2722.00,0.0102
2721.00,0.0100
2720.00,0.0098
2719.00,0.0095
2718.00,0.0091
2717.00,0.0088
2716.00,0.0085
2715.00,0.0082
2714.00,0.0080
2713.00,0.0078
2712.00,0.0076
2711.00,0.0074
2710.00,0.0072
2709.00,0.0070
2708.00,0.0069
2707.00,0.0068
2706.00,0.0067
2705.00,0.0066
2704.00,0.0065
2703.00,0.0064
2702.00,0.0063
2701.00,0.0062
2700.00,0.0062
2699.00,0.0061
2698.00,0.0061
2697.00,0.0060
2696.00,0.0060
2695.00,0.0060
2694.00,0.0060
2693.00,0.0060
2692.00,0.0060
2691.00,0.0061
2690.00,0.0061
2689.00,0.0061
2688.00,0.0062
2687.00,0.0062
2686.00,0.0062
2685.00,0.0062
2684.00,0.0062
2683.00,0.0063
2682.00,0.0063
2681.00,0.0062
2680.00,0.0063
2679.00,0.0063
2678.00,0.0063
2677.00,0.0063
2676.00,0.0063
2675.00,0.0064
2674.00,0.0064
2673.00,0.0064
2672.00,0.0064
2671.00,0.0065
2670.00,0.0065
2669.00,0.0065
2668.00,0.0066
2667.00,0.0066
2666.00,0.0067
2665.00,0.0067
2664.00,0.0068
2663.00,0.0068
2662.00,0.0068
2661.00,0.0069
2660.00,0.0068
2659.00,0.0068
2658.00,0.0067
2657.00,0.0067
2656.00,0.0067
2655.00,0.0066
2654.00,0.0065
2653.00,0.0065
2652.00,0.0064
2651.00,0.0064
2650.00,0.0063
2649.00,0.0063
2648.00,0.0062
2647.00,0.0062
2646.00,0.0061
2645.00,0.0061
2644.00,0.0061
2643.00,0.0060
2642.00,0.0060
2641.00,0.0059
2640.00,0.0058
2639.00,0.0058
2638.00,0.0057
2637.00,0.0057
2636.00,0.0055
2635.00,0.0054
2634.00,0.0054
2633.00,0.0054
2632.00,0.0054
2631.00,0.0054
2630.00,0.0054
2629.00,0.0054
2628.00,0.0054
2627.00,0.0054
2626.00,0.0054
2625.00,0.0054
2624.00,0.0054
2623.00,0.0054
2622.00,0.0054
2621.00,0.0054
2620.00,0.0054
2619.00,0.0054
2618.00,0.0053
2617.00,0.0053
2616.00,0.0052
2615.00,0.0051
2614.00,0.0051
2613.00,0.0050
2612.00,0.0050
2611.00,0.0050
2610.00,0.0049
2609.00,0.0048
2608.00,0.0048
2607.00,0.0047
2606.00,0.0046
2605.00,0.0045
2604.00,0.0044
2603.00,0.0043
2602.00,0.0043
2601.00,0.0043
2600.00,0.0042
2599.00,0.0041
2598.00,0.0041
2597.00,0.0040
2596.00,0.0040
2595.00,0.0040
2594.00,0.0041
2593.00,0.0041
2592.00,0.0041
2591.00,0.0042
2590.00,0.0042
2589.00,0.0043
2588.00,0.0043
2587.00,0.0044
2586.00,0.0045
2585.00,0.0046
2584.00,0.0046
2583.00,0.0047
2582.00,0.0047
2581.00,0.0047
2580.00,0.0047
2579.00,0.0046
2578.00,0.0044
2577.00,0.0043
2576.00,0.0041
2575.00,0.0040
2574.00,0.0039
2573.00,0.0038
2572.00,0.0038
2571.00,0.0036
2570.00,0.0035
2569.00,0.0034
2568.00,0.0033
2567.00,0.0033
2566.00,0.0032
2565.00,0.0031
2564.00,0.0031
2563.00,0.0031
2562.00,0.0031
2561.00,0.0031
2560.00,0.0031
2559.00,0.0031
2558.00,0.0030
2557.00,0.0030
2556.00,0.0030
2555.00,0.0029
2554.00,0.0029
2553.00,0.0028
2552.00,0.0028
2551.00,0.0027
2550.00,0.0028
2549.00,0.0028
2548.00,0.0028
2547.00,0.0028
2546.00,0.0028
2545.00,0.0027
2544.00,0.0026
2543.00,0.0025
2542.00,0.0025
2541.00,0.0025
2540.00,0.0025
2539.00,0.0025
2538.00,0.0025
2537.00,0.0024
2536.00,0.0024
2535.00,0.0023
2534.00,0.0023
2533.00,0.0023
2532.00,0.0023
2531.00,0.0024
2530.00,0.0024
2529.00,0.0024
2528.00,0.0023
2527.00,0.0023
2526.00,0.0023
2525.00,0.0022
2524.00,0.0021
2523.00,0.0021
2522.00,0.0020
2521.00,0.0021
2520.00,0.0021
2519.00,0.0022
2518.00,0.0023
2517.00,0.0023
2516.00,0.0023
2515.00,0.0022
2514.00,0.0021
2513.00,0.0020
2512.00,0.0019
2511.00,0.0019
2510.00,0.0019
2509.00,0.0019
2508.00,0.0020
2507.00,0.0020
2506.00,0.0020
2505.00,0.0020
2504.00,0.0020
2503.00,0.0019
2502.00,0.0019
2501.00,0.0018
2500.00,0.0018
2499.00,0.0018
2498.00,0.0018
2497.00,0.0018
2496.00,0.0018
2495.00,0.0018
2494.00,0.0018
2493.00,0.0019
2492.00,0.0019
2491.00,0.0019
2490.00,0.0018
2489.00,0.0018
2488.00,0.0018
2487.00,0.0019
2486.00,0.0019
2485.00,0.0018
2484.00,0.0018
2483.00,0.0018
2482.00,0.0018
2481.00,0.0018
2480.00,0.0018
2479.00,0.0018
2478.00,0.0017
2477.00,0.0017
2476.00,0.0016
2475.00,0.0015
2474.00,0.0015
2473.00,0.0015
2472.00,0.0016
2471.00,0.0016
2470.00,0.0016
2469.00,0.0016
2468.00,0.0016
2467.00,0.0017
2466.00,0.0018
2465.00,0.0018
2464.00,0.0018
2463.00,0.0018
2462.00,0.0018
2461.00,0.0018
2460.00,0.0018
2459.00,0.0018
2458.00,0.0018
2457.00,0.0018
2456.00,0.0018
2455.00,0.0017
2454.00,0.0017
2453.00,0.0017
2452.00,0.0018
2451.00,0.0018
2450.00,0.0018
2449.00,0.0018
2448.00,0.0018
2447.00,0.0018
2446.00,0.0018
2445.00,0.0018
2444.00,0.0019
2443.00,0.0019
2442.00,0.0019
2441.00,0.0019
2440.00,0.0019
2439.00,0.0018
2438.00,0.0018
2437.00,0.0018
2436.00,0.0018
2435.00,0.0018
2434.00,0.0019
2433.00,0.0019
2432.00,0.0019
2431.00,0.0020
2430.00,0.0020
2429.00,0.0020
2428.00,0.0019
2427.00,0.0019
2426.00,0.0018
2425.00,0.0018
2424.00,0.0018
2423.00,0.0018
2422.00,0.0018
2421.00,0.0018
2420.00,0.0017
2419.00,0.0017
2418.00,0.0017
2417.00,0.0017
2416.00,0.0016
2415.00,0.0016
2414.00,0.0016
2413.00,0.0017
2412.00,0.0017
2411.00,0.0018
2410.00,0.0018
2409.00,0.0017
2408.00,0.0016
2407.00,0.0015
2406.00,0.0014
2405.00,0.0014
2404.00,0.0014
2403.00,0.0015
2402.00,0.0015
2401.00,0.0015
2400.00,0.0015
2399.00,0.0015
2398.00,0.0015
2397.00,0.0015
2396.00,0.0015
2395.00,0.0016
2394.00,0.0016
2393.00,0.0015
2392.00,0.0014
2391.00,0.0014
2390.00,0.0013
2389.00,0.0013
2388.00,0.0013
2387.00,0.0013
2386.00,0.0012
2385.00,0.0012
2384.00,0.0012
2383.00,0.0012
2382.00,0.0011
2381.00,0.0011
2380.00,0.0010
2379.00,0.0010
2378.00,0.0010
2377.00,0.0011
2376.00,0.0011
2375.00,0.0011
2374.00,0.0011
2373.00,0.0011
2372.00,0.0011
2371.00,0.0011
2370.00,0.0011
2369.00,0.0011
2368.00,0.0012
2367.00,0.0012
2366.00,0.0012
2365.00,0.0012
2364.00,0.0011
2363.00,0.0011
2362.00,0.0011
2361.00,0.0012
2360.00,0.0013
2359.00,0.0013
2358.00,0.0014
2357.00,0.0015
2356.00,0.0015
2355.00,0.0015
2354.00,0.0014
2353.00,0.0013
2352.00,0.0012
2351.00,0.0013
2350.00,0.0015
2349.00,0.0017
2348.00,0.0017
2347.00,0.0017
2346.00,0.0016
2345.00,0.0015
2344.00,0.0015
2343.00,0.0015
2342.00,0.0016
2341.00,0.0016
2340.00,0.0016
2339.00,0.0016
2338.00,0.0016
2337.00,0.0016
2336.00,0.0016
2335.00,0.0015
2334.00,0.0015
2333.00,0.0015
2332.00,0.0015
2331.00,0.0015
2330.00,0.0015
2329.00,0.0016
2328.00,0.0018
2327.00,0.0021
2326.00,0.0025
2325.00,0.0028
2324.00,0.0028
2323.00,0.0027
2322.00,0.0025
2321.00,0.0023
2320.00,0.0022
2319.00,0.0021
2318.00,0.0020
2317.00,0.0020
2316.00,0.0019
2315.00,0.0019
2314.00,0.0018
2313.00,0.0018
2312.00,0.0017
2311.00,0.0016
2310.00,0.0015
2309.00,0.0015
2308.00,0.0016
2307.00,0.0016
2306.00,0.0016
2305.00,0.0016
2304.00,0.0016
2303.00,0.0016
2302.00,0.0017
2301.00,0.0017
2300.00,0.0017
2299.00,0.0017
2298.00,0.0017
2297.00,0.0017
2296.00,0.0018
2295.00,0.0019
2294.00,0.0019
2293.00,0.0020
2292.00,0.0021
2291.00,0.0022
2290.00,0.0023
2289.00,0.0025
2288.00,0.0025
2287.00,0.0026
2286.00,0.0026
2285.00,0.0025
2284.00,0.0024
2283.00,0.0023
2282.00,0.0023
2281.00,0.0022
2280.00,0.0022
2279.00,0.0021
2278.00,0.0020
2277.00,0.0018
2276.00,0.0017
2275.00,0.0017
2274.00,0.0017
2273.00,0.0016
2272.00,0.0016
2271.00,0.0015
2270.00,0.0016
2269.00,0.0016
2268.00,0.0018
2267.00,0.0018
2266.00,0.0017
2265.00,0.0015
2264.00,0.0013
2263.00,0.0012
2262.00,0.0012
2261.00,0.0013
2260.00,0.0015
2259.00,0.0017
2258.00,0.0017
2257.00,0.0017
2256.00,0.0016
2255.00,0.0014
2254.00,0.0013
2253.00,0.0012
2252.00,0.0012
2251.00,0.0012
2250.00,0.0012
2249.00,0.0013
2248.00,0.0013
2247.00,0.0012
2246.00,0.0013
2245.00,0.0013
2244.00,0.0013
2243.00,0.0013
2242.00,0.0013
2241.00,0.0014
2240.00,0.0015
2239.00,0.0015
2238.00,0.0014
2237.00,0.0013
2236.00,0.0012
2235.00,0.0011
2234.00,0.0010
2233.00,0.0011
2232.00,0.0012
2231.00,0.0013
2230.00,0.0014
2229.00,0.0015
2228.00,0.0016
2227.00,0.0016
2226.00,0.0015
2225.00,0.0014
2224.00,0.0014
2223.00,0.0014
2222.00,0.0014
2221.00,0.0013
2220.00,0.0011
2219.00,0.0009
2218.00,0.0009
2217.00,0.0010
2216.00,0.0010
2215.00,0.0010
2214.00,0.0010
2213.00,0.0010
2212.00,0.0011
2211.00,0.0012
2210.00,0.0012
2209.00,0.0011
2208.00,0.0011
2207.00,0.0010
2206.00,0.0011
2205.00,0.0012
2204.00,0.0014
2203.00,0.0015
2202.00,0.0016
2201.00,0.0016
2200.00,0.0015
2199.00,0.0013
2198.00,0.0011
2197.00,0.0010
2196.00,0.0010
2195.00,0.0012
2194.00,0.0015
2193.00,0.0017
2192.00,0.0018
2191.00,0.0018
2190.00,0.0016
2189.00,0.0014
2188.00,0.0011
2187.00,0.0009
2186.00,0.0009
2185.00,0.0011
2184.00,0.0014
2183.00,0.0016
2182.00,0.0017
2181.00,0.0016
2180.00,0.0015
2179.00,0.0013
2178.00,0.0011
2177.00,0.0008
2176.00,0.0007
2175.00,0.0007
2174.00,0.0009
2173.00,0.0012
2172.00,0.0014
2171.00,0.0015
2170.00,0.0017
2169.00,0.0018
2168.00,0.0019
2167.00,0.0019
2166.00,0.0018
2165.00,0.0017
2164.00,0.0017
2163.00,0.0016
2162.00,0.0015
2161.00,0.0010
2160.00,0.0001
2159.00,-0.0012
2158.00,-0.0023
2157.00,-0.0028
2156.00,-0.0027
2155.00,-0.0022
2154.00,-0.0017
2153.00,-0.0013
2152.00,-0.0011
2151.00,-0.0010
2150.00,-0.0010
2149.00,-0.0010
2148.00,-0.0010
2147.00,-0.0010
2146.00,-0.0010
2145.00,-0.0009
2144.00,-0.0009
2143.00,-0.0009
2142.00,-0.0009
2141.00,-0.0009
2140.00,-0.0008
2139.00,-0.0007
2138.00,-0.0007
2137.00,-0.0007
2136.00,-0.0007
2135.00,-0.0008
2134.00,-0.0010
2133.00,-0.0011
2132.00,-0.0011
2131.00,-0.0010
2130.00,-0.0010
2129.00,-0.0009
2128.00,-0.0008
2127.00,-0.0006
2126.00,-0.0005
2125.00,-0.0003
2124.00,-0.0001
2123.00,0.0001
2122.00,0.0003
2121.00,0.0004
2120.00,0.0006
2119.00,0.0006
2118.00,0.0007
2117.00,0.0007
2116.00,0.0007
2115.00,0.0007
2114.00,0.0007
2113.00,0.0007
2112.00,0.0006
2111.00,0.0006
2110.00,0.0007
2109.00,0.0007
2108.00,0.0008
2107.00,0.0009
2106.00,0.0009
2105.00,0.0009
2104.00,0.0009
2103.00,0.0009
2102.00,0.0009
2101.00,0.0009
2100.00,0.0010
2099.00,0.0010
2098.00,0.0010
2097.00,0.0008
2096.00,0.0006
2095.00,0.0004
2094.00,0.0003
2093.00,0.0004
2092.00,0.0005
2091.00,0.0006
2090.00,0.0007
2089.00,0.0008
2088.00,0.0011
2087.00,0.0012
2086.00,0.0012
2085.00,0.0010
2084.00,0.0009
2083.00,0.0008
2082.00,0.0008
2081.00,0.0008
2080.00,0.0008
2079.00,0.0008
2078.00,0.0008
2077.00,0.0009
2076.00,0.0009
2075.00,0.0009
2074.00,0.0009
2073.00,0.0010
2072.00,0.0012
2071.00,0.0012
2070.00,0.0011
2069.00,0.0009
2068.00,0.0007
2067.00,0.0006
2066.00,0.0006
2065.00,0.0006
2064.00,0.0007
2063.00,0.0007
2062.00,0.0007
2061.00,0.0007
2060.00,0.0008
2059.00,0.0009
2058.00,0.0010
2057.00,0.0011
2056.00,0.0011
2055.00,0.0009
2054.00,0.0008
2053.00,0.0009
2052.00,0.0012
2051.00,0.0014
2050.00,0.0013
2049.00,0.0010
2048.00,0.0007
2047.00,0.0006
2046.00,0.0006
2045.00,0.0006
2044.00,0.0007
2043.00,0.0007
2042.00,0.0008
2041.00,0.0009
2040.00,0.0011
2039.00,0.0012
2038.00,0.0011
2037.00,0.0010
2036.00,0.0007
2035.00,0.0004
2034.00,0.0000
2033.00,-0.0001
2032.00,-0.0000
2031.00,0.0001
2030.00,0.0002
2029.00,0.0002
2028.00,0.0000
2027.00,-0.0002
2026.00,-0.0003
2025.00,-0.0003
2024.00,-0.0002
2023.00,-0.0001
2022.00,0.0000
2021.00,0.0002
2020.00,0.0003
2019.00,0.0003
2018.00,0.0002
2017.00,-0.0001
2016.00,-0.0004
2015.00,-0.0008
2014.00,-0.0011
2013.00,-0.0014
2012.00,-0.0014
2011.00,-0.0011
2010.00,-0.0008
2009.00,-0.0005
2008.00,-0.0004
2007.00,-0.0007
2006.00,-0.0010
2005.00,-0.0011
2004.00,-0.0009
2003.00,-0.0007
2002.00,-0.0004
2001.00,-0.0002
2000.00,-0.0001
1999.00,-0.0000
1998.00,-0.0001
1997.00,-0.0002
1996.00,-0.0004
1995.00,-0.0005
1994.00,-0.0006
1993.00,-0.0006
1992.00,-0.0005
1991.00,-0.0003
1990.00,0.0000
1989.00,0.0004
1988.00,0.0008
1987.00,0.0010
1986.00,0.0012
1985.00,0.0013
1984.00,0.0014
1983.00,0.0014
1982.00,0.0014
1981.00,0.0014
1980.00,0.0013
1979.00,0.0008
1978.00,0.0001
1977.00,-0.0007
1976.00,-0.0012
1975.00,-0.0015
1974.00,-0.0016
1973.00,-0.0015
1972.00,-0.0014
1971.00,-0.0013
1970.00,-0.0012
1969.00,-0.0011
1968.00,-0.0010
1967.00,-0.0008
1966.00,-0.0007
1965.00,-0.0005
1964.00,-0.0004
1963.00,-0.0004
1962.00,-0.0005
1961.00,-0.0006
1960.00,-0.0007
1959.00,-0.0009
1958.00,-0.0012
1957.00,-0.0015
1956.00,-0.0017
1955.00,-0.0017
1954.00,-0.0018
1953.00,-0.0017
1952.00,-0.0016
1951.00,-0.0014
1950.00,-0.0012
1949.00,-0.0010
1948.00,-0.0009
1947.00,-0.0010
1946.00,-0.0011
1945.00,-0.0011
1944.00,-0.0009
1943.00,-0.0008
1942.00,-0.0007
1941.00,-0.0008
1940.00,-0.0009
1939.00,-0.0009
1938.00,-0.0010
1937.00,-0.0010
1936.00,-0.0009
1935.00,-0.0008
1934.00,-0.0007
1933.00,-0.0007
1932.00,-0.0006
1931.00,-0.0006
1930.00,-0.0006
1929.00,-0.0005
1928.00,-0.0004
1927.00,-0.0003
1926.00,-0.0003
1925.00,-0.0003
1924.00,-0.0002
1923.00,-0.0002
1922.00,-0.0001
1921.00,0.0001
1920.00,0.0003
1919.00,0.0004
1918.00,0.0004
1917.00,0.0004
1916.00,0.0003
1915.00,0.0002
1914.00,0.0001
1913.00,0.0001
1912.00,0.0002
1911.00,0.0003
1910.00,0.0003
1909.00,0.0004
1908.00,0.0004
1907.00,0.0004
1906.00,0.0004
1905.00,0.0004
1904.00,0.0005
1903.00,0.0005
1902.00,0.0006
1901.00,0.0006
1900.00,0.0006
1899.00,0.0006
1898.00,0.0005
1897.00,0.0004
1896.00,0.0003
1895.00,0.0003
1894.00,0.0003
1893.00,0.0004
1892.00,0.0005
1891.00,0.0005
1890.00,0.0005
1889.00,0.0004
1888.00,0.0003
1887.00,0.0003
1886.00,0.0003
1885.00,0.0003
1884.00,0.0004
1883.00,0.0004
1882.00,0.0005
1881.00,0.0005
1880.00,0.0005
1879.00,0.0004
1878.00,0.0004
1877.00,0.0003
1876.00,0.0003
1875.00,0.0003
1874.00,0.0003
1873.00,0.0003
1872.00,0.0003
1871.00,0.0003
1870.00,0.0003
1869.00,0.0004
1868.00,0.0005
1867.00,0.0005
1866.00,0.0005
1865.00,0.0005
1864.00,0.0006
1863.00,0.0006
1862.00,0.0007
1861.00,0.0006
1860.00,0.0006
1859.00,0.0005
1858.00,0.0005
1857.00,0.0004
1856.00,0.0005
1855.00,0.0005
1854.00,0.0005
1853.00,0.0006
1852.00,0.0006
1851.00,0.0006
1850.00,0.0007
1849.00,0.0007
1848.00,0.0007
1847.00,0.0008
1846.00,0.0008
1845.00,0.0008
1844.00,0.0008
1843.00,0.0009
1842.00,0.0008
1841.00,0.0008
1840.00,0.0009
1839.00,0.0009
1838.00,0.0009
1837.00,0.0008
1836.00,0.0008
1835.00,0.0008
1834.00,0.0008
1833.00,0.0008
1832.00,0.0008
1831.00,0.0008
1830.00,0.0009
1829.00,0.0009
1828.00,0.0009
1827.00,0.0009
1826.00,0.0009
1825.00,0.0009
1824.00,0.0009
1823.00,0.0009
1822.00,0.0008
1821.00,0.0008
1820.00,0.0008
1819.00,0.0008
1818.00,0.0007
1817.00,0.0007
1816.00,0.0007
1815.00,0.0007
1814.00,0.0007
1813.00,0.0008
1812.00,0.0008
1811.00,0.0009
1810.00,0.0009
1809.00,0.0009
1808.00,0.0009
1807.00,0.0009
1806.00,0.0009
1805.00,0.0009
1804.00,0.0009
1803.00,0.0010
1802.00,0.0010
1801.00,0.0010
1800.00,0.0011
1799.00,0.0011
1798.00,0.0012
1797.00,0.0012
1796.00,0.0013
1795.00,0.0013
1794.00,0.0013
1793.00,0.0014
1792.00,0.0014
1791.00,0.0014
1790.00,0.0015
1789.00,0.0015
1788.00,0.0015
1787.00,0.0016
1786.00,0.0017
1785.00,0.0018
1784.00,0.0019
1783.00,0.0020
1782.00,0.0020
1781.00,0.0020
1780.00,0.0020
1779.00,0.0020
1778.00,0.0019
1777.00,0.0019
1776.00,0.0019
1775.00,0.0019
1774.00,0.0019
1773.00,0.0020
1772.00,0.0021
1771.00,0.0022
1770.00,0.0023
1769.00,0.0024
1768.00,0.0024
1767.00,0.0024
1766.00,0.0024
1765.00,0.0024
1764.00,0.0025
1763.00,0.0025
1762.00,0.0026
1761.00,0.0026
1760.00,0.0027
1759.00,0.0028
1758.00,0.0029
1757.00,0.0030
1756.00,0.0032
1755.00,0.0033
1754.00,0.0034
1753.00,0.0035
1752.00,0.0037
1751.00,0.0039
1750.00,0.0040
1749.00,0.0040
1748.00,0.0041
1747.00,0.0042
1746.00,0.0043
1745.00,0.0044
1744.00,0.0045
1743.00,0.0045
1742.00,0.0046
1741.00,0.0046
1740.00,0.0047
1739.00,0.0047
1738.00,0.0048
1737.00,0.0048
1736.00,0.0048
1735.00,0.0047
1734.00,0.0047
1733.00,0.0047
1732.00,0.0047
1731.00,0.0047
1730.00,0.0046
1729.00,0.0045
1728.00,0.0044
1727.00,0.0043
1726.00,0.0043
1725.00,0.0042
1724.00,0.0042
1723.00,0.0042
1722.00,0.0042
1721.00,0.0042
1720.00,0.0042
1719.00,0.0041
1718.00,0.0040
1717.00,0.0039
1716.00,0.0039
1715.00,0.0039
1714.00,0.0039
1713.00,0.0039
1712.00,0.0040
1711.00,0.0040
1710.00,0.0040
1709.00,0.0040
1708.00,0.0040
1707.00,0.0040
1706.00,0.0040
1705.00,0.0041
1704.00,0.0042
1703.00,0.0043
1702.00,0.0043
1701.00,0.0043
1700.00,0.0044
1699.00,0.0045
1698.00,0.0045
1697.00,0.0047
1696.00,0.0049
1695.00,0.0050
1694.00,0.0051
1693.00,0.0052
1692.00,0.0053
1691.00,0.0054
1690.00,0.0055
1689.00,0.0056
1688.00,0.0058
1687.00,0.0058
1686.00,0.0059
1685.00,0.0060
1684.00,0.0062
1683.00,0.0065
1682.00,0.0067
1681.00,0.0069
1680.00,0.0071
1679.00,0.0072
1678.00,0.0073
1677.00,0.0073
1676.00,0.0075
1675.00,0.0078
1674.00,0.0080
1673.00,0.0081
1672.00,0.0083
1671.00,0.0084
1670.00,0.0085
1669.00,0.0087
1668.00,0.0088
1667.00,0.0090
1666.00,0.0091
1665.00,0.0092
1664.00,0.0094
1663.00,0.0095
1662.00,0.0097
1661.00,0.0099
1660.00,0.0101
1659.00,0.0103
1658.00,0.0105
1657.00,0.0106
1656.00,0.0108
1655.00,0.0110
1654.00,0.0111
1653.00,0.0111
1652.00,0.0112
1651.00,0.0113
1650.00,0.0113
1649.00,0.0114
1648.00,0.0116
1647.00,0.0117
1646.00,0.0118
1645.00,0.0119
1644.00,0.0120
1643.00,0.0121
1642.00,0.0122
1641.00,0.0122
1640.00,0.0123
1639.00,0.0124
1638.00,0.0124
1637.00,0.0124
1636.00,0.0124
1635.00,0.0124
1634.00,0.0124
1633.00,0.0124
1632.00,0.0124
1631.00,0.0123
1630.00,0.0123
1629.00,0.0122
1628.00,0.0121
1627.00,0.0121
1626.00,0.0120
1625.00,0.0119
1624.00,0.0118
1623.00,0.0117
1622.00,0.0116
1621.00,0.0116
1620.00,0.0115
1619.00,0.0115
1618.00,0.0114
1617.00,0.0113
1616.00,0.0112
1615.00,0.0112
1614.00,0.0112
1613.00,0.0112
1612.00,0.0112
1611.00,0.0112
1610.00,0.0112
1609.00,0.0112
1608.00,0.0112
1607.00,0.0112
1606.00,0.0112
1605.00,0.0112
1604.00,0.0112
1603.00,0.0112
1602.00,0.0111
1601.00,0.0111
1600.00,0.0110
1599.00,0.0110
1598.00,0.0110
1597.00,0.0110
1596.00,0.0110
1595.00,0.0110
1594.00,0.0109
1593.00,0.0109
1592.00,0.0110
1591.00,0.0111
1590.00,0.0112
1589.00,0.0114
1588.00,0.0115
1587.00,0.0117
1586.00,0.0120
1585.00,0.0124
1584.00,0.0128
1583.00,0.0133
1582.00,0.0138
1581.00,0.0143
1580.00,0.0147
1579.00,0.0151
1578.00,0.0153
1577.00,0.0153
1576.00,0.0152
1575.00,0.0150
1574.00,0.0147
1573.00,0.0144
1572.00,0.0141
1571.00,0.0137
1570.00,0.0132
1569.00,0.0128
1568.00,0.0125
1567.00,0.0123
1566.00,0.0122
1565.00,0.0121
1564.00,0.0120
1563.00,0.0121
1562.00,0.0121
1561.00,0.0122
1560.00,0.0123
1559.00,0.0123
1558.00,0.0124
1557.00,0.0125
1556.00,0.0127
1555.00,0.0130
1554.00,0.0132
1553.00,0.0134
1552.00,0.0137
1551.00,0.0140
1550.00,0.0144
1549.00,0.0148
1548.00,0.0152
1547.00,0.0156
1546.00,0.0161
1545.00,0.0167
1544.00,0.0173
1543.00,0.0177
1542.00,0.0180
1541.00,0.0182
1540.00,0.0181
1539.00,0.0176
1538.00,0.0170
1537.00,0.0165
1536.00,0.0161
1535.00,0.0155
1534.00,0.0147
1533.00,0.0140
1532.00,0.0135
1531.00,0.0130
1530.00,0.0127
1529.00,0.0123
1528.00,0.0121
1527.00,0.0118
1526.00,0.0116
1525.00,0.0114
1524.00,0.0112
1523.00,0.0110
1522.00,0.0108
1521.00,0.0107
1520.00,0.0107
1519.00,0.0106
1518.00,0.0105
1517.00,0.0105
1516.00,0.0106
1515.00,0.0106
1514.00,0.0105
1513.00,0.0105
1512.00,0.0106
1511.00,0.0107
1510.00,0.0107
1509.00,0.0109
1508.00,0.0111
1507.00,0.0113
1506.00,0.0113
1505.00,0.0115
1504.00,0.0117
1503.00,0.0120
1502.00,0.0124
1501.00,0.0128
1500.00,0.0134
1499.00,0.0140
1498.00,0.0146
1497.00,0.0155
1496.00,0.0166
1495.00,0.0174
1494.00,0.0181
1493.00,0.0188
1492.00,0.0195
1491.00,0.0202
1490.00,0.0208
1489.00,0.0216
1488.00,0.0223
1487.00,0.0230
1486.00,0.0237
1485.00,0.0245
1484.00,0.0253
1483.00,0.0262
1482.00,0.0274
1481.00,0.0287
1480.00,0.0303
1479.00,0.0318
1478.00,0.0337
1477.00,0.0362
1476.00,0.0394
1475.00,0.0429
1474.00,0.0472
1473.00,0.0525
1472.00,0.0580
1471.00,0.0630
1470.00,0.0678
1469.00,0.0732
1468.00,0.0795
1467.00,0.0868
1466.00,0.0958
1465.00,0.1059
1464.00,0.1150
1463.00,0.1213
1462.00,0.1252
1461.00,0.1277
1460.00,0.1295
1459.00,0.1307
1458.00,0.1319
1457.00,0.1330
1456.00,0.1333
1455.00,0.1329
1454.00,0.1321
1453.00,0.1308
1452.00,0.1285
1451.00,0.1249
1450.00,0.1197
1449.00,0.1123
1448.00,0.1027
1447.00,0.0925
1446.00,0.0834
1445.00,0.0755
1444.00,0.0688
1443.00,0.0634
1442.00,0.0594
1441.00,0.0566
1440.00,0.0548
1439.00,0.0541
1438.00,0.0540
1437.00,0.0538
1436.00,0.0524
1435.00,0.0495
1434.00,0.0456
1433.00,0.0410
1432.00,0.0364
1431.00,0.0323
1430.00,0.0292
1429.00,0.0269
1428.00,0.0255
1427.00,0.0246
1426.00,0.0242
1425.00,0.0238
1424.00,0.0235
1423.00,0.0235
1422.00,0.0236
1421.00,0.0236
1420.00,0.0237
1419.00,0.0238
1418.00,0.0240
1417.00,0.0240
1416.00,0.0240
1415.00,0.0242
1414.00,0.0244
1413.00,0.0246
1412.00,0.0250
1411.00,0.0255
1410.00,0.0261
1409.00,0.0267
1408.00,0.0273
1407.00,0.0282
1406.00,0.0292
1405.00,0.0304
1404.00,0.0316
1403.00,0.0330
1402.00,0.0344
1401.00,0.0359
1400.00,0.0375
1399.00,0.0394
1398.00,0.0413
1397.00,0.0429
1396.00,0.0444
1395.00,0.0460
1394.00,0.0474
1393.00,0.0484
1392.00,0.0491
1391.00,0.0500
1390.00,0.0512
1389.00,0.0531
1388.00,0.0560
1387.00,0.0602
1386.00,0.0654
1385.00,0.0720
1384.00,0.0804
1383.00,0.0916
1382.00,0.1059
1381.00,0.1236
1380.00,0.1450
1379.00,0.1688
1378.00,0.1916
1377.00,0.2080
1376.00,0.2131
1375.00,0.2037
1374.00,0.1820
1373.00,0.1553
1372.00,0.1304
1371.00,0.1092
1370.00,0.0919
1369.00,0.0783
1368.00,0.0686
1367.00,0.0623
1366.00,0.0587
1365.00,0.0569
1364.00,0.0565
1363.00,0.0572
1362.00,0.0586
1361.00,0.0603
1360.00,0.0615
1359.00,0.0615
1358.00,0.0600
1357.00,0.0571
1356.00,0.0530
1355.00,0.0484
1354.00,0.0440
1353.00,0.0402
1352.00,0.0371
1351.00,0.0346
1350.00,0.0326
1349.00,0.0309
1348.00,0.0296
1347.00,0.0284
1346.00,0.0275
1345.00,0.0267
1344.00,0.0261
1343.00,0.0255
1342.00,0.0250
1341.00,0.0245
1340.00,0.0240
1339.00,0.0235
1338.00,0.0231
1337.00,0.0228
1336.00,0.0226
1335.00,0.0226
1334.00,0.0226
1333.00,0.0228
1332.00,0.0230
1331.00,0.0230
1330.00,0.0229
1329.00,0.0225
1328.00,0.0219
1327.00,0.0212
1326.00,0.0204
1325.00,0.0195
1324.00,0.0187
1323.00,0.0179
1322.00,0.0173
1321.00,0.0169
1320.00,0.0165
1319.00,0.0161
1318.00,0.0158
1317.00,0.0155
1316.00,0.0153
1315.00,0.0151
1314.00,0.0149
1313.00,0.0149
1312.00,0.0149
1311.00,0.0151
1310.00,0.0155
1309.00,0.0162
1308.00,0.0173
1307.00,0.0185
1306.00,0.0198
1305.00,0.0206
1304.00,0.0209
1303.00,0.0206
1302.00,0.0200
1301.00,0.0194
1300.00,0.0190
1299.00,0.0188
1298.00,0.0188
1297.00,0.0188
1296.00,0.0187
1295.00,0.0185
1294.00,0.0181
1293.00,0.0177
1292.00,0.0172
1291.00,0.0168
1290.00,0.0165
1289.00,0.0162
1288.00,0.0159
1287.00,0.0158
1286.00,0.0157
1285.00,0.0158
1284.00,0.0159
1283.00,0.0160
1282.00,0.0162
1281.00,0.0164
1280.00,0.0166
1279.00,0.0170
1278.00,0.0175
1277.00,0.0180
1276.00,0.0186
1275.00,0.0192
1274.00,0.0199
1273.00,0.0206
1272.00,0.0214
1271.00,0.0223
1270.00,0.0232
1269.00,0.0241
1268.00,0.0250
1267.00,0.0259
1266.00,0.0269
1265.00,0.0277
1264.00,0.0285
1263.00,0.0293
1262.00,0.0299
1261.00,0.0307
1260.00,0.0315
1259.00,0.0325
1258.00,0.0337
1257.00,0.0348
1256.00,0.0357
1255.00,0.0361
1254.00,0.0360
1253.00,0.0355
1252.00,0.0348
1251.00,0.0340
1250.00,0.0330
1249.00,0.0320
1248.00,0.0310
1247.00,0.0302
1246.00,0.0296
1245.00,0.0292
1244.00,0.0290
1243.00,0.0288
1242.00,0.0286
1241.00,0.0283
1240.00,0.0280
1239.00,0.0276
1238.00,0.0272
1237.00,0.0267
1236.00,0.0262
1235.00,0.0256
1234.00,0.0250
1233.00,0.0244
1232.00,0.0238
1231.00,0.0231
1230.00,0.0226
1229.00,0.0220
1228.00,0.0214
1227.00,0.0210
1226.00,0.0206
1225.00,0.0203
1224.00,0.0201
1223.00,0.0200
1222.00,0.0199
1221.00,0.0198
1220.00,0.0197
1219.00,0.0194
1218.00,0.0191
1217.00,0.0186
1216.00,0.0181
1215.00,0.0175
1214.00,0.0170
1213.00,0.0165
1212.00,0.0161
1211.00,0.0157
1210.00,0.0154
1209.00,0.0151
1208.00,0.0149
1207.00,0.0147
1206.00,0.0146
1205.00,0.0146
1204.00,0.0146
1203.00,0.0146
1202.00,0.0146
1201.00,0.0146
1200.00,0.0147
1199.00,0.0149
1198.00,0.0152
1197.00,0.0155
1196.00,0.0158
1195.00,0.0161
1194.00,0.0164
1193.00,0.0168
1192.00,0.0172
1191.00,0.0177
1190.00,0.0183
1189.00,0.0189
1188.00,0.0195
1187.00,0.0203
1186.00,0.0211
1185.00,0.0220
1184.00,0.0229
1183.00,0.0239
1182.00,0.0249
1181.00,0.0259
1180.00,0.0271
1179.00,0.0284
1178.00,0.0298
1177.00,0.0315
1176.00,0.0335
1175.00,0.0360
1174.00,0.0390
1173.00,0.0426
1172.00,0.0467
1171.00,0.0513
1170.00,0.0557
1169.00,0.0594
1168.00,0.0620
1167.00,0.0632
1166.00,0.0631
1165.00,0.0622
1164.00,0.0607
1163.00,0.0590
1162.00,0.0575
1161.00,0.0564
1160.00,0.0556
1159.00,0.0551
1158.00,0.0548
1157.00,0.0547
1156.00,0.0546
1155.00,0.0546
1154.00,0.0545
1153.00,0.0544
1152.00,0.0541
1151.00,0.0534
1150.00,0.0524
1149.00,0.0511
1148.00,0.0497
1147.00,0.0482
1146.00,0.0467
1145.00,0.0453
1144.00,0.0439
1143.00,0.0427
1142.00,0.0416
1141.00,0.0407
1140.00,0.0399
1139.00,0.0391
1138.00,0.0383
1137.00,0.0374
1136.00,0.0365
1135.00,0.0355
1134.00,0.0348
1133.00,0.0342
1132.00,0.0339
1131.00,0.0337
1130.00,0.0335
1129.00,0.0332
1128.00,0.0330
1127.00,0.0326
1126.00,0.0323
1125.00,0.0318
1124.00,0.0314
1123.00,0.0310
1122.00,0.0306
1121.00,0.0303
1120.00,0.0299
1119.00,0.0297
1118.00,0.0294
1117.00,0.0291
1116.00,0.0288
1115.00,0.0285
1114.00,0.0282
1113.00,0.0280
1112.00,0.0279
1111.00,0.0278
1110.00,0.0278
1109.00,0.0279
1108.00,0.0283
1107.00,0.0288
1106.00,0.0295
1105.00,0.0303
1104.00,0.0309
1103.00,0.0314
1102.00,0.0318
1101.00,0.0319
1100.00,0.0318
1099.00,0.0316
1098.00,0.0315
1097.00,0.0315
1096.00,0.0317
1095.00,0.0320
1094.00,0.0324
1093.00,0.0327
1092.00,0.0331
1091.00,0.0334
1090.00,0.0336
1089.00,0.0339
1088.00,0.0341
1087.00,0.0342
1086.00,0.0342
1085.00,0.0342
1084.00,0.0342
1083.00,0.0343
1082.00,0.0343
1081.00,0.0343
1080.00,0.0343
1079.00,0.0342
1078.00,0.0340
1077.00,0.0340
1076.00,0.0340
1075.00,0.0341
1074.00,0.0344
1073.00,0.0346
1072.00,0.0346
1071.00,0.0342
1070.00,0.0336
1069.00,0.0327
1068.00,0.0318
1067.00,0.0309
1066.00,0.0300
1065.00,0.0292
1064.00,0.0286
1063.00,0.0281
1062.00,0.0277
1061.00,0.0273
1060.00,0.0269
1059.00,0.0264
1058.00,0.0257
1057.00,0.0250
1056.00,0.0243
1055.00,0.0236
1054.00,0.0230
1053.00,0.0223
1052.00,0.0217
1051.00,0.0211
1050.00,0.0207
1049.00,0.0204
1048.00,0.0203
1047.00,0.0201
1046.00,0.0199
1045.00,0.0195
1044.00,0.0189
1043.00,0.0183
1042.00,0.0177
1041.00,0.0172
1040.00,0.0167
1039.00,0.0164
1038.00,0.0162
1037.00,0.0161
1036.00,0.0161
1035.00,0.0160
1034.00,0.0158
1033.00,0.0155
1032.00,0.0152
1031.00,0.0150
1030.00,0.0146
1029.00,0.0143
1028.00,0.0139
1027.00,0.0137
1026.00,0.0136
1025.00,0.0136
1024.00,0.0136
1023.00,0.0136
1022.00,0.0136
1021.00,0.0136
1020.00,0.0136
1019.00,0.0137
1018.00,0.0138
1017.00,0.0140
1016.00,0.0143
1015.00,0.0147
1014.00,0.0151
1013.00,0.0156
1012.00,0.0161
1011.00,0.0165
1010.00,0.0168
1009.00,0.0171
1008.00,0.0175
1007.00,0.0180
1006.00,0.0188
1005.00,0.0200
1004.00,0.0218
1003.00,0.0242
1002.00,0.0275
1001.00,0.0315
1000.00,0.0357
999.00,0.0394
998.00,0.0413
997.00,0.0408
996.00,0.0380
995.00,0.0337
994.00,0.0292
993.00,0.0251
992.00,0.0220
991.00,0.0197
990.00,0.0180
989.00,0.0169
988.00,0.0163
987.00,0.0161
986.00,0.0163
985.00,0.0169
984.00,0.0178
983.00,0.0191
982.00,0.0209
981.00,0.0234
980.00,0.0265
979.00,0.0305
978.00,0.0354
977.00,0.0413
976.00,0.0479
975.00,0.0547
974.00,0.0605
973.00,0.0642
972.00,0.0649
971.00,0.0628
970.00,0.0587
969.00,0.0541
968.00,0.0498
967.00,0.0464
966.00,0.0437
965.00,0.0416
964.00,0.0399
963.00,0.0385
962.00,0.0375
961.00,0.0372
960.00,0.0374
959.00,0.0381
958.00,0.0387
957.00,0.0391
956.00,0.0391
955.00,0.0389
954.00,0.0387
953.00,0.0384
952.00,0.0380
951.00,0.0373
950.00,0.0365
949.00,0.0357
948.00,0.0350
947.00,0.0345
946.00,0.0343
945.00,0.0342
944.00,0.0343
943.00,0.0343
942.00,0.0341
941.00,0.0338
940.00,0.0330
939.00,0.0318
938.00,0.0304
937.00,0.0287
936.00,0.0271
935.00,0.0254
934.00,0.0238
933.00,0.0222
932.00,0.0208
931.00,0.0194
930.00,0.0181
929.00,0.0170
928.00,0.0159
927.00,0.0150
926.00,0.0143
925.00,0.0137
924.00,0.0133
923.00,0.0128
922.00,0.0125
921.00,0.0122
920.00,0.0120
919.00,0.0118
918.00,0.0116
917.00,0.0114
916.00,0.0111
915.00,0.0110
914.00,0.0108
913.00,0.0107
912.00,0.0107
911.00,0.0107
910.00,0.0107
909.00,0.0108
908.00,0.0109
907.00,0.0113
906.00,0.0119
905.00,0.0129
904.00,0.0143
903.00,0.0161
902.00,0.0180
901.00,0.0198
900.00,0.0210
899.00,0.0213
898.00,0.0206
897.00,0.0191
896.00,0.0171
895.00,0.0152
894.00,0.0136
893.00,0.0124
892.00,0.0116
891.00,0.0109
890.00,0.0104
889.00,0.0100
888.00,0.0097
887.00,0.0095
886.00,0.0096
885.00,0.0097
884.00,0.0099
883.00,0.0099
882.00,0.0100
881.00,0.0100
880.00,0.0101
879.00,0.0101
878.00,0.0101
877.00,0.0101
876.00,0.0100
875.00,0.0099
874.00,0.0098
873.00,0.0097
872.00,0.0096
871.00,0.0095
870.00,0.0097
869.00,0.0098
868.00,0.0100
867.00,0.0101
866.00,0.0101
865.00,0.0100
864.00,0.0099
863.00,0.0099
862.00,0.0099
861.00,0.0100
860.00,0.0102
859.00,0.0105
858.00,0.0108
857.00,0.0111
856.00,0.0113
855.00,0.0114
854.00,0.0115
853.00,0.0118
852.00,0.0121
851.00,0.0127
850.00,0.0134
849.00,0.0142
848.00,0.0153
847.00,0.0170
846.00,0.0197
845.00,0.0237
844.00,0.0291
843.00,0.0349
842.00,0.0396
841.00,0.0412
840.00,0.0390
839.00,0.0342
838.00,0.0290
837.00,0.0248
836.00,0.0221
835.00,0.0206
834.00,0.0197
833.00,0.0192
832.00,0.0189
831.00,0.0187
830.00,0.0186
829.00,0.0186
828.00,0.0184
827.00,0.0181
826.00,0.0179
825.00,0.0177
824.00,0.0176
823.00,0.0175
822.00,0.0174
821.00,0.0174
820.00,0.0175
819.00,0.0179
818.00,0.0185
817.00,0.0192
816.00,0.0201
815.00,0.0210
814.00,0.0221
813.00,0.0236
812.00,0.0252
811.00,0.0266
810.00,0.0277
809.00,0.0282
808.00,0.0279
807.00,0.0270
806.00,0.0255
805.00,0.0239
804.00,0.0223
803.00,0.0209
802.00,0.0197
801.00,0.0186
800.00,0.0176
799.00,0.0167
798.00,0.0159
797.00,0.0152
796.00,0.0147
795.00,0.0141
794.00,0.0135
793.00,0.0129
792.00,0.0124
791.00,0.0120
790.00,0.0118
789.00,0.0115
788.00,0.0112
787.00,0.0109
786.00,0.0108
785.00,0.0106
784.00,0.0105
783.00,0.0103
782.00,0.0100
781.00,0.0097
780.00,0.0095
779.00,0.0093
778.00,0.0093
777.00,0.0093
776.00,0.0093
775.00,0.0094
774.00,0.0096
773.00,0.0099
772.00,0.0102
771.00,0.0106
770.00,0.0109
769.00,0.0111
768.00,0.0111
767.00,0.0109
766.00,0.0108
765.00,0.0106
764.00,0.0103
763.00,0.0100
762.00,0.0097
761.00,0.0095
760.00,0.0094
759.00,0.0093
758.00,0.0092
757.00,0.0090
756.00,0.0088
755.00,0.0086
754.00,0.0086
753.00,0.0087
752.00,0.0088
751.00,0.0089
750.00,0.0090
749.00,0.0091
748.00,0.0091
747.00,0.0091
746.00,0.0091
745.00,0.0092
744.00,0.0094
743.00,0.0095
742.00,0.0097
741.00,0.0099
740.00,0.0101
739.00,0.0102
738.00,0.0103
737.00,0.0105
736.00,0.0109
735.00,0.0112
734.00,0.0116
733.00,0.0117
732.00,0.0118
731.00,0.0119
730.00,0.0121
729.00,0.0122
728.00,0.0122
727.00,0.0122
726.00,0.0123
725.00,0.0124
724.00,0.0125
723.00,0.0124
722.00,0.0123
721.00,0.0121
720.00,0.0118
719.00,0.0114
718.00,0.0109
717.00,0.0106
716.00,0.0104
715.00,0.0102
714.00,0.0101
713.00,0.0100
712.00,0.0100
711.00,0.0102
710.00,0.0104
709.00,0.0106
708.00,0.0108
707.00,0.0111
706.00,0.0113
705.00,0.0114
704.00,0.0113
703.00,0.0110
702.00,0.0107
701.00,0.0104
700.00,0.0100
699.00,0.0097
698.00,0.0095
697.00,0.0094
696.00,0.0095
695.00,0.0096
694.00,0.0096
693.00,0.0096
692.00,0.0097
691.00,0.0098
690.00,0.0100
689.00,0.0101
688.00,0.0101
687.00,0.0101
686.00,0.0100
685.00,0.0100
684.00,0.0099
683.00,0.0099
682.00,0.0099
681.00,0.0100
680.00,0.0099
679.00,0.0098
678.00,0.0097
677.00,0.0096
676.00,0.0096
675.00,0.0097
674.00,0.0098
673.00,0.0099
672.00,0.0101
671.00,0.0103
670.00,0.0105
669.00,0.0103
668.00,0.0099
667.00,0.0097
666.00,0.0097
665.00,0.0099
664.00,0.0099
663.00,0.0099
662.00,0.0099
661.00,0.0099
660.00,0.0099
659.00,0.0099
658.00,0.0099
657.00,0.0099
656.00,0.0100
655.00,0.0099
654.00,0.0096
653.00,0.0094
652.00,0.0092
651.00,0.0092
650.00,0.0093
649.00,0.0094
648.00,0.0096
647.00,0.0097
646.00,0.0099
645.00,0.0100
644.00,0.0101
643.00,0.0100
642.00,0.0099
641.00,0.0097
640.00,0.0097
639.00,0.0098
638.00,0.0100
637.00,0.0102
636.00,0.0103
635.00,0.0103
634.00,0.0105
633.00,0.0106
632.00,0.0106
631.00,0.0105
630.00,0.0104
629.00,0.0103
628.00,0.0102
627.00,0.0100
626.00,0.0100
625.00,0.0100
624.00,0.0100
623.00,0.0102
622.00,0.0104
621.00,0.0104
620.00,0.0103
619.00,0.0102
618.00,0.0103
617.00,0.0104
616.00,0.0105
615.00,0.0105
614.00,0.0104
613.00,0.0104
612.00,0.0106
611.00,0.0107
610.00,0.0109
609.00,0.0109
608.00,0.0107
607.00,0.0105
606.00,0.0101
605.00,0.0098
604.00,0.0096
603.00,0.0095
602.00,0.0095
601.00,0.0096
600.00,0.0097
599.00,0.0099
598.00,0.0101
597.00,0.0101
596.00,0.0100
595.00,0.0100
594.00,0.0101
593.00,0.0103
592.00,0.0105
591.00,0.0107
590.00,0.0109
589.00,0.0108
588.00,0.0105
587.00,0.0102
586.00,0.0101
585.00,0.0103
584.00,0.0107
583.00,0.0111
582.00,0.0114
581.00,0.0114
580.00,0.0111
579.00,0.0107
578.00,0.0102
577.00,0.0099
576.00,0.0097
575.00,0.0097
574.00,0.0098
573.00,0.0101
572.00,0.0104
571.00,0.0107
570.00,0.0109
569.00,0.0109
568.00,0.0108
567.00,0.0105
566.00,0.0104
565.00,0.0102
564.00,0.0100
563.00,0.0099
562.00,0.0099
561.00,0.0098
560.00,0.0097
559.00,0.0095
558.00,0.0096
557.00,0.0099
556.00,0.0102
555.00,0.0104
554.00,0.0104
553.00,0.0105
552.00,0.0107
551.00,0.0108
550.00,0.0109
549.00,0.0109
548.00,0.0109
547.00,0.0108
546.00,0.0106
545.00,0.0104
544.00,0.0104
543.00,0.0104
542.00,0.0107
541.00,0.0109
540.00,0.0110
539.00,0.0111
538.00,0.0113
537.00,0.0115
536.00,0.0116
535.00,0.0115
534.00,0.0114
533.00,0.0114
532.00,0.0117
531.00,0.0121
530.00,0.0126
529.00,0.0131
528.00,0.0134
527.00,0.0134
526.00,0.0133
525.00,0.0131
524.00,0.0132
523.00,0.0135
522.00,0.0138
521.00,0.0137
520.00,0.0132
519.00,0.0124
518.00,0.0116
517.00,0.0111
516.00,0.0108
515.00,0.0109
514.00,0.0110
513.00,0.0111
512.00,0.0111
511.00,0.0111
510.00,0.0112
509.00,0.0112
508.00,0.0111
507.00,0.0109
506.00,0.0108
505.00,0.0110
504.00,0.0116
503.00,0.0123
502.00,0.0130
501.00,0.0135
500.00,0.0138
499.00,0.0138
498.00,0.0136
497.00,0.0132
496.00,0.0130
495.00,0.0126
494.00,0.0121
493.00,0.0117
492.00,0.0118
491.00,0.0124
490.00,0.0131
489.00,0.0133
488.00,0.0130
487.00,0.0125
486.00,0.0123
485.00,0.0127
484.00,0.0135
483.00,0.0144
482.00,0.0151
481.00,0.0154
480.00,0.0156
479.00,0.0157
478.00,0.0154
477.00,0.0145
476.00,0.0133
475.00,0.0123
474.00,0.0120
473.00,0.0123
472.00,0.0127
471.00,0.0131
470.00,0.0132
469.00,0.0132
468.00,0.0132
467.00,0.0135
466.00,0.0142
465.00,0.0152
464.00,0.0161
463.00,0.0171
462.00,0.0184
461.00,0.0199
460.00,0.0213
459.00,0.0221
458.00,0.0222
457.00,0.0219
456.00,0.0218
455.00,0.0220
454.00,0.0221
453.00,0.0216
452.00,0.0208
451.00,0.0200
450.00,0.0192
