Created as New Dataset,Sample 008 By Administrator Date Friday, September 05 2025
cm-1,A
4000.00,0.0016
3999.00,0.0016
3998.00,0.0016
3997.00,0.0016
3996.00,0.0015
3995.00,0.0015
3994.00,0.0015
3993.00,0.0015
3992.00,0.0015
3991.00,0.0015
3990.00,0.0015
3989.00,0.0015
3988.00,0.0015
3987.00,0.0015
3986.00,0.0015
3985.00,0.0014
3984.00,0.0014
3983.00,0.0014
3982.00,0.0014
3981.00,0.0014
3980.00,0.0014
3979.00,0.0014
3978.00,0.0014
3977.00,0.0014
3976.00,0.0014
3975.00,0.0014
3974.00,0.0013
3973.00,0.0013
3972.00,0.0013
3971.00,0.0013
3970.00,0.0013
3969.00,0.0013
3968.00,0.0013
3967.00,0.0013
3966.00,0.0014
3965.00,0.0014
3964.00,0.0014
3963.00,0.0014
3962.00,0.0013
3961.00,0.0013
3960.00,0.0013
3959.00,0.0013
3958.00,0.0013
3957.00,0.0014
3956.00,0.0014
3955.00,0.0014
3954.00,0.0014
3953.00,0.0014
3952.00,0.0014
3951.00,0.0014
3950.00,0.0013
3949.00,0.0013
3948.00,0.0013
3947.00,0.0013
3946.00,0.0013
3945.00,0.0013
3944.00,0.0014
3943.00,0.0014
3942.00,0.0014
3941.00,0.0015
3940.00,0.0014
3939.00,0.0014
3938.00,0.0014
3937.00,0.0014
3936.00,0.0014
3935.00,0.0014
3934.00,0.0014
3933.00,0.0015
3932.00,0.0015
3931.00,0.0015
3930.00,0.0015
3929.00,0.0015
3928.00,0.0015
3927.00,0.0015
3926.00,0.0014
3925.00,0.0014
3924.00,0.0014
3923.00,0.0014
3922.00,0.0014
3921.00,0.0015
3920.00,0.0015
3919.00,0.0015
3918.00,0.0014
3917.00,0.0014
3916.00,0.0015
3915.00,0.0015
3914.00,0.0015
3913.00,0.0015
3912.00,0.0015
3911.00,0.0015
3910.00,0.0015
3909.00,0.0015
3908.00,0.0015
3907.00,0.0015
3906.00,0.0015
3905.00,0.0015
3904.00,0.0015
3903.00,0.0015
3902.00,0.0015
3901.00,0.0015
3900.00,0.0014
3899.00,0.0015
3898.00,0.0015
3897.00,0.0015
3896.00,0.0016
3895.00,0.0016
3894.00,0.0016
3893.00,0.0016
3892.00,0.0015
3891.00,0.0015
3890.00,0.0015
3889.00,0.0015
3888.00,0.0016
3887.00,0.0016
3886.00,0.0016
3885.00,0.0016
3884.00,0.0016
3883.00,0.0015
3882.00,0.0015
3881.00,0.0015
3880.00,0.0014
3879.00,0.0014
3878.00,0.0015
3877.00,0.0015
3876.00,0.0015
3875.00,0.0015
3874.00,0.0015
3873.00,0.0015
3872.00,0.0015
3871.00,0.0016
3870.00,0.0016
3869.00,0.0016
3868.00,0.0016
3867.00,0.0016
3866.00,0.0016
3865.00,0.0016
3864.00,0.0016
3863.00,0.0015
3862.00,0.0015
3861.00,0.0015
3860.00,0.0015
3859.00,0.0015
3858.00,0.0015
3857.00,0.0015
3856.00,0.0016
3855.00,0.0017
3854.00,0.0017
3853.00,0.0017
3852.00,0.0016
3851.00,0.0015
3850.00,0.0015
3849.00,0.0015
3848.00,0.0015
3847.00,0.0015
3846.00,0.0015
3845.00,0.0015
3844.00,0.0015
3843.00,0.0015
3842.00,0.0015
3841.00,0.0015
3840.00,0.0015
3839.00,0.0015
3838.00,0.0015
3837.00,0.0015
3836.00,0.0015
3835.00,0.0015
3834.00,0.0015
3833.00,0.0015
3832.00,0.0015
3831.00,0.0015
3830.00,0.0016
3829.00,0.0016
3828.00,0.0017
3827.00,0.0017
3826.00,0.0017
3825.00,0.0017
3824.00,0.0017
3823.00,0.0017
3822.00,0.0016
3821.00,0.0016
3820.00,0.0015
3819.00,0.0015
3818.00,0.0015
3817.00,0.0016
3816.00,0.0017
3815.00,0.0017
3814.00,0.0017
3813.00,0.0017
3812.00,0.0017
3811.00,0.0017
3810.00,0.0016
3809.00,0.0016
3808.00,0.0016
3807.00,0.0017
3806.00,0.0017
3805.00,0.0017
3804.00,0.0017
3803.00,0.0016
3802.00,0.0015
3801.00,0.0015
3800.00,0.0015
3799.00,0.0015
3798.00,0.0015
3797.00,0.0014
3796.00,0.0014
3795.00,0.0014
3794.00,0.0014
3793.00,0.0014
3792.00,0.0014
3791.00,0.0014
3790.00,0.0015
3789.00,0.0015
3788.00,0.0015
3787.00,0.0015
3786.00,0.0015
3785.00,0.0014
3784.00,0.0014
3783.00,0.0014
3782.00,0.0014
3781.00,0.0014
3780.00,0.0014
3779.00,0.0014
3778.00,0.0014
3777.00,0.0014
3776.00,0.0014
3775.00,0.0014
3774.00,0.0014
3773.00,0.0014
3772.00,0.0013
3771.00,0.0013
3770.00,0.0013
3769.00,0.0013
3768.00,0.0014
3767.00,0.0014
3766.00,0.0014
3765.00,0.0014
3764.00,0.0014
3763.00,0.0014
3762.00,0.0013
3761.00,0.0013
3760.00,0.0013
3759.00,0.0014
3758.00,0.0014
3757.00,0.0014
3756.00,0.0014
3755.00,0.0013
3754.00,0.0013
3753.00,0.0013
3752.00,0.0013
3751.00,0.0013
3750.00,0.0013
3749.00,0.0014
3748.00,0.0014
3747.00,0.0013
3746.00,0.0013
3745.00,0.0012
3744.00,0.0012
3743.00,0.0013
3742.00,0.0013
3741.00,0.0013
3740.00,0.0013
3739.00,0.0013
3738.00,0.0013
3737.00,0.0013
3736.00,0.0013
3735.00,0.0013
3734.00,0.0012
3733.00,0.0012
3732.00,0.0012
3731.00,0.0013
3730.00,0.0013
3729.00,0.0013
3728.00,0.0013
3727.00,0.0013
3726.00,0.0013
3725.00,0.0013
3724.00,0.0014
3723.00,0.0014
3722.00,0.0014
3721.00,0.0014
3720.00,0.0014
3719.00,0.0013
3718.00,0.0013
3717.00,0.0014
3716.00,0.0014
3715.00,0.0014
3714.00,0.0014
3713.00,0.0014
3712.00,0.0014
3711.00,0.0013
3710.00,0.0013
3709.00,0.0013
3708.00,0.0013
3707.00,0.0014
3706.00,0.0014
3705.00,0.0014
3704.00,0.0015
3703.00,0.0016
3702.00,0.0016
3701.00,0.0016
3700.00,0.0016
3699.00,0.0016
3698.00,0.0017
3697.00,0.0017
3696.00,0.0018
3695.00,0.0019
3694.00,0.0020
3693.00,0.0021
3692.00,0.0022
3691.00,0.0023
3690.00,0.0025
3689.00,0.0027
3688.00,0.0029
3687.00,0.0032
3686.00,0.0035
3685.00,0.0038
3684.00,0.0042
3683.00,0.0046
3682.00,0.0051
3681.00,0.0056
3680.00,0.0060
3679.00,0.0065
3678.00,0.0070
3677.00,0.0075
3676.00,0.0081
3675.00,0.0087
3674.00,0.0091
3673.00,0.0094
3672.00,0.0097
3671.00,0.0099
3670.00,0.0101
3669.00,0.0102
3668.00,0.0103
3667.00,0.0105
3666.00,0.0107
3665.00,0.0109
3664.00,0.0112
3663.00,0.0114
3662.00,0.0116
3661.00,0.0117
3660.00,0.0117
3659.00,0.0117
3658.00,0.0117
3657.00,0.0117
3656.00,0.0116
3655.00,0.0115
3654.00,0.0113
3653.00,0.0112
3652.00,0.0111
3651.00,0.0111
3650.00,0.0110
3649.00,0.0109
3648.00,0.0107
3647.00,0.0105
3646.00,0.0103
3645.00,0.0100
3644.00,0.0098
3643.00,0.0095
3642.00,0.0092
3641.00,0.0090
3640.00,0.0089
3639.00,0.0089
3638.00,0.0088
3637.00,0.0086
3636.00,0.0079
3635.00,0.0071
3634.00,0.0062
3633.00,0.0055
3632.00,0.0051
3631.00,0.0048
3630.00,0.0046
3629.00,0.0043
3628.00,0.0041
3627.00,0.0040
3626.00,0.0039
3625.00,0.0038
3624.00,0.0038
3623.00,0.0037
3622.00,0.0036
3621.00,0.0035
3620.00,0.0034
3619.00,0.0033
3618.00,0.0033
3617.00,0.0032
3616.00,0.0032
3615.00,0.0032
3614.00,0.0032
3613.00,0.0032
3612.00,0.0032
3611.00,0.0032
3610.00,0.0031
3609.00,0.0031
3608.00,0.0031
3607.00,0.0031
3606.00,0.0031
3605.00,0.0031
3604.00,0.0031
3603.00,0.0031
3602.00,0.0031
3601.00,0.0031
3600.00,0.0031
3599.00,0.0031
3598.00,0.0031
3597.00,0.0032
3596.00,0.0032
3595.00,0.0033
3594.00,0.0033
3593.00,0.0033
3592.00,0.0034
3591.00,0.0034
3590.00,0.0034
3589.00,0.0034
3588.00,0.0035
3587.00,0.0035
3586.00,0.0035
3585.00,0.0036
3584.00,0.0036
3583.00,0.0036
3582.00,0.0037
3581.00,0.0037
3580.00,0.0038
3579.00,0.0038
3578.00,0.0038
3577.00,0.0039
3576.00,0.0039
3575.00,0.0040
3574.00,0.0041
3573.00,0.0042
3572.00,0.0043
3571.00,0.0043
3570.00,0.0043
3569.00,0.0044
3568.00,0.0044
3567.00,0.0044
3566.00,0.0044
3565.00,0.0045
3564.00,0.0045
3563.00,0.0045
3562.00,0.0046
3561.00,0.0047
3560.00,0.0047
3559.00,0.0048
3558.00,0.0049
3557.00,0.0049
3556.00,0.0049
3555.00,0.0050
3554.00,0.0050
3553.00,0.0050
3552.00,0.0050
3551.00,0.0051
3550.00,0.0052
3549.00,0.0053
3548.00,0.0054
3547.00,0.0055
3546.00,0.0056
3545.00,0.0057
3544.00,0.0057
3543.00,0.0058
3542.00,0.0058
3541.00,0.0058
3540.00,0.0059
3539.00,0.0059
3538.00,0.0060
3537.00,0.0060
3536.00,0.0060
3535.00,0.0061
3534.00,0.0061
3533.00,0.0062
3532.00,0.0062
3531.00,0.0063
3530.00,0.0064
3529.00,0.0064
3528.00,0.0065
3527.00,0.0065
3526.00,0.0066
3525.00,0.0067
3524.00,0.0067
3523.00,0.0068
3522.00,0.0069
3521.00,0.0070
3520.00,0.0070
3519.00,0.0071
3518.00,0.0072
3517.00,0.0073
3516.00,0.0073
3515.00,0.0074
3514.00,0.0074
3513.00,0.0075
3512.00,0.0075
3511.00,0.0076
3510.00,0.0076
3509.00,0.0077
3508.00,0.0077
3507.00,0.0078
3506.00,0.0078
3505.00,0.0079
3504.00,0.0080
3503.00,0.0080
3502.00,0.0081
3501.00,0.0082
3500.00,0.0083
3499.00,0.0084
3498.00,0.0084
3497.00,0.0085
3496.00,0.0085
3495.00,0.0086
3494.00,0.0086
3493.00,0.0087
3492.00,0.0087
3491.00,0.0087
3490.00,0.0088
3489.00,0.0089
3488.00,0.0091
3487.00,0.0092
3486.00,0.0093
3485.00,0.0094
3484.00,0.0094
3483.00,0.0094
3482.00,0.0095
3481.00,0.0096
3480.00,0.0096
3479.00,0.0097
3478.00,0.0097
3477.00,0.0098
3476.00,0.0099
3475.00,0.0099
3474.00,0.0100
3473.00,0.0101
3472.00,0.0102
3471.00,0.0103
3470.00,0.0104
3469.00,0.0105
3468.00,0.0105
3467.00,0.0105
3466.00,0.0105
3465.00,0.0105
3464.00,0.0105
3463.00,0.0106
3462.00,0.0106
3461.00,0.0107
3460.00,0.0107
3459.00,0.0108
3458.00,0.0108
3457.00,0.0109
3456.00,0.0110
3455.00,0.0110
3454.00,0.0111
3453.00,0.0111
3452.00,0.0112
3451.00,0.0113
3450.00,0.0114
3449.00,0.0114
3448.00,0.0114
3447.00,0.0114
3446.00,0.0115
3445.00,0.0115
3444.00,0.0115
3443.00,0.0116
3442.00,0.0116
3441.00,0.0117
3440.00,0.0118
3439.00,0.0118
3438.00,0.0119
3437.00,0.0119
3436.00,0.0120
3435.00,0.0120
3434.00,0.0121
3433.00,0.0121
3432.00,0.0121
3431.00,0.0122
3430.00,0.0122
3429.00,0.0122
3428.00,0.0123
3427.00,0.0123
3426.00,0.0124
3425.00,0.0124
3424.00,0.0125
3423.00,0.0125
3422.00,0.0126
3421.00,0.0126
3420.00,0.0127
3419.00,0.0126
3418.00,0.0126
3417.00,0.0126
3416.00,0.0126
3415.00,0.0127
3414.00,0.0127
3413.00,0.0127
3412.00,0.0128
3411.00,0.0128
3410.00,0.0128
3409.00,0.0129
3408.00,0.0129
3407.00,0.0129
3406.00,0.0130
3405.00,0.0130
3404.00,0.0131
3403.00,0.0131
3402.00,0.0131
3401.00,0.0131
3400.00,0.0131
3399.00,0.0131
3398.00,0.0131
3397.00,0.0131
3396.00,0.0131
3395.00,0.0131
3394.00,0.0130
3393.00,0.0130
3392.00,0.0130
3391.00,0.0130
3390.00,0.0130
3389.00,0.0130
3388.00,0.0131
3387.00,0.0131
3386.00,0.0131
3385.00,0.0132
3384.00,0.0132
3383.00,0.0132
3382.00,0.0132
3381.00,0.0132
3380.00,0.0131
3379.00,0.0131
3378.00,0.0131
3377.00,0.0131
3376.00,0.0132
3375.00,0.0132
3374.00,0.0132
3373.00,0.0133
3372.00,0.0133
3371.00,0.0133
3370.00,0.0134
3369.00,0.0134
3368.00,0.0134
3367.00,0.0134
3366.00,0.0134
3365.00,0.0134
3364.00,0.0134
3363.00,0.0134
3362.00,0.0134
3361.00,0.0134
3360.00,0.0134
3359.00,0.0134
3358.00,0.0134
3357.00,0.0134
3356.00,0.0134
3355.00,0.0135
3354.00,0.0135
3353.00,0.0135
3352.00,0.0135
3351.00,0.0135
3350.00,0.0134
3349.00,0.0134
3348.00,0.0134
3347.00,0.0133
3346.00,0.0133
3345.00,0.0133
3344.00,0.0133
3343.00,0.0132
3342.00,0.0132
3341.00,0.0132
3340.00,0.0132
3339.00,0.0132
3338.00,0.0132
3337.00,0.0132
3336.00,0.0132
3335.00,0.0132
3334.00,0.0132
3333.00,0.0132
3332.00,0.0131
3331.00,0.0131
3330.00,0.0130
3329.00,0.0130
3328.00,0.0129
3327.00,0.0129
3326.00,0.0129
3325.00,0.0129
3324.00,0.0129
3323.00,0.0129
3322.00,0.0129
3321.00,0.0129
3320.00,0.0128
3319.00,0.0128
3318.00,0.0127
3317.00,0.0127
3316.00,0.0127
3315.00,0.0127
3314.00,0.0126
3313.00,0.0126
3312.00,0.0126
3311.00,0.0125
3310.00,0.0125
3309.00,0.0125
3308.00,0.0125
3307.00,0.0124
3306.00,0.0124
3305.00,0.0124
3304.00,0.0124
3303.00,0.0124
3302.00,0.0124
3301.00,0.0124
3300.00,0.0123
3299.00,0.0123
3298.00,0.0122
3297.00,0.0121
3296.00,0.0121
3295.00,0.0121
3294.00,0.0120
3293.00,0.0120
3292.00,0.0120
3291.00,0.0119
3290.00,0.0119
3289.00,0.0118
3288.00,0.0118
3287.00,0.0117
3286.00,0.0117
3285.00,0.0116
3284.00,0.0116
3283.00,0.0116
3282.00,0.0116
3281.00,0.0115
3280.00,0.0115
3279.00,0.0115
3278.00,0.0114
3277.00,0.0114
3276.00,0.0114
3275.00,0.0114
3274.00,0.0113
3273.00,0.0113
3272.00,0.0112
3271.00,0.0112
3270.00,0.0112
3269.00,0.0111
3268.00,0.0111
3267.00,0.0111
3266.00,0.0111
3265.00,0.0110
3264.00,0.0110
3263.00,0.0110
3262.00,0.0109
3261.00,0.0109
3260.00,0.0109
3259.00,0.0108
3258.00,0.0108
3257.00,0.0108
3256.00,0.0107
3255.00,0.0107
3254.00,0.0107
3253.00,0.0107
3252.00,0.0107
3251.00,0.0107
3250.00,0.0107
3249.00,0.0106
3248.00,0.0106
3247.00,0.0105
3246.00,0.0105
3245.00,0.0105
3244.00,0.0105
3243.00,0.0105
3242.00,0.0105
3241.00,0.0105
3240.00,0.0105
3239.00,0.0105
3238.00,0.0104
3237.00,0.0104
3236.00,0.0104
3235.00,0.0104
3234.00,0.0104
3233.00,0.0104
3232.00,0.0104
3231.00,0.0104
3230.00,0.0104
3229.00,0.0104
3228.00,0.0104
3227.00,0.0104
3226.00,0.0104
3225.00,0.0104
3224.00,0.0104
3223.00,0.0104
3222.00,0.0104
3221.00,0.0104
3220.00,0.0104
3219.00,0.0104
3218.00,0.0104
3217.00,0.0104
3216.00,0.0104
3215.00,0.0104
3214.00,0.0105
3213.00,0.0105
3212.00,0.0105
3211.00,0.0105
3210.00,0.0106
3209.00,0.0106
3208.00,0.0106
3207.00,0.0106
3206.00,0.0105
3205.00,0.0105
3204.00,0.0105
3203.00,0.0105
3202.00,0.0105
3201.00,0.0105
3200.00,0.0105
3199.00,0.0105
3198.00,0.0105
3197.00,0.0105
3196.00,0.0104
3195.00,0.0104
3194.00,0.0103
3193.00,0.0104
3192.00,0.0104
3191.00,0.0104
3190.00,0.0104
3189.00,0.0104
3188.00,0.0103
3187.00,0.0102
3186.00,0.0101
3185.00,0.0101
3184.00,0.0100
3183.00,0.0100
3182.00,0.0100
3181.00,0.0099
3180.00,0.0099
3179.00,0.0099
3178.00,0.0098
3177.00,0.0098
3176.00,0.0097
3175.00,0.0096
3174.00,0.0096
3173.00,0.0095
3172.00,0.0095
3171.00,0.0094
3170.00,0.0094
3169.00,0.0093
3168.00,0.0092
3167.00,0.0091
3166.00,0.0091
3165.00,0.0090
3164.00,0.0090
3163.00,0.0089
3162.00,0.0089
3161.00,0.0088
3160.00,0.0088
3159.00,0.0087
3158.00,0.0087
3157.00,0.0086
3156.00,0.0086
3155.00,0.0085
3154.00,0.0085
3153.00,0.0084
3152.00,0.0084
3151.00,0.0084
3150.00,0.0084
3149.00,0.0084
3148.00,0.0084
3147.00,0.0084
3146.00,0.0083
3145.00,0.0082
3144.00,0.0082
3143.00,0.0081
3142.00,0.0081
3141.00,0.0081
3140.00,0.0080
3139.00,0.0080
3138.00,0.0079
3137.00,0.0079
3136.00,0.0078
3135.00,0.0078
3134.00,0.0078
3133.00,0.0078
3132.00,0.0077
3131.00,0.0077
3130.00,0.0076
3129.00,0.0076
3128.00,0.0075
3127.00,0.0075
3126.00,0.0074
3125.00,0.0074
3124.00,0.0074
3123.00,0.0073
3122.00,0.0073
3121.00,0.0072
3120.00,0.0072
3119.00,0.0072
3118.00,0.0072
3117.00,0.0071
3116.00,0.0071
3115.00,0.0070
3114.00,0.0070
3113.00,0.0069
3112.00,0.0069
3111.00,0.0069
3110.00,0.0068
3109.00,0.0068
3108.00,0.0068
3107.00,0.0068
3106.00,0.0068
3105.00,0.0068
3104.00,0.0067
3103.00,0.0067
3102.00,0.0066
3101.00,0.0066
3100.00,0.0065
3099.00,0.0065
3098.00,0.0065
3097.00,0.0065
3096.00,0.0065
3095.00,0.0065
3094.00,0.0064
3093.00,0.0064
3092.00,0.0064
3091.00,0.0064
3090.00,0.0063
3089.00,0.0063
3088.00,0.0063
3087.00,0.0062
3086.00,0.0062
3085.00,0.0062
3084.00,0.0062
3083.00,0.0061
3082.00,0.0061
3081.00,0.0061
3080.00,0.0061
3079.00,0.0061
3078.00,0.0062
3077.00,0.0062
3076.00,0.0062
3075.00,0.0062
3074.00,0.0061
3073.00,0.0061
3072.00,0.0061
3071.00,0.0062
3070.00,0.0062
3069.00,0.0063
3068.00,0.0063
3067.00,0.0064
3066.00,0.0064
3065.00,0.0064
3064.00,0.0064
3063.00,0.0064
3062.00,0.0064
3061.00,0.0063
3060.00,0.0063
3059.00,0.0063
3058.00,0.0063
3057.00,0.0063
3056.00,0.0063
3055.00,0.0063
3054.00,0.0063
3053.00,0.0063
3052.00,0.0063
3051.00,0.0063
3050.00,0.0063
3049.00,0.0063
3048.00,0.0064
3047.00,0.0064
3046.00,0.0065
3045.00,0.0066
3044.00,0.0066
3043.00,0.0067
3042.00,0.0067
3041.00,0.0068
3040.00,0.0068
3039.00,0.0068
3038.00,0.0069
3037.00,0.0069
3036.00,0.0070
3035.00,0.0071
3034.00,0.0071
3033.00,0.0072
3032.00,0.0073
3031.00,0.0073
3030.00,0.0074
3029.00,0.0075
3028.00,0.0077
3027.00,0.0079
3026.00,0.0081
3025.00,0.0084
3024.00,0.0086
3023.00,0.0090
3022.00,0.0093
3021.00,0.0097
3020.00,0.0102
3019.00,0.0108
3018.00,0.0114
3017.00,0.0122
3016.00,0.0132
3015.00,0.0143
3014.00,0.0156
3013.00,0.0172
3012.00,0.0189
3011.00,0.0209
3010.00,0.0231
3009.00,0.0254
3008.00,0.0279
3007.00,0.0307
3006.00,0.0335
3005.00,0.0366
3004.00,0.0397
3003.00,0.0428
3002.00,0.0458
3001.00,0.0488
3000.00,0.0516
2999.00,0.0542
2998.00,0.0566
2997.00,0.0588
2996.00,0.0609
2995.00,0.0629
2994.00,0.0648
2993.00,0.0666
2992.00,0.0685
2991.00,0.0703
2990.00,0.0721
2989.00,0.0742
2988.00,0.0767
2987.00,0.0803
2986.00,0.0858
2985.00,0.0937
2984.00,0.1036
2983.00,0.1133
2982.00,0.1204
2981.00,0.1232
2980.00,0.1223
2979.00,0.1196
2978.00,0.1168
2977.00,0.1151
2976.00,0.1151
2975.00,0.1172
2974.00,0.1212
2973.00,0.1264
2972.00,0.1315
2971.00,0.1356
2970.00,0.1383
2969.00,0.1407
2968.00,0.1438
2967.00,0.1480
2966.00,0.1531
2965.00,0.1585
2964.00,0.1637
2963.00,0.1686
2962.00,0.1729
2961.00,0.1764
2960.00,0.1791
2959.00,0.1814
2958.00,0.1837
2957.00,0.1863
2956.00,0.1897
2955.00,0.1941
2954.00,0.1993
2953.00,0.2050
2952.00,0.2103
2951.00,0.2145
2950.00,0.2165
2949.00,0.2154
2948.00,0.2105
2947.00,0.2019
2946.00,0.1905
2945.00,0.1777
2944.00,0.1650
2943.00,0.1537
2942.00,0.1446
2941.00,0.1382
2940.00,0.1342
2939.00,0.1325
2938.00,0.1328
2937.00,0.1349
2936.00,0.1387
2935.00,0.1441
2934.00,0.1510
2933.00,0.1592
2932.00,0.1683
2931.00,0.1782
2930.00,0.1884
2929.00,0.1988
2928.00,0.2091
2927.00,0.2191
2926.00,0.2287
2925.00,0.2379
2924.00,0.2467
2923.00,0.2554
2922.00,0.2640
2921.00,0.2723
2920.00,0.2798
2919.00,0.2858
2918.00,0.2894
2917.00,0.2897
2916.00,0.2864
2915.00,0.2798
2914.00,0.2709
2913.00,0.2606
2912.00,0.2500
2911.00,0.2399
2910.00,0.2307
2909.00,0.2223
2908.00,0.2145
2907.00,0.2072
2906.00,0.2001
2905.00,0.1931
2904.00,0.1862
2903.00,0.1794
2902.00,0.1727
2901.00,0.1663
2900.00,0.1602
2899.00,0.1545
2898.00,0.1493
2897.00,0.1447
2896.00,0.1407
2895.00,0.1376
2894.00,0.1351
2893.00,0.1335
2892.00,0.1324
2891.00,0.1318
2890.00,0.1314
2889.00,0.1312
2888.00,0.1313
2887.00,0.1317
2886.00,0.1325
2885.00,0.1337
2884.00,0.1351
2883.00,0.1365
2882.00,0.1379
2881.00,0.1394
2880.00,0.1408
2879.00,0.1421
2878.00,0.1429
2877.00,0.1431
2876.00,0.1425
2875.00,0.1415
2874.00,0.1405
2873.00,0.1398
2872.00,0.1398
2871.00,0.1405
2870.00,0.1418
2869.00,0.1433
2868.00,0.1444
2867.00,0.1442
2866.00,0.1420
2865.00,0.1374
2864.00,0.1306
2863.00,0.1223
2862.00,0.1135
2861.00,0.1051
2860.00,0.0978
2859.00,0.0919
2858.00,0.0874
2857.00,0.0840
2856.00,0.0816
2855.00,0.0799
2854.00,0.0788
2853.00,0.0781
2852.00,0.0778
2851.00,0.0778
2850.00,0.0782
2849.00,0.0790
2848.00,0.0803
2847.00,0.0823
2846.00,0.0851
2845.00,0.0889
2844.00,0.0936
2843.00,0.0990
2842.00,0.1049
2841.00,0.1106
2840.00,0.1154
2839.00,0.1186
2838.00,0.1193
2837.00,0.1171
2836.00,0.1118
2835.00,0.1039
2834.00,0.0943
2833.00,0.0842
2832.00,0.0744
2831.00,0.0656
2830.00,0.0581
2829.00,0.0519
2828.00,0.0469
2827.00,0.0429
2826.00,0.0396
2825.00,0.0369
2824.00,0.0346
2823.00,0.0327
2822.00,0.0310
2821.00,0.0296
2820.00,0.0283
2819.00,0.0271
2818.00,0.0262
2817.00,0.0253
2816.00,0.0245
2815.00,0.0238
2814.00,0.0232
2813.00,0.0226
2812.00,0.0220
2811.00,0.0214
2810.00,0.0208
2809.00,0.0202
2808.00,0.0196
2807.00,0.0189
2806.00,0.0183
2805.00,0.0177
2804.00,0.0171
2803.00,0.0165
2802.00,0.0160
2801.00,0.0155
2800.00,0.0151
2799.00,0.0148
2798.00,0.0145
2797.00,0.0142
2796.00,0.0140
2795.00,0.0137
2794.00,0.0134
2793.00,0.0131
2792.00,0.0128
2791.00,0.0124
2790.00,0.0121
2789.00,0.0118
2788.00,0.0115
2787.00,0.0112
2786.00,0.0110
2785.00,0.0107
2784.00,0.0105
2783.00,0.0103
2782.00,0.0100
2781.00,0.0098
2780.00,0.0096
2779.00,0.0094
2778.00,0.0092
2777.00,0.0090
2776.00,0.0089
2775.00,0.0088
2774.00,0.0087
2773.00,0.0087
2772.00,0.0086
2771.00,0.0086
2770.00,0.0085
2769.00,0.0085
2768.00,0.0084
2767.00,0.0083
2766.00,0.0083
2765.00,0.0083
2764.00,0.0082
2763.00,0.0081
2762.00,0.0080
2761.00,0.0080
2760.00,0.0079
2759.00,0.0078
2758.00,0.0078
2757.00,0.0077
2756.00,0.0077
2755.00,0.0076
2754.00,0.0076
2753.00,0.0076
2752.00,0.0076
2751.00,0.0076
2750.00,0.0075
2749.00,0.0075
2748.00,0.0075
2747.00,0.0075
2746.00,0.0076
2745.00,0.0077
2744.00,0.0078
2743.00,0.0079
2742.00,0.0080
2741.00,0.0081
2740.00,0.0082
2739.00,0.0083
2738.00,0.0084
2737.00,0.0086
2736.00,0.0087
2735.00,0.0088
2734.00,0.0089
2733.00,0.0090
2732.00,0.0092
2731.00,0.0094
2730.00,0.0096
2729.00,0.0098
2728.00,0.0101
2727.00,0.0103
2726.00,0.0105
2725.00,0.0107
2724.00,0.0108
2723.00,0.0107
2722.00,0.0106
2721.00,0.0104
2720.00,0.0101
2719.00,0.0098
2718.00,0.0095
2717.00,0.0092
2716.00,0.0089
2715.00,0.0086
2714.00,0.0083
2713.00,0.0080
2712.00,0.0078
2711.00,0.0076
2710.00,0.0075
2709.00,0.0073
2708.00,0.0072
2707.00,0.0070
2706.00,0.0069
2705.00,0.0068
2704.00,0.0067
2703.00,0.0066
2702.00,0.0065
2701.00,0.0064
2700.00,0.0063
2699.00,0.0063
2698.00,0.0063
2697.00,0.0063
2696.00,0.0063
2695.00,0.0062
2694.00,0.0062
2693.00,0.0062
2692.00,0.0062
2691.00,0.0062
2690.00,0.0063
2689.00,0.0063
2688.00,0.0064
2687.00,0.0064
2686.00,0.0064
2685.00,0.0064
2684.00,0.0064
2683.00,0.0065
2682.00,0.0065
2681.00,0.0065
2680.00,0.0065
2679.00,0.0065
2678.00,0.0066
2677.00,0.0066
2676.00,0.0067
2675.00,0.0067
2674.00,0.0067
2673.00,0.0067
2672.00,0.0068
2671.00,0.0068
2670.00,0.0068
2669.00,0.0069
2668.00,0.0070
2667.00,0.0070
2666.00,0.0071
2665.00,0.0071
2664.00,0.0071
2663.00,0.0071
2662.00,0.0071
2661.00,0.0071
2660.00,0.0071
2659.00,0.0071
2658.00,0.0071
2657.00,0.0071
2656.00,0.0071
2655.00,0.0070
2654.00,0.0069
2653.00,0.0069
2652.00,0.0068
2651.00,0.0067
2650.00,0.0066
2649.00,0.0066
2648.00,0.0065
2647.00,0.0065
2646.00,0.0065
2645.00,0.0064
2644.00,0.0064
2643.00,0.0063
2642.00,0.0063
2641.00,0.0062
2640.00,0.0061
2639.00,0.0061
2638.00,0.0060
2637.00,0.0060
2636.00,0.0059
2635.00,0.0058
2634.00,0.0057
2633.00,0.0056
2632.00,0.0056
2631.00,0.0056
2630.00,0.0057
2629.00,0.0057
2628.00,0.0057
2627.00,0.0056
2626.00,0.0056
2625.00,0.0056
2624.00,0.0056
2623.00,0.0056
2622.00,0.0056
2621.00,0.0056
2620.00,0.0056
2619.00,0.0056
2618.00,0.0056
2617.00,0.0055
2616.00,0.0054
2615.00,0.0054
2614.00,0.0053
2613.00,0.0052
2612.00,0.0051
2611.00,0.0051
2610.00,0.0051
2609.00,0.0051
2608.00,0.0050
2607.00,0.0049
2606.00,0.0048
2605.00,0.0047
2604.00,0.0046
2603.00,0.0045
2602.00,0.0045
2601.00,0.0044
2600.00,0.0044
2599.00,0.0043
2598.00,0.0043
2597.00,0.0043
2596.00,0.0043
2595.00,0.0043
2594.00,0.0043
2593.00,0.0043
2592.00,0.0044
2591.00,0.0044
2590.00,0.0044
2589.00,0.0045
2588.00,0.0046
2587.00,0.0046
2586.00,0.0047
2585.00,0.0047
2584.00,0.0048
2583.00,0.0048
2582.00,0.0049
2581.00,0.0049
2580.00,0.0049
2579.00,0.0048
2578.00,0.0046
2577.00,0.0045
2576.00,0.0044
2575.00,0.0043
2574.00,0.0041
2573.00,0.0040
2572.00,0.0039
2571.00,0.0037
2570.00,0.0036
2569.00,0.0034
2568.00,0.0034
2567.00,0.0033
2566.00,0.0033
2565.00,0.0033
2564.00,0.0032
2563.00,0.0032
2562.00,0.0032
2561.00,0.0032
2560.00,0.0032
2559.00,0.0033
2558.00,0.0033
2557.00,0.0033
2556.00,0.0032
2555.00,0.0032
2554.00,0.0031
2553.00,0.0030
2552.00,0.0030
2551.00,0.0030
2550.00,0.0029
2549.00,0.0029
2548.00,0.0028
2547.00,0.0028
2546.00,0.0027
2545.00,0.0027
2544.00,0.0027
2543.00,0.0026
2542.00,0.0026
2541.00,0.0026
2540.00,0.0027
2539.00,0.0026
2538.00,0.0026
2537.00,0.0025
2536.00,0.0025
2535.00,0.0024
2534.00,0.0024
2533.00,0.0024
2532.00,0.0025
2531.00,0.0025
2530.00,0.0025
2529.00,0.0024
2528.00,0.0024
2527.00,0.0024
2526.00,0.0024
2525.00,0.0023
2524.00,0.0023
2523.00,0.0023
2522.00,0.0023
2521.00,0.0023
2520.00,0.0024
2519.00,0.0024
2518.00,0.0024
2517.00,0.0024
2516.00,0.0023
2515.00,0.0022
2514.00,0.0021
2513.00,0.0020
2512.00,0.0020
2511.00,0.0020
2510.00,0.0020
2509.00,0.0021
2508.00,0.0021
2507.00,0.0022
2506.00,0.0022
2505.00,0.0022
2504.00,0.0021
2503.00,0.0021
2502.00,0.0021
2501.00,0.0021
2500.00,0.0021
2499.00,0.0021
2498.00,0.0020
2497.00,0.0020
2496.00,0.0020
2495.00,0.0020
2494.00,0.0020
2493.00,0.0020
2492.00,0.0020
2491.00,0.0020
2490.00,0.0020
2489.00,0.0020
2488.00,0.0020
2487.00,0.0020
2486.00,0.0020
2485.00,0.0021
2484.00,0.0021
2483.00,0.0021
2482.00,0.0021
2481.00,0.0021
2480.00,0.0021
2479.00,0.0021
2478.00,0.0020
2477.00,0.0019
2476.00,0.0017
2475.00,0.0016
2474.00,0.0016
2473.00,0.0017
2472.00,0.0017
2471.00,0.0018
2470.00,0.0018
2469.00,0.0018
2468.00,0.0018
2467.00,0.0019
2466.00,0.0019
2465.00,0.0019
2464.00,0.0020
2463.00,0.0020
2462.00,0.0020
2461.00,0.0019
2460.00,0.0019
2459.00,0.0020
2458.00,0.0020
2457.00,0.0020
2456.00,0.0019
2455.00,0.0019
2454.00,0.0019
2453.00,0.0019
2452.00,0.0019
2451.00,0.0019
2450.00,0.0019
2449.00,0.0019
2448.00,0.0019
2447.00,0.0019
2446.00,0.0019
2445.00,0.0019
2444.00,0.0019
2443.00,0.0020
2442.00,0.0020
2441.00,0.0020
2440.00,0.0020
2439.00,0.0020
2438.00,0.0020
2437.00,0.0020
2436.00,0.0020
2435.00,0.0020
2434.00,0.0020
2433.00,0.0020
2432.00,0.0020
2431.00,0.0020
2430.00,0.0020
2429.00,0.0020
2428.00,0.0020
2427.00,0.0020
2426.00,0.0019
2425.00,0.0019
2424.00,0.0019
2423.00,0.0019
2422.00,0.0019
2421.00,0.0019
2420.00,0.0020
2419.00,0.0020
2418.00,0.0019
2417.00,0.0019
2416.00,0.0018
2415.00,0.0017
2414.00,0.0016
2413.00,0.0017
2412.00,0.0017
2411.00,0.0018
2410.00,0.0018
2409.00,0.0018
2408.00,0.0018
2407.00,0.0018
2406.00,0.0018
2405.00,0.0017
2404.00,0.0017
2403.00,0.0017
2402.00,0.0017
2401.00,0.0017
2400.00,0.0017
2399.00,0.0017
2398.00,0.0016
2397.00,0.0016
2396.00,0.0016
2395.00,0.0016
2394.00,0.0016
2393.00,0.0016
2392.00,0.0016
2391.00,0.0015
2390.00,0.0015
2389.00,0.0015
2388.00,0.0015
2387.00,0.0014
2386.00,0.0014
2385.00,0.0013
2384.00,0.0013
2383.00,0.0013
2382.00,0.0013
2381.00,0.0012
2380.00,0.0012
2379.00,0.0011
2378.00,0.0011
2377.00,0.0012
2376.00,0.0012
2375.00,0.0012
2374.00,0.0012
2373.00,0.0011
2372.00,0.0011
2371.00,0.0011
2370.00,0.0011
2369.00,0.0012
2368.00,0.0012
2367.00,0.0012
2366.00,0.0012
2365.00,0.0012
2364.00,0.0012
2363.00,0.0011
2362.00,0.0011
2361.00,0.0012
2360.00,0.0013
2359.00,0.0014
2358.00,0.0015
2357.00,0.0016
2356.00,0.0016
2355.00,0.0015
2354.00,0.0015
2353.00,0.0014
2352.00,0.0014
2351.00,0.0013
2350.00,0.0014
2349.00,0.0014
2348.00,0.0015
2347.00,0.0015
2346.00,0.0015
2345.00,0.0016
2344.00,0.0016
2343.00,0.0016
2342.00,0.0017
2341.00,0.0017
2340.00,0.0017
2339.00,0.0017
2338.00,0.0018
2337.00,0.0018
2336.00,0.0018
2335.00,0.0018
2334.00,0.0018
2333.00,0.0017
2332.00,0.0017
2331.00,0.0017
2330.00,0.0018
2329.00,0.0019
2328.00,0.0021
2327.00,0.0025
2326.00,0.0029
2325.00,0.0032
2324.00,0.0032
2323.00,0.0031
2322.00,0.0028
2321.00,0.0026
2320.00,0.0024
2319.00,0.0023
2318.00,0.0022
2317.00,0.0022
2316.00,0.0022
2315.00,0.0021
2314.00,0.0021
2313.00,0.0021
2312.00,0.0020
2311.00,0.0020
2310.00,0.0019
2309.00,0.0019
2308.00,0.0019
2307.00,0.0019
2306.00,0.0020
2305.00,0.0020
2304.00,0.0019
2303.00,0.0019
2302.00,0.0019
2301.00,0.0020
2300.00,0.0020
2299.00,0.0020
2298.00,0.0021
2297.00,0.0021
2296.00,0.0021
2295.00,0.0021
2294.00,0.0021
2293.00,0.0021
2292.00,0.0023
2291.00,0.0024
2290.00,0.0025
2289.00,0.0026
2288.00,0.0026
2287.00,0.0027
2286.00,0.0027
2285.00,0.0026
2284.00,0.0025
2283.00,0.0024
2282.00,0.0023
2281.00,0.0022
2280.00,0.0021
2279.00,0.0020
2278.00,0.0020
2277.00,0.0019
2276.00,0.0019
2275.00,0.0019
2274.00,0.0018
2273.00,0.0018
2272.00,0.0017
2271.00,0.0017
2270.00,0.0017
2269.00,0.0017
2268.00,0.0018
2267.00,0.0018
2266.00,0.0017
2265.00,0.0015
2264.00,0.0014
2263.00,0.0013
2262.00,0.0014
2261.00,0.0015
2260.00,0.0016
2259.00,0.0017
2258.00,0.0016
2257.00,0.0016
2256.00,0.0015
2255.00,0.0013
2254.00,0.0012
2253.00,0.0011
2252.00,0.0011
2251.00,0.0013
2250.00,0.0015
2249.00,0.0015
2248.00,0.0015
2247.00,0.0014
2246.00,0.0013
2245.00,0.0013
2244.00,0.0013
2243.00,0.0013
2242.00,0.0013
2241.00,0.0012
2240.00,0.0013
2239.00,0.0013
2238.00,0.0014
2237.00,0.0014
2236.00,0.0014
2235.00,0.0013
2234.00,0.0013
2233.00,0.0012
2232.00,0.0012
2231.00,0.0014
2230.00,0.0016
2229.00,0.0019
2228.00,0.0020
2227.00,0.0019
2226.00,0.0018
2225.00,0.0016
2224.00,0.0014
2223.00,0.0012
2222.00,0.0011
2221.00,0.0011
2220.00,0.0012
2219.00,0.0013
2218.00,0.0015
2217.00,0.0017
2216.00,0.0017
2215.00,0.0015
2214.00,0.0013
2213.00,0.0011
2212.00,0.0011
2211.00,0.0012
2210.00,0.0012
2209.00,0.0013
2208.00,0.0013
2207.00,0.0014
2206.00,0.0014
2205.00,0.0015
2204.00,0.0015
2203.00,0.0016
2202.00,0.0017
2201.00,0.0017
2200.00,0.0018
2199.00,0.0017
2198.00,0.0015
2197.00,0.0013
2196.00,0.0012
2195.00,0.0013
2194.00,0.0016
2193.00,0.0020
2192.00,0.0023
2191.00,0.0023
2190.00,0.0021
2189.00,0.0019
2188.00,0.0018
2187.00,0.0018
2186.00,0.0019
2185.00,0.0021
2184.00,0.0022
2183.00,0.0021
2182.00,0.0017
2181.00,0.0013
2180.00,0.0011
2179.00,0.0009
2178.00,0.0006
2177.00,0.0004
2176.00,0.0003
2175.00,0.0003
2174.00,0.0005
2173.00,0.0008
2172.00,0.0012
2171.00,0.0016
2170.00,0.0021
2169.00,0.0026
2168.00,0.0029
2167.00,0.0028
2166.00,0.0025
2165.00,0.0020
2164.00,0.0018
2163.00,0.0018
2162.00,0.0021
2161.00,0.0021
2160.00,0.0014
2159.00,0.0001
2158.00,-0.0012
2157.00,-0.0020
2156.00,-0.0023
2155.00,-0.0021
2154.00,-0.0018
2153.00,-0.0015
2152.00,-0.0013
2151.00,-0.0011
2150.00,-0.0011
2149.00,-0.0009
2148.00,-0.0008
2147.00,-0.0008
2146.00,-0.0008
2145.00,-0.0006
2144.00,-0.0005
2143.00,-0.0004
2142.00,-0.0004
2141.00,-0.0006
2140.00,-0.0008
2139.00,-0.0008
2138.00,-0.0008
2137.00,-0.0007
2136.00,-0.0006
2135.00,-0.0006
2134.00,-0.0007
2133.00,-0.0007
2132.00,-0.0006
2131.00,-0.0006
2130.00,-0.0005
2129.00,-0.0005
2128.00,-0.0004
2127.00,-0.0002
2126.00,0.0000
2125.00,0.0002
2124.00,0.0004
2123.00,0.0006
2122.00,0.0007
2121.00,0.0008
2120.00,0.0008
2119.00,0.0007
2118.00,0.0006
2117.00,0.0005
2116.00,0.0006
2115.00,0.0007
2114.00,0.0008
2113.00,0.0010
2112.00,0.0011
2111.00,0.0011
2110.00,0.0011
2109.00,0.0011
2108.00,0.0011
2107.00,0.0010
2106.00,0.0010
2105.00,0.0011
2104.00,0.0012
2103.00,0.0012
2102.00,0.0012
2101.00,0.0011
2100.00,0.0010
2099.00,0.0009
2098.00,0.0008
2097.00,0.0007
2096.00,0.0005
2095.00,0.0003
2094.00,0.0003
2093.00,0.0003
2092.00,0.0004
2091.00,0.0005
2090.00,0.0007
2089.00,0.0009
2088.00,0.0011
2087.00,0.0013
2086.00,0.0013
2085.00,0.0013
2084.00,0.0012
2083.00,0.0011
2082.00,0.0011
2081.00,0.0011
2080.00,0.0012
2079.00,0.0012
2078.00,0.0013
2077.00,0.0014
2076.00,0.0015
2075.00,0.0014
2074.00,0.0013
2073.00,0.0012
2072.00,0.0013
2071.00,0.0014
2070.00,0.0013
2069.00,0.0012
2068.00,0.0010
2067.00,0.0009
2066.00,0.0009
2065.00,0.0009
2064.00,0.0009
2063.00,0.0009
2062.00,0.0009
2061.00,0.0009
2060.00,0.0009
2059.00,0.0009
2058.00,0.0010
2057.00,0.0012
2056.00,0.0013
2055.00,0.0013
2054.00,0.0014
2053.00,0.0016
2052.00,0.0020
2051.00,0.0022
2050.00,0.0021
2049.00,0.0018
2048.00,0.0015
2047.00,0.0012
2046.00,0.0011
2045.00,0.0010
2044.00,0.0010
2043.00,0.0010
2042.00,0.0010
2041.00,0.0010
2040.00,0.0009
2039.00,0.0008
2038.00,0.0008
2037.00,0.0009
2036.00,0.0009
2035.00,0.0008
2034.00,0.0006
2033.00,0.0004
2032.00,0.0003
2031.00,0.0001
2030.00,-0.0001
2029.00,-0.0003
2028.00,-0.0005
2027.00,-0.0005
2026.00,-0.0002
2025.00,0.0003
2024.00,0.0007
2023.00,0.0009
2022.00,0.0008
2021.00,0.0005
2020.00,0.0003
2019.00,0.0002
2018.00,0.0002
2017.00,0.0002
2016.00,0.0002
2015.00,-0.0000
2014.00,-0.0003
2013.00,-0.0005
2012.00,-0.0006
2011.00,-0.0006
2010.00,-0.0004
2009.00,-0.0003
2008.00,-0.0003
2007.00,-0.0006
2006.00,-0.0010
2005.00,-0.0012
2004.00,-0.0011
2003.00,-0.0009
2002.00,-0.0005
2001.00,-0.0003
2000.00,-0.0002
1999.00,-0.0002
1998.00,-0.0002
1997.00,-0.0002
1996.00,-0.0002
1995.00,-0.0003
1994.00,-0.0003
1993.00,-0.0002
1992.00,0.0001
1991.00,0.0004
1990.00,0.0006
1989.00,0.0006
1988.00,0.0006
1987.00,0.0007
1986.00,0.0008
1985.00,0.0011
1984.00,0.0013
1983.00,0.0014
1982.00,0.0015
1981.00,0.0015
1980.00,0.0014
1979.00,0.0009
1978.00,0.0002
1977.00,-0.0005
1976.00,-0.0009
1975.00,-0.0012
1974.00,-0.0014
1973.00,-0.0013
1972.00,-0.0011
1971.00,-0.0009
1970.00,-0.0008
1969.00,-0.0009
1968.00,-0.0010
1967.00,-0.0010
1966.00,-0.0008
1965.00,-0.0007
1964.00,-0.0006
1963.00,-0.0008
1962.00,-0.0010
1961.00,-0.0012
1960.00,-0.0013
1959.00,-0.0013
1958.00,-0.0012
1957.00,-0.0011
1956.00,-0.0010
1955.00,-0.0011
1954.00,-0.0012
1953.00,-0.0013
1952.00,-0.0014
1951.00,-0.0013
1950.00,-0.0011
1949.00,-0.0009
1948.00,-0.0008
1947.00,-0.0009
1946.00,-0.0010
1945.00,-0.0011
1944.00,-0.0011
1943.00,-0.0012
1942.00,-0.0012
1941.00,-0.0011
1940.00,-0.0011
1939.00,-0.0011
1938.00,-0.0012
1937.00,-0.0012
1936.00,-0.0011
1935.00,-0.0009
1934.00,-0.0007
1933.00,-0.0006
1932.00,-0.0006
1931.00,-0.0006
1930.00,-0.0005
1929.00,-0.0003
1928.00,-0.0001
1927.00,-0.0001
1926.00,-0.0001
1925.00,-0.0001
1924.00,-0.0002
1923.00,-0.0001
1922.00,-0.0000
1921.00,0.0002
1920.00,0.0003
1919.00,0.0003
1918.00,0.0003
1917.00,0.0002
1916.00,0.0002
1915.00,0.0002
1914.00,0.0002
1913.00,0.0002
1912.00,0.0003
1911.00,0.0003
1910.00,0.0004
1909.00,0.0005
1908.00,0.0005
1907.00,0.0005
1906.00,0.0005
1905.00,0.0005
1904.00,0.0005
1903.00,0.0006
1902.00,0.0006
1901.00,0.0006
1900.00,0.0006
1899.00,0.0006
1898.00,0.0006
1897.00,0.0005
1896.00,0.0005
1895.00,0.0006
1894.00,0.0006
1893.00,0.0006
1892.00,0.0007
1891.00,0.0007
1890.00,0.0007
1889.00,0.0007
1888.00,0.0007
1887.00,0.0007
1886.00,0.0006
1885.00,0.0006
1884.00,0.0005
1883.00,0.0006
1882.00,0.0007
1881.00,0.0008
1880.00,0.0009
1879.00,0.0008
1878.00,0.0007
1877.00,0.0006
1876.00,0.0004
1875.00,0.0003
1874.00,0.0003
1873.00,0.0004
1872.00,0.0005
1871.00,0.0005
1870.00,0.0006
1869.00,0.0006
1868.00,0.0007
1867.00,0.0008
1866.00,0.0009
1865.00,0.0009
1864.00,0.0009
1863.00,0.0009
1862.00,0.0008
1861.00,0.0008
1860.00,0.0008
1859.00,0.0007
1858.00,0.0006
1857.00,0.0006
1856.00,0.0006
1855.00,0.0007
1854.00,0.0007
1853.00,0.0008
1852.00,0.0009
1851.00,0.0009
1850.00,0.0008
1849.00,0.0008
1848.00,0.0008
1847.00,0.0008
1846.00,0.0008
1845.00,0.0009
1844.00,0.0010
1843.00,0.0010
1842.00,0.0009
1841.00,0.0010
1840.00,0.0010
1839.00,0.0010
1838.00,0.0010
1837.00,0.0010
1836.00,0.0011
1835.00,0.0011
1834.00,0.0011
1833.00,0.0011
1832.00,0.0011
1831.00,0.0010
1830.00,0.0010
1829.00,0.0009
1828.00,0.0009
1827.00,0.0009
1826.00,0.0010
1825.00,0.0010
1824.00,0.0010
1823.00,0.0010
1822.00,0.0009
1821.00,0.0009
1820.00,0.0009
1819.00,0.0009
1818.00,0.0008
1817.00,0.0008
1816.00,0.0009
1815.00,0.0009
1814.00,0.0009
1813.00,0.0009
1812.00,0.0009
1811.00,0.0009
1810.00,0.0009
1809.00,0.0009
1808.00,0.0010
1807.00,0.0011
1806.00,0.0011
1805.00,0.0011
1804.00,0.0012
1803.00,0.0012
1802.00,0.0012
1801.00,0.0012
1800.00,0.0011
1799.00,0.0011
1798.00,0.0012
1797.00,0.0013
1796.00,0.0014
1795.00,0.0014
1794.00,0.0015
1793.00,0.0015
1792.00,0.0016
1791.00,0.0016
1790.00,0.0017
1789.00,0.0017
1788.00,0.0018
1787.00,0.0019
1786.00,0.0021
1785.00,0.0022
1784.00,0.0022
1783.00,0.0022
1782.00,0.0022
1781.00,0.0022
1780.00,0.0022
1779.00,0.0022
1778.00,0.0021
1777.00,0.0021
1776.00,0.0021
1775.00,0.0021
1774.00,0.0020
1773.00,0.0021
1772.00,0.0021
1771.00,0.0023
1770.00,0.0023
1769.00,0.0024
1768.00,0.0025
1767.00,0.0025
1766.00,0.0025
1765.00,0.0025
1764.00,0.0025
1763.00,0.0026
1762.00,0.0026
1761.00,0.0026
1760.00,0.0027
1759.00,0.0027
1758.00,0.0028
1757.00,0.0029
1756.00,0.0029
1755.00,0.0030
1754.00,0.0030
1753.00,0.0031
1752.00,0.0032
1751.00,0.0033
1750.00,0.0033
1749.00,0.0032
1748.00,0.0032
1747.00,0.0032
1746.00,0.0033
1745.00,0.0034
1744.00,0.0035
1743.00,0.0036
1742.00,0.0036
1741.00,0.0037
1740.00,0.0037
1739.00,0.0038
1738.00,0.0039
1737.00,0.0039
1736.00,0.0039
1735.00,0.0040
1734.00,0.0040
1733.00,0.0040
1732.00,0.0040
1731.00,0.0040
1730.00,0.0040
1729.00,0.0040
1728.00,0.0040
1727.00,0.0040
1726.00,0.0039
1725.00,0.0039
1724.00,0.0039
1723.00,0.0039
1722.00,0.0039
1721.00,0.0039
1720.00,0.0038
1719.00,0.0037
1718.00,0.0036
1717.00,0.0035
1716.00,0.0036
1715.00,0.0036
1714.00,0.0037
1713.00,0.0038
1712.00,0.0039
1711.00,0.0039
1710.00,0.0040
1709.00,0.0040
1708.00,0.0040
1707.00,0.0040
1706.00,0.0040
1705.00,0.0040
1704.00,0.0041
1703.00,0.0041
1702.00,0.0041
1701.00,0.0042
1700.00,0.0042
1699.00,0.0042
1698.00,0.0043
1697.00,0.0044
1696.00,0.0047
1695.00,0.0049
1694.00,0.0051
1693.00,0.0052
1692.00,0.0053
1691.00,0.0054
1690.00,0.0056
1689.00,0.0057
1688.00,0.0058
1687.00,0.0059
1686.00,0.0060
1685.00,0.0061
1684.00,0.0063
1683.00,0.0066
1682.00,0.0069
1681.00,0.0072
1680.00,0.0074
1679.00,0.0075
1678.00,0.0076
1677.00,0.0077
1676.00,0.0079
1675.00,0.0081
1674.00,0.0083
1673.00,0.0085
1672.00,0.0087
1671.00,0.0088
1670.00,0.0089
1669.00,0.0091
1668.00,0.0093
1667.00,0.0095
1666.00,0.0097
1665.00,0.0098
1664.00,0.0100
1663.00,0.0101
1662.00,0.0103
1661.00,0.0105
1660.00,0.0107
1659.00,0.0108
1658.00,0.0110
1657.00,0.0111
1656.00,0.0113
1655.00,0.0114
1654.00,0.0115
1653.00,0.0116
1652.00,0.0118
1651.00,0.0120
1650.00,0.0120
1649.00,0.0121
1648.00,0.0122
1647.00,0.0124
1646.00,0.0126
1645.00,0.0128
1644.00,0.0129
1643.00,0.0131
1642.00,0.0132
1641.00,0.0132
1640.00,0.0133
1639.00,0.0133
1638.00,0.0133
1637.00,0.0133
1636.00,0.0134
1635.00,0.0134
1634.00,0.0134
1633.00,0.0134
1632.00,0.0134
1631.00,0.0133
1630.00,0.0133
1629.00,0.0132
1628.00,0.0131
1627.00,0.0130
1626.00,0.0128
1625.00,0.0127
1624.00,0.0125
1623.00,0.0124
1622.00,0.0123
1621.00,0.0123
1620.00,0.0123
1619.00,0.0123
1618.00,0.0122
1617.00,0.0122
1616.00,0.0122
1615.00,0.0122
1614.00,0.0122
1613.00,0.0122
1612.00,0.0122
1611.00,0.0122
1610.00,0.0122
1609.00,0.0122
1608.00,0.0122
1607.00,0.0122
1606.00,0.0122
1605.00,0.0122
1604.00,0.0122
1603.00,0.0121
1602.00,0.0119
1601.00,0.0118
1600.00,0.0118
1599.00,0.0117
1598.00,0.0117
1597.00,0.0116
1596.00,0.0115
1595.00,0.0115
1594.00,0.0114
1593.00,0.0113
1592.00,0.0112
1591.00,0.0112
1590.00,0.0112
1589.00,0.0113
1588.00,0.0113
1587.00,0.0114
1586.00,0.0115
1585.00,0.0116
1584.00,0.0118
1583.00,0.0120
1582.00,0.0122
1581.00,0.0124
1580.00,0.0126
1579.00,0.0127
1578.00,0.0127
1577.00,0.0127
1576.00,0.0126
1575.00,0.0126
1574.00,0.0125
1573.00,0.0124
1572.00,0.0122
1571.00,0.0120
1570.00,0.0118
1569.00,0.0116
1568.00,0.0115
1567.00,0.0115
1566.00,0.0115
1565.00,0.0115
1564.00,0.0116
1563.00,0.0117
1562.00,0.0118
1561.00,0.0118
1560.00,0.0118
1559.00,0.0119
1558.00,0.0121
1557.00,0.0124
1556.00,0.0126
1555.00,0.0129
1554.00,0.0131
1553.00,0.0133
1552.00,0.0136
1551.00,0.0138
1550.00,0.0140
1549.00,0.0142
1548.00,0.0144
1547.00,0.0146
1546.00,0.0148
1545.00,0.0150
1544.00,0.0152
1543.00,0.0153
1542.00,0.0153
1541.00,0.0154
1540.00,0.0154
1539.00,0.0152
1538.00,0.0150
1537.00,0.0148
1536.00,0.0145
1535.00,0.0142
1534.00,0.0138
1533.00,0.0134
1532.00,0.0131
1531.00,0.0129
1530.00,0.0126
1529.00,0.0123
1528.00,0.0121
1527.00,0.0119
1526.00,0.0116
1525.00,0.0113
1524.00,0.0111
1523.00,0.0110
1522.00,0.0108
1521.00,0.0107
1520.00,0.0106
1519.00,0.0105
1518.00,0.0104
1517.00,0.0104
1516.00,0.0104
1515.00,0.0104
1514.00,0.0104
1513.00,0.0104
1512.00,0.0105
1511.00,0.0106
1510.00,0.0106
1509.00,0.0106
1508.00,0.0107
1507.00,0.0109
1506.00,0.0111
1505.00,0.0115
1504.00,0.0119
1503.00,0.0123
1502.00,0.0127
1501.00,0.0132
1500.00,0.0138
1499.00,0.0145
1498.00,0.0153
1497.00,0.0164
1496.00,0.0177
1495.00,0.0189
1494.00,0.0198
1493.00,0.0206
1492.00,0.0213
1491.00,0.0219
1490.00,0.0225
1489.00,0.0231
1488.00,0.0237
1487.00,0.0243
1486.00,0.0248
1485.00,0.0255
1484.00,0.0262
1483.00,0.0269
1482.00,0.0278
1481.00,0.0289
1480.00,0.0302
1479.00,0.0316
1478.00,0.0335
1477.00,0.0360
1476.00,0.0392
1475.00,0.0429
1474.00,0.0474
1473.00,0.0529
1472.00,0.0586
1471.00,0.0638
1470.00,0.0689
1469.00,0.0744
1468.00,0.0809
1467.00,0.0886
1466.00,0.0981
1465.00,0.1089
1464.00,0.1187
1463.00,0.1253
1462.00,0.1294
1461.00,0.1318
1460.00,0.1333
1459.00,0.1341
1458.00,0.1345
1457.00,0.1346
1456.00,0.1341
1455.00,0.1329
1454.00,0.1314
1453.00,0.1293
1452.00,0.1262
1451.00,0.1220
1450.00,0.1164
1449.00,0.1088
1448.00,0.0993
1447.00,0.0895
1446.00,0.0807
1445.00,0.0734
1444.00,0.0671
1443.00,0.0621
1442.00,0.0583
1441.00,0.0557
1440.00,0.0542
1439.00,0.0537
1438.00,0.0539
1437.00,0.0542
1436.00,0.0531
1435.00,0.0505
1434.00,0.0465
1433.00,0.0417
1432.00,0.0368
1431.00,0.0325
1430.00,0.0292
1429.00,0.0270
1428.00,0.0255
1427.00,0.0247
1426.00,0.0243
1425.00,0.0239
1424.00,0.0236
1423.00,0.0236
1422.00,0.0237
1421.00,0.0238
1420.00,0.0240
1419.00,0.0243
1418.00,0.0246
1417.00,0.0247
1416.00,0.0248
1415.00,0.0250
1414.00,0.0254
1413.00,0.0259
1412.00,0.0264
1411.00,0.0270
1410.00,0.0278
1409.00,0.0285
1408.00,0.0293
1407.00,0.0303
1406.00,0.0315
1405.00,0.0329
1404.00,0.0345
1403.00,0.0361
1402.00,0.0378
1401.00,0.0395
1400.00,0.0415
1399.00,0.0436
1398.00,0.0457
1397.00,0.0475
1396.00,0.0492
1395.00,0.0510
1394.00,0.0526
1393.00,0.0537
1392.00,0.0545
1391.00,0.0553
1390.00,0.0566
1389.00,0.0585
1388.00,0.0614
1387.00,0.0655
1386.00,0.0707
1385.00,0.0772
1384.00,0.0856
1383.00,0.0968
1382.00,0.1113
1381.00,0.1296
1380.00,0.1525
1379.00,0.1791
1378.00,0.2059
1377.00,0.2267
1376.00,0.2354
1375.00,0.2272
1374.00,0.2039
1373.00,0.1739
1372.00,0.1452
1371.00,0.1209
1370.00,0.1009
1369.00,0.0855
1368.00,0.0745
1367.00,0.0675
1366.00,0.0635
1365.00,0.0615
1364.00,0.0611
1363.00,0.0619
1362.00,0.0636
1361.00,0.0655
1360.00,0.0669
1359.00,0.0670
1358.00,0.0654
1357.00,0.0621
1356.00,0.0576
1355.00,0.0525
1354.00,0.0476
1353.00,0.0434
1352.00,0.0400
1351.00,0.0372
1350.00,0.0350
1349.00,0.0332
1348.00,0.0317
1347.00,0.0305
1346.00,0.0296
1345.00,0.0288
1344.00,0.0281
1343.00,0.0275
1342.00,0.0268
1341.00,0.0262
1340.00,0.0256
1339.00,0.0250
1338.00,0.0244
1337.00,0.0240
1336.00,0.0238
1335.00,0.0237
1334.00,0.0238
1333.00,0.0239
1332.00,0.0241
1331.00,0.0242
1330.00,0.0240
1329.00,0.0235
1328.00,0.0228
1327.00,0.0220
1326.00,0.0212
1325.00,0.0203
1324.00,0.0194
1323.00,0.0187
1322.00,0.0180
1321.00,0.0175
1320.00,0.0170
1319.00,0.0166
1318.00,0.0162
1317.00,0.0158
1316.00,0.0155
1315.00,0.0153
1314.00,0.0151
1313.00,0.0150
1312.00,0.0150
1311.00,0.0151
1310.00,0.0154
1309.00,0.0159
1308.00,0.0167
1307.00,0.0176
1306.00,0.0185
1305.00,0.0192
1304.00,0.0194
1303.00,0.0193
1302.00,0.0190
1301.00,0.0188
1300.00,0.0188
1299.00,0.0189
1298.00,0.0191
1297.00,0.0192
1296.00,0.0192
1295.00,0.0190
1294.00,0.0187
1293.00,0.0183
1292.00,0.0178
1291.00,0.0174
1290.00,0.0171
1289.00,0.0168
1288.00,0.0166
1287.00,0.0165
1286.00,0.0164
1285.00,0.0164
1284.00,0.0165
1283.00,0.0166
1282.00,0.0168
1281.00,0.0171
1280.00,0.0175
1279.00,0.0179
1278.00,0.0184
1277.00,0.0189
1276.00,0.0196
1275.00,0.0203
1274.00,0.0211
1273.00,0.0220
1272.00,0.0229
1271.00,0.0239
1270.00,0.0250
1269.00,0.0260
1268.00,0.0271
1267.00,0.0281
1266.00,0.0292
1265.00,0.0301
1264.00,0.0310
1263.00,0.0317
1262.00,0.0324
1261.00,0.0330
1260.00,0.0337
1259.00,0.0345
1258.00,0.0353
1257.00,0.0363
1256.00,0.0370
1255.00,0.0375
1254.00,0.0377
1253.00,0.0376
1252.00,0.0372
1251.00,0.0365
1250.00,0.0356
1249.00,0.0346
1248.00,0.0336
1247.00,0.0326
1246.00,0.0319
1245.00,0.0314
1244.00,0.0312
1243.00,0.0310
1242.00,0.0308
1241.00,0.0306
1240.00,0.0302
1239.00,0.0297
1238.00,0.0292
1237.00,0.0287
1236.00,0.0280
1235.00,0.0273
1234.00,0.0265
1233.00,0.0258
1232.00,0.0251
1231.00,0.0244
1230.00,0.0238
1229.00,0.0231
1228.00,0.0224
1227.00,0.0218
1226.00,0.0212
1225.00,0.0208
1224.00,0.0206
1223.00,0.0204
1222.00,0.0204
1221.00,0.0203
1220.00,0.0201
1219.00,0.0198
1218.00,0.0194
1217.00,0.0189
1216.00,0.0183
1215.00,0.0177
1214.00,0.0171
1213.00,0.0165
1212.00,0.0159
1211.00,0.0154
1210.00,0.0150
1209.00,0.0147
1208.00,0.0145
1207.00,0.0143
1206.00,0.0143
1205.00,0.0142
1204.00,0.0142
1203.00,0.0142
1202.00,0.0142
1201.00,0.0142
1200.00,0.0143
1199.00,0.0145
1198.00,0.0147
1197.00,0.0150
1196.00,0.0152
1195.00,0.0156
1194.00,0.0159
1193.00,0.0164
1192.00,0.0169
1191.00,0.0175
1190.00,0.0182
1189.00,0.0189
1188.00,0.0196
1187.00,0.0205
1186.00,0.0214
1185.00,0.0223
1184.00,0.0233
1183.00,0.0243
1182.00,0.0254
1181.00,0.0265
1180.00,0.0277
1179.00,0.0290
1178.00,0.0304
1177.00,0.0319
1176.00,0.0337
1175.00,0.0358
1174.00,0.0382
1173.00,0.0411
1172.00,0.0445
1171.00,0.0481
1170.00,0.0517
1169.00,0.0547
1168.00,0.0569
1167.00,0.0582
1166.00,0.0586
1165.00,0.0584
1164.00,0.0580
1163.00,0.0575
1162.00,0.0570
1161.00,0.0566
1160.00,0.0566
1159.00,0.0567
1158.00,0.0570
1157.00,0.0573
1156.00,0.0576
1155.00,0.0579
1154.00,0.0581
1153.00,0.0582
1152.00,0.0581
1151.00,0.0577
1150.00,0.0568
1149.00,0.0556
1148.00,0.0542
1147.00,0.0526
1146.00,0.0511
1145.00,0.0496
1144.00,0.0482
1143.00,0.0469
1142.00,0.0458
1141.00,0.0448
1140.00,0.0440
1139.00,0.0432
1138.00,0.0423
1137.00,0.0414
1136.00,0.0404
1135.00,0.0394
1134.00,0.0386
1133.00,0.0381
1132.00,0.0377
1131.00,0.0374
1130.00,0.0371
1129.00,0.0368
1128.00,0.0364
1127.00,0.0360
1126.00,0.0356
1125.00,0.0352
1124.00,0.0348
1123.00,0.0345
1122.00,0.0341
1121.00,0.0339
1120.00,0.0337
1119.00,0.0334
1118.00,0.0330
1117.00,0.0326
1116.00,0.0321
1115.00,0.0317
1114.00,0.0313
1113.00,0.0309
1112.00,0.0306
1111.00,0.0305
1110.00,0.0305
1109.00,0.0307
1108.00,0.0311
1107.00,0.0317
1106.00,0.0323
1105.00,0.0331
1104.00,0.0338
1103.00,0.0344
1102.00,0.0348
1101.00,0.0350
1100.00,0.0350
1099.00,0.0350
1098.00,0.0350
1097.00,0.0352
1096.00,0.0354
1095.00,0.0358
1094.00,0.0361
1093.00,0.0365
1092.00,0.0369
1091.00,0.0374
1090.00,0.0377
1089.00,0.0380
1088.00,0.0382
1087.00,0.0384
1086.00,0.0385
1085.00,0.0386
1084.00,0.0388
1083.00,0.0389
1082.00,0.0390
1081.00,0.0390
1080.00,0.0389
1079.00,0.0387
1078.00,0.0386
1077.00,0.0384
1076.00,0.0384
1075.00,0.0385
1074.00,0.0386
1073.00,0.0388
1072.00,0.0387
1071.00,0.0383
1070.00,0.0377
1069.00,0.0368
1068.00,0.0358
1067.00,0.0347
1066.00,0.0337
1065.00,0.0329
1064.00,0.0321
1063.00,0.0315
1062.00,0.0310
1061.00,0.0304
1060.00,0.0298
1059.00,0.0291
1058.00,0.0283
1057.00,0.0274
1056.00,0.0266
1055.00,0.0258
1054.00,0.0250
1053.00,0.0242
1052.00,0.0233
1051.00,0.0225
1050.00,0.0218
1049.00,0.0213
1048.00,0.0209
1047.00,0.0205
1046.00,0.0201
1045.00,0.0196
1044.00,0.0190
1043.00,0.0184
1042.00,0.0178
1041.00,0.0173
1040.00,0.0169
1039.00,0.0166
1038.00,0.0164
1037.00,0.0162
1036.00,0.0162
1035.00,0.0160
1034.00,0.0157
1033.00,0.0154
1032.00,0.0152
1031.00,0.0149
1030.00,0.0146
1029.00,0.0144
1028.00,0.0142
1027.00,0.0140
1026.00,0.0139
1025.00,0.0138
1024.00,0.0136
1023.00,0.0135
1022.00,0.0134
1021.00,0.0134
1020.00,0.0133
1019.00,0.0134
1018.00,0.0135
1017.00,0.0136
1016.00,0.0139
1015.00,0.0141
1014.00,0.0144
1013.00,0.0147
1012.00,0.0149
1011.00,0.0151
1010.00,0.0152
1009.00,0.0154
1008.00,0.0158
1007.00,0.0163
1006.00,0.0169
1005.00,0.0178
1004.00,0.0190
1003.00,0.0206
1002.00,0.0229
1001.00,0.0256
1000.00,0.0285
999.00,0.0308
998.00,0.0319
997.00,0.0313
996.00,0.0292
995.00,0.0262
994.00,0.0231
993.00,0.0204
992.00,0.0184
991.00,0.0169
990.00,0.0158
989.00,0.0152
988.00,0.0148
987.00,0.0148
986.00,0.0151
985.00,0.0158
984.00,0.0168
983.00,0.0182
982.00,0.0199
981.00,0.0221
980.00,0.0249
979.00,0.0285
978.00,0.0330
977.00,0.0381
976.00,0.0437
975.00,0.0491
974.00,0.0536
973.00,0.0565
972.00,0.0574
971.00,0.0565
970.00,0.0543
969.00,0.0516
968.00,0.0492
967.00,0.0471
966.00,0.0455
965.00,0.0440
964.00,0.0427
963.00,0.0416
962.00,0.0408
961.00,0.0407
960.00,0.0412
959.00,0.0421
958.00,0.0430
957.00,0.0436
956.00,0.0437
955.00,0.0436
954.00,0.0434
953.00,0.0432
952.00,0.0427
951.00,0.0420
950.00,0.0410
949.00,0.0401
948.00,0.0394
947.00,0.0390
946.00,0.0388
945.00,0.0388
944.00,0.0388
943.00,0.0388
942.00,0.0386
941.00,0.0382
940.00,0.0373
939.00,0.0360
938.00,0.0344
937.00,0.0325
936.00,0.0305
935.00,0.0286
934.00,0.0267
933.00,0.0249
932.00,0.0232
931.00,0.0216
930.00,0.0201
929.00,0.0188
928.00,0.0177
927.00,0.0168
926.00,0.0160
925.00,0.0153
924.00,0.0146
923.00,0.0140
922.00,0.0135
921.00,0.0132
920.00,0.0129
919.00,0.0128
918.00,0.0126
917.00,0.0123
916.00,0.0120
915.00,0.0117
914.00,0.0115
913.00,0.0114
912.00,0.0115
911.00,0.0116
910.00,0.0117
909.00,0.0118
908.00,0.0120
907.00,0.0123
906.00,0.0129
905.00,0.0139
904.00,0.0153
903.00,0.0172
902.00,0.0193
901.00,0.0213
900.00,0.0228
899.00,0.0232
898.00,0.0224
897.00,0.0206
896.00,0.0184
895.00,0.0163
894.00,0.0146
893.00,0.0134
892.00,0.0125
891.00,0.0118
890.00,0.0112
889.00,0.0108
888.00,0.0105
887.00,0.0103
886.00,0.0102
885.00,0.0103
884.00,0.0103
883.00,0.0104
882.00,0.0104
881.00,0.0105
880.00,0.0105
879.00,0.0105
878.00,0.0105
877.00,0.0105
876.00,0.0105
875.00,0.0104
874.00,0.0104
873.00,0.0104
872.00,0.0104
871.00,0.0104
870.00,0.0104
869.00,0.0104
868.00,0.0105
867.00,0.0104
866.00,0.0104
865.00,0.0104
864.00,0.0104
863.00,0.0104
862.00,0.0104
861.00,0.0104
860.00,0.0105
859.00,0.0107
858.00,0.0110
857.00,0.0112
856.00,0.0113
855.00,0.0113
854.00,0.0113
853.00,0.0115
852.00,0.0118
851.00,0.0123
850.00,0.0129
849.00,0.0134
848.00,0.0142
847.00,0.0153
846.00,0.0171
845.00,0.0197
844.00,0.0232
843.00,0.0270
842.00,0.0299
841.00,0.0307
840.00,0.0291
839.00,0.0261
838.00,0.0230
837.00,0.0206
836.00,0.0192
835.00,0.0186
834.00,0.0182
833.00,0.0181
832.00,0.0180
831.00,0.0180
830.00,0.0181
829.00,0.0182
828.00,0.0183
827.00,0.0183
826.00,0.0181
825.00,0.0179
824.00,0.0178
823.00,0.0178
822.00,0.0180
821.00,0.0182
820.00,0.0185
819.00,0.0190
818.00,0.0197
817.00,0.0206
816.00,0.0216
815.00,0.0227
814.00,0.0240
813.00,0.0257
812.00,0.0275
811.00,0.0292
810.00,0.0306
809.00,0.0312
808.00,0.0309
807.00,0.0298
806.00,0.0281
805.00,0.0261
804.00,0.0242
803.00,0.0226
802.00,0.0213
801.00,0.0201
800.00,0.0190
799.00,0.0180
798.00,0.0171
797.00,0.0164
796.00,0.0158
795.00,0.0152
794.00,0.0146
793.00,0.0140
792.00,0.0135
791.00,0.0130
790.00,0.0126
789.00,0.0123
788.00,0.0120
787.00,0.0117
786.00,0.0116
785.00,0.0114
784.00,0.0111
783.00,0.0106
782.00,0.0102
781.00,0.0099
780.00,0.0097
779.00,0.0097
778.00,0.0097
777.00,0.0097
776.00,0.0097
775.00,0.0098
774.00,0.0099
773.00,0.0101
772.00,0.0104
771.00,0.0108
770.00,0.0111
769.00,0.0112
768.00,0.0112
767.00,0.0110
766.00,0.0108
765.00,0.0106
764.00,0.0106
763.00,0.0105
762.00,0.0104
761.00,0.0103
760.00,0.0102
759.00,0.0100
758.00,0.0097
757.00,0.0095
756.00,0.0093
755.00,0.0093
754.00,0.0093
753.00,0.0094
752.00,0.0094
751.00,0.0094
750.00,0.0093
749.00,0.0093
748.00,0.0093
747.00,0.0094
746.00,0.0095
745.00,0.0098
744.00,0.0100
743.00,0.0103
742.00,0.0105
741.00,0.0108
740.00,0.0110
739.00,0.0112
738.00,0.0114
737.00,0.0116
736.00,0.0120
735.00,0.0123
734.00,0.0126
733.00,0.0127
732.00,0.0129
731.00,0.0131
730.00,0.0133
729.00,0.0134
728.00,0.0135
727.00,0.0134
726.00,0.0134
725.00,0.0133
724.00,0.0132
723.00,0.0130
722.00,0.0129
721.00,0.0127
720.00,0.0124
719.00,0.0121
718.00,0.0117
717.00,0.0114
716.00,0.0112
715.00,0.0111
714.00,0.0110
713.00,0.0108
712.00,0.0108
711.00,0.0109
710.00,0.0111
709.00,0.0113
708.00,0.0116
707.00,0.0119
706.00,0.0123
705.00,0.0126
704.00,0.0127
703.00,0.0124
702.00,0.0119
701.00,0.0113
700.00,0.0107
699.00,0.0104
698.00,0.0101
697.00,0.0098
696.00,0.0097
695.00,0.0098
694.00,0.0099
693.00,0.0100
692.00,0.0100
691.00,0.0099
690.00,0.0099
689.00,0.0099
688.00,0.0099
687.00,0.0099
686.00,0.0099
685.00,0.0099
684.00,0.0099
683.00,0.0100
682.00,0.0102
681.00,0.0103
680.00,0.0102
679.00,0.0101
678.00,0.0100
677.00,0.0100
676.00,0.0102
675.00,0.0104
674.00,0.0105
673.00,0.0105
672.00,0.0105
671.00,0.0106
670.00,0.0106
669.00,0.0106
668.00,0.0104
667.00,0.0102
666.00,0.0101
665.00,0.0100
664.00,0.0101
663.00,0.0103
662.00,0.0104
661.00,0.0104
660.00,0.0104
659.00,0.0103
658.00,0.0102
657.00,0.0101
656.00,0.0101
655.00,0.0102
654.00,0.0101
653.00,0.0101
652.00,0.0100
651.00,0.0099
650.00,0.0099
649.00,0.0099
648.00,0.0099
647.00,0.0101
646.00,0.0104
645.00,0.0108
644.00,0.0111
643.00,0.0111
642.00,0.0110
641.00,0.0107
640.00,0.0104
639.00,0.0102
638.00,0.0102
637.00,0.0103
636.00,0.0103
635.00,0.0104
634.00,0.0105
633.00,0.0107
632.00,0.0108
631.00,0.0107
630.00,0.0107
629.00,0.0106
628.00,0.0106
627.00,0.0106
626.00,0.0108
625.00,0.0110
624.00,0.0111
623.00,0.0111
622.00,0.0110
621.00,0.0111
620.00,0.0112
619.00,0.0113
618.00,0.0114
617.00,0.0114
616.00,0.0114
615.00,0.0114
614.00,0.0112
613.00,0.0110
612.00,0.0110
611.00,0.0110
610.00,0.0112
609.00,0.0113
608.00,0.0112
607.00,0.0109
606.00,0.0107
605.00,0.0106
604.00,0.0107
603.00,0.0107
602.00,0.0105
601.00,0.0102
600.00,0.0101
599.00,0.0101
598.00,0.0103
597.00,0.0104
596.00,0.0105
595.00,0.0107
594.00,0.0108
593.00,0.0109
592.00,0.0110
591.00,0.0111
590.00,0.0113
589.00,0.0112
588.00,0.0110
587.00,0.0108
586.00,0.0107
585.00,0.0108
584.00,0.0109
583.00,0.0111
582.00,0.0112
581.00,0.0113
580.00,0.0112
579.00,0.0110
578.00,0.0108
577.00,0.0107
576.00,0.0106
575.00,0.0107
574.00,0.0107
573.00,0.0107
572.00,0.0107
571.00,0.0108
570.00,0.0109
569.00,0.0112
568.00,0.0113
567.00,0.0113
566.00,0.0111
565.00,0.0109
564.00,0.0108
563.00,0.0108
562.00,0.0110
561.00,0.0112
560.00,0.0112
559.00,0.0112
558.00,0.0112
557.00,0.0114
556.00,0.0115
555.00,0.0115
554.00,0.0115
553.00,0.0115
552.00,0.0112
551.00,0.0108
550.00,0.0103
549.00,0.0100
548.00,0.0101
547.00,0.0102
546.00,0.0103
545.00,0.0104
544.00,0.0106
543.00,0.0109
542.00,0.0112
541.00,0.0116
540.00,0.0118
539.00,0.0120
538.00,0.0121
537.00,0.0121
536.00,0.0121
535.00,0.0123
534.00,0.0127
533.00,0.0131
532.00,0.0135
531.00,0.0138
530.00,0.0140
529.00,0.0140
528.00,0.0139
527.00,0.0138
526.00,0.0136
525.00,0.0133
524.00,0.0129
523.00,0.0127
522.00,0.0127
521.00,0.0127
520.00,0.0128
519.00,0.0128
518.00,0.0125
517.00,0.0123
516.00,0.0120
515.00,0.0119
514.00,0.0118
513.00,0.0118
512.00,0.0120
511.00,0.0124
510.00,0.0127
509.00,0.0127
508.00,0.0125
507.00,0.0124
506.00,0.0127
505.00,0.0132
504.00,0.0137
503.00,0.0138
502.00,0.0135
501.00,0.0133
500.00,0.0134
499.00,0.0137
498.00,0.0139
497.00,0.0141
496.00,0.0144
495.00,0.0146
494.00,0.0147
493.00,0.0145
492.00,0.0142
491.00,0.0140
490.00,0.0137
489.00,0.0133
488.00,0.0130
487.00,0.0133
486.00,0.0140
485.00,0.0147
484.00,0.0148
483.00,0.0144
482.00,0.0140
481.00,0.0140
480.00,0.0143
479.00,0.0147
478.00,0.0150
477.00,0.0149
476.00,0.0145
475.00,0.0138
474.00,0.0132
473.00,0.0130
472.00,0.0134
471.00,0.0140
470.00,0.0145
469.00,0.0147
468.00,0.0147
467.00,0.0150
466.00,0.0157
465.00,0.0166
464.00,0.0175
463.00,0.0182
462.00,0.0187
461.00,0.0194
460.00,0.0203
459.00,0.0209
458.00,0.0208
457.00,0.0202
456.00,0.0196
455.00,0.0191
454.00,0.0182
453.00,0.0170
452.00,0.0159
451.00,0.0152
450.00,0.0151
