Created as New Dataset,Sample 023 By Administrator Date Friday, September 05 2025
cm-1,A
4000.00,0.0016
3999.00,0.0016
3998.00,0.0015
3997.00,0.0015
3996.00,0.0015
3995.00,0.0015
3994.00,0.0016
3993.00,0.0016
3992.00,0.0016
3991.00,0.0016
3990.00,0.0016
3989.00,0.0016
3988.00,0.0015
3987.00,0.0015
3986.00,0.0015
3985.00,0.0015
3984.00,0.0015
3983.00,0.0014
3982.00,0.0014
3981.00,0.0014
3980.00,0.0014
3979.00,0.0014
3978.00,0.0014
3977.00,0.0014
3976.00,0.0014
3975.00,0.0014
3974.00,0.0014
3973.00,0.0014
3972.00,0.0014
3971.00,0.0014
3970.00,0.0014
3969.00,0.0014
3968.00,0.0014
3967.00,0.0014
3966.00,0.0014
3965.00,0.0014
3964.00,0.0014
3963.00,0.0014
3962.00,0.0014
3961.00,0.0014
3960.00,0.0014
3959.00,0.0014
3958.00,0.0014
3957.00,0.0013
3956.00,0.0013
3955.00,0.0013
3954.00,0.0014
3953.00,0.0014
3952.00,0.0014
3951.00,0.0014
3950.00,0.0014
3949.00,0.0014
3948.00,0.0014
3947.00,0.0014
3946.00,0.0014
3945.00,0.0014
3944.00,0.0014
3943.00,0.0014
3942.00,0.0014
3941.00,0.0014
3940.00,0.0014
3939.00,0.0014
3938.00,0.0015
3937.00,0.0015
3936.00,0.0015
3935.00,0.0015
3934.00,0.0015
3933.00,0.0015
3932.00,0.0015
3931.00,0.0015
3930.00,0.0015
3929.00,0.0015
3928.00,0.0015
3927.00,0.0015
3926.00,0.0015
3925.00,0.0015
3924.00,0.0016
3923.00,0.0016
3922.00,0.0016
3921.00,0.0016
3920.00,0.0016
3919.00,0.0016
3918.00,0.0016
3917.00,0.0015
3916.00,0.0015
3915.00,0.0015
3914.00,0.0015
3913.00,0.0015
3912.00,0.0015
3911.00,0.0016
3910.00,0.0016
3909.00,0.0016
3908.00,0.0015
3907.00,0.0015
3906.00,0.0014
3905.00,0.0014
3904.00,0.0014
3903.00,0.0015
3902.00,0.0015
3901.00,0.0015
3900.00,0.0015
3899.00,0.0015
3898.00,0.0016
3897.00,0.0016
3896.00,0.0016
3895.00,0.0016
3894.00,0.0016
3893.00,0.0015
3892.00,0.0015
3891.00,0.0015
3890.00,0.0015
3889.00,0.0015
3888.00,0.0015
3887.00,0.0015
3886.00,0.0015
3885.00,0.0015
3884.00,0.0016
3883.00,0.0015
3882.00,0.0015
3881.00,0.0015
3880.00,0.0015
3879.00,0.0015
3878.00,0.0015
3877.00,0.0014
3876.00,0.0014
3875.00,0.0014
3874.00,0.0014
3873.00,0.0015
3872.00,0.0015
3871.00,0.0015
3870.00,0.0015
3869.00,0.0016
3868.00,0.0016
3867.00,0.0016
3866.00,0.0016
3865.00,0.0015
3864.00,0.0015
3863.00,0.0015
3862.00,0.0014
3861.00,0.0014
3860.00,0.0014
3859.00,0.0014
3858.00,0.0015
3857.00,0.0016
3856.00,0.0016
3855.00,0.0016
3854.00,0.0016
3853.00,0.0017
3852.00,0.0017
3851.00,0.0017
3850.00,0.0016
3849.00,0.0015
3848.00,0.0015
3847.00,0.0014
3846.00,0.0014
3845.00,0.0014
3844.00,0.0014
3843.00,0.0014
3842.00,0.0015
3841.00,0.0015
3840.00,0.0016
3839.00,0.0016
3838.00,0.0016
3837.00,0.0015
3836.00,0.0015
3835.00,0.0014
3834.00,0.0014
3833.00,0.0014
3832.00,0.0015
3831.00,0.0015
3830.00,0.0015
3829.00,0.0015
3828.00,0.0015
3827.00,0.0015
3826.00,0.0016
3825.00,0.0016
3824.00,0.0016
3823.00,0.0015
3822.00,0.0015
3821.00,0.0015
3820.00,0.0015
3819.00,0.0015
3818.00,0.0015
3817.00,0.0016
3816.00,0.0016
3815.00,0.0017
3814.00,0.0017
3813.00,0.0017
3812.00,0.0016
3811.00,0.0016
3810.00,0.0015
3809.00,0.0015
3808.00,0.0015
3807.00,0.0014
3806.00,0.0015
3805.00,0.0015
3804.00,0.0015
3803.00,0.0015
3802.00,0.0015
3801.00,0.0015
3800.00,0.0015
3799.00,0.0015
3798.00,0.0015
3797.00,0.0015
3796.00,0.0015
3795.00,0.0015
3794.00,0.0015
3793.00,0.0014
3792.00,0.0014
3791.00,0.0014
3790.00,0.0015
3789.00,0.0015
3788.00,0.0015
3787.00,0.0015
3786.00,0.0014
3785.00,0.0014
3784.00,0.0014
3783.00,0.0014
3782.00,0.0013
3781.00,0.0013
3780.00,0.0013
3779.00,0.0014
3778.00,0.0014
3777.00,0.0014
3776.00,0.0014
3775.00,0.0014
3774.00,0.0013
3773.00,0.0013
3772.00,0.0013
3771.00,0.0013
3770.00,0.0013
3769.00,0.0013
3768.00,0.0014
3767.00,0.0014
3766.00,0.0014
3765.00,0.0014
3764.00,0.0014
3763.00,0.0014
3762.00,0.0013
3761.00,0.0013
3760.00,0.0013
3759.00,0.0013
3758.00,0.0013
3757.00,0.0014
3756.00,0.0014
3755.00,0.0014
3754.00,0.0013
3753.00,0.0012
3752.00,0.0012
3751.00,0.0012
3750.00,0.0012
3749.00,0.0013
3748.00,0.0014
3747.00,0.0014
3746.00,0.0014
3745.00,0.0013
3744.00,0.0012
3743.00,0.0012
3742.00,0.0012
3741.00,0.0012
3740.00,0.0013
3739.00,0.0013
3738.00,0.0013
3737.00,0.0013
3736.00,0.0013
3735.00,0.0013
3734.00,0.0012
3733.00,0.0012
3732.00,0.0012
3731.00,0.0012
3730.00,0.0013
3729.00,0.0013
3728.00,0.0014
3727.00,0.0014
3726.00,0.0014
3725.00,0.0014
3724.00,0.0015
3723.00,0.0015
3722.00,0.0015
3721.00,0.0015
3720.00,0.0015
3719.00,0.0014
3718.00,0.0014
3717.00,0.0014
3716.00,0.0014
3715.00,0.0013
3714.00,0.0013
3713.00,0.0013
3712.00,0.0013
3711.00,0.0014
3710.00,0.0014
3709.00,0.0014
3708.00,0.0014
3707.00,0.0014
3706.00,0.0014
3705.00,0.0015
3704.00,0.0015
3703.00,0.0015
3702.00,0.0015
3701.00,0.0015
3700.00,0.0015
3699.00,0.0015
3698.00,0.0016
3697.00,0.0016
3696.00,0.0016
3695.00,0.0017
3694.00,0.0017
3693.00,0.0017
3692.00,0.0018
3691.00,0.0020
3690.00,0.0022
3689.00,0.0024
3688.00,0.0025
3687.00,0.0026
3686.00,0.0028
3685.00,0.0030
3684.00,0.0033
3683.00,0.0036
3682.00,0.0039
3681.00,0.0042
3680.00,0.0045
3679.00,0.0049
3678.00,0.0052
3677.00,0.0056
3676.00,0.0061
3675.00,0.0065
3674.00,0.0068
3673.00,0.0070
3672.00,0.0071
3671.00,0.0072
3670.00,0.0074
3669.00,0.0075
3668.00,0.0076
3667.00,0.0077
3666.00,0.0079
3665.00,0.0080
3664.00,0.0081
3663.00,0.0083
3662.00,0.0084
3661.00,0.0085
3660.00,0.0085
3659.00,0.0085
3658.00,0.0085
3657.00,0.0084
3656.00,0.0084
3655.00,0.0083
3654.00,0.0082
3653.00,0.0081
3652.00,0.0081
3651.00,0.0080
3650.00,0.0080
3649.00,0.0080
3648.00,0.0080
3647.00,0.0079
3646.00,0.0077
3645.00,0.0075
3644.00,0.0073
3643.00,0.0071
3642.00,0.0069
3641.00,0.0068
3640.00,0.0068
3639.00,0.0068
3638.00,0.0068
3637.00,0.0066
3636.00,0.0061
3635.00,0.0055
3634.00,0.0049
3633.00,0.0044
3632.00,0.0041
3631.00,0.0039
3630.00,0.0037
3629.00,0.0036
3628.00,0.0035
3627.00,0.0034
3626.00,0.0034
3625.00,0.0034
3624.00,0.0034
3623.00,0.0033
3622.00,0.0032
3621.00,0.0032
3620.00,0.0031
3619.00,0.0030
3618.00,0.0030
3617.00,0.0030
3616.00,0.0030
3615.00,0.0030
3614.00,0.0031
3613.00,0.0031
3612.00,0.0030
3611.00,0.0030
3610.00,0.0030
3609.00,0.0030
3608.00,0.0030
3607.00,0.0031
3606.00,0.0031
3605.00,0.0031
3604.00,0.0030
3603.00,0.0030
3602.00,0.0030
3601.00,0.0030
3600.00,0.0030
3599.00,0.0030
3598.00,0.0030
3597.00,0.0031
3596.00,0.0032
3595.00,0.0032
3594.00,0.0033
3593.00,0.0032
3592.00,0.0032
3591.00,0.0033
3590.00,0.0033
3589.00,0.0034
3588.00,0.0035
3587.00,0.0035
3586.00,0.0036
3585.00,0.0036
3584.00,0.0037
3583.00,0.0037
3582.00,0.0037
3581.00,0.0038
3580.00,0.0038
3579.00,0.0038
3578.00,0.0038
3577.00,0.0039
3576.00,0.0039
3575.00,0.0039
3574.00,0.0040
3573.00,0.0040
3572.00,0.0041
3571.00,0.0042
3570.00,0.0042
3569.00,0.0042
3568.00,0.0043
3567.00,0.0043
3566.00,0.0043
3565.00,0.0044
3564.00,0.0044
3563.00,0.0045
3562.00,0.0045
3561.00,0.0046
3560.00,0.0046
3559.00,0.0046
3558.00,0.0047
3557.00,0.0047
3556.00,0.0047
3555.00,0.0047
3554.00,0.0047
3553.00,0.0047
3552.00,0.0048
3551.00,0.0049
3550.00,0.0049
3549.00,0.0050
3548.00,0.0050
3547.00,0.0051
3546.00,0.0051
3545.00,0.0051
3544.00,0.0052
3543.00,0.0052
3542.00,0.0053
3541.00,0.0053
3540.00,0.0053
3539.00,0.0053
3538.00,0.0053
3537.00,0.0054
3536.00,0.0054
3535.00,0.0054
3534.00,0.0054
3533.00,0.0054
3532.00,0.0054
3531.00,0.0055
3530.00,0.0056
3529.00,0.0056
3528.00,0.0057
3527.00,0.0057
3526.00,0.0058
3525.00,0.0058
3524.00,0.0058
3523.00,0.0058
3522.00,0.0058
3521.00,0.0059
3520.00,0.0059
3519.00,0.0060
3518.00,0.0061
3517.00,0.0061
3516.00,0.0061
3515.00,0.0061
3514.00,0.0061
3513.00,0.0062
3512.00,0.0063
3511.00,0.0063
3510.00,0.0064
3509.00,0.0064
3508.00,0.0064
3507.00,0.0064
3506.00,0.0064
3505.00,0.0065
3504.00,0.0065
3503.00,0.0066
3502.00,0.0067
3501.00,0.0067
3500.00,0.0068
3499.00,0.0068
3498.00,0.0068
3497.00,0.0068
3496.00,0.0069
3495.00,0.0070
3494.00,0.0070
3493.00,0.0070
3492.00,0.0071
3491.00,0.0071
3490.00,0.0072
3489.00,0.0073
3488.00,0.0073
3487.00,0.0074
3486.00,0.0074
3485.00,0.0075
3484.00,0.0075
3483.00,0.0075
3482.00,0.0075
3481.00,0.0076
3480.00,0.0076
3479.00,0.0076
3478.00,0.0077
3477.00,0.0077
3476.00,0.0077
3475.00,0.0078
3474.00,0.0078
3473.00,0.0079
3472.00,0.0079
3471.00,0.0080
3470.00,0.0080
3469.00,0.0081
3468.00,0.0081
3467.00,0.0081
3466.00,0.0081
3465.00,0.0082
3464.00,0.0082
3463.00,0.0082
3462.00,0.0083
3461.00,0.0083
3460.00,0.0084
3459.00,0.0084
3458.00,0.0085
3457.00,0.0085
3456.00,0.0085
3455.00,0.0086
3454.00,0.0086
3453.00,0.0086
3452.00,0.0087
3451.00,0.0087
3450.00,0.0087
3449.00,0.0088
3448.00,0.0089
3447.00,0.0089
3446.00,0.0090
3445.00,0.0090
3444.00,0.0090
3443.00,0.0091
3442.00,0.0091
3441.00,0.0091
3440.00,0.0091
3439.00,0.0091
3438.00,0.0091
3437.00,0.0092
3436.00,0.0092
3435.00,0.0093
3434.00,0.0093
3433.00,0.0094
3432.00,0.0094
3431.00,0.0094
3430.00,0.0095
3429.00,0.0095
3428.00,0.0095
3427.00,0.0095
3426.00,0.0096
3425.00,0.0096
3424.00,0.0096
3423.00,0.0097
3422.00,0.0097
3421.00,0.0098
3420.00,0.0098
3419.00,0.0098
3418.00,0.0098
3417.00,0.0098
3416.00,0.0098
3415.00,0.0098
3414.00,0.0099
3413.00,0.0099
3412.00,0.0099
3411.00,0.0100
3410.00,0.0100
3409.00,0.0100
3408.00,0.0100
3407.00,0.0100
3406.00,0.0101
3405.00,0.0101
3404.00,0.0102
3403.00,0.0102
3402.00,0.0102
3401.00,0.0102
3400.00,0.0102
3399.00,0.0102
3398.00,0.0102
3397.00,0.0102
3396.00,0.0102
3395.00,0.0102
3394.00,0.0103
3393.00,0.0103
3392.00,0.0103
3391.00,0.0104
3390.00,0.0104
3389.00,0.0104
3388.00,0.0104
3387.00,0.0104
3386.00,0.0104
3385.00,0.0104
3384.00,0.0104
3383.00,0.0104
3382.00,0.0104
3381.00,0.0104
3380.00,0.0104
3379.00,0.0104
3378.00,0.0104
3377.00,0.0105
3376.00,0.0105
3375.00,0.0105
3374.00,0.0105
3373.00,0.0106
3372.00,0.0106
3371.00,0.0106
3370.00,0.0106
3369.00,0.0106
3368.00,0.0106
3367.00,0.0106
3366.00,0.0106
3365.00,0.0106
3364.00,0.0106
3363.00,0.0106
3362.00,0.0106
3361.00,0.0107
3360.00,0.0107
3359.00,0.0108
3358.00,0.0108
3357.00,0.0108
3356.00,0.0109
3355.00,0.0109
3354.00,0.0110
3353.00,0.0110
3352.00,0.0110
3351.00,0.0109
3350.00,0.0109
3349.00,0.0109
3348.00,0.0109
3347.00,0.0109
3346.00,0.0109
3345.00,0.0109
3344.00,0.0109
3343.00,0.0109
3342.00,0.0109
3341.00,0.0109
3340.00,0.0109
3339.00,0.0109
3338.00,0.0110
3337.00,0.0110
3336.00,0.0110
3335.00,0.0110
3334.00,0.0110
3333.00,0.0110
3332.00,0.0110
3331.00,0.0110
3330.00,0.0109
3329.00,0.0109
3328.00,0.0108
3327.00,0.0108
3326.00,0.0108
3325.00,0.0108
3324.00,0.0108
3323.00,0.0108
3322.00,0.0108
3321.00,0.0108
3320.00,0.0108
3319.00,0.0108
3318.00,0.0108
3317.00,0.0108
3316.00,0.0108
3315.00,0.0108
3314.00,0.0107
3313.00,0.0107
3312.00,0.0107
3311.00,0.0107
3310.00,0.0107
3309.00,0.0107
3308.00,0.0107
3307.00,0.0106
3306.00,0.0106
3305.00,0.0107
3304.00,0.0107
3303.00,0.0107
3302.00,0.0107
3301.00,0.0107
3300.00,0.0106
3299.00,0.0105
3298.00,0.0105
3297.00,0.0105
3296.00,0.0105
3295.00,0.0105
3294.00,0.0105
3293.00,0.0105
3292.00,0.0104
3291.00,0.0104
3290.00,0.0104
3289.00,0.0104
3288.00,0.0103
3287.00,0.0103
3286.00,0.0102
3285.00,0.0102
3284.00,0.0101
3283.00,0.0101
3282.00,0.0101
3281.00,0.0101
3280.00,0.0101
3279.00,0.0101
3278.00,0.0101
3277.00,0.0100
3276.00,0.0100
3275.00,0.0100
3274.00,0.0099
3273.00,0.0099
3272.00,0.0099
3271.00,0.0098
3270.00,0.0098
3269.00,0.0097
3268.00,0.0097
3267.00,0.0096
3266.00,0.0096
3265.00,0.0096
3264.00,0.0096
3263.00,0.0096
3262.00,0.0095
3261.00,0.0095
3260.00,0.0095
3259.00,0.0094
3258.00,0.0094
3257.00,0.0094
3256.00,0.0094
3255.00,0.0094
3254.00,0.0093
3253.00,0.0093
3252.00,0.0093
3251.00,0.0093
3250.00,0.0093
3249.00,0.0092
3248.00,0.0092
3247.00,0.0092
3246.00,0.0091
3245.00,0.0091
3244.00,0.0091
3243.00,0.0091
3242.00,0.0091
3241.00,0.0091
3240.00,0.0091
3239.00,0.0091
3238.00,0.0091
3237.00,0.0091
3236.00,0.0091
3235.00,0.0090
3234.00,0.0090
3233.00,0.0091
3232.00,0.0091
3231.00,0.0091
3230.00,0.0092
3229.00,0.0092
3228.00,0.0092
3227.00,0.0092
3226.00,0.0092
3225.00,0.0092
3224.00,0.0092
3223.00,0.0092
3222.00,0.0092
3221.00,0.0092
3220.00,0.0093
3219.00,0.0093
3218.00,0.0093
3217.00,0.0093
3216.00,0.0093
3215.00,0.0094
3214.00,0.0094
3213.00,0.0094
3212.00,0.0094
3211.00,0.0094
3210.00,0.0094
3209.00,0.0095
3208.00,0.0094
3207.00,0.0094
3206.00,0.0094
3205.00,0.0094
3204.00,0.0094
3203.00,0.0094
3202.00,0.0094
3201.00,0.0094
3200.00,0.0094
3199.00,0.0094
3198.00,0.0094
3197.00,0.0094
3196.00,0.0093
3195.00,0.0093
3194.00,0.0093
3193.00,0.0093
3192.00,0.0093
3191.00,0.0093
3190.00,0.0093
3189.00,0.0093
3188.00,0.0093
3187.00,0.0093
3186.00,0.0092
3185.00,0.0092
3184.00,0.0091
3183.00,0.0090
3182.00,0.0090
3181.00,0.0090
3180.00,0.0089
3179.00,0.0089
3178.00,0.0089
3177.00,0.0088
3176.00,0.0088
3175.00,0.0087
3174.00,0.0086
3173.00,0.0086
3172.00,0.0085
3171.00,0.0085
3170.00,0.0084
3169.00,0.0084
3168.00,0.0083
3167.00,0.0083
3166.00,0.0083
3165.00,0.0082
3164.00,0.0082
3163.00,0.0082
3162.00,0.0081
3161.00,0.0081
3160.00,0.0081
3159.00,0.0081
3158.00,0.0080
3157.00,0.0080
3156.00,0.0079
3155.00,0.0079
3154.00,0.0078
3153.00,0.0077
3152.00,0.0077
3151.00,0.0077
3150.00,0.0077
3149.00,0.0078
3148.00,0.0078
3147.00,0.0077
3146.00,0.0077
3145.00,0.0076
3144.00,0.0076
3143.00,0.0075
3142.00,0.0074
3141.00,0.0074
3140.00,0.0074
3139.00,0.0073
3138.00,0.0073
3137.00,0.0073
3136.00,0.0073
3135.00,0.0073
3134.00,0.0073
3133.00,0.0072
3132.00,0.0072
3131.00,0.0071
3130.00,0.0070
3129.00,0.0070
3128.00,0.0069
3127.00,0.0069
3126.00,0.0069
3125.00,0.0069
3124.00,0.0068
3123.00,0.0068
3122.00,0.0067
3121.00,0.0067
3120.00,0.0066
3119.00,0.0066
3118.00,0.0066
3117.00,0.0066
3116.00,0.0065
3115.00,0.0065
3114.00,0.0065
3113.00,0.0064
3112.00,0.0064
3111.00,0.0064
3110.00,0.0064
3109.00,0.0064
3108.00,0.0064
3107.00,0.0064
3106.00,0.0064
3105.00,0.0064
3104.00,0.0064
3103.00,0.0063
3102.00,0.0063
3101.00,0.0063
3100.00,0.0062
3099.00,0.0062
3098.00,0.0062
3097.00,0.0062
3096.00,0.0062
3095.00,0.0062
3094.00,0.0061
3093.00,0.0061
3092.00,0.0061
3091.00,0.0060
3090.00,0.0060
3089.00,0.0060
3088.00,0.0060
3087.00,0.0060
3086.00,0.0060
3085.00,0.0060
3084.00,0.0059
3083.00,0.0059
3082.00,0.0059
3081.00,0.0059
3080.00,0.0060
3079.00,0.0060
3078.00,0.0061
3077.00,0.0061
3076.00,0.0061
3075.00,0.0061
3074.00,0.0060
3073.00,0.0060
3072.00,0.0060
3071.00,0.0059
3070.00,0.0059
3069.00,0.0059
3068.00,0.0060
3067.00,0.0060
3066.00,0.0060
3065.00,0.0061
3064.00,0.0061
3063.00,0.0061
3062.00,0.0061
3061.00,0.0061
3060.00,0.0061
3059.00,0.0061
3058.00,0.0061
3057.00,0.0062
3056.00,0.0062
3055.00,0.0062
3054.00,0.0062
3053.00,0.0062
3052.00,0.0062
3051.00,0.0062
3050.00,0.0062
3049.00,0.0063
3048.00,0.0063
3047.00,0.0063
3046.00,0.0063
3045.00,0.0064
3044.00,0.0064
3043.00,0.0065
3042.00,0.0065
3041.00,0.0065
3040.00,0.0065
3039.00,0.0066
3038.00,0.0066
3037.00,0.0067
3036.00,0.0067
3035.00,0.0067
3034.00,0.0068
3033.00,0.0068
3032.00,0.0068
3031.00,0.0069
3030.00,0.0069
3029.00,0.0070
3028.00,0.0072
3027.00,0.0074
3026.00,0.0076
3025.00,0.0078
3024.00,0.0080
3023.00,0.0082
3022.00,0.0084
3021.00,0.0087
3020.00,0.0090
3019.00,0.0094
3018.00,0.0099
3017.00,0.0105
3016.00,0.0112
3015.00,0.0121
3014.00,0.0130
3013.00,0.0141
3012.00,0.0154
3011.00,0.0167
3010.00,0.0183
3009.00,0.0199
3008.00,0.0218
3007.00,0.0237
3006.00,0.0258
3005.00,0.0279
3004.00,0.0301
3003.00,0.0323
3002.00,0.0345
3001.00,0.0366
3000.00,0.0387
2999.00,0.0406
2998.00,0.0423
2997.00,0.0439
2996.00,0.0455
2995.00,0.0469
2994.00,0.0484
2993.00,0.0499
2992.00,0.0514
2991.00,0.0528
2990.00,0.0544
2989.00,0.0561
2988.00,0.0581
2987.00,0.0609
2986.00,0.0651
2985.00,0.0710
2984.00,0.0783
2983.00,0.0855
2982.00,0.0908
2981.00,0.0934
2980.00,0.0934
2979.00,0.0923
2978.00,0.0913
2977.00,0.0911
2976.00,0.0922
2975.00,0.0950
2974.00,0.0992
2973.00,0.1045
2972.00,0.1099
2971.00,0.1148
2970.00,0.1191
2969.00,0.1234
2968.00,0.1285
2967.00,0.1348
2966.00,0.1421
2965.00,0.1499
2964.00,0.1579
2963.00,0.1658
2962.00,0.1732
2961.00,0.1797
2960.00,0.1850
2959.00,0.1890
2958.00,0.1920
2957.00,0.1943
2956.00,0.1963
2955.00,0.1984
2954.00,0.2009
2953.00,0.2035
2952.00,0.2058
2951.00,0.2072
2950.00,0.2067
2949.00,0.2037
2948.00,0.1976
2947.00,0.1886
2946.00,0.1774
2945.00,0.1652
2944.00,0.1532
2943.00,0.1426
2942.00,0.1342
2941.00,0.1282
2940.00,0.1246
2939.00,0.1231
2938.00,0.1236
2937.00,0.1258
2936.00,0.1295
2935.00,0.1348
2934.00,0.1414
2933.00,0.1491
2932.00,0.1578
2931.00,0.1670
2930.00,0.1766
2929.00,0.1864
2928.00,0.1960
2927.00,0.2054
2926.00,0.2144
2925.00,0.2230
2924.00,0.2314
2923.00,0.2397
2922.00,0.2478
2921.00,0.2557
2920.00,0.2627
2919.00,0.2682
2918.00,0.2714
2917.00,0.2715
2916.00,0.2682
2915.00,0.2620
2914.00,0.2535
2913.00,0.2440
2912.00,0.2343
2911.00,0.2252
2910.00,0.2170
2909.00,0.2096
2908.00,0.2030
2907.00,0.1968
2906.00,0.1908
2905.00,0.1846
2904.00,0.1784
2903.00,0.1720
2902.00,0.1656
2901.00,0.1592
2900.00,0.1531
2899.00,0.1472
2898.00,0.1418
2897.00,0.1370
2896.00,0.1328
2895.00,0.1293
2894.00,0.1265
2893.00,0.1244
2892.00,0.1228
2891.00,0.1218
2890.00,0.1211
2889.00,0.1206
2888.00,0.1205
2887.00,0.1206
2886.00,0.1213
2885.00,0.1223
2884.00,0.1235
2883.00,0.1249
2882.00,0.1263
2881.00,0.1278
2880.00,0.1292
2879.00,0.1305
2878.00,0.1313
2877.00,0.1315
2876.00,0.1310
2875.00,0.1301
2874.00,0.1291
2873.00,0.1284
2872.00,0.1284
2871.00,0.1289
2870.00,0.1300
2869.00,0.1312
2868.00,0.1318
2867.00,0.1313
2866.00,0.1290
2865.00,0.1246
2864.00,0.1183
2863.00,0.1108
2862.00,0.1029
2861.00,0.0956
2860.00,0.0892
2859.00,0.0842
2858.00,0.0806
2857.00,0.0782
2856.00,0.0769
2855.00,0.0766
2854.00,0.0770
2853.00,0.0782
2852.00,0.0797
2851.00,0.0814
2850.00,0.0830
2849.00,0.0842
2848.00,0.0852
2847.00,0.0864
2846.00,0.0883
2845.00,0.0911
2844.00,0.0951
2843.00,0.1001
2842.00,0.1058
2841.00,0.1116
2840.00,0.1166
2839.00,0.1200
2838.00,0.1210
2837.00,0.1190
2836.00,0.1138
2835.00,0.1059
2834.00,0.0961
2833.00,0.0857
2832.00,0.0756
2831.00,0.0665
2830.00,0.0587
2829.00,0.0523
2828.00,0.0471
2827.00,0.0429
2826.00,0.0395
2825.00,0.0366
2824.00,0.0343
2823.00,0.0323
2822.00,0.0306
2821.00,0.0291
2820.00,0.0278
2819.00,0.0266
2818.00,0.0256
2817.00,0.0248
2816.00,0.0240
2815.00,0.0233
2814.00,0.0226
2813.00,0.0220
2812.00,0.0215
2811.00,0.0209
2810.00,0.0204
2809.00,0.0198
2808.00,0.0192
2807.00,0.0186
2806.00,0.0180
2805.00,0.0173
2804.00,0.0167
2803.00,0.0161
2802.00,0.0156
2801.00,0.0152
2800.00,0.0148
2799.00,0.0145
2798.00,0.0142
2797.00,0.0139
2796.00,0.0137
2795.00,0.0135
2794.00,0.0132
2793.00,0.0129
2792.00,0.0125
2791.00,0.0121
2790.00,0.0118
2789.00,0.0114
2788.00,0.0111
2787.00,0.0108
2786.00,0.0106
2785.00,0.0103
2784.00,0.0101
2783.00,0.0098
2782.00,0.0096
2781.00,0.0094
2780.00,0.0092
2779.00,0.0090
2778.00,0.0088
2777.00,0.0086
2776.00,0.0085
2775.00,0.0084
2774.00,0.0083
2773.00,0.0082
2772.00,0.0082
2771.00,0.0082
2770.00,0.0082
2769.00,0.0081
2768.00,0.0081
2767.00,0.0080
2766.00,0.0079
2765.00,0.0079
2764.00,0.0078
2763.00,0.0078
2762.00,0.0077
2761.00,0.0076
2760.00,0.0075
2759.00,0.0075
2758.00,0.0075
2757.00,0.0074
2756.00,0.0074
2755.00,0.0073
2754.00,0.0073
2753.00,0.0073
2752.00,0.0073
2751.00,0.0073
2750.00,0.0073
2749.00,0.0073
2748.00,0.0072
2747.00,0.0073
2746.00,0.0073
2745.00,0.0074
2744.00,0.0075
2743.00,0.0076
2742.00,0.0077
2741.00,0.0078
2740.00,0.0079
2739.00,0.0080
2738.00,0.0081
2737.00,0.0082
2736.00,0.0083
2735.00,0.0085
2734.00,0.0086
2733.00,0.0087
2732.00,0.0089
2731.00,0.0090
2730.00,0.0092
2729.00,0.0094
2728.00,0.0096
2727.00,0.0098
2726.00,0.0100
2725.00,0.0102
2724.00,0.0103
2723.00,0.0104
2722.00,0.0103
2721.00,0.0101
2720.00,0.0098
2719.00,0.0095
2718.00,0.0091
2717.00,0.0088
2716.00,0.0085
2715.00,0.0083
2714.00,0.0080
2713.00,0.0078
2712.00,0.0076
2711.00,0.0074
2710.00,0.0072
2709.00,0.0071
2708.00,0.0070
2707.00,0.0069
2706.00,0.0068
2705.00,0.0067
2704.00,0.0066
2703.00,0.0065
2702.00,0.0064
2701.00,0.0063
2700.00,0.0063
2699.00,0.0062
2698.00,0.0062
2697.00,0.0061
2696.00,0.0061
2695.00,0.0061
2694.00,0.0061
2693.00,0.0061
2692.00,0.0061
2691.00,0.0061
2690.00,0.0061
2689.00,0.0061
2688.00,0.0061
2687.00,0.0062
2686.00,0.0062
2685.00,0.0062
2684.00,0.0062
2683.00,0.0062
2682.00,0.0063
2681.00,0.0063
2680.00,0.0063
2679.00,0.0063
2678.00,0.0063
2677.00,0.0064
2676.00,0.0064
2675.00,0.0064
2674.00,0.0064
2673.00,0.0064
2672.00,0.0065
2671.00,0.0065
2670.00,0.0065
2669.00,0.0065
2668.00,0.0066
2667.00,0.0066
2666.00,0.0066
2665.00,0.0066
2664.00,0.0067
2663.00,0.0067
2662.00,0.0067
2661.00,0.0068
2660.00,0.0068
2659.00,0.0068
2658.00,0.0067
2657.00,0.0067
2656.00,0.0066
2655.00,0.0066
2654.00,0.0065
2653.00,0.0064
2652.00,0.0064
2651.00,0.0064
2650.00,0.0063
2649.00,0.0063
2648.00,0.0062
2647.00,0.0062
2646.00,0.0061
2645.00,0.0061
2644.00,0.0061
2643.00,0.0060
2642.00,0.0060
2641.00,0.0059
2640.00,0.0059
2639.00,0.0058
2638.00,0.0058
2637.00,0.0057
2636.00,0.0056
2635.00,0.0055
2634.00,0.0055
2633.00,0.0055
2632.00,0.0055
2631.00,0.0055
2630.00,0.0055
2629.00,0.0055
2628.00,0.0055
2627.00,0.0055
2626.00,0.0055
2625.00,0.0055
2624.00,0.0054
2623.00,0.0055
2622.00,0.0055
2621.00,0.0055
2620.00,0.0055
2619.00,0.0055
2618.00,0.0054
2617.00,0.0054
2616.00,0.0053
2615.00,0.0053
2614.00,0.0052
2613.00,0.0052
2612.00,0.0051
2611.00,0.0051
2610.00,0.0050
2609.00,0.0050
2608.00,0.0049
2607.00,0.0049
2606.00,0.0048
2605.00,0.0047
2604.00,0.0046
2603.00,0.0046
2602.00,0.0045
2601.00,0.0045
2600.00,0.0044
2599.00,0.0043
2598.00,0.0042
2597.00,0.0042
2596.00,0.0042
2595.00,0.0043
2594.00,0.0043
2593.00,0.0043
2592.00,0.0043
2591.00,0.0043
2590.00,0.0044
2589.00,0.0044
2588.00,0.0045
2587.00,0.0046
2586.00,0.0047
2585.00,0.0047
2584.00,0.0047
2583.00,0.0047
2582.00,0.0048
2581.00,0.0048
2580.00,0.0047
2579.00,0.0046
2578.00,0.0044
2577.00,0.0043
2576.00,0.0042
2575.00,0.0041
2574.00,0.0040
2573.00,0.0039
2572.00,0.0038
2571.00,0.0037
2570.00,0.0036
2569.00,0.0035
2568.00,0.0035
2567.00,0.0034
2566.00,0.0033
2565.00,0.0032
2564.00,0.0032
2563.00,0.0032
2562.00,0.0032
2561.00,0.0033
2560.00,0.0033
2559.00,0.0033
2558.00,0.0033
2557.00,0.0033
2556.00,0.0032
2555.00,0.0031
2554.00,0.0031
2553.00,0.0031
2552.00,0.0031
2551.00,0.0030
2550.00,0.0030
2549.00,0.0030
2548.00,0.0030
2547.00,0.0030
2546.00,0.0029
2545.00,0.0028
2544.00,0.0028
2543.00,0.0027
2542.00,0.0027
2541.00,0.0027
2540.00,0.0027
2539.00,0.0027
2538.00,0.0027
2537.00,0.0027
2536.00,0.0027
2535.00,0.0026
2534.00,0.0026
2533.00,0.0026
2532.00,0.0026
2531.00,0.0026
2530.00,0.0025
2529.00,0.0025
2528.00,0.0025
2527.00,0.0024
2526.00,0.0024
2525.00,0.0024
2524.00,0.0023
2523.00,0.0022
2522.00,0.0022
2521.00,0.0021
2520.00,0.0021
2519.00,0.0022
2518.00,0.0022
2517.00,0.0022
2516.00,0.0022
2515.00,0.0022
2514.00,0.0022
2513.00,0.0022
2512.00,0.0022
2511.00,0.0021
2510.00,0.0021
2509.00,0.0020
2508.00,0.0021
2507.00,0.0021
2506.00,0.0021
2505.00,0.0021
2504.00,0.0021
2503.00,0.0021
2502.00,0.0021
2501.00,0.0021
2500.00,0.0021
2499.00,0.0021
2498.00,0.0021
2497.00,0.0021
2496.00,0.0021
2495.00,0.0021
2494.00,0.0020
2493.00,0.0020
2492.00,0.0020
2491.00,0.0020
2490.00,0.0020
2489.00,0.0020
2488.00,0.0021
2487.00,0.0021
2486.00,0.0020
2485.00,0.0020
2484.00,0.0019
2483.00,0.0019
2482.00,0.0019
2481.00,0.0020
2480.00,0.0020
2479.00,0.0020
2478.00,0.0020
2477.00,0.0019
2476.00,0.0018
2475.00,0.0017
2474.00,0.0017
2473.00,0.0017
2472.00,0.0018
2471.00,0.0018
2470.00,0.0019
2469.00,0.0019
2468.00,0.0019
2467.00,0.0019
2466.00,0.0020
2465.00,0.0020
2464.00,0.0021
2463.00,0.0020
2462.00,0.0020
2461.00,0.0020
2460.00,0.0020
2459.00,0.0021
2458.00,0.0020
2457.00,0.0020
2456.00,0.0019
2455.00,0.0019
2454.00,0.0020
2453.00,0.0021
2452.00,0.0021
2451.00,0.0022
2450.00,0.0022
2449.00,0.0022
2448.00,0.0021
2447.00,0.0021
2446.00,0.0020
2445.00,0.0019
2444.00,0.0019
2443.00,0.0019
2442.00,0.0020
2441.00,0.0020
2440.00,0.0020
2439.00,0.0020
2438.00,0.0020
2437.00,0.0020
2436.00,0.0020
2435.00,0.0020
2434.00,0.0020
2433.00,0.0020
2432.00,0.0021
2431.00,0.0021
2430.00,0.0021
2429.00,0.0020
2428.00,0.0020
2427.00,0.0020
2426.00,0.0020
2425.00,0.0020
2424.00,0.0020
2423.00,0.0019
2422.00,0.0019
2421.00,0.0019
2420.00,0.0019
2419.00,0.0019
2418.00,0.0019
2417.00,0.0018
2416.00,0.0018
2415.00,0.0018
2414.00,0.0018
2413.00,0.0018
2412.00,0.0018
2411.00,0.0019
2410.00,0.0019
2409.00,0.0019
2408.00,0.0019
2407.00,0.0018
2406.00,0.0017
2405.00,0.0016
2404.00,0.0016
2403.00,0.0016
2402.00,0.0017
2401.00,0.0018
2400.00,0.0019
2399.00,0.0019
2398.00,0.0018
2397.00,0.0017
2396.00,0.0017
2395.00,0.0016
2394.00,0.0016
2393.00,0.0016
2392.00,0.0016
2391.00,0.0015
2390.00,0.0015
2389.00,0.0015
2388.00,0.0015
2387.00,0.0014
2386.00,0.0014
2385.00,0.0014
2384.00,0.0014
2383.00,0.0014
2382.00,0.0014
2381.00,0.0013
2380.00,0.0011
2379.00,0.0011
2378.00,0.0010
2377.00,0.0011
2376.00,0.0011
2375.00,0.0011
2374.00,0.0011
2373.00,0.0011
2372.00,0.0012
2371.00,0.0012
2370.00,0.0013
2369.00,0.0013
2368.00,0.0013
2367.00,0.0013
2366.00,0.0013
2365.00,0.0012
2364.00,0.0012
2363.00,0.0012
2362.00,0.0012
2361.00,0.0013
2360.00,0.0013
2359.00,0.0014
2358.00,0.0014
2357.00,0.0015
2356.00,0.0015
2355.00,0.0015
2354.00,0.0015
2353.00,0.0014
2352.00,0.0013
2351.00,0.0013
2350.00,0.0014
2349.00,0.0015
2348.00,0.0015
2347.00,0.0016
2346.00,0.0016
2345.00,0.0016
2344.00,0.0016
2343.00,0.0016
2342.00,0.0017
2341.00,0.0017
2340.00,0.0017
2339.00,0.0017
2338.00,0.0017
2337.00,0.0017
2336.00,0.0017
2335.00,0.0016
2334.00,0.0016
2333.00,0.0016
2332.00,0.0016
2331.00,0.0016
2330.00,0.0016
2329.00,0.0017
2328.00,0.0019
2327.00,0.0022
2326.00,0.0025
2325.00,0.0027
2324.00,0.0027
2323.00,0.0025
2322.00,0.0023
2321.00,0.0021
2320.00,0.0020
2319.00,0.0019
2318.00,0.0019
2317.00,0.0019
2316.00,0.0018
2315.00,0.0018
2314.00,0.0017
2313.00,0.0016
2312.00,0.0015
2311.00,0.0015
2310.00,0.0015
2309.00,0.0015
2308.00,0.0016
2307.00,0.0016
2306.00,0.0016
2305.00,0.0017
2304.00,0.0017
2303.00,0.0018
2302.00,0.0018
2301.00,0.0019
2300.00,0.0019
2299.00,0.0019
2298.00,0.0019
2297.00,0.0019
2296.00,0.0019
2295.00,0.0020
2294.00,0.0020
2293.00,0.0021
2292.00,0.0022
2291.00,0.0024
2290.00,0.0025
2289.00,0.0026
2288.00,0.0027
2287.00,0.0027
2286.00,0.0026
2285.00,0.0025
2284.00,0.0024
2283.00,0.0023
2282.00,0.0022
2281.00,0.0022
2280.00,0.0022
2279.00,0.0022
2278.00,0.0022
2277.00,0.0022
2276.00,0.0021
2275.00,0.0021
2274.00,0.0020
2273.00,0.0019
2272.00,0.0018
2271.00,0.0017
2270.00,0.0017
2269.00,0.0018
2268.00,0.0018
2267.00,0.0018
2266.00,0.0017
2265.00,0.0017
2264.00,0.0016
2263.00,0.0016
2262.00,0.0017
2261.00,0.0017
2260.00,0.0018
2259.00,0.0018
2258.00,0.0017
2257.00,0.0016
2256.00,0.0015
2255.00,0.0013
2254.00,0.0011
2253.00,0.0011
2252.00,0.0011
2251.00,0.0012
2250.00,0.0013
2249.00,0.0014
2248.00,0.0013
2247.00,0.0013
2246.00,0.0012
2245.00,0.0012
2244.00,0.0012
2243.00,0.0013
2242.00,0.0013
2241.00,0.0014
2240.00,0.0015
2239.00,0.0015
2238.00,0.0014
2237.00,0.0014
2236.00,0.0013
2235.00,0.0012
2234.00,0.0012
2233.00,0.0011
2232.00,0.0012
2231.00,0.0013
2230.00,0.0014
2229.00,0.0015
2228.00,0.0015
2227.00,0.0015
2226.00,0.0014
2225.00,0.0015
2224.00,0.0015
2223.00,0.0015
2222.00,0.0014
2221.00,0.0013
2220.00,0.0013
2219.00,0.0014
2218.00,0.0015
2217.00,0.0016
2216.00,0.0016
2215.00,0.0014
2214.00,0.0013
2213.00,0.0013
2212.00,0.0014
2211.00,0.0015
2210.00,0.0014
2209.00,0.0013
2208.00,0.0013
2207.00,0.0013
2206.00,0.0014
2205.00,0.0015
2204.00,0.0015
2203.00,0.0015
2202.00,0.0015
2201.00,0.0014
2200.00,0.0012
2199.00,0.0010
2198.00,0.0009
2197.00,0.0009
2196.00,0.0011
2195.00,0.0014
2194.00,0.0016
2193.00,0.0019
2192.00,0.0020
2191.00,0.0021
2190.00,0.0020
2189.00,0.0018
2188.00,0.0016
2187.00,0.0015
2186.00,0.0016
2185.00,0.0017
2184.00,0.0018
2183.00,0.0017
2182.00,0.0014
2181.00,0.0011
2180.00,0.0009
2179.00,0.0008
2178.00,0.0007
2177.00,0.0007
2176.00,0.0007
2175.00,0.0007
2174.00,0.0008
2173.00,0.0009
2172.00,0.0011
2171.00,0.0013
2170.00,0.0015
2169.00,0.0017
2168.00,0.0018
2167.00,0.0019
2166.00,0.0018
2165.00,0.0018
2164.00,0.0017
2163.00,0.0017
2162.00,0.0016
2161.00,0.0013
2160.00,0.0005
2159.00,-0.0007
2158.00,-0.0018
2157.00,-0.0024
2156.00,-0.0024
2155.00,-0.0021
2154.00,-0.0016
2153.00,-0.0011
2152.00,-0.0007
2151.00,-0.0006
2150.00,-0.0005
2149.00,-0.0005
2148.00,-0.0005
2147.00,-0.0006
2146.00,-0.0006
2145.00,-0.0006
2144.00,-0.0006
2143.00,-0.0007
2142.00,-0.0008
2141.00,-0.0009
2140.00,-0.0009
2139.00,-0.0008
2138.00,-0.0006
2137.00,-0.0004
2136.00,-0.0004
2135.00,-0.0005
2134.00,-0.0006
2133.00,-0.0007
2132.00,-0.0007
2131.00,-0.0006
2130.00,-0.0005
2129.00,-0.0004
2128.00,-0.0003
2127.00,-0.0002
2126.00,-0.0001
2125.00,0.0001
2124.00,0.0003
2123.00,0.0004
2122.00,0.0006
2121.00,0.0006
2120.00,0.0007
2119.00,0.0007
2118.00,0.0007
2117.00,0.0007
2116.00,0.0007
2115.00,0.0007
2114.00,0.0008
2113.00,0.0008
2112.00,0.0008
2111.00,0.0008
2110.00,0.0007
2109.00,0.0008
2108.00,0.0008
2107.00,0.0009
2106.00,0.0009
2105.00,0.0011
2104.00,0.0013
2103.00,0.0014
2102.00,0.0014
2101.00,0.0012
2100.00,0.0010
2099.00,0.0009
2098.00,0.0009
2097.00,0.0009
2096.00,0.0008
2095.00,0.0007
2094.00,0.0006
2093.00,0.0006
2092.00,0.0007
2091.00,0.0008
2090.00,0.0009
2089.00,0.0009
2088.00,0.0010
2087.00,0.0010
2086.00,0.0010
2085.00,0.0010
2084.00,0.0009
2083.00,0.0008
2082.00,0.0009
2081.00,0.0009
2080.00,0.0011
2079.00,0.0012
2078.00,0.0013
2077.00,0.0013
2076.00,0.0013
2075.00,0.0011
2074.00,0.0011
2073.00,0.0011
2072.00,0.0012
2071.00,0.0013
2070.00,0.0013
2069.00,0.0011
2068.00,0.0009
2067.00,0.0007
2066.00,0.0006
2065.00,0.0007
2064.00,0.0007
2063.00,0.0008
2062.00,0.0008
2061.00,0.0009
2060.00,0.0010
2059.00,0.0013
2058.00,0.0015
2057.00,0.0016
2056.00,0.0016
2055.00,0.0013
2054.00,0.0012
2053.00,0.0013
2052.00,0.0017
2051.00,0.0019
2050.00,0.0018
2049.00,0.0015
2048.00,0.0011
2047.00,0.0008
2046.00,0.0006
2045.00,0.0005
2044.00,0.0004
2043.00,0.0003
2042.00,0.0004
2041.00,0.0006
2040.00,0.0009
2039.00,0.0009
2038.00,0.0008
2037.00,0.0006
2036.00,0.0003
2035.00,0.0001
2034.00,-0.0001
2033.00,-0.0003
2032.00,-0.0004
2031.00,-0.0005
2030.00,-0.0005
2029.00,-0.0004
2028.00,-0.0002
2027.00,-0.0001
2026.00,-0.0000
2025.00,0.0001
2024.00,0.0002
2023.00,0.0002
2022.00,0.0001
2021.00,-0.0001
2020.00,-0.0003
2019.00,-0.0006
2018.00,-0.0008
2017.00,-0.0008
2016.00,-0.0007
2015.00,-0.0007
2014.00,-0.0009
2013.00,-0.0009
2012.00,-0.0008
2011.00,-0.0006
2010.00,-0.0006
2009.00,-0.0006
2008.00,-0.0008
2007.00,-0.0008
2006.00,-0.0008
2005.00,-0.0007
2004.00,-0.0004
2003.00,-0.0002
2002.00,-0.0000
2001.00,0.0001
2000.00,0.0002
1999.00,0.0002
1998.00,0.0001
1997.00,-0.0000
1996.00,-0.0003
1995.00,-0.0006
1994.00,-0.0008
1993.00,-0.0007
1992.00,-0.0005
1991.00,-0.0001
1990.00,0.0002
1989.00,0.0006
1988.00,0.0010
1987.00,0.0011
1986.00,0.0011
1985.00,0.0011
1984.00,0.0011
1983.00,0.0012
1982.00,0.0014
1981.00,0.0017
1980.00,0.0018
1979.00,0.0013
1978.00,0.0005
1977.00,-0.0003
1976.00,-0.0009
1975.00,-0.0012
1974.00,-0.0012
1973.00,-0.0009
1972.00,-0.0007
1971.00,-0.0007
1970.00,-0.0008
1969.00,-0.0010
1968.00,-0.0011
1967.00,-0.0010
1966.00,-0.0008
1965.00,-0.0006
1964.00,-0.0005
1963.00,-0.0005
1962.00,-0.0007
1961.00,-0.0007
1960.00,-0.0008
1959.00,-0.0010
1958.00,-0.0012
1957.00,-0.0013
1956.00,-0.0013
1955.00,-0.0013
1954.00,-0.0012
1953.00,-0.0010
1952.00,-0.0009
1951.00,-0.0008
1950.00,-0.0007
1949.00,-0.0006
1948.00,-0.0007
1947.00,-0.0008
1946.00,-0.0009
1945.00,-0.0010
1944.00,-0.0009
1943.00,-0.0008
1942.00,-0.0008
1941.00,-0.0007
1940.00,-0.0006
1939.00,-0.0006
1938.00,-0.0005
1937.00,-0.0005
1936.00,-0.0003
1935.00,-0.0002
1934.00,-0.0002
1933.00,-0.0002
1932.00,-0.0002
1931.00,-0.0002
1930.00,-0.0001
1929.00,0.0000
1928.00,0.0002
1927.00,0.0002
1926.00,0.0002
1925.00,0.0002
1924.00,0.0001
1923.00,0.0001
1922.00,0.0001
1921.00,0.0003
1920.00,0.0005
1919.00,0.0007
1918.00,0.0007
1917.00,0.0006
1916.00,0.0005
1915.00,0.0003
1914.00,0.0002
1913.00,0.0002
1912.00,0.0004
1911.00,0.0005
1910.00,0.0005
1909.00,0.0006
1908.00,0.0006
1907.00,0.0007
1906.00,0.0007
1905.00,0.0008
1904.00,0.0009
1903.00,0.0009
1902.00,0.0008
1901.00,0.0008
1900.00,0.0008
1899.00,0.0008
1898.00,0.0008
1897.00,0.0008
1896.00,0.0009
1895.00,0.0010
1894.00,0.0010
1893.00,0.0009
1892.00,0.0008
1891.00,0.0007
1890.00,0.0007
1889.00,0.0007
1888.00,0.0007
1887.00,0.0006
1886.00,0.0006
1885.00,0.0005
1884.00,0.0006
1883.00,0.0006
1882.00,0.0007
1881.00,0.0007
1880.00,0.0007
1879.00,0.0007
1878.00,0.0006
1877.00,0.0006
1876.00,0.0006
1875.00,0.0005
1874.00,0.0004
1873.00,0.0005
1872.00,0.0005
1871.00,0.0007
1870.00,0.0007
1869.00,0.0008
1868.00,0.0008
1867.00,0.0008
1866.00,0.0008
1865.00,0.0008
1864.00,0.0008
1863.00,0.0009
1862.00,0.0009
1861.00,0.0009
1860.00,0.0009
1859.00,0.0008
1858.00,0.0008
1857.00,0.0009
1856.00,0.0009
1855.00,0.0009
1854.00,0.0008
1853.00,0.0008
1852.00,0.0008
1851.00,0.0008
1850.00,0.0008
1849.00,0.0008
1848.00,0.0008
1847.00,0.0009
1846.00,0.0009
1845.00,0.0010
1844.00,0.0011
1843.00,0.0011
1842.00,0.0011
1841.00,0.0011
1840.00,0.0012
1839.00,0.0012
1838.00,0.0012
1837.00,0.0012
1836.00,0.0012
1835.00,0.0012
1834.00,0.0011
1833.00,0.0011
1832.00,0.0011
1831.00,0.0011
1830.00,0.0010
1829.00,0.0011
1828.00,0.0011
1827.00,0.0012
1826.00,0.0011
1825.00,0.0011
1824.00,0.0011
1823.00,0.0011
1822.00,0.0011
1821.00,0.0011
1820.00,0.0010
1819.00,0.0010
1818.00,0.0009
1817.00,0.0009
1816.00,0.0009
1815.00,0.0010
1814.00,0.0011
1813.00,0.0011
1812.00,0.0011
1811.00,0.0011
1810.00,0.0010
1809.00,0.0011
1808.00,0.0011
1807.00,0.0012
1806.00,0.0012
1805.00,0.0013
1804.00,0.0013
1803.00,0.0013
1802.00,0.0013
1801.00,0.0013
1800.00,0.0014
1799.00,0.0014
1798.00,0.0014
1797.00,0.0014
1796.00,0.0015
1795.00,0.0016
1794.00,0.0016
1793.00,0.0016
1792.00,0.0017
1791.00,0.0017
1790.00,0.0017
1789.00,0.0017
1788.00,0.0018
1787.00,0.0018
1786.00,0.0019
1785.00,0.0020
1784.00,0.0020
1783.00,0.0021
1782.00,0.0021
1781.00,0.0021
1780.00,0.0021
1779.00,0.0021
1778.00,0.0021
1777.00,0.0021
1776.00,0.0022
1775.00,0.0022
1774.00,0.0022
1773.00,0.0022
1772.00,0.0023
1771.00,0.0024
1770.00,0.0025
1769.00,0.0025
1768.00,0.0025
1767.00,0.0025
1766.00,0.0024
1765.00,0.0025
1764.00,0.0025
1763.00,0.0025
1762.00,0.0025
1761.00,0.0026
1760.00,0.0026
1759.00,0.0027
1758.00,0.0027
1757.00,0.0028
1756.00,0.0029
1755.00,0.0030
1754.00,0.0031
1753.00,0.0032
1752.00,0.0033
1751.00,0.0033
1750.00,0.0033
1749.00,0.0033
1748.00,0.0033
1747.00,0.0034
1746.00,0.0035
1745.00,0.0036
1744.00,0.0037
1743.00,0.0038
1742.00,0.0038
1741.00,0.0038
1740.00,0.0038
1739.00,0.0039
1738.00,0.0039
1737.00,0.0040
1736.00,0.0040
1735.00,0.0040
1734.00,0.0041
1733.00,0.0041
1732.00,0.0042
1731.00,0.0042
1730.00,0.0042
1729.00,0.0041
1728.00,0.0041
1727.00,0.0040
1726.00,0.0040
1725.00,0.0039
1724.00,0.0039
1723.00,0.0039
1722.00,0.0040
1721.00,0.0040
1720.00,0.0040
1719.00,0.0039
1718.00,0.0038
1717.00,0.0037
1716.00,0.0038
1715.00,0.0039
1714.00,0.0040
1713.00,0.0040
1712.00,0.0041
1711.00,0.0042
1710.00,0.0042
1709.00,0.0042
1708.00,0.0043
1707.00,0.0044
1706.00,0.0044
1705.00,0.0045
1704.00,0.0046
1703.00,0.0048
1702.00,0.0049
1701.00,0.0049
1700.00,0.0050
1699.00,0.0051
1698.00,0.0051
1697.00,0.0053
1696.00,0.0055
1695.00,0.0057
1694.00,0.0058
1693.00,0.0059
1692.00,0.0060
1691.00,0.0061
1690.00,0.0063
1689.00,0.0065
1688.00,0.0066
1687.00,0.0068
1686.00,0.0069
1685.00,0.0071
1684.00,0.0074
1683.00,0.0077
1682.00,0.0079
1681.00,0.0080
1680.00,0.0082
1679.00,0.0083
1678.00,0.0084
1677.00,0.0085
1676.00,0.0087
1675.00,0.0089
1674.00,0.0091
1673.00,0.0093
1672.00,0.0095
1671.00,0.0096
1670.00,0.0098
1669.00,0.0100
1668.00,0.0102
1667.00,0.0104
1666.00,0.0105
1665.00,0.0106
1664.00,0.0107
1663.00,0.0108
1662.00,0.0110
1661.00,0.0113
1660.00,0.0115
1659.00,0.0117
1658.00,0.0119
1657.00,0.0121
1656.00,0.0124
1655.00,0.0126
1654.00,0.0127
1653.00,0.0128
1652.00,0.0130
1651.00,0.0130
1650.00,0.0131
1649.00,0.0132
1648.00,0.0134
1647.00,0.0136
1646.00,0.0137
1645.00,0.0138
1644.00,0.0138
1643.00,0.0139
1642.00,0.0140
1641.00,0.0141
1640.00,0.0141
1639.00,0.0142
1638.00,0.0142
1637.00,0.0142
1636.00,0.0142
1635.00,0.0143
1634.00,0.0143
1633.00,0.0143
1632.00,0.0143
1631.00,0.0143
1630.00,0.0143
1629.00,0.0143
1628.00,0.0142
1627.00,0.0141
1626.00,0.0140
1625.00,0.0138
1624.00,0.0137
1623.00,0.0136
1622.00,0.0136
1621.00,0.0136
1620.00,0.0136
1619.00,0.0135
1618.00,0.0134
1617.00,0.0133
1616.00,0.0132
1615.00,0.0132
1614.00,0.0132
1613.00,0.0132
1612.00,0.0132
1611.00,0.0131
1610.00,0.0130
1609.00,0.0130
1608.00,0.0130
1607.00,0.0130
1606.00,0.0130
1605.00,0.0130
1604.00,0.0131
1603.00,0.0131
1602.00,0.0131
1601.00,0.0131
1600.00,0.0132
1599.00,0.0132
1598.00,0.0133
1597.00,0.0134
1596.00,0.0134
1595.00,0.0135
1594.00,0.0136
1593.00,0.0137
1592.00,0.0139
1591.00,0.0142
1590.00,0.0145
1589.00,0.0149
1588.00,0.0154
1587.00,0.0160
1586.00,0.0166
1585.00,0.0175
1584.00,0.0184
1583.00,0.0195
1582.00,0.0206
1581.00,0.0217
1580.00,0.0226
1579.00,0.0234
1578.00,0.0238
1577.00,0.0239
1576.00,0.0235
1575.00,0.0229
1574.00,0.0222
1573.00,0.0216
1572.00,0.0209
1571.00,0.0200
1570.00,0.0189
1569.00,0.0179
1568.00,0.0172
1567.00,0.0167
1566.00,0.0164
1565.00,0.0161
1564.00,0.0158
1563.00,0.0157
1562.00,0.0158
1561.00,0.0159
1560.00,0.0159
1559.00,0.0160
1558.00,0.0161
1557.00,0.0162
1556.00,0.0164
1555.00,0.0166
1554.00,0.0170
1553.00,0.0174
1552.00,0.0179
1551.00,0.0185
1550.00,0.0193
1549.00,0.0203
1548.00,0.0212
1547.00,0.0221
1546.00,0.0232
1545.00,0.0245
1544.00,0.0258
1543.00,0.0270
1542.00,0.0277
1541.00,0.0280
1540.00,0.0273
1539.00,0.0261
1538.00,0.0248
1537.00,0.0238
1536.00,0.0228
1535.00,0.0215
1534.00,0.0200
1533.00,0.0185
1532.00,0.0175
1531.00,0.0167
1530.00,0.0161
1529.00,0.0156
1528.00,0.0151
1527.00,0.0147
1526.00,0.0143
1525.00,0.0140
1524.00,0.0138
1523.00,0.0136
1522.00,0.0133
1521.00,0.0132
1520.00,0.0132
1519.00,0.0131
1518.00,0.0130
1517.00,0.0130
1516.00,0.0130
1515.00,0.0129
1514.00,0.0128
1513.00,0.0128
1512.00,0.0128
1511.00,0.0129
1510.00,0.0129
1509.00,0.0131
1508.00,0.0133
1507.00,0.0134
1506.00,0.0134
1505.00,0.0135
1504.00,0.0137
1503.00,0.0139
1502.00,0.0142
1501.00,0.0146
1500.00,0.0151
1499.00,0.0157
1498.00,0.0163
1497.00,0.0172
1496.00,0.0181
1495.00,0.0189
1494.00,0.0195
1493.00,0.0201
1492.00,0.0207
1491.00,0.0213
1490.00,0.0220
1489.00,0.0229
1488.00,0.0238
1487.00,0.0246
1486.00,0.0254
1485.00,0.0264
1484.00,0.0275
1483.00,0.0287
1482.00,0.0303
1481.00,0.0321
1480.00,0.0341
1479.00,0.0359
1478.00,0.0381
1477.00,0.0408
1476.00,0.0441
1475.00,0.0476
1474.00,0.0518
1473.00,0.0569
1472.00,0.0624
1471.00,0.0673
1470.00,0.0721
1469.00,0.0775
1468.00,0.0836
1467.00,0.0907
1466.00,0.0994
1465.00,0.1091
1464.00,0.1176
1463.00,0.1235
1462.00,0.1270
1461.00,0.1293
1460.00,0.1308
1459.00,0.1318
1458.00,0.1328
1457.00,0.1337
1456.00,0.1340
1455.00,0.1335
1454.00,0.1326
1453.00,0.1311
1452.00,0.1287
1451.00,0.1249
1450.00,0.1197
1449.00,0.1123
1448.00,0.1029
1447.00,0.0929
1446.00,0.0840
1445.00,0.0764
1444.00,0.0700
1443.00,0.0648
1442.00,0.0610
1441.00,0.0584
1440.00,0.0569
1439.00,0.0563
1438.00,0.0563
1437.00,0.0563
1436.00,0.0552
1435.00,0.0525
1434.00,0.0488
1433.00,0.0443
1432.00,0.0396
1431.00,0.0354
1430.00,0.0323
1429.00,0.0300
1428.00,0.0286
1427.00,0.0278
1426.00,0.0275
1425.00,0.0272
1424.00,0.0269
1423.00,0.0269
1422.00,0.0270
1421.00,0.0270
1420.00,0.0269
1419.00,0.0268
1418.00,0.0268
1417.00,0.0266
1416.00,0.0264
1415.00,0.0264
1414.00,0.0265
1413.00,0.0266
1412.00,0.0267
1411.00,0.0270
1410.00,0.0275
1409.00,0.0279
1408.00,0.0282
1407.00,0.0288
1406.00,0.0295
1405.00,0.0303
1404.00,0.0311
1403.00,0.0321
1402.00,0.0332
1401.00,0.0344
1400.00,0.0356
1399.00,0.0370
1398.00,0.0384
1397.00,0.0396
1396.00,0.0408
1395.00,0.0421
1394.00,0.0433
1393.00,0.0441
1392.00,0.0448
1391.00,0.0456
1390.00,0.0468
1389.00,0.0486
1388.00,0.0514
1387.00,0.0554
1386.00,0.0606
1385.00,0.0670
1384.00,0.0754
1383.00,0.0866
1382.00,0.1009
1381.00,0.1188
1380.00,0.1405
1379.00,0.1648
1378.00,0.1878
1377.00,0.2044
1376.00,0.2095
1375.00,0.2001
1374.00,0.1783
1373.00,0.1517
1372.00,0.1269
1371.00,0.1060
1370.00,0.0890
1369.00,0.0757
1368.00,0.0663
1367.00,0.0602
1366.00,0.0567
1365.00,0.0550
1364.00,0.0547
1363.00,0.0555
1362.00,0.0571
1361.00,0.0588
1360.00,0.0600
1359.00,0.0602
1358.00,0.0588
1357.00,0.0560
1356.00,0.0521
1355.00,0.0476
1354.00,0.0434
1353.00,0.0397
1352.00,0.0367
1351.00,0.0342
1350.00,0.0322
1349.00,0.0306
1348.00,0.0292
1347.00,0.0281
1346.00,0.0272
1345.00,0.0264
1344.00,0.0258
1343.00,0.0252
1342.00,0.0247
1341.00,0.0243
1340.00,0.0239
1339.00,0.0235
1338.00,0.0231
1337.00,0.0229
1336.00,0.0228
1335.00,0.0227
1334.00,0.0228
1333.00,0.0230
1332.00,0.0231
1331.00,0.0232
1330.00,0.0231
1329.00,0.0227
1328.00,0.0222
1327.00,0.0215
1326.00,0.0207
1325.00,0.0200
1324.00,0.0192
1323.00,0.0186
1322.00,0.0181
1321.00,0.0176
1320.00,0.0173
1319.00,0.0169
1318.00,0.0166
1317.00,0.0162
1316.00,0.0159
1315.00,0.0156
1314.00,0.0154
1313.00,0.0153
1312.00,0.0154
1311.00,0.0156
1310.00,0.0160
1309.00,0.0167
1308.00,0.0176
1307.00,0.0188
1306.00,0.0200
1305.00,0.0209
1304.00,0.0212
1303.00,0.0209
1302.00,0.0204
1301.00,0.0198
1300.00,0.0195
1299.00,0.0193
1298.00,0.0193
1297.00,0.0192
1296.00,0.0191
1295.00,0.0188
1294.00,0.0184
1293.00,0.0180
1292.00,0.0175
1291.00,0.0171
1290.00,0.0168
1289.00,0.0165
1288.00,0.0162
1287.00,0.0160
1286.00,0.0159
1285.00,0.0158
1284.00,0.0158
1283.00,0.0158
1282.00,0.0159
1281.00,0.0161
1280.00,0.0164
1279.00,0.0167
1278.00,0.0171
1277.00,0.0175
1276.00,0.0179
1275.00,0.0183
1274.00,0.0188
1273.00,0.0194
1272.00,0.0201
1271.00,0.0209
1270.00,0.0216
1269.00,0.0225
1268.00,0.0233
1267.00,0.0241
1266.00,0.0250
1265.00,0.0259
1264.00,0.0268
1263.00,0.0275
1262.00,0.0281
1261.00,0.0287
1260.00,0.0295
1259.00,0.0304
1258.00,0.0314
1257.00,0.0323
1256.00,0.0330
1255.00,0.0333
1254.00,0.0331
1253.00,0.0326
1252.00,0.0318
1251.00,0.0310
1250.00,0.0302
1249.00,0.0294
1248.00,0.0286
1247.00,0.0279
1246.00,0.0274
1245.00,0.0270
1244.00,0.0268
1243.00,0.0267
1242.00,0.0266
1241.00,0.0265
1240.00,0.0263
1239.00,0.0261
1238.00,0.0258
1237.00,0.0255
1236.00,0.0251
1235.00,0.0247
1234.00,0.0242
1233.00,0.0237
1232.00,0.0232
1231.00,0.0228
1230.00,0.0224
1229.00,0.0221
1228.00,0.0217
1227.00,0.0214
1226.00,0.0212
1225.00,0.0210
1224.00,0.0209
1223.00,0.0209
1222.00,0.0210
1221.00,0.0210
1220.00,0.0210
1219.00,0.0208
1218.00,0.0205
1217.00,0.0201
1216.00,0.0197
1215.00,0.0192
1214.00,0.0187
1213.00,0.0182
1212.00,0.0178
1211.00,0.0173
1210.00,0.0170
1209.00,0.0167
1208.00,0.0165
1207.00,0.0164
1206.00,0.0163
1205.00,0.0163
1204.00,0.0163
1203.00,0.0163
1202.00,0.0164
1201.00,0.0164
1200.00,0.0165
1199.00,0.0166
1198.00,0.0168
1197.00,0.0171
1196.00,0.0173
1195.00,0.0176
1194.00,0.0179
1193.00,0.0182
1192.00,0.0186
1191.00,0.0191
1190.00,0.0196
1189.00,0.0201
1188.00,0.0205
1187.00,0.0210
1186.00,0.0216
1185.00,0.0223
1184.00,0.0230
1183.00,0.0237
1182.00,0.0245
1181.00,0.0253
1180.00,0.0262
1179.00,0.0273
1178.00,0.0285
1177.00,0.0299
1176.00,0.0317
1175.00,0.0338
1174.00,0.0365
1173.00,0.0398
1172.00,0.0436
1171.00,0.0477
1170.00,0.0517
1169.00,0.0550
1168.00,0.0573
1167.00,0.0583
1166.00,0.0582
1165.00,0.0572
1164.00,0.0558
1163.00,0.0542
1162.00,0.0527
1161.00,0.0515
1160.00,0.0507
1159.00,0.0502
1158.00,0.0499
1157.00,0.0497
1156.00,0.0496
1155.00,0.0495
1154.00,0.0494
1153.00,0.0492
1152.00,0.0488
1151.00,0.0481
1150.00,0.0472
1149.00,0.0460
1148.00,0.0448
1147.00,0.0435
1146.00,0.0422
1145.00,0.0409
1144.00,0.0398
1143.00,0.0387
1142.00,0.0377
1141.00,0.0369
1140.00,0.0362
1139.00,0.0356
1138.00,0.0350
1137.00,0.0343
1136.00,0.0336
1135.00,0.0330
1134.00,0.0324
1133.00,0.0319
1132.00,0.0317
1131.00,0.0316
1130.00,0.0316
1129.00,0.0315
1128.00,0.0313
1127.00,0.0311
1126.00,0.0309
1125.00,0.0307
1124.00,0.0304
1123.00,0.0300
1122.00,0.0296
1121.00,0.0293
1120.00,0.0290
1119.00,0.0287
1118.00,0.0285
1117.00,0.0283
1116.00,0.0281
1115.00,0.0279
1114.00,0.0278
1113.00,0.0277
1112.00,0.0276
1111.00,0.0276
1110.00,0.0277
1109.00,0.0278
1108.00,0.0281
1107.00,0.0286
1106.00,0.0292
1105.00,0.0298
1104.00,0.0304
1103.00,0.0310
1102.00,0.0312
1101.00,0.0313
1100.00,0.0311
1099.00,0.0309
1098.00,0.0307
1097.00,0.0306
1096.00,0.0306
1095.00,0.0307
1094.00,0.0309
1093.00,0.0311
1092.00,0.0313
1091.00,0.0316
1090.00,0.0317
1089.00,0.0318
1088.00,0.0318
1087.00,0.0318
1086.00,0.0318
1085.00,0.0318
1084.00,0.0318
1083.00,0.0319
1082.00,0.0319
1081.00,0.0319
1080.00,0.0319
1079.00,0.0317
1078.00,0.0315
1077.00,0.0314
1076.00,0.0314
1075.00,0.0315
1074.00,0.0317
1073.00,0.0319
1072.00,0.0318
1071.00,0.0314
1070.00,0.0309
1069.00,0.0302
1068.00,0.0295
1067.00,0.0287
1066.00,0.0281
1065.00,0.0276
1064.00,0.0272
1063.00,0.0268
1062.00,0.0264
1061.00,0.0261
1060.00,0.0256
1059.00,0.0251
1058.00,0.0246
1057.00,0.0240
1056.00,0.0235
1055.00,0.0230
1054.00,0.0225
1053.00,0.0220
1052.00,0.0216
1051.00,0.0212
1050.00,0.0209
1049.00,0.0207
1048.00,0.0206
1047.00,0.0206
1046.00,0.0206
1045.00,0.0204
1044.00,0.0201
1043.00,0.0197
1042.00,0.0192
1041.00,0.0188
1040.00,0.0185
1039.00,0.0184
1038.00,0.0184
1037.00,0.0185
1036.00,0.0185
1035.00,0.0184
1034.00,0.0180
1033.00,0.0176
1032.00,0.0171
1031.00,0.0166
1030.00,0.0162
1029.00,0.0157
1028.00,0.0154
1027.00,0.0151
1026.00,0.0150
1025.00,0.0150
1024.00,0.0151
1023.00,0.0150
1022.00,0.0150
1021.00,0.0149
1020.00,0.0150
1019.00,0.0151
1018.00,0.0153
1017.00,0.0156
1016.00,0.0160
1015.00,0.0166
1014.00,0.0173
1013.00,0.0180
1012.00,0.0186
1011.00,0.0190
1010.00,0.0190
1009.00,0.0190
1008.00,0.0191
1007.00,0.0194
1006.00,0.0200
1005.00,0.0210
1004.00,0.0225
1003.00,0.0247
1002.00,0.0277
1001.00,0.0313
1000.00,0.0352
999.00,0.0385
998.00,0.0403
997.00,0.0398
996.00,0.0371
995.00,0.0331
994.00,0.0288
993.00,0.0249
992.00,0.0219
991.00,0.0196
990.00,0.0180
989.00,0.0170
988.00,0.0163
987.00,0.0160
986.00,0.0160
985.00,0.0165
984.00,0.0173
983.00,0.0185
982.00,0.0202
981.00,0.0224
980.00,0.0253
979.00,0.0290
978.00,0.0336
977.00,0.0391
976.00,0.0452
975.00,0.0513
974.00,0.0564
973.00,0.0595
972.00,0.0599
971.00,0.0576
970.00,0.0536
969.00,0.0491
968.00,0.0449
967.00,0.0415
966.00,0.0389
965.00,0.0370
964.00,0.0354
963.00,0.0341
962.00,0.0331
961.00,0.0327
960.00,0.0328
959.00,0.0333
958.00,0.0338
957.00,0.0341
956.00,0.0341
955.00,0.0339
954.00,0.0337
953.00,0.0334
952.00,0.0330
951.00,0.0324
950.00,0.0317
949.00,0.0310
948.00,0.0305
947.00,0.0302
946.00,0.0301
945.00,0.0301
944.00,0.0302
943.00,0.0302
942.00,0.0302
941.00,0.0299
940.00,0.0293
939.00,0.0283
938.00,0.0270
937.00,0.0256
936.00,0.0241
935.00,0.0227
934.00,0.0213
933.00,0.0200
932.00,0.0188
931.00,0.0177
930.00,0.0167
929.00,0.0158
928.00,0.0149
927.00,0.0142
926.00,0.0136
925.00,0.0131
924.00,0.0126
923.00,0.0122
922.00,0.0119
921.00,0.0118
920.00,0.0117
919.00,0.0116
918.00,0.0114
917.00,0.0112
916.00,0.0110
915.00,0.0108
914.00,0.0108
913.00,0.0108
912.00,0.0108
911.00,0.0108
910.00,0.0108
909.00,0.0109
908.00,0.0110
907.00,0.0114
906.00,0.0120
905.00,0.0129
904.00,0.0142
903.00,0.0160
902.00,0.0179
901.00,0.0197
900.00,0.0209
899.00,0.0213
898.00,0.0206
897.00,0.0192
896.00,0.0173
895.00,0.0154
894.00,0.0138
893.00,0.0126
892.00,0.0118
891.00,0.0111
890.00,0.0107
889.00,0.0103
888.00,0.0100
887.00,0.0099
886.00,0.0100
885.00,0.0101
884.00,0.0103
883.00,0.0105
882.00,0.0107
881.00,0.0108
880.00,0.0109
879.00,0.0109
878.00,0.0109
877.00,0.0108
876.00,0.0108
875.00,0.0106
874.00,0.0105
873.00,0.0104
872.00,0.0103
871.00,0.0103
870.00,0.0103
869.00,0.0103
868.00,0.0103
867.00,0.0103
866.00,0.0102
865.00,0.0101
864.00,0.0102
863.00,0.0103
862.00,0.0104
861.00,0.0106
860.00,0.0108
859.00,0.0110
858.00,0.0113
857.00,0.0115
856.00,0.0117
855.00,0.0119
854.00,0.0120
853.00,0.0122
852.00,0.0125
851.00,0.0131
850.00,0.0138
849.00,0.0146
848.00,0.0157
847.00,0.0174
846.00,0.0200
845.00,0.0237
844.00,0.0287
843.00,0.0341
842.00,0.0384
841.00,0.0398
840.00,0.0377
839.00,0.0332
838.00,0.0283
837.00,0.0245
836.00,0.0220
835.00,0.0205
834.00,0.0197
833.00,0.0192
832.00,0.0188
831.00,0.0185
830.00,0.0183
829.00,0.0181
828.00,0.0181
827.00,0.0180
826.00,0.0179
825.00,0.0179
824.00,0.0179
823.00,0.0179
822.00,0.0178
821.00,0.0178
820.00,0.0178
819.00,0.0180
818.00,0.0185
817.00,0.0192
816.00,0.0201
815.00,0.0211
814.00,0.0222
813.00,0.0236
812.00,0.0251
811.00,0.0266
810.00,0.0278
809.00,0.0284
808.00,0.0282
807.00,0.0274
806.00,0.0259
805.00,0.0242
804.00,0.0225
803.00,0.0210
802.00,0.0199
801.00,0.0190
800.00,0.0182
799.00,0.0174
798.00,0.0166
797.00,0.0159
796.00,0.0153
795.00,0.0148
794.00,0.0143
793.00,0.0138
792.00,0.0133
791.00,0.0129
790.00,0.0125
789.00,0.0122
788.00,0.0118
787.00,0.0115
786.00,0.0114
785.00,0.0113
784.00,0.0112
783.00,0.0109
782.00,0.0107
781.00,0.0105
780.00,0.0103
779.00,0.0101
778.00,0.0101
777.00,0.0101
776.00,0.0102
775.00,0.0104
774.00,0.0107
773.00,0.0110
772.00,0.0113
771.00,0.0115
770.00,0.0118
769.00,0.0120
768.00,0.0121
767.00,0.0120
766.00,0.0118
765.00,0.0116
764.00,0.0113
763.00,0.0111
762.00,0.0109
761.00,0.0107
760.00,0.0106
759.00,0.0105
758.00,0.0104
757.00,0.0101
756.00,0.0098
755.00,0.0096
754.00,0.0095
753.00,0.0095
752.00,0.0094
751.00,0.0094
750.00,0.0095
749.00,0.0095
748.00,0.0097
747.00,0.0098
746.00,0.0100
745.00,0.0103
744.00,0.0105
743.00,0.0107
742.00,0.0109
741.00,0.0110
740.00,0.0110
739.00,0.0111
738.00,0.0111
737.00,0.0114
736.00,0.0117
735.00,0.0122
734.00,0.0126
733.00,0.0129
732.00,0.0132
731.00,0.0134
730.00,0.0136
729.00,0.0137
728.00,0.0137
727.00,0.0137
726.00,0.0137
725.00,0.0136
724.00,0.0136
723.00,0.0135
722.00,0.0135
721.00,0.0135
720.00,0.0134
719.00,0.0132
718.00,0.0127
717.00,0.0122
716.00,0.0118
715.00,0.0115
714.00,0.0112
713.00,0.0111
712.00,0.0110
711.00,0.0110
710.00,0.0111
709.00,0.0113
708.00,0.0115
707.00,0.0118
706.00,0.0121
705.00,0.0122
704.00,0.0122
703.00,0.0119
702.00,0.0116
701.00,0.0113
700.00,0.0112
699.00,0.0111
698.00,0.0110
697.00,0.0109
696.00,0.0108
695.00,0.0107
694.00,0.0107
693.00,0.0109
692.00,0.0110
691.00,0.0112
690.00,0.0113
689.00,0.0113
688.00,0.0113
687.00,0.0114
686.00,0.0115
685.00,0.0116
684.00,0.0117
683.00,0.0118
682.00,0.0119
681.00,0.0120
680.00,0.0121
679.00,0.0120
678.00,0.0120
677.00,0.0119
676.00,0.0118
675.00,0.0118
674.00,0.0119
673.00,0.0121
672.00,0.0124
671.00,0.0126
670.00,0.0127
669.00,0.0124
668.00,0.0120
667.00,0.0118
666.00,0.0119
665.00,0.0120
664.00,0.0120
663.00,0.0121
662.00,0.0121
661.00,0.0120
660.00,0.0119
659.00,0.0117
658.00,0.0115
657.00,0.0114
656.00,0.0113
655.00,0.0110
654.00,0.0108
653.00,0.0107
652.00,0.0108
651.00,0.0110
650.00,0.0113
649.00,0.0115
648.00,0.0117
647.00,0.0117
646.00,0.0116
645.00,0.0116
644.00,0.0115
643.00,0.0113
642.00,0.0111
641.00,0.0108
640.00,0.0107
639.00,0.0107
638.00,0.0109
637.00,0.0110
636.00,0.0110
635.00,0.0111
634.00,0.0113
633.00,0.0116
632.00,0.0118
631.00,0.0118
630.00,0.0116
629.00,0.0114
628.00,0.0114
627.00,0.0114
626.00,0.0116
625.00,0.0118
624.00,0.0120
623.00,0.0121
622.00,0.0122
621.00,0.0122
620.00,0.0123
619.00,0.0124
618.00,0.0126
617.00,0.0127
616.00,0.0127
615.00,0.0127
614.00,0.0125
613.00,0.0123
612.00,0.0122
611.00,0.0121
610.00,0.0121
609.00,0.0122
608.00,0.0121
607.00,0.0120
606.00,0.0119
605.00,0.0118
604.00,0.0117
603.00,0.0115
602.00,0.0113
601.00,0.0112
600.00,0.0112
599.00,0.0113
598.00,0.0116
597.00,0.0119
596.00,0.0120
595.00,0.0120
594.00,0.0118
593.00,0.0116
592.00,0.0113
591.00,0.0112
590.00,0.0113
589.00,0.0115
588.00,0.0116
587.00,0.0117
586.00,0.0119
585.00,0.0122
584.00,0.0126
583.00,0.0129
582.00,0.0129
581.00,0.0128
580.00,0.0125
579.00,0.0122
578.00,0.0120
577.00,0.0118
576.00,0.0117
575.00,0.0115
574.00,0.0113
573.00,0.0111
572.00,0.0110
571.00,0.0111
570.00,0.0114
569.00,0.0117
568.00,0.0117
567.00,0.0114
566.00,0.0111
565.00,0.0110
564.00,0.0112
563.00,0.0115
562.00,0.0117
561.00,0.0120
560.00,0.0121
559.00,0.0122
558.00,0.0123
557.00,0.0125
556.00,0.0125
555.00,0.0123
554.00,0.0119
553.00,0.0115
552.00,0.0113
551.00,0.0112
550.00,0.0111
549.00,0.0112
548.00,0.0113
547.00,0.0113
546.00,0.0112
545.00,0.0111
544.00,0.0112
543.00,0.0115
542.00,0.0120
541.00,0.0124
540.00,0.0126
539.00,0.0126
538.00,0.0127
537.00,0.0128
536.00,0.0130
535.00,0.0131
534.00,0.0132
533.00,0.0132
532.00,0.0134
531.00,0.0138
530.00,0.0142
529.00,0.0143
528.00,0.0140
527.00,0.0137
526.00,0.0135
525.00,0.0135
524.00,0.0136
523.00,0.0137
522.00,0.0136
521.00,0.0134
520.00,0.0130
519.00,0.0126
518.00,0.0124
517.00,0.0123
516.00,0.0123
515.00,0.0124
514.00,0.0125
513.00,0.0126
512.00,0.0126
511.00,0.0125
510.00,0.0124
509.00,0.0120
508.00,0.0116
507.00,0.0114
506.00,0.0116
505.00,0.0122
504.00,0.0127
503.00,0.0132
502.00,0.0135
501.00,0.0139
500.00,0.0143
499.00,0.0146
498.00,0.0146
497.00,0.0143
496.00,0.0137
495.00,0.0131
494.00,0.0126
493.00,0.0126
492.00,0.0129
491.00,0.0135
490.00,0.0141
489.00,0.0145
488.00,0.0145
487.00,0.0143
486.00,0.0141
485.00,0.0142
484.00,0.0144
483.00,0.0142
482.00,0.0139
481.00,0.0141
480.00,0.0149
479.00,0.0156
478.00,0.0156
477.00,0.0145
476.00,0.0131
475.00,0.0123
474.00,0.0127
473.00,0.0138
472.00,0.0149
471.00,0.0153
470.00,0.0154
469.00,0.0152
468.00,0.0150
467.00,0.0146
466.00,0.0146
465.00,0.0153
464.00,0.0167
463.00,0.0182
462.00,0.0192
461.00,0.0199
460.00,0.0203
459.00,0.0207
458.00,0.0206
457.00,0.0204
456.00,0.0205
455.00,0.0207
454.00,0.0204
453.00,0.0192
452.00,0.0178
451.00,0.0170
450.00,0.0170
