Created as New Dataset,Sample 017 By Administrator Date Friday, September 05 2025
cm-1,A
4000.00,0.0009
3999.00,0.0009
3998.00,0.0009
3997.00,0.0009
3996.00,0.0009
3995.00,0.0010
3994.00,0.0010
3993.00,0.0010
3992.00,0.0011
3991.00,0.0011
3990.00,0.0010
3989.00,0.0010
3988.00,0.0010
3987.00,0.0010
3986.00,0.0010
3985.00,0.0010
3984.00,0.0010
3983.00,0.0009
3982.00,0.0009
3981.00,0.0009
3980.00,0.0009
3979.00,0.0009
3978.00,0.0009
3977.00,0.0009
3976.00,0.0009
3975.00,0.0009
3974.00,0.0009
3973.00,0.0009
3972.00,0.0009
3971.00,0.0009
3970.00,0.0009
3969.00,0.0009
3968.00,0.0008
3967.00,0.0008
3966.00,0.0008
3965.00,0.0008
3964.00,0.0008
3963.00,0.0008
3962.00,0.0008
3961.00,0.0009
3960.00,0.0009
3959.00,0.0008
3958.00,0.0008
3957.00,0.0008
3956.00,0.0008
3955.00,0.0008
3954.00,0.0008
3953.00,0.0007
3952.00,0.0007
3951.00,0.0007
3950.00,0.0007
3949.00,0.0007
3948.00,0.0007
3947.00,0.0007
3946.00,0.0007
3945.00,0.0007
3944.00,0.0008
3943.00,0.0008
3942.00,0.0008
3941.00,0.0008
3940.00,0.0007
3939.00,0.0007
3938.00,0.0007
3937.00,0.0007
3936.00,0.0007
3935.00,0.0007
3934.00,0.0007
3933.00,0.0007
3932.00,0.0007
3931.00,0.0007
3930.00,0.0007
3929.00,0.0008
3928.00,0.0008
3927.00,0.0009
3926.00,0.0009
3925.00,0.0009
3924.00,0.0009
3923.00,0.0008
3922.00,0.0007
3921.00,0.0007
3920.00,0.0006
3919.00,0.0006
3918.00,0.0006
3917.00,0.0006
3916.00,0.0006
3915.00,0.0007
3914.00,0.0007
3913.00,0.0007
3912.00,0.0008
3911.00,0.0008
3910.00,0.0008
3909.00,0.0007
3908.00,0.0006
3907.00,0.0006
3906.00,0.0005
3905.00,0.0004
3904.00,0.0003
3903.00,0.0002
3902.00,0.0002
3901.00,0.0002
3900.00,0.0003
3899.00,0.0004
3898.00,0.0005
3897.00,0.0006
3896.00,0.0006
3895.00,0.0006
3894.00,0.0006
3893.00,0.0006
3892.00,0.0006
3891.00,0.0006
3890.00,0.0005
3889.00,0.0005
3888.00,0.0004
3887.00,0.0004
3886.00,0.0004
3885.00,0.0004
3884.00,0.0004
3883.00,0.0004
3882.00,0.0004
3881.00,0.0004
3880.00,0.0004
3879.00,0.0004
3878.00,0.0004
3877.00,0.0004
3876.00,0.0004
3875.00,0.0004
3874.00,0.0004
3873.00,0.0004
3872.00,0.0004
3871.00,0.0004
3870.00,0.0003
3869.00,0.0003
3868.00,0.0002
3867.00,0.0002
3866.00,0.0002
3865.00,0.0003
3864.00,0.0003
3863.00,0.0003
3862.00,0.0003
3861.00,0.0003
3860.00,0.0003
3859.00,0.0003
3858.00,0.0003
3857.00,0.0004
3856.00,0.0004
3855.00,0.0004
3854.00,0.0004
3853.00,0.0004
3852.00,0.0004
3851.00,0.0004
3850.00,0.0004
3849.00,0.0004
3848.00,0.0004
3847.00,0.0004
3846.00,0.0003
3845.00,0.0003
3844.00,0.0003
3843.00,0.0003
3842.00,0.0003
3841.00,0.0002
3840.00,0.0002
3839.00,0.0002
3838.00,0.0002
3837.00,0.0002
3836.00,0.0002
3835.00,0.0002
3834.00,0.0002
3833.00,0.0003
3832.00,0.0003
3831.00,0.0004
3830.00,0.0004
3829.00,0.0003
3828.00,0.0003
3827.00,0.0003
3826.00,0.0003
3825.00,0.0002
3824.00,0.0002
3823.00,0.0001
3822.00,0.0001
3821.00,0.0002
3820.00,0.0002
3819.00,0.0002
3818.00,0.0002
3817.00,0.0003
3816.00,0.0003
3815.00,0.0004
3814.00,0.0004
3813.00,0.0005
3812.00,0.0005
3811.00,0.0005
3810.00,0.0004
3809.00,0.0004
3808.00,0.0004
3807.00,0.0004
3806.00,0.0003
3805.00,0.0003
3804.00,0.0002
3803.00,0.0002
3802.00,0.0002
3801.00,0.0002
3800.00,0.0003
3799.00,0.0003
3798.00,0.0003
3797.00,0.0004
3796.00,0.0005
3795.00,0.0005
3794.00,0.0005
3793.00,0.0005
3792.00,0.0005
3791.00,0.0006
3790.00,0.0006
3789.00,0.0006
3788.00,0.0006
3787.00,0.0006
3786.00,0.0006
3785.00,0.0006
3784.00,0.0006
3783.00,0.0006
3782.00,0.0006
3781.00,0.0006
3780.00,0.0006
3779.00,0.0006
3778.00,0.0006
3777.00,0.0006
3776.00,0.0006
3775.00,0.0007
3774.00,0.0007
3773.00,0.0006
3772.00,0.0006
3771.00,0.0005
3770.00,0.0005
3769.00,0.0006
3768.00,0.0006
3767.00,0.0007
3766.00,0.0008
3765.00,0.0008
3764.00,0.0008
3763.00,0.0007
3762.00,0.0006
3761.00,0.0006
3760.00,0.0005
3759.00,0.0005
3758.00,0.0005
3757.00,0.0005
3756.00,0.0004
3755.00,0.0004
3754.00,0.0002
3753.00,0.0001
3752.00,-0.0000
3751.00,-0.0001
3750.00,-0.0001
3749.00,0.0000
3748.00,0.0001
3747.00,0.0002
3746.00,0.0003
3745.00,0.0003
3744.00,0.0003
3743.00,0.0002
3742.00,0.0001
3741.00,0.0001
3740.00,0.0001
3739.00,0.0001
3738.00,0.0001
3737.00,0.0001
3736.00,0.0000
3735.00,-0.0000
3734.00,-0.0000
3733.00,0.0000
3732.00,0.0001
3731.00,0.0002
3730.00,0.0002
3729.00,0.0002
3728.00,0.0002
3727.00,0.0003
3726.00,0.0003
3725.00,0.0003
3724.00,0.0003
3723.00,0.0003
3722.00,0.0003
3721.00,0.0003
3720.00,0.0004
3719.00,0.0004
3718.00,0.0004
3717.00,0.0003
3716.00,0.0003
3715.00,0.0002
3714.00,0.0002
3713.00,0.0002
3712.00,0.0002
3711.00,0.0002
3710.00,0.0002
3709.00,0.0002
3708.00,0.0002
3707.00,0.0002
3706.00,0.0002
3705.00,0.0002
3704.00,0.0002
3703.00,0.0002
3702.00,0.0003
3701.00,0.0003
3700.00,0.0003
3699.00,0.0003
3698.00,0.0003
3697.00,0.0002
3696.00,0.0002
3695.00,0.0002
3694.00,0.0002
3693.00,0.0001
3692.00,0.0000
3691.00,-0.0000
3690.00,-0.0001
3689.00,-0.0002
3688.00,-0.0003
3687.00,-0.0004
3686.00,-0.0005
3685.00,-0.0007
3684.00,-0.0008
3683.00,-0.0009
3682.00,-0.0011
3681.00,-0.0013
3680.00,-0.0016
3679.00,-0.0018
3678.00,-0.0021
3677.00,-0.0024
3676.00,-0.0027
3675.00,-0.0029
3674.00,-0.0031
3673.00,-0.0032
3672.00,-0.0033
3671.00,-0.0034
3670.00,-0.0034
3669.00,-0.0034
3668.00,-0.0034
3667.00,-0.0034
3666.00,-0.0034
3665.00,-0.0035
3664.00,-0.0035
3663.00,-0.0036
3662.00,-0.0037
3661.00,-0.0038
3660.00,-0.0038
3659.00,-0.0039
3658.00,-0.0039
3657.00,-0.0039
3656.00,-0.0038
3655.00,-0.0038
3654.00,-0.0038
3653.00,-0.0039
3652.00,-0.0039
3651.00,-0.0039
3650.00,-0.0039
3649.00,-0.0039
3648.00,-0.0037
3647.00,-0.0035
3646.00,-0.0033
3645.00,-0.0031
3644.00,-0.0028
3643.00,-0.0026
3642.00,-0.0024
3641.00,-0.0023
3640.00,-0.0022
3639.00,-0.0022
3638.00,-0.0022
3637.00,-0.0021
3636.00,-0.0019
3635.00,-0.0016
3634.00,-0.0013
3633.00,-0.0011
3632.00,-0.0010
3631.00,-0.0010
3630.00,-0.0009
3629.00,-0.0008
3628.00,-0.0006
3627.00,-0.0004
3626.00,-0.0003
3625.00,-0.0002
3624.00,-0.0001
3623.00,-0.0001
3622.00,-0.0002
3621.00,-0.0002
3620.00,-0.0002
3619.00,-0.0001
3618.00,-0.0000
3617.00,0.0000
3616.00,0.0001
3615.00,0.0001
3614.00,0.0002
3613.00,0.0002
3612.00,0.0002
3611.00,0.0003
3610.00,0.0004
3609.00,0.0005
3608.00,0.0006
3607.00,0.0007
3606.00,0.0007
3605.00,0.0007
3604.00,0.0008
3603.00,0.0008
3602.00,0.0009
3601.00,0.0009
3600.00,0.0009
3599.00,0.0009
3598.00,0.0009
3597.00,0.0009
3596.00,0.0009
3595.00,0.0009
3594.00,0.0009
3593.00,0.0009
3592.00,0.0009
3591.00,0.0009
3590.00,0.0009
3589.00,0.0009
3588.00,0.0010
3587.00,0.0010
3586.00,0.0010
3585.00,0.0011
3584.00,0.0012
3583.00,0.0013
3582.00,0.0014
3581.00,0.0014
3580.00,0.0014
3579.00,0.0014
3578.00,0.0014
3577.00,0.0014
3576.00,0.0014
3575.00,0.0014
3574.00,0.0014
3573.00,0.0014
3572.00,0.0015
3571.00,0.0015
3570.00,0.0015
3569.00,0.0015
3568.00,0.0015
3567.00,0.0015
3566.00,0.0015
3565.00,0.0015
3564.00,0.0015
3563.00,0.0016
3562.00,0.0017
3561.00,0.0017
3560.00,0.0018
3559.00,0.0018
3558.00,0.0019
3557.00,0.0019
3556.00,0.0019
3555.00,0.0019
3554.00,0.0019
3553.00,0.0019
3552.00,0.0019
3551.00,0.0019
3550.00,0.0020
3549.00,0.0020
3548.00,0.0020
3547.00,0.0020
3546.00,0.0021
3545.00,0.0021
3544.00,0.0022
3543.00,0.0022
3542.00,0.0023
3541.00,0.0023
3540.00,0.0024
3539.00,0.0024
3538.00,0.0024
3537.00,0.0024
3536.00,0.0024
3535.00,0.0024
3534.00,0.0024
3533.00,0.0024
3532.00,0.0025
3531.00,0.0025
3530.00,0.0026
3529.00,0.0026
3528.00,0.0026
3527.00,0.0026
3526.00,0.0025
3525.00,0.0026
3524.00,0.0026
3523.00,0.0026
3522.00,0.0027
3521.00,0.0027
3520.00,0.0028
3519.00,0.0028
3518.00,0.0028
3517.00,0.0028
3516.00,0.0028
3515.00,0.0029
3514.00,0.0029
3513.00,0.0029
3512.00,0.0030
3511.00,0.0030
3510.00,0.0030
3509.00,0.0031
3508.00,0.0031
3507.00,0.0031
3506.00,0.0032
3505.00,0.0032
3504.00,0.0032
3503.00,0.0032
3502.00,0.0032
3501.00,0.0032
3500.00,0.0032
3499.00,0.0032
3498.00,0.0033
3497.00,0.0033
3496.00,0.0034
3495.00,0.0034
3494.00,0.0034
3493.00,0.0034
3492.00,0.0034
3491.00,0.0034
3490.00,0.0034
3489.00,0.0035
3488.00,0.0035
3487.00,0.0036
3486.00,0.0037
3485.00,0.0037
3484.00,0.0038
3483.00,0.0038
3482.00,0.0037
3481.00,0.0037
3480.00,0.0037
3479.00,0.0037
3478.00,0.0037
3477.00,0.0037
3476.00,0.0037
3475.00,0.0037
3474.00,0.0038
3473.00,0.0038
3472.00,0.0039
3471.00,0.0039
3470.00,0.0039
3469.00,0.0039
3468.00,0.0039
3467.00,0.0039
3466.00,0.0039
3465.00,0.0039
3464.00,0.0039
3463.00,0.0039
3462.00,0.0040
3461.00,0.0040
3460.00,0.0041
3459.00,0.0041
3458.00,0.0040
3457.00,0.0040
3456.00,0.0041
3455.00,0.0041
3454.00,0.0041
3453.00,0.0042
3452.00,0.0042
3451.00,0.0043
3450.00,0.0043
3449.00,0.0044
3448.00,0.0044
3447.00,0.0044
3446.00,0.0044
3445.00,0.0044
3444.00,0.0043
3443.00,0.0044
3442.00,0.0044
3441.00,0.0045
3440.00,0.0046
3439.00,0.0046
3438.00,0.0046
3437.00,0.0046
3436.00,0.0046
3435.00,0.0046
3434.00,0.0047
3433.00,0.0047
3432.00,0.0047
3431.00,0.0048
3430.00,0.0048
3429.00,0.0048
3428.00,0.0048
3427.00,0.0048
3426.00,0.0048
3425.00,0.0049
3424.00,0.0049
3423.00,0.0050
3422.00,0.0050
3421.00,0.0050
3420.00,0.0050
3419.00,0.0050
3418.00,0.0050
3417.00,0.0051
3416.00,0.0051
3415.00,0.0051
3414.00,0.0052
3413.00,0.0052
3412.00,0.0053
3411.00,0.0053
3410.00,0.0053
3409.00,0.0053
3408.00,0.0053
3407.00,0.0053
3406.00,0.0053
3405.00,0.0053
3404.00,0.0053
3403.00,0.0054
3402.00,0.0054
3401.00,0.0054
3400.00,0.0054
3399.00,0.0054
3398.00,0.0054
3397.00,0.0055
3396.00,0.0055
3395.00,0.0056
3394.00,0.0056
3393.00,0.0056
3392.00,0.0056
3391.00,0.0056
3390.00,0.0057
3389.00,0.0057
3388.00,0.0057
3387.00,0.0058
3386.00,0.0058
3385.00,0.0058
3384.00,0.0058
3383.00,0.0058
3382.00,0.0058
3381.00,0.0059
3380.00,0.0059
3379.00,0.0059
3378.00,0.0059
3377.00,0.0060
3376.00,0.0060
3375.00,0.0060
3374.00,0.0059
3373.00,0.0059
3372.00,0.0059
3371.00,0.0060
3370.00,0.0060
3369.00,0.0061
3368.00,0.0061
3367.00,0.0061
3366.00,0.0061
3365.00,0.0061
3364.00,0.0062
3363.00,0.0062
3362.00,0.0062
3361.00,0.0063
3360.00,0.0063
3359.00,0.0063
3358.00,0.0063
3357.00,0.0062
3356.00,0.0062
3355.00,0.0063
3354.00,0.0063
3353.00,0.0063
3352.00,0.0064
3351.00,0.0064
3350.00,0.0065
3349.00,0.0065
3348.00,0.0064
3347.00,0.0064
3346.00,0.0065
3345.00,0.0065
3344.00,0.0065
3343.00,0.0065
3342.00,0.0065
3341.00,0.0065
3340.00,0.0066
3339.00,0.0066
3338.00,0.0066
3337.00,0.0066
3336.00,0.0066
3335.00,0.0066
3334.00,0.0066
3333.00,0.0066
3332.00,0.0066
3331.00,0.0066
3330.00,0.0066
3329.00,0.0066
3328.00,0.0066
3327.00,0.0066
3326.00,0.0066
3325.00,0.0066
3324.00,0.0067
3323.00,0.0067
3322.00,0.0067
3321.00,0.0067
3320.00,0.0067
3319.00,0.0068
3318.00,0.0068
3317.00,0.0069
3316.00,0.0069
3315.00,0.0069
3314.00,0.0069
3313.00,0.0069
3312.00,0.0068
3311.00,0.0068
3310.00,0.0068
3309.00,0.0068
3308.00,0.0069
3307.00,0.0069
3306.00,0.0069
3305.00,0.0069
3304.00,0.0069
3303.00,0.0069
3302.00,0.0069
3301.00,0.0069
3300.00,0.0068
3299.00,0.0068
3298.00,0.0068
3297.00,0.0068
3296.00,0.0069
3295.00,0.0069
3294.00,0.0069
3293.00,0.0068
3292.00,0.0068
3291.00,0.0068
3290.00,0.0068
3289.00,0.0068
3288.00,0.0068
3287.00,0.0068
3286.00,0.0068
3285.00,0.0068
3284.00,0.0068
3283.00,0.0068
3282.00,0.0068
3281.00,0.0068
3280.00,0.0067
3279.00,0.0067
3278.00,0.0066
3277.00,0.0066
3276.00,0.0066
3275.00,0.0066
3274.00,0.0065
3273.00,0.0065
3272.00,0.0064
3271.00,0.0064
3270.00,0.0064
3269.00,0.0064
3268.00,0.0064
3267.00,0.0064
3266.00,0.0064
3265.00,0.0064
3264.00,0.0063
3263.00,0.0063
3262.00,0.0062
3261.00,0.0062
3260.00,0.0061
3259.00,0.0061
3258.00,0.0061
3257.00,0.0060
3256.00,0.0060
3255.00,0.0059
3254.00,0.0059
3253.00,0.0058
3252.00,0.0058
3251.00,0.0057
3250.00,0.0057
3249.00,0.0057
3248.00,0.0057
3247.00,0.0057
3246.00,0.0056
3245.00,0.0056
3244.00,0.0056
3243.00,0.0056
3242.00,0.0056
3241.00,0.0056
3240.00,0.0056
3239.00,0.0056
3238.00,0.0056
3237.00,0.0055
3236.00,0.0055
3235.00,0.0054
3234.00,0.0054
3233.00,0.0054
3232.00,0.0054
3231.00,0.0054
3230.00,0.0055
3229.00,0.0055
3228.00,0.0055
3227.00,0.0055
3226.00,0.0056
3225.00,0.0056
3224.00,0.0056
3223.00,0.0056
3222.00,0.0056
3221.00,0.0056
3220.00,0.0056
3219.00,0.0056
3218.00,0.0056
3217.00,0.0055
3216.00,0.0055
3215.00,0.0055
3214.00,0.0055
3213.00,0.0055
3212.00,0.0056
3211.00,0.0056
3210.00,0.0056
3209.00,0.0056
3208.00,0.0056
3207.00,0.0056
3206.00,0.0057
3205.00,0.0057
3204.00,0.0057
3203.00,0.0056
3202.00,0.0056
3201.00,0.0056
3200.00,0.0056
3199.00,0.0056
3198.00,0.0057
3197.00,0.0057
3196.00,0.0057
3195.00,0.0056
3194.00,0.0056
3193.00,0.0056
3192.00,0.0055
3191.00,0.0055
3190.00,0.0055
3189.00,0.0055
3188.00,0.0055
3187.00,0.0055
3186.00,0.0054
3185.00,0.0054
3184.00,0.0054
3183.00,0.0054
3182.00,0.0053
3181.00,0.0053
3180.00,0.0053
3179.00,0.0053
3178.00,0.0053
3177.00,0.0053
3176.00,0.0052
3175.00,0.0052
3174.00,0.0052
3173.00,0.0052
3172.00,0.0051
3171.00,0.0051
3170.00,0.0051
3169.00,0.0051
3168.00,0.0051
3167.00,0.0051
3166.00,0.0051
3165.00,0.0051
3164.00,0.0051
3163.00,0.0050
3162.00,0.0050
3161.00,0.0050
3160.00,0.0050
3159.00,0.0050
3158.00,0.0051
3157.00,0.0051
3156.00,0.0051
3155.00,0.0051
3154.00,0.0050
3153.00,0.0050
3152.00,0.0050
3151.00,0.0050
3150.00,0.0050
3149.00,0.0050
3148.00,0.0050
3147.00,0.0050
3146.00,0.0050
3145.00,0.0050
3144.00,0.0049
3143.00,0.0049
3142.00,0.0049
3141.00,0.0049
3140.00,0.0048
3139.00,0.0048
3138.00,0.0048
3137.00,0.0048
3136.00,0.0047
3135.00,0.0047
3134.00,0.0047
3133.00,0.0047
3132.00,0.0046
3131.00,0.0046
3130.00,0.0046
3129.00,0.0046
3128.00,0.0046
3127.00,0.0045
3126.00,0.0045
3125.00,0.0045
3124.00,0.0044
3123.00,0.0043
3122.00,0.0043
3121.00,0.0042
3120.00,0.0042
3119.00,0.0042
3118.00,0.0042
3117.00,0.0042
3116.00,0.0042
3115.00,0.0042
3114.00,0.0042
3113.00,0.0042
3112.00,0.0042
3111.00,0.0042
3110.00,0.0042
3109.00,0.0042
3108.00,0.0042
3107.00,0.0042
3106.00,0.0042
3105.00,0.0042
3104.00,0.0041
3103.00,0.0041
3102.00,0.0041
3101.00,0.0040
3100.00,0.0040
3099.00,0.0040
3098.00,0.0040
3097.00,0.0040
3096.00,0.0040
3095.00,0.0040
3094.00,0.0040
3093.00,0.0040
3092.00,0.0040
3091.00,0.0040
3090.00,0.0040
3089.00,0.0040
3088.00,0.0040
3087.00,0.0040
3086.00,0.0040
3085.00,0.0040
3084.00,0.0040
3083.00,0.0040
3082.00,0.0040
3081.00,0.0040
3080.00,0.0040
3079.00,0.0040
3078.00,0.0040
3077.00,0.0040
3076.00,0.0041
3075.00,0.0041
3074.00,0.0041
3073.00,0.0041
3072.00,0.0041
3071.00,0.0042
3070.00,0.0042
3069.00,0.0042
3068.00,0.0043
3067.00,0.0043
3066.00,0.0043
3065.00,0.0043
3064.00,0.0043
3063.00,0.0044
3062.00,0.0044
3061.00,0.0044
3060.00,0.0044
3059.00,0.0044
3058.00,0.0044
3057.00,0.0044
3056.00,0.0044
3055.00,0.0044
3054.00,0.0044
3053.00,0.0044
3052.00,0.0044
3051.00,0.0044
3050.00,0.0045
3049.00,0.0045
3048.00,0.0045
3047.00,0.0045
3046.00,0.0045
3045.00,0.0046
3044.00,0.0046
3043.00,0.0046
3042.00,0.0046
3041.00,0.0046
3040.00,0.0046
3039.00,0.0047
3038.00,0.0047
3037.00,0.0047
3036.00,0.0047
3035.00,0.0047
3034.00,0.0047
3033.00,0.0047
3032.00,0.0047
3031.00,0.0048
3030.00,0.0048
3029.00,0.0048
3028.00,0.0048
3027.00,0.0048
3026.00,0.0048
3025.00,0.0048
3024.00,0.0048
3023.00,0.0047
3022.00,0.0046
3021.00,0.0045
3020.00,0.0044
3019.00,0.0042
3018.00,0.0040
3017.00,0.0038
3016.00,0.0035
3015.00,0.0032
3014.00,0.0028
3013.00,0.0024
3012.00,0.0018
3011.00,0.0012
3010.00,0.0005
3009.00,-0.0003
3008.00,-0.0012
3007.00,-0.0021
3006.00,-0.0031
3005.00,-0.0041
3004.00,-0.0052
3003.00,-0.0062
3002.00,-0.0072
3001.00,-0.0081
3000.00,-0.0090
2999.00,-0.0097
2998.00,-0.0103
2997.00,-0.0107
2996.00,-0.0111
2995.00,-0.0113
2994.00,-0.0115
2993.00,-0.0117
2992.00,-0.0118
2991.00,-0.0117
2990.00,-0.0116
2989.00,-0.0115
2988.00,-0.0115
2987.00,-0.0118
2986.00,-0.0127
2985.00,-0.0146
2984.00,-0.0170
2983.00,-0.0191
2982.00,-0.0197
2981.00,-0.0184
2980.00,-0.0152
2979.00,-0.0109
2978.00,-0.0061
2977.00,-0.0014
2976.00,0.0032
2975.00,0.0075
2974.00,0.0117
2973.00,0.0163
2972.00,0.0219
2971.00,0.0289
2970.00,0.0375
2969.00,0.0472
2968.00,0.0575
2967.00,0.0682
2966.00,0.0794
2965.00,0.0907
2964.00,0.1021
2963.00,0.1129
2962.00,0.1225
2961.00,0.1307
2960.00,0.1373
2959.00,0.1423
2958.00,0.1463
2957.00,0.1499
2956.00,0.1539
2955.00,0.1586
2954.00,0.1643
2953.00,0.1705
2952.00,0.1763
2951.00,0.1807
2950.00,0.1825
2949.00,0.1809
2948.00,0.1755
2947.00,0.1667
2946.00,0.1553
2945.00,0.1427
2944.00,0.1302
2943.00,0.1191
2942.00,0.1100
2941.00,0.1034
2940.00,0.0992
2939.00,0.0974
2938.00,0.0976
2937.00,0.0997
2936.00,0.1034
2935.00,0.1085
2934.00,0.1150
2933.00,0.1227
2932.00,0.1315
2931.00,0.1412
2930.00,0.1516
2929.00,0.1624
2928.00,0.1730
2927.00,0.1833
2926.00,0.1930
2925.00,0.2022
2924.00,0.2110
2923.00,0.2195
2922.00,0.2277
2921.00,0.2354
2920.00,0.2421
2919.00,0.2471
2918.00,0.2497
2917.00,0.2493
2916.00,0.2456
2915.00,0.2393
2914.00,0.2310
2913.00,0.2217
2912.00,0.2125
2911.00,0.2037
2910.00,0.1957
2909.00,0.1885
2908.00,0.1817
2907.00,0.1753
2906.00,0.1687
2905.00,0.1620
2904.00,0.1551
2903.00,0.1481
2902.00,0.1410
2901.00,0.1340
2900.00,0.1272
2899.00,0.1207
2898.00,0.1147
2897.00,0.1092
2896.00,0.1043
2895.00,0.1000
2894.00,0.0965
2893.00,0.0936
2892.00,0.0915
2891.00,0.0900
2890.00,0.0891
2889.00,0.0889
2888.00,0.0892
2887.00,0.0898
2886.00,0.0906
2885.00,0.0919
2884.00,0.0937
2883.00,0.0961
2882.00,0.0991
2881.00,0.1024
2880.00,0.1057
2879.00,0.1084
2878.00,0.1103
2877.00,0.1111
2876.00,0.1111
2875.00,0.1106
2874.00,0.1101
2873.00,0.1101
2872.00,0.1109
2871.00,0.1125
2870.00,0.1146
2869.00,0.1169
2868.00,0.1185
2867.00,0.1188
2866.00,0.1168
2865.00,0.1124
2864.00,0.1057
2863.00,0.0976
2862.00,0.0891
2861.00,0.0811
2860.00,0.0742
2859.00,0.0687
2858.00,0.0645
2857.00,0.0616
2856.00,0.0597
2855.00,0.0586
2854.00,0.0583
2853.00,0.0585
2852.00,0.0594
2851.00,0.0608
2850.00,0.0628
2849.00,0.0654
2848.00,0.0687
2847.00,0.0728
2846.00,0.0777
2845.00,0.0835
2844.00,0.0902
2843.00,0.0975
2842.00,0.1050
2841.00,0.1121
2840.00,0.1179
2839.00,0.1215
2838.00,0.1222
2837.00,0.1195
2836.00,0.1134
2835.00,0.1045
2834.00,0.0940
2833.00,0.0829
2832.00,0.0723
2831.00,0.0630
2830.00,0.0551
2829.00,0.0486
2828.00,0.0434
2827.00,0.0392
2826.00,0.0357
2825.00,0.0329
2824.00,0.0305
2823.00,0.0285
2822.00,0.0268
2821.00,0.0253
2820.00,0.0240
2819.00,0.0229
2818.00,0.0219
2817.00,0.0210
2816.00,0.0203
2815.00,0.0196
2814.00,0.0191
2813.00,0.0186
2812.00,0.0181
2811.00,0.0176
2810.00,0.0171
2809.00,0.0166
2808.00,0.0160
2807.00,0.0154
2806.00,0.0147
2805.00,0.0140
2804.00,0.0134
2803.00,0.0128
2802.00,0.0122
2801.00,0.0118
2800.00,0.0114
2799.00,0.0111
2798.00,0.0109
2797.00,0.0107
2796.00,0.0104
2795.00,0.0102
2794.00,0.0100
2793.00,0.0097
2792.00,0.0095
2791.00,0.0092
2790.00,0.0088
2789.00,0.0085
2788.00,0.0082
2787.00,0.0079
2786.00,0.0076
2785.00,0.0073
2784.00,0.0071
2783.00,0.0069
2782.00,0.0067
2781.00,0.0065
2780.00,0.0063
2779.00,0.0061
2778.00,0.0060
2777.00,0.0058
2776.00,0.0057
2775.00,0.0056
2774.00,0.0056
2773.00,0.0055
2772.00,0.0055
2771.00,0.0054
2770.00,0.0054
2769.00,0.0053
2768.00,0.0053
2767.00,0.0053
2766.00,0.0052
2765.00,0.0052
2764.00,0.0052
2763.00,0.0052
2762.00,0.0052
2761.00,0.0051
2760.00,0.0051
2759.00,0.0050
2758.00,0.0049
2757.00,0.0049
2756.00,0.0049
2755.00,0.0050
2754.00,0.0050
2753.00,0.0050
2752.00,0.0049
2751.00,0.0049
2750.00,0.0049
2749.00,0.0049
2748.00,0.0049
2747.00,0.0050
2746.00,0.0050
2745.00,0.0050
2744.00,0.0051
2743.00,0.0052
2742.00,0.0053
2741.00,0.0054
2740.00,0.0056
2739.00,0.0057
2738.00,0.0058
2737.00,0.0060
2736.00,0.0061
2735.00,0.0063
2734.00,0.0065
2733.00,0.0067
2732.00,0.0068
2731.00,0.0070
2730.00,0.0072
2729.00,0.0074
2728.00,0.0077
2727.00,0.0080
2726.00,0.0082
2725.00,0.0085
2724.00,0.0087
2723.00,0.0087
2722.00,0.0087
2721.00,0.0085
2720.00,0.0082
2719.00,0.0079
2718.00,0.0075
2717.00,0.0072
2716.00,0.0069
2715.00,0.0066
2714.00,0.0064
2713.00,0.0062
2712.00,0.0060
2711.00,0.0058
2710.00,0.0057
2709.00,0.0055
2708.00,0.0053
2707.00,0.0052
2706.00,0.0051
2705.00,0.0050
2704.00,0.0049
2703.00,0.0049
2702.00,0.0048
2701.00,0.0047
2700.00,0.0046
2699.00,0.0045
2698.00,0.0045
2697.00,0.0044
2696.00,0.0044
2695.00,0.0044
2694.00,0.0044
2693.00,0.0043
2692.00,0.0044
2691.00,0.0044
2690.00,0.0044
2689.00,0.0044
2688.00,0.0044
2687.00,0.0043
2686.00,0.0043
2685.00,0.0043
2684.00,0.0043
2683.00,0.0043
2682.00,0.0043
2681.00,0.0043
2680.00,0.0043
2679.00,0.0043
2678.00,0.0043
2677.00,0.0043
2676.00,0.0043
2675.00,0.0042
2674.00,0.0042
2673.00,0.0042
2672.00,0.0041
2671.00,0.0041
2670.00,0.0041
2669.00,0.0040
2668.00,0.0040
2667.00,0.0040
2666.00,0.0040
2665.00,0.0041
2664.00,0.0041
2663.00,0.0042
2662.00,0.0043
2661.00,0.0044
2660.00,0.0044
2659.00,0.0044
2658.00,0.0044
2657.00,0.0044
2656.00,0.0043
2655.00,0.0043
2654.00,0.0042
2653.00,0.0041
2652.00,0.0041
2651.00,0.0040
2650.00,0.0040
2649.00,0.0040
2648.00,0.0039
2647.00,0.0039
2646.00,0.0038
2645.00,0.0037
2644.00,0.0037
2643.00,0.0036
2642.00,0.0036
2641.00,0.0036
2640.00,0.0036
2639.00,0.0036
2638.00,0.0036
2637.00,0.0036
2636.00,0.0036
2635.00,0.0036
2634.00,0.0036
2633.00,0.0036
2632.00,0.0036
2631.00,0.0036
2630.00,0.0036
2629.00,0.0036
2628.00,0.0036
2627.00,0.0037
2626.00,0.0038
2625.00,0.0038
2624.00,0.0039
2623.00,0.0040
2622.00,0.0040
2621.00,0.0040
2620.00,0.0041
2619.00,0.0041
2618.00,0.0040
2617.00,0.0040
2616.00,0.0040
2615.00,0.0040
2614.00,0.0039
2613.00,0.0039
2612.00,0.0039
2611.00,0.0039
2610.00,0.0038
2609.00,0.0037
2608.00,0.0036
2607.00,0.0035
2606.00,0.0034
2605.00,0.0034
2604.00,0.0033
2603.00,0.0033
2602.00,0.0033
2601.00,0.0033
2600.00,0.0033
2599.00,0.0033
2598.00,0.0034
2597.00,0.0034
2596.00,0.0034
2595.00,0.0034
2594.00,0.0034
2593.00,0.0034
2592.00,0.0034
2591.00,0.0034
2590.00,0.0035
2589.00,0.0035
2588.00,0.0036
2587.00,0.0037
2586.00,0.0038
2585.00,0.0039
2584.00,0.0040
2583.00,0.0041
2582.00,0.0041
2581.00,0.0041
2580.00,0.0040
2579.00,0.0039
2578.00,0.0038
2577.00,0.0037
2576.00,0.0036
2575.00,0.0035
2574.00,0.0033
2573.00,0.0031
2572.00,0.0030
2571.00,0.0030
2570.00,0.0029
2569.00,0.0029
2568.00,0.0028
2567.00,0.0028
2566.00,0.0027
2565.00,0.0027
2564.00,0.0027
2563.00,0.0026
2562.00,0.0026
2561.00,0.0025
2560.00,0.0025
2559.00,0.0025
2558.00,0.0025
2557.00,0.0025
2556.00,0.0025
2555.00,0.0025
2554.00,0.0024
2553.00,0.0024
2552.00,0.0023
2551.00,0.0023
2550.00,0.0023
2549.00,0.0022
2548.00,0.0022
2547.00,0.0021
2546.00,0.0020
2545.00,0.0019
2544.00,0.0019
2543.00,0.0019
2542.00,0.0019
2541.00,0.0019
2540.00,0.0019
2539.00,0.0019
2538.00,0.0018
2537.00,0.0017
2536.00,0.0017
2535.00,0.0017
2534.00,0.0017
2533.00,0.0018
2532.00,0.0018
2531.00,0.0018
2530.00,0.0017
2529.00,0.0017
2528.00,0.0017
2527.00,0.0016
2526.00,0.0017
2525.00,0.0017
2524.00,0.0016
2523.00,0.0015
2522.00,0.0014
2521.00,0.0013
2520.00,0.0013
2519.00,0.0013
2518.00,0.0012
2517.00,0.0012
2516.00,0.0011
2515.00,0.0011
2514.00,0.0011
2513.00,0.0011
2512.00,0.0012
2511.00,0.0012
2510.00,0.0012
2509.00,0.0012
2508.00,0.0012
2507.00,0.0011
2506.00,0.0011
2505.00,0.0011
2504.00,0.0011
2503.00,0.0011
2502.00,0.0011
2501.00,0.0011
2500.00,0.0011
2499.00,0.0011
2498.00,0.0011
2497.00,0.0011
2496.00,0.0011
2495.00,0.0011
2494.00,0.0011
2493.00,0.0011
2492.00,0.0011
2491.00,0.0012
2490.00,0.0012
2489.00,0.0013
2488.00,0.0013
2487.00,0.0012
2486.00,0.0012
2485.00,0.0012
2484.00,0.0012
2483.00,0.0012
2482.00,0.0012
2481.00,0.0012
2480.00,0.0012
2479.00,0.0012
2478.00,0.0011
2477.00,0.0010
2476.00,0.0009
2475.00,0.0009
2474.00,0.0009
2473.00,0.0009
2472.00,0.0009
2471.00,0.0010
2470.00,0.0010
2469.00,0.0010
2468.00,0.0010
2467.00,0.0010
2466.00,0.0010
2465.00,0.0010
2464.00,0.0010
2463.00,0.0011
2462.00,0.0011
2461.00,0.0011
2460.00,0.0011
2459.00,0.0011
2458.00,0.0011
2457.00,0.0012
2456.00,0.0012
2455.00,0.0011
2454.00,0.0011
2453.00,0.0011
2452.00,0.0011
2451.00,0.0012
2450.00,0.0012
2449.00,0.0012
2448.00,0.0013
2447.00,0.0013
2446.00,0.0013
2445.00,0.0012
2444.00,0.0012
2443.00,0.0012
2442.00,0.0012
2441.00,0.0012
2440.00,0.0012
2439.00,0.0013
2438.00,0.0013
2437.00,0.0013
2436.00,0.0014
2435.00,0.0014
2434.00,0.0015
2433.00,0.0015
2432.00,0.0016
2431.00,0.0016
2430.00,0.0015
2429.00,0.0015
2428.00,0.0015
2427.00,0.0015
2426.00,0.0014
2425.00,0.0014
2424.00,0.0013
2423.00,0.0013
2422.00,0.0013
2421.00,0.0013
2420.00,0.0013
2419.00,0.0012
2418.00,0.0012
2417.00,0.0011
2416.00,0.0011
2415.00,0.0011
2414.00,0.0011
2413.00,0.0011
2412.00,0.0011
2411.00,0.0011
2410.00,0.0011
2409.00,0.0011
2408.00,0.0011
2407.00,0.0011
2406.00,0.0010
2405.00,0.0010
2404.00,0.0010
2403.00,0.0010
2402.00,0.0011
2401.00,0.0011
2400.00,0.0011
2399.00,0.0011
2398.00,0.0010
2397.00,0.0010
2396.00,0.0010
2395.00,0.0010
2394.00,0.0009
2393.00,0.0009
2392.00,0.0009
2391.00,0.0009
2390.00,0.0009
2389.00,0.0009
2388.00,0.0009
2387.00,0.0009
2386.00,0.0008
2385.00,0.0008
2384.00,0.0007
2383.00,0.0006
2382.00,0.0005
2381.00,0.0005
2380.00,0.0004
2379.00,0.0004
2378.00,0.0004
2377.00,0.0003
2376.00,0.0004
2375.00,0.0004
2374.00,0.0005
2373.00,0.0005
2372.00,0.0005
2371.00,0.0005
2370.00,0.0005
2369.00,0.0004
2368.00,0.0004
2367.00,0.0003
2366.00,0.0003
2365.00,0.0003
2364.00,0.0004
2363.00,0.0004
2362.00,0.0004
2361.00,0.0005
2360.00,0.0006
2359.00,0.0007
2358.00,0.0007
2357.00,0.0007
2356.00,0.0006
2355.00,0.0005
2354.00,0.0004
2353.00,0.0003
2352.00,0.0001
2351.00,0.0001
2350.00,0.0003
2349.00,0.0005
2348.00,0.0007
2347.00,0.0007
2346.00,0.0005
2345.00,0.0005
2344.00,0.0005
2343.00,0.0005
2342.00,0.0006
2341.00,0.0006
2340.00,0.0007
2339.00,0.0007
2338.00,0.0007
2337.00,0.0007
2336.00,0.0008
2335.00,0.0008
2334.00,0.0007
2333.00,0.0006
2332.00,0.0005
2331.00,0.0004
2330.00,0.0005
2329.00,0.0007
2328.00,0.0010
2327.00,0.0013
2326.00,0.0016
2325.00,0.0019
2324.00,0.0019
2323.00,0.0018
2322.00,0.0016
2321.00,0.0014
2320.00,0.0013
2319.00,0.0012
2318.00,0.0012
2317.00,0.0012
2316.00,0.0011
2315.00,0.0010
2314.00,0.0009
2313.00,0.0008
2312.00,0.0008
2311.00,0.0008
2310.00,0.0008
2309.00,0.0008
2308.00,0.0009
2307.00,0.0010
2306.00,0.0010
2305.00,0.0011
2304.00,0.0011
2303.00,0.0010
2302.00,0.0010
2301.00,0.0010
2300.00,0.0010
2299.00,0.0011
2298.00,0.0012
2297.00,0.0013
2296.00,0.0014
2295.00,0.0014
2294.00,0.0015
2293.00,0.0016
2292.00,0.0018
2291.00,0.0019
2290.00,0.0020
2289.00,0.0020
2288.00,0.0020
2287.00,0.0020
2286.00,0.0020
2285.00,0.0020
2284.00,0.0020
2283.00,0.0019
2282.00,0.0018
2281.00,0.0017
2280.00,0.0016
2279.00,0.0016
2278.00,0.0016
2277.00,0.0015
2276.00,0.0015
2275.00,0.0015
2274.00,0.0015
2273.00,0.0015
2272.00,0.0015
2271.00,0.0015
2270.00,0.0015
2269.00,0.0015
2268.00,0.0014
2267.00,0.0013
2266.00,0.0012
2265.00,0.0011
2264.00,0.0010
2263.00,0.0010
2262.00,0.0009
2261.00,0.0010
2260.00,0.0012
2259.00,0.0013
2258.00,0.0014
2257.00,0.0013
2256.00,0.0013
2255.00,0.0012
2254.00,0.0011
2253.00,0.0010
2252.00,0.0010
2251.00,0.0009
2250.00,0.0009
2249.00,0.0009
2248.00,0.0009
2247.00,0.0010
2246.00,0.0011
2245.00,0.0011
2244.00,0.0011
2243.00,0.0011
2242.00,0.0011
2241.00,0.0012
2240.00,0.0012
2239.00,0.0011
2238.00,0.0011
2237.00,0.0012
2236.00,0.0012
2235.00,0.0013
2234.00,0.0013
2233.00,0.0012
2232.00,0.0012
2231.00,0.0011
2230.00,0.0010
2229.00,0.0010
2228.00,0.0010
2227.00,0.0010
2226.00,0.0010
2225.00,0.0010
2224.00,0.0009
2223.00,0.0008
2222.00,0.0008
2221.00,0.0009
2220.00,0.0010
2219.00,0.0011
2218.00,0.0010
2217.00,0.0009
2216.00,0.0008
2215.00,0.0008
2214.00,0.0009
2213.00,0.0010
2212.00,0.0010
2211.00,0.0009
2210.00,0.0008
2209.00,0.0008
2208.00,0.0007
2207.00,0.0007
2206.00,0.0006
2205.00,0.0005
2204.00,0.0005
2203.00,0.0005
2202.00,0.0006
2201.00,0.0007
2200.00,0.0008
2199.00,0.0007
2198.00,0.0006
2197.00,0.0007
2196.00,0.0007
2195.00,0.0008
2194.00,0.0009
2193.00,0.0009
2192.00,0.0009
2191.00,0.0010
2190.00,0.0010
2189.00,0.0011
2188.00,0.0012
2187.00,0.0012
2186.00,0.0012
2185.00,0.0012
2184.00,0.0012
2183.00,0.0012
2182.00,0.0012
2181.00,0.0013
2180.00,0.0015
2179.00,0.0015
2178.00,0.0015
2177.00,0.0014
2176.00,0.0013
2175.00,0.0011
2174.00,0.0009
2173.00,0.0008
2172.00,0.0009
2171.00,0.0012
2170.00,0.0016
2169.00,0.0020
2168.00,0.0022
2167.00,0.0021
2166.00,0.0019
2165.00,0.0019
2164.00,0.0020
2163.00,0.0021
2162.00,0.0019
2161.00,0.0013
2160.00,0.0001
2159.00,-0.0013
2158.00,-0.0022
2157.00,-0.0025
2156.00,-0.0021
2155.00,-0.0017
2154.00,-0.0013
2153.00,-0.0011
2152.00,-0.0011
2151.00,-0.0013
2150.00,-0.0015
2149.00,-0.0014
2148.00,-0.0011
2147.00,-0.0009
2146.00,-0.0008
2145.00,-0.0009
2144.00,-0.0010
2143.00,-0.0010
2142.00,-0.0010
2141.00,-0.0009
2140.00,-0.0009
2139.00,-0.0009
2138.00,-0.0011
2137.00,-0.0013
2136.00,-0.0014
2135.00,-0.0015
2134.00,-0.0015
2133.00,-0.0014
2132.00,-0.0012
2131.00,-0.0010
2130.00,-0.0008
2129.00,-0.0006
2128.00,-0.0005
2127.00,-0.0003
2126.00,-0.0003
2125.00,-0.0003
2124.00,-0.0003
2123.00,-0.0002
2122.00,-0.0001
2121.00,-0.0000
2120.00,0.0001
2119.00,0.0001
2118.00,0.0001
2117.00,0.0002
2116.00,0.0003
2115.00,0.0004
2114.00,0.0005
2113.00,0.0006
2112.00,0.0007
2111.00,0.0007
2110.00,0.0006
2109.00,0.0006
2108.00,0.0005
2107.00,0.0004
2106.00,0.0004
2105.00,0.0004
2104.00,0.0004
2103.00,0.0003
2102.00,0.0004
2101.00,0.0004
2100.00,0.0004
2099.00,0.0003
2098.00,0.0002
2097.00,-0.0001
2096.00,-0.0003
2095.00,-0.0004
2094.00,-0.0003
2093.00,-0.0001
2092.00,0.0000
2091.00,0.0000
2090.00,-0.0000
2089.00,-0.0001
2088.00,-0.0000
2087.00,0.0000
2086.00,0.0001
2085.00,0.0002
2084.00,0.0002
2083.00,0.0002
2082.00,0.0003
2081.00,0.0004
2080.00,0.0005
2079.00,0.0006
2078.00,0.0005
2077.00,0.0005
2076.00,0.0005
2075.00,0.0004
2074.00,0.0003
2073.00,0.0002
2072.00,0.0002
2071.00,0.0001
2070.00,0.0001
2069.00,0.0001
2068.00,0.0001
2067.00,0.0002
2066.00,0.0001
2065.00,0.0001
2064.00,-0.0000
2063.00,-0.0001
2062.00,-0.0001
2061.00,0.0000
2060.00,0.0002
2059.00,0.0002
2058.00,0.0002
2057.00,0.0002
2056.00,0.0003
2055.00,0.0003
2054.00,0.0006
2053.00,0.0010
2052.00,0.0016
2051.00,0.0019
2050.00,0.0019
2049.00,0.0015
2048.00,0.0009
2047.00,0.0004
2046.00,0.0001
2045.00,-0.0001
2044.00,-0.0001
2043.00,-0.0000
2042.00,0.0001
2041.00,0.0002
2040.00,0.0002
2039.00,0.0002
2038.00,0.0001
2037.00,0.0002
2036.00,0.0002
2035.00,0.0002
2034.00,-0.0001
2033.00,-0.0004
2032.00,-0.0005
2031.00,-0.0005
2030.00,-0.0002
2029.00,0.0000
2028.00,0.0001
2027.00,-0.0001
2026.00,-0.0003
2025.00,-0.0004
2024.00,-0.0005
2023.00,-0.0008
2022.00,-0.0011
2021.00,-0.0012
2020.00,-0.0010
2019.00,-0.0006
2018.00,-0.0003
2017.00,-0.0002
2016.00,-0.0004
2015.00,-0.0008
2014.00,-0.0012
2013.00,-0.0014
2012.00,-0.0013
2011.00,-0.0010
2010.00,-0.0008
2009.00,-0.0008
2008.00,-0.0009
2007.00,-0.0011
2006.00,-0.0012
2005.00,-0.0014
2004.00,-0.0015
2003.00,-0.0016
2002.00,-0.0017
2001.00,-0.0017
2000.00,-0.0015
1999.00,-0.0014
1998.00,-0.0011
1997.00,-0.0008
1996.00,-0.0004
1995.00,-0.0001
1994.00,-0.0000
1993.00,-0.0001
1992.00,-0.0003
1991.00,-0.0004
1990.00,-0.0005
1989.00,-0.0004
1988.00,-0.0004
1987.00,-0.0004
1986.00,-0.0003
1985.00,-0.0001
1984.00,0.0003
1983.00,0.0007
1982.00,0.0011
1981.00,0.0016
1980.00,0.0018
1979.00,0.0015
1978.00,0.0008
1977.00,-0.0001
1976.00,-0.0009
1975.00,-0.0014
1974.00,-0.0017
1973.00,-0.0017
1972.00,-0.0017
1971.00,-0.0018
1970.00,-0.0017
1969.00,-0.0015
1968.00,-0.0012
1967.00,-0.0009
1966.00,-0.0007
1965.00,-0.0007
1964.00,-0.0008
1963.00,-0.0009
1962.00,-0.0011
1961.00,-0.0013
1960.00,-0.0015
1959.00,-0.0015
1958.00,-0.0013
1957.00,-0.0010
1956.00,-0.0008
1955.00,-0.0008
1954.00,-0.0008
1953.00,-0.0009
1952.00,-0.0009
1951.00,-0.0009
1950.00,-0.0009
1949.00,-0.0008
1948.00,-0.0008
1947.00,-0.0009
1946.00,-0.0011
1945.00,-0.0012
1944.00,-0.0012
1943.00,-0.0011
1942.00,-0.0010
1941.00,-0.0009
1940.00,-0.0008
1939.00,-0.0007
1938.00,-0.0007
1937.00,-0.0006
1936.00,-0.0005
1935.00,-0.0005
1934.00,-0.0006
1933.00,-0.0006
1932.00,-0.0007
1931.00,-0.0007
1930.00,-0.0007
1929.00,-0.0006
1928.00,-0.0005
1927.00,-0.0004
1926.00,-0.0003
1925.00,-0.0002
1924.00,-0.0001
1923.00,-0.0002
1922.00,-0.0003
1921.00,-0.0003
1920.00,-0.0002
1919.00,-0.0002
1918.00,-0.0001
1917.00,-0.0001
1916.00,-0.0001
1915.00,-0.0001
1914.00,-0.0002
1913.00,-0.0001
1912.00,-0.0001
1911.00,-0.0001
1910.00,-0.0001
1909.00,-0.0001
1908.00,-0.0001
1907.00,-0.0001
1906.00,-0.0001
1905.00,-0.0001
1904.00,0.0001
1903.00,0.0001
1902.00,0.0001
1901.00,0.0000
1900.00,0.0000
1899.00,0.0000
1898.00,0.0000
1897.00,0.0001
1896.00,0.0001
1895.00,0.0002
1894.00,0.0002
1893.00,0.0003
1892.00,0.0003
1891.00,0.0003
1890.00,0.0002
1889.00,0.0003
1888.00,0.0002
1887.00,0.0002
1886.00,0.0001
1885.00,0.0002
1884.00,0.0003
1883.00,0.0002
1882.00,0.0002
1881.00,0.0001
1880.00,0.0002
1879.00,0.0002
1878.00,0.0002
1877.00,0.0002
1876.00,0.0001
1875.00,0.0000
1874.00,0.0000
1873.00,0.0000
1872.00,0.0000
1871.00,0.0001
1870.00,0.0001
1869.00,0.0002
1868.00,0.0003
1867.00,0.0003
1866.00,0.0003
1865.00,0.0002
1864.00,0.0002
1863.00,0.0002
1862.00,0.0002
1861.00,0.0001
1860.00,0.0001
1859.00,0.0000
1858.00,0.0001
1857.00,0.0001
1856.00,0.0002
1855.00,0.0002
1854.00,0.0001
1853.00,0.0001
1852.00,0.0002
1851.00,0.0002
1850.00,0.0003
1849.00,0.0004
1848.00,0.0004
1847.00,0.0004
1846.00,0.0003
1845.00,0.0003
1844.00,0.0004
1843.00,0.0004
1842.00,0.0005
1841.00,0.0005
1840.00,0.0005
1839.00,0.0005
1838.00,0.0004
1837.00,0.0004
1836.00,0.0004
1835.00,0.0004
1834.00,0.0005
1833.00,0.0005
1832.00,0.0006
1831.00,0.0007
1830.00,0.0006
1829.00,0.0006
1828.00,0.0006
1827.00,0.0006
1826.00,0.0006
1825.00,0.0006
1824.00,0.0006
1823.00,0.0006
1822.00,0.0006
1821.00,0.0006
1820.00,0.0005
1819.00,0.0004
1818.00,0.0003
1817.00,0.0003
1816.00,0.0003
1815.00,0.0004
1814.00,0.0004
1813.00,0.0005
1812.00,0.0005
1811.00,0.0005
1810.00,0.0006
1809.00,0.0006
1808.00,0.0007
1807.00,0.0007
1806.00,0.0007
1805.00,0.0007
1804.00,0.0007
1803.00,0.0007
1802.00,0.0007
1801.00,0.0008
1800.00,0.0008
1799.00,0.0008
1798.00,0.0008
1797.00,0.0007
1796.00,0.0007
1795.00,0.0007
1794.00,0.0008
1793.00,0.0009
1792.00,0.0010
1791.00,0.0010
1790.00,0.0009
1789.00,0.0009
1788.00,0.0009
1787.00,0.0009
1786.00,0.0009
1785.00,0.0009
1784.00,0.0009
1783.00,0.0009
1782.00,0.0009
1781.00,0.0009
1780.00,0.0010
1779.00,0.0010
1778.00,0.0010
1777.00,0.0010
1776.00,0.0009
1775.00,0.0009
1774.00,0.0008
1773.00,0.0009
1772.00,0.0010
1771.00,0.0011
1770.00,0.0012
1769.00,0.0012
1768.00,0.0013
1767.00,0.0014
1766.00,0.0014
1765.00,0.0014
1764.00,0.0014
1763.00,0.0016
1762.00,0.0017
1761.00,0.0019
1760.00,0.0020
1759.00,0.0022
1758.00,0.0023
1757.00,0.0026
1756.00,0.0028
1755.00,0.0029
1754.00,0.0031
1753.00,0.0033
1752.00,0.0036
1751.00,0.0039
1750.00,0.0042
1749.00,0.0044
1748.00,0.0046
1747.00,0.0047
1746.00,0.0048
1745.00,0.0049
1744.00,0.0049
1743.00,0.0048
1742.00,0.0048
1741.00,0.0048
1740.00,0.0048
1739.00,0.0048
1738.00,0.0046
1737.00,0.0044
1736.00,0.0043
1735.00,0.0043
1734.00,0.0044
1733.00,0.0044
1732.00,0.0044
1731.00,0.0043
1730.00,0.0042
1729.00,0.0041
1728.00,0.0040
1727.00,0.0039
1726.00,0.0038
1725.00,0.0037
1724.00,0.0037
1723.00,0.0037
1722.00,0.0036
1721.00,0.0036
1720.00,0.0036
1719.00,0.0036
1718.00,0.0036
1717.00,0.0036
1716.00,0.0037
1715.00,0.0037
1714.00,0.0037
1713.00,0.0037
1712.00,0.0037
1711.00,0.0038
1710.00,0.0038
1709.00,0.0038
1708.00,0.0039
1707.00,0.0040
1706.00,0.0041
1705.00,0.0042
1704.00,0.0042
1703.00,0.0042
1702.00,0.0043
1701.00,0.0046
1700.00,0.0048
1699.00,0.0048
1698.00,0.0047
1697.00,0.0048
1696.00,0.0051
1695.00,0.0055
1694.00,0.0057
1693.00,0.0058
1692.00,0.0059
1691.00,0.0060
1690.00,0.0062
1689.00,0.0064
1688.00,0.0064
1687.00,0.0065
1686.00,0.0067
1685.00,0.0071
1684.00,0.0075
1683.00,0.0078
1682.00,0.0080
1681.00,0.0080
1680.00,0.0081
1679.00,0.0081
1678.00,0.0082
1677.00,0.0084
1676.00,0.0088
1675.00,0.0090
1674.00,0.0092
1673.00,0.0093
1672.00,0.0095
1671.00,0.0096
1670.00,0.0099
1669.00,0.0101
1668.00,0.0103
1667.00,0.0104
1666.00,0.0105
1665.00,0.0106
1664.00,0.0107
1663.00,0.0108
1662.00,0.0109
1661.00,0.0110
1660.00,0.0111
1659.00,0.0112
1658.00,0.0112
1657.00,0.0112
1656.00,0.0112
1655.00,0.0113
1654.00,0.0114
1653.00,0.0114
1652.00,0.0114
1651.00,0.0113
1650.00,0.0112
1649.00,0.0111
1648.00,0.0110
1647.00,0.0108
1646.00,0.0107
1645.00,0.0107
1644.00,0.0107
1643.00,0.0106
1642.00,0.0104
1641.00,0.0103
1640.00,0.0103
1639.00,0.0102
1638.00,0.0101
1637.00,0.0101
1636.00,0.0100
1635.00,0.0099
1634.00,0.0099
1633.00,0.0098
1632.00,0.0097
1631.00,0.0096
1630.00,0.0096
1629.00,0.0095
1628.00,0.0093
1627.00,0.0092
1626.00,0.0091
1625.00,0.0090
1624.00,0.0089
1623.00,0.0088
1622.00,0.0087
1621.00,0.0086
1620.00,0.0085
1619.00,0.0083
1618.00,0.0082
1617.00,0.0081
1616.00,0.0080
1615.00,0.0080
1614.00,0.0080
1613.00,0.0080
1612.00,0.0080
1611.00,0.0079
1610.00,0.0079
1609.00,0.0078
1608.00,0.0078
1607.00,0.0078
1606.00,0.0077
1605.00,0.0077
1604.00,0.0077
1603.00,0.0077
1602.00,0.0077
1601.00,0.0077
1600.00,0.0077
1599.00,0.0077
1598.00,0.0077
1597.00,0.0077
1596.00,0.0077
1595.00,0.0077
1594.00,0.0077
1593.00,0.0078
1592.00,0.0079
1591.00,0.0079
1590.00,0.0080
1589.00,0.0081
1588.00,0.0081
1587.00,0.0082
1586.00,0.0082
1585.00,0.0084
1584.00,0.0085
1583.00,0.0086
1582.00,0.0087
1581.00,0.0089
1580.00,0.0091
1579.00,0.0093
1578.00,0.0093
1577.00,0.0094
1576.00,0.0094
1575.00,0.0094
1574.00,0.0093
1573.00,0.0092
1572.00,0.0091
1571.00,0.0091
1570.00,0.0090
1569.00,0.0089
1568.00,0.0088
1567.00,0.0087
1566.00,0.0087
1565.00,0.0087
1564.00,0.0088
1563.00,0.0088
1562.00,0.0089
1561.00,0.0091
1560.00,0.0094
1559.00,0.0093
1558.00,0.0093
1557.00,0.0094
1556.00,0.0094
1555.00,0.0095
1554.00,0.0096
1553.00,0.0099
1552.00,0.0101
1551.00,0.0103
1550.00,0.0104
1549.00,0.0106
1548.00,0.0107
1547.00,0.0109
1546.00,0.0112
1545.00,0.0115
1544.00,0.0116
1543.00,0.0117
1542.00,0.0116
1541.00,0.0114
1540.00,0.0111
1539.00,0.0110
1538.00,0.0109
1537.00,0.0108
1536.00,0.0106
1535.00,0.0104
1534.00,0.0101
1533.00,0.0098
1532.00,0.0095
1531.00,0.0093
1530.00,0.0092
1529.00,0.0092
1528.00,0.0092
1527.00,0.0090
1526.00,0.0088
1525.00,0.0087
1524.00,0.0085
1523.00,0.0084
1522.00,0.0083
1521.00,0.0084
1520.00,0.0086
1519.00,0.0087
1518.00,0.0087
1517.00,0.0087
1516.00,0.0086
1515.00,0.0085
1514.00,0.0084
1513.00,0.0084
1512.00,0.0085
1511.00,0.0085
1510.00,0.0084
1509.00,0.0083
1508.00,0.0082
1507.00,0.0080
1506.00,0.0080
1505.00,0.0081
1504.00,0.0081
1503.00,0.0081
1502.00,0.0081
1501.00,0.0083
1500.00,0.0085
1499.00,0.0086
1498.00,0.0087
1497.00,0.0089
1496.00,0.0092
1495.00,0.0094
1494.00,0.0095
1493.00,0.0097
1492.00,0.0101
1491.00,0.0104
1490.00,0.0108
1489.00,0.0111
1488.00,0.0115
1487.00,0.0119
1486.00,0.0124
1485.00,0.0129
1484.00,0.0136
1483.00,0.0143
1482.00,0.0151
1481.00,0.0161
1480.00,0.0172
1479.00,0.0184
1478.00,0.0197
1477.00,0.0213
1476.00,0.0231
1475.00,0.0251
1474.00,0.0280
1473.00,0.0331
1472.00,0.0397
1471.00,0.0465
1470.00,0.0530
1469.00,0.0596
1468.00,0.0666
1467.00,0.0742
1466.00,0.0825
1465.00,0.0913
1464.00,0.0992
1463.00,0.1051
1462.00,0.1093
1461.00,0.1126
1460.00,0.1153
1459.00,0.1175
1458.00,0.1197
1457.00,0.1218
1456.00,0.1231
1455.00,0.1233
1454.00,0.1229
1453.00,0.1219
1452.00,0.1200
1451.00,0.1168
1450.00,0.1119
1449.00,0.1047
1448.00,0.0952
1447.00,0.0850
1446.00,0.0757
1445.00,0.0677
1444.00,0.0608
1443.00,0.0553
1442.00,0.0511
1441.00,0.0484
1440.00,0.0467
1439.00,0.0460
1438.00,0.0461
1437.00,0.0462
1436.00,0.0451
1435.00,0.0423
1434.00,0.0384
1433.00,0.0337
1432.00,0.0290
1431.00,0.0248
1430.00,0.0216
1429.00,0.0193
1428.00,0.0177
1427.00,0.0167
1426.00,0.0160
1425.00,0.0154
1424.00,0.0148
1423.00,0.0144
1422.00,0.0141
1421.00,0.0139
1420.00,0.0136
1419.00,0.0133
1418.00,0.0128
1417.00,0.0123
1416.00,0.0118
1415.00,0.0114
1414.00,0.0111
1413.00,0.0107
1412.00,0.0101
1411.00,0.0096
1410.00,0.0091
1409.00,0.0086
1408.00,0.0081
1407.00,0.0078
1406.00,0.0074
1405.00,0.0068
1404.00,0.0061
1403.00,0.0054
1402.00,0.0049
1401.00,0.0043
1400.00,0.0037
1399.00,0.0031
1398.00,0.0026
1397.00,0.0021
1396.00,0.0016
1395.00,0.0014
1394.00,0.0014
1393.00,0.0017
1392.00,0.0022
1391.00,0.0030
1390.00,0.0043
1389.00,0.0059
1388.00,0.0084
1387.00,0.0120
1386.00,0.0168
1385.00,0.0229
1384.00,0.0309
1383.00,0.0418
1382.00,0.0562
1381.00,0.0748
1380.00,0.0980
1379.00,0.1248
1378.00,0.1513
1377.00,0.1718
1376.00,0.1806
1375.00,0.1736
1374.00,0.1529
1373.00,0.1262
1372.00,0.1010
1371.00,0.0799
1370.00,0.0630
1369.00,0.0502
1368.00,0.0414
1367.00,0.0361
1366.00,0.0335
1365.00,0.0327
1364.00,0.0333
1363.00,0.0351
1362.00,0.0376
1361.00,0.0402
1360.00,0.0422
1359.00,0.0428
1358.00,0.0417
1357.00,0.0391
1356.00,0.0353
1355.00,0.0311
1354.00,0.0271
1353.00,0.0236
1352.00,0.0208
1351.00,0.0186
1350.00,0.0169
1349.00,0.0154
1348.00,0.0143
1347.00,0.0135
1346.00,0.0127
1345.00,0.0122
1344.00,0.0118
1343.00,0.0115
1342.00,0.0113
1341.00,0.0112
1340.00,0.0111
1339.00,0.0109
1338.00,0.0108
1337.00,0.0108
1336.00,0.0109
1335.00,0.0111
1334.00,0.0115
1333.00,0.0120
1332.00,0.0125
1331.00,0.0130
1330.00,0.0133
1329.00,0.0133
1328.00,0.0131
1327.00,0.0126
1326.00,0.0121
1325.00,0.0115
1324.00,0.0110
1323.00,0.0105
1322.00,0.0102
1321.00,0.0100
1320.00,0.0098
1319.00,0.0097
1318.00,0.0096
1317.00,0.0095
1316.00,0.0094
1315.00,0.0093
1314.00,0.0093
1313.00,0.0093
1312.00,0.0095
1311.00,0.0098
1310.00,0.0103
1309.00,0.0110
1308.00,0.0121
1307.00,0.0134
1306.00,0.0147
1305.00,0.0155
1304.00,0.0158
1303.00,0.0155
1302.00,0.0150
1301.00,0.0144
1300.00,0.0141
1299.00,0.0139
1298.00,0.0139
1297.00,0.0139
1296.00,0.0137
1295.00,0.0134
1294.00,0.0129
1293.00,0.0124
1292.00,0.0117
1291.00,0.0111
1290.00,0.0106
1289.00,0.0101
1288.00,0.0097
1287.00,0.0093
1286.00,0.0090
1285.00,0.0086
1284.00,0.0083
1283.00,0.0080
1282.00,0.0078
1281.00,0.0076
1280.00,0.0073
1279.00,0.0070
1278.00,0.0067
1277.00,0.0064
1276.00,0.0061
1275.00,0.0058
1274.00,0.0055
1273.00,0.0051
1272.00,0.0048
1271.00,0.0044
1270.00,0.0042
1269.00,0.0040
1268.00,0.0038
1267.00,0.0038
1266.00,0.0038
1265.00,0.0039
1264.00,0.0040
1263.00,0.0042
1262.00,0.0045
1261.00,0.0049
1260.00,0.0055
1259.00,0.0061
1258.00,0.0067
1257.00,0.0071
1256.00,0.0072
1255.00,0.0068
1254.00,0.0059
1253.00,0.0048
1252.00,0.0037
1251.00,0.0030
1250.00,0.0026
1249.00,0.0025
1248.00,0.0026
1247.00,0.0026
1246.00,0.0028
1245.00,0.0029
1244.00,0.0030
1243.00,0.0031
1242.00,0.0031
1241.00,0.0031
1240.00,0.0030
1239.00,0.0031
1238.00,0.0031
1237.00,0.0033
1236.00,0.0034
1235.00,0.0037
1234.00,0.0040
1233.00,0.0043
1232.00,0.0046
1231.00,0.0050
1230.00,0.0053
1229.00,0.0057
1228.00,0.0061
1227.00,0.0065
1226.00,0.0071
1225.00,0.0076
1224.00,0.0081
1223.00,0.0087
1222.00,0.0092
1221.00,0.0097
1220.00,0.0100
1219.00,0.0103
1218.00,0.0103
1217.00,0.0103
1216.00,0.0101
1215.00,0.0099
1214.00,0.0097
1213.00,0.0094
1212.00,0.0091
1211.00,0.0088
1210.00,0.0086
1209.00,0.0085
1208.00,0.0083
1207.00,0.0083
1206.00,0.0082
1205.00,0.0082
1204.00,0.0081
1203.00,0.0081
1202.00,0.0080
1201.00,0.0080
1200.00,0.0079
1199.00,0.0077
1198.00,0.0076
1197.00,0.0075
1196.00,0.0074
1195.00,0.0074
1194.00,0.0073
1193.00,0.0072
1192.00,0.0070
1191.00,0.0068
1190.00,0.0066
1189.00,0.0063
1188.00,0.0061
1187.00,0.0058
1186.00,0.0056
1185.00,0.0053
1184.00,0.0051
1183.00,0.0048
1182.00,0.0046
1181.00,0.0044
1180.00,0.0044
1179.00,0.0045
1178.00,0.0049
1177.00,0.0056
1176.00,0.0066
1175.00,0.0079
1174.00,0.0098
1173.00,0.0122
1172.00,0.0151
1171.00,0.0184
1170.00,0.0217
1169.00,0.0243
1168.00,0.0258
1167.00,0.0259
1166.00,0.0249
1165.00,0.0229
1164.00,0.0205
1163.00,0.0181
1162.00,0.0159
1161.00,0.0140
1160.00,0.0125
1159.00,0.0112
1158.00,0.0101
1157.00,0.0093
1156.00,0.0086
1155.00,0.0082
1154.00,0.0078
1153.00,0.0073
1152.00,0.0068
1151.00,0.0062
1150.00,0.0054
1149.00,0.0046
1148.00,0.0039
1147.00,0.0033
1146.00,0.0028
1145.00,0.0024
1144.00,0.0019
1143.00,0.0015
1142.00,0.0011
1141.00,0.0007
1140.00,0.0003
1139.00,0.0000
1138.00,-0.0001
1137.00,-0.0002
1136.00,-0.0001
1135.00,-0.0000
1134.00,0.0001
1133.00,0.0003
1132.00,0.0004
1131.00,0.0006
1130.00,0.0009
1129.00,0.0012
1128.00,0.0016
1127.00,0.0020
1126.00,0.0023
1125.00,0.0026
1124.00,0.0028
1123.00,0.0031
1122.00,0.0034
1121.00,0.0038
1120.00,0.0041
1119.00,0.0044
1118.00,0.0047
1117.00,0.0050
1116.00,0.0052
1115.00,0.0055
1114.00,0.0059
1113.00,0.0062
1112.00,0.0065
1111.00,0.0070
1110.00,0.0076
1109.00,0.0082
1108.00,0.0088
1107.00,0.0094
1106.00,0.0101
1105.00,0.0108
1104.00,0.0114
1103.00,0.0117
1102.00,0.0116
1101.00,0.0111
1100.00,0.0103
1099.00,0.0094
1098.00,0.0084
1097.00,0.0075
1096.00,0.0066
1095.00,0.0057
1094.00,0.0050
1093.00,0.0043
1092.00,0.0037
1091.00,0.0032
1090.00,0.0026
1089.00,0.0021
1088.00,0.0017
1087.00,0.0014
1086.00,0.0012
1085.00,0.0009
1084.00,0.0007
1083.00,0.0005
1082.00,0.0003
1081.00,0.0001
1080.00,-0.0001
1079.00,-0.0003
1078.00,-0.0004
1077.00,-0.0005
1076.00,-0.0006
1075.00,-0.0007
1074.00,-0.0009
1073.00,-0.0009
1072.00,-0.0009
1071.00,-0.0008
1070.00,-0.0007
1069.00,-0.0005
1068.00,-0.0002
1067.00,0.0003
1066.00,0.0008
1065.00,0.0012
1064.00,0.0016
1063.00,0.0019
1062.00,0.0021
1061.00,0.0023
1060.00,0.0026
1059.00,0.0028
1058.00,0.0032
1057.00,0.0035
1056.00,0.0039
1055.00,0.0044
1054.00,0.0049
1053.00,0.0053
1052.00,0.0058
1051.00,0.0062
1050.00,0.0068
1049.00,0.0074
1048.00,0.0081
1047.00,0.0087
1046.00,0.0092
1045.00,0.0097
1044.00,0.0099
1043.00,0.0100
1042.00,0.0099
1041.00,0.0098
1040.00,0.0097
1039.00,0.0098
1038.00,0.0100
1037.00,0.0102
1036.00,0.0103
1035.00,0.0104
1034.00,0.0103
1033.00,0.0102
1032.00,0.0101
1031.00,0.0101
1030.00,0.0102
1029.00,0.0102
1028.00,0.0102
1027.00,0.0102
1026.00,0.0101
1025.00,0.0101
1024.00,0.0101
1023.00,0.0100
1022.00,0.0100
1021.00,0.0101
1020.00,0.0102
1019.00,0.0103
1018.00,0.0104
1017.00,0.0106
1016.00,0.0108
1015.00,0.0111
1014.00,0.0114
1013.00,0.0118
1012.00,0.0123
1011.00,0.0128
1010.00,0.0132
1009.00,0.0135
1008.00,0.0139
1007.00,0.0145
1006.00,0.0154
1005.00,0.0167
1004.00,0.0185
1003.00,0.0209
1002.00,0.0241
1001.00,0.0279
1000.00,0.0321
999.00,0.0357
998.00,0.0376
997.00,0.0370
996.00,0.0341
995.00,0.0298
994.00,0.0252
993.00,0.0212
992.00,0.0181
991.00,0.0158
990.00,0.0141
989.00,0.0129
988.00,0.0121
987.00,0.0116
986.00,0.0113
985.00,0.0113
984.00,0.0116
983.00,0.0122
982.00,0.0131
981.00,0.0144
980.00,0.0162
979.00,0.0187
978.00,0.0218
977.00,0.0256
976.00,0.0297
975.00,0.0337
974.00,0.0366
973.00,0.0374
972.00,0.0355
971.00,0.0310
970.00,0.0249
969.00,0.0187
968.00,0.0133
967.00,0.0091
966.00,0.0060
965.00,0.0039
964.00,0.0024
963.00,0.0012
962.00,0.0003
961.00,-0.0007
960.00,-0.0017
959.00,-0.0028
958.00,-0.0036
957.00,-0.0043
956.00,-0.0047
955.00,-0.0049
954.00,-0.0051
953.00,-0.0051
952.00,-0.0050
951.00,-0.0047
950.00,-0.0044
949.00,-0.0041
948.00,-0.0037
947.00,-0.0032
946.00,-0.0027
945.00,-0.0022
944.00,-0.0019
943.00,-0.0015
942.00,-0.0011
941.00,-0.0006
940.00,-0.0003
939.00,-0.0001
938.00,-0.0001
937.00,-0.0001
936.00,0.0000
935.00,0.0003
934.00,0.0008
933.00,0.0013
932.00,0.0017
931.00,0.0022
930.00,0.0025
929.00,0.0029
928.00,0.0033
927.00,0.0037
926.00,0.0041
925.00,0.0045
924.00,0.0048
923.00,0.0052
922.00,0.0055
921.00,0.0059
920.00,0.0061
919.00,0.0064
918.00,0.0066
917.00,0.0067
916.00,0.0069
915.00,0.0071
914.00,0.0073
913.00,0.0075
912.00,0.0076
911.00,0.0077
910.00,0.0078
909.00,0.0081
908.00,0.0083
907.00,0.0088
906.00,0.0095
905.00,0.0105
904.00,0.0120
903.00,0.0139
902.00,0.0159
901.00,0.0178
900.00,0.0192
899.00,0.0197
898.00,0.0190
897.00,0.0175
896.00,0.0154
895.00,0.0134
894.00,0.0117
893.00,0.0104
892.00,0.0094
891.00,0.0088
890.00,0.0084
889.00,0.0082
888.00,0.0081
887.00,0.0081
886.00,0.0081
885.00,0.0081
884.00,0.0081
883.00,0.0082
882.00,0.0082
881.00,0.0083
880.00,0.0083
879.00,0.0083
878.00,0.0083
877.00,0.0083
876.00,0.0082
875.00,0.0083
874.00,0.0083
873.00,0.0083
872.00,0.0083
871.00,0.0083
870.00,0.0082
869.00,0.0082
868.00,0.0082
867.00,0.0082
866.00,0.0083
865.00,0.0083
864.00,0.0083
863.00,0.0084
862.00,0.0085
861.00,0.0087
860.00,0.0090
859.00,0.0093
858.00,0.0095
857.00,0.0095
856.00,0.0095
855.00,0.0096
854.00,0.0097
853.00,0.0099
852.00,0.0103
851.00,0.0107
850.00,0.0113
849.00,0.0121
848.00,0.0132
847.00,0.0148
846.00,0.0173
845.00,0.0209
844.00,0.0256
843.00,0.0309
842.00,0.0352
841.00,0.0365
840.00,0.0343
839.00,0.0295
838.00,0.0241
837.00,0.0196
836.00,0.0166
835.00,0.0146
834.00,0.0133
833.00,0.0125
832.00,0.0120
831.00,0.0116
830.00,0.0111
829.00,0.0106
828.00,0.0103
827.00,0.0102
826.00,0.0102
825.00,0.0102
824.00,0.0102
823.00,0.0101
822.00,0.0100
821.00,0.0100
820.00,0.0100
819.00,0.0102
818.00,0.0104
817.00,0.0108
816.00,0.0116
815.00,0.0127
814.00,0.0142
813.00,0.0159
812.00,0.0177
811.00,0.0193
810.00,0.0206
809.00,0.0213
808.00,0.0212
807.00,0.0202
806.00,0.0187
805.00,0.0170
804.00,0.0155
803.00,0.0142
802.00,0.0131
801.00,0.0123
800.00,0.0115
799.00,0.0110
798.00,0.0105
797.00,0.0102
796.00,0.0099
795.00,0.0096
794.00,0.0094
793.00,0.0093
792.00,0.0093
791.00,0.0093
790.00,0.0093
789.00,0.0091
788.00,0.0089
787.00,0.0086
786.00,0.0084
785.00,0.0081
784.00,0.0078
783.00,0.0076
782.00,0.0075
781.00,0.0075
780.00,0.0074
779.00,0.0074
778.00,0.0074
777.00,0.0074
776.00,0.0074
775.00,0.0076
774.00,0.0078
773.00,0.0080
772.00,0.0084
771.00,0.0087
770.00,0.0090
769.00,0.0091
768.00,0.0090
767.00,0.0089
766.00,0.0088
765.00,0.0086
764.00,0.0084
763.00,0.0082
762.00,0.0079
761.00,0.0077
760.00,0.0074
759.00,0.0073
758.00,0.0071
757.00,0.0068
756.00,0.0066
755.00,0.0063
754.00,0.0062
753.00,0.0062
752.00,0.0062
751.00,0.0062
750.00,0.0063
749.00,0.0065
748.00,0.0066
747.00,0.0068
746.00,0.0070
745.00,0.0071
744.00,0.0071
743.00,0.0071
742.00,0.0072
741.00,0.0073
740.00,0.0075
739.00,0.0077
738.00,0.0079
737.00,0.0081
736.00,0.0082
735.00,0.0084
734.00,0.0086
733.00,0.0087
732.00,0.0087
731.00,0.0088
730.00,0.0088
729.00,0.0088
728.00,0.0088
727.00,0.0088
726.00,0.0088
725.00,0.0087
724.00,0.0085
723.00,0.0084
722.00,0.0084
721.00,0.0084
720.00,0.0084
719.00,0.0082
718.00,0.0079
717.00,0.0076
716.00,0.0074
715.00,0.0073
714.00,0.0074
713.00,0.0075
712.00,0.0075
711.00,0.0073
710.00,0.0071
709.00,0.0069
708.00,0.0069
707.00,0.0070
706.00,0.0071
705.00,0.0073
704.00,0.0073
703.00,0.0071
702.00,0.0070
701.00,0.0069
700.00,0.0068
699.00,0.0067
698.00,0.0067
697.00,0.0066
696.00,0.0065
695.00,0.0064
694.00,0.0064
693.00,0.0064
692.00,0.0065
691.00,0.0065
690.00,0.0065
689.00,0.0065
688.00,0.0064
687.00,0.0064
686.00,0.0064
685.00,0.0065
684.00,0.0065
683.00,0.0066
682.00,0.0066
681.00,0.0067
680.00,0.0067
679.00,0.0067
678.00,0.0068
677.00,0.0068
676.00,0.0068
675.00,0.0067
674.00,0.0065
673.00,0.0064
672.00,0.0064
671.00,0.0064
670.00,0.0064
669.00,0.0064
668.00,0.0064
667.00,0.0066
666.00,0.0068
665.00,0.0068
664.00,0.0067
663.00,0.0067
662.00,0.0067
661.00,0.0069
660.00,0.0070
659.00,0.0070
658.00,0.0069
657.00,0.0066
656.00,0.0063
655.00,0.0060
654.00,0.0058
653.00,0.0058
652.00,0.0060
651.00,0.0062
650.00,0.0064
649.00,0.0063
648.00,0.0062
647.00,0.0061
646.00,0.0062
645.00,0.0063
644.00,0.0064
643.00,0.0065
642.00,0.0065
641.00,0.0064
640.00,0.0063
639.00,0.0061
638.00,0.0061
637.00,0.0062
636.00,0.0063
635.00,0.0065
634.00,0.0066
633.00,0.0068
632.00,0.0069
631.00,0.0069
630.00,0.0067
629.00,0.0065
628.00,0.0064
627.00,0.0063
626.00,0.0064
625.00,0.0065
624.00,0.0066
623.00,0.0068
622.00,0.0070
621.00,0.0070
620.00,0.0070
619.00,0.0069
618.00,0.0068
617.00,0.0068
616.00,0.0068
615.00,0.0069
614.00,0.0071
613.00,0.0072
612.00,0.0073
611.00,0.0073
610.00,0.0074
609.00,0.0074
608.00,0.0073
607.00,0.0072
606.00,0.0071
605.00,0.0070
604.00,0.0069
603.00,0.0067
602.00,0.0066
601.00,0.0067
600.00,0.0069
599.00,0.0070
598.00,0.0071
597.00,0.0070
596.00,0.0070
595.00,0.0070
594.00,0.0070
593.00,0.0071
592.00,0.0070
591.00,0.0070
590.00,0.0070
589.00,0.0072
588.00,0.0074
587.00,0.0074
586.00,0.0074
585.00,0.0074
584.00,0.0076
583.00,0.0078
582.00,0.0081
581.00,0.0083
580.00,0.0082
579.00,0.0079
578.00,0.0077
577.00,0.0076
576.00,0.0076
575.00,0.0076
574.00,0.0076
573.00,0.0075
572.00,0.0076
571.00,0.0075
570.00,0.0074
569.00,0.0072
568.00,0.0070
567.00,0.0069
566.00,0.0070
565.00,0.0070
564.00,0.0070
563.00,0.0071
562.00,0.0073
561.00,0.0076
560.00,0.0078
559.00,0.0079
558.00,0.0080
557.00,0.0080
556.00,0.0081
555.00,0.0080
554.00,0.0076
553.00,0.0073
552.00,0.0071
551.00,0.0071
550.00,0.0071
549.00,0.0070
548.00,0.0069
547.00,0.0069
546.00,0.0070
545.00,0.0070
544.00,0.0069
543.00,0.0069
542.00,0.0071
541.00,0.0076
540.00,0.0081
539.00,0.0085
538.00,0.0087
537.00,0.0088
536.00,0.0086
535.00,0.0085
534.00,0.0086
533.00,0.0088
532.00,0.0091
531.00,0.0092
530.00,0.0093
529.00,0.0095
528.00,0.0097
527.00,0.0097
526.00,0.0097
525.00,0.0096
524.00,0.0094
523.00,0.0091
522.00,0.0087
521.00,0.0084
520.00,0.0083
519.00,0.0085
518.00,0.0085
517.00,0.0080
516.00,0.0071
515.00,0.0063
514.00,0.0059
513.00,0.0061
512.00,0.0069
511.00,0.0077
510.00,0.0083
509.00,0.0084
508.00,0.0081
507.00,0.0073
506.00,0.0067
505.00,0.0064
504.00,0.0066
503.00,0.0069
502.00,0.0071
501.00,0.0067
500.00,0.0061
499.00,0.0057
498.00,0.0059
497.00,0.0069
496.00,0.0080
495.00,0.0088
494.00,0.0089
493.00,0.0084
492.00,0.0079
491.00,0.0076
490.00,0.0074
489.00,0.0072
488.00,0.0071
487.00,0.0072
486.00,0.0074
485.00,0.0075
484.00,0.0073
483.00,0.0067
482.00,0.0057
481.00,0.0044
480.00,0.0035
479.00,0.0033
478.00,0.0043
477.00,0.0060
476.00,0.0074
475.00,0.0079
474.00,0.0080
473.00,0.0081
472.00,0.0086
471.00,0.0088
470.00,0.0082
469.00,0.0070
468.00,0.0063
467.00,0.0068
466.00,0.0083
465.00,0.0102
464.00,0.0115
463.00,0.0122
462.00,0.0124
461.00,0.0122
460.00,0.0123
459.00,0.0128
458.00,0.0136
457.00,0.0136
456.00,0.0126
455.00,0.0111
454.00,0.0103
453.00,0.0104
452.00,0.0107
451.00,0.0105
450.00,0.0098
