Created as New Dataset,Sample 012 By Administrator Date Friday, September 05 2025
cm-1,A
4000.00,0.0033
3999.00,0.0033
3998.00,0.0033
3997.00,0.0033
3996.00,0.0033
3995.00,0.0033
3994.00,0.0033
3993.00,0.0033
3992.00,0.0033
3991.00,0.0033
3990.00,0.0033
3989.00,0.0033
3988.00,0.0033
3987.00,0.0033
3986.00,0.0032
3985.00,0.0032
3984.00,0.0032
3983.00,0.0031
3982.00,0.0031
3981.00,0.0032
3980.00,0.0032
3979.00,0.0032
3978.00,0.0032
3977.00,0.0032
3976.00,0.0032
3975.00,0.0032
3974.00,0.0032
3973.00,0.0032
3972.00,0.0032
3971.00,0.0032
3970.00,0.0032
3969.00,0.0032
3968.00,0.0032
3967.00,0.0031
3966.00,0.0031
3965.00,0.0031
3964.00,0.0031
3963.00,0.0031
3962.00,0.0031
3961.00,0.0032
3960.00,0.0032
3959.00,0.0032
3958.00,0.0031
3957.00,0.0031
3956.00,0.0031
3955.00,0.0031
3954.00,0.0031
3953.00,0.0031
3952.00,0.0031
3951.00,0.0031
3950.00,0.0030
3949.00,0.0030
3948.00,0.0030
3947.00,0.0031
3946.00,0.0031
3945.00,0.0031
3944.00,0.0032
3943.00,0.0032
3942.00,0.0031
3941.00,0.0031
3940.00,0.0031
3939.00,0.0031
3938.00,0.0031
3937.00,0.0031
3936.00,0.0031
3935.00,0.0031
3934.00,0.0031
3933.00,0.0031
3932.00,0.0031
3931.00,0.0031
3930.00,0.0031
3929.00,0.0031
3928.00,0.0031
3927.00,0.0031
3926.00,0.0031
3925.00,0.0031
3924.00,0.0031
3923.00,0.0031
3922.00,0.0031
3921.00,0.0031
3920.00,0.0030
3919.00,0.0030
3918.00,0.0030
3917.00,0.0030
3916.00,0.0030
3915.00,0.0030
3914.00,0.0031
3913.00,0.0031
3912.00,0.0031
3911.00,0.0031
3910.00,0.0031
3909.00,0.0030
3908.00,0.0030
3907.00,0.0030
3906.00,0.0030
3905.00,0.0029
3904.00,0.0028
3903.00,0.0028
3902.00,0.0028
3901.00,0.0028
3900.00,0.0029
3899.00,0.0029
3898.00,0.0030
3897.00,0.0030
3896.00,0.0029
3895.00,0.0029
3894.00,0.0029
3893.00,0.0029
3892.00,0.0030
3891.00,0.0030
3890.00,0.0030
3889.00,0.0030
3888.00,0.0029
3887.00,0.0029
3886.00,0.0029
3885.00,0.0029
3884.00,0.0029
3883.00,0.0029
3882.00,0.0029
3881.00,0.0029
3880.00,0.0029
3879.00,0.0029
3878.00,0.0029
3877.00,0.0029
3876.00,0.0029
3875.00,0.0029
3874.00,0.0029
3873.00,0.0029
3872.00,0.0028
3871.00,0.0028
3870.00,0.0029
3869.00,0.0029
3868.00,0.0029
3867.00,0.0028
3866.00,0.0028
3865.00,0.0029
3864.00,0.0029
3863.00,0.0029
3862.00,0.0029
3861.00,0.0028
3860.00,0.0028
3859.00,0.0028
3858.00,0.0028
3857.00,0.0028
3856.00,0.0028
3855.00,0.0028
3854.00,0.0028
3853.00,0.0028
3852.00,0.0028
3851.00,0.0028
3850.00,0.0028
3849.00,0.0028
3848.00,0.0028
3847.00,0.0028
3846.00,0.0028
3845.00,0.0028
3844.00,0.0028
3843.00,0.0027
3842.00,0.0027
3841.00,0.0027
3840.00,0.0027
3839.00,0.0027
3838.00,0.0028
3837.00,0.0028
3836.00,0.0028
3835.00,0.0028
3834.00,0.0028
3833.00,0.0028
3832.00,0.0028
3831.00,0.0028
3830.00,0.0028
3829.00,0.0028
3828.00,0.0028
3827.00,0.0028
3826.00,0.0027
3825.00,0.0027
3824.00,0.0026
3823.00,0.0026
3822.00,0.0027
3821.00,0.0027
3820.00,0.0027
3819.00,0.0027
3818.00,0.0027
3817.00,0.0027
3816.00,0.0027
3815.00,0.0028
3814.00,0.0028
3813.00,0.0028
3812.00,0.0028
3811.00,0.0028
3810.00,0.0029
3809.00,0.0029
3808.00,0.0029
3807.00,0.0029
3806.00,0.0028
3805.00,0.0028
3804.00,0.0027
3803.00,0.0026
3802.00,0.0026
3801.00,0.0027
3800.00,0.0027
3799.00,0.0028
3798.00,0.0028
3797.00,0.0028
3796.00,0.0029
3795.00,0.0029
3794.00,0.0029
3793.00,0.0029
3792.00,0.0030
3791.00,0.0030
3790.00,0.0030
3789.00,0.0030
3788.00,0.0030
3787.00,0.0030
3786.00,0.0029
3785.00,0.0029
3784.00,0.0029
3783.00,0.0029
3782.00,0.0029
3781.00,0.0030
3780.00,0.0030
3779.00,0.0030
3778.00,0.0030
3777.00,0.0030
3776.00,0.0030
3775.00,0.0030
3774.00,0.0030
3773.00,0.0030
3772.00,0.0030
3771.00,0.0029
3770.00,0.0030
3769.00,0.0030
3768.00,0.0030
3767.00,0.0031
3766.00,0.0031
3765.00,0.0031
3764.00,0.0031
3763.00,0.0031
3762.00,0.0031
3761.00,0.0030
3760.00,0.0030
3759.00,0.0030
3758.00,0.0029
3757.00,0.0029
3756.00,0.0028
3755.00,0.0027
3754.00,0.0026
3753.00,0.0026
3752.00,0.0025
3751.00,0.0025
3750.00,0.0025
3749.00,0.0025
3748.00,0.0025
3747.00,0.0026
3746.00,0.0026
3745.00,0.0027
3744.00,0.0028
3743.00,0.0028
3742.00,0.0027
3741.00,0.0027
3740.00,0.0026
3739.00,0.0025
3738.00,0.0025
3737.00,0.0025
3736.00,0.0025
3735.00,0.0025
3734.00,0.0025
3733.00,0.0026
3732.00,0.0026
3731.00,0.0027
3730.00,0.0027
3729.00,0.0027
3728.00,0.0027
3727.00,0.0027
3726.00,0.0027
3725.00,0.0027
3724.00,0.0026
3723.00,0.0026
3722.00,0.0027
3721.00,0.0027
3720.00,0.0027
3719.00,0.0027
3718.00,0.0027
3717.00,0.0027
3716.00,0.0026
3715.00,0.0026
3714.00,0.0027
3713.00,0.0027
3712.00,0.0028
3711.00,0.0028
3710.00,0.0028
3709.00,0.0027
3708.00,0.0027
3707.00,0.0027
3706.00,0.0027
3705.00,0.0027
3704.00,0.0026
3703.00,0.0026
3702.00,0.0026
3701.00,0.0026
3700.00,0.0026
3699.00,0.0026
3698.00,0.0026
3697.00,0.0026
3696.00,0.0026
3695.00,0.0026
3694.00,0.0026
3693.00,0.0026
3692.00,0.0026
3691.00,0.0026
3690.00,0.0025
3689.00,0.0024
3688.00,0.0022
3687.00,0.0021
3686.00,0.0020
3685.00,0.0018
3684.00,0.0017
3683.00,0.0016
3682.00,0.0015
3681.00,0.0013
3680.00,0.0011
3679.00,0.0009
3678.00,0.0006
3677.00,0.0004
3676.00,0.0001
3675.00,-0.0000
3674.00,-0.0002
3673.00,-0.0003
3672.00,-0.0004
3671.00,-0.0004
3670.00,-0.0004
3669.00,-0.0004
3668.00,-0.0004
3667.00,-0.0005
3666.00,-0.0006
3665.00,-0.0006
3664.00,-0.0007
3663.00,-0.0008
3662.00,-0.0009
3661.00,-0.0009
3660.00,-0.0010
3659.00,-0.0010
3658.00,-0.0010
3657.00,-0.0009
3656.00,-0.0008
3655.00,-0.0008
3654.00,-0.0007
3653.00,-0.0007
3652.00,-0.0007
3651.00,-0.0007
3650.00,-0.0007
3649.00,-0.0007
3648.00,-0.0006
3647.00,-0.0005
3646.00,-0.0003
3645.00,-0.0002
3644.00,-0.0000
3643.00,0.0002
3642.00,0.0004
3641.00,0.0005
3640.00,0.0005
3639.00,0.0005
3638.00,0.0005
3637.00,0.0006
3636.00,0.0009
3635.00,0.0012
3634.00,0.0015
3633.00,0.0017
3632.00,0.0018
3631.00,0.0018
3630.00,0.0019
3629.00,0.0020
3628.00,0.0021
3627.00,0.0022
3626.00,0.0023
3625.00,0.0023
3624.00,0.0024
3623.00,0.0024
3622.00,0.0025
3621.00,0.0025
3620.00,0.0026
3619.00,0.0026
3618.00,0.0026
3617.00,0.0026
3616.00,0.0026
3615.00,0.0026
3614.00,0.0027
3613.00,0.0028
3612.00,0.0028
3611.00,0.0029
3610.00,0.0030
3609.00,0.0031
3608.00,0.0032
3607.00,0.0032
3606.00,0.0032
3605.00,0.0032
3604.00,0.0033
3603.00,0.0033
3602.00,0.0034
3601.00,0.0034
3600.00,0.0034
3599.00,0.0034
3598.00,0.0035
3597.00,0.0035
3596.00,0.0035
3595.00,0.0036
3594.00,0.0036
3593.00,0.0036
3592.00,0.0035
3591.00,0.0035
3590.00,0.0035
3589.00,0.0035
3588.00,0.0036
3587.00,0.0036
3586.00,0.0036
3585.00,0.0036
3584.00,0.0037
3583.00,0.0038
3582.00,0.0038
3581.00,0.0038
3580.00,0.0038
3579.00,0.0038
3578.00,0.0038
3577.00,0.0038
3576.00,0.0038
3575.00,0.0039
3574.00,0.0039
3573.00,0.0039
3572.00,0.0039
3571.00,0.0039
3570.00,0.0039
3569.00,0.0039
3568.00,0.0039
3567.00,0.0039
3566.00,0.0040
3565.00,0.0040
3564.00,0.0040
3563.00,0.0040
3562.00,0.0041
3561.00,0.0042
3560.00,0.0043
3559.00,0.0043
3558.00,0.0044
3557.00,0.0044
3556.00,0.0044
3555.00,0.0044
3554.00,0.0044
3553.00,0.0044
3552.00,0.0044
3551.00,0.0044
3550.00,0.0045
3549.00,0.0045
3548.00,0.0046
3547.00,0.0046
3546.00,0.0046
3545.00,0.0046
3544.00,0.0046
3543.00,0.0046
3542.00,0.0046
3541.00,0.0047
3540.00,0.0047
3539.00,0.0048
3538.00,0.0048
3537.00,0.0048
3536.00,0.0048
3535.00,0.0049
3534.00,0.0049
3533.00,0.0048
3532.00,0.0048
3531.00,0.0049
3530.00,0.0049
3529.00,0.0049
3528.00,0.0050
3527.00,0.0050
3526.00,0.0050
3525.00,0.0050
3524.00,0.0050
3523.00,0.0050
3522.00,0.0051
3521.00,0.0051
3520.00,0.0052
3519.00,0.0052
3518.00,0.0052
3517.00,0.0052
3516.00,0.0052
3515.00,0.0052
3514.00,0.0053
3513.00,0.0053
3512.00,0.0053
3511.00,0.0053
3510.00,0.0053
3509.00,0.0053
3508.00,0.0054
3507.00,0.0054
3506.00,0.0055
3505.00,0.0055
3504.00,0.0055
3503.00,0.0055
3502.00,0.0055
3501.00,0.0055
3500.00,0.0056
3499.00,0.0057
3498.00,0.0057
3497.00,0.0057
3496.00,0.0057
3495.00,0.0058
3494.00,0.0058
3493.00,0.0057
3492.00,0.0057
3491.00,0.0057
3490.00,0.0057
3489.00,0.0058
3488.00,0.0058
3487.00,0.0059
3486.00,0.0059
3485.00,0.0059
3484.00,0.0059
3483.00,0.0059
3482.00,0.0059
3481.00,0.0059
3480.00,0.0059
3479.00,0.0059
3478.00,0.0059
3477.00,0.0059
3476.00,0.0060
3475.00,0.0060
3474.00,0.0061
3473.00,0.0062
3472.00,0.0062
3471.00,0.0062
3470.00,0.0063
3469.00,0.0063
3468.00,0.0062
3467.00,0.0062
3466.00,0.0062
3465.00,0.0062
3464.00,0.0062
3463.00,0.0062
3462.00,0.0062
3461.00,0.0063
3460.00,0.0063
3459.00,0.0063
3458.00,0.0063
3457.00,0.0063
3456.00,0.0063
3455.00,0.0064
3454.00,0.0064
3453.00,0.0065
3452.00,0.0065
3451.00,0.0065
3450.00,0.0066
3449.00,0.0066
3448.00,0.0066
3447.00,0.0066
3446.00,0.0066
3445.00,0.0066
3444.00,0.0066
3443.00,0.0067
3442.00,0.0067
3441.00,0.0068
3440.00,0.0068
3439.00,0.0068
3438.00,0.0068
3437.00,0.0067
3436.00,0.0068
3435.00,0.0068
3434.00,0.0069
3433.00,0.0069
3432.00,0.0070
3431.00,0.0070
3430.00,0.0071
3429.00,0.0071
3428.00,0.0071
3427.00,0.0070
3426.00,0.0070
3425.00,0.0071
3424.00,0.0071
3423.00,0.0071
3422.00,0.0072
3421.00,0.0072
3420.00,0.0072
3419.00,0.0072
3418.00,0.0072
3417.00,0.0072
3416.00,0.0073
3415.00,0.0073
3414.00,0.0074
3413.00,0.0074
3412.00,0.0075
3411.00,0.0075
3410.00,0.0075
3409.00,0.0075
3408.00,0.0076
3407.00,0.0076
3406.00,0.0076
3405.00,0.0076
3404.00,0.0076
3403.00,0.0076
3402.00,0.0076
3401.00,0.0076
3400.00,0.0076
3399.00,0.0077
3398.00,0.0077
3397.00,0.0077
3396.00,0.0078
3395.00,0.0078
3394.00,0.0078
3393.00,0.0078
3392.00,0.0078
3391.00,0.0078
3390.00,0.0078
3389.00,0.0079
3388.00,0.0079
3387.00,0.0080
3386.00,0.0080
3385.00,0.0080
3384.00,0.0080
3383.00,0.0080
3382.00,0.0080
3381.00,0.0081
3380.00,0.0081
3379.00,0.0082
3378.00,0.0082
3377.00,0.0082
3376.00,0.0083
3375.00,0.0083
3374.00,0.0082
3373.00,0.0082
3372.00,0.0082
3371.00,0.0082
3370.00,0.0083
3369.00,0.0083
3368.00,0.0083
3367.00,0.0082
3366.00,0.0082
3365.00,0.0082
3364.00,0.0083
3363.00,0.0084
3362.00,0.0084
3361.00,0.0085
3360.00,0.0085
3359.00,0.0085
3358.00,0.0085
3357.00,0.0085
3356.00,0.0085
3355.00,0.0085
3354.00,0.0085
3353.00,0.0085
3352.00,0.0085
3351.00,0.0085
3350.00,0.0086
3349.00,0.0086
3348.00,0.0086
3347.00,0.0086
3346.00,0.0086
3345.00,0.0086
3344.00,0.0087
3343.00,0.0087
3342.00,0.0087
3341.00,0.0088
3340.00,0.0088
3339.00,0.0088
3338.00,0.0088
3337.00,0.0087
3336.00,0.0087
3335.00,0.0088
3334.00,0.0088
3333.00,0.0089
3332.00,0.0089
3331.00,0.0090
3330.00,0.0089
3329.00,0.0089
3328.00,0.0089
3327.00,0.0089
3326.00,0.0089
3325.00,0.0088
3324.00,0.0088
3323.00,0.0088
3322.00,0.0088
3321.00,0.0088
3320.00,0.0089
3319.00,0.0089
3318.00,0.0090
3317.00,0.0090
3316.00,0.0091
3315.00,0.0091
3314.00,0.0091
3313.00,0.0091
3312.00,0.0090
3311.00,0.0090
3310.00,0.0090
3309.00,0.0090
3308.00,0.0091
3307.00,0.0091
3306.00,0.0091
3305.00,0.0091
3304.00,0.0091
3303.00,0.0091
3302.00,0.0091
3301.00,0.0091
3300.00,0.0092
3299.00,0.0092
3298.00,0.0091
3297.00,0.0091
3296.00,0.0091
3295.00,0.0091
3294.00,0.0091
3293.00,0.0091
3292.00,0.0091
3291.00,0.0091
3290.00,0.0091
3289.00,0.0091
3288.00,0.0091
3287.00,0.0091
3286.00,0.0091
3285.00,0.0091
3284.00,0.0090
3283.00,0.0090
3282.00,0.0090
3281.00,0.0089
3280.00,0.0089
3279.00,0.0089
3278.00,0.0089
3277.00,0.0089
3276.00,0.0089
3275.00,0.0088
3274.00,0.0087
3273.00,0.0087
3272.00,0.0086
3271.00,0.0086
3270.00,0.0086
3269.00,0.0087
3268.00,0.0087
3267.00,0.0087
3266.00,0.0087
3265.00,0.0086
3264.00,0.0086
3263.00,0.0086
3262.00,0.0086
3261.00,0.0085
3260.00,0.0085
3259.00,0.0084
3258.00,0.0084
3257.00,0.0083
3256.00,0.0083
3255.00,0.0083
3254.00,0.0083
3253.00,0.0082
3252.00,0.0081
3251.00,0.0080
3250.00,0.0080
3249.00,0.0080
3248.00,0.0080
3247.00,0.0080
3246.00,0.0079
3245.00,0.0079
3244.00,0.0079
3243.00,0.0079
3242.00,0.0079
3241.00,0.0079
3240.00,0.0079
3239.00,0.0079
3238.00,0.0078
3237.00,0.0077
3236.00,0.0077
3235.00,0.0077
3234.00,0.0077
3233.00,0.0077
3232.00,0.0077
3231.00,0.0077
3230.00,0.0077
3229.00,0.0077
3228.00,0.0078
3227.00,0.0078
3226.00,0.0078
3225.00,0.0078
3224.00,0.0078
3223.00,0.0078
3222.00,0.0078
3221.00,0.0078
3220.00,0.0078
3219.00,0.0077
3218.00,0.0077
3217.00,0.0077
3216.00,0.0077
3215.00,0.0077
3214.00,0.0077
3213.00,0.0077
3212.00,0.0077
3211.00,0.0077
3210.00,0.0077
3209.00,0.0076
3208.00,0.0076
3207.00,0.0076
3206.00,0.0077
3205.00,0.0077
3204.00,0.0077
3203.00,0.0077
3202.00,0.0077
3201.00,0.0077
3200.00,0.0076
3199.00,0.0076
3198.00,0.0077
3197.00,0.0077
3196.00,0.0077
3195.00,0.0077
3194.00,0.0076
3193.00,0.0076
3192.00,0.0075
3191.00,0.0075
3190.00,0.0075
3189.00,0.0074
3188.00,0.0074
3187.00,0.0074
3186.00,0.0074
3185.00,0.0075
3184.00,0.0075
3183.00,0.0075
3182.00,0.0075
3181.00,0.0075
3180.00,0.0075
3179.00,0.0074
3178.00,0.0074
3177.00,0.0073
3176.00,0.0073
3175.00,0.0073
3174.00,0.0072
3173.00,0.0072
3172.00,0.0072
3171.00,0.0072
3170.00,0.0072
3169.00,0.0071
3168.00,0.0071
3167.00,0.0071
3166.00,0.0072
3165.00,0.0072
3164.00,0.0071
3163.00,0.0071
3162.00,0.0071
3161.00,0.0071
3160.00,0.0071
3159.00,0.0071
3158.00,0.0071
3157.00,0.0071
3156.00,0.0071
3155.00,0.0071
3154.00,0.0071
3153.00,0.0071
3152.00,0.0071
3151.00,0.0070
3150.00,0.0070
3149.00,0.0070
3148.00,0.0070
3147.00,0.0070
3146.00,0.0070
3145.00,0.0069
3144.00,0.0069
3143.00,0.0068
3142.00,0.0068
3141.00,0.0067
3140.00,0.0067
3139.00,0.0067
3138.00,0.0068
3137.00,0.0068
3136.00,0.0068
3135.00,0.0068
3134.00,0.0067
3133.00,0.0066
3132.00,0.0066
3131.00,0.0066
3130.00,0.0066
3129.00,0.0066
3128.00,0.0066
3127.00,0.0066
3126.00,0.0065
3125.00,0.0065
3124.00,0.0064
3123.00,0.0064
3122.00,0.0063
3121.00,0.0063
3120.00,0.0063
3119.00,0.0063
3118.00,0.0063
3117.00,0.0063
3116.00,0.0062
3115.00,0.0062
3114.00,0.0062
3113.00,0.0062
3112.00,0.0062
3111.00,0.0062
3110.00,0.0062
3109.00,0.0062
3108.00,0.0062
3107.00,0.0062
3106.00,0.0062
3105.00,0.0062
3104.00,0.0062
3103.00,0.0061
3102.00,0.0061
3101.00,0.0061
3100.00,0.0061
3099.00,0.0061
3098.00,0.0062
3097.00,0.0062
3096.00,0.0061
3095.00,0.0061
3094.00,0.0061
3093.00,0.0061
3092.00,0.0061
3091.00,0.0061
3090.00,0.0061
3089.00,0.0061
3088.00,0.0061
3087.00,0.0060
3086.00,0.0060
3085.00,0.0059
3084.00,0.0059
3083.00,0.0059
3082.00,0.0059
3081.00,0.0059
3080.00,0.0059
3079.00,0.0059
3078.00,0.0060
3077.00,0.0060
3076.00,0.0061
3075.00,0.0061
3074.00,0.0062
3073.00,0.0062
3072.00,0.0062
3071.00,0.0062
3070.00,0.0061
3069.00,0.0061
3068.00,0.0062
3067.00,0.0062
3066.00,0.0062
3065.00,0.0062
3064.00,0.0063
3063.00,0.0063
3062.00,0.0063
3061.00,0.0063
3060.00,0.0063
3059.00,0.0063
3058.00,0.0063
3057.00,0.0063
3056.00,0.0063
3055.00,0.0063
3054.00,0.0063
3053.00,0.0063
3052.00,0.0063
3051.00,0.0063
3050.00,0.0063
3049.00,0.0063
3048.00,0.0063
3047.00,0.0063
3046.00,0.0063
3045.00,0.0063
3044.00,0.0063
3043.00,0.0064
3042.00,0.0064
3041.00,0.0064
3040.00,0.0064
3039.00,0.0064
3038.00,0.0065
3037.00,0.0065
3036.00,0.0065
3035.00,0.0065
3034.00,0.0065
3033.00,0.0065
3032.00,0.0065
3031.00,0.0065
3030.00,0.0064
3029.00,0.0064
3028.00,0.0064
3027.00,0.0064
3026.00,0.0064
3025.00,0.0063
3024.00,0.0063
3023.00,0.0063
3022.00,0.0062
3021.00,0.0061
3020.00,0.0060
3019.00,0.0059
3018.00,0.0057
3017.00,0.0055
3016.00,0.0052
3015.00,0.0049
3014.00,0.0046
3013.00,0.0041
3012.00,0.0036
3011.00,0.0030
3010.00,0.0024
3009.00,0.0017
3008.00,0.0009
3007.00,0.0001
3006.00,-0.0008
3005.00,-0.0016
3004.00,-0.0026
3003.00,-0.0035
3002.00,-0.0044
3001.00,-0.0052
3000.00,-0.0059
2999.00,-0.0066
2998.00,-0.0071
2997.00,-0.0075
2996.00,-0.0078
2995.00,-0.0081
2994.00,-0.0083
2993.00,-0.0084
2992.00,-0.0085
2991.00,-0.0085
2990.00,-0.0084
2989.00,-0.0084
2988.00,-0.0084
2987.00,-0.0087
2986.00,-0.0095
2985.00,-0.0111
2984.00,-0.0133
2983.00,-0.0151
2982.00,-0.0158
2981.00,-0.0146
2980.00,-0.0118
2979.00,-0.0081
2978.00,-0.0040
2977.00,0.0001
2976.00,0.0040
2975.00,0.0076
2974.00,0.0112
2973.00,0.0149
2972.00,0.0194
2971.00,0.0251
2970.00,0.0319
2969.00,0.0395
2968.00,0.0475
2967.00,0.0556
2966.00,0.0639
2965.00,0.0721
2964.00,0.0801
2963.00,0.0876
2962.00,0.0941
2961.00,0.0995
2960.00,0.1038
2959.00,0.1072
2958.00,0.1103
2957.00,0.1135
2956.00,0.1173
2955.00,0.1219
2954.00,0.1272
2953.00,0.1328
2952.00,0.1381
2951.00,0.1421
2950.00,0.1440
2949.00,0.1433
2948.00,0.1396
2947.00,0.1333
2946.00,0.1249
2945.00,0.1156
2944.00,0.1063
2943.00,0.0980
2942.00,0.0912
2941.00,0.0863
2940.00,0.0833
2939.00,0.0821
2938.00,0.0825
2937.00,0.0844
2936.00,0.0876
2935.00,0.0920
2934.00,0.0973
2933.00,0.1036
2932.00,0.1107
2931.00,0.1186
2930.00,0.1270
2929.00,0.1356
2928.00,0.1442
2927.00,0.1525
2926.00,0.1604
2925.00,0.1679
2924.00,0.1752
2923.00,0.1822
2922.00,0.1890
2921.00,0.1956
2920.00,0.2014
2919.00,0.2060
2918.00,0.2087
2917.00,0.2089
2916.00,0.2064
2915.00,0.2016
2914.00,0.1950
2913.00,0.1874
2912.00,0.1795
2911.00,0.1720
2910.00,0.1650
2909.00,0.1586
2908.00,0.1526
2907.00,0.1470
2906.00,0.1416
2905.00,0.1362
2904.00,0.1307
2903.00,0.1252
2902.00,0.1196
2901.00,0.1141
2900.00,0.1088
2899.00,0.1037
2898.00,0.0990
2897.00,0.0946
2896.00,0.0906
2895.00,0.0871
2894.00,0.0840
2893.00,0.0815
2892.00,0.0796
2891.00,0.0782
2890.00,0.0773
2889.00,0.0770
2888.00,0.0770
2887.00,0.0773
2886.00,0.0779
2885.00,0.0788
2884.00,0.0802
2883.00,0.0821
2882.00,0.0844
2881.00,0.0870
2880.00,0.0895
2879.00,0.0915
2878.00,0.0929
2877.00,0.0934
2876.00,0.0934
2875.00,0.0931
2874.00,0.0930
2873.00,0.0932
2872.00,0.0940
2871.00,0.0954
2870.00,0.0971
2869.00,0.0988
2868.00,0.1000
2867.00,0.1001
2866.00,0.0984
2865.00,0.0949
2864.00,0.0897
2863.00,0.0835
2862.00,0.0770
2861.00,0.0709
2860.00,0.0657
2859.00,0.0616
2858.00,0.0586
2857.00,0.0566
2856.00,0.0555
2855.00,0.0550
2854.00,0.0550
2853.00,0.0556
2852.00,0.0566
2851.00,0.0580
2850.00,0.0596
2849.00,0.0614
2848.00,0.0636
2847.00,0.0662
2846.00,0.0694
2845.00,0.0733
2844.00,0.0779
2843.00,0.0830
2842.00,0.0882
2841.00,0.0931
2840.00,0.0970
2839.00,0.0993
2838.00,0.0994
2837.00,0.0971
2836.00,0.0923
2835.00,0.0855
2834.00,0.0775
2833.00,0.0691
2832.00,0.0611
2831.00,0.0539
2830.00,0.0478
2829.00,0.0428
2828.00,0.0387
2827.00,0.0354
2826.00,0.0326
2825.00,0.0304
2824.00,0.0285
2823.00,0.0269
2822.00,0.0255
2821.00,0.0243
2820.00,0.0232
2819.00,0.0223
2818.00,0.0215
2817.00,0.0208
2816.00,0.0202
2815.00,0.0196
2814.00,0.0191
2813.00,0.0187
2812.00,0.0183
2811.00,0.0179
2810.00,0.0174
2809.00,0.0170
2808.00,0.0165
2807.00,0.0159
2806.00,0.0154
2805.00,0.0148
2804.00,0.0143
2803.00,0.0138
2802.00,0.0133
2801.00,0.0130
2800.00,0.0126
2799.00,0.0124
2798.00,0.0121
2797.00,0.0120
2796.00,0.0118
2795.00,0.0116
2794.00,0.0114
2793.00,0.0112
2792.00,0.0110
2791.00,0.0107
2790.00,0.0104
2789.00,0.0102
2788.00,0.0099
2787.00,0.0096
2786.00,0.0094
2785.00,0.0092
2784.00,0.0089
2783.00,0.0088
2782.00,0.0086
2781.00,0.0084
2780.00,0.0083
2779.00,0.0082
2778.00,0.0080
2777.00,0.0079
2776.00,0.0078
2775.00,0.0078
2774.00,0.0077
2773.00,0.0076
2772.00,0.0076
2771.00,0.0075
2770.00,0.0074
2769.00,0.0074
2768.00,0.0074
2767.00,0.0073
2766.00,0.0074
2765.00,0.0074
2764.00,0.0073
2763.00,0.0073
2762.00,0.0073
2761.00,0.0072
2760.00,0.0071
2759.00,0.0071
2758.00,0.0070
2757.00,0.0070
2756.00,0.0070
2755.00,0.0070
2754.00,0.0071
2753.00,0.0071
2752.00,0.0071
2751.00,0.0071
2750.00,0.0071
2749.00,0.0071
2748.00,0.0071
2747.00,0.0071
2746.00,0.0071
2745.00,0.0072
2744.00,0.0072
2743.00,0.0073
2742.00,0.0073
2741.00,0.0074
2740.00,0.0075
2739.00,0.0076
2738.00,0.0077
2737.00,0.0078
2736.00,0.0079
2735.00,0.0081
2734.00,0.0082
2733.00,0.0083
2732.00,0.0085
2731.00,0.0086
2730.00,0.0088
2729.00,0.0090
2728.00,0.0092
2727.00,0.0094
2726.00,0.0096
2725.00,0.0098
2724.00,0.0100
2723.00,0.0100
2722.00,0.0100
2721.00,0.0098
2720.00,0.0096
2719.00,0.0094
2718.00,0.0091
2717.00,0.0089
2716.00,0.0086
2715.00,0.0084
2714.00,0.0082
2713.00,0.0080
2712.00,0.0078
2711.00,0.0077
2710.00,0.0076
2709.00,0.0074
2708.00,0.0073
2707.00,0.0072
2706.00,0.0072
2705.00,0.0071
2704.00,0.0070
2703.00,0.0069
2702.00,0.0068
2701.00,0.0067
2700.00,0.0067
2699.00,0.0066
2698.00,0.0066
2697.00,0.0066
2696.00,0.0065
2695.00,0.0065
2694.00,0.0065
2693.00,0.0065
2692.00,0.0065
2691.00,0.0064
2690.00,0.0064
2689.00,0.0064
2688.00,0.0064
2687.00,0.0064
2686.00,0.0064
2685.00,0.0063
2684.00,0.0063
2683.00,0.0063
2682.00,0.0063
2681.00,0.0063
2680.00,0.0063
2679.00,0.0064
2678.00,0.0064
2677.00,0.0064
2676.00,0.0064
2675.00,0.0063
2674.00,0.0063
2673.00,0.0063
2672.00,0.0062
2671.00,0.0062
2670.00,0.0061
2669.00,0.0061
2668.00,0.0061
2667.00,0.0061
2666.00,0.0061
2665.00,0.0061
2664.00,0.0062
2663.00,0.0063
2662.00,0.0064
2661.00,0.0064
2660.00,0.0064
2659.00,0.0064
2658.00,0.0064
2657.00,0.0064
2656.00,0.0063
2655.00,0.0063
2654.00,0.0062
2653.00,0.0062
2652.00,0.0061
2651.00,0.0061
2650.00,0.0061
2649.00,0.0061
2648.00,0.0061
2647.00,0.0060
2646.00,0.0060
2645.00,0.0059
2644.00,0.0058
2643.00,0.0058
2642.00,0.0058
2641.00,0.0057
2640.00,0.0057
2639.00,0.0057
2638.00,0.0057
2637.00,0.0057
2636.00,0.0057
2635.00,0.0057
2634.00,0.0058
2633.00,0.0058
2632.00,0.0058
2631.00,0.0058
2630.00,0.0058
2629.00,0.0058
2628.00,0.0058
2627.00,0.0059
2626.00,0.0059
2625.00,0.0059
2624.00,0.0059
2623.00,0.0059
2622.00,0.0059
2621.00,0.0059
2620.00,0.0060
2619.00,0.0060
2618.00,0.0060
2617.00,0.0060
2616.00,0.0060
2615.00,0.0060
2614.00,0.0059
2613.00,0.0059
2612.00,0.0059
2611.00,0.0058
2610.00,0.0058
2609.00,0.0057
2608.00,0.0057
2607.00,0.0056
2606.00,0.0056
2605.00,0.0055
2604.00,0.0055
2603.00,0.0055
2602.00,0.0055
2601.00,0.0055
2600.00,0.0055
2599.00,0.0055
2598.00,0.0055
2597.00,0.0054
2596.00,0.0054
2595.00,0.0054
2594.00,0.0055
2593.00,0.0055
2592.00,0.0055
2591.00,0.0055
2590.00,0.0055
2589.00,0.0056
2588.00,0.0057
2587.00,0.0058
2586.00,0.0059
2585.00,0.0060
2584.00,0.0060
2583.00,0.0061
2582.00,0.0060
2581.00,0.0059
2580.00,0.0059
2579.00,0.0058
2578.00,0.0057
2577.00,0.0057
2576.00,0.0056
2575.00,0.0055
2574.00,0.0054
2573.00,0.0053
2572.00,0.0053
2571.00,0.0052
2570.00,0.0051
2569.00,0.0051
2568.00,0.0050
2567.00,0.0050
2566.00,0.0050
2565.00,0.0050
2564.00,0.0050
2563.00,0.0050
2562.00,0.0049
2561.00,0.0048
2560.00,0.0048
2559.00,0.0047
2558.00,0.0047
2557.00,0.0047
2556.00,0.0047
2555.00,0.0047
2554.00,0.0047
2553.00,0.0046
2552.00,0.0045
2551.00,0.0044
2550.00,0.0044
2549.00,0.0044
2548.00,0.0043
2547.00,0.0043
2546.00,0.0042
2545.00,0.0041
2544.00,0.0041
2543.00,0.0041
2542.00,0.0041
2541.00,0.0041
2540.00,0.0041
2539.00,0.0041
2538.00,0.0040
2537.00,0.0040
2536.00,0.0040
2535.00,0.0040
2534.00,0.0041
2533.00,0.0041
2532.00,0.0041
2531.00,0.0041
2530.00,0.0041
2529.00,0.0041
2528.00,0.0041
2527.00,0.0040
2526.00,0.0040
2525.00,0.0039
2524.00,0.0039
2523.00,0.0038
2522.00,0.0037
2521.00,0.0037
2520.00,0.0036
2519.00,0.0036
2518.00,0.0036
2517.00,0.0036
2516.00,0.0036
2515.00,0.0036
2514.00,0.0036
2513.00,0.0036
2512.00,0.0035
2511.00,0.0035
2510.00,0.0035
2509.00,0.0035
2508.00,0.0035
2507.00,0.0036
2506.00,0.0036
2505.00,0.0036
2504.00,0.0037
2503.00,0.0037
2502.00,0.0037
2501.00,0.0037
2500.00,0.0036
2499.00,0.0036
2498.00,0.0036
2497.00,0.0036
2496.00,0.0036
2495.00,0.0035
2494.00,0.0035
2493.00,0.0035
2492.00,0.0034
2491.00,0.0034
2490.00,0.0035
2489.00,0.0035
2488.00,0.0035
2487.00,0.0035
2486.00,0.0035
2485.00,0.0036
2484.00,0.0036
2483.00,0.0036
2482.00,0.0035
2481.00,0.0035
2480.00,0.0035
2479.00,0.0034
2478.00,0.0034
2477.00,0.0034
2476.00,0.0034
2475.00,0.0034
2474.00,0.0034
2473.00,0.0034
2472.00,0.0034
2471.00,0.0034
2470.00,0.0034
2469.00,0.0034
2468.00,0.0034
2467.00,0.0033
2466.00,0.0033
2465.00,0.0033
2464.00,0.0033
2463.00,0.0034
2462.00,0.0034
2461.00,0.0035
2460.00,0.0035
2459.00,0.0035
2458.00,0.0035
2457.00,0.0035
2456.00,0.0036
2455.00,0.0036
2454.00,0.0036
2453.00,0.0035
2452.00,0.0035
2451.00,0.0035
2450.00,0.0035
2449.00,0.0035
2448.00,0.0035
2447.00,0.0035
2446.00,0.0035
2445.00,0.0035
2444.00,0.0035
2443.00,0.0034
2442.00,0.0034
2441.00,0.0034
2440.00,0.0034
2439.00,0.0034
2438.00,0.0035
2437.00,0.0035
2436.00,0.0036
2435.00,0.0036
2434.00,0.0037
2433.00,0.0038
2432.00,0.0038
2431.00,0.0038
2430.00,0.0038
2429.00,0.0037
2428.00,0.0037
2427.00,0.0036
2426.00,0.0036
2425.00,0.0035
2424.00,0.0035
2423.00,0.0035
2422.00,0.0035
2421.00,0.0035
2420.00,0.0035
2419.00,0.0035
2418.00,0.0034
2417.00,0.0035
2416.00,0.0035
2415.00,0.0035
2414.00,0.0034
2413.00,0.0033
2412.00,0.0033
2411.00,0.0033
2410.00,0.0033
2409.00,0.0033
2408.00,0.0033
2407.00,0.0033
2406.00,0.0033
2405.00,0.0033
2404.00,0.0032
2403.00,0.0032
2402.00,0.0032
2401.00,0.0032
2400.00,0.0032
2399.00,0.0032
2398.00,0.0031
2397.00,0.0031
2396.00,0.0031
2395.00,0.0031
2394.00,0.0031
2393.00,0.0031
2392.00,0.0031
2391.00,0.0031
2390.00,0.0030
2389.00,0.0030
2388.00,0.0030
2387.00,0.0030
2386.00,0.0030
2385.00,0.0030
2384.00,0.0029
2383.00,0.0029
2382.00,0.0029
2381.00,0.0029
2380.00,0.0029
2379.00,0.0029
2378.00,0.0028
2377.00,0.0027
2376.00,0.0027
2375.00,0.0027
2374.00,0.0028
2373.00,0.0028
2372.00,0.0029
2371.00,0.0029
2370.00,0.0028
2369.00,0.0028
2368.00,0.0028
2367.00,0.0028
2366.00,0.0028
2365.00,0.0028
2364.00,0.0028
2363.00,0.0028
2362.00,0.0028
2361.00,0.0028
2360.00,0.0029
2359.00,0.0029
2358.00,0.0029
2357.00,0.0029
2356.00,0.0028
2355.00,0.0028
2354.00,0.0027
2353.00,0.0026
2352.00,0.0025
2351.00,0.0025
2350.00,0.0026
2349.00,0.0028
2348.00,0.0030
2347.00,0.0031
2346.00,0.0030
2345.00,0.0030
2344.00,0.0029
2343.00,0.0029
2342.00,0.0029
2341.00,0.0029
2340.00,0.0029
2339.00,0.0030
2338.00,0.0030
2337.00,0.0031
2336.00,0.0031
2335.00,0.0031
2334.00,0.0030
2333.00,0.0029
2332.00,0.0028
2331.00,0.0028
2330.00,0.0028
2329.00,0.0029
2328.00,0.0031
2327.00,0.0034
2326.00,0.0037
2325.00,0.0040
2324.00,0.0040
2323.00,0.0039
2322.00,0.0038
2321.00,0.0036
2320.00,0.0035
2319.00,0.0035
2318.00,0.0034
2317.00,0.0033
2316.00,0.0032
2315.00,0.0031
2314.00,0.0031
2313.00,0.0030
2312.00,0.0031
2311.00,0.0031
2310.00,0.0031
2309.00,0.0031
2308.00,0.0031
2307.00,0.0031
2306.00,0.0031
2305.00,0.0031
2304.00,0.0031
2303.00,0.0031
2302.00,0.0031
2301.00,0.0032
2300.00,0.0033
2299.00,0.0034
2298.00,0.0035
2297.00,0.0035
2296.00,0.0035
2295.00,0.0036
2294.00,0.0036
2293.00,0.0037
2292.00,0.0038
2291.00,0.0039
2290.00,0.0039
2289.00,0.0040
2288.00,0.0040
2287.00,0.0040
2286.00,0.0041
2285.00,0.0041
2284.00,0.0041
2283.00,0.0040
2282.00,0.0039
2281.00,0.0038
2280.00,0.0038
2279.00,0.0038
2278.00,0.0038
2277.00,0.0037
2276.00,0.0036
2275.00,0.0036
2274.00,0.0037
2273.00,0.0037
2272.00,0.0037
2271.00,0.0037
2270.00,0.0037
2269.00,0.0037
2268.00,0.0037
2267.00,0.0036
2266.00,0.0035
2265.00,0.0035
2264.00,0.0034
2263.00,0.0034
2262.00,0.0033
2261.00,0.0033
2260.00,0.0034
2259.00,0.0035
2258.00,0.0036
2257.00,0.0037
2256.00,0.0037
2255.00,0.0036
2254.00,0.0035
2253.00,0.0034
2252.00,0.0034
2251.00,0.0033
2250.00,0.0033
2249.00,0.0032
2248.00,0.0033
2247.00,0.0033
2246.00,0.0034
2245.00,0.0034
2244.00,0.0034
2243.00,0.0034
2242.00,0.0035
2241.00,0.0035
2240.00,0.0035
2239.00,0.0034
2238.00,0.0032
2237.00,0.0032
2236.00,0.0032
2235.00,0.0033
2234.00,0.0033
2233.00,0.0033
2232.00,0.0033
2231.00,0.0032
2230.00,0.0031
2229.00,0.0031
2228.00,0.0031
2227.00,0.0032
2226.00,0.0033
2225.00,0.0033
2224.00,0.0032
2223.00,0.0031
2222.00,0.0031
2221.00,0.0032
2220.00,0.0033
2219.00,0.0033
2218.00,0.0032
2217.00,0.0031
2216.00,0.0030
2215.00,0.0030
2214.00,0.0030
2213.00,0.0031
2212.00,0.0030
2211.00,0.0030
2210.00,0.0029
2209.00,0.0029
2208.00,0.0028
2207.00,0.0026
2206.00,0.0026
2205.00,0.0027
2204.00,0.0030
2203.00,0.0031
2202.00,0.0032
2201.00,0.0031
2200.00,0.0030
2199.00,0.0029
2198.00,0.0029
2197.00,0.0030
2196.00,0.0032
2195.00,0.0034
2194.00,0.0036
2193.00,0.0037
2192.00,0.0036
2191.00,0.0034
2190.00,0.0033
2189.00,0.0033
2188.00,0.0033
2187.00,0.0032
2186.00,0.0030
2185.00,0.0030
2184.00,0.0031
2183.00,0.0032
2182.00,0.0034
2181.00,0.0035
2180.00,0.0035
2179.00,0.0036
2178.00,0.0037
2177.00,0.0037
2176.00,0.0037
2175.00,0.0034
2174.00,0.0031
2173.00,0.0030
2172.00,0.0030
2171.00,0.0033
2170.00,0.0036
2169.00,0.0039
2168.00,0.0040
2167.00,0.0039
2166.00,0.0037
2165.00,0.0039
2164.00,0.0043
2163.00,0.0046
2162.00,0.0044
2161.00,0.0036
2160.00,0.0023
2159.00,0.0009
2158.00,-0.0002
2157.00,-0.0004
2156.00,-0.0000
2155.00,0.0006
2154.00,0.0010
2153.00,0.0011
2152.00,0.0009
2151.00,0.0008
2150.00,0.0008
2149.00,0.0010
2148.00,0.0013
2147.00,0.0014
2146.00,0.0014
2145.00,0.0013
2144.00,0.0013
2143.00,0.0013
2142.00,0.0014
2141.00,0.0015
2140.00,0.0016
2139.00,0.0016
2138.00,0.0015
2137.00,0.0014
2136.00,0.0012
2135.00,0.0011
2134.00,0.0010
2133.00,0.0011
2132.00,0.0011
2131.00,0.0012
2130.00,0.0012
2129.00,0.0014
2128.00,0.0015
2127.00,0.0017
2126.00,0.0018
2125.00,0.0019
2124.00,0.0020
2123.00,0.0020
2122.00,0.0021
2121.00,0.0021
2120.00,0.0022
2119.00,0.0023
2118.00,0.0023
2117.00,0.0024
2116.00,0.0024
2115.00,0.0025
2114.00,0.0025
2113.00,0.0026
2112.00,0.0027
2111.00,0.0027
2110.00,0.0026
2109.00,0.0025
2108.00,0.0025
2107.00,0.0025
2106.00,0.0025
2105.00,0.0025
2104.00,0.0026
2103.00,0.0027
2102.00,0.0028
2101.00,0.0028
2100.00,0.0029
2099.00,0.0028
2098.00,0.0026
2097.00,0.0024
2096.00,0.0022
2095.00,0.0021
2094.00,0.0022
2093.00,0.0023
2092.00,0.0024
2091.00,0.0024
2090.00,0.0023
2089.00,0.0023
2088.00,0.0023
2087.00,0.0024
2086.00,0.0024
2085.00,0.0024
2084.00,0.0025
2083.00,0.0025
2082.00,0.0025
2081.00,0.0026
2080.00,0.0026
2079.00,0.0026
2078.00,0.0025
2077.00,0.0026
2076.00,0.0027
2075.00,0.0028
2074.00,0.0028
2073.00,0.0027
2072.00,0.0026
2071.00,0.0025
2070.00,0.0024
2069.00,0.0023
2068.00,0.0023
2067.00,0.0022
2066.00,0.0022
2065.00,0.0022
2064.00,0.0023
2063.00,0.0024
2062.00,0.0025
2061.00,0.0027
2060.00,0.0028
2059.00,0.0028
2058.00,0.0028
2057.00,0.0028
2056.00,0.0028
2055.00,0.0027
2054.00,0.0028
2053.00,0.0032
2052.00,0.0037
2051.00,0.0039
2050.00,0.0038
2049.00,0.0034
2048.00,0.0030
2047.00,0.0026
2046.00,0.0024
2045.00,0.0023
2044.00,0.0023
2043.00,0.0023
2042.00,0.0023
2041.00,0.0023
2040.00,0.0022
2039.00,0.0023
2038.00,0.0024
2037.00,0.0024
2036.00,0.0024
2035.00,0.0021
2034.00,0.0018
2033.00,0.0015
2032.00,0.0013
2031.00,0.0012
2030.00,0.0014
2029.00,0.0016
2028.00,0.0019
2027.00,0.0019
2026.00,0.0020
2025.00,0.0020
2024.00,0.0020
2023.00,0.0018
2022.00,0.0015
2021.00,0.0014
2020.00,0.0013
2019.00,0.0013
2018.00,0.0013
2017.00,0.0014
2016.00,0.0015
2015.00,0.0013
2014.00,0.0012
2013.00,0.0012
2012.00,0.0014
2011.00,0.0017
2010.00,0.0019
2009.00,0.0018
2008.00,0.0016
2007.00,0.0013
2006.00,0.0011
2005.00,0.0009
2004.00,0.0009
2003.00,0.0009
2002.00,0.0010
2001.00,0.0011
2000.00,0.0012
1999.00,0.0011
1998.00,0.0011
1997.00,0.0012
1996.00,0.0013
1995.00,0.0015
1994.00,0.0017
1993.00,0.0018
1992.00,0.0018
1991.00,0.0018
1990.00,0.0018
1989.00,0.0018
1988.00,0.0019
1987.00,0.0021
1986.00,0.0022
1985.00,0.0025
1984.00,0.0028
1983.00,0.0032
1982.00,0.0036
1981.00,0.0040
1980.00,0.0040
1979.00,0.0035
1978.00,0.0026
1977.00,0.0016
1976.00,0.0009
1975.00,0.0007
1974.00,0.0008
1973.00,0.0010
1972.00,0.0011
1971.00,0.0010
1970.00,0.0008
1969.00,0.0008
1968.00,0.0009
1967.00,0.0011
1966.00,0.0011
1965.00,0.0011
1964.00,0.0010
1963.00,0.0011
1962.00,0.0011
1961.00,0.0011
1960.00,0.0011
1959.00,0.0011
1958.00,0.0012
1957.00,0.0013
1956.00,0.0013
1955.00,0.0012
1954.00,0.0010
1953.00,0.0010
1952.00,0.0011
1951.00,0.0013
1950.00,0.0013
1949.00,0.0013
1948.00,0.0013
1947.00,0.0012
1946.00,0.0011
1945.00,0.0011
1944.00,0.0012
1943.00,0.0013
1942.00,0.0014
1941.00,0.0015
1940.00,0.0016
1939.00,0.0016
1938.00,0.0017
1937.00,0.0017
1936.00,0.0018
1935.00,0.0019
1934.00,0.0018
1933.00,0.0018
1932.00,0.0016
1931.00,0.0015
1930.00,0.0015
1929.00,0.0015
1928.00,0.0016
1927.00,0.0016
1926.00,0.0017
1925.00,0.0018
1924.00,0.0018
1923.00,0.0018
1922.00,0.0018
1921.00,0.0018
1920.00,0.0019
1919.00,0.0021
1918.00,0.0022
1917.00,0.0023
1916.00,0.0023
1915.00,0.0022
1914.00,0.0021
1913.00,0.0021
1912.00,0.0022
1911.00,0.0021
1910.00,0.0020
1909.00,0.0019
1908.00,0.0019
1907.00,0.0019
1906.00,0.0019
1905.00,0.0020
1904.00,0.0021
1903.00,0.0021
1902.00,0.0021
1901.00,0.0021
1900.00,0.0021
1899.00,0.0021
1898.00,0.0022
1897.00,0.0022
1896.00,0.0023
1895.00,0.0023
1894.00,0.0023
1893.00,0.0023
1892.00,0.0023
1891.00,0.0023
1890.00,0.0023
1889.00,0.0023
1888.00,0.0023
1887.00,0.0023
1886.00,0.0023
1885.00,0.0024
1884.00,0.0024
1883.00,0.0024
1882.00,0.0024
1881.00,0.0024
1880.00,0.0024
1879.00,0.0023
1878.00,0.0023
1877.00,0.0022
1876.00,0.0021
1875.00,0.0021
1874.00,0.0022
1873.00,0.0022
1872.00,0.0022
1871.00,0.0022
1870.00,0.0022
1869.00,0.0022
1868.00,0.0023
1867.00,0.0023
1866.00,0.0022
1865.00,0.0021
1864.00,0.0021
1863.00,0.0021
1862.00,0.0021
1861.00,0.0022
1860.00,0.0022
1859.00,0.0022
1858.00,0.0022
1857.00,0.0023
1856.00,0.0024
1855.00,0.0024
1854.00,0.0024
1853.00,0.0024
1852.00,0.0024
1851.00,0.0024
1850.00,0.0024
1849.00,0.0024
1848.00,0.0023
1847.00,0.0023
1846.00,0.0022
1845.00,0.0022
1844.00,0.0024
1843.00,0.0025
1842.00,0.0025
1841.00,0.0026
1840.00,0.0026
1839.00,0.0026
1838.00,0.0026
1837.00,0.0026
1836.00,0.0026
1835.00,0.0026
1834.00,0.0026
1833.00,0.0026
1832.00,0.0026
1831.00,0.0026
1830.00,0.0025
1829.00,0.0025
1828.00,0.0026
1827.00,0.0027
1826.00,0.0027
1825.00,0.0027
1824.00,0.0028
1823.00,0.0028
1822.00,0.0028
1821.00,0.0027
1820.00,0.0026
1819.00,0.0025
1818.00,0.0023
1817.00,0.0023
1816.00,0.0024
1815.00,0.0024
1814.00,0.0024
1813.00,0.0025
1812.00,0.0025
1811.00,0.0026
1810.00,0.0027
1809.00,0.0027
1808.00,0.0028
1807.00,0.0029
1806.00,0.0029
1805.00,0.0029
1804.00,0.0029
1803.00,0.0029
1802.00,0.0029
1801.00,0.0030
1800.00,0.0030
1799.00,0.0030
1798.00,0.0030
1797.00,0.0030
1796.00,0.0031
1795.00,0.0031
1794.00,0.0031
1793.00,0.0031
1792.00,0.0032
1791.00,0.0031
1790.00,0.0031
1789.00,0.0030
1788.00,0.0031
1787.00,0.0031
1786.00,0.0031
1785.00,0.0031
1784.00,0.0031
1783.00,0.0031
1782.00,0.0030
1781.00,0.0030
1780.00,0.0030
1779.00,0.0030
1778.00,0.0031
1777.00,0.0031
1776.00,0.0031
1775.00,0.0030
1774.00,0.0030
1773.00,0.0030
1772.00,0.0031
1771.00,0.0032
1770.00,0.0033
1769.00,0.0034
1768.00,0.0035
1767.00,0.0035
1766.00,0.0035
1765.00,0.0035
1764.00,0.0036
1763.00,0.0036
1762.00,0.0038
1761.00,0.0039
1760.00,0.0041
1759.00,0.0042
1758.00,0.0044
1757.00,0.0046
1756.00,0.0049
1755.00,0.0051
1754.00,0.0053
1753.00,0.0055
1752.00,0.0058
1751.00,0.0062
1750.00,0.0064
1749.00,0.0066
1748.00,0.0068
1747.00,0.0069
1746.00,0.0070
1745.00,0.0070
1744.00,0.0070
1743.00,0.0070
1742.00,0.0070
1741.00,0.0070
1740.00,0.0071
1739.00,0.0070
1738.00,0.0069
1737.00,0.0067
1736.00,0.0065
1735.00,0.0065
1734.00,0.0065
1733.00,0.0065
1732.00,0.0065
1731.00,0.0064
1730.00,0.0063
1729.00,0.0062
1728.00,0.0061
1727.00,0.0060
1726.00,0.0060
1725.00,0.0059
1724.00,0.0058
1723.00,0.0058
1722.00,0.0057
1721.00,0.0057
1720.00,0.0057
1719.00,0.0056
1718.00,0.0055
1717.00,0.0055
1716.00,0.0056
1715.00,0.0056
1714.00,0.0056
1713.00,0.0057
1712.00,0.0057
1711.00,0.0057
1710.00,0.0057
1709.00,0.0058
1708.00,0.0059
1707.00,0.0060
1706.00,0.0061
1705.00,0.0062
1704.00,0.0063
1703.00,0.0063
1702.00,0.0064
1701.00,0.0066
1700.00,0.0068
1699.00,0.0068
1698.00,0.0068
1697.00,0.0069
1696.00,0.0072
1695.00,0.0076
1694.00,0.0078
1693.00,0.0079
1692.00,0.0081
1691.00,0.0082
1690.00,0.0084
1689.00,0.0085
1688.00,0.0087
1687.00,0.0087
1686.00,0.0089
1685.00,0.0092
1684.00,0.0095
1683.00,0.0099
1682.00,0.0101
1681.00,0.0102
1680.00,0.0103
1679.00,0.0104
1678.00,0.0105
1677.00,0.0106
1676.00,0.0108
1675.00,0.0111
1674.00,0.0113
1673.00,0.0115
1672.00,0.0116
1671.00,0.0118
1670.00,0.0120
1669.00,0.0123
1668.00,0.0126
1667.00,0.0127
1666.00,0.0128
1665.00,0.0129
1664.00,0.0130
1663.00,0.0132
1662.00,0.0133
1661.00,0.0134
1660.00,0.0135
1659.00,0.0136
1658.00,0.0136
1657.00,0.0137
1656.00,0.0137
1655.00,0.0138
1654.00,0.0139
1653.00,0.0139
1652.00,0.0140
1651.00,0.0140
1650.00,0.0139
1649.00,0.0138
1648.00,0.0136
1647.00,0.0134
1646.00,0.0134
1645.00,0.0134
1644.00,0.0134
1643.00,0.0134
1642.00,0.0133
1641.00,0.0132
1640.00,0.0131
1639.00,0.0130
1638.00,0.0129
1637.00,0.0128
1636.00,0.0126
1635.00,0.0126
1634.00,0.0126
1633.00,0.0126
1632.00,0.0125
1631.00,0.0125
1630.00,0.0124
1629.00,0.0123
1628.00,0.0121
1627.00,0.0120
1626.00,0.0119
1625.00,0.0118
1624.00,0.0117
1623.00,0.0116
1622.00,0.0116
1621.00,0.0115
1620.00,0.0114
1619.00,0.0112
1618.00,0.0111
1617.00,0.0110
1616.00,0.0110
1615.00,0.0109
1614.00,0.0109
1613.00,0.0109
1612.00,0.0108
1611.00,0.0108
1610.00,0.0107
1609.00,0.0107
1608.00,0.0107
1607.00,0.0107
1606.00,0.0106
1605.00,0.0106
1604.00,0.0106
1603.00,0.0106
1602.00,0.0107
1601.00,0.0107
1600.00,0.0108
1599.00,0.0108
1598.00,0.0108
1597.00,0.0109
1596.00,0.0109
1595.00,0.0109
1594.00,0.0110
1593.00,0.0111
1592.00,0.0113
1591.00,0.0114
1590.00,0.0115
1589.00,0.0116
1588.00,0.0118
1587.00,0.0119
1586.00,0.0122
1585.00,0.0125
1584.00,0.0128
1583.00,0.0131
1582.00,0.0134
1581.00,0.0138
1580.00,0.0141
1579.00,0.0144
1578.00,0.0145
1577.00,0.0146
1576.00,0.0145
1575.00,0.0144
1574.00,0.0142
1573.00,0.0140
1572.00,0.0138
1571.00,0.0136
1570.00,0.0133
1569.00,0.0130
1568.00,0.0129
1567.00,0.0128
1566.00,0.0127
1565.00,0.0127
1564.00,0.0127
1563.00,0.0127
1562.00,0.0127
1561.00,0.0129
1560.00,0.0131
1559.00,0.0131
1558.00,0.0131
1557.00,0.0133
1556.00,0.0134
1555.00,0.0135
1554.00,0.0137
1553.00,0.0140
1552.00,0.0143
1551.00,0.0146
1550.00,0.0149
1549.00,0.0152
1548.00,0.0156
1547.00,0.0159
1546.00,0.0163
1545.00,0.0168
1544.00,0.0173
1543.00,0.0175
1542.00,0.0176
1541.00,0.0175
1540.00,0.0173
1539.00,0.0170
1538.00,0.0167
1537.00,0.0164
1536.00,0.0161
1535.00,0.0157
1534.00,0.0152
1533.00,0.0148
1532.00,0.0145
1531.00,0.0142
1530.00,0.0140
1529.00,0.0139
1528.00,0.0139
1527.00,0.0137
1526.00,0.0136
1525.00,0.0135
1524.00,0.0134
1523.00,0.0134
1522.00,0.0134
1521.00,0.0135
1520.00,0.0136
1519.00,0.0137
1518.00,0.0137
1517.00,0.0138
1516.00,0.0139
1515.00,0.0139
1514.00,0.0139
1513.00,0.0139
1512.00,0.0140
1511.00,0.0140
1510.00,0.0140
1509.00,0.0140
1508.00,0.0141
1507.00,0.0140
1506.00,0.0141
1505.00,0.0142
1504.00,0.0144
1503.00,0.0144
1502.00,0.0145
1501.00,0.0147
1500.00,0.0150
1499.00,0.0152
1498.00,0.0153
1497.00,0.0157
1496.00,0.0160
1495.00,0.0164
1494.00,0.0166
1493.00,0.0169
1492.00,0.0173
1491.00,0.0178
1490.00,0.0182
1489.00,0.0187
1488.00,0.0193
1487.00,0.0198
1486.00,0.0203
1485.00,0.0210
1484.00,0.0218
1483.00,0.0226
1482.00,0.0236
1481.00,0.0247
1480.00,0.0259
1479.00,0.0272
1478.00,0.0285
1477.00,0.0302
1476.00,0.0320
1475.00,0.0339
1474.00,0.0367
1473.00,0.0412
1472.00,0.0472
1471.00,0.0533
1470.00,0.0590
1469.00,0.0648
1468.00,0.0708
1467.00,0.0773
1466.00,0.0844
1465.00,0.0920
1464.00,0.0988
1463.00,0.1038
1462.00,0.1075
1461.00,0.1103
1460.00,0.1126
1459.00,0.1145
1458.00,0.1164
1457.00,0.1181
1456.00,0.1190
1455.00,0.1190
1454.00,0.1185
1453.00,0.1174
1452.00,0.1156
1451.00,0.1128
1450.00,0.1088
1449.00,0.1032
1448.00,0.0958
1447.00,0.0880
1446.00,0.0807
1445.00,0.0744
1444.00,0.0690
1443.00,0.0646
1442.00,0.0613
1441.00,0.0591
1440.00,0.0578
1439.00,0.0572
1438.00,0.0574
1437.00,0.0576
1436.00,0.0568
1435.00,0.0546
1434.00,0.0514
1433.00,0.0475
1432.00,0.0434
1431.00,0.0397
1430.00,0.0368
1429.00,0.0346
1428.00,0.0331
1427.00,0.0320
1426.00,0.0313
1425.00,0.0307
1424.00,0.0300
1423.00,0.0295
1422.00,0.0292
1421.00,0.0288
1420.00,0.0282
1419.00,0.0277
1418.00,0.0270
1417.00,0.0262
1416.00,0.0255
1415.00,0.0248
1414.00,0.0241
1413.00,0.0234
1412.00,0.0225
1411.00,0.0217
1410.00,0.0209
1409.00,0.0201
1408.00,0.0193
1407.00,0.0186
1406.00,0.0179
1405.00,0.0170
1404.00,0.0161
1403.00,0.0153
1402.00,0.0147
1401.00,0.0141
1400.00,0.0132
1399.00,0.0124
1398.00,0.0117
1397.00,0.0110
1396.00,0.0104
1395.00,0.0099
1394.00,0.0098
1393.00,0.0097
1392.00,0.0100
1391.00,0.0105
1390.00,0.0114
1389.00,0.0126
1388.00,0.0144
1387.00,0.0173
1386.00,0.0213
1385.00,0.0265
1384.00,0.0333
1383.00,0.0427
1382.00,0.0553
1381.00,0.0713
1380.00,0.0911
1379.00,0.1140
1378.00,0.1368
1377.00,0.1547
1376.00,0.1627
1375.00,0.1574
1374.00,0.1400
1373.00,0.1171
1372.00,0.0952
1371.00,0.0767
1370.00,0.0618
1369.00,0.0504
1368.00,0.0425
1367.00,0.0378
1366.00,0.0353
1365.00,0.0345
1364.00,0.0349
1363.00,0.0363
1362.00,0.0384
1361.00,0.0405
1360.00,0.0420
1359.00,0.0425
1358.00,0.0415
1357.00,0.0392
1356.00,0.0359
1355.00,0.0322
1354.00,0.0287
1353.00,0.0258
1352.00,0.0233
1351.00,0.0214
1350.00,0.0198
1349.00,0.0186
1348.00,0.0175
1347.00,0.0167
1346.00,0.0161
1345.00,0.0156
1344.00,0.0152
1343.00,0.0148
1342.00,0.0146
1341.00,0.0145
1340.00,0.0143
1339.00,0.0142
1338.00,0.0141
1337.00,0.0140
1336.00,0.0141
1335.00,0.0143
1334.00,0.0145
1333.00,0.0149
1332.00,0.0153
1331.00,0.0157
1330.00,0.0158
1329.00,0.0158
1328.00,0.0155
1327.00,0.0151
1326.00,0.0147
1325.00,0.0143
1324.00,0.0139
1323.00,0.0135
1322.00,0.0132
1321.00,0.0130
1320.00,0.0128
1319.00,0.0127
1318.00,0.0125
1317.00,0.0124
1316.00,0.0123
1315.00,0.0123
1314.00,0.0123
1313.00,0.0123
1312.00,0.0124
1311.00,0.0126
1310.00,0.0130
1309.00,0.0136
1308.00,0.0144
1307.00,0.0155
1306.00,0.0164
1305.00,0.0171
1304.00,0.0173
1303.00,0.0171
1302.00,0.0167
1301.00,0.0163
1300.00,0.0160
1299.00,0.0158
1298.00,0.0158
1297.00,0.0159
1296.00,0.0158
1295.00,0.0156
1294.00,0.0151
1293.00,0.0146
1292.00,0.0141
1291.00,0.0136
1290.00,0.0132
1289.00,0.0128
1288.00,0.0125
1287.00,0.0122
1286.00,0.0118
1285.00,0.0115
1284.00,0.0112
1283.00,0.0110
1282.00,0.0108
1281.00,0.0106
1280.00,0.0103
1279.00,0.0101
1278.00,0.0098
1277.00,0.0095
1276.00,0.0092
1275.00,0.0089
1274.00,0.0087
1273.00,0.0084
1272.00,0.0081
1271.00,0.0078
1270.00,0.0075
1269.00,0.0072
1268.00,0.0071
1267.00,0.0070
1266.00,0.0071
1265.00,0.0072
1264.00,0.0072
1263.00,0.0073
1262.00,0.0075
1261.00,0.0078
1260.00,0.0082
1259.00,0.0087
1258.00,0.0093
1257.00,0.0096
1256.00,0.0097
1255.00,0.0093
1254.00,0.0086
1253.00,0.0078
1252.00,0.0070
1251.00,0.0065
1250.00,0.0062
1249.00,0.0062
1248.00,0.0062
1247.00,0.0063
1246.00,0.0064
1245.00,0.0065
1244.00,0.0065
1243.00,0.0066
1242.00,0.0066
1241.00,0.0066
1240.00,0.0066
1239.00,0.0067
1238.00,0.0068
1237.00,0.0069
1236.00,0.0072
1235.00,0.0074
1234.00,0.0077
1233.00,0.0079
1232.00,0.0082
1231.00,0.0084
1230.00,0.0087
1229.00,0.0091
1228.00,0.0094
1227.00,0.0098
1226.00,0.0103
1225.00,0.0108
1224.00,0.0112
1223.00,0.0117
1222.00,0.0121
1221.00,0.0125
1220.00,0.0128
1219.00,0.0130
1218.00,0.0131
1217.00,0.0130
1216.00,0.0129
1215.00,0.0127
1214.00,0.0124
1213.00,0.0122
1212.00,0.0120
1211.00,0.0119
1210.00,0.0117
1209.00,0.0116
1208.00,0.0114
1207.00,0.0113
1206.00,0.0113
1205.00,0.0112
1204.00,0.0111
1203.00,0.0110
1202.00,0.0110
1201.00,0.0109
1200.00,0.0109
1199.00,0.0109
1198.00,0.0109
1197.00,0.0109
1196.00,0.0108
1195.00,0.0107
1194.00,0.0106
1193.00,0.0105
1192.00,0.0102
1191.00,0.0099
1190.00,0.0097
1189.00,0.0095
1188.00,0.0093
1187.00,0.0091
1186.00,0.0089
1185.00,0.0087
1184.00,0.0085
1183.00,0.0083
1182.00,0.0081
1181.00,0.0080
1180.00,0.0079
1179.00,0.0079
1178.00,0.0082
1177.00,0.0087
1176.00,0.0095
1175.00,0.0107
1174.00,0.0123
1173.00,0.0143
1172.00,0.0166
1171.00,0.0192
1170.00,0.0217
1169.00,0.0237
1168.00,0.0249
1167.00,0.0252
1166.00,0.0245
1165.00,0.0232
1164.00,0.0215
1163.00,0.0197
1162.00,0.0180
1161.00,0.0166
1160.00,0.0154
1159.00,0.0143
1158.00,0.0134
1157.00,0.0128
1156.00,0.0123
1155.00,0.0119
1154.00,0.0115
1153.00,0.0111
1152.00,0.0107
1151.00,0.0101
1150.00,0.0095
1149.00,0.0088
1148.00,0.0081
1147.00,0.0075
1146.00,0.0070
1145.00,0.0066
1144.00,0.0062
1143.00,0.0059
1142.00,0.0055
1141.00,0.0051
1140.00,0.0047
1139.00,0.0044
1138.00,0.0042
1137.00,0.0042
1136.00,0.0043
1135.00,0.0044
1134.00,0.0046
1133.00,0.0048
1132.00,0.0049
1131.00,0.0051
1130.00,0.0053
1129.00,0.0055
1128.00,0.0058
1127.00,0.0062
1126.00,0.0065
1125.00,0.0069
1124.00,0.0071
1123.00,0.0074
1122.00,0.0076
1121.00,0.0078
1120.00,0.0081
1119.00,0.0083
1118.00,0.0087
1117.00,0.0090
1116.00,0.0093
1115.00,0.0096
1114.00,0.0099
1113.00,0.0101
1112.00,0.0105
1111.00,0.0108
1110.00,0.0112
1109.00,0.0117
1108.00,0.0122
1107.00,0.0127
1106.00,0.0133
1105.00,0.0139
1104.00,0.0143
1103.00,0.0146
1102.00,0.0145
1101.00,0.0141
1100.00,0.0134
1099.00,0.0126
1098.00,0.0117
1097.00,0.0108
1096.00,0.0100
1095.00,0.0093
1094.00,0.0086
1093.00,0.0081
1092.00,0.0075
1091.00,0.0070
1090.00,0.0066
1089.00,0.0063
1088.00,0.0060
1087.00,0.0058
1086.00,0.0056
1085.00,0.0054
1084.00,0.0051
1083.00,0.0050
1082.00,0.0048
1081.00,0.0047
1080.00,0.0046
1079.00,0.0044
1078.00,0.0042
1077.00,0.0041
1076.00,0.0039
1075.00,0.0037
1074.00,0.0036
1073.00,0.0035
1072.00,0.0036
1071.00,0.0037
1070.00,0.0039
1069.00,0.0041
1068.00,0.0044
1067.00,0.0047
1066.00,0.0050
1065.00,0.0054
1064.00,0.0057
1063.00,0.0060
1062.00,0.0063
1061.00,0.0065
1060.00,0.0067
1059.00,0.0070
1058.00,0.0073
1057.00,0.0077
1056.00,0.0080
1055.00,0.0083
1054.00,0.0087
1053.00,0.0091
1052.00,0.0095
1051.00,0.0099
1050.00,0.0104
1049.00,0.0109
1048.00,0.0114
1047.00,0.0119
1046.00,0.0125
1045.00,0.0129
1044.00,0.0131
1043.00,0.0131
1042.00,0.0130
1041.00,0.0130
1040.00,0.0129
1039.00,0.0130
1038.00,0.0131
1037.00,0.0133
1036.00,0.0134
1035.00,0.0135
1034.00,0.0135
1033.00,0.0134
1032.00,0.0133
1031.00,0.0132
1030.00,0.0133
1029.00,0.0133
1028.00,0.0133
1027.00,0.0133
1026.00,0.0133
1025.00,0.0133
1024.00,0.0133
1023.00,0.0133
1022.00,0.0134
1021.00,0.0135
1020.00,0.0135
1019.00,0.0136
1018.00,0.0137
1017.00,0.0138
1016.00,0.0140
1015.00,0.0142
1014.00,0.0145
1013.00,0.0148
1012.00,0.0152
1011.00,0.0156
1010.00,0.0159
1009.00,0.0161
1008.00,0.0164
1007.00,0.0167
1006.00,0.0173
1005.00,0.0183
1004.00,0.0197
1003.00,0.0217
1002.00,0.0242
1001.00,0.0274
1000.00,0.0308
999.00,0.0336
998.00,0.0350
997.00,0.0344
996.00,0.0320
995.00,0.0285
994.00,0.0247
993.00,0.0215
992.00,0.0189
991.00,0.0170
990.00,0.0157
989.00,0.0147
988.00,0.0140
987.00,0.0135
986.00,0.0133
985.00,0.0132
984.00,0.0134
983.00,0.0140
982.00,0.0149
981.00,0.0162
980.00,0.0179
979.00,0.0201
978.00,0.0228
977.00,0.0260
976.00,0.0295
975.00,0.0326
974.00,0.0348
973.00,0.0351
972.00,0.0331
971.00,0.0292
970.00,0.0240
969.00,0.0188
968.00,0.0143
967.00,0.0109
966.00,0.0084
965.00,0.0066
964.00,0.0053
963.00,0.0044
962.00,0.0036
961.00,0.0028
960.00,0.0020
959.00,0.0011
958.00,0.0003
957.00,-0.0003
956.00,-0.0007
955.00,-0.0010
954.00,-0.0011
953.00,-0.0011
952.00,-0.0010
951.00,-0.0008
950.00,-0.0006
949.00,-0.0004
948.00,-0.0001
947.00,0.0003
946.00,0.0006
945.00,0.0010
944.00,0.0013
943.00,0.0018
942.00,0.0023
941.00,0.0027
940.00,0.0030
939.00,0.0030
938.00,0.0030
937.00,0.0030
936.00,0.0031
935.00,0.0033
934.00,0.0036
933.00,0.0041
932.00,0.0045
931.00,0.0048
930.00,0.0052
929.00,0.0056
928.00,0.0059
927.00,0.0063
926.00,0.0067
925.00,0.0070
924.00,0.0073
923.00,0.0075
922.00,0.0078
921.00,0.0080
920.00,0.0082
919.00,0.0084
918.00,0.0086
917.00,0.0088
916.00,0.0090
915.00,0.0091
914.00,0.0092
913.00,0.0093
912.00,0.0094
911.00,0.0096
910.00,0.0098
909.00,0.0101
908.00,0.0104
907.00,0.0108
906.00,0.0114
905.00,0.0123
904.00,0.0136
903.00,0.0152
902.00,0.0171
901.00,0.0188
900.00,0.0200
899.00,0.0203
898.00,0.0197
897.00,0.0183
896.00,0.0165
895.00,0.0148
894.00,0.0134
893.00,0.0124
892.00,0.0116
891.00,0.0112
890.00,0.0109
889.00,0.0107
888.00,0.0106
887.00,0.0106
886.00,0.0107
885.00,0.0109
884.00,0.0111
883.00,0.0115
882.00,0.0120
881.00,0.0128
880.00,0.0137
879.00,0.0145
878.00,0.0152
877.00,0.0156
876.00,0.0158
875.00,0.0158
874.00,0.0155
873.00,0.0149
872.00,0.0140
871.00,0.0129
870.00,0.0120
869.00,0.0113
868.00,0.0109
867.00,0.0108
866.00,0.0107
865.00,0.0107
864.00,0.0107
863.00,0.0108
862.00,0.0108
861.00,0.0109
860.00,0.0111
859.00,0.0112
858.00,0.0114
857.00,0.0115
856.00,0.0116
855.00,0.0117
854.00,0.0119
853.00,0.0121
852.00,0.0123
851.00,0.0128
850.00,0.0133
849.00,0.0141
848.00,0.0150
847.00,0.0163
846.00,0.0183
845.00,0.0211
844.00,0.0247
843.00,0.0287
842.00,0.0317
841.00,0.0325
840.00,0.0306
839.00,0.0268
838.00,0.0227
837.00,0.0195
836.00,0.0172
835.00,0.0158
834.00,0.0148
833.00,0.0141
832.00,0.0135
831.00,0.0130
830.00,0.0125
829.00,0.0121
828.00,0.0119
827.00,0.0119
826.00,0.0120
825.00,0.0121
824.00,0.0120
823.00,0.0120
822.00,0.0119
821.00,0.0119
820.00,0.0119
819.00,0.0119
818.00,0.0122
817.00,0.0126
816.00,0.0133
815.00,0.0144
814.00,0.0157
813.00,0.0171
812.00,0.0187
811.00,0.0201
810.00,0.0212
809.00,0.0218
808.00,0.0217
807.00,0.0209
806.00,0.0196
805.00,0.0181
804.00,0.0167
803.00,0.0155
802.00,0.0145
801.00,0.0138
800.00,0.0132
799.00,0.0127
798.00,0.0123
797.00,0.0120
796.00,0.0118
795.00,0.0117
794.00,0.0116
793.00,0.0115
792.00,0.0114
791.00,0.0113
790.00,0.0112
789.00,0.0110
788.00,0.0109
787.00,0.0107
786.00,0.0106
785.00,0.0103
784.00,0.0101
783.00,0.0098
782.00,0.0097
781.00,0.0096
780.00,0.0096
779.00,0.0097
778.00,0.0098
777.00,0.0099
776.00,0.0100
775.00,0.0102
774.00,0.0103
773.00,0.0105
772.00,0.0107
771.00,0.0110
770.00,0.0112
769.00,0.0112
768.00,0.0112
767.00,0.0112
766.00,0.0111
765.00,0.0110
764.00,0.0108
763.00,0.0105
762.00,0.0103
761.00,0.0102
760.00,0.0101
759.00,0.0100
758.00,0.0098
757.00,0.0096
756.00,0.0093
755.00,0.0091
754.00,0.0089
753.00,0.0088
752.00,0.0088
751.00,0.0088
750.00,0.0090
749.00,0.0092
748.00,0.0093
747.00,0.0094
746.00,0.0095
745.00,0.0096
744.00,0.0096
743.00,0.0096
742.00,0.0097
741.00,0.0099
740.00,0.0101
739.00,0.0102
738.00,0.0104
737.00,0.0105
736.00,0.0107
735.00,0.0109
734.00,0.0110
733.00,0.0110
732.00,0.0112
731.00,0.0114
730.00,0.0116
729.00,0.0118
728.00,0.0119
727.00,0.0120
726.00,0.0121
725.00,0.0120
724.00,0.0118
723.00,0.0115
722.00,0.0114
721.00,0.0113
720.00,0.0113
719.00,0.0113
718.00,0.0112
717.00,0.0111
716.00,0.0110
715.00,0.0109
714.00,0.0109
713.00,0.0110
712.00,0.0110
711.00,0.0109
710.00,0.0107
709.00,0.0105
708.00,0.0104
707.00,0.0103
706.00,0.0104
705.00,0.0104
704.00,0.0104
703.00,0.0103
702.00,0.0102
701.00,0.0101
700.00,0.0100
699.00,0.0099
698.00,0.0098
697.00,0.0096
696.00,0.0095
695.00,0.0094
694.00,0.0095
693.00,0.0096
692.00,0.0096
691.00,0.0096
690.00,0.0096
689.00,0.0096
688.00,0.0096
687.00,0.0097
686.00,0.0098
685.00,0.0100
684.00,0.0100
683.00,0.0099
682.00,0.0098
681.00,0.0096
680.00,0.0095
679.00,0.0096
678.00,0.0098
677.00,0.0100
676.00,0.0101
675.00,0.0101
674.00,0.0101
673.00,0.0100
672.00,0.0099
671.00,0.0099
670.00,0.0098
669.00,0.0096
668.00,0.0094
667.00,0.0093
666.00,0.0094
665.00,0.0095
664.00,0.0097
663.00,0.0099
662.00,0.0101
661.00,0.0102
660.00,0.0102
659.00,0.0100
658.00,0.0099
657.00,0.0098
656.00,0.0096
655.00,0.0095
654.00,0.0092
653.00,0.0090
652.00,0.0090
651.00,0.0091
650.00,0.0093
649.00,0.0092
648.00,0.0090
647.00,0.0088
646.00,0.0088
645.00,0.0091
644.00,0.0093
643.00,0.0094
642.00,0.0094
641.00,0.0095
640.00,0.0095
639.00,0.0094
638.00,0.0093
637.00,0.0093
636.00,0.0094
635.00,0.0094
634.00,0.0095
633.00,0.0097
632.00,0.0098
631.00,0.0099
630.00,0.0100
629.00,0.0100
628.00,0.0099
627.00,0.0097
626.00,0.0095
625.00,0.0093
624.00,0.0093
623.00,0.0094
622.00,0.0097
621.00,0.0100
620.00,0.0101
619.00,0.0100
618.00,0.0099
617.00,0.0097
616.00,0.0096
615.00,0.0096
614.00,0.0098
613.00,0.0101
612.00,0.0104
611.00,0.0106
610.00,0.0107
609.00,0.0107
608.00,0.0105
607.00,0.0102
606.00,0.0100
605.00,0.0099
604.00,0.0099
603.00,0.0100
602.00,0.0101
601.00,0.0101
600.00,0.0102
599.00,0.0102
598.00,0.0102
597.00,0.0102
596.00,0.0103
595.00,0.0105
594.00,0.0105
593.00,0.0105
592.00,0.0103
591.00,0.0101
590.00,0.0101
589.00,0.0103
588.00,0.0104
587.00,0.0105
586.00,0.0105
585.00,0.0105
584.00,0.0105
583.00,0.0104
582.00,0.0103
581.00,0.0103
580.00,0.0102
579.00,0.0100
578.00,0.0099
577.00,0.0097
576.00,0.0097
575.00,0.0098
574.00,0.0100
573.00,0.0103
572.00,0.0105
571.00,0.0106
570.00,0.0107
569.00,0.0107
568.00,0.0107
567.00,0.0108
566.00,0.0108
565.00,0.0109
564.00,0.0109
563.00,0.0108
562.00,0.0108
561.00,0.0108
560.00,0.0109
559.00,0.0110
558.00,0.0111
557.00,0.0111
556.00,0.0109
555.00,0.0105
554.00,0.0101
553.00,0.0099
552.00,0.0099
551.00,0.0101
550.00,0.0103
549.00,0.0104
548.00,0.0103
547.00,0.0103
546.00,0.0103
545.00,0.0102
544.00,0.0102
543.00,0.0101
542.00,0.0101
541.00,0.0102
540.00,0.0104
539.00,0.0108
538.00,0.0109
537.00,0.0109
536.00,0.0108
535.00,0.0110
534.00,0.0112
533.00,0.0113
532.00,0.0111
531.00,0.0108
530.00,0.0107
529.00,0.0108
528.00,0.0110
527.00,0.0113
526.00,0.0116
525.00,0.0117
524.00,0.0115
523.00,0.0111
522.00,0.0107
521.00,0.0104
520.00,0.0103
519.00,0.0102
518.00,0.0102
517.00,0.0099
516.00,0.0095
515.00,0.0093
514.00,0.0094
513.00,0.0096
512.00,0.0097
511.00,0.0096
510.00,0.0096
509.00,0.0097
508.00,0.0097
507.00,0.0094
506.00,0.0089
505.00,0.0084
504.00,0.0081
503.00,0.0080
502.00,0.0081
501.00,0.0083
500.00,0.0086
499.00,0.0090
498.00,0.0096
497.00,0.0103
496.00,0.0110
495.00,0.0114
494.00,0.0113
493.00,0.0110
492.00,0.0105
491.00,0.0103
490.00,0.0104
489.00,0.0107
488.00,0.0110
487.00,0.0109
486.00,0.0105
485.00,0.0100
484.00,0.0095
483.00,0.0090
482.00,0.0085
481.00,0.0082
480.00,0.0082
479.00,0.0087
478.00,0.0095
477.00,0.0104
476.00,0.0109
475.00,0.0107
474.00,0.0102
473.00,0.0097
472.00,0.0096
471.00,0.0098
470.00,0.0100
469.00,0.0102
468.00,0.0107
467.00,0.0118
466.00,0.0132
465.00,0.0143
464.00,0.0148
463.00,0.0149
462.00,0.0152
461.00,0.0161
460.00,0.0179
459.00,0.0202
458.00,0.0215
457.00,0.0206
456.00,0.0179
455.00,0.0153
454.00,0.0138
453.00,0.0138
452.00,0.0144
451.00,0.0148
450.00,0.0143
