Created as New Dataset,Sample 002 By Administrator Date Friday, September 05 2025
cm-1,A
4000.00,0.0011
3999.00,0.0010
3998.00,0.0010
3997.00,0.0010
3996.00,0.0011
3995.00,0.0011
3994.00,0.0011
3993.00,0.0011
3992.00,0.0011
3991.00,0.0011
3990.00,0.0011
3989.00,0.0010
3988.00,0.0010
3987.00,0.0010
3986.00,0.0010
3985.00,0.0010
3984.00,0.0010
3983.00,0.0010
3982.00,0.0010
3981.00,0.0010
3980.00,0.0010
3979.00,0.0010
3978.00,0.0010
3977.00,0.0010
3976.00,0.0010
3975.00,0.0010
3974.00,0.0010
3973.00,0.0009
3972.00,0.0009
3971.00,0.0009
3970.00,0.0009
3969.00,0.0009
3968.00,0.0009
3967.00,0.0009
3966.00,0.0009
3965.00,0.0008
3964.00,0.0008
3963.00,0.0008
3962.00,0.0008
3961.00,0.0009
3960.00,0.0009
3959.00,0.0009
3958.00,0.0009
3957.00,0.0009
3956.00,0.0009
3955.00,0.0009
3954.00,0.0009
3953.00,0.0009
3952.00,0.0009
3951.00,0.0009
3950.00,0.0008
3949.00,0.0008
3948.00,0.0008
3947.00,0.0008
3946.00,0.0009
3945.00,0.0009
3944.00,0.0009
3943.00,0.0009
3942.00,0.0009
3941.00,0.0009
3940.00,0.0009
3939.00,0.0009
3938.00,0.0009
3937.00,0.0008
3936.00,0.0008
3935.00,0.0009
3934.00,0.0009
3933.00,0.0009
3932.00,0.0009
3931.00,0.0009
3930.00,0.0009
3929.00,0.0009
3928.00,0.0009
3927.00,0.0009
3926.00,0.0009
3925.00,0.0009
3924.00,0.0009
3923.00,0.0009
3922.00,0.0009
3921.00,0.0009
3920.00,0.0009
3919.00,0.0009
3918.00,0.0009
3917.00,0.0009
3916.00,0.0008
3915.00,0.0008
3914.00,0.0008
3913.00,0.0008
3912.00,0.0008
3911.00,0.0008
3910.00,0.0009
3909.00,0.0009
3908.00,0.0009
3907.00,0.0008
3906.00,0.0008
3905.00,0.0008
3904.00,0.0008
3903.00,0.0008
3902.00,0.0008
3901.00,0.0008
3900.00,0.0008
3899.00,0.0008
3898.00,0.0008
3897.00,0.0008
3896.00,0.0007
3895.00,0.0007
3894.00,0.0007
3893.00,0.0007
3892.00,0.0008
3891.00,0.0008
3890.00,0.0009
3889.00,0.0009
3888.00,0.0009
3887.00,0.0008
3886.00,0.0008
3885.00,0.0007
3884.00,0.0007
3883.00,0.0007
3882.00,0.0007
3881.00,0.0008
3880.00,0.0008
3879.00,0.0008
3878.00,0.0008
3877.00,0.0008
3876.00,0.0008
3875.00,0.0008
3874.00,0.0008
3873.00,0.0008
3872.00,0.0008
3871.00,0.0008
3870.00,0.0008
3869.00,0.0008
3868.00,0.0008
3867.00,0.0007
3866.00,0.0007
3865.00,0.0007
3864.00,0.0007
3863.00,0.0007
3862.00,0.0007
3861.00,0.0007
3860.00,0.0007
3859.00,0.0008
3858.00,0.0008
3857.00,0.0009
3856.00,0.0009
3855.00,0.0008
3854.00,0.0008
3853.00,0.0007
3852.00,0.0007
3851.00,0.0007
3850.00,0.0007
3849.00,0.0007
3848.00,0.0007
3847.00,0.0007
3846.00,0.0006
3845.00,0.0006
3844.00,0.0006
3843.00,0.0006
3842.00,0.0007
3841.00,0.0007
3840.00,0.0007
3839.00,0.0007
3838.00,0.0007
3837.00,0.0008
3836.00,0.0008
3835.00,0.0008
3834.00,0.0007
3833.00,0.0007
3832.00,0.0007
3831.00,0.0007
3830.00,0.0007
3829.00,0.0007
3828.00,0.0007
3827.00,0.0007
3826.00,0.0007
3825.00,0.0007
3824.00,0.0006
3823.00,0.0006
3822.00,0.0006
3821.00,0.0007
3820.00,0.0007
3819.00,0.0008
3818.00,0.0007
3817.00,0.0007
3816.00,0.0007
3815.00,0.0007
3814.00,0.0007
3813.00,0.0007
3812.00,0.0007
3811.00,0.0008
3810.00,0.0008
3809.00,0.0008
3808.00,0.0008
3807.00,0.0008
3806.00,0.0008
3805.00,0.0007
3804.00,0.0007
3803.00,0.0006
3802.00,0.0006
3801.00,0.0006
3800.00,0.0006
3799.00,0.0007
3798.00,0.0007
3797.00,0.0008
3796.00,0.0008
3795.00,0.0008
3794.00,0.0008
3793.00,0.0008
3792.00,0.0008
3791.00,0.0008
3790.00,0.0008
3789.00,0.0008
3788.00,0.0008
3787.00,0.0007
3786.00,0.0007
3785.00,0.0007
3784.00,0.0007
3783.00,0.0007
3782.00,0.0008
3781.00,0.0008
3780.00,0.0008
3779.00,0.0008
3778.00,0.0008
3777.00,0.0008
3776.00,0.0008
3775.00,0.0008
3774.00,0.0008
3773.00,0.0008
3772.00,0.0008
3771.00,0.0008
3770.00,0.0009
3769.00,0.0009
3768.00,0.0009
3767.00,0.0009
3766.00,0.0009
3765.00,0.0009
3764.00,0.0009
3763.00,0.0009
3762.00,0.0009
3761.00,0.0008
3760.00,0.0008
3759.00,0.0009
3758.00,0.0009
3757.00,0.0009
3756.00,0.0009
3755.00,0.0008
3754.00,0.0008
3753.00,0.0007
3752.00,0.0007
3751.00,0.0007
3750.00,0.0007
3749.00,0.0007
3748.00,0.0007
3747.00,0.0008
3746.00,0.0008
3745.00,0.0008
3744.00,0.0008
3743.00,0.0007
3742.00,0.0007
3741.00,0.0006
3740.00,0.0006
3739.00,0.0006
3738.00,0.0005
3737.00,0.0005
3736.00,0.0005
3735.00,0.0006
3734.00,0.0006
3733.00,0.0006
3732.00,0.0006
3731.00,0.0006
3730.00,0.0006
3729.00,0.0005
3728.00,0.0005
3727.00,0.0005
3726.00,0.0005
3725.00,0.0005
3724.00,0.0005
3723.00,0.0005
3722.00,0.0005
3721.00,0.0006
3720.00,0.0006
3719.00,0.0006
3718.00,0.0006
3717.00,0.0005
3716.00,0.0005
3715.00,0.0006
3714.00,0.0006
3713.00,0.0007
3712.00,0.0008
3711.00,0.0008
3710.00,0.0008
3709.00,0.0006
3708.00,0.0005
3707.00,0.0005
3706.00,0.0004
3705.00,0.0004
3704.00,0.0004
3703.00,0.0004
3702.00,0.0005
3701.00,0.0005
3700.00,0.0005
3699.00,0.0005
3698.00,0.0005
3697.00,0.0004
3696.00,0.0004
3695.00,0.0004
3694.00,0.0004
3693.00,0.0005
3692.00,0.0005
3691.00,0.0004
3690.00,0.0004
3689.00,0.0003
3688.00,0.0002
3687.00,0.0001
3686.00,0.0000
3685.00,-0.0001
3684.00,-0.0002
3683.00,-0.0002
3682.00,-0.0003
3681.00,-0.0003
3680.00,-0.0004
3679.00,-0.0005
3678.00,-0.0006
3677.00,-0.0007
3676.00,-0.0008
3675.00,-0.0009
3674.00,-0.0010
3673.00,-0.0011
3672.00,-0.0013
3671.00,-0.0014
3670.00,-0.0015
3669.00,-0.0015
3668.00,-0.0016
3667.00,-0.0016
3666.00,-0.0017
3665.00,-0.0018
3664.00,-0.0018
3663.00,-0.0018
3662.00,-0.0019
3661.00,-0.0019
3660.00,-0.0019
3659.00,-0.0019
3658.00,-0.0018
3657.00,-0.0018
3656.00,-0.0018
3655.00,-0.0017
3654.00,-0.0017
3653.00,-0.0017
3652.00,-0.0017
3651.00,-0.0016
3650.00,-0.0016
3649.00,-0.0016
3648.00,-0.0016
3647.00,-0.0016
3646.00,-0.0015
3645.00,-0.0014
3644.00,-0.0013
3643.00,-0.0012
3642.00,-0.0010
3641.00,-0.0010
3640.00,-0.0010
3639.00,-0.0010
3638.00,-0.0010
3637.00,-0.0010
3636.00,-0.0009
3635.00,-0.0007
3634.00,-0.0004
3633.00,-0.0002
3632.00,-0.0001
3631.00,-0.0001
3630.00,-0.0001
3629.00,-0.0000
3628.00,0.0000
3627.00,0.0001
3626.00,0.0001
3625.00,0.0001
3624.00,0.0002
3623.00,0.0002
3622.00,0.0002
3621.00,0.0002
3620.00,0.0002
3619.00,0.0002
3618.00,0.0003
3617.00,0.0003
3616.00,0.0003
3615.00,0.0003
3614.00,0.0004
3613.00,0.0005
3612.00,0.0006
3611.00,0.0006
3610.00,0.0007
3609.00,0.0007
3608.00,0.0008
3607.00,0.0008
3606.00,0.0008
3605.00,0.0007
3604.00,0.0007
3603.00,0.0007
3602.00,0.0007
3601.00,0.0007
3600.00,0.0008
3599.00,0.0008
3598.00,0.0008
3597.00,0.0008
3596.00,0.0008
3595.00,0.0008
3594.00,0.0008
3593.00,0.0008
3592.00,0.0008
3591.00,0.0008
3590.00,0.0008
3589.00,0.0008
3588.00,0.0008
3587.00,0.0009
3586.00,0.0009
3585.00,0.0009
3584.00,0.0010
3583.00,0.0010
3582.00,0.0010
3581.00,0.0011
3580.00,0.0011
3579.00,0.0011
3578.00,0.0011
3577.00,0.0011
3576.00,0.0011
3575.00,0.0010
3574.00,0.0010
3573.00,0.0010
3572.00,0.0011
3571.00,0.0011
3570.00,0.0012
3569.00,0.0011
3568.00,0.0011
3567.00,0.0011
3566.00,0.0011
3565.00,0.0011
3564.00,0.0011
3563.00,0.0011
3562.00,0.0011
3561.00,0.0012
3560.00,0.0013
3559.00,0.0013
3558.00,0.0014
3557.00,0.0014
3556.00,0.0014
3555.00,0.0014
3554.00,0.0014
3553.00,0.0014
3552.00,0.0015
3551.00,0.0015
3550.00,0.0015
3549.00,0.0015
3548.00,0.0016
3547.00,0.0016
3546.00,0.0016
3545.00,0.0016
3544.00,0.0016
3543.00,0.0016
3542.00,0.0017
3541.00,0.0017
3540.00,0.0017
3539.00,0.0017
3538.00,0.0017
3537.00,0.0017
3536.00,0.0017
3535.00,0.0017
3534.00,0.0017
3533.00,0.0017
3532.00,0.0018
3531.00,0.0018
3530.00,0.0018
3529.00,0.0018
3528.00,0.0018
3527.00,0.0018
3526.00,0.0019
3525.00,0.0019
3524.00,0.0019
3523.00,0.0019
3522.00,0.0020
3521.00,0.0020
3520.00,0.0021
3519.00,0.0020
3518.00,0.0020
3517.00,0.0020
3516.00,0.0020
3515.00,0.0020
3514.00,0.0020
3513.00,0.0021
3512.00,0.0021
3511.00,0.0021
3510.00,0.0021
3509.00,0.0022
3508.00,0.0022
3507.00,0.0023
3506.00,0.0023
3505.00,0.0023
3504.00,0.0023
3503.00,0.0023
3502.00,0.0023
3501.00,0.0023
3500.00,0.0023
3499.00,0.0023
3498.00,0.0023
3497.00,0.0024
3496.00,0.0025
3495.00,0.0025
3494.00,0.0025
3493.00,0.0025
3492.00,0.0025
3491.00,0.0025
3490.00,0.0025
3489.00,0.0025
3488.00,0.0025
3487.00,0.0025
3486.00,0.0025
3485.00,0.0025
3484.00,0.0025
3483.00,0.0025
3482.00,0.0026
3481.00,0.0026
3480.00,0.0027
3479.00,0.0027
3478.00,0.0027
3477.00,0.0027
3476.00,0.0027
3475.00,0.0027
3474.00,0.0027
3473.00,0.0027
3472.00,0.0027
3471.00,0.0027
3470.00,0.0027
3469.00,0.0027
3468.00,0.0028
3467.00,0.0028
3466.00,0.0028
3465.00,0.0028
3464.00,0.0028
3463.00,0.0028
3462.00,0.0028
3461.00,0.0028
3460.00,0.0028
3459.00,0.0028
3458.00,0.0028
3457.00,0.0028
3456.00,0.0028
3455.00,0.0028
3454.00,0.0028
3453.00,0.0029
3452.00,0.0029
3451.00,0.0030
3450.00,0.0030
3449.00,0.0030
3448.00,0.0031
3447.00,0.0031
3446.00,0.0031
3445.00,0.0031
3444.00,0.0031
3443.00,0.0031
3442.00,0.0031
3441.00,0.0031
3440.00,0.0032
3439.00,0.0032
3438.00,0.0031
3437.00,0.0031
3436.00,0.0031
3435.00,0.0031
3434.00,0.0032
3433.00,0.0033
3432.00,0.0033
3431.00,0.0033
3430.00,0.0034
3429.00,0.0034
3428.00,0.0034
3427.00,0.0034
3426.00,0.0034
3425.00,0.0034
3424.00,0.0035
3423.00,0.0035
3422.00,0.0036
3421.00,0.0036
3420.00,0.0036
3419.00,0.0036
3418.00,0.0036
3417.00,0.0036
3416.00,0.0035
3415.00,0.0035
3414.00,0.0036
3413.00,0.0036
3412.00,0.0037
3411.00,0.0037
3410.00,0.0037
3409.00,0.0037
3408.00,0.0037
3407.00,0.0037
3406.00,0.0037
3405.00,0.0037
3404.00,0.0037
3403.00,0.0037
3402.00,0.0037
3401.00,0.0037
3400.00,0.0037
3399.00,0.0037
3398.00,0.0037
3397.00,0.0037
3396.00,0.0038
3395.00,0.0038
3394.00,0.0038
3393.00,0.0038
3392.00,0.0039
3391.00,0.0039
3390.00,0.0039
3389.00,0.0039
3388.00,0.0040
3387.00,0.0040
3386.00,0.0040
3385.00,0.0040
3384.00,0.0040
3383.00,0.0040
3382.00,0.0040
3381.00,0.0040
3380.00,0.0040
3379.00,0.0041
3378.00,0.0041
3377.00,0.0041
3376.00,0.0041
3375.00,0.0041
3374.00,0.0041
3373.00,0.0041
3372.00,0.0041
3371.00,0.0041
3370.00,0.0041
3369.00,0.0041
3368.00,0.0041
3367.00,0.0041
3366.00,0.0041
3365.00,0.0041
3364.00,0.0042
3363.00,0.0042
3362.00,0.0043
3361.00,0.0043
3360.00,0.0043
3359.00,0.0043
3358.00,0.0043
3357.00,0.0043
3356.00,0.0043
3355.00,0.0043
3354.00,0.0044
3353.00,0.0044
3352.00,0.0044
3351.00,0.0044
3350.00,0.0044
3349.00,0.0044
3348.00,0.0044
3347.00,0.0044
3346.00,0.0044
3345.00,0.0044
3344.00,0.0044
3343.00,0.0045
3342.00,0.0045
3341.00,0.0045
3340.00,0.0045
3339.00,0.0045
3338.00,0.0044
3337.00,0.0045
3336.00,0.0045
3335.00,0.0045
3334.00,0.0045
3333.00,0.0045
3332.00,0.0045
3331.00,0.0045
3330.00,0.0045
3329.00,0.0045
3328.00,0.0045
3327.00,0.0045
3326.00,0.0045
3325.00,0.0045
3324.00,0.0044
3323.00,0.0044
3322.00,0.0045
3321.00,0.0045
3320.00,0.0045
3319.00,0.0046
3318.00,0.0046
3317.00,0.0047
3316.00,0.0047
3315.00,0.0047
3314.00,0.0047
3313.00,0.0047
3312.00,0.0047
3311.00,0.0047
3310.00,0.0047
3309.00,0.0047
3308.00,0.0047
3307.00,0.0047
3306.00,0.0047
3305.00,0.0047
3304.00,0.0047
3303.00,0.0048
3302.00,0.0048
3301.00,0.0048
3300.00,0.0048
3299.00,0.0048
3298.00,0.0048
3297.00,0.0048
3296.00,0.0048
3295.00,0.0048
3294.00,0.0048
3293.00,0.0047
3292.00,0.0047
3291.00,0.0047
3290.00,0.0047
3289.00,0.0047
3288.00,0.0047
3287.00,0.0047
3286.00,0.0047
3285.00,0.0047
3284.00,0.0047
3283.00,0.0046
3282.00,0.0046
3281.00,0.0046
3280.00,0.0046
3279.00,0.0046
3278.00,0.0046
3277.00,0.0046
3276.00,0.0046
3275.00,0.0046
3274.00,0.0046
3273.00,0.0045
3272.00,0.0045
3271.00,0.0045
3270.00,0.0045
3269.00,0.0045
3268.00,0.0045
3267.00,0.0045
3266.00,0.0045
3265.00,0.0045
3264.00,0.0045
3263.00,0.0044
3262.00,0.0044
3261.00,0.0044
3260.00,0.0044
3259.00,0.0043
3258.00,0.0043
3257.00,0.0042
3256.00,0.0042
3255.00,0.0042
3254.00,0.0042
3253.00,0.0042
3252.00,0.0042
3251.00,0.0042
3250.00,0.0041
3249.00,0.0041
3248.00,0.0041
3247.00,0.0041
3246.00,0.0041
3245.00,0.0041
3244.00,0.0041
3243.00,0.0041
3242.00,0.0041
3241.00,0.0040
3240.00,0.0040
3239.00,0.0040
3238.00,0.0039
3237.00,0.0039
3236.00,0.0038
3235.00,0.0038
3234.00,0.0038
3233.00,0.0038
3232.00,0.0039
3231.00,0.0039
3230.00,0.0040
3229.00,0.0040
3228.00,0.0041
3227.00,0.0041
3226.00,0.0041
3225.00,0.0041
3224.00,0.0040
3223.00,0.0041
3222.00,0.0041
3221.00,0.0041
3220.00,0.0041
3219.00,0.0041
3218.00,0.0041
3217.00,0.0041
3216.00,0.0041
3215.00,0.0041
3214.00,0.0041
3213.00,0.0041
3212.00,0.0041
3211.00,0.0041
3210.00,0.0041
3209.00,0.0042
3208.00,0.0042
3207.00,0.0043
3206.00,0.0043
3205.00,0.0043
3204.00,0.0043
3203.00,0.0043
3202.00,0.0043
3201.00,0.0043
3200.00,0.0043
3199.00,0.0043
3198.00,0.0043
3197.00,0.0043
3196.00,0.0042
3195.00,0.0042
3194.00,0.0042
3193.00,0.0042
3192.00,0.0042
3191.00,0.0042
3190.00,0.0042
3189.00,0.0042
3188.00,0.0042
3187.00,0.0041
3186.00,0.0041
3185.00,0.0041
3184.00,0.0041
3183.00,0.0040
3182.00,0.0041
3181.00,0.0041
3180.00,0.0041
3179.00,0.0041
3178.00,0.0041
3177.00,0.0040
3176.00,0.0040
3175.00,0.0039
3174.00,0.0039
3173.00,0.0039
3172.00,0.0039
3171.00,0.0039
3170.00,0.0039
3169.00,0.0038
3168.00,0.0038
3167.00,0.0038
3166.00,0.0039
3165.00,0.0039
3164.00,0.0039
3163.00,0.0038
3162.00,0.0038
3161.00,0.0038
3160.00,0.0038
3159.00,0.0038
3158.00,0.0039
3157.00,0.0039
3156.00,0.0039
3155.00,0.0040
3154.00,0.0040
3153.00,0.0039
3152.00,0.0039
3151.00,0.0038
3150.00,0.0038
3149.00,0.0039
3148.00,0.0039
3147.00,0.0039
3146.00,0.0039
3145.00,0.0038
3144.00,0.0038
3143.00,0.0038
3142.00,0.0038
3141.00,0.0037
3140.00,0.0037
3139.00,0.0037
3138.00,0.0037
3137.00,0.0037
3136.00,0.0037
3135.00,0.0037
3134.00,0.0037
3133.00,0.0037
3132.00,0.0036
3131.00,0.0036
3130.00,0.0036
3129.00,0.0036
3128.00,0.0035
3127.00,0.0035
3126.00,0.0035
3125.00,0.0035
3124.00,0.0034
3123.00,0.0033
3122.00,0.0033
3121.00,0.0033
3120.00,0.0033
3119.00,0.0033
3118.00,0.0033
3117.00,0.0033
3116.00,0.0032
3115.00,0.0032
3114.00,0.0032
3113.00,0.0032
3112.00,0.0032
3111.00,0.0032
3110.00,0.0032
3109.00,0.0032
3108.00,0.0032
3107.00,0.0033
3106.00,0.0033
3105.00,0.0033
3104.00,0.0032
3103.00,0.0032
3102.00,0.0032
3101.00,0.0032
3100.00,0.0032
3099.00,0.0032
3098.00,0.0032
3097.00,0.0032
3096.00,0.0032
3095.00,0.0032
3094.00,0.0032
3093.00,0.0032
3092.00,0.0031
3091.00,0.0031
3090.00,0.0031
3089.00,0.0031
3088.00,0.0031
3087.00,0.0031
3086.00,0.0031
3085.00,0.0031
3084.00,0.0031
3083.00,0.0031
3082.00,0.0031
3081.00,0.0031
3080.00,0.0031
3079.00,0.0031
3078.00,0.0032
3077.00,0.0032
3076.00,0.0032
3075.00,0.0032
3074.00,0.0032
3073.00,0.0033
3072.00,0.0033
3071.00,0.0033
3070.00,0.0034
3069.00,0.0034
3068.00,0.0034
3067.00,0.0034
3066.00,0.0034
3065.00,0.0034
3064.00,0.0034
3063.00,0.0035
3062.00,0.0035
3061.00,0.0035
3060.00,0.0036
3059.00,0.0036
3058.00,0.0036
3057.00,0.0036
3056.00,0.0036
3055.00,0.0036
3054.00,0.0036
3053.00,0.0036
3052.00,0.0036
3051.00,0.0036
3050.00,0.0036
3049.00,0.0036
3048.00,0.0037
3047.00,0.0037
3046.00,0.0037
3045.00,0.0037
3044.00,0.0038
3043.00,0.0038
3042.00,0.0038
3041.00,0.0038
3040.00,0.0038
3039.00,0.0038
3038.00,0.0039
3037.00,0.0039
3036.00,0.0039
3035.00,0.0039
3034.00,0.0039
3033.00,0.0039
3032.00,0.0040
3031.00,0.0040
3030.00,0.0040
3029.00,0.0040
3028.00,0.0040
3027.00,0.0040
3026.00,0.0041
3025.00,0.0041
3024.00,0.0041
3023.00,0.0041
3022.00,0.0042
3021.00,0.0041
3020.00,0.0041
3019.00,0.0040
3018.00,0.0039
3017.00,0.0038
3016.00,0.0037
3015.00,0.0036
3014.00,0.0034
3013.00,0.0032
3012.00,0.0030
3011.00,0.0027
3010.00,0.0023
3009.00,0.0020
3008.00,0.0016
3007.00,0.0011
3006.00,0.0007
3005.00,0.0002
3004.00,-0.0003
3003.00,-0.0008
3002.00,-0.0013
3001.00,-0.0017
3000.00,-0.0020
2999.00,-0.0023
2998.00,-0.0025
2997.00,-0.0026
2996.00,-0.0026
2995.00,-0.0026
2994.00,-0.0025
2993.00,-0.0024
2992.00,-0.0022
2991.00,-0.0019
2990.00,-0.0016
2989.00,-0.0012
2988.00,-0.0009
2987.00,-0.0007
2986.00,-0.0008
2985.00,-0.0013
2984.00,-0.0021
2983.00,-0.0027
2982.00,-0.0024
2981.00,-0.0009
2980.00,0.0018
2979.00,0.0053
2978.00,0.0091
2977.00,0.0130
2976.00,0.0170
2975.00,0.0210
2974.00,0.0252
2973.00,0.0299
2972.00,0.0354
2971.00,0.0420
2970.00,0.0497
2969.00,0.0583
2968.00,0.0674
2967.00,0.0769
2966.00,0.0867
2965.00,0.0966
2964.00,0.1062
2963.00,0.1151
2962.00,0.1228
2961.00,0.1292
2960.00,0.1343
2959.00,0.1385
2958.00,0.1424
2957.00,0.1466
2956.00,0.1519
2955.00,0.1585
2954.00,0.1663
2953.00,0.1749
2952.00,0.1831
2951.00,0.1897
2950.00,0.1935
2949.00,0.1933
2948.00,0.1886
2947.00,0.1796
2946.00,0.1676
2945.00,0.1538
2944.00,0.1401
2943.00,0.1277
2942.00,0.1175
2941.00,0.1100
2940.00,0.1052
2939.00,0.1029
2938.00,0.1029
2937.00,0.1048
2936.00,0.1085
2935.00,0.1138
2934.00,0.1206
2933.00,0.1287
2932.00,0.1381
2931.00,0.1485
2930.00,0.1597
2929.00,0.1713
2928.00,0.1829
2927.00,0.1943
2926.00,0.2052
2925.00,0.2157
2924.00,0.2259
2923.00,0.2359
2922.00,0.2459
2921.00,0.2555
2920.00,0.2643
2919.00,0.2711
2918.00,0.2751
2917.00,0.2754
2916.00,0.2717
2915.00,0.2645
2914.00,0.2547
2913.00,0.2436
2912.00,0.2323
2911.00,0.2216
2910.00,0.2118
2909.00,0.2029
2908.00,0.1946
2907.00,0.1868
2906.00,0.1792
2905.00,0.1715
2904.00,0.1640
2903.00,0.1564
2902.00,0.1489
2901.00,0.1416
2900.00,0.1346
2899.00,0.1279
2898.00,0.1219
2897.00,0.1164
2896.00,0.1115
2895.00,0.1074
2894.00,0.1039
2893.00,0.1012
2892.00,0.0992
2891.00,0.0979
2890.00,0.0973
2889.00,0.0972
2888.00,0.0976
2887.00,0.0984
2886.00,0.0995
2885.00,0.1011
2884.00,0.1031
2883.00,0.1058
2882.00,0.1090
2881.00,0.1125
2880.00,0.1159
2879.00,0.1187
2878.00,0.1207
2877.00,0.1215
2876.00,0.1213
2875.00,0.1206
2874.00,0.1200
2873.00,0.1198
2872.00,0.1205
2871.00,0.1221
2870.00,0.1243
2869.00,0.1267
2868.00,0.1286
2867.00,0.1288
2866.00,0.1266
2865.00,0.1216
2864.00,0.1140
2863.00,0.1046
2862.00,0.0947
2861.00,0.0854
2860.00,0.0773
2859.00,0.0708
2858.00,0.0659
2857.00,0.0623
2856.00,0.0599
2855.00,0.0584
2854.00,0.0578
2853.00,0.0580
2852.00,0.0589
2851.00,0.0604
2850.00,0.0625
2849.00,0.0653
2848.00,0.0689
2847.00,0.0732
2846.00,0.0784
2845.00,0.0845
2844.00,0.0915
2843.00,0.0990
2842.00,0.1066
2841.00,0.1138
2840.00,0.1197
2839.00,0.1234
2838.00,0.1241
2837.00,0.1213
2836.00,0.1150
2835.00,0.1060
2834.00,0.0952
2833.00,0.0839
2832.00,0.0732
2831.00,0.0637
2830.00,0.0557
2829.00,0.0491
2828.00,0.0438
2827.00,0.0395
2826.00,0.0361
2825.00,0.0332
2824.00,0.0308
2823.00,0.0288
2822.00,0.0271
2821.00,0.0257
2820.00,0.0244
2819.00,0.0233
2818.00,0.0223
2817.00,0.0214
2816.00,0.0207
2815.00,0.0200
2814.00,0.0194
2813.00,0.0188
2812.00,0.0183
2811.00,0.0178
2810.00,0.0173
2809.00,0.0167
2808.00,0.0161
2807.00,0.0155
2806.00,0.0148
2805.00,0.0141
2804.00,0.0134
2803.00,0.0128
2802.00,0.0123
2801.00,0.0118
2800.00,0.0115
2799.00,0.0112
2798.00,0.0109
2797.00,0.0106
2796.00,0.0104
2795.00,0.0101
2794.00,0.0099
2793.00,0.0096
2792.00,0.0094
2791.00,0.0091
2790.00,0.0088
2789.00,0.0084
2788.00,0.0081
2787.00,0.0078
2786.00,0.0076
2785.00,0.0073
2784.00,0.0071
2783.00,0.0069
2782.00,0.0067
2781.00,0.0065
2780.00,0.0063
2779.00,0.0062
2778.00,0.0060
2777.00,0.0059
2776.00,0.0058
2775.00,0.0057
2774.00,0.0057
2773.00,0.0056
2772.00,0.0056
2771.00,0.0055
2770.00,0.0054
2769.00,0.0054
2768.00,0.0053
2767.00,0.0053
2766.00,0.0053
2765.00,0.0053
2764.00,0.0053
2763.00,0.0053
2762.00,0.0052
2761.00,0.0052
2760.00,0.0051
2759.00,0.0051
2758.00,0.0050
2757.00,0.0050
2756.00,0.0050
2755.00,0.0050
2754.00,0.0050
2753.00,0.0050
2752.00,0.0050
2751.00,0.0050
2750.00,0.0050
2749.00,0.0050
2748.00,0.0050
2747.00,0.0051
2746.00,0.0051
2745.00,0.0052
2744.00,0.0052
2743.00,0.0053
2742.00,0.0054
2741.00,0.0055
2740.00,0.0057
2739.00,0.0058
2738.00,0.0059
2737.00,0.0061
2736.00,0.0062
2735.00,0.0064
2734.00,0.0066
2733.00,0.0068
2732.00,0.0070
2731.00,0.0072
2730.00,0.0074
2729.00,0.0077
2728.00,0.0080
2727.00,0.0083
2726.00,0.0085
2725.00,0.0088
2724.00,0.0089
2723.00,0.0090
2722.00,0.0089
2721.00,0.0088
2720.00,0.0085
2719.00,0.0081
2718.00,0.0078
2717.00,0.0074
2716.00,0.0071
2715.00,0.0068
2714.00,0.0065
2713.00,0.0063
2712.00,0.0061
2711.00,0.0059
2710.00,0.0057
2709.00,0.0056
2708.00,0.0054
2707.00,0.0053
2706.00,0.0052
2705.00,0.0051
2704.00,0.0050
2703.00,0.0049
2702.00,0.0048
2701.00,0.0047
2700.00,0.0046
2699.00,0.0046
2698.00,0.0045
2697.00,0.0045
2696.00,0.0044
2695.00,0.0044
2694.00,0.0044
2693.00,0.0044
2692.00,0.0044
2691.00,0.0044
2690.00,0.0044
2689.00,0.0044
2688.00,0.0044
2687.00,0.0043
2686.00,0.0043
2685.00,0.0043
2684.00,0.0043
2683.00,0.0043
2682.00,0.0043
2681.00,0.0044
2680.00,0.0044
2679.00,0.0044
2678.00,0.0045
2677.00,0.0044
2676.00,0.0044
2675.00,0.0044
2674.00,0.0043
2673.00,0.0043
2672.00,0.0043
2671.00,0.0042
2670.00,0.0042
2669.00,0.0042
2668.00,0.0042
2667.00,0.0042
2666.00,0.0043
2665.00,0.0043
2664.00,0.0044
2663.00,0.0044
2662.00,0.0045
2661.00,0.0045
2660.00,0.0045
2659.00,0.0046
2658.00,0.0046
2657.00,0.0045
2656.00,0.0045
2655.00,0.0044
2654.00,0.0044
2653.00,0.0043
2652.00,0.0042
2651.00,0.0042
2650.00,0.0042
2649.00,0.0042
2648.00,0.0041
2647.00,0.0041
2646.00,0.0040
2645.00,0.0040
2644.00,0.0039
2643.00,0.0039
2642.00,0.0038
2641.00,0.0038
2640.00,0.0038
2639.00,0.0037
2638.00,0.0037
2637.00,0.0037
2636.00,0.0037
2635.00,0.0037
2634.00,0.0037
2633.00,0.0037
2632.00,0.0037
2631.00,0.0037
2630.00,0.0038
2629.00,0.0038
2628.00,0.0038
2627.00,0.0038
2626.00,0.0038
2625.00,0.0038
2624.00,0.0039
2623.00,0.0039
2622.00,0.0039
2621.00,0.0039
2620.00,0.0040
2619.00,0.0040
2618.00,0.0041
2617.00,0.0041
2616.00,0.0041
2615.00,0.0041
2614.00,0.0041
2613.00,0.0040
2612.00,0.0040
2611.00,0.0039
2610.00,0.0038
2609.00,0.0037
2608.00,0.0036
2607.00,0.0035
2606.00,0.0035
2605.00,0.0034
2604.00,0.0034
2603.00,0.0034
2602.00,0.0034
2601.00,0.0033
2600.00,0.0033
2599.00,0.0033
2598.00,0.0032
2597.00,0.0033
2596.00,0.0033
2595.00,0.0034
2594.00,0.0034
2593.00,0.0034
2592.00,0.0034
2591.00,0.0034
2590.00,0.0035
2589.00,0.0036
2588.00,0.0037
2587.00,0.0038
2586.00,0.0040
2585.00,0.0041
2584.00,0.0042
2583.00,0.0042
2582.00,0.0042
2581.00,0.0041
2580.00,0.0040
2579.00,0.0039
2578.00,0.0039
2577.00,0.0038
2576.00,0.0037
2575.00,0.0036
2574.00,0.0035
2573.00,0.0033
2572.00,0.0032
2571.00,0.0031
2570.00,0.0029
2569.00,0.0029
2568.00,0.0028
2567.00,0.0028
2566.00,0.0028
2565.00,0.0027
2564.00,0.0026
2563.00,0.0025
2562.00,0.0024
2561.00,0.0024
2560.00,0.0024
2559.00,0.0024
2558.00,0.0025
2557.00,0.0025
2556.00,0.0025
2555.00,0.0024
2554.00,0.0024
2553.00,0.0024
2552.00,0.0023
2551.00,0.0022
2550.00,0.0022
2549.00,0.0022
2548.00,0.0022
2547.00,0.0021
2546.00,0.0021
2545.00,0.0020
2544.00,0.0019
2543.00,0.0018
2542.00,0.0018
2541.00,0.0017
2540.00,0.0018
2539.00,0.0018
2538.00,0.0018
2537.00,0.0017
2536.00,0.0017
2535.00,0.0017
2534.00,0.0017
2533.00,0.0018
2532.00,0.0019
2531.00,0.0019
2530.00,0.0018
2529.00,0.0017
2528.00,0.0016
2527.00,0.0016
2526.00,0.0016
2525.00,0.0015
2524.00,0.0015
2523.00,0.0014
2522.00,0.0013
2521.00,0.0013
2520.00,0.0013
2519.00,0.0013
2518.00,0.0013
2517.00,0.0013
2516.00,0.0013
2515.00,0.0013
2514.00,0.0012
2513.00,0.0012
2512.00,0.0012
2511.00,0.0012
2510.00,0.0011
2509.00,0.0011
2508.00,0.0010
2507.00,0.0010
2506.00,0.0010
2505.00,0.0011
2504.00,0.0011
2503.00,0.0011
2502.00,0.0011
2501.00,0.0011
2500.00,0.0011
2499.00,0.0011
2498.00,0.0011
2497.00,0.0011
2496.00,0.0011
2495.00,0.0011
2494.00,0.0011
2493.00,0.0011
2492.00,0.0011
2491.00,0.0012
2490.00,0.0012
2489.00,0.0012
2488.00,0.0011
2487.00,0.0011
2486.00,0.0011
2485.00,0.0011
2484.00,0.0011
2483.00,0.0011
2482.00,0.0011
2481.00,0.0012
2480.00,0.0011
2479.00,0.0011
2478.00,0.0011
2477.00,0.0010
2476.00,0.0010
2475.00,0.0010
2474.00,0.0010
2473.00,0.0010
2472.00,0.0010
2471.00,0.0010
2470.00,0.0010
2469.00,0.0010
2468.00,0.0010
2467.00,0.0011
2466.00,0.0011
2465.00,0.0011
2464.00,0.0011
2463.00,0.0011
2462.00,0.0011
2461.00,0.0011
2460.00,0.0011
2459.00,0.0011
2458.00,0.0011
2457.00,0.0011
2456.00,0.0012
2455.00,0.0012
2454.00,0.0012
2453.00,0.0011
2452.00,0.0011
2451.00,0.0011
2450.00,0.0011
2449.00,0.0011
2448.00,0.0011
2447.00,0.0012
2446.00,0.0012
2445.00,0.0011
2444.00,0.0011
2443.00,0.0011
2442.00,0.0011
2441.00,0.0011
2440.00,0.0011
2439.00,0.0012
2438.00,0.0012
2437.00,0.0012
2436.00,0.0013
2435.00,0.0013
2434.00,0.0014
2433.00,0.0014
2432.00,0.0015
2431.00,0.0015
2430.00,0.0015
2429.00,0.0015
2428.00,0.0015
2427.00,0.0015
2426.00,0.0015
2425.00,0.0014
2424.00,0.0013
2423.00,0.0013
2422.00,0.0012
2421.00,0.0011
2420.00,0.0011
2419.00,0.0011
2418.00,0.0011
2417.00,0.0011
2416.00,0.0011
2415.00,0.0011
2414.00,0.0010
2413.00,0.0010
2412.00,0.0010
2411.00,0.0011
2410.00,0.0011
2409.00,0.0011
2408.00,0.0011
2407.00,0.0010
2406.00,0.0010
2405.00,0.0010
2404.00,0.0010
2403.00,0.0010
2402.00,0.0010
2401.00,0.0010
2400.00,0.0010
2399.00,0.0010
2398.00,0.0010
2397.00,0.0010
2396.00,0.0009
2395.00,0.0009
2394.00,0.0009
2393.00,0.0008
2392.00,0.0008
2391.00,0.0008
2390.00,0.0008
2389.00,0.0008
2388.00,0.0008
2387.00,0.0008
2386.00,0.0008
2385.00,0.0007
2384.00,0.0006
2383.00,0.0006
2382.00,0.0005
2381.00,0.0005
2380.00,0.0005
2379.00,0.0004
2378.00,0.0004
2377.00,0.0004
2376.00,0.0004
2375.00,0.0004
2374.00,0.0004
2373.00,0.0004
2372.00,0.0004
2371.00,0.0004
2370.00,0.0004
2369.00,0.0003
2368.00,0.0002
2367.00,0.0002
2366.00,0.0003
2365.00,0.0004
2364.00,0.0004
2363.00,0.0004
2362.00,0.0003
2361.00,0.0002
2360.00,0.0003
2359.00,0.0004
2358.00,0.0004
2357.00,0.0005
2356.00,0.0005
2355.00,0.0005
2354.00,0.0004
2353.00,0.0003
2352.00,0.0001
2351.00,0.0000
2350.00,0.0001
2349.00,0.0003
2348.00,0.0005
2347.00,0.0006
2346.00,0.0006
2345.00,0.0006
2344.00,0.0005
2343.00,0.0004
2342.00,0.0004
2341.00,0.0004
2340.00,0.0005
2339.00,0.0006
2338.00,0.0006
2337.00,0.0006
2336.00,0.0006
2335.00,0.0006
2334.00,0.0006
2333.00,0.0007
2332.00,0.0007
2331.00,0.0006
2330.00,0.0006
2329.00,0.0006
2328.00,0.0008
2327.00,0.0011
2326.00,0.0014
2325.00,0.0017
2324.00,0.0018
2323.00,0.0017
2322.00,0.0015
2321.00,0.0013
2320.00,0.0011
2319.00,0.0010
2318.00,0.0010
2317.00,0.0010
2316.00,0.0010
2315.00,0.0009
2314.00,0.0009
2313.00,0.0008
2312.00,0.0008
2311.00,0.0007
2310.00,0.0007
2309.00,0.0007
2308.00,0.0007
2307.00,0.0007
2306.00,0.0008
2305.00,0.0008
2304.00,0.0008
2303.00,0.0008
2302.00,0.0009
2301.00,0.0010
2300.00,0.0011
2299.00,0.0012
2298.00,0.0012
2297.00,0.0013
2296.00,0.0013
2295.00,0.0013
2294.00,0.0014
2293.00,0.0016
2292.00,0.0017
2291.00,0.0019
2290.00,0.0019
2289.00,0.0019
2288.00,0.0019
2287.00,0.0020
2286.00,0.0020
2285.00,0.0020
2284.00,0.0019
2283.00,0.0018
2282.00,0.0017
2281.00,0.0016
2280.00,0.0016
2279.00,0.0015
2278.00,0.0015
2277.00,0.0015
2276.00,0.0015
2275.00,0.0015
2274.00,0.0015
2273.00,0.0014
2272.00,0.0014
2271.00,0.0014
2270.00,0.0014
2269.00,0.0014
2268.00,0.0014
2267.00,0.0012
2266.00,0.0011
2265.00,0.0010
2264.00,0.0010
2263.00,0.0010
2262.00,0.0010
2261.00,0.0011
2260.00,0.0011
2259.00,0.0011
2258.00,0.0011
2257.00,0.0010
2256.00,0.0010
2255.00,0.0010
2254.00,0.0010
2253.00,0.0010
2252.00,0.0011
2251.00,0.0011
2250.00,0.0011
2249.00,0.0012
2248.00,0.0012
2247.00,0.0012
2246.00,0.0012
2245.00,0.0011
2244.00,0.0010
2243.00,0.0010
2242.00,0.0010
2241.00,0.0011
2240.00,0.0012
2239.00,0.0011
2238.00,0.0010
2237.00,0.0009
2236.00,0.0009
2235.00,0.0009
2234.00,0.0010
2233.00,0.0011
2232.00,0.0011
2231.00,0.0010
2230.00,0.0010
2229.00,0.0010
2228.00,0.0010
2227.00,0.0010
2226.00,0.0010
2225.00,0.0009
2224.00,0.0008
2223.00,0.0007
2222.00,0.0006
2221.00,0.0006
2220.00,0.0006
2219.00,0.0007
2218.00,0.0008
2217.00,0.0008
2216.00,0.0008
2215.00,0.0008
2214.00,0.0007
2213.00,0.0007
2212.00,0.0006
2211.00,0.0005
2210.00,0.0005
2209.00,0.0005
2208.00,0.0004
2207.00,0.0003
2206.00,0.0002
2205.00,0.0002
2204.00,0.0002
2203.00,0.0003
2202.00,0.0004
2201.00,0.0004
2200.00,0.0004
2199.00,0.0004
2198.00,0.0004
2197.00,0.0006
2196.00,0.0008
2195.00,0.0010
2194.00,0.0012
2193.00,0.0013
2192.00,0.0012
2191.00,0.0011
2190.00,0.0009
2189.00,0.0009
2188.00,0.0009
2187.00,0.0010
2186.00,0.0011
2185.00,0.0011
2184.00,0.0012
2183.00,0.0013
2182.00,0.0015
2181.00,0.0017
2180.00,0.0017
2179.00,0.0016
2178.00,0.0014
2177.00,0.0012
2176.00,0.0010
2175.00,0.0008
2174.00,0.0007
2173.00,0.0009
2172.00,0.0011
2171.00,0.0013
2170.00,0.0016
2169.00,0.0018
2168.00,0.0020
2167.00,0.0019
2166.00,0.0017
2165.00,0.0016
2164.00,0.0017
2163.00,0.0020
2162.00,0.0020
2161.00,0.0015
2160.00,0.0003
2159.00,-0.0012
2158.00,-0.0024
2157.00,-0.0027
2156.00,-0.0023
2155.00,-0.0018
2154.00,-0.0014
2153.00,-0.0013
2152.00,-0.0013
2151.00,-0.0013
2150.00,-0.0012
2149.00,-0.0011
2148.00,-0.0010
2147.00,-0.0010
2146.00,-0.0010
2145.00,-0.0010
2144.00,-0.0010
2143.00,-0.0010
2142.00,-0.0011
2141.00,-0.0011
2140.00,-0.0010
2139.00,-0.0009
2138.00,-0.0009
2137.00,-0.0010
2136.00,-0.0012
2135.00,-0.0014
2134.00,-0.0015
2133.00,-0.0015
2132.00,-0.0013
2131.00,-0.0012
2130.00,-0.0011
2129.00,-0.0009
2128.00,-0.0008
2127.00,-0.0006
2126.00,-0.0006
2125.00,-0.0005
2124.00,-0.0005
2123.00,-0.0004
2122.00,-0.0004
2121.00,-0.0004
2120.00,-0.0004
2119.00,-0.0004
2118.00,-0.0003
2117.00,-0.0001
2116.00,0.0001
2115.00,0.0004
2114.00,0.0005
2113.00,0.0006
2112.00,0.0006
2111.00,0.0006
2110.00,0.0005
2109.00,0.0005
2108.00,0.0004
2107.00,0.0003
2106.00,0.0003
2105.00,0.0003
2104.00,0.0003
2103.00,0.0003
2102.00,0.0003
2101.00,0.0004
2100.00,0.0004
2099.00,0.0004
2098.00,0.0002
2097.00,-0.0001
2096.00,-0.0004
2095.00,-0.0005
2094.00,-0.0004
2093.00,-0.0002
2092.00,-0.0001
2091.00,-0.0000
2090.00,0.0000
2089.00,0.0000
2088.00,0.0002
2087.00,0.0003
2086.00,0.0003
2085.00,0.0003
2084.00,0.0003
2083.00,0.0003
2082.00,0.0004
2081.00,0.0005
2080.00,0.0006
2079.00,0.0006
2078.00,0.0007
2077.00,0.0007
2076.00,0.0007
2075.00,0.0006
2074.00,0.0005
2073.00,0.0003
2072.00,0.0001
2071.00,0.0000
2070.00,-0.0001
2069.00,-0.0000
2068.00,0.0001
2067.00,0.0002
2066.00,0.0001
2065.00,0.0001
2064.00,0.0000
2063.00,-0.0000
2062.00,0.0001
2061.00,0.0002
2060.00,0.0004
2059.00,0.0005
2058.00,0.0004
2057.00,0.0003
2056.00,0.0002
2055.00,0.0002
2054.00,0.0005
2053.00,0.0010
2052.00,0.0016
2051.00,0.0019
2050.00,0.0017
2049.00,0.0012
2048.00,0.0007
2047.00,0.0002
2046.00,-0.0000
2045.00,-0.0001
2044.00,0.0000
2043.00,0.0002
2042.00,0.0003
2041.00,0.0004
2040.00,0.0005
2039.00,0.0005
2038.00,0.0004
2037.00,0.0003
2036.00,0.0002
2035.00,0.0000
2034.00,-0.0003
2033.00,-0.0007
2032.00,-0.0010
2031.00,-0.0012
2030.00,-0.0011
2029.00,-0.0009
2028.00,-0.0007
2027.00,-0.0007
2026.00,-0.0007
2025.00,-0.0007
2024.00,-0.0008
2023.00,-0.0009
2022.00,-0.0011
2021.00,-0.0013
2020.00,-0.0012
2019.00,-0.0010
2018.00,-0.0006
2017.00,-0.0003
2016.00,-0.0003
2015.00,-0.0005
2014.00,-0.0008
2013.00,-0.0010
2012.00,-0.0010
2011.00,-0.0009
2010.00,-0.0008
2009.00,-0.0007
2008.00,-0.0007
2007.00,-0.0009
2006.00,-0.0012
2005.00,-0.0016
2004.00,-0.0018
2003.00,-0.0019
2002.00,-0.0018
2001.00,-0.0015
2000.00,-0.0011
1999.00,-0.0008
1998.00,-0.0007
1997.00,-0.0007
1996.00,-0.0006
1995.00,-0.0006
1994.00,-0.0005
1993.00,-0.0005
1992.00,-0.0007
1991.00,-0.0009
1990.00,-0.0010
1989.00,-0.0009
1988.00,-0.0006
1987.00,-0.0003
1986.00,0.0000
1985.00,0.0004
1984.00,0.0006
1983.00,0.0008
1982.00,0.0009
1981.00,0.0010
1980.00,0.0010
1979.00,0.0008
1978.00,0.0002
1977.00,-0.0005
1976.00,-0.0010
1975.00,-0.0013
1974.00,-0.0015
1973.00,-0.0016
1972.00,-0.0016
1971.00,-0.0015
1970.00,-0.0015
1969.00,-0.0014
1968.00,-0.0012
1967.00,-0.0009
1966.00,-0.0008
1965.00,-0.0006
1964.00,-0.0006
1963.00,-0.0006
1962.00,-0.0009
1961.00,-0.0011
1960.00,-0.0013
1959.00,-0.0012
1958.00,-0.0011
1957.00,-0.0010
1956.00,-0.0010
1955.00,-0.0012
1954.00,-0.0013
1953.00,-0.0014
1952.00,-0.0014
1951.00,-0.0014
1950.00,-0.0015
1949.00,-0.0015
1948.00,-0.0014
1947.00,-0.0013
1946.00,-0.0013
1945.00,-0.0012
1944.00,-0.0011
1943.00,-0.0010
1942.00,-0.0009
1941.00,-0.0008
1940.00,-0.0008
1939.00,-0.0008
1938.00,-0.0008
1937.00,-0.0008
1936.00,-0.0008
1935.00,-0.0009
1934.00,-0.0010
1933.00,-0.0010
1932.00,-0.0010
1931.00,-0.0009
1930.00,-0.0009
1929.00,-0.0008
1928.00,-0.0007
1927.00,-0.0006
1926.00,-0.0005
1925.00,-0.0004
1924.00,-0.0004
1923.00,-0.0004
1922.00,-0.0005
1921.00,-0.0005
1920.00,-0.0005
1919.00,-0.0004
1918.00,-0.0003
1917.00,-0.0001
1916.00,-0.0001
1915.00,-0.0001
1914.00,-0.0001
1913.00,-0.0001
1912.00,-0.0000
1911.00,-0.0001
1910.00,-0.0001
1909.00,-0.0002
1908.00,-0.0003
1907.00,-0.0003
1906.00,-0.0003
1905.00,-0.0002
1904.00,-0.0001
1903.00,-0.0001
1902.00,-0.0001
1901.00,-0.0001
1900.00,-0.0002
1899.00,-0.0001
1898.00,0.0000
1897.00,0.0001
1896.00,0.0001
1895.00,0.0001
1894.00,0.0000
1893.00,-0.0000
1892.00,-0.0000
1891.00,-0.0001
1890.00,-0.0000
1889.00,0.0000
1888.00,0.0000
1887.00,0.0001
1886.00,0.0001
1885.00,0.0001
1884.00,0.0001
1883.00,0.0001
1882.00,0.0001
1881.00,0.0002
1880.00,0.0002
1879.00,0.0003
1878.00,0.0002
1877.00,0.0002
1876.00,0.0001
1875.00,0.0000
1874.00,-0.0000
1873.00,0.0000
1872.00,0.0001
1871.00,0.0001
1870.00,0.0001
1869.00,0.0002
1868.00,0.0003
1867.00,0.0002
1866.00,0.0002
1865.00,0.0001
1864.00,0.0000
1863.00,-0.0000
1862.00,-0.0000
1861.00,-0.0000
1860.00,0.0000
1859.00,0.0001
1858.00,0.0002
1857.00,0.0002
1856.00,0.0002
1855.00,0.0002
1854.00,0.0001
1853.00,0.0001
1852.00,0.0001
1851.00,0.0002
1850.00,0.0002
1849.00,0.0002
1848.00,0.0002
1847.00,0.0001
1846.00,0.0000
1845.00,0.0000
1844.00,0.0000
1843.00,0.0001
1842.00,0.0002
1841.00,0.0002
1840.00,0.0002
1839.00,0.0002
1838.00,0.0002
1837.00,0.0003
1836.00,0.0003
1835.00,0.0003
1834.00,0.0003
1833.00,0.0004
1832.00,0.0004
1831.00,0.0005
1830.00,0.0005
1829.00,0.0005
1828.00,0.0005
1827.00,0.0004
1826.00,0.0004
1825.00,0.0004
1824.00,0.0005
1823.00,0.0005
1822.00,0.0005
1821.00,0.0005
1820.00,0.0004
1819.00,0.0003
1818.00,0.0001
1817.00,0.0000
1816.00,0.0000
1815.00,0.0000
1814.00,0.0000
1813.00,0.0001
1812.00,0.0002
1811.00,0.0003
1810.00,0.0004
1809.00,0.0004
1808.00,0.0005
1807.00,0.0006
1806.00,0.0006
1805.00,0.0006
1804.00,0.0006
1803.00,0.0006
1802.00,0.0005
1801.00,0.0005
1800.00,0.0005
1799.00,0.0006
1798.00,0.0005
1797.00,0.0005
1796.00,0.0006
1795.00,0.0006
1794.00,0.0006
1793.00,0.0007
1792.00,0.0007
1791.00,0.0008
1790.00,0.0008
1789.00,0.0008
1788.00,0.0008
1787.00,0.0008
1786.00,0.0008
1785.00,0.0008
1784.00,0.0008
1783.00,0.0008
1782.00,0.0008
1781.00,0.0008
1780.00,0.0009
1779.00,0.0009
1778.00,0.0009
1777.00,0.0009
1776.00,0.0009
1775.00,0.0008
1774.00,0.0008
1773.00,0.0009
1772.00,0.0010
1771.00,0.0011
1770.00,0.0011
1769.00,0.0011
1768.00,0.0012
1767.00,0.0012
1766.00,0.0012
1765.00,0.0012
1764.00,0.0012
1763.00,0.0013
1762.00,0.0014
1761.00,0.0015
1760.00,0.0016
1759.00,0.0016
1758.00,0.0017
1757.00,0.0019
1756.00,0.0021
1755.00,0.0022
1754.00,0.0024
1753.00,0.0026
1752.00,0.0027
1751.00,0.0029
1750.00,0.0031
1749.00,0.0032
1748.00,0.0034
1747.00,0.0035
1746.00,0.0036
1745.00,0.0036
1744.00,0.0037
1743.00,0.0037
1742.00,0.0037
1741.00,0.0036
1740.00,0.0036
1739.00,0.0035
1738.00,0.0034
1737.00,0.0033
1736.00,0.0032
1735.00,0.0032
1734.00,0.0032
1733.00,0.0032
1732.00,0.0032
1731.00,0.0032
1730.00,0.0031
1729.00,0.0031
1728.00,0.0030
1727.00,0.0030
1726.00,0.0029
1725.00,0.0028
1724.00,0.0028
1723.00,0.0029
1722.00,0.0029
1721.00,0.0029
1720.00,0.0028
1719.00,0.0027
1718.00,0.0027
1717.00,0.0027
1716.00,0.0028
1715.00,0.0029
1714.00,0.0029
1713.00,0.0029
1712.00,0.0030
1711.00,0.0030
1710.00,0.0030
1709.00,0.0030
1708.00,0.0031
1707.00,0.0032
1706.00,0.0033
1705.00,0.0034
1704.00,0.0036
1703.00,0.0036
1702.00,0.0037
1701.00,0.0037
1700.00,0.0037
1699.00,0.0037
1698.00,0.0038
1697.00,0.0039
1696.00,0.0041
1695.00,0.0043
1694.00,0.0043
1693.00,0.0044
1692.00,0.0045
1691.00,0.0047
1690.00,0.0048
1689.00,0.0049
1688.00,0.0050
1687.00,0.0051
1686.00,0.0050
1685.00,0.0051
1684.00,0.0053
1683.00,0.0055
1682.00,0.0057
1681.00,0.0058
1680.00,0.0059
1679.00,0.0060
1678.00,0.0060
1677.00,0.0061
1676.00,0.0062
1675.00,0.0063
1674.00,0.0065
1673.00,0.0066
1672.00,0.0067
1671.00,0.0068
1670.00,0.0069
1669.00,0.0070
1668.00,0.0072
1667.00,0.0073
1666.00,0.0073
1665.00,0.0074
1664.00,0.0074
1663.00,0.0075
1662.00,0.0076
1661.00,0.0077
1660.00,0.0078
1659.00,0.0078
1658.00,0.0079
1657.00,0.0079
1656.00,0.0080
1655.00,0.0080
1654.00,0.0080
1653.00,0.0080
1652.00,0.0080
1651.00,0.0080
1650.00,0.0080
1649.00,0.0080
1648.00,0.0079
1647.00,0.0078
1646.00,0.0077
1645.00,0.0077
1644.00,0.0077
1643.00,0.0077
1642.00,0.0076
1641.00,0.0076
1640.00,0.0075
1639.00,0.0075
1638.00,0.0075
1637.00,0.0074
1636.00,0.0074
1635.00,0.0073
1634.00,0.0072
1633.00,0.0071
1632.00,0.0071
1631.00,0.0071
1630.00,0.0070
1629.00,0.0070
1628.00,0.0070
1627.00,0.0069
1626.00,0.0068
1625.00,0.0067
1624.00,0.0066
1623.00,0.0066
1622.00,0.0065
1621.00,0.0065
1620.00,0.0064
1619.00,0.0063
1618.00,0.0061
1617.00,0.0060
1616.00,0.0060
1615.00,0.0059
1614.00,0.0059
1613.00,0.0060
1612.00,0.0060
1611.00,0.0059
1610.00,0.0059
1609.00,0.0058
1608.00,0.0058
1607.00,0.0058
1606.00,0.0058
1605.00,0.0058
1604.00,0.0058
1603.00,0.0058
1602.00,0.0058
1601.00,0.0058
1600.00,0.0058
1599.00,0.0058
1598.00,0.0058
1597.00,0.0058
1596.00,0.0058
1595.00,0.0058
1594.00,0.0059
1593.00,0.0059
1592.00,0.0060
1591.00,0.0060
1590.00,0.0061
1589.00,0.0061
1588.00,0.0062
1587.00,0.0063
1586.00,0.0064
1585.00,0.0065
1584.00,0.0067
1583.00,0.0068
1582.00,0.0069
1581.00,0.0071
1580.00,0.0073
1579.00,0.0074
1578.00,0.0075
1577.00,0.0076
1576.00,0.0076
1575.00,0.0075
1574.00,0.0074
1573.00,0.0073
1572.00,0.0072
1571.00,0.0071
1570.00,0.0069
1569.00,0.0068
1568.00,0.0068
1567.00,0.0067
1566.00,0.0067
1565.00,0.0068
1564.00,0.0069
1563.00,0.0069
1562.00,0.0069
1561.00,0.0070
1560.00,0.0070
1559.00,0.0071
1558.00,0.0071
1557.00,0.0071
1556.00,0.0072
1555.00,0.0073
1554.00,0.0074
1553.00,0.0075
1552.00,0.0076
1551.00,0.0078
1550.00,0.0080
1549.00,0.0082
1548.00,0.0084
1547.00,0.0086
1546.00,0.0087
1545.00,0.0090
1544.00,0.0092
1543.00,0.0093
1542.00,0.0093
1541.00,0.0092
1540.00,0.0091
1539.00,0.0088
1538.00,0.0086
1537.00,0.0085
1536.00,0.0084
1535.00,0.0082
1534.00,0.0079
1533.00,0.0077
1532.00,0.0075
1531.00,0.0073
1530.00,0.0072
1529.00,0.0072
1528.00,0.0072
1527.00,0.0072
1526.00,0.0071
1525.00,0.0070
1524.00,0.0069
1523.00,0.0069
1522.00,0.0068
1521.00,0.0069
1520.00,0.0070
1519.00,0.0070
1518.00,0.0070
1517.00,0.0070
1516.00,0.0071
1515.00,0.0071
1514.00,0.0070
1513.00,0.0071
1512.00,0.0071
1511.00,0.0071
1510.00,0.0071
1509.00,0.0071
1508.00,0.0071
1507.00,0.0071
1506.00,0.0071
1505.00,0.0071
1504.00,0.0072
1503.00,0.0072
1502.00,0.0073
1501.00,0.0075
1500.00,0.0077
1499.00,0.0078
1498.00,0.0079
1497.00,0.0082
1496.00,0.0085
1495.00,0.0087
1494.00,0.0088
1493.00,0.0091
1492.00,0.0094
1491.00,0.0097
1490.00,0.0101
1489.00,0.0105
1488.00,0.0110
1487.00,0.0114
1486.00,0.0119
1485.00,0.0125
1484.00,0.0131
1483.00,0.0139
1482.00,0.0148
1481.00,0.0159
1480.00,0.0171
1479.00,0.0183
1478.00,0.0197
1477.00,0.0214
1476.00,0.0235
1475.00,0.0257
1474.00,0.0290
1473.00,0.0342
1472.00,0.0410
1471.00,0.0477
1470.00,0.0543
1469.00,0.0610
1468.00,0.0683
1467.00,0.0762
1466.00,0.0851
1465.00,0.0947
1464.00,0.1033
1463.00,0.1095
1462.00,0.1138
1461.00,0.1170
1460.00,0.1195
1459.00,0.1214
1458.00,0.1230
1457.00,0.1245
1456.00,0.1251
1455.00,0.1248
1454.00,0.1240
1453.00,0.1227
1452.00,0.1204
1451.00,0.1167
1450.00,0.1114
1449.00,0.1039
1448.00,0.0942
1447.00,0.0839
1446.00,0.0746
1445.00,0.0667
1444.00,0.0600
1443.00,0.0546
1442.00,0.0507
1441.00,0.0481
1440.00,0.0466
1439.00,0.0460
1438.00,0.0463
1437.00,0.0466
1436.00,0.0457
1435.00,0.0430
1434.00,0.0390
1433.00,0.0342
1432.00,0.0293
1431.00,0.0249
1430.00,0.0216
1429.00,0.0192
1428.00,0.0176
1427.00,0.0165
1426.00,0.0158
1425.00,0.0153
1424.00,0.0147
1423.00,0.0143
1422.00,0.0140
1421.00,0.0137
1420.00,0.0133
1419.00,0.0130
1418.00,0.0128
1417.00,0.0124
1416.00,0.0120
1415.00,0.0117
1414.00,0.0115
1413.00,0.0112
1412.00,0.0109
1411.00,0.0105
1410.00,0.0103
1409.00,0.0100
1408.00,0.0097
1407.00,0.0094
1406.00,0.0092
1405.00,0.0089
1404.00,0.0085
1403.00,0.0081
1402.00,0.0079
1401.00,0.0076
1400.00,0.0072
1399.00,0.0069
1398.00,0.0067
1397.00,0.0066
1396.00,0.0064
1395.00,0.0065
1394.00,0.0068
1393.00,0.0072
1392.00,0.0078
1391.00,0.0086
1390.00,0.0098
1389.00,0.0115
1388.00,0.0139
1387.00,0.0177
1386.00,0.0228
1385.00,0.0291
1384.00,0.0374
1383.00,0.0487
1382.00,0.0636
1381.00,0.0830
1380.00,0.1074
1379.00,0.1363
1378.00,0.1656
1377.00,0.1891
1376.00,0.2001
1375.00,0.1935
1374.00,0.1709
1373.00,0.1413
1372.00,0.1130
1371.00,0.0894
1370.00,0.0704
1369.00,0.0561
1368.00,0.0464
1367.00,0.0405
1366.00,0.0374
1365.00,0.0363
1364.00,0.0368
1363.00,0.0387
1362.00,0.0414
1361.00,0.0441
1360.00,0.0462
1359.00,0.0469
1358.00,0.0457
1357.00,0.0428
1356.00,0.0386
1355.00,0.0339
1354.00,0.0294
1353.00,0.0255
1352.00,0.0224
1351.00,0.0200
1350.00,0.0180
1349.00,0.0165
1348.00,0.0152
1347.00,0.0143
1346.00,0.0135
1345.00,0.0129
1344.00,0.0125
1343.00,0.0121
1342.00,0.0119
1341.00,0.0117
1340.00,0.0115
1339.00,0.0113
1338.00,0.0112
1337.00,0.0112
1336.00,0.0113
1335.00,0.0116
1334.00,0.0119
1333.00,0.0124
1332.00,0.0130
1331.00,0.0134
1330.00,0.0137
1329.00,0.0136
1328.00,0.0133
1327.00,0.0128
1326.00,0.0121
1325.00,0.0115
1324.00,0.0108
1323.00,0.0103
1322.00,0.0099
1321.00,0.0096
1320.00,0.0094
1319.00,0.0092
1318.00,0.0090
1317.00,0.0089
1316.00,0.0087
1315.00,0.0087
1314.00,0.0086
1313.00,0.0086
1312.00,0.0087
1311.00,0.0090
1310.00,0.0094
1309.00,0.0100
1308.00,0.0109
1307.00,0.0120
1306.00,0.0131
1305.00,0.0138
1304.00,0.0141
1303.00,0.0140
1302.00,0.0136
1301.00,0.0132
1300.00,0.0130
1299.00,0.0131
1298.00,0.0132
1297.00,0.0132
1296.00,0.0131
1295.00,0.0129
1294.00,0.0125
1293.00,0.0119
1292.00,0.0112
1291.00,0.0106
1290.00,0.0101
1289.00,0.0097
1288.00,0.0093
1287.00,0.0090
1286.00,0.0087
1285.00,0.0084
1284.00,0.0081
1283.00,0.0079
1282.00,0.0076
1281.00,0.0074
1280.00,0.0072
1279.00,0.0070
1278.00,0.0068
1277.00,0.0066
1276.00,0.0064
1275.00,0.0062
1274.00,0.0060
1273.00,0.0058
1272.00,0.0056
1271.00,0.0054
1270.00,0.0053
1269.00,0.0052
1268.00,0.0051
1267.00,0.0052
1266.00,0.0052
1265.00,0.0053
1264.00,0.0055
1263.00,0.0057
1262.00,0.0060
1261.00,0.0063
1260.00,0.0069
1259.00,0.0075
1258.00,0.0081
1257.00,0.0086
1256.00,0.0087
1255.00,0.0084
1254.00,0.0077
1253.00,0.0069
1252.00,0.0061
1251.00,0.0055
1250.00,0.0051
1249.00,0.0050
1248.00,0.0049
1247.00,0.0049
1246.00,0.0049
1245.00,0.0049
1244.00,0.0049
1243.00,0.0049
1242.00,0.0049
1241.00,0.0049
1240.00,0.0049
1239.00,0.0049
1238.00,0.0050
1237.00,0.0051
1236.00,0.0052
1235.00,0.0054
1234.00,0.0055
1233.00,0.0057
1232.00,0.0059
1231.00,0.0061
1230.00,0.0063
1229.00,0.0066
1228.00,0.0069
1227.00,0.0072
1226.00,0.0076
1225.00,0.0080
1224.00,0.0085
1223.00,0.0090
1222.00,0.0094
1221.00,0.0098
1220.00,0.0101
1219.00,0.0103
1218.00,0.0103
1217.00,0.0102
1216.00,0.0100
1215.00,0.0098
1214.00,0.0094
1213.00,0.0091
1212.00,0.0088
1211.00,0.0086
1210.00,0.0084
1209.00,0.0082
1208.00,0.0080
1207.00,0.0079
1206.00,0.0078
1205.00,0.0077
1204.00,0.0077
1203.00,0.0076
1202.00,0.0076
1201.00,0.0076
1200.00,0.0075
1199.00,0.0075
1198.00,0.0074
1197.00,0.0073
1196.00,0.0073
1195.00,0.0072
1194.00,0.0072
1193.00,0.0072
1192.00,0.0070
1191.00,0.0069
1190.00,0.0068
1189.00,0.0066
1188.00,0.0065
1187.00,0.0064
1186.00,0.0063
1185.00,0.0061
1184.00,0.0060
1183.00,0.0059
1182.00,0.0058
1181.00,0.0058
1180.00,0.0058
1179.00,0.0060
1178.00,0.0064
1177.00,0.0071
1176.00,0.0080
1175.00,0.0093
1174.00,0.0110
1173.00,0.0132
1172.00,0.0158
1171.00,0.0187
1170.00,0.0215
1169.00,0.0239
1168.00,0.0252
1167.00,0.0255
1166.00,0.0248
1165.00,0.0233
1164.00,0.0215
1163.00,0.0197
1162.00,0.0181
1161.00,0.0167
1160.00,0.0155
1159.00,0.0145
1158.00,0.0137
1157.00,0.0131
1156.00,0.0127
1155.00,0.0124
1154.00,0.0121
1153.00,0.0119
1152.00,0.0115
1151.00,0.0109
1150.00,0.0102
1149.00,0.0094
1148.00,0.0085
1147.00,0.0077
1146.00,0.0070
1145.00,0.0063
1144.00,0.0058
1143.00,0.0053
1142.00,0.0048
1141.00,0.0043
1140.00,0.0038
1139.00,0.0034
1138.00,0.0032
1137.00,0.0030
1136.00,0.0030
1135.00,0.0030
1134.00,0.0030
1133.00,0.0030
1132.00,0.0030
1131.00,0.0031
1130.00,0.0032
1129.00,0.0034
1128.00,0.0036
1127.00,0.0038
1126.00,0.0040
1125.00,0.0042
1124.00,0.0043
1123.00,0.0044
1122.00,0.0046
1121.00,0.0048
1120.00,0.0050
1119.00,0.0052
1118.00,0.0054
1117.00,0.0056
1116.00,0.0058
1115.00,0.0060
1114.00,0.0063
1113.00,0.0066
1112.00,0.0069
1111.00,0.0073
1110.00,0.0078
1109.00,0.0083
1108.00,0.0089
1107.00,0.0096
1106.00,0.0103
1105.00,0.0111
1104.00,0.0118
1103.00,0.0122
1102.00,0.0122
1101.00,0.0117
1100.00,0.0109
1099.00,0.0101
1098.00,0.0091
1097.00,0.0083
1096.00,0.0075
1095.00,0.0068
1094.00,0.0063
1093.00,0.0058
1092.00,0.0054
1091.00,0.0050
1090.00,0.0047
1089.00,0.0043
1088.00,0.0040
1087.00,0.0038
1086.00,0.0036
1085.00,0.0034
1084.00,0.0032
1083.00,0.0030
1082.00,0.0029
1081.00,0.0028
1080.00,0.0026
1079.00,0.0026
1078.00,0.0025
1077.00,0.0023
1076.00,0.0022
1075.00,0.0020
1074.00,0.0019
1073.00,0.0019
1072.00,0.0020
1071.00,0.0021
1070.00,0.0022
1069.00,0.0023
1068.00,0.0025
1067.00,0.0028
1066.00,0.0031
1065.00,0.0033
1064.00,0.0035
1063.00,0.0037
1062.00,0.0039
1061.00,0.0041
1060.00,0.0042
1059.00,0.0044
1058.00,0.0045
1057.00,0.0047
1056.00,0.0050
1055.00,0.0052
1054.00,0.0056
1053.00,0.0059
1052.00,0.0062
1051.00,0.0065
1050.00,0.0070
1049.00,0.0074
1048.00,0.0079
1047.00,0.0084
1046.00,0.0087
1045.00,0.0090
1044.00,0.0091
1043.00,0.0091
1042.00,0.0091
1041.00,0.0089
1040.00,0.0088
1039.00,0.0088
1038.00,0.0089
1037.00,0.0090
1036.00,0.0091
1035.00,0.0092
1034.00,0.0092
1033.00,0.0091
1032.00,0.0090
1031.00,0.0090
1030.00,0.0090
1029.00,0.0090
1028.00,0.0090
1027.00,0.0090
1026.00,0.0090
1025.00,0.0090
1024.00,0.0090
1023.00,0.0091
1022.00,0.0091
1021.00,0.0092
1020.00,0.0093
1019.00,0.0094
1018.00,0.0095
1017.00,0.0097
1016.00,0.0099
1015.00,0.0102
1014.00,0.0106
1013.00,0.0110
1012.00,0.0114
1011.00,0.0117
1010.00,0.0120
1009.00,0.0122
1008.00,0.0125
1007.00,0.0130
1006.00,0.0138
1005.00,0.0149
1004.00,0.0164
1003.00,0.0184
1002.00,0.0210
1001.00,0.0242
1000.00,0.0277
999.00,0.0305
998.00,0.0320
997.00,0.0314
996.00,0.0289
995.00,0.0253
994.00,0.0216
993.00,0.0183
992.00,0.0157
991.00,0.0138
990.00,0.0124
989.00,0.0115
988.00,0.0108
987.00,0.0104
986.00,0.0102
985.00,0.0103
984.00,0.0107
983.00,0.0113
982.00,0.0124
981.00,0.0138
980.00,0.0156
979.00,0.0181
978.00,0.0211
977.00,0.0248
976.00,0.0286
975.00,0.0323
974.00,0.0348
973.00,0.0355
972.00,0.0337
971.00,0.0299
970.00,0.0248
969.00,0.0197
968.00,0.0153
967.00,0.0118
966.00,0.0093
965.00,0.0075
964.00,0.0061
963.00,0.0051
962.00,0.0043
961.00,0.0035
960.00,0.0028
959.00,0.0021
958.00,0.0015
957.00,0.0010
956.00,0.0007
955.00,0.0004
954.00,0.0002
953.00,0.0002
952.00,0.0003
951.00,0.0005
950.00,0.0007
949.00,0.0008
948.00,0.0011
947.00,0.0014
946.00,0.0018
945.00,0.0022
944.00,0.0026
943.00,0.0031
942.00,0.0036
941.00,0.0039
940.00,0.0041
939.00,0.0040
938.00,0.0037
937.00,0.0034
936.00,0.0032
935.00,0.0032
934.00,0.0033
933.00,0.0035
932.00,0.0037
931.00,0.0038
930.00,0.0040
929.00,0.0042
928.00,0.0043
927.00,0.0045
926.00,0.0047
925.00,0.0048
924.00,0.0050
923.00,0.0053
922.00,0.0056
921.00,0.0059
920.00,0.0062
919.00,0.0064
918.00,0.0065
917.00,0.0067
916.00,0.0068
915.00,0.0068
914.00,0.0068
913.00,0.0068
912.00,0.0069
911.00,0.0071
910.00,0.0073
909.00,0.0077
908.00,0.0080
907.00,0.0085
906.00,0.0093
905.00,0.0104
904.00,0.0120
903.00,0.0140
902.00,0.0163
901.00,0.0184
900.00,0.0198
899.00,0.0202
898.00,0.0194
897.00,0.0177
896.00,0.0155
895.00,0.0133
894.00,0.0115
893.00,0.0102
892.00,0.0092
891.00,0.0085
890.00,0.0081
889.00,0.0079
888.00,0.0078
887.00,0.0077
886.00,0.0076
885.00,0.0075
884.00,0.0074
883.00,0.0074
882.00,0.0075
881.00,0.0077
880.00,0.0079
879.00,0.0079
878.00,0.0079
877.00,0.0078
876.00,0.0078
875.00,0.0078
874.00,0.0078
873.00,0.0077
872.00,0.0077
871.00,0.0076
870.00,0.0076
869.00,0.0076
868.00,0.0077
867.00,0.0077
866.00,0.0078
865.00,0.0078
864.00,0.0078
863.00,0.0079
862.00,0.0081
861.00,0.0082
860.00,0.0083
859.00,0.0084
858.00,0.0085
857.00,0.0086
856.00,0.0089
855.00,0.0091
854.00,0.0093
853.00,0.0095
852.00,0.0097
851.00,0.0101
850.00,0.0106
849.00,0.0112
848.00,0.0121
847.00,0.0134
846.00,0.0154
845.00,0.0183
844.00,0.0222
843.00,0.0264
842.00,0.0296
841.00,0.0305
840.00,0.0285
839.00,0.0246
838.00,0.0204
837.00,0.0171
836.00,0.0149
835.00,0.0134
834.00,0.0124
833.00,0.0117
832.00,0.0112
831.00,0.0108
830.00,0.0105
829.00,0.0102
828.00,0.0099
827.00,0.0097
826.00,0.0097
825.00,0.0098
824.00,0.0100
823.00,0.0100
822.00,0.0100
821.00,0.0099
820.00,0.0100
819.00,0.0101
818.00,0.0104
817.00,0.0109
816.00,0.0118
815.00,0.0131
814.00,0.0148
813.00,0.0166
812.00,0.0185
811.00,0.0202
810.00,0.0215
809.00,0.0220
808.00,0.0218
807.00,0.0208
806.00,0.0193
805.00,0.0176
804.00,0.0159
803.00,0.0143
802.00,0.0131
801.00,0.0121
800.00,0.0115
799.00,0.0110
798.00,0.0106
797.00,0.0102
796.00,0.0098
795.00,0.0094
794.00,0.0091
793.00,0.0089
792.00,0.0088
791.00,0.0087
790.00,0.0085
789.00,0.0082
788.00,0.0079
787.00,0.0077
786.00,0.0074
785.00,0.0072
784.00,0.0069
783.00,0.0067
782.00,0.0065
781.00,0.0065
780.00,0.0065
779.00,0.0066
778.00,0.0067
777.00,0.0068
776.00,0.0069
775.00,0.0070
774.00,0.0071
773.00,0.0072
772.00,0.0074
771.00,0.0076
770.00,0.0078
769.00,0.0079
768.00,0.0080
767.00,0.0081
766.00,0.0081
765.00,0.0079
764.00,0.0077
763.00,0.0074
762.00,0.0071
761.00,0.0068
760.00,0.0067
759.00,0.0066
758.00,0.0064
757.00,0.0062
756.00,0.0059
755.00,0.0057
754.00,0.0055
753.00,0.0054
752.00,0.0054
751.00,0.0055
750.00,0.0056
749.00,0.0057
748.00,0.0058
747.00,0.0060
746.00,0.0061
745.00,0.0062
744.00,0.0062
743.00,0.0062
742.00,0.0062
741.00,0.0063
740.00,0.0064
739.00,0.0066
738.00,0.0068
737.00,0.0068
736.00,0.0068
735.00,0.0069
734.00,0.0070
733.00,0.0071
732.00,0.0072
731.00,0.0074
730.00,0.0076
729.00,0.0076
728.00,0.0076
727.00,0.0075
726.00,0.0075
725.00,0.0074
724.00,0.0072
723.00,0.0071
722.00,0.0070
721.00,0.0069
720.00,0.0069
719.00,0.0068
718.00,0.0067
717.00,0.0066
716.00,0.0064
715.00,0.0063
714.00,0.0062
713.00,0.0061
712.00,0.0060
711.00,0.0060
710.00,0.0059
709.00,0.0058
708.00,0.0058
707.00,0.0059
706.00,0.0062
705.00,0.0063
704.00,0.0062
703.00,0.0062
702.00,0.0061
701.00,0.0061
700.00,0.0062
699.00,0.0062
698.00,0.0062
697.00,0.0061
696.00,0.0059
695.00,0.0058
694.00,0.0057
693.00,0.0056
692.00,0.0055
691.00,0.0054
690.00,0.0054
689.00,0.0055
688.00,0.0056
687.00,0.0058
686.00,0.0060
685.00,0.0061
684.00,0.0061
683.00,0.0059
682.00,0.0057
681.00,0.0055
680.00,0.0054
679.00,0.0055
678.00,0.0057
677.00,0.0058
676.00,0.0059
675.00,0.0059
674.00,0.0058
673.00,0.0058
672.00,0.0059
671.00,0.0060
670.00,0.0062
669.00,0.0063
668.00,0.0063
667.00,0.0063
666.00,0.0062
665.00,0.0060
664.00,0.0059
663.00,0.0059
662.00,0.0060
661.00,0.0060
660.00,0.0060
659.00,0.0059
658.00,0.0058
657.00,0.0056
656.00,0.0055
655.00,0.0054
654.00,0.0054
653.00,0.0054
652.00,0.0055
651.00,0.0056
650.00,0.0056
649.00,0.0055
648.00,0.0054
647.00,0.0054
646.00,0.0055
645.00,0.0057
644.00,0.0058
643.00,0.0058
642.00,0.0058
641.00,0.0057
640.00,0.0057
639.00,0.0057
638.00,0.0057
637.00,0.0056
636.00,0.0055
635.00,0.0055
634.00,0.0056
633.00,0.0057
632.00,0.0058
631.00,0.0059
630.00,0.0060
629.00,0.0059
628.00,0.0059
627.00,0.0058
626.00,0.0057
625.00,0.0056
624.00,0.0056
623.00,0.0057
622.00,0.0060
621.00,0.0063
620.00,0.0064
619.00,0.0063
618.00,0.0062
617.00,0.0062
616.00,0.0063
615.00,0.0067
614.00,0.0069
613.00,0.0070
612.00,0.0068
611.00,0.0066
610.00,0.0065
609.00,0.0066
608.00,0.0067
607.00,0.0066
606.00,0.0064
605.00,0.0062
604.00,0.0060
603.00,0.0058
602.00,0.0059
601.00,0.0062
600.00,0.0065
599.00,0.0068
598.00,0.0069
597.00,0.0068
596.00,0.0066
595.00,0.0065
594.00,0.0065
593.00,0.0065
592.00,0.0066
591.00,0.0066
590.00,0.0066
589.00,0.0066
588.00,0.0065
587.00,0.0063
586.00,0.0062
585.00,0.0062
584.00,0.0063
583.00,0.0065
582.00,0.0067
581.00,0.0068
580.00,0.0067
579.00,0.0066
578.00,0.0064
577.00,0.0063
576.00,0.0060
575.00,0.0057
574.00,0.0055
573.00,0.0056
572.00,0.0061
571.00,0.0066
570.00,0.0069
569.00,0.0068
568.00,0.0065
567.00,0.0061
566.00,0.0059
565.00,0.0059
564.00,0.0060
563.00,0.0061
562.00,0.0064
561.00,0.0067
560.00,0.0069
559.00,0.0071
558.00,0.0072
557.00,0.0072
556.00,0.0070
555.00,0.0066
554.00,0.0062
553.00,0.0060
552.00,0.0061
551.00,0.0064
550.00,0.0067
549.00,0.0069
548.00,0.0071
547.00,0.0072
546.00,0.0071
545.00,0.0070
544.00,0.0069
543.00,0.0071
542.00,0.0075
541.00,0.0081
540.00,0.0087
539.00,0.0089
538.00,0.0088
537.00,0.0084
536.00,0.0081
535.00,0.0080
534.00,0.0080
533.00,0.0079
532.00,0.0079
531.00,0.0080
530.00,0.0085
529.00,0.0089
528.00,0.0091
527.00,0.0088
526.00,0.0083
525.00,0.0079
524.00,0.0076
523.00,0.0075
522.00,0.0075
521.00,0.0075
520.00,0.0074
519.00,0.0071
518.00,0.0067
517.00,0.0061
516.00,0.0054
515.00,0.0049
514.00,0.0049
513.00,0.0053
512.00,0.0057
511.00,0.0060
510.00,0.0062
509.00,0.0065
508.00,0.0069
507.00,0.0072
506.00,0.0071
505.00,0.0068
504.00,0.0065
503.00,0.0064
502.00,0.0064
501.00,0.0064
500.00,0.0063
499.00,0.0061
498.00,0.0059
497.00,0.0060
496.00,0.0064
495.00,0.0070
494.00,0.0072
493.00,0.0070
492.00,0.0064
491.00,0.0062
490.00,0.0064
489.00,0.0067
488.00,0.0068
487.00,0.0065
486.00,0.0064
485.00,0.0066
484.00,0.0069
483.00,0.0068
482.00,0.0059
481.00,0.0047
480.00,0.0040
479.00,0.0042
478.00,0.0053
477.00,0.0068
476.00,0.0079
475.00,0.0081
474.00,0.0076
473.00,0.0070
472.00,0.0067
471.00,0.0071
470.00,0.0076
469.00,0.0082
468.00,0.0087
467.00,0.0094
466.00,0.0104
465.00,0.0114
464.00,0.0125
463.00,0.0135
462.00,0.0145
461.00,0.0154
460.00,0.0162
459.00,0.0165
458.00,0.0160
457.00,0.0144
456.00,0.0122
455.00,0.0103
454.00,0.0092
453.00,0.0092
452.00,0.0100
451.00,0.0109
450.00,0.0111
