Created as New Dataset,Sample 021 By Administrator Date Friday, September 05 2025
cm-1,A
4000.00,0.0012
3999.00,0.0012
3998.00,0.0012
3997.00,0.0012
3996.00,0.0012
3995.00,0.0012
3994.00,0.0012
3993.00,0.0012
3992.00,0.0012
3991.00,0.0012
3990.00,0.0012
3989.00,0.0012
3988.00,0.0012
3987.00,0.0012
3986.00,0.0012
3985.00,0.0012
3984.00,0.0012
3983.00,0.0012
3982.00,0.0012
3981.00,0.0011
3980.00,0.0011
3979.00,0.0011
3978.00,0.0011
3977.00,0.0011
3976.00,0.0011
3975.00,0.0011
3974.00,0.0011
3973.00,0.0011
3972.00,0.0011
3971.00,0.0011
3970.00,0.0011
3969.00,0.0011
3968.00,0.0011
3967.00,0.0011
3966.00,0.0011
3965.00,0.0010
3964.00,0.0010
3963.00,0.0010
3962.00,0.0010
3961.00,0.0010
3960.00,0.0010
3959.00,0.0010
3958.00,0.0011
3957.00,0.0011
3956.00,0.0011
3955.00,0.0010
3954.00,0.0010
3953.00,0.0010
3952.00,0.0010
3951.00,0.0010
3950.00,0.0010
3949.00,0.0010
3948.00,0.0010
3947.00,0.0010
3946.00,0.0010
3945.00,0.0010
3944.00,0.0010
3943.00,0.0010
3942.00,0.0010
3941.00,0.0010
3940.00,0.0010
3939.00,0.0010
3938.00,0.0010
3937.00,0.0010
3936.00,0.0010
3935.00,0.0010
3934.00,0.0010
3933.00,0.0010
3932.00,0.0010
3931.00,0.0010
3930.00,0.0010
3929.00,0.0011
3928.00,0.0011
3927.00,0.0011
3926.00,0.0011
3925.00,0.0011
3924.00,0.0011
3923.00,0.0010
3922.00,0.0010
3921.00,0.0009
3920.00,0.0009
3919.00,0.0009
3918.00,0.0009
3917.00,0.0009
3916.00,0.0009
3915.00,0.0009
3914.00,0.0009
3913.00,0.0009
3912.00,0.0010
3911.00,0.0010
3910.00,0.0009
3909.00,0.0009
3908.00,0.0008
3907.00,0.0008
3906.00,0.0007
3905.00,0.0006
3904.00,0.0005
3903.00,0.0004
3902.00,0.0004
3901.00,0.0005
3900.00,0.0006
3899.00,0.0007
3898.00,0.0007
3897.00,0.0007
3896.00,0.0007
3895.00,0.0007
3894.00,0.0007
3893.00,0.0007
3892.00,0.0007
3891.00,0.0007
3890.00,0.0007
3889.00,0.0007
3888.00,0.0007
3887.00,0.0007
3886.00,0.0007
3885.00,0.0007
3884.00,0.0007
3883.00,0.0007
3882.00,0.0007
3881.00,0.0007
3880.00,0.0007
3879.00,0.0007
3878.00,0.0006
3877.00,0.0007
3876.00,0.0007
3875.00,0.0007
3874.00,0.0007
3873.00,0.0006
3872.00,0.0006
3871.00,0.0005
3870.00,0.0005
3869.00,0.0005
3868.00,0.0005
3867.00,0.0005
3866.00,0.0005
3865.00,0.0006
3864.00,0.0006
3863.00,0.0006
3862.00,0.0005
3861.00,0.0005
3860.00,0.0005
3859.00,0.0005
3858.00,0.0005
3857.00,0.0005
3856.00,0.0005
3855.00,0.0005
3854.00,0.0005
3853.00,0.0005
3852.00,0.0005
3851.00,0.0006
3850.00,0.0006
3849.00,0.0006
3848.00,0.0006
3847.00,0.0006
3846.00,0.0006
3845.00,0.0007
3844.00,0.0007
3843.00,0.0006
3842.00,0.0006
3841.00,0.0005
3840.00,0.0005
3839.00,0.0005
3838.00,0.0005
3837.00,0.0005
3836.00,0.0005
3835.00,0.0005
3834.00,0.0005
3833.00,0.0006
3832.00,0.0006
3831.00,0.0006
3830.00,0.0006
3829.00,0.0006
3828.00,0.0006
3827.00,0.0006
3826.00,0.0005
3825.00,0.0004
3824.00,0.0003
3823.00,0.0003
3822.00,0.0004
3821.00,0.0004
3820.00,0.0004
3819.00,0.0004
3818.00,0.0005
3817.00,0.0005
3816.00,0.0006
3815.00,0.0006
3814.00,0.0007
3813.00,0.0007
3812.00,0.0007
3811.00,0.0007
3810.00,0.0007
3809.00,0.0006
3808.00,0.0006
3807.00,0.0005
3806.00,0.0005
3805.00,0.0004
3804.00,0.0003
3803.00,0.0004
3802.00,0.0004
3801.00,0.0005
3800.00,0.0005
3799.00,0.0005
3798.00,0.0006
3797.00,0.0007
3796.00,0.0008
3795.00,0.0008
3794.00,0.0008
3793.00,0.0008
3792.00,0.0009
3791.00,0.0009
3790.00,0.0009
3789.00,0.0009
3788.00,0.0009
3787.00,0.0009
3786.00,0.0009
3785.00,0.0009
3784.00,0.0009
3783.00,0.0008
3782.00,0.0008
3781.00,0.0008
3780.00,0.0008
3779.00,0.0008
3778.00,0.0009
3777.00,0.0009
3776.00,0.0009
3775.00,0.0009
3774.00,0.0008
3773.00,0.0008
3772.00,0.0007
3771.00,0.0007
3770.00,0.0007
3769.00,0.0008
3768.00,0.0008
3767.00,0.0008
3766.00,0.0009
3765.00,0.0009
3764.00,0.0009
3763.00,0.0009
3762.00,0.0008
3761.00,0.0008
3760.00,0.0008
3759.00,0.0008
3758.00,0.0007
3757.00,0.0007
3756.00,0.0006
3755.00,0.0005
3754.00,0.0004
3753.00,0.0003
3752.00,0.0002
3751.00,0.0001
3750.00,0.0001
3749.00,0.0001
3748.00,0.0001
3747.00,0.0001
3746.00,0.0002
3745.00,0.0002
3744.00,0.0003
3743.00,0.0003
3742.00,0.0003
3741.00,0.0002
3740.00,0.0002
3739.00,0.0001
3738.00,0.0001
3737.00,0.0001
3736.00,0.0001
3735.00,0.0001
3734.00,0.0001
3733.00,0.0001
3732.00,0.0002
3731.00,0.0003
3730.00,0.0003
3729.00,0.0003
3728.00,0.0004
3727.00,0.0004
3726.00,0.0004
3725.00,0.0005
3724.00,0.0005
3723.00,0.0005
3722.00,0.0005
3721.00,0.0005
3720.00,0.0006
3719.00,0.0006
3718.00,0.0006
3717.00,0.0006
3716.00,0.0005
3715.00,0.0004
3714.00,0.0003
3713.00,0.0003
3712.00,0.0004
3711.00,0.0004
3710.00,0.0004
3709.00,0.0004
3708.00,0.0004
3707.00,0.0005
3706.00,0.0005
3705.00,0.0005
3704.00,0.0005
3703.00,0.0005
3702.00,0.0005
3701.00,0.0005
3700.00,0.0006
3699.00,0.0006
3698.00,0.0006
3697.00,0.0006
3696.00,0.0006
3695.00,0.0005
3694.00,0.0005
3693.00,0.0004
3692.00,0.0003
3691.00,0.0002
3690.00,0.0001
3689.00,-0.0001
3688.00,-0.0002
3687.00,-0.0003
3686.00,-0.0004
3685.00,-0.0005
3684.00,-0.0006
3683.00,-0.0008
3682.00,-0.0010
3681.00,-0.0012
3680.00,-0.0015
3679.00,-0.0018
3678.00,-0.0021
3677.00,-0.0025
3676.00,-0.0028
3675.00,-0.0030
3674.00,-0.0033
3673.00,-0.0034
3672.00,-0.0035
3671.00,-0.0036
3670.00,-0.0036
3669.00,-0.0036
3668.00,-0.0036
3667.00,-0.0036
3666.00,-0.0036
3665.00,-0.0037
3664.00,-0.0037
3663.00,-0.0038
3662.00,-0.0038
3661.00,-0.0039
3660.00,-0.0040
3659.00,-0.0040
3658.00,-0.0041
3657.00,-0.0041
3656.00,-0.0040
3655.00,-0.0040
3654.00,-0.0041
3653.00,-0.0041
3652.00,-0.0040
3651.00,-0.0040
3650.00,-0.0039
3649.00,-0.0039
3648.00,-0.0037
3647.00,-0.0035
3646.00,-0.0033
3645.00,-0.0030
3644.00,-0.0028
3643.00,-0.0025
3642.00,-0.0023
3641.00,-0.0022
3640.00,-0.0022
3639.00,-0.0022
3638.00,-0.0022
3637.00,-0.0021
3636.00,-0.0019
3635.00,-0.0015
3634.00,-0.0012
3633.00,-0.0009
3632.00,-0.0008
3631.00,-0.0007
3630.00,-0.0006
3629.00,-0.0005
3628.00,-0.0003
3627.00,-0.0002
3626.00,-0.0000
3625.00,0.0001
3624.00,0.0001
3623.00,0.0001
3622.00,0.0001
3621.00,0.0001
3620.00,0.0002
3619.00,0.0002
3618.00,0.0003
3617.00,0.0004
3616.00,0.0005
3615.00,0.0005
3614.00,0.0006
3613.00,0.0007
3612.00,0.0007
3611.00,0.0008
3610.00,0.0010
3609.00,0.0011
3608.00,0.0012
3607.00,0.0013
3606.00,0.0013
3605.00,0.0013
3604.00,0.0013
3603.00,0.0014
3602.00,0.0014
3601.00,0.0015
3600.00,0.0015
3599.00,0.0016
3598.00,0.0016
3597.00,0.0016
3596.00,0.0016
3595.00,0.0016
3594.00,0.0017
3593.00,0.0017
3592.00,0.0016
3591.00,0.0016
3590.00,0.0016
3589.00,0.0017
3588.00,0.0017
3587.00,0.0017
3586.00,0.0018
3585.00,0.0018
3584.00,0.0019
3583.00,0.0021
3582.00,0.0021
3581.00,0.0022
3580.00,0.0023
3579.00,0.0023
3578.00,0.0023
3577.00,0.0023
3576.00,0.0023
3575.00,0.0023
3574.00,0.0023
3573.00,0.0023
3572.00,0.0023
3571.00,0.0023
3570.00,0.0023
3569.00,0.0024
3568.00,0.0024
3567.00,0.0024
3566.00,0.0025
3565.00,0.0025
3564.00,0.0025
3563.00,0.0026
3562.00,0.0027
3561.00,0.0027
3560.00,0.0028
3559.00,0.0028
3558.00,0.0029
3557.00,0.0029
3556.00,0.0029
3555.00,0.0029
3554.00,0.0029
3553.00,0.0029
3552.00,0.0030
3551.00,0.0030
3550.00,0.0030
3549.00,0.0031
3548.00,0.0031
3547.00,0.0031
3546.00,0.0031
3545.00,0.0032
3544.00,0.0032
3543.00,0.0032
3542.00,0.0032
3541.00,0.0033
3540.00,0.0033
3539.00,0.0033
3538.00,0.0034
3537.00,0.0034
3536.00,0.0034
3535.00,0.0034
3534.00,0.0034
3533.00,0.0034
3532.00,0.0035
3531.00,0.0035
3530.00,0.0036
3529.00,0.0036
3528.00,0.0037
3527.00,0.0037
3526.00,0.0037
3525.00,0.0037
3524.00,0.0037
3523.00,0.0037
3522.00,0.0037
3521.00,0.0037
3520.00,0.0038
3519.00,0.0038
3518.00,0.0038
3517.00,0.0039
3516.00,0.0039
3515.00,0.0039
3514.00,0.0040
3513.00,0.0040
3512.00,0.0040
3511.00,0.0040
3510.00,0.0041
3509.00,0.0041
3508.00,0.0041
3507.00,0.0042
3506.00,0.0042
3505.00,0.0043
3504.00,0.0043
3503.00,0.0043
3502.00,0.0043
3501.00,0.0043
3500.00,0.0043
3499.00,0.0044
3498.00,0.0044
3497.00,0.0044
3496.00,0.0045
3495.00,0.0045
3494.00,0.0046
3493.00,0.0046
3492.00,0.0046
3491.00,0.0045
3490.00,0.0046
3489.00,0.0046
3488.00,0.0046
3487.00,0.0047
3486.00,0.0047
3485.00,0.0047
3484.00,0.0047
3483.00,0.0048
3482.00,0.0048
3481.00,0.0048
3480.00,0.0048
3479.00,0.0048
3478.00,0.0048
3477.00,0.0048
3476.00,0.0049
3475.00,0.0049
3474.00,0.0049
3473.00,0.0050
3472.00,0.0050
3471.00,0.0050
3470.00,0.0051
3469.00,0.0051
3468.00,0.0051
3467.00,0.0051
3466.00,0.0051
3465.00,0.0051
3464.00,0.0051
3463.00,0.0051
3462.00,0.0051
3461.00,0.0052
3460.00,0.0052
3459.00,0.0052
3458.00,0.0053
3457.00,0.0053
3456.00,0.0053
3455.00,0.0053
3454.00,0.0053
3453.00,0.0054
3452.00,0.0054
3451.00,0.0054
3450.00,0.0055
3449.00,0.0055
3448.00,0.0056
3447.00,0.0056
3446.00,0.0056
3445.00,0.0056
3444.00,0.0056
3443.00,0.0056
3442.00,0.0056
3441.00,0.0057
3440.00,0.0058
3439.00,0.0058
3438.00,0.0058
3437.00,0.0058
3436.00,0.0058
3435.00,0.0058
3434.00,0.0059
3433.00,0.0059
3432.00,0.0060
3431.00,0.0061
3430.00,0.0061
3429.00,0.0061
3428.00,0.0061
3427.00,0.0061
3426.00,0.0061
3425.00,0.0061
3424.00,0.0062
3423.00,0.0062
3422.00,0.0062
3421.00,0.0062
3420.00,0.0063
3419.00,0.0063
3418.00,0.0063
3417.00,0.0064
3416.00,0.0064
3415.00,0.0064
3414.00,0.0065
3413.00,0.0066
3412.00,0.0067
3411.00,0.0067
3410.00,0.0068
3409.00,0.0068
3408.00,0.0068
3407.00,0.0068
3406.00,0.0068
3405.00,0.0067
3404.00,0.0067
3403.00,0.0067
3402.00,0.0067
3401.00,0.0067
3400.00,0.0068
3399.00,0.0068
3398.00,0.0068
3397.00,0.0068
3396.00,0.0069
3395.00,0.0069
3394.00,0.0069
3393.00,0.0069
3392.00,0.0070
3391.00,0.0070
3390.00,0.0070
3389.00,0.0070
3388.00,0.0071
3387.00,0.0071
3386.00,0.0072
3385.00,0.0072
3384.00,0.0072
3383.00,0.0072
3382.00,0.0072
3381.00,0.0072
3380.00,0.0073
3379.00,0.0073
3378.00,0.0074
3377.00,0.0074
3376.00,0.0075
3375.00,0.0075
3374.00,0.0074
3373.00,0.0074
3372.00,0.0074
3371.00,0.0074
3370.00,0.0075
3369.00,0.0075
3368.00,0.0076
3367.00,0.0076
3366.00,0.0076
3365.00,0.0076
3364.00,0.0077
3363.00,0.0077
3362.00,0.0078
3361.00,0.0078
3360.00,0.0078
3359.00,0.0078
3358.00,0.0078
3357.00,0.0078
3356.00,0.0078
3355.00,0.0079
3354.00,0.0079
3353.00,0.0079
3352.00,0.0079
3351.00,0.0079
3350.00,0.0079
3349.00,0.0079
3348.00,0.0079
3347.00,0.0080
3346.00,0.0080
3345.00,0.0081
3344.00,0.0081
3343.00,0.0081
3342.00,0.0081
3341.00,0.0081
3340.00,0.0081
3339.00,0.0080
3338.00,0.0080
3337.00,0.0080
3336.00,0.0080
3335.00,0.0081
3334.00,0.0082
3333.00,0.0082
3332.00,0.0082
3331.00,0.0082
3330.00,0.0082
3329.00,0.0082
3328.00,0.0082
3327.00,0.0082
3326.00,0.0082
3325.00,0.0081
3324.00,0.0081
3323.00,0.0082
3322.00,0.0082
3321.00,0.0083
3320.00,0.0083
3319.00,0.0083
3318.00,0.0084
3317.00,0.0084
3316.00,0.0084
3315.00,0.0085
3314.00,0.0085
3313.00,0.0084
3312.00,0.0084
3311.00,0.0084
3310.00,0.0084
3309.00,0.0084
3308.00,0.0084
3307.00,0.0084
3306.00,0.0085
3305.00,0.0085
3304.00,0.0085
3303.00,0.0085
3302.00,0.0086
3301.00,0.0086
3300.00,0.0086
3299.00,0.0085
3298.00,0.0085
3297.00,0.0085
3296.00,0.0084
3295.00,0.0084
3294.00,0.0084
3293.00,0.0084
3292.00,0.0084
3291.00,0.0085
3290.00,0.0085
3289.00,0.0084
3288.00,0.0084
3287.00,0.0084
3286.00,0.0083
3285.00,0.0083
3284.00,0.0083
3283.00,0.0082
3282.00,0.0082
3281.00,0.0082
3280.00,0.0082
3279.00,0.0081
3278.00,0.0081
3277.00,0.0080
3276.00,0.0080
3275.00,0.0079
3274.00,0.0079
3273.00,0.0078
3272.00,0.0078
3271.00,0.0078
3270.00,0.0078
3269.00,0.0079
3268.00,0.0079
3267.00,0.0079
3266.00,0.0079
3265.00,0.0078
3264.00,0.0077
3263.00,0.0077
3262.00,0.0076
3261.00,0.0076
3260.00,0.0076
3259.00,0.0075
3258.00,0.0075
3257.00,0.0074
3256.00,0.0074
3255.00,0.0073
3254.00,0.0072
3253.00,0.0072
3252.00,0.0071
3251.00,0.0071
3250.00,0.0070
3249.00,0.0070
3248.00,0.0070
3247.00,0.0070
3246.00,0.0069
3245.00,0.0069
3244.00,0.0069
3243.00,0.0068
3242.00,0.0069
3241.00,0.0069
3240.00,0.0068
3239.00,0.0068
3238.00,0.0067
3237.00,0.0067
3236.00,0.0066
3235.00,0.0066
3234.00,0.0066
3233.00,0.0066
3232.00,0.0066
3231.00,0.0066
3230.00,0.0066
3229.00,0.0066
3228.00,0.0066
3227.00,0.0067
3226.00,0.0067
3225.00,0.0067
3224.00,0.0067
3223.00,0.0067
3222.00,0.0066
3221.00,0.0066
3220.00,0.0066
3219.00,0.0065
3218.00,0.0065
3217.00,0.0065
3216.00,0.0065
3215.00,0.0066
3214.00,0.0066
3213.00,0.0066
3212.00,0.0066
3211.00,0.0066
3210.00,0.0066
3209.00,0.0066
3208.00,0.0066
3207.00,0.0066
3206.00,0.0067
3205.00,0.0067
3204.00,0.0067
3203.00,0.0066
3202.00,0.0066
3201.00,0.0066
3200.00,0.0066
3199.00,0.0066
3198.00,0.0066
3197.00,0.0066
3196.00,0.0066
3195.00,0.0066
3194.00,0.0065
3193.00,0.0065
3192.00,0.0065
3191.00,0.0064
3190.00,0.0064
3189.00,0.0064
3188.00,0.0064
3187.00,0.0064
3186.00,0.0064
3185.00,0.0063
3184.00,0.0063
3183.00,0.0063
3182.00,0.0063
3181.00,0.0063
3180.00,0.0063
3179.00,0.0063
3178.00,0.0063
3177.00,0.0062
3176.00,0.0061
3175.00,0.0061
3174.00,0.0061
3173.00,0.0061
3172.00,0.0061
3171.00,0.0060
3170.00,0.0060
3169.00,0.0060
3168.00,0.0059
3167.00,0.0059
3166.00,0.0059
3165.00,0.0059
3164.00,0.0059
3163.00,0.0059
3162.00,0.0059
3161.00,0.0059
3160.00,0.0059
3159.00,0.0059
3158.00,0.0059
3157.00,0.0059
3156.00,0.0060
3155.00,0.0059
3154.00,0.0059
3153.00,0.0058
3152.00,0.0058
3151.00,0.0058
3150.00,0.0058
3149.00,0.0058
3148.00,0.0058
3147.00,0.0058
3146.00,0.0057
3145.00,0.0057
3144.00,0.0057
3143.00,0.0057
3142.00,0.0056
3141.00,0.0055
3140.00,0.0055
3139.00,0.0055
3138.00,0.0055
3137.00,0.0055
3136.00,0.0055
3135.00,0.0055
3134.00,0.0055
3133.00,0.0055
3132.00,0.0054
3131.00,0.0054
3130.00,0.0054
3129.00,0.0053
3128.00,0.0053
3127.00,0.0053
3126.00,0.0053
3125.00,0.0053
3124.00,0.0053
3123.00,0.0052
3122.00,0.0051
3121.00,0.0050
3120.00,0.0050
3119.00,0.0050
3118.00,0.0050
3117.00,0.0050
3116.00,0.0049
3115.00,0.0049
3114.00,0.0049
3113.00,0.0049
3112.00,0.0049
3111.00,0.0049
3110.00,0.0049
3109.00,0.0049
3108.00,0.0048
3107.00,0.0049
3106.00,0.0049
3105.00,0.0049
3104.00,0.0049
3103.00,0.0049
3102.00,0.0048
3101.00,0.0048
3100.00,0.0048
3099.00,0.0048
3098.00,0.0048
3097.00,0.0048
3096.00,0.0048
3095.00,0.0048
3094.00,0.0047
3093.00,0.0047
3092.00,0.0047
3091.00,0.0047
3090.00,0.0047
3089.00,0.0047
3088.00,0.0047
3087.00,0.0047
3086.00,0.0047
3085.00,0.0047
3084.00,0.0047
3083.00,0.0047
3082.00,0.0047
3081.00,0.0047
3080.00,0.0046
3079.00,0.0046
3078.00,0.0046
3077.00,0.0047
3076.00,0.0048
3075.00,0.0049
3074.00,0.0049
3073.00,0.0049
3072.00,0.0049
3071.00,0.0049
3070.00,0.0049
3069.00,0.0050
3068.00,0.0050
3067.00,0.0050
3066.00,0.0050
3065.00,0.0050
3064.00,0.0050
3063.00,0.0050
3062.00,0.0050
3061.00,0.0050
3060.00,0.0051
3059.00,0.0051
3058.00,0.0051
3057.00,0.0051
3056.00,0.0051
3055.00,0.0051
3054.00,0.0051
3053.00,0.0051
3052.00,0.0051
3051.00,0.0051
3050.00,0.0052
3049.00,0.0052
3048.00,0.0052
3047.00,0.0053
3046.00,0.0053
3045.00,0.0053
3044.00,0.0053
3043.00,0.0053
3042.00,0.0053
3041.00,0.0054
3040.00,0.0054
3039.00,0.0053
3038.00,0.0053
3037.00,0.0053
3036.00,0.0053
3035.00,0.0053
3034.00,0.0053
3033.00,0.0054
3032.00,0.0054
3031.00,0.0054
3030.00,0.0054
3029.00,0.0054
3028.00,0.0054
3027.00,0.0054
3026.00,0.0053
3025.00,0.0053
3024.00,0.0053
3023.00,0.0052
3022.00,0.0051
3021.00,0.0050
3020.00,0.0048
3019.00,0.0046
3018.00,0.0044
3017.00,0.0041
3016.00,0.0038
3015.00,0.0034
3014.00,0.0030
3013.00,0.0024
3012.00,0.0018
3011.00,0.0010
3010.00,0.0002
3009.00,-0.0007
3008.00,-0.0017
3007.00,-0.0027
3006.00,-0.0038
3005.00,-0.0050
3004.00,-0.0061
3003.00,-0.0073
3002.00,-0.0084
3001.00,-0.0095
3000.00,-0.0104
2999.00,-0.0112
2998.00,-0.0119
2997.00,-0.0125
2996.00,-0.0129
2995.00,-0.0132
2994.00,-0.0135
2993.00,-0.0137
2992.00,-0.0139
2991.00,-0.0139
2990.00,-0.0138
2989.00,-0.0138
2988.00,-0.0138
2987.00,-0.0142
2986.00,-0.0154
2985.00,-0.0175
2984.00,-0.0203
2983.00,-0.0228
2982.00,-0.0238
2981.00,-0.0226
2980.00,-0.0193
2979.00,-0.0148
2978.00,-0.0098
2977.00,-0.0049
2976.00,-0.0002
2975.00,0.0042
2974.00,0.0084
2973.00,0.0129
2972.00,0.0185
2971.00,0.0256
2970.00,0.0343
2969.00,0.0442
2968.00,0.0547
2967.00,0.0658
2966.00,0.0774
2965.00,0.0895
2964.00,0.1019
2963.00,0.1142
2962.00,0.1258
2961.00,0.1362
2960.00,0.1448
2959.00,0.1515
2958.00,0.1564
2957.00,0.1598
2956.00,0.1623
2955.00,0.1645
2954.00,0.1668
2953.00,0.1691
2952.00,0.1710
2951.00,0.1719
2950.00,0.1710
2949.00,0.1676
2948.00,0.1615
2947.00,0.1529
2946.00,0.1426
2945.00,0.1315
2944.00,0.1206
2943.00,0.1110
2942.00,0.1031
2941.00,0.0974
2940.00,0.0939
2939.00,0.0924
2938.00,0.0929
2937.00,0.0950
2936.00,0.0985
2935.00,0.1033
2934.00,0.1092
2933.00,0.1161
2932.00,0.1239
2931.00,0.1326
2930.00,0.1417
2929.00,0.1512
2928.00,0.1605
2927.00,0.1695
2926.00,0.1780
2925.00,0.1860
2924.00,0.1937
2923.00,0.2011
2922.00,0.2083
2921.00,0.2151
2920.00,0.2210
2919.00,0.2256
2918.00,0.2281
2917.00,0.2280
2916.00,0.2252
2915.00,0.2198
2914.00,0.2127
2913.00,0.2047
2912.00,0.1967
2911.00,0.1892
2910.00,0.1825
2909.00,0.1765
2908.00,0.1710
2907.00,0.1657
2906.00,0.1602
2905.00,0.1545
2904.00,0.1484
2903.00,0.1421
2902.00,0.1356
2901.00,0.1291
2900.00,0.1226
2899.00,0.1164
2898.00,0.1105
2897.00,0.1051
2896.00,0.1002
2895.00,0.0959
2894.00,0.0923
2893.00,0.0893
2892.00,0.0870
2891.00,0.0853
2890.00,0.0842
2889.00,0.0836
2888.00,0.0835
2887.00,0.0838
2886.00,0.0843
2885.00,0.0852
2884.00,0.0866
2883.00,0.0886
2882.00,0.0910
2881.00,0.0937
2880.00,0.0963
2879.00,0.0985
2878.00,0.1000
2877.00,0.1006
2876.00,0.1006
2875.00,0.1002
2874.00,0.1000
2873.00,0.1001
2872.00,0.1009
2871.00,0.1023
2870.00,0.1041
2869.00,0.1060
2868.00,0.1073
2867.00,0.1074
2866.00,0.1057
2865.00,0.1020
2864.00,0.0964
2863.00,0.0896
2862.00,0.0826
2861.00,0.0761
2860.00,0.0705
2859.00,0.0663
2858.00,0.0633
2857.00,0.0614
2856.00,0.0605
2855.00,0.0603
2854.00,0.0609
2853.00,0.0622
2852.00,0.0640
2851.00,0.0662
2850.00,0.0685
2849.00,0.0708
2848.00,0.0734
2847.00,0.0763
2846.00,0.0799
2845.00,0.0845
2844.00,0.0900
2843.00,0.0963
2842.00,0.1029
2841.00,0.1092
2840.00,0.1143
2839.00,0.1175
2838.00,0.1180
2837.00,0.1152
2836.00,0.1093
2835.00,0.1008
2834.00,0.0907
2833.00,0.0802
2832.00,0.0701
2831.00,0.0612
2830.00,0.0537
2829.00,0.0475
2828.00,0.0425
2827.00,0.0385
2826.00,0.0352
2825.00,0.0325
2824.00,0.0302
2823.00,0.0282
2822.00,0.0265
2821.00,0.0251
2820.00,0.0238
2819.00,0.0227
2818.00,0.0217
2817.00,0.0209
2816.00,0.0201
2815.00,0.0195
2814.00,0.0189
2813.00,0.0184
2812.00,0.0179
2811.00,0.0175
2810.00,0.0171
2809.00,0.0166
2808.00,0.0160
2807.00,0.0155
2806.00,0.0148
2805.00,0.0142
2804.00,0.0136
2803.00,0.0131
2802.00,0.0126
2801.00,0.0121
2800.00,0.0118
2799.00,0.0115
2798.00,0.0113
2797.00,0.0111
2796.00,0.0109
2795.00,0.0107
2794.00,0.0105
2793.00,0.0102
2792.00,0.0099
2791.00,0.0096
2790.00,0.0092
2789.00,0.0089
2788.00,0.0085
2787.00,0.0082
2786.00,0.0079
2785.00,0.0077
2784.00,0.0074
2783.00,0.0072
2782.00,0.0070
2781.00,0.0068
2780.00,0.0067
2779.00,0.0065
2778.00,0.0063
2777.00,0.0062
2776.00,0.0061
2775.00,0.0060
2774.00,0.0060
2773.00,0.0059
2772.00,0.0059
2771.00,0.0058
2770.00,0.0057
2769.00,0.0057
2768.00,0.0056
2767.00,0.0056
2766.00,0.0056
2765.00,0.0055
2764.00,0.0055
2763.00,0.0055
2762.00,0.0055
2761.00,0.0055
2760.00,0.0054
2759.00,0.0054
2758.00,0.0053
2757.00,0.0053
2756.00,0.0053
2755.00,0.0053
2754.00,0.0053
2753.00,0.0053
2752.00,0.0053
2751.00,0.0053
2750.00,0.0052
2749.00,0.0053
2748.00,0.0053
2747.00,0.0053
2746.00,0.0053
2745.00,0.0053
2744.00,0.0054
2743.00,0.0055
2742.00,0.0056
2741.00,0.0057
2740.00,0.0059
2739.00,0.0060
2738.00,0.0061
2737.00,0.0063
2736.00,0.0064
2735.00,0.0065
2734.00,0.0067
2733.00,0.0068
2732.00,0.0070
2731.00,0.0072
2730.00,0.0073
2729.00,0.0076
2728.00,0.0078
2727.00,0.0080
2726.00,0.0082
2725.00,0.0084
2724.00,0.0085
2723.00,0.0086
2722.00,0.0085
2721.00,0.0084
2720.00,0.0082
2719.00,0.0079
2718.00,0.0076
2717.00,0.0073
2716.00,0.0070
2715.00,0.0068
2714.00,0.0065
2713.00,0.0063
2712.00,0.0062
2711.00,0.0060
2710.00,0.0058
2709.00,0.0057
2708.00,0.0056
2707.00,0.0055
2706.00,0.0055
2705.00,0.0054
2704.00,0.0052
2703.00,0.0051
2702.00,0.0051
2701.00,0.0050
2700.00,0.0050
2699.00,0.0049
2698.00,0.0049
2697.00,0.0048
2696.00,0.0048
2695.00,0.0048
2694.00,0.0047
2693.00,0.0047
2692.00,0.0047
2691.00,0.0047
2690.00,0.0047
2689.00,0.0047
2688.00,0.0047
2687.00,0.0047
2686.00,0.0047
2685.00,0.0046
2684.00,0.0046
2683.00,0.0046
2682.00,0.0046
2681.00,0.0046
2680.00,0.0046
2679.00,0.0046
2678.00,0.0046
2677.00,0.0046
2676.00,0.0046
2675.00,0.0046
2674.00,0.0045
2673.00,0.0044
2672.00,0.0044
2671.00,0.0044
2670.00,0.0043
2669.00,0.0043
2668.00,0.0043
2667.00,0.0044
2666.00,0.0044
2665.00,0.0044
2664.00,0.0045
2663.00,0.0045
2662.00,0.0046
2661.00,0.0047
2660.00,0.0047
2659.00,0.0047
2658.00,0.0047
2657.00,0.0047
2656.00,0.0046
2655.00,0.0045
2654.00,0.0044
2653.00,0.0044
2652.00,0.0043
2651.00,0.0043
2650.00,0.0043
2649.00,0.0043
2648.00,0.0042
2647.00,0.0042
2646.00,0.0041
2645.00,0.0041
2644.00,0.0040
2643.00,0.0040
2642.00,0.0040
2641.00,0.0039
2640.00,0.0039
2639.00,0.0039
2638.00,0.0039
2637.00,0.0039
2636.00,0.0039
2635.00,0.0039
2634.00,0.0039
2633.00,0.0039
2632.00,0.0040
2631.00,0.0040
2630.00,0.0040
2629.00,0.0040
2628.00,0.0040
2627.00,0.0040
2626.00,0.0041
2625.00,0.0041
2624.00,0.0042
2623.00,0.0042
2622.00,0.0042
2621.00,0.0043
2620.00,0.0043
2619.00,0.0043
2618.00,0.0043
2617.00,0.0043
2616.00,0.0043
2615.00,0.0043
2614.00,0.0042
2613.00,0.0042
2612.00,0.0042
2611.00,0.0041
2610.00,0.0041
2609.00,0.0039
2608.00,0.0038
2607.00,0.0037
2606.00,0.0037
2605.00,0.0036
2604.00,0.0037
2603.00,0.0037
2602.00,0.0036
2601.00,0.0036
2600.00,0.0036
2599.00,0.0036
2598.00,0.0036
2597.00,0.0036
2596.00,0.0036
2595.00,0.0036
2594.00,0.0036
2593.00,0.0036
2592.00,0.0037
2591.00,0.0037
2590.00,0.0037
2589.00,0.0037
2588.00,0.0038
2587.00,0.0039
2586.00,0.0040
2585.00,0.0040
2584.00,0.0041
2583.00,0.0042
2582.00,0.0042
2581.00,0.0042
2580.00,0.0042
2579.00,0.0041
2578.00,0.0040
2577.00,0.0040
2576.00,0.0039
2575.00,0.0038
2574.00,0.0037
2573.00,0.0036
2572.00,0.0035
2571.00,0.0034
2570.00,0.0033
2569.00,0.0032
2568.00,0.0032
2567.00,0.0031
2566.00,0.0031
2565.00,0.0031
2564.00,0.0030
2563.00,0.0030
2562.00,0.0029
2561.00,0.0029
2560.00,0.0029
2559.00,0.0029
2558.00,0.0029
2557.00,0.0028
2556.00,0.0028
2555.00,0.0028
2554.00,0.0028
2553.00,0.0027
2552.00,0.0027
2551.00,0.0026
2550.00,0.0026
2549.00,0.0025
2548.00,0.0025
2547.00,0.0025
2546.00,0.0025
2545.00,0.0024
2544.00,0.0024
2543.00,0.0023
2542.00,0.0023
2541.00,0.0023
2540.00,0.0023
2539.00,0.0023
2538.00,0.0023
2537.00,0.0022
2536.00,0.0022
2535.00,0.0021
2534.00,0.0021
2533.00,0.0021
2532.00,0.0021
2531.00,0.0021
2530.00,0.0021
2529.00,0.0021
2528.00,0.0021
2527.00,0.0021
2526.00,0.0021
2525.00,0.0020
2524.00,0.0020
2523.00,0.0019
2522.00,0.0018
2521.00,0.0017
2520.00,0.0017
2519.00,0.0017
2518.00,0.0017
2517.00,0.0017
2516.00,0.0017
2515.00,0.0016
2514.00,0.0016
2513.00,0.0016
2512.00,0.0016
2511.00,0.0016
2510.00,0.0016
2509.00,0.0016
2508.00,0.0016
2507.00,0.0016
2506.00,0.0016
2505.00,0.0016
2504.00,0.0016
2503.00,0.0015
2502.00,0.0015
2501.00,0.0014
2500.00,0.0014
2499.00,0.0014
2498.00,0.0014
2497.00,0.0014
2496.00,0.0015
2495.00,0.0015
2494.00,0.0015
2493.00,0.0015
2492.00,0.0015
2491.00,0.0015
2490.00,0.0015
2489.00,0.0015
2488.00,0.0016
2487.00,0.0016
2486.00,0.0016
2485.00,0.0016
2484.00,0.0015
2483.00,0.0015
2482.00,0.0015
2481.00,0.0015
2480.00,0.0015
2479.00,0.0014
2478.00,0.0014
2477.00,0.0014
2476.00,0.0014
2475.00,0.0015
2474.00,0.0015
2473.00,0.0015
2472.00,0.0015
2471.00,0.0015
2470.00,0.0015
2469.00,0.0015
2468.00,0.0014
2467.00,0.0014
2466.00,0.0014
2465.00,0.0015
2464.00,0.0015
2463.00,0.0015
2462.00,0.0015
2461.00,0.0015
2460.00,0.0015
2459.00,0.0015
2458.00,0.0015
2457.00,0.0016
2456.00,0.0016
2455.00,0.0016
2454.00,0.0016
2453.00,0.0015
2452.00,0.0015
2451.00,0.0015
2450.00,0.0015
2449.00,0.0015
2448.00,0.0016
2447.00,0.0016
2446.00,0.0017
2445.00,0.0016
2444.00,0.0016
2443.00,0.0016
2442.00,0.0015
2441.00,0.0015
2440.00,0.0015
2439.00,0.0015
2438.00,0.0016
2437.00,0.0016
2436.00,0.0016
2435.00,0.0017
2434.00,0.0018
2433.00,0.0019
2432.00,0.0019
2431.00,0.0019
2430.00,0.0019
2429.00,0.0019
2428.00,0.0019
2427.00,0.0019
2426.00,0.0019
2425.00,0.0018
2424.00,0.0017
2423.00,0.0016
2422.00,0.0016
2421.00,0.0016
2420.00,0.0016
2419.00,0.0016
2418.00,0.0015
2417.00,0.0015
2416.00,0.0015
2415.00,0.0015
2414.00,0.0015
2413.00,0.0015
2412.00,0.0015
2411.00,0.0015
2410.00,0.0016
2409.00,0.0015
2408.00,0.0015
2407.00,0.0014
2406.00,0.0014
2405.00,0.0014
2404.00,0.0014
2403.00,0.0015
2402.00,0.0015
2401.00,0.0015
2400.00,0.0015
2399.00,0.0014
2398.00,0.0014
2397.00,0.0013
2396.00,0.0013
2395.00,0.0014
2394.00,0.0014
2393.00,0.0014
2392.00,0.0014
2391.00,0.0013
2390.00,0.0013
2389.00,0.0012
2388.00,0.0012
2387.00,0.0011
2386.00,0.0010
2385.00,0.0010
2384.00,0.0009
2383.00,0.0008
2382.00,0.0008
2381.00,0.0008
2380.00,0.0008
2379.00,0.0007
2378.00,0.0006
2377.00,0.0006
2376.00,0.0006
2375.00,0.0007
2374.00,0.0007
2373.00,0.0007
2372.00,0.0007
2371.00,0.0007
2370.00,0.0006
2369.00,0.0006
2368.00,0.0006
2367.00,0.0006
2366.00,0.0006
2365.00,0.0006
2364.00,0.0006
2363.00,0.0006
2362.00,0.0005
2361.00,0.0005
2360.00,0.0006
2359.00,0.0007
2358.00,0.0007
2357.00,0.0008
2356.00,0.0008
2355.00,0.0008
2354.00,0.0007
2353.00,0.0006
2352.00,0.0004
2351.00,0.0004
2350.00,0.0005
2349.00,0.0007
2348.00,0.0008
2347.00,0.0008
2346.00,0.0007
2345.00,0.0007
2344.00,0.0006
2343.00,0.0006
2342.00,0.0006
2341.00,0.0007
2340.00,0.0008
2339.00,0.0009
2338.00,0.0009
2337.00,0.0009
2336.00,0.0009
2335.00,0.0009
2334.00,0.0008
2333.00,0.0008
2332.00,0.0008
2331.00,0.0008
2330.00,0.0008
2329.00,0.0009
2328.00,0.0011
2327.00,0.0014
2326.00,0.0017
2325.00,0.0020
2324.00,0.0022
2323.00,0.0021
2322.00,0.0020
2321.00,0.0018
2320.00,0.0017
2319.00,0.0017
2318.00,0.0017
2317.00,0.0016
2316.00,0.0014
2315.00,0.0013
2314.00,0.0012
2313.00,0.0011
2312.00,0.0011
2311.00,0.0011
2310.00,0.0010
2309.00,0.0010
2308.00,0.0010
2307.00,0.0010
2306.00,0.0011
2305.00,0.0011
2304.00,0.0012
2303.00,0.0012
2302.00,0.0012
2301.00,0.0013
2300.00,0.0014
2299.00,0.0015
2298.00,0.0016
2297.00,0.0017
2296.00,0.0017
2295.00,0.0018
2294.00,0.0019
2293.00,0.0020
2292.00,0.0021
2291.00,0.0022
2290.00,0.0022
2289.00,0.0023
2288.00,0.0023
2287.00,0.0023
2286.00,0.0024
2285.00,0.0024
2284.00,0.0025
2283.00,0.0024
2282.00,0.0023
2281.00,0.0021
2280.00,0.0020
2279.00,0.0019
2278.00,0.0018
2277.00,0.0017
2276.00,0.0016
2275.00,0.0016
2274.00,0.0016
2273.00,0.0017
2272.00,0.0017
2271.00,0.0018
2270.00,0.0018
2269.00,0.0018
2268.00,0.0017
2267.00,0.0016
2266.00,0.0016
2265.00,0.0016
2264.00,0.0016
2263.00,0.0016
2262.00,0.0016
2261.00,0.0016
2260.00,0.0017
2259.00,0.0018
2258.00,0.0018
2257.00,0.0018
2256.00,0.0018
2255.00,0.0017
2254.00,0.0016
2253.00,0.0016
2252.00,0.0014
2251.00,0.0013
2250.00,0.0012
2249.00,0.0012
2248.00,0.0013
2247.00,0.0015
2246.00,0.0016
2245.00,0.0016
2244.00,0.0016
2243.00,0.0016
2242.00,0.0017
2241.00,0.0018
2240.00,0.0018
2239.00,0.0017
2238.00,0.0016
2237.00,0.0014
2236.00,0.0014
2235.00,0.0015
2234.00,0.0016
2233.00,0.0018
2232.00,0.0018
2231.00,0.0017
2230.00,0.0016
2229.00,0.0015
2228.00,0.0015
2227.00,0.0015
2226.00,0.0015
2225.00,0.0015
2224.00,0.0015
2223.00,0.0014
2222.00,0.0013
2221.00,0.0012
2220.00,0.0012
2219.00,0.0013
2218.00,0.0013
2217.00,0.0013
2216.00,0.0013
2215.00,0.0014
2214.00,0.0014
2213.00,0.0015
2212.00,0.0014
2211.00,0.0013
2210.00,0.0012
2209.00,0.0013
2208.00,0.0012
2207.00,0.0012
2206.00,0.0010
2205.00,0.0010
2204.00,0.0009
2203.00,0.0009
2202.00,0.0009
2201.00,0.0011
2200.00,0.0012
2199.00,0.0013
2198.00,0.0013
2197.00,0.0014
2196.00,0.0015
2195.00,0.0016
2194.00,0.0018
2193.00,0.0020
2192.00,0.0020
2191.00,0.0020
2190.00,0.0019
2189.00,0.0019
2188.00,0.0019
2187.00,0.0017
2186.00,0.0015
2185.00,0.0014
2184.00,0.0014
2183.00,0.0014
2182.00,0.0014
2181.00,0.0013
2180.00,0.0011
2179.00,0.0010
2178.00,0.0010
2177.00,0.0009
2176.00,0.0009
2175.00,0.0008
2174.00,0.0008
2173.00,0.0010
2172.00,0.0014
2171.00,0.0019
2170.00,0.0023
2169.00,0.0025
2168.00,0.0026
2167.00,0.0025
2166.00,0.0025
2165.00,0.0027
2164.00,0.0030
2163.00,0.0030
2162.00,0.0026
2161.00,0.0017
2160.00,0.0004
2159.00,-0.0010
2158.00,-0.0019
2157.00,-0.0021
2156.00,-0.0018
2155.00,-0.0014
2154.00,-0.0012
2153.00,-0.0011
2152.00,-0.0011
2151.00,-0.0011
2150.00,-0.0009
2149.00,-0.0005
2148.00,-0.0002
2147.00,0.0000
2146.00,0.0000
2145.00,-0.0001
2144.00,-0.0002
2143.00,-0.0003
2142.00,-0.0003
2141.00,-0.0002
2140.00,-0.0001
2139.00,-0.0002
2138.00,-0.0003
2137.00,-0.0004
2136.00,-0.0006
2135.00,-0.0008
2134.00,-0.0009
2133.00,-0.0010
2132.00,-0.0008
2131.00,-0.0007
2130.00,-0.0005
2129.00,-0.0003
2128.00,-0.0001
2127.00,0.0001
2126.00,0.0001
2125.00,0.0001
2124.00,0.0001
2123.00,0.0001
2122.00,0.0001
2121.00,0.0002
2120.00,0.0003
2119.00,0.0002
2118.00,0.0002
2117.00,0.0002
2116.00,0.0004
2115.00,0.0005
2114.00,0.0007
2113.00,0.0008
2112.00,0.0009
2111.00,0.0009
2110.00,0.0009
2109.00,0.0009
2108.00,0.0008
2107.00,0.0008
2106.00,0.0007
2105.00,0.0008
2104.00,0.0008
2103.00,0.0007
2102.00,0.0006
2101.00,0.0006
2100.00,0.0006
2099.00,0.0006
2098.00,0.0004
2097.00,0.0002
2096.00,0.0000
2095.00,-0.0001
2094.00,-0.0001
2093.00,0.0002
2092.00,0.0005
2091.00,0.0006
2090.00,0.0006
2089.00,0.0005
2088.00,0.0005
2087.00,0.0006
2086.00,0.0006
2085.00,0.0008
2084.00,0.0008
2083.00,0.0008
2082.00,0.0007
2081.00,0.0008
2080.00,0.0009
2079.00,0.0011
2078.00,0.0011
2077.00,0.0011
2076.00,0.0009
2075.00,0.0007
2074.00,0.0006
2073.00,0.0005
2072.00,0.0004
2071.00,0.0004
2070.00,0.0004
2069.00,0.0004
2068.00,0.0005
2067.00,0.0006
2066.00,0.0007
2065.00,0.0008
2064.00,0.0009
2063.00,0.0008
2062.00,0.0007
2061.00,0.0006
2060.00,0.0007
2059.00,0.0009
2058.00,0.0010
2057.00,0.0010
2056.00,0.0009
2055.00,0.0008
2054.00,0.0009
2053.00,0.0013
2052.00,0.0018
2051.00,0.0022
2050.00,0.0021
2049.00,0.0018
2048.00,0.0014
2047.00,0.0010
2046.00,0.0009
2045.00,0.0008
2044.00,0.0008
2043.00,0.0007
2042.00,0.0006
2041.00,0.0004
2040.00,0.0003
2039.00,0.0003
2038.00,0.0004
2037.00,0.0006
2036.00,0.0008
2035.00,0.0008
2034.00,0.0005
2033.00,0.0002
2032.00,-0.0001
2031.00,-0.0002
2030.00,-0.0002
2029.00,-0.0002
2028.00,-0.0002
2027.00,-0.0003
2026.00,-0.0004
2025.00,-0.0004
2024.00,-0.0004
2023.00,-0.0005
2022.00,-0.0006
2021.00,-0.0006
2020.00,-0.0005
2019.00,-0.0003
2018.00,-0.0001
2017.00,-0.0000
2016.00,-0.0000
2015.00,-0.0003
2014.00,-0.0006
2013.00,-0.0006
2012.00,-0.0004
2011.00,-0.0003
2010.00,-0.0003
2009.00,-0.0004
2008.00,-0.0005
2007.00,-0.0006
2006.00,-0.0008
2005.00,-0.0010
2004.00,-0.0011
2003.00,-0.0010
2002.00,-0.0008
2001.00,-0.0007
2000.00,-0.0008
1999.00,-0.0010
1998.00,-0.0011
1997.00,-0.0010
1996.00,-0.0008
1995.00,-0.0007
1994.00,-0.0006
1993.00,-0.0005
1992.00,-0.0005
1991.00,-0.0005
1990.00,-0.0004
1989.00,-0.0003
1988.00,-0.0002
1987.00,0.0001
1986.00,0.0004
1985.00,0.0008
1984.00,0.0013
1983.00,0.0016
1982.00,0.0018
1981.00,0.0019
1980.00,0.0019
1979.00,0.0014
1978.00,0.0007
1977.00,-0.0002
1976.00,-0.0009
1975.00,-0.0011
1974.00,-0.0011
1973.00,-0.0009
1972.00,-0.0008
1971.00,-0.0009
1970.00,-0.0009
1969.00,-0.0007
1968.00,-0.0003
1967.00,-0.0001
1966.00,-0.0001
1965.00,-0.0003
1964.00,-0.0006
1963.00,-0.0008
1962.00,-0.0009
1961.00,-0.0010
1960.00,-0.0009
1959.00,-0.0008
1958.00,-0.0007
1957.00,-0.0007
1956.00,-0.0007
1955.00,-0.0008
1954.00,-0.0008
1953.00,-0.0007
1952.00,-0.0006
1951.00,-0.0005
1950.00,-0.0004
1949.00,-0.0003
1948.00,-0.0003
1947.00,-0.0004
1946.00,-0.0005
1945.00,-0.0004
1944.00,-0.0003
1943.00,-0.0001
1942.00,-0.0001
1941.00,-0.0001
1940.00,-0.0002
1939.00,-0.0003
1938.00,-0.0003
1937.00,-0.0003
1936.00,-0.0002
1935.00,-0.0002
1934.00,-0.0002
1933.00,-0.0002
1932.00,-0.0003
1931.00,-0.0004
1930.00,-0.0004
1929.00,-0.0002
1928.00,-0.0001
1927.00,0.0000
1926.00,0.0001
1925.00,0.0001
1924.00,0.0002
1923.00,0.0002
1922.00,0.0002
1921.00,0.0002
1920.00,0.0003
1919.00,0.0004
1918.00,0.0004
1917.00,0.0004
1916.00,0.0004
1915.00,0.0004
1914.00,0.0004
1913.00,0.0003
1912.00,0.0004
1911.00,0.0004
1910.00,0.0004
1909.00,0.0004
1908.00,0.0003
1907.00,0.0002
1906.00,0.0001
1905.00,0.0002
1904.00,0.0003
1903.00,0.0003
1902.00,0.0003
1901.00,0.0004
1900.00,0.0005
1899.00,0.0006
1898.00,0.0006
1897.00,0.0007
1896.00,0.0007
1895.00,0.0006
1894.00,0.0006
1893.00,0.0006
1892.00,0.0007
1891.00,0.0008
1890.00,0.0008
1889.00,0.0008
1888.00,0.0007
1887.00,0.0006
1886.00,0.0005
1885.00,0.0005
1884.00,0.0006
1883.00,0.0005
1882.00,0.0005
1881.00,0.0005
1880.00,0.0005
1879.00,0.0006
1878.00,0.0005
1877.00,0.0005
1876.00,0.0005
1875.00,0.0005
1874.00,0.0005
1873.00,0.0005
1872.00,0.0005
1871.00,0.0005
1870.00,0.0005
1869.00,0.0006
1868.00,0.0007
1867.00,0.0007
1866.00,0.0006
1865.00,0.0005
1864.00,0.0005
1863.00,0.0006
1862.00,0.0006
1861.00,0.0006
1860.00,0.0006
1859.00,0.0006
1858.00,0.0006
1857.00,0.0007
1856.00,0.0008
1855.00,0.0008
1854.00,0.0007
1853.00,0.0007
1852.00,0.0007
1851.00,0.0007
1850.00,0.0007
1849.00,0.0007
1848.00,0.0007
1847.00,0.0007
1846.00,0.0006
1845.00,0.0006
1844.00,0.0007
1843.00,0.0008
1842.00,0.0009
1841.00,0.0009
1840.00,0.0009
1839.00,0.0008
1838.00,0.0008
1837.00,0.0008
1836.00,0.0008
1835.00,0.0009
1834.00,0.0009
1833.00,0.0009
1832.00,0.0010
1831.00,0.0010
1830.00,0.0010
1829.00,0.0009
1828.00,0.0009
1827.00,0.0009
1826.00,0.0010
1825.00,0.0011
1824.00,0.0012
1823.00,0.0012
1822.00,0.0011
1821.00,0.0010
1820.00,0.0009
1819.00,0.0008
1818.00,0.0007
1817.00,0.0007
1816.00,0.0007
1815.00,0.0008
1814.00,0.0008
1813.00,0.0008
1812.00,0.0009
1811.00,0.0009
1810.00,0.0010
1809.00,0.0010
1808.00,0.0011
1807.00,0.0012
1806.00,0.0012
1805.00,0.0012
1804.00,0.0012
1803.00,0.0012
1802.00,0.0012
1801.00,0.0012
1800.00,0.0013
1799.00,0.0013
1798.00,0.0013
1797.00,0.0013
1796.00,0.0013
1795.00,0.0013
1794.00,0.0012
1793.00,0.0013
1792.00,0.0013
1791.00,0.0014
1790.00,0.0014
1789.00,0.0014
1788.00,0.0014
1787.00,0.0014
1786.00,0.0014
1785.00,0.0014
1784.00,0.0015
1783.00,0.0015
1782.00,0.0015
1781.00,0.0016
1780.00,0.0016
1779.00,0.0016
1778.00,0.0016
1777.00,0.0016
1776.00,0.0015
1775.00,0.0014
1774.00,0.0013
1773.00,0.0014
1772.00,0.0014
1771.00,0.0016
1770.00,0.0016
1769.00,0.0017
1768.00,0.0018
1767.00,0.0019
1766.00,0.0019
1765.00,0.0018
1764.00,0.0019
1763.00,0.0019
1762.00,0.0021
1761.00,0.0022
1760.00,0.0024
1759.00,0.0025
1758.00,0.0027
1757.00,0.0029
1756.00,0.0030
1755.00,0.0032
1754.00,0.0033
1753.00,0.0035
1752.00,0.0038
1751.00,0.0042
1750.00,0.0045
1749.00,0.0048
1748.00,0.0051
1747.00,0.0053
1746.00,0.0054
1745.00,0.0055
1744.00,0.0056
1743.00,0.0056
1742.00,0.0056
1741.00,0.0056
1740.00,0.0056
1739.00,0.0055
1738.00,0.0054
1737.00,0.0052
1736.00,0.0051
1735.00,0.0050
1734.00,0.0051
1733.00,0.0052
1732.00,0.0052
1731.00,0.0051
1730.00,0.0050
1729.00,0.0049
1728.00,0.0048
1727.00,0.0047
1726.00,0.0046
1725.00,0.0046
1724.00,0.0046
1723.00,0.0045
1722.00,0.0044
1721.00,0.0044
1720.00,0.0044
1719.00,0.0044
1718.00,0.0043
1717.00,0.0044
1716.00,0.0044
1715.00,0.0045
1714.00,0.0045
1713.00,0.0045
1712.00,0.0046
1711.00,0.0046
1710.00,0.0045
1709.00,0.0045
1708.00,0.0045
1707.00,0.0046
1706.00,0.0047
1705.00,0.0049
1704.00,0.0050
1703.00,0.0050
1702.00,0.0050
1701.00,0.0052
1700.00,0.0054
1699.00,0.0055
1698.00,0.0055
1697.00,0.0057
1696.00,0.0062
1695.00,0.0066
1694.00,0.0068
1693.00,0.0069
1692.00,0.0070
1691.00,0.0072
1690.00,0.0074
1689.00,0.0076
1688.00,0.0078
1687.00,0.0079
1686.00,0.0081
1685.00,0.0084
1684.00,0.0088
1683.00,0.0092
1682.00,0.0094
1681.00,0.0095
1680.00,0.0097
1679.00,0.0097
1678.00,0.0098
1677.00,0.0099
1676.00,0.0101
1675.00,0.0104
1674.00,0.0107
1673.00,0.0108
1672.00,0.0110
1671.00,0.0112
1670.00,0.0115
1669.00,0.0118
1668.00,0.0121
1667.00,0.0123
1666.00,0.0125
1665.00,0.0126
1664.00,0.0127
1663.00,0.0128
1662.00,0.0130
1661.00,0.0132
1660.00,0.0133
1659.00,0.0134
1658.00,0.0134
1657.00,0.0135
1656.00,0.0136
1655.00,0.0136
1654.00,0.0137
1653.00,0.0137
1652.00,0.0137
1651.00,0.0136
1650.00,0.0134
1649.00,0.0133
1648.00,0.0132
1647.00,0.0131
1646.00,0.0130
1645.00,0.0130
1644.00,0.0130
1643.00,0.0129
1642.00,0.0128
1641.00,0.0127
1640.00,0.0126
1639.00,0.0125
1638.00,0.0124
1637.00,0.0123
1636.00,0.0122
1635.00,0.0122
1634.00,0.0122
1633.00,0.0121
1632.00,0.0121
1631.00,0.0120
1630.00,0.0120
1629.00,0.0119
1628.00,0.0118
1627.00,0.0116
1626.00,0.0115
1625.00,0.0114
1624.00,0.0113
1623.00,0.0112
1622.00,0.0111
1621.00,0.0110
1620.00,0.0108
1619.00,0.0106
1618.00,0.0105
1617.00,0.0104
1616.00,0.0103
1615.00,0.0103
1614.00,0.0103
1613.00,0.0102
1612.00,0.0102
1611.00,0.0101
1610.00,0.0100
1609.00,0.0100
1608.00,0.0100
1607.00,0.0099
1606.00,0.0099
1605.00,0.0099
1604.00,0.0099
1603.00,0.0099
1602.00,0.0099
1601.00,0.0100
1600.00,0.0101
1599.00,0.0101
1598.00,0.0101
1597.00,0.0101
1596.00,0.0102
1595.00,0.0103
1594.00,0.0104
1593.00,0.0106
1592.00,0.0108
1591.00,0.0110
1590.00,0.0112
1589.00,0.0115
1588.00,0.0118
1587.00,0.0122
1586.00,0.0126
1585.00,0.0131
1584.00,0.0138
1583.00,0.0145
1582.00,0.0153
1581.00,0.0161
1580.00,0.0168
1579.00,0.0173
1578.00,0.0177
1577.00,0.0179
1576.00,0.0178
1575.00,0.0175
1574.00,0.0171
1573.00,0.0167
1572.00,0.0161
1571.00,0.0155
1570.00,0.0148
1569.00,0.0142
1568.00,0.0137
1567.00,0.0133
1566.00,0.0130
1565.00,0.0128
1564.00,0.0127
1563.00,0.0127
1562.00,0.0127
1561.00,0.0128
1560.00,0.0129
1559.00,0.0129
1558.00,0.0130
1557.00,0.0132
1556.00,0.0133
1555.00,0.0135
1554.00,0.0137
1553.00,0.0141
1552.00,0.0145
1551.00,0.0150
1550.00,0.0156
1549.00,0.0161
1548.00,0.0167
1547.00,0.0173
1546.00,0.0181
1545.00,0.0190
1544.00,0.0199
1543.00,0.0205
1542.00,0.0209
1541.00,0.0211
1540.00,0.0208
1539.00,0.0202
1538.00,0.0194
1537.00,0.0187
1536.00,0.0179
1535.00,0.0170
1534.00,0.0160
1533.00,0.0149
1532.00,0.0142
1531.00,0.0137
1530.00,0.0133
1529.00,0.0130
1528.00,0.0128
1527.00,0.0126
1526.00,0.0123
1525.00,0.0120
1524.00,0.0117
1523.00,0.0115
1522.00,0.0113
1521.00,0.0113
1520.00,0.0114
1519.00,0.0115
1518.00,0.0114
1517.00,0.0114
1516.00,0.0113
1515.00,0.0112
1514.00,0.0110
1513.00,0.0110
1512.00,0.0110
1511.00,0.0109
1510.00,0.0109
1509.00,0.0108
1508.00,0.0108
1507.00,0.0105
1506.00,0.0103
1505.00,0.0102
1504.00,0.0102
1503.00,0.0102
1502.00,0.0102
1501.00,0.0103
1500.00,0.0105
1499.00,0.0106
1498.00,0.0107
1497.00,0.0109
1496.00,0.0112
1495.00,0.0114
1494.00,0.0116
1493.00,0.0118
1492.00,0.0122
1491.00,0.0126
1490.00,0.0130
1489.00,0.0136
1488.00,0.0142
1487.00,0.0148
1486.00,0.0154
1485.00,0.0161
1484.00,0.0171
1483.00,0.0181
1482.00,0.0193
1481.00,0.0208
1480.00,0.0222
1479.00,0.0236
1478.00,0.0251
1477.00,0.0268
1476.00,0.0287
1475.00,0.0307
1474.00,0.0335
1473.00,0.0382
1472.00,0.0444
1471.00,0.0506
1470.00,0.0565
1469.00,0.0625
1468.00,0.0689
1467.00,0.0757
1466.00,0.0831
1465.00,0.0909
1464.00,0.0978
1463.00,0.1031
1462.00,0.1069
1461.00,0.1100
1460.00,0.1126
1459.00,0.1149
1458.00,0.1173
1457.00,0.1199
1456.00,0.1216
1455.00,0.1222
1454.00,0.1222
1453.00,0.1217
1452.00,0.1203
1451.00,0.1176
1450.00,0.1131
1449.00,0.1064
1448.00,0.0974
1447.00,0.0875
1446.00,0.0784
1445.00,0.0704
1444.00,0.0636
1443.00,0.0580
1442.00,0.0539
1441.00,0.0510
1440.00,0.0493
1439.00,0.0484
1438.00,0.0482
1437.00,0.0480
1436.00,0.0468
1435.00,0.0441
1434.00,0.0404
1433.00,0.0361
1432.00,0.0317
1431.00,0.0278
1430.00,0.0248
1429.00,0.0226
1428.00,0.0211
1427.00,0.0201
1426.00,0.0196
1425.00,0.0191
1424.00,0.0187
1423.00,0.0183
1422.00,0.0181
1421.00,0.0178
1420.00,0.0174
1419.00,0.0170
1418.00,0.0165
1417.00,0.0159
1416.00,0.0152
1415.00,0.0146
1414.00,0.0142
1413.00,0.0137
1412.00,0.0130
1411.00,0.0125
1410.00,0.0119
1409.00,0.0113
1408.00,0.0107
1407.00,0.0102
1406.00,0.0096
1405.00,0.0088
1404.00,0.0079
1403.00,0.0071
1402.00,0.0064
1401.00,0.0057
1400.00,0.0048
1399.00,0.0040
1398.00,0.0034
1397.00,0.0027
1396.00,0.0021
1395.00,0.0018
1394.00,0.0017
1393.00,0.0019
1392.00,0.0023
1391.00,0.0031
1390.00,0.0042
1389.00,0.0058
1388.00,0.0081
1387.00,0.0115
1386.00,0.0160
1385.00,0.0218
1384.00,0.0293
1383.00,0.0396
1382.00,0.0531
1381.00,0.0700
1380.00,0.0905
1379.00,0.1134
1378.00,0.1354
1377.00,0.1518
1376.00,0.1581
1375.00,0.1515
1374.00,0.1336
1373.00,0.1110
1372.00,0.0897
1371.00,0.0718
1370.00,0.0574
1369.00,0.0464
1368.00,0.0388
1367.00,0.0342
1366.00,0.0319
1365.00,0.0311
1364.00,0.0317
1363.00,0.0332
1362.00,0.0354
1361.00,0.0376
1360.00,0.0393
1359.00,0.0399
1358.00,0.0390
1357.00,0.0368
1356.00,0.0336
1355.00,0.0300
1354.00,0.0265
1353.00,0.0235
1352.00,0.0211
1351.00,0.0191
1350.00,0.0175
1349.00,0.0162
1348.00,0.0152
1347.00,0.0143
1346.00,0.0137
1345.00,0.0133
1344.00,0.0129
1343.00,0.0126
1342.00,0.0125
1341.00,0.0124
1340.00,0.0123
1339.00,0.0123
1338.00,0.0122
1337.00,0.0121
1336.00,0.0121
1335.00,0.0123
1334.00,0.0126
1333.00,0.0130
1332.00,0.0135
1331.00,0.0140
1330.00,0.0142
1329.00,0.0142
1328.00,0.0140
1327.00,0.0137
1326.00,0.0133
1325.00,0.0129
1324.00,0.0124
1323.00,0.0120
1322.00,0.0118
1321.00,0.0116
1320.00,0.0114
1319.00,0.0113
1318.00,0.0111
1317.00,0.0110
1316.00,0.0109
1315.00,0.0109
1314.00,0.0109
1313.00,0.0109
1312.00,0.0111
1311.00,0.0114
1310.00,0.0119
1309.00,0.0128
1308.00,0.0141
1307.00,0.0156
1306.00,0.0171
1305.00,0.0181
1304.00,0.0184
1303.00,0.0180
1302.00,0.0172
1301.00,0.0164
1300.00,0.0158
1299.00,0.0154
1298.00,0.0151
1297.00,0.0150
1296.00,0.0148
1295.00,0.0145
1294.00,0.0141
1293.00,0.0135
1292.00,0.0128
1291.00,0.0122
1290.00,0.0117
1289.00,0.0112
1288.00,0.0108
1287.00,0.0104
1286.00,0.0101
1285.00,0.0097
1284.00,0.0094
1283.00,0.0092
1282.00,0.0089
1281.00,0.0087
1280.00,0.0085
1279.00,0.0082
1278.00,0.0079
1277.00,0.0075
1276.00,0.0071
1275.00,0.0068
1274.00,0.0064
1273.00,0.0061
1272.00,0.0057
1271.00,0.0053
1270.00,0.0050
1269.00,0.0048
1268.00,0.0048
1267.00,0.0048
1266.00,0.0048
1265.00,0.0049
1264.00,0.0051
1263.00,0.0053
1262.00,0.0057
1261.00,0.0062
1260.00,0.0069
1259.00,0.0077
1258.00,0.0085
1257.00,0.0090
1256.00,0.0091
1255.00,0.0086
1254.00,0.0075
1253.00,0.0062
1252.00,0.0050
1251.00,0.0041
1250.00,0.0037
1249.00,0.0036
1248.00,0.0037
1247.00,0.0039
1246.00,0.0040
1245.00,0.0041
1244.00,0.0042
1243.00,0.0042
1242.00,0.0042
1241.00,0.0043
1240.00,0.0044
1239.00,0.0045
1238.00,0.0047
1237.00,0.0049
1236.00,0.0052
1235.00,0.0055
1234.00,0.0059
1233.00,0.0063
1232.00,0.0066
1231.00,0.0071
1230.00,0.0075
1229.00,0.0079
1228.00,0.0084
1227.00,0.0088
1226.00,0.0093
1225.00,0.0098
1224.00,0.0103
1223.00,0.0108
1222.00,0.0114
1221.00,0.0118
1220.00,0.0122
1219.00,0.0125
1218.00,0.0126
1217.00,0.0126
1216.00,0.0125
1215.00,0.0123
1214.00,0.0121
1213.00,0.0119
1212.00,0.0117
1211.00,0.0115
1210.00,0.0113
1209.00,0.0112
1208.00,0.0111
1207.00,0.0110
1206.00,0.0110
1205.00,0.0111
1204.00,0.0111
1203.00,0.0111
1202.00,0.0112
1201.00,0.0112
1200.00,0.0112
1199.00,0.0112
1198.00,0.0112
1197.00,0.0112
1196.00,0.0111
1195.00,0.0110
1194.00,0.0109
1193.00,0.0107
1192.00,0.0105
1191.00,0.0102
1190.00,0.0100
1189.00,0.0097
1188.00,0.0094
1187.00,0.0092
1186.00,0.0088
1185.00,0.0085
1184.00,0.0081
1183.00,0.0078
1182.00,0.0075
1181.00,0.0073
1180.00,0.0071
1179.00,0.0072
1178.00,0.0076
1177.00,0.0082
1176.00,0.0092
1175.00,0.0107
1174.00,0.0129
1173.00,0.0156
1172.00,0.0189
1171.00,0.0227
1170.00,0.0264
1169.00,0.0294
1168.00,0.0313
1167.00,0.0315
1166.00,0.0303
1165.00,0.0280
1164.00,0.0250
1163.00,0.0221
1162.00,0.0193
1161.00,0.0169
1160.00,0.0149
1159.00,0.0132
1158.00,0.0118
1157.00,0.0107
1156.00,0.0098
1155.00,0.0091
1154.00,0.0084
1153.00,0.0078
1152.00,0.0072
1151.00,0.0065
1150.00,0.0057
1149.00,0.0050
1148.00,0.0043
1147.00,0.0038
1146.00,0.0033
1145.00,0.0029
1144.00,0.0025
1143.00,0.0022
1142.00,0.0019
1141.00,0.0016
1140.00,0.0013
1139.00,0.0010
1138.00,0.0009
1137.00,0.0009
1136.00,0.0011
1135.00,0.0013
1134.00,0.0015
1133.00,0.0017
1132.00,0.0018
1131.00,0.0020
1130.00,0.0023
1129.00,0.0026
1128.00,0.0030
1127.00,0.0034
1126.00,0.0038
1125.00,0.0041
1124.00,0.0043
1123.00,0.0045
1122.00,0.0047
1121.00,0.0050
1120.00,0.0054
1119.00,0.0057
1118.00,0.0061
1117.00,0.0064
1116.00,0.0068
1115.00,0.0072
1114.00,0.0075
1113.00,0.0079
1112.00,0.0082
1111.00,0.0086
1110.00,0.0091
1109.00,0.0095
1108.00,0.0100
1107.00,0.0105
1106.00,0.0111
1105.00,0.0117
1104.00,0.0121
1103.00,0.0124
1102.00,0.0123
1101.00,0.0119
1100.00,0.0112
1099.00,0.0102
1098.00,0.0093
1097.00,0.0083
1096.00,0.0074
1095.00,0.0065
1094.00,0.0057
1093.00,0.0049
1092.00,0.0043
1091.00,0.0037
1090.00,0.0032
1089.00,0.0028
1088.00,0.0024
1087.00,0.0021
1086.00,0.0018
1085.00,0.0015
1084.00,0.0011
1083.00,0.0009
1082.00,0.0007
1081.00,0.0005
1080.00,0.0004
1079.00,0.0003
1078.00,0.0001
1077.00,-0.0001
1076.00,-0.0002
1075.00,-0.0004
1074.00,-0.0006
1073.00,-0.0007
1072.00,-0.0007
1071.00,-0.0005
1070.00,-0.0004
1069.00,-0.0001
1068.00,0.0002
1067.00,0.0007
1066.00,0.0012
1065.00,0.0017
1064.00,0.0021
1063.00,0.0025
1062.00,0.0028
1061.00,0.0031
1060.00,0.0035
1059.00,0.0039
1058.00,0.0044
1057.00,0.0049
1056.00,0.0054
1055.00,0.0059
1054.00,0.0064
1053.00,0.0069
1052.00,0.0074
1051.00,0.0079
1050.00,0.0085
1049.00,0.0091
1048.00,0.0099
1047.00,0.0107
1046.00,0.0114
1045.00,0.0120
1044.00,0.0123
1043.00,0.0124
1042.00,0.0123
1041.00,0.0121
1040.00,0.0120
1039.00,0.0121
1038.00,0.0123
1037.00,0.0125
1036.00,0.0127
1035.00,0.0127
1034.00,0.0126
1033.00,0.0124
1032.00,0.0121
1031.00,0.0119
1030.00,0.0118
1029.00,0.0117
1028.00,0.0117
1027.00,0.0117
1026.00,0.0117
1025.00,0.0117
1024.00,0.0117
1023.00,0.0118
1022.00,0.0119
1021.00,0.0119
1020.00,0.0121
1019.00,0.0123
1018.00,0.0126
1017.00,0.0129
1016.00,0.0133
1015.00,0.0138
1014.00,0.0143
1013.00,0.0149
1012.00,0.0154
1011.00,0.0158
1010.00,0.0162
1009.00,0.0164
1008.00,0.0168
1007.00,0.0173
1006.00,0.0182
1005.00,0.0196
1004.00,0.0215
1003.00,0.0243
1002.00,0.0279
1001.00,0.0324
1000.00,0.0374
999.00,0.0418
998.00,0.0443
997.00,0.0440
996.00,0.0408
995.00,0.0358
994.00,0.0303
993.00,0.0254
992.00,0.0215
991.00,0.0187
990.00,0.0167
989.00,0.0153
988.00,0.0143
987.00,0.0136
986.00,0.0133
985.00,0.0132
984.00,0.0134
983.00,0.0140
982.00,0.0149
981.00,0.0163
980.00,0.0183
979.00,0.0210
978.00,0.0245
977.00,0.0287
976.00,0.0335
975.00,0.0383
974.00,0.0420
973.00,0.0435
972.00,0.0417
971.00,0.0368
970.00,0.0298
969.00,0.0224
968.00,0.0159
967.00,0.0108
966.00,0.0071
965.00,0.0046
964.00,0.0028
963.00,0.0016
962.00,0.0005
961.00,-0.0005
960.00,-0.0016
959.00,-0.0028
958.00,-0.0037
957.00,-0.0045
956.00,-0.0049
955.00,-0.0052
954.00,-0.0055
953.00,-0.0055
952.00,-0.0055
951.00,-0.0052
950.00,-0.0049
949.00,-0.0046
948.00,-0.0042
947.00,-0.0037
946.00,-0.0033
945.00,-0.0029
944.00,-0.0026
943.00,-0.0021
942.00,-0.0016
941.00,-0.0012
940.00,-0.0008
939.00,-0.0006
938.00,-0.0004
937.00,-0.0003
936.00,-0.0000
935.00,0.0004
934.00,0.0010
933.00,0.0015
932.00,0.0020
931.00,0.0024
930.00,0.0028
929.00,0.0033
928.00,0.0037
927.00,0.0042
926.00,0.0046
925.00,0.0050
924.00,0.0054
923.00,0.0058
922.00,0.0062
921.00,0.0065
920.00,0.0068
919.00,0.0071
918.00,0.0073
917.00,0.0076
916.00,0.0078
915.00,0.0079
914.00,0.0079
913.00,0.0079
912.00,0.0080
911.00,0.0082
910.00,0.0084
909.00,0.0086
908.00,0.0088
907.00,0.0092
906.00,0.0098
905.00,0.0107
904.00,0.0120
903.00,0.0137
902.00,0.0155
901.00,0.0172
900.00,0.0183
899.00,0.0187
898.00,0.0181
897.00,0.0168
896.00,0.0152
895.00,0.0136
894.00,0.0121
893.00,0.0109
892.00,0.0100
891.00,0.0094
890.00,0.0091
889.00,0.0089
888.00,0.0089
887.00,0.0089
886.00,0.0090
885.00,0.0090
884.00,0.0091
883.00,0.0092
882.00,0.0094
881.00,0.0095
880.00,0.0096
879.00,0.0096
878.00,0.0095
877.00,0.0095
876.00,0.0095
875.00,0.0095
874.00,0.0096
873.00,0.0095
872.00,0.0094
871.00,0.0093
870.00,0.0093
869.00,0.0093
868.00,0.0093
867.00,0.0094
866.00,0.0094
865.00,0.0094
864.00,0.0094
863.00,0.0095
862.00,0.0097
861.00,0.0099
860.00,0.0101
859.00,0.0103
858.00,0.0105
857.00,0.0107
856.00,0.0108
855.00,0.0110
854.00,0.0112
853.00,0.0115
852.00,0.0119
851.00,0.0124
850.00,0.0131
849.00,0.0140
848.00,0.0152
847.00,0.0171
846.00,0.0200
845.00,0.0243
844.00,0.0301
843.00,0.0367
842.00,0.0421
841.00,0.0440
840.00,0.0416
839.00,0.0360
838.00,0.0294
837.00,0.0240
836.00,0.0202
835.00,0.0178
834.00,0.0164
833.00,0.0154
832.00,0.0146
831.00,0.0138
830.00,0.0130
829.00,0.0124
828.00,0.0120
827.00,0.0118
826.00,0.0118
825.00,0.0118
824.00,0.0118
823.00,0.0116
822.00,0.0114
821.00,0.0111
820.00,0.0108
819.00,0.0108
818.00,0.0110
817.00,0.0115
816.00,0.0122
815.00,0.0132
814.00,0.0145
813.00,0.0159
812.00,0.0174
811.00,0.0188
810.00,0.0198
809.00,0.0203
808.00,0.0202
807.00,0.0194
806.00,0.0183
805.00,0.0169
804.00,0.0156
803.00,0.0145
802.00,0.0136
801.00,0.0128
800.00,0.0122
799.00,0.0117
798.00,0.0114
797.00,0.0111
796.00,0.0109
795.00,0.0108
794.00,0.0106
793.00,0.0105
792.00,0.0104
791.00,0.0104
790.00,0.0103
789.00,0.0101
788.00,0.0099
787.00,0.0097
786.00,0.0096
785.00,0.0094
784.00,0.0093
783.00,0.0092
782.00,0.0090
781.00,0.0088
780.00,0.0085
779.00,0.0083
778.00,0.0083
777.00,0.0085
776.00,0.0088
775.00,0.0091
774.00,0.0094
773.00,0.0097
772.00,0.0099
771.00,0.0102
770.00,0.0105
769.00,0.0107
768.00,0.0108
767.00,0.0108
766.00,0.0106
765.00,0.0104
764.00,0.0100
763.00,0.0096
762.00,0.0093
761.00,0.0091
760.00,0.0089
759.00,0.0088
758.00,0.0085
757.00,0.0082
756.00,0.0079
755.00,0.0077
754.00,0.0076
753.00,0.0076
752.00,0.0075
751.00,0.0076
750.00,0.0079
749.00,0.0082
748.00,0.0085
747.00,0.0086
746.00,0.0087
745.00,0.0087
744.00,0.0087
743.00,0.0087
742.00,0.0088
741.00,0.0089
740.00,0.0090
739.00,0.0091
738.00,0.0092
737.00,0.0094
736.00,0.0096
735.00,0.0098
734.00,0.0100
733.00,0.0103
732.00,0.0106
731.00,0.0108
730.00,0.0109
729.00,0.0109
728.00,0.0108
727.00,0.0107
726.00,0.0106
725.00,0.0106
724.00,0.0105
723.00,0.0105
722.00,0.0105
721.00,0.0105
720.00,0.0104
719.00,0.0102
718.00,0.0099
717.00,0.0095
716.00,0.0091
715.00,0.0088
714.00,0.0087
713.00,0.0087
712.00,0.0088
711.00,0.0089
710.00,0.0089
709.00,0.0088
708.00,0.0088
707.00,0.0088
706.00,0.0089
705.00,0.0091
704.00,0.0094
703.00,0.0095
702.00,0.0094
701.00,0.0093
700.00,0.0091
699.00,0.0091
698.00,0.0090
697.00,0.0089
696.00,0.0088
695.00,0.0088
694.00,0.0088
693.00,0.0088
692.00,0.0087
691.00,0.0087
690.00,0.0087
689.00,0.0087
688.00,0.0087
687.00,0.0087
686.00,0.0088
685.00,0.0089
684.00,0.0088
683.00,0.0087
682.00,0.0086
681.00,0.0086
680.00,0.0087
679.00,0.0089
678.00,0.0091
677.00,0.0092
676.00,0.0092
675.00,0.0092
674.00,0.0091
673.00,0.0091
672.00,0.0091
671.00,0.0092
670.00,0.0094
669.00,0.0096
668.00,0.0096
667.00,0.0095
666.00,0.0092
665.00,0.0089
664.00,0.0089
663.00,0.0090
662.00,0.0090
661.00,0.0090
660.00,0.0091
659.00,0.0091
658.00,0.0090
657.00,0.0088
656.00,0.0084
655.00,0.0080
654.00,0.0077
653.00,0.0076
652.00,0.0079
651.00,0.0082
650.00,0.0084
649.00,0.0084
648.00,0.0082
647.00,0.0080
646.00,0.0079
645.00,0.0078
644.00,0.0079
643.00,0.0080
642.00,0.0081
641.00,0.0082
640.00,0.0083
639.00,0.0084
638.00,0.0084
637.00,0.0085
636.00,0.0086
635.00,0.0087
634.00,0.0087
633.00,0.0088
632.00,0.0088
631.00,0.0088
630.00,0.0088
629.00,0.0087
628.00,0.0087
627.00,0.0087
626.00,0.0088
625.00,0.0088
624.00,0.0087
623.00,0.0087
622.00,0.0089
621.00,0.0091
620.00,0.0092
619.00,0.0092
618.00,0.0091
617.00,0.0092
616.00,0.0092
615.00,0.0092
614.00,0.0094
613.00,0.0096
612.00,0.0098
611.00,0.0100
610.00,0.0102
609.00,0.0102
608.00,0.0100
607.00,0.0097
606.00,0.0093
605.00,0.0089
604.00,0.0085
603.00,0.0083
602.00,0.0082
601.00,0.0084
600.00,0.0087
599.00,0.0090
598.00,0.0092
597.00,0.0094
596.00,0.0094
595.00,0.0093
594.00,0.0091
593.00,0.0090
592.00,0.0089
591.00,0.0088
590.00,0.0088
589.00,0.0087
588.00,0.0086
587.00,0.0087
586.00,0.0089
585.00,0.0092
584.00,0.0094
583.00,0.0095
582.00,0.0096
581.00,0.0097
580.00,0.0097
579.00,0.0096
578.00,0.0094
577.00,0.0093
576.00,0.0092
575.00,0.0092
574.00,0.0094
573.00,0.0097
572.00,0.0099
571.00,0.0099
570.00,0.0099
569.00,0.0098
568.00,0.0098
567.00,0.0099
566.00,0.0098
565.00,0.0096
564.00,0.0093
563.00,0.0091
562.00,0.0091
561.00,0.0093
560.00,0.0095
559.00,0.0097
558.00,0.0098
557.00,0.0098
556.00,0.0097
555.00,0.0094
554.00,0.0089
553.00,0.0087
552.00,0.0087
551.00,0.0090
550.00,0.0093
549.00,0.0093
548.00,0.0093
547.00,0.0092
546.00,0.0092
545.00,0.0093
544.00,0.0094
543.00,0.0097
542.00,0.0101
541.00,0.0104
540.00,0.0105
539.00,0.0105
538.00,0.0105
537.00,0.0104
536.00,0.0102
535.00,0.0101
534.00,0.0100
533.00,0.0102
532.00,0.0106
531.00,0.0109
530.00,0.0110
529.00,0.0107
528.00,0.0103
527.00,0.0099
526.00,0.0098
525.00,0.0098
524.00,0.0098
523.00,0.0097
522.00,0.0096
521.00,0.0097
520.00,0.0098
519.00,0.0099
518.00,0.0098
517.00,0.0092
516.00,0.0085
515.00,0.0081
514.00,0.0084
513.00,0.0090
512.00,0.0093
511.00,0.0089
510.00,0.0083
509.00,0.0078
508.00,0.0077
507.00,0.0077
506.00,0.0078
505.00,0.0079
504.00,0.0082
503.00,0.0086
502.00,0.0091
501.00,0.0092
500.00,0.0091
499.00,0.0088
498.00,0.0086
497.00,0.0088
496.00,0.0094
495.00,0.0100
494.00,0.0104
493.00,0.0103
492.00,0.0099
491.00,0.0097
490.00,0.0099
489.00,0.0101
488.00,0.0100
487.00,0.0095
486.00,0.0090
485.00,0.0087
484.00,0.0086
483.00,0.0081
482.00,0.0074
481.00,0.0068
480.00,0.0070
479.00,0.0079
478.00,0.0089
477.00,0.0097
476.00,0.0099
475.00,0.0096
474.00,0.0091
473.00,0.0088
472.00,0.0090
471.00,0.0094
470.00,0.0098
469.00,0.0100
468.00,0.0102
467.00,0.0104
466.00,0.0106
465.00,0.0109
464.00,0.0114
463.00,0.0122
462.00,0.0130
461.00,0.0137
460.00,0.0146
459.00,0.0158
458.00,0.0163
457.00,0.0156
456.00,0.0140
455.00,0.0126
454.00,0.0118
453.00,0.0112
452.00,0.0118
451.00,0.0128
450.00,0.0135
