Created as New Dataset,Sample 008 By Administrator Date Friday, September 05 2025
cm-1,A
4000.00,0.0012
3999.00,0.0012
3998.00,0.0012
3997.00,0.0012
3996.00,0.0012
3995.00,0.0012
3994.00,0.0012
3993.00,0.0012
3992.00,0.0012
3991.00,0.0012
3990.00,0.0012
3989.00,0.0012
3988.00,0.0012
3987.00,0.0012
3986.00,0.0011
3985.00,0.0011
3984.00,0.0011
3983.00,0.0011
3982.00,0.0010
3981.00,0.0010
3980.00,0.0010
3979.00,0.0010
3978.00,0.0010
3977.00,0.0010
3976.00,0.0010
3975.00,0.0010
3974.00,0.0010
3973.00,0.0010
3972.00,0.0010
3971.00,0.0011
3970.00,0.0011
3969.00,0.0010
3968.00,0.0010
3967.00,0.0010
3966.00,0.0010
3965.00,0.0009
3964.00,0.0009
3963.00,0.0009
3962.00,0.0009
3961.00,0.0010
3960.00,0.0010
3959.00,0.0010
3958.00,0.0010
3957.00,0.0010
3956.00,0.0010
3955.00,0.0010
3954.00,0.0010
3953.00,0.0010
3952.00,0.0009
3951.00,0.0009
3950.00,0.0009
3949.00,0.0009
3948.00,0.0009
3947.00,0.0009
3946.00,0.0009
3945.00,0.0009
3944.00,0.0009
3943.00,0.0009
3942.00,0.0009
3941.00,0.0009
3940.00,0.0009
3939.00,0.0009
3938.00,0.0009
3937.00,0.0009
3936.00,0.0009
3935.00,0.0009
3934.00,0.0009
3933.00,0.0009
3932.00,0.0010
3931.00,0.0010
3930.00,0.0010
3929.00,0.0010
3928.00,0.0010
3927.00,0.0010
3926.00,0.0010
3925.00,0.0010
3924.00,0.0010
3923.00,0.0009
3922.00,0.0009
3921.00,0.0008
3920.00,0.0008
3919.00,0.0008
3918.00,0.0008
3917.00,0.0008
3916.00,0.0008
3915.00,0.0008
3914.00,0.0009
3913.00,0.0009
3912.00,0.0009
3911.00,0.0009
3910.00,0.0009
3909.00,0.0009
3908.00,0.0009
3907.00,0.0009
3906.00,0.0008
3905.00,0.0008
3904.00,0.0007
3903.00,0.0007
3902.00,0.0007
3901.00,0.0007
3900.00,0.0007
3899.00,0.0007
3898.00,0.0007
3897.00,0.0007
3896.00,0.0007
3895.00,0.0007
3894.00,0.0007
3893.00,0.0007
3892.00,0.0008
3891.00,0.0008
3890.00,0.0008
3889.00,0.0008
3888.00,0.0008
3887.00,0.0008
3886.00,0.0007
3885.00,0.0007
3884.00,0.0007
3883.00,0.0006
3882.00,0.0007
3881.00,0.0007
3880.00,0.0008
3879.00,0.0008
3878.00,0.0007
3877.00,0.0007
3876.00,0.0008
3875.00,0.0008
3874.00,0.0008
3873.00,0.0008
3872.00,0.0008
3871.00,0.0008
3870.00,0.0008
3869.00,0.0008
3868.00,0.0007
3867.00,0.0007
3866.00,0.0007
3865.00,0.0007
3864.00,0.0007
3863.00,0.0007
3862.00,0.0006
3861.00,0.0006
3860.00,0.0006
3859.00,0.0007
3858.00,0.0007
3857.00,0.0008
3856.00,0.0008
3855.00,0.0008
3854.00,0.0007
3853.00,0.0007
3852.00,0.0007
3851.00,0.0007
3850.00,0.0007
3849.00,0.0006
3848.00,0.0006
3847.00,0.0006
3846.00,0.0006
3845.00,0.0006
3844.00,0.0006
3843.00,0.0006
3842.00,0.0006
3841.00,0.0005
3840.00,0.0005
3839.00,0.0006
3838.00,0.0007
3837.00,0.0007
3836.00,0.0007
3835.00,0.0007
3834.00,0.0007
3833.00,0.0007
3832.00,0.0007
3831.00,0.0007
3830.00,0.0007
3829.00,0.0006
3828.00,0.0007
3827.00,0.0007
3826.00,0.0007
3825.00,0.0006
3824.00,0.0006
3823.00,0.0005
3822.00,0.0006
3821.00,0.0006
3820.00,0.0007
3819.00,0.0007
3818.00,0.0007
3817.00,0.0007
3816.00,0.0007
3815.00,0.0007
3814.00,0.0007
3813.00,0.0007
3812.00,0.0007
3811.00,0.0007
3810.00,0.0006
3809.00,0.0006
3808.00,0.0006
3807.00,0.0006
3806.00,0.0006
3805.00,0.0005
3804.00,0.0005
3803.00,0.0005
3802.00,0.0005
3801.00,0.0006
3800.00,0.0006
3799.00,0.0005
3798.00,0.0006
3797.00,0.0006
3796.00,0.0007
3795.00,0.0007
3794.00,0.0007
3793.00,0.0007
3792.00,0.0007
3791.00,0.0008
3790.00,0.0008
3789.00,0.0008
3788.00,0.0008
3787.00,0.0008
3786.00,0.0008
3785.00,0.0008
3784.00,0.0008
3783.00,0.0008
3782.00,0.0008
3781.00,0.0008
3780.00,0.0008
3779.00,0.0008
3778.00,0.0008
3777.00,0.0008
3776.00,0.0008
3775.00,0.0008
3774.00,0.0008
3773.00,0.0008
3772.00,0.0008
3771.00,0.0008
3770.00,0.0008
3769.00,0.0008
3768.00,0.0009
3767.00,0.0009
3766.00,0.0009
3765.00,0.0009
3764.00,0.0009
3763.00,0.0008
3762.00,0.0008
3761.00,0.0008
3760.00,0.0007
3759.00,0.0007
3758.00,0.0007
3757.00,0.0007
3756.00,0.0007
3755.00,0.0007
3754.00,0.0006
3753.00,0.0005
3752.00,0.0005
3751.00,0.0004
3750.00,0.0004
3749.00,0.0004
3748.00,0.0005
3747.00,0.0006
3746.00,0.0006
3745.00,0.0007
3744.00,0.0006
3743.00,0.0006
3742.00,0.0005
3741.00,0.0004
3740.00,0.0004
3739.00,0.0004
3738.00,0.0003
3737.00,0.0003
3736.00,0.0003
3735.00,0.0003
3734.00,0.0004
3733.00,0.0004
3732.00,0.0005
3731.00,0.0005
3730.00,0.0005
3729.00,0.0005
3728.00,0.0005
3727.00,0.0005
3726.00,0.0006
3725.00,0.0006
3724.00,0.0006
3723.00,0.0006
3722.00,0.0006
3721.00,0.0006
3720.00,0.0006
3719.00,0.0006
3718.00,0.0005
3717.00,0.0005
3716.00,0.0005
3715.00,0.0005
3714.00,0.0005
3713.00,0.0005
3712.00,0.0005
3711.00,0.0005
3710.00,0.0005
3709.00,0.0005
3708.00,0.0005
3707.00,0.0005
3706.00,0.0005
3705.00,0.0005
3704.00,0.0004
3703.00,0.0004
3702.00,0.0004
3701.00,0.0004
3700.00,0.0005
3699.00,0.0005
3698.00,0.0005
3697.00,0.0005
3696.00,0.0005
3695.00,0.0004
3694.00,0.0004
3693.00,0.0004
3692.00,0.0004
3691.00,0.0003
3690.00,0.0002
3689.00,0.0001
3688.00,-0.0000
3687.00,-0.0001
3686.00,-0.0002
3685.00,-0.0003
3684.00,-0.0004
3683.00,-0.0005
3682.00,-0.0006
3681.00,-0.0008
3680.00,-0.0010
3679.00,-0.0012
3678.00,-0.0014
3677.00,-0.0016
3676.00,-0.0018
3675.00,-0.0019
3674.00,-0.0020
3673.00,-0.0021
3672.00,-0.0022
3671.00,-0.0022
3670.00,-0.0022
3669.00,-0.0022
3668.00,-0.0022
3667.00,-0.0023
3666.00,-0.0023
3665.00,-0.0024
3664.00,-0.0024
3663.00,-0.0025
3662.00,-0.0025
3661.00,-0.0026
3660.00,-0.0026
3659.00,-0.0026
3658.00,-0.0026
3657.00,-0.0026
3656.00,-0.0026
3655.00,-0.0026
3654.00,-0.0026
3653.00,-0.0026
3652.00,-0.0026
3651.00,-0.0026
3650.00,-0.0026
3649.00,-0.0026
3648.00,-0.0025
3647.00,-0.0023
3646.00,-0.0022
3645.00,-0.0021
3644.00,-0.0019
3643.00,-0.0017
3642.00,-0.0015
3641.00,-0.0014
3640.00,-0.0014
3639.00,-0.0014
3638.00,-0.0014
3637.00,-0.0014
3636.00,-0.0012
3635.00,-0.0010
3634.00,-0.0007
3633.00,-0.0005
3632.00,-0.0004
3631.00,-0.0004
3630.00,-0.0003
3629.00,-0.0002
3628.00,-0.0001
3627.00,0.0000
3626.00,0.0001
3625.00,0.0002
3624.00,0.0002
3623.00,0.0002
3622.00,0.0002
3621.00,0.0001
3620.00,0.0001
3619.00,0.0001
3618.00,0.0001
3617.00,0.0001
3616.00,0.0002
3615.00,0.0002
3614.00,0.0003
3613.00,0.0004
3612.00,0.0005
3611.00,0.0006
3610.00,0.0007
3609.00,0.0008
3608.00,0.0008
3607.00,0.0009
3606.00,0.0008
3605.00,0.0008
3604.00,0.0008
3603.00,0.0008
3602.00,0.0009
3601.00,0.0009
3600.00,0.0010
3599.00,0.0010
3598.00,0.0010
3597.00,0.0010
3596.00,0.0010
3595.00,0.0010
3594.00,0.0010
3593.00,0.0010
3592.00,0.0010
3591.00,0.0009
3590.00,0.0009
3589.00,0.0010
3588.00,0.0010
3587.00,0.0011
3586.00,0.0011
3585.00,0.0011
3584.00,0.0012
3583.00,0.0012
3582.00,0.0012
3581.00,0.0012
3580.00,0.0012
3579.00,0.0012
3578.00,0.0012
3577.00,0.0012
3576.00,0.0012
3575.00,0.0013
3574.00,0.0013
3573.00,0.0013
3572.00,0.0013
3571.00,0.0013
3570.00,0.0013
3569.00,0.0013
3568.00,0.0013
3567.00,0.0014
3566.00,0.0014
3565.00,0.0014
3564.00,0.0014
3563.00,0.0014
3562.00,0.0015
3561.00,0.0015
3560.00,0.0016
3559.00,0.0016
3558.00,0.0017
3557.00,0.0017
3556.00,0.0017
3555.00,0.0017
3554.00,0.0017
3553.00,0.0017
3552.00,0.0017
3551.00,0.0018
3550.00,0.0018
3549.00,0.0018
3548.00,0.0018
3547.00,0.0018
3546.00,0.0019
3545.00,0.0019
3544.00,0.0019
3543.00,0.0019
3542.00,0.0019
3541.00,0.0020
3540.00,0.0020
3539.00,0.0020
3538.00,0.0020
3537.00,0.0021
3536.00,0.0021
3535.00,0.0021
3534.00,0.0021
3533.00,0.0021
3532.00,0.0021
3531.00,0.0022
3530.00,0.0022
3529.00,0.0022
3528.00,0.0022
3527.00,0.0022
3526.00,0.0022
3525.00,0.0022
3524.00,0.0022
3523.00,0.0023
3522.00,0.0023
3521.00,0.0024
3520.00,0.0024
3519.00,0.0024
3518.00,0.0024
3517.00,0.0024
3516.00,0.0024
3515.00,0.0024
3514.00,0.0024
3513.00,0.0025
3512.00,0.0025
3511.00,0.0025
3510.00,0.0025
3509.00,0.0026
3508.00,0.0026
3507.00,0.0027
3506.00,0.0027
3505.00,0.0027
3504.00,0.0028
3503.00,0.0028
3502.00,0.0028
3501.00,0.0027
3500.00,0.0027
3499.00,0.0027
3498.00,0.0028
3497.00,0.0028
3496.00,0.0028
3495.00,0.0029
3494.00,0.0029
3493.00,0.0029
3492.00,0.0029
3491.00,0.0029
3490.00,0.0029
3489.00,0.0029
3488.00,0.0030
3487.00,0.0030
3486.00,0.0031
3485.00,0.0031
3484.00,0.0031
3483.00,0.0031
3482.00,0.0031
3481.00,0.0031
3480.00,0.0031
3479.00,0.0030
3478.00,0.0030
3477.00,0.0030
3476.00,0.0031
3475.00,0.0031
3474.00,0.0031
3473.00,0.0032
3472.00,0.0032
3471.00,0.0032
3470.00,0.0033
3469.00,0.0033
3468.00,0.0032
3467.00,0.0032
3466.00,0.0032
3465.00,0.0032
3464.00,0.0032
3463.00,0.0033
3462.00,0.0033
3461.00,0.0033
3460.00,0.0034
3459.00,0.0034
3458.00,0.0034
3457.00,0.0034
3456.00,0.0034
3455.00,0.0034
3454.00,0.0035
3453.00,0.0035
3452.00,0.0035
3451.00,0.0036
3450.00,0.0036
3449.00,0.0037
3448.00,0.0037
3447.00,0.0036
3446.00,0.0036
3445.00,0.0036
3444.00,0.0036
3443.00,0.0036
3442.00,0.0037
3441.00,0.0037
3440.00,0.0038
3439.00,0.0038
3438.00,0.0038
3437.00,0.0038
3436.00,0.0038
3435.00,0.0038
3434.00,0.0038
3433.00,0.0039
3432.00,0.0039
3431.00,0.0040
3430.00,0.0040
3429.00,0.0041
3428.00,0.0041
3427.00,0.0041
3426.00,0.0041
3425.00,0.0041
3424.00,0.0041
3423.00,0.0041
3422.00,0.0041
3421.00,0.0041
3420.00,0.0041
3419.00,0.0041
3418.00,0.0041
3417.00,0.0041
3416.00,0.0041
3415.00,0.0042
3414.00,0.0042
3413.00,0.0043
3412.00,0.0043
3411.00,0.0044
3410.00,0.0045
3409.00,0.0045
3408.00,0.0045
3407.00,0.0045
3406.00,0.0045
3405.00,0.0045
3404.00,0.0045
3403.00,0.0045
3402.00,0.0045
3401.00,0.0045
3400.00,0.0044
3399.00,0.0044
3398.00,0.0045
3397.00,0.0045
3396.00,0.0045
3395.00,0.0046
3394.00,0.0046
3393.00,0.0046
3392.00,0.0047
3391.00,0.0047
3390.00,0.0047
3389.00,0.0048
3388.00,0.0048
3387.00,0.0048
3386.00,0.0048
3385.00,0.0048
3384.00,0.0048
3383.00,0.0048
3382.00,0.0048
3381.00,0.0048
3380.00,0.0049
3379.00,0.0049
3378.00,0.0049
3377.00,0.0050
3376.00,0.0050
3375.00,0.0050
3374.00,0.0049
3373.00,0.0049
3372.00,0.0049
3371.00,0.0050
3370.00,0.0050
3369.00,0.0050
3368.00,0.0051
3367.00,0.0051
3366.00,0.0051
3365.00,0.0051
3364.00,0.0051
3363.00,0.0051
3362.00,0.0051
3361.00,0.0051
3360.00,0.0052
3359.00,0.0052
3358.00,0.0052
3357.00,0.0052
3356.00,0.0052
3355.00,0.0052
3354.00,0.0052
3353.00,0.0052
3352.00,0.0052
3351.00,0.0053
3350.00,0.0053
3349.00,0.0053
3348.00,0.0053
3347.00,0.0053
3346.00,0.0053
3345.00,0.0053
3344.00,0.0053
3343.00,0.0054
3342.00,0.0054
3341.00,0.0054
3340.00,0.0054
3339.00,0.0054
3338.00,0.0053
3337.00,0.0053
3336.00,0.0053
3335.00,0.0054
3334.00,0.0054
3333.00,0.0054
3332.00,0.0054
3331.00,0.0054
3330.00,0.0054
3329.00,0.0054
3328.00,0.0054
3327.00,0.0054
3326.00,0.0054
3325.00,0.0054
3324.00,0.0054
3323.00,0.0054
3322.00,0.0054
3321.00,0.0054
3320.00,0.0055
3319.00,0.0055
3318.00,0.0056
3317.00,0.0056
3316.00,0.0056
3315.00,0.0056
3314.00,0.0056
3313.00,0.0056
3312.00,0.0056
3311.00,0.0056
3310.00,0.0056
3309.00,0.0057
3308.00,0.0057
3307.00,0.0057
3306.00,0.0058
3305.00,0.0058
3304.00,0.0058
3303.00,0.0058
3302.00,0.0058
3301.00,0.0057
3300.00,0.0057
3299.00,0.0057
3298.00,0.0057
3297.00,0.0057
3296.00,0.0057
3295.00,0.0057
3294.00,0.0057
3293.00,0.0057
3292.00,0.0058
3291.00,0.0058
3290.00,0.0057
3289.00,0.0057
3288.00,0.0057
3287.00,0.0057
3286.00,0.0057
3285.00,0.0057
3284.00,0.0056
3283.00,0.0056
3282.00,0.0056
3281.00,0.0056
3280.00,0.0056
3279.00,0.0056
3278.00,0.0055
3277.00,0.0055
3276.00,0.0055
3275.00,0.0055
3274.00,0.0054
3273.00,0.0054
3272.00,0.0053
3271.00,0.0053
3270.00,0.0054
3269.00,0.0054
3268.00,0.0054
3267.00,0.0054
3266.00,0.0054
3265.00,0.0054
3264.00,0.0054
3263.00,0.0053
3262.00,0.0053
3261.00,0.0052
3260.00,0.0052
3259.00,0.0052
3258.00,0.0051
3257.00,0.0051
3256.00,0.0051
3255.00,0.0050
3254.00,0.0049
3253.00,0.0049
3252.00,0.0048
3251.00,0.0048
3250.00,0.0048
3249.00,0.0048
3248.00,0.0048
3247.00,0.0048
3246.00,0.0048
3245.00,0.0047
3244.00,0.0047
3243.00,0.0047
3242.00,0.0047
3241.00,0.0047
3240.00,0.0047
3239.00,0.0047
3238.00,0.0047
3237.00,0.0047
3236.00,0.0046
3235.00,0.0046
3234.00,0.0046
3233.00,0.0046
3232.00,0.0047
3231.00,0.0047
3230.00,0.0047
3229.00,0.0047
3228.00,0.0048
3227.00,0.0048
3226.00,0.0048
3225.00,0.0048
3224.00,0.0048
3223.00,0.0048
3222.00,0.0048
3221.00,0.0048
3220.00,0.0048
3219.00,0.0048
3218.00,0.0048
3217.00,0.0048
3216.00,0.0048
3215.00,0.0048
3214.00,0.0048
3213.00,0.0048
3212.00,0.0048
3211.00,0.0048
3210.00,0.0048
3209.00,0.0048
3208.00,0.0049
3207.00,0.0049
3206.00,0.0049
3205.00,0.0050
3204.00,0.0050
3203.00,0.0050
3202.00,0.0050
3201.00,0.0050
3200.00,0.0050
3199.00,0.0050
3198.00,0.0051
3197.00,0.0051
3196.00,0.0051
3195.00,0.0051
3194.00,0.0050
3193.00,0.0050
3192.00,0.0049
3191.00,0.0049
3190.00,0.0049
3189.00,0.0048
3188.00,0.0048
3187.00,0.0048
3186.00,0.0047
3185.00,0.0047
3184.00,0.0047
3183.00,0.0047
3182.00,0.0048
3181.00,0.0048
3180.00,0.0048
3179.00,0.0048
3178.00,0.0048
3177.00,0.0047
3176.00,0.0047
3175.00,0.0047
3174.00,0.0047
3173.00,0.0046
3172.00,0.0046
3171.00,0.0046
3170.00,0.0045
3169.00,0.0045
3168.00,0.0045
3167.00,0.0045
3166.00,0.0045
3165.00,0.0044
3164.00,0.0044
3163.00,0.0044
3162.00,0.0044
3161.00,0.0045
3160.00,0.0045
3159.00,0.0045
3158.00,0.0046
3157.00,0.0046
3156.00,0.0046
3155.00,0.0046
3154.00,0.0046
3153.00,0.0045
3152.00,0.0045
3151.00,0.0045
3150.00,0.0045
3149.00,0.0045
3148.00,0.0045
3147.00,0.0045
3146.00,0.0044
3145.00,0.0044
3144.00,0.0044
3143.00,0.0044
3142.00,0.0043
3141.00,0.0043
3140.00,0.0043
3139.00,0.0043
3138.00,0.0043
3137.00,0.0043
3136.00,0.0043
3135.00,0.0042
3134.00,0.0042
3133.00,0.0042
3132.00,0.0042
3131.00,0.0042
3130.00,0.0042
3129.00,0.0041
3128.00,0.0041
3127.00,0.0041
3126.00,0.0040
3125.00,0.0040
3124.00,0.0040
3123.00,0.0040
3122.00,0.0039
3121.00,0.0039
3120.00,0.0039
3119.00,0.0038
3118.00,0.0038
3117.00,0.0038
3116.00,0.0038
3115.00,0.0038
3114.00,0.0038
3113.00,0.0038
3112.00,0.0038
3111.00,0.0038
3110.00,0.0038
3109.00,0.0038
3108.00,0.0037
3107.00,0.0037
3106.00,0.0037
3105.00,0.0037
3104.00,0.0037
3103.00,0.0037
3102.00,0.0036
3101.00,0.0036
3100.00,0.0036
3099.00,0.0036
3098.00,0.0036
3097.00,0.0036
3096.00,0.0037
3095.00,0.0037
3094.00,0.0037
3093.00,0.0037
3092.00,0.0037
3091.00,0.0037
3090.00,0.0037
3089.00,0.0037
3088.00,0.0036
3087.00,0.0036
3086.00,0.0037
3085.00,0.0037
3084.00,0.0037
3083.00,0.0036
3082.00,0.0036
3081.00,0.0036
3080.00,0.0036
3079.00,0.0035
3078.00,0.0036
3077.00,0.0036
3076.00,0.0036
3075.00,0.0037
3074.00,0.0037
3073.00,0.0037
3072.00,0.0038
3071.00,0.0038
3070.00,0.0038
3069.00,0.0038
3068.00,0.0038
3067.00,0.0038
3066.00,0.0039
3065.00,0.0039
3064.00,0.0039
3063.00,0.0039
3062.00,0.0040
3061.00,0.0040
3060.00,0.0040
3059.00,0.0040
3058.00,0.0040
3057.00,0.0040
3056.00,0.0040
3055.00,0.0040
3054.00,0.0040
3053.00,0.0040
3052.00,0.0040
3051.00,0.0040
3050.00,0.0041
3049.00,0.0041
3048.00,0.0041
3047.00,0.0041
3046.00,0.0041
3045.00,0.0042
3044.00,0.0042
3043.00,0.0042
3042.00,0.0042
3041.00,0.0042
3040.00,0.0042
3039.00,0.0043
3038.00,0.0043
3037.00,0.0043
3036.00,0.0043
3035.00,0.0043
3034.00,0.0043
3033.00,0.0043
3032.00,0.0044
3031.00,0.0044
3030.00,0.0044
3029.00,0.0044
3028.00,0.0044
3027.00,0.0045
3026.00,0.0045
3025.00,0.0045
3024.00,0.0045
3023.00,0.0045
3022.00,0.0044
3021.00,0.0043
3020.00,0.0043
3019.00,0.0041
3018.00,0.0040
3017.00,0.0038
3016.00,0.0037
3015.00,0.0035
3014.00,0.0032
3013.00,0.0029
3012.00,0.0025
3011.00,0.0020
3010.00,0.0015
3009.00,0.0010
3008.00,0.0003
3007.00,-0.0003
3006.00,-0.0010
3005.00,-0.0018
3004.00,-0.0025
3003.00,-0.0032
3002.00,-0.0039
3001.00,-0.0046
3000.00,-0.0052
2999.00,-0.0056
2998.00,-0.0060
2997.00,-0.0063
2996.00,-0.0065
2995.00,-0.0066
2994.00,-0.0066
2993.00,-0.0066
2992.00,-0.0065
2991.00,-0.0063
2990.00,-0.0061
2989.00,-0.0058
2988.00,-0.0056
2987.00,-0.0056
2986.00,-0.0060
2985.00,-0.0071
2984.00,-0.0086
2983.00,-0.0098
2982.00,-0.0099
2981.00,-0.0084
2980.00,-0.0055
2979.00,-0.0015
2978.00,0.0028
2977.00,0.0072
2976.00,0.0117
2975.00,0.0161
2974.00,0.0205
2973.00,0.0255
2972.00,0.0314
2971.00,0.0387
2970.00,0.0473
2969.00,0.0571
2968.00,0.0677
2967.00,0.0789
2966.00,0.0907
2965.00,0.1030
2964.00,0.1156
2963.00,0.1278
2962.00,0.1392
2961.00,0.1491
2960.00,0.1571
2959.00,0.1631
2958.00,0.1672
2957.00,0.1702
2956.00,0.1727
2955.00,0.1755
2954.00,0.1788
2953.00,0.1827
2952.00,0.1863
2951.00,0.1886
2950.00,0.1887
2949.00,0.1856
2948.00,0.1791
2947.00,0.1694
2946.00,0.1574
2945.00,0.1444
2944.00,0.1317
2943.00,0.1204
2942.00,0.1112
2941.00,0.1043
2940.00,0.0999
2939.00,0.0978
2938.00,0.0978
2937.00,0.0996
2936.00,0.1029
2935.00,0.1077
2934.00,0.1137
2933.00,0.1209
2932.00,0.1292
2931.00,0.1383
2930.00,0.1481
2929.00,0.1581
2928.00,0.1679
2927.00,0.1773
2926.00,0.1861
2925.00,0.1944
2924.00,0.2023
2923.00,0.2100
2922.00,0.2174
2921.00,0.2243
2920.00,0.2304
2919.00,0.2350
2918.00,0.2374
2917.00,0.2372
2916.00,0.2343
2915.00,0.2290
2914.00,0.2220
2913.00,0.2142
2912.00,0.2065
2911.00,0.1992
2910.00,0.1926
2909.00,0.1866
2908.00,0.1809
2907.00,0.1754
2906.00,0.1697
2905.00,0.1636
2904.00,0.1571
2903.00,0.1503
2902.00,0.1434
2901.00,0.1364
2900.00,0.1296
2899.00,0.1231
2898.00,0.1170
2897.00,0.1115
2896.00,0.1066
2895.00,0.1023
2894.00,0.0988
2893.00,0.0960
2892.00,0.0938
2891.00,0.0923
2890.00,0.0915
2889.00,0.0912
2888.00,0.0913
2887.00,0.0918
2886.00,0.0926
2885.00,0.0938
2884.00,0.0954
2883.00,0.0976
2882.00,0.1002
2881.00,0.1030
2880.00,0.1056
2879.00,0.1077
2878.00,0.1090
2877.00,0.1093
2876.00,0.1089
2875.00,0.1082
2874.00,0.1077
2873.00,0.1077
2872.00,0.1085
2871.00,0.1100
2870.00,0.1121
2869.00,0.1142
2868.00,0.1157
2867.00,0.1157
2866.00,0.1136
2865.00,0.1091
2864.00,0.1025
2863.00,0.0944
2862.00,0.0860
2861.00,0.0781
2860.00,0.0713
2859.00,0.0658
2858.00,0.0617
2857.00,0.0589
2856.00,0.0570
2855.00,0.0560
2854.00,0.0557
2853.00,0.0561
2852.00,0.0571
2851.00,0.0588
2850.00,0.0610
2849.00,0.0640
2848.00,0.0677
2847.00,0.0722
2846.00,0.0776
2845.00,0.0839
2844.00,0.0911
2843.00,0.0990
2842.00,0.1070
2841.00,0.1144
2840.00,0.1205
2839.00,0.1243
2838.00,0.1249
2837.00,0.1219
2836.00,0.1154
2835.00,0.1062
2834.00,0.0953
2833.00,0.0840
2832.00,0.0733
2831.00,0.0639
2830.00,0.0559
2829.00,0.0494
2828.00,0.0441
2827.00,0.0398
2826.00,0.0363
2825.00,0.0334
2824.00,0.0310
2823.00,0.0290
2822.00,0.0273
2821.00,0.0258
2820.00,0.0245
2819.00,0.0233
2818.00,0.0223
2817.00,0.0214
2816.00,0.0206
2815.00,0.0199
2814.00,0.0193
2813.00,0.0188
2812.00,0.0183
2811.00,0.0178
2810.00,0.0173
2809.00,0.0168
2808.00,0.0163
2807.00,0.0157
2806.00,0.0151
2805.00,0.0144
2804.00,0.0137
2803.00,0.0131
2802.00,0.0126
2801.00,0.0122
2800.00,0.0118
2799.00,0.0115
2798.00,0.0113
2797.00,0.0111
2796.00,0.0109
2795.00,0.0107
2794.00,0.0104
2793.00,0.0101
2792.00,0.0098
2791.00,0.0095
2790.00,0.0092
2789.00,0.0088
2788.00,0.0085
2787.00,0.0081
2786.00,0.0078
2785.00,0.0076
2784.00,0.0073
2783.00,0.0071
2782.00,0.0068
2781.00,0.0066
2780.00,0.0064
2779.00,0.0063
2778.00,0.0061
2777.00,0.0060
2776.00,0.0059
2775.00,0.0058
2774.00,0.0057
2773.00,0.0057
2772.00,0.0056
2771.00,0.0056
2770.00,0.0055
2769.00,0.0055
2768.00,0.0054
2767.00,0.0054
2766.00,0.0053
2765.00,0.0053
2764.00,0.0053
2763.00,0.0053
2762.00,0.0053
2761.00,0.0052
2760.00,0.0051
2759.00,0.0051
2758.00,0.0051
2757.00,0.0050
2756.00,0.0050
2755.00,0.0050
2754.00,0.0050
2753.00,0.0050
2752.00,0.0050
2751.00,0.0051
2750.00,0.0051
2749.00,0.0051
2748.00,0.0051
2747.00,0.0051
2746.00,0.0051
2745.00,0.0052
2744.00,0.0053
2743.00,0.0054
2742.00,0.0055
2741.00,0.0056
2740.00,0.0057
2739.00,0.0058
2738.00,0.0060
2737.00,0.0061
2736.00,0.0062
2735.00,0.0064
2734.00,0.0065
2733.00,0.0067
2732.00,0.0069
2731.00,0.0071
2730.00,0.0073
2729.00,0.0075
2728.00,0.0078
2727.00,0.0081
2726.00,0.0084
2725.00,0.0086
2724.00,0.0087
2723.00,0.0087
2722.00,0.0087
2721.00,0.0085
2720.00,0.0082
2719.00,0.0079
2718.00,0.0076
2717.00,0.0073
2716.00,0.0070
2715.00,0.0067
2714.00,0.0065
2713.00,0.0063
2712.00,0.0061
2711.00,0.0059
2710.00,0.0057
2709.00,0.0056
2708.00,0.0055
2707.00,0.0054
2706.00,0.0053
2705.00,0.0052
2704.00,0.0050
2703.00,0.0049
2702.00,0.0048
2701.00,0.0048
2700.00,0.0047
2699.00,0.0047
2698.00,0.0047
2697.00,0.0046
2696.00,0.0046
2695.00,0.0045
2694.00,0.0045
2693.00,0.0045
2692.00,0.0045
2691.00,0.0045
2690.00,0.0045
2689.00,0.0045
2688.00,0.0045
2687.00,0.0045
2686.00,0.0045
2685.00,0.0045
2684.00,0.0044
2683.00,0.0044
2682.00,0.0044
2681.00,0.0045
2680.00,0.0045
2679.00,0.0045
2678.00,0.0045
2677.00,0.0045
2676.00,0.0045
2675.00,0.0044
2674.00,0.0044
2673.00,0.0044
2672.00,0.0043
2671.00,0.0043
2670.00,0.0042
2669.00,0.0042
2668.00,0.0042
2667.00,0.0042
2666.00,0.0042
2665.00,0.0043
2664.00,0.0043
2663.00,0.0044
2662.00,0.0045
2661.00,0.0045
2660.00,0.0045
2659.00,0.0045
2658.00,0.0045
2657.00,0.0045
2656.00,0.0044
2655.00,0.0044
2654.00,0.0043
2653.00,0.0042
2652.00,0.0042
2651.00,0.0041
2650.00,0.0041
2649.00,0.0041
2648.00,0.0040
2647.00,0.0040
2646.00,0.0040
2645.00,0.0039
2644.00,0.0039
2643.00,0.0039
2642.00,0.0038
2641.00,0.0038
2640.00,0.0038
2639.00,0.0037
2638.00,0.0037
2637.00,0.0037
2636.00,0.0037
2635.00,0.0037
2634.00,0.0037
2633.00,0.0037
2632.00,0.0037
2631.00,0.0038
2630.00,0.0038
2629.00,0.0039
2628.00,0.0039
2627.00,0.0039
2626.00,0.0039
2625.00,0.0039
2624.00,0.0040
2623.00,0.0040
2622.00,0.0040
2621.00,0.0041
2620.00,0.0041
2619.00,0.0040
2618.00,0.0040
2617.00,0.0040
2616.00,0.0040
2615.00,0.0040
2614.00,0.0040
2613.00,0.0040
2612.00,0.0040
2611.00,0.0039
2610.00,0.0039
2609.00,0.0038
2608.00,0.0037
2607.00,0.0035
2606.00,0.0035
2605.00,0.0034
2604.00,0.0034
2603.00,0.0034
2602.00,0.0033
2601.00,0.0033
2600.00,0.0033
2599.00,0.0032
2598.00,0.0032
2597.00,0.0032
2596.00,0.0032
2595.00,0.0033
2594.00,0.0034
2593.00,0.0035
2592.00,0.0035
2591.00,0.0035
2590.00,0.0035
2589.00,0.0036
2588.00,0.0036
2587.00,0.0037
2586.00,0.0038
2585.00,0.0039
2584.00,0.0039
2583.00,0.0040
2582.00,0.0040
2581.00,0.0040
2580.00,0.0039
2579.00,0.0038
2578.00,0.0038
2577.00,0.0037
2576.00,0.0036
2575.00,0.0035
2574.00,0.0034
2573.00,0.0033
2572.00,0.0032
2571.00,0.0031
2570.00,0.0030
2569.00,0.0029
2568.00,0.0028
2567.00,0.0028
2566.00,0.0028
2565.00,0.0027
2564.00,0.0027
2563.00,0.0027
2562.00,0.0026
2561.00,0.0026
2560.00,0.0026
2559.00,0.0026
2558.00,0.0026
2557.00,0.0026
2556.00,0.0026
2555.00,0.0025
2554.00,0.0025
2553.00,0.0024
2552.00,0.0023
2551.00,0.0022
2550.00,0.0021
2549.00,0.0021
2548.00,0.0022
2547.00,0.0022
2546.00,0.0022
2545.00,0.0021
2544.00,0.0020
2543.00,0.0019
2542.00,0.0019
2541.00,0.0019
2540.00,0.0019
2539.00,0.0019
2538.00,0.0018
2537.00,0.0018
2536.00,0.0017
2535.00,0.0017
2534.00,0.0018
2533.00,0.0019
2532.00,0.0019
2531.00,0.0019
2530.00,0.0019
2529.00,0.0018
2528.00,0.0018
2527.00,0.0018
2526.00,0.0017
2525.00,0.0017
2524.00,0.0016
2523.00,0.0015
2522.00,0.0014
2521.00,0.0014
2520.00,0.0014
2519.00,0.0013
2518.00,0.0013
2517.00,0.0013
2516.00,0.0013
2515.00,0.0013
2514.00,0.0013
2513.00,0.0012
2512.00,0.0012
2511.00,0.0012
2510.00,0.0013
2509.00,0.0013
2508.00,0.0013
2507.00,0.0013
2506.00,0.0012
2505.00,0.0012
2504.00,0.0013
2503.00,0.0013
2502.00,0.0013
2501.00,0.0013
2500.00,0.0013
2499.00,0.0013
2498.00,0.0013
2497.00,0.0013
2496.00,0.0013
2495.00,0.0012
2494.00,0.0012
2493.00,0.0012
2492.00,0.0012
2491.00,0.0013
2490.00,0.0013
2489.00,0.0013
2488.00,0.0013
2487.00,0.0012
2486.00,0.0012
2485.00,0.0012
2484.00,0.0011
2483.00,0.0012
2482.00,0.0012
2481.00,0.0012
2480.00,0.0012
2479.00,0.0012
2478.00,0.0012
2477.00,0.0011
2476.00,0.0011
2475.00,0.0011
2474.00,0.0011
2473.00,0.0011
2472.00,0.0011
2471.00,0.0011
2470.00,0.0011
2469.00,0.0011
2468.00,0.0011
2467.00,0.0011
2466.00,0.0011
2465.00,0.0010
2464.00,0.0010
2463.00,0.0011
2462.00,0.0011
2461.00,0.0011
2460.00,0.0012
2459.00,0.0012
2458.00,0.0012
2457.00,0.0012
2456.00,0.0012
2455.00,0.0012
2454.00,0.0012
2453.00,0.0012
2452.00,0.0012
2451.00,0.0012
2450.00,0.0012
2449.00,0.0012
2448.00,0.0012
2447.00,0.0013
2446.00,0.0013
2445.00,0.0013
2444.00,0.0013
2443.00,0.0012
2442.00,0.0012
2441.00,0.0012
2440.00,0.0013
2439.00,0.0013
2438.00,0.0013
2437.00,0.0013
2436.00,0.0013
2435.00,0.0014
2434.00,0.0014
2433.00,0.0015
2432.00,0.0015
2431.00,0.0015
2430.00,0.0015
2429.00,0.0015
2428.00,0.0015
2427.00,0.0015
2426.00,0.0015
2425.00,0.0015
2424.00,0.0014
2423.00,0.0014
2422.00,0.0013
2421.00,0.0013
2420.00,0.0013
2419.00,0.0013
2418.00,0.0013
2417.00,0.0013
2416.00,0.0014
2415.00,0.0014
2414.00,0.0013
2413.00,0.0013
2412.00,0.0012
2411.00,0.0012
2410.00,0.0012
2409.00,0.0013
2408.00,0.0013
2407.00,0.0012
2406.00,0.0012
2405.00,0.0011
2404.00,0.0011
2403.00,0.0011
2402.00,0.0011
2401.00,0.0011
2400.00,0.0011
2399.00,0.0011
2398.00,0.0011
2397.00,0.0011
2396.00,0.0011
2395.00,0.0011
2394.00,0.0011
2393.00,0.0012
2392.00,0.0012
2391.00,0.0012
2390.00,0.0011
2389.00,0.0010
2388.00,0.0010
2387.00,0.0010
2386.00,0.0010
2385.00,0.0010
2384.00,0.0009
2383.00,0.0008
2382.00,0.0008
2381.00,0.0008
2380.00,0.0007
2379.00,0.0007
2378.00,0.0006
2377.00,0.0005
2376.00,0.0005
2375.00,0.0005
2374.00,0.0006
2373.00,0.0007
2372.00,0.0007
2371.00,0.0007
2370.00,0.0006
2369.00,0.0005
2368.00,0.0005
2367.00,0.0006
2366.00,0.0006
2365.00,0.0007
2364.00,0.0007
2363.00,0.0006
2362.00,0.0006
2361.00,0.0006
2360.00,0.0006
2359.00,0.0006
2358.00,0.0006
2357.00,0.0006
2356.00,0.0005
2355.00,0.0005
2354.00,0.0004
2353.00,0.0002
2352.00,0.0001
2351.00,0.0000
2350.00,0.0002
2349.00,0.0004
2348.00,0.0007
2347.00,0.0010
2346.00,0.0010
2345.00,0.0009
2344.00,0.0007
2343.00,0.0006
2342.00,0.0006
2341.00,0.0007
2340.00,0.0007
2339.00,0.0007
2338.00,0.0007
2337.00,0.0007
2336.00,0.0007
2335.00,0.0007
2334.00,0.0007
2333.00,0.0007
2332.00,0.0006
2331.00,0.0006
2330.00,0.0005
2329.00,0.0006
2328.00,0.0008
2327.00,0.0011
2326.00,0.0014
2325.00,0.0016
2324.00,0.0017
2323.00,0.0016
2322.00,0.0013
2321.00,0.0011
2320.00,0.0010
2319.00,0.0009
2318.00,0.0008
2317.00,0.0008
2316.00,0.0008
2315.00,0.0007
2314.00,0.0006
2313.00,0.0006
2312.00,0.0005
2311.00,0.0005
2310.00,0.0005
2309.00,0.0005
2308.00,0.0005
2307.00,0.0005
2306.00,0.0006
2305.00,0.0006
2304.00,0.0006
2303.00,0.0007
2302.00,0.0007
2301.00,0.0008
2300.00,0.0009
2299.00,0.0011
2298.00,0.0012
2297.00,0.0013
2296.00,0.0014
2295.00,0.0014
2294.00,0.0014
2293.00,0.0015
2292.00,0.0016
2291.00,0.0017
2290.00,0.0018
2289.00,0.0019
2288.00,0.0019
2287.00,0.0019
2286.00,0.0020
2285.00,0.0020
2284.00,0.0019
2283.00,0.0019
2282.00,0.0018
2281.00,0.0017
2280.00,0.0016
2279.00,0.0015
2278.00,0.0014
2277.00,0.0014
2276.00,0.0014
2275.00,0.0014
2274.00,0.0014
2273.00,0.0015
2272.00,0.0014
2271.00,0.0014
2270.00,0.0013
2269.00,0.0013
2268.00,0.0013
2267.00,0.0013
2266.00,0.0013
2265.00,0.0013
2264.00,0.0012
2263.00,0.0011
2262.00,0.0009
2261.00,0.0008
2260.00,0.0009
2259.00,0.0010
2258.00,0.0012
2257.00,0.0012
2256.00,0.0012
2255.00,0.0011
2254.00,0.0011
2253.00,0.0011
2252.00,0.0011
2251.00,0.0010
2250.00,0.0009
2249.00,0.0010
2248.00,0.0011
2247.00,0.0013
2246.00,0.0013
2245.00,0.0012
2244.00,0.0012
2243.00,0.0011
2242.00,0.0012
2241.00,0.0012
2240.00,0.0013
2239.00,0.0012
2238.00,0.0010
2237.00,0.0009
2236.00,0.0008
2235.00,0.0008
2234.00,0.0009
2233.00,0.0010
2232.00,0.0011
2231.00,0.0010
2230.00,0.0009
2229.00,0.0009
2228.00,0.0008
2227.00,0.0008
2226.00,0.0008
2225.00,0.0008
2224.00,0.0009
2223.00,0.0009
2222.00,0.0009
2221.00,0.0009
2220.00,0.0009
2219.00,0.0009
2218.00,0.0008
2217.00,0.0007
2216.00,0.0007
2215.00,0.0007
2214.00,0.0007
2213.00,0.0007
2212.00,0.0007
2211.00,0.0008
2210.00,0.0007
2209.00,0.0007
2208.00,0.0006
2207.00,0.0005
2206.00,0.0003
2205.00,0.0003
2204.00,0.0003
2203.00,0.0004
2202.00,0.0005
2201.00,0.0006
2200.00,0.0008
2199.00,0.0008
2198.00,0.0006
2197.00,0.0006
2196.00,0.0006
2195.00,0.0007
2194.00,0.0008
2193.00,0.0009
2192.00,0.0009
2191.00,0.0008
2190.00,0.0007
2189.00,0.0007
2188.00,0.0008
2187.00,0.0010
2186.00,0.0011
2185.00,0.0012
2184.00,0.0012
2183.00,0.0012
2182.00,0.0011
2181.00,0.0011
2180.00,0.0012
2179.00,0.0013
2178.00,0.0014
2177.00,0.0014
2176.00,0.0014
2175.00,0.0013
2174.00,0.0012
2173.00,0.0012
2172.00,0.0012
2171.00,0.0012
2170.00,0.0013
2169.00,0.0014
2168.00,0.0015
2167.00,0.0016
2166.00,0.0017
2165.00,0.0017
2164.00,0.0019
2163.00,0.0020
2162.00,0.0019
2161.00,0.0014
2160.00,0.0003
2159.00,-0.0010
2158.00,-0.0019
2157.00,-0.0022
2156.00,-0.0018
2155.00,-0.0014
2154.00,-0.0011
2153.00,-0.0010
2152.00,-0.0011
2151.00,-0.0012
2150.00,-0.0013
2149.00,-0.0011
2148.00,-0.0009
2147.00,-0.0008
2146.00,-0.0008
2145.00,-0.0008
2144.00,-0.0009
2143.00,-0.0009
2142.00,-0.0008
2141.00,-0.0007
2140.00,-0.0006
2139.00,-0.0006
2138.00,-0.0006
2137.00,-0.0007
2136.00,-0.0008
2135.00,-0.0009
2134.00,-0.0010
2133.00,-0.0010
2132.00,-0.0010
2131.00,-0.0009
2130.00,-0.0008
2129.00,-0.0007
2128.00,-0.0006
2127.00,-0.0005
2126.00,-0.0004
2125.00,-0.0003
2124.00,-0.0002
2123.00,-0.0002
2122.00,-0.0002
2121.00,-0.0002
2120.00,-0.0001
2119.00,-0.0001
2118.00,0.0000
2117.00,0.0001
2116.00,0.0002
2115.00,0.0003
2114.00,0.0003
2113.00,0.0004
2112.00,0.0005
2111.00,0.0005
2110.00,0.0005
2109.00,0.0005
2108.00,0.0004
2107.00,0.0004
2106.00,0.0004
2105.00,0.0004
2104.00,0.0003
2103.00,0.0003
2102.00,0.0004
2101.00,0.0004
2100.00,0.0003
2099.00,0.0002
2098.00,-0.0000
2097.00,-0.0003
2096.00,-0.0005
2095.00,-0.0007
2094.00,-0.0007
2093.00,-0.0005
2092.00,-0.0004
2091.00,-0.0003
2090.00,-0.0002
2089.00,-0.0001
2088.00,0.0001
2087.00,0.0002
2086.00,0.0003
2085.00,0.0003
2084.00,0.0003
2083.00,0.0003
2082.00,0.0004
2081.00,0.0005
2080.00,0.0006
2079.00,0.0006
2078.00,0.0006
2077.00,0.0006
2076.00,0.0006
2075.00,0.0006
2074.00,0.0004
2073.00,0.0003
2072.00,0.0001
2071.00,-0.0000
2070.00,-0.0002
2069.00,-0.0001
2068.00,0.0000
2067.00,0.0001
2066.00,0.0002
2065.00,0.0002
2064.00,0.0001
2063.00,0.0001
2062.00,0.0000
2061.00,0.0000
2060.00,0.0001
2059.00,0.0002
2058.00,0.0003
2057.00,0.0004
2056.00,0.0004
2055.00,0.0004
2054.00,0.0006
2053.00,0.0009
2052.00,0.0014
2051.00,0.0017
2050.00,0.0017
2049.00,0.0013
2048.00,0.0008
2047.00,0.0004
2046.00,0.0003
2045.00,0.0003
2044.00,0.0004
2043.00,0.0003
2042.00,0.0001
2041.00,-0.0001
2040.00,-0.0003
2039.00,-0.0005
2038.00,-0.0005
2037.00,-0.0005
2036.00,-0.0005
2035.00,-0.0005
2034.00,-0.0006
2033.00,-0.0007
2032.00,-0.0007
2031.00,-0.0005
2030.00,-0.0002
2029.00,0.0001
2028.00,0.0003
2027.00,0.0003
2026.00,0.0001
2025.00,-0.0002
2024.00,-0.0005
2023.00,-0.0009
2022.00,-0.0011
2021.00,-0.0012
2020.00,-0.0011
2019.00,-0.0008
2018.00,-0.0004
2017.00,0.0000
2016.00,0.0002
2015.00,0.0000
2014.00,-0.0004
2013.00,-0.0006
2012.00,-0.0006
2011.00,-0.0005
2010.00,-0.0004
2009.00,-0.0004
2008.00,-0.0006
2007.00,-0.0009
2006.00,-0.0012
2005.00,-0.0014
2004.00,-0.0014
2003.00,-0.0014
2002.00,-0.0012
2001.00,-0.0011
2000.00,-0.0009
1999.00,-0.0009
1998.00,-0.0009
1997.00,-0.0008
1996.00,-0.0007
1995.00,-0.0006
1994.00,-0.0005
1993.00,-0.0005
1992.00,-0.0006
1991.00,-0.0007
1990.00,-0.0008
1989.00,-0.0006
1988.00,-0.0003
1987.00,-0.0001
1986.00,0.0001
1985.00,0.0004
1984.00,0.0007
1983.00,0.0008
1982.00,0.0009
1981.00,0.0010
1980.00,0.0010
1979.00,0.0008
1978.00,0.0002
1977.00,-0.0004
1976.00,-0.0009
1975.00,-0.0012
1974.00,-0.0013
1973.00,-0.0013
1972.00,-0.0012
1971.00,-0.0011
1970.00,-0.0012
1969.00,-0.0012
1968.00,-0.0012
1967.00,-0.0012
1966.00,-0.0012
1965.00,-0.0012
1964.00,-0.0012
1963.00,-0.0012
1962.00,-0.0013
1961.00,-0.0013
1960.00,-0.0013
1959.00,-0.0013
1958.00,-0.0013
1957.00,-0.0013
1956.00,-0.0013
1955.00,-0.0013
1954.00,-0.0013
1953.00,-0.0011
1952.00,-0.0010
1951.00,-0.0009
1950.00,-0.0009
1949.00,-0.0010
1948.00,-0.0011
1947.00,-0.0011
1946.00,-0.0011
1945.00,-0.0010
1944.00,-0.0008
1943.00,-0.0008
1942.00,-0.0008
1941.00,-0.0008
1940.00,-0.0008
1939.00,-0.0008
1938.00,-0.0008
1937.00,-0.0007
1936.00,-0.0006
1935.00,-0.0006
1934.00,-0.0006
1933.00,-0.0006
1932.00,-0.0007
1931.00,-0.0008
1930.00,-0.0008
1929.00,-0.0007
1928.00,-0.0005
1927.00,-0.0004
1926.00,-0.0004
1925.00,-0.0004
1924.00,-0.0004
1923.00,-0.0004
1922.00,-0.0003
1921.00,-0.0002
1920.00,-0.0001
1919.00,-0.0001
1918.00,-0.0001
1917.00,-0.0000
1916.00,0.0001
1915.00,0.0001
1914.00,0.0001
1913.00,0.0000
1912.00,0.0000
1911.00,0.0000
1910.00,0.0000
1909.00,0.0000
1908.00,-0.0000
1907.00,-0.0001
1906.00,-0.0002
1905.00,-0.0001
1904.00,-0.0001
1903.00,-0.0000
1902.00,0.0000
1901.00,0.0001
1900.00,0.0002
1899.00,0.0003
1898.00,0.0003
1897.00,0.0003
1896.00,0.0003
1895.00,0.0002
1894.00,0.0002
1893.00,0.0002
1892.00,0.0001
1891.00,0.0001
1890.00,0.0001
1889.00,0.0001
1888.00,0.0001
1887.00,0.0001
1886.00,0.0001
1885.00,0.0002
1884.00,0.0003
1883.00,0.0003
1882.00,0.0002
1881.00,0.0002
1880.00,0.0002
1879.00,0.0002
1878.00,0.0002
1877.00,0.0002
1876.00,0.0001
1875.00,0.0001
1874.00,-0.0000
1873.00,-0.0000
1872.00,-0.0000
1871.00,0.0000
1870.00,0.0001
1869.00,0.0003
1868.00,0.0003
1867.00,0.0003
1866.00,0.0002
1865.00,0.0001
1864.00,0.0001
1863.00,0.0002
1862.00,0.0003
1861.00,0.0003
1860.00,0.0003
1859.00,0.0002
1858.00,0.0002
1857.00,0.0002
1856.00,0.0003
1855.00,0.0002
1854.00,0.0002
1853.00,0.0002
1852.00,0.0003
1851.00,0.0003
1850.00,0.0003
1849.00,0.0004
1848.00,0.0003
1847.00,0.0003
1846.00,0.0002
1845.00,0.0002
1844.00,0.0003
1843.00,0.0004
1842.00,0.0004
1841.00,0.0004
1840.00,0.0004
1839.00,0.0005
1838.00,0.0006
1837.00,0.0006
1836.00,0.0006
1835.00,0.0005
1834.00,0.0004
1833.00,0.0004
1832.00,0.0004
1831.00,0.0004
1830.00,0.0004
1829.00,0.0005
1828.00,0.0005
1827.00,0.0005
1826.00,0.0005
1825.00,0.0006
1824.00,0.0007
1823.00,0.0007
1822.00,0.0006
1821.00,0.0006
1820.00,0.0005
1819.00,0.0004
1818.00,0.0003
1817.00,0.0002
1816.00,0.0003
1815.00,0.0003
1814.00,0.0003
1813.00,0.0003
1812.00,0.0003
1811.00,0.0004
1810.00,0.0005
1809.00,0.0006
1808.00,0.0006
1807.00,0.0007
1806.00,0.0007
1805.00,0.0007
1804.00,0.0007
1803.00,0.0007
1802.00,0.0007
1801.00,0.0007
1800.00,0.0007
1799.00,0.0007
1798.00,0.0007
1797.00,0.0007
1796.00,0.0008
1795.00,0.0008
1794.00,0.0007
1793.00,0.0008
1792.00,0.0008
1791.00,0.0008
1790.00,0.0008
1789.00,0.0008
1788.00,0.0009
1787.00,0.0009
1786.00,0.0009
1785.00,0.0009
1784.00,0.0009
1783.00,0.0009
1782.00,0.0009
1781.00,0.0009
1780.00,0.0010
1779.00,0.0009
1778.00,0.0009
1777.00,0.0009
1776.00,0.0008
1775.00,0.0008
1774.00,0.0008
1773.00,0.0009
1772.00,0.0010
1771.00,0.0011
1770.00,0.0011
1769.00,0.0012
1768.00,0.0013
1767.00,0.0013
1766.00,0.0013
1765.00,0.0013
1764.00,0.0013
1763.00,0.0014
1762.00,0.0015
1761.00,0.0016
1760.00,0.0017
1759.00,0.0018
1758.00,0.0020
1757.00,0.0021
1756.00,0.0023
1755.00,0.0024
1754.00,0.0025
1753.00,0.0027
1752.00,0.0028
1751.00,0.0031
1750.00,0.0033
1749.00,0.0035
1748.00,0.0037
1747.00,0.0038
1746.00,0.0039
1745.00,0.0040
1744.00,0.0040
1743.00,0.0040
1742.00,0.0040
1741.00,0.0040
1740.00,0.0040
1739.00,0.0039
1738.00,0.0038
1737.00,0.0037
1736.00,0.0036
1735.00,0.0035
1734.00,0.0035
1733.00,0.0036
1732.00,0.0036
1731.00,0.0035
1730.00,0.0035
1729.00,0.0035
1728.00,0.0035
1727.00,0.0034
1726.00,0.0033
1725.00,0.0033
1724.00,0.0033
1723.00,0.0032
1722.00,0.0032
1721.00,0.0032
1720.00,0.0031
1719.00,0.0030
1718.00,0.0029
1717.00,0.0030
1716.00,0.0031
1715.00,0.0032
1714.00,0.0032
1713.00,0.0033
1712.00,0.0033
1711.00,0.0034
1710.00,0.0034
1709.00,0.0034
1708.00,0.0034
1707.00,0.0035
1706.00,0.0036
1705.00,0.0038
1704.00,0.0039
1703.00,0.0039
1702.00,0.0039
1701.00,0.0040
1700.00,0.0041
1699.00,0.0041
1698.00,0.0041
1697.00,0.0043
1696.00,0.0046
1695.00,0.0048
1694.00,0.0049
1693.00,0.0050
1692.00,0.0052
1691.00,0.0053
1690.00,0.0055
1689.00,0.0056
1688.00,0.0057
1687.00,0.0058
1686.00,0.0058
1685.00,0.0060
1684.00,0.0063
1683.00,0.0065
1682.00,0.0067
1681.00,0.0068
1680.00,0.0069
1679.00,0.0070
1678.00,0.0071
1677.00,0.0072
1676.00,0.0073
1675.00,0.0075
1674.00,0.0076
1673.00,0.0077
1672.00,0.0078
1671.00,0.0080
1670.00,0.0082
1669.00,0.0084
1668.00,0.0086
1667.00,0.0087
1666.00,0.0087
1665.00,0.0088
1664.00,0.0089
1663.00,0.0090
1662.00,0.0091
1661.00,0.0092
1660.00,0.0093
1659.00,0.0094
1658.00,0.0094
1657.00,0.0094
1656.00,0.0095
1655.00,0.0094
1654.00,0.0094
1653.00,0.0094
1652.00,0.0094
1651.00,0.0094
1650.00,0.0094
1649.00,0.0094
1648.00,0.0093
1647.00,0.0093
1646.00,0.0093
1645.00,0.0093
1644.00,0.0092
1643.00,0.0091
1642.00,0.0090
1641.00,0.0090
1640.00,0.0089
1639.00,0.0088
1638.00,0.0088
1637.00,0.0087
1636.00,0.0086
1635.00,0.0085
1634.00,0.0084
1633.00,0.0084
1632.00,0.0083
1631.00,0.0083
1630.00,0.0082
1629.00,0.0081
1628.00,0.0080
1627.00,0.0079
1626.00,0.0078
1625.00,0.0077
1624.00,0.0076
1623.00,0.0076
1622.00,0.0075
1621.00,0.0075
1620.00,0.0074
1619.00,0.0073
1618.00,0.0071
1617.00,0.0070
1616.00,0.0069
1615.00,0.0069
1614.00,0.0068
1613.00,0.0069
1612.00,0.0069
1611.00,0.0068
1610.00,0.0068
1609.00,0.0068
1608.00,0.0068
1607.00,0.0067
1606.00,0.0067
1605.00,0.0066
1604.00,0.0066
1603.00,0.0066
1602.00,0.0066
1601.00,0.0067
1600.00,0.0067
1599.00,0.0067
1598.00,0.0067
1597.00,0.0067
1596.00,0.0066
1595.00,0.0066
1594.00,0.0066
1593.00,0.0067
1592.00,0.0067
1591.00,0.0068
1590.00,0.0068
1589.00,0.0069
1588.00,0.0069
1587.00,0.0070
1586.00,0.0071
1585.00,0.0072
1584.00,0.0073
1583.00,0.0074
1582.00,0.0075
1581.00,0.0077
1580.00,0.0078
1579.00,0.0079
1578.00,0.0079
1577.00,0.0080
1576.00,0.0081
1575.00,0.0080
1574.00,0.0079
1573.00,0.0078
1572.00,0.0077
1571.00,0.0076
1570.00,0.0075
1569.00,0.0075
1568.00,0.0075
1567.00,0.0075
1566.00,0.0075
1565.00,0.0075
1564.00,0.0076
1563.00,0.0076
1562.00,0.0077
1561.00,0.0078
1560.00,0.0078
1559.00,0.0079
1558.00,0.0079
1557.00,0.0079
1556.00,0.0080
1555.00,0.0081
1554.00,0.0083
1553.00,0.0084
1552.00,0.0086
1551.00,0.0088
1550.00,0.0090
1549.00,0.0091
1548.00,0.0092
1547.00,0.0094
1546.00,0.0095
1545.00,0.0097
1544.00,0.0098
1543.00,0.0098
1542.00,0.0096
1541.00,0.0095
1540.00,0.0095
1539.00,0.0094
1538.00,0.0093
1537.00,0.0092
1536.00,0.0091
1535.00,0.0089
1534.00,0.0086
1533.00,0.0084
1532.00,0.0083
1531.00,0.0081
1530.00,0.0080
1529.00,0.0080
1528.00,0.0080
1527.00,0.0080
1526.00,0.0080
1525.00,0.0078
1524.00,0.0077
1523.00,0.0076
1522.00,0.0075
1521.00,0.0076
1520.00,0.0077
1519.00,0.0077
1518.00,0.0077
1517.00,0.0078
1516.00,0.0079
1515.00,0.0079
1514.00,0.0078
1513.00,0.0077
1512.00,0.0077
1511.00,0.0077
1510.00,0.0076
1509.00,0.0076
1508.00,0.0076
1507.00,0.0076
1506.00,0.0076
1505.00,0.0075
1504.00,0.0076
1503.00,0.0076
1502.00,0.0077
1501.00,0.0078
1500.00,0.0079
1499.00,0.0081
1498.00,0.0082
1497.00,0.0084
1496.00,0.0088
1495.00,0.0090
1494.00,0.0091
1493.00,0.0093
1492.00,0.0096
1491.00,0.0099
1490.00,0.0102
1489.00,0.0106
1488.00,0.0111
1487.00,0.0115
1486.00,0.0119
1485.00,0.0125
1484.00,0.0131
1483.00,0.0138
1482.00,0.0146
1481.00,0.0156
1480.00,0.0168
1479.00,0.0179
1478.00,0.0192
1477.00,0.0208
1476.00,0.0227
1475.00,0.0248
1474.00,0.0278
1473.00,0.0327
1472.00,0.0392
1471.00,0.0458
1470.00,0.0520
1469.00,0.0584
1468.00,0.0652
1467.00,0.0726
1466.00,0.0808
1465.00,0.0897
1464.00,0.0976
1463.00,0.1035
1462.00,0.1078
1461.00,0.1111
1460.00,0.1139
1459.00,0.1162
1458.00,0.1186
1457.00,0.1212
1456.00,0.1229
1455.00,0.1236
1454.00,0.1237
1453.00,0.1232
1452.00,0.1217
1451.00,0.1188
1450.00,0.1140
1449.00,0.1069
1448.00,0.0974
1447.00,0.0871
1446.00,0.0775
1445.00,0.0692
1444.00,0.0621
1443.00,0.0563
1442.00,0.0519
1441.00,0.0489
1440.00,0.0470
1439.00,0.0461
1438.00,0.0458
1437.00,0.0455
1436.00,0.0442
1435.00,0.0414
1434.00,0.0376
1433.00,0.0331
1432.00,0.0285
1431.00,0.0245
1430.00,0.0214
1429.00,0.0192
1428.00,0.0176
1427.00,0.0166
1426.00,0.0159
1425.00,0.0153
1424.00,0.0148
1423.00,0.0144
1422.00,0.0141
1421.00,0.0138
1420.00,0.0134
1419.00,0.0131
1418.00,0.0128
1417.00,0.0124
1416.00,0.0119
1415.00,0.0116
1414.00,0.0113
1413.00,0.0110
1412.00,0.0105
1411.00,0.0102
1410.00,0.0098
1409.00,0.0094
1408.00,0.0090
1407.00,0.0086
1406.00,0.0083
1405.00,0.0079
1404.00,0.0074
1403.00,0.0069
1402.00,0.0066
1401.00,0.0062
1400.00,0.0056
1399.00,0.0052
1398.00,0.0048
1397.00,0.0045
1396.00,0.0042
1395.00,0.0042
1394.00,0.0044
1393.00,0.0047
1392.00,0.0051
1391.00,0.0060
1390.00,0.0072
1389.00,0.0089
1388.00,0.0113
1387.00,0.0151
1386.00,0.0200
1385.00,0.0262
1384.00,0.0343
1383.00,0.0451
1382.00,0.0591
1381.00,0.0769
1380.00,0.0986
1379.00,0.1234
1378.00,0.1475
1377.00,0.1659
1376.00,0.1732
1375.00,0.1661
1374.00,0.1463
1373.00,0.1213
1372.00,0.0977
1371.00,0.0779
1370.00,0.0620
1369.00,0.0498
1368.00,0.0415
1367.00,0.0364
1366.00,0.0337
1365.00,0.0328
1364.00,0.0333
1363.00,0.0349
1362.00,0.0372
1361.00,0.0396
1360.00,0.0414
1359.00,0.0420
1358.00,0.0410
1357.00,0.0384
1356.00,0.0348
1355.00,0.0307
1354.00,0.0268
1353.00,0.0234
1352.00,0.0208
1351.00,0.0187
1350.00,0.0169
1349.00,0.0155
1348.00,0.0144
1347.00,0.0135
1346.00,0.0128
1345.00,0.0123
1344.00,0.0119
1343.00,0.0116
1342.00,0.0115
1341.00,0.0113
1340.00,0.0112
1339.00,0.0111
1338.00,0.0110
1337.00,0.0110
1336.00,0.0110
1335.00,0.0112
1334.00,0.0115
1333.00,0.0120
1332.00,0.0125
1331.00,0.0129
1330.00,0.0132
1329.00,0.0132
1328.00,0.0130
1327.00,0.0126
1326.00,0.0120
1325.00,0.0114
1324.00,0.0108
1323.00,0.0103
1322.00,0.0100
1321.00,0.0097
1320.00,0.0095
1319.00,0.0094
1318.00,0.0093
1317.00,0.0093
1316.00,0.0092
1315.00,0.0091
1314.00,0.0091
1313.00,0.0091
1312.00,0.0093
1311.00,0.0096
1310.00,0.0102
1309.00,0.0111
1308.00,0.0123
1307.00,0.0138
1306.00,0.0153
1305.00,0.0163
1304.00,0.0166
1303.00,0.0162
1302.00,0.0154
1301.00,0.0147
1300.00,0.0141
1299.00,0.0138
1298.00,0.0137
1297.00,0.0136
1296.00,0.0134
1295.00,0.0130
1294.00,0.0126
1293.00,0.0121
1292.00,0.0115
1291.00,0.0109
1290.00,0.0104
1289.00,0.0099
1288.00,0.0095
1287.00,0.0092
1286.00,0.0089
1285.00,0.0086
1284.00,0.0083
1283.00,0.0081
1282.00,0.0079
1281.00,0.0077
1280.00,0.0074
1279.00,0.0072
1278.00,0.0069
1277.00,0.0067
1276.00,0.0064
1275.00,0.0062
1274.00,0.0060
1273.00,0.0058
1272.00,0.0055
1271.00,0.0052
1270.00,0.0050
1269.00,0.0048
1268.00,0.0047
1267.00,0.0048
1266.00,0.0049
1265.00,0.0050
1264.00,0.0052
1263.00,0.0055
1262.00,0.0059
1261.00,0.0064
1260.00,0.0071
1259.00,0.0079
1258.00,0.0087
1257.00,0.0093
1256.00,0.0096
1255.00,0.0092
1254.00,0.0082
1253.00,0.0070
1252.00,0.0058
1251.00,0.0049
1250.00,0.0045
1249.00,0.0042
1248.00,0.0042
1247.00,0.0042
1246.00,0.0042
1245.00,0.0043
1244.00,0.0043
1243.00,0.0043
1242.00,0.0043
1241.00,0.0043
1240.00,0.0044
1239.00,0.0044
1238.00,0.0044
1237.00,0.0045
1236.00,0.0047
1235.00,0.0049
1234.00,0.0051
1233.00,0.0052
1232.00,0.0054
1231.00,0.0056
1230.00,0.0059
1229.00,0.0061
1228.00,0.0064
1227.00,0.0068
1226.00,0.0072
1225.00,0.0076
1224.00,0.0081
1223.00,0.0086
1222.00,0.0091
1221.00,0.0096
1220.00,0.0099
1219.00,0.0100
1218.00,0.0100
1217.00,0.0099
1216.00,0.0097
1215.00,0.0094
1214.00,0.0091
1213.00,0.0088
1212.00,0.0086
1211.00,0.0085
1210.00,0.0083
1209.00,0.0082
1208.00,0.0081
1207.00,0.0080
1206.00,0.0080
1205.00,0.0080
1204.00,0.0079
1203.00,0.0079
1202.00,0.0078
1201.00,0.0078
1200.00,0.0077
1199.00,0.0076
1198.00,0.0075
1197.00,0.0075
1196.00,0.0075
1195.00,0.0074
1194.00,0.0073
1193.00,0.0072
1192.00,0.0070
1191.00,0.0068
1190.00,0.0067
1189.00,0.0065
1188.00,0.0063
1187.00,0.0061
1186.00,0.0060
1185.00,0.0059
1184.00,0.0058
1183.00,0.0057
1182.00,0.0056
1181.00,0.0056
1180.00,0.0057
1179.00,0.0060
1178.00,0.0066
1177.00,0.0075
1176.00,0.0087
1175.00,0.0104
1174.00,0.0126
1173.00,0.0155
1172.00,0.0191
1171.00,0.0231
1170.00,0.0270
1169.00,0.0302
1168.00,0.0321
1167.00,0.0324
1166.00,0.0313
1165.00,0.0291
1164.00,0.0264
1163.00,0.0236
1162.00,0.0210
1161.00,0.0188
1160.00,0.0170
1159.00,0.0154
1158.00,0.0141
1157.00,0.0131
1156.00,0.0123
1155.00,0.0116
1154.00,0.0111
1153.00,0.0106
1152.00,0.0099
1151.00,0.0092
1150.00,0.0084
1149.00,0.0076
1148.00,0.0067
1147.00,0.0060
1146.00,0.0053
1145.00,0.0047
1144.00,0.0041
1143.00,0.0037
1142.00,0.0032
1141.00,0.0028
1140.00,0.0024
1139.00,0.0020
1138.00,0.0018
1137.00,0.0016
1136.00,0.0016
1135.00,0.0017
1134.00,0.0018
1133.00,0.0018
1132.00,0.0018
1131.00,0.0019
1130.00,0.0020
1129.00,0.0022
1128.00,0.0024
1127.00,0.0028
1126.00,0.0031
1125.00,0.0034
1124.00,0.0036
1123.00,0.0037
1122.00,0.0039
1121.00,0.0041
1120.00,0.0044
1119.00,0.0047
1118.00,0.0050
1117.00,0.0053
1116.00,0.0055
1115.00,0.0058
1114.00,0.0061
1113.00,0.0064
1112.00,0.0067
1111.00,0.0071
1110.00,0.0075
1109.00,0.0080
1108.00,0.0086
1107.00,0.0091
1106.00,0.0098
1105.00,0.0104
1104.00,0.0109
1103.00,0.0112
1102.00,0.0112
1101.00,0.0108
1100.00,0.0102
1099.00,0.0094
1098.00,0.0085
1097.00,0.0077
1096.00,0.0069
1095.00,0.0061
1094.00,0.0055
1093.00,0.0049
1092.00,0.0045
1091.00,0.0040
1090.00,0.0036
1089.00,0.0032
1088.00,0.0028
1087.00,0.0026
1086.00,0.0024
1085.00,0.0022
1084.00,0.0021
1083.00,0.0020
1082.00,0.0019
1081.00,0.0017
1080.00,0.0015
1079.00,0.0013
1078.00,0.0011
1077.00,0.0009
1076.00,0.0008
1075.00,0.0007
1074.00,0.0006
1073.00,0.0006
1072.00,0.0006
1071.00,0.0007
1070.00,0.0008
1069.00,0.0011
1068.00,0.0014
1067.00,0.0017
1066.00,0.0021
1065.00,0.0024
1064.00,0.0025
1063.00,0.0027
1062.00,0.0029
1061.00,0.0032
1060.00,0.0034
1059.00,0.0037
1058.00,0.0040
1057.00,0.0043
1056.00,0.0046
1055.00,0.0050
1054.00,0.0053
1053.00,0.0057
1052.00,0.0061
1051.00,0.0065
1050.00,0.0071
1049.00,0.0077
1048.00,0.0083
1047.00,0.0089
1046.00,0.0095
1045.00,0.0099
1044.00,0.0101
1043.00,0.0101
1042.00,0.0099
1041.00,0.0097
1040.00,0.0095
1039.00,0.0095
1038.00,0.0095
1037.00,0.0096
1036.00,0.0097
1035.00,0.0098
1034.00,0.0097
1033.00,0.0097
1032.00,0.0096
1031.00,0.0096
1030.00,0.0096
1029.00,0.0096
1028.00,0.0096
1027.00,0.0095
1026.00,0.0095
1025.00,0.0095
1024.00,0.0096
1023.00,0.0097
1022.00,0.0098
1021.00,0.0099
1020.00,0.0099
1019.00,0.0100
1018.00,0.0102
1017.00,0.0103
1016.00,0.0106
1015.00,0.0110
1014.00,0.0115
1013.00,0.0121
1012.00,0.0126
1011.00,0.0130
1010.00,0.0134
1009.00,0.0139
1008.00,0.0144
1007.00,0.0151
1006.00,0.0162
1005.00,0.0175
1004.00,0.0195
1003.00,0.0222
1002.00,0.0259
1001.00,0.0305
1000.00,0.0356
999.00,0.0401
998.00,0.0426
997.00,0.0423
996.00,0.0391
995.00,0.0341
994.00,0.0287
993.00,0.0239
992.00,0.0201
991.00,0.0173
990.00,0.0154
989.00,0.0141
988.00,0.0132
987.00,0.0126
986.00,0.0123
985.00,0.0123
984.00,0.0125
983.00,0.0131
982.00,0.0143
981.00,0.0159
980.00,0.0180
979.00,0.0208
978.00,0.0245
977.00,0.0290
976.00,0.0341
975.00,0.0391
974.00,0.0431
973.00,0.0448
972.00,0.0433
971.00,0.0387
970.00,0.0320
969.00,0.0249
968.00,0.0185
967.00,0.0136
966.00,0.0100
965.00,0.0075
964.00,0.0058
963.00,0.0045
962.00,0.0035
961.00,0.0025
960.00,0.0016
959.00,0.0007
958.00,-0.0002
957.00,-0.0009
956.00,-0.0014
955.00,-0.0017
954.00,-0.0019
953.00,-0.0019
952.00,-0.0018
951.00,-0.0017
950.00,-0.0015
949.00,-0.0013
948.00,-0.0010
947.00,-0.0007
946.00,-0.0003
945.00,0.0000
944.00,0.0003
943.00,0.0007
942.00,0.0012
941.00,0.0017
940.00,0.0020
939.00,0.0020
938.00,0.0019
937.00,0.0017
936.00,0.0017
935.00,0.0018
934.00,0.0021
933.00,0.0024
932.00,0.0027
931.00,0.0030
930.00,0.0033
929.00,0.0036
928.00,0.0039
927.00,0.0042
926.00,0.0044
925.00,0.0047
924.00,0.0050
923.00,0.0053
922.00,0.0057
921.00,0.0059
920.00,0.0061
919.00,0.0062
918.00,0.0064
917.00,0.0066
916.00,0.0067
915.00,0.0068
914.00,0.0068
913.00,0.0068
912.00,0.0070
911.00,0.0072
910.00,0.0075
909.00,0.0077
908.00,0.0081
907.00,0.0085
906.00,0.0091
905.00,0.0100
904.00,0.0113
903.00,0.0131
902.00,0.0151
901.00,0.0169
900.00,0.0182
899.00,0.0186
898.00,0.0180
897.00,0.0166
896.00,0.0147
895.00,0.0128
894.00,0.0112
893.00,0.0100
892.00,0.0090
891.00,0.0085
890.00,0.0081
889.00,0.0080
888.00,0.0079
887.00,0.0079
886.00,0.0079
885.00,0.0079
884.00,0.0079
883.00,0.0078
882.00,0.0079
881.00,0.0079
880.00,0.0080
879.00,0.0081
878.00,0.0082
877.00,0.0082
876.00,0.0082
875.00,0.0082
874.00,0.0082
873.00,0.0082
872.00,0.0082
871.00,0.0081
870.00,0.0080
869.00,0.0080
868.00,0.0080
867.00,0.0081
866.00,0.0082
865.00,0.0083
864.00,0.0083
863.00,0.0084
862.00,0.0085
861.00,0.0086
860.00,0.0088
859.00,0.0089
858.00,0.0091
857.00,0.0092
856.00,0.0095
855.00,0.0097
854.00,0.0100
853.00,0.0103
852.00,0.0106
851.00,0.0110
850.00,0.0116
849.00,0.0125
848.00,0.0139
847.00,0.0158
846.00,0.0187
845.00,0.0229
844.00,0.0286
843.00,0.0350
842.00,0.0404
841.00,0.0423
840.00,0.0399
839.00,0.0343
838.00,0.0279
837.00,0.0225
836.00,0.0189
835.00,0.0165
834.00,0.0150
833.00,0.0139
832.00,0.0131
831.00,0.0125
830.00,0.0119
829.00,0.0114
828.00,0.0110
827.00,0.0108
826.00,0.0108
825.00,0.0108
824.00,0.0107
823.00,0.0105
822.00,0.0104
821.00,0.0103
820.00,0.0103
819.00,0.0104
818.00,0.0105
817.00,0.0108
816.00,0.0115
815.00,0.0125
814.00,0.0138
813.00,0.0154
812.00,0.0170
811.00,0.0186
810.00,0.0199
809.00,0.0206
808.00,0.0205
807.00,0.0197
806.00,0.0183
805.00,0.0166
804.00,0.0151
803.00,0.0137
802.00,0.0126
801.00,0.0117
800.00,0.0110
799.00,0.0106
798.00,0.0102
797.00,0.0100
796.00,0.0098
795.00,0.0097
794.00,0.0095
793.00,0.0094
792.00,0.0092
791.00,0.0091
790.00,0.0089
789.00,0.0087
788.00,0.0085
787.00,0.0083
786.00,0.0080
785.00,0.0078
784.00,0.0075
783.00,0.0073
782.00,0.0071
781.00,0.0070
780.00,0.0069
779.00,0.0068
778.00,0.0069
777.00,0.0071
776.00,0.0073
775.00,0.0074
774.00,0.0076
773.00,0.0077
772.00,0.0079
771.00,0.0082
770.00,0.0085
769.00,0.0088
768.00,0.0090
767.00,0.0091
766.00,0.0091
765.00,0.0090
764.00,0.0087
763.00,0.0082
762.00,0.0078
761.00,0.0074
760.00,0.0070
759.00,0.0068
758.00,0.0065
757.00,0.0064
756.00,0.0062
755.00,0.0061
754.00,0.0061
753.00,0.0060
752.00,0.0059
751.00,0.0059
750.00,0.0060
749.00,0.0063
748.00,0.0064
747.00,0.0066
746.00,0.0066
745.00,0.0067
744.00,0.0066
743.00,0.0065
742.00,0.0065
741.00,0.0066
740.00,0.0067
739.00,0.0069
738.00,0.0070
737.00,0.0072
736.00,0.0074
735.00,0.0076
734.00,0.0078
733.00,0.0078
732.00,0.0078
731.00,0.0078
730.00,0.0079
729.00,0.0080
728.00,0.0081
727.00,0.0082
726.00,0.0082
725.00,0.0081
724.00,0.0079
723.00,0.0076
722.00,0.0074
721.00,0.0073
720.00,0.0072
719.00,0.0071
718.00,0.0070
717.00,0.0068
716.00,0.0067
715.00,0.0067
714.00,0.0068
713.00,0.0069
712.00,0.0070
711.00,0.0069
710.00,0.0068
709.00,0.0066
708.00,0.0065
707.00,0.0064
706.00,0.0065
705.00,0.0065
704.00,0.0065
703.00,0.0065
702.00,0.0065
701.00,0.0065
700.00,0.0064
699.00,0.0063
698.00,0.0062
697.00,0.0061
696.00,0.0060
695.00,0.0060
694.00,0.0061
693.00,0.0061
692.00,0.0061
691.00,0.0060
690.00,0.0058
689.00,0.0056
688.00,0.0055
687.00,0.0055
686.00,0.0056
685.00,0.0057
684.00,0.0059
683.00,0.0059
682.00,0.0059
681.00,0.0058
680.00,0.0057
679.00,0.0059
678.00,0.0062
677.00,0.0064
676.00,0.0065
675.00,0.0065
674.00,0.0064
673.00,0.0063
672.00,0.0062
671.00,0.0062
670.00,0.0063
669.00,0.0062
668.00,0.0061
667.00,0.0060
666.00,0.0059
665.00,0.0058
664.00,0.0059
663.00,0.0061
662.00,0.0062
661.00,0.0063
660.00,0.0063
659.00,0.0062
658.00,0.0060
657.00,0.0058
656.00,0.0056
655.00,0.0054
654.00,0.0053
653.00,0.0054
652.00,0.0056
651.00,0.0058
650.00,0.0060
649.00,0.0060
648.00,0.0059
647.00,0.0058
646.00,0.0056
645.00,0.0055
644.00,0.0053
643.00,0.0053
642.00,0.0054
641.00,0.0058
640.00,0.0061
639.00,0.0062
638.00,0.0062
637.00,0.0062
636.00,0.0062
635.00,0.0061
634.00,0.0062
633.00,0.0064
632.00,0.0067
631.00,0.0069
630.00,0.0070
629.00,0.0068
628.00,0.0065
627.00,0.0062
626.00,0.0060
625.00,0.0060
624.00,0.0062
623.00,0.0064
622.00,0.0066
621.00,0.0067
620.00,0.0066
619.00,0.0063
618.00,0.0061
617.00,0.0060
616.00,0.0060
615.00,0.0060
614.00,0.0061
613.00,0.0063
612.00,0.0066
611.00,0.0069
610.00,0.0071
609.00,0.0071
608.00,0.0070
607.00,0.0068
606.00,0.0067
605.00,0.0066
604.00,0.0063
603.00,0.0060
602.00,0.0056
601.00,0.0056
600.00,0.0058
599.00,0.0061
598.00,0.0064
597.00,0.0067
596.00,0.0069
595.00,0.0070
594.00,0.0068
593.00,0.0064
592.00,0.0061
591.00,0.0060
590.00,0.0063
589.00,0.0066
588.00,0.0068
587.00,0.0068
586.00,0.0066
585.00,0.0064
584.00,0.0064
583.00,0.0065
582.00,0.0067
581.00,0.0068
580.00,0.0068
579.00,0.0065
578.00,0.0063
577.00,0.0062
576.00,0.0064
575.00,0.0068
574.00,0.0072
573.00,0.0076
572.00,0.0076
571.00,0.0073
570.00,0.0069
569.00,0.0066
568.00,0.0065
567.00,0.0065
566.00,0.0066
565.00,0.0067
564.00,0.0069
563.00,0.0070
562.00,0.0071
561.00,0.0071
560.00,0.0072
559.00,0.0072
558.00,0.0073
557.00,0.0072
556.00,0.0071
555.00,0.0069
554.00,0.0068
553.00,0.0066
552.00,0.0063
551.00,0.0061
550.00,0.0061
549.00,0.0062
548.00,0.0064
547.00,0.0063
546.00,0.0062
545.00,0.0061
544.00,0.0063
543.00,0.0066
542.00,0.0068
541.00,0.0071
540.00,0.0074
539.00,0.0077
538.00,0.0079
537.00,0.0079
536.00,0.0079
535.00,0.0080
534.00,0.0082
533.00,0.0084
532.00,0.0084
531.00,0.0084
530.00,0.0085
529.00,0.0087
528.00,0.0090
527.00,0.0092
526.00,0.0092
525.00,0.0090
524.00,0.0085
523.00,0.0079
522.00,0.0073
521.00,0.0071
520.00,0.0073
519.00,0.0076
518.00,0.0078
517.00,0.0074
516.00,0.0067
515.00,0.0062
514.00,0.0062
513.00,0.0066
512.00,0.0072
511.00,0.0075
510.00,0.0076
509.00,0.0076
508.00,0.0075
507.00,0.0075
506.00,0.0074
505.00,0.0072
504.00,0.0070
503.00,0.0068
502.00,0.0067
501.00,0.0066
500.00,0.0064
499.00,0.0062
498.00,0.0062
497.00,0.0067
496.00,0.0073
495.00,0.0078
494.00,0.0080
493.00,0.0081
492.00,0.0081
491.00,0.0079
490.00,0.0075
489.00,0.0072
488.00,0.0071
487.00,0.0072
486.00,0.0073
485.00,0.0072
484.00,0.0071
483.00,0.0068
482.00,0.0064
481.00,0.0058
480.00,0.0052
479.00,0.0050
478.00,0.0053
477.00,0.0059
476.00,0.0066
475.00,0.0069
474.00,0.0070
473.00,0.0071
472.00,0.0074
471.00,0.0077
470.00,0.0079
469.00,0.0078
468.00,0.0077
467.00,0.0080
466.00,0.0084
465.00,0.0089
464.00,0.0096
463.00,0.0107
462.00,0.0121
461.00,0.0135
460.00,0.0144
459.00,0.0149
458.00,0.0149
457.00,0.0143
456.00,0.0132
455.00,0.0122
454.00,0.0116
453.00,0.0116
452.00,0.0118
451.00,0.0117
450.00,0.0110
