Created as New Dataset,Sample 036 By Administrator Date Friday, September 05 2025
cm-1,A
4000.00,0.0011
3999.00,0.0011
3998.00,0.0011
3997.00,0.0012
3996.00,0.0012
3995.00,0.0012
3994.00,0.0012
3993.00,0.0011
3992.00,0.0011
3991.00,0.0011
3990.00,0.0011
3989.00,0.0011
3988.00,0.0011
3987.00,0.0011
3986.00,0.0011
3985.00,0.0011
3984.00,0.0010
3983.00,0.0010
3982.00,0.0010
3981.00,0.0010
3980.00,0.0009
3979.00,0.0009
3978.00,0.0009
3977.00,0.0010
3976.00,0.0010
3975.00,0.0010
3974.00,0.0009
3973.00,0.0009
3972.00,0.0009
3971.00,0.0010
3970.00,0.0010
3969.00,0.0009
3968.00,0.0009
3967.00,0.0009
3966.00,0.0009
3965.00,0.0009
3964.00,0.0009
3963.00,0.0009
3962.00,0.0010
3961.00,0.0010
3960.00,0.0010
3959.00,0.0010
3958.00,0.0010
3957.00,0.0009
3956.00,0.0009
3955.00,0.0009
3954.00,0.0009
3953.00,0.0009
3952.00,0.0009
3951.00,0.0009
3950.00,0.0009
3949.00,0.0009
3948.00,0.0009
3947.00,0.0009
3946.00,0.0009
3945.00,0.0009
3944.00,0.0009
3943.00,0.0009
3942.00,0.0009
3941.00,0.0009
3940.00,0.0009
3939.00,0.0009
3938.00,0.0009
3937.00,0.0009
3936.00,0.0008
3935.00,0.0008
3934.00,0.0009
3933.00,0.0009
3932.00,0.0009
3931.00,0.0009
3930.00,0.0010
3929.00,0.0010
3928.00,0.0010
3927.00,0.0010
3926.00,0.0010
3925.00,0.0010
3924.00,0.0010
3923.00,0.0010
3922.00,0.0009
3921.00,0.0009
3920.00,0.0009
3919.00,0.0009
3918.00,0.0009
3917.00,0.0009
3916.00,0.0009
3915.00,0.0009
3914.00,0.0008
3913.00,0.0008
3912.00,0.0008
3911.00,0.0008
3910.00,0.0008
3909.00,0.0008
3908.00,0.0008
3907.00,0.0008
3906.00,0.0008
3905.00,0.0008
3904.00,0.0008
3903.00,0.0008
3902.00,0.0008
3901.00,0.0008
3900.00,0.0008
3899.00,0.0008
3898.00,0.0009
3897.00,0.0008
3896.00,0.0008
3895.00,0.0008
3894.00,0.0007
3893.00,0.0007
3892.00,0.0008
3891.00,0.0008
3890.00,0.0008
3889.00,0.0008
3888.00,0.0008
3887.00,0.0008
3886.00,0.0008
3885.00,0.0008
3884.00,0.0008
3883.00,0.0008
3882.00,0.0008
3881.00,0.0008
3880.00,0.0008
3879.00,0.0007
3878.00,0.0007
3877.00,0.0007
3876.00,0.0007
3875.00,0.0007
3874.00,0.0007
3873.00,0.0008
3872.00,0.0008
3871.00,0.0008
3870.00,0.0008
3869.00,0.0008
3868.00,0.0007
3867.00,0.0007
3866.00,0.0006
3865.00,0.0006
3864.00,0.0007
3863.00,0.0007
3862.00,0.0007
3861.00,0.0007
3860.00,0.0007
3859.00,0.0007
3858.00,0.0007
3857.00,0.0008
3856.00,0.0008
3855.00,0.0008
3854.00,0.0008
3853.00,0.0008
3852.00,0.0008
3851.00,0.0007
3850.00,0.0007
3849.00,0.0007
3848.00,0.0007
3847.00,0.0007
3846.00,0.0006
3845.00,0.0007
3844.00,0.0007
3843.00,0.0007
3842.00,0.0007
3841.00,0.0007
3840.00,0.0007
3839.00,0.0007
3838.00,0.0007
3837.00,0.0008
3836.00,0.0008
3835.00,0.0008
3834.00,0.0007
3833.00,0.0007
3832.00,0.0007
3831.00,0.0007
3830.00,0.0007
3829.00,0.0007
3828.00,0.0007
3827.00,0.0007
3826.00,0.0007
3825.00,0.0007
3824.00,0.0006
3823.00,0.0006
3822.00,0.0006
3821.00,0.0006
3820.00,0.0007
3819.00,0.0007
3818.00,0.0007
3817.00,0.0007
3816.00,0.0007
3815.00,0.0007
3814.00,0.0007
3813.00,0.0007
3812.00,0.0007
3811.00,0.0007
3810.00,0.0007
3809.00,0.0007
3808.00,0.0007
3807.00,0.0007
3806.00,0.0007
3805.00,0.0006
3804.00,0.0006
3803.00,0.0006
3802.00,0.0007
3801.00,0.0007
3800.00,0.0007
3799.00,0.0007
3798.00,0.0007
3797.00,0.0007
3796.00,0.0007
3795.00,0.0008
3794.00,0.0008
3793.00,0.0008
3792.00,0.0008
3791.00,0.0008
3790.00,0.0008
3789.00,0.0008
3788.00,0.0008
3787.00,0.0008
3786.00,0.0008
3785.00,0.0009
3784.00,0.0009
3783.00,0.0009
3782.00,0.0009
3781.00,0.0008
3780.00,0.0008
3779.00,0.0008
3778.00,0.0009
3777.00,0.0009
3776.00,0.0009
3775.00,0.0009
3774.00,0.0009
3773.00,0.0009
3772.00,0.0008
3771.00,0.0009
3770.00,0.0009
3769.00,0.0009
3768.00,0.0010
3767.00,0.0010
3766.00,0.0010
3765.00,0.0010
3764.00,0.0010
3763.00,0.0009
3762.00,0.0009
3761.00,0.0008
3760.00,0.0008
3759.00,0.0008
3758.00,0.0008
3757.00,0.0009
3756.00,0.0008
3755.00,0.0008
3754.00,0.0008
3753.00,0.0008
3752.00,0.0007
3751.00,0.0007
3750.00,0.0007
3749.00,0.0007
3748.00,0.0007
3747.00,0.0007
3746.00,0.0008
3745.00,0.0008
3744.00,0.0008
3743.00,0.0007
3742.00,0.0006
3741.00,0.0006
3740.00,0.0005
3739.00,0.0005
3738.00,0.0005
3737.00,0.0005
3736.00,0.0006
3735.00,0.0006
3734.00,0.0007
3733.00,0.0007
3732.00,0.0007
3731.00,0.0007
3730.00,0.0007
3729.00,0.0006
3728.00,0.0006
3727.00,0.0006
3726.00,0.0006
3725.00,0.0006
3724.00,0.0006
3723.00,0.0006
3722.00,0.0006
3721.00,0.0006
3720.00,0.0006
3719.00,0.0006
3718.00,0.0006
3717.00,0.0006
3716.00,0.0005
3715.00,0.0005
3714.00,0.0006
3713.00,0.0006
3712.00,0.0006
3711.00,0.0006
3710.00,0.0006
3709.00,0.0005
3708.00,0.0005
3707.00,0.0004
3706.00,0.0004
3705.00,0.0004
3704.00,0.0004
3703.00,0.0004
3702.00,0.0005
3701.00,0.0005
3700.00,0.0005
3699.00,0.0005
3698.00,0.0005
3697.00,0.0004
3696.00,0.0005
3695.00,0.0005
3694.00,0.0005
3693.00,0.0005
3692.00,0.0005
3691.00,0.0004
3690.00,0.0004
3689.00,0.0004
3688.00,0.0003
3687.00,0.0003
3686.00,0.0002
3685.00,0.0001
3684.00,0.0000
3683.00,-0.0001
3682.00,-0.0002
3681.00,-0.0003
3680.00,-0.0004
3679.00,-0.0005
3678.00,-0.0006
3677.00,-0.0007
3676.00,-0.0008
3675.00,-0.0008
3674.00,-0.0009
3673.00,-0.0010
3672.00,-0.0010
3671.00,-0.0011
3670.00,-0.0012
3669.00,-0.0012
3668.00,-0.0012
3667.00,-0.0012
3666.00,-0.0013
3665.00,-0.0014
3664.00,-0.0014
3663.00,-0.0014
3662.00,-0.0015
3661.00,-0.0015
3660.00,-0.0015
3659.00,-0.0015
3658.00,-0.0015
3657.00,-0.0015
3656.00,-0.0015
3655.00,-0.0015
3654.00,-0.0015
3653.00,-0.0015
3652.00,-0.0015
3651.00,-0.0015
3650.00,-0.0014
3649.00,-0.0014
3648.00,-0.0013
3647.00,-0.0012
3646.00,-0.0011
3645.00,-0.0010
3644.00,-0.0009
3643.00,-0.0008
3642.00,-0.0008
3641.00,-0.0007
3640.00,-0.0007
3639.00,-0.0007
3638.00,-0.0007
3637.00,-0.0007
3636.00,-0.0006
3635.00,-0.0005
3634.00,-0.0003
3633.00,-0.0002
3632.00,-0.0001
3631.00,-0.0001
3630.00,-0.0000
3629.00,0.0001
3628.00,0.0001
3627.00,0.0002
3626.00,0.0002
3625.00,0.0003
3624.00,0.0003
3623.00,0.0003
3622.00,0.0003
3621.00,0.0002
3620.00,0.0002
3619.00,0.0002
3618.00,0.0002
3617.00,0.0002
3616.00,0.0003
3615.00,0.0003
3614.00,0.0004
3613.00,0.0005
3612.00,0.0006
3611.00,0.0007
3610.00,0.0007
3609.00,0.0008
3608.00,0.0008
3607.00,0.0009
3606.00,0.0008
3605.00,0.0008
3604.00,0.0008
3603.00,0.0008
3602.00,0.0008
3601.00,0.0008
3600.00,0.0009
3599.00,0.0009
3598.00,0.0009
3597.00,0.0009
3596.00,0.0009
3595.00,0.0009
3594.00,0.0010
3593.00,0.0010
3592.00,0.0009
3591.00,0.0009
3590.00,0.0009
3589.00,0.0009
3588.00,0.0010
3587.00,0.0010
3586.00,0.0011
3585.00,0.0011
3584.00,0.0011
3583.00,0.0011
3582.00,0.0011
3581.00,0.0011
3580.00,0.0011
3579.00,0.0011
3578.00,0.0011
3577.00,0.0011
3576.00,0.0011
3575.00,0.0012
3574.00,0.0012
3573.00,0.0012
3572.00,0.0012
3571.00,0.0013
3570.00,0.0012
3569.00,0.0012
3568.00,0.0012
3567.00,0.0012
3566.00,0.0012
3565.00,0.0013
3564.00,0.0013
3563.00,0.0013
3562.00,0.0014
3561.00,0.0014
3560.00,0.0015
3559.00,0.0015
3558.00,0.0016
3557.00,0.0016
3556.00,0.0017
3555.00,0.0017
3554.00,0.0017
3553.00,0.0016
3552.00,0.0016
3551.00,0.0016
3550.00,0.0016
3549.00,0.0017
3548.00,0.0017
3547.00,0.0017
3546.00,0.0017
3545.00,0.0018
3544.00,0.0018
3543.00,0.0018
3542.00,0.0018
3541.00,0.0018
3540.00,0.0019
3539.00,0.0019
3538.00,0.0019
3537.00,0.0019
3536.00,0.0019
3535.00,0.0019
3534.00,0.0019
3533.00,0.0019
3532.00,0.0019
3531.00,0.0019
3530.00,0.0019
3529.00,0.0019
3528.00,0.0020
3527.00,0.0020
3526.00,0.0020
3525.00,0.0020
3524.00,0.0020
3523.00,0.0021
3522.00,0.0021
3521.00,0.0021
3520.00,0.0022
3519.00,0.0022
3518.00,0.0022
3517.00,0.0022
3516.00,0.0022
3515.00,0.0022
3514.00,0.0022
3513.00,0.0023
3512.00,0.0023
3511.00,0.0023
3510.00,0.0023
3509.00,0.0023
3508.00,0.0023
3507.00,0.0024
3506.00,0.0024
3505.00,0.0024
3504.00,0.0025
3503.00,0.0025
3502.00,0.0024
3501.00,0.0024
3500.00,0.0024
3499.00,0.0025
3498.00,0.0025
3497.00,0.0026
3496.00,0.0026
3495.00,0.0026
3494.00,0.0026
3493.00,0.0026
3492.00,0.0026
3491.00,0.0026
3490.00,0.0026
3489.00,0.0027
3488.00,0.0027
3487.00,0.0027
3486.00,0.0027
3485.00,0.0027
3484.00,0.0027
3483.00,0.0027
3482.00,0.0027
3481.00,0.0027
3480.00,0.0027
3479.00,0.0027
3478.00,0.0027
3477.00,0.0027
3476.00,0.0028
3475.00,0.0028
3474.00,0.0029
3473.00,0.0029
3472.00,0.0029
3471.00,0.0029
3470.00,0.0029
3469.00,0.0029
3468.00,0.0029
3467.00,0.0029
3466.00,0.0029
3465.00,0.0030
3464.00,0.0030
3463.00,0.0030
3462.00,0.0030
3461.00,0.0030
3460.00,0.0030
3459.00,0.0030
3458.00,0.0031
3457.00,0.0031
3456.00,0.0031
3455.00,0.0031
3454.00,0.0031
3453.00,0.0031
3452.00,0.0032
3451.00,0.0032
3450.00,0.0032
3449.00,0.0032
3448.00,0.0033
3447.00,0.0033
3446.00,0.0033
3445.00,0.0032
3444.00,0.0032
3443.00,0.0033
3442.00,0.0033
3441.00,0.0034
3440.00,0.0034
3439.00,0.0034
3438.00,0.0034
3437.00,0.0034
3436.00,0.0034
3435.00,0.0034
3434.00,0.0034
3433.00,0.0035
3432.00,0.0035
3431.00,0.0036
3430.00,0.0036
3429.00,0.0036
3428.00,0.0036
3427.00,0.0036
3426.00,0.0036
3425.00,0.0036
3424.00,0.0037
3423.00,0.0037
3422.00,0.0037
3421.00,0.0037
3420.00,0.0037
3419.00,0.0037
3418.00,0.0037
3417.00,0.0038
3416.00,0.0038
3415.00,0.0038
3414.00,0.0039
3413.00,0.0039
3412.00,0.0039
3411.00,0.0039
3410.00,0.0040
3409.00,0.0039
3408.00,0.0039
3407.00,0.0039
3406.00,0.0039
3405.00,0.0039
3404.00,0.0039
3403.00,0.0040
3402.00,0.0040
3401.00,0.0040
3400.00,0.0041
3399.00,0.0040
3398.00,0.0040
3397.00,0.0040
3396.00,0.0040
3395.00,0.0040
3394.00,0.0040
3393.00,0.0040
3392.00,0.0041
3391.00,0.0041
3390.00,0.0041
3389.00,0.0041
3388.00,0.0042
3387.00,0.0042
3386.00,0.0042
3385.00,0.0042
3384.00,0.0042
3383.00,0.0042
3382.00,0.0042
3381.00,0.0042
3380.00,0.0043
3379.00,0.0043
3378.00,0.0043
3377.00,0.0043
3376.00,0.0044
3375.00,0.0044
3374.00,0.0044
3373.00,0.0043
3372.00,0.0043
3371.00,0.0043
3370.00,0.0043
3369.00,0.0044
3368.00,0.0044
3367.00,0.0044
3366.00,0.0044
3365.00,0.0044
3364.00,0.0044
3363.00,0.0045
3362.00,0.0045
3361.00,0.0045
3360.00,0.0045
3359.00,0.0045
3358.00,0.0045
3357.00,0.0045
3356.00,0.0045
3355.00,0.0045
3354.00,0.0046
3353.00,0.0046
3352.00,0.0046
3351.00,0.0046
3350.00,0.0046
3349.00,0.0046
3348.00,0.0046
3347.00,0.0046
3346.00,0.0046
3345.00,0.0046
3344.00,0.0046
3343.00,0.0046
3342.00,0.0047
3341.00,0.0047
3340.00,0.0047
3339.00,0.0047
3338.00,0.0047
3337.00,0.0047
3336.00,0.0047
3335.00,0.0047
3334.00,0.0047
3333.00,0.0047
3332.00,0.0047
3331.00,0.0047
3330.00,0.0047
3329.00,0.0047
3328.00,0.0047
3327.00,0.0047
3326.00,0.0047
3325.00,0.0047
3324.00,0.0047
3323.00,0.0047
3322.00,0.0047
3321.00,0.0048
3320.00,0.0048
3319.00,0.0048
3318.00,0.0048
3317.00,0.0048
3316.00,0.0048
3315.00,0.0049
3314.00,0.0049
3313.00,0.0049
3312.00,0.0048
3311.00,0.0048
3310.00,0.0048
3309.00,0.0048
3308.00,0.0049
3307.00,0.0049
3306.00,0.0049
3305.00,0.0049
3304.00,0.0049
3303.00,0.0049
3302.00,0.0050
3301.00,0.0050
3300.00,0.0049
3299.00,0.0049
3298.00,0.0049
3297.00,0.0049
3296.00,0.0049
3295.00,0.0049
3294.00,0.0049
3293.00,0.0049
3292.00,0.0049
3291.00,0.0049
3290.00,0.0049
3289.00,0.0049
3288.00,0.0049
3287.00,0.0049
3286.00,0.0049
3285.00,0.0049
3284.00,0.0049
3283.00,0.0049
3282.00,0.0049
3281.00,0.0048
3280.00,0.0048
3279.00,0.0048
3278.00,0.0048
3277.00,0.0048
3276.00,0.0047
3275.00,0.0047
3274.00,0.0047
3273.00,0.0047
3272.00,0.0046
3271.00,0.0046
3270.00,0.0046
3269.00,0.0046
3268.00,0.0047
3267.00,0.0047
3266.00,0.0047
3265.00,0.0047
3264.00,0.0046
3263.00,0.0046
3262.00,0.0045
3261.00,0.0045
3260.00,0.0044
3259.00,0.0044
3258.00,0.0043
3257.00,0.0043
3256.00,0.0043
3255.00,0.0043
3254.00,0.0043
3253.00,0.0043
3252.00,0.0042
3251.00,0.0042
3250.00,0.0042
3249.00,0.0042
3248.00,0.0042
3247.00,0.0042
3246.00,0.0042
3245.00,0.0042
3244.00,0.0042
3243.00,0.0042
3242.00,0.0042
3241.00,0.0042
3240.00,0.0042
3239.00,0.0042
3238.00,0.0041
3237.00,0.0041
3236.00,0.0040
3235.00,0.0040
3234.00,0.0040
3233.00,0.0041
3232.00,0.0041
3231.00,0.0041
3230.00,0.0041
3229.00,0.0042
3228.00,0.0042
3227.00,0.0042
3226.00,0.0043
3225.00,0.0043
3224.00,0.0043
3223.00,0.0043
3222.00,0.0043
3221.00,0.0043
3220.00,0.0043
3219.00,0.0043
3218.00,0.0043
3217.00,0.0042
3216.00,0.0042
3215.00,0.0042
3214.00,0.0043
3213.00,0.0043
3212.00,0.0044
3211.00,0.0044
3210.00,0.0044
3209.00,0.0043
3208.00,0.0043
3207.00,0.0044
3206.00,0.0044
3205.00,0.0044
3204.00,0.0044
3203.00,0.0044
3202.00,0.0044
3201.00,0.0044
3200.00,0.0044
3199.00,0.0044
3198.00,0.0044
3197.00,0.0044
3196.00,0.0044
3195.00,0.0044
3194.00,0.0044
3193.00,0.0043
3192.00,0.0043
3191.00,0.0043
3190.00,0.0043
3189.00,0.0043
3188.00,0.0042
3187.00,0.0042
3186.00,0.0042
3185.00,0.0042
3184.00,0.0042
3183.00,0.0042
3182.00,0.0042
3181.00,0.0042
3180.00,0.0042
3179.00,0.0042
3178.00,0.0042
3177.00,0.0041
3176.00,0.0040
3175.00,0.0040
3174.00,0.0040
3173.00,0.0040
3172.00,0.0040
3171.00,0.0040
3170.00,0.0040
3169.00,0.0040
3168.00,0.0040
3167.00,0.0040
3166.00,0.0040
3165.00,0.0040
3164.00,0.0039
3163.00,0.0039
3162.00,0.0039
3161.00,0.0039
3160.00,0.0039
3159.00,0.0040
3158.00,0.0040
3157.00,0.0041
3156.00,0.0041
3155.00,0.0041
3154.00,0.0040
3153.00,0.0040
3152.00,0.0039
3151.00,0.0039
3150.00,0.0039
3149.00,0.0039
3148.00,0.0039
3147.00,0.0039
3146.00,0.0039
3145.00,0.0039
3144.00,0.0039
3143.00,0.0038
3142.00,0.0038
3141.00,0.0038
3140.00,0.0038
3139.00,0.0038
3138.00,0.0038
3137.00,0.0038
3136.00,0.0038
3135.00,0.0038
3134.00,0.0038
3133.00,0.0037
3132.00,0.0037
3131.00,0.0037
3130.00,0.0037
3129.00,0.0036
3128.00,0.0036
3127.00,0.0036
3126.00,0.0036
3125.00,0.0035
3124.00,0.0035
3123.00,0.0034
3122.00,0.0034
3121.00,0.0034
3120.00,0.0034
3119.00,0.0034
3118.00,0.0034
3117.00,0.0034
3116.00,0.0034
3115.00,0.0033
3114.00,0.0033
3113.00,0.0033
3112.00,0.0033
3111.00,0.0033
3110.00,0.0033
3109.00,0.0033
3108.00,0.0033
3107.00,0.0033
3106.00,0.0033
3105.00,0.0033
3104.00,0.0033
3103.00,0.0033
3102.00,0.0033
3101.00,0.0033
3100.00,0.0033
3099.00,0.0033
3098.00,0.0033
3097.00,0.0033
3096.00,0.0033
3095.00,0.0033
3094.00,0.0032
3093.00,0.0032
3092.00,0.0033
3091.00,0.0033
3090.00,0.0033
3089.00,0.0033
3088.00,0.0033
3087.00,0.0032
3086.00,0.0032
3085.00,0.0032
3084.00,0.0032
3083.00,0.0032
3082.00,0.0032
3081.00,0.0032
3080.00,0.0032
3079.00,0.0032
3078.00,0.0032
3077.00,0.0033
3076.00,0.0033
3075.00,0.0034
3074.00,0.0034
3073.00,0.0034
3072.00,0.0034
3071.00,0.0034
3070.00,0.0034
3069.00,0.0034
3068.00,0.0034
3067.00,0.0034
3066.00,0.0035
3065.00,0.0035
3064.00,0.0036
3063.00,0.0036
3062.00,0.0036
3061.00,0.0036
3060.00,0.0036
3059.00,0.0036
3058.00,0.0036
3057.00,0.0036
3056.00,0.0037
3055.00,0.0037
3054.00,0.0037
3053.00,0.0037
3052.00,0.0037
3051.00,0.0037
3050.00,0.0037
3049.00,0.0037
3048.00,0.0038
3047.00,0.0038
3046.00,0.0038
3045.00,0.0038
3044.00,0.0038
3043.00,0.0039
3042.00,0.0039
3041.00,0.0039
3040.00,0.0039
3039.00,0.0039
3038.00,0.0040
3037.00,0.0040
3036.00,0.0040
3035.00,0.0040
3034.00,0.0040
3033.00,0.0041
3032.00,0.0041
3031.00,0.0041
3030.00,0.0041
3029.00,0.0041
3028.00,0.0042
3027.00,0.0042
3026.00,0.0042
3025.00,0.0042
3024.00,0.0043
3023.00,0.0043
3022.00,0.0043
3021.00,0.0043
3020.00,0.0043
3019.00,0.0042
3018.00,0.0041
3017.00,0.0041
3016.00,0.0040
3015.00,0.0039
3014.00,0.0038
3013.00,0.0036
3012.00,0.0034
3011.00,0.0031
3010.00,0.0029
3009.00,0.0025
3008.00,0.0022
3007.00,0.0018
3006.00,0.0014
3005.00,0.0010
3004.00,0.0006
3003.00,0.0002
3002.00,-0.0002
3001.00,-0.0005
3000.00,-0.0008
2999.00,-0.0010
2998.00,-0.0012
2997.00,-0.0012
2996.00,-0.0012
2995.00,-0.0011
2994.00,-0.0010
2993.00,-0.0008
2992.00,-0.0006
2991.00,-0.0003
2990.00,-0.0000
2989.00,0.0003
2988.00,0.0007
2987.00,0.0010
2986.00,0.0010
2985.00,0.0006
2984.00,-0.0000
2983.00,-0.0004
2982.00,-0.0000
2981.00,0.0015
2980.00,0.0040
2979.00,0.0072
2978.00,0.0107
2977.00,0.0143
2976.00,0.0180
2975.00,0.0218
2974.00,0.0257
2973.00,0.0301
2972.00,0.0352
2971.00,0.0413
2970.00,0.0483
2969.00,0.0559
2968.00,0.0640
2967.00,0.0723
2966.00,0.0806
2965.00,0.0888
2964.00,0.0965
2963.00,0.1035
2962.00,0.1094
2961.00,0.1144
2960.00,0.1186
2959.00,0.1227
2958.00,0.1272
2957.00,0.1327
2956.00,0.1397
2955.00,0.1483
2954.00,0.1583
2953.00,0.1690
2952.00,0.1793
2951.00,0.1880
2950.00,0.1935
2949.00,0.1946
2948.00,0.1909
2947.00,0.1825
2946.00,0.1705
2945.00,0.1566
2944.00,0.1425
2943.00,0.1297
2942.00,0.1193
2941.00,0.1115
2940.00,0.1066
2939.00,0.1042
2938.00,0.1042
2937.00,0.1062
2936.00,0.1099
2935.00,0.1153
2934.00,0.1223
2933.00,0.1307
2932.00,0.1404
2931.00,0.1513
2930.00,0.1630
2929.00,0.1753
2928.00,0.1878
2927.00,0.2001
2926.00,0.2121
2925.00,0.2237
2924.00,0.2352
2923.00,0.2468
2922.00,0.2584
2921.00,0.2698
2920.00,0.2804
2919.00,0.2889
2918.00,0.2942
2917.00,0.2951
2916.00,0.2914
2915.00,0.2834
2914.00,0.2724
2913.00,0.2596
2912.00,0.2464
2911.00,0.2338
2910.00,0.2221
2909.00,0.2114
2908.00,0.2015
2907.00,0.1922
2906.00,0.1833
2905.00,0.1747
2904.00,0.1664
2903.00,0.1583
2902.00,0.1505
2901.00,0.1430
2900.00,0.1360
2899.00,0.1294
2898.00,0.1234
2897.00,0.1180
2896.00,0.1132
2895.00,0.1090
2894.00,0.1057
2893.00,0.1030
2892.00,0.1012
2891.00,0.1000
2890.00,0.0995
2889.00,0.0996
2888.00,0.1002
2887.00,0.1011
2886.00,0.1024
2885.00,0.1041
2884.00,0.1063
2883.00,0.1091
2882.00,0.1125
2881.00,0.1162
2880.00,0.1199
2879.00,0.1230
2878.00,0.1252
2877.00,0.1262
2876.00,0.1261
2875.00,0.1255
2874.00,0.1249
2873.00,0.1248
2872.00,0.1257
2871.00,0.1275
2870.00,0.1300
2869.00,0.1328
2868.00,0.1350
2867.00,0.1355
2866.00,0.1335
2865.00,0.1284
2864.00,0.1204
2863.00,0.1106
2862.00,0.1000
2861.00,0.0900
2860.00,0.0813
2859.00,0.0743
2858.00,0.0689
2857.00,0.0650
2856.00,0.0623
2855.00,0.0607
2854.00,0.0599
2853.00,0.0600
2852.00,0.0607
2851.00,0.0620
2850.00,0.0640
2849.00,0.0667
2848.00,0.0700
2847.00,0.0741
2846.00,0.0791
2845.00,0.0849
2844.00,0.0915
2843.00,0.0987
2842.00,0.1060
2841.00,0.1128
2840.00,0.1183
2839.00,0.1216
2838.00,0.1221
2837.00,0.1192
2836.00,0.1130
2835.00,0.1041
2834.00,0.0935
2833.00,0.0825
2832.00,0.0720
2831.00,0.0628
2830.00,0.0549
2829.00,0.0485
2828.00,0.0433
2827.00,0.0391
2826.00,0.0358
2825.00,0.0330
2824.00,0.0307
2823.00,0.0287
2822.00,0.0271
2821.00,0.0256
2820.00,0.0243
2819.00,0.0232
2818.00,0.0223
2817.00,0.0215
2816.00,0.0208
2815.00,0.0201
2814.00,0.0195
2813.00,0.0190
2812.00,0.0185
2811.00,0.0179
2810.00,0.0174
2809.00,0.0168
2808.00,0.0161
2807.00,0.0155
2806.00,0.0147
2805.00,0.0140
2804.00,0.0134
2803.00,0.0128
2802.00,0.0123
2801.00,0.0118
2800.00,0.0114
2799.00,0.0111
2798.00,0.0108
2797.00,0.0105
2796.00,0.0103
2795.00,0.0101
2794.00,0.0099
2793.00,0.0096
2792.00,0.0094
2791.00,0.0091
2790.00,0.0088
2789.00,0.0085
2788.00,0.0082
2787.00,0.0080
2786.00,0.0077
2785.00,0.0075
2784.00,0.0073
2783.00,0.0071
2782.00,0.0069
2781.00,0.0067
2780.00,0.0065
2779.00,0.0063
2778.00,0.0061
2777.00,0.0060
2776.00,0.0059
2775.00,0.0059
2774.00,0.0058
2773.00,0.0058
2772.00,0.0057
2771.00,0.0056
2770.00,0.0056
2769.00,0.0055
2768.00,0.0055
2767.00,0.0054
2766.00,0.0054
2765.00,0.0054
2764.00,0.0054
2763.00,0.0054
2762.00,0.0053
2761.00,0.0053
2760.00,0.0053
2759.00,0.0052
2758.00,0.0052
2757.00,0.0051
2756.00,0.0051
2755.00,0.0051
2754.00,0.0052
2753.00,0.0052
2752.00,0.0052
2751.00,0.0051
2750.00,0.0051
2749.00,0.0052
2748.00,0.0052
2747.00,0.0052
2746.00,0.0053
2745.00,0.0053
2744.00,0.0054
2743.00,0.0055
2742.00,0.0056
2741.00,0.0057
2740.00,0.0058
2739.00,0.0059
2738.00,0.0061
2737.00,0.0063
2736.00,0.0064
2735.00,0.0066
2734.00,0.0068
2733.00,0.0070
2732.00,0.0072
2731.00,0.0074
2730.00,0.0076
2729.00,0.0079
2728.00,0.0082
2727.00,0.0085
2726.00,0.0088
2725.00,0.0091
2724.00,0.0093
2723.00,0.0093
2722.00,0.0092
2721.00,0.0091
2720.00,0.0088
2719.00,0.0084
2718.00,0.0081
2717.00,0.0077
2716.00,0.0073
2715.00,0.0070
2714.00,0.0067
2713.00,0.0065
2712.00,0.0063
2711.00,0.0061
2710.00,0.0059
2709.00,0.0057
2708.00,0.0055
2707.00,0.0054
2706.00,0.0053
2705.00,0.0051
2704.00,0.0050
2703.00,0.0049
2702.00,0.0048
2701.00,0.0047
2700.00,0.0047
2699.00,0.0046
2698.00,0.0045
2697.00,0.0045
2696.00,0.0044
2695.00,0.0044
2694.00,0.0044
2693.00,0.0044
2692.00,0.0044
2691.00,0.0044
2690.00,0.0044
2689.00,0.0044
2688.00,0.0044
2687.00,0.0044
2686.00,0.0044
2685.00,0.0044
2684.00,0.0044
2683.00,0.0044
2682.00,0.0044
2681.00,0.0044
2680.00,0.0045
2679.00,0.0045
2678.00,0.0045
2677.00,0.0045
2676.00,0.0045
2675.00,0.0045
2674.00,0.0045
2673.00,0.0045
2672.00,0.0044
2671.00,0.0044
2670.00,0.0044
2669.00,0.0044
2668.00,0.0044
2667.00,0.0044
2666.00,0.0044
2665.00,0.0044
2664.00,0.0045
2663.00,0.0046
2662.00,0.0047
2661.00,0.0047
2660.00,0.0048
2659.00,0.0048
2658.00,0.0047
2657.00,0.0047
2656.00,0.0047
2655.00,0.0046
2654.00,0.0045
2653.00,0.0045
2652.00,0.0044
2651.00,0.0044
2650.00,0.0043
2649.00,0.0043
2648.00,0.0043
2647.00,0.0042
2646.00,0.0042
2645.00,0.0041
2644.00,0.0041
2643.00,0.0040
2642.00,0.0040
2641.00,0.0040
2640.00,0.0039
2639.00,0.0039
2638.00,0.0039
2637.00,0.0038
2636.00,0.0038
2635.00,0.0038
2634.00,0.0038
2633.00,0.0038
2632.00,0.0038
2631.00,0.0039
2630.00,0.0039
2629.00,0.0039
2628.00,0.0040
2627.00,0.0040
2626.00,0.0040
2625.00,0.0040
2624.00,0.0041
2623.00,0.0041
2622.00,0.0041
2621.00,0.0042
2620.00,0.0042
2619.00,0.0042
2618.00,0.0042
2617.00,0.0042
2616.00,0.0042
2615.00,0.0042
2614.00,0.0041
2613.00,0.0041
2612.00,0.0041
2611.00,0.0040
2610.00,0.0039
2609.00,0.0038
2608.00,0.0038
2607.00,0.0037
2606.00,0.0036
2605.00,0.0035
2604.00,0.0035
2603.00,0.0035
2602.00,0.0034
2601.00,0.0034
2600.00,0.0034
2599.00,0.0034
2598.00,0.0035
2597.00,0.0035
2596.00,0.0035
2595.00,0.0036
2594.00,0.0036
2593.00,0.0037
2592.00,0.0037
2591.00,0.0037
2590.00,0.0037
2589.00,0.0038
2588.00,0.0039
2587.00,0.0040
2586.00,0.0042
2585.00,0.0043
2584.00,0.0044
2583.00,0.0045
2582.00,0.0045
2581.00,0.0045
2580.00,0.0043
2579.00,0.0042
2578.00,0.0041
2577.00,0.0039
2576.00,0.0038
2575.00,0.0037
2574.00,0.0035
2573.00,0.0034
2572.00,0.0033
2571.00,0.0033
2570.00,0.0031
2569.00,0.0030
2568.00,0.0030
2567.00,0.0029
2566.00,0.0029
2565.00,0.0029
2564.00,0.0029
2563.00,0.0028
2562.00,0.0027
2561.00,0.0027
2560.00,0.0027
2559.00,0.0027
2558.00,0.0026
2557.00,0.0026
2556.00,0.0026
2555.00,0.0025
2554.00,0.0025
2553.00,0.0024
2552.00,0.0023
2551.00,0.0023
2550.00,0.0023
2549.00,0.0023
2548.00,0.0023
2547.00,0.0022
2546.00,0.0021
2545.00,0.0021
2544.00,0.0020
2543.00,0.0020
2542.00,0.0020
2541.00,0.0020
2540.00,0.0020
2539.00,0.0020
2538.00,0.0020
2537.00,0.0019
2536.00,0.0019
2535.00,0.0018
2534.00,0.0018
2533.00,0.0019
2532.00,0.0019
2531.00,0.0019
2530.00,0.0019
2529.00,0.0018
2528.00,0.0018
2527.00,0.0018
2526.00,0.0018
2525.00,0.0017
2524.00,0.0017
2523.00,0.0016
2522.00,0.0015
2521.00,0.0014
2520.00,0.0014
2519.00,0.0014
2518.00,0.0013
2517.00,0.0013
2516.00,0.0013
2515.00,0.0013
2514.00,0.0013
2513.00,0.0012
2512.00,0.0012
2511.00,0.0012
2510.00,0.0011
2509.00,0.0011
2508.00,0.0012
2507.00,0.0012
2506.00,0.0012
2505.00,0.0012
2504.00,0.0012
2503.00,0.0012
2502.00,0.0012
2501.00,0.0013
2500.00,0.0013
2499.00,0.0013
2498.00,0.0014
2497.00,0.0014
2496.00,0.0013
2495.00,0.0013
2494.00,0.0013
2493.00,0.0012
2492.00,0.0012
2491.00,0.0012
2490.00,0.0012
2489.00,0.0013
2488.00,0.0013
2487.00,0.0013
2486.00,0.0012
2485.00,0.0012
2484.00,0.0012
2483.00,0.0012
2482.00,0.0012
2481.00,0.0012
2480.00,0.0012
2479.00,0.0012
2478.00,0.0011
2477.00,0.0011
2476.00,0.0011
2475.00,0.0011
2474.00,0.0011
2473.00,0.0010
2472.00,0.0010
2471.00,0.0011
2470.00,0.0011
2469.00,0.0011
2468.00,0.0012
2467.00,0.0011
2466.00,0.0011
2465.00,0.0011
2464.00,0.0010
2463.00,0.0010
2462.00,0.0010
2461.00,0.0011
2460.00,0.0011
2459.00,0.0012
2458.00,0.0012
2457.00,0.0013
2456.00,0.0013
2455.00,0.0013
2454.00,0.0013
2453.00,0.0012
2452.00,0.0012
2451.00,0.0012
2450.00,0.0012
2449.00,0.0012
2448.00,0.0012
2447.00,0.0012
2446.00,0.0013
2445.00,0.0013
2444.00,0.0013
2443.00,0.0013
2442.00,0.0012
2441.00,0.0012
2440.00,0.0012
2439.00,0.0012
2438.00,0.0012
2437.00,0.0012
2436.00,0.0012
2435.00,0.0013
2434.00,0.0013
2433.00,0.0014
2432.00,0.0014
2431.00,0.0014
2430.00,0.0015
2429.00,0.0015
2428.00,0.0015
2427.00,0.0015
2426.00,0.0015
2425.00,0.0014
2424.00,0.0014
2423.00,0.0013
2422.00,0.0013
2421.00,0.0013
2420.00,0.0013
2419.00,0.0013
2418.00,0.0012
2417.00,0.0012
2416.00,0.0012
2415.00,0.0012
2414.00,0.0012
2413.00,0.0012
2412.00,0.0011
2411.00,0.0011
2410.00,0.0012
2409.00,0.0012
2408.00,0.0011
2407.00,0.0011
2406.00,0.0011
2405.00,0.0011
2404.00,0.0011
2403.00,0.0011
2402.00,0.0011
2401.00,0.0011
2400.00,0.0011
2399.00,0.0011
2398.00,0.0011
2397.00,0.0010
2396.00,0.0010
2395.00,0.0010
2394.00,0.0009
2393.00,0.0010
2392.00,0.0010
2391.00,0.0010
2390.00,0.0010
2389.00,0.0009
2388.00,0.0009
2387.00,0.0009
2386.00,0.0008
2385.00,0.0007
2384.00,0.0006
2383.00,0.0005
2382.00,0.0005
2381.00,0.0004
2380.00,0.0004
2379.00,0.0003
2378.00,0.0002
2377.00,0.0002
2376.00,0.0002
2375.00,0.0002
2374.00,0.0003
2373.00,0.0003
2372.00,0.0003
2371.00,0.0003
2370.00,0.0003
2369.00,0.0003
2368.00,0.0002
2367.00,0.0002
2366.00,0.0001
2365.00,0.0001
2364.00,0.0001
2363.00,0.0001
2362.00,0.0002
2361.00,0.0002
2360.00,0.0003
2359.00,0.0004
2358.00,0.0004
2357.00,0.0004
2356.00,0.0004
2355.00,0.0004
2354.00,0.0003
2353.00,0.0002
2352.00,0.0001
2351.00,0.0001
2350.00,0.0001
2349.00,0.0003
2348.00,0.0004
2347.00,0.0005
2346.00,0.0005
2345.00,0.0005
2344.00,0.0005
2343.00,0.0005
2342.00,0.0005
2341.00,0.0006
2340.00,0.0006
2339.00,0.0006
2338.00,0.0007
2337.00,0.0007
2336.00,0.0007
2335.00,0.0007
2334.00,0.0007
2333.00,0.0006
2332.00,0.0006
2331.00,0.0006
2330.00,0.0006
2329.00,0.0007
2328.00,0.0009
2327.00,0.0013
2326.00,0.0016
2325.00,0.0019
2324.00,0.0020
2323.00,0.0019
2322.00,0.0017
2321.00,0.0015
2320.00,0.0014
2319.00,0.0013
2318.00,0.0013
2317.00,0.0012
2316.00,0.0011
2315.00,0.0010
2314.00,0.0009
2313.00,0.0008
2312.00,0.0008
2311.00,0.0007
2310.00,0.0007
2309.00,0.0007
2308.00,0.0008
2307.00,0.0008
2306.00,0.0009
2305.00,0.0009
2304.00,0.0010
2303.00,0.0010
2302.00,0.0010
2301.00,0.0010
2300.00,0.0010
2299.00,0.0011
2298.00,0.0012
2297.00,0.0013
2296.00,0.0014
2295.00,0.0015
2294.00,0.0016
2293.00,0.0017
2292.00,0.0018
2291.00,0.0019
2290.00,0.0019
2289.00,0.0020
2288.00,0.0020
2287.00,0.0021
2286.00,0.0022
2285.00,0.0023
2284.00,0.0023
2283.00,0.0022
2282.00,0.0021
2281.00,0.0019
2280.00,0.0018
2279.00,0.0016
2278.00,0.0015
2277.00,0.0015
2276.00,0.0014
2275.00,0.0014
2274.00,0.0015
2273.00,0.0015
2272.00,0.0015
2271.00,0.0015
2270.00,0.0015
2269.00,0.0015
2268.00,0.0015
2267.00,0.0014
2266.00,0.0013
2265.00,0.0012
2264.00,0.0011
2263.00,0.0010
2262.00,0.0009
2261.00,0.0010
2260.00,0.0011
2259.00,0.0012
2258.00,0.0014
2257.00,0.0015
2256.00,0.0015
2255.00,0.0014
2254.00,0.0012
2253.00,0.0011
2252.00,0.0009
2251.00,0.0009
2250.00,0.0008
2249.00,0.0009
2248.00,0.0010
2247.00,0.0010
2246.00,0.0011
2245.00,0.0011
2244.00,0.0012
2243.00,0.0013
2242.00,0.0013
2241.00,0.0014
2240.00,0.0014
2239.00,0.0013
2238.00,0.0011
2237.00,0.0008
2236.00,0.0007
2235.00,0.0006
2234.00,0.0008
2233.00,0.0010
2232.00,0.0013
2231.00,0.0015
2230.00,0.0015
2229.00,0.0015
2228.00,0.0014
2227.00,0.0012
2226.00,0.0011
2225.00,0.0009
2224.00,0.0008
2223.00,0.0007
2222.00,0.0007
2221.00,0.0008
2220.00,0.0010
2219.00,0.0011
2218.00,0.0010
2217.00,0.0009
2216.00,0.0007
2215.00,0.0007
2214.00,0.0007
2213.00,0.0007
2212.00,0.0007
2211.00,0.0007
2210.00,0.0008
2209.00,0.0009
2208.00,0.0009
2207.00,0.0008
2206.00,0.0008
2205.00,0.0007
2204.00,0.0006
2203.00,0.0006
2202.00,0.0005
2201.00,0.0006
2200.00,0.0007
2199.00,0.0007
2198.00,0.0007
2197.00,0.0007
2196.00,0.0008
2195.00,0.0010
2194.00,0.0012
2193.00,0.0012
2192.00,0.0011
2191.00,0.0010
2190.00,0.0010
2189.00,0.0011
2188.00,0.0012
2187.00,0.0013
2186.00,0.0014
2185.00,0.0014
2184.00,0.0015
2183.00,0.0015
2182.00,0.0015
2181.00,0.0014
2180.00,0.0014
2179.00,0.0013
2178.00,0.0013
2177.00,0.0012
2176.00,0.0010
2175.00,0.0007
2174.00,0.0005
2173.00,0.0006
2172.00,0.0008
2171.00,0.0013
2170.00,0.0017
2169.00,0.0020
2168.00,0.0021
2167.00,0.0022
2166.00,0.0021
2165.00,0.0021
2164.00,0.0023
2163.00,0.0025
2162.00,0.0026
2161.00,0.0021
2160.00,0.0008
2159.00,-0.0009
2158.00,-0.0023
2157.00,-0.0029
2156.00,-0.0026
2155.00,-0.0021
2154.00,-0.0017
2153.00,-0.0016
2152.00,-0.0017
2151.00,-0.0017
2150.00,-0.0016
2149.00,-0.0014
2148.00,-0.0011
2147.00,-0.0009
2146.00,-0.0009
2145.00,-0.0011
2144.00,-0.0012
2143.00,-0.0013
2142.00,-0.0012
2141.00,-0.0010
2140.00,-0.0007
2139.00,-0.0006
2138.00,-0.0008
2137.00,-0.0011
2136.00,-0.0014
2135.00,-0.0016
2134.00,-0.0016
2133.00,-0.0015
2132.00,-0.0013
2131.00,-0.0011
2130.00,-0.0010
2129.00,-0.0009
2128.00,-0.0007
2127.00,-0.0006
2126.00,-0.0005
2125.00,-0.0004
2124.00,-0.0004
2123.00,-0.0003
2122.00,-0.0002
2121.00,-0.0001
2120.00,-0.0000
2119.00,0.0000
2118.00,0.0001
2117.00,0.0001
2116.00,0.0002
2115.00,0.0003
2114.00,0.0003
2113.00,0.0004
2112.00,0.0005
2111.00,0.0006
2110.00,0.0006
2109.00,0.0006
2108.00,0.0005
2107.00,0.0004
2106.00,0.0003
2105.00,0.0002
2104.00,0.0002
2103.00,0.0002
2102.00,0.0003
2101.00,0.0004
2100.00,0.0004
2099.00,0.0003
2098.00,0.0001
2097.00,-0.0001
2096.00,-0.0003
2095.00,-0.0005
2094.00,-0.0005
2093.00,-0.0003
2092.00,-0.0001
2091.00,0.0001
2090.00,0.0001
2089.00,0.0002
2088.00,0.0003
2087.00,0.0004
2086.00,0.0004
2085.00,0.0005
2084.00,0.0006
2083.00,0.0006
2082.00,0.0006
2081.00,0.0006
2080.00,0.0006
2079.00,0.0006
2078.00,0.0006
2077.00,0.0005
2076.00,0.0004
2075.00,0.0004
2074.00,0.0003
2073.00,0.0002
2072.00,0.0001
2071.00,-0.0000
2070.00,-0.0001
2069.00,-0.0001
2068.00,-0.0000
2067.00,-0.0000
2066.00,-0.0001
2065.00,-0.0002
2064.00,-0.0002
2063.00,-0.0001
2062.00,0.0000
2061.00,0.0002
2060.00,0.0003
2059.00,0.0003
2058.00,0.0004
2057.00,0.0004
2056.00,0.0005
2055.00,0.0006
2054.00,0.0008
2053.00,0.0013
2052.00,0.0019
2051.00,0.0023
2050.00,0.0023
2049.00,0.0018
2048.00,0.0012
2047.00,0.0007
2046.00,0.0004
2045.00,0.0004
2044.00,0.0005
2043.00,0.0007
2042.00,0.0008
2041.00,0.0007
2040.00,0.0004
2039.00,0.0001
2038.00,0.0001
2037.00,0.0004
2036.00,0.0007
2035.00,0.0007
2034.00,0.0005
2033.00,0.0000
2032.00,-0.0004
2031.00,-0.0006
2030.00,-0.0006
2029.00,-0.0004
2028.00,-0.0002
2027.00,-0.0001
2026.00,-0.0002
2025.00,-0.0002
2024.00,-0.0003
2023.00,-0.0004
2022.00,-0.0005
2021.00,-0.0006
2020.00,-0.0005
2019.00,-0.0003
2018.00,-0.0002
2017.00,-0.0000
2016.00,-0.0000
2015.00,-0.0003
2014.00,-0.0006
2013.00,-0.0009
2012.00,-0.0010
2011.00,-0.0008
2010.00,-0.0008
2009.00,-0.0009
2008.00,-0.0012
2007.00,-0.0015
2006.00,-0.0018
2005.00,-0.0019
2004.00,-0.0018
2003.00,-0.0016
2002.00,-0.0014
2001.00,-0.0012
2000.00,-0.0010
1999.00,-0.0010
1998.00,-0.0010
1997.00,-0.0009
1996.00,-0.0008
1995.00,-0.0008
1994.00,-0.0007
1993.00,-0.0006
1992.00,-0.0005
1991.00,-0.0004
1990.00,-0.0002
1989.00,0.0001
1988.00,0.0003
1987.00,0.0003
1986.00,0.0004
1985.00,0.0005
1984.00,0.0007
1983.00,0.0010
1982.00,0.0014
1981.00,0.0017
1980.00,0.0020
1979.00,0.0018
1978.00,0.0012
1977.00,0.0003
1976.00,-0.0004
1975.00,-0.0009
1974.00,-0.0012
1973.00,-0.0012
1972.00,-0.0013
1971.00,-0.0014
1970.00,-0.0015
1969.00,-0.0015
1968.00,-0.0012
1967.00,-0.0011
1966.00,-0.0011
1965.00,-0.0012
1964.00,-0.0012
1963.00,-0.0011
1962.00,-0.0011
1961.00,-0.0011
1960.00,-0.0011
1959.00,-0.0010
1958.00,-0.0009
1957.00,-0.0008
1956.00,-0.0009
1955.00,-0.0010
1954.00,-0.0011
1953.00,-0.0011
1952.00,-0.0010
1951.00,-0.0010
1950.00,-0.0010
1949.00,-0.0011
1948.00,-0.0011
1947.00,-0.0012
1946.00,-0.0013
1945.00,-0.0013
1944.00,-0.0013
1943.00,-0.0012
1942.00,-0.0011
1941.00,-0.0009
1940.00,-0.0008
1939.00,-0.0008
1938.00,-0.0007
1937.00,-0.0006
1936.00,-0.0005
1935.00,-0.0005
1934.00,-0.0006
1933.00,-0.0008
1932.00,-0.0009
1931.00,-0.0009
1930.00,-0.0008
1929.00,-0.0007
1928.00,-0.0005
1927.00,-0.0004
1926.00,-0.0003
1925.00,-0.0002
1924.00,-0.0002
1923.00,-0.0002
1922.00,-0.0002
1921.00,-0.0001
1920.00,-0.0000
1919.00,-0.0000
1918.00,-0.0001
1917.00,-0.0001
1916.00,-0.0001
1915.00,-0.0001
1914.00,-0.0002
1913.00,-0.0001
1912.00,-0.0000
1911.00,0.0001
1910.00,0.0001
1909.00,0.0000
1908.00,-0.0000
1907.00,-0.0001
1906.00,-0.0002
1905.00,-0.0001
1904.00,0.0001
1903.00,0.0002
1902.00,0.0001
1901.00,0.0000
1900.00,-0.0000
1899.00,-0.0000
1898.00,0.0000
1897.00,0.0001
1896.00,0.0001
1895.00,0.0002
1894.00,0.0002
1893.00,0.0003
1892.00,0.0003
1891.00,0.0003
1890.00,0.0003
1889.00,0.0002
1888.00,0.0002
1887.00,0.0001
1886.00,0.0001
1885.00,0.0002
1884.00,0.0002
1883.00,0.0002
1882.00,0.0002
1881.00,0.0002
1880.00,0.0002
1879.00,0.0002
1878.00,0.0001
1877.00,0.0001
1876.00,0.0001
1875.00,0.0000
1874.00,0.0000
1873.00,0.0000
1872.00,0.0000
1871.00,0.0001
1870.00,0.0001
1869.00,0.0003
1868.00,0.0003
1867.00,0.0003
1866.00,0.0002
1865.00,0.0001
1864.00,0.0001
1863.00,0.0001
1862.00,0.0001
1861.00,0.0001
1860.00,0.0002
1859.00,0.0002
1858.00,0.0003
1857.00,0.0004
1856.00,0.0004
1855.00,0.0004
1854.00,0.0003
1853.00,0.0003
1852.00,0.0002
1851.00,0.0003
1850.00,0.0003
1849.00,0.0003
1848.00,0.0003
1847.00,0.0003
1846.00,0.0003
1845.00,0.0003
1844.00,0.0004
1843.00,0.0004
1842.00,0.0004
1841.00,0.0004
1840.00,0.0004
1839.00,0.0004
1838.00,0.0004
1837.00,0.0004
1836.00,0.0004
1835.00,0.0004
1834.00,0.0004
1833.00,0.0005
1832.00,0.0006
1831.00,0.0006
1830.00,0.0006
1829.00,0.0007
1828.00,0.0007
1827.00,0.0006
1826.00,0.0006
1825.00,0.0006
1824.00,0.0007
1823.00,0.0007
1822.00,0.0007
1821.00,0.0007
1820.00,0.0006
1819.00,0.0004
1818.00,0.0002
1817.00,0.0002
1816.00,0.0002
1815.00,0.0002
1814.00,0.0003
1813.00,0.0004
1812.00,0.0005
1811.00,0.0006
1810.00,0.0006
1809.00,0.0007
1808.00,0.0007
1807.00,0.0007
1806.00,0.0007
1805.00,0.0006
1804.00,0.0006
1803.00,0.0006
1802.00,0.0006
1801.00,0.0006
1800.00,0.0006
1799.00,0.0007
1798.00,0.0007
1797.00,0.0007
1796.00,0.0007
1795.00,0.0008
1794.00,0.0008
1793.00,0.0008
1792.00,0.0009
1791.00,0.0009
1790.00,0.0009
1789.00,0.0009
1788.00,0.0009
1787.00,0.0009
1786.00,0.0009
1785.00,0.0009
1784.00,0.0009
1783.00,0.0010
1782.00,0.0010
1781.00,0.0010
1780.00,0.0010
1779.00,0.0010
1778.00,0.0010
1777.00,0.0011
1776.00,0.0010
1775.00,0.0010
1774.00,0.0009
1773.00,0.0010
1772.00,0.0010
1771.00,0.0010
1770.00,0.0011
1769.00,0.0012
1768.00,0.0012
1767.00,0.0013
1766.00,0.0013
1765.00,0.0013
1764.00,0.0013
1763.00,0.0013
1762.00,0.0014
1761.00,0.0015
1760.00,0.0017
1759.00,0.0018
1758.00,0.0019
1757.00,0.0020
1756.00,0.0022
1755.00,0.0023
1754.00,0.0023
1753.00,0.0025
1752.00,0.0027
1751.00,0.0029
1750.00,0.0031
1749.00,0.0033
1748.00,0.0034
1747.00,0.0036
1746.00,0.0037
1745.00,0.0037
1744.00,0.0038
1743.00,0.0038
1742.00,0.0039
1741.00,0.0039
1740.00,0.0039
1739.00,0.0038
1738.00,0.0036
1737.00,0.0035
1736.00,0.0034
1735.00,0.0034
1734.00,0.0034
1733.00,0.0035
1732.00,0.0034
1731.00,0.0033
1730.00,0.0032
1729.00,0.0032
1728.00,0.0031
1727.00,0.0030
1726.00,0.0029
1725.00,0.0029
1724.00,0.0029
1723.00,0.0030
1722.00,0.0030
1721.00,0.0030
1720.00,0.0030
1719.00,0.0030
1718.00,0.0029
1717.00,0.0029
1716.00,0.0029
1715.00,0.0030
1714.00,0.0030
1713.00,0.0030
1712.00,0.0030
1711.00,0.0031
1710.00,0.0031
1709.00,0.0031
1708.00,0.0031
1707.00,0.0032
1706.00,0.0034
1705.00,0.0035
1704.00,0.0036
1703.00,0.0036
1702.00,0.0036
1701.00,0.0037
1700.00,0.0038
1699.00,0.0038
1698.00,0.0038
1697.00,0.0039
1696.00,0.0042
1695.00,0.0043
1694.00,0.0044
1693.00,0.0045
1692.00,0.0046
1691.00,0.0047
1690.00,0.0049
1689.00,0.0050
1688.00,0.0050
1687.00,0.0051
1686.00,0.0052
1685.00,0.0054
1684.00,0.0056
1683.00,0.0057
1682.00,0.0058
1681.00,0.0060
1680.00,0.0061
1679.00,0.0061
1678.00,0.0061
1677.00,0.0062
1676.00,0.0063
1675.00,0.0065
1674.00,0.0066
1673.00,0.0067
1672.00,0.0067
1671.00,0.0068
1670.00,0.0069
1669.00,0.0071
1668.00,0.0073
1667.00,0.0074
1666.00,0.0074
1665.00,0.0075
1664.00,0.0076
1663.00,0.0076
1662.00,0.0077
1661.00,0.0078
1660.00,0.0078
1659.00,0.0079
1658.00,0.0080
1657.00,0.0081
1656.00,0.0081
1655.00,0.0082
1654.00,0.0082
1653.00,0.0082
1652.00,0.0082
1651.00,0.0081
1650.00,0.0080
1649.00,0.0080
1648.00,0.0080
1647.00,0.0079
1646.00,0.0078
1645.00,0.0078
1644.00,0.0078
1643.00,0.0078
1642.00,0.0078
1641.00,0.0077
1640.00,0.0077
1639.00,0.0076
1638.00,0.0076
1637.00,0.0076
1636.00,0.0076
1635.00,0.0075
1634.00,0.0074
1633.00,0.0074
1632.00,0.0073
1631.00,0.0073
1630.00,0.0073
1629.00,0.0072
1628.00,0.0071
1627.00,0.0070
1626.00,0.0069
1625.00,0.0068
1624.00,0.0068
1623.00,0.0067
1622.00,0.0066
1621.00,0.0066
1620.00,0.0066
1619.00,0.0065
1618.00,0.0064
1617.00,0.0063
1616.00,0.0062
1615.00,0.0062
1614.00,0.0061
1613.00,0.0061
1612.00,0.0061
1611.00,0.0060
1610.00,0.0060
1609.00,0.0059
1608.00,0.0059
1607.00,0.0060
1606.00,0.0059
1605.00,0.0059
1604.00,0.0059
1603.00,0.0059
1602.00,0.0059
1601.00,0.0059
1600.00,0.0059
1599.00,0.0059
1598.00,0.0059
1597.00,0.0060
1596.00,0.0060
1595.00,0.0060
1594.00,0.0060
1593.00,0.0061
1592.00,0.0062
1591.00,0.0062
1590.00,0.0063
1589.00,0.0063
1588.00,0.0064
1587.00,0.0064
1586.00,0.0065
1585.00,0.0067
1584.00,0.0069
1583.00,0.0070
1582.00,0.0072
1581.00,0.0073
1580.00,0.0075
1579.00,0.0077
1578.00,0.0078
1577.00,0.0079
1576.00,0.0079
1575.00,0.0078
1574.00,0.0076
1573.00,0.0075
1572.00,0.0074
1571.00,0.0073
1570.00,0.0072
1569.00,0.0071
1568.00,0.0070
1567.00,0.0070
1566.00,0.0070
1565.00,0.0070
1564.00,0.0071
1563.00,0.0071
1562.00,0.0071
1561.00,0.0072
1560.00,0.0073
1559.00,0.0074
1558.00,0.0074
1557.00,0.0075
1556.00,0.0076
1555.00,0.0077
1554.00,0.0077
1553.00,0.0078
1552.00,0.0079
1551.00,0.0081
1550.00,0.0083
1549.00,0.0085
1548.00,0.0087
1547.00,0.0088
1546.00,0.0090
1545.00,0.0093
1544.00,0.0095
1543.00,0.0095
1542.00,0.0096
1541.00,0.0096
1540.00,0.0095
1539.00,0.0093
1538.00,0.0090
1537.00,0.0088
1536.00,0.0087
1535.00,0.0085
1534.00,0.0082
1533.00,0.0079
1532.00,0.0077
1531.00,0.0076
1530.00,0.0075
1529.00,0.0075
1528.00,0.0075
1527.00,0.0074
1526.00,0.0073
1525.00,0.0072
1524.00,0.0071
1523.00,0.0071
1522.00,0.0070
1521.00,0.0070
1520.00,0.0071
1519.00,0.0072
1518.00,0.0072
1517.00,0.0073
1516.00,0.0073
1515.00,0.0073
1514.00,0.0073
1513.00,0.0073
1512.00,0.0073
1511.00,0.0073
1510.00,0.0073
1509.00,0.0073
1508.00,0.0074
1507.00,0.0074
1506.00,0.0074
1505.00,0.0075
1504.00,0.0076
1503.00,0.0077
1502.00,0.0077
1501.00,0.0078
1500.00,0.0080
1499.00,0.0081
1498.00,0.0083
1497.00,0.0086
1496.00,0.0089
1495.00,0.0091
1494.00,0.0093
1493.00,0.0096
1492.00,0.0100
1491.00,0.0103
1490.00,0.0107
1489.00,0.0111
1488.00,0.0116
1487.00,0.0121
1486.00,0.0126
1485.00,0.0131
1484.00,0.0138
1483.00,0.0145
1482.00,0.0154
1481.00,0.0165
1480.00,0.0178
1479.00,0.0190
1478.00,0.0205
1477.00,0.0223
1476.00,0.0245
1475.00,0.0268
1474.00,0.0302
1473.00,0.0356
1472.00,0.0424
1471.00,0.0493
1470.00,0.0560
1469.00,0.0629
1468.00,0.0703
1467.00,0.0784
1466.00,0.0876
1465.00,0.0976
1464.00,0.1065
1463.00,0.1129
1462.00,0.1173
1461.00,0.1204
1460.00,0.1227
1459.00,0.1243
1458.00,0.1255
1457.00,0.1263
1456.00,0.1261
1455.00,0.1252
1454.00,0.1240
1453.00,0.1222
1452.00,0.1194
1451.00,0.1153
1450.00,0.1097
1449.00,0.1020
1448.00,0.0923
1447.00,0.0822
1446.00,0.0731
1445.00,0.0655
1444.00,0.0592
1443.00,0.0540
1442.00,0.0503
1441.00,0.0479
1440.00,0.0466
1439.00,0.0463
1438.00,0.0469
1437.00,0.0477
1436.00,0.0471
1435.00,0.0445
1434.00,0.0403
1433.00,0.0353
1432.00,0.0302
1431.00,0.0257
1430.00,0.0223
1429.00,0.0199
1428.00,0.0182
1427.00,0.0172
1426.00,0.0166
1425.00,0.0160
1424.00,0.0154
1423.00,0.0150
1422.00,0.0148
1421.00,0.0145
1420.00,0.0142
1419.00,0.0139
1418.00,0.0136
1417.00,0.0131
1416.00,0.0127
1415.00,0.0125
1414.00,0.0123
1413.00,0.0120
1412.00,0.0117
1411.00,0.0113
1410.00,0.0110
1409.00,0.0107
1408.00,0.0104
1407.00,0.0102
1406.00,0.0100
1405.00,0.0097
1404.00,0.0093
1403.00,0.0090
1402.00,0.0089
1401.00,0.0086
1400.00,0.0083
1399.00,0.0081
1398.00,0.0079
1397.00,0.0078
1396.00,0.0076
1395.00,0.0077
1394.00,0.0080
1393.00,0.0084
1392.00,0.0090
1391.00,0.0099
1390.00,0.0111
1389.00,0.0127
1388.00,0.0152
1387.00,0.0190
1386.00,0.0241
1385.00,0.0304
1384.00,0.0387
1383.00,0.0500
1382.00,0.0651
1381.00,0.0848
1380.00,0.1102
1379.00,0.1407
1378.00,0.1726
1377.00,0.1994
1376.00,0.2132
1375.00,0.2080
1374.00,0.1847
1373.00,0.1530
1372.00,0.1224
1371.00,0.0965
1370.00,0.0757
1369.00,0.0601
1368.00,0.0493
1367.00,0.0429
1366.00,0.0395
1365.00,0.0383
1364.00,0.0388
1363.00,0.0408
1362.00,0.0436
1361.00,0.0466
1360.00,0.0489
1359.00,0.0496
1358.00,0.0484
1357.00,0.0452
1356.00,0.0408
1355.00,0.0357
1354.00,0.0309
1353.00,0.0268
1352.00,0.0235
1351.00,0.0210
1350.00,0.0189
1349.00,0.0173
1348.00,0.0160
1347.00,0.0150
1346.00,0.0142
1345.00,0.0136
1344.00,0.0131
1343.00,0.0127
1342.00,0.0124
1341.00,0.0121
1340.00,0.0119
1339.00,0.0117
1338.00,0.0116
1337.00,0.0116
1336.00,0.0117
1335.00,0.0120
1334.00,0.0124
1333.00,0.0129
1332.00,0.0134
1331.00,0.0139
1330.00,0.0141
1329.00,0.0140
1328.00,0.0136
1327.00,0.0130
1326.00,0.0124
1325.00,0.0117
1324.00,0.0110
1323.00,0.0105
1322.00,0.0100
1321.00,0.0097
1320.00,0.0095
1319.00,0.0093
1318.00,0.0092
1317.00,0.0090
1316.00,0.0089
1315.00,0.0088
1314.00,0.0087
1313.00,0.0087
1312.00,0.0088
1311.00,0.0089
1310.00,0.0092
1309.00,0.0097
1308.00,0.0104
1307.00,0.0113
1306.00,0.0121
1305.00,0.0127
1304.00,0.0130
1303.00,0.0130
1302.00,0.0128
1301.00,0.0127
1300.00,0.0128
1299.00,0.0130
1298.00,0.0132
1297.00,0.0134
1296.00,0.0134
1295.00,0.0132
1294.00,0.0128
1293.00,0.0122
1292.00,0.0115
1291.00,0.0109
1290.00,0.0103
1289.00,0.0099
1288.00,0.0095
1287.00,0.0092
1286.00,0.0089
1285.00,0.0086
1284.00,0.0083
1283.00,0.0081
1282.00,0.0079
1281.00,0.0078
1280.00,0.0076
1279.00,0.0074
1278.00,0.0072
1277.00,0.0069
1276.00,0.0067
1275.00,0.0065
1274.00,0.0064
1273.00,0.0062
1272.00,0.0060
1271.00,0.0058
1270.00,0.0057
1269.00,0.0056
1268.00,0.0056
1267.00,0.0056
1266.00,0.0057
1265.00,0.0058
1264.00,0.0059
1263.00,0.0060
1262.00,0.0062
1261.00,0.0065
1260.00,0.0069
1259.00,0.0074
1258.00,0.0078
1257.00,0.0081
1256.00,0.0081
1255.00,0.0078
1254.00,0.0073
1253.00,0.0067
1252.00,0.0060
1251.00,0.0056
1250.00,0.0054
1249.00,0.0053
1248.00,0.0053
1247.00,0.0053
1246.00,0.0053
1245.00,0.0053
1244.00,0.0054
1243.00,0.0054
1242.00,0.0054
1241.00,0.0054
1240.00,0.0053
1239.00,0.0053
1238.00,0.0054
1237.00,0.0055
1236.00,0.0056
1235.00,0.0057
1234.00,0.0058
1233.00,0.0059
1232.00,0.0061
1231.00,0.0062
1230.00,0.0065
1229.00,0.0068
1228.00,0.0071
1227.00,0.0074
1226.00,0.0078
1225.00,0.0082
1224.00,0.0086
1223.00,0.0091
1222.00,0.0095
1221.00,0.0099
1220.00,0.0103
1219.00,0.0105
1218.00,0.0105
1217.00,0.0104
1216.00,0.0102
1215.00,0.0098
1214.00,0.0095
1213.00,0.0092
1212.00,0.0089
1211.00,0.0086
1210.00,0.0084
1209.00,0.0082
1208.00,0.0080
1207.00,0.0078
1206.00,0.0077
1205.00,0.0076
1204.00,0.0076
1203.00,0.0075
1202.00,0.0075
1201.00,0.0074
1200.00,0.0074
1199.00,0.0073
1198.00,0.0073
1197.00,0.0073
1196.00,0.0073
1195.00,0.0073
1194.00,0.0072
1193.00,0.0071
1192.00,0.0069
1191.00,0.0068
1190.00,0.0066
1189.00,0.0065
1188.00,0.0063
1187.00,0.0062
1186.00,0.0060
1185.00,0.0059
1184.00,0.0058
1183.00,0.0058
1182.00,0.0057
1181.00,0.0057
1180.00,0.0057
1179.00,0.0058
1178.00,0.0061
1177.00,0.0066
1176.00,0.0073
1175.00,0.0084
1174.00,0.0097
1173.00,0.0114
1172.00,0.0134
1171.00,0.0156
1170.00,0.0177
1169.00,0.0194
1168.00,0.0204
1167.00,0.0207
1166.00,0.0203
1165.00,0.0194
1164.00,0.0182
1163.00,0.0170
1162.00,0.0159
1161.00,0.0150
1160.00,0.0143
1159.00,0.0137
1158.00,0.0133
1157.00,0.0129
1156.00,0.0127
1155.00,0.0126
1154.00,0.0124
1153.00,0.0123
1152.00,0.0120
1151.00,0.0114
1150.00,0.0107
1149.00,0.0098
1148.00,0.0090
1147.00,0.0082
1146.00,0.0076
1145.00,0.0069
1144.00,0.0063
1143.00,0.0058
1142.00,0.0053
1141.00,0.0048
1140.00,0.0044
1139.00,0.0041
1138.00,0.0039
1137.00,0.0037
1136.00,0.0036
1135.00,0.0036
1134.00,0.0035
1133.00,0.0035
1132.00,0.0034
1131.00,0.0035
1130.00,0.0036
1129.00,0.0038
1128.00,0.0041
1127.00,0.0044
1126.00,0.0047
1125.00,0.0049
1124.00,0.0049
1123.00,0.0050
1122.00,0.0052
1121.00,0.0054
1120.00,0.0056
1119.00,0.0059
1118.00,0.0061
1117.00,0.0063
1116.00,0.0065
1115.00,0.0067
1114.00,0.0070
1113.00,0.0072
1112.00,0.0075
1111.00,0.0079
1110.00,0.0083
1109.00,0.0089
1108.00,0.0095
1107.00,0.0102
1106.00,0.0110
1105.00,0.0118
1104.00,0.0125
1103.00,0.0129
1102.00,0.0129
1101.00,0.0125
1100.00,0.0117
1099.00,0.0109
1098.00,0.0101
1097.00,0.0093
1096.00,0.0084
1095.00,0.0076
1094.00,0.0070
1093.00,0.0065
1092.00,0.0061
1091.00,0.0058
1090.00,0.0054
1089.00,0.0051
1088.00,0.0048
1087.00,0.0046
1086.00,0.0044
1085.00,0.0042
1084.00,0.0041
1083.00,0.0040
1082.00,0.0039
1081.00,0.0037
1080.00,0.0035
1079.00,0.0033
1078.00,0.0032
1077.00,0.0031
1076.00,0.0030
1075.00,0.0030
1074.00,0.0030
1073.00,0.0029
1072.00,0.0028
1071.00,0.0028
1070.00,0.0029
1069.00,0.0031
1068.00,0.0033
1067.00,0.0036
1066.00,0.0038
1065.00,0.0039
1064.00,0.0041
1063.00,0.0042
1062.00,0.0043
1061.00,0.0045
1060.00,0.0046
1059.00,0.0048
1058.00,0.0050
1057.00,0.0052
1056.00,0.0054
1055.00,0.0057
1054.00,0.0060
1053.00,0.0063
1052.00,0.0065
1051.00,0.0068
1050.00,0.0071
1049.00,0.0073
1048.00,0.0076
1047.00,0.0079
1046.00,0.0082
1045.00,0.0084
1044.00,0.0085
1043.00,0.0085
1042.00,0.0085
1041.00,0.0084
1040.00,0.0085
1039.00,0.0087
1038.00,0.0089
1037.00,0.0091
1036.00,0.0092
1035.00,0.0092
1034.00,0.0091
1033.00,0.0089
1032.00,0.0088
1031.00,0.0088
1030.00,0.0089
1029.00,0.0089
1028.00,0.0089
1027.00,0.0088
1026.00,0.0088
1025.00,0.0088
1024.00,0.0089
1023.00,0.0089
1022.00,0.0089
1021.00,0.0090
1020.00,0.0090
1019.00,0.0091
1018.00,0.0092
1017.00,0.0093
1016.00,0.0094
1015.00,0.0096
1014.00,0.0098
1013.00,0.0101
1012.00,0.0105
1011.00,0.0108
1010.00,0.0111
1009.00,0.0113
1008.00,0.0115
1007.00,0.0118
1006.00,0.0123
1005.00,0.0131
1004.00,0.0142
1003.00,0.0157
1002.00,0.0178
1001.00,0.0202
1000.00,0.0227
999.00,0.0246
998.00,0.0255
997.00,0.0248
996.00,0.0228
995.00,0.0201
994.00,0.0173
993.00,0.0150
992.00,0.0132
991.00,0.0119
990.00,0.0110
989.00,0.0103
988.00,0.0098
987.00,0.0095
986.00,0.0093
985.00,0.0094
984.00,0.0097
983.00,0.0103
982.00,0.0112
981.00,0.0125
980.00,0.0142
979.00,0.0164
978.00,0.0190
977.00,0.0221
976.00,0.0252
975.00,0.0278
974.00,0.0295
973.00,0.0295
972.00,0.0277
971.00,0.0243
970.00,0.0202
969.00,0.0162
968.00,0.0127
967.00,0.0101
966.00,0.0083
965.00,0.0069
964.00,0.0060
963.00,0.0052
962.00,0.0045
961.00,0.0039
960.00,0.0032
959.00,0.0027
958.00,0.0022
957.00,0.0019
956.00,0.0016
955.00,0.0013
954.00,0.0011
953.00,0.0011
952.00,0.0011
951.00,0.0013
950.00,0.0014
949.00,0.0016
948.00,0.0018
947.00,0.0021
946.00,0.0024
945.00,0.0028
944.00,0.0033
943.00,0.0038
942.00,0.0043
941.00,0.0046
940.00,0.0048
939.00,0.0047
938.00,0.0044
937.00,0.0041
936.00,0.0039
935.00,0.0037
934.00,0.0038
933.00,0.0039
932.00,0.0040
931.00,0.0042
930.00,0.0043
929.00,0.0044
928.00,0.0046
927.00,0.0047
926.00,0.0049
925.00,0.0051
924.00,0.0054
923.00,0.0057
922.00,0.0060
921.00,0.0062
920.00,0.0063
919.00,0.0065
918.00,0.0067
917.00,0.0068
916.00,0.0070
915.00,0.0070
914.00,0.0070
913.00,0.0071
912.00,0.0072
911.00,0.0073
910.00,0.0076
909.00,0.0079
908.00,0.0084
907.00,0.0089
906.00,0.0097
905.00,0.0107
904.00,0.0123
903.00,0.0144
902.00,0.0168
901.00,0.0191
900.00,0.0208
899.00,0.0213
898.00,0.0205
897.00,0.0186
896.00,0.0162
895.00,0.0139
894.00,0.0119
893.00,0.0105
892.00,0.0095
891.00,0.0088
890.00,0.0083
889.00,0.0080
888.00,0.0078
887.00,0.0077
886.00,0.0076
885.00,0.0075
884.00,0.0074
883.00,0.0073
882.00,0.0074
881.00,0.0075
880.00,0.0076
879.00,0.0078
878.00,0.0079
877.00,0.0079
876.00,0.0080
875.00,0.0080
874.00,0.0081
873.00,0.0080
872.00,0.0079
871.00,0.0077
870.00,0.0076
869.00,0.0076
868.00,0.0076
867.00,0.0077
866.00,0.0077
865.00,0.0077
864.00,0.0077
863.00,0.0077
862.00,0.0078
861.00,0.0079
860.00,0.0082
859.00,0.0085
858.00,0.0086
857.00,0.0087
856.00,0.0087
855.00,0.0088
854.00,0.0090
853.00,0.0092
852.00,0.0094
851.00,0.0097
850.00,0.0101
849.00,0.0105
848.00,0.0111
847.00,0.0120
846.00,0.0134
845.00,0.0155
844.00,0.0181
843.00,0.0209
842.00,0.0228
841.00,0.0232
840.00,0.0217
839.00,0.0191
838.00,0.0163
837.00,0.0140
836.00,0.0124
835.00,0.0114
834.00,0.0107
833.00,0.0104
832.00,0.0102
831.00,0.0100
830.00,0.0097
829.00,0.0095
828.00,0.0093
827.00,0.0093
826.00,0.0094
825.00,0.0096
824.00,0.0097
823.00,0.0098
822.00,0.0098
821.00,0.0099
820.00,0.0100
819.00,0.0103
818.00,0.0107
817.00,0.0113
816.00,0.0123
815.00,0.0136
814.00,0.0153
813.00,0.0173
812.00,0.0193
811.00,0.0212
810.00,0.0225
809.00,0.0231
808.00,0.0229
807.00,0.0218
806.00,0.0201
805.00,0.0181
804.00,0.0162
803.00,0.0145
802.00,0.0132
801.00,0.0123
800.00,0.0115
799.00,0.0109
798.00,0.0104
797.00,0.0100
796.00,0.0097
795.00,0.0094
794.00,0.0093
793.00,0.0091
792.00,0.0090
791.00,0.0089
790.00,0.0088
789.00,0.0085
788.00,0.0083
787.00,0.0080
786.00,0.0077
785.00,0.0075
784.00,0.0072
783.00,0.0071
782.00,0.0070
781.00,0.0068
780.00,0.0068
779.00,0.0067
778.00,0.0067
777.00,0.0068
776.00,0.0069
775.00,0.0069
774.00,0.0070
773.00,0.0071
772.00,0.0072
771.00,0.0074
770.00,0.0076
769.00,0.0078
768.00,0.0079
767.00,0.0079
766.00,0.0078
765.00,0.0077
764.00,0.0074
763.00,0.0071
762.00,0.0069
761.00,0.0067
760.00,0.0066
759.00,0.0065
758.00,0.0063
757.00,0.0061
756.00,0.0058
755.00,0.0057
754.00,0.0057
753.00,0.0057
752.00,0.0056
751.00,0.0056
750.00,0.0056
749.00,0.0057
748.00,0.0058
747.00,0.0060
746.00,0.0061
745.00,0.0061
744.00,0.0061
743.00,0.0061
742.00,0.0062
741.00,0.0064
740.00,0.0067
739.00,0.0069
738.00,0.0070
737.00,0.0070
736.00,0.0071
735.00,0.0072
734.00,0.0073
733.00,0.0073
732.00,0.0074
731.00,0.0075
730.00,0.0076
729.00,0.0077
728.00,0.0077
727.00,0.0076
726.00,0.0075
725.00,0.0072
724.00,0.0070
723.00,0.0069
722.00,0.0068
721.00,0.0068
720.00,0.0069
719.00,0.0069
718.00,0.0069
717.00,0.0067
716.00,0.0063
715.00,0.0061
714.00,0.0061
713.00,0.0062
712.00,0.0063
711.00,0.0065
710.00,0.0065
709.00,0.0065
708.00,0.0064
707.00,0.0064
706.00,0.0063
705.00,0.0063
704.00,0.0062
703.00,0.0062
702.00,0.0062
701.00,0.0061
700.00,0.0059
699.00,0.0058
698.00,0.0057
697.00,0.0057
696.00,0.0057
695.00,0.0057
694.00,0.0058
693.00,0.0058
692.00,0.0059
691.00,0.0058
690.00,0.0058
689.00,0.0057
688.00,0.0057
687.00,0.0058
686.00,0.0059
685.00,0.0060
684.00,0.0060
683.00,0.0060
682.00,0.0059
681.00,0.0059
680.00,0.0058
679.00,0.0058
678.00,0.0058
677.00,0.0059
676.00,0.0060
675.00,0.0060
674.00,0.0059
673.00,0.0057
672.00,0.0055
671.00,0.0055
670.00,0.0057
669.00,0.0060
668.00,0.0064
667.00,0.0066
666.00,0.0064
665.00,0.0061
664.00,0.0059
663.00,0.0058
662.00,0.0058
661.00,0.0059
660.00,0.0060
659.00,0.0060
658.00,0.0059
657.00,0.0058
656.00,0.0057
655.00,0.0055
654.00,0.0054
653.00,0.0054
652.00,0.0056
651.00,0.0058
650.00,0.0059
649.00,0.0058
648.00,0.0056
647.00,0.0055
646.00,0.0054
645.00,0.0055
644.00,0.0055
643.00,0.0055
642.00,0.0055
641.00,0.0056
640.00,0.0057
639.00,0.0058
638.00,0.0059
637.00,0.0058
636.00,0.0058
635.00,0.0059
634.00,0.0059
633.00,0.0060
632.00,0.0060
631.00,0.0060
630.00,0.0060
629.00,0.0060
628.00,0.0060
627.00,0.0061
626.00,0.0061
625.00,0.0061
624.00,0.0061
623.00,0.0061
622.00,0.0062
621.00,0.0062
620.00,0.0061
619.00,0.0059
618.00,0.0057
617.00,0.0055
616.00,0.0055
615.00,0.0056
614.00,0.0058
613.00,0.0060
612.00,0.0061
611.00,0.0062
610.00,0.0063
609.00,0.0063
608.00,0.0062
607.00,0.0063
606.00,0.0063
605.00,0.0063
604.00,0.0061
603.00,0.0058
602.00,0.0056
601.00,0.0056
600.00,0.0058
599.00,0.0060
598.00,0.0062
597.00,0.0063
596.00,0.0063
595.00,0.0062
594.00,0.0061
593.00,0.0060
592.00,0.0059
591.00,0.0059
590.00,0.0060
589.00,0.0060
588.00,0.0061
587.00,0.0062
586.00,0.0061
585.00,0.0061
584.00,0.0061
583.00,0.0062
582.00,0.0065
581.00,0.0068
580.00,0.0071
579.00,0.0070
578.00,0.0068
577.00,0.0065
576.00,0.0064
575.00,0.0065
574.00,0.0068
573.00,0.0071
572.00,0.0072
571.00,0.0072
570.00,0.0070
569.00,0.0068
568.00,0.0068
567.00,0.0067
566.00,0.0067
565.00,0.0065
564.00,0.0063
563.00,0.0062
562.00,0.0062
561.00,0.0062
560.00,0.0062
559.00,0.0062
558.00,0.0064
557.00,0.0066
556.00,0.0069
555.00,0.0069
554.00,0.0067
553.00,0.0066
552.00,0.0066
551.00,0.0068
550.00,0.0071
549.00,0.0072
548.00,0.0073
547.00,0.0072
546.00,0.0070
545.00,0.0068
544.00,0.0065
543.00,0.0065
542.00,0.0066
541.00,0.0068
540.00,0.0071
539.00,0.0073
538.00,0.0073
537.00,0.0072
536.00,0.0071
535.00,0.0072
534.00,0.0076
533.00,0.0081
532.00,0.0083
531.00,0.0085
530.00,0.0088
529.00,0.0090
528.00,0.0092
527.00,0.0091
526.00,0.0089
525.00,0.0087
524.00,0.0085
523.00,0.0082
522.00,0.0077
521.00,0.0072
520.00,0.0070
519.00,0.0069
518.00,0.0066
517.00,0.0060
516.00,0.0054
515.00,0.0052
514.00,0.0054
513.00,0.0060
512.00,0.0066
511.00,0.0072
510.00,0.0078
509.00,0.0081
508.00,0.0083
507.00,0.0082
506.00,0.0077
505.00,0.0073
504.00,0.0071
503.00,0.0072
502.00,0.0074
501.00,0.0072
500.00,0.0066
499.00,0.0059
498.00,0.0054
497.00,0.0054
496.00,0.0058
495.00,0.0062
494.00,0.0064
493.00,0.0064
492.00,0.0059
491.00,0.0054
490.00,0.0051
489.00,0.0051
488.00,0.0055
487.00,0.0058
486.00,0.0063
485.00,0.0069
484.00,0.0075
483.00,0.0076
482.00,0.0068
481.00,0.0057
480.00,0.0052
479.00,0.0057
478.00,0.0070
477.00,0.0084
476.00,0.0092
475.00,0.0094
474.00,0.0092
473.00,0.0089
472.00,0.0088
471.00,0.0084
470.00,0.0078
469.00,0.0072
468.00,0.0071
467.00,0.0076
466.00,0.0087
465.00,0.0100
464.00,0.0115
463.00,0.0130
462.00,0.0144
461.00,0.0156
460.00,0.0169
459.00,0.0179
458.00,0.0179
457.00,0.0162
456.00,0.0135
455.00,0.0115
454.00,0.0108
453.00,0.0116
452.00,0.0128
451.00,0.0133
450.00,0.0125
