Created as New Dataset,Sample 005 By Administrator Date Friday, September 05 2025
cm-1,A
4000.00,0.0011
3999.00,0.0011
3998.00,0.0010
3997.00,0.0010
3996.00,0.0011
3995.00,0.0011
3994.00,0.0011
3993.00,0.0011
3992.00,0.0011
3991.00,0.0011
3990.00,0.0011
3989.00,0.0010
3988.00,0.0010
3987.00,0.0010
3986.00,0.0010
3985.00,0.0010
3984.00,0.0010
3983.00,0.0010
3982.00,0.0010
3981.00,0.0009
3980.00,0.0009
3979.00,0.0009
3978.00,0.0009
3977.00,0.0008
3976.00,0.0008
3975.00,0.0009
3974.00,0.0009
3973.00,0.0009
3972.00,0.0009
3971.00,0.0009
3970.00,0.0009
3969.00,0.0009
3968.00,0.0009
3967.00,0.0009
3966.00,0.0008
3965.00,0.0008
3964.00,0.0008
3963.00,0.0008
3962.00,0.0008
3961.00,0.0008
3960.00,0.0008
3959.00,0.0009
3958.00,0.0009
3957.00,0.0009
3956.00,0.0009
3955.00,0.0009
3954.00,0.0009
3953.00,0.0009
3952.00,0.0009
3951.00,0.0009
3950.00,0.0009
3949.00,0.0009
3948.00,0.0009
3947.00,0.0009
3946.00,0.0009
3945.00,0.0009
3944.00,0.0009
3943.00,0.0009
3942.00,0.0008
3941.00,0.0008
3940.00,0.0009
3939.00,0.0009
3938.00,0.0009
3937.00,0.0009
3936.00,0.0009
3935.00,0.0009
3934.00,0.0009
3933.00,0.0009
3932.00,0.0010
3931.00,0.0010
3930.00,0.0009
3929.00,0.0009
3928.00,0.0009
3927.00,0.0009
3926.00,0.0009
3925.00,0.0009
3924.00,0.0009
3923.00,0.0009
3922.00,0.0009
3921.00,0.0009
3920.00,0.0009
3919.00,0.0009
3918.00,0.0009
3917.00,0.0008
3916.00,0.0008
3915.00,0.0008
3914.00,0.0009
3913.00,0.0009
3912.00,0.0009
3911.00,0.0008
3910.00,0.0008
3909.00,0.0008
3908.00,0.0008
3907.00,0.0008
3906.00,0.0007
3905.00,0.0007
3904.00,0.0007
3903.00,0.0007
3902.00,0.0007
3901.00,0.0007
3900.00,0.0007
3899.00,0.0007
3898.00,0.0008
3897.00,0.0008
3896.00,0.0007
3895.00,0.0007
3894.00,0.0007
3893.00,0.0007
3892.00,0.0007
3891.00,0.0008
3890.00,0.0008
3889.00,0.0008
3888.00,0.0008
3887.00,0.0007
3886.00,0.0007
3885.00,0.0007
3884.00,0.0007
3883.00,0.0007
3882.00,0.0007
3881.00,0.0008
3880.00,0.0007
3879.00,0.0007
3878.00,0.0007
3877.00,0.0007
3876.00,0.0007
3875.00,0.0007
3874.00,0.0008
3873.00,0.0008
3872.00,0.0009
3871.00,0.0008
3870.00,0.0008
3869.00,0.0008
3868.00,0.0007
3867.00,0.0007
3866.00,0.0006
3865.00,0.0006
3864.00,0.0006
3863.00,0.0006
3862.00,0.0006
3861.00,0.0006
3860.00,0.0006
3859.00,0.0007
3858.00,0.0007
3857.00,0.0008
3856.00,0.0008
3855.00,0.0008
3854.00,0.0008
3853.00,0.0008
3852.00,0.0007
3851.00,0.0007
3850.00,0.0007
3849.00,0.0007
3848.00,0.0007
3847.00,0.0007
3846.00,0.0007
3845.00,0.0007
3844.00,0.0007
3843.00,0.0007
3842.00,0.0007
3841.00,0.0007
3840.00,0.0007
3839.00,0.0007
3838.00,0.0007
3837.00,0.0007
3836.00,0.0007
3835.00,0.0007
3834.00,0.0007
3833.00,0.0006
3832.00,0.0006
3831.00,0.0006
3830.00,0.0006
3829.00,0.0006
3828.00,0.0006
3827.00,0.0006
3826.00,0.0006
3825.00,0.0006
3824.00,0.0006
3823.00,0.0005
3822.00,0.0005
3821.00,0.0006
3820.00,0.0007
3819.00,0.0007
3818.00,0.0007
3817.00,0.0007
3816.00,0.0007
3815.00,0.0007
3814.00,0.0007
3813.00,0.0007
3812.00,0.0007
3811.00,0.0007
3810.00,0.0007
3809.00,0.0007
3808.00,0.0007
3807.00,0.0007
3806.00,0.0007
3805.00,0.0007
3804.00,0.0007
3803.00,0.0007
3802.00,0.0007
3801.00,0.0007
3800.00,0.0007
3799.00,0.0007
3798.00,0.0007
3797.00,0.0007
3796.00,0.0007
3795.00,0.0007
3794.00,0.0007
3793.00,0.0007
3792.00,0.0007
3791.00,0.0007
3790.00,0.0007
3789.00,0.0007
3788.00,0.0007
3787.00,0.0008
3786.00,0.0008
3785.00,0.0008
3784.00,0.0009
3783.00,0.0009
3782.00,0.0008
3781.00,0.0008
3780.00,0.0008
3779.00,0.0008
3778.00,0.0008
3777.00,0.0008
3776.00,0.0008
3775.00,0.0008
3774.00,0.0008
3773.00,0.0008
3772.00,0.0007
3771.00,0.0007
3770.00,0.0007
3769.00,0.0008
3768.00,0.0008
3767.00,0.0009
3766.00,0.0009
3765.00,0.0009
3764.00,0.0009
3763.00,0.0009
3762.00,0.0008
3761.00,0.0008
3760.00,0.0008
3759.00,0.0008
3758.00,0.0009
3757.00,0.0009
3756.00,0.0009
3755.00,0.0009
3754.00,0.0009
3753.00,0.0008
3752.00,0.0008
3751.00,0.0007
3750.00,0.0007
3749.00,0.0007
3748.00,0.0008
3747.00,0.0008
3746.00,0.0008
3745.00,0.0008
3744.00,0.0007
3743.00,0.0007
3742.00,0.0007
3741.00,0.0006
3740.00,0.0006
3739.00,0.0005
3738.00,0.0005
3737.00,0.0005
3736.00,0.0005
3735.00,0.0005
3734.00,0.0006
3733.00,0.0005
3732.00,0.0005
3731.00,0.0005
3730.00,0.0006
3729.00,0.0006
3728.00,0.0006
3727.00,0.0006
3726.00,0.0006
3725.00,0.0007
3724.00,0.0007
3723.00,0.0007
3722.00,0.0007
3721.00,0.0007
3720.00,0.0007
3719.00,0.0007
3718.00,0.0007
3717.00,0.0006
3716.00,0.0006
3715.00,0.0006
3714.00,0.0006
3713.00,0.0006
3712.00,0.0006
3711.00,0.0007
3710.00,0.0006
3709.00,0.0006
3708.00,0.0006
3707.00,0.0006
3706.00,0.0006
3705.00,0.0005
3704.00,0.0005
3703.00,0.0005
3702.00,0.0005
3701.00,0.0005
3700.00,0.0005
3699.00,0.0005
3698.00,0.0005
3697.00,0.0005
3696.00,0.0005
3695.00,0.0005
3694.00,0.0005
3693.00,0.0004
3692.00,0.0004
3691.00,0.0004
3690.00,0.0004
3689.00,0.0003
3688.00,0.0002
3687.00,0.0002
3686.00,0.0001
3685.00,-0.0000
3684.00,-0.0001
3683.00,-0.0002
3682.00,-0.0004
3681.00,-0.0005
3680.00,-0.0007
3679.00,-0.0008
3678.00,-0.0009
3677.00,-0.0011
3676.00,-0.0012
3675.00,-0.0013
3674.00,-0.0015
3673.00,-0.0016
3672.00,-0.0017
3671.00,-0.0018
3670.00,-0.0019
3669.00,-0.0019
3668.00,-0.0020
3667.00,-0.0021
3666.00,-0.0021
3665.00,-0.0022
3664.00,-0.0022
3663.00,-0.0023
3662.00,-0.0024
3661.00,-0.0024
3660.00,-0.0025
3659.00,-0.0025
3658.00,-0.0025
3657.00,-0.0025
3656.00,-0.0024
3655.00,-0.0023
3654.00,-0.0023
3653.00,-0.0023
3652.00,-0.0023
3651.00,-0.0022
3650.00,-0.0022
3649.00,-0.0021
3648.00,-0.0021
3647.00,-0.0020
3646.00,-0.0020
3645.00,-0.0019
3644.00,-0.0017
3643.00,-0.0015
3642.00,-0.0013
3641.00,-0.0012
3640.00,-0.0012
3639.00,-0.0012
3638.00,-0.0013
3637.00,-0.0013
3636.00,-0.0011
3635.00,-0.0009
3634.00,-0.0006
3633.00,-0.0004
3632.00,-0.0002
3631.00,-0.0002
3630.00,-0.0003
3629.00,-0.0002
3628.00,-0.0002
3627.00,-0.0001
3626.00,0.0000
3625.00,0.0001
3624.00,0.0002
3623.00,0.0002
3622.00,0.0002
3621.00,0.0002
3620.00,0.0002
3619.00,0.0002
3618.00,0.0003
3617.00,0.0003
3616.00,0.0004
3615.00,0.0004
3614.00,0.0004
3613.00,0.0005
3612.00,0.0005
3611.00,0.0006
3610.00,0.0007
3609.00,0.0007
3608.00,0.0008
3607.00,0.0008
3606.00,0.0008
3605.00,0.0007
3604.00,0.0007
3603.00,0.0008
3602.00,0.0008
3601.00,0.0009
3600.00,0.0009
3599.00,0.0009
3598.00,0.0009
3597.00,0.0009
3596.00,0.0009
3595.00,0.0009
3594.00,0.0009
3593.00,0.0009
3592.00,0.0009
3591.00,0.0009
3590.00,0.0009
3589.00,0.0009
3588.00,0.0010
3587.00,0.0010
3586.00,0.0010
3585.00,0.0011
3584.00,0.0011
3583.00,0.0012
3582.00,0.0012
3581.00,0.0012
3580.00,0.0012
3579.00,0.0012
3578.00,0.0012
3577.00,0.0011
3576.00,0.0011
3575.00,0.0011
3574.00,0.0011
3573.00,0.0012
3572.00,0.0012
3571.00,0.0013
3570.00,0.0013
3569.00,0.0013
3568.00,0.0014
3567.00,0.0014
3566.00,0.0014
3565.00,0.0014
3564.00,0.0014
3563.00,0.0014
3562.00,0.0014
3561.00,0.0014
3560.00,0.0015
3559.00,0.0015
3558.00,0.0016
3557.00,0.0016
3556.00,0.0016
3555.00,0.0016
3554.00,0.0016
3553.00,0.0016
3552.00,0.0016
3551.00,0.0016
3550.00,0.0017
3549.00,0.0017
3548.00,0.0018
3547.00,0.0018
3546.00,0.0018
3545.00,0.0018
3544.00,0.0018
3543.00,0.0018
3542.00,0.0018
3541.00,0.0018
3540.00,0.0019
3539.00,0.0019
3538.00,0.0019
3537.00,0.0019
3536.00,0.0019
3535.00,0.0019
3534.00,0.0019
3533.00,0.0019
3532.00,0.0019
3531.00,0.0020
3530.00,0.0020
3529.00,0.0020
3528.00,0.0021
3527.00,0.0021
3526.00,0.0021
3525.00,0.0021
3524.00,0.0021
3523.00,0.0021
3522.00,0.0022
3521.00,0.0022
3520.00,0.0022
3519.00,0.0023
3518.00,0.0023
3517.00,0.0023
3516.00,0.0023
3515.00,0.0023
3514.00,0.0023
3513.00,0.0023
3512.00,0.0023
3511.00,0.0023
3510.00,0.0024
3509.00,0.0024
3508.00,0.0024
3507.00,0.0025
3506.00,0.0025
3505.00,0.0025
3504.00,0.0025
3503.00,0.0025
3502.00,0.0025
3501.00,0.0025
3500.00,0.0025
3499.00,0.0026
3498.00,0.0026
3497.00,0.0026
3496.00,0.0026
3495.00,0.0026
3494.00,0.0026
3493.00,0.0026
3492.00,0.0026
3491.00,0.0026
3490.00,0.0026
3489.00,0.0027
3488.00,0.0027
3487.00,0.0027
3486.00,0.0028
3485.00,0.0027
3484.00,0.0027
3483.00,0.0027
3482.00,0.0027
3481.00,0.0027
3480.00,0.0027
3479.00,0.0027
3478.00,0.0027
3477.00,0.0028
3476.00,0.0028
3475.00,0.0028
3474.00,0.0028
3473.00,0.0028
3472.00,0.0029
3471.00,0.0029
3470.00,0.0029
3469.00,0.0030
3468.00,0.0030
3467.00,0.0030
3466.00,0.0030
3465.00,0.0030
3464.00,0.0030
3463.00,0.0030
3462.00,0.0030
3461.00,0.0030
3460.00,0.0031
3459.00,0.0031
3458.00,0.0031
3457.00,0.0030
3456.00,0.0030
3455.00,0.0030
3454.00,0.0031
3453.00,0.0031
3452.00,0.0032
3451.00,0.0032
3450.00,0.0032
3449.00,0.0032
3448.00,0.0032
3447.00,0.0032
3446.00,0.0032
3445.00,0.0032
3444.00,0.0032
3443.00,0.0032
3442.00,0.0032
3441.00,0.0032
3440.00,0.0033
3439.00,0.0033
3438.00,0.0033
3437.00,0.0033
3436.00,0.0033
3435.00,0.0034
3434.00,0.0034
3433.00,0.0034
3432.00,0.0035
3431.00,0.0036
3430.00,0.0036
3429.00,0.0036
3428.00,0.0037
3427.00,0.0037
3426.00,0.0037
3425.00,0.0037
3424.00,0.0037
3423.00,0.0037
3422.00,0.0037
3421.00,0.0037
3420.00,0.0037
3419.00,0.0037
3418.00,0.0037
3417.00,0.0037
3416.00,0.0038
3415.00,0.0038
3414.00,0.0039
3413.00,0.0039
3412.00,0.0039
3411.00,0.0040
3410.00,0.0040
3409.00,0.0040
3408.00,0.0040
3407.00,0.0040
3406.00,0.0040
3405.00,0.0040
3404.00,0.0040
3403.00,0.0040
3402.00,0.0039
3401.00,0.0039
3400.00,0.0039
3399.00,0.0039
3398.00,0.0039
3397.00,0.0040
3396.00,0.0040
3395.00,0.0041
3394.00,0.0041
3393.00,0.0041
3392.00,0.0041
3391.00,0.0041
3390.00,0.0041
3389.00,0.0042
3388.00,0.0042
3387.00,0.0042
3386.00,0.0042
3385.00,0.0043
3384.00,0.0043
3383.00,0.0043
3382.00,0.0044
3381.00,0.0044
3380.00,0.0044
3379.00,0.0044
3378.00,0.0044
3377.00,0.0044
3376.00,0.0044
3375.00,0.0044
3374.00,0.0044
3373.00,0.0044
3372.00,0.0044
3371.00,0.0044
3370.00,0.0044
3369.00,0.0044
3368.00,0.0045
3367.00,0.0045
3366.00,0.0045
3365.00,0.0045
3364.00,0.0046
3363.00,0.0046
3362.00,0.0046
3361.00,0.0046
3360.00,0.0046
3359.00,0.0046
3358.00,0.0046
3357.00,0.0046
3356.00,0.0046
3355.00,0.0047
3354.00,0.0047
3353.00,0.0047
3352.00,0.0047
3351.00,0.0047
3350.00,0.0047
3349.00,0.0047
3348.00,0.0047
3347.00,0.0047
3346.00,0.0047
3345.00,0.0048
3344.00,0.0048
3343.00,0.0048
3342.00,0.0048
3341.00,0.0048
3340.00,0.0048
3339.00,0.0048
3338.00,0.0048
3337.00,0.0048
3336.00,0.0048
3335.00,0.0048
3334.00,0.0048
3333.00,0.0049
3332.00,0.0048
3331.00,0.0048
3330.00,0.0048
3329.00,0.0048
3328.00,0.0049
3327.00,0.0049
3326.00,0.0049
3325.00,0.0048
3324.00,0.0048
3323.00,0.0048
3322.00,0.0048
3321.00,0.0048
3320.00,0.0049
3319.00,0.0049
3318.00,0.0050
3317.00,0.0050
3316.00,0.0050
3315.00,0.0050
3314.00,0.0050
3313.00,0.0050
3312.00,0.0050
3311.00,0.0050
3310.00,0.0050
3309.00,0.0050
3308.00,0.0050
3307.00,0.0050
3306.00,0.0050
3305.00,0.0050
3304.00,0.0050
3303.00,0.0051
3302.00,0.0051
3301.00,0.0051
3300.00,0.0051
3299.00,0.0051
3298.00,0.0051
3297.00,0.0051
3296.00,0.0051
3295.00,0.0051
3294.00,0.0051
3293.00,0.0051
3292.00,0.0051
3291.00,0.0051
3290.00,0.0051
3289.00,0.0051
3288.00,0.0051
3287.00,0.0051
3286.00,0.0051
3285.00,0.0051
3284.00,0.0050
3283.00,0.0050
3282.00,0.0050
3281.00,0.0050
3280.00,0.0050
3279.00,0.0049
3278.00,0.0049
3277.00,0.0049
3276.00,0.0048
3275.00,0.0048
3274.00,0.0048
3273.00,0.0048
3272.00,0.0047
3271.00,0.0047
3270.00,0.0048
3269.00,0.0048
3268.00,0.0049
3267.00,0.0049
3266.00,0.0049
3265.00,0.0048
3264.00,0.0048
3263.00,0.0047
3262.00,0.0047
3261.00,0.0046
3260.00,0.0046
3259.00,0.0045
3258.00,0.0045
3257.00,0.0045
3256.00,0.0045
3255.00,0.0044
3254.00,0.0044
3253.00,0.0044
3252.00,0.0044
3251.00,0.0043
3250.00,0.0043
3249.00,0.0043
3248.00,0.0043
3247.00,0.0043
3246.00,0.0043
3245.00,0.0043
3244.00,0.0042
3243.00,0.0042
3242.00,0.0042
3241.00,0.0042
3240.00,0.0042
3239.00,0.0041
3238.00,0.0041
3237.00,0.0041
3236.00,0.0041
3235.00,0.0041
3234.00,0.0041
3233.00,0.0041
3232.00,0.0041
3231.00,0.0042
3230.00,0.0042
3229.00,0.0042
3228.00,0.0042
3227.00,0.0043
3226.00,0.0043
3225.00,0.0043
3224.00,0.0044
3223.00,0.0044
3222.00,0.0043
3221.00,0.0043
3220.00,0.0043
3219.00,0.0043
3218.00,0.0043
3217.00,0.0043
3216.00,0.0043
3215.00,0.0043
3214.00,0.0043
3213.00,0.0043
3212.00,0.0043
3211.00,0.0043
3210.00,0.0043
3209.00,0.0043
3208.00,0.0043
3207.00,0.0043
3206.00,0.0044
3205.00,0.0044
3204.00,0.0044
3203.00,0.0044
3202.00,0.0044
3201.00,0.0044
3200.00,0.0044
3199.00,0.0044
3198.00,0.0045
3197.00,0.0044
3196.00,0.0044
3195.00,0.0044
3194.00,0.0044
3193.00,0.0044
3192.00,0.0043
3191.00,0.0043
3190.00,0.0043
3189.00,0.0043
3188.00,0.0042
3187.00,0.0042
3186.00,0.0042
3185.00,0.0041
3184.00,0.0041
3183.00,0.0042
3182.00,0.0042
3181.00,0.0042
3180.00,0.0042
3179.00,0.0042
3178.00,0.0042
3177.00,0.0042
3176.00,0.0041
3175.00,0.0041
3174.00,0.0041
3173.00,0.0041
3172.00,0.0041
3171.00,0.0040
3170.00,0.0040
3169.00,0.0040
3168.00,0.0040
3167.00,0.0040
3166.00,0.0040
3165.00,0.0040
3164.00,0.0040
3163.00,0.0040
3162.00,0.0040
3161.00,0.0040
3160.00,0.0040
3159.00,0.0040
3158.00,0.0040
3157.00,0.0041
3156.00,0.0041
3155.00,0.0040
3154.00,0.0040
3153.00,0.0040
3152.00,0.0039
3151.00,0.0039
3150.00,0.0039
3149.00,0.0039
3148.00,0.0040
3147.00,0.0040
3146.00,0.0039
3145.00,0.0039
3144.00,0.0039
3143.00,0.0039
3142.00,0.0039
3141.00,0.0039
3140.00,0.0039
3139.00,0.0039
3138.00,0.0038
3137.00,0.0038
3136.00,0.0038
3135.00,0.0037
3134.00,0.0037
3133.00,0.0037
3132.00,0.0037
3131.00,0.0037
3130.00,0.0037
3129.00,0.0037
3128.00,0.0037
3127.00,0.0036
3126.00,0.0036
3125.00,0.0036
3124.00,0.0035
3123.00,0.0035
3122.00,0.0034
3121.00,0.0034
3120.00,0.0034
3119.00,0.0034
3118.00,0.0033
3117.00,0.0033
3116.00,0.0033
3115.00,0.0033
3114.00,0.0033
3113.00,0.0033
3112.00,0.0033
3111.00,0.0033
3110.00,0.0033
3109.00,0.0033
3108.00,0.0033
3107.00,0.0033
3106.00,0.0033
3105.00,0.0033
3104.00,0.0033
3103.00,0.0033
3102.00,0.0033
3101.00,0.0033
3100.00,0.0033
3099.00,0.0033
3098.00,0.0033
3097.00,0.0033
3096.00,0.0033
3095.00,0.0033
3094.00,0.0033
3093.00,0.0033
3092.00,0.0033
3091.00,0.0033
3090.00,0.0032
3089.00,0.0032
3088.00,0.0032
3087.00,0.0032
3086.00,0.0032
3085.00,0.0032
3084.00,0.0032
3083.00,0.0032
3082.00,0.0032
3081.00,0.0032
3080.00,0.0032
3079.00,0.0032
3078.00,0.0032
3077.00,0.0033
3076.00,0.0033
3075.00,0.0033
3074.00,0.0033
3073.00,0.0033
3072.00,0.0034
3071.00,0.0034
3070.00,0.0034
3069.00,0.0035
3068.00,0.0035
3067.00,0.0035
3066.00,0.0035
3065.00,0.0035
3064.00,0.0036
3063.00,0.0036
3062.00,0.0036
3061.00,0.0036
3060.00,0.0036
3059.00,0.0036
3058.00,0.0036
3057.00,0.0037
3056.00,0.0037
3055.00,0.0037
3054.00,0.0037
3053.00,0.0037
3052.00,0.0037
3051.00,0.0037
3050.00,0.0037
3049.00,0.0037
3048.00,0.0038
3047.00,0.0038
3046.00,0.0038
3045.00,0.0038
3044.00,0.0038
3043.00,0.0038
3042.00,0.0039
3041.00,0.0039
3040.00,0.0040
3039.00,0.0040
3038.00,0.0040
3037.00,0.0040
3036.00,0.0040
3035.00,0.0040
3034.00,0.0040
3033.00,0.0040
3032.00,0.0040
3031.00,0.0041
3030.00,0.0041
3029.00,0.0041
3028.00,0.0041
3027.00,0.0041
3026.00,0.0042
3025.00,0.0042
3024.00,0.0042
3023.00,0.0042
3022.00,0.0042
3021.00,0.0041
3020.00,0.0040
3019.00,0.0039
3018.00,0.0038
3017.00,0.0037
3016.00,0.0035
3015.00,0.0034
3014.00,0.0032
3013.00,0.0029
3012.00,0.0025
3011.00,0.0021
3010.00,0.0017
3009.00,0.0012
3008.00,0.0006
3007.00,0.0000
3006.00,-0.0006
3005.00,-0.0013
3004.00,-0.0019
3003.00,-0.0025
3002.00,-0.0032
3001.00,-0.0037
3000.00,-0.0042
2999.00,-0.0046
2998.00,-0.0049
2997.00,-0.0051
2996.00,-0.0052
2995.00,-0.0053
2994.00,-0.0053
2993.00,-0.0052
2992.00,-0.0051
2991.00,-0.0049
2990.00,-0.0047
2989.00,-0.0044
2988.00,-0.0042
2987.00,-0.0041
2986.00,-0.0045
2985.00,-0.0054
2984.00,-0.0067
2983.00,-0.0077
2982.00,-0.0078
2981.00,-0.0064
2980.00,-0.0036
2979.00,-0.0000
2978.00,0.0040
2977.00,0.0081
2976.00,0.0121
2975.00,0.0161
2974.00,0.0201
2973.00,0.0245
2972.00,0.0298
2971.00,0.0361
2970.00,0.0436
2969.00,0.0518
2968.00,0.0605
2967.00,0.0694
2966.00,0.0783
2965.00,0.0871
2964.00,0.0955
2963.00,0.1030
2962.00,0.1094
2961.00,0.1147
2960.00,0.1192
2959.00,0.1232
2958.00,0.1276
2957.00,0.1329
2956.00,0.1397
2955.00,0.1481
2954.00,0.1578
2953.00,0.1684
2952.00,0.1785
2951.00,0.1870
2950.00,0.1922
2949.00,0.1931
2948.00,0.1890
2947.00,0.1804
2946.00,0.1682
2945.00,0.1543
2944.00,0.1402
2943.00,0.1275
2942.00,0.1172
2941.00,0.1095
2940.00,0.1046
2939.00,0.1022
2938.00,0.1021
2937.00,0.1041
2936.00,0.1079
2935.00,0.1132
2934.00,0.1201
2933.00,0.1284
2932.00,0.1381
2931.00,0.1489
2930.00,0.1606
2929.00,0.1729
2928.00,0.1853
2927.00,0.1976
2926.00,0.2096
2925.00,0.2211
2924.00,0.2325
2923.00,0.2437
2922.00,0.2551
2921.00,0.2662
2920.00,0.2764
2919.00,0.2846
2918.00,0.2896
2917.00,0.2904
2916.00,0.2866
2915.00,0.2787
2914.00,0.2678
2913.00,0.2553
2912.00,0.2425
2911.00,0.2302
2910.00,0.2188
2909.00,0.2084
2908.00,0.1988
2907.00,0.1898
2906.00,0.1812
2905.00,0.1728
2904.00,0.1646
2903.00,0.1566
2902.00,0.1488
2901.00,0.1413
2900.00,0.1342
2899.00,0.1276
2898.00,0.1215
2897.00,0.1160
2896.00,0.1111
2895.00,0.1069
2894.00,0.1035
2893.00,0.1008
2892.00,0.0988
2891.00,0.0976
2890.00,0.0970
2889.00,0.0971
2888.00,0.0976
2887.00,0.0985
2886.00,0.0997
2885.00,0.1014
2884.00,0.1036
2883.00,0.1065
2882.00,0.1099
2881.00,0.1137
2880.00,0.1174
2879.00,0.1206
2878.00,0.1228
2877.00,0.1238
2876.00,0.1238
2875.00,0.1232
2874.00,0.1226
2873.00,0.1226
2872.00,0.1235
2871.00,0.1254
2870.00,0.1279
2869.00,0.1307
2868.00,0.1328
2867.00,0.1333
2866.00,0.1312
2865.00,0.1262
2864.00,0.1182
2863.00,0.1084
2862.00,0.0980
2861.00,0.0880
2860.00,0.0794
2859.00,0.0725
2858.00,0.0672
2857.00,0.0633
2856.00,0.0607
2855.00,0.0591
2854.00,0.0584
2853.00,0.0585
2852.00,0.0593
2851.00,0.0608
2850.00,0.0629
2849.00,0.0657
2848.00,0.0692
2847.00,0.0734
2846.00,0.0786
2845.00,0.0846
2844.00,0.0914
2843.00,0.0988
2842.00,0.1062
2841.00,0.1131
2840.00,0.1187
2839.00,0.1221
2838.00,0.1226
2837.00,0.1197
2836.00,0.1134
2835.00,0.1044
2834.00,0.0937
2833.00,0.0827
2832.00,0.0721
2831.00,0.0628
2830.00,0.0549
2829.00,0.0484
2828.00,0.0432
2827.00,0.0390
2826.00,0.0356
2825.00,0.0328
2824.00,0.0304
2823.00,0.0285
2822.00,0.0268
2821.00,0.0254
2820.00,0.0241
2819.00,0.0230
2818.00,0.0221
2817.00,0.0213
2816.00,0.0206
2815.00,0.0200
2814.00,0.0194
2813.00,0.0188
2812.00,0.0183
2811.00,0.0177
2810.00,0.0172
2809.00,0.0166
2808.00,0.0160
2807.00,0.0153
2806.00,0.0146
2805.00,0.0139
2804.00,0.0132
2803.00,0.0126
2802.00,0.0121
2801.00,0.0116
2800.00,0.0113
2799.00,0.0109
2798.00,0.0106
2797.00,0.0104
2796.00,0.0102
2795.00,0.0099
2794.00,0.0097
2793.00,0.0094
2792.00,0.0091
2791.00,0.0088
2790.00,0.0086
2789.00,0.0083
2788.00,0.0080
2787.00,0.0077
2786.00,0.0075
2785.00,0.0072
2784.00,0.0070
2783.00,0.0068
2782.00,0.0066
2781.00,0.0065
2780.00,0.0063
2779.00,0.0061
2778.00,0.0060
2777.00,0.0059
2776.00,0.0058
2775.00,0.0057
2774.00,0.0056
2773.00,0.0056
2772.00,0.0055
2771.00,0.0054
2770.00,0.0054
2769.00,0.0053
2768.00,0.0053
2767.00,0.0052
2766.00,0.0052
2765.00,0.0052
2764.00,0.0052
2763.00,0.0052
2762.00,0.0052
2761.00,0.0052
2760.00,0.0051
2759.00,0.0050
2758.00,0.0050
2757.00,0.0050
2756.00,0.0050
2755.00,0.0050
2754.00,0.0050
2753.00,0.0050
2752.00,0.0049
2751.00,0.0049
2750.00,0.0049
2749.00,0.0050
2748.00,0.0050
2747.00,0.0050
2746.00,0.0051
2745.00,0.0051
2744.00,0.0052
2743.00,0.0053
2742.00,0.0054
2741.00,0.0055
2740.00,0.0056
2739.00,0.0058
2738.00,0.0059
2737.00,0.0061
2736.00,0.0063
2735.00,0.0065
2734.00,0.0067
2733.00,0.0069
2732.00,0.0070
2731.00,0.0072
2730.00,0.0075
2729.00,0.0077
2728.00,0.0080
2727.00,0.0084
2726.00,0.0087
2725.00,0.0089
2724.00,0.0091
2723.00,0.0092
2722.00,0.0091
2721.00,0.0089
2720.00,0.0085
2719.00,0.0082
2718.00,0.0079
2717.00,0.0075
2716.00,0.0072
2715.00,0.0069
2714.00,0.0066
2713.00,0.0064
2712.00,0.0062
2711.00,0.0060
2710.00,0.0058
2709.00,0.0056
2708.00,0.0054
2707.00,0.0053
2706.00,0.0052
2705.00,0.0050
2704.00,0.0049
2703.00,0.0048
2702.00,0.0047
2701.00,0.0046
2700.00,0.0046
2699.00,0.0045
2698.00,0.0044
2697.00,0.0044
2696.00,0.0044
2695.00,0.0044
2694.00,0.0043
2693.00,0.0043
2692.00,0.0043
2691.00,0.0043
2690.00,0.0043
2689.00,0.0043
2688.00,0.0043
2687.00,0.0043
2686.00,0.0043
2685.00,0.0043
2684.00,0.0043
2683.00,0.0043
2682.00,0.0043
2681.00,0.0043
2680.00,0.0044
2679.00,0.0044
2678.00,0.0044
2677.00,0.0044
2676.00,0.0044
2675.00,0.0044
2674.00,0.0043
2673.00,0.0043
2672.00,0.0042
2671.00,0.0042
2670.00,0.0042
2669.00,0.0042
2668.00,0.0042
2667.00,0.0042
2666.00,0.0042
2665.00,0.0042
2664.00,0.0043
2663.00,0.0044
2662.00,0.0045
2661.00,0.0045
2660.00,0.0046
2659.00,0.0046
2658.00,0.0046
2657.00,0.0045
2656.00,0.0045
2655.00,0.0044
2654.00,0.0044
2653.00,0.0043
2652.00,0.0042
2651.00,0.0042
2650.00,0.0041
2649.00,0.0041
2648.00,0.0041
2647.00,0.0040
2646.00,0.0039
2645.00,0.0039
2644.00,0.0038
2643.00,0.0038
2642.00,0.0038
2641.00,0.0038
2640.00,0.0038
2639.00,0.0037
2638.00,0.0037
2637.00,0.0037
2636.00,0.0037
2635.00,0.0037
2634.00,0.0037
2633.00,0.0037
2632.00,0.0037
2631.00,0.0037
2630.00,0.0038
2629.00,0.0038
2628.00,0.0038
2627.00,0.0038
2626.00,0.0038
2625.00,0.0038
2624.00,0.0039
2623.00,0.0039
2622.00,0.0040
2621.00,0.0040
2620.00,0.0040
2619.00,0.0040
2618.00,0.0041
2617.00,0.0040
2616.00,0.0040
2615.00,0.0040
2614.00,0.0040
2613.00,0.0040
2612.00,0.0040
2611.00,0.0040
2610.00,0.0039
2609.00,0.0038
2608.00,0.0037
2607.00,0.0036
2606.00,0.0035
2605.00,0.0034
2604.00,0.0034
2603.00,0.0034
2602.00,0.0034
2601.00,0.0034
2600.00,0.0034
2599.00,0.0034
2598.00,0.0034
2597.00,0.0034
2596.00,0.0034
2595.00,0.0034
2594.00,0.0034
2593.00,0.0035
2592.00,0.0035
2591.00,0.0036
2590.00,0.0037
2589.00,0.0038
2588.00,0.0039
2587.00,0.0041
2586.00,0.0042
2585.00,0.0042
2584.00,0.0043
2583.00,0.0043
2582.00,0.0043
2581.00,0.0043
2580.00,0.0041
2579.00,0.0040
2578.00,0.0039
2577.00,0.0038
2576.00,0.0037
2575.00,0.0036
2574.00,0.0035
2573.00,0.0034
2572.00,0.0033
2571.00,0.0032
2570.00,0.0031
2569.00,0.0030
2568.00,0.0029
2567.00,0.0028
2566.00,0.0028
2565.00,0.0028
2564.00,0.0027
2563.00,0.0026
2562.00,0.0026
2561.00,0.0025
2560.00,0.0025
2559.00,0.0025
2558.00,0.0025
2557.00,0.0025
2556.00,0.0025
2555.00,0.0025
2554.00,0.0024
2553.00,0.0023
2552.00,0.0022
2551.00,0.0022
2550.00,0.0022
2549.00,0.0022
2548.00,0.0022
2547.00,0.0021
2546.00,0.0020
2545.00,0.0020
2544.00,0.0019
2543.00,0.0019
2542.00,0.0019
2541.00,0.0019
2540.00,0.0019
2539.00,0.0019
2538.00,0.0018
2537.00,0.0018
2536.00,0.0017
2535.00,0.0018
2534.00,0.0018
2533.00,0.0018
2532.00,0.0018
2531.00,0.0018
2530.00,0.0017
2529.00,0.0017
2528.00,0.0016
2527.00,0.0016
2526.00,0.0016
2525.00,0.0016
2524.00,0.0016
2523.00,0.0015
2522.00,0.0014
2521.00,0.0013
2520.00,0.0013
2519.00,0.0012
2518.00,0.0012
2517.00,0.0012
2516.00,0.0012
2515.00,0.0012
2514.00,0.0012
2513.00,0.0012
2512.00,0.0012
2511.00,0.0012
2510.00,0.0012
2509.00,0.0012
2508.00,0.0012
2507.00,0.0012
2506.00,0.0011
2505.00,0.0011
2504.00,0.0011
2503.00,0.0011
2502.00,0.0012
2501.00,0.0011
2500.00,0.0011
2499.00,0.0011
2498.00,0.0010
2497.00,0.0010
2496.00,0.0010
2495.00,0.0011
2494.00,0.0011
2493.00,0.0011
2492.00,0.0011
2491.00,0.0012
2490.00,0.0012
2489.00,0.0012
2488.00,0.0012
2487.00,0.0013
2486.00,0.0013
2485.00,0.0012
2484.00,0.0012
2483.00,0.0012
2482.00,0.0012
2481.00,0.0012
2480.00,0.0012
2479.00,0.0012
2478.00,0.0011
2477.00,0.0011
2476.00,0.0010
2475.00,0.0010
2474.00,0.0010
2473.00,0.0010
2472.00,0.0010
2471.00,0.0010
2470.00,0.0010
2469.00,0.0010
2468.00,0.0011
2467.00,0.0011
2466.00,0.0011
2465.00,0.0011
2464.00,0.0011
2463.00,0.0010
2462.00,0.0010
2461.00,0.0010
2460.00,0.0011
2459.00,0.0011
2458.00,0.0011
2457.00,0.0011
2456.00,0.0012
2455.00,0.0012
2454.00,0.0013
2453.00,0.0013
2452.00,0.0013
2451.00,0.0013
2450.00,0.0013
2449.00,0.0013
2448.00,0.0013
2447.00,0.0013
2446.00,0.0014
2445.00,0.0013
2444.00,0.0013
2443.00,0.0012
2442.00,0.0012
2441.00,0.0011
2440.00,0.0012
2439.00,0.0012
2438.00,0.0012
2437.00,0.0012
2436.00,0.0012
2435.00,0.0013
2434.00,0.0013
2433.00,0.0014
2432.00,0.0014
2431.00,0.0014
2430.00,0.0013
2429.00,0.0014
2428.00,0.0014
2427.00,0.0014
2426.00,0.0015
2425.00,0.0014
2424.00,0.0014
2423.00,0.0013
2422.00,0.0013
2421.00,0.0013
2420.00,0.0013
2419.00,0.0013
2418.00,0.0013
2417.00,0.0013
2416.00,0.0012
2415.00,0.0011
2414.00,0.0011
2413.00,0.0010
2412.00,0.0010
2411.00,0.0010
2410.00,0.0010
2409.00,0.0010
2408.00,0.0010
2407.00,0.0010
2406.00,0.0010
2405.00,0.0010
2404.00,0.0011
2403.00,0.0011
2402.00,0.0011
2401.00,0.0010
2400.00,0.0010
2399.00,0.0010
2398.00,0.0010
2397.00,0.0009
2396.00,0.0009
2395.00,0.0008
2394.00,0.0008
2393.00,0.0009
2392.00,0.0009
2391.00,0.0009
2390.00,0.0009
2389.00,0.0008
2388.00,0.0008
2387.00,0.0008
2386.00,0.0008
2385.00,0.0008
2384.00,0.0007
2383.00,0.0006
2382.00,0.0006
2381.00,0.0006
2380.00,0.0006
2379.00,0.0006
2378.00,0.0006
2377.00,0.0005
2376.00,0.0004
2375.00,0.0004
2374.00,0.0005
2373.00,0.0005
2372.00,0.0006
2371.00,0.0006
2370.00,0.0005
2369.00,0.0004
2368.00,0.0003
2367.00,0.0003
2366.00,0.0003
2365.00,0.0004
2364.00,0.0004
2363.00,0.0005
2362.00,0.0005
2361.00,0.0005
2360.00,0.0005
2359.00,0.0006
2358.00,0.0006
2357.00,0.0007
2356.00,0.0007
2355.00,0.0006
2354.00,0.0005
2353.00,0.0004
2352.00,0.0002
2351.00,0.0002
2350.00,0.0003
2349.00,0.0005
2348.00,0.0007
2347.00,0.0008
2346.00,0.0008
2345.00,0.0007
2344.00,0.0006
2343.00,0.0006
2342.00,0.0006
2341.00,0.0006
2340.00,0.0007
2339.00,0.0007
2338.00,0.0008
2337.00,0.0008
2336.00,0.0008
2335.00,0.0008
2334.00,0.0008
2333.00,0.0007
2332.00,0.0006
2331.00,0.0006
2330.00,0.0006
2329.00,0.0007
2328.00,0.0010
2327.00,0.0013
2326.00,0.0016
2325.00,0.0019
2324.00,0.0019
2323.00,0.0018
2322.00,0.0016
2321.00,0.0014
2320.00,0.0013
2319.00,0.0012
2318.00,0.0011
2317.00,0.0011
2316.00,0.0010
2315.00,0.0009
2314.00,0.0008
2313.00,0.0008
2312.00,0.0008
2311.00,0.0007
2310.00,0.0007
2309.00,0.0007
2308.00,0.0006
2307.00,0.0006
2306.00,0.0007
2305.00,0.0008
2304.00,0.0008
2303.00,0.0009
2302.00,0.0009
2301.00,0.0009
2300.00,0.0010
2299.00,0.0011
2298.00,0.0012
2297.00,0.0013
2296.00,0.0013
2295.00,0.0013
2294.00,0.0014
2293.00,0.0014
2292.00,0.0016
2291.00,0.0016
2290.00,0.0017
2289.00,0.0018
2288.00,0.0018
2287.00,0.0019
2286.00,0.0019
2285.00,0.0020
2284.00,0.0019
2283.00,0.0019
2282.00,0.0019
2281.00,0.0018
2280.00,0.0018
2279.00,0.0017
2278.00,0.0016
2277.00,0.0015
2276.00,0.0015
2275.00,0.0014
2274.00,0.0014
2273.00,0.0014
2272.00,0.0014
2271.00,0.0015
2270.00,0.0016
2269.00,0.0016
2268.00,0.0016
2267.00,0.0014
2266.00,0.0012
2265.00,0.0011
2264.00,0.0011
2263.00,0.0011
2262.00,0.0010
2261.00,0.0011
2260.00,0.0011
2259.00,0.0012
2258.00,0.0013
2257.00,0.0012
2256.00,0.0011
2255.00,0.0011
2254.00,0.0010
2253.00,0.0011
2252.00,0.0012
2251.00,0.0012
2250.00,0.0012
2249.00,0.0013
2248.00,0.0013
2247.00,0.0013
2246.00,0.0011
2245.00,0.0010
2244.00,0.0009
2243.00,0.0010
2242.00,0.0012
2241.00,0.0013
2240.00,0.0014
2239.00,0.0013
2238.00,0.0011
2237.00,0.0010
2236.00,0.0009
2235.00,0.0009
2234.00,0.0009
2233.00,0.0010
2232.00,0.0010
2231.00,0.0011
2230.00,0.0011
2229.00,0.0011
2228.00,0.0011
2227.00,0.0009
2226.00,0.0008
2225.00,0.0007
2224.00,0.0006
2223.00,0.0007
2222.00,0.0008
2221.00,0.0010
2220.00,0.0011
2219.00,0.0011
2218.00,0.0011
2217.00,0.0010
2216.00,0.0009
2215.00,0.0009
2214.00,0.0010
2213.00,0.0011
2212.00,0.0010
2211.00,0.0009
2210.00,0.0007
2209.00,0.0007
2208.00,0.0007
2207.00,0.0006
2206.00,0.0006
2205.00,0.0006
2204.00,0.0007
2203.00,0.0008
2202.00,0.0009
2201.00,0.0009
2200.00,0.0008
2199.00,0.0007
2198.00,0.0006
2197.00,0.0006
2196.00,0.0007
2195.00,0.0009
2194.00,0.0011
2193.00,0.0011
2192.00,0.0010
2191.00,0.0008
2190.00,0.0007
2189.00,0.0008
2188.00,0.0009
2187.00,0.0010
2186.00,0.0010
2185.00,0.0010
2184.00,0.0010
2183.00,0.0009
2182.00,0.0009
2181.00,0.0009
2180.00,0.0010
2179.00,0.0012
2178.00,0.0014
2177.00,0.0015
2176.00,0.0015
2175.00,0.0012
2174.00,0.0008
2173.00,0.0006
2172.00,0.0007
2171.00,0.0010
2170.00,0.0015
2169.00,0.0020
2168.00,0.0024
2167.00,0.0025
2166.00,0.0024
2165.00,0.0024
2164.00,0.0024
2163.00,0.0023
2162.00,0.0021
2161.00,0.0015
2160.00,0.0005
2159.00,-0.0009
2158.00,-0.0020
2157.00,-0.0024
2156.00,-0.0021
2155.00,-0.0017
2154.00,-0.0014
2153.00,-0.0014
2152.00,-0.0015
2151.00,-0.0015
2150.00,-0.0014
2149.00,-0.0011
2148.00,-0.0009
2147.00,-0.0009
2146.00,-0.0010
2145.00,-0.0012
2144.00,-0.0012
2143.00,-0.0011
2142.00,-0.0009
2141.00,-0.0007
2140.00,-0.0005
2139.00,-0.0005
2138.00,-0.0006
2137.00,-0.0009
2136.00,-0.0012
2135.00,-0.0015
2134.00,-0.0017
2133.00,-0.0017
2132.00,-0.0015
2131.00,-0.0012
2130.00,-0.0011
2129.00,-0.0010
2128.00,-0.0009
2127.00,-0.0008
2126.00,-0.0007
2125.00,-0.0006
2124.00,-0.0005
2123.00,-0.0004
2122.00,-0.0003
2121.00,-0.0002
2120.00,-0.0001
2119.00,-0.0001
2118.00,-0.0000
2117.00,0.0000
2116.00,0.0001
2115.00,0.0002
2114.00,0.0002
2113.00,0.0003
2112.00,0.0003
2111.00,0.0003
2110.00,0.0003
2109.00,0.0003
2108.00,0.0002
2107.00,0.0002
2106.00,0.0002
2105.00,0.0002
2104.00,0.0003
2103.00,0.0003
2102.00,0.0003
2101.00,0.0003
2100.00,0.0003
2099.00,0.0002
2098.00,-0.0000
2097.00,-0.0003
2096.00,-0.0005
2095.00,-0.0006
2094.00,-0.0006
2093.00,-0.0004
2092.00,-0.0003
2091.00,-0.0001
2090.00,-0.0001
2089.00,-0.0001
2088.00,-0.0000
2087.00,0.0000
2086.00,0.0000
2085.00,0.0001
2084.00,0.0001
2083.00,0.0001
2082.00,0.0001
2081.00,0.0002
2080.00,0.0003
2079.00,0.0004
2078.00,0.0005
2077.00,0.0005
2076.00,0.0005
2075.00,0.0004
2074.00,0.0003
2073.00,0.0001
2072.00,-0.0000
2071.00,-0.0001
2070.00,-0.0001
2069.00,0.0000
2068.00,0.0001
2067.00,0.0001
2066.00,0.0000
2065.00,-0.0001
2064.00,-0.0001
2063.00,-0.0001
2062.00,0.0000
2061.00,0.0002
2060.00,0.0004
2059.00,0.0006
2058.00,0.0006
2057.00,0.0007
2056.00,0.0006
2055.00,0.0006
2054.00,0.0007
2053.00,0.0010
2052.00,0.0014
2051.00,0.0017
2050.00,0.0016
2049.00,0.0013
2048.00,0.0008
2047.00,0.0003
2046.00,0.0000
2045.00,-0.0001
2044.00,0.0000
2043.00,0.0002
2042.00,0.0003
2041.00,0.0003
2040.00,0.0002
2039.00,0.0001
2038.00,0.0001
2037.00,0.0003
2036.00,0.0004
2035.00,0.0003
2034.00,0.0000
2033.00,-0.0003
2032.00,-0.0006
2031.00,-0.0006
2030.00,-0.0005
2029.00,-0.0002
2028.00,-0.0000
2027.00,0.0000
2026.00,-0.0001
2025.00,-0.0002
2024.00,-0.0003
2023.00,-0.0004
2022.00,-0.0006
2021.00,-0.0008
2020.00,-0.0009
2019.00,-0.0009
2018.00,-0.0008
2017.00,-0.0006
2016.00,-0.0006
2015.00,-0.0007
2014.00,-0.0010
2013.00,-0.0011
2012.00,-0.0011
2011.00,-0.0009
2010.00,-0.0007
2009.00,-0.0006
2008.00,-0.0006
2007.00,-0.0008
2006.00,-0.0011
2005.00,-0.0013
2004.00,-0.0016
2003.00,-0.0017
2002.00,-0.0017
2001.00,-0.0015
2000.00,-0.0012
1999.00,-0.0011
1998.00,-0.0010
1997.00,-0.0009
1996.00,-0.0008
1995.00,-0.0007
1994.00,-0.0007
1993.00,-0.0006
1992.00,-0.0005
1991.00,-0.0006
1990.00,-0.0007
1989.00,-0.0007
1988.00,-0.0006
1987.00,-0.0004
1986.00,-0.0000
1985.00,0.0004
1984.00,0.0008
1983.00,0.0012
1982.00,0.0015
1981.00,0.0018
1980.00,0.0018
1979.00,0.0013
1978.00,0.0005
1977.00,-0.0005
1976.00,-0.0012
1975.00,-0.0016
1974.00,-0.0017
1973.00,-0.0016
1972.00,-0.0016
1971.00,-0.0017
1970.00,-0.0016
1969.00,-0.0012
1968.00,-0.0009
1967.00,-0.0007
1966.00,-0.0007
1965.00,-0.0010
1964.00,-0.0012
1963.00,-0.0013
1962.00,-0.0014
1961.00,-0.0015
1960.00,-0.0015
1959.00,-0.0014
1958.00,-0.0013
1957.00,-0.0012
1956.00,-0.0012
1955.00,-0.0012
1954.00,-0.0012
1953.00,-0.0012
1952.00,-0.0010
1951.00,-0.0009
1950.00,-0.0008
1949.00,-0.0008
1948.00,-0.0008
1947.00,-0.0010
1946.00,-0.0012
1945.00,-0.0012
1944.00,-0.0011
1943.00,-0.0010
1942.00,-0.0009
1941.00,-0.0008
1940.00,-0.0007
1939.00,-0.0006
1938.00,-0.0004
1937.00,-0.0004
1936.00,-0.0004
1935.00,-0.0005
1934.00,-0.0006
1933.00,-0.0008
1932.00,-0.0009
1931.00,-0.0010
1930.00,-0.0010
1929.00,-0.0009
1928.00,-0.0008
1927.00,-0.0007
1926.00,-0.0006
1925.00,-0.0005
1924.00,-0.0005
1923.00,-0.0005
1922.00,-0.0004
1921.00,-0.0003
1920.00,-0.0002
1919.00,-0.0001
1918.00,-0.0000
1917.00,0.0000
1916.00,0.0000
1915.00,-0.0000
1914.00,-0.0001
1913.00,-0.0002
1912.00,-0.0001
1911.00,-0.0001
1910.00,-0.0000
1909.00,0.0000
1908.00,-0.0000
1907.00,-0.0001
1906.00,-0.0002
1905.00,-0.0002
1904.00,-0.0002
1903.00,-0.0001
1902.00,-0.0001
1901.00,-0.0001
1900.00,-0.0001
1899.00,-0.0001
1898.00,-0.0001
1897.00,-0.0001
1896.00,0.0000
1895.00,0.0001
1894.00,0.0001
1893.00,0.0001
1892.00,0.0000
1891.00,0.0001
1890.00,0.0001
1889.00,0.0002
1888.00,0.0002
1887.00,0.0001
1886.00,0.0001
1885.00,0.0001
1884.00,0.0001
1883.00,0.0001
1882.00,0.0001
1881.00,0.0001
1880.00,0.0001
1879.00,0.0001
1878.00,0.0001
1877.00,-0.0000
1876.00,-0.0001
1875.00,-0.0002
1874.00,-0.0001
1873.00,-0.0000
1872.00,0.0000
1871.00,0.0000
1870.00,0.0000
1869.00,0.0001
1868.00,0.0002
1867.00,0.0002
1866.00,0.0002
1865.00,0.0001
1864.00,0.0000
1863.00,0.0000
1862.00,0.0000
1861.00,0.0000
1860.00,0.0000
1859.00,0.0000
1858.00,0.0001
1857.00,0.0002
1856.00,0.0003
1855.00,0.0003
1854.00,0.0003
1853.00,0.0003
1852.00,0.0002
1851.00,0.0002
1850.00,0.0002
1849.00,0.0002
1848.00,0.0003
1847.00,0.0002
1846.00,0.0002
1845.00,0.0002
1844.00,0.0003
1843.00,0.0004
1842.00,0.0004
1841.00,0.0004
1840.00,0.0004
1839.00,0.0004
1838.00,0.0004
1837.00,0.0004
1836.00,0.0004
1835.00,0.0004
1834.00,0.0004
1833.00,0.0004
1832.00,0.0004
1831.00,0.0005
1830.00,0.0005
1829.00,0.0005
1828.00,0.0006
1827.00,0.0006
1826.00,0.0006
1825.00,0.0006
1824.00,0.0006
1823.00,0.0006
1822.00,0.0005
1821.00,0.0005
1820.00,0.0004
1819.00,0.0003
1818.00,0.0002
1817.00,0.0002
1816.00,0.0002
1815.00,0.0003
1814.00,0.0003
1813.00,0.0003
1812.00,0.0003
1811.00,0.0004
1810.00,0.0005
1809.00,0.0005
1808.00,0.0006
1807.00,0.0006
1806.00,0.0006
1805.00,0.0005
1804.00,0.0005
1803.00,0.0005
1802.00,0.0005
1801.00,0.0006
1800.00,0.0006
1799.00,0.0006
1798.00,0.0006
1797.00,0.0006
1796.00,0.0007
1795.00,0.0007
1794.00,0.0007
1793.00,0.0008
1792.00,0.0008
1791.00,0.0008
1790.00,0.0008
1789.00,0.0008
1788.00,0.0008
1787.00,0.0008
1786.00,0.0008
1785.00,0.0008
1784.00,0.0008
1783.00,0.0008
1782.00,0.0008
1781.00,0.0009
1780.00,0.0009
1779.00,0.0010
1778.00,0.0010
1777.00,0.0009
1776.00,0.0008
1775.00,0.0008
1774.00,0.0007
1773.00,0.0008
1772.00,0.0009
1771.00,0.0010
1770.00,0.0010
1769.00,0.0010
1768.00,0.0011
1767.00,0.0011
1766.00,0.0011
1765.00,0.0011
1764.00,0.0011
1763.00,0.0012
1762.00,0.0013
1761.00,0.0014
1760.00,0.0015
1759.00,0.0016
1758.00,0.0018
1757.00,0.0019
1756.00,0.0020
1755.00,0.0021
1754.00,0.0021
1753.00,0.0022
1752.00,0.0023
1751.00,0.0025
1750.00,0.0027
1749.00,0.0029
1748.00,0.0031
1747.00,0.0033
1746.00,0.0033
1745.00,0.0034
1744.00,0.0034
1743.00,0.0035
1742.00,0.0035
1741.00,0.0036
1740.00,0.0036
1739.00,0.0035
1738.00,0.0034
1737.00,0.0033
1736.00,0.0032
1735.00,0.0031
1734.00,0.0032
1733.00,0.0032
1732.00,0.0033
1731.00,0.0032
1730.00,0.0032
1729.00,0.0032
1728.00,0.0031
1727.00,0.0031
1726.00,0.0030
1725.00,0.0030
1724.00,0.0030
1723.00,0.0030
1722.00,0.0030
1721.00,0.0030
1720.00,0.0029
1719.00,0.0028
1718.00,0.0027
1717.00,0.0028
1716.00,0.0029
1715.00,0.0030
1714.00,0.0030
1713.00,0.0030
1712.00,0.0031
1711.00,0.0031
1710.00,0.0032
1709.00,0.0032
1708.00,0.0033
1707.00,0.0034
1706.00,0.0035
1705.00,0.0037
1704.00,0.0037
1703.00,0.0037
1702.00,0.0037
1701.00,0.0037
1700.00,0.0038
1699.00,0.0038
1698.00,0.0038
1697.00,0.0039
1696.00,0.0042
1695.00,0.0045
1694.00,0.0046
1693.00,0.0047
1692.00,0.0048
1691.00,0.0049
1690.00,0.0050
1689.00,0.0052
1688.00,0.0053
1687.00,0.0054
1686.00,0.0054
1685.00,0.0056
1684.00,0.0058
1683.00,0.0060
1682.00,0.0061
1681.00,0.0062
1680.00,0.0062
1679.00,0.0063
1678.00,0.0063
1677.00,0.0064
1676.00,0.0065
1675.00,0.0067
1674.00,0.0068
1673.00,0.0069
1672.00,0.0070
1671.00,0.0071
1670.00,0.0074
1669.00,0.0076
1668.00,0.0077
1667.00,0.0078
1666.00,0.0079
1665.00,0.0079
1664.00,0.0080
1663.00,0.0081
1662.00,0.0082
1661.00,0.0083
1660.00,0.0083
1659.00,0.0084
1658.00,0.0084
1657.00,0.0085
1656.00,0.0086
1655.00,0.0086
1654.00,0.0086
1653.00,0.0087
1652.00,0.0086
1651.00,0.0085
1650.00,0.0084
1649.00,0.0084
1648.00,0.0083
1647.00,0.0083
1646.00,0.0083
1645.00,0.0083
1644.00,0.0083
1643.00,0.0082
1642.00,0.0082
1641.00,0.0081
1640.00,0.0081
1639.00,0.0081
1638.00,0.0080
1637.00,0.0080
1636.00,0.0079
1635.00,0.0079
1634.00,0.0078
1633.00,0.0077
1632.00,0.0076
1631.00,0.0076
1630.00,0.0075
1629.00,0.0074
1628.00,0.0073
1627.00,0.0072
1626.00,0.0071
1625.00,0.0071
1624.00,0.0070
1623.00,0.0070
1622.00,0.0069
1621.00,0.0068
1620.00,0.0067
1619.00,0.0066
1618.00,0.0065
1617.00,0.0064
1616.00,0.0064
1615.00,0.0063
1614.00,0.0063
1613.00,0.0063
1612.00,0.0062
1611.00,0.0062
1610.00,0.0061
1609.00,0.0061
1608.00,0.0061
1607.00,0.0061
1606.00,0.0061
1605.00,0.0061
1604.00,0.0060
1603.00,0.0060
1602.00,0.0060
1601.00,0.0060
1600.00,0.0061
1599.00,0.0061
1598.00,0.0061
1597.00,0.0061
1596.00,0.0061
1595.00,0.0061
1594.00,0.0061
1593.00,0.0062
1592.00,0.0063
1591.00,0.0063
1590.00,0.0064
1589.00,0.0065
1588.00,0.0065
1587.00,0.0066
1586.00,0.0066
1585.00,0.0068
1584.00,0.0069
1583.00,0.0071
1582.00,0.0073
1581.00,0.0075
1580.00,0.0077
1579.00,0.0078
1578.00,0.0079
1577.00,0.0079
1576.00,0.0079
1575.00,0.0078
1574.00,0.0077
1573.00,0.0076
1572.00,0.0075
1571.00,0.0074
1570.00,0.0073
1569.00,0.0073
1568.00,0.0072
1567.00,0.0072
1566.00,0.0072
1565.00,0.0072
1564.00,0.0073
1563.00,0.0073
1562.00,0.0073
1561.00,0.0073
1560.00,0.0074
1559.00,0.0074
1558.00,0.0074
1557.00,0.0074
1556.00,0.0074
1555.00,0.0075
1554.00,0.0077
1553.00,0.0078
1552.00,0.0080
1551.00,0.0082
1550.00,0.0084
1549.00,0.0086
1548.00,0.0087
1547.00,0.0089
1546.00,0.0090
1545.00,0.0093
1544.00,0.0095
1543.00,0.0097
1542.00,0.0096
1541.00,0.0095
1540.00,0.0094
1539.00,0.0092
1538.00,0.0090
1537.00,0.0088
1536.00,0.0087
1535.00,0.0085
1534.00,0.0083
1533.00,0.0080
1532.00,0.0079
1531.00,0.0077
1530.00,0.0076
1529.00,0.0075
1528.00,0.0075
1527.00,0.0075
1526.00,0.0074
1525.00,0.0073
1524.00,0.0073
1523.00,0.0072
1522.00,0.0071
1521.00,0.0072
1520.00,0.0073
1519.00,0.0073
1518.00,0.0073
1517.00,0.0073
1516.00,0.0074
1515.00,0.0074
1514.00,0.0073
1513.00,0.0073
1512.00,0.0073
1511.00,0.0073
1510.00,0.0073
1509.00,0.0073
1508.00,0.0073
1507.00,0.0074
1506.00,0.0074
1505.00,0.0074
1504.00,0.0074
1503.00,0.0074
1502.00,0.0074
1501.00,0.0075
1500.00,0.0077
1499.00,0.0078
1498.00,0.0080
1497.00,0.0082
1496.00,0.0085
1495.00,0.0087
1494.00,0.0088
1493.00,0.0091
1492.00,0.0094
1491.00,0.0097
1490.00,0.0100
1489.00,0.0105
1488.00,0.0110
1487.00,0.0115
1486.00,0.0120
1485.00,0.0125
1484.00,0.0132
1483.00,0.0139
1482.00,0.0148
1481.00,0.0159
1480.00,0.0170
1479.00,0.0182
1478.00,0.0196
1477.00,0.0214
1476.00,0.0234
1475.00,0.0257
1474.00,0.0290
1473.00,0.0343
1472.00,0.0411
1471.00,0.0480
1470.00,0.0547
1469.00,0.0616
1468.00,0.0690
1467.00,0.0771
1466.00,0.0862
1465.00,0.0961
1464.00,0.1048
1463.00,0.1112
1462.00,0.1156
1461.00,0.1189
1460.00,0.1213
1459.00,0.1230
1458.00,0.1243
1457.00,0.1253
1456.00,0.1254
1455.00,0.1247
1454.00,0.1237
1453.00,0.1221
1452.00,0.1194
1451.00,0.1154
1450.00,0.1098
1449.00,0.1021
1448.00,0.0923
1447.00,0.0821
1446.00,0.0730
1445.00,0.0653
1444.00,0.0588
1443.00,0.0536
1442.00,0.0498
1441.00,0.0474
1440.00,0.0460
1439.00,0.0457
1438.00,0.0462
1437.00,0.0468
1436.00,0.0462
1435.00,0.0436
1434.00,0.0396
1433.00,0.0346
1432.00,0.0295
1431.00,0.0251
1430.00,0.0217
1429.00,0.0193
1428.00,0.0176
1427.00,0.0165
1426.00,0.0158
1425.00,0.0152
1424.00,0.0146
1423.00,0.0143
1422.00,0.0140
1421.00,0.0137
1420.00,0.0133
1419.00,0.0130
1418.00,0.0127
1417.00,0.0123
1416.00,0.0118
1415.00,0.0115
1414.00,0.0113
1413.00,0.0109
1412.00,0.0105
1411.00,0.0101
1410.00,0.0098
1409.00,0.0095
1408.00,0.0091
1407.00,0.0089
1406.00,0.0086
1405.00,0.0082
1404.00,0.0077
1403.00,0.0073
1402.00,0.0070
1401.00,0.0066
1400.00,0.0062
1399.00,0.0058
1398.00,0.0055
1397.00,0.0052
1396.00,0.0050
1395.00,0.0050
1394.00,0.0053
1393.00,0.0057
1392.00,0.0062
1391.00,0.0070
1390.00,0.0083
1389.00,0.0099
1388.00,0.0123
1387.00,0.0161
1386.00,0.0211
1385.00,0.0274
1384.00,0.0357
1383.00,0.0469
1382.00,0.0620
1381.00,0.0817
1380.00,0.1070
1379.00,0.1374
1378.00,0.1690
1377.00,0.1952
1376.00,0.2086
1375.00,0.2032
1374.00,0.1802
1373.00,0.1490
1372.00,0.1189
1371.00,0.0935
1370.00,0.0731
1369.00,0.0578
1368.00,0.0473
1367.00,0.0410
1366.00,0.0377
1365.00,0.0366
1364.00,0.0372
1363.00,0.0391
1362.00,0.0420
1361.00,0.0450
1360.00,0.0472
1359.00,0.0480
1358.00,0.0469
1357.00,0.0439
1356.00,0.0395
1355.00,0.0345
1354.00,0.0298
1353.00,0.0258
1352.00,0.0226
1351.00,0.0201
1350.00,0.0181
1349.00,0.0165
1348.00,0.0152
1347.00,0.0142
1346.00,0.0134
1345.00,0.0127
1344.00,0.0123
1343.00,0.0119
1342.00,0.0116
1341.00,0.0114
1340.00,0.0112
1339.00,0.0111
1338.00,0.0110
1337.00,0.0110
1336.00,0.0112
1335.00,0.0114
1334.00,0.0118
1333.00,0.0124
1332.00,0.0130
1331.00,0.0134
1330.00,0.0137
1329.00,0.0136
1328.00,0.0133
1327.00,0.0128
1326.00,0.0121
1325.00,0.0115
1324.00,0.0108
1323.00,0.0103
1322.00,0.0099
1321.00,0.0095
1320.00,0.0093
1319.00,0.0092
1318.00,0.0090
1317.00,0.0089
1316.00,0.0087
1315.00,0.0086
1314.00,0.0086
1313.00,0.0086
1312.00,0.0087
1311.00,0.0089
1310.00,0.0092
1309.00,0.0097
1308.00,0.0105
1307.00,0.0114
1306.00,0.0123
1305.00,0.0129
1304.00,0.0132
1303.00,0.0131
1302.00,0.0129
1301.00,0.0128
1300.00,0.0128
1299.00,0.0129
1298.00,0.0131
1297.00,0.0132
1296.00,0.0132
1295.00,0.0130
1294.00,0.0126
1293.00,0.0120
1292.00,0.0113
1291.00,0.0107
1290.00,0.0101
1289.00,0.0096
1288.00,0.0092
1287.00,0.0088
1286.00,0.0085
1285.00,0.0082
1284.00,0.0080
1283.00,0.0077
1282.00,0.0075
1281.00,0.0073
1280.00,0.0070
1279.00,0.0068
1278.00,0.0065
1277.00,0.0063
1276.00,0.0060
1275.00,0.0058
1274.00,0.0056
1273.00,0.0054
1272.00,0.0051
1271.00,0.0049
1270.00,0.0047
1269.00,0.0046
1268.00,0.0045
1267.00,0.0044
1266.00,0.0045
1265.00,0.0045
1264.00,0.0046
1263.00,0.0048
1262.00,0.0050
1261.00,0.0054
1260.00,0.0058
1259.00,0.0062
1258.00,0.0067
1257.00,0.0069
1256.00,0.0069
1255.00,0.0066
1254.00,0.0060
1253.00,0.0052
1252.00,0.0045
1251.00,0.0040
1250.00,0.0038
1249.00,0.0037
1248.00,0.0038
1247.00,0.0039
1246.00,0.0039
1245.00,0.0040
1244.00,0.0040
1243.00,0.0040
1242.00,0.0040
1241.00,0.0040
1240.00,0.0040
1239.00,0.0041
1238.00,0.0041
1237.00,0.0043
1236.00,0.0044
1235.00,0.0046
1234.00,0.0048
1233.00,0.0050
1232.00,0.0053
1231.00,0.0055
1230.00,0.0058
1229.00,0.0061
1228.00,0.0064
1227.00,0.0068
1226.00,0.0072
1225.00,0.0077
1224.00,0.0082
1223.00,0.0087
1222.00,0.0092
1221.00,0.0097
1220.00,0.0100
1219.00,0.0102
1218.00,0.0102
1217.00,0.0101
1216.00,0.0099
1215.00,0.0096
1214.00,0.0093
1213.00,0.0089
1212.00,0.0086
1211.00,0.0083
1210.00,0.0081
1209.00,0.0079
1208.00,0.0078
1207.00,0.0077
1206.00,0.0076
1205.00,0.0076
1204.00,0.0075
1203.00,0.0075
1202.00,0.0075
1201.00,0.0074
1200.00,0.0074
1199.00,0.0073
1198.00,0.0072
1197.00,0.0071
1196.00,0.0071
1195.00,0.0070
1194.00,0.0069
1193.00,0.0068
1192.00,0.0065
1191.00,0.0063
1190.00,0.0061
1189.00,0.0060
1188.00,0.0058
1187.00,0.0056
1186.00,0.0055
1185.00,0.0052
1184.00,0.0050
1183.00,0.0048
1182.00,0.0047
1181.00,0.0046
1180.00,0.0046
1179.00,0.0047
1178.00,0.0050
1177.00,0.0055
1176.00,0.0062
1175.00,0.0072
1174.00,0.0085
1173.00,0.0102
1172.00,0.0123
1171.00,0.0146
1170.00,0.0169
1169.00,0.0187
1168.00,0.0198
1167.00,0.0201
1166.00,0.0196
1165.00,0.0185
1164.00,0.0171
1163.00,0.0156
1162.00,0.0143
1161.00,0.0132
1160.00,0.0123
1159.00,0.0115
1158.00,0.0108
1157.00,0.0103
1156.00,0.0100
1155.00,0.0099
1154.00,0.0097
1153.00,0.0095
1152.00,0.0091
1151.00,0.0086
1150.00,0.0080
1149.00,0.0072
1148.00,0.0064
1147.00,0.0056
1146.00,0.0050
1145.00,0.0044
1144.00,0.0039
1143.00,0.0035
1142.00,0.0031
1141.00,0.0026
1140.00,0.0022
1139.00,0.0019
1138.00,0.0017
1137.00,0.0016
1136.00,0.0016
1135.00,0.0015
1134.00,0.0016
1133.00,0.0016
1132.00,0.0017
1131.00,0.0019
1130.00,0.0021
1129.00,0.0023
1128.00,0.0025
1127.00,0.0028
1126.00,0.0030
1125.00,0.0032
1124.00,0.0034
1123.00,0.0036
1122.00,0.0038
1121.00,0.0041
1120.00,0.0043
1119.00,0.0045
1118.00,0.0047
1117.00,0.0050
1116.00,0.0053
1115.00,0.0055
1114.00,0.0058
1113.00,0.0061
1112.00,0.0065
1111.00,0.0069
1110.00,0.0074
1109.00,0.0080
1108.00,0.0086
1107.00,0.0093
1106.00,0.0101
1105.00,0.0109
1104.00,0.0116
1103.00,0.0121
1102.00,0.0121
1101.00,0.0116
1100.00,0.0109
1099.00,0.0099
1098.00,0.0089
1097.00,0.0080
1096.00,0.0071
1095.00,0.0063
1094.00,0.0057
1093.00,0.0051
1092.00,0.0046
1091.00,0.0041
1090.00,0.0037
1089.00,0.0035
1088.00,0.0032
1087.00,0.0030
1086.00,0.0028
1085.00,0.0026
1084.00,0.0024
1083.00,0.0023
1082.00,0.0021
1081.00,0.0019
1080.00,0.0018
1079.00,0.0016
1078.00,0.0015
1077.00,0.0014
1076.00,0.0013
1075.00,0.0011
1074.00,0.0010
1073.00,0.0010
1072.00,0.0011
1071.00,0.0013
1070.00,0.0014
1069.00,0.0016
1068.00,0.0018
1067.00,0.0021
1066.00,0.0024
1065.00,0.0026
1064.00,0.0028
1063.00,0.0030
1062.00,0.0031
1061.00,0.0033
1060.00,0.0035
1059.00,0.0037
1058.00,0.0039
1057.00,0.0041
1056.00,0.0044
1055.00,0.0047
1054.00,0.0050
1053.00,0.0054
1052.00,0.0057
1051.00,0.0060
1050.00,0.0064
1049.00,0.0067
1048.00,0.0071
1047.00,0.0074
1046.00,0.0078
1045.00,0.0081
1044.00,0.0083
1043.00,0.0084
1042.00,0.0084
1041.00,0.0083
1040.00,0.0084
1039.00,0.0085
1038.00,0.0086
1037.00,0.0089
1036.00,0.0090
1035.00,0.0091
1034.00,0.0091
1033.00,0.0090
1032.00,0.0089
1031.00,0.0089
1030.00,0.0089
1029.00,0.0090
1028.00,0.0091
1027.00,0.0091
1026.00,0.0090
1025.00,0.0090
1024.00,0.0090
1023.00,0.0090
1022.00,0.0090
1021.00,0.0091
1020.00,0.0091
1019.00,0.0092
1018.00,0.0093
1017.00,0.0094
1016.00,0.0095
1015.00,0.0097
1014.00,0.0100
1013.00,0.0103
1012.00,0.0107
1011.00,0.0111
1010.00,0.0114
1009.00,0.0116
1008.00,0.0118
1007.00,0.0121
1006.00,0.0126
1005.00,0.0135
1004.00,0.0147
1003.00,0.0164
1002.00,0.0186
1001.00,0.0212
1000.00,0.0239
999.00,0.0260
998.00,0.0270
997.00,0.0263
996.00,0.0242
995.00,0.0212
994.00,0.0182
993.00,0.0155
992.00,0.0135
991.00,0.0121
990.00,0.0111
989.00,0.0104
988.00,0.0099
987.00,0.0096
986.00,0.0094
985.00,0.0094
984.00,0.0096
983.00,0.0101
982.00,0.0110
981.00,0.0123
980.00,0.0139
979.00,0.0160
978.00,0.0187
977.00,0.0217
976.00,0.0248
975.00,0.0276
974.00,0.0293
973.00,0.0293
972.00,0.0274
971.00,0.0239
970.00,0.0195
969.00,0.0150
968.00,0.0112
967.00,0.0082
966.00,0.0062
965.00,0.0048
964.00,0.0038
963.00,0.0031
962.00,0.0024
961.00,0.0017
960.00,0.0009
959.00,0.0001
958.00,-0.0006
957.00,-0.0011
956.00,-0.0013
955.00,-0.0015
954.00,-0.0016
953.00,-0.0016
952.00,-0.0015
951.00,-0.0014
950.00,-0.0011
949.00,-0.0008
948.00,-0.0005
947.00,-0.0001
946.00,0.0003
945.00,0.0007
944.00,0.0011
943.00,0.0016
942.00,0.0021
941.00,0.0025
940.00,0.0028
939.00,0.0028
938.00,0.0026
937.00,0.0024
936.00,0.0023
935.00,0.0023
934.00,0.0025
933.00,0.0028
932.00,0.0030
931.00,0.0032
930.00,0.0034
929.00,0.0036
928.00,0.0039
927.00,0.0041
926.00,0.0044
925.00,0.0047
924.00,0.0050
923.00,0.0053
922.00,0.0056
921.00,0.0059
920.00,0.0061
919.00,0.0062
918.00,0.0064
917.00,0.0065
916.00,0.0067
915.00,0.0069
914.00,0.0069
913.00,0.0069
912.00,0.0069
911.00,0.0070
910.00,0.0072
909.00,0.0075
908.00,0.0080
907.00,0.0086
906.00,0.0095
905.00,0.0106
904.00,0.0122
903.00,0.0143
902.00,0.0167
901.00,0.0189
900.00,0.0205
899.00,0.0209
898.00,0.0201
897.00,0.0183
896.00,0.0161
895.00,0.0139
894.00,0.0120
893.00,0.0105
892.00,0.0094
891.00,0.0086
890.00,0.0081
889.00,0.0079
888.00,0.0078
887.00,0.0077
886.00,0.0077
885.00,0.0076
884.00,0.0075
883.00,0.0075
882.00,0.0076
881.00,0.0076
880.00,0.0077
879.00,0.0077
878.00,0.0077
877.00,0.0077
876.00,0.0077
875.00,0.0078
874.00,0.0078
873.00,0.0078
872.00,0.0077
871.00,0.0077
870.00,0.0076
869.00,0.0075
868.00,0.0075
867.00,0.0075
866.00,0.0076
865.00,0.0076
864.00,0.0076
863.00,0.0077
862.00,0.0078
861.00,0.0080
860.00,0.0082
859.00,0.0084
858.00,0.0085
857.00,0.0085
856.00,0.0086
855.00,0.0086
854.00,0.0087
853.00,0.0089
852.00,0.0093
851.00,0.0097
850.00,0.0102
849.00,0.0106
848.00,0.0112
847.00,0.0122
846.00,0.0137
845.00,0.0160
844.00,0.0190
843.00,0.0222
842.00,0.0245
841.00,0.0250
840.00,0.0234
839.00,0.0204
838.00,0.0173
837.00,0.0147
836.00,0.0130
835.00,0.0119
834.00,0.0112
833.00,0.0108
832.00,0.0105
831.00,0.0101
830.00,0.0097
829.00,0.0093
828.00,0.0091
827.00,0.0091
826.00,0.0092
825.00,0.0093
824.00,0.0095
823.00,0.0095
822.00,0.0095
821.00,0.0095
820.00,0.0096
819.00,0.0098
818.00,0.0102
817.00,0.0108
816.00,0.0117
815.00,0.0130
814.00,0.0146
813.00,0.0165
812.00,0.0186
811.00,0.0206
810.00,0.0221
809.00,0.0228
808.00,0.0225
807.00,0.0214
806.00,0.0197
805.00,0.0178
804.00,0.0159
803.00,0.0144
802.00,0.0132
801.00,0.0122
800.00,0.0114
799.00,0.0108
798.00,0.0103
797.00,0.0100
796.00,0.0097
795.00,0.0094
794.00,0.0090
793.00,0.0088
792.00,0.0087
791.00,0.0086
790.00,0.0085
789.00,0.0084
788.00,0.0082
787.00,0.0080
786.00,0.0078
785.00,0.0075
784.00,0.0072
783.00,0.0070
782.00,0.0069
781.00,0.0068
780.00,0.0067
779.00,0.0066
778.00,0.0066
777.00,0.0067
776.00,0.0069
775.00,0.0071
774.00,0.0073
773.00,0.0075
772.00,0.0076
771.00,0.0078
770.00,0.0080
769.00,0.0080
768.00,0.0080
767.00,0.0080
766.00,0.0079
765.00,0.0078
764.00,0.0077
763.00,0.0075
762.00,0.0073
761.00,0.0071
760.00,0.0069
759.00,0.0068
758.00,0.0067
757.00,0.0064
756.00,0.0061
755.00,0.0059
754.00,0.0057
753.00,0.0056
752.00,0.0056
751.00,0.0056
750.00,0.0058
749.00,0.0060
748.00,0.0062
747.00,0.0062
746.00,0.0063
745.00,0.0063
744.00,0.0063
743.00,0.0063
742.00,0.0062
741.00,0.0063
740.00,0.0064
739.00,0.0065
738.00,0.0067
737.00,0.0069
736.00,0.0071
735.00,0.0074
734.00,0.0075
733.00,0.0075
732.00,0.0075
731.00,0.0075
730.00,0.0076
729.00,0.0077
728.00,0.0078
727.00,0.0078
726.00,0.0076
725.00,0.0074
724.00,0.0071
723.00,0.0069
722.00,0.0068
721.00,0.0068
720.00,0.0068
719.00,0.0067
718.00,0.0067
717.00,0.0066
716.00,0.0065
715.00,0.0063
714.00,0.0063
713.00,0.0063
712.00,0.0063
711.00,0.0063
710.00,0.0062
709.00,0.0061
708.00,0.0060
707.00,0.0060
706.00,0.0061
705.00,0.0062
704.00,0.0062
703.00,0.0063
702.00,0.0063
701.00,0.0063
700.00,0.0064
699.00,0.0063
698.00,0.0063
697.00,0.0062
696.00,0.0061
695.00,0.0061
694.00,0.0061
693.00,0.0061
692.00,0.0060
691.00,0.0058
690.00,0.0056
689.00,0.0055
688.00,0.0055
687.00,0.0056
686.00,0.0057
685.00,0.0058
684.00,0.0059
683.00,0.0059
682.00,0.0059
681.00,0.0059
680.00,0.0059
679.00,0.0059
678.00,0.0060
677.00,0.0061
676.00,0.0061
675.00,0.0062
674.00,0.0062
673.00,0.0062
672.00,0.0060
671.00,0.0059
670.00,0.0058
669.00,0.0057
668.00,0.0056
667.00,0.0057
666.00,0.0058
665.00,0.0058
664.00,0.0058
663.00,0.0059
662.00,0.0062
661.00,0.0065
660.00,0.0067
659.00,0.0067
658.00,0.0067
657.00,0.0064
656.00,0.0061
655.00,0.0057
654.00,0.0053
653.00,0.0053
652.00,0.0054
651.00,0.0056
650.00,0.0058
649.00,0.0059
648.00,0.0058
647.00,0.0057
646.00,0.0055
645.00,0.0055
644.00,0.0056
643.00,0.0057
642.00,0.0059
641.00,0.0060
640.00,0.0062
639.00,0.0063
638.00,0.0063
637.00,0.0063
636.00,0.0063
635.00,0.0063
634.00,0.0063
633.00,0.0064
632.00,0.0064
631.00,0.0064
630.00,0.0062
629.00,0.0060
628.00,0.0059
627.00,0.0059
626.00,0.0060
625.00,0.0062
624.00,0.0063
623.00,0.0063
622.00,0.0064
621.00,0.0064
620.00,0.0063
619.00,0.0061
618.00,0.0058
617.00,0.0057
616.00,0.0058
615.00,0.0062
614.00,0.0065
613.00,0.0068
612.00,0.0068
611.00,0.0068
610.00,0.0068
609.00,0.0068
608.00,0.0067
607.00,0.0066
606.00,0.0064
605.00,0.0063
604.00,0.0062
603.00,0.0061
602.00,0.0060
601.00,0.0062
600.00,0.0065
599.00,0.0067
598.00,0.0066
597.00,0.0064
596.00,0.0061
595.00,0.0060
594.00,0.0060
593.00,0.0062
592.00,0.0063
591.00,0.0064
590.00,0.0065
589.00,0.0066
588.00,0.0067
587.00,0.0067
586.00,0.0066
585.00,0.0065
584.00,0.0065
583.00,0.0065
582.00,0.0065
581.00,0.0066
580.00,0.0067
579.00,0.0068
578.00,0.0068
577.00,0.0067
576.00,0.0065
575.00,0.0065
574.00,0.0066
573.00,0.0071
572.00,0.0075
571.00,0.0076
570.00,0.0074
569.00,0.0070
568.00,0.0068
567.00,0.0067
566.00,0.0067
565.00,0.0067
564.00,0.0069
563.00,0.0071
562.00,0.0072
561.00,0.0073
560.00,0.0074
559.00,0.0075
558.00,0.0074
557.00,0.0072
556.00,0.0068
555.00,0.0064
554.00,0.0061
553.00,0.0059
552.00,0.0061
551.00,0.0064
550.00,0.0068
549.00,0.0069
548.00,0.0069
547.00,0.0068
546.00,0.0067
545.00,0.0067
544.00,0.0068
543.00,0.0071
542.00,0.0073
541.00,0.0076
540.00,0.0080
539.00,0.0083
538.00,0.0085
537.00,0.0085
536.00,0.0084
535.00,0.0082
534.00,0.0080
533.00,0.0080
532.00,0.0082
531.00,0.0086
530.00,0.0090
529.00,0.0093
528.00,0.0093
527.00,0.0090
526.00,0.0088
525.00,0.0086
524.00,0.0084
523.00,0.0083
522.00,0.0082
521.00,0.0082
520.00,0.0082
519.00,0.0083
518.00,0.0082
517.00,0.0079
516.00,0.0073
515.00,0.0069
514.00,0.0068
513.00,0.0069
512.00,0.0071
511.00,0.0071
510.00,0.0071
509.00,0.0070
508.00,0.0068
507.00,0.0066
506.00,0.0063
505.00,0.0061
504.00,0.0057
503.00,0.0054
502.00,0.0053
501.00,0.0053
500.00,0.0053
499.00,0.0055
498.00,0.0062
497.00,0.0074
496.00,0.0085
495.00,0.0090
494.00,0.0088
493.00,0.0082
492.00,0.0075
491.00,0.0069
490.00,0.0065
489.00,0.0065
488.00,0.0066
487.00,0.0067
486.00,0.0068
485.00,0.0071
484.00,0.0075
483.00,0.0074
482.00,0.0067
481.00,0.0056
480.00,0.0048
479.00,0.0047
478.00,0.0052
477.00,0.0061
476.00,0.0068
475.00,0.0071
474.00,0.0071
473.00,0.0072
472.00,0.0077
471.00,0.0083
470.00,0.0084
469.00,0.0082
468.00,0.0083
467.00,0.0091
466.00,0.0102
465.00,0.0112
464.00,0.0121
463.00,0.0132
462.00,0.0148
461.00,0.0167
460.00,0.0183
459.00,0.0193
458.00,0.0192
457.00,0.0178
456.00,0.0155
455.00,0.0128
454.00,0.0111
453.00,0.0101
452.00,0.0099
451.00,0.0103
450.00,0.0106
