Created as New Dataset,Sample 019 By Administrator Date Friday, September 05 2025
cm-1,A
4000.00,0.0010
3999.00,0.0010
3998.00,0.0010
3997.00,0.0010
3996.00,0.0011
3995.00,0.0011
3994.00,0.0011
3993.00,0.0011
3992.00,0.0011
3991.00,0.0011
3990.00,0.0011
3989.00,0.0010
3988.00,0.0010
3987.00,0.0010
3986.00,0.0010
3985.00,0.0010
3984.00,0.0010
3983.00,0.0010
3982.00,0.0009
3981.00,0.0009
3980.00,0.0009
3979.00,0.0009
3978.00,0.0009
3977.00,0.0009
3976.00,0.0009
3975.00,0.0009
3974.00,0.0009
3973.00,0.0009
3972.00,0.0009
3971.00,0.0010
3970.00,0.0010
3969.00,0.0010
3968.00,0.0010
3967.00,0.0010
3966.00,0.0010
3965.00,0.0009
3964.00,0.0009
3963.00,0.0008
3962.00,0.0008
3961.00,0.0008
3960.00,0.0008
3959.00,0.0008
3958.00,0.0008
3957.00,0.0009
3956.00,0.0009
3955.00,0.0009
3954.00,0.0009
3953.00,0.0009
3952.00,0.0009
3951.00,0.0008
3950.00,0.0008
3949.00,0.0008
3948.00,0.0007
3947.00,0.0007
3946.00,0.0008
3945.00,0.0008
3944.00,0.0008
3943.00,0.0009
3942.00,0.0009
3941.00,0.0008
3940.00,0.0008
3939.00,0.0008
3938.00,0.0008
3937.00,0.0008
3936.00,0.0008
3935.00,0.0008
3934.00,0.0008
3933.00,0.0008
3932.00,0.0008
3931.00,0.0009
3930.00,0.0009
3929.00,0.0009
3928.00,0.0009
3927.00,0.0009
3926.00,0.0009
3925.00,0.0009
3924.00,0.0009
3923.00,0.0008
3922.00,0.0008
3921.00,0.0007
3920.00,0.0007
3919.00,0.0007
3918.00,0.0007
3917.00,0.0007
3916.00,0.0007
3915.00,0.0007
3914.00,0.0007
3913.00,0.0007
3912.00,0.0007
3911.00,0.0007
3910.00,0.0007
3909.00,0.0007
3908.00,0.0007
3907.00,0.0007
3906.00,0.0007
3905.00,0.0006
3904.00,0.0006
3903.00,0.0005
3902.00,0.0005
3901.00,0.0005
3900.00,0.0005
3899.00,0.0006
3898.00,0.0006
3897.00,0.0006
3896.00,0.0006
3895.00,0.0005
3894.00,0.0005
3893.00,0.0006
3892.00,0.0006
3891.00,0.0006
3890.00,0.0006
3889.00,0.0006
3888.00,0.0006
3887.00,0.0006
3886.00,0.0006
3885.00,0.0006
3884.00,0.0006
3883.00,0.0005
3882.00,0.0005
3881.00,0.0005
3880.00,0.0005
3879.00,0.0005
3878.00,0.0005
3877.00,0.0006
3876.00,0.0006
3875.00,0.0006
3874.00,0.0006
3873.00,0.0006
3872.00,0.0006
3871.00,0.0006
3870.00,0.0006
3869.00,0.0005
3868.00,0.0005
3867.00,0.0004
3866.00,0.0004
3865.00,0.0004
3864.00,0.0004
3863.00,0.0004
3862.00,0.0004
3861.00,0.0004
3860.00,0.0004
3859.00,0.0004
3858.00,0.0005
3857.00,0.0006
3856.00,0.0006
3855.00,0.0007
3854.00,0.0006
3853.00,0.0006
3852.00,0.0006
3851.00,0.0005
3850.00,0.0005
3849.00,0.0004
3848.00,0.0004
3847.00,0.0004
3846.00,0.0004
3845.00,0.0004
3844.00,0.0004
3843.00,0.0004
3842.00,0.0004
3841.00,0.0004
3840.00,0.0003
3839.00,0.0004
3838.00,0.0004
3837.00,0.0004
3836.00,0.0004
3835.00,0.0004
3834.00,0.0004
3833.00,0.0005
3832.00,0.0005
3831.00,0.0005
3830.00,0.0005
3829.00,0.0004
3828.00,0.0004
3827.00,0.0004
3826.00,0.0004
3825.00,0.0004
3824.00,0.0003
3823.00,0.0003
3822.00,0.0003
3821.00,0.0004
3820.00,0.0004
3819.00,0.0004
3818.00,0.0004
3817.00,0.0004
3816.00,0.0005
3815.00,0.0005
3814.00,0.0005
3813.00,0.0005
3812.00,0.0005
3811.00,0.0006
3810.00,0.0006
3809.00,0.0006
3808.00,0.0005
3807.00,0.0005
3806.00,0.0004
3805.00,0.0003
3804.00,0.0002
3803.00,0.0002
3802.00,0.0002
3801.00,0.0003
3800.00,0.0004
3799.00,0.0004
3798.00,0.0004
3797.00,0.0005
3796.00,0.0006
3795.00,0.0006
3794.00,0.0006
3793.00,0.0006
3792.00,0.0006
3791.00,0.0007
3790.00,0.0007
3789.00,0.0007
3788.00,0.0007
3787.00,0.0007
3786.00,0.0007
3785.00,0.0007
3784.00,0.0007
3783.00,0.0006
3782.00,0.0006
3781.00,0.0005
3780.00,0.0005
3779.00,0.0006
3778.00,0.0006
3777.00,0.0007
3776.00,0.0007
3775.00,0.0008
3774.00,0.0007
3773.00,0.0007
3772.00,0.0006
3771.00,0.0006
3770.00,0.0006
3769.00,0.0007
3768.00,0.0007
3767.00,0.0007
3766.00,0.0008
3765.00,0.0008
3764.00,0.0007
3763.00,0.0007
3762.00,0.0006
3761.00,0.0005
3760.00,0.0005
3759.00,0.0005
3758.00,0.0005
3757.00,0.0005
3756.00,0.0005
3755.00,0.0005
3754.00,0.0004
3753.00,0.0003
3752.00,0.0002
3751.00,0.0001
3750.00,0.0001
3749.00,0.0002
3748.00,0.0002
3747.00,0.0003
3746.00,0.0003
3745.00,0.0003
3744.00,0.0004
3743.00,0.0003
3742.00,0.0003
3741.00,0.0002
3740.00,0.0002
3739.00,0.0001
3738.00,0.0001
3737.00,-0.0000
3736.00,-0.0000
3735.00,0.0000
3734.00,0.0001
3733.00,0.0001
3732.00,0.0002
3731.00,0.0003
3730.00,0.0003
3729.00,0.0003
3728.00,0.0003
3727.00,0.0003
3726.00,0.0003
3725.00,0.0003
3724.00,0.0003
3723.00,0.0003
3722.00,0.0003
3721.00,0.0003
3720.00,0.0004
3719.00,0.0004
3718.00,0.0004
3717.00,0.0005
3716.00,0.0004
3715.00,0.0004
3714.00,0.0003
3713.00,0.0003
3712.00,0.0003
3711.00,0.0003
3710.00,0.0003
3709.00,0.0003
3708.00,0.0003
3707.00,0.0003
3706.00,0.0003
3705.00,0.0003
3704.00,0.0003
3703.00,0.0003
3702.00,0.0003
3701.00,0.0003
3700.00,0.0003
3699.00,0.0003
3698.00,0.0003
3697.00,0.0003
3696.00,0.0003
3695.00,0.0003
3694.00,0.0002
3693.00,0.0002
3692.00,0.0002
3691.00,0.0001
3690.00,0.0000
3689.00,-0.0001
3688.00,-0.0002
3687.00,-0.0003
3686.00,-0.0005
3685.00,-0.0006
3684.00,-0.0007
3683.00,-0.0009
3682.00,-0.0011
3681.00,-0.0013
3680.00,-0.0015
3679.00,-0.0018
3678.00,-0.0021
3677.00,-0.0024
3676.00,-0.0026
3675.00,-0.0028
3674.00,-0.0030
3673.00,-0.0031
3672.00,-0.0032
3671.00,-0.0033
3670.00,-0.0033
3669.00,-0.0034
3668.00,-0.0035
3667.00,-0.0035
3666.00,-0.0036
3665.00,-0.0036
3664.00,-0.0037
3663.00,-0.0037
3662.00,-0.0038
3661.00,-0.0038
3660.00,-0.0039
3659.00,-0.0040
3658.00,-0.0040
3657.00,-0.0040
3656.00,-0.0040
3655.00,-0.0040
3654.00,-0.0039
3653.00,-0.0039
3652.00,-0.0039
3651.00,-0.0039
3650.00,-0.0039
3649.00,-0.0038
3648.00,-0.0037
3647.00,-0.0035
3646.00,-0.0033
3645.00,-0.0031
3644.00,-0.0029
3643.00,-0.0026
3642.00,-0.0024
3641.00,-0.0022
3640.00,-0.0022
3639.00,-0.0022
3638.00,-0.0023
3637.00,-0.0022
3636.00,-0.0020
3635.00,-0.0016
3634.00,-0.0013
3633.00,-0.0010
3632.00,-0.0008
3631.00,-0.0007
3630.00,-0.0006
3629.00,-0.0005
3628.00,-0.0004
3627.00,-0.0003
3626.00,-0.0002
3625.00,-0.0001
3624.00,-0.0000
3623.00,0.0000
3622.00,0.0000
3621.00,0.0000
3620.00,0.0000
3619.00,0.0001
3618.00,0.0002
3617.00,0.0002
3616.00,0.0002
3615.00,0.0003
3614.00,0.0003
3613.00,0.0004
3612.00,0.0004
3611.00,0.0005
3610.00,0.0006
3609.00,0.0007
3608.00,0.0009
3607.00,0.0009
3606.00,0.0010
3605.00,0.0010
3604.00,0.0010
3603.00,0.0010
3602.00,0.0010
3601.00,0.0010
3600.00,0.0010
3599.00,0.0010
3598.00,0.0011
3597.00,0.0011
3596.00,0.0012
3595.00,0.0012
3594.00,0.0012
3593.00,0.0012
3592.00,0.0012
3591.00,0.0012
3590.00,0.0012
3589.00,0.0012
3588.00,0.0013
3587.00,0.0013
3586.00,0.0014
3585.00,0.0014
3584.00,0.0014
3583.00,0.0015
3582.00,0.0015
3581.00,0.0016
3580.00,0.0016
3579.00,0.0016
3578.00,0.0016
3577.00,0.0017
3576.00,0.0017
3575.00,0.0017
3574.00,0.0018
3573.00,0.0018
3572.00,0.0018
3571.00,0.0018
3570.00,0.0017
3569.00,0.0017
3568.00,0.0017
3567.00,0.0017
3566.00,0.0017
3565.00,0.0017
3564.00,0.0018
3563.00,0.0018
3562.00,0.0019
3561.00,0.0020
3560.00,0.0020
3559.00,0.0021
3558.00,0.0022
3557.00,0.0022
3556.00,0.0023
3555.00,0.0023
3554.00,0.0023
3553.00,0.0023
3552.00,0.0023
3551.00,0.0023
3550.00,0.0023
3549.00,0.0023
3548.00,0.0024
3547.00,0.0024
3546.00,0.0025
3545.00,0.0025
3544.00,0.0025
3543.00,0.0025
3542.00,0.0026
3541.00,0.0026
3540.00,0.0026
3539.00,0.0027
3538.00,0.0027
3537.00,0.0027
3536.00,0.0028
3535.00,0.0027
3534.00,0.0027
3533.00,0.0028
3532.00,0.0028
3531.00,0.0028
3530.00,0.0028
3529.00,0.0029
3528.00,0.0029
3527.00,0.0029
3526.00,0.0029
3525.00,0.0029
3524.00,0.0029
3523.00,0.0030
3522.00,0.0030
3521.00,0.0031
3520.00,0.0032
3519.00,0.0032
3518.00,0.0032
3517.00,0.0032
3516.00,0.0032
3515.00,0.0032
3514.00,0.0032
3513.00,0.0033
3512.00,0.0033
3511.00,0.0033
3510.00,0.0033
3509.00,0.0033
3508.00,0.0034
3507.00,0.0035
3506.00,0.0035
3505.00,0.0036
3504.00,0.0036
3503.00,0.0036
3502.00,0.0036
3501.00,0.0036
3500.00,0.0036
3499.00,0.0037
3498.00,0.0037
3497.00,0.0038
3496.00,0.0038
3495.00,0.0038
3494.00,0.0038
3493.00,0.0038
3492.00,0.0038
3491.00,0.0038
3490.00,0.0038
3489.00,0.0039
3488.00,0.0039
3487.00,0.0039
3486.00,0.0040
3485.00,0.0040
3484.00,0.0040
3483.00,0.0040
3482.00,0.0040
3481.00,0.0039
3480.00,0.0039
3479.00,0.0039
3478.00,0.0039
3477.00,0.0040
3476.00,0.0040
3475.00,0.0041
3474.00,0.0042
3473.00,0.0042
3472.00,0.0043
3471.00,0.0043
3470.00,0.0043
3469.00,0.0043
3468.00,0.0043
3467.00,0.0043
3466.00,0.0043
3465.00,0.0043
3464.00,0.0044
3463.00,0.0044
3462.00,0.0044
3461.00,0.0044
3460.00,0.0045
3459.00,0.0045
3458.00,0.0045
3457.00,0.0045
3456.00,0.0045
3455.00,0.0045
3454.00,0.0045
3453.00,0.0046
3452.00,0.0046
3451.00,0.0046
3450.00,0.0047
3449.00,0.0047
3448.00,0.0047
3447.00,0.0047
3446.00,0.0047
3445.00,0.0047
3444.00,0.0047
3443.00,0.0048
3442.00,0.0048
3441.00,0.0049
3440.00,0.0049
3439.00,0.0050
3438.00,0.0050
3437.00,0.0049
3436.00,0.0049
3435.00,0.0049
3434.00,0.0050
3433.00,0.0051
3432.00,0.0051
3431.00,0.0052
3430.00,0.0052
3429.00,0.0052
3428.00,0.0052
3427.00,0.0052
3426.00,0.0052
3425.00,0.0053
3424.00,0.0053
3423.00,0.0053
3422.00,0.0053
3421.00,0.0054
3420.00,0.0054
3419.00,0.0054
3418.00,0.0055
3417.00,0.0055
3416.00,0.0056
3415.00,0.0056
3414.00,0.0056
3413.00,0.0057
3412.00,0.0057
3411.00,0.0057
3410.00,0.0058
3409.00,0.0058
3408.00,0.0058
3407.00,0.0058
3406.00,0.0058
3405.00,0.0059
3404.00,0.0059
3403.00,0.0059
3402.00,0.0058
3401.00,0.0058
3400.00,0.0058
3399.00,0.0059
3398.00,0.0059
3397.00,0.0059
3396.00,0.0060
3395.00,0.0060
3394.00,0.0060
3393.00,0.0060
3392.00,0.0061
3391.00,0.0061
3390.00,0.0061
3389.00,0.0062
3388.00,0.0062
3387.00,0.0063
3386.00,0.0063
3385.00,0.0063
3384.00,0.0063
3383.00,0.0063
3382.00,0.0063
3381.00,0.0063
3380.00,0.0064
3379.00,0.0064
3378.00,0.0064
3377.00,0.0065
3376.00,0.0065
3375.00,0.0065
3374.00,0.0065
3373.00,0.0065
3372.00,0.0065
3371.00,0.0065
3370.00,0.0065
3369.00,0.0066
3368.00,0.0066
3367.00,0.0066
3366.00,0.0066
3365.00,0.0067
3364.00,0.0067
3363.00,0.0068
3362.00,0.0068
3361.00,0.0068
3360.00,0.0068
3359.00,0.0068
3358.00,0.0068
3357.00,0.0068
3356.00,0.0068
3355.00,0.0068
3354.00,0.0069
3353.00,0.0069
3352.00,0.0070
3351.00,0.0070
3350.00,0.0070
3349.00,0.0069
3348.00,0.0069
3347.00,0.0069
3346.00,0.0070
3345.00,0.0070
3344.00,0.0070
3343.00,0.0070
3342.00,0.0071
3341.00,0.0071
3340.00,0.0071
3339.00,0.0071
3338.00,0.0071
3337.00,0.0071
3336.00,0.0071
3335.00,0.0071
3334.00,0.0072
3333.00,0.0072
3332.00,0.0072
3331.00,0.0072
3330.00,0.0072
3329.00,0.0072
3328.00,0.0072
3327.00,0.0072
3326.00,0.0072
3325.00,0.0072
3324.00,0.0072
3323.00,0.0072
3322.00,0.0073
3321.00,0.0073
3320.00,0.0073
3319.00,0.0074
3318.00,0.0074
3317.00,0.0074
3316.00,0.0075
3315.00,0.0075
3314.00,0.0075
3313.00,0.0074
3312.00,0.0074
3311.00,0.0074
3310.00,0.0074
3309.00,0.0074
3308.00,0.0074
3307.00,0.0075
3306.00,0.0075
3305.00,0.0075
3304.00,0.0076
3303.00,0.0076
3302.00,0.0076
3301.00,0.0075
3300.00,0.0075
3299.00,0.0075
3298.00,0.0075
3297.00,0.0075
3296.00,0.0075
3295.00,0.0075
3294.00,0.0075
3293.00,0.0075
3292.00,0.0075
3291.00,0.0075
3290.00,0.0075
3289.00,0.0075
3288.00,0.0074
3287.00,0.0074
3286.00,0.0074
3285.00,0.0073
3284.00,0.0073
3283.00,0.0073
3282.00,0.0073
3281.00,0.0073
3280.00,0.0072
3279.00,0.0072
3278.00,0.0072
3277.00,0.0072
3276.00,0.0071
3275.00,0.0071
3274.00,0.0070
3273.00,0.0070
3272.00,0.0069
3271.00,0.0069
3270.00,0.0069
3269.00,0.0070
3268.00,0.0070
3267.00,0.0070
3266.00,0.0070
3265.00,0.0069
3264.00,0.0069
3263.00,0.0069
3262.00,0.0069
3261.00,0.0068
3260.00,0.0068
3259.00,0.0067
3258.00,0.0066
3257.00,0.0066
3256.00,0.0065
3255.00,0.0064
3254.00,0.0064
3253.00,0.0063
3252.00,0.0063
3251.00,0.0063
3250.00,0.0063
3249.00,0.0063
3248.00,0.0062
3247.00,0.0062
3246.00,0.0062
3245.00,0.0062
3244.00,0.0061
3243.00,0.0061
3242.00,0.0061
3241.00,0.0061
3240.00,0.0061
3239.00,0.0060
3238.00,0.0060
3237.00,0.0059
3236.00,0.0059
3235.00,0.0059
3234.00,0.0059
3233.00,0.0059
3232.00,0.0059
3231.00,0.0059
3230.00,0.0059
3229.00,0.0059
3228.00,0.0059
3227.00,0.0059
3226.00,0.0059
3225.00,0.0059
3224.00,0.0060
3223.00,0.0060
3222.00,0.0060
3221.00,0.0060
3220.00,0.0060
3219.00,0.0060
3218.00,0.0060
3217.00,0.0059
3216.00,0.0059
3215.00,0.0059
3214.00,0.0059
3213.00,0.0059
3212.00,0.0059
3211.00,0.0059
3210.00,0.0059
3209.00,0.0058
3208.00,0.0059
3207.00,0.0059
3206.00,0.0059
3205.00,0.0060
3204.00,0.0060
3203.00,0.0060
3202.00,0.0059
3201.00,0.0059
3200.00,0.0059
3199.00,0.0059
3198.00,0.0060
3197.00,0.0060
3196.00,0.0060
3195.00,0.0059
3194.00,0.0059
3193.00,0.0058
3192.00,0.0058
3191.00,0.0058
3190.00,0.0058
3189.00,0.0057
3188.00,0.0057
3187.00,0.0057
3186.00,0.0056
3185.00,0.0056
3184.00,0.0056
3183.00,0.0056
3182.00,0.0057
3181.00,0.0057
3180.00,0.0057
3179.00,0.0057
3178.00,0.0057
3177.00,0.0056
3176.00,0.0055
3175.00,0.0055
3174.00,0.0054
3173.00,0.0054
3172.00,0.0054
3171.00,0.0054
3170.00,0.0053
3169.00,0.0053
3168.00,0.0053
3167.00,0.0053
3166.00,0.0053
3165.00,0.0053
3164.00,0.0053
3163.00,0.0053
3162.00,0.0053
3161.00,0.0053
3160.00,0.0052
3159.00,0.0052
3158.00,0.0053
3157.00,0.0053
3156.00,0.0053
3155.00,0.0053
3154.00,0.0053
3153.00,0.0052
3152.00,0.0052
3151.00,0.0051
3150.00,0.0051
3149.00,0.0052
3148.00,0.0052
3147.00,0.0052
3146.00,0.0052
3145.00,0.0051
3144.00,0.0051
3143.00,0.0051
3142.00,0.0050
3141.00,0.0050
3140.00,0.0050
3139.00,0.0050
3138.00,0.0050
3137.00,0.0050
3136.00,0.0050
3135.00,0.0050
3134.00,0.0049
3133.00,0.0049
3132.00,0.0049
3131.00,0.0048
3130.00,0.0048
3129.00,0.0047
3128.00,0.0047
3127.00,0.0047
3126.00,0.0047
3125.00,0.0047
3124.00,0.0046
3123.00,0.0045
3122.00,0.0045
3121.00,0.0045
3120.00,0.0044
3119.00,0.0045
3118.00,0.0045
3117.00,0.0045
3116.00,0.0044
3115.00,0.0044
3114.00,0.0044
3113.00,0.0044
3112.00,0.0044
3111.00,0.0044
3110.00,0.0044
3109.00,0.0043
3108.00,0.0043
3107.00,0.0043
3106.00,0.0044
3105.00,0.0043
3104.00,0.0043
3103.00,0.0043
3102.00,0.0042
3101.00,0.0042
3100.00,0.0042
3099.00,0.0042
3098.00,0.0042
3097.00,0.0042
3096.00,0.0042
3095.00,0.0042
3094.00,0.0042
3093.00,0.0042
3092.00,0.0042
3091.00,0.0042
3090.00,0.0042
3089.00,0.0042
3088.00,0.0042
3087.00,0.0042
3086.00,0.0042
3085.00,0.0042
3084.00,0.0041
3083.00,0.0041
3082.00,0.0042
3081.00,0.0042
3080.00,0.0042
3079.00,0.0042
3078.00,0.0042
3077.00,0.0043
3076.00,0.0043
3075.00,0.0044
3074.00,0.0044
3073.00,0.0044
3072.00,0.0044
3071.00,0.0044
3070.00,0.0044
3069.00,0.0044
3068.00,0.0044
3067.00,0.0045
3066.00,0.0045
3065.00,0.0046
3064.00,0.0045
3063.00,0.0045
3062.00,0.0045
3061.00,0.0045
3060.00,0.0046
3059.00,0.0046
3058.00,0.0047
3057.00,0.0047
3056.00,0.0047
3055.00,0.0047
3054.00,0.0047
3053.00,0.0047
3052.00,0.0047
3051.00,0.0047
3050.00,0.0047
3049.00,0.0047
3048.00,0.0047
3047.00,0.0047
3046.00,0.0047
3045.00,0.0047
3044.00,0.0048
3043.00,0.0048
3042.00,0.0048
3041.00,0.0048
3040.00,0.0048
3039.00,0.0048
3038.00,0.0049
3037.00,0.0049
3036.00,0.0049
3035.00,0.0049
3034.00,0.0049
3033.00,0.0050
3032.00,0.0050
3031.00,0.0049
3030.00,0.0049
3029.00,0.0049
3028.00,0.0049
3027.00,0.0049
3026.00,0.0049
3025.00,0.0049
3024.00,0.0049
3023.00,0.0049
3022.00,0.0048
3021.00,0.0047
3020.00,0.0045
3019.00,0.0043
3018.00,0.0041
3017.00,0.0039
3016.00,0.0035
3015.00,0.0032
3014.00,0.0027
3013.00,0.0022
3012.00,0.0016
3011.00,0.0009
3010.00,0.0001
3009.00,-0.0007
3008.00,-0.0017
3007.00,-0.0026
3006.00,-0.0037
3005.00,-0.0048
3004.00,-0.0059
3003.00,-0.0070
3002.00,-0.0080
3001.00,-0.0090
3000.00,-0.0100
2999.00,-0.0108
2998.00,-0.0114
2997.00,-0.0119
2996.00,-0.0123
2995.00,-0.0126
2994.00,-0.0128
2993.00,-0.0130
2992.00,-0.0132
2991.00,-0.0132
2990.00,-0.0132
2989.00,-0.0131
2988.00,-0.0132
2987.00,-0.0136
2986.00,-0.0147
2985.00,-0.0168
2984.00,-0.0195
2983.00,-0.0219
2982.00,-0.0228
2981.00,-0.0216
2980.00,-0.0185
2979.00,-0.0143
2978.00,-0.0096
2977.00,-0.0050
2976.00,-0.0006
2975.00,0.0034
2974.00,0.0073
2973.00,0.0114
2972.00,0.0165
2971.00,0.0229
2970.00,0.0307
2969.00,0.0394
2968.00,0.0486
2967.00,0.0579
2966.00,0.0672
2965.00,0.0765
2964.00,0.0853
2963.00,0.0934
2962.00,0.1003
2961.00,0.1061
2960.00,0.1109
2959.00,0.1151
2958.00,0.1194
2957.00,0.1244
2956.00,0.1306
2955.00,0.1383
2954.00,0.1472
2953.00,0.1567
2952.00,0.1658
2951.00,0.1733
2950.00,0.1779
2949.00,0.1787
2948.00,0.1751
2947.00,0.1674
2946.00,0.1567
2945.00,0.1442
2944.00,0.1316
2943.00,0.1202
2942.00,0.1108
2941.00,0.1040
2940.00,0.0997
2939.00,0.0978
2938.00,0.0981
2937.00,0.1002
2936.00,0.1041
2935.00,0.1095
2934.00,0.1162
2933.00,0.1243
2932.00,0.1337
2931.00,0.1442
2930.00,0.1555
2929.00,0.1673
2928.00,0.1792
2927.00,0.1908
2926.00,0.2020
2925.00,0.2128
2924.00,0.2233
2923.00,0.2336
2922.00,0.2439
2921.00,0.2538
2920.00,0.2628
2919.00,0.2699
2918.00,0.2740
2917.00,0.2744
2916.00,0.2706
2915.00,0.2632
2914.00,0.2529
2913.00,0.2412
2912.00,0.2292
2911.00,0.2176
2910.00,0.2070
2909.00,0.1972
2908.00,0.1882
2907.00,0.1798
2906.00,0.1717
2905.00,0.1637
2904.00,0.1559
2903.00,0.1482
2902.00,0.1408
2901.00,0.1336
2900.00,0.1268
2899.00,0.1203
2898.00,0.1143
2897.00,0.1089
2896.00,0.1041
2895.00,0.0999
2894.00,0.0964
2893.00,0.0936
2892.00,0.0915
2891.00,0.0901
2890.00,0.0894
2889.00,0.0893
2888.00,0.0897
2887.00,0.0905
2886.00,0.0916
2885.00,0.0931
2884.00,0.0952
2883.00,0.0980
2882.00,0.1015
2881.00,0.1054
2880.00,0.1093
2879.00,0.1126
2878.00,0.1150
2877.00,0.1163
2876.00,0.1166
2875.00,0.1163
2874.00,0.1159
2873.00,0.1160
2872.00,0.1168
2871.00,0.1185
2870.00,0.1209
2869.00,0.1235
2868.00,0.1255
2867.00,0.1261
2866.00,0.1243
2865.00,0.1198
2864.00,0.1128
2863.00,0.1041
2862.00,0.0948
2861.00,0.0861
2860.00,0.0785
2859.00,0.0724
2858.00,0.0679
2857.00,0.0646
2856.00,0.0625
2855.00,0.0612
2854.00,0.0607
2853.00,0.0609
2852.00,0.0617
2851.00,0.0630
2850.00,0.0649
2849.00,0.0672
2848.00,0.0701
2847.00,0.0736
2846.00,0.0779
2845.00,0.0831
2844.00,0.0891
2843.00,0.0956
2842.00,0.1024
2841.00,0.1088
2840.00,0.1141
2839.00,0.1175
2838.00,0.1181
2837.00,0.1155
2836.00,0.1097
2835.00,0.1012
2834.00,0.0911
2833.00,0.0804
2832.00,0.0702
2831.00,0.0612
2830.00,0.0535
2829.00,0.0472
2828.00,0.0421
2827.00,0.0379
2826.00,0.0346
2825.00,0.0318
2824.00,0.0296
2823.00,0.0277
2822.00,0.0261
2821.00,0.0247
2820.00,0.0235
2819.00,0.0224
2818.00,0.0215
2817.00,0.0206
2816.00,0.0199
2815.00,0.0193
2814.00,0.0187
2813.00,0.0182
2812.00,0.0177
2811.00,0.0172
2810.00,0.0167
2809.00,0.0162
2808.00,0.0155
2807.00,0.0149
2806.00,0.0142
2805.00,0.0135
2804.00,0.0129
2803.00,0.0124
2802.00,0.0119
2801.00,0.0114
2800.00,0.0110
2799.00,0.0107
2798.00,0.0104
2797.00,0.0102
2796.00,0.0100
2795.00,0.0098
2794.00,0.0095
2793.00,0.0093
2792.00,0.0090
2791.00,0.0087
2790.00,0.0085
2789.00,0.0082
2788.00,0.0079
2787.00,0.0077
2786.00,0.0074
2785.00,0.0072
2784.00,0.0070
2783.00,0.0068
2782.00,0.0066
2781.00,0.0065
2780.00,0.0063
2779.00,0.0061
2778.00,0.0060
2777.00,0.0058
2776.00,0.0057
2775.00,0.0056
2774.00,0.0056
2773.00,0.0055
2772.00,0.0055
2771.00,0.0054
2770.00,0.0054
2769.00,0.0053
2768.00,0.0053
2767.00,0.0052
2766.00,0.0052
2765.00,0.0052
2764.00,0.0052
2763.00,0.0052
2762.00,0.0052
2761.00,0.0051
2760.00,0.0051
2759.00,0.0050
2758.00,0.0049
2757.00,0.0049
2756.00,0.0049
2755.00,0.0049
2754.00,0.0049
2753.00,0.0049
2752.00,0.0049
2751.00,0.0049
2750.00,0.0050
2749.00,0.0050
2748.00,0.0050
2747.00,0.0050
2746.00,0.0050
2745.00,0.0051
2744.00,0.0051
2743.00,0.0052
2742.00,0.0053
2741.00,0.0054
2740.00,0.0056
2739.00,0.0057
2738.00,0.0058
2737.00,0.0060
2736.00,0.0062
2735.00,0.0063
2734.00,0.0065
2733.00,0.0067
2732.00,0.0069
2731.00,0.0071
2730.00,0.0073
2729.00,0.0075
2728.00,0.0078
2727.00,0.0081
2726.00,0.0084
2725.00,0.0087
2724.00,0.0088
2723.00,0.0089
2722.00,0.0088
2721.00,0.0086
2720.00,0.0083
2719.00,0.0080
2718.00,0.0077
2717.00,0.0074
2716.00,0.0071
2715.00,0.0068
2714.00,0.0065
2713.00,0.0063
2712.00,0.0061
2711.00,0.0059
2710.00,0.0057
2709.00,0.0056
2708.00,0.0054
2707.00,0.0053
2706.00,0.0052
2705.00,0.0051
2704.00,0.0050
2703.00,0.0049
2702.00,0.0048
2701.00,0.0047
2700.00,0.0046
2699.00,0.0045
2698.00,0.0044
2697.00,0.0044
2696.00,0.0044
2695.00,0.0044
2694.00,0.0044
2693.00,0.0043
2692.00,0.0043
2691.00,0.0043
2690.00,0.0043
2689.00,0.0043
2688.00,0.0043
2687.00,0.0043
2686.00,0.0043
2685.00,0.0042
2684.00,0.0042
2683.00,0.0042
2682.00,0.0043
2681.00,0.0043
2680.00,0.0043
2679.00,0.0043
2678.00,0.0043
2677.00,0.0043
2676.00,0.0043
2675.00,0.0042
2674.00,0.0042
2673.00,0.0041
2672.00,0.0041
2671.00,0.0040
2670.00,0.0040
2669.00,0.0040
2668.00,0.0040
2667.00,0.0040
2666.00,0.0040
2665.00,0.0041
2664.00,0.0041
2663.00,0.0042
2662.00,0.0043
2661.00,0.0043
2660.00,0.0044
2659.00,0.0044
2658.00,0.0044
2657.00,0.0043
2656.00,0.0043
2655.00,0.0042
2654.00,0.0041
2653.00,0.0040
2652.00,0.0040
2651.00,0.0040
2650.00,0.0040
2649.00,0.0039
2648.00,0.0039
2647.00,0.0039
2646.00,0.0038
2645.00,0.0037
2644.00,0.0036
2643.00,0.0036
2642.00,0.0035
2641.00,0.0035
2640.00,0.0035
2639.00,0.0035
2638.00,0.0035
2637.00,0.0035
2636.00,0.0035
2635.00,0.0035
2634.00,0.0036
2633.00,0.0036
2632.00,0.0036
2631.00,0.0036
2630.00,0.0036
2629.00,0.0037
2628.00,0.0037
2627.00,0.0038
2626.00,0.0038
2625.00,0.0038
2624.00,0.0038
2623.00,0.0038
2622.00,0.0039
2621.00,0.0039
2620.00,0.0039
2619.00,0.0039
2618.00,0.0040
2617.00,0.0040
2616.00,0.0040
2615.00,0.0040
2614.00,0.0039
2613.00,0.0039
2612.00,0.0039
2611.00,0.0038
2610.00,0.0037
2609.00,0.0036
2608.00,0.0035
2607.00,0.0034
2606.00,0.0034
2605.00,0.0034
2604.00,0.0034
2603.00,0.0034
2602.00,0.0034
2601.00,0.0034
2600.00,0.0034
2599.00,0.0033
2598.00,0.0033
2597.00,0.0033
2596.00,0.0033
2595.00,0.0033
2594.00,0.0034
2593.00,0.0035
2592.00,0.0036
2591.00,0.0036
2590.00,0.0037
2589.00,0.0037
2588.00,0.0038
2587.00,0.0039
2586.00,0.0040
2585.00,0.0041
2584.00,0.0042
2583.00,0.0042
2582.00,0.0043
2581.00,0.0043
2580.00,0.0042
2579.00,0.0041
2578.00,0.0040
2577.00,0.0039
2576.00,0.0037
2575.00,0.0035
2574.00,0.0034
2573.00,0.0033
2572.00,0.0031
2571.00,0.0030
2570.00,0.0030
2569.00,0.0029
2568.00,0.0029
2567.00,0.0029
2566.00,0.0029
2565.00,0.0028
2564.00,0.0028
2563.00,0.0027
2562.00,0.0026
2561.00,0.0025
2560.00,0.0025
2559.00,0.0024
2558.00,0.0024
2557.00,0.0024
2556.00,0.0024
2555.00,0.0024
2554.00,0.0024
2553.00,0.0024
2552.00,0.0023
2551.00,0.0022
2550.00,0.0022
2549.00,0.0022
2548.00,0.0022
2547.00,0.0021
2546.00,0.0020
2545.00,0.0019
2544.00,0.0018
2543.00,0.0018
2542.00,0.0018
2541.00,0.0019
2540.00,0.0019
2539.00,0.0019
2538.00,0.0019
2537.00,0.0019
2536.00,0.0018
2535.00,0.0018
2534.00,0.0018
2533.00,0.0018
2532.00,0.0017
2531.00,0.0017
2530.00,0.0016
2529.00,0.0016
2528.00,0.0016
2527.00,0.0016
2526.00,0.0016
2525.00,0.0016
2524.00,0.0016
2523.00,0.0015
2522.00,0.0015
2521.00,0.0014
2520.00,0.0013
2519.00,0.0013
2518.00,0.0013
2517.00,0.0012
2516.00,0.0012
2515.00,0.0012
2514.00,0.0012
2513.00,0.0012
2512.00,0.0012
2511.00,0.0012
2510.00,0.0012
2509.00,0.0012
2508.00,0.0011
2507.00,0.0011
2506.00,0.0011
2505.00,0.0012
2504.00,0.0012
2503.00,0.0013
2502.00,0.0013
2501.00,0.0013
2500.00,0.0012
2499.00,0.0012
2498.00,0.0012
2497.00,0.0011
2496.00,0.0011
2495.00,0.0011
2494.00,0.0011
2493.00,0.0011
2492.00,0.0011
2491.00,0.0011
2490.00,0.0012
2489.00,0.0012
2488.00,0.0013
2487.00,0.0013
2486.00,0.0013
2485.00,0.0013
2484.00,0.0013
2483.00,0.0012
2482.00,0.0012
2481.00,0.0012
2480.00,0.0012
2479.00,0.0012
2478.00,0.0012
2477.00,0.0012
2476.00,0.0012
2475.00,0.0011
2474.00,0.0011
2473.00,0.0011
2472.00,0.0011
2471.00,0.0011
2470.00,0.0011
2469.00,0.0011
2468.00,0.0011
2467.00,0.0011
2466.00,0.0011
2465.00,0.0011
2464.00,0.0011
2463.00,0.0010
2462.00,0.0010
2461.00,0.0011
2460.00,0.0011
2459.00,0.0012
2458.00,0.0012
2457.00,0.0012
2456.00,0.0013
2455.00,0.0013
2454.00,0.0013
2453.00,0.0012
2452.00,0.0012
2451.00,0.0012
2450.00,0.0012
2449.00,0.0012
2448.00,0.0012
2447.00,0.0012
2446.00,0.0012
2445.00,0.0012
2444.00,0.0012
2443.00,0.0012
2442.00,0.0012
2441.00,0.0012
2440.00,0.0012
2439.00,0.0012
2438.00,0.0012
2437.00,0.0012
2436.00,0.0012
2435.00,0.0013
2434.00,0.0013
2433.00,0.0014
2432.00,0.0014
2431.00,0.0014
2430.00,0.0014
2429.00,0.0014
2428.00,0.0014
2427.00,0.0014
2426.00,0.0014
2425.00,0.0014
2424.00,0.0014
2423.00,0.0013
2422.00,0.0013
2421.00,0.0013
2420.00,0.0013
2419.00,0.0012
2418.00,0.0012
2417.00,0.0012
2416.00,0.0013
2415.00,0.0012
2414.00,0.0012
2413.00,0.0012
2412.00,0.0012
2411.00,0.0012
2410.00,0.0012
2409.00,0.0011
2408.00,0.0011
2407.00,0.0010
2406.00,0.0010
2405.00,0.0010
2404.00,0.0011
2403.00,0.0011
2402.00,0.0011
2401.00,0.0011
2400.00,0.0011
2399.00,0.0011
2398.00,0.0010
2397.00,0.0010
2396.00,0.0010
2395.00,0.0010
2394.00,0.0010
2393.00,0.0010
2392.00,0.0010
2391.00,0.0009
2390.00,0.0009
2389.00,0.0009
2388.00,0.0009
2387.00,0.0009
2386.00,0.0008
2385.00,0.0008
2384.00,0.0007
2383.00,0.0006
2382.00,0.0005
2381.00,0.0005
2380.00,0.0005
2379.00,0.0004
2378.00,0.0004
2377.00,0.0003
2376.00,0.0003
2375.00,0.0004
2374.00,0.0004
2373.00,0.0004
2372.00,0.0004
2371.00,0.0003
2370.00,0.0003
2369.00,0.0003
2368.00,0.0003
2367.00,0.0002
2366.00,0.0003
2365.00,0.0003
2364.00,0.0003
2363.00,0.0003
2362.00,0.0003
2361.00,0.0003
2360.00,0.0003
2359.00,0.0003
2358.00,0.0004
2357.00,0.0003
2356.00,0.0003
2355.00,0.0002
2354.00,0.0001
2353.00,0.0000
2352.00,-0.0001
2351.00,-0.0001
2350.00,0.0001
2349.00,0.0003
2348.00,0.0005
2347.00,0.0006
2346.00,0.0005
2345.00,0.0004
2344.00,0.0004
2343.00,0.0004
2342.00,0.0004
2341.00,0.0004
2340.00,0.0005
2339.00,0.0005
2338.00,0.0005
2337.00,0.0006
2336.00,0.0006
2335.00,0.0006
2334.00,0.0006
2333.00,0.0005
2332.00,0.0004
2331.00,0.0004
2330.00,0.0004
2329.00,0.0005
2328.00,0.0007
2327.00,0.0010
2326.00,0.0013
2325.00,0.0016
2324.00,0.0017
2323.00,0.0016
2322.00,0.0014
2321.00,0.0013
2320.00,0.0012
2319.00,0.0011
2318.00,0.0010
2317.00,0.0010
2316.00,0.0009
2315.00,0.0008
2314.00,0.0007
2313.00,0.0006
2312.00,0.0006
2311.00,0.0005
2310.00,0.0005
2309.00,0.0005
2308.00,0.0005
2307.00,0.0006
2306.00,0.0006
2305.00,0.0007
2304.00,0.0007
2303.00,0.0008
2302.00,0.0008
2301.00,0.0008
2300.00,0.0008
2299.00,0.0009
2298.00,0.0011
2297.00,0.0012
2296.00,0.0012
2295.00,0.0013
2294.00,0.0013
2293.00,0.0014
2292.00,0.0015
2291.00,0.0016
2290.00,0.0016
2289.00,0.0017
2288.00,0.0017
2287.00,0.0018
2286.00,0.0019
2285.00,0.0019
2284.00,0.0019
2283.00,0.0019
2282.00,0.0018
2281.00,0.0017
2280.00,0.0016
2279.00,0.0015
2278.00,0.0014
2277.00,0.0014
2276.00,0.0014
2275.00,0.0015
2274.00,0.0015
2273.00,0.0016
2272.00,0.0015
2271.00,0.0013
2270.00,0.0012
2269.00,0.0012
2268.00,0.0012
2267.00,0.0011
2266.00,0.0011
2265.00,0.0011
2264.00,0.0011
2263.00,0.0010
2262.00,0.0010
2261.00,0.0010
2260.00,0.0010
2259.00,0.0011
2258.00,0.0012
2257.00,0.0012
2256.00,0.0012
2255.00,0.0012
2254.00,0.0011
2253.00,0.0011
2252.00,0.0011
2251.00,0.0010
2250.00,0.0009
2249.00,0.0010
2248.00,0.0010
2247.00,0.0011
2246.00,0.0011
2245.00,0.0012
2244.00,0.0012
2243.00,0.0013
2242.00,0.0013
2241.00,0.0013
2240.00,0.0012
2239.00,0.0011
2238.00,0.0009
2237.00,0.0008
2236.00,0.0007
2235.00,0.0007
2234.00,0.0007
2233.00,0.0009
2232.00,0.0011
2231.00,0.0011
2230.00,0.0012
2229.00,0.0011
2228.00,0.0010
2227.00,0.0009
2226.00,0.0009
2225.00,0.0009
2224.00,0.0009
2223.00,0.0010
2222.00,0.0010
2221.00,0.0010
2220.00,0.0010
2219.00,0.0010
2218.00,0.0010
2217.00,0.0010
2216.00,0.0009
2215.00,0.0009
2214.00,0.0010
2213.00,0.0010
2212.00,0.0010
2211.00,0.0009
2210.00,0.0008
2209.00,0.0008
2208.00,0.0007
2207.00,0.0005
2206.00,0.0004
2205.00,0.0004
2204.00,0.0005
2203.00,0.0006
2202.00,0.0007
2201.00,0.0009
2200.00,0.0009
2199.00,0.0009
2198.00,0.0008
2197.00,0.0007
2196.00,0.0008
2195.00,0.0009
2194.00,0.0011
2193.00,0.0012
2192.00,0.0012
2191.00,0.0011
2190.00,0.0011
2189.00,0.0011
2188.00,0.0012
2187.00,0.0012
2186.00,0.0011
2185.00,0.0012
2184.00,0.0013
2183.00,0.0014
2182.00,0.0012
2181.00,0.0011
2180.00,0.0010
2179.00,0.0011
2178.00,0.0012
2177.00,0.0014
2176.00,0.0013
2175.00,0.0010
2174.00,0.0007
2173.00,0.0007
2172.00,0.0010
2171.00,0.0015
2170.00,0.0019
2169.00,0.0021
2168.00,0.0021
2167.00,0.0019
2166.00,0.0018
2165.00,0.0019
2164.00,0.0022
2163.00,0.0025
2162.00,0.0025
2161.00,0.0021
2160.00,0.0011
2159.00,-0.0003
2158.00,-0.0013
2157.00,-0.0018
2156.00,-0.0016
2155.00,-0.0014
2154.00,-0.0013
2153.00,-0.0013
2152.00,-0.0013
2151.00,-0.0013
2150.00,-0.0012
2149.00,-0.0010
2148.00,-0.0008
2147.00,-0.0008
2146.00,-0.0009
2145.00,-0.0010
2144.00,-0.0010
2143.00,-0.0008
2142.00,-0.0006
2141.00,-0.0004
2140.00,-0.0003
2139.00,-0.0003
2138.00,-0.0005
2137.00,-0.0007
2136.00,-0.0009
2135.00,-0.0012
2134.00,-0.0013
2133.00,-0.0013
2132.00,-0.0013
2131.00,-0.0012
2130.00,-0.0011
2129.00,-0.0011
2128.00,-0.0010
2127.00,-0.0008
2126.00,-0.0007
2125.00,-0.0005
2124.00,-0.0004
2123.00,-0.0003
2122.00,-0.0001
2121.00,-0.0000
2120.00,0.0001
2119.00,0.0001
2118.00,0.0000
2117.00,0.0000
2116.00,0.0001
2115.00,0.0001
2114.00,0.0003
2113.00,0.0004
2112.00,0.0006
2111.00,0.0006
2110.00,0.0006
2109.00,0.0005
2108.00,0.0005
2107.00,0.0004
2106.00,0.0003
2105.00,0.0002
2104.00,0.0002
2103.00,0.0002
2102.00,0.0002
2101.00,0.0004
2100.00,0.0005
2099.00,0.0005
2098.00,0.0003
2097.00,0.0000
2096.00,-0.0002
2095.00,-0.0002
2094.00,-0.0001
2093.00,0.0000
2092.00,0.0001
2091.00,0.0000
2090.00,0.0000
2089.00,0.0000
2088.00,0.0002
2087.00,0.0003
2086.00,0.0004
2085.00,0.0004
2084.00,0.0004
2083.00,0.0003
2082.00,0.0003
2081.00,0.0003
2080.00,0.0003
2079.00,0.0004
2078.00,0.0004
2077.00,0.0005
2076.00,0.0006
2075.00,0.0005
2074.00,0.0005
2073.00,0.0004
2072.00,0.0003
2071.00,0.0003
2070.00,0.0003
2069.00,0.0003
2068.00,0.0003
2067.00,0.0002
2066.00,0.0000
2065.00,-0.0000
2064.00,0.0000
2063.00,0.0001
2062.00,0.0002
2061.00,0.0003
2060.00,0.0004
2059.00,0.0005
2058.00,0.0005
2057.00,0.0005
2056.00,0.0005
2055.00,0.0005
2054.00,0.0007
2053.00,0.0012
2052.00,0.0017
2051.00,0.0020
2050.00,0.0019
2049.00,0.0015
2048.00,0.0011
2047.00,0.0007
2046.00,0.0004
2045.00,0.0003
2044.00,0.0004
2043.00,0.0005
2042.00,0.0005
2041.00,0.0005
2040.00,0.0003
2039.00,0.0002
2038.00,0.0001
2037.00,0.0000
2036.00,-0.0000
2035.00,-0.0002
2034.00,-0.0005
2033.00,-0.0008
2032.00,-0.0009
2031.00,-0.0009
2030.00,-0.0008
2029.00,-0.0005
2028.00,-0.0002
2027.00,0.0000
2026.00,0.0001
2025.00,0.0001
2024.00,-0.0001
2023.00,-0.0004
2022.00,-0.0007
2021.00,-0.0009
2020.00,-0.0008
2019.00,-0.0007
2018.00,-0.0006
2017.00,-0.0005
2016.00,-0.0005
2015.00,-0.0006
2014.00,-0.0006
2013.00,-0.0006
2012.00,-0.0005
2011.00,-0.0006
2010.00,-0.0007
2009.00,-0.0009
2008.00,-0.0010
2007.00,-0.0011
2006.00,-0.0012
2005.00,-0.0012
2004.00,-0.0013
2003.00,-0.0014
2002.00,-0.0013
2001.00,-0.0010
2000.00,-0.0006
1999.00,-0.0004
1998.00,-0.0003
1997.00,-0.0002
1996.00,-0.0000
1995.00,0.0001
1994.00,0.0002
1993.00,0.0001
1992.00,0.0000
1991.00,-0.0000
1990.00,0.0000
1989.00,0.0001
1988.00,0.0002
1987.00,0.0003
1986.00,0.0003
1985.00,0.0005
1984.00,0.0007
1983.00,0.0010
1982.00,0.0014
1981.00,0.0016
1980.00,0.0017
1979.00,0.0012
1978.00,0.0004
1977.00,-0.0005
1976.00,-0.0011
1975.00,-0.0013
1974.00,-0.0011
1973.00,-0.0008
1972.00,-0.0006
1971.00,-0.0006
1970.00,-0.0008
1969.00,-0.0009
1968.00,-0.0008
1967.00,-0.0007
1966.00,-0.0006
1965.00,-0.0006
1964.00,-0.0007
1963.00,-0.0008
1962.00,-0.0010
1961.00,-0.0011
1960.00,-0.0013
1959.00,-0.0013
1958.00,-0.0013
1957.00,-0.0012
1956.00,-0.0011
1955.00,-0.0011
1954.00,-0.0011
1953.00,-0.0010
1952.00,-0.0009
1951.00,-0.0009
1950.00,-0.0009
1949.00,-0.0009
1948.00,-0.0009
1947.00,-0.0010
1946.00,-0.0010
1945.00,-0.0010
1944.00,-0.0008
1943.00,-0.0006
1942.00,-0.0005
1941.00,-0.0005
1940.00,-0.0006
1939.00,-0.0005
1938.00,-0.0004
1937.00,-0.0002
1936.00,-0.0001
1935.00,-0.0001
1934.00,-0.0002
1933.00,-0.0004
1932.00,-0.0005
1931.00,-0.0006
1930.00,-0.0005
1929.00,-0.0004
1928.00,-0.0003
1927.00,-0.0003
1926.00,-0.0003
1925.00,-0.0003
1924.00,-0.0003
1923.00,-0.0004
1922.00,-0.0004
1921.00,-0.0004
1920.00,-0.0003
1919.00,-0.0003
1918.00,-0.0002
1917.00,-0.0000
1916.00,0.0001
1915.00,0.0001
1914.00,0.0001
1913.00,0.0000
1912.00,0.0000
1911.00,-0.0000
1910.00,-0.0001
1909.00,-0.0001
1908.00,-0.0002
1907.00,-0.0002
1906.00,-0.0002
1905.00,-0.0001
1904.00,-0.0000
1903.00,0.0001
1902.00,0.0001
1901.00,0.0000
1900.00,0.0001
1899.00,0.0001
1898.00,0.0002
1897.00,0.0003
1896.00,0.0004
1895.00,0.0003
1894.00,0.0003
1893.00,0.0003
1892.00,0.0002
1891.00,0.0002
1890.00,0.0002
1889.00,0.0002
1888.00,0.0002
1887.00,0.0001
1886.00,0.0001
1885.00,0.0001
1884.00,0.0002
1883.00,0.0003
1882.00,0.0003
1881.00,0.0003
1880.00,0.0003
1879.00,0.0003
1878.00,0.0002
1877.00,0.0002
1876.00,0.0001
1875.00,0.0000
1874.00,0.0000
1873.00,0.0001
1872.00,0.0002
1871.00,0.0002
1870.00,0.0002
1869.00,0.0003
1868.00,0.0004
1867.00,0.0004
1866.00,0.0003
1865.00,0.0003
1864.00,0.0003
1863.00,0.0003
1862.00,0.0003
1861.00,0.0003
1860.00,0.0003
1859.00,0.0002
1858.00,0.0002
1857.00,0.0002
1856.00,0.0002
1855.00,0.0002
1854.00,0.0002
1853.00,0.0002
1852.00,0.0003
1851.00,0.0003
1850.00,0.0003
1849.00,0.0003
1848.00,0.0003
1847.00,0.0002
1846.00,0.0002
1845.00,0.0003
1844.00,0.0004
1843.00,0.0005
1842.00,0.0006
1841.00,0.0005
1840.00,0.0005
1839.00,0.0005
1838.00,0.0005
1837.00,0.0005
1836.00,0.0005
1835.00,0.0005
1834.00,0.0005
1833.00,0.0005
1832.00,0.0005
1831.00,0.0006
1830.00,0.0006
1829.00,0.0005
1828.00,0.0005
1827.00,0.0005
1826.00,0.0005
1825.00,0.0006
1824.00,0.0007
1823.00,0.0008
1822.00,0.0008
1821.00,0.0007
1820.00,0.0006
1819.00,0.0004
1818.00,0.0003
1817.00,0.0003
1816.00,0.0003
1815.00,0.0004
1814.00,0.0004
1813.00,0.0004
1812.00,0.0005
1811.00,0.0005
1810.00,0.0006
1809.00,0.0006
1808.00,0.0007
1807.00,0.0007
1806.00,0.0007
1805.00,0.0007
1804.00,0.0008
1803.00,0.0008
1802.00,0.0008
1801.00,0.0008
1800.00,0.0008
1799.00,0.0007
1798.00,0.0007
1797.00,0.0007
1796.00,0.0007
1795.00,0.0007
1794.00,0.0007
1793.00,0.0007
1792.00,0.0008
1791.00,0.0008
1790.00,0.0009
1789.00,0.0009
1788.00,0.0009
1787.00,0.0009
1786.00,0.0009
1785.00,0.0009
1784.00,0.0009
1783.00,0.0009
1782.00,0.0009
1781.00,0.0010
1780.00,0.0010
1779.00,0.0011
1778.00,0.0011
1777.00,0.0011
1776.00,0.0010
1775.00,0.0008
1774.00,0.0007
1773.00,0.0007
1772.00,0.0009
1771.00,0.0010
1770.00,0.0012
1769.00,0.0013
1768.00,0.0014
1767.00,0.0014
1766.00,0.0014
1765.00,0.0014
1764.00,0.0015
1763.00,0.0016
1762.00,0.0017
1761.00,0.0018
1760.00,0.0019
1759.00,0.0021
1758.00,0.0022
1757.00,0.0025
1756.00,0.0027
1755.00,0.0029
1754.00,0.0030
1753.00,0.0032
1752.00,0.0036
1751.00,0.0039
1750.00,0.0042
1749.00,0.0044
1748.00,0.0046
1747.00,0.0047
1746.00,0.0049
1745.00,0.0050
1744.00,0.0050
1743.00,0.0051
1742.00,0.0051
1741.00,0.0051
1740.00,0.0051
1739.00,0.0051
1738.00,0.0049
1737.00,0.0047
1736.00,0.0046
1735.00,0.0046
1734.00,0.0048
1733.00,0.0049
1732.00,0.0049
1731.00,0.0047
1730.00,0.0046
1729.00,0.0045
1728.00,0.0044
1727.00,0.0042
1726.00,0.0041
1725.00,0.0040
1724.00,0.0040
1723.00,0.0040
1722.00,0.0039
1721.00,0.0039
1720.00,0.0039
1719.00,0.0038
1718.00,0.0038
1717.00,0.0037
1716.00,0.0038
1715.00,0.0038
1714.00,0.0038
1713.00,0.0039
1712.00,0.0039
1711.00,0.0040
1710.00,0.0040
1709.00,0.0040
1708.00,0.0041
1707.00,0.0042
1706.00,0.0043
1705.00,0.0044
1704.00,0.0045
1703.00,0.0045
1702.00,0.0046
1701.00,0.0048
1700.00,0.0050
1699.00,0.0051
1698.00,0.0051
1697.00,0.0052
1696.00,0.0056
1695.00,0.0060
1694.00,0.0062
1693.00,0.0062
1692.00,0.0063
1691.00,0.0065
1690.00,0.0067
1689.00,0.0069
1688.00,0.0070
1687.00,0.0071
1686.00,0.0072
1685.00,0.0075
1684.00,0.0079
1683.00,0.0083
1682.00,0.0085
1681.00,0.0087
1680.00,0.0088
1679.00,0.0089
1678.00,0.0089
1677.00,0.0091
1676.00,0.0093
1675.00,0.0095
1674.00,0.0097
1673.00,0.0098
1672.00,0.0100
1671.00,0.0102
1670.00,0.0105
1669.00,0.0109
1668.00,0.0111
1667.00,0.0112
1666.00,0.0113
1665.00,0.0113
1664.00,0.0115
1663.00,0.0116
1662.00,0.0118
1661.00,0.0120
1660.00,0.0121
1659.00,0.0121
1658.00,0.0121
1657.00,0.0121
1656.00,0.0121
1655.00,0.0122
1654.00,0.0122
1653.00,0.0122
1652.00,0.0122
1651.00,0.0121
1650.00,0.0119
1649.00,0.0117
1648.00,0.0116
1647.00,0.0115
1646.00,0.0114
1645.00,0.0115
1644.00,0.0114
1643.00,0.0113
1642.00,0.0112
1641.00,0.0111
1640.00,0.0110
1639.00,0.0109
1638.00,0.0107
1637.00,0.0106
1636.00,0.0106
1635.00,0.0106
1634.00,0.0106
1633.00,0.0105
1632.00,0.0104
1631.00,0.0103
1630.00,0.0102
1629.00,0.0101
1628.00,0.0100
1627.00,0.0099
1626.00,0.0097
1625.00,0.0096
1624.00,0.0095
1623.00,0.0094
1622.00,0.0093
1621.00,0.0092
1620.00,0.0091
1619.00,0.0089
1618.00,0.0088
1617.00,0.0088
1616.00,0.0087
1615.00,0.0087
1614.00,0.0087
1613.00,0.0087
1612.00,0.0086
1611.00,0.0086
1610.00,0.0085
1609.00,0.0084
1608.00,0.0084
1607.00,0.0084
1606.00,0.0084
1605.00,0.0084
1604.00,0.0084
1603.00,0.0083
1602.00,0.0083
1601.00,0.0083
1600.00,0.0084
1599.00,0.0084
1598.00,0.0084
1597.00,0.0084
1596.00,0.0084
1595.00,0.0084
1594.00,0.0085
1593.00,0.0085
1592.00,0.0086
1591.00,0.0087
1590.00,0.0088
1589.00,0.0089
1588.00,0.0090
1587.00,0.0091
1586.00,0.0093
1585.00,0.0095
1584.00,0.0097
1583.00,0.0100
1582.00,0.0103
1581.00,0.0106
1580.00,0.0109
1579.00,0.0111
1578.00,0.0112
1577.00,0.0112
1576.00,0.0112
1575.00,0.0112
1574.00,0.0110
1573.00,0.0109
1572.00,0.0107
1571.00,0.0105
1570.00,0.0102
1569.00,0.0100
1568.00,0.0099
1567.00,0.0098
1566.00,0.0098
1565.00,0.0098
1564.00,0.0098
1563.00,0.0098
1562.00,0.0098
1561.00,0.0099
1560.00,0.0101
1559.00,0.0101
1558.00,0.0102
1557.00,0.0104
1556.00,0.0105
1555.00,0.0106
1554.00,0.0108
1553.00,0.0110
1552.00,0.0112
1551.00,0.0114
1550.00,0.0117
1549.00,0.0120
1548.00,0.0122
1547.00,0.0125
1546.00,0.0128
1545.00,0.0132
1544.00,0.0135
1543.00,0.0136
1542.00,0.0136
1541.00,0.0134
1540.00,0.0132
1539.00,0.0129
1538.00,0.0127
1537.00,0.0125
1536.00,0.0122
1535.00,0.0119
1534.00,0.0114
1533.00,0.0110
1532.00,0.0106
1531.00,0.0103
1530.00,0.0101
1529.00,0.0100
1528.00,0.0099
1527.00,0.0098
1526.00,0.0096
1525.00,0.0094
1524.00,0.0093
1523.00,0.0091
1522.00,0.0090
1521.00,0.0091
1520.00,0.0092
1519.00,0.0092
1518.00,0.0092
1517.00,0.0092
1516.00,0.0092
1515.00,0.0091
1514.00,0.0090
1513.00,0.0089
1512.00,0.0090
1511.00,0.0090
1510.00,0.0089
1509.00,0.0089
1508.00,0.0090
1507.00,0.0088
1506.00,0.0087
1505.00,0.0087
1504.00,0.0088
1503.00,0.0087
1502.00,0.0087
1501.00,0.0088
1500.00,0.0089
1499.00,0.0089
1498.00,0.0090
1497.00,0.0092
1496.00,0.0095
1495.00,0.0098
1494.00,0.0099
1493.00,0.0102
1492.00,0.0106
1491.00,0.0109
1490.00,0.0113
1489.00,0.0117
1488.00,0.0122
1487.00,0.0126
1486.00,0.0131
1485.00,0.0138
1484.00,0.0145
1483.00,0.0152
1482.00,0.0161
1481.00,0.0172
1480.00,0.0185
1479.00,0.0197
1478.00,0.0211
1477.00,0.0228
1476.00,0.0246
1475.00,0.0265
1474.00,0.0295
1473.00,0.0347
1472.00,0.0415
1471.00,0.0484
1470.00,0.0551
1469.00,0.0619
1468.00,0.0691
1467.00,0.0769
1466.00,0.0855
1465.00,0.0948
1464.00,0.1029
1463.00,0.1089
1462.00,0.1131
1461.00,0.1162
1460.00,0.1186
1459.00,0.1204
1458.00,0.1219
1457.00,0.1230
1456.00,0.1233
1455.00,0.1228
1454.00,0.1219
1453.00,0.1203
1452.00,0.1176
1451.00,0.1137
1450.00,0.1082
1449.00,0.1007
1448.00,0.0912
1447.00,0.0813
1446.00,0.0725
1445.00,0.0650
1444.00,0.0587
1443.00,0.0536
1442.00,0.0500
1441.00,0.0477
1440.00,0.0464
1439.00,0.0461
1438.00,0.0466
1437.00,0.0472
1436.00,0.0465
1435.00,0.0439
1434.00,0.0399
1433.00,0.0351
1432.00,0.0302
1431.00,0.0259
1430.00,0.0226
1429.00,0.0202
1428.00,0.0186
1427.00,0.0175
1426.00,0.0169
1425.00,0.0163
1424.00,0.0157
1423.00,0.0153
1422.00,0.0150
1421.00,0.0147
1420.00,0.0144
1419.00,0.0140
1418.00,0.0136
1417.00,0.0131
1416.00,0.0125
1415.00,0.0121
1414.00,0.0117
1413.00,0.0112
1412.00,0.0107
1411.00,0.0102
1410.00,0.0098
1409.00,0.0092
1408.00,0.0087
1407.00,0.0083
1406.00,0.0078
1405.00,0.0071
1404.00,0.0063
1403.00,0.0057
1402.00,0.0051
1401.00,0.0045
1400.00,0.0038
1399.00,0.0031
1398.00,0.0026
1397.00,0.0021
1396.00,0.0016
1395.00,0.0013
1394.00,0.0014
1393.00,0.0016
1392.00,0.0020
1391.00,0.0028
1390.00,0.0040
1389.00,0.0057
1388.00,0.0081
1387.00,0.0116
1386.00,0.0164
1385.00,0.0225
1384.00,0.0305
1383.00,0.0415
1382.00,0.0563
1381.00,0.0758
1380.00,0.1007
1379.00,0.1302
1378.00,0.1604
1377.00,0.1850
1376.00,0.1969
1375.00,0.1909
1374.00,0.1686
1373.00,0.1389
1372.00,0.1106
1371.00,0.0868
1370.00,0.0679
1369.00,0.0537
1368.00,0.0441
1367.00,0.0383
1366.00,0.0353
1365.00,0.0344
1364.00,0.0350
1363.00,0.0370
1362.00,0.0397
1361.00,0.0425
1360.00,0.0446
1359.00,0.0454
1358.00,0.0444
1357.00,0.0416
1356.00,0.0376
1355.00,0.0330
1354.00,0.0286
1353.00,0.0248
1352.00,0.0219
1351.00,0.0195
1350.00,0.0177
1349.00,0.0162
1348.00,0.0150
1347.00,0.0140
1346.00,0.0133
1345.00,0.0127
1344.00,0.0123
1343.00,0.0120
1342.00,0.0118
1341.00,0.0117
1340.00,0.0116
1339.00,0.0115
1338.00,0.0114
1337.00,0.0113
1336.00,0.0114
1335.00,0.0117
1334.00,0.0120
1333.00,0.0125
1332.00,0.0131
1331.00,0.0136
1330.00,0.0139
1329.00,0.0139
1328.00,0.0136
1327.00,0.0131
1326.00,0.0126
1325.00,0.0120
1324.00,0.0114
1323.00,0.0109
1322.00,0.0105
1321.00,0.0103
1320.00,0.0101
1319.00,0.0099
1318.00,0.0098
1317.00,0.0097
1316.00,0.0096
1315.00,0.0095
1314.00,0.0095
1313.00,0.0094
1312.00,0.0095
1311.00,0.0097
1310.00,0.0100
1309.00,0.0106
1308.00,0.0113
1307.00,0.0123
1306.00,0.0132
1305.00,0.0139
1304.00,0.0142
1303.00,0.0141
1302.00,0.0139
1301.00,0.0137
1300.00,0.0136
1299.00,0.0137
1298.00,0.0139
1297.00,0.0140
1296.00,0.0139
1295.00,0.0137
1294.00,0.0133
1293.00,0.0127
1292.00,0.0120
1291.00,0.0114
1290.00,0.0109
1289.00,0.0104
1288.00,0.0099
1287.00,0.0095
1286.00,0.0091
1285.00,0.0088
1284.00,0.0084
1283.00,0.0081
1282.00,0.0079
1281.00,0.0076
1280.00,0.0073
1279.00,0.0070
1278.00,0.0067
1277.00,0.0064
1276.00,0.0061
1275.00,0.0058
1274.00,0.0055
1273.00,0.0051
1272.00,0.0047
1271.00,0.0044
1270.00,0.0041
1269.00,0.0039
1268.00,0.0038
1267.00,0.0038
1266.00,0.0038
1265.00,0.0038
1264.00,0.0039
1263.00,0.0040
1262.00,0.0043
1261.00,0.0046
1260.00,0.0050
1259.00,0.0054
1258.00,0.0057
1257.00,0.0058
1256.00,0.0057
1255.00,0.0052
1254.00,0.0043
1253.00,0.0034
1252.00,0.0025
1251.00,0.0020
1250.00,0.0019
1249.00,0.0020
1248.00,0.0021
1247.00,0.0023
1246.00,0.0025
1245.00,0.0026
1244.00,0.0027
1243.00,0.0027
1242.00,0.0027
1241.00,0.0027
1240.00,0.0027
1239.00,0.0028
1238.00,0.0029
1237.00,0.0031
1236.00,0.0034
1235.00,0.0037
1234.00,0.0040
1233.00,0.0043
1232.00,0.0046
1231.00,0.0050
1230.00,0.0055
1229.00,0.0059
1228.00,0.0064
1227.00,0.0069
1226.00,0.0074
1225.00,0.0080
1224.00,0.0085
1223.00,0.0091
1222.00,0.0097
1221.00,0.0103
1220.00,0.0107
1219.00,0.0110
1218.00,0.0112
1217.00,0.0111
1216.00,0.0109
1215.00,0.0107
1214.00,0.0104
1213.00,0.0101
1212.00,0.0098
1211.00,0.0096
1210.00,0.0093
1209.00,0.0091
1208.00,0.0089
1207.00,0.0087
1206.00,0.0087
1205.00,0.0086
1204.00,0.0086
1203.00,0.0086
1202.00,0.0086
1201.00,0.0085
1200.00,0.0084
1199.00,0.0083
1198.00,0.0083
1197.00,0.0082
1196.00,0.0080
1195.00,0.0079
1194.00,0.0077
1193.00,0.0075
1192.00,0.0072
1191.00,0.0070
1190.00,0.0067
1189.00,0.0065
1188.00,0.0062
1187.00,0.0059
1186.00,0.0055
1185.00,0.0052
1184.00,0.0048
1183.00,0.0045
1182.00,0.0042
1181.00,0.0040
1180.00,0.0038
1179.00,0.0037
1178.00,0.0038
1177.00,0.0042
1176.00,0.0049
1175.00,0.0058
1174.00,0.0071
1173.00,0.0088
1172.00,0.0107
1171.00,0.0129
1170.00,0.0150
1169.00,0.0167
1168.00,0.0177
1167.00,0.0178
1166.00,0.0171
1165.00,0.0159
1164.00,0.0144
1163.00,0.0129
1162.00,0.0115
1161.00,0.0103
1160.00,0.0092
1159.00,0.0083
1158.00,0.0076
1157.00,0.0070
1156.00,0.0066
1155.00,0.0063
1154.00,0.0061
1153.00,0.0058
1152.00,0.0054
1151.00,0.0049
1150.00,0.0042
1149.00,0.0035
1148.00,0.0029
1147.00,0.0023
1146.00,0.0018
1145.00,0.0014
1144.00,0.0010
1143.00,0.0007
1142.00,0.0003
1141.00,0.0000
1140.00,-0.0003
1139.00,-0.0005
1138.00,-0.0006
1137.00,-0.0006
1136.00,-0.0005
1135.00,-0.0003
1134.00,-0.0001
1133.00,0.0001
1132.00,0.0002
1131.00,0.0004
1130.00,0.0007
1129.00,0.0010
1128.00,0.0014
1127.00,0.0019
1126.00,0.0023
1125.00,0.0027
1124.00,0.0030
1123.00,0.0033
1122.00,0.0036
1121.00,0.0039
1120.00,0.0043
1119.00,0.0047
1118.00,0.0051
1117.00,0.0054
1116.00,0.0057
1115.00,0.0061
1114.00,0.0064
1113.00,0.0067
1112.00,0.0071
1111.00,0.0075
1110.00,0.0080
1109.00,0.0086
1108.00,0.0092
1107.00,0.0099
1106.00,0.0106
1105.00,0.0114
1104.00,0.0120
1103.00,0.0124
1102.00,0.0123
1101.00,0.0118
1100.00,0.0110
1099.00,0.0100
1098.00,0.0089
1097.00,0.0079
1096.00,0.0070
1095.00,0.0061
1094.00,0.0053
1093.00,0.0046
1092.00,0.0039
1091.00,0.0033
1090.00,0.0028
1089.00,0.0024
1088.00,0.0020
1087.00,0.0017
1086.00,0.0013
1085.00,0.0010
1084.00,0.0008
1083.00,0.0006
1082.00,0.0004
1081.00,0.0003
1080.00,0.0001
1079.00,-0.0000
1078.00,-0.0002
1077.00,-0.0004
1076.00,-0.0006
1075.00,-0.0008
1074.00,-0.0010
1073.00,-0.0011
1072.00,-0.0011
1071.00,-0.0010
1070.00,-0.0007
1069.00,-0.0004
1068.00,-0.0001
1067.00,0.0004
1066.00,0.0008
1065.00,0.0012
1064.00,0.0015
1063.00,0.0018
1062.00,0.0020
1061.00,0.0022
1060.00,0.0025
1059.00,0.0028
1058.00,0.0032
1057.00,0.0035
1056.00,0.0039
1055.00,0.0044
1054.00,0.0048
1053.00,0.0053
1052.00,0.0058
1051.00,0.0063
1050.00,0.0068
1049.00,0.0073
1048.00,0.0078
1047.00,0.0083
1046.00,0.0088
1045.00,0.0092
1044.00,0.0095
1043.00,0.0097
1042.00,0.0097
1041.00,0.0097
1040.00,0.0098
1039.00,0.0099
1038.00,0.0102
1037.00,0.0105
1036.00,0.0107
1035.00,0.0108
1034.00,0.0107
1033.00,0.0106
1032.00,0.0105
1031.00,0.0105
1030.00,0.0105
1029.00,0.0106
1028.00,0.0105
1027.00,0.0104
1026.00,0.0103
1025.00,0.0103
1024.00,0.0104
1023.00,0.0105
1022.00,0.0105
1021.00,0.0105
1020.00,0.0105
1019.00,0.0106
1018.00,0.0108
1017.00,0.0110
1016.00,0.0112
1015.00,0.0114
1014.00,0.0116
1013.00,0.0119
1012.00,0.0122
1011.00,0.0125
1010.00,0.0128
1009.00,0.0129
1008.00,0.0131
1007.00,0.0134
1006.00,0.0139
1005.00,0.0147
1004.00,0.0159
1003.00,0.0176
1002.00,0.0198
1001.00,0.0225
1000.00,0.0253
999.00,0.0276
998.00,0.0286
997.00,0.0279
996.00,0.0257
995.00,0.0227
994.00,0.0195
993.00,0.0167
992.00,0.0145
991.00,0.0129
990.00,0.0117
989.00,0.0109
988.00,0.0103
987.00,0.0100
986.00,0.0099
985.00,0.0099
984.00,0.0101
983.00,0.0105
982.00,0.0113
981.00,0.0124
980.00,0.0138
979.00,0.0158
978.00,0.0182
977.00,0.0210
976.00,0.0239
975.00,0.0265
974.00,0.0279
973.00,0.0277
972.00,0.0254
971.00,0.0215
970.00,0.0167
969.00,0.0120
968.00,0.0080
967.00,0.0049
966.00,0.0027
965.00,0.0011
964.00,0.0000
963.00,-0.0007
962.00,-0.0014
961.00,-0.0021
960.00,-0.0030
959.00,-0.0039
958.00,-0.0047
957.00,-0.0052
956.00,-0.0056
955.00,-0.0058
954.00,-0.0060
953.00,-0.0061
952.00,-0.0060
951.00,-0.0057
950.00,-0.0053
949.00,-0.0049
948.00,-0.0044
947.00,-0.0039
946.00,-0.0034
945.00,-0.0030
944.00,-0.0025
943.00,-0.0020
942.00,-0.0015
941.00,-0.0009
940.00,-0.0005
939.00,-0.0003
938.00,-0.0003
937.00,-0.0003
936.00,-0.0002
935.00,0.0001
934.00,0.0005
933.00,0.0010
932.00,0.0015
931.00,0.0020
930.00,0.0024
929.00,0.0028
928.00,0.0031
927.00,0.0036
926.00,0.0040
925.00,0.0044
924.00,0.0047
923.00,0.0051
922.00,0.0054
921.00,0.0058
920.00,0.0061
919.00,0.0064
918.00,0.0066
917.00,0.0069
916.00,0.0071
915.00,0.0072
914.00,0.0073
913.00,0.0074
912.00,0.0076
911.00,0.0077
910.00,0.0080
909.00,0.0082
908.00,0.0086
907.00,0.0092
906.00,0.0100
905.00,0.0111
904.00,0.0127
903.00,0.0147
902.00,0.0169
901.00,0.0190
900.00,0.0206
899.00,0.0211
898.00,0.0204
897.00,0.0186
896.00,0.0164
895.00,0.0142
894.00,0.0123
893.00,0.0108
892.00,0.0098
891.00,0.0091
890.00,0.0087
889.00,0.0085
888.00,0.0084
887.00,0.0083
886.00,0.0082
885.00,0.0082
884.00,0.0081
883.00,0.0082
882.00,0.0082
881.00,0.0083
880.00,0.0083
879.00,0.0083
878.00,0.0083
877.00,0.0084
876.00,0.0085
875.00,0.0086
874.00,0.0086
873.00,0.0085
872.00,0.0084
871.00,0.0082
870.00,0.0081
869.00,0.0080
868.00,0.0079
867.00,0.0080
866.00,0.0082
865.00,0.0083
864.00,0.0084
863.00,0.0085
862.00,0.0086
861.00,0.0088
860.00,0.0090
859.00,0.0092
858.00,0.0093
857.00,0.0093
856.00,0.0093
855.00,0.0095
854.00,0.0096
853.00,0.0097
852.00,0.0100
851.00,0.0103
850.00,0.0107
849.00,0.0112
848.00,0.0119
847.00,0.0129
846.00,0.0145
845.00,0.0170
844.00,0.0201
843.00,0.0235
842.00,0.0260
841.00,0.0264
840.00,0.0247
839.00,0.0215
838.00,0.0182
837.00,0.0154
836.00,0.0135
835.00,0.0123
834.00,0.0116
833.00,0.0111
832.00,0.0108
831.00,0.0104
830.00,0.0101
829.00,0.0097
828.00,0.0095
827.00,0.0095
826.00,0.0096
825.00,0.0098
824.00,0.0098
823.00,0.0097
822.00,0.0096
821.00,0.0096
820.00,0.0097
819.00,0.0099
818.00,0.0103
817.00,0.0109
816.00,0.0117
815.00,0.0130
814.00,0.0147
813.00,0.0166
812.00,0.0187
811.00,0.0207
810.00,0.0222
809.00,0.0229
808.00,0.0227
807.00,0.0216
806.00,0.0200
805.00,0.0182
804.00,0.0164
803.00,0.0148
802.00,0.0136
801.00,0.0126
800.00,0.0119
799.00,0.0113
798.00,0.0109
797.00,0.0106
796.00,0.0103
795.00,0.0100
794.00,0.0098
793.00,0.0097
792.00,0.0096
791.00,0.0096
790.00,0.0096
789.00,0.0095
788.00,0.0092
787.00,0.0089
786.00,0.0086
785.00,0.0084
784.00,0.0082
783.00,0.0080
782.00,0.0079
781.00,0.0078
780.00,0.0077
779.00,0.0077
778.00,0.0077
777.00,0.0078
776.00,0.0078
775.00,0.0079
774.00,0.0081
773.00,0.0083
772.00,0.0085
771.00,0.0087
770.00,0.0088
769.00,0.0089
768.00,0.0089
767.00,0.0089
766.00,0.0089
765.00,0.0088
764.00,0.0086
763.00,0.0083
762.00,0.0080
761.00,0.0078
760.00,0.0076
759.00,0.0075
758.00,0.0074
757.00,0.0072
756.00,0.0069
755.00,0.0067
754.00,0.0066
753.00,0.0065
752.00,0.0065
751.00,0.0066
750.00,0.0067
749.00,0.0069
748.00,0.0071
747.00,0.0072
746.00,0.0073
745.00,0.0074
744.00,0.0074
743.00,0.0075
742.00,0.0075
741.00,0.0077
740.00,0.0079
739.00,0.0082
738.00,0.0084
737.00,0.0086
736.00,0.0086
735.00,0.0087
734.00,0.0088
733.00,0.0089
732.00,0.0090
731.00,0.0091
730.00,0.0092
729.00,0.0092
728.00,0.0092
727.00,0.0092
726.00,0.0093
725.00,0.0092
724.00,0.0090
723.00,0.0087
722.00,0.0085
721.00,0.0084
720.00,0.0084
719.00,0.0084
718.00,0.0083
717.00,0.0082
716.00,0.0079
715.00,0.0076
714.00,0.0074
713.00,0.0073
712.00,0.0073
711.00,0.0072
710.00,0.0072
709.00,0.0072
708.00,0.0074
707.00,0.0076
706.00,0.0078
705.00,0.0079
704.00,0.0079
703.00,0.0079
702.00,0.0077
701.00,0.0076
700.00,0.0074
699.00,0.0073
698.00,0.0072
697.00,0.0070
696.00,0.0069
695.00,0.0068
694.00,0.0070
693.00,0.0071
692.00,0.0072
691.00,0.0070
690.00,0.0068
689.00,0.0067
688.00,0.0067
687.00,0.0067
686.00,0.0069
685.00,0.0070
684.00,0.0070
683.00,0.0070
682.00,0.0070
681.00,0.0070
680.00,0.0071
679.00,0.0073
678.00,0.0074
677.00,0.0074
676.00,0.0074
675.00,0.0074
674.00,0.0074
673.00,0.0073
672.00,0.0072
671.00,0.0071
670.00,0.0070
669.00,0.0069
668.00,0.0069
667.00,0.0072
666.00,0.0073
665.00,0.0072
664.00,0.0070
663.00,0.0069
662.00,0.0070
661.00,0.0072
660.00,0.0074
659.00,0.0074
658.00,0.0073
657.00,0.0071
656.00,0.0070
655.00,0.0069
654.00,0.0069
653.00,0.0070
652.00,0.0071
651.00,0.0071
650.00,0.0069
649.00,0.0066
648.00,0.0065
647.00,0.0064
646.00,0.0065
645.00,0.0066
644.00,0.0065
643.00,0.0064
642.00,0.0065
641.00,0.0066
640.00,0.0068
639.00,0.0069
638.00,0.0070
637.00,0.0071
636.00,0.0072
635.00,0.0072
634.00,0.0073
633.00,0.0074
632.00,0.0075
631.00,0.0075
630.00,0.0075
629.00,0.0074
628.00,0.0073
627.00,0.0073
626.00,0.0073
625.00,0.0072
624.00,0.0072
623.00,0.0072
622.00,0.0073
621.00,0.0074
620.00,0.0073
619.00,0.0070
618.00,0.0068
617.00,0.0067
616.00,0.0069
615.00,0.0071
614.00,0.0074
613.00,0.0076
612.00,0.0077
611.00,0.0078
610.00,0.0079
609.00,0.0080
608.00,0.0079
607.00,0.0077
606.00,0.0076
605.00,0.0076
604.00,0.0075
603.00,0.0073
602.00,0.0071
601.00,0.0069
600.00,0.0068
599.00,0.0069
598.00,0.0070
597.00,0.0072
596.00,0.0074
595.00,0.0075
594.00,0.0074
593.00,0.0073
592.00,0.0072
591.00,0.0072
590.00,0.0074
589.00,0.0076
588.00,0.0076
587.00,0.0076
586.00,0.0075
585.00,0.0074
584.00,0.0074
583.00,0.0076
582.00,0.0079
581.00,0.0082
580.00,0.0083
579.00,0.0080
578.00,0.0077
577.00,0.0076
576.00,0.0076
575.00,0.0075
574.00,0.0075
573.00,0.0077
572.00,0.0079
571.00,0.0081
570.00,0.0081
569.00,0.0080
568.00,0.0078
567.00,0.0077
566.00,0.0077
565.00,0.0078
564.00,0.0079
563.00,0.0079
562.00,0.0080
561.00,0.0081
560.00,0.0082
559.00,0.0083
558.00,0.0082
557.00,0.0082
556.00,0.0082
555.00,0.0081
554.00,0.0078
553.00,0.0076
552.00,0.0076
551.00,0.0079
550.00,0.0081
549.00,0.0082
548.00,0.0082
547.00,0.0080
546.00,0.0078
545.00,0.0075
544.00,0.0073
543.00,0.0073
542.00,0.0075
541.00,0.0079
540.00,0.0083
539.00,0.0087
538.00,0.0089
537.00,0.0088
536.00,0.0086
535.00,0.0086
534.00,0.0090
533.00,0.0096
532.00,0.0098
531.00,0.0098
530.00,0.0095
529.00,0.0094
528.00,0.0094
527.00,0.0093
526.00,0.0092
525.00,0.0092
524.00,0.0092
523.00,0.0089
522.00,0.0086
521.00,0.0084
520.00,0.0086
519.00,0.0090
518.00,0.0091
517.00,0.0088
516.00,0.0081
515.00,0.0074
514.00,0.0070
513.00,0.0070
512.00,0.0072
511.00,0.0074
510.00,0.0076
509.00,0.0079
508.00,0.0082
507.00,0.0086
506.00,0.0087
505.00,0.0084
504.00,0.0080
503.00,0.0076
502.00,0.0072
501.00,0.0069
500.00,0.0067
499.00,0.0070
498.00,0.0075
497.00,0.0079
496.00,0.0079
495.00,0.0077
494.00,0.0076
493.00,0.0076
492.00,0.0075
491.00,0.0073
490.00,0.0074
489.00,0.0079
488.00,0.0084
487.00,0.0085
486.00,0.0086
485.00,0.0086
484.00,0.0085
483.00,0.0076
482.00,0.0061
481.00,0.0048
480.00,0.0045
479.00,0.0052
478.00,0.0066
477.00,0.0082
476.00,0.0091
475.00,0.0089
474.00,0.0080
473.00,0.0071
472.00,0.0071
471.00,0.0077
470.00,0.0084
469.00,0.0089
468.00,0.0095
467.00,0.0103
466.00,0.0109
465.00,0.0114
464.00,0.0119
463.00,0.0127
462.00,0.0137
461.00,0.0148
460.00,0.0159
459.00,0.0169
458.00,0.0170
457.00,0.0156
456.00,0.0130
455.00,0.0102
454.00,0.0083
453.00,0.0076
452.00,0.0081
451.00,0.0088
450.00,0.0090
