Created as New Dataset,Sample 003 By Administrator Date Friday, September 05 2025
cm-1,A
4000.00,0.0012
3999.00,0.0012
3998.00,0.0012
3997.00,0.0012
3996.00,0.0012
3995.00,0.0013
3994.00,0.0013
3993.00,0.0013
3992.00,0.0013
3991.00,0.0013
3990.00,0.0013
3989.00,0.0013
3988.00,0.0013
3987.00,0.0013
3986.00,0.0013
3985.00,0.0013
3984.00,0.0012
3983.00,0.0012
3982.00,0.0012
3981.00,0.0012
3980.00,0.0011
3979.00,0.0011
3978.00,0.0011
3977.00,0.0011
3976.00,0.0011
3975.00,0.0012
3974.00,0.0012
3973.00,0.0012
3972.00,0.0012
3971.00,0.0012
3970.00,0.0012
3969.00,0.0012
3968.00,0.0011
3967.00,0.0011
3966.00,0.0011
3965.00,0.0011
3964.00,0.0011
3963.00,0.0011
3962.00,0.0011
3961.00,0.0011
3960.00,0.0011
3959.00,0.0011
3958.00,0.0011
3957.00,0.0012
3956.00,0.0012
3955.00,0.0011
3954.00,0.0011
3953.00,0.0011
3952.00,0.0011
3951.00,0.0011
3950.00,0.0011
3949.00,0.0011
3948.00,0.0011
3947.00,0.0011
3946.00,0.0011
3945.00,0.0011
3944.00,0.0011
3943.00,0.0011
3942.00,0.0011
3941.00,0.0011
3940.00,0.0011
3939.00,0.0011
3938.00,0.0011
3937.00,0.0011
3936.00,0.0011
3935.00,0.0011
3934.00,0.0011
3933.00,0.0011
3932.00,0.0012
3931.00,0.0012
3930.00,0.0012
3929.00,0.0012
3928.00,0.0012
3927.00,0.0012
3926.00,0.0012
3925.00,0.0012
3924.00,0.0012
3923.00,0.0012
3922.00,0.0011
3921.00,0.0011
3920.00,0.0011
3919.00,0.0011
3918.00,0.0011
3917.00,0.0011
3916.00,0.0011
3915.00,0.0010
3914.00,0.0010
3913.00,0.0010
3912.00,0.0010
3911.00,0.0010
3910.00,0.0010
3909.00,0.0010
3908.00,0.0010
3907.00,0.0010
3906.00,0.0010
3905.00,0.0010
3904.00,0.0010
3903.00,0.0010
3902.00,0.0010
3901.00,0.0010
3900.00,0.0010
3899.00,0.0010
3898.00,0.0010
3897.00,0.0010
3896.00,0.0010
3895.00,0.0010
3894.00,0.0010
3893.00,0.0010
3892.00,0.0010
3891.00,0.0010
3890.00,0.0010
3889.00,0.0010
3888.00,0.0010
3887.00,0.0010
3886.00,0.0010
3885.00,0.0010
3884.00,0.0009
3883.00,0.0009
3882.00,0.0009
3881.00,0.0010
3880.00,0.0010
3879.00,0.0010
3878.00,0.0010
3877.00,0.0009
3876.00,0.0009
3875.00,0.0009
3874.00,0.0009
3873.00,0.0010
3872.00,0.0010
3871.00,0.0010
3870.00,0.0010
3869.00,0.0010
3868.00,0.0010
3867.00,0.0010
3866.00,0.0009
3865.00,0.0009
3864.00,0.0009
3863.00,0.0009
3862.00,0.0009
3861.00,0.0009
3860.00,0.0009
3859.00,0.0009
3858.00,0.0010
3857.00,0.0011
3856.00,0.0011
3855.00,0.0010
3854.00,0.0009
3853.00,0.0009
3852.00,0.0009
3851.00,0.0009
3850.00,0.0009
3849.00,0.0009
3848.00,0.0009
3847.00,0.0009
3846.00,0.0008
3845.00,0.0008
3844.00,0.0008
3843.00,0.0008
3842.00,0.0008
3841.00,0.0008
3840.00,0.0008
3839.00,0.0009
3838.00,0.0009
3837.00,0.0010
3836.00,0.0010
3835.00,0.0010
3834.00,0.0010
3833.00,0.0009
3832.00,0.0009
3831.00,0.0009
3830.00,0.0009
3829.00,0.0009
3828.00,0.0008
3827.00,0.0008
3826.00,0.0008
3825.00,0.0008
3824.00,0.0008
3823.00,0.0008
3822.00,0.0008
3821.00,0.0009
3820.00,0.0010
3819.00,0.0010
3818.00,0.0010
3817.00,0.0009
3816.00,0.0009
3815.00,0.0009
3814.00,0.0009
3813.00,0.0009
3812.00,0.0009
3811.00,0.0009
3810.00,0.0010
3809.00,0.0010
3808.00,0.0010
3807.00,0.0009
3806.00,0.0009
3805.00,0.0009
3804.00,0.0008
3803.00,0.0008
3802.00,0.0008
3801.00,0.0008
3800.00,0.0008
3799.00,0.0009
3798.00,0.0009
3797.00,0.0010
3796.00,0.0010
3795.00,0.0010
3794.00,0.0010
3793.00,0.0010
3792.00,0.0010
3791.00,0.0010
3790.00,0.0010
3789.00,0.0010
3788.00,0.0010
3787.00,0.0010
3786.00,0.0010
3785.00,0.0010
3784.00,0.0011
3783.00,0.0011
3782.00,0.0010
3781.00,0.0010
3780.00,0.0010
3779.00,0.0010
3778.00,0.0010
3777.00,0.0010
3776.00,0.0010
3775.00,0.0010
3774.00,0.0010
3773.00,0.0010
3772.00,0.0009
3771.00,0.0009
3770.00,0.0010
3769.00,0.0010
3768.00,0.0011
3767.00,0.0011
3766.00,0.0011
3765.00,0.0011
3764.00,0.0011
3763.00,0.0011
3762.00,0.0011
3761.00,0.0010
3760.00,0.0010
3759.00,0.0011
3758.00,0.0011
3757.00,0.0011
3756.00,0.0010
3755.00,0.0010
3754.00,0.0009
3753.00,0.0009
3752.00,0.0009
3751.00,0.0009
3750.00,0.0009
3749.00,0.0008
3748.00,0.0008
3747.00,0.0009
3746.00,0.0009
3745.00,0.0009
3744.00,0.0008
3743.00,0.0008
3742.00,0.0008
3741.00,0.0008
3740.00,0.0008
3739.00,0.0008
3738.00,0.0008
3737.00,0.0007
3736.00,0.0007
3735.00,0.0008
3734.00,0.0009
3733.00,0.0009
3732.00,0.0008
3731.00,0.0008
3730.00,0.0008
3729.00,0.0007
3728.00,0.0008
3727.00,0.0008
3726.00,0.0008
3725.00,0.0008
3724.00,0.0008
3723.00,0.0008
3722.00,0.0009
3721.00,0.0009
3720.00,0.0009
3719.00,0.0009
3718.00,0.0008
3717.00,0.0008
3716.00,0.0008
3715.00,0.0008
3714.00,0.0008
3713.00,0.0008
3712.00,0.0008
3711.00,0.0009
3710.00,0.0008
3709.00,0.0008
3708.00,0.0007
3707.00,0.0007
3706.00,0.0007
3705.00,0.0007
3704.00,0.0007
3703.00,0.0007
3702.00,0.0007
3701.00,0.0007
3700.00,0.0007
3699.00,0.0007
3698.00,0.0007
3697.00,0.0007
3696.00,0.0007
3695.00,0.0007
3694.00,0.0007
3693.00,0.0007
3692.00,0.0006
3691.00,0.0006
3690.00,0.0006
3689.00,0.0005
3688.00,0.0004
3687.00,0.0003
3686.00,0.0003
3685.00,0.0002
3684.00,0.0001
3683.00,-0.0001
3682.00,-0.0002
3681.00,-0.0003
3680.00,-0.0003
3679.00,-0.0004
3678.00,-0.0006
3677.00,-0.0007
3676.00,-0.0009
3675.00,-0.0010
3674.00,-0.0011
3673.00,-0.0012
3672.00,-0.0013
3671.00,-0.0014
3670.00,-0.0014
3669.00,-0.0014
3668.00,-0.0015
3667.00,-0.0016
3666.00,-0.0016
3665.00,-0.0017
3664.00,-0.0017
3663.00,-0.0018
3662.00,-0.0018
3661.00,-0.0018
3660.00,-0.0019
3659.00,-0.0019
3658.00,-0.0020
3657.00,-0.0020
3656.00,-0.0019
3655.00,-0.0018
3654.00,-0.0018
3653.00,-0.0018
3652.00,-0.0018
3651.00,-0.0017
3650.00,-0.0017
3649.00,-0.0016
3648.00,-0.0016
3647.00,-0.0015
3646.00,-0.0014
3645.00,-0.0014
3644.00,-0.0012
3643.00,-0.0011
3642.00,-0.0010
3641.00,-0.0009
3640.00,-0.0009
3639.00,-0.0009
3638.00,-0.0009
3637.00,-0.0009
3636.00,-0.0007
3635.00,-0.0006
3634.00,-0.0004
3633.00,-0.0002
3632.00,-0.0001
3631.00,-0.0000
3630.00,0.0001
3629.00,0.0002
3628.00,0.0003
3627.00,0.0004
3626.00,0.0004
3625.00,0.0004
3624.00,0.0004
3623.00,0.0004
3622.00,0.0004
3621.00,0.0004
3620.00,0.0004
3619.00,0.0004
3618.00,0.0004
3617.00,0.0004
3616.00,0.0005
3615.00,0.0005
3614.00,0.0006
3613.00,0.0007
3612.00,0.0007
3611.00,0.0008
3610.00,0.0008
3609.00,0.0009
3608.00,0.0009
3607.00,0.0009
3606.00,0.0009
3605.00,0.0008
3604.00,0.0008
3603.00,0.0008
3602.00,0.0009
3601.00,0.0010
3600.00,0.0010
3599.00,0.0011
3598.00,0.0011
3597.00,0.0010
3596.00,0.0010
3595.00,0.0010
3594.00,0.0011
3593.00,0.0011
3592.00,0.0010
3591.00,0.0010
3590.00,0.0010
3589.00,0.0010
3588.00,0.0011
3587.00,0.0011
3586.00,0.0012
3585.00,0.0012
3584.00,0.0012
3583.00,0.0012
3582.00,0.0012
3581.00,0.0013
3580.00,0.0013
3579.00,0.0013
3578.00,0.0013
3577.00,0.0012
3576.00,0.0012
3575.00,0.0012
3574.00,0.0012
3573.00,0.0013
3572.00,0.0013
3571.00,0.0013
3570.00,0.0014
3569.00,0.0014
3568.00,0.0013
3567.00,0.0013
3566.00,0.0013
3565.00,0.0013
3564.00,0.0014
3563.00,0.0014
3562.00,0.0015
3561.00,0.0015
3560.00,0.0016
3559.00,0.0016
3558.00,0.0017
3557.00,0.0017
3556.00,0.0016
3555.00,0.0016
3554.00,0.0016
3553.00,0.0016
3552.00,0.0017
3551.00,0.0017
3550.00,0.0017
3549.00,0.0018
3548.00,0.0018
3547.00,0.0018
3546.00,0.0018
3545.00,0.0018
3544.00,0.0018
3543.00,0.0018
3542.00,0.0018
3541.00,0.0019
3540.00,0.0019
3539.00,0.0019
3538.00,0.0019
3537.00,0.0019
3536.00,0.0019
3535.00,0.0018
3534.00,0.0019
3533.00,0.0019
3532.00,0.0019
3531.00,0.0020
3530.00,0.0020
3529.00,0.0021
3528.00,0.0021
3527.00,0.0021
3526.00,0.0021
3525.00,0.0021
3524.00,0.0021
3523.00,0.0021
3522.00,0.0022
3521.00,0.0022
3520.00,0.0022
3519.00,0.0022
3518.00,0.0022
3517.00,0.0022
3516.00,0.0022
3515.00,0.0022
3514.00,0.0023
3513.00,0.0023
3512.00,0.0023
3511.00,0.0023
3510.00,0.0023
3509.00,0.0023
3508.00,0.0023
3507.00,0.0024
3506.00,0.0024
3505.00,0.0024
3504.00,0.0024
3503.00,0.0024
3502.00,0.0024
3501.00,0.0024
3500.00,0.0024
3499.00,0.0025
3498.00,0.0025
3497.00,0.0025
3496.00,0.0025
3495.00,0.0026
3494.00,0.0026
3493.00,0.0026
3492.00,0.0025
3491.00,0.0025
3490.00,0.0025
3489.00,0.0025
3488.00,0.0026
3487.00,0.0026
3486.00,0.0026
3485.00,0.0027
3484.00,0.0027
3483.00,0.0027
3482.00,0.0028
3481.00,0.0028
3480.00,0.0028
3479.00,0.0028
3478.00,0.0027
3477.00,0.0027
3476.00,0.0027
3475.00,0.0028
3474.00,0.0028
3473.00,0.0029
3472.00,0.0029
3471.00,0.0029
3470.00,0.0029
3469.00,0.0029
3468.00,0.0029
3467.00,0.0029
3466.00,0.0030
3465.00,0.0030
3464.00,0.0030
3463.00,0.0030
3462.00,0.0030
3461.00,0.0030
3460.00,0.0030
3459.00,0.0030
3458.00,0.0030
3457.00,0.0030
3456.00,0.0030
3455.00,0.0030
3454.00,0.0031
3453.00,0.0031
3452.00,0.0032
3451.00,0.0032
3450.00,0.0032
3449.00,0.0032
3448.00,0.0033
3447.00,0.0033
3446.00,0.0033
3445.00,0.0033
3444.00,0.0033
3443.00,0.0033
3442.00,0.0033
3441.00,0.0033
3440.00,0.0033
3439.00,0.0034
3438.00,0.0034
3437.00,0.0033
3436.00,0.0033
3435.00,0.0033
3434.00,0.0033
3433.00,0.0034
3432.00,0.0034
3431.00,0.0035
3430.00,0.0035
3429.00,0.0035
3428.00,0.0035
3427.00,0.0035
3426.00,0.0035
3425.00,0.0036
3424.00,0.0036
3423.00,0.0036
3422.00,0.0036
3421.00,0.0036
3420.00,0.0036
3419.00,0.0036
3418.00,0.0037
3417.00,0.0037
3416.00,0.0037
3415.00,0.0037
3414.00,0.0037
3413.00,0.0037
3412.00,0.0038
3411.00,0.0038
3410.00,0.0038
3409.00,0.0038
3408.00,0.0038
3407.00,0.0039
3406.00,0.0039
3405.00,0.0039
3404.00,0.0039
3403.00,0.0039
3402.00,0.0039
3401.00,0.0039
3400.00,0.0039
3399.00,0.0039
3398.00,0.0040
3397.00,0.0040
3396.00,0.0040
3395.00,0.0041
3394.00,0.0041
3393.00,0.0041
3392.00,0.0041
3391.00,0.0041
3390.00,0.0041
3389.00,0.0041
3388.00,0.0041
3387.00,0.0041
3386.00,0.0041
3385.00,0.0041
3384.00,0.0041
3383.00,0.0041
3382.00,0.0042
3381.00,0.0042
3380.00,0.0043
3379.00,0.0043
3378.00,0.0043
3377.00,0.0043
3376.00,0.0043
3375.00,0.0043
3374.00,0.0043
3373.00,0.0042
3372.00,0.0042
3371.00,0.0042
3370.00,0.0043
3369.00,0.0043
3368.00,0.0043
3367.00,0.0043
3366.00,0.0044
3365.00,0.0044
3364.00,0.0044
3363.00,0.0045
3362.00,0.0045
3361.00,0.0045
3360.00,0.0045
3359.00,0.0045
3358.00,0.0045
3357.00,0.0045
3356.00,0.0045
3355.00,0.0046
3354.00,0.0046
3353.00,0.0046
3352.00,0.0046
3351.00,0.0046
3350.00,0.0046
3349.00,0.0046
3348.00,0.0046
3347.00,0.0046
3346.00,0.0046
3345.00,0.0046
3344.00,0.0046
3343.00,0.0046
3342.00,0.0046
3341.00,0.0047
3340.00,0.0047
3339.00,0.0046
3338.00,0.0046
3337.00,0.0046
3336.00,0.0046
3335.00,0.0047
3334.00,0.0047
3333.00,0.0047
3332.00,0.0047
3331.00,0.0047
3330.00,0.0047
3329.00,0.0046
3328.00,0.0047
3327.00,0.0047
3326.00,0.0047
3325.00,0.0047
3324.00,0.0047
3323.00,0.0047
3322.00,0.0047
3321.00,0.0047
3320.00,0.0047
3319.00,0.0047
3318.00,0.0048
3317.00,0.0048
3316.00,0.0049
3315.00,0.0049
3314.00,0.0049
3313.00,0.0049
3312.00,0.0049
3311.00,0.0049
3310.00,0.0049
3309.00,0.0049
3308.00,0.0049
3307.00,0.0049
3306.00,0.0049
3305.00,0.0049
3304.00,0.0049
3303.00,0.0049
3302.00,0.0049
3301.00,0.0049
3300.00,0.0049
3299.00,0.0049
3298.00,0.0049
3297.00,0.0049
3296.00,0.0049
3295.00,0.0050
3294.00,0.0049
3293.00,0.0049
3292.00,0.0049
3291.00,0.0049
3290.00,0.0049
3289.00,0.0049
3288.00,0.0049
3287.00,0.0049
3286.00,0.0049
3285.00,0.0049
3284.00,0.0049
3283.00,0.0049
3282.00,0.0048
3281.00,0.0048
3280.00,0.0048
3279.00,0.0048
3278.00,0.0048
3277.00,0.0047
3276.00,0.0047
3275.00,0.0047
3274.00,0.0047
3273.00,0.0047
3272.00,0.0046
3271.00,0.0046
3270.00,0.0046
3269.00,0.0046
3268.00,0.0046
3267.00,0.0046
3266.00,0.0046
3265.00,0.0046
3264.00,0.0046
3263.00,0.0045
3262.00,0.0045
3261.00,0.0045
3260.00,0.0045
3259.00,0.0045
3258.00,0.0044
3257.00,0.0044
3256.00,0.0043
3255.00,0.0043
3254.00,0.0043
3253.00,0.0043
3252.00,0.0042
3251.00,0.0042
3250.00,0.0042
3249.00,0.0042
3248.00,0.0042
3247.00,0.0042
3246.00,0.0042
3245.00,0.0042
3244.00,0.0042
3243.00,0.0042
3242.00,0.0042
3241.00,0.0042
3240.00,0.0042
3239.00,0.0042
3238.00,0.0041
3237.00,0.0041
3236.00,0.0041
3235.00,0.0041
3234.00,0.0041
3233.00,0.0042
3232.00,0.0042
3231.00,0.0042
3230.00,0.0042
3229.00,0.0042
3228.00,0.0042
3227.00,0.0042
3226.00,0.0043
3225.00,0.0043
3224.00,0.0043
3223.00,0.0043
3222.00,0.0043
3221.00,0.0043
3220.00,0.0043
3219.00,0.0043
3218.00,0.0043
3217.00,0.0043
3216.00,0.0043
3215.00,0.0043
3214.00,0.0043
3213.00,0.0043
3212.00,0.0043
3211.00,0.0043
3210.00,0.0043
3209.00,0.0043
3208.00,0.0043
3207.00,0.0043
3206.00,0.0044
3205.00,0.0045
3204.00,0.0045
3203.00,0.0045
3202.00,0.0045
3201.00,0.0045
3200.00,0.0045
3199.00,0.0046
3198.00,0.0046
3197.00,0.0046
3196.00,0.0046
3195.00,0.0045
3194.00,0.0045
3193.00,0.0045
3192.00,0.0045
3191.00,0.0044
3190.00,0.0044
3189.00,0.0044
3188.00,0.0044
3187.00,0.0044
3186.00,0.0044
3185.00,0.0044
3184.00,0.0043
3183.00,0.0043
3182.00,0.0043
3181.00,0.0043
3180.00,0.0044
3179.00,0.0044
3178.00,0.0044
3177.00,0.0043
3176.00,0.0043
3175.00,0.0042
3174.00,0.0042
3173.00,0.0042
3172.00,0.0042
3171.00,0.0042
3170.00,0.0041
3169.00,0.0041
3168.00,0.0041
3167.00,0.0041
3166.00,0.0041
3165.00,0.0041
3164.00,0.0041
3163.00,0.0041
3162.00,0.0040
3161.00,0.0040
3160.00,0.0041
3159.00,0.0041
3158.00,0.0042
3157.00,0.0042
3156.00,0.0042
3155.00,0.0042
3154.00,0.0042
3153.00,0.0041
3152.00,0.0041
3151.00,0.0041
3150.00,0.0041
3149.00,0.0041
3148.00,0.0041
3147.00,0.0041
3146.00,0.0041
3145.00,0.0040
3144.00,0.0040
3143.00,0.0040
3142.00,0.0040
3141.00,0.0040
3140.00,0.0040
3139.00,0.0040
3138.00,0.0040
3137.00,0.0040
3136.00,0.0040
3135.00,0.0040
3134.00,0.0039
3133.00,0.0039
3132.00,0.0038
3131.00,0.0038
3130.00,0.0038
3129.00,0.0038
3128.00,0.0038
3127.00,0.0038
3126.00,0.0038
3125.00,0.0038
3124.00,0.0037
3123.00,0.0037
3122.00,0.0036
3121.00,0.0036
3120.00,0.0036
3119.00,0.0036
3118.00,0.0036
3117.00,0.0035
3116.00,0.0035
3115.00,0.0035
3114.00,0.0035
3113.00,0.0035
3112.00,0.0035
3111.00,0.0035
3110.00,0.0035
3109.00,0.0035
3108.00,0.0035
3107.00,0.0035
3106.00,0.0035
3105.00,0.0035
3104.00,0.0034
3103.00,0.0034
3102.00,0.0034
3101.00,0.0034
3100.00,0.0034
3099.00,0.0034
3098.00,0.0034
3097.00,0.0034
3096.00,0.0034
3095.00,0.0034
3094.00,0.0034
3093.00,0.0034
3092.00,0.0034
3091.00,0.0034
3090.00,0.0034
3089.00,0.0034
3088.00,0.0034
3087.00,0.0034
3086.00,0.0034
3085.00,0.0034
3084.00,0.0034
3083.00,0.0034
3082.00,0.0033
3081.00,0.0033
3080.00,0.0033
3079.00,0.0033
3078.00,0.0033
3077.00,0.0034
3076.00,0.0034
3075.00,0.0034
3074.00,0.0035
3073.00,0.0035
3072.00,0.0035
3071.00,0.0035
3070.00,0.0035
3069.00,0.0036
3068.00,0.0036
3067.00,0.0037
3066.00,0.0037
3065.00,0.0037
3064.00,0.0037
3063.00,0.0037
3062.00,0.0037
3061.00,0.0037
3060.00,0.0037
3059.00,0.0038
3058.00,0.0038
3057.00,0.0038
3056.00,0.0038
3055.00,0.0038
3054.00,0.0038
3053.00,0.0038
3052.00,0.0038
3051.00,0.0039
3050.00,0.0039
3049.00,0.0039
3048.00,0.0039
3047.00,0.0039
3046.00,0.0039
3045.00,0.0039
3044.00,0.0040
3043.00,0.0040
3042.00,0.0040
3041.00,0.0040
3040.00,0.0040
3039.00,0.0040
3038.00,0.0040
3037.00,0.0040
3036.00,0.0041
3035.00,0.0041
3034.00,0.0041
3033.00,0.0042
3032.00,0.0042
3031.00,0.0043
3030.00,0.0043
3029.00,0.0043
3028.00,0.0043
3027.00,0.0043
3026.00,0.0043
3025.00,0.0043
3024.00,0.0043
3023.00,0.0043
3022.00,0.0043
3021.00,0.0043
3020.00,0.0042
3019.00,0.0042
3018.00,0.0041
3017.00,0.0040
3016.00,0.0039
3015.00,0.0037
3014.00,0.0035
3013.00,0.0033
3012.00,0.0030
3011.00,0.0027
3010.00,0.0023
3009.00,0.0020
3008.00,0.0015
3007.00,0.0010
3006.00,0.0005
3005.00,-0.0000
3004.00,-0.0006
3003.00,-0.0011
3002.00,-0.0016
3001.00,-0.0020
3000.00,-0.0024
2999.00,-0.0028
2998.00,-0.0030
2997.00,-0.0031
2996.00,-0.0031
2995.00,-0.0031
2994.00,-0.0030
2993.00,-0.0029
2992.00,-0.0027
2991.00,-0.0024
2990.00,-0.0021
2989.00,-0.0017
2988.00,-0.0014
2987.00,-0.0012
2986.00,-0.0013
2985.00,-0.0019
2984.00,-0.0028
2983.00,-0.0035
2982.00,-0.0032
2981.00,-0.0016
2980.00,0.0013
2979.00,0.0049
2978.00,0.0089
2977.00,0.0131
2976.00,0.0173
2975.00,0.0216
2974.00,0.0261
2973.00,0.0311
2972.00,0.0371
2971.00,0.0442
2970.00,0.0526
2969.00,0.0619
2968.00,0.0719
2967.00,0.0826
2966.00,0.0938
2965.00,0.1053
2964.00,0.1169
2963.00,0.1279
2962.00,0.1379
2961.00,0.1461
2960.00,0.1525
2959.00,0.1572
2958.00,0.1606
2957.00,0.1637
2956.00,0.1670
2955.00,0.1713
2954.00,0.1766
2953.00,0.1826
2952.00,0.1882
2951.00,0.1924
2950.00,0.1938
2949.00,0.1917
2948.00,0.1856
2947.00,0.1758
2946.00,0.1634
2945.00,0.1498
2944.00,0.1365
2943.00,0.1245
2942.00,0.1147
2941.00,0.1075
2940.00,0.1029
2939.00,0.1006
2938.00,0.1005
2937.00,0.1023
2936.00,0.1058
2935.00,0.1107
2934.00,0.1169
2933.00,0.1244
2932.00,0.1332
2931.00,0.1429
2930.00,0.1532
2929.00,0.1639
2928.00,0.1745
2927.00,0.1848
2926.00,0.1946
2925.00,0.2038
2924.00,0.2127
2923.00,0.2214
2922.00,0.2300
2921.00,0.2381
2920.00,0.2452
2919.00,0.2506
2918.00,0.2535
2917.00,0.2533
2916.00,0.2499
2915.00,0.2438
2914.00,0.2357
2913.00,0.2268
2912.00,0.2178
2911.00,0.2093
2910.00,0.2017
2909.00,0.1948
2908.00,0.1883
2907.00,0.1820
2906.00,0.1756
2905.00,0.1690
2904.00,0.1622
2903.00,0.1551
2902.00,0.1479
2901.00,0.1408
2900.00,0.1338
2899.00,0.1273
2898.00,0.1211
2897.00,0.1156
2896.00,0.1106
2895.00,0.1063
2894.00,0.1028
2893.00,0.0999
2892.00,0.0978
2891.00,0.0964
2890.00,0.0957
2889.00,0.0955
2888.00,0.0957
2887.00,0.0963
2886.00,0.0972
2885.00,0.0984
2884.00,0.1001
2883.00,0.1023
2882.00,0.1050
2881.00,0.1079
2880.00,0.1106
2879.00,0.1128
2878.00,0.1141
2877.00,0.1145
2876.00,0.1141
2875.00,0.1134
2874.00,0.1128
2873.00,0.1128
2872.00,0.1137
2871.00,0.1153
2870.00,0.1175
2869.00,0.1197
2868.00,0.1213
2867.00,0.1213
2866.00,0.1191
2865.00,0.1142
2864.00,0.1070
2863.00,0.0984
2862.00,0.0893
2861.00,0.0808
2860.00,0.0734
2859.00,0.0676
2858.00,0.0632
2857.00,0.0600
2856.00,0.0580
2855.00,0.0568
2854.00,0.0565
2853.00,0.0569
2852.00,0.0579
2851.00,0.0596
2850.00,0.0619
2849.00,0.0650
2848.00,0.0688
2847.00,0.0734
2846.00,0.0789
2845.00,0.0853
2844.00,0.0925
2843.00,0.1003
2842.00,0.1082
2841.00,0.1154
2840.00,0.1212
2839.00,0.1247
2838.00,0.1251
2837.00,0.1219
2836.00,0.1154
2835.00,0.1061
2834.00,0.0952
2833.00,0.0840
2832.00,0.0733
2831.00,0.0639
2830.00,0.0560
2829.00,0.0495
2828.00,0.0443
2827.00,0.0400
2826.00,0.0365
2825.00,0.0337
2824.00,0.0313
2823.00,0.0293
2822.00,0.0276
2821.00,0.0261
2820.00,0.0248
2819.00,0.0236
2818.00,0.0226
2817.00,0.0217
2816.00,0.0209
2815.00,0.0202
2814.00,0.0197
2813.00,0.0191
2812.00,0.0186
2811.00,0.0181
2810.00,0.0176
2809.00,0.0171
2808.00,0.0165
2807.00,0.0159
2806.00,0.0152
2805.00,0.0145
2804.00,0.0139
2803.00,0.0133
2802.00,0.0128
2801.00,0.0123
2800.00,0.0119
2799.00,0.0116
2798.00,0.0114
2797.00,0.0111
2796.00,0.0109
2795.00,0.0107
2794.00,0.0105
2793.00,0.0102
2792.00,0.0099
2791.00,0.0096
2790.00,0.0092
2789.00,0.0089
2788.00,0.0086
2787.00,0.0082
2786.00,0.0080
2785.00,0.0077
2784.00,0.0074
2783.00,0.0072
2782.00,0.0070
2781.00,0.0068
2780.00,0.0066
2779.00,0.0064
2778.00,0.0062
2777.00,0.0061
2776.00,0.0060
2775.00,0.0059
2774.00,0.0059
2773.00,0.0058
2772.00,0.0058
2771.00,0.0057
2770.00,0.0057
2769.00,0.0056
2768.00,0.0056
2767.00,0.0055
2766.00,0.0055
2765.00,0.0055
2764.00,0.0054
2763.00,0.0054
2762.00,0.0054
2761.00,0.0054
2760.00,0.0053
2759.00,0.0053
2758.00,0.0053
2757.00,0.0052
2756.00,0.0052
2755.00,0.0052
2754.00,0.0052
2753.00,0.0052
2752.00,0.0052
2751.00,0.0052
2750.00,0.0052
2749.00,0.0052
2748.00,0.0053
2747.00,0.0053
2746.00,0.0053
2745.00,0.0053
2744.00,0.0054
2743.00,0.0055
2742.00,0.0056
2741.00,0.0057
2740.00,0.0058
2739.00,0.0060
2738.00,0.0062
2737.00,0.0063
2736.00,0.0065
2735.00,0.0066
2734.00,0.0068
2733.00,0.0069
2732.00,0.0071
2731.00,0.0073
2730.00,0.0075
2729.00,0.0077
2728.00,0.0080
2727.00,0.0083
2726.00,0.0086
2725.00,0.0089
2724.00,0.0090
2723.00,0.0091
2722.00,0.0090
2721.00,0.0088
2720.00,0.0085
2719.00,0.0082
2718.00,0.0079
2717.00,0.0075
2716.00,0.0072
2715.00,0.0070
2714.00,0.0067
2713.00,0.0065
2712.00,0.0063
2711.00,0.0061
2710.00,0.0059
2709.00,0.0058
2708.00,0.0056
2707.00,0.0055
2706.00,0.0054
2705.00,0.0053
2704.00,0.0052
2703.00,0.0051
2702.00,0.0050
2701.00,0.0050
2700.00,0.0049
2699.00,0.0048
2698.00,0.0048
2697.00,0.0047
2696.00,0.0047
2695.00,0.0047
2694.00,0.0047
2693.00,0.0047
2692.00,0.0047
2691.00,0.0047
2690.00,0.0047
2689.00,0.0047
2688.00,0.0047
2687.00,0.0046
2686.00,0.0046
2685.00,0.0046
2684.00,0.0046
2683.00,0.0046
2682.00,0.0047
2681.00,0.0047
2680.00,0.0047
2679.00,0.0047
2678.00,0.0047
2677.00,0.0047
2676.00,0.0047
2675.00,0.0047
2674.00,0.0046
2673.00,0.0046
2672.00,0.0045
2671.00,0.0045
2670.00,0.0045
2669.00,0.0045
2668.00,0.0045
2667.00,0.0045
2666.00,0.0045
2665.00,0.0045
2664.00,0.0046
2663.00,0.0046
2662.00,0.0047
2661.00,0.0047
2660.00,0.0048
2659.00,0.0048
2658.00,0.0048
2657.00,0.0047
2656.00,0.0047
2655.00,0.0047
2654.00,0.0046
2653.00,0.0045
2652.00,0.0045
2651.00,0.0044
2650.00,0.0044
2649.00,0.0044
2648.00,0.0043
2647.00,0.0043
2646.00,0.0042
2645.00,0.0042
2644.00,0.0042
2643.00,0.0041
2642.00,0.0041
2641.00,0.0041
2640.00,0.0040
2639.00,0.0040
2638.00,0.0040
2637.00,0.0040
2636.00,0.0039
2635.00,0.0039
2634.00,0.0039
2633.00,0.0039
2632.00,0.0040
2631.00,0.0040
2630.00,0.0040
2629.00,0.0041
2628.00,0.0041
2627.00,0.0041
2626.00,0.0041
2625.00,0.0042
2624.00,0.0042
2623.00,0.0043
2622.00,0.0043
2621.00,0.0043
2620.00,0.0043
2619.00,0.0043
2618.00,0.0043
2617.00,0.0043
2616.00,0.0043
2615.00,0.0043
2614.00,0.0043
2613.00,0.0042
2612.00,0.0042
2611.00,0.0041
2610.00,0.0040
2609.00,0.0039
2608.00,0.0038
2607.00,0.0037
2606.00,0.0036
2605.00,0.0035
2604.00,0.0035
2603.00,0.0035
2602.00,0.0035
2601.00,0.0036
2600.00,0.0036
2599.00,0.0036
2598.00,0.0036
2597.00,0.0036
2596.00,0.0037
2595.00,0.0037
2594.00,0.0037
2593.00,0.0037
2592.00,0.0037
2591.00,0.0037
2590.00,0.0037
2589.00,0.0037
2588.00,0.0038
2587.00,0.0039
2586.00,0.0041
2585.00,0.0042
2584.00,0.0043
2583.00,0.0043
2582.00,0.0043
2581.00,0.0043
2580.00,0.0042
2579.00,0.0041
2578.00,0.0040
2577.00,0.0039
2576.00,0.0038
2575.00,0.0037
2574.00,0.0036
2573.00,0.0035
2572.00,0.0034
2571.00,0.0033
2570.00,0.0032
2569.00,0.0031
2568.00,0.0031
2567.00,0.0030
2566.00,0.0030
2565.00,0.0030
2564.00,0.0030
2563.00,0.0029
2562.00,0.0029
2561.00,0.0029
2560.00,0.0029
2559.00,0.0029
2558.00,0.0029
2557.00,0.0028
2556.00,0.0028
2555.00,0.0027
2554.00,0.0027
2553.00,0.0026
2552.00,0.0025
2551.00,0.0025
2550.00,0.0024
2549.00,0.0024
2548.00,0.0024
2547.00,0.0024
2546.00,0.0023
2545.00,0.0023
2544.00,0.0023
2543.00,0.0022
2542.00,0.0022
2541.00,0.0022
2540.00,0.0021
2539.00,0.0021
2538.00,0.0021
2537.00,0.0021
2536.00,0.0020
2535.00,0.0020
2534.00,0.0020
2533.00,0.0021
2532.00,0.0021
2531.00,0.0021
2530.00,0.0020
2529.00,0.0020
2528.00,0.0020
2527.00,0.0019
2526.00,0.0019
2525.00,0.0019
2524.00,0.0018
2523.00,0.0017
2522.00,0.0016
2521.00,0.0015
2520.00,0.0015
2519.00,0.0015
2518.00,0.0015
2517.00,0.0014
2516.00,0.0013
2515.00,0.0013
2514.00,0.0013
2513.00,0.0013
2512.00,0.0013
2511.00,0.0013
2510.00,0.0013
2509.00,0.0013
2508.00,0.0013
2507.00,0.0014
2506.00,0.0014
2505.00,0.0015
2504.00,0.0015
2503.00,0.0014
2502.00,0.0014
2501.00,0.0013
2500.00,0.0013
2499.00,0.0013
2498.00,0.0014
2497.00,0.0014
2496.00,0.0014
2495.00,0.0014
2494.00,0.0014
2493.00,0.0014
2492.00,0.0014
2491.00,0.0014
2490.00,0.0014
2489.00,0.0015
2488.00,0.0015
2487.00,0.0015
2486.00,0.0015
2485.00,0.0015
2484.00,0.0015
2483.00,0.0015
2482.00,0.0014
2481.00,0.0014
2480.00,0.0013
2479.00,0.0013
2478.00,0.0013
2477.00,0.0013
2476.00,0.0012
2475.00,0.0012
2474.00,0.0012
2473.00,0.0012
2472.00,0.0012
2471.00,0.0013
2470.00,0.0013
2469.00,0.0014
2468.00,0.0014
2467.00,0.0013
2466.00,0.0013
2465.00,0.0012
2464.00,0.0012
2463.00,0.0012
2462.00,0.0013
2461.00,0.0014
2460.00,0.0014
2459.00,0.0014
2458.00,0.0014
2457.00,0.0013
2456.00,0.0013
2455.00,0.0013
2454.00,0.0013
2453.00,0.0013
2452.00,0.0013
2451.00,0.0013
2450.00,0.0013
2449.00,0.0013
2448.00,0.0013
2447.00,0.0014
2446.00,0.0014
2445.00,0.0014
2444.00,0.0014
2443.00,0.0013
2442.00,0.0013
2441.00,0.0013
2440.00,0.0014
2439.00,0.0014
2438.00,0.0015
2437.00,0.0015
2436.00,0.0015
2435.00,0.0015
2434.00,0.0015
2433.00,0.0016
2432.00,0.0017
2431.00,0.0017
2430.00,0.0017
2429.00,0.0018
2428.00,0.0018
2427.00,0.0017
2426.00,0.0017
2425.00,0.0016
2424.00,0.0015
2423.00,0.0015
2422.00,0.0015
2421.00,0.0015
2420.00,0.0015
2419.00,0.0015
2418.00,0.0015
2417.00,0.0015
2416.00,0.0015
2415.00,0.0015
2414.00,0.0014
2413.00,0.0013
2412.00,0.0012
2411.00,0.0013
2410.00,0.0013
2409.00,0.0014
2408.00,0.0014
2407.00,0.0013
2406.00,0.0013
2405.00,0.0012
2404.00,0.0012
2403.00,0.0012
2402.00,0.0013
2401.00,0.0013
2400.00,0.0013
2399.00,0.0013
2398.00,0.0012
2397.00,0.0012
2396.00,0.0012
2395.00,0.0011
2394.00,0.0011
2393.00,0.0011
2392.00,0.0012
2391.00,0.0012
2390.00,0.0011
2389.00,0.0011
2388.00,0.0011
2387.00,0.0011
2386.00,0.0010
2385.00,0.0009
2384.00,0.0009
2383.00,0.0008
2382.00,0.0008
2381.00,0.0008
2380.00,0.0008
2379.00,0.0008
2378.00,0.0007
2377.00,0.0007
2376.00,0.0007
2375.00,0.0007
2374.00,0.0007
2373.00,0.0007
2372.00,0.0007
2371.00,0.0007
2370.00,0.0007
2369.00,0.0007
2368.00,0.0007
2367.00,0.0006
2366.00,0.0005
2365.00,0.0005
2364.00,0.0005
2363.00,0.0006
2362.00,0.0006
2361.00,0.0007
2360.00,0.0008
2359.00,0.0008
2358.00,0.0008
2357.00,0.0008
2356.00,0.0007
2355.00,0.0007
2354.00,0.0006
2353.00,0.0005
2352.00,0.0004
2351.00,0.0004
2350.00,0.0005
2349.00,0.0006
2348.00,0.0008
2347.00,0.0010
2346.00,0.0010
2345.00,0.0009
2344.00,0.0008
2343.00,0.0008
2342.00,0.0008
2341.00,0.0009
2340.00,0.0009
2339.00,0.0009
2338.00,0.0009
2337.00,0.0009
2336.00,0.0009
2335.00,0.0009
2334.00,0.0009
2333.00,0.0008
2332.00,0.0008
2331.00,0.0008
2330.00,0.0008
2329.00,0.0009
2328.00,0.0011
2327.00,0.0014
2326.00,0.0017
2325.00,0.0020
2324.00,0.0021
2323.00,0.0020
2322.00,0.0018
2321.00,0.0016
2320.00,0.0015
2319.00,0.0014
2318.00,0.0013
2317.00,0.0012
2316.00,0.0011
2315.00,0.0010
2314.00,0.0010
2313.00,0.0009
2312.00,0.0009
2311.00,0.0009
2310.00,0.0009
2309.00,0.0008
2308.00,0.0008
2307.00,0.0008
2306.00,0.0009
2305.00,0.0010
2304.00,0.0011
2303.00,0.0012
2302.00,0.0012
2301.00,0.0012
2300.00,0.0012
2299.00,0.0013
2298.00,0.0014
2297.00,0.0015
2296.00,0.0016
2295.00,0.0016
2294.00,0.0017
2293.00,0.0018
2292.00,0.0019
2291.00,0.0020
2290.00,0.0021
2289.00,0.0021
2288.00,0.0021
2287.00,0.0021
2286.00,0.0022
2285.00,0.0023
2284.00,0.0023
2283.00,0.0023
2282.00,0.0022
2281.00,0.0021
2280.00,0.0019
2279.00,0.0018
2278.00,0.0017
2277.00,0.0017
2276.00,0.0017
2275.00,0.0017
2274.00,0.0018
2273.00,0.0018
2272.00,0.0018
2271.00,0.0017
2270.00,0.0018
2269.00,0.0018
2268.00,0.0018
2267.00,0.0017
2266.00,0.0016
2265.00,0.0015
2264.00,0.0014
2263.00,0.0014
2262.00,0.0013
2261.00,0.0014
2260.00,0.0014
2259.00,0.0015
2258.00,0.0015
2257.00,0.0015
2256.00,0.0015
2255.00,0.0014
2254.00,0.0013
2253.00,0.0012
2252.00,0.0011
2251.00,0.0010
2250.00,0.0010
2249.00,0.0011
2248.00,0.0013
2247.00,0.0015
2246.00,0.0017
2245.00,0.0017
2244.00,0.0016
2243.00,0.0015
2242.00,0.0014
2241.00,0.0014
2240.00,0.0013
2239.00,0.0012
2238.00,0.0010
2237.00,0.0009
2236.00,0.0009
2235.00,0.0010
2234.00,0.0013
2233.00,0.0015
2232.00,0.0016
2231.00,0.0016
2230.00,0.0015
2229.00,0.0014
2228.00,0.0014
2227.00,0.0014
2226.00,0.0013
2225.00,0.0012
2224.00,0.0011
2223.00,0.0011
2222.00,0.0010
2221.00,0.0011
2220.00,0.0012
2219.00,0.0012
2218.00,0.0012
2217.00,0.0012
2216.00,0.0011
2215.00,0.0012
2214.00,0.0012
2213.00,0.0012
2212.00,0.0011
2211.00,0.0010
2210.00,0.0009
2209.00,0.0008
2208.00,0.0008
2207.00,0.0007
2206.00,0.0007
2205.00,0.0007
2204.00,0.0007
2203.00,0.0008
2202.00,0.0009
2201.00,0.0009
2200.00,0.0010
2199.00,0.0009
2198.00,0.0008
2197.00,0.0007
2196.00,0.0007
2195.00,0.0008
2194.00,0.0009
2193.00,0.0011
2192.00,0.0012
2191.00,0.0012
2190.00,0.0012
2189.00,0.0013
2188.00,0.0013
2187.00,0.0014
2186.00,0.0013
2185.00,0.0014
2184.00,0.0014
2183.00,0.0013
2182.00,0.0011
2181.00,0.0010
2180.00,0.0011
2179.00,0.0013
2178.00,0.0015
2177.00,0.0014
2176.00,0.0012
2175.00,0.0008
2174.00,0.0005
2173.00,0.0005
2172.00,0.0008
2171.00,0.0013
2170.00,0.0018
2169.00,0.0022
2168.00,0.0025
2167.00,0.0026
2166.00,0.0026
2165.00,0.0027
2164.00,0.0029
2163.00,0.0031
2162.00,0.0030
2161.00,0.0024
2160.00,0.0010
2159.00,-0.0006
2158.00,-0.0018
2157.00,-0.0022
2156.00,-0.0019
2155.00,-0.0014
2154.00,-0.0012
2153.00,-0.0011
2152.00,-0.0011
2151.00,-0.0012
2150.00,-0.0013
2149.00,-0.0012
2148.00,-0.0009
2147.00,-0.0007
2146.00,-0.0006
2145.00,-0.0005
2144.00,-0.0005
2143.00,-0.0005
2142.00,-0.0005
2141.00,-0.0005
2140.00,-0.0005
2139.00,-0.0006
2138.00,-0.0007
2137.00,-0.0010
2136.00,-0.0012
2135.00,-0.0014
2134.00,-0.0015
2133.00,-0.0013
2132.00,-0.0011
2131.00,-0.0008
2130.00,-0.0005
2129.00,-0.0004
2128.00,-0.0003
2127.00,-0.0002
2126.00,-0.0001
2125.00,-0.0001
2124.00,-0.0001
2123.00,-0.0001
2122.00,-0.0001
2121.00,-0.0001
2120.00,-0.0001
2119.00,-0.0000
2118.00,0.0001
2117.00,0.0002
2116.00,0.0004
2115.00,0.0006
2114.00,0.0006
2113.00,0.0006
2112.00,0.0006
2111.00,0.0006
2110.00,0.0006
2109.00,0.0005
2108.00,0.0005
2107.00,0.0004
2106.00,0.0004
2105.00,0.0004
2104.00,0.0004
2103.00,0.0005
2102.00,0.0006
2101.00,0.0007
2100.00,0.0007
2099.00,0.0005
2098.00,0.0003
2097.00,0.0001
2096.00,-0.0001
2095.00,-0.0003
2094.00,-0.0002
2093.00,-0.0000
2092.00,0.0002
2091.00,0.0003
2090.00,0.0003
2089.00,0.0003
2088.00,0.0003
2087.00,0.0004
2086.00,0.0005
2085.00,0.0006
2084.00,0.0007
2083.00,0.0007
2082.00,0.0008
2081.00,0.0008
2080.00,0.0009
2079.00,0.0009
2078.00,0.0010
2077.00,0.0010
2076.00,0.0009
2075.00,0.0007
2074.00,0.0005
2073.00,0.0003
2072.00,0.0002
2071.00,0.0001
2070.00,0.0002
2069.00,0.0002
2068.00,0.0002
2067.00,0.0002
2066.00,0.0001
2065.00,0.0000
2064.00,0.0001
2063.00,0.0001
2062.00,0.0002
2061.00,0.0003
2060.00,0.0005
2059.00,0.0005
2058.00,0.0006
2057.00,0.0006
2056.00,0.0005
2055.00,0.0005
2054.00,0.0006
2053.00,0.0011
2052.00,0.0017
2051.00,0.0021
2050.00,0.0022
2049.00,0.0019
2048.00,0.0015
2047.00,0.0011
2046.00,0.0009
2045.00,0.0007
2044.00,0.0006
2043.00,0.0005
2042.00,0.0005
2041.00,0.0005
2040.00,0.0005
2039.00,0.0005
2038.00,0.0004
2037.00,0.0003
2036.00,0.0003
2035.00,0.0003
2034.00,-0.0000
2033.00,-0.0004
2032.00,-0.0006
2031.00,-0.0006
2030.00,-0.0004
2029.00,-0.0001
2028.00,0.0001
2027.00,0.0001
2026.00,-0.0001
2025.00,-0.0004
2024.00,-0.0007
2023.00,-0.0010
2022.00,-0.0012
2021.00,-0.0012
2020.00,-0.0010
2019.00,-0.0006
2018.00,-0.0001
2017.00,0.0002
2016.00,0.0002
2015.00,-0.0002
2014.00,-0.0008
2013.00,-0.0012
2012.00,-0.0013
2011.00,-0.0010
2010.00,-0.0007
2009.00,-0.0006
2008.00,-0.0009
2007.00,-0.0013
2006.00,-0.0016
2005.00,-0.0018
2004.00,-0.0017
2003.00,-0.0014
2002.00,-0.0011
2001.00,-0.0007
2000.00,-0.0006
1999.00,-0.0006
1998.00,-0.0007
1997.00,-0.0008
1996.00,-0.0008
1995.00,-0.0008
1994.00,-0.0008
1993.00,-0.0007
1992.00,-0.0007
1991.00,-0.0006
1990.00,-0.0005
1989.00,-0.0003
1988.00,-0.0002
1987.00,-0.0002
1986.00,-0.0002
1985.00,-0.0000
1984.00,0.0003
1983.00,0.0006
1982.00,0.0010
1981.00,0.0013
1980.00,0.0014
1979.00,0.0011
1978.00,0.0003
1977.00,-0.0006
1976.00,-0.0013
1975.00,-0.0016
1974.00,-0.0016
1973.00,-0.0014
1972.00,-0.0012
1971.00,-0.0010
1970.00,-0.0008
1969.00,-0.0006
1968.00,-0.0005
1967.00,-0.0005
1966.00,-0.0006
1965.00,-0.0008
1964.00,-0.0009
1963.00,-0.0010
1962.00,-0.0011
1961.00,-0.0011
1960.00,-0.0011
1959.00,-0.0011
1958.00,-0.0010
1957.00,-0.0009
1956.00,-0.0009
1955.00,-0.0009
1954.00,-0.0010
1953.00,-0.0012
1952.00,-0.0013
1951.00,-0.0013
1950.00,-0.0013
1949.00,-0.0013
1948.00,-0.0012
1947.00,-0.0011
1946.00,-0.0010
1945.00,-0.0009
1944.00,-0.0008
1943.00,-0.0009
1942.00,-0.0009
1941.00,-0.0009
1940.00,-0.0008
1939.00,-0.0007
1938.00,-0.0006
1937.00,-0.0004
1936.00,-0.0004
1935.00,-0.0004
1934.00,-0.0004
1933.00,-0.0005
1932.00,-0.0006
1931.00,-0.0007
1930.00,-0.0008
1929.00,-0.0008
1928.00,-0.0007
1927.00,-0.0006
1926.00,-0.0005
1925.00,-0.0004
1924.00,-0.0004
1923.00,-0.0003
1922.00,-0.0002
1921.00,-0.0001
1920.00,-0.0001
1919.00,-0.0001
1918.00,-0.0002
1917.00,-0.0002
1916.00,-0.0002
1915.00,-0.0002
1914.00,-0.0001
1913.00,-0.0000
1912.00,0.0001
1911.00,0.0002
1910.00,0.0002
1909.00,0.0002
1908.00,0.0002
1907.00,0.0002
1906.00,0.0002
1905.00,0.0002
1904.00,0.0002
1903.00,0.0002
1902.00,0.0001
1901.00,0.0001
1900.00,0.0001
1899.00,0.0001
1898.00,0.0003
1897.00,0.0004
1896.00,0.0006
1895.00,0.0006
1894.00,0.0006
1893.00,0.0005
1892.00,0.0004
1891.00,0.0003
1890.00,0.0003
1889.00,0.0003
1888.00,0.0003
1887.00,0.0003
1886.00,0.0003
1885.00,0.0003
1884.00,0.0003
1883.00,0.0003
1882.00,0.0003
1881.00,0.0002
1880.00,0.0003
1879.00,0.0003
1878.00,0.0004
1877.00,0.0004
1876.00,0.0003
1875.00,0.0003
1874.00,0.0002
1873.00,0.0002
1872.00,0.0002
1871.00,0.0003
1870.00,0.0004
1869.00,0.0004
1868.00,0.0004
1867.00,0.0003
1866.00,0.0002
1865.00,0.0001
1864.00,0.0001
1863.00,0.0002
1862.00,0.0002
1861.00,0.0002
1860.00,0.0002
1859.00,0.0002
1858.00,0.0002
1857.00,0.0003
1856.00,0.0004
1855.00,0.0004
1854.00,0.0003
1853.00,0.0003
1852.00,0.0003
1851.00,0.0003
1850.00,0.0003
1849.00,0.0003
1848.00,0.0003
1847.00,0.0002
1846.00,0.0002
1845.00,0.0002
1844.00,0.0003
1843.00,0.0004
1842.00,0.0004
1841.00,0.0005
1840.00,0.0005
1839.00,0.0006
1838.00,0.0006
1837.00,0.0006
1836.00,0.0006
1835.00,0.0005
1834.00,0.0005
1833.00,0.0005
1832.00,0.0006
1831.00,0.0006
1830.00,0.0007
1829.00,0.0007
1828.00,0.0008
1827.00,0.0008
1826.00,0.0008
1825.00,0.0008
1824.00,0.0009
1823.00,0.0009
1822.00,0.0009
1821.00,0.0008
1820.00,0.0006
1819.00,0.0004
1818.00,0.0003
1817.00,0.0002
1816.00,0.0003
1815.00,0.0003
1814.00,0.0004
1813.00,0.0005
1812.00,0.0006
1811.00,0.0006
1810.00,0.0007
1809.00,0.0007
1808.00,0.0008
1807.00,0.0008
1806.00,0.0008
1805.00,0.0007
1804.00,0.0007
1803.00,0.0006
1802.00,0.0006
1801.00,0.0007
1800.00,0.0008
1799.00,0.0008
1798.00,0.0008
1797.00,0.0008
1796.00,0.0009
1795.00,0.0009
1794.00,0.0008
1793.00,0.0008
1792.00,0.0008
1791.00,0.0008
1790.00,0.0008
1789.00,0.0008
1788.00,0.0009
1787.00,0.0009
1786.00,0.0009
1785.00,0.0009
1784.00,0.0009
1783.00,0.0010
1782.00,0.0010
1781.00,0.0011
1780.00,0.0011
1779.00,0.0011
1778.00,0.0011
1777.00,0.0010
1776.00,0.0010
1775.00,0.0009
1774.00,0.0009
1773.00,0.0010
1772.00,0.0011
1771.00,0.0011
1770.00,0.0012
1769.00,0.0012
1768.00,0.0013
1767.00,0.0014
1766.00,0.0014
1765.00,0.0014
1764.00,0.0014
1763.00,0.0015
1762.00,0.0016
1761.00,0.0016
1760.00,0.0017
1759.00,0.0018
1758.00,0.0019
1757.00,0.0020
1756.00,0.0022
1755.00,0.0023
1754.00,0.0024
1753.00,0.0025
1752.00,0.0027
1751.00,0.0029
1750.00,0.0031
1749.00,0.0032
1748.00,0.0034
1747.00,0.0035
1746.00,0.0036
1745.00,0.0037
1744.00,0.0037
1743.00,0.0037
1742.00,0.0038
1741.00,0.0038
1740.00,0.0037
1739.00,0.0036
1738.00,0.0035
1737.00,0.0034
1736.00,0.0032
1735.00,0.0032
1734.00,0.0032
1733.00,0.0033
1732.00,0.0033
1731.00,0.0033
1730.00,0.0032
1729.00,0.0032
1728.00,0.0032
1727.00,0.0032
1726.00,0.0031
1725.00,0.0031
1724.00,0.0031
1723.00,0.0031
1722.00,0.0030
1721.00,0.0030
1720.00,0.0030
1719.00,0.0030
1718.00,0.0029
1717.00,0.0029
1716.00,0.0030
1715.00,0.0031
1714.00,0.0031
1713.00,0.0031
1712.00,0.0032
1711.00,0.0032
1710.00,0.0032
1709.00,0.0032
1708.00,0.0032
1707.00,0.0032
1706.00,0.0033
1705.00,0.0034
1704.00,0.0036
1703.00,0.0036
1702.00,0.0037
1701.00,0.0038
1700.00,0.0039
1699.00,0.0039
1698.00,0.0039
1697.00,0.0040
1696.00,0.0042
1695.00,0.0044
1694.00,0.0045
1693.00,0.0046
1692.00,0.0047
1691.00,0.0048
1690.00,0.0049
1689.00,0.0050
1688.00,0.0051
1687.00,0.0052
1686.00,0.0052
1685.00,0.0054
1684.00,0.0056
1683.00,0.0058
1682.00,0.0059
1681.00,0.0060
1680.00,0.0060
1679.00,0.0061
1678.00,0.0061
1677.00,0.0062
1676.00,0.0063
1675.00,0.0065
1674.00,0.0066
1673.00,0.0067
1672.00,0.0068
1671.00,0.0069
1670.00,0.0071
1669.00,0.0072
1668.00,0.0074
1667.00,0.0075
1666.00,0.0075
1665.00,0.0076
1664.00,0.0077
1663.00,0.0077
1662.00,0.0078
1661.00,0.0079
1660.00,0.0080
1659.00,0.0080
1658.00,0.0081
1657.00,0.0081
1656.00,0.0082
1655.00,0.0082
1654.00,0.0082
1653.00,0.0082
1652.00,0.0082
1651.00,0.0081
1650.00,0.0081
1649.00,0.0081
1648.00,0.0081
1647.00,0.0081
1646.00,0.0080
1645.00,0.0080
1644.00,0.0080
1643.00,0.0079
1642.00,0.0079
1641.00,0.0079
1640.00,0.0078
1639.00,0.0078
1638.00,0.0077
1637.00,0.0076
1636.00,0.0076
1635.00,0.0075
1634.00,0.0074
1633.00,0.0074
1632.00,0.0074
1631.00,0.0074
1630.00,0.0073
1629.00,0.0072
1628.00,0.0071
1627.00,0.0069
1626.00,0.0069
1625.00,0.0068
1624.00,0.0068
1623.00,0.0067
1622.00,0.0067
1621.00,0.0066
1620.00,0.0065
1619.00,0.0064
1618.00,0.0063
1617.00,0.0062
1616.00,0.0062
1615.00,0.0061
1614.00,0.0061
1613.00,0.0061
1612.00,0.0061
1611.00,0.0061
1610.00,0.0061
1609.00,0.0061
1608.00,0.0060
1607.00,0.0060
1606.00,0.0060
1605.00,0.0059
1604.00,0.0059
1603.00,0.0059
1602.00,0.0059
1601.00,0.0059
1600.00,0.0060
1599.00,0.0060
1598.00,0.0060
1597.00,0.0060
1596.00,0.0059
1595.00,0.0059
1594.00,0.0060
1593.00,0.0060
1592.00,0.0061
1591.00,0.0061
1590.00,0.0062
1589.00,0.0062
1588.00,0.0063
1587.00,0.0064
1586.00,0.0064
1585.00,0.0066
1584.00,0.0067
1583.00,0.0069
1582.00,0.0070
1581.00,0.0071
1580.00,0.0073
1579.00,0.0074
1578.00,0.0075
1577.00,0.0075
1576.00,0.0076
1575.00,0.0075
1574.00,0.0074
1573.00,0.0073
1572.00,0.0072
1571.00,0.0070
1570.00,0.0069
1569.00,0.0069
1568.00,0.0069
1567.00,0.0068
1566.00,0.0068
1565.00,0.0069
1564.00,0.0069
1563.00,0.0070
1562.00,0.0070
1561.00,0.0070
1560.00,0.0071
1559.00,0.0071
1558.00,0.0072
1557.00,0.0073
1556.00,0.0073
1555.00,0.0073
1554.00,0.0074
1553.00,0.0076
1552.00,0.0077
1551.00,0.0079
1550.00,0.0081
1549.00,0.0082
1548.00,0.0084
1547.00,0.0085
1546.00,0.0087
1545.00,0.0088
1544.00,0.0090
1543.00,0.0092
1542.00,0.0091
1541.00,0.0090
1540.00,0.0089
1539.00,0.0087
1538.00,0.0085
1537.00,0.0084
1536.00,0.0082
1535.00,0.0081
1534.00,0.0078
1533.00,0.0076
1532.00,0.0075
1531.00,0.0073
1530.00,0.0072
1529.00,0.0072
1528.00,0.0072
1527.00,0.0072
1526.00,0.0071
1525.00,0.0070
1524.00,0.0070
1523.00,0.0070
1522.00,0.0069
1521.00,0.0069
1520.00,0.0070
1519.00,0.0071
1518.00,0.0071
1517.00,0.0071
1516.00,0.0072
1515.00,0.0071
1514.00,0.0070
1513.00,0.0071
1512.00,0.0071
1511.00,0.0071
1510.00,0.0071
1509.00,0.0071
1508.00,0.0072
1507.00,0.0072
1506.00,0.0072
1505.00,0.0072
1504.00,0.0073
1503.00,0.0073
1502.00,0.0073
1501.00,0.0075
1500.00,0.0076
1499.00,0.0078
1498.00,0.0079
1497.00,0.0082
1496.00,0.0085
1495.00,0.0086
1494.00,0.0088
1493.00,0.0090
1492.00,0.0092
1491.00,0.0095
1490.00,0.0098
1489.00,0.0102
1488.00,0.0107
1487.00,0.0111
1486.00,0.0116
1485.00,0.0122
1484.00,0.0129
1483.00,0.0136
1482.00,0.0144
1481.00,0.0155
1480.00,0.0167
1479.00,0.0178
1478.00,0.0192
1477.00,0.0209
1476.00,0.0228
1475.00,0.0250
1474.00,0.0282
1473.00,0.0333
1472.00,0.0399
1471.00,0.0465
1470.00,0.0529
1469.00,0.0594
1468.00,0.0664
1467.00,0.0739
1466.00,0.0824
1465.00,0.0916
1464.00,0.0998
1463.00,0.1059
1462.00,0.1102
1461.00,0.1135
1460.00,0.1162
1459.00,0.1184
1458.00,0.1205
1457.00,0.1226
1456.00,0.1238
1455.00,0.1241
1454.00,0.1239
1453.00,0.1231
1452.00,0.1214
1451.00,0.1182
1450.00,0.1132
1449.00,0.1059
1448.00,0.0964
1447.00,0.0860
1446.00,0.0765
1445.00,0.0683
1444.00,0.0613
1443.00,0.0556
1442.00,0.0514
1441.00,0.0485
1440.00,0.0467
1439.00,0.0458
1438.00,0.0457
1437.00,0.0455
1436.00,0.0443
1435.00,0.0416
1434.00,0.0377
1433.00,0.0331
1432.00,0.0284
1431.00,0.0243
1430.00,0.0211
1429.00,0.0188
1428.00,0.0172
1427.00,0.0162
1426.00,0.0156
1425.00,0.0149
1424.00,0.0143
1423.00,0.0140
1422.00,0.0137
1421.00,0.0134
1420.00,0.0130
1419.00,0.0127
1418.00,0.0124
1417.00,0.0121
1416.00,0.0117
1415.00,0.0114
1414.00,0.0112
1413.00,0.0109
1412.00,0.0105
1411.00,0.0102
1410.00,0.0100
1409.00,0.0097
1408.00,0.0093
1407.00,0.0091
1406.00,0.0089
1405.00,0.0085
1404.00,0.0081
1403.00,0.0078
1402.00,0.0075
1401.00,0.0072
1400.00,0.0068
1399.00,0.0064
1398.00,0.0062
1397.00,0.0060
1396.00,0.0058
1395.00,0.0059
1394.00,0.0061
1393.00,0.0065
1392.00,0.0071
1391.00,0.0079
1390.00,0.0092
1389.00,0.0109
1388.00,0.0133
1387.00,0.0171
1386.00,0.0221
1385.00,0.0283
1384.00,0.0365
1383.00,0.0475
1382.00,0.0619
1381.00,0.0801
1380.00,0.1027
1379.00,0.1289
1378.00,0.1549
1377.00,0.1752
1376.00,0.1838
1375.00,0.1769
1374.00,0.1560
1373.00,0.1293
1372.00,0.1040
1371.00,0.0828
1370.00,0.0657
1369.00,0.0527
1368.00,0.0438
1367.00,0.0384
1366.00,0.0356
1365.00,0.0346
1364.00,0.0351
1363.00,0.0367
1362.00,0.0391
1361.00,0.0416
1360.00,0.0435
1359.00,0.0441
1358.00,0.0430
1357.00,0.0403
1356.00,0.0364
1355.00,0.0321
1354.00,0.0280
1353.00,0.0245
1352.00,0.0217
1351.00,0.0194
1350.00,0.0176
1349.00,0.0161
1348.00,0.0150
1347.00,0.0141
1346.00,0.0134
1345.00,0.0128
1344.00,0.0124
1343.00,0.0120
1342.00,0.0118
1341.00,0.0116
1340.00,0.0114
1339.00,0.0113
1338.00,0.0112
1337.00,0.0111
1336.00,0.0112
1335.00,0.0115
1334.00,0.0118
1333.00,0.0123
1332.00,0.0128
1331.00,0.0133
1330.00,0.0135
1329.00,0.0135
1328.00,0.0132
1327.00,0.0127
1326.00,0.0122
1325.00,0.0116
1324.00,0.0110
1323.00,0.0105
1322.00,0.0101
1321.00,0.0098
1320.00,0.0096
1319.00,0.0094
1318.00,0.0092
1317.00,0.0091
1316.00,0.0090
1315.00,0.0089
1314.00,0.0089
1313.00,0.0089
1312.00,0.0090
1311.00,0.0093
1310.00,0.0099
1309.00,0.0108
1308.00,0.0120
1307.00,0.0134
1306.00,0.0147
1305.00,0.0156
1304.00,0.0158
1303.00,0.0155
1302.00,0.0149
1301.00,0.0142
1300.00,0.0138
1299.00,0.0136
1298.00,0.0135
1297.00,0.0134
1296.00,0.0133
1295.00,0.0129
1294.00,0.0124
1293.00,0.0118
1292.00,0.0112
1291.00,0.0106
1290.00,0.0102
1289.00,0.0098
1288.00,0.0094
1287.00,0.0091
1286.00,0.0088
1285.00,0.0086
1284.00,0.0083
1283.00,0.0081
1282.00,0.0078
1281.00,0.0076
1280.00,0.0074
1279.00,0.0072
1278.00,0.0070
1277.00,0.0068
1276.00,0.0066
1275.00,0.0064
1274.00,0.0062
1273.00,0.0059
1272.00,0.0057
1271.00,0.0055
1270.00,0.0054
1269.00,0.0053
1268.00,0.0053
1267.00,0.0053
1266.00,0.0054
1265.00,0.0055
1264.00,0.0057
1263.00,0.0060
1262.00,0.0064
1261.00,0.0069
1260.00,0.0075
1259.00,0.0083
1258.00,0.0090
1257.00,0.0097
1256.00,0.0099
1255.00,0.0096
1254.00,0.0088
1253.00,0.0077
1252.00,0.0067
1251.00,0.0059
1250.00,0.0054
1249.00,0.0052
1248.00,0.0051
1247.00,0.0050
1246.00,0.0051
1245.00,0.0051
1244.00,0.0051
1243.00,0.0051
1242.00,0.0051
1241.00,0.0051
1240.00,0.0051
1239.00,0.0051
1238.00,0.0051
1237.00,0.0052
1236.00,0.0053
1235.00,0.0055
1234.00,0.0057
1233.00,0.0058
1232.00,0.0060
1231.00,0.0062
1230.00,0.0064
1229.00,0.0067
1228.00,0.0070
1227.00,0.0073
1226.00,0.0077
1225.00,0.0081
1224.00,0.0085
1223.00,0.0089
1222.00,0.0093
1221.00,0.0097
1220.00,0.0100
1219.00,0.0101
1218.00,0.0102
1217.00,0.0101
1216.00,0.0099
1215.00,0.0097
1214.00,0.0094
1213.00,0.0092
1212.00,0.0089
1211.00,0.0087
1210.00,0.0085
1209.00,0.0083
1208.00,0.0082
1207.00,0.0081
1206.00,0.0080
1205.00,0.0080
1204.00,0.0080
1203.00,0.0080
1202.00,0.0079
1201.00,0.0078
1200.00,0.0077
1199.00,0.0077
1198.00,0.0076
1197.00,0.0076
1196.00,0.0075
1195.00,0.0075
1194.00,0.0075
1193.00,0.0074
1192.00,0.0072
1191.00,0.0071
1190.00,0.0070
1189.00,0.0068
1188.00,0.0068
1187.00,0.0067
1186.00,0.0066
1185.00,0.0065
1184.00,0.0063
1183.00,0.0061
1182.00,0.0061
1181.00,0.0061
1180.00,0.0063
1179.00,0.0066
1178.00,0.0071
1177.00,0.0080
1176.00,0.0092
1175.00,0.0108
1174.00,0.0129
1173.00,0.0156
1172.00,0.0188
1171.00,0.0224
1170.00,0.0260
1169.00,0.0291
1168.00,0.0310
1167.00,0.0314
1166.00,0.0305
1165.00,0.0286
1164.00,0.0262
1163.00,0.0237
1162.00,0.0214
1161.00,0.0194
1160.00,0.0177
1159.00,0.0164
1158.00,0.0153
1157.00,0.0145
1156.00,0.0139
1155.00,0.0133
1154.00,0.0129
1153.00,0.0125
1152.00,0.0119
1151.00,0.0112
1150.00,0.0104
1149.00,0.0095
1148.00,0.0087
1147.00,0.0080
1146.00,0.0073
1145.00,0.0066
1144.00,0.0060
1143.00,0.0054
1142.00,0.0049
1141.00,0.0044
1140.00,0.0039
1139.00,0.0035
1138.00,0.0032
1137.00,0.0030
1136.00,0.0030
1135.00,0.0030
1134.00,0.0030
1133.00,0.0030
1132.00,0.0030
1131.00,0.0030
1130.00,0.0032
1129.00,0.0034
1128.00,0.0036
1127.00,0.0039
1126.00,0.0041
1125.00,0.0043
1124.00,0.0044
1123.00,0.0045
1122.00,0.0046
1121.00,0.0047
1120.00,0.0048
1119.00,0.0050
1118.00,0.0052
1117.00,0.0055
1116.00,0.0058
1115.00,0.0061
1114.00,0.0063
1113.00,0.0066
1112.00,0.0069
1111.00,0.0073
1110.00,0.0077
1109.00,0.0083
1108.00,0.0088
1107.00,0.0094
1106.00,0.0101
1105.00,0.0108
1104.00,0.0114
1103.00,0.0118
1102.00,0.0118
1101.00,0.0115
1100.00,0.0107
1099.00,0.0099
1098.00,0.0090
1097.00,0.0082
1096.00,0.0074
1095.00,0.0068
1094.00,0.0062
1093.00,0.0058
1092.00,0.0054
1091.00,0.0050
1090.00,0.0046
1089.00,0.0042
1088.00,0.0039
1087.00,0.0037
1086.00,0.0035
1085.00,0.0034
1084.00,0.0033
1083.00,0.0032
1082.00,0.0030
1081.00,0.0028
1080.00,0.0026
1079.00,0.0025
1078.00,0.0023
1077.00,0.0022
1076.00,0.0021
1075.00,0.0019
1074.00,0.0018
1073.00,0.0018
1072.00,0.0018
1071.00,0.0019
1070.00,0.0021
1069.00,0.0023
1068.00,0.0025
1067.00,0.0028
1066.00,0.0031
1065.00,0.0034
1064.00,0.0036
1063.00,0.0038
1062.00,0.0040
1061.00,0.0041
1060.00,0.0043
1059.00,0.0044
1058.00,0.0046
1057.00,0.0049
1056.00,0.0052
1055.00,0.0055
1054.00,0.0058
1053.00,0.0061
1052.00,0.0064
1051.00,0.0067
1050.00,0.0071
1049.00,0.0076
1048.00,0.0081
1047.00,0.0086
1046.00,0.0092
1045.00,0.0096
1044.00,0.0098
1043.00,0.0097
1042.00,0.0096
1041.00,0.0094
1040.00,0.0093
1039.00,0.0092
1038.00,0.0092
1037.00,0.0094
1036.00,0.0095
1035.00,0.0096
1034.00,0.0095
1033.00,0.0095
1032.00,0.0093
1031.00,0.0093
1030.00,0.0093
1029.00,0.0093
1028.00,0.0093
1027.00,0.0093
1026.00,0.0093
1025.00,0.0093
1024.00,0.0094
1023.00,0.0094
1022.00,0.0095
1021.00,0.0096
1020.00,0.0097
1019.00,0.0099
1018.00,0.0101
1017.00,0.0103
1016.00,0.0105
1015.00,0.0108
1014.00,0.0112
1013.00,0.0117
1012.00,0.0123
1011.00,0.0128
1010.00,0.0131
1009.00,0.0134
1008.00,0.0137
1007.00,0.0143
1006.00,0.0153
1005.00,0.0167
1004.00,0.0186
1003.00,0.0212
1002.00,0.0246
1001.00,0.0287
1000.00,0.0333
999.00,0.0372
998.00,0.0394
997.00,0.0389
996.00,0.0359
995.00,0.0313
994.00,0.0264
993.00,0.0220
992.00,0.0186
991.00,0.0161
990.00,0.0144
989.00,0.0132
988.00,0.0124
987.00,0.0120
986.00,0.0118
985.00,0.0118
984.00,0.0122
983.00,0.0129
982.00,0.0140
981.00,0.0156
980.00,0.0177
979.00,0.0205
978.00,0.0240
977.00,0.0283
976.00,0.0330
975.00,0.0377
974.00,0.0413
973.00,0.0428
972.00,0.0413
971.00,0.0370
970.00,0.0309
969.00,0.0244
968.00,0.0186
967.00,0.0141
966.00,0.0109
965.00,0.0087
964.00,0.0071
963.00,0.0060
962.00,0.0051
961.00,0.0042
960.00,0.0034
959.00,0.0025
958.00,0.0018
957.00,0.0012
956.00,0.0008
955.00,0.0005
954.00,0.0003
953.00,0.0002
952.00,0.0003
951.00,0.0004
950.00,0.0007
949.00,0.0009
948.00,0.0012
947.00,0.0015
946.00,0.0017
945.00,0.0020
944.00,0.0023
943.00,0.0026
942.00,0.0030
941.00,0.0034
940.00,0.0036
939.00,0.0036
938.00,0.0035
937.00,0.0033
936.00,0.0031
935.00,0.0031
934.00,0.0032
933.00,0.0034
932.00,0.0036
931.00,0.0038
930.00,0.0040
929.00,0.0042
928.00,0.0044
927.00,0.0046
926.00,0.0048
925.00,0.0050
924.00,0.0053
923.00,0.0056
922.00,0.0059
921.00,0.0062
920.00,0.0064
919.00,0.0066
918.00,0.0067
917.00,0.0068
916.00,0.0069
915.00,0.0069
914.00,0.0069
913.00,0.0070
912.00,0.0071
911.00,0.0073
910.00,0.0075
909.00,0.0078
908.00,0.0081
907.00,0.0086
906.00,0.0092
905.00,0.0102
904.00,0.0115
903.00,0.0133
902.00,0.0153
901.00,0.0172
900.00,0.0185
899.00,0.0189
898.00,0.0183
897.00,0.0167
896.00,0.0147
895.00,0.0128
894.00,0.0112
893.00,0.0100
892.00,0.0091
891.00,0.0085
890.00,0.0081
889.00,0.0080
888.00,0.0079
887.00,0.0079
886.00,0.0078
885.00,0.0077
884.00,0.0076
883.00,0.0076
882.00,0.0075
881.00,0.0076
880.00,0.0077
879.00,0.0078
878.00,0.0078
877.00,0.0079
876.00,0.0079
875.00,0.0079
874.00,0.0080
873.00,0.0080
872.00,0.0079
871.00,0.0078
870.00,0.0077
869.00,0.0076
868.00,0.0077
867.00,0.0079
866.00,0.0080
865.00,0.0081
864.00,0.0081
863.00,0.0082
862.00,0.0083
861.00,0.0085
860.00,0.0088
859.00,0.0090
858.00,0.0092
857.00,0.0093
856.00,0.0094
855.00,0.0096
854.00,0.0099
853.00,0.0102
852.00,0.0106
851.00,0.0110
850.00,0.0115
849.00,0.0122
848.00,0.0133
847.00,0.0150
846.00,0.0176
845.00,0.0214
844.00,0.0265
843.00,0.0323
842.00,0.0370
841.00,0.0385
840.00,0.0363
839.00,0.0313
838.00,0.0256
837.00,0.0209
836.00,0.0176
835.00,0.0155
834.00,0.0141
833.00,0.0132
832.00,0.0127
831.00,0.0123
830.00,0.0119
829.00,0.0114
828.00,0.0111
827.00,0.0109
826.00,0.0107
825.00,0.0107
824.00,0.0106
823.00,0.0106
822.00,0.0105
821.00,0.0103
820.00,0.0102
819.00,0.0103
818.00,0.0106
817.00,0.0111
816.00,0.0119
815.00,0.0130
814.00,0.0144
813.00,0.0161
812.00,0.0177
811.00,0.0193
810.00,0.0204
809.00,0.0209
808.00,0.0207
807.00,0.0199
806.00,0.0186
805.00,0.0171
804.00,0.0155
803.00,0.0141
802.00,0.0130
801.00,0.0122
800.00,0.0115
799.00,0.0109
798.00,0.0104
797.00,0.0100
796.00,0.0097
795.00,0.0095
794.00,0.0093
793.00,0.0092
792.00,0.0091
791.00,0.0089
790.00,0.0088
789.00,0.0087
788.00,0.0085
787.00,0.0083
786.00,0.0081
785.00,0.0079
784.00,0.0076
783.00,0.0073
782.00,0.0070
781.00,0.0068
780.00,0.0067
779.00,0.0066
778.00,0.0067
777.00,0.0068
776.00,0.0070
775.00,0.0072
774.00,0.0074
773.00,0.0076
772.00,0.0079
771.00,0.0081
770.00,0.0083
769.00,0.0084
768.00,0.0085
767.00,0.0086
766.00,0.0086
765.00,0.0085
764.00,0.0082
763.00,0.0079
762.00,0.0076
761.00,0.0072
760.00,0.0069
759.00,0.0066
758.00,0.0064
757.00,0.0062
756.00,0.0061
755.00,0.0060
754.00,0.0059
753.00,0.0058
752.00,0.0058
751.00,0.0059
750.00,0.0059
749.00,0.0060
748.00,0.0061
747.00,0.0062
746.00,0.0063
745.00,0.0063
744.00,0.0063
743.00,0.0063
742.00,0.0064
741.00,0.0066
740.00,0.0068
739.00,0.0069
738.00,0.0071
737.00,0.0072
736.00,0.0073
735.00,0.0074
734.00,0.0074
733.00,0.0073
732.00,0.0072
731.00,0.0073
730.00,0.0074
729.00,0.0075
728.00,0.0076
727.00,0.0077
726.00,0.0077
725.00,0.0076
724.00,0.0073
723.00,0.0071
722.00,0.0069
721.00,0.0068
720.00,0.0068
719.00,0.0068
718.00,0.0068
717.00,0.0068
716.00,0.0067
715.00,0.0066
714.00,0.0066
713.00,0.0065
712.00,0.0064
711.00,0.0062
710.00,0.0061
709.00,0.0061
708.00,0.0062
707.00,0.0063
706.00,0.0063
705.00,0.0063
704.00,0.0063
703.00,0.0063
702.00,0.0063
701.00,0.0062
700.00,0.0062
699.00,0.0062
698.00,0.0062
697.00,0.0061
696.00,0.0060
695.00,0.0060
694.00,0.0061
693.00,0.0061
692.00,0.0060
691.00,0.0059
690.00,0.0059
689.00,0.0059
688.00,0.0059
687.00,0.0059
686.00,0.0060
685.00,0.0061
684.00,0.0061
683.00,0.0061
682.00,0.0060
681.00,0.0059
680.00,0.0058
679.00,0.0058
678.00,0.0059
677.00,0.0060
676.00,0.0060
675.00,0.0059
674.00,0.0058
673.00,0.0058
672.00,0.0058
671.00,0.0060
670.00,0.0061
669.00,0.0061
668.00,0.0062
667.00,0.0063
666.00,0.0064
665.00,0.0063
664.00,0.0062
663.00,0.0062
662.00,0.0062
661.00,0.0062
660.00,0.0062
659.00,0.0062
658.00,0.0062
657.00,0.0061
656.00,0.0059
655.00,0.0056
654.00,0.0054
653.00,0.0054
652.00,0.0056
651.00,0.0059
650.00,0.0061
649.00,0.0061
648.00,0.0059
647.00,0.0055
646.00,0.0053
645.00,0.0053
644.00,0.0054
643.00,0.0056
642.00,0.0057
641.00,0.0057
640.00,0.0057
639.00,0.0058
638.00,0.0059
637.00,0.0059
636.00,0.0058
635.00,0.0057
634.00,0.0057
633.00,0.0059
632.00,0.0061
631.00,0.0062
630.00,0.0063
629.00,0.0061
628.00,0.0058
627.00,0.0056
626.00,0.0056
625.00,0.0057
624.00,0.0058
623.00,0.0060
622.00,0.0062
621.00,0.0064
620.00,0.0064
619.00,0.0063
618.00,0.0060
617.00,0.0058
616.00,0.0058
615.00,0.0061
614.00,0.0064
613.00,0.0067
612.00,0.0069
611.00,0.0070
610.00,0.0071
609.00,0.0070
608.00,0.0068
607.00,0.0066
606.00,0.0063
605.00,0.0061
604.00,0.0060
603.00,0.0059
602.00,0.0059
601.00,0.0060
600.00,0.0062
599.00,0.0065
598.00,0.0068
597.00,0.0070
596.00,0.0070
595.00,0.0069
594.00,0.0068
593.00,0.0066
592.00,0.0064
591.00,0.0062
590.00,0.0062
589.00,0.0063
588.00,0.0063
587.00,0.0062
586.00,0.0061
585.00,0.0061
584.00,0.0061
583.00,0.0063
582.00,0.0066
581.00,0.0068
580.00,0.0068
579.00,0.0067
578.00,0.0064
577.00,0.0063
576.00,0.0063
575.00,0.0064
574.00,0.0067
573.00,0.0071
572.00,0.0074
571.00,0.0074
570.00,0.0072
569.00,0.0068
568.00,0.0066
567.00,0.0066
566.00,0.0067
565.00,0.0067
564.00,0.0066
563.00,0.0065
562.00,0.0067
561.00,0.0070
560.00,0.0074
559.00,0.0076
558.00,0.0075
557.00,0.0074
556.00,0.0070
555.00,0.0066
554.00,0.0062
553.00,0.0059
552.00,0.0058
551.00,0.0060
550.00,0.0064
549.00,0.0067
548.00,0.0068
547.00,0.0068
546.00,0.0066
545.00,0.0066
544.00,0.0066
543.00,0.0068
542.00,0.0070
541.00,0.0071
540.00,0.0073
539.00,0.0076
538.00,0.0077
537.00,0.0076
536.00,0.0073
535.00,0.0070
534.00,0.0071
533.00,0.0074
532.00,0.0077
531.00,0.0078
530.00,0.0079
529.00,0.0082
528.00,0.0083
527.00,0.0084
526.00,0.0083
525.00,0.0083
524.00,0.0083
523.00,0.0082
522.00,0.0080
521.00,0.0079
520.00,0.0079
519.00,0.0079
518.00,0.0077
517.00,0.0072
516.00,0.0066
515.00,0.0061
514.00,0.0060
513.00,0.0061
512.00,0.0063
511.00,0.0066
510.00,0.0069
509.00,0.0072
508.00,0.0074
507.00,0.0073
506.00,0.0072
505.00,0.0072
504.00,0.0074
503.00,0.0076
502.00,0.0079
501.00,0.0080
500.00,0.0079
499.00,0.0076
498.00,0.0074
497.00,0.0076
496.00,0.0079
495.00,0.0081
494.00,0.0080
493.00,0.0076
492.00,0.0071
491.00,0.0067
490.00,0.0068
489.00,0.0072
488.00,0.0075
487.00,0.0074
486.00,0.0070
485.00,0.0067
484.00,0.0067
483.00,0.0066
482.00,0.0062
481.00,0.0058
480.00,0.0057
479.00,0.0060
478.00,0.0064
477.00,0.0070
476.00,0.0077
475.00,0.0081
474.00,0.0081
473.00,0.0080
472.00,0.0081
471.00,0.0087
470.00,0.0092
469.00,0.0095
468.00,0.0095
467.00,0.0097
466.00,0.0102
465.00,0.0111
464.00,0.0120
463.00,0.0128
462.00,0.0134
461.00,0.0138
460.00,0.0144
459.00,0.0150
458.00,0.0150
457.00,0.0139
456.00,0.0125
455.00,0.0116
454.00,0.0116
453.00,0.0120
452.00,0.0123
451.00,0.0120
450.00,0.0111
