Created as New Dataset,Sample 020 By Administrator Date Friday, September 05 2025
cm-1,A
4000.00,0.0010
3999.00,0.0010
3998.00,0.0010
3997.00,0.0010
3996.00,0.0010
3995.00,0.0010
3994.00,0.0010
3993.00,0.0010
3992.00,0.0010
3991.00,0.0010
3990.00,0.0010
3989.00,0.0010
3988.00,0.0010
3987.00,0.0010
3986.00,0.0010
3985.00,0.0010
3984.00,0.0010
3983.00,0.0010
3982.00,0.0010
3981.00,0.0010
3980.00,0.0009
3979.00,0.0009
3978.00,0.0009
3977.00,0.0009
3976.00,0.0009
3975.00,0.0009
3974.00,0.0009
3973.00,0.0009
3972.00,0.0009
3971.00,0.0009
3970.00,0.0009
3969.00,0.0009
3968.00,0.0009
3967.00,0.0008
3966.00,0.0008
3965.00,0.0008
3964.00,0.0008
3963.00,0.0008
3962.00,0.0008
3961.00,0.0009
3960.00,0.0009
3959.00,0.0009
3958.00,0.0009
3957.00,0.0009
3956.00,0.0009
3955.00,0.0009
3954.00,0.0008
3953.00,0.0008
3952.00,0.0008
3951.00,0.0008
3950.00,0.0008
3949.00,0.0008
3948.00,0.0008
3947.00,0.0009
3946.00,0.0009
3945.00,0.0009
3944.00,0.0009
3943.00,0.0009
3942.00,0.0009
3941.00,0.0009
3940.00,0.0008
3939.00,0.0008
3938.00,0.0008
3937.00,0.0008
3936.00,0.0008
3935.00,0.0008
3934.00,0.0008
3933.00,0.0008
3932.00,0.0008
3931.00,0.0008
3930.00,0.0009
3929.00,0.0009
3928.00,0.0009
3927.00,0.0009
3926.00,0.0009
3925.00,0.0009
3924.00,0.0009
3923.00,0.0009
3922.00,0.0008
3921.00,0.0008
3920.00,0.0007
3919.00,0.0007
3918.00,0.0007
3917.00,0.0007
3916.00,0.0007
3915.00,0.0008
3914.00,0.0008
3913.00,0.0008
3912.00,0.0008
3911.00,0.0008
3910.00,0.0008
3909.00,0.0008
3908.00,0.0007
3907.00,0.0007
3906.00,0.0006
3905.00,0.0006
3904.00,0.0005
3903.00,0.0005
3902.00,0.0005
3901.00,0.0005
3900.00,0.0006
3899.00,0.0006
3898.00,0.0006
3897.00,0.0006
3896.00,0.0006
3895.00,0.0006
3894.00,0.0006
3893.00,0.0006
3892.00,0.0006
3891.00,0.0006
3890.00,0.0006
3889.00,0.0006
3888.00,0.0005
3887.00,0.0005
3886.00,0.0005
3885.00,0.0005
3884.00,0.0005
3883.00,0.0005
3882.00,0.0005
3881.00,0.0006
3880.00,0.0006
3879.00,0.0006
3878.00,0.0005
3877.00,0.0005
3876.00,0.0005
3875.00,0.0006
3874.00,0.0006
3873.00,0.0006
3872.00,0.0005
3871.00,0.0005
3870.00,0.0005
3869.00,0.0005
3868.00,0.0004
3867.00,0.0003
3866.00,0.0003
3865.00,0.0004
3864.00,0.0004
3863.00,0.0005
3862.00,0.0004
3861.00,0.0004
3860.00,0.0004
3859.00,0.0004
3858.00,0.0005
3857.00,0.0005
3856.00,0.0005
3855.00,0.0005
3854.00,0.0005
3853.00,0.0005
3852.00,0.0005
3851.00,0.0005
3850.00,0.0005
3849.00,0.0005
3848.00,0.0005
3847.00,0.0005
3846.00,0.0005
3845.00,0.0005
3844.00,0.0004
3843.00,0.0004
3842.00,0.0004
3841.00,0.0003
3840.00,0.0003
3839.00,0.0003
3838.00,0.0003
3837.00,0.0004
3836.00,0.0004
3835.00,0.0004
3834.00,0.0004
3833.00,0.0004
3832.00,0.0005
3831.00,0.0005
3830.00,0.0005
3829.00,0.0005
3828.00,0.0005
3827.00,0.0005
3826.00,0.0005
3825.00,0.0004
3824.00,0.0003
3823.00,0.0002
3822.00,0.0003
3821.00,0.0004
3820.00,0.0004
3819.00,0.0004
3818.00,0.0003
3817.00,0.0003
3816.00,0.0004
3815.00,0.0004
3814.00,0.0005
3813.00,0.0005
3812.00,0.0005
3811.00,0.0005
3810.00,0.0005
3809.00,0.0005
3808.00,0.0004
3807.00,0.0004
3806.00,0.0004
3805.00,0.0003
3804.00,0.0003
3803.00,0.0002
3802.00,0.0003
3801.00,0.0003
3800.00,0.0004
3799.00,0.0004
3798.00,0.0004
3797.00,0.0005
3796.00,0.0005
3795.00,0.0006
3794.00,0.0006
3793.00,0.0006
3792.00,0.0006
3791.00,0.0006
3790.00,0.0007
3789.00,0.0007
3788.00,0.0007
3787.00,0.0007
3786.00,0.0007
3785.00,0.0007
3784.00,0.0007
3783.00,0.0007
3782.00,0.0007
3781.00,0.0006
3780.00,0.0006
3779.00,0.0006
3778.00,0.0006
3777.00,0.0006
3776.00,0.0006
3775.00,0.0006
3774.00,0.0006
3773.00,0.0006
3772.00,0.0006
3771.00,0.0006
3770.00,0.0006
3769.00,0.0007
3768.00,0.0007
3767.00,0.0007
3766.00,0.0007
3765.00,0.0007
3764.00,0.0007
3763.00,0.0007
3762.00,0.0006
3761.00,0.0006
3760.00,0.0006
3759.00,0.0006
3758.00,0.0006
3757.00,0.0006
3756.00,0.0006
3755.00,0.0005
3754.00,0.0004
3753.00,0.0002
3752.00,0.0001
3751.00,0.0001
3750.00,0.0001
3749.00,0.0001
3748.00,0.0002
3747.00,0.0002
3746.00,0.0003
3745.00,0.0003
3744.00,0.0004
3743.00,0.0005
3742.00,0.0004
3741.00,0.0003
3740.00,0.0002
3739.00,0.0001
3738.00,0.0001
3737.00,0.0000
3736.00,0.0000
3735.00,0.0001
3734.00,0.0001
3733.00,0.0001
3732.00,0.0002
3731.00,0.0003
3730.00,0.0004
3729.00,0.0004
3728.00,0.0004
3727.00,0.0005
3726.00,0.0005
3725.00,0.0005
3724.00,0.0005
3723.00,0.0004
3722.00,0.0004
3721.00,0.0005
3720.00,0.0005
3719.00,0.0005
3718.00,0.0005
3717.00,0.0004
3716.00,0.0004
3715.00,0.0004
3714.00,0.0003
3713.00,0.0004
3712.00,0.0004
3711.00,0.0004
3710.00,0.0004
3709.00,0.0004
3708.00,0.0004
3707.00,0.0003
3706.00,0.0003
3705.00,0.0003
3704.00,0.0003
3703.00,0.0003
3702.00,0.0003
3701.00,0.0004
3700.00,0.0004
3699.00,0.0004
3698.00,0.0004
3697.00,0.0003
3696.00,0.0003
3695.00,0.0003
3694.00,0.0003
3693.00,0.0002
3692.00,0.0002
3691.00,0.0001
3690.00,0.0000
3689.00,-0.0001
3688.00,-0.0003
3687.00,-0.0004
3686.00,-0.0005
3685.00,-0.0007
3684.00,-0.0008
3683.00,-0.0010
3682.00,-0.0012
3681.00,-0.0014
3680.00,-0.0017
3679.00,-0.0019
3678.00,-0.0022
3677.00,-0.0025
3676.00,-0.0028
3675.00,-0.0029
3674.00,-0.0031
3673.00,-0.0033
3672.00,-0.0035
3671.00,-0.0036
3670.00,-0.0036
3669.00,-0.0036
3668.00,-0.0036
3667.00,-0.0036
3666.00,-0.0037
3665.00,-0.0038
3664.00,-0.0039
3663.00,-0.0039
3662.00,-0.0040
3661.00,-0.0041
3660.00,-0.0041
3659.00,-0.0042
3658.00,-0.0042
3657.00,-0.0042
3656.00,-0.0041
3655.00,-0.0040
3654.00,-0.0040
3653.00,-0.0040
3652.00,-0.0039
3651.00,-0.0039
3650.00,-0.0039
3649.00,-0.0039
3648.00,-0.0038
3647.00,-0.0036
3646.00,-0.0034
3645.00,-0.0032
3644.00,-0.0030
3643.00,-0.0027
3642.00,-0.0025
3641.00,-0.0023
3640.00,-0.0023
3639.00,-0.0023
3638.00,-0.0023
3637.00,-0.0023
3636.00,-0.0021
3635.00,-0.0018
3634.00,-0.0014
3633.00,-0.0011
3632.00,-0.0009
3631.00,-0.0009
3630.00,-0.0008
3629.00,-0.0006
3628.00,-0.0005
3627.00,-0.0003
3626.00,-0.0002
3625.00,-0.0002
3624.00,-0.0002
3623.00,-0.0001
3622.00,-0.0001
3621.00,-0.0001
3620.00,-0.0000
3619.00,0.0001
3618.00,0.0001
3617.00,0.0002
3616.00,0.0002
3615.00,0.0002
3614.00,0.0003
3613.00,0.0004
3612.00,0.0004
3611.00,0.0005
3610.00,0.0006
3609.00,0.0007
3608.00,0.0008
3607.00,0.0009
3606.00,0.0009
3605.00,0.0009
3604.00,0.0009
3603.00,0.0010
3602.00,0.0010
3601.00,0.0010
3600.00,0.0011
3599.00,0.0011
3598.00,0.0011
3597.00,0.0012
3596.00,0.0012
3595.00,0.0012
3594.00,0.0012
3593.00,0.0012
3592.00,0.0012
3591.00,0.0011
3590.00,0.0011
3589.00,0.0012
3588.00,0.0012
3587.00,0.0013
3586.00,0.0013
3585.00,0.0014
3584.00,0.0015
3583.00,0.0016
3582.00,0.0016
3581.00,0.0017
3580.00,0.0017
3579.00,0.0017
3578.00,0.0016
3577.00,0.0016
3576.00,0.0016
3575.00,0.0016
3574.00,0.0016
3573.00,0.0017
3572.00,0.0017
3571.00,0.0017
3570.00,0.0017
3569.00,0.0017
3568.00,0.0017
3567.00,0.0018
3566.00,0.0018
3565.00,0.0018
3564.00,0.0019
3563.00,0.0019
3562.00,0.0020
3561.00,0.0020
3560.00,0.0021
3559.00,0.0021
3558.00,0.0021
3557.00,0.0022
3556.00,0.0022
3555.00,0.0023
3554.00,0.0023
3553.00,0.0023
3552.00,0.0023
3551.00,0.0023
3550.00,0.0023
3549.00,0.0023
3548.00,0.0024
3547.00,0.0024
3546.00,0.0024
3545.00,0.0024
3544.00,0.0024
3543.00,0.0025
3542.00,0.0025
3541.00,0.0025
3540.00,0.0026
3539.00,0.0026
3538.00,0.0026
3537.00,0.0027
3536.00,0.0027
3535.00,0.0027
3534.00,0.0027
3533.00,0.0028
3532.00,0.0028
3531.00,0.0028
3530.00,0.0029
3529.00,0.0029
3528.00,0.0029
3527.00,0.0029
3526.00,0.0030
3525.00,0.0030
3524.00,0.0030
3523.00,0.0030
3522.00,0.0031
3521.00,0.0032
3520.00,0.0032
3519.00,0.0033
3518.00,0.0033
3517.00,0.0032
3516.00,0.0032
3515.00,0.0032
3514.00,0.0032
3513.00,0.0033
3512.00,0.0033
3511.00,0.0034
3510.00,0.0034
3509.00,0.0034
3508.00,0.0035
3507.00,0.0035
3506.00,0.0035
3505.00,0.0035
3504.00,0.0036
3503.00,0.0036
3502.00,0.0035
3501.00,0.0035
3500.00,0.0036
3499.00,0.0036
3498.00,0.0037
3497.00,0.0038
3496.00,0.0038
3495.00,0.0038
3494.00,0.0038
3493.00,0.0038
3492.00,0.0038
3491.00,0.0037
3490.00,0.0038
3489.00,0.0038
3488.00,0.0038
3487.00,0.0039
3486.00,0.0039
3485.00,0.0039
3484.00,0.0039
3483.00,0.0039
3482.00,0.0039
3481.00,0.0039
3480.00,0.0039
3479.00,0.0039
3478.00,0.0039
3477.00,0.0040
3476.00,0.0040
3475.00,0.0041
3474.00,0.0042
3473.00,0.0042
3472.00,0.0043
3471.00,0.0043
3470.00,0.0043
3469.00,0.0043
3468.00,0.0043
3467.00,0.0043
3466.00,0.0043
3465.00,0.0043
3464.00,0.0043
3463.00,0.0044
3462.00,0.0044
3461.00,0.0044
3460.00,0.0044
3459.00,0.0044
3458.00,0.0045
3457.00,0.0045
3456.00,0.0045
3455.00,0.0045
3454.00,0.0045
3453.00,0.0046
3452.00,0.0046
3451.00,0.0047
3450.00,0.0047
3449.00,0.0047
3448.00,0.0047
3447.00,0.0048
3446.00,0.0048
3445.00,0.0048
3444.00,0.0048
3443.00,0.0048
3442.00,0.0049
3441.00,0.0049
3440.00,0.0049
3439.00,0.0049
3438.00,0.0049
3437.00,0.0049
3436.00,0.0049
3435.00,0.0050
3434.00,0.0050
3433.00,0.0051
3432.00,0.0051
3431.00,0.0052
3430.00,0.0052
3429.00,0.0052
3428.00,0.0053
3427.00,0.0053
3426.00,0.0053
3425.00,0.0053
3424.00,0.0053
3423.00,0.0054
3422.00,0.0054
3421.00,0.0054
3420.00,0.0054
3419.00,0.0054
3418.00,0.0054
3417.00,0.0055
3416.00,0.0055
3415.00,0.0056
3414.00,0.0057
3413.00,0.0057
3412.00,0.0057
3411.00,0.0057
3410.00,0.0057
3409.00,0.0057
3408.00,0.0057
3407.00,0.0058
3406.00,0.0058
3405.00,0.0058
3404.00,0.0058
3403.00,0.0058
3402.00,0.0058
3401.00,0.0059
3400.00,0.0059
3399.00,0.0059
3398.00,0.0059
3397.00,0.0059
3396.00,0.0059
3395.00,0.0060
3394.00,0.0060
3393.00,0.0061
3392.00,0.0061
3391.00,0.0061
3390.00,0.0061
3389.00,0.0062
3388.00,0.0062
3387.00,0.0062
3386.00,0.0063
3385.00,0.0063
3384.00,0.0063
3383.00,0.0063
3382.00,0.0064
3381.00,0.0064
3380.00,0.0065
3379.00,0.0065
3378.00,0.0065
3377.00,0.0065
3376.00,0.0065
3375.00,0.0065
3374.00,0.0065
3373.00,0.0065
3372.00,0.0065
3371.00,0.0065
3370.00,0.0065
3369.00,0.0066
3368.00,0.0066
3367.00,0.0066
3366.00,0.0066
3365.00,0.0067
3364.00,0.0067
3363.00,0.0067
3362.00,0.0068
3361.00,0.0068
3360.00,0.0068
3359.00,0.0068
3358.00,0.0068
3357.00,0.0068
3356.00,0.0068
3355.00,0.0068
3354.00,0.0069
3353.00,0.0069
3352.00,0.0069
3351.00,0.0069
3350.00,0.0069
3349.00,0.0069
3348.00,0.0070
3347.00,0.0070
3346.00,0.0070
3345.00,0.0070
3344.00,0.0071
3343.00,0.0071
3342.00,0.0071
3341.00,0.0071
3340.00,0.0071
3339.00,0.0071
3338.00,0.0071
3337.00,0.0071
3336.00,0.0071
3335.00,0.0071
3334.00,0.0071
3333.00,0.0072
3332.00,0.0072
3331.00,0.0072
3330.00,0.0072
3329.00,0.0072
3328.00,0.0072
3327.00,0.0072
3326.00,0.0072
3325.00,0.0073
3324.00,0.0073
3323.00,0.0073
3322.00,0.0074
3321.00,0.0074
3320.00,0.0074
3319.00,0.0074
3318.00,0.0074
3317.00,0.0074
3316.00,0.0074
3315.00,0.0074
3314.00,0.0075
3313.00,0.0075
3312.00,0.0075
3311.00,0.0075
3310.00,0.0075
3309.00,0.0075
3308.00,0.0075
3307.00,0.0076
3306.00,0.0076
3305.00,0.0076
3304.00,0.0076
3303.00,0.0075
3302.00,0.0075
3301.00,0.0075
3300.00,0.0076
3299.00,0.0076
3298.00,0.0076
3297.00,0.0076
3296.00,0.0076
3295.00,0.0075
3294.00,0.0075
3293.00,0.0075
3292.00,0.0075
3291.00,0.0075
3290.00,0.0075
3289.00,0.0075
3288.00,0.0075
3287.00,0.0075
3286.00,0.0075
3285.00,0.0075
3284.00,0.0075
3283.00,0.0075
3282.00,0.0075
3281.00,0.0074
3280.00,0.0074
3279.00,0.0073
3278.00,0.0073
3277.00,0.0072
3276.00,0.0072
3275.00,0.0072
3274.00,0.0071
3273.00,0.0071
3272.00,0.0070
3271.00,0.0070
3270.00,0.0070
3269.00,0.0070
3268.00,0.0071
3267.00,0.0071
3266.00,0.0071
3265.00,0.0070
3264.00,0.0070
3263.00,0.0070
3262.00,0.0069
3261.00,0.0068
3260.00,0.0068
3259.00,0.0067
3258.00,0.0066
3257.00,0.0066
3256.00,0.0066
3255.00,0.0065
3254.00,0.0065
3253.00,0.0064
3252.00,0.0064
3251.00,0.0063
3250.00,0.0063
3249.00,0.0063
3248.00,0.0062
3247.00,0.0062
3246.00,0.0062
3245.00,0.0062
3244.00,0.0062
3243.00,0.0062
3242.00,0.0061
3241.00,0.0061
3240.00,0.0061
3239.00,0.0061
3238.00,0.0060
3237.00,0.0060
3236.00,0.0059
3235.00,0.0059
3234.00,0.0059
3233.00,0.0059
3232.00,0.0060
3231.00,0.0059
3230.00,0.0059
3229.00,0.0059
3228.00,0.0060
3227.00,0.0060
3226.00,0.0060
3225.00,0.0060
3224.00,0.0060
3223.00,0.0060
3222.00,0.0060
3221.00,0.0060
3220.00,0.0060
3219.00,0.0060
3218.00,0.0060
3217.00,0.0060
3216.00,0.0059
3215.00,0.0059
3214.00,0.0059
3213.00,0.0059
3212.00,0.0059
3211.00,0.0059
3210.00,0.0059
3209.00,0.0059
3208.00,0.0059
3207.00,0.0060
3206.00,0.0060
3205.00,0.0060
3204.00,0.0061
3203.00,0.0061
3202.00,0.0060
3201.00,0.0060
3200.00,0.0060
3199.00,0.0060
3198.00,0.0060
3197.00,0.0060
3196.00,0.0060
3195.00,0.0060
3194.00,0.0060
3193.00,0.0059
3192.00,0.0059
3191.00,0.0059
3190.00,0.0059
3189.00,0.0058
3188.00,0.0058
3187.00,0.0058
3186.00,0.0058
3185.00,0.0057
3184.00,0.0057
3183.00,0.0057
3182.00,0.0057
3181.00,0.0057
3180.00,0.0057
3179.00,0.0057
3178.00,0.0057
3177.00,0.0057
3176.00,0.0056
3175.00,0.0056
3174.00,0.0056
3173.00,0.0056
3172.00,0.0056
3171.00,0.0055
3170.00,0.0055
3169.00,0.0054
3168.00,0.0054
3167.00,0.0054
3166.00,0.0054
3165.00,0.0054
3164.00,0.0054
3163.00,0.0054
3162.00,0.0054
3161.00,0.0054
3160.00,0.0054
3159.00,0.0054
3158.00,0.0054
3157.00,0.0054
3156.00,0.0055
3155.00,0.0055
3154.00,0.0055
3153.00,0.0054
3152.00,0.0054
3151.00,0.0053
3150.00,0.0053
3149.00,0.0053
3148.00,0.0053
3147.00,0.0053
3146.00,0.0053
3145.00,0.0053
3144.00,0.0053
3143.00,0.0053
3142.00,0.0052
3141.00,0.0052
3140.00,0.0052
3139.00,0.0052
3138.00,0.0051
3137.00,0.0051
3136.00,0.0051
3135.00,0.0050
3134.00,0.0049
3133.00,0.0049
3132.00,0.0049
3131.00,0.0049
3130.00,0.0049
3129.00,0.0049
3128.00,0.0049
3127.00,0.0049
3126.00,0.0049
3125.00,0.0048
3124.00,0.0047
3123.00,0.0046
3122.00,0.0046
3121.00,0.0046
3120.00,0.0045
3119.00,0.0045
3118.00,0.0045
3117.00,0.0045
3116.00,0.0045
3115.00,0.0045
3114.00,0.0045
3113.00,0.0045
3112.00,0.0045
3111.00,0.0045
3110.00,0.0045
3109.00,0.0044
3108.00,0.0044
3107.00,0.0044
3106.00,0.0044
3105.00,0.0044
3104.00,0.0044
3103.00,0.0044
3102.00,0.0044
3101.00,0.0044
3100.00,0.0044
3099.00,0.0044
3098.00,0.0044
3097.00,0.0044
3096.00,0.0043
3095.00,0.0043
3094.00,0.0043
3093.00,0.0043
3092.00,0.0043
3091.00,0.0043
3090.00,0.0043
3089.00,0.0043
3088.00,0.0043
3087.00,0.0043
3086.00,0.0043
3085.00,0.0043
3084.00,0.0043
3083.00,0.0043
3082.00,0.0042
3081.00,0.0042
3080.00,0.0042
3079.00,0.0042
3078.00,0.0042
3077.00,0.0043
3076.00,0.0043
3075.00,0.0044
3074.00,0.0044
3073.00,0.0045
3072.00,0.0045
3071.00,0.0045
3070.00,0.0045
3069.00,0.0045
3068.00,0.0045
3067.00,0.0045
3066.00,0.0046
3065.00,0.0046
3064.00,0.0046
3063.00,0.0047
3062.00,0.0047
3061.00,0.0047
3060.00,0.0047
3059.00,0.0047
3058.00,0.0048
3057.00,0.0048
3056.00,0.0048
3055.00,0.0048
3054.00,0.0047
3053.00,0.0047
3052.00,0.0047
3051.00,0.0047
3050.00,0.0048
3049.00,0.0048
3048.00,0.0048
3047.00,0.0048
3046.00,0.0049
3045.00,0.0049
3044.00,0.0049
3043.00,0.0049
3042.00,0.0049
3041.00,0.0049
3040.00,0.0050
3039.00,0.0050
3038.00,0.0050
3037.00,0.0050
3036.00,0.0050
3035.00,0.0049
3034.00,0.0049
3033.00,0.0049
3032.00,0.0050
3031.00,0.0050
3030.00,0.0050
3029.00,0.0050
3028.00,0.0050
3027.00,0.0050
3026.00,0.0050
3025.00,0.0050
3024.00,0.0050
3023.00,0.0049
3022.00,0.0048
3021.00,0.0047
3020.00,0.0045
3019.00,0.0043
3018.00,0.0041
3017.00,0.0038
3016.00,0.0035
3015.00,0.0031
3014.00,0.0027
3013.00,0.0022
3012.00,0.0016
3011.00,0.0009
3010.00,0.0001
3009.00,-0.0008
3008.00,-0.0018
3007.00,-0.0028
3006.00,-0.0039
3005.00,-0.0051
3004.00,-0.0063
3003.00,-0.0074
3002.00,-0.0085
3001.00,-0.0095
3000.00,-0.0104
2999.00,-0.0112
2998.00,-0.0119
2997.00,-0.0124
2996.00,-0.0128
2995.00,-0.0131
2994.00,-0.0133
2993.00,-0.0135
2992.00,-0.0136
2991.00,-0.0136
2990.00,-0.0136
2989.00,-0.0135
2988.00,-0.0135
2987.00,-0.0139
2986.00,-0.0151
2985.00,-0.0172
2984.00,-0.0199
2983.00,-0.0224
2982.00,-0.0233
2981.00,-0.0220
2980.00,-0.0186
2979.00,-0.0141
2978.00,-0.0092
2977.00,-0.0042
2976.00,0.0005
2975.00,0.0049
2974.00,0.0092
2973.00,0.0138
2972.00,0.0194
2971.00,0.0266
2970.00,0.0354
2969.00,0.0453
2968.00,0.0558
2967.00,0.0668
2966.00,0.0783
2965.00,0.0900
2964.00,0.1019
2963.00,0.1134
2962.00,0.1238
2961.00,0.1329
2960.00,0.1401
2959.00,0.1457
2958.00,0.1499
2957.00,0.1532
2956.00,0.1566
2955.00,0.1604
2954.00,0.1648
2953.00,0.1697
2952.00,0.1743
2951.00,0.1776
2950.00,0.1786
2949.00,0.1765
2948.00,0.1709
2947.00,0.1623
2946.00,0.1513
2945.00,0.1392
2944.00,0.1273
2943.00,0.1165
2942.00,0.1078
2941.00,0.1014
2940.00,0.0974
2939.00,0.0957
2938.00,0.0961
2937.00,0.0982
2936.00,0.1019
2935.00,0.1070
2934.00,0.1132
2933.00,0.1207
2932.00,0.1291
2931.00,0.1385
2930.00,0.1484
2929.00,0.1587
2928.00,0.1688
2927.00,0.1785
2926.00,0.1877
2925.00,0.1963
2924.00,0.2045
2923.00,0.2123
2922.00,0.2199
2921.00,0.2271
2920.00,0.2334
2919.00,0.2382
2918.00,0.2407
2917.00,0.2404
2916.00,0.2372
2915.00,0.2314
2914.00,0.2238
2913.00,0.2153
2912.00,0.2066
2911.00,0.1985
2910.00,0.1910
2909.00,0.1843
2908.00,0.1781
2907.00,0.1720
2906.00,0.1659
2905.00,0.1596
2904.00,0.1530
2903.00,0.1462
2902.00,0.1393
2901.00,0.1325
2900.00,0.1257
2899.00,0.1193
2898.00,0.1133
2897.00,0.1078
2896.00,0.1029
2895.00,0.0986
2894.00,0.0950
2893.00,0.0920
2892.00,0.0897
2891.00,0.0881
2890.00,0.0871
2889.00,0.0868
2888.00,0.0869
2887.00,0.0874
2886.00,0.0882
2885.00,0.0894
2884.00,0.0911
2883.00,0.0934
2882.00,0.0962
2881.00,0.0994
2880.00,0.1024
2879.00,0.1050
2878.00,0.1068
2877.00,0.1075
2876.00,0.1075
2875.00,0.1071
2874.00,0.1067
2873.00,0.1068
2872.00,0.1075
2871.00,0.1090
2870.00,0.1111
2869.00,0.1132
2868.00,0.1147
2867.00,0.1148
2866.00,0.1129
2865.00,0.1086
2864.00,0.1022
2863.00,0.0945
2862.00,0.0865
2861.00,0.0790
2860.00,0.0726
2859.00,0.0675
2858.00,0.0638
2857.00,0.0612
2856.00,0.0596
2855.00,0.0587
2854.00,0.0586
2853.00,0.0591
2852.00,0.0602
2851.00,0.0617
2850.00,0.0638
2849.00,0.0664
2848.00,0.0695
2847.00,0.0733
2846.00,0.0780
2845.00,0.0836
2844.00,0.0900
2843.00,0.0971
2842.00,0.1044
2841.00,0.1112
2840.00,0.1168
2839.00,0.1203
2838.00,0.1210
2837.00,0.1182
2836.00,0.1122
2835.00,0.1034
2834.00,0.0929
2833.00,0.0820
2832.00,0.0715
2831.00,0.0623
2830.00,0.0545
2829.00,0.0481
2828.00,0.0430
2827.00,0.0388
2826.00,0.0354
2825.00,0.0326
2824.00,0.0302
2823.00,0.0283
2822.00,0.0266
2821.00,0.0251
2820.00,0.0238
2819.00,0.0227
2818.00,0.0217
2817.00,0.0209
2816.00,0.0201
2815.00,0.0195
2814.00,0.0189
2813.00,0.0184
2812.00,0.0179
2811.00,0.0174
2810.00,0.0169
2809.00,0.0164
2808.00,0.0159
2807.00,0.0153
2806.00,0.0146
2805.00,0.0140
2804.00,0.0133
2803.00,0.0127
2802.00,0.0122
2801.00,0.0118
2800.00,0.0114
2799.00,0.0111
2798.00,0.0109
2797.00,0.0107
2796.00,0.0105
2795.00,0.0103
2794.00,0.0100
2793.00,0.0098
2792.00,0.0095
2791.00,0.0092
2790.00,0.0089
2789.00,0.0086
2788.00,0.0082
2787.00,0.0079
2786.00,0.0076
2785.00,0.0073
2784.00,0.0070
2783.00,0.0068
2782.00,0.0066
2781.00,0.0065
2780.00,0.0063
2779.00,0.0061
2778.00,0.0060
2777.00,0.0059
2776.00,0.0058
2775.00,0.0057
2774.00,0.0056
2773.00,0.0056
2772.00,0.0055
2771.00,0.0054
2770.00,0.0054
2769.00,0.0053
2768.00,0.0053
2767.00,0.0053
2766.00,0.0052
2765.00,0.0052
2764.00,0.0052
2763.00,0.0052
2762.00,0.0052
2761.00,0.0051
2760.00,0.0051
2759.00,0.0050
2758.00,0.0050
2757.00,0.0049
2756.00,0.0049
2755.00,0.0049
2754.00,0.0050
2753.00,0.0050
2752.00,0.0050
2751.00,0.0050
2750.00,0.0050
2749.00,0.0050
2748.00,0.0050
2747.00,0.0050
2746.00,0.0051
2745.00,0.0051
2744.00,0.0052
2743.00,0.0052
2742.00,0.0053
2741.00,0.0054
2740.00,0.0056
2739.00,0.0057
2738.00,0.0058
2737.00,0.0060
2736.00,0.0061
2735.00,0.0062
2734.00,0.0064
2733.00,0.0066
2732.00,0.0068
2731.00,0.0070
2730.00,0.0072
2729.00,0.0074
2728.00,0.0077
2727.00,0.0080
2726.00,0.0082
2725.00,0.0084
2724.00,0.0086
2723.00,0.0086
2722.00,0.0085
2721.00,0.0084
2720.00,0.0081
2719.00,0.0078
2718.00,0.0075
2717.00,0.0072
2716.00,0.0069
2715.00,0.0066
2714.00,0.0064
2713.00,0.0062
2712.00,0.0060
2711.00,0.0058
2710.00,0.0056
2709.00,0.0055
2708.00,0.0054
2707.00,0.0052
2706.00,0.0051
2705.00,0.0051
2704.00,0.0050
2703.00,0.0049
2702.00,0.0048
2701.00,0.0047
2700.00,0.0047
2699.00,0.0046
2698.00,0.0046
2697.00,0.0045
2696.00,0.0045
2695.00,0.0045
2694.00,0.0045
2693.00,0.0044
2692.00,0.0044
2691.00,0.0044
2690.00,0.0044
2689.00,0.0044
2688.00,0.0044
2687.00,0.0043
2686.00,0.0043
2685.00,0.0043
2684.00,0.0043
2683.00,0.0043
2682.00,0.0043
2681.00,0.0044
2680.00,0.0044
2679.00,0.0044
2678.00,0.0044
2677.00,0.0044
2676.00,0.0044
2675.00,0.0043
2674.00,0.0043
2673.00,0.0042
2672.00,0.0041
2671.00,0.0041
2670.00,0.0040
2669.00,0.0040
2668.00,0.0040
2667.00,0.0040
2666.00,0.0041
2665.00,0.0041
2664.00,0.0042
2663.00,0.0042
2662.00,0.0043
2661.00,0.0043
2660.00,0.0043
2659.00,0.0043
2658.00,0.0043
2657.00,0.0043
2656.00,0.0043
2655.00,0.0042
2654.00,0.0041
2653.00,0.0041
2652.00,0.0040
2651.00,0.0040
2650.00,0.0039
2649.00,0.0039
2648.00,0.0039
2647.00,0.0039
2646.00,0.0038
2645.00,0.0038
2644.00,0.0037
2643.00,0.0036
2642.00,0.0036
2641.00,0.0036
2640.00,0.0036
2639.00,0.0035
2638.00,0.0035
2637.00,0.0035
2636.00,0.0035
2635.00,0.0035
2634.00,0.0035
2633.00,0.0036
2632.00,0.0036
2631.00,0.0036
2630.00,0.0037
2629.00,0.0037
2628.00,0.0038
2627.00,0.0038
2626.00,0.0039
2625.00,0.0039
2624.00,0.0039
2623.00,0.0039
2622.00,0.0040
2621.00,0.0040
2620.00,0.0040
2619.00,0.0040
2618.00,0.0040
2617.00,0.0040
2616.00,0.0040
2615.00,0.0039
2614.00,0.0039
2613.00,0.0039
2612.00,0.0039
2611.00,0.0038
2610.00,0.0037
2609.00,0.0036
2608.00,0.0035
2607.00,0.0035
2606.00,0.0034
2605.00,0.0034
2604.00,0.0034
2603.00,0.0034
2602.00,0.0033
2601.00,0.0033
2600.00,0.0033
2599.00,0.0032
2598.00,0.0032
2597.00,0.0032
2596.00,0.0033
2595.00,0.0033
2594.00,0.0034
2593.00,0.0034
2592.00,0.0034
2591.00,0.0035
2590.00,0.0035
2589.00,0.0036
2588.00,0.0037
2587.00,0.0038
2586.00,0.0039
2585.00,0.0040
2584.00,0.0041
2583.00,0.0041
2582.00,0.0041
2581.00,0.0041
2580.00,0.0040
2579.00,0.0040
2578.00,0.0039
2577.00,0.0038
2576.00,0.0036
2575.00,0.0035
2574.00,0.0033
2573.00,0.0032
2572.00,0.0031
2571.00,0.0030
2570.00,0.0030
2569.00,0.0029
2568.00,0.0029
2567.00,0.0029
2566.00,0.0028
2565.00,0.0028
2564.00,0.0027
2563.00,0.0026
2562.00,0.0026
2561.00,0.0026
2560.00,0.0026
2559.00,0.0027
2558.00,0.0026
2557.00,0.0026
2556.00,0.0026
2555.00,0.0025
2554.00,0.0025
2553.00,0.0025
2552.00,0.0024
2551.00,0.0023
2550.00,0.0023
2549.00,0.0023
2548.00,0.0023
2547.00,0.0022
2546.00,0.0021
2545.00,0.0020
2544.00,0.0019
2543.00,0.0019
2542.00,0.0019
2541.00,0.0019
2540.00,0.0018
2539.00,0.0018
2538.00,0.0018
2537.00,0.0018
2536.00,0.0018
2535.00,0.0017
2534.00,0.0018
2533.00,0.0018
2532.00,0.0018
2531.00,0.0018
2530.00,0.0018
2529.00,0.0017
2528.00,0.0017
2527.00,0.0017
2526.00,0.0017
2525.00,0.0016
2524.00,0.0016
2523.00,0.0015
2522.00,0.0014
2521.00,0.0013
2520.00,0.0013
2519.00,0.0013
2518.00,0.0013
2517.00,0.0012
2516.00,0.0012
2515.00,0.0012
2514.00,0.0012
2513.00,0.0012
2512.00,0.0012
2511.00,0.0011
2510.00,0.0011
2509.00,0.0012
2508.00,0.0012
2507.00,0.0012
2506.00,0.0013
2505.00,0.0013
2504.00,0.0012
2503.00,0.0012
2502.00,0.0012
2501.00,0.0012
2500.00,0.0012
2499.00,0.0011
2498.00,0.0011
2497.00,0.0011
2496.00,0.0011
2495.00,0.0010
2494.00,0.0011
2493.00,0.0011
2492.00,0.0012
2491.00,0.0012
2490.00,0.0013
2489.00,0.0013
2488.00,0.0013
2487.00,0.0012
2486.00,0.0012
2485.00,0.0012
2484.00,0.0012
2483.00,0.0012
2482.00,0.0012
2481.00,0.0012
2480.00,0.0012
2479.00,0.0011
2478.00,0.0011
2477.00,0.0011
2476.00,0.0010
2475.00,0.0010
2474.00,0.0010
2473.00,0.0010
2472.00,0.0010
2471.00,0.0011
2470.00,0.0011
2469.00,0.0011
2468.00,0.0011
2467.00,0.0011
2466.00,0.0011
2465.00,0.0011
2464.00,0.0011
2463.00,0.0011
2462.00,0.0011
2461.00,0.0012
2460.00,0.0012
2459.00,0.0012
2458.00,0.0012
2457.00,0.0012
2456.00,0.0013
2455.00,0.0013
2454.00,0.0013
2453.00,0.0013
2452.00,0.0013
2451.00,0.0012
2450.00,0.0012
2449.00,0.0012
2448.00,0.0012
2447.00,0.0012
2446.00,0.0012
2445.00,0.0012
2444.00,0.0012
2443.00,0.0012
2442.00,0.0012
2441.00,0.0012
2440.00,0.0012
2439.00,0.0012
2438.00,0.0012
2437.00,0.0012
2436.00,0.0013
2435.00,0.0014
2434.00,0.0014
2433.00,0.0015
2432.00,0.0015
2431.00,0.0014
2430.00,0.0014
2429.00,0.0014
2428.00,0.0015
2427.00,0.0015
2426.00,0.0015
2425.00,0.0015
2424.00,0.0014
2423.00,0.0014
2422.00,0.0014
2421.00,0.0013
2420.00,0.0013
2419.00,0.0013
2418.00,0.0013
2417.00,0.0013
2416.00,0.0013
2415.00,0.0013
2414.00,0.0012
2413.00,0.0011
2412.00,0.0011
2411.00,0.0011
2410.00,0.0012
2409.00,0.0012
2408.00,0.0012
2407.00,0.0012
2406.00,0.0012
2405.00,0.0012
2404.00,0.0012
2403.00,0.0011
2402.00,0.0010
2401.00,0.0010
2400.00,0.0010
2399.00,0.0010
2398.00,0.0010
2397.00,0.0010
2396.00,0.0010
2395.00,0.0009
2394.00,0.0009
2393.00,0.0009
2392.00,0.0009
2391.00,0.0009
2390.00,0.0009
2389.00,0.0009
2388.00,0.0009
2387.00,0.0008
2386.00,0.0008
2385.00,0.0008
2384.00,0.0008
2383.00,0.0008
2382.00,0.0007
2381.00,0.0008
2380.00,0.0008
2379.00,0.0008
2378.00,0.0008
2377.00,0.0007
2376.00,0.0007
2375.00,0.0007
2374.00,0.0007
2373.00,0.0007
2372.00,0.0007
2371.00,0.0007
2370.00,0.0007
2369.00,0.0007
2368.00,0.0007
2367.00,0.0007
2366.00,0.0007
2365.00,0.0008
2364.00,0.0008
2363.00,0.0007
2362.00,0.0007
2361.00,0.0007
2360.00,0.0007
2359.00,0.0008
2358.00,0.0009
2357.00,0.0009
2356.00,0.0009
2355.00,0.0009
2354.00,0.0008
2353.00,0.0007
2352.00,0.0006
2351.00,0.0005
2350.00,0.0006
2349.00,0.0007
2348.00,0.0009
2347.00,0.0010
2346.00,0.0009
2345.00,0.0008
2344.00,0.0008
2343.00,0.0008
2342.00,0.0008
2341.00,0.0008
2340.00,0.0008
2339.00,0.0008
2338.00,0.0009
2337.00,0.0010
2336.00,0.0010
2335.00,0.0010
2334.00,0.0009
2333.00,0.0008
2332.00,0.0007
2331.00,0.0006
2330.00,0.0006
2329.00,0.0008
2328.00,0.0010
2327.00,0.0013
2326.00,0.0017
2325.00,0.0020
2324.00,0.0021
2323.00,0.0020
2322.00,0.0018
2321.00,0.0017
2320.00,0.0016
2319.00,0.0015
2318.00,0.0014
2317.00,0.0014
2316.00,0.0013
2315.00,0.0012
2314.00,0.0012
2313.00,0.0011
2312.00,0.0011
2311.00,0.0010
2310.00,0.0009
2309.00,0.0009
2308.00,0.0009
2307.00,0.0009
2306.00,0.0010
2305.00,0.0011
2304.00,0.0011
2303.00,0.0011
2302.00,0.0012
2301.00,0.0012
2300.00,0.0012
2299.00,0.0012
2298.00,0.0013
2297.00,0.0014
2296.00,0.0015
2295.00,0.0015
2294.00,0.0016
2293.00,0.0017
2292.00,0.0018
2291.00,0.0019
2290.00,0.0019
2289.00,0.0019
2288.00,0.0018
2287.00,0.0018
2286.00,0.0018
2285.00,0.0019
2284.00,0.0020
2283.00,0.0019
2282.00,0.0018
2281.00,0.0017
2280.00,0.0016
2279.00,0.0015
2278.00,0.0015
2277.00,0.0015
2276.00,0.0015
2275.00,0.0015
2274.00,0.0015
2273.00,0.0015
2272.00,0.0015
2271.00,0.0015
2270.00,0.0015
2269.00,0.0015
2268.00,0.0014
2267.00,0.0013
2266.00,0.0012
2265.00,0.0012
2264.00,0.0011
2263.00,0.0011
2262.00,0.0011
2261.00,0.0012
2260.00,0.0013
2259.00,0.0014
2258.00,0.0015
2257.00,0.0016
2256.00,0.0016
2255.00,0.0015
2254.00,0.0014
2253.00,0.0013
2252.00,0.0012
2251.00,0.0011
2250.00,0.0010
2249.00,0.0010
2248.00,0.0011
2247.00,0.0011
2246.00,0.0011
2245.00,0.0011
2244.00,0.0011
2243.00,0.0011
2242.00,0.0011
2241.00,0.0011
2240.00,0.0011
2239.00,0.0011
2238.00,0.0011
2237.00,0.0011
2236.00,0.0011
2235.00,0.0012
2234.00,0.0013
2233.00,0.0013
2232.00,0.0013
2231.00,0.0013
2230.00,0.0013
2229.00,0.0014
2228.00,0.0015
2227.00,0.0014
2226.00,0.0013
2225.00,0.0010
2224.00,0.0008
2223.00,0.0007
2222.00,0.0006
2221.00,0.0007
2220.00,0.0009
2219.00,0.0010
2218.00,0.0011
2217.00,0.0011
2216.00,0.0011
2215.00,0.0010
2214.00,0.0009
2213.00,0.0007
2212.00,0.0006
2211.00,0.0006
2210.00,0.0008
2209.00,0.0009
2208.00,0.0010
2207.00,0.0009
2206.00,0.0008
2205.00,0.0008
2204.00,0.0008
2203.00,0.0008
2202.00,0.0010
2201.00,0.0011
2200.00,0.0011
2199.00,0.0010
2198.00,0.0007
2197.00,0.0005
2196.00,0.0005
2195.00,0.0006
2194.00,0.0008
2193.00,0.0010
2192.00,0.0011
2191.00,0.0011
2190.00,0.0011
2189.00,0.0011
2188.00,0.0012
2187.00,0.0014
2186.00,0.0015
2185.00,0.0015
2184.00,0.0015
2183.00,0.0014
2182.00,0.0013
2181.00,0.0013
2180.00,0.0012
2179.00,0.0012
2178.00,0.0013
2177.00,0.0015
2176.00,0.0015
2175.00,0.0013
2174.00,0.0010
2173.00,0.0009
2172.00,0.0009
2171.00,0.0011
2170.00,0.0014
2169.00,0.0018
2168.00,0.0021
2167.00,0.0022
2166.00,0.0021
2165.00,0.0021
2164.00,0.0023
2163.00,0.0025
2162.00,0.0022
2161.00,0.0015
2160.00,0.0003
2159.00,-0.0011
2158.00,-0.0020
2157.00,-0.0023
2156.00,-0.0020
2155.00,-0.0015
2154.00,-0.0012
2153.00,-0.0011
2152.00,-0.0012
2151.00,-0.0011
2150.00,-0.0010
2149.00,-0.0007
2148.00,-0.0005
2147.00,-0.0005
2146.00,-0.0007
2145.00,-0.0008
2144.00,-0.0009
2143.00,-0.0009
2142.00,-0.0008
2141.00,-0.0006
2140.00,-0.0005
2139.00,-0.0005
2138.00,-0.0006
2137.00,-0.0008
2136.00,-0.0011
2135.00,-0.0014
2134.00,-0.0016
2133.00,-0.0016
2132.00,-0.0013
2131.00,-0.0011
2130.00,-0.0008
2129.00,-0.0007
2128.00,-0.0004
2127.00,-0.0002
2126.00,-0.0000
2125.00,-0.0000
2124.00,-0.0001
2123.00,-0.0002
2122.00,-0.0002
2121.00,-0.0002
2120.00,-0.0001
2119.00,-0.0001
2118.00,-0.0000
2117.00,0.0001
2116.00,0.0001
2115.00,0.0002
2114.00,0.0003
2113.00,0.0004
2112.00,0.0005
2111.00,0.0005
2110.00,0.0004
2109.00,0.0004
2108.00,0.0004
2107.00,0.0004
2106.00,0.0004
2105.00,0.0005
2104.00,0.0005
2103.00,0.0005
2102.00,0.0004
2101.00,0.0004
2100.00,0.0003
2099.00,0.0002
2098.00,-0.0000
2097.00,-0.0003
2096.00,-0.0006
2095.00,-0.0007
2094.00,-0.0006
2093.00,-0.0004
2092.00,-0.0002
2091.00,-0.0001
2090.00,0.0000
2089.00,0.0001
2088.00,0.0002
2087.00,0.0003
2086.00,0.0003
2085.00,0.0003
2084.00,0.0004
2083.00,0.0005
2082.00,0.0005
2081.00,0.0006
2080.00,0.0006
2079.00,0.0005
2078.00,0.0004
2077.00,0.0003
2076.00,0.0003
2075.00,0.0002
2074.00,0.0002
2073.00,0.0001
2072.00,0.0001
2071.00,0.0001
2070.00,0.0001
2069.00,0.0001
2068.00,0.0000
2067.00,-0.0001
2066.00,-0.0001
2065.00,-0.0001
2064.00,0.0001
2063.00,0.0003
2062.00,0.0005
2061.00,0.0006
2060.00,0.0007
2059.00,0.0008
2058.00,0.0007
2057.00,0.0006
2056.00,0.0005
2055.00,0.0004
2054.00,0.0004
2053.00,0.0008
2052.00,0.0013
2051.00,0.0017
2050.00,0.0017
2049.00,0.0014
2048.00,0.0010
2047.00,0.0006
2046.00,0.0004
2045.00,0.0001
2044.00,-0.0000
2043.00,-0.0000
2042.00,0.0001
2041.00,0.0002
2040.00,0.0003
2039.00,0.0002
2038.00,0.0000
2037.00,-0.0000
2036.00,0.0001
2035.00,0.0001
2034.00,0.0001
2033.00,0.0000
2032.00,0.0000
2031.00,0.0000
2030.00,0.0000
2029.00,0.0000
2028.00,-0.0000
2027.00,-0.0001
2026.00,-0.0002
2025.00,-0.0002
2024.00,-0.0002
2023.00,-0.0002
2022.00,-0.0004
2021.00,-0.0006
2020.00,-0.0007
2019.00,-0.0008
2018.00,-0.0009
2017.00,-0.0009
2016.00,-0.0009
2015.00,-0.0009
2014.00,-0.0009
2013.00,-0.0008
2012.00,-0.0007
2011.00,-0.0006
2010.00,-0.0006
2009.00,-0.0007
2008.00,-0.0008
2007.00,-0.0010
2006.00,-0.0011
2005.00,-0.0013
2004.00,-0.0015
2003.00,-0.0016
2002.00,-0.0015
2001.00,-0.0013
2000.00,-0.0010
1999.00,-0.0009
1998.00,-0.0010
1997.00,-0.0011
1996.00,-0.0011
1995.00,-0.0010
1994.00,-0.0008
1993.00,-0.0006
1992.00,-0.0005
1991.00,-0.0005
1990.00,-0.0006
1989.00,-0.0007
1988.00,-0.0006
1987.00,-0.0004
1986.00,-0.0000
1985.00,0.0005
1984.00,0.0010
1983.00,0.0013
1982.00,0.0015
1981.00,0.0016
1980.00,0.0018
1979.00,0.0018
1978.00,0.0014
1977.00,0.0007
1976.00,-0.0001
1975.00,-0.0007
1974.00,-0.0009
1973.00,-0.0009
1972.00,-0.0007
1971.00,-0.0007
1970.00,-0.0007
1969.00,-0.0008
1968.00,-0.0008
1967.00,-0.0008
1966.00,-0.0010
1965.00,-0.0012
1964.00,-0.0013
1963.00,-0.0014
1962.00,-0.0014
1961.00,-0.0013
1960.00,-0.0013
1959.00,-0.0012
1958.00,-0.0010
1957.00,-0.0009
1956.00,-0.0010
1955.00,-0.0010
1954.00,-0.0010
1953.00,-0.0009
1952.00,-0.0008
1951.00,-0.0007
1950.00,-0.0006
1949.00,-0.0006
1948.00,-0.0006
1947.00,-0.0006
1946.00,-0.0007
1945.00,-0.0008
1944.00,-0.0008
1943.00,-0.0008
1942.00,-0.0007
1941.00,-0.0006
1940.00,-0.0004
1939.00,-0.0002
1938.00,-0.0002
1937.00,-0.0002
1936.00,-0.0002
1935.00,-0.0004
1934.00,-0.0005
1933.00,-0.0005
1932.00,-0.0005
1931.00,-0.0004
1930.00,-0.0004
1929.00,-0.0004
1928.00,-0.0003
1927.00,-0.0003
1926.00,-0.0002
1925.00,-0.0001
1924.00,-0.0001
1923.00,-0.0001
1922.00,-0.0001
1921.00,0.0000
1920.00,0.0001
1919.00,0.0002
1918.00,0.0002
1917.00,0.0002
1916.00,0.0001
1915.00,0.0000
1914.00,-0.0000
1913.00,-0.0000
1912.00,0.0000
1911.00,0.0000
1910.00,-0.0000
1909.00,-0.0001
1908.00,-0.0001
1907.00,-0.0002
1906.00,-0.0002
1905.00,-0.0001
1904.00,0.0000
1903.00,0.0001
1902.00,0.0001
1901.00,0.0000
1900.00,0.0000
1899.00,-0.0000
1898.00,-0.0000
1897.00,0.0000
1896.00,0.0002
1895.00,0.0003
1894.00,0.0004
1893.00,0.0004
1892.00,0.0004
1891.00,0.0003
1890.00,0.0003
1889.00,0.0003
1888.00,0.0004
1887.00,0.0003
1886.00,0.0003
1885.00,0.0004
1884.00,0.0004
1883.00,0.0003
1882.00,0.0002
1881.00,0.0002
1880.00,0.0002
1879.00,0.0003
1878.00,0.0003
1877.00,0.0003
1876.00,0.0003
1875.00,0.0002
1874.00,0.0002
1873.00,0.0002
1872.00,0.0002
1871.00,0.0002
1870.00,0.0003
1869.00,0.0003
1868.00,0.0004
1867.00,0.0004
1866.00,0.0003
1865.00,0.0002
1864.00,0.0002
1863.00,0.0002
1862.00,0.0002
1861.00,0.0002
1860.00,0.0002
1859.00,0.0002
1858.00,0.0002
1857.00,0.0003
1856.00,0.0003
1855.00,0.0003
1854.00,0.0002
1853.00,0.0002
1852.00,0.0003
1851.00,0.0004
1850.00,0.0004
1849.00,0.0004
1848.00,0.0003
1847.00,0.0002
1846.00,0.0002
1845.00,0.0002
1844.00,0.0003
1843.00,0.0004
1842.00,0.0005
1841.00,0.0005
1840.00,0.0005
1839.00,0.0005
1838.00,0.0005
1837.00,0.0005
1836.00,0.0005
1835.00,0.0005
1834.00,0.0005
1833.00,0.0005
1832.00,0.0006
1831.00,0.0006
1830.00,0.0006
1829.00,0.0006
1828.00,0.0006
1827.00,0.0006
1826.00,0.0006
1825.00,0.0006
1824.00,0.0007
1823.00,0.0008
1822.00,0.0008
1821.00,0.0007
1820.00,0.0006
1819.00,0.0005
1818.00,0.0004
1817.00,0.0003
1816.00,0.0003
1815.00,0.0004
1814.00,0.0004
1813.00,0.0004
1812.00,0.0005
1811.00,0.0006
1810.00,0.0007
1809.00,0.0007
1808.00,0.0008
1807.00,0.0008
1806.00,0.0007
1805.00,0.0008
1804.00,0.0008
1803.00,0.0008
1802.00,0.0008
1801.00,0.0008
1800.00,0.0008
1799.00,0.0008
1798.00,0.0008
1797.00,0.0008
1796.00,0.0009
1795.00,0.0009
1794.00,0.0008
1793.00,0.0009
1792.00,0.0009
1791.00,0.0010
1790.00,0.0010
1789.00,0.0010
1788.00,0.0009
1787.00,0.0009
1786.00,0.0009
1785.00,0.0009
1784.00,0.0010
1783.00,0.0010
1782.00,0.0010
1781.00,0.0010
1780.00,0.0010
1779.00,0.0010
1778.00,0.0010
1777.00,0.0010
1776.00,0.0010
1775.00,0.0009
1774.00,0.0008
1773.00,0.0008
1772.00,0.0008
1771.00,0.0010
1770.00,0.0011
1769.00,0.0012
1768.00,0.0013
1767.00,0.0013
1766.00,0.0013
1765.00,0.0013
1764.00,0.0014
1763.00,0.0016
1762.00,0.0017
1761.00,0.0019
1760.00,0.0020
1759.00,0.0021
1758.00,0.0023
1757.00,0.0025
1756.00,0.0026
1755.00,0.0027
1754.00,0.0029
1753.00,0.0031
1752.00,0.0034
1751.00,0.0037
1750.00,0.0040
1749.00,0.0042
1748.00,0.0044
1747.00,0.0046
1746.00,0.0048
1745.00,0.0049
1744.00,0.0050
1743.00,0.0050
1742.00,0.0049
1741.00,0.0049
1740.00,0.0050
1739.00,0.0050
1738.00,0.0049
1737.00,0.0048
1736.00,0.0046
1735.00,0.0046
1734.00,0.0047
1733.00,0.0048
1732.00,0.0048
1731.00,0.0047
1730.00,0.0046
1729.00,0.0045
1728.00,0.0044
1727.00,0.0043
1726.00,0.0042
1725.00,0.0041
1724.00,0.0041
1723.00,0.0040
1722.00,0.0040
1721.00,0.0039
1720.00,0.0038
1719.00,0.0038
1718.00,0.0037
1717.00,0.0037
1716.00,0.0038
1715.00,0.0039
1714.00,0.0039
1713.00,0.0039
1712.00,0.0040
1711.00,0.0040
1710.00,0.0040
1709.00,0.0040
1708.00,0.0041
1707.00,0.0042
1706.00,0.0043
1705.00,0.0045
1704.00,0.0046
1703.00,0.0046
1702.00,0.0046
1701.00,0.0048
1700.00,0.0050
1699.00,0.0050
1698.00,0.0050
1697.00,0.0051
1696.00,0.0055
1695.00,0.0059
1694.00,0.0061
1693.00,0.0062
1692.00,0.0064
1691.00,0.0066
1690.00,0.0068
1689.00,0.0069
1688.00,0.0069
1687.00,0.0070
1686.00,0.0071
1685.00,0.0075
1684.00,0.0080
1683.00,0.0083
1682.00,0.0086
1681.00,0.0088
1680.00,0.0089
1679.00,0.0090
1678.00,0.0091
1677.00,0.0092
1676.00,0.0094
1675.00,0.0096
1674.00,0.0098
1673.00,0.0100
1672.00,0.0102
1671.00,0.0104
1670.00,0.0107
1669.00,0.0110
1668.00,0.0113
1667.00,0.0114
1666.00,0.0115
1665.00,0.0116
1664.00,0.0117
1663.00,0.0119
1662.00,0.0121
1661.00,0.0122
1660.00,0.0123
1659.00,0.0123
1658.00,0.0123
1657.00,0.0123
1656.00,0.0123
1655.00,0.0123
1654.00,0.0124
1653.00,0.0124
1652.00,0.0123
1651.00,0.0122
1650.00,0.0121
1649.00,0.0120
1648.00,0.0119
1647.00,0.0118
1646.00,0.0117
1645.00,0.0117
1644.00,0.0116
1643.00,0.0115
1642.00,0.0114
1641.00,0.0113
1640.00,0.0112
1639.00,0.0111
1638.00,0.0110
1637.00,0.0108
1636.00,0.0107
1635.00,0.0106
1634.00,0.0106
1633.00,0.0106
1632.00,0.0106
1631.00,0.0105
1630.00,0.0104
1629.00,0.0103
1628.00,0.0101
1627.00,0.0099
1626.00,0.0098
1625.00,0.0097
1624.00,0.0096
1623.00,0.0096
1622.00,0.0095
1621.00,0.0095
1620.00,0.0093
1619.00,0.0091
1618.00,0.0090
1617.00,0.0089
1616.00,0.0088
1615.00,0.0088
1614.00,0.0087
1613.00,0.0087
1612.00,0.0087
1611.00,0.0087
1610.00,0.0086
1609.00,0.0086
1608.00,0.0086
1607.00,0.0086
1606.00,0.0085
1605.00,0.0085
1604.00,0.0085
1603.00,0.0084
1602.00,0.0084
1601.00,0.0085
1600.00,0.0085
1599.00,0.0085
1598.00,0.0084
1597.00,0.0085
1596.00,0.0085
1595.00,0.0085
1594.00,0.0086
1593.00,0.0087
1592.00,0.0088
1591.00,0.0089
1590.00,0.0090
1589.00,0.0090
1588.00,0.0091
1587.00,0.0092
1586.00,0.0094
1585.00,0.0096
1584.00,0.0098
1583.00,0.0101
1582.00,0.0103
1581.00,0.0106
1580.00,0.0108
1579.00,0.0111
1578.00,0.0112
1577.00,0.0113
1576.00,0.0113
1575.00,0.0112
1574.00,0.0110
1573.00,0.0109
1572.00,0.0107
1571.00,0.0105
1570.00,0.0102
1569.00,0.0100
1568.00,0.0099
1567.00,0.0098
1566.00,0.0098
1565.00,0.0098
1564.00,0.0099
1563.00,0.0099
1562.00,0.0099
1561.00,0.0101
1560.00,0.0102
1559.00,0.0102
1558.00,0.0102
1557.00,0.0104
1556.00,0.0105
1555.00,0.0107
1554.00,0.0108
1553.00,0.0111
1552.00,0.0114
1551.00,0.0117
1550.00,0.0119
1549.00,0.0122
1548.00,0.0124
1547.00,0.0127
1546.00,0.0130
1545.00,0.0134
1544.00,0.0137
1543.00,0.0138
1542.00,0.0137
1541.00,0.0135
1540.00,0.0133
1539.00,0.0130
1538.00,0.0128
1537.00,0.0125
1536.00,0.0123
1535.00,0.0120
1534.00,0.0116
1533.00,0.0112
1532.00,0.0108
1531.00,0.0106
1530.00,0.0104
1529.00,0.0102
1528.00,0.0102
1527.00,0.0101
1526.00,0.0099
1525.00,0.0096
1524.00,0.0095
1523.00,0.0093
1522.00,0.0093
1521.00,0.0094
1520.00,0.0095
1519.00,0.0096
1518.00,0.0096
1517.00,0.0096
1516.00,0.0096
1515.00,0.0095
1514.00,0.0093
1513.00,0.0093
1512.00,0.0093
1511.00,0.0092
1510.00,0.0092
1509.00,0.0091
1508.00,0.0091
1507.00,0.0090
1506.00,0.0089
1505.00,0.0090
1504.00,0.0090
1503.00,0.0090
1502.00,0.0090
1501.00,0.0091
1500.00,0.0092
1499.00,0.0093
1498.00,0.0093
1497.00,0.0095
1496.00,0.0098
1495.00,0.0100
1494.00,0.0102
1493.00,0.0105
1492.00,0.0108
1491.00,0.0112
1490.00,0.0116
1489.00,0.0120
1488.00,0.0125
1487.00,0.0129
1486.00,0.0134
1485.00,0.0140
1484.00,0.0147
1483.00,0.0154
1482.00,0.0163
1481.00,0.0174
1480.00,0.0186
1479.00,0.0197
1478.00,0.0211
1477.00,0.0227
1476.00,0.0245
1475.00,0.0264
1474.00,0.0293
1473.00,0.0342
1472.00,0.0408
1471.00,0.0475
1470.00,0.0539
1469.00,0.0605
1468.00,0.0674
1467.00,0.0747
1466.00,0.0827
1465.00,0.0912
1464.00,0.0988
1463.00,0.1045
1462.00,0.1087
1461.00,0.1120
1460.00,0.1148
1459.00,0.1171
1458.00,0.1194
1457.00,0.1218
1456.00,0.1232
1455.00,0.1236
1454.00,0.1234
1453.00,0.1226
1452.00,0.1208
1451.00,0.1177
1450.00,0.1129
1449.00,0.1059
1448.00,0.0965
1447.00,0.0865
1446.00,0.0772
1445.00,0.0692
1444.00,0.0624
1443.00,0.0569
1442.00,0.0528
1441.00,0.0500
1440.00,0.0483
1439.00,0.0474
1438.00,0.0473
1437.00,0.0472
1436.00,0.0459
1435.00,0.0432
1434.00,0.0394
1433.00,0.0349
1432.00,0.0303
1431.00,0.0263
1430.00,0.0233
1429.00,0.0210
1428.00,0.0194
1427.00,0.0184
1426.00,0.0178
1425.00,0.0172
1424.00,0.0167
1423.00,0.0162
1422.00,0.0160
1421.00,0.0156
1420.00,0.0153
1419.00,0.0149
1418.00,0.0145
1417.00,0.0140
1416.00,0.0134
1415.00,0.0129
1414.00,0.0125
1413.00,0.0121
1412.00,0.0115
1411.00,0.0110
1410.00,0.0105
1409.00,0.0100
1408.00,0.0094
1407.00,0.0089
1406.00,0.0084
1405.00,0.0077
1404.00,0.0069
1403.00,0.0062
1402.00,0.0056
1401.00,0.0049
1400.00,0.0041
1399.00,0.0034
1398.00,0.0027
1397.00,0.0021
1396.00,0.0016
1395.00,0.0013
1394.00,0.0013
1393.00,0.0014
1392.00,0.0019
1391.00,0.0027
1390.00,0.0039
1389.00,0.0055
1388.00,0.0078
1387.00,0.0113
1386.00,0.0161
1385.00,0.0222
1384.00,0.0302
1383.00,0.0410
1382.00,0.0552
1381.00,0.0733
1380.00,0.0957
1379.00,0.1212
1378.00,0.1461
1377.00,0.1652
1376.00,0.1729
1375.00,0.1658
1374.00,0.1458
1373.00,0.1204
1372.00,0.0966
1371.00,0.0766
1370.00,0.0607
1369.00,0.0485
1368.00,0.0402
1367.00,0.0352
1366.00,0.0326
1365.00,0.0319
1364.00,0.0325
1363.00,0.0342
1362.00,0.0365
1361.00,0.0390
1360.00,0.0408
1359.00,0.0414
1358.00,0.0405
1357.00,0.0380
1356.00,0.0345
1355.00,0.0305
1354.00,0.0266
1353.00,0.0233
1352.00,0.0207
1351.00,0.0186
1350.00,0.0170
1349.00,0.0156
1348.00,0.0145
1347.00,0.0136
1346.00,0.0130
1345.00,0.0125
1344.00,0.0121
1343.00,0.0118
1342.00,0.0116
1341.00,0.0115
1340.00,0.0114
1339.00,0.0112
1338.00,0.0111
1337.00,0.0111
1336.00,0.0112
1335.00,0.0114
1334.00,0.0118
1333.00,0.0123
1332.00,0.0128
1331.00,0.0133
1330.00,0.0135
1329.00,0.0135
1328.00,0.0133
1327.00,0.0129
1326.00,0.0124
1325.00,0.0118
1324.00,0.0113
1323.00,0.0109
1322.00,0.0106
1321.00,0.0104
1320.00,0.0102
1319.00,0.0101
1318.00,0.0100
1317.00,0.0099
1316.00,0.0098
1315.00,0.0098
1314.00,0.0098
1313.00,0.0099
1312.00,0.0100
1311.00,0.0103
1310.00,0.0108
1309.00,0.0116
1308.00,0.0127
1307.00,0.0141
1306.00,0.0155
1305.00,0.0164
1304.00,0.0167
1303.00,0.0164
1302.00,0.0158
1301.00,0.0151
1300.00,0.0146
1299.00,0.0143
1298.00,0.0142
1297.00,0.0141
1296.00,0.0139
1295.00,0.0136
1294.00,0.0132
1293.00,0.0126
1292.00,0.0120
1291.00,0.0114
1290.00,0.0109
1289.00,0.0104
1288.00,0.0100
1287.00,0.0095
1286.00,0.0092
1285.00,0.0088
1284.00,0.0085
1283.00,0.0082
1282.00,0.0080
1281.00,0.0077
1280.00,0.0075
1279.00,0.0072
1278.00,0.0069
1277.00,0.0065
1276.00,0.0062
1275.00,0.0059
1274.00,0.0056
1273.00,0.0052
1272.00,0.0049
1271.00,0.0045
1270.00,0.0042
1269.00,0.0040
1268.00,0.0038
1267.00,0.0038
1266.00,0.0038
1265.00,0.0039
1264.00,0.0041
1263.00,0.0043
1262.00,0.0047
1261.00,0.0051
1260.00,0.0057
1259.00,0.0064
1258.00,0.0071
1257.00,0.0076
1256.00,0.0076
1255.00,0.0071
1254.00,0.0061
1253.00,0.0048
1252.00,0.0037
1251.00,0.0029
1250.00,0.0025
1249.00,0.0024
1248.00,0.0025
1247.00,0.0026
1246.00,0.0027
1245.00,0.0028
1244.00,0.0029
1243.00,0.0029
1242.00,0.0029
1241.00,0.0029
1240.00,0.0030
1239.00,0.0030
1238.00,0.0031
1237.00,0.0033
1236.00,0.0035
1235.00,0.0038
1234.00,0.0041
1233.00,0.0044
1232.00,0.0047
1231.00,0.0051
1230.00,0.0055
1229.00,0.0059
1228.00,0.0063
1227.00,0.0068
1226.00,0.0073
1225.00,0.0078
1224.00,0.0084
1223.00,0.0090
1222.00,0.0095
1221.00,0.0100
1220.00,0.0105
1219.00,0.0108
1218.00,0.0109
1217.00,0.0109
1216.00,0.0107
1215.00,0.0105
1214.00,0.0102
1213.00,0.0099
1212.00,0.0097
1211.00,0.0094
1210.00,0.0092
1209.00,0.0091
1208.00,0.0090
1207.00,0.0089
1206.00,0.0089
1205.00,0.0089
1204.00,0.0088
1203.00,0.0088
1202.00,0.0087
1201.00,0.0086
1200.00,0.0086
1199.00,0.0085
1198.00,0.0085
1197.00,0.0084
1196.00,0.0082
1195.00,0.0081
1194.00,0.0079
1193.00,0.0078
1192.00,0.0075
1191.00,0.0073
1190.00,0.0070
1189.00,0.0067
1188.00,0.0064
1187.00,0.0062
1186.00,0.0060
1185.00,0.0057
1184.00,0.0053
1183.00,0.0050
1182.00,0.0048
1181.00,0.0047
1180.00,0.0046
1179.00,0.0047
1178.00,0.0051
1177.00,0.0058
1176.00,0.0068
1175.00,0.0083
1174.00,0.0102
1173.00,0.0128
1172.00,0.0159
1171.00,0.0194
1170.00,0.0228
1169.00,0.0256
1168.00,0.0272
1167.00,0.0273
1166.00,0.0261
1165.00,0.0240
1164.00,0.0214
1163.00,0.0188
1162.00,0.0164
1161.00,0.0144
1160.00,0.0127
1159.00,0.0112
1158.00,0.0100
1157.00,0.0091
1156.00,0.0084
1155.00,0.0079
1154.00,0.0074
1153.00,0.0069
1152.00,0.0063
1151.00,0.0056
1150.00,0.0048
1149.00,0.0040
1148.00,0.0033
1147.00,0.0026
1146.00,0.0021
1145.00,0.0016
1144.00,0.0012
1143.00,0.0008
1142.00,0.0005
1141.00,0.0001
1140.00,-0.0003
1139.00,-0.0006
1138.00,-0.0007
1137.00,-0.0007
1136.00,-0.0005
1135.00,-0.0003
1134.00,-0.0001
1133.00,0.0000
1132.00,0.0002
1131.00,0.0004
1130.00,0.0007
1129.00,0.0010
1128.00,0.0013
1127.00,0.0018
1126.00,0.0022
1125.00,0.0026
1124.00,0.0028
1123.00,0.0031
1122.00,0.0033
1121.00,0.0037
1120.00,0.0040
1119.00,0.0044
1118.00,0.0048
1117.00,0.0051
1116.00,0.0055
1115.00,0.0059
1114.00,0.0062
1113.00,0.0066
1112.00,0.0070
1111.00,0.0074
1110.00,0.0079
1109.00,0.0085
1108.00,0.0090
1107.00,0.0096
1106.00,0.0102
1105.00,0.0108
1104.00,0.0113
1103.00,0.0116
1102.00,0.0115
1101.00,0.0110
1100.00,0.0102
1099.00,0.0092
1098.00,0.0083
1097.00,0.0074
1096.00,0.0065
1095.00,0.0056
1094.00,0.0049
1093.00,0.0042
1092.00,0.0036
1091.00,0.0029
1090.00,0.0023
1089.00,0.0018
1088.00,0.0015
1087.00,0.0012
1086.00,0.0010
1085.00,0.0008
1084.00,0.0006
1083.00,0.0004
1082.00,0.0001
1081.00,-0.0002
1080.00,-0.0005
1079.00,-0.0007
1078.00,-0.0008
1077.00,-0.0009
1076.00,-0.0010
1075.00,-0.0012
1074.00,-0.0014
1073.00,-0.0015
1072.00,-0.0015
1071.00,-0.0013
1070.00,-0.0011
1069.00,-0.0008
1068.00,-0.0004
1067.00,0.0002
1066.00,0.0007
1065.00,0.0011
1064.00,0.0014
1063.00,0.0017
1062.00,0.0020
1061.00,0.0023
1060.00,0.0025
1059.00,0.0028
1058.00,0.0032
1057.00,0.0036
1056.00,0.0040
1055.00,0.0045
1054.00,0.0050
1053.00,0.0056
1052.00,0.0061
1051.00,0.0066
1050.00,0.0073
1049.00,0.0079
1048.00,0.0085
1047.00,0.0092
1046.00,0.0098
1045.00,0.0103
1044.00,0.0105
1043.00,0.0106
1042.00,0.0105
1041.00,0.0104
1040.00,0.0104
1039.00,0.0105
1038.00,0.0106
1037.00,0.0108
1036.00,0.0110
1035.00,0.0111
1034.00,0.0111
1033.00,0.0110
1032.00,0.0108
1031.00,0.0108
1030.00,0.0108
1029.00,0.0107
1028.00,0.0107
1027.00,0.0107
1026.00,0.0106
1025.00,0.0107
1024.00,0.0107
1023.00,0.0107
1022.00,0.0108
1021.00,0.0109
1020.00,0.0110
1019.00,0.0112
1018.00,0.0113
1017.00,0.0114
1016.00,0.0116
1015.00,0.0118
1014.00,0.0122
1013.00,0.0128
1012.00,0.0133
1011.00,0.0138
1010.00,0.0142
1009.00,0.0145
1008.00,0.0148
1007.00,0.0154
1006.00,0.0164
1005.00,0.0177
1004.00,0.0195
1003.00,0.0219
1002.00,0.0253
1001.00,0.0294
1000.00,0.0340
999.00,0.0380
998.00,0.0401
997.00,0.0396
996.00,0.0366
995.00,0.0320
994.00,0.0271
993.00,0.0226
992.00,0.0191
991.00,0.0166
990.00,0.0147
989.00,0.0135
988.00,0.0127
987.00,0.0122
986.00,0.0120
985.00,0.0119
984.00,0.0121
983.00,0.0126
982.00,0.0135
981.00,0.0150
980.00,0.0169
979.00,0.0195
978.00,0.0227
977.00,0.0267
976.00,0.0311
975.00,0.0354
974.00,0.0385
973.00,0.0395
972.00,0.0375
971.00,0.0327
970.00,0.0261
969.00,0.0193
968.00,0.0134
967.00,0.0087
966.00,0.0054
965.00,0.0031
964.00,0.0015
963.00,0.0004
962.00,-0.0006
961.00,-0.0016
960.00,-0.0026
959.00,-0.0037
958.00,-0.0046
957.00,-0.0052
956.00,-0.0056
955.00,-0.0059
954.00,-0.0060
953.00,-0.0061
952.00,-0.0060
951.00,-0.0058
950.00,-0.0054
949.00,-0.0051
948.00,-0.0046
947.00,-0.0042
946.00,-0.0038
945.00,-0.0035
944.00,-0.0032
943.00,-0.0027
942.00,-0.0022
941.00,-0.0016
940.00,-0.0012
939.00,-0.0010
938.00,-0.0008
937.00,-0.0007
936.00,-0.0005
935.00,-0.0002
934.00,0.0003
933.00,0.0008
932.00,0.0012
931.00,0.0017
930.00,0.0022
929.00,0.0027
928.00,0.0032
927.00,0.0036
926.00,0.0040
925.00,0.0043
924.00,0.0047
923.00,0.0051
922.00,0.0054
921.00,0.0057
920.00,0.0059
919.00,0.0062
918.00,0.0065
917.00,0.0068
916.00,0.0070
915.00,0.0072
914.00,0.0073
913.00,0.0074
912.00,0.0074
911.00,0.0075
910.00,0.0077
909.00,0.0080
908.00,0.0084
907.00,0.0090
906.00,0.0096
905.00,0.0106
904.00,0.0118
903.00,0.0135
902.00,0.0154
901.00,0.0173
900.00,0.0187
899.00,0.0192
898.00,0.0186
897.00,0.0171
896.00,0.0152
895.00,0.0133
894.00,0.0117
893.00,0.0105
892.00,0.0096
891.00,0.0090
890.00,0.0088
889.00,0.0086
888.00,0.0086
887.00,0.0085
886.00,0.0085
885.00,0.0085
884.00,0.0085
883.00,0.0085
882.00,0.0087
881.00,0.0089
880.00,0.0090
879.00,0.0090
878.00,0.0091
877.00,0.0091
876.00,0.0091
875.00,0.0091
874.00,0.0091
873.00,0.0091
872.00,0.0091
871.00,0.0090
870.00,0.0088
869.00,0.0087
868.00,0.0086
867.00,0.0087
866.00,0.0088
865.00,0.0089
864.00,0.0089
863.00,0.0090
862.00,0.0091
861.00,0.0093
860.00,0.0095
859.00,0.0098
858.00,0.0100
857.00,0.0100
856.00,0.0099
855.00,0.0100
854.00,0.0103
853.00,0.0107
852.00,0.0111
851.00,0.0116
850.00,0.0121
849.00,0.0129
848.00,0.0140
847.00,0.0157
846.00,0.0183
845.00,0.0221
844.00,0.0273
843.00,0.0331
842.00,0.0377
841.00,0.0390
840.00,0.0365
839.00,0.0313
838.00,0.0255
837.00,0.0209
836.00,0.0177
835.00,0.0157
834.00,0.0144
833.00,0.0136
832.00,0.0130
831.00,0.0123
830.00,0.0117
829.00,0.0111
828.00,0.0108
827.00,0.0107
826.00,0.0107
825.00,0.0107
824.00,0.0106
823.00,0.0105
822.00,0.0104
821.00,0.0104
820.00,0.0104
819.00,0.0105
818.00,0.0107
817.00,0.0111
816.00,0.0117
815.00,0.0126
814.00,0.0139
813.00,0.0155
812.00,0.0173
811.00,0.0190
810.00,0.0202
809.00,0.0208
808.00,0.0207
807.00,0.0198
806.00,0.0185
805.00,0.0170
804.00,0.0155
803.00,0.0143
802.00,0.0132
801.00,0.0123
800.00,0.0117
799.00,0.0112
798.00,0.0110
797.00,0.0107
796.00,0.0105
795.00,0.0102
794.00,0.0100
793.00,0.0098
792.00,0.0097
791.00,0.0095
790.00,0.0094
789.00,0.0092
788.00,0.0090
787.00,0.0088
786.00,0.0085
785.00,0.0082
784.00,0.0080
783.00,0.0078
782.00,0.0077
781.00,0.0076
780.00,0.0076
779.00,0.0076
778.00,0.0077
777.00,0.0078
776.00,0.0079
775.00,0.0080
774.00,0.0081
773.00,0.0083
772.00,0.0085
771.00,0.0088
770.00,0.0092
769.00,0.0094
768.00,0.0094
767.00,0.0094
766.00,0.0094
765.00,0.0092
764.00,0.0090
763.00,0.0087
762.00,0.0085
761.00,0.0082
760.00,0.0079
759.00,0.0076
758.00,0.0074
757.00,0.0072
756.00,0.0069
755.00,0.0068
754.00,0.0067
753.00,0.0066
752.00,0.0067
751.00,0.0068
750.00,0.0069
749.00,0.0069
748.00,0.0069
747.00,0.0070
746.00,0.0071
745.00,0.0073
744.00,0.0073
743.00,0.0072
742.00,0.0072
741.00,0.0073
740.00,0.0075
739.00,0.0077
738.00,0.0080
737.00,0.0082
736.00,0.0084
735.00,0.0086
734.00,0.0088
733.00,0.0089
732.00,0.0089
731.00,0.0089
730.00,0.0090
729.00,0.0091
728.00,0.0091
727.00,0.0091
726.00,0.0090
725.00,0.0090
724.00,0.0089
723.00,0.0089
722.00,0.0088
721.00,0.0087
720.00,0.0085
719.00,0.0084
718.00,0.0083
717.00,0.0081
716.00,0.0079
715.00,0.0077
714.00,0.0077
713.00,0.0077
712.00,0.0077
711.00,0.0076
710.00,0.0074
709.00,0.0073
708.00,0.0073
707.00,0.0074
706.00,0.0077
705.00,0.0080
704.00,0.0081
703.00,0.0081
702.00,0.0079
701.00,0.0078
700.00,0.0077
699.00,0.0076
698.00,0.0075
697.00,0.0073
696.00,0.0072
695.00,0.0072
694.00,0.0072
693.00,0.0073
692.00,0.0072
691.00,0.0071
690.00,0.0069
689.00,0.0068
688.00,0.0068
687.00,0.0068
686.00,0.0070
685.00,0.0071
684.00,0.0071
683.00,0.0071
682.00,0.0071
681.00,0.0071
680.00,0.0071
679.00,0.0073
678.00,0.0075
677.00,0.0076
676.00,0.0075
675.00,0.0074
674.00,0.0074
673.00,0.0074
672.00,0.0074
671.00,0.0075
670.00,0.0077
669.00,0.0079
668.00,0.0079
667.00,0.0079
666.00,0.0076
665.00,0.0073
664.00,0.0072
663.00,0.0072
662.00,0.0073
661.00,0.0075
660.00,0.0076
659.00,0.0075
658.00,0.0074
657.00,0.0072
656.00,0.0070
655.00,0.0068
654.00,0.0067
653.00,0.0067
652.00,0.0069
651.00,0.0071
650.00,0.0071
649.00,0.0069
648.00,0.0066
647.00,0.0064
646.00,0.0063
645.00,0.0063
644.00,0.0064
643.00,0.0066
642.00,0.0069
641.00,0.0072
640.00,0.0073
639.00,0.0072
638.00,0.0071
637.00,0.0070
636.00,0.0070
635.00,0.0071
634.00,0.0072
633.00,0.0073
632.00,0.0074
631.00,0.0074
630.00,0.0073
629.00,0.0071
628.00,0.0070
627.00,0.0070
626.00,0.0071
625.00,0.0073
624.00,0.0074
623.00,0.0076
622.00,0.0077
621.00,0.0078
620.00,0.0077
619.00,0.0075
618.00,0.0072
617.00,0.0070
616.00,0.0070
615.00,0.0070
614.00,0.0070
613.00,0.0070
612.00,0.0071
611.00,0.0073
610.00,0.0076
609.00,0.0079
608.00,0.0081
607.00,0.0080
606.00,0.0077
605.00,0.0075
604.00,0.0074
603.00,0.0071
602.00,0.0069
601.00,0.0068
600.00,0.0070
599.00,0.0072
598.00,0.0074
597.00,0.0075
596.00,0.0074
595.00,0.0073
594.00,0.0073
593.00,0.0073
592.00,0.0072
591.00,0.0072
590.00,0.0073
589.00,0.0075
588.00,0.0075
587.00,0.0073
586.00,0.0073
585.00,0.0075
584.00,0.0079
583.00,0.0082
582.00,0.0084
581.00,0.0084
580.00,0.0083
579.00,0.0079
578.00,0.0076
577.00,0.0073
576.00,0.0072
575.00,0.0072
574.00,0.0074
573.00,0.0077
572.00,0.0079
571.00,0.0079
570.00,0.0076
569.00,0.0073
568.00,0.0071
567.00,0.0071
566.00,0.0072
565.00,0.0074
564.00,0.0077
563.00,0.0079
562.00,0.0082
561.00,0.0084
560.00,0.0085
559.00,0.0086
558.00,0.0085
557.00,0.0085
556.00,0.0083
555.00,0.0079
554.00,0.0074
553.00,0.0070
552.00,0.0069
551.00,0.0071
550.00,0.0072
549.00,0.0073
548.00,0.0075
547.00,0.0078
546.00,0.0080
545.00,0.0081
544.00,0.0080
543.00,0.0080
542.00,0.0080
541.00,0.0082
540.00,0.0086
539.00,0.0090
538.00,0.0091
537.00,0.0089
536.00,0.0086
535.00,0.0085
534.00,0.0085
533.00,0.0087
532.00,0.0089
531.00,0.0091
530.00,0.0092
529.00,0.0093
528.00,0.0094
527.00,0.0095
526.00,0.0097
525.00,0.0098
524.00,0.0099
523.00,0.0097
522.00,0.0094
521.00,0.0091
520.00,0.0089
519.00,0.0088
518.00,0.0087
517.00,0.0082
516.00,0.0078
515.00,0.0077
514.00,0.0082
513.00,0.0088
512.00,0.0091
511.00,0.0090
510.00,0.0089
509.00,0.0087
508.00,0.0085
507.00,0.0082
506.00,0.0076
505.00,0.0069
504.00,0.0062
503.00,0.0057
502.00,0.0054
501.00,0.0055
500.00,0.0056
499.00,0.0057
498.00,0.0060
497.00,0.0067
496.00,0.0076
495.00,0.0083
494.00,0.0085
493.00,0.0082
492.00,0.0079
491.00,0.0077
490.00,0.0079
489.00,0.0083
488.00,0.0084
487.00,0.0081
486.00,0.0075
485.00,0.0071
484.00,0.0069
483.00,0.0066
482.00,0.0058
481.00,0.0048
480.00,0.0041
479.00,0.0045
478.00,0.0062
477.00,0.0083
476.00,0.0100
475.00,0.0106
474.00,0.0102
473.00,0.0095
472.00,0.0087
471.00,0.0081
470.00,0.0076
469.00,0.0071
468.00,0.0072
467.00,0.0078
466.00,0.0088
465.00,0.0101
464.00,0.0117
463.00,0.0134
462.00,0.0148
461.00,0.0154
460.00,0.0156
459.00,0.0155
458.00,0.0152
457.00,0.0143
456.00,0.0130
455.00,0.0119
454.00,0.0115
453.00,0.0115
452.00,0.0117
451.00,0.0115
450.00,0.0108
