Created as New Dataset,Sample 011 By Administrator Date Friday, September 05 2025
cm-1,A
4000.00,0.0013
3999.00,0.0013
3998.00,0.0013
3997.00,0.0013
3996.00,0.0013
3995.00,0.0012
3994.00,0.0013
3993.00,0.0013
3992.00,0.0013
3991.00,0.0013
3990.00,0.0013
3989.00,0.0013
3988.00,0.0013
3987.00,0.0013
3986.00,0.0013
3985.00,0.0013
3984.00,0.0013
3983.00,0.0013
3982.00,0.0012
3981.00,0.0012
3980.00,0.0012
3979.00,0.0012
3978.00,0.0012
3977.00,0.0012
3976.00,0.0012
3975.00,0.0012
3974.00,0.0012
3973.00,0.0012
3972.00,0.0012
3971.00,0.0012
3970.00,0.0012
3969.00,0.0012
3968.00,0.0012
3967.00,0.0012
3966.00,0.0012
3965.00,0.0012
3964.00,0.0011
3963.00,0.0011
3962.00,0.0011
3961.00,0.0011
3960.00,0.0012
3959.00,0.0012
3958.00,0.0012
3957.00,0.0012
3956.00,0.0012
3955.00,0.0012
3954.00,0.0012
3953.00,0.0011
3952.00,0.0011
3951.00,0.0011
3950.00,0.0011
3949.00,0.0011
3948.00,0.0011
3947.00,0.0011
3946.00,0.0011
3945.00,0.0011
3944.00,0.0011
3943.00,0.0011
3942.00,0.0011
3941.00,0.0011
3940.00,0.0011
3939.00,0.0011
3938.00,0.0011
3937.00,0.0011
3936.00,0.0011
3935.00,0.0011
3934.00,0.0011
3933.00,0.0012
3932.00,0.0012
3931.00,0.0012
3930.00,0.0012
3929.00,0.0012
3928.00,0.0012
3927.00,0.0012
3926.00,0.0012
3925.00,0.0012
3924.00,0.0012
3923.00,0.0011
3922.00,0.0011
3921.00,0.0011
3920.00,0.0011
3919.00,0.0011
3918.00,0.0011
3917.00,0.0010
3916.00,0.0010
3915.00,0.0010
3914.00,0.0010
3913.00,0.0011
3912.00,0.0011
3911.00,0.0011
3910.00,0.0011
3909.00,0.0011
3908.00,0.0010
3907.00,0.0010
3906.00,0.0010
3905.00,0.0010
3904.00,0.0010
3903.00,0.0009
3902.00,0.0009
3901.00,0.0010
3900.00,0.0010
3899.00,0.0010
3898.00,0.0010
3897.00,0.0010
3896.00,0.0010
3895.00,0.0010
3894.00,0.0010
3893.00,0.0010
3892.00,0.0010
3891.00,0.0010
3890.00,0.0010
3889.00,0.0010
3888.00,0.0010
3887.00,0.0010
3886.00,0.0010
3885.00,0.0010
3884.00,0.0010
3883.00,0.0010
3882.00,0.0010
3881.00,0.0010
3880.00,0.0010
3879.00,0.0010
3878.00,0.0010
3877.00,0.0010
3876.00,0.0010
3875.00,0.0010
3874.00,0.0010
3873.00,0.0011
3872.00,0.0011
3871.00,0.0010
3870.00,0.0010
3869.00,0.0010
3868.00,0.0010
3867.00,0.0010
3866.00,0.0009
3865.00,0.0009
3864.00,0.0009
3863.00,0.0008
3862.00,0.0008
3861.00,0.0009
3860.00,0.0009
3859.00,0.0010
3858.00,0.0011
3857.00,0.0012
3856.00,0.0012
3855.00,0.0012
3854.00,0.0011
3853.00,0.0011
3852.00,0.0011
3851.00,0.0010
3850.00,0.0010
3849.00,0.0009
3848.00,0.0008
3847.00,0.0008
3846.00,0.0008
3845.00,0.0008
3844.00,0.0009
3843.00,0.0009
3842.00,0.0009
3841.00,0.0009
3840.00,0.0009
3839.00,0.0009
3838.00,0.0010
3837.00,0.0010
3836.00,0.0010
3835.00,0.0009
3834.00,0.0009
3833.00,0.0009
3832.00,0.0009
3831.00,0.0009
3830.00,0.0009
3829.00,0.0008
3828.00,0.0008
3827.00,0.0008
3826.00,0.0008
3825.00,0.0008
3824.00,0.0008
3823.00,0.0007
3822.00,0.0007
3821.00,0.0008
3820.00,0.0009
3819.00,0.0009
3818.00,0.0009
3817.00,0.0008
3816.00,0.0008
3815.00,0.0009
3814.00,0.0009
3813.00,0.0009
3812.00,0.0009
3811.00,0.0010
3810.00,0.0010
3809.00,0.0010
3808.00,0.0010
3807.00,0.0010
3806.00,0.0009
3805.00,0.0009
3804.00,0.0008
3803.00,0.0008
3802.00,0.0008
3801.00,0.0008
3800.00,0.0008
3799.00,0.0008
3798.00,0.0008
3797.00,0.0009
3796.00,0.0009
3795.00,0.0010
3794.00,0.0010
3793.00,0.0010
3792.00,0.0010
3791.00,0.0010
3790.00,0.0010
3789.00,0.0010
3788.00,0.0010
3787.00,0.0010
3786.00,0.0010
3785.00,0.0009
3784.00,0.0010
3783.00,0.0010
3782.00,0.0010
3781.00,0.0009
3780.00,0.0009
3779.00,0.0009
3778.00,0.0010
3777.00,0.0010
3776.00,0.0010
3775.00,0.0010
3774.00,0.0010
3773.00,0.0010
3772.00,0.0010
3771.00,0.0011
3770.00,0.0011
3769.00,0.0011
3768.00,0.0011
3767.00,0.0011
3766.00,0.0011
3765.00,0.0011
3764.00,0.0011
3763.00,0.0010
3762.00,0.0010
3761.00,0.0011
3760.00,0.0011
3759.00,0.0011
3758.00,0.0011
3757.00,0.0011
3756.00,0.0010
3755.00,0.0010
3754.00,0.0009
3753.00,0.0009
3752.00,0.0009
3751.00,0.0009
3750.00,0.0009
3749.00,0.0009
3748.00,0.0009
3747.00,0.0009
3746.00,0.0009
3745.00,0.0009
3744.00,0.0009
3743.00,0.0009
3742.00,0.0008
3741.00,0.0007
3740.00,0.0007
3739.00,0.0007
3738.00,0.0007
3737.00,0.0007
3736.00,0.0007
3735.00,0.0007
3734.00,0.0007
3733.00,0.0007
3732.00,0.0007
3731.00,0.0007
3730.00,0.0007
3729.00,0.0007
3728.00,0.0007
3727.00,0.0007
3726.00,0.0007
3725.00,0.0008
3724.00,0.0008
3723.00,0.0007
3722.00,0.0008
3721.00,0.0008
3720.00,0.0008
3719.00,0.0008
3718.00,0.0008
3717.00,0.0008
3716.00,0.0008
3715.00,0.0008
3714.00,0.0008
3713.00,0.0008
3712.00,0.0009
3711.00,0.0008
3710.00,0.0008
3709.00,0.0008
3708.00,0.0007
3707.00,0.0007
3706.00,0.0007
3705.00,0.0008
3704.00,0.0007
3703.00,0.0007
3702.00,0.0007
3701.00,0.0007
3700.00,0.0007
3699.00,0.0007
3698.00,0.0007
3697.00,0.0007
3696.00,0.0007
3695.00,0.0007
3694.00,0.0007
3693.00,0.0006
3692.00,0.0006
3691.00,0.0006
3690.00,0.0005
3689.00,0.0004
3688.00,0.0003
3687.00,0.0002
3686.00,0.0000
3685.00,-0.0002
3684.00,-0.0003
3683.00,-0.0004
3682.00,-0.0005
3681.00,-0.0007
3680.00,-0.0008
3679.00,-0.0010
3678.00,-0.0012
3677.00,-0.0014
3676.00,-0.0016
3675.00,-0.0017
3674.00,-0.0018
3673.00,-0.0019
3672.00,-0.0021
3671.00,-0.0022
3670.00,-0.0022
3669.00,-0.0022
3668.00,-0.0023
3667.00,-0.0023
3666.00,-0.0024
3665.00,-0.0025
3664.00,-0.0025
3663.00,-0.0026
3662.00,-0.0027
3661.00,-0.0027
3660.00,-0.0028
3659.00,-0.0028
3658.00,-0.0028
3657.00,-0.0027
3656.00,-0.0026
3655.00,-0.0026
3654.00,-0.0026
3653.00,-0.0026
3652.00,-0.0025
3651.00,-0.0024
3650.00,-0.0024
3649.00,-0.0024
3648.00,-0.0023
3647.00,-0.0023
3646.00,-0.0022
3645.00,-0.0020
3644.00,-0.0018
3643.00,-0.0016
3642.00,-0.0015
3641.00,-0.0014
3640.00,-0.0014
3639.00,-0.0014
3638.00,-0.0014
3637.00,-0.0013
3636.00,-0.0011
3635.00,-0.0008
3634.00,-0.0005
3633.00,-0.0002
3632.00,-0.0001
3631.00,-0.0000
3630.00,0.0000
3629.00,0.0001
3628.00,0.0002
3627.00,0.0003
3626.00,0.0003
3625.00,0.0004
3624.00,0.0004
3623.00,0.0005
3622.00,0.0005
3621.00,0.0006
3620.00,0.0006
3619.00,0.0006
3618.00,0.0006
3617.00,0.0007
3616.00,0.0007
3615.00,0.0007
3614.00,0.0008
3613.00,0.0009
3612.00,0.0009
3611.00,0.0010
3610.00,0.0011
3609.00,0.0012
3608.00,0.0012
3607.00,0.0012
3606.00,0.0012
3605.00,0.0012
3604.00,0.0013
3603.00,0.0014
3602.00,0.0014
3601.00,0.0015
3600.00,0.0015
3599.00,0.0015
3598.00,0.0015
3597.00,0.0015
3596.00,0.0016
3595.00,0.0016
3594.00,0.0016
3593.00,0.0016
3592.00,0.0016
3591.00,0.0016
3590.00,0.0016
3589.00,0.0017
3588.00,0.0017
3587.00,0.0017
3586.00,0.0017
3585.00,0.0017
3584.00,0.0018
3583.00,0.0018
3582.00,0.0018
3581.00,0.0018
3580.00,0.0018
3579.00,0.0018
3578.00,0.0018
3577.00,0.0019
3576.00,0.0019
3575.00,0.0019
3574.00,0.0020
3573.00,0.0020
3572.00,0.0021
3571.00,0.0021
3570.00,0.0021
3569.00,0.0021
3568.00,0.0021
3567.00,0.0021
3566.00,0.0021
3565.00,0.0021
3564.00,0.0021
3563.00,0.0021
3562.00,0.0022
3561.00,0.0023
3560.00,0.0023
3559.00,0.0024
3558.00,0.0024
3557.00,0.0025
3556.00,0.0025
3555.00,0.0025
3554.00,0.0025
3553.00,0.0025
3552.00,0.0025
3551.00,0.0026
3550.00,0.0026
3549.00,0.0027
3548.00,0.0027
3547.00,0.0028
3546.00,0.0027
3545.00,0.0027
3544.00,0.0027
3543.00,0.0027
3542.00,0.0027
3541.00,0.0028
3540.00,0.0028
3539.00,0.0029
3538.00,0.0029
3537.00,0.0029
3536.00,0.0029
3535.00,0.0029
3534.00,0.0029
3533.00,0.0029
3532.00,0.0029
3531.00,0.0030
3530.00,0.0030
3529.00,0.0031
3528.00,0.0031
3527.00,0.0031
3526.00,0.0032
3525.00,0.0032
3524.00,0.0032
3523.00,0.0033
3522.00,0.0033
3521.00,0.0033
3520.00,0.0034
3519.00,0.0034
3518.00,0.0034
3517.00,0.0034
3516.00,0.0034
3515.00,0.0034
3514.00,0.0034
3513.00,0.0035
3512.00,0.0035
3511.00,0.0036
3510.00,0.0036
3509.00,0.0036
3508.00,0.0037
3507.00,0.0038
3506.00,0.0038
3505.00,0.0038
3504.00,0.0038
3503.00,0.0038
3502.00,0.0038
3501.00,0.0038
3500.00,0.0038
3499.00,0.0038
3498.00,0.0039
3497.00,0.0039
3496.00,0.0040
3495.00,0.0040
3494.00,0.0040
3493.00,0.0040
3492.00,0.0040
3491.00,0.0040
3490.00,0.0040
3489.00,0.0041
3488.00,0.0041
3487.00,0.0042
3486.00,0.0042
3485.00,0.0042
3484.00,0.0042
3483.00,0.0042
3482.00,0.0042
3481.00,0.0042
3480.00,0.0042
3479.00,0.0042
3478.00,0.0042
3477.00,0.0043
3476.00,0.0043
3475.00,0.0044
3474.00,0.0044
3473.00,0.0044
3472.00,0.0045
3471.00,0.0045
3470.00,0.0045
3469.00,0.0045
3468.00,0.0045
3467.00,0.0045
3466.00,0.0045
3465.00,0.0045
3464.00,0.0046
3463.00,0.0046
3462.00,0.0046
3461.00,0.0047
3460.00,0.0047
3459.00,0.0047
3458.00,0.0047
3457.00,0.0047
3456.00,0.0047
3455.00,0.0047
3454.00,0.0048
3453.00,0.0048
3452.00,0.0048
3451.00,0.0049
3450.00,0.0049
3449.00,0.0050
3448.00,0.0050
3447.00,0.0051
3446.00,0.0051
3445.00,0.0051
3444.00,0.0051
3443.00,0.0051
3442.00,0.0051
3441.00,0.0051
3440.00,0.0052
3439.00,0.0052
3438.00,0.0052
3437.00,0.0052
3436.00,0.0053
3435.00,0.0053
3434.00,0.0053
3433.00,0.0054
3432.00,0.0054
3431.00,0.0055
3430.00,0.0055
3429.00,0.0055
3428.00,0.0055
3427.00,0.0055
3426.00,0.0055
3425.00,0.0056
3424.00,0.0056
3423.00,0.0057
3422.00,0.0057
3421.00,0.0057
3420.00,0.0057
3419.00,0.0057
3418.00,0.0057
3417.00,0.0058
3416.00,0.0058
3415.00,0.0058
3414.00,0.0059
3413.00,0.0059
3412.00,0.0060
3411.00,0.0060
3410.00,0.0060
3409.00,0.0061
3408.00,0.0061
3407.00,0.0061
3406.00,0.0061
3405.00,0.0061
3404.00,0.0062
3403.00,0.0062
3402.00,0.0062
3401.00,0.0061
3400.00,0.0061
3399.00,0.0062
3398.00,0.0062
3397.00,0.0063
3396.00,0.0063
3395.00,0.0064
3394.00,0.0064
3393.00,0.0064
3392.00,0.0064
3391.00,0.0064
3390.00,0.0064
3389.00,0.0064
3388.00,0.0064
3387.00,0.0065
3386.00,0.0065
3385.00,0.0066
3384.00,0.0066
3383.00,0.0066
3382.00,0.0067
3381.00,0.0067
3380.00,0.0067
3379.00,0.0068
3378.00,0.0068
3377.00,0.0068
3376.00,0.0068
3375.00,0.0068
3374.00,0.0068
3373.00,0.0068
3372.00,0.0068
3371.00,0.0068
3370.00,0.0068
3369.00,0.0068
3368.00,0.0068
3367.00,0.0068
3366.00,0.0069
3365.00,0.0069
3364.00,0.0069
3363.00,0.0070
3362.00,0.0070
3361.00,0.0071
3360.00,0.0071
3359.00,0.0071
3358.00,0.0071
3357.00,0.0071
3356.00,0.0071
3355.00,0.0071
3354.00,0.0071
3353.00,0.0072
3352.00,0.0072
3351.00,0.0072
3350.00,0.0072
3349.00,0.0072
3348.00,0.0072
3347.00,0.0072
3346.00,0.0072
3345.00,0.0073
3344.00,0.0073
3343.00,0.0073
3342.00,0.0074
3341.00,0.0074
3340.00,0.0074
3339.00,0.0074
3338.00,0.0074
3337.00,0.0075
3336.00,0.0075
3335.00,0.0075
3334.00,0.0075
3333.00,0.0075
3332.00,0.0075
3331.00,0.0075
3330.00,0.0075
3329.00,0.0075
3328.00,0.0075
3327.00,0.0075
3326.00,0.0075
3325.00,0.0075
3324.00,0.0075
3323.00,0.0075
3322.00,0.0075
3321.00,0.0075
3320.00,0.0075
3319.00,0.0076
3318.00,0.0076
3317.00,0.0076
3316.00,0.0076
3315.00,0.0076
3314.00,0.0076
3313.00,0.0076
3312.00,0.0076
3311.00,0.0076
3310.00,0.0076
3309.00,0.0076
3308.00,0.0077
3307.00,0.0077
3306.00,0.0077
3305.00,0.0077
3304.00,0.0077
3303.00,0.0076
3302.00,0.0077
3301.00,0.0077
3300.00,0.0077
3299.00,0.0077
3298.00,0.0077
3297.00,0.0077
3296.00,0.0077
3295.00,0.0077
3294.00,0.0077
3293.00,0.0076
3292.00,0.0076
3291.00,0.0076
3290.00,0.0076
3289.00,0.0076
3288.00,0.0076
3287.00,0.0076
3286.00,0.0076
3285.00,0.0076
3284.00,0.0076
3283.00,0.0076
3282.00,0.0076
3281.00,0.0075
3280.00,0.0075
3279.00,0.0075
3278.00,0.0074
3277.00,0.0074
3276.00,0.0073
3275.00,0.0073
3274.00,0.0073
3273.00,0.0072
3272.00,0.0072
3271.00,0.0072
3270.00,0.0072
3269.00,0.0072
3268.00,0.0072
3267.00,0.0072
3266.00,0.0071
3265.00,0.0071
3264.00,0.0071
3263.00,0.0071
3262.00,0.0070
3261.00,0.0070
3260.00,0.0069
3259.00,0.0069
3258.00,0.0068
3257.00,0.0068
3256.00,0.0067
3255.00,0.0067
3254.00,0.0067
3253.00,0.0066
3252.00,0.0066
3251.00,0.0065
3250.00,0.0065
3249.00,0.0065
3248.00,0.0065
3247.00,0.0064
3246.00,0.0064
3245.00,0.0064
3244.00,0.0064
3243.00,0.0063
3242.00,0.0063
3241.00,0.0063
3240.00,0.0063
3239.00,0.0062
3238.00,0.0062
3237.00,0.0062
3236.00,0.0062
3235.00,0.0062
3234.00,0.0062
3233.00,0.0062
3232.00,0.0062
3231.00,0.0062
3230.00,0.0061
3229.00,0.0062
3228.00,0.0062
3227.00,0.0062
3226.00,0.0062
3225.00,0.0062
3224.00,0.0063
3223.00,0.0063
3222.00,0.0063
3221.00,0.0063
3220.00,0.0063
3219.00,0.0063
3218.00,0.0063
3217.00,0.0063
3216.00,0.0062
3215.00,0.0062
3214.00,0.0062
3213.00,0.0062
3212.00,0.0062
3211.00,0.0062
3210.00,0.0062
3209.00,0.0062
3208.00,0.0062
3207.00,0.0062
3206.00,0.0063
3205.00,0.0063
3204.00,0.0063
3203.00,0.0063
3202.00,0.0063
3201.00,0.0063
3200.00,0.0063
3199.00,0.0063
3198.00,0.0063
3197.00,0.0063
3196.00,0.0063
3195.00,0.0063
3194.00,0.0062
3193.00,0.0062
3192.00,0.0062
3191.00,0.0061
3190.00,0.0061
3189.00,0.0061
3188.00,0.0060
3187.00,0.0060
3186.00,0.0060
3185.00,0.0060
3184.00,0.0059
3183.00,0.0059
3182.00,0.0059
3181.00,0.0059
3180.00,0.0059
3179.00,0.0059
3178.00,0.0059
3177.00,0.0058
3176.00,0.0058
3175.00,0.0057
3174.00,0.0057
3173.00,0.0057
3172.00,0.0057
3171.00,0.0057
3170.00,0.0057
3169.00,0.0056
3168.00,0.0056
3167.00,0.0056
3166.00,0.0056
3165.00,0.0056
3164.00,0.0056
3163.00,0.0056
3162.00,0.0056
3161.00,0.0056
3160.00,0.0056
3159.00,0.0056
3158.00,0.0056
3157.00,0.0056
3156.00,0.0057
3155.00,0.0056
3154.00,0.0056
3153.00,0.0056
3152.00,0.0055
3151.00,0.0055
3150.00,0.0055
3149.00,0.0055
3148.00,0.0055
3147.00,0.0054
3146.00,0.0054
3145.00,0.0053
3144.00,0.0053
3143.00,0.0053
3142.00,0.0053
3141.00,0.0053
3140.00,0.0053
3139.00,0.0053
3138.00,0.0053
3137.00,0.0053
3136.00,0.0052
3135.00,0.0052
3134.00,0.0052
3133.00,0.0051
3132.00,0.0051
3131.00,0.0051
3130.00,0.0051
3129.00,0.0050
3128.00,0.0050
3127.00,0.0050
3126.00,0.0050
3125.00,0.0050
3124.00,0.0049
3123.00,0.0048
3122.00,0.0048
3121.00,0.0047
3120.00,0.0047
3119.00,0.0047
3118.00,0.0047
3117.00,0.0047
3116.00,0.0046
3115.00,0.0046
3114.00,0.0046
3113.00,0.0046
3112.00,0.0046
3111.00,0.0046
3110.00,0.0046
3109.00,0.0046
3108.00,0.0046
3107.00,0.0046
3106.00,0.0046
3105.00,0.0046
3104.00,0.0046
3103.00,0.0046
3102.00,0.0046
3101.00,0.0045
3100.00,0.0045
3099.00,0.0045
3098.00,0.0045
3097.00,0.0045
3096.00,0.0045
3095.00,0.0045
3094.00,0.0045
3093.00,0.0045
3092.00,0.0045
3091.00,0.0045
3090.00,0.0045
3089.00,0.0045
3088.00,0.0044
3087.00,0.0044
3086.00,0.0044
3085.00,0.0044
3084.00,0.0044
3083.00,0.0044
3082.00,0.0044
3081.00,0.0043
3080.00,0.0043
3079.00,0.0043
3078.00,0.0044
3077.00,0.0044
3076.00,0.0045
3075.00,0.0045
3074.00,0.0046
3073.00,0.0046
3072.00,0.0046
3071.00,0.0046
3070.00,0.0046
3069.00,0.0046
3068.00,0.0046
3067.00,0.0046
3066.00,0.0046
3065.00,0.0047
3064.00,0.0047
3063.00,0.0047
3062.00,0.0047
3061.00,0.0047
3060.00,0.0048
3059.00,0.0048
3058.00,0.0048
3057.00,0.0048
3056.00,0.0048
3055.00,0.0048
3054.00,0.0048
3053.00,0.0048
3052.00,0.0048
3051.00,0.0048
3050.00,0.0048
3049.00,0.0048
3048.00,0.0049
3047.00,0.0049
3046.00,0.0050
3045.00,0.0050
3044.00,0.0050
3043.00,0.0050
3042.00,0.0050
3041.00,0.0050
3040.00,0.0051
3039.00,0.0051
3038.00,0.0051
3037.00,0.0051
3036.00,0.0051
3035.00,0.0051
3034.00,0.0051
3033.00,0.0051
3032.00,0.0051
3031.00,0.0051
3030.00,0.0051
3029.00,0.0051
3028.00,0.0051
3027.00,0.0051
3026.00,0.0051
3025.00,0.0052
3024.00,0.0052
3023.00,0.0051
3022.00,0.0051
3021.00,0.0050
3020.00,0.0049
3019.00,0.0047
3018.00,0.0046
3017.00,0.0044
3016.00,0.0042
3015.00,0.0040
3014.00,0.0036
3013.00,0.0032
3012.00,0.0028
3011.00,0.0022
3010.00,0.0017
3009.00,0.0010
3008.00,0.0003
3007.00,-0.0005
3006.00,-0.0013
3005.00,-0.0022
3004.00,-0.0030
3003.00,-0.0038
3002.00,-0.0046
3001.00,-0.0054
3000.00,-0.0061
2999.00,-0.0066
2998.00,-0.0071
2997.00,-0.0074
2996.00,-0.0077
2995.00,-0.0078
2994.00,-0.0079
2993.00,-0.0080
2992.00,-0.0080
2991.00,-0.0079
2990.00,-0.0077
2989.00,-0.0076
2988.00,-0.0074
2987.00,-0.0076
2986.00,-0.0083
2985.00,-0.0096
2984.00,-0.0115
2983.00,-0.0131
2982.00,-0.0135
2981.00,-0.0121
2980.00,-0.0092
2979.00,-0.0052
2978.00,-0.0009
2977.00,0.0035
2976.00,0.0077
2975.00,0.0119
2974.00,0.0160
2973.00,0.0206
2972.00,0.0260
2971.00,0.0327
2970.00,0.0408
2969.00,0.0498
2968.00,0.0593
2967.00,0.0693
2966.00,0.0795
2965.00,0.0898
2964.00,0.0999
2963.00,0.1093
2962.00,0.1176
2961.00,0.1244
2960.00,0.1297
2959.00,0.1339
2958.00,0.1377
2957.00,0.1416
2956.00,0.1464
2955.00,0.1524
2954.00,0.1596
2953.00,0.1674
2952.00,0.1748
2951.00,0.1807
2950.00,0.1839
2949.00,0.1833
2948.00,0.1786
2947.00,0.1700
2946.00,0.1586
2945.00,0.1458
2944.00,0.1330
2943.00,0.1215
2942.00,0.1122
2941.00,0.1053
2940.00,0.1009
2939.00,0.0989
2938.00,0.0990
2937.00,0.1010
2936.00,0.1047
2935.00,0.1098
2934.00,0.1164
2933.00,0.1242
2932.00,0.1332
2931.00,0.1432
2930.00,0.1540
2929.00,0.1652
2928.00,0.1765
2927.00,0.1875
2926.00,0.1980
2925.00,0.2081
2924.00,0.2178
2923.00,0.2273
2922.00,0.2367
2921.00,0.2457
2920.00,0.2537
2919.00,0.2598
2918.00,0.2632
2917.00,0.2631
2916.00,0.2593
2915.00,0.2522
2914.00,0.2428
2913.00,0.2323
2912.00,0.2216
2911.00,0.2115
2910.00,0.2023
2909.00,0.1940
2908.00,0.1864
2907.00,0.1791
2906.00,0.1720
2905.00,0.1648
2904.00,0.1576
2903.00,0.1503
2902.00,0.1431
2901.00,0.1360
2900.00,0.1292
2899.00,0.1227
2898.00,0.1168
2897.00,0.1114
2896.00,0.1066
2895.00,0.1024
2894.00,0.0989
2893.00,0.0962
2892.00,0.0941
2891.00,0.0927
2890.00,0.0920
2889.00,0.0919
2888.00,0.0922
2887.00,0.0929
2886.00,0.0939
2885.00,0.0952
2884.00,0.0971
2883.00,0.0996
2882.00,0.1027
2881.00,0.1061
2880.00,0.1094
2879.00,0.1122
2878.00,0.1141
2877.00,0.1149
2876.00,0.1148
2875.00,0.1142
2874.00,0.1138
2873.00,0.1138
2872.00,0.1146
2871.00,0.1162
2870.00,0.1185
2869.00,0.1209
2868.00,0.1227
2867.00,0.1231
2866.00,0.1212
2865.00,0.1167
2864.00,0.1099
2863.00,0.1014
2862.00,0.0924
2861.00,0.0839
2860.00,0.0766
2859.00,0.0707
2858.00,0.0663
2857.00,0.0631
2856.00,0.0611
2855.00,0.0599
2854.00,0.0596
2853.00,0.0599
2852.00,0.0609
2851.00,0.0624
2850.00,0.0645
2849.00,0.0671
2848.00,0.0703
2847.00,0.0741
2846.00,0.0788
2845.00,0.0844
2844.00,0.0908
2843.00,0.0978
2842.00,0.1051
2841.00,0.1118
2840.00,0.1173
2839.00,0.1207
2838.00,0.1212
2837.00,0.1184
2836.00,0.1122
2835.00,0.1034
2834.00,0.0930
2833.00,0.0821
2832.00,0.0718
2831.00,0.0626
2830.00,0.0549
2829.00,0.0486
2828.00,0.0435
2827.00,0.0394
2826.00,0.0360
2825.00,0.0332
2824.00,0.0309
2823.00,0.0289
2822.00,0.0272
2821.00,0.0258
2820.00,0.0245
2819.00,0.0234
2818.00,0.0224
2817.00,0.0216
2816.00,0.0208
2815.00,0.0202
2814.00,0.0196
2813.00,0.0191
2812.00,0.0186
2811.00,0.0181
2810.00,0.0176
2809.00,0.0171
2808.00,0.0165
2807.00,0.0158
2806.00,0.0152
2805.00,0.0145
2804.00,0.0138
2803.00,0.0132
2802.00,0.0127
2801.00,0.0123
2800.00,0.0119
2799.00,0.0116
2798.00,0.0113
2797.00,0.0111
2796.00,0.0108
2795.00,0.0106
2794.00,0.0104
2793.00,0.0101
2792.00,0.0098
2791.00,0.0095
2790.00,0.0092
2789.00,0.0089
2788.00,0.0086
2787.00,0.0083
2786.00,0.0080
2785.00,0.0078
2784.00,0.0075
2783.00,0.0073
2782.00,0.0072
2781.00,0.0070
2780.00,0.0068
2779.00,0.0067
2778.00,0.0065
2777.00,0.0063
2776.00,0.0062
2775.00,0.0062
2774.00,0.0061
2773.00,0.0060
2772.00,0.0060
2771.00,0.0059
2770.00,0.0059
2769.00,0.0058
2768.00,0.0058
2767.00,0.0057
2766.00,0.0057
2765.00,0.0057
2764.00,0.0056
2763.00,0.0056
2762.00,0.0056
2761.00,0.0056
2760.00,0.0056
2759.00,0.0055
2758.00,0.0055
2757.00,0.0054
2756.00,0.0054
2755.00,0.0054
2754.00,0.0054
2753.00,0.0054
2752.00,0.0054
2751.00,0.0054
2750.00,0.0055
2749.00,0.0055
2748.00,0.0055
2747.00,0.0055
2746.00,0.0055
2745.00,0.0056
2744.00,0.0056
2743.00,0.0057
2742.00,0.0058
2741.00,0.0059
2740.00,0.0060
2739.00,0.0061
2738.00,0.0063
2737.00,0.0064
2736.00,0.0066
2735.00,0.0068
2734.00,0.0070
2733.00,0.0071
2732.00,0.0073
2731.00,0.0075
2730.00,0.0077
2729.00,0.0079
2728.00,0.0082
2727.00,0.0085
2726.00,0.0088
2725.00,0.0090
2724.00,0.0091
2723.00,0.0092
2722.00,0.0091
2721.00,0.0089
2720.00,0.0087
2719.00,0.0084
2718.00,0.0081
2717.00,0.0077
2716.00,0.0074
2715.00,0.0071
2714.00,0.0069
2713.00,0.0066
2712.00,0.0064
2711.00,0.0062
2710.00,0.0061
2709.00,0.0059
2708.00,0.0057
2707.00,0.0056
2706.00,0.0055
2705.00,0.0055
2704.00,0.0054
2703.00,0.0053
2702.00,0.0052
2701.00,0.0051
2700.00,0.0050
2699.00,0.0049
2698.00,0.0049
2697.00,0.0048
2696.00,0.0048
2695.00,0.0048
2694.00,0.0047
2693.00,0.0047
2692.00,0.0047
2691.00,0.0048
2690.00,0.0048
2689.00,0.0048
2688.00,0.0048
2687.00,0.0048
2686.00,0.0048
2685.00,0.0047
2684.00,0.0047
2683.00,0.0047
2682.00,0.0048
2681.00,0.0048
2680.00,0.0048
2679.00,0.0048
2678.00,0.0048
2677.00,0.0048
2676.00,0.0048
2675.00,0.0047
2674.00,0.0047
2673.00,0.0046
2672.00,0.0046
2671.00,0.0045
2670.00,0.0045
2669.00,0.0045
2668.00,0.0045
2667.00,0.0045
2666.00,0.0045
2665.00,0.0046
2664.00,0.0046
2663.00,0.0047
2662.00,0.0048
2661.00,0.0048
2660.00,0.0048
2659.00,0.0048
2658.00,0.0048
2657.00,0.0048
2656.00,0.0048
2655.00,0.0047
2654.00,0.0046
2653.00,0.0046
2652.00,0.0045
2651.00,0.0045
2650.00,0.0044
2649.00,0.0044
2648.00,0.0044
2647.00,0.0044
2646.00,0.0043
2645.00,0.0043
2644.00,0.0042
2643.00,0.0042
2642.00,0.0041
2641.00,0.0041
2640.00,0.0040
2639.00,0.0040
2638.00,0.0040
2637.00,0.0040
2636.00,0.0040
2635.00,0.0040
2634.00,0.0040
2633.00,0.0040
2632.00,0.0040
2631.00,0.0040
2630.00,0.0041
2629.00,0.0041
2628.00,0.0042
2627.00,0.0042
2626.00,0.0042
2625.00,0.0042
2624.00,0.0043
2623.00,0.0043
2622.00,0.0043
2621.00,0.0044
2620.00,0.0044
2619.00,0.0043
2618.00,0.0043
2617.00,0.0043
2616.00,0.0043
2615.00,0.0044
2614.00,0.0044
2613.00,0.0044
2612.00,0.0043
2611.00,0.0043
2610.00,0.0042
2609.00,0.0041
2608.00,0.0040
2607.00,0.0039
2606.00,0.0038
2605.00,0.0038
2604.00,0.0038
2603.00,0.0037
2602.00,0.0037
2601.00,0.0037
2600.00,0.0036
2599.00,0.0036
2598.00,0.0037
2597.00,0.0037
2596.00,0.0037
2595.00,0.0038
2594.00,0.0038
2593.00,0.0038
2592.00,0.0039
2591.00,0.0039
2590.00,0.0039
2589.00,0.0040
2588.00,0.0040
2587.00,0.0041
2586.00,0.0042
2585.00,0.0043
2584.00,0.0044
2583.00,0.0045
2582.00,0.0045
2581.00,0.0045
2580.00,0.0044
2579.00,0.0043
2578.00,0.0042
2577.00,0.0041
2576.00,0.0039
2575.00,0.0038
2574.00,0.0037
2573.00,0.0036
2572.00,0.0035
2571.00,0.0034
2570.00,0.0033
2569.00,0.0032
2568.00,0.0032
2567.00,0.0032
2566.00,0.0032
2565.00,0.0032
2564.00,0.0031
2563.00,0.0031
2562.00,0.0030
2561.00,0.0029
2560.00,0.0029
2559.00,0.0029
2558.00,0.0029
2557.00,0.0029
2556.00,0.0029
2555.00,0.0028
2554.00,0.0027
2553.00,0.0026
2552.00,0.0026
2551.00,0.0025
2550.00,0.0025
2549.00,0.0025
2548.00,0.0025
2547.00,0.0024
2546.00,0.0023
2545.00,0.0023
2544.00,0.0022
2543.00,0.0022
2542.00,0.0022
2541.00,0.0022
2540.00,0.0022
2539.00,0.0022
2538.00,0.0021
2537.00,0.0021
2536.00,0.0021
2535.00,0.0021
2534.00,0.0022
2533.00,0.0022
2532.00,0.0022
2531.00,0.0021
2530.00,0.0021
2529.00,0.0020
2528.00,0.0020
2527.00,0.0020
2526.00,0.0020
2525.00,0.0020
2524.00,0.0019
2523.00,0.0019
2522.00,0.0018
2521.00,0.0017
2520.00,0.0016
2519.00,0.0016
2518.00,0.0016
2517.00,0.0016
2516.00,0.0016
2515.00,0.0016
2514.00,0.0016
2513.00,0.0015
2512.00,0.0015
2511.00,0.0015
2510.00,0.0014
2509.00,0.0014
2508.00,0.0014
2507.00,0.0014
2506.00,0.0014
2505.00,0.0014
2504.00,0.0014
2503.00,0.0015
2502.00,0.0015
2501.00,0.0015
2500.00,0.0015
2499.00,0.0015
2498.00,0.0015
2497.00,0.0015
2496.00,0.0015
2495.00,0.0015
2494.00,0.0015
2493.00,0.0015
2492.00,0.0014
2491.00,0.0015
2490.00,0.0015
2489.00,0.0015
2488.00,0.0015
2487.00,0.0015
2486.00,0.0015
2485.00,0.0015
2484.00,0.0015
2483.00,0.0015
2482.00,0.0015
2481.00,0.0014
2480.00,0.0014
2479.00,0.0014
2478.00,0.0014
2477.00,0.0014
2476.00,0.0014
2475.00,0.0014
2474.00,0.0013
2473.00,0.0013
2472.00,0.0013
2471.00,0.0013
2470.00,0.0013
2469.00,0.0014
2468.00,0.0014
2467.00,0.0014
2466.00,0.0014
2465.00,0.0015
2464.00,0.0015
2463.00,0.0014
2462.00,0.0014
2461.00,0.0014
2460.00,0.0015
2459.00,0.0015
2458.00,0.0015
2457.00,0.0015
2456.00,0.0015
2455.00,0.0015
2454.00,0.0015
2453.00,0.0015
2452.00,0.0014
2451.00,0.0014
2450.00,0.0015
2449.00,0.0015
2448.00,0.0015
2447.00,0.0015
2446.00,0.0015
2445.00,0.0015
2444.00,0.0015
2443.00,0.0015
2442.00,0.0015
2441.00,0.0015
2440.00,0.0015
2439.00,0.0015
2438.00,0.0016
2437.00,0.0016
2436.00,0.0016
2435.00,0.0017
2434.00,0.0017
2433.00,0.0017
2432.00,0.0017
2431.00,0.0017
2430.00,0.0017
2429.00,0.0018
2428.00,0.0018
2427.00,0.0018
2426.00,0.0018
2425.00,0.0017
2424.00,0.0017
2423.00,0.0017
2422.00,0.0017
2421.00,0.0016
2420.00,0.0016
2419.00,0.0015
2418.00,0.0015
2417.00,0.0015
2416.00,0.0015
2415.00,0.0015
2414.00,0.0015
2413.00,0.0015
2412.00,0.0015
2411.00,0.0014
2410.00,0.0014
2409.00,0.0015
2408.00,0.0015
2407.00,0.0015
2406.00,0.0014
2405.00,0.0014
2404.00,0.0014
2403.00,0.0014
2402.00,0.0013
2401.00,0.0013
2400.00,0.0013
2399.00,0.0012
2398.00,0.0012
2397.00,0.0012
2396.00,0.0012
2395.00,0.0012
2394.00,0.0012
2393.00,0.0012
2392.00,0.0012
2391.00,0.0011
2390.00,0.0011
2389.00,0.0012
2388.00,0.0012
2387.00,0.0012
2386.00,0.0013
2385.00,0.0012
2384.00,0.0011
2383.00,0.0010
2382.00,0.0009
2381.00,0.0009
2380.00,0.0009
2379.00,0.0009
2378.00,0.0009
2377.00,0.0008
2376.00,0.0008
2375.00,0.0008
2374.00,0.0008
2373.00,0.0008
2372.00,0.0008
2371.00,0.0007
2370.00,0.0007
2369.00,0.0007
2368.00,0.0007
2367.00,0.0007
2366.00,0.0007
2365.00,0.0007
2364.00,0.0007
2363.00,0.0007
2362.00,0.0006
2361.00,0.0007
2360.00,0.0007
2359.00,0.0008
2358.00,0.0008
2357.00,0.0008
2356.00,0.0008
2355.00,0.0007
2354.00,0.0006
2353.00,0.0004
2352.00,0.0003
2351.00,0.0003
2350.00,0.0004
2349.00,0.0007
2348.00,0.0009
2347.00,0.0010
2346.00,0.0009
2345.00,0.0008
2344.00,0.0008
2343.00,0.0008
2342.00,0.0009
2341.00,0.0009
2340.00,0.0009
2339.00,0.0010
2338.00,0.0010
2337.00,0.0010
2336.00,0.0009
2335.00,0.0009
2334.00,0.0009
2333.00,0.0009
2332.00,0.0008
2331.00,0.0008
2330.00,0.0008
2329.00,0.0010
2328.00,0.0012
2327.00,0.0016
2326.00,0.0020
2325.00,0.0023
2324.00,0.0023
2323.00,0.0022
2322.00,0.0019
2321.00,0.0017
2320.00,0.0016
2319.00,0.0016
2318.00,0.0016
2317.00,0.0015
2316.00,0.0014
2315.00,0.0013
2314.00,0.0012
2313.00,0.0012
2312.00,0.0011
2311.00,0.0011
2310.00,0.0011
2309.00,0.0011
2308.00,0.0011
2307.00,0.0011
2306.00,0.0011
2305.00,0.0011
2304.00,0.0011
2303.00,0.0012
2302.00,0.0012
2301.00,0.0012
2300.00,0.0013
2299.00,0.0014
2298.00,0.0015
2297.00,0.0016
2296.00,0.0017
2295.00,0.0017
2294.00,0.0017
2293.00,0.0018
2292.00,0.0020
2291.00,0.0021
2290.00,0.0022
2289.00,0.0022
2288.00,0.0023
2287.00,0.0023
2286.00,0.0023
2285.00,0.0023
2284.00,0.0024
2283.00,0.0023
2282.00,0.0022
2281.00,0.0020
2280.00,0.0018
2279.00,0.0017
2278.00,0.0017
2277.00,0.0017
2276.00,0.0017
2275.00,0.0018
2274.00,0.0018
2273.00,0.0019
2272.00,0.0018
2271.00,0.0018
2270.00,0.0018
2269.00,0.0018
2268.00,0.0018
2267.00,0.0018
2266.00,0.0017
2265.00,0.0016
2264.00,0.0015
2263.00,0.0015
2262.00,0.0015
2261.00,0.0015
2260.00,0.0015
2259.00,0.0016
2258.00,0.0017
2257.00,0.0017
2256.00,0.0016
2255.00,0.0015
2254.00,0.0013
2253.00,0.0012
2252.00,0.0011
2251.00,0.0011
2250.00,0.0012
2249.00,0.0012
2248.00,0.0013
2247.00,0.0013
2246.00,0.0014
2245.00,0.0014
2244.00,0.0014
2243.00,0.0014
2242.00,0.0014
2241.00,0.0014
2240.00,0.0013
2239.00,0.0013
2238.00,0.0012
2237.00,0.0011
2236.00,0.0011
2235.00,0.0010
2234.00,0.0010
2233.00,0.0010
2232.00,0.0011
2231.00,0.0011
2230.00,0.0011
2229.00,0.0012
2228.00,0.0013
2227.00,0.0012
2226.00,0.0011
2225.00,0.0009
2224.00,0.0008
2223.00,0.0008
2222.00,0.0009
2221.00,0.0012
2220.00,0.0014
2219.00,0.0015
2218.00,0.0015
2217.00,0.0014
2216.00,0.0012
2215.00,0.0011
2214.00,0.0010
2213.00,0.0010
2212.00,0.0010
2211.00,0.0009
2210.00,0.0009
2209.00,0.0009
2208.00,0.0008
2207.00,0.0008
2206.00,0.0007
2205.00,0.0007
2204.00,0.0008
2203.00,0.0009
2202.00,0.0010
2201.00,0.0010
2200.00,0.0010
2199.00,0.0009
2198.00,0.0008
2197.00,0.0008
2196.00,0.0009
2195.00,0.0011
2194.00,0.0013
2193.00,0.0014
2192.00,0.0014
2191.00,0.0013
2190.00,0.0011
2189.00,0.0011
2188.00,0.0012
2187.00,0.0013
2186.00,0.0015
2185.00,0.0015
2184.00,0.0016
2183.00,0.0017
2182.00,0.0017
2181.00,0.0017
2180.00,0.0017
2179.00,0.0017
2178.00,0.0017
2177.00,0.0016
2176.00,0.0015
2175.00,0.0012
2174.00,0.0010
2173.00,0.0010
2172.00,0.0013
2171.00,0.0015
2170.00,0.0017
2169.00,0.0019
2168.00,0.0020
2167.00,0.0020
2166.00,0.0020
2165.00,0.0022
2164.00,0.0024
2163.00,0.0024
2162.00,0.0021
2161.00,0.0013
2160.00,0.0000
2159.00,-0.0015
2158.00,-0.0026
2157.00,-0.0029
2156.00,-0.0024
2155.00,-0.0018
2154.00,-0.0013
2153.00,-0.0012
2152.00,-0.0013
2151.00,-0.0014
2150.00,-0.0012
2149.00,-0.0009
2148.00,-0.0004
2147.00,-0.0001
2146.00,-0.0000
2145.00,-0.0002
2144.00,-0.0005
2143.00,-0.0006
2142.00,-0.0007
2141.00,-0.0006
2140.00,-0.0005
2139.00,-0.0004
2138.00,-0.0004
2137.00,-0.0005
2136.00,-0.0006
2135.00,-0.0007
2134.00,-0.0009
2133.00,-0.0010
2132.00,-0.0010
2131.00,-0.0009
2130.00,-0.0008
2129.00,-0.0006
2128.00,-0.0003
2127.00,-0.0002
2126.00,-0.0001
2125.00,-0.0000
2124.00,-0.0000
2123.00,-0.0000
2122.00,0.0000
2121.00,0.0001
2120.00,0.0001
2119.00,0.0001
2118.00,0.0001
2117.00,0.0002
2116.00,0.0003
2115.00,0.0004
2114.00,0.0005
2113.00,0.0005
2112.00,0.0006
2111.00,0.0006
2110.00,0.0007
2109.00,0.0007
2108.00,0.0006
2107.00,0.0006
2106.00,0.0005
2105.00,0.0005
2104.00,0.0005
2103.00,0.0005
2102.00,0.0005
2101.00,0.0006
2100.00,0.0006
2099.00,0.0006
2098.00,0.0005
2097.00,0.0003
2096.00,0.0001
2095.00,-0.0000
2094.00,-0.0001
2093.00,0.0000
2092.00,0.0002
2091.00,0.0003
2090.00,0.0003
2089.00,0.0003
2088.00,0.0004
2087.00,0.0004
2086.00,0.0004
2085.00,0.0005
2084.00,0.0006
2083.00,0.0006
2082.00,0.0006
2081.00,0.0006
2080.00,0.0007
2079.00,0.0008
2078.00,0.0009
2077.00,0.0010
2076.00,0.0010
2075.00,0.0009
2074.00,0.0007
2073.00,0.0006
2072.00,0.0005
2071.00,0.0004
2070.00,0.0003
2069.00,0.0003
2068.00,0.0003
2067.00,0.0002
2066.00,0.0000
2065.00,-0.0000
2064.00,0.0001
2063.00,0.0003
2062.00,0.0004
2061.00,0.0006
2060.00,0.0007
2059.00,0.0008
2058.00,0.0008
2057.00,0.0007
2056.00,0.0007
2055.00,0.0006
2054.00,0.0008
2053.00,0.0012
2052.00,0.0017
2051.00,0.0020
2050.00,0.0019
2049.00,0.0015
2048.00,0.0011
2047.00,0.0008
2046.00,0.0007
2045.00,0.0008
2044.00,0.0009
2043.00,0.0008
2042.00,0.0007
2041.00,0.0005
2040.00,0.0002
2039.00,-0.0000
2038.00,-0.0002
2037.00,-0.0003
2036.00,-0.0003
2035.00,-0.0003
2034.00,-0.0005
2033.00,-0.0006
2032.00,-0.0007
2031.00,-0.0008
2030.00,-0.0007
2029.00,-0.0004
2028.00,-0.0001
2027.00,0.0001
2026.00,0.0002
2025.00,0.0002
2024.00,0.0003
2023.00,0.0002
2022.00,-0.0001
2021.00,-0.0005
2020.00,-0.0009
2019.00,-0.0011
2018.00,-0.0011
2017.00,-0.0009
2016.00,-0.0007
2015.00,-0.0007
2014.00,-0.0009
2013.00,-0.0011
2012.00,-0.0010
2011.00,-0.0008
2010.00,-0.0006
2009.00,-0.0005
2008.00,-0.0006
2007.00,-0.0009
2006.00,-0.0012
2005.00,-0.0014
2004.00,-0.0013
2003.00,-0.0012
2002.00,-0.0010
2001.00,-0.0009
2000.00,-0.0008
1999.00,-0.0008
1998.00,-0.0008
1997.00,-0.0007
1996.00,-0.0006
1995.00,-0.0005
1994.00,-0.0004
1993.00,-0.0004
1992.00,-0.0004
1991.00,-0.0003
1990.00,-0.0002
1989.00,-0.0001
1988.00,0.0001
1987.00,0.0001
1986.00,0.0003
1985.00,0.0007
1984.00,0.0011
1983.00,0.0015
1982.00,0.0017
1981.00,0.0019
1980.00,0.0019
1979.00,0.0016
1978.00,0.0009
1977.00,0.0001
1976.00,-0.0005
1975.00,-0.0008
1974.00,-0.0010
1973.00,-0.0010
1972.00,-0.0009
1971.00,-0.0009
1970.00,-0.0008
1969.00,-0.0007
1968.00,-0.0006
1967.00,-0.0006
1966.00,-0.0006
1965.00,-0.0007
1964.00,-0.0007
1963.00,-0.0008
1962.00,-0.0010
1961.00,-0.0012
1960.00,-0.0013
1959.00,-0.0014
1958.00,-0.0013
1957.00,-0.0011
1956.00,-0.0008
1955.00,-0.0007
1954.00,-0.0006
1953.00,-0.0005
1952.00,-0.0004
1951.00,-0.0004
1950.00,-0.0005
1949.00,-0.0006
1948.00,-0.0005
1947.00,-0.0006
1946.00,-0.0006
1945.00,-0.0006
1944.00,-0.0005
1943.00,-0.0005
1942.00,-0.0004
1941.00,-0.0004
1940.00,-0.0003
1939.00,-0.0003
1938.00,-0.0003
1937.00,-0.0002
1936.00,-0.0001
1935.00,-0.0002
1934.00,-0.0003
1933.00,-0.0005
1932.00,-0.0006
1931.00,-0.0006
1930.00,-0.0005
1929.00,-0.0004
1928.00,-0.0002
1927.00,-0.0001
1926.00,-0.0000
1925.00,0.0000
1924.00,0.0000
1923.00,-0.0001
1922.00,-0.0002
1921.00,-0.0002
1920.00,-0.0001
1919.00,0.0001
1918.00,0.0002
1917.00,0.0003
1916.00,0.0003
1915.00,0.0002
1914.00,0.0002
1913.00,0.0002
1912.00,0.0002
1911.00,0.0002
1910.00,0.0002
1909.00,0.0001
1908.00,0.0000
1907.00,-0.0001
1906.00,-0.0001
1905.00,-0.0000
1904.00,0.0001
1903.00,0.0002
1902.00,0.0002
1901.00,0.0002
1900.00,0.0002
1899.00,0.0002
1898.00,0.0002
1897.00,0.0002
1896.00,0.0003
1895.00,0.0003
1894.00,0.0004
1893.00,0.0004
1892.00,0.0004
1891.00,0.0004
1890.00,0.0003
1889.00,0.0002
1888.00,0.0002
1887.00,0.0003
1886.00,0.0003
1885.00,0.0004
1884.00,0.0005
1883.00,0.0005
1882.00,0.0005
1881.00,0.0004
1880.00,0.0004
1879.00,0.0004
1878.00,0.0004
1877.00,0.0004
1876.00,0.0003
1875.00,0.0003
1874.00,0.0003
1873.00,0.0004
1872.00,0.0004
1871.00,0.0005
1870.00,0.0005
1869.00,0.0006
1868.00,0.0006
1867.00,0.0005
1866.00,0.0004
1865.00,0.0004
1864.00,0.0003
1863.00,0.0004
1862.00,0.0004
1861.00,0.0004
1860.00,0.0004
1859.00,0.0004
1858.00,0.0004
1857.00,0.0005
1856.00,0.0005
1855.00,0.0005
1854.00,0.0005
1853.00,0.0004
1852.00,0.0005
1851.00,0.0005
1850.00,0.0005
1849.00,0.0006
1848.00,0.0005
1847.00,0.0004
1846.00,0.0004
1845.00,0.0004
1844.00,0.0005
1843.00,0.0006
1842.00,0.0007
1841.00,0.0007
1840.00,0.0007
1839.00,0.0007
1838.00,0.0007
1837.00,0.0007
1836.00,0.0006
1835.00,0.0006
1834.00,0.0006
1833.00,0.0006
1832.00,0.0006
1831.00,0.0007
1830.00,0.0007
1829.00,0.0007
1828.00,0.0007
1827.00,0.0007
1826.00,0.0008
1825.00,0.0008
1824.00,0.0009
1823.00,0.0010
1822.00,0.0009
1821.00,0.0008
1820.00,0.0007
1819.00,0.0006
1818.00,0.0005
1817.00,0.0005
1816.00,0.0005
1815.00,0.0006
1814.00,0.0006
1813.00,0.0006
1812.00,0.0006
1811.00,0.0007
1810.00,0.0007
1809.00,0.0008
1808.00,0.0008
1807.00,0.0009
1806.00,0.0009
1805.00,0.0009
1804.00,0.0010
1803.00,0.0010
1802.00,0.0010
1801.00,0.0010
1800.00,0.0010
1799.00,0.0010
1798.00,0.0010
1797.00,0.0009
1796.00,0.0009
1795.00,0.0009
1794.00,0.0009
1793.00,0.0010
1792.00,0.0011
1791.00,0.0011
1790.00,0.0010
1789.00,0.0010
1788.00,0.0010
1787.00,0.0011
1786.00,0.0011
1785.00,0.0011
1784.00,0.0012
1783.00,0.0012
1782.00,0.0012
1781.00,0.0013
1780.00,0.0013
1779.00,0.0013
1778.00,0.0013
1777.00,0.0012
1776.00,0.0012
1775.00,0.0011
1774.00,0.0010
1773.00,0.0010
1772.00,0.0011
1771.00,0.0013
1770.00,0.0014
1769.00,0.0015
1768.00,0.0015
1767.00,0.0016
1766.00,0.0015
1765.00,0.0015
1764.00,0.0016
1763.00,0.0017
1762.00,0.0018
1761.00,0.0019
1760.00,0.0020
1759.00,0.0022
1758.00,0.0023
1757.00,0.0025
1756.00,0.0027
1755.00,0.0028
1754.00,0.0030
1753.00,0.0032
1752.00,0.0036
1751.00,0.0039
1750.00,0.0041
1749.00,0.0041
1748.00,0.0042
1747.00,0.0043
1746.00,0.0044
1745.00,0.0045
1744.00,0.0046
1743.00,0.0046
1742.00,0.0045
1741.00,0.0046
1740.00,0.0046
1739.00,0.0046
1738.00,0.0044
1737.00,0.0043
1736.00,0.0043
1735.00,0.0043
1734.00,0.0044
1733.00,0.0045
1732.00,0.0045
1731.00,0.0043
1730.00,0.0042
1729.00,0.0040
1728.00,0.0039
1727.00,0.0038
1726.00,0.0038
1725.00,0.0037
1724.00,0.0037
1723.00,0.0037
1722.00,0.0037
1721.00,0.0037
1720.00,0.0037
1719.00,0.0037
1718.00,0.0037
1717.00,0.0037
1716.00,0.0038
1715.00,0.0038
1714.00,0.0038
1713.00,0.0038
1712.00,0.0039
1711.00,0.0040
1710.00,0.0040
1709.00,0.0040
1708.00,0.0041
1707.00,0.0042
1706.00,0.0043
1705.00,0.0044
1704.00,0.0044
1703.00,0.0044
1702.00,0.0045
1701.00,0.0048
1700.00,0.0050
1699.00,0.0051
1698.00,0.0050
1697.00,0.0051
1696.00,0.0054
1695.00,0.0057
1694.00,0.0059
1693.00,0.0059
1692.00,0.0060
1691.00,0.0062
1690.00,0.0064
1689.00,0.0066
1688.00,0.0067
1687.00,0.0067
1686.00,0.0069
1685.00,0.0072
1684.00,0.0076
1683.00,0.0079
1682.00,0.0080
1681.00,0.0081
1680.00,0.0082
1679.00,0.0083
1678.00,0.0084
1677.00,0.0085
1676.00,0.0088
1675.00,0.0090
1674.00,0.0092
1673.00,0.0093
1672.00,0.0094
1671.00,0.0095
1670.00,0.0097
1669.00,0.0100
1668.00,0.0102
1667.00,0.0103
1666.00,0.0104
1665.00,0.0105
1664.00,0.0107
1663.00,0.0108
1662.00,0.0110
1661.00,0.0111
1660.00,0.0112
1659.00,0.0112
1658.00,0.0113
1657.00,0.0113
1656.00,0.0114
1655.00,0.0115
1654.00,0.0116
1653.00,0.0116
1652.00,0.0117
1651.00,0.0116
1650.00,0.0115
1649.00,0.0114
1648.00,0.0113
1647.00,0.0112
1646.00,0.0111
1645.00,0.0111
1644.00,0.0111
1643.00,0.0110
1642.00,0.0109
1641.00,0.0108
1640.00,0.0107
1639.00,0.0106
1638.00,0.0106
1637.00,0.0105
1636.00,0.0104
1635.00,0.0103
1634.00,0.0102
1633.00,0.0102
1632.00,0.0102
1631.00,0.0102
1630.00,0.0101
1629.00,0.0100
1628.00,0.0098
1627.00,0.0096
1626.00,0.0095
1625.00,0.0094
1624.00,0.0093
1623.00,0.0092
1622.00,0.0092
1621.00,0.0091
1620.00,0.0090
1619.00,0.0089
1618.00,0.0087
1617.00,0.0087
1616.00,0.0086
1615.00,0.0086
1614.00,0.0085
1613.00,0.0085
1612.00,0.0085
1611.00,0.0084
1610.00,0.0084
1609.00,0.0084
1608.00,0.0083
1607.00,0.0083
1606.00,0.0082
1605.00,0.0082
1604.00,0.0082
1603.00,0.0082
1602.00,0.0082
1601.00,0.0082
1600.00,0.0082
1599.00,0.0082
1598.00,0.0082
1597.00,0.0083
1596.00,0.0083
1595.00,0.0083
1594.00,0.0083
1593.00,0.0084
1592.00,0.0085
1591.00,0.0086
1590.00,0.0086
1589.00,0.0087
1588.00,0.0088
1587.00,0.0089
1586.00,0.0090
1585.00,0.0092
1584.00,0.0094
1583.00,0.0096
1582.00,0.0099
1581.00,0.0102
1580.00,0.0105
1579.00,0.0107
1578.00,0.0109
1577.00,0.0110
1576.00,0.0110
1575.00,0.0109
1574.00,0.0108
1573.00,0.0106
1572.00,0.0104
1571.00,0.0102
1570.00,0.0100
1569.00,0.0098
1568.00,0.0097
1567.00,0.0096
1566.00,0.0095
1565.00,0.0095
1564.00,0.0095
1563.00,0.0095
1562.00,0.0096
1561.00,0.0098
1560.00,0.0101
1559.00,0.0099
1558.00,0.0098
1557.00,0.0099
1556.00,0.0100
1555.00,0.0102
1554.00,0.0103
1553.00,0.0105
1552.00,0.0107
1551.00,0.0110
1550.00,0.0112
1549.00,0.0114
1548.00,0.0116
1547.00,0.0119
1546.00,0.0123
1545.00,0.0126
1544.00,0.0129
1543.00,0.0131
1542.00,0.0131
1541.00,0.0130
1540.00,0.0128
1539.00,0.0125
1538.00,0.0123
1537.00,0.0120
1536.00,0.0118
1535.00,0.0115
1534.00,0.0111
1533.00,0.0106
1532.00,0.0103
1531.00,0.0101
1530.00,0.0099
1529.00,0.0098
1528.00,0.0098
1527.00,0.0097
1526.00,0.0094
1525.00,0.0092
1524.00,0.0091
1523.00,0.0090
1522.00,0.0089
1521.00,0.0090
1520.00,0.0091
1519.00,0.0092
1518.00,0.0091
1517.00,0.0091
1516.00,0.0090
1515.00,0.0090
1514.00,0.0089
1513.00,0.0089
1512.00,0.0090
1511.00,0.0091
1510.00,0.0091
1509.00,0.0091
1508.00,0.0090
1507.00,0.0087
1506.00,0.0086
1505.00,0.0087
1504.00,0.0087
1503.00,0.0088
1502.00,0.0088
1501.00,0.0089
1500.00,0.0091
1499.00,0.0093
1498.00,0.0094
1497.00,0.0096
1496.00,0.0099
1495.00,0.0101
1494.00,0.0102
1493.00,0.0104
1492.00,0.0108
1491.00,0.0112
1490.00,0.0116
1489.00,0.0120
1488.00,0.0125
1487.00,0.0130
1486.00,0.0134
1485.00,0.0141
1484.00,0.0148
1483.00,0.0155
1482.00,0.0164
1481.00,0.0175
1480.00,0.0187
1479.00,0.0200
1478.00,0.0214
1477.00,0.0231
1476.00,0.0250
1475.00,0.0272
1474.00,0.0303
1473.00,0.0354
1472.00,0.0419
1471.00,0.0486
1470.00,0.0550
1469.00,0.0616
1468.00,0.0687
1467.00,0.0763
1466.00,0.0847
1465.00,0.0937
1464.00,0.1018
1463.00,0.1077
1462.00,0.1119
1461.00,0.1152
1460.00,0.1177
1459.00,0.1198
1458.00,0.1217
1457.00,0.1234
1456.00,0.1242
1455.00,0.1240
1454.00,0.1234
1453.00,0.1222
1452.00,0.1201
1451.00,0.1168
1450.00,0.1118
1449.00,0.1046
1448.00,0.0951
1447.00,0.0850
1446.00,0.0758
1445.00,0.0680
1444.00,0.0614
1443.00,0.0560
1442.00,0.0521
1441.00,0.0494
1440.00,0.0479
1439.00,0.0474
1438.00,0.0477
1437.00,0.0480
1436.00,0.0471
1435.00,0.0445
1434.00,0.0405
1433.00,0.0358
1432.00,0.0309
1431.00,0.0267
1430.00,0.0234
1429.00,0.0211
1428.00,0.0194
1427.00,0.0184
1426.00,0.0178
1425.00,0.0172
1424.00,0.0166
1423.00,0.0162
1422.00,0.0159
1421.00,0.0156
1420.00,0.0154
1419.00,0.0150
1418.00,0.0146
1417.00,0.0141
1416.00,0.0135
1415.00,0.0131
1414.00,0.0128
1413.00,0.0124
1412.00,0.0119
1411.00,0.0114
1410.00,0.0110
1409.00,0.0105
1408.00,0.0101
1407.00,0.0097
1406.00,0.0094
1405.00,0.0088
1404.00,0.0082
1403.00,0.0076
1402.00,0.0072
1401.00,0.0068
1400.00,0.0062
1399.00,0.0057
1398.00,0.0053
1397.00,0.0048
1396.00,0.0044
1395.00,0.0043
1394.00,0.0044
1393.00,0.0047
1392.00,0.0052
1391.00,0.0060
1390.00,0.0073
1389.00,0.0089
1388.00,0.0114
1387.00,0.0150
1386.00,0.0197
1385.00,0.0257
1384.00,0.0337
1383.00,0.0445
1382.00,0.0590
1381.00,0.0776
1380.00,0.1012
1379.00,0.1288
1378.00,0.1569
1377.00,0.1793
1376.00,0.1898
1375.00,0.1838
1374.00,0.1626
1373.00,0.1347
1372.00,0.1080
1371.00,0.0856
1370.00,0.0676
1369.00,0.0540
1368.00,0.0446
1367.00,0.0390
1366.00,0.0362
1365.00,0.0353
1364.00,0.0359
1363.00,0.0377
1362.00,0.0402
1361.00,0.0429
1360.00,0.0449
1359.00,0.0456
1358.00,0.0445
1357.00,0.0417
1356.00,0.0378
1355.00,0.0333
1354.00,0.0290
1353.00,0.0254
1352.00,0.0225
1351.00,0.0202
1350.00,0.0183
1349.00,0.0168
1348.00,0.0157
1347.00,0.0148
1346.00,0.0141
1345.00,0.0136
1344.00,0.0131
1343.00,0.0128
1342.00,0.0126
1341.00,0.0125
1340.00,0.0123
1339.00,0.0121
1338.00,0.0120
1337.00,0.0120
1336.00,0.0121
1335.00,0.0123
1334.00,0.0127
1333.00,0.0133
1332.00,0.0138
1331.00,0.0143
1330.00,0.0145
1329.00,0.0144
1328.00,0.0142
1327.00,0.0137
1326.00,0.0131
1325.00,0.0126
1324.00,0.0121
1323.00,0.0116
1322.00,0.0113
1321.00,0.0110
1320.00,0.0108
1319.00,0.0106
1318.00,0.0105
1317.00,0.0104
1316.00,0.0103
1315.00,0.0102
1314.00,0.0102
1313.00,0.0102
1312.00,0.0103
1311.00,0.0105
1310.00,0.0109
1309.00,0.0116
1308.00,0.0126
1307.00,0.0137
1306.00,0.0148
1305.00,0.0156
1304.00,0.0159
1303.00,0.0157
1302.00,0.0152
1301.00,0.0147
1300.00,0.0145
1299.00,0.0144
1298.00,0.0145
1297.00,0.0145
1296.00,0.0144
1295.00,0.0141
1294.00,0.0137
1293.00,0.0131
1292.00,0.0125
1291.00,0.0118
1290.00,0.0112
1289.00,0.0107
1288.00,0.0103
1287.00,0.0099
1286.00,0.0096
1285.00,0.0094
1284.00,0.0091
1283.00,0.0088
1282.00,0.0086
1281.00,0.0084
1280.00,0.0081
1279.00,0.0079
1278.00,0.0076
1277.00,0.0072
1276.00,0.0070
1275.00,0.0067
1274.00,0.0064
1273.00,0.0062
1272.00,0.0059
1271.00,0.0057
1270.00,0.0054
1269.00,0.0053
1268.00,0.0051
1267.00,0.0051
1266.00,0.0052
1265.00,0.0052
1264.00,0.0053
1263.00,0.0055
1262.00,0.0058
1261.00,0.0062
1260.00,0.0067
1259.00,0.0073
1258.00,0.0078
1257.00,0.0083
1256.00,0.0083
1255.00,0.0079
1254.00,0.0071
1253.00,0.0061
1252.00,0.0052
1251.00,0.0045
1250.00,0.0042
1249.00,0.0042
1248.00,0.0042
1247.00,0.0043
1246.00,0.0044
1245.00,0.0044
1244.00,0.0045
1243.00,0.0045
1242.00,0.0045
1241.00,0.0046
1240.00,0.0046
1239.00,0.0047
1238.00,0.0048
1237.00,0.0049
1236.00,0.0050
1235.00,0.0052
1234.00,0.0055
1233.00,0.0057
1232.00,0.0060
1231.00,0.0063
1230.00,0.0066
1229.00,0.0069
1228.00,0.0072
1227.00,0.0076
1226.00,0.0081
1225.00,0.0086
1224.00,0.0091
1223.00,0.0096
1222.00,0.0102
1221.00,0.0106
1220.00,0.0110
1219.00,0.0111
1218.00,0.0112
1217.00,0.0111
1216.00,0.0109
1215.00,0.0107
1214.00,0.0104
1213.00,0.0101
1212.00,0.0099
1211.00,0.0097
1210.00,0.0095
1209.00,0.0094
1208.00,0.0092
1207.00,0.0091
1206.00,0.0090
1205.00,0.0090
1204.00,0.0089
1203.00,0.0089
1202.00,0.0089
1201.00,0.0089
1200.00,0.0088
1199.00,0.0087
1198.00,0.0085
1197.00,0.0084
1196.00,0.0083
1195.00,0.0083
1194.00,0.0082
1193.00,0.0081
1192.00,0.0079
1191.00,0.0076
1190.00,0.0074
1189.00,0.0071
1188.00,0.0069
1187.00,0.0067
1186.00,0.0065
1185.00,0.0063
1184.00,0.0061
1183.00,0.0059
1182.00,0.0058
1181.00,0.0057
1180.00,0.0057
1179.00,0.0058
1178.00,0.0062
1177.00,0.0068
1176.00,0.0077
1175.00,0.0090
1174.00,0.0108
1173.00,0.0130
1172.00,0.0156
1171.00,0.0186
1170.00,0.0216
1169.00,0.0240
1168.00,0.0254
1167.00,0.0257
1166.00,0.0248
1165.00,0.0232
1164.00,0.0211
1163.00,0.0191
1162.00,0.0173
1161.00,0.0157
1160.00,0.0143
1159.00,0.0132
1158.00,0.0122
1157.00,0.0115
1156.00,0.0110
1155.00,0.0106
1154.00,0.0103
1153.00,0.0099
1152.00,0.0095
1151.00,0.0089
1150.00,0.0082
1149.00,0.0074
1148.00,0.0066
1147.00,0.0059
1146.00,0.0053
1145.00,0.0048
1144.00,0.0044
1143.00,0.0040
1142.00,0.0036
1141.00,0.0032
1140.00,0.0028
1139.00,0.0026
1138.00,0.0024
1137.00,0.0024
1136.00,0.0024
1135.00,0.0025
1134.00,0.0026
1133.00,0.0028
1132.00,0.0029
1131.00,0.0031
1130.00,0.0033
1129.00,0.0036
1128.00,0.0039
1127.00,0.0043
1126.00,0.0047
1125.00,0.0050
1124.00,0.0053
1123.00,0.0056
1122.00,0.0059
1121.00,0.0061
1120.00,0.0064
1119.00,0.0067
1118.00,0.0069
1117.00,0.0073
1116.00,0.0076
1115.00,0.0079
1114.00,0.0083
1113.00,0.0086
1112.00,0.0089
1111.00,0.0094
1110.00,0.0099
1109.00,0.0104
1108.00,0.0110
1107.00,0.0116
1106.00,0.0123
1105.00,0.0130
1104.00,0.0136
1103.00,0.0139
1102.00,0.0139
1101.00,0.0134
1100.00,0.0126
1099.00,0.0116
1098.00,0.0107
1097.00,0.0097
1096.00,0.0088
1095.00,0.0080
1094.00,0.0073
1093.00,0.0067
1092.00,0.0061
1091.00,0.0056
1090.00,0.0051
1089.00,0.0048
1088.00,0.0044
1087.00,0.0042
1086.00,0.0040
1085.00,0.0038
1084.00,0.0036
1083.00,0.0035
1082.00,0.0034
1081.00,0.0032
1080.00,0.0031
1079.00,0.0029
1078.00,0.0028
1077.00,0.0026
1076.00,0.0024
1075.00,0.0023
1074.00,0.0023
1073.00,0.0023
1072.00,0.0024
1071.00,0.0025
1070.00,0.0026
1069.00,0.0029
1068.00,0.0032
1067.00,0.0037
1066.00,0.0040
1065.00,0.0043
1064.00,0.0046
1063.00,0.0048
1062.00,0.0050
1061.00,0.0052
1060.00,0.0055
1059.00,0.0058
1058.00,0.0062
1057.00,0.0065
1056.00,0.0068
1055.00,0.0072
1054.00,0.0076
1053.00,0.0080
1052.00,0.0084
1051.00,0.0088
1050.00,0.0093
1049.00,0.0099
1048.00,0.0105
1047.00,0.0110
1046.00,0.0115
1045.00,0.0118
1044.00,0.0119
1043.00,0.0120
1042.00,0.0119
1041.00,0.0118
1040.00,0.0118
1039.00,0.0120
1038.00,0.0122
1037.00,0.0125
1036.00,0.0126
1035.00,0.0127
1034.00,0.0127
1033.00,0.0126
1032.00,0.0125
1031.00,0.0124
1030.00,0.0123
1029.00,0.0123
1028.00,0.0122
1027.00,0.0122
1026.00,0.0123
1025.00,0.0123
1024.00,0.0124
1023.00,0.0124
1022.00,0.0124
1021.00,0.0124
1020.00,0.0125
1019.00,0.0125
1018.00,0.0127
1017.00,0.0128
1016.00,0.0130
1015.00,0.0132
1014.00,0.0135
1013.00,0.0139
1012.00,0.0143
1011.00,0.0148
1010.00,0.0151
1009.00,0.0153
1008.00,0.0156
1007.00,0.0161
1006.00,0.0170
1005.00,0.0181
1004.00,0.0197
1003.00,0.0219
1002.00,0.0247
1001.00,0.0281
1000.00,0.0318
999.00,0.0349
998.00,0.0365
997.00,0.0358
996.00,0.0332
995.00,0.0293
994.00,0.0253
993.00,0.0217
992.00,0.0188
991.00,0.0167
990.00,0.0153
989.00,0.0142
988.00,0.0136
987.00,0.0132
986.00,0.0129
985.00,0.0129
984.00,0.0130
983.00,0.0135
982.00,0.0144
981.00,0.0157
980.00,0.0175
979.00,0.0198
978.00,0.0228
977.00,0.0263
976.00,0.0301
975.00,0.0337
974.00,0.0362
973.00,0.0368
972.00,0.0349
971.00,0.0306
970.00,0.0250
969.00,0.0193
968.00,0.0144
967.00,0.0107
966.00,0.0081
965.00,0.0062
964.00,0.0049
963.00,0.0038
962.00,0.0029
961.00,0.0021
960.00,0.0011
959.00,0.0002
958.00,-0.0006
957.00,-0.0012
956.00,-0.0015
955.00,-0.0018
954.00,-0.0021
953.00,-0.0021
952.00,-0.0020
951.00,-0.0017
950.00,-0.0015
949.00,-0.0012
948.00,-0.0009
947.00,-0.0006
946.00,-0.0003
945.00,0.0001
944.00,0.0005
943.00,0.0010
942.00,0.0016
941.00,0.0020
940.00,0.0023
939.00,0.0024
938.00,0.0023
937.00,0.0022
936.00,0.0022
935.00,0.0023
934.00,0.0026
933.00,0.0029
932.00,0.0032
931.00,0.0035
930.00,0.0038
929.00,0.0042
928.00,0.0046
927.00,0.0049
926.00,0.0052
925.00,0.0054
924.00,0.0058
923.00,0.0061
922.00,0.0065
921.00,0.0068
920.00,0.0071
919.00,0.0072
918.00,0.0073
917.00,0.0075
916.00,0.0076
915.00,0.0077
914.00,0.0077
913.00,0.0078
912.00,0.0078
911.00,0.0080
910.00,0.0083
909.00,0.0087
908.00,0.0092
907.00,0.0098
906.00,0.0105
905.00,0.0115
904.00,0.0129
903.00,0.0148
902.00,0.0169
901.00,0.0190
900.00,0.0205
899.00,0.0210
898.00,0.0202
897.00,0.0185
896.00,0.0164
895.00,0.0143
894.00,0.0125
893.00,0.0112
892.00,0.0102
891.00,0.0096
890.00,0.0092
889.00,0.0090
888.00,0.0090
887.00,0.0089
886.00,0.0088
885.00,0.0087
884.00,0.0086
883.00,0.0086
882.00,0.0087
881.00,0.0088
880.00,0.0089
879.00,0.0090
878.00,0.0090
877.00,0.0090
876.00,0.0090
875.00,0.0089
874.00,0.0089
873.00,0.0089
872.00,0.0089
871.00,0.0088
870.00,0.0087
869.00,0.0086
868.00,0.0085
867.00,0.0085
866.00,0.0085
865.00,0.0086
864.00,0.0087
863.00,0.0089
862.00,0.0091
861.00,0.0093
860.00,0.0095
859.00,0.0096
858.00,0.0097
857.00,0.0098
856.00,0.0099
855.00,0.0101
854.00,0.0103
853.00,0.0105
852.00,0.0108
851.00,0.0111
850.00,0.0116
849.00,0.0121
848.00,0.0130
847.00,0.0143
846.00,0.0165
845.00,0.0197
844.00,0.0240
843.00,0.0287
842.00,0.0324
841.00,0.0334
840.00,0.0313
839.00,0.0271
838.00,0.0225
837.00,0.0187
836.00,0.0161
835.00,0.0145
834.00,0.0134
833.00,0.0127
832.00,0.0123
831.00,0.0119
830.00,0.0116
829.00,0.0112
828.00,0.0109
827.00,0.0107
826.00,0.0107
825.00,0.0107
824.00,0.0107
823.00,0.0107
822.00,0.0107
821.00,0.0108
820.00,0.0109
819.00,0.0110
818.00,0.0113
817.00,0.0118
816.00,0.0125
815.00,0.0137
814.00,0.0152
813.00,0.0169
812.00,0.0188
811.00,0.0205
810.00,0.0220
809.00,0.0227
808.00,0.0226
807.00,0.0216
806.00,0.0201
805.00,0.0184
804.00,0.0166
803.00,0.0151
802.00,0.0138
801.00,0.0128
800.00,0.0120
799.00,0.0114
798.00,0.0110
797.00,0.0107
796.00,0.0104
795.00,0.0101
794.00,0.0099
793.00,0.0097
792.00,0.0096
791.00,0.0095
790.00,0.0093
789.00,0.0092
788.00,0.0091
787.00,0.0089
786.00,0.0088
785.00,0.0086
784.00,0.0084
783.00,0.0083
782.00,0.0082
781.00,0.0081
780.00,0.0080
779.00,0.0080
778.00,0.0079
777.00,0.0080
776.00,0.0081
775.00,0.0082
774.00,0.0085
773.00,0.0087
772.00,0.0091
771.00,0.0094
770.00,0.0096
769.00,0.0097
768.00,0.0097
767.00,0.0096
766.00,0.0095
765.00,0.0093
764.00,0.0091
763.00,0.0088
762.00,0.0085
761.00,0.0082
760.00,0.0079
759.00,0.0078
758.00,0.0077
757.00,0.0077
756.00,0.0076
755.00,0.0074
754.00,0.0072
753.00,0.0070
752.00,0.0069
751.00,0.0069
750.00,0.0071
749.00,0.0073
748.00,0.0075
747.00,0.0077
746.00,0.0078
745.00,0.0079
744.00,0.0079
743.00,0.0078
742.00,0.0078
741.00,0.0079
740.00,0.0081
739.00,0.0084
738.00,0.0086
737.00,0.0088
736.00,0.0090
735.00,0.0092
734.00,0.0094
733.00,0.0095
732.00,0.0097
731.00,0.0097
730.00,0.0096
729.00,0.0096
728.00,0.0095
727.00,0.0095
726.00,0.0096
725.00,0.0096
724.00,0.0095
723.00,0.0094
722.00,0.0092
721.00,0.0091
720.00,0.0091
719.00,0.0091
718.00,0.0089
717.00,0.0087
716.00,0.0084
715.00,0.0082
714.00,0.0080
713.00,0.0080
712.00,0.0080
711.00,0.0080
710.00,0.0080
709.00,0.0079
708.00,0.0079
707.00,0.0080
706.00,0.0082
705.00,0.0084
704.00,0.0085
703.00,0.0084
702.00,0.0083
701.00,0.0081
700.00,0.0079
699.00,0.0077
698.00,0.0076
697.00,0.0075
696.00,0.0075
695.00,0.0076
694.00,0.0076
693.00,0.0077
692.00,0.0077
691.00,0.0077
690.00,0.0077
689.00,0.0078
688.00,0.0078
687.00,0.0078
686.00,0.0078
685.00,0.0079
684.00,0.0080
683.00,0.0080
682.00,0.0079
681.00,0.0078
680.00,0.0077
679.00,0.0078
678.00,0.0081
677.00,0.0083
676.00,0.0084
675.00,0.0084
674.00,0.0083
673.00,0.0083
672.00,0.0083
671.00,0.0082
670.00,0.0082
669.00,0.0080
668.00,0.0080
667.00,0.0082
666.00,0.0084
665.00,0.0083
664.00,0.0083
663.00,0.0083
662.00,0.0083
661.00,0.0085
660.00,0.0086
659.00,0.0086
658.00,0.0084
657.00,0.0083
656.00,0.0080
655.00,0.0077
654.00,0.0074
653.00,0.0074
652.00,0.0077
651.00,0.0080
650.00,0.0081
649.00,0.0082
648.00,0.0081
647.00,0.0080
646.00,0.0078
645.00,0.0077
644.00,0.0075
643.00,0.0075
642.00,0.0076
641.00,0.0078
640.00,0.0080
639.00,0.0081
638.00,0.0080
637.00,0.0079
636.00,0.0078
635.00,0.0078
634.00,0.0081
633.00,0.0084
632.00,0.0088
631.00,0.0089
630.00,0.0088
629.00,0.0086
628.00,0.0085
627.00,0.0085
626.00,0.0086
625.00,0.0087
624.00,0.0087
623.00,0.0086
622.00,0.0085
621.00,0.0085
620.00,0.0086
619.00,0.0087
618.00,0.0087
617.00,0.0085
616.00,0.0084
615.00,0.0084
614.00,0.0086
613.00,0.0089
612.00,0.0091
611.00,0.0092
610.00,0.0093
609.00,0.0094
608.00,0.0093
607.00,0.0091
606.00,0.0088
605.00,0.0085
604.00,0.0085
603.00,0.0084
602.00,0.0085
601.00,0.0085
600.00,0.0087
599.00,0.0088
598.00,0.0090
597.00,0.0091
596.00,0.0092
595.00,0.0093
594.00,0.0092
593.00,0.0090
592.00,0.0088
591.00,0.0087
590.00,0.0086
589.00,0.0087
588.00,0.0087
587.00,0.0087
586.00,0.0087
585.00,0.0087
584.00,0.0086
583.00,0.0086
582.00,0.0087
581.00,0.0090
580.00,0.0093
579.00,0.0093
578.00,0.0092
577.00,0.0089
576.00,0.0086
575.00,0.0086
574.00,0.0089
573.00,0.0092
572.00,0.0095
571.00,0.0094
570.00,0.0092
569.00,0.0089
568.00,0.0089
567.00,0.0091
566.00,0.0092
565.00,0.0091
564.00,0.0089
563.00,0.0087
562.00,0.0088
561.00,0.0091
560.00,0.0094
559.00,0.0098
558.00,0.0101
557.00,0.0102
556.00,0.0101
555.00,0.0097
554.00,0.0092
553.00,0.0089
552.00,0.0088
551.00,0.0091
550.00,0.0093
549.00,0.0093
548.00,0.0093
547.00,0.0091
546.00,0.0087
545.00,0.0083
544.00,0.0080
543.00,0.0081
542.00,0.0085
541.00,0.0092
540.00,0.0098
539.00,0.0104
538.00,0.0106
537.00,0.0102
536.00,0.0096
535.00,0.0094
534.00,0.0096
533.00,0.0101
532.00,0.0104
531.00,0.0105
530.00,0.0106
529.00,0.0107
528.00,0.0108
527.00,0.0108
526.00,0.0106
525.00,0.0104
524.00,0.0103
523.00,0.0103
522.00,0.0102
521.00,0.0102
520.00,0.0102
519.00,0.0101
518.00,0.0098
517.00,0.0091
516.00,0.0084
515.00,0.0080
514.00,0.0078
513.00,0.0077
512.00,0.0076
511.00,0.0076
510.00,0.0079
509.00,0.0085
508.00,0.0092
507.00,0.0094
506.00,0.0091
505.00,0.0086
504.00,0.0083
503.00,0.0086
502.00,0.0094
501.00,0.0098
500.00,0.0095
499.00,0.0088
498.00,0.0084
497.00,0.0087
496.00,0.0092
495.00,0.0097
494.00,0.0101
493.00,0.0102
492.00,0.0099
491.00,0.0093
490.00,0.0087
489.00,0.0084
488.00,0.0083
487.00,0.0084
486.00,0.0084
485.00,0.0087
484.00,0.0093
483.00,0.0096
482.00,0.0092
481.00,0.0081
480.00,0.0069
479.00,0.0064
478.00,0.0070
477.00,0.0082
476.00,0.0093
475.00,0.0101
474.00,0.0105
473.00,0.0109
472.00,0.0112
471.00,0.0112
470.00,0.0110
469.00,0.0107
468.00,0.0104
467.00,0.0106
466.00,0.0113
465.00,0.0124
464.00,0.0136
463.00,0.0145
462.00,0.0150
461.00,0.0154
460.00,0.0160
459.00,0.0168
458.00,0.0173
457.00,0.0168
456.00,0.0153
455.00,0.0137
454.00,0.0126
453.00,0.0125
452.00,0.0133
451.00,0.0141
450.00,0.0142
