Created as New Dataset,Sample 001 By Administrator Date Friday, September 05 2025
cm-1,A
4000.00,0.0009
3999.00,0.0009
3998.00,0.0009
3997.00,0.0009
3996.00,0.0009
3995.00,0.0009
3994.00,0.0009
3993.00,0.0010
3992.00,0.0010
3991.00,0.0010
3990.00,0.0010
3989.00,0.0010
3988.00,0.0009
3987.00,0.0009
3986.00,0.0009
3985.00,0.0009
3984.00,0.0009
3983.00,0.0009
3982.00,0.0008
3981.00,0.0008
3980.00,0.0008
3979.00,0.0008
3978.00,0.0008
3977.00,0.0008
3976.00,0.0008
3975.00,0.0008
3974.00,0.0008
3973.00,0.0008
3972.00,0.0009
3971.00,0.0008
3970.00,0.0008
3969.00,0.0008
3968.00,0.0007
3967.00,0.0007
3966.00,0.0007
3965.00,0.0007
3964.00,0.0007
3963.00,0.0007
3962.00,0.0008
3961.00,0.0008
3960.00,0.0008
3959.00,0.0008
3958.00,0.0008
3957.00,0.0008
3956.00,0.0008
3955.00,0.0008
3954.00,0.0007
3953.00,0.0007
3952.00,0.0007
3951.00,0.0007
3950.00,0.0007
3949.00,0.0007
3948.00,0.0007
3947.00,0.0007
3946.00,0.0007
3945.00,0.0008
3944.00,0.0008
3943.00,0.0008
3942.00,0.0008
3941.00,0.0008
3940.00,0.0008
3939.00,0.0007
3938.00,0.0007
3937.00,0.0007
3936.00,0.0007
3935.00,0.0007
3934.00,0.0007
3933.00,0.0008
3932.00,0.0008
3931.00,0.0008
3930.00,0.0008
3929.00,0.0008
3928.00,0.0008
3927.00,0.0008
3926.00,0.0008
3925.00,0.0008
3924.00,0.0008
3923.00,0.0007
3922.00,0.0007
3921.00,0.0007
3920.00,0.0008
3919.00,0.0008
3918.00,0.0007
3917.00,0.0007
3916.00,0.0007
3915.00,0.0007
3914.00,0.0007
3913.00,0.0007
3912.00,0.0007
3911.00,0.0007
3910.00,0.0007
3909.00,0.0007
3908.00,0.0007
3907.00,0.0007
3906.00,0.0007
3905.00,0.0007
3904.00,0.0007
3903.00,0.0007
3902.00,0.0007
3901.00,0.0007
3900.00,0.0007
3899.00,0.0007
3898.00,0.0007
3897.00,0.0007
3896.00,0.0006
3895.00,0.0006
3894.00,0.0006
3893.00,0.0007
3892.00,0.0007
3891.00,0.0007
3890.00,0.0007
3889.00,0.0007
3888.00,0.0006
3887.00,0.0006
3886.00,0.0005
3885.00,0.0005
3884.00,0.0005
3883.00,0.0005
3882.00,0.0006
3881.00,0.0006
3880.00,0.0007
3879.00,0.0006
3878.00,0.0006
3877.00,0.0006
3876.00,0.0006
3875.00,0.0006
3874.00,0.0006
3873.00,0.0006
3872.00,0.0006
3871.00,0.0007
3870.00,0.0007
3869.00,0.0007
3868.00,0.0006
3867.00,0.0006
3866.00,0.0005
3865.00,0.0005
3864.00,0.0005
3863.00,0.0006
3862.00,0.0005
3861.00,0.0005
3860.00,0.0005
3859.00,0.0005
3858.00,0.0005
3857.00,0.0006
3856.00,0.0006
3855.00,0.0005
3854.00,0.0005
3853.00,0.0004
3852.00,0.0004
3851.00,0.0004
3850.00,0.0005
3849.00,0.0005
3848.00,0.0005
3847.00,0.0005
3846.00,0.0005
3845.00,0.0005
3844.00,0.0005
3843.00,0.0005
3842.00,0.0005
3841.00,0.0005
3840.00,0.0005
3839.00,0.0005
3838.00,0.0005
3837.00,0.0006
3836.00,0.0006
3835.00,0.0006
3834.00,0.0006
3833.00,0.0006
3832.00,0.0006
3831.00,0.0005
3830.00,0.0005
3829.00,0.0005
3828.00,0.0005
3827.00,0.0005
3826.00,0.0005
3825.00,0.0005
3824.00,0.0004
3823.00,0.0004
3822.00,0.0004
3821.00,0.0005
3820.00,0.0005
3819.00,0.0006
3818.00,0.0005
3817.00,0.0005
3816.00,0.0004
3815.00,0.0005
3814.00,0.0005
3813.00,0.0005
3812.00,0.0006
3811.00,0.0006
3810.00,0.0006
3809.00,0.0006
3808.00,0.0006
3807.00,0.0006
3806.00,0.0005
3805.00,0.0005
3804.00,0.0004
3803.00,0.0004
3802.00,0.0004
3801.00,0.0004
3800.00,0.0004
3799.00,0.0004
3798.00,0.0005
3797.00,0.0005
3796.00,0.0006
3795.00,0.0006
3794.00,0.0006
3793.00,0.0006
3792.00,0.0006
3791.00,0.0006
3790.00,0.0006
3789.00,0.0007
3788.00,0.0007
3787.00,0.0007
3786.00,0.0007
3785.00,0.0006
3784.00,0.0006
3783.00,0.0006
3782.00,0.0006
3781.00,0.0006
3780.00,0.0006
3779.00,0.0007
3778.00,0.0007
3777.00,0.0007
3776.00,0.0007
3775.00,0.0007
3774.00,0.0007
3773.00,0.0006
3772.00,0.0006
3771.00,0.0006
3770.00,0.0006
3769.00,0.0007
3768.00,0.0007
3767.00,0.0008
3766.00,0.0009
3765.00,0.0009
3764.00,0.0009
3763.00,0.0008
3762.00,0.0008
3761.00,0.0007
3760.00,0.0007
3759.00,0.0007
3758.00,0.0007
3757.00,0.0007
3756.00,0.0007
3755.00,0.0006
3754.00,0.0005
3753.00,0.0005
3752.00,0.0004
3751.00,0.0004
3750.00,0.0004
3749.00,0.0005
3748.00,0.0005
3747.00,0.0006
3746.00,0.0006
3745.00,0.0007
3744.00,0.0006
3743.00,0.0005
3742.00,0.0005
3741.00,0.0004
3740.00,0.0003
3739.00,0.0003
3738.00,0.0003
3737.00,0.0003
3736.00,0.0003
3735.00,0.0004
3734.00,0.0005
3733.00,0.0006
3732.00,0.0006
3731.00,0.0005
3730.00,0.0005
3729.00,0.0005
3728.00,0.0005
3727.00,0.0005
3726.00,0.0005
3725.00,0.0005
3724.00,0.0005
3723.00,0.0005
3722.00,0.0005
3721.00,0.0005
3720.00,0.0005
3719.00,0.0005
3718.00,0.0005
3717.00,0.0005
3716.00,0.0005
3715.00,0.0005
3714.00,0.0005
3713.00,0.0006
3712.00,0.0006
3711.00,0.0006
3710.00,0.0006
3709.00,0.0005
3708.00,0.0005
3707.00,0.0004
3706.00,0.0004
3705.00,0.0003
3704.00,0.0003
3703.00,0.0003
3702.00,0.0003
3701.00,0.0003
3700.00,0.0003
3699.00,0.0003
3698.00,0.0003
3697.00,0.0003
3696.00,0.0003
3695.00,0.0003
3694.00,0.0002
3693.00,0.0002
3692.00,0.0002
3691.00,0.0001
3690.00,0.0001
3689.00,0.0001
3688.00,0.0000
3687.00,-0.0000
3686.00,-0.0001
3685.00,-0.0001
3684.00,-0.0002
3683.00,-0.0003
3682.00,-0.0003
3681.00,-0.0004
3680.00,-0.0005
3679.00,-0.0007
3678.00,-0.0008
3677.00,-0.0010
3676.00,-0.0011
3675.00,-0.0013
3674.00,-0.0013
3673.00,-0.0014
3672.00,-0.0015
3671.00,-0.0015
3670.00,-0.0015
3669.00,-0.0014
3668.00,-0.0015
3667.00,-0.0016
3666.00,-0.0016
3665.00,-0.0017
3664.00,-0.0018
3663.00,-0.0018
3662.00,-0.0018
3661.00,-0.0019
3660.00,-0.0019
3659.00,-0.0019
3658.00,-0.0020
3657.00,-0.0019
3656.00,-0.0019
3655.00,-0.0018
3654.00,-0.0018
3653.00,-0.0018
3652.00,-0.0018
3651.00,-0.0018
3650.00,-0.0018
3649.00,-0.0018
3648.00,-0.0017
3647.00,-0.0016
3646.00,-0.0015
3645.00,-0.0014
3644.00,-0.0013
3643.00,-0.0011
3642.00,-0.0010
3641.00,-0.0010
3640.00,-0.0010
3639.00,-0.0010
3638.00,-0.0011
3637.00,-0.0010
3636.00,-0.0009
3635.00,-0.0007
3634.00,-0.0005
3633.00,-0.0003
3632.00,-0.0002
3631.00,-0.0002
3630.00,-0.0002
3629.00,-0.0001
3628.00,-0.0001
3627.00,-0.0001
3626.00,-0.0000
3625.00,0.0000
3624.00,0.0000
3623.00,0.0001
3622.00,0.0001
3621.00,0.0001
3620.00,0.0001
3619.00,0.0002
3618.00,0.0002
3617.00,0.0002
3616.00,0.0002
3615.00,0.0003
3614.00,0.0003
3613.00,0.0004
3612.00,0.0004
3611.00,0.0005
3610.00,0.0005
3609.00,0.0006
3608.00,0.0006
3607.00,0.0006
3606.00,0.0006
3605.00,0.0006
3604.00,0.0006
3603.00,0.0006
3602.00,0.0006
3601.00,0.0007
3600.00,0.0007
3599.00,0.0008
3598.00,0.0008
3597.00,0.0008
3596.00,0.0008
3595.00,0.0008
3594.00,0.0008
3593.00,0.0008
3592.00,0.0009
3591.00,0.0009
3590.00,0.0008
3589.00,0.0009
3588.00,0.0009
3587.00,0.0009
3586.00,0.0009
3585.00,0.0009
3584.00,0.0009
3583.00,0.0010
3582.00,0.0010
3581.00,0.0010
3580.00,0.0010
3579.00,0.0010
3578.00,0.0010
3577.00,0.0010
3576.00,0.0010
3575.00,0.0010
3574.00,0.0010
3573.00,0.0010
3572.00,0.0010
3571.00,0.0010
3570.00,0.0010
3569.00,0.0010
3568.00,0.0010
3567.00,0.0011
3566.00,0.0011
3565.00,0.0011
3564.00,0.0011
3563.00,0.0011
3562.00,0.0011
3561.00,0.0011
3560.00,0.0012
3559.00,0.0013
3558.00,0.0013
3557.00,0.0014
3556.00,0.0014
3555.00,0.0013
3554.00,0.0013
3553.00,0.0013
3552.00,0.0014
3551.00,0.0014
3550.00,0.0015
3549.00,0.0015
3548.00,0.0015
3547.00,0.0016
3546.00,0.0016
3545.00,0.0016
3544.00,0.0016
3543.00,0.0016
3542.00,0.0016
3541.00,0.0016
3540.00,0.0016
3539.00,0.0016
3538.00,0.0017
3537.00,0.0017
3536.00,0.0017
3535.00,0.0016
3534.00,0.0016
3533.00,0.0017
3532.00,0.0017
3531.00,0.0017
3530.00,0.0017
3529.00,0.0017
3528.00,0.0018
3527.00,0.0018
3526.00,0.0018
3525.00,0.0018
3524.00,0.0018
3523.00,0.0019
3522.00,0.0019
3521.00,0.0020
3520.00,0.0020
3519.00,0.0020
3518.00,0.0020
3517.00,0.0020
3516.00,0.0020
3515.00,0.0020
3514.00,0.0020
3513.00,0.0020
3512.00,0.0020
3511.00,0.0020
3510.00,0.0020
3509.00,0.0021
3508.00,0.0021
3507.00,0.0022
3506.00,0.0022
3505.00,0.0023
3504.00,0.0023
3503.00,0.0023
3502.00,0.0022
3501.00,0.0022
3500.00,0.0023
3499.00,0.0023
3498.00,0.0023
3497.00,0.0024
3496.00,0.0024
3495.00,0.0024
3494.00,0.0024
3493.00,0.0024
3492.00,0.0024
3491.00,0.0024
3490.00,0.0024
3489.00,0.0024
3488.00,0.0024
3487.00,0.0024
3486.00,0.0024
3485.00,0.0024
3484.00,0.0024
3483.00,0.0025
3482.00,0.0025
3481.00,0.0025
3480.00,0.0025
3479.00,0.0025
3478.00,0.0025
3477.00,0.0025
3476.00,0.0025
3475.00,0.0026
3474.00,0.0027
3473.00,0.0027
3472.00,0.0027
3471.00,0.0027
3470.00,0.0027
3469.00,0.0027
3468.00,0.0028
3467.00,0.0028
3466.00,0.0028
3465.00,0.0028
3464.00,0.0028
3463.00,0.0028
3462.00,0.0028
3461.00,0.0028
3460.00,0.0028
3459.00,0.0028
3458.00,0.0028
3457.00,0.0028
3456.00,0.0028
3455.00,0.0028
3454.00,0.0029
3453.00,0.0029
3452.00,0.0030
3451.00,0.0030
3450.00,0.0031
3449.00,0.0031
3448.00,0.0031
3447.00,0.0031
3446.00,0.0030
3445.00,0.0030
3444.00,0.0030
3443.00,0.0030
3442.00,0.0031
3441.00,0.0031
3440.00,0.0032
3439.00,0.0032
3438.00,0.0032
3437.00,0.0032
3436.00,0.0032
3435.00,0.0032
3434.00,0.0032
3433.00,0.0033
3432.00,0.0033
3431.00,0.0034
3430.00,0.0034
3429.00,0.0034
3428.00,0.0034
3427.00,0.0034
3426.00,0.0034
3425.00,0.0034
3424.00,0.0034
3423.00,0.0034
3422.00,0.0034
3421.00,0.0034
3420.00,0.0034
3419.00,0.0034
3418.00,0.0035
3417.00,0.0035
3416.00,0.0036
3415.00,0.0036
3414.00,0.0036
3413.00,0.0037
3412.00,0.0037
3411.00,0.0037
3410.00,0.0037
3409.00,0.0037
3408.00,0.0037
3407.00,0.0037
3406.00,0.0037
3405.00,0.0037
3404.00,0.0037
3403.00,0.0037
3402.00,0.0037
3401.00,0.0037
3400.00,0.0037
3399.00,0.0038
3398.00,0.0038
3397.00,0.0038
3396.00,0.0038
3395.00,0.0038
3394.00,0.0038
3393.00,0.0039
3392.00,0.0039
3391.00,0.0039
3390.00,0.0039
3389.00,0.0040
3388.00,0.0040
3387.00,0.0040
3386.00,0.0041
3385.00,0.0041
3384.00,0.0040
3383.00,0.0040
3382.00,0.0040
3381.00,0.0040
3380.00,0.0040
3379.00,0.0041
3378.00,0.0041
3377.00,0.0042
3376.00,0.0042
3375.00,0.0042
3374.00,0.0042
3373.00,0.0041
3372.00,0.0041
3371.00,0.0041
3370.00,0.0042
3369.00,0.0042
3368.00,0.0042
3367.00,0.0042
3366.00,0.0042
3365.00,0.0042
3364.00,0.0043
3363.00,0.0043
3362.00,0.0043
3361.00,0.0043
3360.00,0.0043
3359.00,0.0043
3358.00,0.0043
3357.00,0.0043
3356.00,0.0043
3355.00,0.0043
3354.00,0.0044
3353.00,0.0044
3352.00,0.0045
3351.00,0.0045
3350.00,0.0045
3349.00,0.0045
3348.00,0.0045
3347.00,0.0044
3346.00,0.0044
3345.00,0.0045
3344.00,0.0045
3343.00,0.0045
3342.00,0.0045
3341.00,0.0045
3340.00,0.0045
3339.00,0.0045
3338.00,0.0045
3337.00,0.0045
3336.00,0.0045
3335.00,0.0045
3334.00,0.0046
3333.00,0.0046
3332.00,0.0046
3331.00,0.0046
3330.00,0.0045
3329.00,0.0045
3328.00,0.0045
3327.00,0.0046
3326.00,0.0046
3325.00,0.0046
3324.00,0.0045
3323.00,0.0045
3322.00,0.0045
3321.00,0.0045
3320.00,0.0046
3319.00,0.0046
3318.00,0.0047
3317.00,0.0047
3316.00,0.0047
3315.00,0.0047
3314.00,0.0047
3313.00,0.0047
3312.00,0.0047
3311.00,0.0047
3310.00,0.0046
3309.00,0.0046
3308.00,0.0047
3307.00,0.0047
3306.00,0.0047
3305.00,0.0047
3304.00,0.0048
3303.00,0.0048
3302.00,0.0048
3301.00,0.0048
3300.00,0.0048
3299.00,0.0048
3298.00,0.0047
3297.00,0.0047
3296.00,0.0047
3295.00,0.0047
3294.00,0.0047
3293.00,0.0048
3292.00,0.0048
3291.00,0.0048
3290.00,0.0048
3289.00,0.0048
3288.00,0.0048
3287.00,0.0048
3286.00,0.0047
3285.00,0.0047
3284.00,0.0047
3283.00,0.0047
3282.00,0.0047
3281.00,0.0047
3280.00,0.0046
3279.00,0.0046
3278.00,0.0046
3277.00,0.0046
3276.00,0.0046
3275.00,0.0046
3274.00,0.0046
3273.00,0.0045
3272.00,0.0045
3271.00,0.0045
3270.00,0.0045
3269.00,0.0045
3268.00,0.0045
3267.00,0.0045
3266.00,0.0045
3265.00,0.0045
3264.00,0.0044
3263.00,0.0044
3262.00,0.0044
3261.00,0.0044
3260.00,0.0044
3259.00,0.0043
3258.00,0.0043
3257.00,0.0042
3256.00,0.0042
3255.00,0.0041
3254.00,0.0041
3253.00,0.0041
3252.00,0.0041
3251.00,0.0041
3250.00,0.0041
3249.00,0.0041
3248.00,0.0040
3247.00,0.0040
3246.00,0.0040
3245.00,0.0040
3244.00,0.0040
3243.00,0.0040
3242.00,0.0040
3241.00,0.0040
3240.00,0.0040
3239.00,0.0040
3238.00,0.0039
3237.00,0.0039
3236.00,0.0039
3235.00,0.0039
3234.00,0.0039
3233.00,0.0039
3232.00,0.0039
3231.00,0.0039
3230.00,0.0039
3229.00,0.0040
3228.00,0.0040
3227.00,0.0041
3226.00,0.0041
3225.00,0.0040
3224.00,0.0040
3223.00,0.0040
3222.00,0.0041
3221.00,0.0041
3220.00,0.0041
3219.00,0.0041
3218.00,0.0041
3217.00,0.0041
3216.00,0.0041
3215.00,0.0041
3214.00,0.0041
3213.00,0.0042
3212.00,0.0042
3211.00,0.0042
3210.00,0.0042
3209.00,0.0042
3208.00,0.0042
3207.00,0.0043
3206.00,0.0043
3205.00,0.0043
3204.00,0.0043
3203.00,0.0043
3202.00,0.0043
3201.00,0.0042
3200.00,0.0042
3199.00,0.0042
3198.00,0.0042
3197.00,0.0042
3196.00,0.0042
3195.00,0.0042
3194.00,0.0042
3193.00,0.0042
3192.00,0.0042
3191.00,0.0042
3190.00,0.0042
3189.00,0.0041
3188.00,0.0041
3187.00,0.0041
3186.00,0.0041
3185.00,0.0041
3184.00,0.0041
3183.00,0.0041
3182.00,0.0041
3181.00,0.0041
3180.00,0.0041
3179.00,0.0040
3178.00,0.0040
3177.00,0.0040
3176.00,0.0040
3175.00,0.0039
3174.00,0.0039
3173.00,0.0039
3172.00,0.0039
3171.00,0.0038
3170.00,0.0038
3169.00,0.0037
3168.00,0.0037
3167.00,0.0037
3166.00,0.0037
3165.00,0.0038
3164.00,0.0038
3163.00,0.0038
3162.00,0.0038
3161.00,0.0038
3160.00,0.0038
3159.00,0.0039
3158.00,0.0039
3157.00,0.0039
3156.00,0.0040
3155.00,0.0040
3154.00,0.0040
3153.00,0.0039
3152.00,0.0039
3151.00,0.0039
3150.00,0.0038
3149.00,0.0038
3148.00,0.0038
3147.00,0.0038
3146.00,0.0038
3145.00,0.0037
3144.00,0.0037
3143.00,0.0037
3142.00,0.0037
3141.00,0.0037
3140.00,0.0036
3139.00,0.0036
3138.00,0.0036
3137.00,0.0036
3136.00,0.0036
3135.00,0.0036
3134.00,0.0035
3133.00,0.0035
3132.00,0.0035
3131.00,0.0035
3130.00,0.0035
3129.00,0.0035
3128.00,0.0035
3127.00,0.0034
3126.00,0.0034
3125.00,0.0034
3124.00,0.0034
3123.00,0.0033
3122.00,0.0033
3121.00,0.0033
3120.00,0.0032
3119.00,0.0032
3118.00,0.0032
3117.00,0.0032
3116.00,0.0032
3115.00,0.0032
3114.00,0.0032
3113.00,0.0032
3112.00,0.0032
3111.00,0.0032
3110.00,0.0032
3109.00,0.0032
3108.00,0.0032
3107.00,0.0032
3106.00,0.0032
3105.00,0.0032
3104.00,0.0032
3103.00,0.0031
3102.00,0.0031
3101.00,0.0031
3100.00,0.0031
3099.00,0.0031
3098.00,0.0031
3097.00,0.0031
3096.00,0.0031
3095.00,0.0031
3094.00,0.0031
3093.00,0.0031
3092.00,0.0031
3091.00,0.0031
3090.00,0.0031
3089.00,0.0031
3088.00,0.0031
3087.00,0.0031
3086.00,0.0031
3085.00,0.0030
3084.00,0.0030
3083.00,0.0030
3082.00,0.0030
3081.00,0.0030
3080.00,0.0030
3079.00,0.0030
3078.00,0.0030
3077.00,0.0031
3076.00,0.0031
3075.00,0.0032
3074.00,0.0033
3073.00,0.0033
3072.00,0.0033
3071.00,0.0033
3070.00,0.0033
3069.00,0.0033
3068.00,0.0033
3067.00,0.0034
3066.00,0.0034
3065.00,0.0034
3064.00,0.0034
3063.00,0.0034
3062.00,0.0034
3061.00,0.0035
3060.00,0.0035
3059.00,0.0035
3058.00,0.0036
3057.00,0.0036
3056.00,0.0036
3055.00,0.0036
3054.00,0.0035
3053.00,0.0035
3052.00,0.0036
3051.00,0.0036
3050.00,0.0036
3049.00,0.0036
3048.00,0.0036
3047.00,0.0036
3046.00,0.0037
3045.00,0.0037
3044.00,0.0037
3043.00,0.0037
3042.00,0.0038
3041.00,0.0038
3040.00,0.0038
3039.00,0.0038
3038.00,0.0038
3037.00,0.0038
3036.00,0.0038
3035.00,0.0039
3034.00,0.0039
3033.00,0.0040
3032.00,0.0040
3031.00,0.0040
3030.00,0.0040
3029.00,0.0040
3028.00,0.0040
3027.00,0.0041
3026.00,0.0041
3025.00,0.0041
3024.00,0.0041
3023.00,0.0041
3022.00,0.0041
3021.00,0.0041
3020.00,0.0041
3019.00,0.0040
3018.00,0.0039
3017.00,0.0039
3016.00,0.0038
3015.00,0.0036
3014.00,0.0035
3013.00,0.0033
3012.00,0.0030
3011.00,0.0027
3010.00,0.0024
3009.00,0.0021
3008.00,0.0017
3007.00,0.0013
3006.00,0.0009
3005.00,0.0005
3004.00,0.0000
3003.00,-0.0004
3002.00,-0.0009
3001.00,-0.0012
3000.00,-0.0016
2999.00,-0.0018
2998.00,-0.0020
2997.00,-0.0021
2996.00,-0.0022
2995.00,-0.0022
2994.00,-0.0021
2993.00,-0.0019
2992.00,-0.0017
2991.00,-0.0014
2990.00,-0.0011
2989.00,-0.0007
2988.00,-0.0004
2987.00,-0.0002
2986.00,-0.0002
2985.00,-0.0007
2984.00,-0.0014
2983.00,-0.0020
2982.00,-0.0017
2981.00,-0.0002
2980.00,0.0023
2979.00,0.0055
2978.00,0.0091
2977.00,0.0129
2976.00,0.0167
2975.00,0.0206
2974.00,0.0246
2973.00,0.0291
2972.00,0.0343
2971.00,0.0405
2970.00,0.0476
2969.00,0.0556
2968.00,0.0639
2967.00,0.0725
2966.00,0.0812
2965.00,0.0898
2964.00,0.0979
2963.00,0.1051
2962.00,0.1113
2961.00,0.1163
2960.00,0.1205
2959.00,0.1244
2958.00,0.1286
2957.00,0.1339
2956.00,0.1407
2955.00,0.1493
2954.00,0.1595
2953.00,0.1704
2952.00,0.1811
2951.00,0.1900
2950.00,0.1956
2949.00,0.1967
2948.00,0.1928
2947.00,0.1841
2946.00,0.1717
2945.00,0.1575
2944.00,0.1431
2943.00,0.1301
2942.00,0.1194
2941.00,0.1115
2940.00,0.1064
2939.00,0.1038
2938.00,0.1036
2937.00,0.1054
2936.00,0.1091
2935.00,0.1145
2934.00,0.1214
2933.00,0.1298
2932.00,0.1395
2931.00,0.1505
2930.00,0.1624
2929.00,0.1748
2928.00,0.1875
2927.00,0.2001
2926.00,0.2123
2925.00,0.2241
2924.00,0.2358
2923.00,0.2474
2922.00,0.2592
2921.00,0.2709
2920.00,0.2816
2919.00,0.2903
2918.00,0.2955
2917.00,0.2962
2916.00,0.2921
2915.00,0.2838
2914.00,0.2723
2913.00,0.2593
2912.00,0.2459
2911.00,0.2332
2910.00,0.2214
2909.00,0.2108
2908.00,0.2011
2907.00,0.1919
2906.00,0.1832
2905.00,0.1747
2904.00,0.1663
2903.00,0.1582
2902.00,0.1504
2901.00,0.1429
2900.00,0.1357
2899.00,0.1291
2898.00,0.1230
2897.00,0.1175
2896.00,0.1126
2895.00,0.1084
2894.00,0.1050
2893.00,0.1024
2892.00,0.1005
2891.00,0.0994
2890.00,0.0989
2889.00,0.0990
2888.00,0.0996
2887.00,0.1006
2886.00,0.1019
2885.00,0.1035
2884.00,0.1058
2883.00,0.1086
2882.00,0.1120
2881.00,0.1156
2880.00,0.1192
2879.00,0.1223
2878.00,0.1244
2877.00,0.1253
2876.00,0.1252
2875.00,0.1245
2874.00,0.1239
2873.00,0.1239
2872.00,0.1248
2871.00,0.1267
2870.00,0.1293
2869.00,0.1322
2868.00,0.1345
2867.00,0.1351
2866.00,0.1331
2865.00,0.1280
2864.00,0.1201
2863.00,0.1101
2862.00,0.0995
2861.00,0.0894
2860.00,0.0806
2859.00,0.0735
2858.00,0.0681
2857.00,0.0641
2856.00,0.0615
2855.00,0.0598
2854.00,0.0590
2853.00,0.0590
2852.00,0.0598
2851.00,0.0612
2850.00,0.0633
2849.00,0.0661
2848.00,0.0696
2847.00,0.0738
2846.00,0.0790
2845.00,0.0850
2844.00,0.0919
2843.00,0.0993
2842.00,0.1067
2841.00,0.1137
2840.00,0.1192
2839.00,0.1225
2838.00,0.1229
2837.00,0.1198
2836.00,0.1133
2835.00,0.1042
2834.00,0.0935
2833.00,0.0824
2832.00,0.0719
2831.00,0.0626
2830.00,0.0548
2829.00,0.0484
2828.00,0.0432
2827.00,0.0390
2826.00,0.0356
2825.00,0.0328
2824.00,0.0305
2823.00,0.0285
2822.00,0.0269
2821.00,0.0254
2820.00,0.0242
2819.00,0.0231
2818.00,0.0222
2817.00,0.0214
2816.00,0.0206
2815.00,0.0200
2814.00,0.0194
2813.00,0.0188
2812.00,0.0183
2811.00,0.0178
2810.00,0.0172
2809.00,0.0166
2808.00,0.0160
2807.00,0.0153
2806.00,0.0146
2805.00,0.0139
2804.00,0.0132
2803.00,0.0126
2802.00,0.0121
2801.00,0.0117
2800.00,0.0113
2799.00,0.0110
2798.00,0.0107
2797.00,0.0104
2796.00,0.0102
2795.00,0.0099
2794.00,0.0097
2793.00,0.0095
2792.00,0.0092
2791.00,0.0089
2790.00,0.0086
2789.00,0.0083
2788.00,0.0080
2787.00,0.0078
2786.00,0.0075
2785.00,0.0073
2784.00,0.0071
2783.00,0.0069
2782.00,0.0067
2781.00,0.0065
2780.00,0.0063
2779.00,0.0061
2778.00,0.0060
2777.00,0.0058
2776.00,0.0058
2775.00,0.0057
2774.00,0.0056
2773.00,0.0056
2772.00,0.0055
2771.00,0.0054
2770.00,0.0054
2769.00,0.0054
2768.00,0.0053
2767.00,0.0053
2766.00,0.0053
2765.00,0.0052
2764.00,0.0052
2763.00,0.0052
2762.00,0.0052
2761.00,0.0051
2760.00,0.0050
2759.00,0.0050
2758.00,0.0049
2757.00,0.0049
2756.00,0.0049
2755.00,0.0049
2754.00,0.0049
2753.00,0.0049
2752.00,0.0049
2751.00,0.0050
2750.00,0.0050
2749.00,0.0050
2748.00,0.0049
2747.00,0.0050
2746.00,0.0050
2745.00,0.0051
2744.00,0.0051
2743.00,0.0052
2742.00,0.0053
2741.00,0.0055
2740.00,0.0056
2739.00,0.0058
2738.00,0.0059
2737.00,0.0061
2736.00,0.0063
2735.00,0.0064
2734.00,0.0066
2733.00,0.0068
2732.00,0.0070
2731.00,0.0072
2730.00,0.0074
2729.00,0.0077
2728.00,0.0080
2727.00,0.0083
2726.00,0.0086
2725.00,0.0089
2724.00,0.0090
2723.00,0.0091
2722.00,0.0090
2721.00,0.0088
2720.00,0.0086
2719.00,0.0082
2718.00,0.0079
2717.00,0.0075
2716.00,0.0072
2715.00,0.0068
2714.00,0.0066
2713.00,0.0063
2712.00,0.0061
2711.00,0.0059
2710.00,0.0057
2709.00,0.0055
2708.00,0.0053
2707.00,0.0051
2706.00,0.0050
2705.00,0.0049
2704.00,0.0048
2703.00,0.0048
2702.00,0.0047
2701.00,0.0046
2700.00,0.0046
2699.00,0.0045
2698.00,0.0045
2697.00,0.0044
2696.00,0.0044
2695.00,0.0043
2694.00,0.0043
2693.00,0.0043
2692.00,0.0042
2691.00,0.0042
2690.00,0.0043
2689.00,0.0043
2688.00,0.0042
2687.00,0.0042
2686.00,0.0042
2685.00,0.0042
2684.00,0.0042
2683.00,0.0042
2682.00,0.0042
2681.00,0.0043
2680.00,0.0043
2679.00,0.0044
2678.00,0.0044
2677.00,0.0043
2676.00,0.0043
2675.00,0.0043
2674.00,0.0043
2673.00,0.0042
2672.00,0.0042
2671.00,0.0042
2670.00,0.0042
2669.00,0.0041
2668.00,0.0041
2667.00,0.0042
2666.00,0.0042
2665.00,0.0043
2664.00,0.0043
2663.00,0.0044
2662.00,0.0045
2661.00,0.0045
2660.00,0.0046
2659.00,0.0046
2658.00,0.0046
2657.00,0.0045
2656.00,0.0045
2655.00,0.0044
2654.00,0.0043
2653.00,0.0042
2652.00,0.0042
2651.00,0.0041
2650.00,0.0041
2649.00,0.0040
2648.00,0.0040
2647.00,0.0040
2646.00,0.0040
2645.00,0.0039
2644.00,0.0039
2643.00,0.0038
2642.00,0.0038
2641.00,0.0038
2640.00,0.0037
2639.00,0.0037
2638.00,0.0036
2637.00,0.0036
2636.00,0.0036
2635.00,0.0036
2634.00,0.0036
2633.00,0.0036
2632.00,0.0037
2631.00,0.0037
2630.00,0.0038
2629.00,0.0038
2628.00,0.0038
2627.00,0.0038
2626.00,0.0038
2625.00,0.0038
2624.00,0.0038
2623.00,0.0039
2622.00,0.0039
2621.00,0.0039
2620.00,0.0039
2619.00,0.0040
2618.00,0.0040
2617.00,0.0040
2616.00,0.0040
2615.00,0.0040
2614.00,0.0040
2613.00,0.0039
2612.00,0.0039
2611.00,0.0038
2610.00,0.0038
2609.00,0.0037
2608.00,0.0036
2607.00,0.0035
2606.00,0.0034
2605.00,0.0034
2604.00,0.0033
2603.00,0.0033
2602.00,0.0033
2601.00,0.0033
2600.00,0.0033
2599.00,0.0033
2598.00,0.0033
2597.00,0.0034
2596.00,0.0034
2595.00,0.0034
2594.00,0.0034
2593.00,0.0035
2592.00,0.0035
2591.00,0.0035
2590.00,0.0036
2589.00,0.0036
2588.00,0.0037
2587.00,0.0038
2586.00,0.0039
2585.00,0.0040
2584.00,0.0041
2583.00,0.0041
2582.00,0.0042
2581.00,0.0041
2580.00,0.0041
2579.00,0.0040
2578.00,0.0039
2577.00,0.0038
2576.00,0.0037
2575.00,0.0035
2574.00,0.0034
2573.00,0.0033
2572.00,0.0031
2571.00,0.0030
2570.00,0.0029
2569.00,0.0029
2568.00,0.0028
2567.00,0.0028
2566.00,0.0028
2565.00,0.0028
2564.00,0.0028
2563.00,0.0027
2562.00,0.0026
2561.00,0.0026
2560.00,0.0025
2559.00,0.0024
2558.00,0.0023
2557.00,0.0023
2556.00,0.0023
2555.00,0.0023
2554.00,0.0023
2553.00,0.0022
2552.00,0.0021
2551.00,0.0021
2550.00,0.0021
2549.00,0.0021
2548.00,0.0021
2547.00,0.0020
2546.00,0.0020
2545.00,0.0019
2544.00,0.0019
2543.00,0.0018
2542.00,0.0018
2541.00,0.0018
2540.00,0.0018
2539.00,0.0018
2538.00,0.0017
2537.00,0.0016
2536.00,0.0016
2535.00,0.0016
2534.00,0.0016
2533.00,0.0016
2532.00,0.0017
2531.00,0.0017
2530.00,0.0017
2529.00,0.0016
2528.00,0.0016
2527.00,0.0015
2526.00,0.0015
2525.00,0.0015
2524.00,0.0015
2523.00,0.0014
2522.00,0.0013
2521.00,0.0013
2520.00,0.0012
2519.00,0.0012
2518.00,0.0012
2517.00,0.0011
2516.00,0.0011
2515.00,0.0011
2514.00,0.0011
2513.00,0.0011
2512.00,0.0011
2511.00,0.0011
2510.00,0.0011
2509.00,0.0010
2508.00,0.0010
2507.00,0.0010
2506.00,0.0010
2505.00,0.0010
2504.00,0.0010
2503.00,0.0009
2502.00,0.0009
2501.00,0.0009
2500.00,0.0009
2499.00,0.0009
2498.00,0.0010
2497.00,0.0010
2496.00,0.0011
2495.00,0.0011
2494.00,0.0010
2493.00,0.0010
2492.00,0.0009
2491.00,0.0009
2490.00,0.0009
2489.00,0.0010
2488.00,0.0010
2487.00,0.0010
2486.00,0.0010
2485.00,0.0010
2484.00,0.0010
2483.00,0.0010
2482.00,0.0010
2481.00,0.0011
2480.00,0.0011
2479.00,0.0011
2478.00,0.0011
2477.00,0.0011
2476.00,0.0010
2475.00,0.0009
2474.00,0.0009
2473.00,0.0009
2472.00,0.0009
2471.00,0.0010
2470.00,0.0010
2469.00,0.0011
2468.00,0.0011
2467.00,0.0011
2466.00,0.0010
2465.00,0.0010
2464.00,0.0009
2463.00,0.0009
2462.00,0.0009
2461.00,0.0010
2460.00,0.0010
2459.00,0.0010
2458.00,0.0010
2457.00,0.0010
2456.00,0.0010
2455.00,0.0011
2454.00,0.0011
2453.00,0.0011
2452.00,0.0011
2451.00,0.0011
2450.00,0.0011
2449.00,0.0011
2448.00,0.0012
2447.00,0.0012
2446.00,0.0012
2445.00,0.0012
2444.00,0.0011
2443.00,0.0010
2442.00,0.0010
2441.00,0.0010
2440.00,0.0011
2439.00,0.0012
2438.00,0.0012
2437.00,0.0012
2436.00,0.0013
2435.00,0.0013
2434.00,0.0013
2433.00,0.0013
2432.00,0.0014
2431.00,0.0014
2430.00,0.0014
2429.00,0.0014
2428.00,0.0014
2427.00,0.0014
2426.00,0.0013
2425.00,0.0013
2424.00,0.0013
2423.00,0.0012
2422.00,0.0012
2421.00,0.0012
2420.00,0.0012
2419.00,0.0012
2418.00,0.0012
2417.00,0.0012
2416.00,0.0011
2415.00,0.0011
2414.00,0.0011
2413.00,0.0010
2412.00,0.0010
2411.00,0.0010
2410.00,0.0010
2409.00,0.0011
2408.00,0.0011
2407.00,0.0010
2406.00,0.0009
2405.00,0.0009
2404.00,0.0009
2403.00,0.0009
2402.00,0.0009
2401.00,0.0009
2400.00,0.0009
2399.00,0.0009
2398.00,0.0009
2397.00,0.0008
2396.00,0.0008
2395.00,0.0008
2394.00,0.0008
2393.00,0.0009
2392.00,0.0009
2391.00,0.0008
2390.00,0.0008
2389.00,0.0007
2388.00,0.0007
2387.00,0.0006
2386.00,0.0006
2385.00,0.0005
2384.00,0.0005
2383.00,0.0004
2382.00,0.0004
2381.00,0.0003
2380.00,0.0003
2379.00,0.0003
2378.00,0.0002
2377.00,0.0002
2376.00,0.0002
2375.00,0.0002
2374.00,0.0003
2373.00,0.0003
2372.00,0.0003
2371.00,0.0003
2370.00,0.0003
2369.00,0.0002
2368.00,0.0002
2367.00,0.0002
2366.00,0.0001
2365.00,0.0001
2364.00,0.0001
2363.00,0.0001
2362.00,0.0001
2361.00,0.0002
2360.00,0.0003
2359.00,0.0004
2358.00,0.0004
2357.00,0.0004
2356.00,0.0004
2355.00,0.0004
2354.00,0.0003
2353.00,0.0003
2352.00,0.0002
2351.00,0.0001
2350.00,0.0002
2349.00,0.0003
2348.00,0.0005
2347.00,0.0005
2346.00,0.0005
2345.00,0.0005
2344.00,0.0005
2343.00,0.0005
2342.00,0.0005
2341.00,0.0006
2340.00,0.0006
2339.00,0.0006
2338.00,0.0006
2337.00,0.0006
2336.00,0.0006
2335.00,0.0007
2334.00,0.0007
2333.00,0.0006
2332.00,0.0006
2331.00,0.0006
2330.00,0.0006
2329.00,0.0007
2328.00,0.0008
2327.00,0.0011
2326.00,0.0015
2325.00,0.0017
2324.00,0.0018
2323.00,0.0017
2322.00,0.0015
2321.00,0.0013
2320.00,0.0012
2319.00,0.0011
2318.00,0.0011
2317.00,0.0010
2316.00,0.0009
2315.00,0.0008
2314.00,0.0007
2313.00,0.0006
2312.00,0.0006
2311.00,0.0006
2310.00,0.0006
2309.00,0.0005
2308.00,0.0005
2307.00,0.0005
2306.00,0.0006
2305.00,0.0007
2304.00,0.0007
2303.00,0.0007
2302.00,0.0007
2301.00,0.0008
2300.00,0.0009
2299.00,0.0010
2298.00,0.0012
2297.00,0.0013
2296.00,0.0013
2295.00,0.0013
2294.00,0.0014
2293.00,0.0014
2292.00,0.0016
2291.00,0.0017
2290.00,0.0017
2289.00,0.0017
2288.00,0.0018
2287.00,0.0018
2286.00,0.0018
2285.00,0.0019
2284.00,0.0019
2283.00,0.0019
2282.00,0.0018
2281.00,0.0017
2280.00,0.0015
2279.00,0.0014
2278.00,0.0013
2277.00,0.0013
2276.00,0.0012
2275.00,0.0012
2274.00,0.0012
2273.00,0.0012
2272.00,0.0012
2271.00,0.0013
2270.00,0.0013
2269.00,0.0013
2268.00,0.0014
2267.00,0.0013
2266.00,0.0012
2265.00,0.0011
2264.00,0.0010
2263.00,0.0009
2262.00,0.0009
2261.00,0.0009
2260.00,0.0010
2259.00,0.0011
2258.00,0.0012
2257.00,0.0012
2256.00,0.0012
2255.00,0.0011
2254.00,0.0010
2253.00,0.0009
2252.00,0.0008
2251.00,0.0007
2250.00,0.0007
2249.00,0.0008
2248.00,0.0010
2247.00,0.0011
2246.00,0.0012
2245.00,0.0012
2244.00,0.0011
2243.00,0.0010
2242.00,0.0010
2241.00,0.0010
2240.00,0.0009
2239.00,0.0009
2238.00,0.0007
2237.00,0.0007
2236.00,0.0007
2235.00,0.0008
2234.00,0.0010
2233.00,0.0012
2232.00,0.0013
2231.00,0.0013
2230.00,0.0012
2229.00,0.0012
2228.00,0.0011
2227.00,0.0011
2226.00,0.0009
2225.00,0.0008
2224.00,0.0006
2223.00,0.0005
2222.00,0.0005
2221.00,0.0006
2220.00,0.0007
2219.00,0.0008
2218.00,0.0008
2217.00,0.0007
2216.00,0.0006
2215.00,0.0007
2214.00,0.0008
2213.00,0.0008
2212.00,0.0008
2211.00,0.0007
2210.00,0.0006
2209.00,0.0005
2208.00,0.0005
2207.00,0.0005
2206.00,0.0005
2205.00,0.0004
2204.00,0.0004
2203.00,0.0004
2202.00,0.0005
2201.00,0.0006
2200.00,0.0006
2199.00,0.0006
2198.00,0.0005
2197.00,0.0005
2196.00,0.0007
2195.00,0.0009
2194.00,0.0010
2193.00,0.0011
2192.00,0.0011
2191.00,0.0010
2190.00,0.0010
2189.00,0.0010
2188.00,0.0011
2187.00,0.0013
2186.00,0.0014
2185.00,0.0015
2184.00,0.0014
2183.00,0.0012
2182.00,0.0009
2181.00,0.0007
2180.00,0.0007
2179.00,0.0008
2178.00,0.0009
2177.00,0.0010
2176.00,0.0009
2175.00,0.0007
2174.00,0.0005
2173.00,0.0003
2172.00,0.0004
2171.00,0.0006
2170.00,0.0009
2169.00,0.0014
2168.00,0.0017
2167.00,0.0019
2166.00,0.0019
2165.00,0.0020
2164.00,0.0022
2163.00,0.0023
2162.00,0.0021
2161.00,0.0013
2160.00,-0.0000
2159.00,-0.0016
2158.00,-0.0027
2157.00,-0.0029
2156.00,-0.0024
2155.00,-0.0018
2154.00,-0.0013
2153.00,-0.0011
2152.00,-0.0012
2151.00,-0.0013
2150.00,-0.0014
2149.00,-0.0014
2148.00,-0.0013
2147.00,-0.0013
2146.00,-0.0014
2145.00,-0.0014
2144.00,-0.0013
2143.00,-0.0013
2142.00,-0.0012
2141.00,-0.0010
2140.00,-0.0008
2139.00,-0.0007
2138.00,-0.0008
2137.00,-0.0009
2136.00,-0.0012
2135.00,-0.0016
2134.00,-0.0018
2133.00,-0.0018
2132.00,-0.0016
2131.00,-0.0014
2130.00,-0.0012
2129.00,-0.0010
2128.00,-0.0009
2127.00,-0.0009
2126.00,-0.0008
2125.00,-0.0007
2124.00,-0.0006
2123.00,-0.0005
2122.00,-0.0004
2121.00,-0.0003
2120.00,-0.0002
2119.00,-0.0002
2118.00,-0.0002
2117.00,-0.0001
2116.00,-0.0000
2115.00,0.0000
2114.00,0.0000
2113.00,-0.0000
2112.00,-0.0000
2111.00,-0.0000
2110.00,0.0001
2109.00,0.0002
2108.00,0.0002
2107.00,0.0002
2106.00,0.0001
2105.00,0.0001
2104.00,0.0001
2103.00,0.0001
2102.00,0.0001
2101.00,0.0002
2100.00,0.0002
2099.00,0.0003
2098.00,0.0002
2097.00,0.0000
2096.00,-0.0002
2095.00,-0.0003
2094.00,-0.0003
2093.00,-0.0001
2092.00,0.0000
2091.00,0.0001
2090.00,-0.0000
2089.00,-0.0000
2088.00,0.0001
2087.00,0.0002
2086.00,0.0004
2085.00,0.0004
2084.00,0.0004
2083.00,0.0004
2082.00,0.0003
2081.00,0.0003
2080.00,0.0004
2079.00,0.0005
2078.00,0.0006
2077.00,0.0006
2076.00,0.0006
2075.00,0.0005
2074.00,0.0004
2073.00,0.0002
2072.00,0.0001
2071.00,-0.0000
2070.00,-0.0001
2069.00,-0.0000
2068.00,-0.0001
2067.00,-0.0001
2066.00,-0.0001
2065.00,-0.0001
2064.00,0.0001
2063.00,0.0003
2062.00,0.0004
2061.00,0.0006
2060.00,0.0006
2059.00,0.0006
2058.00,0.0004
2057.00,0.0004
2056.00,0.0003
2055.00,0.0004
2054.00,0.0006
2053.00,0.0010
2052.00,0.0014
2051.00,0.0016
2050.00,0.0015
2049.00,0.0012
2048.00,0.0008
2047.00,0.0004
2046.00,0.0001
2045.00,-0.0001
2044.00,-0.0003
2043.00,-0.0004
2042.00,-0.0003
2041.00,-0.0002
2040.00,-0.0000
2039.00,0.0000
2038.00,-0.0000
2037.00,-0.0001
2036.00,-0.0001
2035.00,-0.0001
2034.00,-0.0003
2033.00,-0.0005
2032.00,-0.0008
2031.00,-0.0009
2030.00,-0.0008
2029.00,-0.0006
2028.00,-0.0004
2027.00,-0.0004
2026.00,-0.0005
2025.00,-0.0006
2024.00,-0.0007
2023.00,-0.0009
2022.00,-0.0011
2021.00,-0.0012
2020.00,-0.0012
2019.00,-0.0011
2018.00,-0.0009
2017.00,-0.0007
2016.00,-0.0005
2015.00,-0.0004
2014.00,-0.0005
2013.00,-0.0005
2012.00,-0.0005
2011.00,-0.0005
2010.00,-0.0005
2009.00,-0.0005
2008.00,-0.0006
2007.00,-0.0008
2006.00,-0.0010
2005.00,-0.0012
2004.00,-0.0013
2003.00,-0.0014
2002.00,-0.0015
2001.00,-0.0014
2000.00,-0.0013
1999.00,-0.0012
1998.00,-0.0012
1997.00,-0.0011
1996.00,-0.0009
1995.00,-0.0007
1994.00,-0.0005
1993.00,-0.0003
1992.00,-0.0004
1991.00,-0.0007
1990.00,-0.0010
1989.00,-0.0011
1988.00,-0.0011
1987.00,-0.0011
1986.00,-0.0008
1985.00,-0.0003
1984.00,0.0003
1983.00,0.0010
1982.00,0.0015
1981.00,0.0018
1980.00,0.0018
1979.00,0.0013
1978.00,0.0005
1977.00,-0.0004
1976.00,-0.0010
1975.00,-0.0014
1974.00,-0.0015
1973.00,-0.0014
1972.00,-0.0012
1971.00,-0.0010
1970.00,-0.0010
1969.00,-0.0009
1968.00,-0.0009
1967.00,-0.0009
1966.00,-0.0011
1965.00,-0.0013
1964.00,-0.0014
1963.00,-0.0014
1962.00,-0.0014
1961.00,-0.0014
1960.00,-0.0014
1959.00,-0.0014
1958.00,-0.0013
1957.00,-0.0013
1956.00,-0.0012
1955.00,-0.0012
1954.00,-0.0011
1953.00,-0.0009
1952.00,-0.0008
1951.00,-0.0007
1950.00,-0.0008
1949.00,-0.0009
1948.00,-0.0010
1947.00,-0.0011
1946.00,-0.0012
1945.00,-0.0012
1944.00,-0.0010
1943.00,-0.0010
1942.00,-0.0010
1941.00,-0.0011
1940.00,-0.0012
1939.00,-0.0012
1938.00,-0.0011
1937.00,-0.0010
1936.00,-0.0008
1935.00,-0.0008
1934.00,-0.0008
1933.00,-0.0008
1932.00,-0.0008
1931.00,-0.0008
1930.00,-0.0009
1929.00,-0.0009
1928.00,-0.0008
1927.00,-0.0008
1926.00,-0.0007
1925.00,-0.0007
1924.00,-0.0006
1923.00,-0.0005
1922.00,-0.0004
1921.00,-0.0004
1920.00,-0.0003
1919.00,-0.0003
1918.00,-0.0002
1917.00,-0.0002
1916.00,-0.0001
1915.00,-0.0002
1914.00,-0.0003
1913.00,-0.0003
1912.00,-0.0003
1911.00,-0.0002
1910.00,-0.0001
1909.00,-0.0001
1908.00,-0.0001
1907.00,-0.0002
1906.00,-0.0003
1905.00,-0.0002
1904.00,-0.0001
1903.00,-0.0001
1902.00,-0.0001
1901.00,-0.0002
1900.00,-0.0002
1899.00,-0.0001
1898.00,-0.0000
1897.00,0.0000
1896.00,0.0001
1895.00,0.0001
1894.00,-0.0000
1893.00,-0.0000
1892.00,-0.0000
1891.00,0.0000
1890.00,0.0001
1889.00,0.0001
1888.00,0.0001
1887.00,0.0000
1886.00,-0.0000
1885.00,0.0000
1884.00,0.0001
1883.00,0.0002
1882.00,0.0002
1881.00,0.0002
1880.00,0.0002
1879.00,0.0002
1878.00,0.0002
1877.00,0.0001
1876.00,0.0000
1875.00,-0.0000
1874.00,0.0000
1873.00,0.0001
1872.00,0.0001
1871.00,0.0001
1870.00,0.0001
1869.00,0.0001
1868.00,0.0001
1867.00,0.0001
1866.00,-0.0000
1865.00,-0.0000
1864.00,0.0000
1863.00,0.0001
1862.00,0.0001
1861.00,0.0001
1860.00,0.0000
1859.00,0.0000
1858.00,0.0000
1857.00,0.0000
1856.00,0.0001
1855.00,0.0001
1854.00,0.0000
1853.00,-0.0000
1852.00,-0.0000
1851.00,0.0000
1850.00,0.0001
1849.00,0.0002
1848.00,0.0002
1847.00,0.0002
1846.00,0.0001
1845.00,0.0000
1844.00,0.0001
1843.00,0.0002
1842.00,0.0003
1841.00,0.0003
1840.00,0.0004
1839.00,0.0004
1838.00,0.0004
1837.00,0.0004
1836.00,0.0005
1835.00,0.0004
1834.00,0.0004
1833.00,0.0004
1832.00,0.0005
1831.00,0.0005
1830.00,0.0005
1829.00,0.0005
1828.00,0.0005
1827.00,0.0005
1826.00,0.0005
1825.00,0.0005
1824.00,0.0005
1823.00,0.0005
1822.00,0.0005
1821.00,0.0005
1820.00,0.0004
1819.00,0.0002
1818.00,0.0001
1817.00,0.0001
1816.00,0.0001
1815.00,0.0002
1814.00,0.0002
1813.00,0.0003
1812.00,0.0003
1811.00,0.0003
1810.00,0.0004
1809.00,0.0004
1808.00,0.0005
1807.00,0.0005
1806.00,0.0006
1805.00,0.0006
1804.00,0.0006
1803.00,0.0005
1802.00,0.0005
1801.00,0.0005
1800.00,0.0006
1799.00,0.0006
1798.00,0.0006
1797.00,0.0006
1796.00,0.0006
1795.00,0.0007
1794.00,0.0007
1793.00,0.0008
1792.00,0.0008
1791.00,0.0008
1790.00,0.0007
1789.00,0.0008
1788.00,0.0008
1787.00,0.0008
1786.00,0.0008
1785.00,0.0007
1784.00,0.0007
1783.00,0.0008
1782.00,0.0008
1781.00,0.0009
1780.00,0.0010
1779.00,0.0009
1778.00,0.0009
1777.00,0.0009
1776.00,0.0009
1775.00,0.0008
1774.00,0.0008
1773.00,0.0008
1772.00,0.0008
1771.00,0.0009
1770.00,0.0009
1769.00,0.0010
1768.00,0.0011
1767.00,0.0011
1766.00,0.0011
1765.00,0.0011
1764.00,0.0011
1763.00,0.0012
1762.00,0.0012
1761.00,0.0013
1760.00,0.0014
1759.00,0.0015
1758.00,0.0016
1757.00,0.0018
1756.00,0.0019
1755.00,0.0021
1754.00,0.0022
1753.00,0.0023
1752.00,0.0025
1751.00,0.0027
1750.00,0.0028
1749.00,0.0030
1748.00,0.0031
1747.00,0.0033
1746.00,0.0034
1745.00,0.0034
1744.00,0.0035
1743.00,0.0035
1742.00,0.0036
1741.00,0.0037
1740.00,0.0037
1739.00,0.0036
1738.00,0.0035
1737.00,0.0034
1736.00,0.0033
1735.00,0.0033
1734.00,0.0034
1733.00,0.0034
1732.00,0.0033
1731.00,0.0032
1730.00,0.0031
1729.00,0.0030
1728.00,0.0029
1727.00,0.0029
1726.00,0.0029
1725.00,0.0028
1724.00,0.0028
1723.00,0.0028
1722.00,0.0028
1721.00,0.0028
1720.00,0.0028
1719.00,0.0028
1718.00,0.0028
1717.00,0.0028
1716.00,0.0029
1715.00,0.0029
1714.00,0.0030
1713.00,0.0030
1712.00,0.0030
1711.00,0.0030
1710.00,0.0031
1709.00,0.0031
1708.00,0.0031
1707.00,0.0031
1706.00,0.0032
1705.00,0.0033
1704.00,0.0034
1703.00,0.0035
1702.00,0.0035
1701.00,0.0036
1700.00,0.0037
1699.00,0.0038
1698.00,0.0038
1697.00,0.0039
1696.00,0.0041
1695.00,0.0043
1694.00,0.0045
1693.00,0.0045
1692.00,0.0046
1691.00,0.0047
1690.00,0.0048
1689.00,0.0050
1688.00,0.0051
1687.00,0.0051
1686.00,0.0051
1685.00,0.0052
1684.00,0.0054
1683.00,0.0056
1682.00,0.0058
1681.00,0.0059
1680.00,0.0059
1679.00,0.0060
1678.00,0.0060
1677.00,0.0061
1676.00,0.0063
1675.00,0.0064
1674.00,0.0066
1673.00,0.0067
1672.00,0.0068
1671.00,0.0069
1670.00,0.0071
1669.00,0.0073
1668.00,0.0074
1667.00,0.0075
1666.00,0.0076
1665.00,0.0076
1664.00,0.0077
1663.00,0.0077
1662.00,0.0078
1661.00,0.0078
1660.00,0.0079
1659.00,0.0079
1658.00,0.0080
1657.00,0.0080
1656.00,0.0080
1655.00,0.0080
1654.00,0.0080
1653.00,0.0080
1652.00,0.0080
1651.00,0.0080
1650.00,0.0080
1649.00,0.0080
1648.00,0.0080
1647.00,0.0079
1646.00,0.0079
1645.00,0.0078
1644.00,0.0078
1643.00,0.0078
1642.00,0.0077
1641.00,0.0077
1640.00,0.0077
1639.00,0.0077
1638.00,0.0076
1637.00,0.0075
1636.00,0.0074
1635.00,0.0073
1634.00,0.0073
1633.00,0.0072
1632.00,0.0072
1631.00,0.0072
1630.00,0.0072
1629.00,0.0071
1628.00,0.0070
1627.00,0.0069
1626.00,0.0068
1625.00,0.0068
1624.00,0.0067
1623.00,0.0066
1622.00,0.0066
1621.00,0.0065
1620.00,0.0064
1619.00,0.0063
1618.00,0.0062
1617.00,0.0061
1616.00,0.0060
1615.00,0.0060
1614.00,0.0060
1613.00,0.0060
1612.00,0.0060
1611.00,0.0060
1610.00,0.0059
1609.00,0.0059
1608.00,0.0059
1607.00,0.0059
1606.00,0.0058
1605.00,0.0058
1604.00,0.0058
1603.00,0.0058
1602.00,0.0057
1601.00,0.0057
1600.00,0.0057
1599.00,0.0057
1598.00,0.0058
1597.00,0.0058
1596.00,0.0058
1595.00,0.0058
1594.00,0.0058
1593.00,0.0059
1592.00,0.0060
1591.00,0.0060
1590.00,0.0061
1589.00,0.0061
1588.00,0.0062
1587.00,0.0062
1586.00,0.0063
1585.00,0.0064
1584.00,0.0066
1583.00,0.0067
1582.00,0.0069
1581.00,0.0070
1580.00,0.0072
1579.00,0.0073
1578.00,0.0074
1577.00,0.0074
1576.00,0.0074
1575.00,0.0074
1574.00,0.0073
1573.00,0.0073
1572.00,0.0072
1571.00,0.0071
1570.00,0.0070
1569.00,0.0069
1568.00,0.0068
1567.00,0.0068
1566.00,0.0068
1565.00,0.0068
1564.00,0.0069
1563.00,0.0069
1562.00,0.0070
1561.00,0.0071
1560.00,0.0072
1559.00,0.0072
1558.00,0.0073
1557.00,0.0073
1556.00,0.0073
1555.00,0.0074
1554.00,0.0074
1553.00,0.0075
1552.00,0.0077
1551.00,0.0078
1550.00,0.0080
1549.00,0.0082
1548.00,0.0083
1547.00,0.0085
1546.00,0.0087
1545.00,0.0089
1544.00,0.0091
1543.00,0.0092
1542.00,0.0092
1541.00,0.0091
1540.00,0.0089
1539.00,0.0087
1538.00,0.0085
1537.00,0.0083
1536.00,0.0082
1535.00,0.0081
1534.00,0.0079
1533.00,0.0077
1532.00,0.0075
1531.00,0.0074
1530.00,0.0073
1529.00,0.0073
1528.00,0.0073
1527.00,0.0072
1526.00,0.0071
1525.00,0.0071
1524.00,0.0070
1523.00,0.0069
1522.00,0.0069
1521.00,0.0069
1520.00,0.0070
1519.00,0.0070
1518.00,0.0070
1517.00,0.0070
1516.00,0.0071
1515.00,0.0071
1514.00,0.0071
1513.00,0.0071
1512.00,0.0071
1511.00,0.0071
1510.00,0.0071
1509.00,0.0071
1508.00,0.0072
1507.00,0.0072
1506.00,0.0072
1505.00,0.0072
1504.00,0.0073
1503.00,0.0073
1502.00,0.0074
1501.00,0.0075
1500.00,0.0077
1499.00,0.0079
1498.00,0.0080
1497.00,0.0083
1496.00,0.0086
1495.00,0.0088
1494.00,0.0089
1493.00,0.0091
1492.00,0.0094
1491.00,0.0097
1490.00,0.0101
1489.00,0.0105
1488.00,0.0111
1487.00,0.0115
1486.00,0.0120
1485.00,0.0125
1484.00,0.0132
1483.00,0.0139
1482.00,0.0147
1481.00,0.0159
1480.00,0.0171
1479.00,0.0183
1478.00,0.0197
1477.00,0.0216
1476.00,0.0237
1475.00,0.0261
1474.00,0.0294
1473.00,0.0348
1472.00,0.0416
1471.00,0.0484
1470.00,0.0550
1469.00,0.0619
1468.00,0.0694
1467.00,0.0775
1466.00,0.0867
1465.00,0.0967
1464.00,0.1056
1463.00,0.1120
1462.00,0.1164
1461.00,0.1196
1460.00,0.1220
1459.00,0.1236
1458.00,0.1248
1457.00,0.1256
1456.00,0.1255
1455.00,0.1248
1454.00,0.1236
1453.00,0.1219
1452.00,0.1192
1451.00,0.1153
1450.00,0.1098
1449.00,0.1022
1448.00,0.0925
1447.00,0.0822
1446.00,0.0731
1445.00,0.0654
1444.00,0.0588
1443.00,0.0536
1442.00,0.0497
1441.00,0.0472
1440.00,0.0459
1439.00,0.0455
1438.00,0.0461
1437.00,0.0467
1436.00,0.0461
1435.00,0.0435
1434.00,0.0395
1433.00,0.0345
1432.00,0.0294
1431.00,0.0250
1430.00,0.0216
1429.00,0.0191
1428.00,0.0174
1427.00,0.0164
1426.00,0.0157
1425.00,0.0151
1424.00,0.0145
1423.00,0.0141
1422.00,0.0139
1421.00,0.0136
1420.00,0.0132
1419.00,0.0129
1418.00,0.0127
1417.00,0.0123
1416.00,0.0119
1415.00,0.0117
1414.00,0.0115
1413.00,0.0113
1412.00,0.0109
1411.00,0.0106
1410.00,0.0103
1409.00,0.0100
1408.00,0.0097
1407.00,0.0095
1406.00,0.0093
1405.00,0.0090
1404.00,0.0086
1403.00,0.0083
1402.00,0.0081
1401.00,0.0078
1400.00,0.0075
1399.00,0.0072
1398.00,0.0071
1397.00,0.0069
1396.00,0.0068
1395.00,0.0069
1394.00,0.0072
1393.00,0.0076
1392.00,0.0082
1391.00,0.0091
1390.00,0.0104
1389.00,0.0120
1388.00,0.0145
1387.00,0.0183
1386.00,0.0233
1385.00,0.0296
1384.00,0.0378
1383.00,0.0490
1382.00,0.0639
1381.00,0.0834
1380.00,0.1085
1379.00,0.1389
1378.00,0.1708
1377.00,0.1976
1376.00,0.2116
1375.00,0.2065
1374.00,0.1834
1373.00,0.1518
1372.00,0.1213
1371.00,0.0955
1370.00,0.0748
1369.00,0.0592
1368.00,0.0487
1367.00,0.0423
1366.00,0.0390
1365.00,0.0379
1364.00,0.0384
1363.00,0.0403
1362.00,0.0432
1361.00,0.0462
1360.00,0.0485
1359.00,0.0492
1358.00,0.0480
1357.00,0.0449
1356.00,0.0404
1355.00,0.0354
1354.00,0.0307
1353.00,0.0266
1352.00,0.0233
1351.00,0.0207
1350.00,0.0186
1349.00,0.0169
1348.00,0.0156
1347.00,0.0146
1346.00,0.0138
1345.00,0.0132
1344.00,0.0127
1343.00,0.0124
1342.00,0.0121
1341.00,0.0118
1340.00,0.0117
1339.00,0.0115
1338.00,0.0114
1337.00,0.0113
1336.00,0.0114
1335.00,0.0117
1334.00,0.0121
1333.00,0.0127
1332.00,0.0132
1331.00,0.0137
1330.00,0.0139
1329.00,0.0138
1328.00,0.0135
1327.00,0.0129
1326.00,0.0122
1325.00,0.0115
1324.00,0.0108
1323.00,0.0103
1322.00,0.0099
1321.00,0.0096
1320.00,0.0093
1319.00,0.0092
1318.00,0.0090
1317.00,0.0088
1316.00,0.0087
1315.00,0.0086
1314.00,0.0085
1313.00,0.0085
1312.00,0.0085
1311.00,0.0087
1310.00,0.0091
1309.00,0.0096
1308.00,0.0104
1307.00,0.0112
1306.00,0.0121
1305.00,0.0127
1304.00,0.0131
1303.00,0.0130
1302.00,0.0129
1301.00,0.0128
1300.00,0.0128
1299.00,0.0130
1298.00,0.0132
1297.00,0.0133
1296.00,0.0133
1295.00,0.0130
1294.00,0.0126
1293.00,0.0120
1292.00,0.0113
1291.00,0.0107
1290.00,0.0102
1289.00,0.0097
1288.00,0.0093
1287.00,0.0090
1286.00,0.0086
1285.00,0.0084
1284.00,0.0081
1283.00,0.0079
1282.00,0.0077
1281.00,0.0075
1280.00,0.0073
1279.00,0.0071
1278.00,0.0069
1277.00,0.0067
1276.00,0.0065
1275.00,0.0063
1274.00,0.0061
1273.00,0.0059
1272.00,0.0056
1271.00,0.0054
1270.00,0.0053
1269.00,0.0052
1268.00,0.0052
1267.00,0.0052
1266.00,0.0053
1265.00,0.0054
1264.00,0.0055
1263.00,0.0056
1262.00,0.0058
1261.00,0.0061
1260.00,0.0064
1259.00,0.0069
1258.00,0.0074
1257.00,0.0078
1256.00,0.0079
1255.00,0.0076
1254.00,0.0071
1253.00,0.0064
1252.00,0.0057
1251.00,0.0053
1250.00,0.0050
1249.00,0.0049
1248.00,0.0049
1247.00,0.0049
1246.00,0.0050
1245.00,0.0050
1244.00,0.0050
1243.00,0.0050
1242.00,0.0051
1241.00,0.0051
1240.00,0.0051
1239.00,0.0051
1238.00,0.0051
1237.00,0.0052
1236.00,0.0053
1235.00,0.0055
1234.00,0.0057
1233.00,0.0058
1232.00,0.0060
1231.00,0.0061
1230.00,0.0063
1229.00,0.0065
1228.00,0.0068
1227.00,0.0071
1226.00,0.0075
1225.00,0.0080
1224.00,0.0085
1223.00,0.0090
1222.00,0.0095
1221.00,0.0100
1220.00,0.0103
1219.00,0.0104
1218.00,0.0104
1217.00,0.0103
1216.00,0.0101
1215.00,0.0098
1214.00,0.0095
1213.00,0.0091
1212.00,0.0088
1211.00,0.0086
1210.00,0.0084
1209.00,0.0082
1208.00,0.0080
1207.00,0.0079
1206.00,0.0079
1205.00,0.0078
1204.00,0.0077
1203.00,0.0077
1202.00,0.0076
1201.00,0.0076
1200.00,0.0075
1199.00,0.0074
1198.00,0.0073
1197.00,0.0073
1196.00,0.0072
1195.00,0.0072
1194.00,0.0071
1193.00,0.0070
1192.00,0.0068
1191.00,0.0067
1190.00,0.0065
1189.00,0.0064
1188.00,0.0063
1187.00,0.0061
1186.00,0.0060
1185.00,0.0059
1184.00,0.0058
1183.00,0.0057
1182.00,0.0056
1181.00,0.0055
1180.00,0.0055
1179.00,0.0056
1178.00,0.0058
1177.00,0.0064
1176.00,0.0071
1175.00,0.0082
1174.00,0.0096
1173.00,0.0113
1172.00,0.0134
1171.00,0.0157
1170.00,0.0180
1169.00,0.0198
1168.00,0.0210
1167.00,0.0213
1166.00,0.0209
1165.00,0.0199
1164.00,0.0186
1163.00,0.0172
1162.00,0.0160
1161.00,0.0149
1160.00,0.0140
1159.00,0.0133
1158.00,0.0128
1157.00,0.0125
1156.00,0.0122
1155.00,0.0121
1154.00,0.0119
1153.00,0.0117
1152.00,0.0114
1151.00,0.0108
1150.00,0.0101
1149.00,0.0093
1148.00,0.0085
1147.00,0.0077
1146.00,0.0070
1145.00,0.0064
1144.00,0.0058
1143.00,0.0053
1142.00,0.0048
1141.00,0.0043
1140.00,0.0038
1139.00,0.0035
1138.00,0.0032
1137.00,0.0031
1136.00,0.0032
1135.00,0.0032
1134.00,0.0033
1133.00,0.0033
1132.00,0.0033
1131.00,0.0033
1130.00,0.0034
1129.00,0.0035
1128.00,0.0037
1127.00,0.0040
1126.00,0.0042
1125.00,0.0044
1124.00,0.0045
1123.00,0.0046
1122.00,0.0048
1121.00,0.0049
1120.00,0.0051
1119.00,0.0054
1118.00,0.0056
1117.00,0.0058
1116.00,0.0061
1115.00,0.0063
1114.00,0.0065
1113.00,0.0068
1112.00,0.0070
1111.00,0.0074
1110.00,0.0079
1109.00,0.0084
1108.00,0.0091
1107.00,0.0098
1106.00,0.0106
1105.00,0.0114
1104.00,0.0121
1103.00,0.0125
1102.00,0.0125
1101.00,0.0121
1100.00,0.0113
1099.00,0.0104
1098.00,0.0095
1097.00,0.0086
1096.00,0.0079
1095.00,0.0072
1094.00,0.0066
1093.00,0.0061
1092.00,0.0056
1091.00,0.0052
1090.00,0.0049
1089.00,0.0046
1088.00,0.0043
1087.00,0.0040
1086.00,0.0038
1085.00,0.0037
1084.00,0.0037
1083.00,0.0036
1082.00,0.0035
1081.00,0.0033
1080.00,0.0031
1079.00,0.0029
1078.00,0.0028
1077.00,0.0027
1076.00,0.0026
1075.00,0.0025
1074.00,0.0024
1073.00,0.0024
1072.00,0.0025
1071.00,0.0025
1070.00,0.0026
1069.00,0.0027
1068.00,0.0029
1067.00,0.0031
1066.00,0.0033
1065.00,0.0035
1064.00,0.0036
1063.00,0.0038
1062.00,0.0040
1061.00,0.0042
1060.00,0.0044
1059.00,0.0046
1058.00,0.0048
1057.00,0.0049
1056.00,0.0051
1055.00,0.0053
1054.00,0.0056
1053.00,0.0059
1052.00,0.0061
1051.00,0.0064
1050.00,0.0068
1049.00,0.0071
1048.00,0.0075
1047.00,0.0078
1046.00,0.0081
1045.00,0.0083
1044.00,0.0085
1043.00,0.0085
1042.00,0.0085
1041.00,0.0085
1040.00,0.0085
1039.00,0.0085
1038.00,0.0087
1037.00,0.0089
1036.00,0.0090
1035.00,0.0091
1034.00,0.0091
1033.00,0.0090
1032.00,0.0089
1031.00,0.0089
1030.00,0.0088
1029.00,0.0088
1028.00,0.0088
1027.00,0.0088
1026.00,0.0088
1025.00,0.0088
1024.00,0.0088
1023.00,0.0088
1022.00,0.0088
1021.00,0.0089
1020.00,0.0089
1019.00,0.0090
1018.00,0.0091
1017.00,0.0092
1016.00,0.0094
1015.00,0.0096
1014.00,0.0099
1013.00,0.0102
1012.00,0.0105
1011.00,0.0109
1010.00,0.0112
1009.00,0.0114
1008.00,0.0117
1007.00,0.0120
1006.00,0.0125
1005.00,0.0134
1004.00,0.0146
1003.00,0.0163
1002.00,0.0183
1001.00,0.0208
1000.00,0.0234
999.00,0.0255
998.00,0.0265
997.00,0.0259
996.00,0.0239
995.00,0.0211
994.00,0.0181
993.00,0.0155
992.00,0.0135
991.00,0.0120
990.00,0.0110
989.00,0.0103
988.00,0.0098
987.00,0.0095
986.00,0.0094
985.00,0.0095
984.00,0.0097
983.00,0.0103
982.00,0.0112
981.00,0.0126
980.00,0.0143
979.00,0.0166
978.00,0.0193
977.00,0.0223
976.00,0.0254
975.00,0.0282
974.00,0.0299
973.00,0.0301
972.00,0.0283
971.00,0.0250
970.00,0.0208
969.00,0.0165
968.00,0.0129
967.00,0.0101
966.00,0.0081
965.00,0.0067
964.00,0.0057
963.00,0.0049
962.00,0.0042
961.00,0.0035
960.00,0.0027
959.00,0.0021
958.00,0.0015
957.00,0.0012
956.00,0.0009
955.00,0.0007
954.00,0.0006
953.00,0.0005
952.00,0.0006
951.00,0.0007
950.00,0.0009
949.00,0.0011
948.00,0.0015
947.00,0.0018
946.00,0.0022
945.00,0.0026
944.00,0.0030
943.00,0.0035
942.00,0.0039
941.00,0.0043
940.00,0.0044
939.00,0.0044
938.00,0.0041
937.00,0.0038
936.00,0.0036
935.00,0.0035
934.00,0.0035
933.00,0.0037
932.00,0.0038
931.00,0.0039
930.00,0.0040
929.00,0.0041
928.00,0.0043
927.00,0.0045
926.00,0.0047
925.00,0.0048
924.00,0.0051
923.00,0.0054
922.00,0.0057
921.00,0.0059
920.00,0.0061
919.00,0.0063
918.00,0.0065
917.00,0.0067
916.00,0.0068
915.00,0.0069
914.00,0.0069
913.00,0.0070
912.00,0.0072
911.00,0.0073
910.00,0.0075
909.00,0.0078
908.00,0.0081
907.00,0.0086
906.00,0.0094
905.00,0.0105
904.00,0.0122
903.00,0.0143
902.00,0.0166
901.00,0.0189
900.00,0.0205
899.00,0.0209
898.00,0.0201
897.00,0.0183
896.00,0.0159
895.00,0.0137
894.00,0.0118
893.00,0.0103
892.00,0.0093
891.00,0.0086
890.00,0.0081
889.00,0.0078
888.00,0.0077
887.00,0.0076
886.00,0.0076
885.00,0.0075
884.00,0.0075
883.00,0.0075
882.00,0.0075
881.00,0.0075
880.00,0.0075
879.00,0.0075
878.00,0.0075
877.00,0.0076
876.00,0.0075
875.00,0.0075
874.00,0.0074
873.00,0.0074
872.00,0.0074
871.00,0.0074
870.00,0.0074
869.00,0.0075
868.00,0.0076
867.00,0.0076
866.00,0.0076
865.00,0.0076
864.00,0.0076
863.00,0.0076
862.00,0.0077
861.00,0.0079
860.00,0.0081
859.00,0.0084
858.00,0.0087
857.00,0.0089
856.00,0.0090
855.00,0.0090
854.00,0.0090
853.00,0.0091
852.00,0.0093
851.00,0.0096
850.00,0.0100
849.00,0.0104
848.00,0.0111
847.00,0.0121
846.00,0.0137
845.00,0.0158
844.00,0.0186
843.00,0.0217
842.00,0.0239
841.00,0.0244
840.00,0.0228
839.00,0.0200
838.00,0.0170
837.00,0.0146
836.00,0.0130
835.00,0.0120
834.00,0.0113
833.00,0.0108
832.00,0.0105
831.00,0.0102
830.00,0.0099
829.00,0.0096
828.00,0.0094
827.00,0.0093
826.00,0.0094
825.00,0.0095
824.00,0.0096
823.00,0.0096
822.00,0.0097
821.00,0.0097
820.00,0.0098
819.00,0.0100
818.00,0.0104
817.00,0.0110
816.00,0.0119
815.00,0.0132
814.00,0.0148
813.00,0.0167
812.00,0.0187
811.00,0.0206
810.00,0.0220
809.00,0.0228
808.00,0.0226
807.00,0.0216
806.00,0.0199
805.00,0.0179
804.00,0.0160
803.00,0.0143
802.00,0.0129
801.00,0.0119
800.00,0.0112
799.00,0.0107
798.00,0.0104
797.00,0.0101
796.00,0.0096
795.00,0.0092
794.00,0.0089
793.00,0.0087
792.00,0.0087
791.00,0.0087
790.00,0.0087
789.00,0.0086
788.00,0.0084
787.00,0.0081
786.00,0.0078
785.00,0.0075
784.00,0.0072
783.00,0.0070
782.00,0.0068
781.00,0.0067
780.00,0.0065
779.00,0.0064
778.00,0.0065
777.00,0.0065
776.00,0.0066
775.00,0.0067
774.00,0.0067
773.00,0.0068
772.00,0.0070
771.00,0.0072
770.00,0.0075
769.00,0.0077
768.00,0.0078
767.00,0.0078
766.00,0.0078
765.00,0.0077
764.00,0.0074
763.00,0.0071
762.00,0.0069
761.00,0.0066
760.00,0.0064
759.00,0.0063
758.00,0.0062
757.00,0.0060
756.00,0.0059
755.00,0.0058
754.00,0.0057
753.00,0.0056
752.00,0.0055
751.00,0.0055
750.00,0.0055
749.00,0.0056
748.00,0.0058
747.00,0.0060
746.00,0.0061
745.00,0.0062
744.00,0.0061
743.00,0.0060
742.00,0.0060
741.00,0.0061
740.00,0.0063
739.00,0.0066
738.00,0.0067
737.00,0.0069
736.00,0.0070
735.00,0.0071
734.00,0.0072
733.00,0.0073
732.00,0.0073
731.00,0.0073
730.00,0.0073
729.00,0.0073
728.00,0.0072
727.00,0.0071
726.00,0.0070
725.00,0.0069
724.00,0.0069
723.00,0.0069
722.00,0.0069
721.00,0.0069
720.00,0.0069
719.00,0.0068
718.00,0.0067
717.00,0.0066
716.00,0.0065
715.00,0.0064
714.00,0.0064
713.00,0.0063
712.00,0.0061
711.00,0.0060
710.00,0.0058
709.00,0.0058
708.00,0.0058
707.00,0.0059
706.00,0.0061
705.00,0.0061
704.00,0.0061
703.00,0.0060
702.00,0.0060
701.00,0.0059
700.00,0.0059
699.00,0.0059
698.00,0.0060
697.00,0.0059
696.00,0.0058
695.00,0.0057
694.00,0.0057
693.00,0.0056
692.00,0.0055
691.00,0.0054
690.00,0.0054
689.00,0.0056
688.00,0.0058
687.00,0.0059
686.00,0.0060
685.00,0.0060
684.00,0.0061
683.00,0.0060
682.00,0.0060
681.00,0.0059
680.00,0.0058
679.00,0.0058
678.00,0.0058
677.00,0.0058
676.00,0.0059
675.00,0.0059
674.00,0.0059
673.00,0.0059
672.00,0.0058
671.00,0.0058
670.00,0.0059
669.00,0.0060
668.00,0.0063
667.00,0.0066
666.00,0.0065
665.00,0.0063
664.00,0.0062
663.00,0.0061
662.00,0.0061
661.00,0.0062
660.00,0.0061
659.00,0.0060
658.00,0.0058
657.00,0.0056
656.00,0.0055
655.00,0.0054
654.00,0.0053
653.00,0.0054
652.00,0.0056
651.00,0.0057
650.00,0.0058
649.00,0.0057
648.00,0.0055
647.00,0.0053
646.00,0.0052
645.00,0.0052
644.00,0.0053
643.00,0.0053
642.00,0.0053
641.00,0.0052
640.00,0.0051
639.00,0.0051
638.00,0.0051
637.00,0.0052
636.00,0.0054
635.00,0.0055
634.00,0.0057
633.00,0.0059
632.00,0.0060
631.00,0.0060
630.00,0.0059
629.00,0.0058
628.00,0.0058
627.00,0.0059
626.00,0.0060
625.00,0.0060
624.00,0.0060
623.00,0.0061
622.00,0.0061
621.00,0.0062
620.00,0.0060
619.00,0.0059
618.00,0.0057
617.00,0.0057
616.00,0.0058
615.00,0.0061
614.00,0.0064
613.00,0.0067
612.00,0.0069
611.00,0.0071
610.00,0.0072
609.00,0.0072
608.00,0.0069
607.00,0.0066
606.00,0.0064
605.00,0.0063
604.00,0.0061
603.00,0.0058
602.00,0.0057
601.00,0.0059
600.00,0.0062
599.00,0.0065
598.00,0.0066
597.00,0.0065
596.00,0.0064
595.00,0.0062
594.00,0.0061
593.00,0.0061
592.00,0.0061
591.00,0.0060
590.00,0.0059
589.00,0.0057
588.00,0.0056
587.00,0.0055
586.00,0.0056
585.00,0.0058
584.00,0.0060
583.00,0.0061
582.00,0.0062
581.00,0.0064
580.00,0.0065
579.00,0.0067
578.00,0.0067
577.00,0.0065
576.00,0.0062
575.00,0.0060
574.00,0.0062
573.00,0.0067
572.00,0.0072
571.00,0.0074
570.00,0.0071
569.00,0.0066
568.00,0.0062
567.00,0.0061
566.00,0.0062
565.00,0.0064
564.00,0.0066
563.00,0.0067
562.00,0.0066
561.00,0.0066
560.00,0.0065
559.00,0.0064
558.00,0.0063
557.00,0.0063
556.00,0.0062
555.00,0.0060
554.00,0.0059
553.00,0.0059
552.00,0.0062
551.00,0.0064
550.00,0.0065
549.00,0.0062
548.00,0.0059
547.00,0.0056
546.00,0.0054
545.00,0.0055
544.00,0.0057
543.00,0.0061
542.00,0.0065
541.00,0.0069
540.00,0.0073
539.00,0.0077
538.00,0.0079
537.00,0.0079
536.00,0.0079
535.00,0.0080
534.00,0.0081
533.00,0.0082
532.00,0.0081
531.00,0.0080
530.00,0.0078
529.00,0.0077
528.00,0.0075
527.00,0.0074
526.00,0.0076
525.00,0.0079
524.00,0.0080
523.00,0.0077
522.00,0.0071
521.00,0.0067
520.00,0.0066
519.00,0.0067
518.00,0.0068
517.00,0.0066
516.00,0.0062
515.00,0.0058
514.00,0.0058
513.00,0.0061
512.00,0.0064
511.00,0.0066
510.00,0.0066
509.00,0.0067
508.00,0.0070
507.00,0.0072
506.00,0.0071
505.00,0.0068
504.00,0.0065
503.00,0.0063
502.00,0.0062
501.00,0.0060
500.00,0.0058
499.00,0.0058
498.00,0.0063
497.00,0.0070
496.00,0.0075
495.00,0.0075
494.00,0.0069
493.00,0.0064
492.00,0.0064
491.00,0.0067
490.00,0.0071
489.00,0.0073
488.00,0.0071
487.00,0.0067
486.00,0.0064
485.00,0.0064
484.00,0.0065
483.00,0.0065
482.00,0.0061
481.00,0.0054
480.00,0.0048
479.00,0.0047
478.00,0.0053
477.00,0.0061
476.00,0.0067
475.00,0.0070
474.00,0.0072
473.00,0.0075
472.00,0.0077
471.00,0.0075
470.00,0.0070
469.00,0.0063
468.00,0.0062
467.00,0.0072
466.00,0.0089
465.00,0.0106
464.00,0.0115
463.00,0.0117
462.00,0.0116
461.00,0.0118
460.00,0.0126
459.00,0.0139
458.00,0.0144
457.00,0.0134
456.00,0.0114
455.00,0.0096
454.00,0.0089
453.00,0.0092
452.00,0.0099
451.00,0.0102
450.00,0.0100
