Created as New Dataset,Sample 004 By Administrator Date Friday, September 05 2025
cm-1,A
4000.00,0.0013
3999.00,0.0012
3998.00,0.0013
3997.00,0.0013
3996.00,0.0013
3995.00,0.0013
3994.00,0.0012
3993.00,0.0012
3992.00,0.0012
3991.00,0.0012
3990.00,0.0012
3989.00,0.0012
3988.00,0.0012
3987.00,0.0012
3986.00,0.0012
3985.00,0.0012
3984.00,0.0011
3983.00,0.0011
3982.00,0.0011
3981.00,0.0011
3980.00,0.0011
3979.00,0.0011
3978.00,0.0011
3977.00,0.0011
3976.00,0.0011
3975.00,0.0011
3974.00,0.0011
3973.00,0.0011
3972.00,0.0011
3971.00,0.0011
3970.00,0.0011
3969.00,0.0011
3968.00,0.0011
3967.00,0.0010
3966.00,0.0010
3965.00,0.0010
3964.00,0.0010
3963.00,0.0010
3962.00,0.0010
3961.00,0.0011
3960.00,0.0011
3959.00,0.0011
3958.00,0.0011
3957.00,0.0011
3956.00,0.0011
3955.00,0.0011
3954.00,0.0011
3953.00,0.0010
3952.00,0.0010
3951.00,0.0010
3950.00,0.0010
3949.00,0.0010
3948.00,0.0010
3947.00,0.0010
3946.00,0.0010
3945.00,0.0010
3944.00,0.0010
3943.00,0.0010
3942.00,0.0009
3941.00,0.0009
3940.00,0.0009
3939.00,0.0009
3938.00,0.0009
3937.00,0.0009
3936.00,0.0009
3935.00,0.0009
3934.00,0.0010
3933.00,0.0010
3932.00,0.0010
3931.00,0.0010
3930.00,0.0010
3929.00,0.0011
3928.00,0.0011
3927.00,0.0011
3926.00,0.0011
3925.00,0.0011
3924.00,0.0011
3923.00,0.0011
3922.00,0.0010
3921.00,0.0010
3920.00,0.0010
3919.00,0.0010
3918.00,0.0010
3917.00,0.0010
3916.00,0.0010
3915.00,0.0010
3914.00,0.0010
3913.00,0.0010
3912.00,0.0011
3911.00,0.0011
3910.00,0.0010
3909.00,0.0010
3908.00,0.0010
3907.00,0.0009
3906.00,0.0009
3905.00,0.0009
3904.00,0.0009
3903.00,0.0009
3902.00,0.0009
3901.00,0.0009
3900.00,0.0009
3899.00,0.0009
3898.00,0.0009
3897.00,0.0009
3896.00,0.0009
3895.00,0.0009
3894.00,0.0009
3893.00,0.0009
3892.00,0.0009
3891.00,0.0010
3890.00,0.0010
3889.00,0.0009
3888.00,0.0009
3887.00,0.0009
3886.00,0.0009
3885.00,0.0009
3884.00,0.0009
3883.00,0.0009
3882.00,0.0009
3881.00,0.0009
3880.00,0.0009
3879.00,0.0008
3878.00,0.0008
3877.00,0.0009
3876.00,0.0009
3875.00,0.0010
3874.00,0.0010
3873.00,0.0010
3872.00,0.0010
3871.00,0.0010
3870.00,0.0010
3869.00,0.0010
3868.00,0.0009
3867.00,0.0008
3866.00,0.0008
3865.00,0.0009
3864.00,0.0009
3863.00,0.0009
3862.00,0.0009
3861.00,0.0008
3860.00,0.0008
3859.00,0.0008
3858.00,0.0008
3857.00,0.0009
3856.00,0.0009
3855.00,0.0009
3854.00,0.0008
3853.00,0.0008
3852.00,0.0007
3851.00,0.0007
3850.00,0.0007
3849.00,0.0007
3848.00,0.0007
3847.00,0.0007
3846.00,0.0007
3845.00,0.0008
3844.00,0.0008
3843.00,0.0008
3842.00,0.0008
3841.00,0.0008
3840.00,0.0008
3839.00,0.0008
3838.00,0.0008
3837.00,0.0008
3836.00,0.0008
3835.00,0.0008
3834.00,0.0008
3833.00,0.0008
3832.00,0.0009
3831.00,0.0009
3830.00,0.0009
3829.00,0.0008
3828.00,0.0008
3827.00,0.0009
3826.00,0.0009
3825.00,0.0008
3824.00,0.0008
3823.00,0.0008
3822.00,0.0008
3821.00,0.0008
3820.00,0.0008
3819.00,0.0008
3818.00,0.0008
3817.00,0.0009
3816.00,0.0009
3815.00,0.0009
3814.00,0.0009
3813.00,0.0008
3812.00,0.0008
3811.00,0.0008
3810.00,0.0008
3809.00,0.0008
3808.00,0.0009
3807.00,0.0009
3806.00,0.0009
3805.00,0.0008
3804.00,0.0008
3803.00,0.0008
3802.00,0.0008
3801.00,0.0008
3800.00,0.0008
3799.00,0.0007
3798.00,0.0008
3797.00,0.0008
3796.00,0.0008
3795.00,0.0008
3794.00,0.0008
3793.00,0.0008
3792.00,0.0009
3791.00,0.0009
3790.00,0.0009
3789.00,0.0009
3788.00,0.0009
3787.00,0.0009
3786.00,0.0009
3785.00,0.0009
3784.00,0.0010
3783.00,0.0010
3782.00,0.0009
3781.00,0.0009
3780.00,0.0009
3779.00,0.0010
3778.00,0.0010
3777.00,0.0010
3776.00,0.0010
3775.00,0.0010
3774.00,0.0009
3773.00,0.0009
3772.00,0.0009
3771.00,0.0009
3770.00,0.0009
3769.00,0.0009
3768.00,0.0010
3767.00,0.0010
3766.00,0.0010
3765.00,0.0010
3764.00,0.0010
3763.00,0.0009
3762.00,0.0009
3761.00,0.0009
3760.00,0.0009
3759.00,0.0009
3758.00,0.0009
3757.00,0.0009
3756.00,0.0009
3755.00,0.0009
3754.00,0.0009
3753.00,0.0008
3752.00,0.0007
3751.00,0.0007
3750.00,0.0007
3749.00,0.0006
3748.00,0.0007
3747.00,0.0007
3746.00,0.0008
3745.00,0.0008
3744.00,0.0008
3743.00,0.0008
3742.00,0.0007
3741.00,0.0007
3740.00,0.0007
3739.00,0.0006
3738.00,0.0006
3737.00,0.0005
3736.00,0.0005
3735.00,0.0006
3734.00,0.0006
3733.00,0.0006
3732.00,0.0007
3731.00,0.0007
3730.00,0.0007
3729.00,0.0007
3728.00,0.0007
3727.00,0.0007
3726.00,0.0008
3725.00,0.0008
3724.00,0.0008
3723.00,0.0008
3722.00,0.0009
3721.00,0.0009
3720.00,0.0008
3719.00,0.0008
3718.00,0.0008
3717.00,0.0007
3716.00,0.0006
3715.00,0.0006
3714.00,0.0006
3713.00,0.0007
3712.00,0.0008
3711.00,0.0008
3710.00,0.0007
3709.00,0.0007
3708.00,0.0006
3707.00,0.0006
3706.00,0.0006
3705.00,0.0006
3704.00,0.0006
3703.00,0.0006
3702.00,0.0006
3701.00,0.0006
3700.00,0.0006
3699.00,0.0006
3698.00,0.0006
3697.00,0.0006
3696.00,0.0007
3695.00,0.0007
3694.00,0.0006
3693.00,0.0006
3692.00,0.0006
3691.00,0.0005
3690.00,0.0005
3689.00,0.0004
3688.00,0.0004
3687.00,0.0003
3686.00,0.0002
3685.00,0.0001
3684.00,-0.0000
3683.00,-0.0001
3682.00,-0.0002
3681.00,-0.0004
3680.00,-0.0005
3679.00,-0.0007
3678.00,-0.0009
3677.00,-0.0010
3676.00,-0.0011
3675.00,-0.0012
3674.00,-0.0013
3673.00,-0.0014
3672.00,-0.0015
3671.00,-0.0015
3670.00,-0.0016
3669.00,-0.0016
3668.00,-0.0016
3667.00,-0.0017
3666.00,-0.0017
3665.00,-0.0018
3664.00,-0.0018
3663.00,-0.0018
3662.00,-0.0018
3661.00,-0.0019
3660.00,-0.0019
3659.00,-0.0019
3658.00,-0.0019
3657.00,-0.0019
3656.00,-0.0019
3655.00,-0.0019
3654.00,-0.0019
3653.00,-0.0019
3652.00,-0.0020
3651.00,-0.0020
3650.00,-0.0019
3649.00,-0.0018
3648.00,-0.0018
3647.00,-0.0017
3646.00,-0.0016
3645.00,-0.0015
3644.00,-0.0013
3643.00,-0.0011
3642.00,-0.0010
3641.00,-0.0009
3640.00,-0.0009
3639.00,-0.0009
3638.00,-0.0009
3637.00,-0.0009
3636.00,-0.0007
3635.00,-0.0005
3634.00,-0.0003
3633.00,-0.0001
3632.00,-0.0000
3631.00,0.0001
3630.00,0.0001
3629.00,0.0002
3628.00,0.0002
3627.00,0.0003
3626.00,0.0004
3625.00,0.0004
3624.00,0.0005
3623.00,0.0005
3622.00,0.0005
3621.00,0.0005
3620.00,0.0005
3619.00,0.0005
3618.00,0.0006
3617.00,0.0006
3616.00,0.0006
3615.00,0.0006
3614.00,0.0007
3613.00,0.0007
3612.00,0.0008
3611.00,0.0008
3610.00,0.0009
3609.00,0.0009
3608.00,0.0010
3607.00,0.0010
3606.00,0.0010
3605.00,0.0009
3604.00,0.0009
3603.00,0.0010
3602.00,0.0010
3601.00,0.0011
3600.00,0.0011
3599.00,0.0011
3598.00,0.0010
3597.00,0.0010
3596.00,0.0010
3595.00,0.0010
3594.00,0.0010
3593.00,0.0010
3592.00,0.0010
3591.00,0.0010
3590.00,0.0010
3589.00,0.0011
3588.00,0.0011
3587.00,0.0011
3586.00,0.0011
3585.00,0.0012
3584.00,0.0012
3583.00,0.0013
3582.00,0.0014
3581.00,0.0014
3580.00,0.0014
3579.00,0.0013
3578.00,0.0013
3577.00,0.0013
3576.00,0.0013
3575.00,0.0013
3574.00,0.0013
3573.00,0.0013
3572.00,0.0014
3571.00,0.0014
3570.00,0.0014
3569.00,0.0014
3568.00,0.0014
3567.00,0.0014
3566.00,0.0014
3565.00,0.0014
3564.00,0.0014
3563.00,0.0015
3562.00,0.0015
3561.00,0.0016
3560.00,0.0016
3559.00,0.0017
3558.00,0.0017
3557.00,0.0017
3556.00,0.0017
3555.00,0.0017
3554.00,0.0017
3553.00,0.0017
3552.00,0.0017
3551.00,0.0017
3550.00,0.0017
3549.00,0.0018
3548.00,0.0018
3547.00,0.0019
3546.00,0.0019
3545.00,0.0018
3544.00,0.0018
3543.00,0.0018
3542.00,0.0018
3541.00,0.0019
3540.00,0.0019
3539.00,0.0020
3538.00,0.0020
3537.00,0.0020
3536.00,0.0020
3535.00,0.0020
3534.00,0.0020
3533.00,0.0020
3532.00,0.0020
3531.00,0.0021
3530.00,0.0021
3529.00,0.0021
3528.00,0.0021
3527.00,0.0021
3526.00,0.0022
3525.00,0.0022
3524.00,0.0022
3523.00,0.0022
3522.00,0.0023
3521.00,0.0023
3520.00,0.0023
3519.00,0.0023
3518.00,0.0023
3517.00,0.0023
3516.00,0.0023
3515.00,0.0023
3514.00,0.0024
3513.00,0.0024
3512.00,0.0024
3511.00,0.0024
3510.00,0.0024
3509.00,0.0025
3508.00,0.0025
3507.00,0.0025
3506.00,0.0025
3505.00,0.0025
3504.00,0.0025
3503.00,0.0025
3502.00,0.0025
3501.00,0.0025
3500.00,0.0025
3499.00,0.0026
3498.00,0.0026
3497.00,0.0027
3496.00,0.0027
3495.00,0.0027
3494.00,0.0027
3493.00,0.0027
3492.00,0.0027
3491.00,0.0027
3490.00,0.0027
3489.00,0.0028
3488.00,0.0028
3487.00,0.0028
3486.00,0.0028
3485.00,0.0028
3484.00,0.0028
3483.00,0.0028
3482.00,0.0028
3481.00,0.0029
3480.00,0.0029
3479.00,0.0029
3478.00,0.0029
3477.00,0.0029
3476.00,0.0029
3475.00,0.0029
3474.00,0.0029
3473.00,0.0030
3472.00,0.0030
3471.00,0.0030
3470.00,0.0030
3469.00,0.0030
3468.00,0.0030
3467.00,0.0030
3466.00,0.0030
3465.00,0.0031
3464.00,0.0031
3463.00,0.0032
3462.00,0.0032
3461.00,0.0032
3460.00,0.0031
3459.00,0.0031
3458.00,0.0032
3457.00,0.0032
3456.00,0.0032
3455.00,0.0032
3454.00,0.0032
3453.00,0.0033
3452.00,0.0033
3451.00,0.0033
3450.00,0.0033
3449.00,0.0033
3448.00,0.0033
3447.00,0.0033
3446.00,0.0033
3445.00,0.0033
3444.00,0.0033
3443.00,0.0034
3442.00,0.0034
3441.00,0.0035
3440.00,0.0035
3439.00,0.0035
3438.00,0.0035
3437.00,0.0035
3436.00,0.0035
3435.00,0.0035
3434.00,0.0035
3433.00,0.0035
3432.00,0.0036
3431.00,0.0037
3430.00,0.0037
3429.00,0.0037
3428.00,0.0037
3427.00,0.0037
3426.00,0.0037
3425.00,0.0037
3424.00,0.0037
3423.00,0.0037
3422.00,0.0037
3421.00,0.0037
3420.00,0.0037
3419.00,0.0038
3418.00,0.0038
3417.00,0.0038
3416.00,0.0038
3415.00,0.0039
3414.00,0.0039
3413.00,0.0039
3412.00,0.0040
3411.00,0.0041
3410.00,0.0041
3409.00,0.0041
3408.00,0.0041
3407.00,0.0041
3406.00,0.0041
3405.00,0.0041
3404.00,0.0041
3403.00,0.0041
3402.00,0.0041
3401.00,0.0041
3400.00,0.0041
3399.00,0.0041
3398.00,0.0041
3397.00,0.0041
3396.00,0.0041
3395.00,0.0042
3394.00,0.0042
3393.00,0.0042
3392.00,0.0042
3391.00,0.0043
3390.00,0.0043
3389.00,0.0043
3388.00,0.0043
3387.00,0.0043
3386.00,0.0043
3385.00,0.0043
3384.00,0.0043
3383.00,0.0043
3382.00,0.0043
3381.00,0.0044
3380.00,0.0044
3379.00,0.0044
3378.00,0.0044
3377.00,0.0044
3376.00,0.0044
3375.00,0.0044
3374.00,0.0044
3373.00,0.0044
3372.00,0.0045
3371.00,0.0045
3370.00,0.0045
3369.00,0.0046
3368.00,0.0046
3367.00,0.0046
3366.00,0.0046
3365.00,0.0046
3364.00,0.0047
3363.00,0.0047
3362.00,0.0047
3361.00,0.0047
3360.00,0.0047
3359.00,0.0047
3358.00,0.0047
3357.00,0.0046
3356.00,0.0047
3355.00,0.0047
3354.00,0.0047
3353.00,0.0048
3352.00,0.0048
3351.00,0.0048
3350.00,0.0048
3349.00,0.0048
3348.00,0.0048
3347.00,0.0048
3346.00,0.0048
3345.00,0.0048
3344.00,0.0048
3343.00,0.0048
3342.00,0.0049
3341.00,0.0049
3340.00,0.0048
3339.00,0.0048
3338.00,0.0048
3337.00,0.0048
3336.00,0.0048
3335.00,0.0049
3334.00,0.0049
3333.00,0.0050
3332.00,0.0049
3331.00,0.0049
3330.00,0.0049
3329.00,0.0049
3328.00,0.0049
3327.00,0.0049
3326.00,0.0049
3325.00,0.0049
3324.00,0.0049
3323.00,0.0049
3322.00,0.0049
3321.00,0.0049
3320.00,0.0050
3319.00,0.0050
3318.00,0.0050
3317.00,0.0051
3316.00,0.0051
3315.00,0.0051
3314.00,0.0051
3313.00,0.0050
3312.00,0.0050
3311.00,0.0050
3310.00,0.0050
3309.00,0.0050
3308.00,0.0051
3307.00,0.0051
3306.00,0.0052
3305.00,0.0052
3304.00,0.0052
3303.00,0.0052
3302.00,0.0051
3301.00,0.0051
3300.00,0.0051
3299.00,0.0051
3298.00,0.0051
3297.00,0.0051
3296.00,0.0051
3295.00,0.0051
3294.00,0.0051
3293.00,0.0051
3292.00,0.0052
3291.00,0.0052
3290.00,0.0052
3289.00,0.0052
3288.00,0.0051
3287.00,0.0051
3286.00,0.0051
3285.00,0.0051
3284.00,0.0051
3283.00,0.0051
3282.00,0.0051
3281.00,0.0051
3280.00,0.0050
3279.00,0.0050
3278.00,0.0050
3277.00,0.0050
3276.00,0.0050
3275.00,0.0050
3274.00,0.0049
3273.00,0.0049
3272.00,0.0049
3271.00,0.0048
3270.00,0.0049
3269.00,0.0049
3268.00,0.0049
3267.00,0.0049
3266.00,0.0048
3265.00,0.0048
3264.00,0.0047
3263.00,0.0047
3262.00,0.0047
3261.00,0.0047
3260.00,0.0047
3259.00,0.0047
3258.00,0.0046
3257.00,0.0046
3256.00,0.0046
3255.00,0.0045
3254.00,0.0045
3253.00,0.0045
3252.00,0.0044
3251.00,0.0044
3250.00,0.0044
3249.00,0.0044
3248.00,0.0044
3247.00,0.0044
3246.00,0.0044
3245.00,0.0044
3244.00,0.0044
3243.00,0.0043
3242.00,0.0043
3241.00,0.0043
3240.00,0.0043
3239.00,0.0043
3238.00,0.0043
3237.00,0.0042
3236.00,0.0042
3235.00,0.0042
3234.00,0.0042
3233.00,0.0042
3232.00,0.0043
3231.00,0.0043
3230.00,0.0043
3229.00,0.0043
3228.00,0.0043
3227.00,0.0043
3226.00,0.0044
3225.00,0.0044
3224.00,0.0044
3223.00,0.0044
3222.00,0.0044
3221.00,0.0045
3220.00,0.0045
3219.00,0.0045
3218.00,0.0045
3217.00,0.0045
3216.00,0.0044
3215.00,0.0045
3214.00,0.0045
3213.00,0.0045
3212.00,0.0045
3211.00,0.0045
3210.00,0.0045
3209.00,0.0044
3208.00,0.0045
3207.00,0.0045
3206.00,0.0046
3205.00,0.0047
3204.00,0.0047
3203.00,0.0048
3202.00,0.0047
3201.00,0.0047
3200.00,0.0047
3199.00,0.0047
3198.00,0.0047
3197.00,0.0047
3196.00,0.0047
3195.00,0.0046
3194.00,0.0046
3193.00,0.0046
3192.00,0.0046
3191.00,0.0045
3190.00,0.0045
3189.00,0.0045
3188.00,0.0046
3187.00,0.0046
3186.00,0.0046
3185.00,0.0045
3184.00,0.0045
3183.00,0.0045
3182.00,0.0045
3181.00,0.0045
3180.00,0.0045
3179.00,0.0045
3178.00,0.0045
3177.00,0.0045
3176.00,0.0044
3175.00,0.0044
3174.00,0.0044
3173.00,0.0044
3172.00,0.0044
3171.00,0.0044
3170.00,0.0043
3169.00,0.0043
3168.00,0.0043
3167.00,0.0043
3166.00,0.0042
3165.00,0.0042
3164.00,0.0042
3163.00,0.0042
3162.00,0.0042
3161.00,0.0042
3160.00,0.0042
3159.00,0.0042
3158.00,0.0043
3157.00,0.0043
3156.00,0.0043
3155.00,0.0043
3154.00,0.0043
3153.00,0.0042
3152.00,0.0042
3151.00,0.0042
3150.00,0.0042
3149.00,0.0042
3148.00,0.0043
3147.00,0.0043
3146.00,0.0043
3145.00,0.0042
3144.00,0.0042
3143.00,0.0041
3142.00,0.0041
3141.00,0.0041
3140.00,0.0041
3139.00,0.0041
3138.00,0.0042
3137.00,0.0042
3136.00,0.0042
3135.00,0.0041
3134.00,0.0041
3133.00,0.0040
3132.00,0.0040
3131.00,0.0040
3130.00,0.0040
3129.00,0.0039
3128.00,0.0039
3127.00,0.0039
3126.00,0.0039
3125.00,0.0039
3124.00,0.0038
3123.00,0.0038
3122.00,0.0037
3121.00,0.0037
3120.00,0.0036
3119.00,0.0036
3118.00,0.0036
3117.00,0.0036
3116.00,0.0036
3115.00,0.0036
3114.00,0.0036
3113.00,0.0036
3112.00,0.0036
3111.00,0.0036
3110.00,0.0036
3109.00,0.0036
3108.00,0.0036
3107.00,0.0036
3106.00,0.0036
3105.00,0.0036
3104.00,0.0035
3103.00,0.0035
3102.00,0.0035
3101.00,0.0034
3100.00,0.0034
3099.00,0.0034
3098.00,0.0034
3097.00,0.0035
3096.00,0.0035
3095.00,0.0035
3094.00,0.0035
3093.00,0.0035
3092.00,0.0035
3091.00,0.0035
3090.00,0.0035
3089.00,0.0035
3088.00,0.0035
3087.00,0.0035
3086.00,0.0035
3085.00,0.0035
3084.00,0.0034
3083.00,0.0034
3082.00,0.0034
3081.00,0.0034
3080.00,0.0034
3079.00,0.0034
3078.00,0.0035
3077.00,0.0035
3076.00,0.0035
3075.00,0.0036
3074.00,0.0036
3073.00,0.0036
3072.00,0.0036
3071.00,0.0036
3070.00,0.0036
3069.00,0.0037
3068.00,0.0037
3067.00,0.0037
3066.00,0.0038
3065.00,0.0038
3064.00,0.0038
3063.00,0.0038
3062.00,0.0038
3061.00,0.0038
3060.00,0.0039
3059.00,0.0039
3058.00,0.0039
3057.00,0.0039
3056.00,0.0039
3055.00,0.0039
3054.00,0.0039
3053.00,0.0039
3052.00,0.0039
3051.00,0.0039
3050.00,0.0039
3049.00,0.0039
3048.00,0.0040
3047.00,0.0040
3046.00,0.0041
3045.00,0.0041
3044.00,0.0041
3043.00,0.0041
3042.00,0.0041
3041.00,0.0041
3040.00,0.0041
3039.00,0.0042
3038.00,0.0042
3037.00,0.0042
3036.00,0.0042
3035.00,0.0042
3034.00,0.0042
3033.00,0.0043
3032.00,0.0043
3031.00,0.0043
3030.00,0.0043
3029.00,0.0044
3028.00,0.0044
3027.00,0.0044
3026.00,0.0044
3025.00,0.0044
3024.00,0.0044
3023.00,0.0044
3022.00,0.0045
3021.00,0.0044
3020.00,0.0044
3019.00,0.0043
3018.00,0.0042
3017.00,0.0041
3016.00,0.0040
3015.00,0.0038
3014.00,0.0036
3013.00,0.0033
3012.00,0.0030
3011.00,0.0027
3010.00,0.0023
3009.00,0.0019
3008.00,0.0014
3007.00,0.0009
3006.00,0.0003
3005.00,-0.0002
3004.00,-0.0008
3003.00,-0.0013
3002.00,-0.0018
3001.00,-0.0023
3000.00,-0.0027
2999.00,-0.0030
2998.00,-0.0033
2997.00,-0.0034
2996.00,-0.0035
2995.00,-0.0035
2994.00,-0.0034
2993.00,-0.0033
2992.00,-0.0031
2991.00,-0.0028
2990.00,-0.0024
2989.00,-0.0020
2988.00,-0.0016
2987.00,-0.0014
2986.00,-0.0016
2985.00,-0.0022
2984.00,-0.0032
2983.00,-0.0038
2982.00,-0.0035
2981.00,-0.0019
2980.00,0.0011
2979.00,0.0049
2978.00,0.0090
2977.00,0.0134
2976.00,0.0178
2975.00,0.0222
2974.00,0.0269
2973.00,0.0321
2972.00,0.0382
2971.00,0.0456
2970.00,0.0543
2969.00,0.0640
2968.00,0.0745
2967.00,0.0856
2966.00,0.0974
2965.00,0.1098
2964.00,0.1225
2963.00,0.1349
2962.00,0.1464
2961.00,0.1564
2960.00,0.1644
2959.00,0.1704
2958.00,0.1745
2957.00,0.1774
2956.00,0.1797
2955.00,0.1822
2954.00,0.1852
2953.00,0.1885
2952.00,0.1914
2951.00,0.1931
2950.00,0.1926
2949.00,0.1889
2948.00,0.1819
2947.00,0.1719
2946.00,0.1597
2945.00,0.1466
2944.00,0.1338
2943.00,0.1224
2942.00,0.1131
2941.00,0.1063
2940.00,0.1018
2939.00,0.0997
2938.00,0.0996
2937.00,0.1014
2936.00,0.1047
2935.00,0.1095
2934.00,0.1156
2933.00,0.1227
2932.00,0.1309
2931.00,0.1400
2930.00,0.1496
2929.00,0.1594
2928.00,0.1691
2927.00,0.1784
2926.00,0.1872
2925.00,0.1954
2924.00,0.2033
2923.00,0.2108
2922.00,0.2181
2921.00,0.2251
2920.00,0.2312
2919.00,0.2359
2918.00,0.2386
2917.00,0.2386
2916.00,0.2360
2915.00,0.2311
2914.00,0.2245
2913.00,0.2171
2912.00,0.2096
2911.00,0.2026
2910.00,0.1963
2909.00,0.1905
2908.00,0.1851
2907.00,0.1796
2906.00,0.1740
2905.00,0.1679
2904.00,0.1615
2903.00,0.1547
2902.00,0.1477
2901.00,0.1407
2900.00,0.1338
2899.00,0.1272
2898.00,0.1210
2897.00,0.1154
2896.00,0.1104
2895.00,0.1061
2894.00,0.1025
2893.00,0.0996
2892.00,0.0974
2891.00,0.0958
2890.00,0.0949
2889.00,0.0945
2888.00,0.0946
2887.00,0.0950
2886.00,0.0958
2885.00,0.0968
2884.00,0.0983
2883.00,0.1003
2882.00,0.1027
2881.00,0.1052
2880.00,0.1076
2879.00,0.1095
2878.00,0.1106
2877.00,0.1108
2876.00,0.1103
2875.00,0.1096
2874.00,0.1091
2873.00,0.1092
2872.00,0.1100
2871.00,0.1115
2870.00,0.1135
2869.00,0.1155
2868.00,0.1168
2867.00,0.1166
2866.00,0.1144
2865.00,0.1097
2864.00,0.1029
2863.00,0.0947
2862.00,0.0862
2861.00,0.0782
2860.00,0.0714
2859.00,0.0659
2858.00,0.0618
2857.00,0.0590
2856.00,0.0571
2855.00,0.0562
2854.00,0.0561
2853.00,0.0566
2852.00,0.0578
2851.00,0.0596
2850.00,0.0621
2849.00,0.0652
2848.00,0.0690
2847.00,0.0737
2846.00,0.0792
2845.00,0.0857
2844.00,0.0930
2843.00,0.1009
2842.00,0.1088
2841.00,0.1161
2840.00,0.1220
2839.00,0.1255
2838.00,0.1259
2837.00,0.1227
2836.00,0.1161
2835.00,0.1068
2834.00,0.0958
2833.00,0.0845
2832.00,0.0738
2831.00,0.0644
2830.00,0.0564
2829.00,0.0499
2828.00,0.0446
2827.00,0.0404
2826.00,0.0368
2825.00,0.0340
2824.00,0.0316
2823.00,0.0295
2822.00,0.0278
2821.00,0.0262
2820.00,0.0249
2819.00,0.0237
2818.00,0.0226
2817.00,0.0217
2816.00,0.0209
2815.00,0.0203
2814.00,0.0197
2813.00,0.0192
2812.00,0.0187
2811.00,0.0182
2810.00,0.0177
2809.00,0.0172
2808.00,0.0166
2807.00,0.0160
2806.00,0.0153
2805.00,0.0146
2804.00,0.0140
2803.00,0.0134
2802.00,0.0128
2801.00,0.0124
2800.00,0.0121
2799.00,0.0118
2798.00,0.0115
2797.00,0.0113
2796.00,0.0111
2795.00,0.0109
2794.00,0.0107
2793.00,0.0104
2792.00,0.0101
2791.00,0.0097
2790.00,0.0094
2789.00,0.0090
2788.00,0.0087
2787.00,0.0083
2786.00,0.0080
2785.00,0.0077
2784.00,0.0074
2783.00,0.0072
2782.00,0.0070
2781.00,0.0068
2780.00,0.0066
2779.00,0.0065
2778.00,0.0063
2777.00,0.0062
2776.00,0.0061
2775.00,0.0060
2774.00,0.0059
2773.00,0.0058
2772.00,0.0058
2771.00,0.0057
2770.00,0.0056
2769.00,0.0056
2768.00,0.0055
2767.00,0.0055
2766.00,0.0055
2765.00,0.0054
2764.00,0.0054
2763.00,0.0054
2762.00,0.0054
2761.00,0.0053
2760.00,0.0053
2759.00,0.0052
2758.00,0.0051
2757.00,0.0051
2756.00,0.0051
2755.00,0.0052
2754.00,0.0052
2753.00,0.0052
2752.00,0.0052
2751.00,0.0052
2750.00,0.0052
2749.00,0.0052
2748.00,0.0052
2747.00,0.0052
2746.00,0.0053
2745.00,0.0053
2744.00,0.0054
2743.00,0.0055
2742.00,0.0056
2741.00,0.0057
2740.00,0.0058
2739.00,0.0060
2738.00,0.0061
2737.00,0.0062
2736.00,0.0064
2735.00,0.0065
2734.00,0.0067
2733.00,0.0068
2732.00,0.0070
2731.00,0.0072
2730.00,0.0074
2729.00,0.0077
2728.00,0.0079
2727.00,0.0082
2726.00,0.0085
2725.00,0.0087
2724.00,0.0089
2723.00,0.0089
2722.00,0.0088
2721.00,0.0087
2720.00,0.0084
2719.00,0.0081
2718.00,0.0077
2717.00,0.0074
2716.00,0.0071
2715.00,0.0068
2714.00,0.0066
2713.00,0.0064
2712.00,0.0062
2711.00,0.0061
2710.00,0.0059
2709.00,0.0058
2708.00,0.0057
2707.00,0.0055
2706.00,0.0054
2705.00,0.0053
2704.00,0.0052
2703.00,0.0051
2702.00,0.0050
2701.00,0.0049
2700.00,0.0049
2699.00,0.0048
2698.00,0.0048
2697.00,0.0048
2696.00,0.0048
2695.00,0.0048
2694.00,0.0047
2693.00,0.0047
2692.00,0.0047
2691.00,0.0047
2690.00,0.0047
2689.00,0.0047
2688.00,0.0047
2687.00,0.0046
2686.00,0.0046
2685.00,0.0046
2684.00,0.0046
2683.00,0.0046
2682.00,0.0046
2681.00,0.0046
2680.00,0.0046
2679.00,0.0046
2678.00,0.0046
2677.00,0.0046
2676.00,0.0046
2675.00,0.0046
2674.00,0.0045
2673.00,0.0045
2672.00,0.0044
2671.00,0.0044
2670.00,0.0044
2669.00,0.0044
2668.00,0.0044
2667.00,0.0044
2666.00,0.0044
2665.00,0.0044
2664.00,0.0045
2663.00,0.0046
2662.00,0.0046
2661.00,0.0047
2660.00,0.0047
2659.00,0.0047
2658.00,0.0047
2657.00,0.0047
2656.00,0.0047
2655.00,0.0046
2654.00,0.0045
2653.00,0.0045
2652.00,0.0044
2651.00,0.0044
2650.00,0.0044
2649.00,0.0044
2648.00,0.0043
2647.00,0.0043
2646.00,0.0042
2645.00,0.0041
2644.00,0.0041
2643.00,0.0041
2642.00,0.0040
2641.00,0.0040
2640.00,0.0040
2639.00,0.0040
2638.00,0.0039
2637.00,0.0039
2636.00,0.0039
2635.00,0.0039
2634.00,0.0039
2633.00,0.0039
2632.00,0.0039
2631.00,0.0039
2630.00,0.0040
2629.00,0.0040
2628.00,0.0040
2627.00,0.0040
2626.00,0.0041
2625.00,0.0041
2624.00,0.0041
2623.00,0.0042
2622.00,0.0042
2621.00,0.0042
2620.00,0.0042
2619.00,0.0042
2618.00,0.0042
2617.00,0.0042
2616.00,0.0042
2615.00,0.0042
2614.00,0.0041
2613.00,0.0041
2612.00,0.0041
2611.00,0.0040
2610.00,0.0040
2609.00,0.0039
2608.00,0.0037
2607.00,0.0036
2606.00,0.0035
2605.00,0.0035
2604.00,0.0034
2603.00,0.0034
2602.00,0.0034
2601.00,0.0034
2600.00,0.0034
2599.00,0.0034
2598.00,0.0035
2597.00,0.0035
2596.00,0.0035
2595.00,0.0035
2594.00,0.0036
2593.00,0.0036
2592.00,0.0037
2591.00,0.0037
2590.00,0.0037
2589.00,0.0037
2588.00,0.0038
2587.00,0.0039
2586.00,0.0040
2585.00,0.0041
2584.00,0.0041
2583.00,0.0041
2582.00,0.0041
2581.00,0.0041
2580.00,0.0040
2579.00,0.0039
2578.00,0.0038
2577.00,0.0038
2576.00,0.0037
2575.00,0.0036
2574.00,0.0034
2573.00,0.0033
2572.00,0.0032
2571.00,0.0031
2570.00,0.0030
2569.00,0.0030
2568.00,0.0030
2567.00,0.0029
2566.00,0.0029
2565.00,0.0029
2564.00,0.0029
2563.00,0.0029
2562.00,0.0028
2561.00,0.0028
2560.00,0.0028
2559.00,0.0028
2558.00,0.0027
2557.00,0.0027
2556.00,0.0027
2555.00,0.0026
2554.00,0.0025
2553.00,0.0025
2552.00,0.0024
2551.00,0.0024
2550.00,0.0024
2549.00,0.0024
2548.00,0.0024
2547.00,0.0024
2546.00,0.0022
2545.00,0.0021
2544.00,0.0021
2543.00,0.0020
2542.00,0.0020
2541.00,0.0020
2540.00,0.0021
2539.00,0.0021
2538.00,0.0021
2537.00,0.0020
2536.00,0.0020
2535.00,0.0019
2534.00,0.0019
2533.00,0.0019
2532.00,0.0019
2531.00,0.0019
2530.00,0.0019
2529.00,0.0018
2528.00,0.0018
2527.00,0.0018
2526.00,0.0018
2525.00,0.0018
2524.00,0.0017
2523.00,0.0017
2522.00,0.0017
2521.00,0.0016
2520.00,0.0015
2519.00,0.0015
2518.00,0.0014
2517.00,0.0013
2516.00,0.0013
2515.00,0.0013
2514.00,0.0013
2513.00,0.0013
2512.00,0.0013
2511.00,0.0012
2510.00,0.0012
2509.00,0.0012
2508.00,0.0013
2507.00,0.0013
2506.00,0.0013
2505.00,0.0013
2504.00,0.0013
2503.00,0.0014
2502.00,0.0014
2501.00,0.0014
2500.00,0.0014
2499.00,0.0013
2498.00,0.0013
2497.00,0.0013
2496.00,0.0013
2495.00,0.0013
2494.00,0.0013
2493.00,0.0014
2492.00,0.0014
2491.00,0.0014
2490.00,0.0014
2489.00,0.0014
2488.00,0.0013
2487.00,0.0013
2486.00,0.0013
2485.00,0.0013
2484.00,0.0013
2483.00,0.0013
2482.00,0.0013
2481.00,0.0013
2480.00,0.0013
2479.00,0.0013
2478.00,0.0013
2477.00,0.0012
2476.00,0.0012
2475.00,0.0012
2474.00,0.0011
2473.00,0.0010
2472.00,0.0010
2471.00,0.0011
2470.00,0.0011
2469.00,0.0012
2468.00,0.0012
2467.00,0.0012
2466.00,0.0012
2465.00,0.0012
2464.00,0.0012
2463.00,0.0012
2462.00,0.0012
2461.00,0.0012
2460.00,0.0013
2459.00,0.0013
2458.00,0.0013
2457.00,0.0014
2456.00,0.0014
2455.00,0.0015
2454.00,0.0014
2453.00,0.0013
2452.00,0.0013
2451.00,0.0012
2450.00,0.0012
2449.00,0.0013
2448.00,0.0013
2447.00,0.0014
2446.00,0.0014
2445.00,0.0014
2444.00,0.0015
2443.00,0.0015
2442.00,0.0014
2441.00,0.0014
2440.00,0.0014
2439.00,0.0014
2438.00,0.0014
2437.00,0.0014
2436.00,0.0015
2435.00,0.0015
2434.00,0.0016
2433.00,0.0016
2432.00,0.0017
2431.00,0.0017
2430.00,0.0017
2429.00,0.0017
2428.00,0.0017
2427.00,0.0017
2426.00,0.0016
2425.00,0.0016
2424.00,0.0015
2423.00,0.0015
2422.00,0.0015
2421.00,0.0014
2420.00,0.0014
2419.00,0.0013
2418.00,0.0013
2417.00,0.0013
2416.00,0.0012
2415.00,0.0012
2414.00,0.0012
2413.00,0.0011
2412.00,0.0011
2411.00,0.0012
2410.00,0.0012
2409.00,0.0013
2408.00,0.0012
2407.00,0.0012
2406.00,0.0011
2405.00,0.0011
2404.00,0.0011
2403.00,0.0012
2402.00,0.0013
2401.00,0.0013
2400.00,0.0013
2399.00,0.0013
2398.00,0.0012
2397.00,0.0012
2396.00,0.0012
2395.00,0.0012
2394.00,0.0012
2393.00,0.0012
2392.00,0.0012
2391.00,0.0011
2390.00,0.0010
2389.00,0.0010
2388.00,0.0009
2387.00,0.0009
2386.00,0.0009
2385.00,0.0009
2384.00,0.0009
2383.00,0.0008
2382.00,0.0008
2381.00,0.0008
2380.00,0.0007
2379.00,0.0007
2378.00,0.0006
2377.00,0.0005
2376.00,0.0005
2375.00,0.0005
2374.00,0.0005
2373.00,0.0006
2372.00,0.0006
2371.00,0.0006
2370.00,0.0006
2369.00,0.0006
2368.00,0.0006
2367.00,0.0006
2366.00,0.0006
2365.00,0.0006
2364.00,0.0006
2363.00,0.0006
2362.00,0.0006
2361.00,0.0006
2360.00,0.0007
2359.00,0.0008
2358.00,0.0009
2357.00,0.0009
2356.00,0.0008
2355.00,0.0007
2354.00,0.0006
2353.00,0.0005
2352.00,0.0003
2351.00,0.0003
2350.00,0.0004
2349.00,0.0006
2348.00,0.0008
2347.00,0.0009
2346.00,0.0008
2345.00,0.0008
2344.00,0.0007
2343.00,0.0008
2342.00,0.0008
2341.00,0.0008
2340.00,0.0008
2339.00,0.0009
2338.00,0.0009
2337.00,0.0009
2336.00,0.0009
2335.00,0.0008
2334.00,0.0008
2333.00,0.0008
2332.00,0.0007
2331.00,0.0007
2330.00,0.0007
2329.00,0.0009
2328.00,0.0011
2327.00,0.0014
2326.00,0.0017
2325.00,0.0020
2324.00,0.0020
2323.00,0.0019
2322.00,0.0017
2321.00,0.0015
2320.00,0.0014
2319.00,0.0013
2318.00,0.0012
2317.00,0.0011
2316.00,0.0011
2315.00,0.0011
2314.00,0.0010
2313.00,0.0010
2312.00,0.0010
2311.00,0.0009
2310.00,0.0009
2309.00,0.0009
2308.00,0.0009
2307.00,0.0009
2306.00,0.0010
2305.00,0.0010
2304.00,0.0011
2303.00,0.0012
2302.00,0.0012
2301.00,0.0012
2300.00,0.0012
2299.00,0.0013
2298.00,0.0014
2297.00,0.0015
2296.00,0.0016
2295.00,0.0016
2294.00,0.0017
2293.00,0.0018
2292.00,0.0019
2291.00,0.0020
2290.00,0.0021
2289.00,0.0021
2288.00,0.0021
2287.00,0.0021
2286.00,0.0021
2285.00,0.0021
2284.00,0.0021
2283.00,0.0021
2282.00,0.0020
2281.00,0.0019
2280.00,0.0018
2279.00,0.0017
2278.00,0.0017
2277.00,0.0016
2276.00,0.0016
2275.00,0.0016
2274.00,0.0016
2273.00,0.0016
2272.00,0.0016
2271.00,0.0016
2270.00,0.0017
2269.00,0.0018
2268.00,0.0018
2267.00,0.0017
2266.00,0.0016
2265.00,0.0015
2264.00,0.0013
2263.00,0.0012
2262.00,0.0011
2261.00,0.0012
2260.00,0.0013
2259.00,0.0015
2258.00,0.0016
2257.00,0.0017
2256.00,0.0017
2255.00,0.0016
2254.00,0.0015
2253.00,0.0014
2252.00,0.0013
2251.00,0.0012
2250.00,0.0010
2249.00,0.0010
2248.00,0.0010
2247.00,0.0010
2246.00,0.0010
2245.00,0.0010
2244.00,0.0010
2243.00,0.0011
2242.00,0.0012
2241.00,0.0013
2240.00,0.0012
2239.00,0.0011
2238.00,0.0010
2237.00,0.0009
2236.00,0.0009
2235.00,0.0010
2234.00,0.0011
2233.00,0.0013
2232.00,0.0014
2231.00,0.0013
2230.00,0.0013
2229.00,0.0012
2228.00,0.0012
2227.00,0.0011
2226.00,0.0011
2225.00,0.0010
2224.00,0.0010
2223.00,0.0010
2222.00,0.0009
2221.00,0.0009
2220.00,0.0011
2219.00,0.0012
2218.00,0.0012
2217.00,0.0012
2216.00,0.0011
2215.00,0.0010
2214.00,0.0009
2213.00,0.0009
2212.00,0.0009
2211.00,0.0009
2210.00,0.0008
2209.00,0.0009
2208.00,0.0009
2207.00,0.0008
2206.00,0.0007
2205.00,0.0005
2204.00,0.0006
2203.00,0.0007
2202.00,0.0009
2201.00,0.0010
2200.00,0.0011
2199.00,0.0011
2198.00,0.0009
2197.00,0.0008
2196.00,0.0008
2195.00,0.0009
2194.00,0.0010
2193.00,0.0011
2192.00,0.0012
2191.00,0.0012
2190.00,0.0012
2189.00,0.0013
2188.00,0.0013
2187.00,0.0014
2186.00,0.0014
2185.00,0.0014
2184.00,0.0014
2183.00,0.0014
2182.00,0.0012
2181.00,0.0011
2180.00,0.0011
2179.00,0.0012
2178.00,0.0015
2177.00,0.0016
2176.00,0.0015
2175.00,0.0013
2174.00,0.0010
2173.00,0.0009
2172.00,0.0010
2171.00,0.0013
2170.00,0.0015
2169.00,0.0017
2168.00,0.0019
2167.00,0.0019
2166.00,0.0019
2165.00,0.0020
2164.00,0.0021
2163.00,0.0022
2162.00,0.0022
2161.00,0.0017
2160.00,0.0005
2159.00,-0.0010
2158.00,-0.0022
2157.00,-0.0026
2156.00,-0.0023
2155.00,-0.0017
2154.00,-0.0015
2153.00,-0.0015
2152.00,-0.0016
2151.00,-0.0017
2150.00,-0.0015
2149.00,-0.0013
2148.00,-0.0011
2147.00,-0.0011
2146.00,-0.0011
2145.00,-0.0011
2144.00,-0.0009
2143.00,-0.0008
2142.00,-0.0006
2141.00,-0.0005
2140.00,-0.0005
2139.00,-0.0005
2138.00,-0.0006
2137.00,-0.0007
2136.00,-0.0010
2135.00,-0.0012
2134.00,-0.0013
2133.00,-0.0014
2132.00,-0.0013
2131.00,-0.0011
2130.00,-0.0009
2129.00,-0.0007
2128.00,-0.0005
2127.00,-0.0004
2126.00,-0.0003
2125.00,-0.0002
2124.00,-0.0001
2123.00,-0.0001
2122.00,-0.0000
2121.00,0.0001
2120.00,0.0001
2119.00,0.0000
2118.00,-0.0001
2117.00,-0.0001
2116.00,0.0000
2115.00,0.0002
2114.00,0.0004
2113.00,0.0005
2112.00,0.0006
2111.00,0.0006
2110.00,0.0005
2109.00,0.0005
2108.00,0.0004
2107.00,0.0003
2106.00,0.0002
2105.00,0.0002
2104.00,0.0002
2103.00,0.0002
2102.00,0.0003
2101.00,0.0004
2100.00,0.0004
2099.00,0.0004
2098.00,0.0002
2097.00,0.0001
2096.00,-0.0001
2095.00,-0.0002
2094.00,-0.0002
2093.00,-0.0000
2092.00,0.0001
2091.00,0.0002
2090.00,0.0002
2089.00,0.0001
2088.00,0.0001
2087.00,0.0002
2086.00,0.0002
2085.00,0.0003
2084.00,0.0004
2083.00,0.0005
2082.00,0.0006
2081.00,0.0007
2080.00,0.0007
2079.00,0.0007
2078.00,0.0007
2077.00,0.0007
2076.00,0.0007
2075.00,0.0007
2074.00,0.0005
2073.00,0.0004
2072.00,0.0003
2071.00,0.0002
2070.00,0.0002
2069.00,0.0003
2068.00,0.0004
2067.00,0.0004
2066.00,0.0002
2065.00,0.0001
2064.00,-0.0001
2063.00,-0.0001
2062.00,-0.0002
2061.00,-0.0001
2060.00,0.0000
2059.00,0.0001
2058.00,0.0002
2057.00,0.0003
2056.00,0.0003
2055.00,0.0002
2054.00,0.0004
2053.00,0.0008
2052.00,0.0014
2051.00,0.0018
2050.00,0.0018
2049.00,0.0014
2048.00,0.0008
2047.00,0.0004
2046.00,0.0001
2045.00,-0.0000
2044.00,0.0000
2043.00,0.0003
2042.00,0.0005
2041.00,0.0007
2040.00,0.0007
2039.00,0.0005
2038.00,0.0002
2037.00,0.0001
2036.00,0.0002
2035.00,0.0001
2034.00,-0.0001
2033.00,-0.0004
2032.00,-0.0005
2031.00,-0.0005
2030.00,-0.0003
2029.00,-0.0002
2028.00,-0.0003
2027.00,-0.0005
2026.00,-0.0008
2025.00,-0.0010
2024.00,-0.0013
2023.00,-0.0016
2022.00,-0.0018
2021.00,-0.0017
2020.00,-0.0014
2019.00,-0.0010
2018.00,-0.0007
2017.00,-0.0004
2016.00,-0.0003
2015.00,-0.0005
2014.00,-0.0007
2013.00,-0.0009
2012.00,-0.0007
2011.00,-0.0004
2010.00,-0.0001
2009.00,-0.0002
2008.00,-0.0005
2007.00,-0.0009
2006.00,-0.0013
2005.00,-0.0015
2004.00,-0.0015
2003.00,-0.0015
2002.00,-0.0014
2001.00,-0.0012
2000.00,-0.0010
1999.00,-0.0009
1998.00,-0.0007
1997.00,-0.0005
1996.00,-0.0004
1995.00,-0.0003
1994.00,-0.0003
1993.00,-0.0003
1992.00,-0.0003
1991.00,-0.0003
1990.00,-0.0004
1989.00,-0.0004
1988.00,-0.0003
1987.00,-0.0003
1986.00,-0.0002
1985.00,0.0002
1984.00,0.0007
1983.00,0.0011
1982.00,0.0013
1981.00,0.0015
1980.00,0.0016
1979.00,0.0012
1978.00,0.0005
1977.00,-0.0004
1976.00,-0.0011
1975.00,-0.0014
1974.00,-0.0013
1973.00,-0.0010
1972.00,-0.0006
1971.00,-0.0006
1970.00,-0.0007
1969.00,-0.0007
1968.00,-0.0006
1967.00,-0.0005
1966.00,-0.0007
1965.00,-0.0010
1964.00,-0.0012
1963.00,-0.0014
1962.00,-0.0014
1961.00,-0.0014
1960.00,-0.0013
1959.00,-0.0012
1958.00,-0.0012
1957.00,-0.0011
1956.00,-0.0012
1955.00,-0.0013
1954.00,-0.0013
1953.00,-0.0012
1952.00,-0.0012
1951.00,-0.0012
1950.00,-0.0013
1949.00,-0.0014
1948.00,-0.0014
1947.00,-0.0015
1946.00,-0.0016
1945.00,-0.0016
1944.00,-0.0015
1943.00,-0.0013
1942.00,-0.0011
1941.00,-0.0008
1940.00,-0.0007
1939.00,-0.0007
1938.00,-0.0007
1937.00,-0.0007
1936.00,-0.0007
1935.00,-0.0008
1934.00,-0.0009
1933.00,-0.0010
1932.00,-0.0009
1931.00,-0.0009
1930.00,-0.0009
1929.00,-0.0008
1928.00,-0.0006
1927.00,-0.0005
1926.00,-0.0003
1925.00,-0.0003
1924.00,-0.0002
1923.00,-0.0001
1922.00,-0.0001
1921.00,0.0000
1920.00,0.0001
1919.00,0.0002
1918.00,0.0002
1917.00,0.0002
1916.00,0.0002
1915.00,0.0001
1914.00,0.0000
1913.00,-0.0000
1912.00,0.0000
1911.00,0.0001
1910.00,0.0002
1909.00,0.0002
1908.00,0.0002
1907.00,0.0001
1906.00,0.0000
1905.00,-0.0000
1904.00,0.0000
1903.00,0.0001
1902.00,0.0001
1901.00,0.0002
1900.00,0.0003
1899.00,0.0003
1898.00,0.0003
1897.00,0.0003
1896.00,0.0004
1895.00,0.0004
1894.00,0.0003
1893.00,0.0003
1892.00,0.0003
1891.00,0.0003
1890.00,0.0002
1889.00,0.0002
1888.00,0.0002
1887.00,0.0002
1886.00,0.0002
1885.00,0.0002
1884.00,0.0003
1883.00,0.0004
1882.00,0.0003
1881.00,0.0002
1880.00,0.0002
1879.00,0.0002
1878.00,0.0002
1877.00,0.0002
1876.00,0.0002
1875.00,0.0002
1874.00,0.0002
1873.00,0.0002
1872.00,0.0002
1871.00,0.0002
1870.00,0.0002
1869.00,0.0002
1868.00,0.0002
1867.00,0.0002
1866.00,0.0001
1865.00,0.0001
1864.00,0.0001
1863.00,0.0001
1862.00,0.0001
1861.00,0.0001
1860.00,0.0001
1859.00,0.0001
1858.00,0.0002
1857.00,0.0002
1856.00,0.0003
1855.00,0.0003
1854.00,0.0002
1853.00,0.0002
1852.00,0.0002
1851.00,0.0002
1850.00,0.0002
1849.00,0.0002
1848.00,0.0002
1847.00,0.0002
1846.00,0.0002
1845.00,0.0002
1844.00,0.0002
1843.00,0.0003
1842.00,0.0003
1841.00,0.0004
1840.00,0.0004
1839.00,0.0004
1838.00,0.0005
1837.00,0.0005
1836.00,0.0005
1835.00,0.0004
1834.00,0.0004
1833.00,0.0005
1832.00,0.0006
1831.00,0.0006
1830.00,0.0007
1829.00,0.0007
1828.00,0.0006
1827.00,0.0006
1826.00,0.0007
1825.00,0.0007
1824.00,0.0007
1823.00,0.0007
1822.00,0.0007
1821.00,0.0007
1820.00,0.0006
1819.00,0.0004
1818.00,0.0003
1817.00,0.0003
1816.00,0.0003
1815.00,0.0003
1814.00,0.0003
1813.00,0.0004
1812.00,0.0004
1811.00,0.0005
1810.00,0.0006
1809.00,0.0007
1808.00,0.0008
1807.00,0.0008
1806.00,0.0008
1805.00,0.0008
1804.00,0.0008
1803.00,0.0007
1802.00,0.0007
1801.00,0.0007
1800.00,0.0008
1799.00,0.0008
1798.00,0.0008
1797.00,0.0008
1796.00,0.0009
1795.00,0.0009
1794.00,0.0009
1793.00,0.0009
1792.00,0.0009
1791.00,0.0009
1790.00,0.0009
1789.00,0.0010
1788.00,0.0010
1787.00,0.0010
1786.00,0.0010
1785.00,0.0010
1784.00,0.0009
1783.00,0.0009
1782.00,0.0009
1781.00,0.0010
1780.00,0.0010
1779.00,0.0011
1778.00,0.0011
1777.00,0.0011
1776.00,0.0011
1775.00,0.0011
1774.00,0.0011
1773.00,0.0011
1772.00,0.0011
1771.00,0.0012
1770.00,0.0012
1769.00,0.0013
1768.00,0.0013
1767.00,0.0013
1766.00,0.0013
1765.00,0.0014
1764.00,0.0014
1763.00,0.0015
1762.00,0.0016
1761.00,0.0017
1760.00,0.0018
1759.00,0.0019
1758.00,0.0020
1757.00,0.0022
1756.00,0.0023
1755.00,0.0024
1754.00,0.0024
1753.00,0.0025
1752.00,0.0026
1751.00,0.0028
1750.00,0.0030
1749.00,0.0032
1748.00,0.0034
1747.00,0.0036
1746.00,0.0037
1745.00,0.0038
1744.00,0.0038
1743.00,0.0038
1742.00,0.0038
1741.00,0.0038
1740.00,0.0038
1739.00,0.0038
1738.00,0.0037
1737.00,0.0035
1736.00,0.0034
1735.00,0.0033
1734.00,0.0033
1733.00,0.0034
1732.00,0.0035
1731.00,0.0035
1730.00,0.0035
1729.00,0.0034
1728.00,0.0033
1727.00,0.0032
1726.00,0.0032
1725.00,0.0031
1724.00,0.0032
1723.00,0.0032
1722.00,0.0032
1721.00,0.0032
1720.00,0.0032
1719.00,0.0031
1718.00,0.0031
1717.00,0.0031
1716.00,0.0031
1715.00,0.0031
1714.00,0.0031
1713.00,0.0031
1712.00,0.0032
1711.00,0.0032
1710.00,0.0032
1709.00,0.0032
1708.00,0.0032
1707.00,0.0033
1706.00,0.0034
1705.00,0.0036
1704.00,0.0038
1703.00,0.0038
1702.00,0.0039
1701.00,0.0039
1700.00,0.0040
1699.00,0.0040
1698.00,0.0040
1697.00,0.0042
1696.00,0.0044
1695.00,0.0046
1694.00,0.0047
1693.00,0.0047
1692.00,0.0048
1691.00,0.0049
1690.00,0.0050
1689.00,0.0051
1688.00,0.0052
1687.00,0.0053
1686.00,0.0053
1685.00,0.0055
1684.00,0.0058
1683.00,0.0060
1682.00,0.0061
1681.00,0.0062
1680.00,0.0063
1679.00,0.0063
1678.00,0.0064
1677.00,0.0064
1676.00,0.0065
1675.00,0.0067
1674.00,0.0068
1673.00,0.0070
1672.00,0.0071
1671.00,0.0073
1670.00,0.0074
1669.00,0.0076
1668.00,0.0077
1667.00,0.0077
1666.00,0.0078
1665.00,0.0078
1664.00,0.0079
1663.00,0.0080
1662.00,0.0081
1661.00,0.0082
1660.00,0.0083
1659.00,0.0083
1658.00,0.0083
1657.00,0.0084
1656.00,0.0084
1655.00,0.0085
1654.00,0.0085
1653.00,0.0085
1652.00,0.0085
1651.00,0.0084
1650.00,0.0084
1649.00,0.0084
1648.00,0.0084
1647.00,0.0084
1646.00,0.0083
1645.00,0.0083
1644.00,0.0083
1643.00,0.0082
1642.00,0.0081
1641.00,0.0081
1640.00,0.0081
1639.00,0.0081
1638.00,0.0080
1637.00,0.0080
1636.00,0.0079
1635.00,0.0078
1634.00,0.0077
1633.00,0.0077
1632.00,0.0076
1631.00,0.0076
1630.00,0.0075
1629.00,0.0075
1628.00,0.0074
1627.00,0.0073
1626.00,0.0071
1625.00,0.0071
1624.00,0.0070
1623.00,0.0070
1622.00,0.0069
1621.00,0.0069
1620.00,0.0068
1619.00,0.0068
1618.00,0.0066
1617.00,0.0065
1616.00,0.0064
1615.00,0.0063
1614.00,0.0063
1613.00,0.0064
1612.00,0.0064
1611.00,0.0064
1610.00,0.0063
1609.00,0.0063
1608.00,0.0063
1607.00,0.0062
1606.00,0.0062
1605.00,0.0062
1604.00,0.0062
1603.00,0.0062
1602.00,0.0062
1601.00,0.0062
1600.00,0.0062
1599.00,0.0062
1598.00,0.0062
1597.00,0.0062
1596.00,0.0062
1595.00,0.0062
1594.00,0.0063
1593.00,0.0063
1592.00,0.0064
1591.00,0.0064
1590.00,0.0065
1589.00,0.0065
1588.00,0.0066
1587.00,0.0067
1586.00,0.0068
1585.00,0.0069
1584.00,0.0070
1583.00,0.0072
1582.00,0.0073
1581.00,0.0075
1580.00,0.0076
1579.00,0.0077
1578.00,0.0078
1577.00,0.0078
1576.00,0.0078
1575.00,0.0078
1574.00,0.0077
1573.00,0.0077
1572.00,0.0076
1571.00,0.0075
1570.00,0.0074
1569.00,0.0073
1568.00,0.0073
1567.00,0.0072
1566.00,0.0072
1565.00,0.0072
1564.00,0.0073
1563.00,0.0073
1562.00,0.0074
1561.00,0.0074
1560.00,0.0074
1559.00,0.0075
1558.00,0.0076
1557.00,0.0076
1556.00,0.0077
1555.00,0.0077
1554.00,0.0078
1553.00,0.0080
1552.00,0.0081
1551.00,0.0083
1550.00,0.0085
1549.00,0.0087
1548.00,0.0088
1547.00,0.0090
1546.00,0.0092
1545.00,0.0094
1544.00,0.0096
1543.00,0.0097
1542.00,0.0097
1541.00,0.0095
1540.00,0.0095
1539.00,0.0093
1538.00,0.0091
1537.00,0.0090
1536.00,0.0089
1535.00,0.0087
1534.00,0.0085
1533.00,0.0082
1532.00,0.0081
1531.00,0.0079
1530.00,0.0078
1529.00,0.0079
1528.00,0.0080
1527.00,0.0080
1526.00,0.0079
1525.00,0.0078
1524.00,0.0078
1523.00,0.0077
1522.00,0.0076
1521.00,0.0076
1520.00,0.0077
1519.00,0.0077
1518.00,0.0077
1517.00,0.0078
1516.00,0.0079
1515.00,0.0079
1514.00,0.0078
1513.00,0.0078
1512.00,0.0078
1511.00,0.0078
1510.00,0.0078
1509.00,0.0078
1508.00,0.0079
1507.00,0.0079
1506.00,0.0079
1505.00,0.0080
1504.00,0.0080
1503.00,0.0081
1502.00,0.0082
1501.00,0.0083
1500.00,0.0085
1499.00,0.0086
1498.00,0.0088
1497.00,0.0091
1496.00,0.0093
1495.00,0.0095
1494.00,0.0097
1493.00,0.0099
1492.00,0.0102
1491.00,0.0105
1490.00,0.0108
1489.00,0.0113
1488.00,0.0119
1487.00,0.0123
1486.00,0.0128
1485.00,0.0134
1484.00,0.0140
1483.00,0.0147
1482.00,0.0155
1481.00,0.0166
1480.00,0.0177
1479.00,0.0189
1478.00,0.0203
1477.00,0.0220
1476.00,0.0240
1475.00,0.0262
1474.00,0.0293
1473.00,0.0344
1472.00,0.0409
1471.00,0.0474
1470.00,0.0536
1469.00,0.0600
1468.00,0.0668
1467.00,0.0741
1466.00,0.0824
1465.00,0.0913
1464.00,0.0994
1463.00,0.1055
1462.00,0.1098
1461.00,0.1132
1460.00,0.1160
1459.00,0.1185
1458.00,0.1210
1457.00,0.1238
1456.00,0.1256
1455.00,0.1262
1454.00,0.1263
1453.00,0.1258
1452.00,0.1243
1451.00,0.1214
1450.00,0.1167
1449.00,0.1096
1448.00,0.1001
1447.00,0.0897
1446.00,0.0801
1445.00,0.0717
1444.00,0.0645
1443.00,0.0586
1442.00,0.0542
1441.00,0.0512
1440.00,0.0492
1439.00,0.0482
1438.00,0.0479
1437.00,0.0475
1436.00,0.0460
1435.00,0.0432
1434.00,0.0394
1433.00,0.0349
1432.00,0.0304
1431.00,0.0264
1430.00,0.0233
1429.00,0.0210
1428.00,0.0194
1427.00,0.0184
1426.00,0.0177
1425.00,0.0171
1424.00,0.0165
1423.00,0.0161
1422.00,0.0159
1421.00,0.0155
1420.00,0.0151
1419.00,0.0148
1418.00,0.0145
1417.00,0.0141
1416.00,0.0137
1415.00,0.0134
1414.00,0.0131
1413.00,0.0127
1412.00,0.0123
1411.00,0.0119
1410.00,0.0116
1409.00,0.0112
1408.00,0.0108
1407.00,0.0106
1406.00,0.0103
1405.00,0.0099
1404.00,0.0094
1403.00,0.0090
1402.00,0.0087
1401.00,0.0084
1400.00,0.0080
1399.00,0.0076
1398.00,0.0074
1397.00,0.0071
1396.00,0.0068
1395.00,0.0068
1394.00,0.0070
1393.00,0.0073
1392.00,0.0077
1391.00,0.0086
1390.00,0.0098
1389.00,0.0115
1388.00,0.0140
1387.00,0.0177
1386.00,0.0227
1385.00,0.0290
1384.00,0.0371
1383.00,0.0480
1382.00,0.0622
1381.00,0.0799
1380.00,0.1014
1379.00,0.1257
1378.00,0.1494
1377.00,0.1673
1376.00,0.1744
1375.00,0.1672
1374.00,0.1475
1373.00,0.1227
1372.00,0.0993
1371.00,0.0796
1370.00,0.0636
1369.00,0.0514
1368.00,0.0430
1367.00,0.0378
1366.00,0.0351
1365.00,0.0341
1364.00,0.0345
1363.00,0.0360
1362.00,0.0383
1361.00,0.0406
1360.00,0.0423
1359.00,0.0428
1358.00,0.0417
1357.00,0.0391
1356.00,0.0355
1355.00,0.0314
1354.00,0.0275
1353.00,0.0242
1352.00,0.0215
1351.00,0.0193
1350.00,0.0176
1349.00,0.0162
1348.00,0.0151
1347.00,0.0142
1346.00,0.0135
1345.00,0.0130
1344.00,0.0125
1343.00,0.0122
1342.00,0.0120
1341.00,0.0118
1340.00,0.0117
1339.00,0.0116
1338.00,0.0115
1337.00,0.0115
1336.00,0.0116
1335.00,0.0117
1334.00,0.0121
1333.00,0.0125
1332.00,0.0129
1331.00,0.0133
1330.00,0.0135
1329.00,0.0135
1328.00,0.0133
1327.00,0.0129
1326.00,0.0124
1325.00,0.0118
1324.00,0.0112
1323.00,0.0107
1322.00,0.0104
1321.00,0.0101
1320.00,0.0099
1319.00,0.0097
1318.00,0.0096
1317.00,0.0095
1316.00,0.0094
1315.00,0.0093
1314.00,0.0092
1313.00,0.0092
1312.00,0.0094
1311.00,0.0098
1310.00,0.0104
1309.00,0.0113
1308.00,0.0125
1307.00,0.0140
1306.00,0.0155
1305.00,0.0165
1304.00,0.0168
1303.00,0.0164
1302.00,0.0157
1301.00,0.0149
1300.00,0.0143
1299.00,0.0139
1298.00,0.0137
1297.00,0.0136
1296.00,0.0134
1295.00,0.0131
1294.00,0.0127
1293.00,0.0122
1292.00,0.0116
1291.00,0.0110
1290.00,0.0105
1289.00,0.0101
1288.00,0.0097
1287.00,0.0093
1286.00,0.0090
1285.00,0.0087
1284.00,0.0085
1283.00,0.0083
1282.00,0.0081
1281.00,0.0078
1280.00,0.0076
1279.00,0.0074
1278.00,0.0072
1277.00,0.0070
1276.00,0.0068
1275.00,0.0066
1274.00,0.0065
1273.00,0.0063
1272.00,0.0061
1271.00,0.0059
1270.00,0.0057
1269.00,0.0056
1268.00,0.0056
1267.00,0.0056
1266.00,0.0057
1265.00,0.0059
1264.00,0.0061
1263.00,0.0064
1262.00,0.0069
1261.00,0.0075
1260.00,0.0082
1259.00,0.0091
1258.00,0.0099
1257.00,0.0106
1256.00,0.0109
1255.00,0.0106
1254.00,0.0097
1253.00,0.0086
1252.00,0.0074
1251.00,0.0065
1250.00,0.0059
1249.00,0.0056
1248.00,0.0054
1247.00,0.0054
1246.00,0.0054
1245.00,0.0055
1244.00,0.0056
1243.00,0.0056
1242.00,0.0056
1241.00,0.0056
1240.00,0.0055
1239.00,0.0054
1238.00,0.0055
1237.00,0.0055
1236.00,0.0057
1235.00,0.0058
1234.00,0.0060
1233.00,0.0061
1232.00,0.0063
1231.00,0.0065
1230.00,0.0068
1229.00,0.0070
1228.00,0.0073
1227.00,0.0076
1226.00,0.0080
1225.00,0.0084
1224.00,0.0088
1223.00,0.0091
1222.00,0.0095
1221.00,0.0099
1220.00,0.0103
1219.00,0.0105
1218.00,0.0106
1217.00,0.0105
1216.00,0.0104
1215.00,0.0101
1214.00,0.0099
1213.00,0.0096
1212.00,0.0093
1211.00,0.0091
1210.00,0.0089
1209.00,0.0088
1208.00,0.0086
1207.00,0.0085
1206.00,0.0085
1205.00,0.0084
1204.00,0.0084
1203.00,0.0085
1202.00,0.0085
1201.00,0.0085
1200.00,0.0084
1199.00,0.0084
1198.00,0.0084
1197.00,0.0083
1196.00,0.0082
1195.00,0.0081
1194.00,0.0080
1193.00,0.0079
1192.00,0.0078
1191.00,0.0076
1190.00,0.0075
1189.00,0.0073
1188.00,0.0072
1187.00,0.0071
1186.00,0.0071
1185.00,0.0069
1184.00,0.0068
1183.00,0.0068
1182.00,0.0068
1181.00,0.0069
1180.00,0.0071
1179.00,0.0074
1178.00,0.0080
1177.00,0.0089
1176.00,0.0103
1175.00,0.0121
1174.00,0.0146
1173.00,0.0176
1172.00,0.0212
1171.00,0.0253
1170.00,0.0294
1169.00,0.0327
1168.00,0.0348
1167.00,0.0353
1166.00,0.0343
1165.00,0.0321
1164.00,0.0293
1163.00,0.0265
1162.00,0.0239
1161.00,0.0216
1160.00,0.0197
1159.00,0.0181
1158.00,0.0168
1157.00,0.0158
1156.00,0.0150
1155.00,0.0144
1154.00,0.0139
1153.00,0.0134
1152.00,0.0128
1151.00,0.0121
1150.00,0.0112
1149.00,0.0103
1148.00,0.0094
1147.00,0.0086
1146.00,0.0078
1145.00,0.0072
1144.00,0.0066
1143.00,0.0060
1142.00,0.0055
1141.00,0.0050
1140.00,0.0045
1139.00,0.0041
1138.00,0.0039
1137.00,0.0037
1136.00,0.0036
1135.00,0.0036
1134.00,0.0036
1133.00,0.0036
1132.00,0.0036
1131.00,0.0036
1130.00,0.0038
1129.00,0.0040
1128.00,0.0042
1127.00,0.0045
1126.00,0.0047
1125.00,0.0049
1124.00,0.0051
1123.00,0.0053
1122.00,0.0055
1121.00,0.0057
1120.00,0.0059
1119.00,0.0061
1118.00,0.0063
1117.00,0.0065
1116.00,0.0067
1115.00,0.0069
1114.00,0.0072
1113.00,0.0076
1112.00,0.0079
1111.00,0.0083
1110.00,0.0088
1109.00,0.0092
1108.00,0.0098
1107.00,0.0104
1106.00,0.0110
1105.00,0.0117
1104.00,0.0123
1103.00,0.0127
1102.00,0.0127
1101.00,0.0123
1100.00,0.0116
1099.00,0.0109
1098.00,0.0101
1097.00,0.0094
1096.00,0.0086
1095.00,0.0079
1094.00,0.0073
1093.00,0.0068
1092.00,0.0064
1091.00,0.0059
1090.00,0.0055
1089.00,0.0052
1088.00,0.0049
1087.00,0.0047
1086.00,0.0045
1085.00,0.0044
1084.00,0.0042
1083.00,0.0041
1082.00,0.0039
1081.00,0.0038
1080.00,0.0036
1079.00,0.0035
1078.00,0.0034
1077.00,0.0033
1076.00,0.0032
1075.00,0.0031
1074.00,0.0031
1073.00,0.0031
1072.00,0.0031
1071.00,0.0032
1070.00,0.0033
1069.00,0.0034
1068.00,0.0035
1067.00,0.0038
1066.00,0.0041
1065.00,0.0043
1064.00,0.0046
1063.00,0.0048
1062.00,0.0050
1061.00,0.0052
1060.00,0.0053
1059.00,0.0055
1058.00,0.0058
1057.00,0.0060
1056.00,0.0063
1055.00,0.0066
1054.00,0.0069
1053.00,0.0072
1052.00,0.0076
1051.00,0.0080
1050.00,0.0085
1049.00,0.0091
1048.00,0.0097
1047.00,0.0103
1046.00,0.0108
1045.00,0.0112
1044.00,0.0113
1043.00,0.0112
1042.00,0.0110
1041.00,0.0107
1040.00,0.0105
1039.00,0.0104
1038.00,0.0105
1037.00,0.0106
1036.00,0.0106
1035.00,0.0107
1034.00,0.0106
1033.00,0.0104
1032.00,0.0103
1031.00,0.0103
1030.00,0.0103
1029.00,0.0103
1028.00,0.0103
1027.00,0.0103
1026.00,0.0103
1025.00,0.0104
1024.00,0.0104
1023.00,0.0105
1022.00,0.0107
1021.00,0.0108
1020.00,0.0109
1019.00,0.0110
1018.00,0.0112
1017.00,0.0113
1016.00,0.0116
1015.00,0.0120
1014.00,0.0124
1013.00,0.0128
1012.00,0.0133
1011.00,0.0139
1010.00,0.0143
1009.00,0.0148
1008.00,0.0153
1007.00,0.0161
1006.00,0.0172
1005.00,0.0187
1004.00,0.0209
1003.00,0.0238
1002.00,0.0275
1001.00,0.0322
1000.00,0.0373
999.00,0.0418
998.00,0.0444
997.00,0.0440
996.00,0.0408
995.00,0.0357
994.00,0.0302
993.00,0.0252
992.00,0.0213
991.00,0.0184
990.00,0.0164
989.00,0.0150
988.00,0.0140
987.00,0.0135
986.00,0.0133
985.00,0.0133
984.00,0.0137
983.00,0.0144
982.00,0.0156
981.00,0.0173
980.00,0.0196
979.00,0.0226
978.00,0.0265
977.00,0.0311
976.00,0.0364
975.00,0.0416
974.00,0.0458
973.00,0.0478
972.00,0.0464
971.00,0.0418
970.00,0.0350
969.00,0.0277
968.00,0.0212
967.00,0.0162
966.00,0.0126
965.00,0.0101
964.00,0.0083
963.00,0.0070
962.00,0.0058
961.00,0.0048
960.00,0.0038
959.00,0.0029
958.00,0.0021
957.00,0.0015
956.00,0.0011
955.00,0.0009
954.00,0.0007
953.00,0.0006
952.00,0.0006
951.00,0.0008
950.00,0.0010
949.00,0.0012
948.00,0.0014
947.00,0.0015
946.00,0.0018
945.00,0.0020
944.00,0.0024
943.00,0.0028
942.00,0.0032
941.00,0.0035
940.00,0.0037
939.00,0.0037
938.00,0.0035
937.00,0.0034
936.00,0.0033
935.00,0.0033
934.00,0.0035
933.00,0.0038
932.00,0.0041
931.00,0.0044
930.00,0.0046
929.00,0.0047
928.00,0.0049
927.00,0.0051
926.00,0.0052
925.00,0.0054
924.00,0.0056
923.00,0.0058
922.00,0.0061
921.00,0.0064
920.00,0.0066
919.00,0.0068
918.00,0.0070
917.00,0.0071
916.00,0.0072
915.00,0.0074
914.00,0.0075
913.00,0.0076
912.00,0.0076
911.00,0.0077
910.00,0.0079
909.00,0.0081
908.00,0.0085
907.00,0.0089
906.00,0.0095
905.00,0.0104
904.00,0.0117
903.00,0.0134
902.00,0.0153
901.00,0.0171
900.00,0.0183
899.00,0.0188
898.00,0.0182
897.00,0.0168
896.00,0.0150
895.00,0.0132
894.00,0.0117
893.00,0.0105
892.00,0.0096
891.00,0.0091
890.00,0.0088
889.00,0.0086
888.00,0.0084
887.00,0.0082
886.00,0.0081
885.00,0.0080
884.00,0.0080
883.00,0.0081
882.00,0.0083
881.00,0.0084
880.00,0.0085
879.00,0.0086
878.00,0.0088
877.00,0.0089
876.00,0.0090
875.00,0.0091
874.00,0.0092
873.00,0.0092
872.00,0.0091
871.00,0.0090
870.00,0.0088
869.00,0.0087
868.00,0.0087
867.00,0.0087
866.00,0.0087
865.00,0.0087
864.00,0.0087
863.00,0.0087
862.00,0.0089
861.00,0.0091
860.00,0.0094
859.00,0.0096
858.00,0.0097
857.00,0.0098
856.00,0.0099
855.00,0.0101
854.00,0.0104
853.00,0.0107
852.00,0.0111
851.00,0.0116
850.00,0.0123
849.00,0.0132
848.00,0.0146
847.00,0.0166
846.00,0.0195
845.00,0.0238
844.00,0.0296
843.00,0.0362
842.00,0.0415
841.00,0.0435
840.00,0.0410
839.00,0.0354
838.00,0.0290
837.00,0.0236
836.00,0.0199
835.00,0.0175
834.00,0.0159
833.00,0.0149
832.00,0.0141
831.00,0.0135
830.00,0.0128
829.00,0.0123
828.00,0.0118
827.00,0.0115
826.00,0.0113
825.00,0.0114
824.00,0.0114
823.00,0.0113
822.00,0.0111
821.00,0.0110
820.00,0.0109
819.00,0.0109
818.00,0.0112
817.00,0.0117
816.00,0.0126
815.00,0.0137
814.00,0.0150
813.00,0.0164
812.00,0.0179
811.00,0.0193
810.00,0.0204
809.00,0.0209
808.00,0.0208
807.00,0.0199
806.00,0.0186
805.00,0.0171
804.00,0.0156
803.00,0.0143
802.00,0.0132
801.00,0.0124
800.00,0.0119
799.00,0.0115
798.00,0.0112
797.00,0.0109
796.00,0.0105
795.00,0.0102
794.00,0.0100
793.00,0.0098
792.00,0.0097
791.00,0.0095
790.00,0.0093
789.00,0.0091
788.00,0.0087
787.00,0.0084
786.00,0.0081
785.00,0.0079
784.00,0.0077
783.00,0.0076
782.00,0.0075
781.00,0.0075
780.00,0.0075
779.00,0.0075
778.00,0.0076
777.00,0.0077
776.00,0.0078
775.00,0.0079
774.00,0.0080
773.00,0.0081
772.00,0.0084
771.00,0.0088
770.00,0.0092
769.00,0.0094
768.00,0.0094
767.00,0.0094
766.00,0.0094
765.00,0.0092
764.00,0.0089
763.00,0.0085
762.00,0.0081
761.00,0.0078
760.00,0.0075
759.00,0.0073
758.00,0.0070
757.00,0.0069
756.00,0.0068
755.00,0.0067
754.00,0.0067
753.00,0.0065
752.00,0.0063
751.00,0.0062
750.00,0.0062
749.00,0.0063
748.00,0.0065
747.00,0.0067
746.00,0.0069
745.00,0.0069
744.00,0.0069
743.00,0.0069
742.00,0.0069
741.00,0.0071
740.00,0.0072
739.00,0.0074
738.00,0.0076
737.00,0.0077
736.00,0.0079
735.00,0.0080
734.00,0.0081
733.00,0.0081
732.00,0.0082
731.00,0.0082
730.00,0.0082
729.00,0.0081
728.00,0.0080
727.00,0.0080
726.00,0.0080
725.00,0.0080
724.00,0.0079
723.00,0.0077
722.00,0.0075
721.00,0.0073
720.00,0.0073
719.00,0.0072
718.00,0.0072
717.00,0.0072
716.00,0.0072
715.00,0.0071
714.00,0.0071
713.00,0.0071
712.00,0.0070
711.00,0.0068
710.00,0.0067
709.00,0.0066
708.00,0.0067
707.00,0.0068
706.00,0.0070
705.00,0.0072
704.00,0.0072
703.00,0.0071
702.00,0.0071
701.00,0.0071
700.00,0.0072
699.00,0.0072
698.00,0.0071
697.00,0.0069
696.00,0.0067
695.00,0.0066
694.00,0.0066
693.00,0.0067
692.00,0.0067
691.00,0.0066
690.00,0.0064
689.00,0.0063
688.00,0.0064
687.00,0.0066
686.00,0.0068
685.00,0.0069
684.00,0.0068
683.00,0.0067
682.00,0.0067
681.00,0.0067
680.00,0.0066
679.00,0.0066
678.00,0.0067
677.00,0.0068
676.00,0.0069
675.00,0.0069
674.00,0.0069
673.00,0.0068
672.00,0.0068
671.00,0.0067
670.00,0.0066
669.00,0.0063
668.00,0.0062
667.00,0.0063
666.00,0.0065
665.00,0.0066
664.00,0.0067
663.00,0.0068
662.00,0.0070
661.00,0.0071
660.00,0.0070
659.00,0.0069
658.00,0.0067
657.00,0.0065
656.00,0.0064
655.00,0.0062
654.00,0.0061
653.00,0.0061
652.00,0.0063
651.00,0.0065
650.00,0.0067
649.00,0.0066
648.00,0.0064
647.00,0.0063
646.00,0.0063
645.00,0.0064
644.00,0.0065
643.00,0.0065
642.00,0.0066
641.00,0.0067
640.00,0.0065
639.00,0.0064
638.00,0.0063
637.00,0.0063
636.00,0.0066
635.00,0.0068
634.00,0.0070
633.00,0.0072
632.00,0.0073
631.00,0.0073
630.00,0.0072
629.00,0.0070
628.00,0.0067
627.00,0.0065
626.00,0.0065
625.00,0.0066
624.00,0.0067
623.00,0.0069
622.00,0.0071
621.00,0.0072
620.00,0.0072
619.00,0.0070
618.00,0.0068
617.00,0.0066
616.00,0.0065
615.00,0.0064
614.00,0.0065
613.00,0.0066
612.00,0.0069
611.00,0.0072
610.00,0.0075
609.00,0.0077
608.00,0.0076
607.00,0.0074
606.00,0.0071
605.00,0.0070
604.00,0.0069
603.00,0.0067
602.00,0.0065
601.00,0.0064
600.00,0.0065
599.00,0.0067
598.00,0.0070
597.00,0.0073
596.00,0.0076
595.00,0.0075
594.00,0.0073
593.00,0.0071
592.00,0.0069
591.00,0.0070
590.00,0.0072
589.00,0.0074
588.00,0.0075
587.00,0.0074
586.00,0.0071
585.00,0.0068
584.00,0.0067
583.00,0.0068
582.00,0.0070
581.00,0.0073
580.00,0.0076
579.00,0.0078
578.00,0.0078
577.00,0.0077
576.00,0.0077
575.00,0.0077
574.00,0.0078
573.00,0.0080
572.00,0.0082
571.00,0.0083
570.00,0.0083
569.00,0.0081
568.00,0.0078
567.00,0.0075
566.00,0.0074
565.00,0.0074
564.00,0.0077
563.00,0.0081
562.00,0.0084
561.00,0.0086
560.00,0.0086
559.00,0.0084
558.00,0.0082
557.00,0.0081
556.00,0.0079
555.00,0.0077
554.00,0.0073
553.00,0.0069
552.00,0.0069
551.00,0.0073
550.00,0.0077
549.00,0.0080
548.00,0.0080
547.00,0.0079
546.00,0.0078
545.00,0.0075
544.00,0.0073
543.00,0.0073
542.00,0.0076
541.00,0.0081
540.00,0.0087
539.00,0.0091
538.00,0.0093
537.00,0.0091
536.00,0.0088
535.00,0.0088
534.00,0.0090
533.00,0.0092
532.00,0.0095
531.00,0.0096
530.00,0.0096
529.00,0.0095
528.00,0.0094
527.00,0.0094
526.00,0.0095
525.00,0.0096
524.00,0.0096
523.00,0.0095
522.00,0.0092
521.00,0.0089
520.00,0.0086
519.00,0.0082
518.00,0.0078
517.00,0.0074
516.00,0.0070
515.00,0.0068
514.00,0.0067
513.00,0.0066
512.00,0.0068
511.00,0.0072
510.00,0.0080
509.00,0.0087
508.00,0.0090
507.00,0.0088
506.00,0.0083
505.00,0.0078
504.00,0.0075
503.00,0.0074
502.00,0.0076
501.00,0.0080
500.00,0.0083
499.00,0.0084
498.00,0.0085
497.00,0.0089
496.00,0.0094
495.00,0.0097
494.00,0.0094
493.00,0.0087
492.00,0.0082
491.00,0.0079
490.00,0.0080
489.00,0.0083
488.00,0.0087
487.00,0.0088
486.00,0.0089
485.00,0.0089
484.00,0.0090
483.00,0.0090
482.00,0.0088
481.00,0.0084
480.00,0.0081
479.00,0.0080
478.00,0.0079
477.00,0.0078
476.00,0.0076
475.00,0.0073
474.00,0.0067
473.00,0.0063
472.00,0.0066
471.00,0.0076
470.00,0.0088
469.00,0.0098
468.00,0.0107
467.00,0.0116
466.00,0.0123
465.00,0.0129
464.00,0.0134
463.00,0.0139
462.00,0.0143
461.00,0.0145
460.00,0.0151
459.00,0.0162
458.00,0.0171
457.00,0.0168
456.00,0.0151
455.00,0.0129
454.00,0.0110
453.00,0.0102
452.00,0.0105
451.00,0.0114
450.00,0.0117
