Created as New Dataset,Sample 016 By Administrator Date Friday, September 05 2025
cm-1,A
4000.00,0.0010
3999.00,0.0010
3998.00,0.0010
3997.00,0.0010
3996.00,0.0010
3995.00,0.0010
3994.00,0.0011
3993.00,0.0011
3992.00,0.0011
3991.00,0.0011
3990.00,0.0011
3989.00,0.0011
3988.00,0.0011
3987.00,0.0011
3986.00,0.0011
3985.00,0.0011
3984.00,0.0010
3983.00,0.0010
3982.00,0.0010
3981.00,0.0009
3980.00,0.0009
3979.00,0.0009
3978.00,0.0009
3977.00,0.0009
3976.00,0.0009
3975.00,0.0009
3974.00,0.0010
3973.00,0.0010
3972.00,0.0010
3971.00,0.0010
3970.00,0.0010
3969.00,0.0010
3968.00,0.0009
3967.00,0.0009
3966.00,0.0009
3965.00,0.0009
3964.00,0.0009
3963.00,0.0009
3962.00,0.0008
3961.00,0.0008
3960.00,0.0009
3959.00,0.0009
3958.00,0.0009
3957.00,0.0010
3956.00,0.0009
3955.00,0.0009
3954.00,0.0009
3953.00,0.0008
3952.00,0.0008
3951.00,0.0008
3950.00,0.0008
3949.00,0.0008
3948.00,0.0008
3947.00,0.0008
3946.00,0.0008
3945.00,0.0009
3944.00,0.0009
3943.00,0.0009
3942.00,0.0009
3941.00,0.0008
3940.00,0.0008
3939.00,0.0008
3938.00,0.0008
3937.00,0.0009
3936.00,0.0008
3935.00,0.0008
3934.00,0.0008
3933.00,0.0008
3932.00,0.0008
3931.00,0.0009
3930.00,0.0009
3929.00,0.0009
3928.00,0.0009
3927.00,0.0009
3926.00,0.0009
3925.00,0.0009
3924.00,0.0008
3923.00,0.0008
3922.00,0.0008
3921.00,0.0007
3920.00,0.0007
3919.00,0.0007
3918.00,0.0007
3917.00,0.0007
3916.00,0.0007
3915.00,0.0007
3914.00,0.0008
3913.00,0.0008
3912.00,0.0008
3911.00,0.0008
3910.00,0.0008
3909.00,0.0008
3908.00,0.0008
3907.00,0.0008
3906.00,0.0007
3905.00,0.0007
3904.00,0.0006
3903.00,0.0005
3902.00,0.0005
3901.00,0.0005
3900.00,0.0006
3899.00,0.0007
3898.00,0.0007
3897.00,0.0007
3896.00,0.0006
3895.00,0.0006
3894.00,0.0006
3893.00,0.0006
3892.00,0.0007
3891.00,0.0007
3890.00,0.0007
3889.00,0.0007
3888.00,0.0006
3887.00,0.0006
3886.00,0.0006
3885.00,0.0007
3884.00,0.0007
3883.00,0.0007
3882.00,0.0007
3881.00,0.0006
3880.00,0.0006
3879.00,0.0006
3878.00,0.0006
3877.00,0.0006
3876.00,0.0006
3875.00,0.0007
3874.00,0.0007
3873.00,0.0007
3872.00,0.0006
3871.00,0.0006
3870.00,0.0006
3869.00,0.0006
3868.00,0.0006
3867.00,0.0005
3866.00,0.0005
3865.00,0.0006
3864.00,0.0006
3863.00,0.0006
3862.00,0.0006
3861.00,0.0006
3860.00,0.0006
3859.00,0.0006
3858.00,0.0006
3857.00,0.0006
3856.00,0.0005
3855.00,0.0005
3854.00,0.0005
3853.00,0.0005
3852.00,0.0005
3851.00,0.0005
3850.00,0.0005
3849.00,0.0005
3848.00,0.0005
3847.00,0.0005
3846.00,0.0006
3845.00,0.0006
3844.00,0.0006
3843.00,0.0006
3842.00,0.0006
3841.00,0.0005
3840.00,0.0005
3839.00,0.0006
3838.00,0.0006
3837.00,0.0006
3836.00,0.0006
3835.00,0.0005
3834.00,0.0005
3833.00,0.0005
3832.00,0.0005
3831.00,0.0006
3830.00,0.0006
3829.00,0.0006
3828.00,0.0006
3827.00,0.0006
3826.00,0.0006
3825.00,0.0005
3824.00,0.0005
3823.00,0.0005
3822.00,0.0006
3821.00,0.0006
3820.00,0.0006
3819.00,0.0005
3818.00,0.0005
3817.00,0.0004
3816.00,0.0005
3815.00,0.0005
3814.00,0.0005
3813.00,0.0006
3812.00,0.0006
3811.00,0.0007
3810.00,0.0007
3809.00,0.0007
3808.00,0.0007
3807.00,0.0006
3806.00,0.0006
3805.00,0.0005
3804.00,0.0004
3803.00,0.0004
3802.00,0.0004
3801.00,0.0004
3800.00,0.0004
3799.00,0.0004
3798.00,0.0005
3797.00,0.0005
3796.00,0.0006
3795.00,0.0006
3794.00,0.0006
3793.00,0.0006
3792.00,0.0006
3791.00,0.0006
3790.00,0.0007
3789.00,0.0007
3788.00,0.0007
3787.00,0.0007
3786.00,0.0007
3785.00,0.0008
3784.00,0.0008
3783.00,0.0008
3782.00,0.0008
3781.00,0.0008
3780.00,0.0008
3779.00,0.0008
3778.00,0.0008
3777.00,0.0007
3776.00,0.0007
3775.00,0.0007
3774.00,0.0007
3773.00,0.0007
3772.00,0.0007
3771.00,0.0007
3770.00,0.0007
3769.00,0.0008
3768.00,0.0008
3767.00,0.0008
3766.00,0.0008
3765.00,0.0008
3764.00,0.0008
3763.00,0.0008
3762.00,0.0008
3761.00,0.0008
3760.00,0.0008
3759.00,0.0008
3758.00,0.0008
3757.00,0.0007
3756.00,0.0007
3755.00,0.0006
3754.00,0.0005
3753.00,0.0004
3752.00,0.0004
3751.00,0.0003
3750.00,0.0003
3749.00,0.0003
3748.00,0.0003
3747.00,0.0004
3746.00,0.0004
3745.00,0.0005
3744.00,0.0005
3743.00,0.0005
3742.00,0.0004
3741.00,0.0004
3740.00,0.0003
3739.00,0.0003
3738.00,0.0003
3737.00,0.0003
3736.00,0.0003
3735.00,0.0003
3734.00,0.0003
3733.00,0.0003
3732.00,0.0004
3731.00,0.0004
3730.00,0.0004
3729.00,0.0004
3728.00,0.0005
3727.00,0.0005
3726.00,0.0005
3725.00,0.0005
3724.00,0.0005
3723.00,0.0004
3722.00,0.0005
3721.00,0.0005
3720.00,0.0005
3719.00,0.0005
3718.00,0.0005
3717.00,0.0005
3716.00,0.0004
3715.00,0.0004
3714.00,0.0004
3713.00,0.0005
3712.00,0.0006
3711.00,0.0006
3710.00,0.0006
3709.00,0.0005
3708.00,0.0005
3707.00,0.0004
3706.00,0.0004
3705.00,0.0004
3704.00,0.0004
3703.00,0.0004
3702.00,0.0004
3701.00,0.0004
3700.00,0.0004
3699.00,0.0004
3698.00,0.0004
3697.00,0.0004
3696.00,0.0004
3695.00,0.0004
3694.00,0.0003
3693.00,0.0003
3692.00,0.0002
3691.00,0.0001
3690.00,-0.0000
3689.00,-0.0001
3688.00,-0.0002
3687.00,-0.0003
3686.00,-0.0004
3685.00,-0.0005
3684.00,-0.0007
3683.00,-0.0008
3682.00,-0.0010
3681.00,-0.0012
3680.00,-0.0014
3679.00,-0.0016
3678.00,-0.0019
3677.00,-0.0021
3676.00,-0.0023
3675.00,-0.0025
3674.00,-0.0027
3673.00,-0.0028
3672.00,-0.0030
3671.00,-0.0031
3670.00,-0.0031
3669.00,-0.0032
3668.00,-0.0032
3667.00,-0.0032
3666.00,-0.0033
3665.00,-0.0033
3664.00,-0.0034
3663.00,-0.0034
3662.00,-0.0035
3661.00,-0.0036
3660.00,-0.0037
3659.00,-0.0037
3658.00,-0.0038
3657.00,-0.0037
3656.00,-0.0037
3655.00,-0.0037
3654.00,-0.0036
3653.00,-0.0036
3652.00,-0.0036
3651.00,-0.0036
3650.00,-0.0035
3649.00,-0.0034
3648.00,-0.0033
3647.00,-0.0032
3646.00,-0.0030
3645.00,-0.0028
3644.00,-0.0026
3643.00,-0.0024
3642.00,-0.0022
3641.00,-0.0021
3640.00,-0.0020
3639.00,-0.0021
3638.00,-0.0021
3637.00,-0.0020
3636.00,-0.0018
3635.00,-0.0015
3634.00,-0.0011
3633.00,-0.0009
3632.00,-0.0007
3631.00,-0.0007
3630.00,-0.0006
3629.00,-0.0006
3628.00,-0.0005
3627.00,-0.0003
3626.00,-0.0002
3625.00,-0.0001
3624.00,-0.0000
3623.00,0.0000
3622.00,0.0000
3621.00,0.0001
3620.00,0.0001
3619.00,0.0002
3618.00,0.0002
3617.00,0.0002
3616.00,0.0002
3615.00,0.0002
3614.00,0.0003
3613.00,0.0003
3612.00,0.0004
3611.00,0.0004
3610.00,0.0006
3609.00,0.0007
3608.00,0.0008
3607.00,0.0008
3606.00,0.0008
3605.00,0.0008
3604.00,0.0008
3603.00,0.0008
3602.00,0.0009
3601.00,0.0009
3600.00,0.0009
3599.00,0.0009
3598.00,0.0009
3597.00,0.0010
3596.00,0.0010
3595.00,0.0010
3594.00,0.0010
3593.00,0.0010
3592.00,0.0010
3591.00,0.0009
3590.00,0.0010
3589.00,0.0010
3588.00,0.0011
3587.00,0.0011
3586.00,0.0011
3585.00,0.0012
3584.00,0.0012
3583.00,0.0013
3582.00,0.0013
3581.00,0.0013
3580.00,0.0013
3579.00,0.0013
3578.00,0.0013
3577.00,0.0013
3576.00,0.0014
3575.00,0.0014
3574.00,0.0014
3573.00,0.0014
3572.00,0.0015
3571.00,0.0015
3570.00,0.0015
3569.00,0.0015
3568.00,0.0015
3567.00,0.0015
3566.00,0.0015
3565.00,0.0015
3564.00,0.0015
3563.00,0.0016
3562.00,0.0016
3561.00,0.0016
3560.00,0.0017
3559.00,0.0018
3558.00,0.0018
3557.00,0.0018
3556.00,0.0019
3555.00,0.0019
3554.00,0.0019
3553.00,0.0019
3552.00,0.0019
3551.00,0.0019
3550.00,0.0019
3549.00,0.0019
3548.00,0.0020
3547.00,0.0020
3546.00,0.0020
3545.00,0.0020
3544.00,0.0020
3543.00,0.0020
3542.00,0.0021
3541.00,0.0021
3540.00,0.0021
3539.00,0.0021
3538.00,0.0021
3537.00,0.0022
3536.00,0.0022
3535.00,0.0022
3534.00,0.0023
3533.00,0.0023
3532.00,0.0024
3531.00,0.0024
3530.00,0.0024
3529.00,0.0024
3528.00,0.0024
3527.00,0.0024
3526.00,0.0024
3525.00,0.0024
3524.00,0.0024
3523.00,0.0024
3522.00,0.0024
3521.00,0.0025
3520.00,0.0025
3519.00,0.0025
3518.00,0.0026
3517.00,0.0026
3516.00,0.0026
3515.00,0.0027
3514.00,0.0027
3513.00,0.0027
3512.00,0.0027
3511.00,0.0027
3510.00,0.0027
3509.00,0.0027
3508.00,0.0027
3507.00,0.0028
3506.00,0.0028
3505.00,0.0028
3504.00,0.0029
3503.00,0.0029
3502.00,0.0029
3501.00,0.0030
3500.00,0.0030
3499.00,0.0031
3498.00,0.0031
3497.00,0.0031
3496.00,0.0031
3495.00,0.0031
3494.00,0.0031
3493.00,0.0031
3492.00,0.0031
3491.00,0.0031
3490.00,0.0031
3489.00,0.0032
3488.00,0.0032
3487.00,0.0033
3486.00,0.0033
3485.00,0.0033
3484.00,0.0033
3483.00,0.0032
3482.00,0.0032
3481.00,0.0033
3480.00,0.0033
3479.00,0.0033
3478.00,0.0033
3477.00,0.0033
3476.00,0.0033
3475.00,0.0033
3474.00,0.0034
3473.00,0.0034
3472.00,0.0035
3471.00,0.0035
3470.00,0.0035
3469.00,0.0036
3468.00,0.0036
3467.00,0.0036
3466.00,0.0036
3465.00,0.0036
3464.00,0.0036
3463.00,0.0036
3462.00,0.0036
3461.00,0.0036
3460.00,0.0036
3459.00,0.0036
3458.00,0.0036
3457.00,0.0036
3456.00,0.0036
3455.00,0.0036
3454.00,0.0037
3453.00,0.0037
3452.00,0.0038
3451.00,0.0038
3450.00,0.0039
3449.00,0.0039
3448.00,0.0039
3447.00,0.0039
3446.00,0.0039
3445.00,0.0039
3444.00,0.0039
3443.00,0.0040
3442.00,0.0041
3441.00,0.0041
3440.00,0.0042
3439.00,0.0042
3438.00,0.0042
3437.00,0.0041
3436.00,0.0041
3435.00,0.0041
3434.00,0.0042
3433.00,0.0042
3432.00,0.0042
3431.00,0.0043
3430.00,0.0043
3429.00,0.0043
3428.00,0.0043
3427.00,0.0043
3426.00,0.0044
3425.00,0.0044
3424.00,0.0044
3423.00,0.0044
3422.00,0.0045
3421.00,0.0045
3420.00,0.0045
3419.00,0.0045
3418.00,0.0045
3417.00,0.0045
3416.00,0.0046
3415.00,0.0046
3414.00,0.0047
3413.00,0.0047
3412.00,0.0048
3411.00,0.0048
3410.00,0.0048
3409.00,0.0048
3408.00,0.0048
3407.00,0.0048
3406.00,0.0048
3405.00,0.0048
3404.00,0.0048
3403.00,0.0048
3402.00,0.0049
3401.00,0.0049
3400.00,0.0049
3399.00,0.0049
3398.00,0.0049
3397.00,0.0049
3396.00,0.0049
3395.00,0.0050
3394.00,0.0050
3393.00,0.0050
3392.00,0.0050
3391.00,0.0051
3390.00,0.0051
3389.00,0.0051
3388.00,0.0052
3387.00,0.0052
3386.00,0.0052
3385.00,0.0052
3384.00,0.0052
3383.00,0.0052
3382.00,0.0052
3381.00,0.0053
3380.00,0.0053
3379.00,0.0054
3378.00,0.0054
3377.00,0.0054
3376.00,0.0054
3375.00,0.0054
3374.00,0.0054
3373.00,0.0054
3372.00,0.0054
3371.00,0.0055
3370.00,0.0055
3369.00,0.0055
3368.00,0.0055
3367.00,0.0055
3366.00,0.0055
3365.00,0.0056
3364.00,0.0056
3363.00,0.0056
3362.00,0.0056
3361.00,0.0057
3360.00,0.0057
3359.00,0.0057
3358.00,0.0057
3357.00,0.0057
3356.00,0.0057
3355.00,0.0057
3354.00,0.0058
3353.00,0.0058
3352.00,0.0058
3351.00,0.0058
3350.00,0.0058
3349.00,0.0058
3348.00,0.0058
3347.00,0.0058
3346.00,0.0058
3345.00,0.0058
3344.00,0.0059
3343.00,0.0059
3342.00,0.0059
3341.00,0.0059
3340.00,0.0059
3339.00,0.0060
3338.00,0.0059
3337.00,0.0059
3336.00,0.0060
3335.00,0.0060
3334.00,0.0060
3333.00,0.0060
3332.00,0.0060
3331.00,0.0060
3330.00,0.0060
3329.00,0.0060
3328.00,0.0060
3327.00,0.0060
3326.00,0.0060
3325.00,0.0060
3324.00,0.0060
3323.00,0.0060
3322.00,0.0061
3321.00,0.0061
3320.00,0.0061
3319.00,0.0062
3318.00,0.0062
3317.00,0.0062
3316.00,0.0062
3315.00,0.0062
3314.00,0.0062
3313.00,0.0062
3312.00,0.0062
3311.00,0.0062
3310.00,0.0062
3309.00,0.0062
3308.00,0.0062
3307.00,0.0063
3306.00,0.0063
3305.00,0.0063
3304.00,0.0063
3303.00,0.0063
3302.00,0.0064
3301.00,0.0064
3300.00,0.0064
3299.00,0.0065
3298.00,0.0064
3297.00,0.0064
3296.00,0.0064
3295.00,0.0064
3294.00,0.0063
3293.00,0.0063
3292.00,0.0063
3291.00,0.0063
3290.00,0.0063
3289.00,0.0063
3288.00,0.0063
3287.00,0.0063
3286.00,0.0062
3285.00,0.0062
3284.00,0.0062
3283.00,0.0062
3282.00,0.0062
3281.00,0.0062
3280.00,0.0061
3279.00,0.0061
3278.00,0.0061
3277.00,0.0060
3276.00,0.0060
3275.00,0.0060
3274.00,0.0060
3273.00,0.0060
3272.00,0.0059
3271.00,0.0059
3270.00,0.0059
3269.00,0.0059
3268.00,0.0059
3267.00,0.0059
3266.00,0.0058
3265.00,0.0058
3264.00,0.0058
3263.00,0.0058
3262.00,0.0057
3261.00,0.0057
3260.00,0.0057
3259.00,0.0056
3258.00,0.0056
3257.00,0.0055
3256.00,0.0055
3255.00,0.0054
3254.00,0.0054
3253.00,0.0053
3252.00,0.0053
3251.00,0.0053
3250.00,0.0053
3249.00,0.0053
3248.00,0.0053
3247.00,0.0053
3246.00,0.0052
3245.00,0.0052
3244.00,0.0052
3243.00,0.0052
3242.00,0.0052
3241.00,0.0051
3240.00,0.0051
3239.00,0.0051
3238.00,0.0050
3237.00,0.0050
3236.00,0.0050
3235.00,0.0050
3234.00,0.0050
3233.00,0.0050
3232.00,0.0050
3231.00,0.0051
3230.00,0.0051
3229.00,0.0051
3228.00,0.0051
3227.00,0.0051
3226.00,0.0051
3225.00,0.0051
3224.00,0.0051
3223.00,0.0051
3222.00,0.0052
3221.00,0.0052
3220.00,0.0052
3219.00,0.0052
3218.00,0.0051
3217.00,0.0051
3216.00,0.0051
3215.00,0.0051
3214.00,0.0051
3213.00,0.0051
3212.00,0.0051
3211.00,0.0051
3210.00,0.0051
3209.00,0.0051
3208.00,0.0051
3207.00,0.0052
3206.00,0.0052
3205.00,0.0053
3204.00,0.0053
3203.00,0.0053
3202.00,0.0053
3201.00,0.0053
3200.00,0.0053
3199.00,0.0053
3198.00,0.0053
3197.00,0.0053
3196.00,0.0053
3195.00,0.0053
3194.00,0.0053
3193.00,0.0053
3192.00,0.0052
3191.00,0.0052
3190.00,0.0052
3189.00,0.0052
3188.00,0.0052
3187.00,0.0051
3186.00,0.0051
3185.00,0.0051
3184.00,0.0051
3183.00,0.0051
3182.00,0.0051
3181.00,0.0051
3180.00,0.0051
3179.00,0.0051
3178.00,0.0050
3177.00,0.0050
3176.00,0.0050
3175.00,0.0049
3174.00,0.0049
3173.00,0.0049
3172.00,0.0049
3171.00,0.0049
3170.00,0.0049
3169.00,0.0048
3168.00,0.0048
3167.00,0.0048
3166.00,0.0048
3165.00,0.0048
3164.00,0.0048
3163.00,0.0048
3162.00,0.0048
3161.00,0.0048
3160.00,0.0047
3159.00,0.0048
3158.00,0.0048
3157.00,0.0048
3156.00,0.0048
3155.00,0.0048
3154.00,0.0048
3153.00,0.0048
3152.00,0.0047
3151.00,0.0047
3150.00,0.0047
3149.00,0.0047
3148.00,0.0047
3147.00,0.0047
3146.00,0.0047
3145.00,0.0047
3144.00,0.0047
3143.00,0.0046
3142.00,0.0046
3141.00,0.0046
3140.00,0.0046
3139.00,0.0046
3138.00,0.0046
3137.00,0.0046
3136.00,0.0046
3135.00,0.0046
3134.00,0.0045
3133.00,0.0045
3132.00,0.0045
3131.00,0.0045
3130.00,0.0045
3129.00,0.0045
3128.00,0.0044
3127.00,0.0044
3126.00,0.0044
3125.00,0.0043
3124.00,0.0043
3123.00,0.0042
3122.00,0.0042
3121.00,0.0041
3120.00,0.0041
3119.00,0.0041
3118.00,0.0041
3117.00,0.0041
3116.00,0.0040
3115.00,0.0040
3114.00,0.0040
3113.00,0.0040
3112.00,0.0040
3111.00,0.0040
3110.00,0.0040
3109.00,0.0040
3108.00,0.0040
3107.00,0.0040
3106.00,0.0040
3105.00,0.0040
3104.00,0.0040
3103.00,0.0039
3102.00,0.0039
3101.00,0.0039
3100.00,0.0039
3099.00,0.0039
3098.00,0.0039
3097.00,0.0039
3096.00,0.0039
3095.00,0.0039
3094.00,0.0038
3093.00,0.0038
3092.00,0.0039
3091.00,0.0039
3090.00,0.0039
3089.00,0.0039
3088.00,0.0039
3087.00,0.0038
3086.00,0.0038
3085.00,0.0038
3084.00,0.0038
3083.00,0.0038
3082.00,0.0037
3081.00,0.0037
3080.00,0.0038
3079.00,0.0038
3078.00,0.0038
3077.00,0.0039
3076.00,0.0039
3075.00,0.0039
3074.00,0.0040
3073.00,0.0040
3072.00,0.0039
3071.00,0.0039
3070.00,0.0040
3069.00,0.0040
3068.00,0.0040
3067.00,0.0041
3066.00,0.0041
3065.00,0.0041
3064.00,0.0041
3063.00,0.0041
3062.00,0.0041
3061.00,0.0041
3060.00,0.0042
3059.00,0.0042
3058.00,0.0042
3057.00,0.0042
3056.00,0.0042
3055.00,0.0042
3054.00,0.0042
3053.00,0.0042
3052.00,0.0042
3051.00,0.0042
3050.00,0.0043
3049.00,0.0043
3048.00,0.0043
3047.00,0.0044
3046.00,0.0044
3045.00,0.0044
3044.00,0.0044
3043.00,0.0044
3042.00,0.0044
3041.00,0.0044
3040.00,0.0044
3039.00,0.0044
3038.00,0.0044
3037.00,0.0044
3036.00,0.0045
3035.00,0.0045
3034.00,0.0045
3033.00,0.0045
3032.00,0.0046
3031.00,0.0046
3030.00,0.0046
3029.00,0.0046
3028.00,0.0046
3027.00,0.0046
3026.00,0.0046
3025.00,0.0046
3024.00,0.0046
3023.00,0.0046
3022.00,0.0045
3021.00,0.0044
3020.00,0.0043
3019.00,0.0041
3018.00,0.0039
3017.00,0.0037
3016.00,0.0035
3015.00,0.0031
3014.00,0.0027
3013.00,0.0023
3012.00,0.0017
3011.00,0.0011
3010.00,0.0004
3009.00,-0.0003
3008.00,-0.0012
3007.00,-0.0021
3006.00,-0.0031
3005.00,-0.0041
3004.00,-0.0051
3003.00,-0.0061
3002.00,-0.0070
3001.00,-0.0079
3000.00,-0.0087
2999.00,-0.0094
2998.00,-0.0100
2997.00,-0.0104
2996.00,-0.0107
2995.00,-0.0109
2994.00,-0.0111
2993.00,-0.0112
2992.00,-0.0112
2991.00,-0.0111
2990.00,-0.0109
2989.00,-0.0107
2988.00,-0.0107
2987.00,-0.0109
2986.00,-0.0118
2985.00,-0.0135
2984.00,-0.0158
2983.00,-0.0178
2982.00,-0.0184
2981.00,-0.0170
2980.00,-0.0137
2979.00,-0.0093
2978.00,-0.0045
2977.00,0.0004
2976.00,0.0051
2975.00,0.0096
2974.00,0.0141
2973.00,0.0190
2972.00,0.0248
2971.00,0.0322
2970.00,0.0411
2969.00,0.0512
2968.00,0.0620
2967.00,0.0734
2966.00,0.0854
2965.00,0.0979
2964.00,0.1108
2963.00,0.1235
2962.00,0.1356
2961.00,0.1463
2960.00,0.1553
2959.00,0.1621
2958.00,0.1670
2957.00,0.1704
2956.00,0.1730
2955.00,0.1753
2954.00,0.1778
2953.00,0.1804
2952.00,0.1827
2951.00,0.1838
2950.00,0.1829
2949.00,0.1794
2948.00,0.1727
2947.00,0.1633
2946.00,0.1519
2945.00,0.1396
2944.00,0.1275
2943.00,0.1168
2942.00,0.1081
2941.00,0.1017
2940.00,0.0977
2939.00,0.0959
2938.00,0.0961
2937.00,0.0981
2936.00,0.1016
2935.00,0.1064
2934.00,0.1124
2933.00,0.1194
2932.00,0.1275
2931.00,0.1364
2930.00,0.1458
2929.00,0.1553
2928.00,0.1646
2927.00,0.1735
2926.00,0.1818
2925.00,0.1896
2924.00,0.1969
2923.00,0.2039
2922.00,0.2107
2921.00,0.2171
2920.00,0.2227
2919.00,0.2270
2918.00,0.2293
2917.00,0.2293
2916.00,0.2268
2915.00,0.2221
2914.00,0.2158
2913.00,0.2087
2912.00,0.2015
2911.00,0.1947
2910.00,0.1885
2909.00,0.1828
2908.00,0.1774
2907.00,0.1721
2906.00,0.1665
2905.00,0.1606
2904.00,0.1544
2903.00,0.1478
2902.00,0.1411
2901.00,0.1343
2900.00,0.1276
2899.00,0.1211
2898.00,0.1150
2897.00,0.1094
2896.00,0.1044
2895.00,0.1001
2894.00,0.0964
2893.00,0.0934
2892.00,0.0911
2891.00,0.0895
2890.00,0.0885
2889.00,0.0881
2888.00,0.0882
2887.00,0.0886
2886.00,0.0893
2885.00,0.0904
2884.00,0.0920
2883.00,0.0942
2882.00,0.0968
2881.00,0.0997
2880.00,0.1024
2879.00,0.1046
2878.00,0.1060
2877.00,0.1065
2876.00,0.1063
2875.00,0.1057
2874.00,0.1053
2873.00,0.1053
2872.00,0.1061
2871.00,0.1075
2870.00,0.1094
2869.00,0.1114
2868.00,0.1127
2867.00,0.1126
2866.00,0.1105
2865.00,0.1061
2864.00,0.0998
2863.00,0.0921
2862.00,0.0842
2861.00,0.0767
2860.00,0.0703
2859.00,0.0653
2858.00,0.0615
2857.00,0.0589
2856.00,0.0573
2855.00,0.0564
2854.00,0.0563
2853.00,0.0567
2852.00,0.0578
2851.00,0.0595
2850.00,0.0617
2849.00,0.0646
2848.00,0.0681
2847.00,0.0724
2846.00,0.0775
2845.00,0.0836
2844.00,0.0905
2843.00,0.0981
2842.00,0.1059
2841.00,0.1132
2840.00,0.1193
2839.00,0.1232
2838.00,0.1240
2837.00,0.1212
2836.00,0.1150
2835.00,0.1059
2834.00,0.0952
2833.00,0.0839
2832.00,0.0732
2831.00,0.0638
2830.00,0.0558
2829.00,0.0492
2828.00,0.0440
2827.00,0.0397
2826.00,0.0361
2825.00,0.0332
2824.00,0.0308
2823.00,0.0288
2822.00,0.0271
2821.00,0.0256
2820.00,0.0243
2819.00,0.0231
2818.00,0.0221
2817.00,0.0212
2816.00,0.0204
2815.00,0.0197
2814.00,0.0191
2813.00,0.0186
2812.00,0.0182
2811.00,0.0177
2810.00,0.0172
2809.00,0.0167
2808.00,0.0162
2807.00,0.0156
2806.00,0.0149
2805.00,0.0143
2804.00,0.0136
2803.00,0.0130
2802.00,0.0125
2801.00,0.0121
2800.00,0.0117
2799.00,0.0114
2798.00,0.0112
2797.00,0.0110
2796.00,0.0108
2795.00,0.0105
2794.00,0.0103
2793.00,0.0100
2792.00,0.0097
2791.00,0.0094
2790.00,0.0090
2789.00,0.0087
2788.00,0.0083
2787.00,0.0080
2786.00,0.0077
2785.00,0.0074
2784.00,0.0072
2783.00,0.0069
2782.00,0.0067
2781.00,0.0065
2780.00,0.0063
2779.00,0.0061
2778.00,0.0059
2777.00,0.0058
2776.00,0.0057
2775.00,0.0056
2774.00,0.0056
2773.00,0.0055
2772.00,0.0055
2771.00,0.0054
2770.00,0.0053
2769.00,0.0053
2768.00,0.0053
2767.00,0.0052
2766.00,0.0052
2765.00,0.0052
2764.00,0.0052
2763.00,0.0052
2762.00,0.0052
2761.00,0.0051
2760.00,0.0051
2759.00,0.0050
2758.00,0.0050
2757.00,0.0049
2756.00,0.0049
2755.00,0.0049
2754.00,0.0049
2753.00,0.0050
2752.00,0.0050
2751.00,0.0050
2750.00,0.0050
2749.00,0.0050
2748.00,0.0050
2747.00,0.0051
2746.00,0.0051
2745.00,0.0051
2744.00,0.0052
2743.00,0.0052
2742.00,0.0053
2741.00,0.0054
2740.00,0.0056
2739.00,0.0057
2738.00,0.0058
2737.00,0.0060
2736.00,0.0061
2735.00,0.0063
2734.00,0.0064
2733.00,0.0065
2732.00,0.0067
2731.00,0.0069
2730.00,0.0071
2729.00,0.0073
2728.00,0.0076
2727.00,0.0078
2726.00,0.0081
2725.00,0.0083
2724.00,0.0085
2723.00,0.0086
2722.00,0.0085
2721.00,0.0083
2720.00,0.0081
2719.00,0.0078
2718.00,0.0075
2717.00,0.0072
2716.00,0.0069
2715.00,0.0066
2714.00,0.0064
2713.00,0.0062
2712.00,0.0060
2711.00,0.0058
2710.00,0.0057
2709.00,0.0055
2708.00,0.0054
2707.00,0.0053
2706.00,0.0052
2705.00,0.0051
2704.00,0.0050
2703.00,0.0049
2702.00,0.0048
2701.00,0.0047
2700.00,0.0047
2699.00,0.0046
2698.00,0.0046
2697.00,0.0046
2696.00,0.0046
2695.00,0.0045
2694.00,0.0045
2693.00,0.0045
2692.00,0.0045
2691.00,0.0045
2690.00,0.0045
2689.00,0.0045
2688.00,0.0045
2687.00,0.0045
2686.00,0.0044
2685.00,0.0044
2684.00,0.0043
2683.00,0.0043
2682.00,0.0043
2681.00,0.0044
2680.00,0.0044
2679.00,0.0044
2678.00,0.0044
2677.00,0.0044
2676.00,0.0043
2675.00,0.0043
2674.00,0.0042
2673.00,0.0042
2672.00,0.0042
2671.00,0.0041
2670.00,0.0041
2669.00,0.0041
2668.00,0.0040
2667.00,0.0040
2666.00,0.0041
2665.00,0.0041
2664.00,0.0042
2663.00,0.0042
2662.00,0.0043
2661.00,0.0043
2660.00,0.0044
2659.00,0.0044
2658.00,0.0044
2657.00,0.0043
2656.00,0.0043
2655.00,0.0042
2654.00,0.0042
2653.00,0.0041
2652.00,0.0040
2651.00,0.0040
2650.00,0.0040
2649.00,0.0040
2648.00,0.0039
2647.00,0.0039
2646.00,0.0039
2645.00,0.0039
2644.00,0.0038
2643.00,0.0037
2642.00,0.0037
2641.00,0.0036
2640.00,0.0036
2639.00,0.0036
2638.00,0.0036
2637.00,0.0036
2636.00,0.0035
2635.00,0.0035
2634.00,0.0036
2633.00,0.0036
2632.00,0.0036
2631.00,0.0036
2630.00,0.0037
2629.00,0.0038
2628.00,0.0038
2627.00,0.0038
2626.00,0.0038
2625.00,0.0038
2624.00,0.0038
2623.00,0.0039
2622.00,0.0039
2621.00,0.0039
2620.00,0.0039
2619.00,0.0039
2618.00,0.0040
2617.00,0.0040
2616.00,0.0041
2615.00,0.0040
2614.00,0.0040
2613.00,0.0039
2612.00,0.0039
2611.00,0.0038
2610.00,0.0037
2609.00,0.0036
2608.00,0.0036
2607.00,0.0035
2606.00,0.0034
2605.00,0.0034
2604.00,0.0033
2603.00,0.0033
2602.00,0.0033
2601.00,0.0033
2600.00,0.0033
2599.00,0.0033
2598.00,0.0032
2597.00,0.0032
2596.00,0.0032
2595.00,0.0032
2594.00,0.0033
2593.00,0.0033
2592.00,0.0034
2591.00,0.0034
2590.00,0.0035
2589.00,0.0035
2588.00,0.0036
2587.00,0.0037
2586.00,0.0038
2585.00,0.0039
2584.00,0.0039
2583.00,0.0040
2582.00,0.0040
2581.00,0.0039
2580.00,0.0039
2579.00,0.0038
2578.00,0.0037
2577.00,0.0036
2576.00,0.0036
2575.00,0.0035
2574.00,0.0034
2573.00,0.0032
2572.00,0.0031
2571.00,0.0029
2570.00,0.0028
2569.00,0.0028
2568.00,0.0027
2567.00,0.0027
2566.00,0.0027
2565.00,0.0027
2564.00,0.0027
2563.00,0.0027
2562.00,0.0027
2561.00,0.0027
2560.00,0.0027
2559.00,0.0026
2558.00,0.0026
2557.00,0.0025
2556.00,0.0025
2555.00,0.0025
2554.00,0.0025
2553.00,0.0025
2552.00,0.0024
2551.00,0.0024
2550.00,0.0023
2549.00,0.0023
2548.00,0.0023
2547.00,0.0022
2546.00,0.0021
2545.00,0.0021
2544.00,0.0020
2543.00,0.0020
2542.00,0.0020
2541.00,0.0020
2540.00,0.0020
2539.00,0.0020
2538.00,0.0020
2537.00,0.0019
2536.00,0.0018
2535.00,0.0018
2534.00,0.0018
2533.00,0.0018
2532.00,0.0018
2531.00,0.0018
2530.00,0.0018
2529.00,0.0017
2528.00,0.0017
2527.00,0.0017
2526.00,0.0016
2525.00,0.0016
2524.00,0.0015
2523.00,0.0015
2522.00,0.0014
2521.00,0.0014
2520.00,0.0013
2519.00,0.0013
2518.00,0.0013
2517.00,0.0013
2516.00,0.0012
2515.00,0.0012
2514.00,0.0012
2513.00,0.0012
2512.00,0.0012
2511.00,0.0012
2510.00,0.0012
2509.00,0.0012
2508.00,0.0012
2507.00,0.0012
2506.00,0.0012
2505.00,0.0012
2504.00,0.0012
2503.00,0.0012
2502.00,0.0012
2501.00,0.0012
2500.00,0.0011
2499.00,0.0011
2498.00,0.0011
2497.00,0.0012
2496.00,0.0012
2495.00,0.0012
2494.00,0.0012
2493.00,0.0012
2492.00,0.0012
2491.00,0.0012
2490.00,0.0012
2489.00,0.0012
2488.00,0.0012
2487.00,0.0012
2486.00,0.0012
2485.00,0.0012
2484.00,0.0012
2483.00,0.0012
2482.00,0.0012
2481.00,0.0012
2480.00,0.0012
2479.00,0.0012
2478.00,0.0011
2477.00,0.0011
2476.00,0.0011
2475.00,0.0011
2474.00,0.0011
2473.00,0.0011
2472.00,0.0011
2471.00,0.0011
2470.00,0.0011
2469.00,0.0012
2468.00,0.0012
2467.00,0.0012
2466.00,0.0012
2465.00,0.0012
2464.00,0.0012
2463.00,0.0012
2462.00,0.0011
2461.00,0.0011
2460.00,0.0011
2459.00,0.0012
2458.00,0.0012
2457.00,0.0012
2456.00,0.0012
2455.00,0.0012
2454.00,0.0012
2453.00,0.0012
2452.00,0.0013
2451.00,0.0013
2450.00,0.0013
2449.00,0.0013
2448.00,0.0013
2447.00,0.0013
2446.00,0.0013
2445.00,0.0013
2444.00,0.0012
2443.00,0.0012
2442.00,0.0012
2441.00,0.0012
2440.00,0.0012
2439.00,0.0012
2438.00,0.0012
2437.00,0.0013
2436.00,0.0013
2435.00,0.0014
2434.00,0.0015
2433.00,0.0016
2432.00,0.0016
2431.00,0.0016
2430.00,0.0015
2429.00,0.0015
2428.00,0.0015
2427.00,0.0015
2426.00,0.0015
2425.00,0.0015
2424.00,0.0015
2423.00,0.0015
2422.00,0.0014
2421.00,0.0014
2420.00,0.0013
2419.00,0.0012
2418.00,0.0012
2417.00,0.0012
2416.00,0.0012
2415.00,0.0012
2414.00,0.0012
2413.00,0.0012
2412.00,0.0011
2411.00,0.0011
2410.00,0.0012
2409.00,0.0012
2408.00,0.0011
2407.00,0.0011
2406.00,0.0010
2405.00,0.0010
2404.00,0.0011
2403.00,0.0011
2402.00,0.0011
2401.00,0.0011
2400.00,0.0011
2399.00,0.0011
2398.00,0.0011
2397.00,0.0010
2396.00,0.0010
2395.00,0.0009
2394.00,0.0009
2393.00,0.0009
2392.00,0.0009
2391.00,0.0009
2390.00,0.0009
2389.00,0.0009
2388.00,0.0009
2387.00,0.0009
2386.00,0.0009
2385.00,0.0009
2384.00,0.0009
2383.00,0.0008
2382.00,0.0008
2381.00,0.0008
2380.00,0.0007
2379.00,0.0007
2378.00,0.0006
2377.00,0.0006
2376.00,0.0007
2375.00,0.0008
2374.00,0.0009
2373.00,0.0010
2372.00,0.0010
2371.00,0.0010
2370.00,0.0010
2369.00,0.0009
2368.00,0.0009
2367.00,0.0008
2366.00,0.0008
2365.00,0.0008
2364.00,0.0008
2363.00,0.0008
2362.00,0.0009
2361.00,0.0010
2360.00,0.0011
2359.00,0.0012
2358.00,0.0012
2357.00,0.0012
2356.00,0.0011
2355.00,0.0011
2354.00,0.0009
2353.00,0.0007
2352.00,0.0006
2351.00,0.0005
2350.00,0.0007
2349.00,0.0009
2348.00,0.0011
2347.00,0.0012
2346.00,0.0011
2345.00,0.0010
2344.00,0.0009
2343.00,0.0009
2342.00,0.0009
2341.00,0.0010
2340.00,0.0010
2339.00,0.0011
2338.00,0.0011
2337.00,0.0011
2336.00,0.0011
2335.00,0.0011
2334.00,0.0010
2333.00,0.0010
2332.00,0.0010
2331.00,0.0009
2330.00,0.0010
2329.00,0.0011
2328.00,0.0012
2327.00,0.0015
2326.00,0.0018
2325.00,0.0020
2324.00,0.0020
2323.00,0.0019
2322.00,0.0018
2321.00,0.0017
2320.00,0.0016
2319.00,0.0015
2318.00,0.0014
2317.00,0.0013
2316.00,0.0011
2315.00,0.0010
2314.00,0.0009
2313.00,0.0008
2312.00,0.0008
2311.00,0.0008
2310.00,0.0008
2309.00,0.0007
2308.00,0.0007
2307.00,0.0007
2306.00,0.0007
2305.00,0.0008
2304.00,0.0008
2303.00,0.0009
2302.00,0.0009
2301.00,0.0010
2300.00,0.0011
2299.00,0.0012
2298.00,0.0013
2297.00,0.0014
2296.00,0.0014
2295.00,0.0014
2294.00,0.0014
2293.00,0.0015
2292.00,0.0016
2291.00,0.0016
2290.00,0.0017
2289.00,0.0017
2288.00,0.0017
2287.00,0.0018
2286.00,0.0018
2285.00,0.0019
2284.00,0.0019
2283.00,0.0019
2282.00,0.0019
2281.00,0.0018
2280.00,0.0017
2279.00,0.0017
2278.00,0.0016
2277.00,0.0016
2276.00,0.0016
2275.00,0.0016
2274.00,0.0016
2273.00,0.0016
2272.00,0.0016
2271.00,0.0015
2270.00,0.0014
2269.00,0.0014
2268.00,0.0014
2267.00,0.0013
2266.00,0.0012
2265.00,0.0011
2264.00,0.0011
2263.00,0.0010
2262.00,0.0010
2261.00,0.0011
2260.00,0.0012
2259.00,0.0013
2258.00,0.0014
2257.00,0.0015
2256.00,0.0015
2255.00,0.0014
2254.00,0.0012
2253.00,0.0011
2252.00,0.0010
2251.00,0.0010
2250.00,0.0010
2249.00,0.0009
2248.00,0.0009
2247.00,0.0010
2246.00,0.0010
2245.00,0.0010
2244.00,0.0010
2243.00,0.0010
2242.00,0.0010
2241.00,0.0010
2240.00,0.0011
2239.00,0.0010
2238.00,0.0010
2237.00,0.0010
2236.00,0.0010
2235.00,0.0012
2234.00,0.0013
2233.00,0.0014
2232.00,0.0015
2231.00,0.0014
2230.00,0.0014
2229.00,0.0013
2228.00,0.0012
2227.00,0.0010
2226.00,0.0008
2225.00,0.0005
2224.00,0.0003
2223.00,0.0003
2222.00,0.0004
2221.00,0.0007
2220.00,0.0009
2219.00,0.0010
2218.00,0.0010
2217.00,0.0010
2216.00,0.0009
2215.00,0.0009
2214.00,0.0010
2213.00,0.0010
2212.00,0.0009
2211.00,0.0007
2210.00,0.0006
2209.00,0.0005
2208.00,0.0005
2207.00,0.0004
2206.00,0.0004
2205.00,0.0004
2204.00,0.0005
2203.00,0.0006
2202.00,0.0007
2201.00,0.0008
2200.00,0.0009
2199.00,0.0009
2198.00,0.0008
2197.00,0.0007
2196.00,0.0006
2195.00,0.0007
2194.00,0.0007
2193.00,0.0008
2192.00,0.0008
2191.00,0.0009
2190.00,0.0009
2189.00,0.0011
2188.00,0.0012
2187.00,0.0013
2186.00,0.0012
2185.00,0.0012
2184.00,0.0012
2183.00,0.0012
2182.00,0.0012
2181.00,0.0011
2180.00,0.0011
2179.00,0.0011
2178.00,0.0012
2177.00,0.0013
2176.00,0.0012
2175.00,0.0009
2174.00,0.0006
2173.00,0.0005
2172.00,0.0006
2171.00,0.0010
2170.00,0.0014
2169.00,0.0017
2168.00,0.0018
2167.00,0.0018
2166.00,0.0017
2165.00,0.0016
2164.00,0.0018
2163.00,0.0021
2162.00,0.0022
2161.00,0.0019
2160.00,0.0009
2159.00,-0.0004
2158.00,-0.0015
2157.00,-0.0020
2156.00,-0.0018
2155.00,-0.0015
2154.00,-0.0014
2153.00,-0.0013
2152.00,-0.0013
2151.00,-0.0012
2150.00,-0.0010
2149.00,-0.0009
2148.00,-0.0007
2147.00,-0.0007
2146.00,-0.0008
2145.00,-0.0008
2144.00,-0.0009
2143.00,-0.0009
2142.00,-0.0009
2141.00,-0.0008
2140.00,-0.0007
2139.00,-0.0007
2138.00,-0.0008
2137.00,-0.0009
2136.00,-0.0011
2135.00,-0.0012
2134.00,-0.0013
2133.00,-0.0012
2132.00,-0.0011
2131.00,-0.0008
2130.00,-0.0006
2129.00,-0.0005
2128.00,-0.0004
2127.00,-0.0004
2126.00,-0.0003
2125.00,-0.0003
2124.00,-0.0002
2123.00,-0.0002
2122.00,-0.0001
2121.00,-0.0000
2120.00,0.0001
2119.00,0.0002
2118.00,0.0002
2117.00,0.0003
2116.00,0.0003
2115.00,0.0004
2114.00,0.0004
2113.00,0.0005
2112.00,0.0005
2111.00,0.0006
2110.00,0.0005
2109.00,0.0005
2108.00,0.0004
2107.00,0.0003
2106.00,0.0002
2105.00,0.0002
2104.00,0.0003
2103.00,0.0004
2102.00,0.0004
2101.00,0.0005
2100.00,0.0005
2099.00,0.0004
2098.00,0.0002
2097.00,-0.0000
2096.00,-0.0003
2095.00,-0.0005
2094.00,-0.0005
2093.00,-0.0003
2092.00,0.0000
2091.00,0.0003
2090.00,0.0004
2089.00,0.0004
2088.00,0.0004
2087.00,0.0003
2086.00,0.0003
2085.00,0.0003
2084.00,0.0004
2083.00,0.0004
2082.00,0.0004
2081.00,0.0005
2080.00,0.0006
2079.00,0.0008
2078.00,0.0008
2077.00,0.0009
2076.00,0.0009
2075.00,0.0008
2074.00,0.0006
2073.00,0.0004
2072.00,0.0001
2071.00,-0.0001
2070.00,-0.0001
2069.00,0.0001
2068.00,0.0003
2067.00,0.0004
2066.00,0.0004
2065.00,0.0003
2064.00,0.0003
2063.00,0.0003
2062.00,0.0002
2061.00,0.0002
2060.00,0.0002
2059.00,0.0002
2058.00,0.0001
2057.00,-0.0001
2056.00,-0.0001
2055.00,-0.0000
2054.00,0.0003
2053.00,0.0009
2052.00,0.0015
2051.00,0.0018
2050.00,0.0016
2049.00,0.0011
2048.00,0.0005
2047.00,0.0001
2046.00,-0.0000
2045.00,0.0001
2044.00,0.0003
2043.00,0.0005
2042.00,0.0007
2041.00,0.0007
2040.00,0.0006
2039.00,0.0004
2038.00,0.0004
2037.00,0.0006
2036.00,0.0008
2035.00,0.0007
2034.00,0.0002
2033.00,-0.0003
2032.00,-0.0007
2031.00,-0.0008
2030.00,-0.0007
2029.00,-0.0004
2028.00,-0.0003
2027.00,-0.0004
2026.00,-0.0007
2025.00,-0.0009
2024.00,-0.0010
2023.00,-0.0012
2022.00,-0.0012
2021.00,-0.0011
2020.00,-0.0009
2019.00,-0.0006
2018.00,-0.0005
2017.00,-0.0005
2016.00,-0.0006
2015.00,-0.0008
2014.00,-0.0009
2013.00,-0.0009
2012.00,-0.0007
2011.00,-0.0005
2010.00,-0.0003
2009.00,-0.0003
2008.00,-0.0004
2007.00,-0.0007
2006.00,-0.0009
2005.00,-0.0011
2004.00,-0.0012
2003.00,-0.0013
2002.00,-0.0013
2001.00,-0.0014
2000.00,-0.0014
1999.00,-0.0015
1998.00,-0.0014
1997.00,-0.0011
1996.00,-0.0009
1995.00,-0.0007
1994.00,-0.0006
1993.00,-0.0005
1992.00,-0.0005
1991.00,-0.0005
1990.00,-0.0006
1989.00,-0.0007
1988.00,-0.0006
1987.00,-0.0005
1986.00,-0.0002
1985.00,0.0001
1984.00,0.0005
1983.00,0.0007
1982.00,0.0009
1981.00,0.0011
1980.00,0.0012
1979.00,0.0011
1978.00,0.0005
1977.00,-0.0002
1976.00,-0.0009
1975.00,-0.0013
1974.00,-0.0015
1973.00,-0.0013
1972.00,-0.0011
1971.00,-0.0009
1970.00,-0.0008
1969.00,-0.0007
1968.00,-0.0005
1967.00,-0.0005
1966.00,-0.0006
1965.00,-0.0008
1964.00,-0.0010
1963.00,-0.0009
1962.00,-0.0009
1961.00,-0.0009
1960.00,-0.0010
1959.00,-0.0011
1958.00,-0.0011
1957.00,-0.0010
1956.00,-0.0010
1955.00,-0.0010
1954.00,-0.0012
1953.00,-0.0012
1952.00,-0.0012
1951.00,-0.0011
1950.00,-0.0011
1949.00,-0.0009
1948.00,-0.0009
1947.00,-0.0009
1946.00,-0.0009
1945.00,-0.0010
1944.00,-0.0010
1943.00,-0.0010
1942.00,-0.0009
1941.00,-0.0008
1940.00,-0.0007
1939.00,-0.0006
1938.00,-0.0006
1937.00,-0.0005
1936.00,-0.0004
1935.00,-0.0004
1934.00,-0.0004
1933.00,-0.0005
1932.00,-0.0006
1931.00,-0.0006
1930.00,-0.0007
1929.00,-0.0007
1928.00,-0.0006
1927.00,-0.0005
1926.00,-0.0005
1925.00,-0.0005
1924.00,-0.0004
1923.00,-0.0004
1922.00,-0.0004
1921.00,-0.0003
1920.00,-0.0003
1919.00,-0.0001
1918.00,-0.0000
1917.00,0.0000
1916.00,0.0001
1915.00,0.0000
1914.00,-0.0000
1913.00,-0.0000
1912.00,0.0001
1911.00,0.0002
1910.00,0.0002
1909.00,0.0001
1908.00,-0.0000
1907.00,-0.0001
1906.00,-0.0001
1905.00,-0.0001
1904.00,0.0000
1903.00,0.0001
1902.00,0.0001
1901.00,0.0001
1900.00,0.0001
1899.00,0.0001
1898.00,0.0001
1897.00,0.0002
1896.00,0.0002
1895.00,0.0002
1894.00,0.0002
1893.00,0.0002
1892.00,0.0002
1891.00,0.0002
1890.00,0.0003
1889.00,0.0003
1888.00,0.0004
1887.00,0.0003
1886.00,0.0003
1885.00,0.0002
1884.00,0.0002
1883.00,0.0002
1882.00,0.0002
1881.00,0.0002
1880.00,0.0002
1879.00,0.0003
1878.00,0.0003
1877.00,0.0003
1876.00,0.0003
1875.00,0.0002
1874.00,0.0001
1873.00,0.0001
1872.00,0.0001
1871.00,0.0001
1870.00,0.0001
1869.00,0.0001
1868.00,0.0001
1867.00,0.0001
1866.00,-0.0000
1865.00,-0.0000
1864.00,-0.0000
1863.00,0.0000
1862.00,0.0001
1861.00,0.0001
1860.00,0.0001
1859.00,0.0001
1858.00,0.0002
1857.00,0.0002
1856.00,0.0003
1855.00,0.0003
1854.00,0.0002
1853.00,0.0001
1852.00,0.0002
1851.00,0.0002
1850.00,0.0002
1849.00,0.0003
1848.00,0.0002
1847.00,0.0002
1846.00,0.0001
1845.00,0.0001
1844.00,0.0002
1843.00,0.0004
1842.00,0.0004
1841.00,0.0004
1840.00,0.0004
1839.00,0.0004
1838.00,0.0004
1837.00,0.0005
1836.00,0.0005
1835.00,0.0005
1834.00,0.0005
1833.00,0.0005
1832.00,0.0005
1831.00,0.0005
1830.00,0.0005
1829.00,0.0006
1828.00,0.0006
1827.00,0.0006
1826.00,0.0006
1825.00,0.0006
1824.00,0.0007
1823.00,0.0007
1822.00,0.0007
1821.00,0.0006
1820.00,0.0006
1819.00,0.0005
1818.00,0.0004
1817.00,0.0004
1816.00,0.0005
1815.00,0.0005
1814.00,0.0005
1813.00,0.0004
1812.00,0.0005
1811.00,0.0005
1810.00,0.0006
1809.00,0.0007
1808.00,0.0007
1807.00,0.0008
1806.00,0.0008
1805.00,0.0007
1804.00,0.0007
1803.00,0.0007
1802.00,0.0007
1801.00,0.0007
1800.00,0.0007
1799.00,0.0007
1798.00,0.0007
1797.00,0.0008
1796.00,0.0008
1795.00,0.0007
1794.00,0.0007
1793.00,0.0008
1792.00,0.0009
1791.00,0.0009
1790.00,0.0008
1789.00,0.0008
1788.00,0.0008
1787.00,0.0008
1786.00,0.0008
1785.00,0.0008
1784.00,0.0008
1783.00,0.0008
1782.00,0.0008
1781.00,0.0009
1780.00,0.0010
1779.00,0.0010
1778.00,0.0010
1777.00,0.0009
1776.00,0.0008
1775.00,0.0008
1774.00,0.0008
1773.00,0.0009
1772.00,0.0010
1771.00,0.0010
1770.00,0.0011
1769.00,0.0011
1768.00,0.0012
1767.00,0.0013
1766.00,0.0013
1765.00,0.0013
1764.00,0.0014
1763.00,0.0015
1762.00,0.0016
1761.00,0.0017
1760.00,0.0019
1759.00,0.0020
1758.00,0.0021
1757.00,0.0023
1756.00,0.0025
1755.00,0.0027
1754.00,0.0028
1753.00,0.0030
1752.00,0.0033
1751.00,0.0036
1750.00,0.0038
1749.00,0.0040
1748.00,0.0042
1747.00,0.0044
1746.00,0.0045
1745.00,0.0046
1744.00,0.0046
1743.00,0.0046
1742.00,0.0045
1741.00,0.0045
1740.00,0.0045
1739.00,0.0044
1738.00,0.0043
1737.00,0.0041
1736.00,0.0040
1735.00,0.0039
1734.00,0.0039
1733.00,0.0039
1732.00,0.0040
1731.00,0.0039
1730.00,0.0039
1729.00,0.0039
1728.00,0.0038
1727.00,0.0036
1726.00,0.0035
1725.00,0.0035
1724.00,0.0035
1723.00,0.0034
1722.00,0.0034
1721.00,0.0034
1720.00,0.0033
1719.00,0.0033
1718.00,0.0033
1717.00,0.0033
1716.00,0.0033
1715.00,0.0034
1714.00,0.0034
1713.00,0.0035
1712.00,0.0035
1711.00,0.0035
1710.00,0.0035
1709.00,0.0035
1708.00,0.0036
1707.00,0.0037
1706.00,0.0038
1705.00,0.0040
1704.00,0.0041
1703.00,0.0041
1702.00,0.0041
1701.00,0.0042
1700.00,0.0044
1699.00,0.0045
1698.00,0.0044
1697.00,0.0046
1696.00,0.0050
1695.00,0.0053
1694.00,0.0054
1693.00,0.0055
1692.00,0.0056
1691.00,0.0058
1690.00,0.0059
1689.00,0.0061
1688.00,0.0062
1687.00,0.0063
1686.00,0.0064
1685.00,0.0066
1684.00,0.0070
1683.00,0.0073
1682.00,0.0074
1681.00,0.0075
1680.00,0.0076
1679.00,0.0077
1678.00,0.0078
1677.00,0.0079
1676.00,0.0082
1675.00,0.0084
1674.00,0.0085
1673.00,0.0086
1672.00,0.0087
1671.00,0.0089
1670.00,0.0091
1669.00,0.0094
1668.00,0.0096
1667.00,0.0097
1666.00,0.0097
1665.00,0.0098
1664.00,0.0100
1663.00,0.0101
1662.00,0.0102
1661.00,0.0103
1660.00,0.0104
1659.00,0.0104
1658.00,0.0105
1657.00,0.0105
1656.00,0.0106
1655.00,0.0106
1654.00,0.0107
1653.00,0.0107
1652.00,0.0106
1651.00,0.0104
1650.00,0.0103
1649.00,0.0102
1648.00,0.0101
1647.00,0.0100
1646.00,0.0100
1645.00,0.0100
1644.00,0.0099
1643.00,0.0099
1642.00,0.0098
1641.00,0.0097
1640.00,0.0097
1639.00,0.0096
1638.00,0.0095
1637.00,0.0095
1636.00,0.0095
1635.00,0.0094
1634.00,0.0093
1633.00,0.0092
1632.00,0.0091
1631.00,0.0090
1630.00,0.0090
1629.00,0.0089
1628.00,0.0088
1627.00,0.0086
1626.00,0.0085
1625.00,0.0084
1624.00,0.0083
1623.00,0.0082
1622.00,0.0081
1621.00,0.0081
1620.00,0.0080
1619.00,0.0079
1618.00,0.0078
1617.00,0.0077
1616.00,0.0077
1615.00,0.0076
1614.00,0.0076
1613.00,0.0076
1612.00,0.0076
1611.00,0.0075
1610.00,0.0074
1609.00,0.0074
1608.00,0.0074
1607.00,0.0074
1606.00,0.0074
1605.00,0.0074
1604.00,0.0074
1603.00,0.0073
1602.00,0.0073
1601.00,0.0073
1600.00,0.0073
1599.00,0.0073
1598.00,0.0073
1597.00,0.0073
1596.00,0.0074
1595.00,0.0074
1594.00,0.0074
1593.00,0.0075
1592.00,0.0076
1591.00,0.0076
1590.00,0.0077
1589.00,0.0077
1588.00,0.0078
1587.00,0.0078
1586.00,0.0079
1585.00,0.0080
1584.00,0.0082
1583.00,0.0083
1582.00,0.0085
1581.00,0.0086
1580.00,0.0088
1579.00,0.0089
1578.00,0.0090
1577.00,0.0091
1576.00,0.0091
1575.00,0.0090
1574.00,0.0089
1573.00,0.0088
1572.00,0.0088
1571.00,0.0087
1570.00,0.0086
1569.00,0.0085
1568.00,0.0084
1567.00,0.0083
1566.00,0.0083
1565.00,0.0083
1564.00,0.0084
1563.00,0.0085
1562.00,0.0085
1561.00,0.0086
1560.00,0.0087
1559.00,0.0088
1558.00,0.0089
1557.00,0.0089
1556.00,0.0090
1555.00,0.0090
1554.00,0.0092
1553.00,0.0093
1552.00,0.0095
1551.00,0.0097
1550.00,0.0099
1549.00,0.0101
1548.00,0.0102
1547.00,0.0103
1546.00,0.0105
1545.00,0.0107
1544.00,0.0109
1543.00,0.0110
1542.00,0.0110
1541.00,0.0109
1540.00,0.0108
1539.00,0.0106
1538.00,0.0103
1537.00,0.0102
1536.00,0.0101
1535.00,0.0099
1534.00,0.0096
1533.00,0.0094
1532.00,0.0092
1531.00,0.0090
1530.00,0.0088
1529.00,0.0087
1528.00,0.0087
1527.00,0.0087
1526.00,0.0086
1525.00,0.0084
1524.00,0.0083
1523.00,0.0082
1522.00,0.0080
1521.00,0.0080
1520.00,0.0081
1519.00,0.0082
1518.00,0.0082
1517.00,0.0083
1516.00,0.0083
1515.00,0.0083
1514.00,0.0082
1513.00,0.0082
1512.00,0.0082
1511.00,0.0082
1510.00,0.0081
1509.00,0.0081
1508.00,0.0081
1507.00,0.0081
1506.00,0.0081
1505.00,0.0081
1504.00,0.0081
1503.00,0.0081
1502.00,0.0081
1501.00,0.0082
1500.00,0.0084
1499.00,0.0085
1498.00,0.0086
1497.00,0.0088
1496.00,0.0091
1495.00,0.0094
1494.00,0.0095
1493.00,0.0097
1492.00,0.0100
1491.00,0.0103
1490.00,0.0107
1489.00,0.0111
1488.00,0.0116
1487.00,0.0120
1486.00,0.0125
1485.00,0.0130
1484.00,0.0136
1483.00,0.0143
1482.00,0.0152
1481.00,0.0162
1480.00,0.0173
1479.00,0.0184
1478.00,0.0197
1477.00,0.0213
1476.00,0.0230
1475.00,0.0250
1474.00,0.0278
1473.00,0.0327
1472.00,0.0392
1471.00,0.0459
1470.00,0.0522
1469.00,0.0587
1468.00,0.0656
1467.00,0.0729
1466.00,0.0810
1465.00,0.0896
1464.00,0.0973
1463.00,0.1031
1462.00,0.1073
1461.00,0.1106
1460.00,0.1133
1459.00,0.1157
1458.00,0.1182
1457.00,0.1209
1456.00,0.1229
1455.00,0.1237
1454.00,0.1239
1453.00,0.1236
1452.00,0.1222
1451.00,0.1193
1450.00,0.1147
1449.00,0.1076
1448.00,0.0982
1447.00,0.0880
1446.00,0.0784
1445.00,0.0702
1444.00,0.0631
1443.00,0.0573
1442.00,0.0530
1441.00,0.0501
1440.00,0.0482
1439.00,0.0472
1438.00,0.0468
1437.00,0.0465
1436.00,0.0450
1435.00,0.0421
1434.00,0.0383
1433.00,0.0338
1432.00,0.0293
1431.00,0.0253
1430.00,0.0223
1429.00,0.0200
1428.00,0.0184
1427.00,0.0174
1426.00,0.0168
1425.00,0.0163
1424.00,0.0157
1423.00,0.0153
1422.00,0.0150
1421.00,0.0147
1420.00,0.0142
1419.00,0.0138
1418.00,0.0134
1417.00,0.0128
1416.00,0.0123
1415.00,0.0119
1414.00,0.0115
1413.00,0.0111
1412.00,0.0106
1411.00,0.0101
1410.00,0.0097
1409.00,0.0092
1408.00,0.0086
1407.00,0.0082
1406.00,0.0078
1405.00,0.0072
1404.00,0.0065
1403.00,0.0059
1402.00,0.0054
1401.00,0.0048
1400.00,0.0040
1399.00,0.0034
1398.00,0.0028
1397.00,0.0023
1396.00,0.0019
1395.00,0.0017
1394.00,0.0018
1393.00,0.0020
1392.00,0.0025
1391.00,0.0034
1390.00,0.0047
1389.00,0.0063
1388.00,0.0087
1387.00,0.0123
1386.00,0.0171
1385.00,0.0233
1384.00,0.0313
1383.00,0.0421
1382.00,0.0563
1381.00,0.0741
1380.00,0.0957
1379.00,0.1198
1378.00,0.1429
1377.00,0.1600
1376.00,0.1663
1375.00,0.1589
1374.00,0.1397
1373.00,0.1156
1372.00,0.0930
1371.00,0.0741
1370.00,0.0590
1369.00,0.0474
1368.00,0.0394
1367.00,0.0346
1366.00,0.0321
1365.00,0.0312
1364.00,0.0317
1363.00,0.0333
1362.00,0.0355
1361.00,0.0379
1360.00,0.0396
1359.00,0.0402
1358.00,0.0393
1357.00,0.0369
1356.00,0.0334
1355.00,0.0296
1354.00,0.0259
1353.00,0.0227
1352.00,0.0201
1351.00,0.0181
1350.00,0.0164
1349.00,0.0150
1348.00,0.0140
1347.00,0.0131
1346.00,0.0125
1345.00,0.0120
1344.00,0.0116
1343.00,0.0113
1342.00,0.0111
1341.00,0.0109
1340.00,0.0108
1339.00,0.0107
1338.00,0.0106
1337.00,0.0106
1336.00,0.0107
1335.00,0.0109
1334.00,0.0113
1333.00,0.0118
1332.00,0.0123
1331.00,0.0127
1330.00,0.0130
1329.00,0.0130
1328.00,0.0128
1327.00,0.0124
1326.00,0.0119
1325.00,0.0113
1324.00,0.0108
1323.00,0.0104
1322.00,0.0100
1321.00,0.0098
1320.00,0.0096
1319.00,0.0095
1318.00,0.0094
1317.00,0.0092
1316.00,0.0091
1315.00,0.0091
1314.00,0.0091
1313.00,0.0092
1312.00,0.0094
1311.00,0.0098
1310.00,0.0104
1309.00,0.0113
1308.00,0.0126
1307.00,0.0142
1306.00,0.0157
1305.00,0.0167
1304.00,0.0170
1303.00,0.0165
1302.00,0.0157
1301.00,0.0149
1300.00,0.0143
1299.00,0.0140
1298.00,0.0138
1297.00,0.0137
1296.00,0.0135
1295.00,0.0131
1294.00,0.0126
1293.00,0.0120
1292.00,0.0114
1291.00,0.0108
1290.00,0.0103
1289.00,0.0098
1288.00,0.0095
1287.00,0.0091
1286.00,0.0088
1285.00,0.0085
1284.00,0.0082
1283.00,0.0079
1282.00,0.0076
1281.00,0.0073
1280.00,0.0071
1279.00,0.0068
1278.00,0.0065
1277.00,0.0062
1276.00,0.0059
1275.00,0.0056
1274.00,0.0053
1273.00,0.0050
1272.00,0.0047
1271.00,0.0044
1270.00,0.0041
1269.00,0.0039
1268.00,0.0037
1267.00,0.0037
1266.00,0.0037
1265.00,0.0038
1264.00,0.0039
1263.00,0.0042
1262.00,0.0046
1261.00,0.0051
1260.00,0.0058
1259.00,0.0067
1258.00,0.0075
1257.00,0.0082
1256.00,0.0084
1255.00,0.0079
1254.00,0.0069
1253.00,0.0055
1252.00,0.0043
1251.00,0.0034
1250.00,0.0029
1249.00,0.0028
1248.00,0.0028
1247.00,0.0029
1246.00,0.0030
1245.00,0.0030
1244.00,0.0030
1243.00,0.0030
1242.00,0.0031
1241.00,0.0031
1240.00,0.0031
1239.00,0.0031
1238.00,0.0032
1237.00,0.0033
1236.00,0.0035
1235.00,0.0038
1234.00,0.0041
1233.00,0.0043
1232.00,0.0046
1231.00,0.0049
1230.00,0.0052
1229.00,0.0055
1228.00,0.0059
1227.00,0.0063
1226.00,0.0068
1225.00,0.0073
1224.00,0.0078
1223.00,0.0084
1222.00,0.0088
1221.00,0.0092
1220.00,0.0095
1219.00,0.0097
1218.00,0.0098
1217.00,0.0098
1216.00,0.0098
1215.00,0.0096
1214.00,0.0094
1213.00,0.0092
1212.00,0.0089
1211.00,0.0087
1210.00,0.0085
1209.00,0.0083
1208.00,0.0082
1207.00,0.0081
1206.00,0.0081
1205.00,0.0081
1204.00,0.0080
1203.00,0.0080
1202.00,0.0080
1201.00,0.0079
1200.00,0.0079
1199.00,0.0078
1198.00,0.0077
1197.00,0.0075
1196.00,0.0074
1195.00,0.0073
1194.00,0.0072
1193.00,0.0071
1192.00,0.0070
1191.00,0.0067
1190.00,0.0065
1189.00,0.0063
1188.00,0.0061
1187.00,0.0059
1186.00,0.0056
1185.00,0.0054
1184.00,0.0051
1183.00,0.0050
1182.00,0.0049
1181.00,0.0049
1180.00,0.0049
1179.00,0.0052
1178.00,0.0057
1177.00,0.0065
1176.00,0.0077
1175.00,0.0094
1174.00,0.0117
1173.00,0.0146
1172.00,0.0182
1171.00,0.0221
1170.00,0.0261
1169.00,0.0293
1168.00,0.0312
1167.00,0.0316
1166.00,0.0304
1165.00,0.0280
1164.00,0.0251
1163.00,0.0221
1162.00,0.0193
1161.00,0.0170
1160.00,0.0150
1159.00,0.0133
1158.00,0.0120
1157.00,0.0110
1156.00,0.0102
1155.00,0.0096
1154.00,0.0091
1153.00,0.0085
1152.00,0.0079
1151.00,0.0071
1150.00,0.0063
1149.00,0.0054
1148.00,0.0046
1147.00,0.0039
1146.00,0.0033
1145.00,0.0028
1144.00,0.0023
1143.00,0.0019
1142.00,0.0015
1141.00,0.0011
1140.00,0.0007
1139.00,0.0003
1138.00,0.0001
1137.00,-0.0000
1136.00,-0.0000
1135.00,0.0001
1134.00,0.0003
1133.00,0.0004
1132.00,0.0006
1131.00,0.0007
1130.00,0.0009
1129.00,0.0011
1128.00,0.0013
1127.00,0.0016
1126.00,0.0018
1125.00,0.0021
1124.00,0.0024
1123.00,0.0027
1122.00,0.0030
1121.00,0.0034
1120.00,0.0038
1119.00,0.0041
1118.00,0.0044
1117.00,0.0046
1116.00,0.0050
1115.00,0.0053
1114.00,0.0057
1113.00,0.0060
1112.00,0.0063
1111.00,0.0067
1110.00,0.0071
1109.00,0.0076
1108.00,0.0081
1107.00,0.0087
1106.00,0.0093
1105.00,0.0100
1104.00,0.0106
1103.00,0.0109
1102.00,0.0108
1101.00,0.0104
1100.00,0.0096
1099.00,0.0087
1098.00,0.0078
1097.00,0.0069
1096.00,0.0061
1095.00,0.0053
1094.00,0.0045
1093.00,0.0039
1092.00,0.0033
1091.00,0.0027
1090.00,0.0022
1089.00,0.0018
1088.00,0.0015
1087.00,0.0012
1086.00,0.0010
1085.00,0.0008
1084.00,0.0007
1083.00,0.0005
1082.00,0.0004
1081.00,0.0002
1080.00,-0.0000
1079.00,-0.0002
1078.00,-0.0004
1077.00,-0.0006
1076.00,-0.0008
1075.00,-0.0010
1074.00,-0.0011
1073.00,-0.0011
1072.00,-0.0010
1071.00,-0.0008
1070.00,-0.0007
1069.00,-0.0005
1068.00,-0.0002
1067.00,0.0002
1066.00,0.0006
1065.00,0.0010
1064.00,0.0014
1063.00,0.0017
1062.00,0.0020
1061.00,0.0023
1060.00,0.0026
1059.00,0.0029
1058.00,0.0032
1057.00,0.0036
1056.00,0.0039
1055.00,0.0043
1054.00,0.0048
1053.00,0.0052
1052.00,0.0057
1051.00,0.0063
1050.00,0.0069
1049.00,0.0076
1048.00,0.0083
1047.00,0.0090
1046.00,0.0097
1045.00,0.0101
1044.00,0.0103
1043.00,0.0102
1042.00,0.0100
1041.00,0.0097
1040.00,0.0096
1039.00,0.0096
1038.00,0.0098
1037.00,0.0101
1036.00,0.0102
1035.00,0.0103
1034.00,0.0102
1033.00,0.0101
1032.00,0.0101
1031.00,0.0100
1030.00,0.0100
1029.00,0.0100
1028.00,0.0100
1027.00,0.0100
1026.00,0.0100
1025.00,0.0101
1024.00,0.0101
1023.00,0.0101
1022.00,0.0102
1021.00,0.0102
1020.00,0.0102
1019.00,0.0104
1018.00,0.0106
1017.00,0.0109
1016.00,0.0112
1015.00,0.0115
1014.00,0.0119
1013.00,0.0124
1012.00,0.0129
1011.00,0.0134
1010.00,0.0139
1009.00,0.0143
1008.00,0.0148
1007.00,0.0155
1006.00,0.0165
1005.00,0.0180
1004.00,0.0202
1003.00,0.0231
1002.00,0.0269
1001.00,0.0316
1000.00,0.0368
999.00,0.0413
998.00,0.0439
997.00,0.0435
996.00,0.0403
995.00,0.0351
994.00,0.0295
993.00,0.0245
992.00,0.0206
991.00,0.0178
990.00,0.0158
989.00,0.0144
988.00,0.0135
987.00,0.0129
986.00,0.0125
985.00,0.0124
984.00,0.0126
983.00,0.0132
982.00,0.0143
981.00,0.0159
980.00,0.0182
979.00,0.0211
978.00,0.0247
977.00,0.0292
976.00,0.0341
975.00,0.0391
974.00,0.0430
973.00,0.0445
972.00,0.0428
971.00,0.0379
970.00,0.0310
969.00,0.0235
968.00,0.0169
967.00,0.0118
966.00,0.0081
965.00,0.0055
964.00,0.0037
963.00,0.0023
962.00,0.0012
961.00,0.0001
960.00,-0.0009
959.00,-0.0020
958.00,-0.0029
957.00,-0.0036
956.00,-0.0042
955.00,-0.0045
954.00,-0.0047
953.00,-0.0048
952.00,-0.0046
951.00,-0.0043
950.00,-0.0040
949.00,-0.0037
948.00,-0.0033
947.00,-0.0030
946.00,-0.0027
945.00,-0.0025
944.00,-0.0021
943.00,-0.0016
942.00,-0.0010
941.00,-0.0005
940.00,-0.0001
939.00,0.0000
938.00,0.0000
937.00,0.0000
936.00,0.0001
935.00,0.0002
934.00,0.0006
933.00,0.0012
932.00,0.0017
931.00,0.0022
930.00,0.0026
929.00,0.0029
928.00,0.0033
927.00,0.0036
926.00,0.0040
925.00,0.0043
924.00,0.0046
923.00,0.0049
922.00,0.0053
921.00,0.0057
920.00,0.0060
919.00,0.0062
918.00,0.0063
917.00,0.0065
916.00,0.0066
915.00,0.0068
914.00,0.0069
913.00,0.0070
912.00,0.0071
911.00,0.0072
910.00,0.0074
909.00,0.0077
908.00,0.0080
907.00,0.0085
906.00,0.0092
905.00,0.0101
904.00,0.0115
903.00,0.0132
902.00,0.0151
901.00,0.0169
900.00,0.0181
899.00,0.0185
898.00,0.0178
897.00,0.0164
896.00,0.0146
895.00,0.0128
894.00,0.0113
893.00,0.0102
892.00,0.0093
891.00,0.0087
890.00,0.0084
889.00,0.0082
888.00,0.0082
887.00,0.0081
886.00,0.0080
885.00,0.0080
884.00,0.0079
883.00,0.0079
882.00,0.0080
881.00,0.0081
880.00,0.0082
879.00,0.0084
878.00,0.0086
877.00,0.0088
876.00,0.0089
875.00,0.0089
874.00,0.0088
873.00,0.0087
872.00,0.0085
871.00,0.0084
870.00,0.0083
869.00,0.0083
868.00,0.0083
867.00,0.0084
866.00,0.0084
865.00,0.0085
864.00,0.0086
863.00,0.0086
862.00,0.0088
861.00,0.0089
860.00,0.0091
859.00,0.0093
858.00,0.0095
857.00,0.0097
856.00,0.0098
855.00,0.0099
854.00,0.0101
853.00,0.0103
852.00,0.0107
851.00,0.0113
850.00,0.0120
849.00,0.0130
848.00,0.0143
847.00,0.0163
846.00,0.0193
845.00,0.0237
844.00,0.0297
843.00,0.0364
842.00,0.0418
841.00,0.0437
840.00,0.0411
839.00,0.0352
838.00,0.0286
837.00,0.0231
836.00,0.0193
835.00,0.0168
834.00,0.0151
833.00,0.0140
832.00,0.0132
831.00,0.0125
830.00,0.0119
829.00,0.0113
828.00,0.0108
827.00,0.0105
826.00,0.0104
825.00,0.0105
824.00,0.0105
823.00,0.0104
822.00,0.0103
821.00,0.0101
820.00,0.0101
819.00,0.0101
818.00,0.0104
817.00,0.0108
816.00,0.0115
815.00,0.0125
814.00,0.0138
813.00,0.0153
812.00,0.0168
811.00,0.0183
810.00,0.0194
809.00,0.0199
808.00,0.0198
807.00,0.0189
806.00,0.0175
805.00,0.0160
804.00,0.0146
803.00,0.0134
802.00,0.0124
801.00,0.0117
800.00,0.0113
799.00,0.0108
798.00,0.0104
797.00,0.0100
796.00,0.0096
795.00,0.0095
794.00,0.0094
793.00,0.0094
792.00,0.0093
791.00,0.0092
790.00,0.0090
789.00,0.0089
788.00,0.0087
787.00,0.0085
786.00,0.0082
785.00,0.0080
784.00,0.0078
783.00,0.0076
782.00,0.0074
781.00,0.0072
780.00,0.0071
779.00,0.0070
778.00,0.0070
777.00,0.0071
776.00,0.0072
775.00,0.0074
774.00,0.0076
773.00,0.0079
772.00,0.0083
771.00,0.0086
770.00,0.0088
769.00,0.0089
768.00,0.0090
767.00,0.0091
766.00,0.0092
765.00,0.0090
764.00,0.0086
763.00,0.0081
762.00,0.0076
761.00,0.0073
760.00,0.0072
759.00,0.0072
758.00,0.0071
757.00,0.0069
756.00,0.0066
755.00,0.0064
754.00,0.0063
753.00,0.0061
752.00,0.0061
751.00,0.0061
750.00,0.0063
749.00,0.0065
748.00,0.0067
747.00,0.0069
746.00,0.0070
745.00,0.0071
744.00,0.0070
743.00,0.0069
742.00,0.0069
741.00,0.0070
740.00,0.0072
739.00,0.0075
738.00,0.0076
737.00,0.0077
736.00,0.0078
735.00,0.0079
734.00,0.0080
733.00,0.0080
732.00,0.0082
731.00,0.0083
730.00,0.0084
729.00,0.0084
728.00,0.0083
727.00,0.0083
726.00,0.0082
725.00,0.0082
724.00,0.0081
723.00,0.0079
722.00,0.0077
721.00,0.0077
720.00,0.0077
719.00,0.0077
718.00,0.0076
717.00,0.0074
716.00,0.0072
715.00,0.0070
714.00,0.0069
713.00,0.0068
712.00,0.0066
711.00,0.0066
710.00,0.0065
709.00,0.0065
708.00,0.0065
707.00,0.0066
706.00,0.0067
705.00,0.0068
704.00,0.0068
703.00,0.0069
702.00,0.0069
701.00,0.0070
700.00,0.0070
699.00,0.0069
698.00,0.0067
697.00,0.0065
696.00,0.0063
695.00,0.0062
694.00,0.0063
693.00,0.0063
692.00,0.0063
691.00,0.0063
690.00,0.0062
689.00,0.0061
688.00,0.0060
687.00,0.0061
686.00,0.0062
685.00,0.0064
684.00,0.0066
683.00,0.0067
682.00,0.0066
681.00,0.0066
680.00,0.0065
679.00,0.0065
678.00,0.0066
677.00,0.0065
676.00,0.0064
675.00,0.0062
674.00,0.0061
673.00,0.0060
672.00,0.0059
671.00,0.0060
670.00,0.0063
669.00,0.0065
668.00,0.0065
667.00,0.0065
666.00,0.0063
665.00,0.0061
664.00,0.0061
663.00,0.0062
662.00,0.0065
661.00,0.0067
660.00,0.0068
659.00,0.0068
658.00,0.0067
657.00,0.0066
656.00,0.0065
655.00,0.0063
654.00,0.0061
653.00,0.0061
652.00,0.0061
651.00,0.0061
650.00,0.0060
649.00,0.0058
648.00,0.0056
647.00,0.0056
646.00,0.0056
645.00,0.0057
644.00,0.0058
643.00,0.0060
642.00,0.0062
641.00,0.0064
640.00,0.0064
639.00,0.0064
638.00,0.0062
637.00,0.0062
636.00,0.0062
635.00,0.0063
634.00,0.0064
633.00,0.0067
632.00,0.0070
631.00,0.0071
630.00,0.0069
629.00,0.0065
628.00,0.0062
627.00,0.0061
626.00,0.0062
625.00,0.0062
624.00,0.0063
623.00,0.0065
622.00,0.0068
621.00,0.0070
620.00,0.0069
619.00,0.0066
618.00,0.0065
617.00,0.0064
616.00,0.0065
615.00,0.0066
614.00,0.0067
613.00,0.0068
612.00,0.0068
611.00,0.0069
610.00,0.0069
609.00,0.0070
608.00,0.0070
607.00,0.0070
606.00,0.0070
605.00,0.0070
604.00,0.0069
603.00,0.0068
602.00,0.0068
601.00,0.0069
600.00,0.0070
599.00,0.0071
598.00,0.0072
597.00,0.0072
596.00,0.0071
595.00,0.0068
594.00,0.0065
593.00,0.0062
592.00,0.0059
591.00,0.0060
590.00,0.0063
589.00,0.0068
588.00,0.0072
587.00,0.0073
586.00,0.0073
585.00,0.0072
584.00,0.0070
583.00,0.0069
582.00,0.0071
581.00,0.0075
580.00,0.0079
579.00,0.0079
578.00,0.0077
577.00,0.0072
576.00,0.0069
575.00,0.0068
574.00,0.0069
573.00,0.0073
572.00,0.0077
571.00,0.0079
570.00,0.0078
569.00,0.0076
568.00,0.0074
567.00,0.0073
566.00,0.0073
565.00,0.0072
564.00,0.0072
563.00,0.0071
562.00,0.0071
561.00,0.0072
560.00,0.0074
559.00,0.0077
558.00,0.0080
557.00,0.0082
556.00,0.0080
555.00,0.0076
554.00,0.0070
553.00,0.0067
552.00,0.0069
551.00,0.0073
550.00,0.0077
549.00,0.0078
548.00,0.0075
547.00,0.0070
546.00,0.0065
545.00,0.0061
544.00,0.0060
543.00,0.0062
542.00,0.0067
541.00,0.0074
540.00,0.0080
539.00,0.0085
538.00,0.0086
537.00,0.0084
536.00,0.0080
535.00,0.0078
534.00,0.0080
533.00,0.0082
532.00,0.0084
531.00,0.0084
530.00,0.0085
529.00,0.0087
528.00,0.0087
527.00,0.0086
526.00,0.0083
525.00,0.0080
524.00,0.0078
523.00,0.0078
522.00,0.0078
521.00,0.0079
520.00,0.0080
519.00,0.0080
518.00,0.0080
517.00,0.0077
516.00,0.0074
515.00,0.0073
514.00,0.0073
513.00,0.0073
512.00,0.0072
511.00,0.0069
510.00,0.0066
509.00,0.0065
508.00,0.0066
507.00,0.0068
506.00,0.0071
505.00,0.0073
504.00,0.0073
503.00,0.0072
502.00,0.0069
501.00,0.0064
500.00,0.0058
499.00,0.0054
498.00,0.0054
497.00,0.0058
496.00,0.0064
495.00,0.0070
494.00,0.0073
493.00,0.0074
492.00,0.0071
491.00,0.0067
490.00,0.0064
489.00,0.0064
488.00,0.0067
487.00,0.0071
486.00,0.0075
485.00,0.0076
484.00,0.0072
483.00,0.0064
482.00,0.0056
481.00,0.0050
480.00,0.0050
479.00,0.0053
478.00,0.0057
477.00,0.0061
476.00,0.0064
475.00,0.0064
474.00,0.0062
473.00,0.0060
472.00,0.0062
471.00,0.0067
470.00,0.0075
469.00,0.0081
468.00,0.0085
467.00,0.0088
466.00,0.0093
465.00,0.0100
464.00,0.0110
463.00,0.0121
462.00,0.0133
461.00,0.0142
460.00,0.0146
459.00,0.0145
458.00,0.0137
457.00,0.0122
456.00,0.0105
455.00,0.0091
454.00,0.0085
453.00,0.0088
452.00,0.0102
451.00,0.0118
450.00,0.0128
