Created as New Dataset,Sample 015 By Administrator Date Friday, September 05 2025
cm-1,A
4000.00,0.0010
3999.00,0.0010
3998.00,0.0010
3997.00,0.0010
3996.00,0.0010
3995.00,0.0010
3994.00,0.0010
3993.00,0.0010
3992.00,0.0010
3991.00,0.0010
3990.00,0.0010
3989.00,0.0010
3988.00,0.0010
3987.00,0.0010
3986.00,0.0009
3985.00,0.0009
3984.00,0.0009
3983.00,0.0009
3982.00,0.0009
3981.00,0.0009
3980.00,0.0009
3979.00,0.0009
3978.00,0.0009
3977.00,0.0008
3976.00,0.0008
3975.00,0.0008
3974.00,0.0009
3973.00,0.0009
3972.00,0.0009
3971.00,0.0009
3970.00,0.0009
3969.00,0.0009
3968.00,0.0009
3967.00,0.0009
3966.00,0.0009
3965.00,0.0008
3964.00,0.0008
3963.00,0.0008
3962.00,0.0008
3961.00,0.0008
3960.00,0.0008
3959.00,0.0009
3958.00,0.0009
3957.00,0.0008
3956.00,0.0008
3955.00,0.0008
3954.00,0.0008
3953.00,0.0008
3952.00,0.0008
3951.00,0.0008
3950.00,0.0008
3949.00,0.0008
3948.00,0.0008
3947.00,0.0008
3946.00,0.0008
3945.00,0.0008
3944.00,0.0008
3943.00,0.0008
3942.00,0.0008
3941.00,0.0008
3940.00,0.0008
3939.00,0.0008
3938.00,0.0008
3937.00,0.0008
3936.00,0.0008
3935.00,0.0007
3934.00,0.0008
3933.00,0.0008
3932.00,0.0008
3931.00,0.0008
3930.00,0.0008
3929.00,0.0009
3928.00,0.0009
3927.00,0.0009
3926.00,0.0009
3925.00,0.0009
3924.00,0.0008
3923.00,0.0008
3922.00,0.0007
3921.00,0.0007
3920.00,0.0007
3919.00,0.0007
3918.00,0.0007
3917.00,0.0007
3916.00,0.0007
3915.00,0.0007
3914.00,0.0007
3913.00,0.0007
3912.00,0.0007
3911.00,0.0007
3910.00,0.0007
3909.00,0.0007
3908.00,0.0007
3907.00,0.0006
3906.00,0.0006
3905.00,0.0006
3904.00,0.0006
3903.00,0.0005
3902.00,0.0005
3901.00,0.0006
3900.00,0.0006
3899.00,0.0007
3898.00,0.0007
3897.00,0.0007
3896.00,0.0007
3895.00,0.0006
3894.00,0.0006
3893.00,0.0006
3892.00,0.0006
3891.00,0.0007
3890.00,0.0007
3889.00,0.0007
3888.00,0.0006
3887.00,0.0006
3886.00,0.0006
3885.00,0.0006
3884.00,0.0006
3883.00,0.0006
3882.00,0.0006
3881.00,0.0006
3880.00,0.0006
3879.00,0.0006
3878.00,0.0006
3877.00,0.0005
3876.00,0.0006
3875.00,0.0006
3874.00,0.0006
3873.00,0.0006
3872.00,0.0005
3871.00,0.0005
3870.00,0.0006
3869.00,0.0006
3868.00,0.0006
3867.00,0.0005
3866.00,0.0005
3865.00,0.0005
3864.00,0.0005
3863.00,0.0005
3862.00,0.0005
3861.00,0.0005
3860.00,0.0005
3859.00,0.0005
3858.00,0.0006
3857.00,0.0007
3856.00,0.0007
3855.00,0.0006
3854.00,0.0006
3853.00,0.0005
3852.00,0.0004
3851.00,0.0004
3850.00,0.0004
3849.00,0.0004
3848.00,0.0005
3847.00,0.0005
3846.00,0.0005
3845.00,0.0005
3844.00,0.0005
3843.00,0.0004
3842.00,0.0004
3841.00,0.0004
3840.00,0.0004
3839.00,0.0004
3838.00,0.0004
3837.00,0.0005
3836.00,0.0005
3835.00,0.0004
3834.00,0.0004
3833.00,0.0004
3832.00,0.0004
3831.00,0.0005
3830.00,0.0004
3829.00,0.0004
3828.00,0.0004
3827.00,0.0004
3826.00,0.0004
3825.00,0.0004
3824.00,0.0003
3823.00,0.0003
3822.00,0.0004
3821.00,0.0005
3820.00,0.0005
3819.00,0.0005
3818.00,0.0005
3817.00,0.0005
3816.00,0.0005
3815.00,0.0005
3814.00,0.0006
3813.00,0.0005
3812.00,0.0005
3811.00,0.0005
3810.00,0.0005
3809.00,0.0005
3808.00,0.0005
3807.00,0.0005
3806.00,0.0004
3805.00,0.0004
3804.00,0.0003
3803.00,0.0003
3802.00,0.0004
3801.00,0.0004
3800.00,0.0004
3799.00,0.0004
3798.00,0.0004
3797.00,0.0005
3796.00,0.0006
3795.00,0.0006
3794.00,0.0006
3793.00,0.0006
3792.00,0.0006
3791.00,0.0006
3790.00,0.0007
3789.00,0.0007
3788.00,0.0007
3787.00,0.0007
3786.00,0.0007
3785.00,0.0007
3784.00,0.0007
3783.00,0.0006
3782.00,0.0006
3781.00,0.0007
3780.00,0.0007
3779.00,0.0007
3778.00,0.0007
3777.00,0.0007
3776.00,0.0007
3775.00,0.0007
3774.00,0.0006
3773.00,0.0006
3772.00,0.0005
3771.00,0.0005
3770.00,0.0005
3769.00,0.0006
3768.00,0.0007
3767.00,0.0008
3766.00,0.0008
3765.00,0.0009
3764.00,0.0008
3763.00,0.0008
3762.00,0.0007
3761.00,0.0007
3760.00,0.0007
3759.00,0.0007
3758.00,0.0007
3757.00,0.0007
3756.00,0.0006
3755.00,0.0006
3754.00,0.0005
3753.00,0.0004
3752.00,0.0004
3751.00,0.0004
3750.00,0.0003
3749.00,0.0003
3748.00,0.0003
3747.00,0.0004
3746.00,0.0004
3745.00,0.0005
3744.00,0.0005
3743.00,0.0004
3742.00,0.0003
3741.00,0.0002
3740.00,0.0002
3739.00,0.0002
3738.00,0.0001
3737.00,0.0001
3736.00,0.0001
3735.00,0.0001
3734.00,0.0001
3733.00,0.0002
3732.00,0.0002
3731.00,0.0003
3730.00,0.0003
3729.00,0.0003
3728.00,0.0004
3727.00,0.0004
3726.00,0.0004
3725.00,0.0005
3724.00,0.0004
3723.00,0.0004
3722.00,0.0004
3721.00,0.0004
3720.00,0.0004
3719.00,0.0004
3718.00,0.0004
3717.00,0.0004
3716.00,0.0004
3715.00,0.0004
3714.00,0.0004
3713.00,0.0004
3712.00,0.0004
3711.00,0.0004
3710.00,0.0003
3709.00,0.0003
3708.00,0.0003
3707.00,0.0003
3706.00,0.0003
3705.00,0.0002
3704.00,0.0002
3703.00,0.0002
3702.00,0.0002
3701.00,0.0003
3700.00,0.0003
3699.00,0.0003
3698.00,0.0003
3697.00,0.0003
3696.00,0.0003
3695.00,0.0002
3694.00,0.0002
3693.00,0.0002
3692.00,0.0002
3691.00,0.0002
3690.00,0.0001
3689.00,-0.0001
3688.00,-0.0002
3687.00,-0.0004
3686.00,-0.0005
3685.00,-0.0007
3684.00,-0.0008
3683.00,-0.0009
3682.00,-0.0011
3681.00,-0.0013
3680.00,-0.0015
3679.00,-0.0017
3678.00,-0.0019
3677.00,-0.0021
3676.00,-0.0023
3675.00,-0.0024
3674.00,-0.0026
3673.00,-0.0027
3672.00,-0.0029
3671.00,-0.0030
3670.00,-0.0031
3669.00,-0.0031
3668.00,-0.0032
3667.00,-0.0032
3666.00,-0.0033
3665.00,-0.0033
3664.00,-0.0034
3663.00,-0.0035
3662.00,-0.0036
3661.00,-0.0036
3660.00,-0.0036
3659.00,-0.0037
3658.00,-0.0037
3657.00,-0.0036
3656.00,-0.0036
3655.00,-0.0036
3654.00,-0.0035
3653.00,-0.0035
3652.00,-0.0034
3651.00,-0.0034
3650.00,-0.0034
3649.00,-0.0033
3648.00,-0.0033
3647.00,-0.0032
3646.00,-0.0031
3645.00,-0.0030
3644.00,-0.0028
3643.00,-0.0025
3642.00,-0.0023
3641.00,-0.0022
3640.00,-0.0022
3639.00,-0.0022
3638.00,-0.0023
3637.00,-0.0022
3636.00,-0.0020
3635.00,-0.0016
3634.00,-0.0012
3633.00,-0.0009
3632.00,-0.0008
3631.00,-0.0007
3630.00,-0.0006
3629.00,-0.0005
3628.00,-0.0004
3627.00,-0.0003
3626.00,-0.0003
3625.00,-0.0002
3624.00,-0.0002
3623.00,-0.0002
3622.00,-0.0002
3621.00,-0.0002
3620.00,-0.0001
3619.00,-0.0001
3618.00,-0.0000
3617.00,0.0000
3616.00,0.0001
3615.00,0.0002
3614.00,0.0003
3613.00,0.0004
3612.00,0.0004
3611.00,0.0005
3610.00,0.0006
3609.00,0.0006
3608.00,0.0007
3607.00,0.0007
3606.00,0.0007
3605.00,0.0007
3604.00,0.0007
3603.00,0.0007
3602.00,0.0008
3601.00,0.0008
3600.00,0.0008
3599.00,0.0009
3598.00,0.0009
3597.00,0.0009
3596.00,0.0010
3595.00,0.0010
3594.00,0.0010
3593.00,0.0010
3592.00,0.0010
3591.00,0.0010
3590.00,0.0010
3589.00,0.0010
3588.00,0.0010
3587.00,0.0010
3586.00,0.0011
3585.00,0.0011
3584.00,0.0011
3583.00,0.0012
3582.00,0.0013
3581.00,0.0013
3580.00,0.0013
3579.00,0.0013
3578.00,0.0013
3577.00,0.0012
3576.00,0.0012
3575.00,0.0012
3574.00,0.0012
3573.00,0.0013
3572.00,0.0013
3571.00,0.0013
3570.00,0.0014
3569.00,0.0014
3568.00,0.0014
3567.00,0.0014
3566.00,0.0014
3565.00,0.0014
3564.00,0.0015
3563.00,0.0015
3562.00,0.0016
3561.00,0.0016
3560.00,0.0017
3559.00,0.0017
3558.00,0.0017
3557.00,0.0018
3556.00,0.0018
3555.00,0.0018
3554.00,0.0018
3553.00,0.0018
3552.00,0.0018
3551.00,0.0019
3550.00,0.0019
3549.00,0.0019
3548.00,0.0020
3547.00,0.0020
3546.00,0.0020
3545.00,0.0020
3544.00,0.0020
3543.00,0.0020
3542.00,0.0020
3541.00,0.0020
3540.00,0.0021
3539.00,0.0021
3538.00,0.0021
3537.00,0.0021
3536.00,0.0021
3535.00,0.0022
3534.00,0.0022
3533.00,0.0022
3532.00,0.0022
3531.00,0.0023
3530.00,0.0023
3529.00,0.0024
3528.00,0.0024
3527.00,0.0024
3526.00,0.0024
3525.00,0.0024
3524.00,0.0024
3523.00,0.0024
3522.00,0.0025
3521.00,0.0025
3520.00,0.0025
3519.00,0.0025
3518.00,0.0026
3517.00,0.0026
3516.00,0.0026
3515.00,0.0026
3514.00,0.0026
3513.00,0.0027
3512.00,0.0027
3511.00,0.0027
3510.00,0.0027
3509.00,0.0027
3508.00,0.0027
3507.00,0.0027
3506.00,0.0027
3505.00,0.0028
3504.00,0.0028
3503.00,0.0028
3502.00,0.0028
3501.00,0.0029
3500.00,0.0029
3499.00,0.0030
3498.00,0.0030
3497.00,0.0031
3496.00,0.0031
3495.00,0.0031
3494.00,0.0031
3493.00,0.0031
3492.00,0.0030
3491.00,0.0030
3490.00,0.0030
3489.00,0.0030
3488.00,0.0031
3487.00,0.0031
3486.00,0.0031
3485.00,0.0032
3484.00,0.0032
3483.00,0.0032
3482.00,0.0032
3481.00,0.0033
3480.00,0.0033
3479.00,0.0033
3478.00,0.0032
3477.00,0.0032
3476.00,0.0033
3475.00,0.0033
3474.00,0.0034
3473.00,0.0034
3472.00,0.0035
3471.00,0.0035
3470.00,0.0035
3469.00,0.0035
3468.00,0.0035
3467.00,0.0034
3466.00,0.0034
3465.00,0.0035
3464.00,0.0035
3463.00,0.0035
3462.00,0.0035
3461.00,0.0035
3460.00,0.0035
3459.00,0.0036
3458.00,0.0036
3457.00,0.0036
3456.00,0.0036
3455.00,0.0036
3454.00,0.0036
3453.00,0.0037
3452.00,0.0038
3451.00,0.0038
3450.00,0.0039
3449.00,0.0039
3448.00,0.0039
3447.00,0.0039
3446.00,0.0039
3445.00,0.0038
3444.00,0.0038
3443.00,0.0038
3442.00,0.0039
3441.00,0.0040
3440.00,0.0040
3439.00,0.0040
3438.00,0.0040
3437.00,0.0040
3436.00,0.0040
3435.00,0.0040
3434.00,0.0041
3433.00,0.0041
3432.00,0.0042
3431.00,0.0042
3430.00,0.0042
3429.00,0.0043
3428.00,0.0043
3427.00,0.0043
3426.00,0.0043
3425.00,0.0043
3424.00,0.0044
3423.00,0.0044
3422.00,0.0044
3421.00,0.0044
3420.00,0.0044
3419.00,0.0044
3418.00,0.0044
3417.00,0.0044
3416.00,0.0045
3415.00,0.0045
3414.00,0.0045
3413.00,0.0046
3412.00,0.0046
3411.00,0.0046
3410.00,0.0047
3409.00,0.0047
3408.00,0.0047
3407.00,0.0047
3406.00,0.0047
3405.00,0.0047
3404.00,0.0047
3403.00,0.0047
3402.00,0.0048
3401.00,0.0048
3400.00,0.0048
3399.00,0.0048
3398.00,0.0048
3397.00,0.0048
3396.00,0.0049
3395.00,0.0049
3394.00,0.0049
3393.00,0.0049
3392.00,0.0050
3391.00,0.0050
3390.00,0.0050
3389.00,0.0050
3388.00,0.0050
3387.00,0.0050
3386.00,0.0051
3385.00,0.0051
3384.00,0.0051
3383.00,0.0051
3382.00,0.0051
3381.00,0.0051
3380.00,0.0051
3379.00,0.0052
3378.00,0.0052
3377.00,0.0052
3376.00,0.0052
3375.00,0.0052
3374.00,0.0052
3373.00,0.0052
3372.00,0.0052
3371.00,0.0052
3370.00,0.0052
3369.00,0.0052
3368.00,0.0053
3367.00,0.0053
3366.00,0.0053
3365.00,0.0054
3364.00,0.0054
3363.00,0.0055
3362.00,0.0055
3361.00,0.0055
3360.00,0.0055
3359.00,0.0054
3358.00,0.0054
3357.00,0.0054
3356.00,0.0054
3355.00,0.0055
3354.00,0.0055
3353.00,0.0056
3352.00,0.0056
3351.00,0.0056
3350.00,0.0056
3349.00,0.0056
3348.00,0.0056
3347.00,0.0056
3346.00,0.0056
3345.00,0.0056
3344.00,0.0056
3343.00,0.0056
3342.00,0.0056
3341.00,0.0057
3340.00,0.0057
3339.00,0.0056
3338.00,0.0056
3337.00,0.0056
3336.00,0.0056
3335.00,0.0056
3334.00,0.0056
3333.00,0.0057
3332.00,0.0057
3331.00,0.0057
3330.00,0.0057
3329.00,0.0057
3328.00,0.0057
3327.00,0.0057
3326.00,0.0057
3325.00,0.0057
3324.00,0.0057
3323.00,0.0057
3322.00,0.0057
3321.00,0.0057
3320.00,0.0058
3319.00,0.0058
3318.00,0.0059
3317.00,0.0059
3316.00,0.0060
3315.00,0.0060
3314.00,0.0060
3313.00,0.0060
3312.00,0.0059
3311.00,0.0059
3310.00,0.0059
3309.00,0.0059
3308.00,0.0059
3307.00,0.0059
3306.00,0.0059
3305.00,0.0059
3304.00,0.0059
3303.00,0.0059
3302.00,0.0059
3301.00,0.0059
3300.00,0.0059
3299.00,0.0059
3298.00,0.0059
3297.00,0.0059
3296.00,0.0059
3295.00,0.0059
3294.00,0.0059
3293.00,0.0059
3292.00,0.0059
3291.00,0.0060
3290.00,0.0060
3289.00,0.0060
3288.00,0.0059
3287.00,0.0059
3286.00,0.0059
3285.00,0.0059
3284.00,0.0058
3283.00,0.0058
3282.00,0.0058
3281.00,0.0057
3280.00,0.0057
3279.00,0.0057
3278.00,0.0057
3277.00,0.0057
3276.00,0.0057
3275.00,0.0057
3274.00,0.0056
3273.00,0.0056
3272.00,0.0055
3271.00,0.0055
3270.00,0.0055
3269.00,0.0055
3268.00,0.0056
3267.00,0.0055
3266.00,0.0055
3265.00,0.0055
3264.00,0.0054
3263.00,0.0054
3262.00,0.0054
3261.00,0.0054
3260.00,0.0054
3259.00,0.0053
3258.00,0.0052
3257.00,0.0052
3256.00,0.0052
3255.00,0.0052
3254.00,0.0051
3253.00,0.0051
3252.00,0.0051
3251.00,0.0050
3250.00,0.0050
3249.00,0.0049
3248.00,0.0049
3247.00,0.0049
3246.00,0.0049
3245.00,0.0049
3244.00,0.0049
3243.00,0.0049
3242.00,0.0049
3241.00,0.0049
3240.00,0.0049
3239.00,0.0049
3238.00,0.0048
3237.00,0.0048
3236.00,0.0047
3235.00,0.0047
3234.00,0.0047
3233.00,0.0047
3232.00,0.0047
3231.00,0.0047
3230.00,0.0047
3229.00,0.0048
3228.00,0.0048
3227.00,0.0048
3226.00,0.0049
3225.00,0.0049
3224.00,0.0049
3223.00,0.0049
3222.00,0.0049
3221.00,0.0049
3220.00,0.0049
3219.00,0.0049
3218.00,0.0049
3217.00,0.0049
3216.00,0.0049
3215.00,0.0049
3214.00,0.0049
3213.00,0.0049
3212.00,0.0049
3211.00,0.0048
3210.00,0.0048
3209.00,0.0048
3208.00,0.0049
3207.00,0.0049
3206.00,0.0050
3205.00,0.0050
3204.00,0.0050
3203.00,0.0050
3202.00,0.0050
3201.00,0.0050
3200.00,0.0050
3199.00,0.0051
3198.00,0.0051
3197.00,0.0051
3196.00,0.0050
3195.00,0.0050
3194.00,0.0050
3193.00,0.0050
3192.00,0.0049
3191.00,0.0049
3190.00,0.0049
3189.00,0.0049
3188.00,0.0049
3187.00,0.0049
3186.00,0.0049
3185.00,0.0048
3184.00,0.0048
3183.00,0.0048
3182.00,0.0048
3181.00,0.0048
3180.00,0.0048
3179.00,0.0048
3178.00,0.0048
3177.00,0.0047
3176.00,0.0047
3175.00,0.0047
3174.00,0.0047
3173.00,0.0046
3172.00,0.0046
3171.00,0.0046
3170.00,0.0046
3169.00,0.0045
3168.00,0.0045
3167.00,0.0045
3166.00,0.0045
3165.00,0.0045
3164.00,0.0045
3163.00,0.0045
3162.00,0.0045
3161.00,0.0045
3160.00,0.0045
3159.00,0.0045
3158.00,0.0045
3157.00,0.0046
3156.00,0.0046
3155.00,0.0046
3154.00,0.0046
3153.00,0.0045
3152.00,0.0045
3151.00,0.0044
3150.00,0.0044
3149.00,0.0044
3148.00,0.0044
3147.00,0.0045
3146.00,0.0045
3145.00,0.0045
3144.00,0.0045
3143.00,0.0045
3142.00,0.0044
3141.00,0.0044
3140.00,0.0043
3139.00,0.0043
3138.00,0.0043
3137.00,0.0043
3136.00,0.0043
3135.00,0.0042
3134.00,0.0042
3133.00,0.0042
3132.00,0.0041
3131.00,0.0042
3130.00,0.0042
3129.00,0.0042
3128.00,0.0042
3127.00,0.0042
3126.00,0.0042
3125.00,0.0041
3124.00,0.0041
3123.00,0.0040
3122.00,0.0039
3121.00,0.0039
3120.00,0.0038
3119.00,0.0038
3118.00,0.0038
3117.00,0.0038
3116.00,0.0038
3115.00,0.0038
3114.00,0.0038
3113.00,0.0038
3112.00,0.0037
3111.00,0.0037
3110.00,0.0037
3109.00,0.0037
3108.00,0.0037
3107.00,0.0037
3106.00,0.0037
3105.00,0.0037
3104.00,0.0037
3103.00,0.0037
3102.00,0.0036
3101.00,0.0036
3100.00,0.0036
3099.00,0.0036
3098.00,0.0037
3097.00,0.0037
3096.00,0.0037
3095.00,0.0037
3094.00,0.0037
3093.00,0.0036
3092.00,0.0036
3091.00,0.0036
3090.00,0.0036
3089.00,0.0037
3088.00,0.0037
3087.00,0.0037
3086.00,0.0037
3085.00,0.0036
3084.00,0.0036
3083.00,0.0036
3082.00,0.0036
3081.00,0.0036
3080.00,0.0035
3079.00,0.0035
3078.00,0.0036
3077.00,0.0036
3076.00,0.0037
3075.00,0.0037
3074.00,0.0038
3073.00,0.0038
3072.00,0.0038
3071.00,0.0038
3070.00,0.0038
3069.00,0.0038
3068.00,0.0038
3067.00,0.0039
3066.00,0.0039
3065.00,0.0039
3064.00,0.0039
3063.00,0.0039
3062.00,0.0039
3061.00,0.0039
3060.00,0.0039
3059.00,0.0039
3058.00,0.0040
3057.00,0.0040
3056.00,0.0040
3055.00,0.0040
3054.00,0.0040
3053.00,0.0040
3052.00,0.0040
3051.00,0.0040
3050.00,0.0040
3049.00,0.0040
3048.00,0.0040
3047.00,0.0041
3046.00,0.0041
3045.00,0.0041
3044.00,0.0042
3043.00,0.0042
3042.00,0.0042
3041.00,0.0042
3040.00,0.0043
3039.00,0.0043
3038.00,0.0043
3037.00,0.0043
3036.00,0.0043
3035.00,0.0043
3034.00,0.0044
3033.00,0.0044
3032.00,0.0044
3031.00,0.0044
3030.00,0.0044
3029.00,0.0044
3028.00,0.0044
3027.00,0.0044
3026.00,0.0044
3025.00,0.0044
3024.00,0.0044
3023.00,0.0044
3022.00,0.0043
3021.00,0.0041
3020.00,0.0040
3019.00,0.0038
3018.00,0.0037
3017.00,0.0035
3016.00,0.0032
3015.00,0.0029
3014.00,0.0026
3013.00,0.0021
3012.00,0.0016
3011.00,0.0010
3010.00,0.0003
3009.00,-0.0004
3008.00,-0.0012
3007.00,-0.0021
3006.00,-0.0030
3005.00,-0.0040
3004.00,-0.0049
3003.00,-0.0059
3002.00,-0.0068
3001.00,-0.0077
3000.00,-0.0085
2999.00,-0.0092
2998.00,-0.0097
2997.00,-0.0102
2996.00,-0.0105
2995.00,-0.0107
2994.00,-0.0109
2993.00,-0.0110
2992.00,-0.0110
2991.00,-0.0109
2990.00,-0.0107
2989.00,-0.0105
2988.00,-0.0105
2987.00,-0.0107
2986.00,-0.0115
2985.00,-0.0132
2984.00,-0.0154
2983.00,-0.0173
2982.00,-0.0179
2981.00,-0.0164
2980.00,-0.0132
2979.00,-0.0088
2978.00,-0.0040
2977.00,0.0008
2976.00,0.0054
2975.00,0.0100
2974.00,0.0144
2973.00,0.0193
2972.00,0.0252
2971.00,0.0325
2970.00,0.0414
2969.00,0.0514
2968.00,0.0622
2967.00,0.0735
2966.00,0.0853
2965.00,0.0975
2964.00,0.1099
2963.00,0.1220
2962.00,0.1330
2961.00,0.1425
2960.00,0.1500
2959.00,0.1556
2958.00,0.1597
2957.00,0.1628
2956.00,0.1657
2955.00,0.1690
2954.00,0.1731
2953.00,0.1776
2952.00,0.1818
2951.00,0.1847
2950.00,0.1851
2949.00,0.1824
2948.00,0.1762
2947.00,0.1667
2946.00,0.1550
2945.00,0.1423
2944.00,0.1298
2943.00,0.1187
2942.00,0.1096
2941.00,0.1028
2940.00,0.0985
2939.00,0.0965
2938.00,0.0966
2937.00,0.0985
2936.00,0.1021
2935.00,0.1070
2934.00,0.1132
2933.00,0.1206
2932.00,0.1290
2931.00,0.1383
2930.00,0.1483
2929.00,0.1584
2928.00,0.1685
2927.00,0.1782
2926.00,0.1874
2925.00,0.1960
2924.00,0.2043
2923.00,0.2122
2922.00,0.2199
2921.00,0.2271
2920.00,0.2335
2919.00,0.2383
2918.00,0.2408
2917.00,0.2406
2916.00,0.2376
2915.00,0.2320
2914.00,0.2247
2913.00,0.2165
2912.00,0.2083
2911.00,0.2006
2910.00,0.1936
2909.00,0.1872
2908.00,0.1812
2907.00,0.1754
2906.00,0.1694
2905.00,0.1631
2904.00,0.1565
2903.00,0.1496
2902.00,0.1426
2901.00,0.1356
2900.00,0.1288
2899.00,0.1223
2898.00,0.1161
2897.00,0.1105
2896.00,0.1055
2895.00,0.1012
2894.00,0.0976
2893.00,0.0946
2892.00,0.0923
2891.00,0.0908
2890.00,0.0898
2889.00,0.0895
2888.00,0.0896
2887.00,0.0901
2886.00,0.0910
2885.00,0.0921
2884.00,0.0937
2883.00,0.0959
2882.00,0.0986
2881.00,0.1015
2880.00,0.1043
2879.00,0.1066
2878.00,0.1080
2877.00,0.1086
2876.00,0.1083
2875.00,0.1078
2874.00,0.1073
2873.00,0.1074
2872.00,0.1083
2871.00,0.1099
2870.00,0.1119
2869.00,0.1141
2868.00,0.1156
2867.00,0.1156
2866.00,0.1135
2865.00,0.1091
2864.00,0.1024
2863.00,0.0944
2862.00,0.0861
2861.00,0.0782
2860.00,0.0715
2859.00,0.0661
2858.00,0.0622
2857.00,0.0595
2856.00,0.0577
2855.00,0.0568
2854.00,0.0567
2853.00,0.0572
2852.00,0.0583
2851.00,0.0600
2850.00,0.0623
2849.00,0.0651
2848.00,0.0687
2847.00,0.0731
2846.00,0.0783
2845.00,0.0844
2844.00,0.0914
2843.00,0.0989
2842.00,0.1066
2841.00,0.1138
2840.00,0.1196
2839.00,0.1231
2838.00,0.1235
2837.00,0.1205
2836.00,0.1141
2835.00,0.1050
2834.00,0.0942
2833.00,0.0831
2832.00,0.0725
2831.00,0.0631
2830.00,0.0552
2829.00,0.0488
2828.00,0.0435
2827.00,0.0393
2826.00,0.0358
2825.00,0.0330
2824.00,0.0306
2823.00,0.0286
2822.00,0.0268
2821.00,0.0253
2820.00,0.0240
2819.00,0.0229
2818.00,0.0219
2817.00,0.0210
2816.00,0.0203
2815.00,0.0196
2814.00,0.0190
2813.00,0.0185
2812.00,0.0180
2811.00,0.0175
2810.00,0.0170
2809.00,0.0165
2808.00,0.0160
2807.00,0.0154
2806.00,0.0147
2805.00,0.0141
2804.00,0.0134
2803.00,0.0128
2802.00,0.0123
2801.00,0.0119
2800.00,0.0115
2799.00,0.0112
2798.00,0.0109
2797.00,0.0107
2796.00,0.0105
2795.00,0.0103
2794.00,0.0101
2793.00,0.0098
2792.00,0.0095
2791.00,0.0092
2790.00,0.0088
2789.00,0.0085
2788.00,0.0081
2787.00,0.0078
2786.00,0.0075
2785.00,0.0073
2784.00,0.0070
2783.00,0.0068
2782.00,0.0066
2781.00,0.0064
2780.00,0.0063
2779.00,0.0061
2778.00,0.0059
2777.00,0.0058
2776.00,0.0056
2775.00,0.0055
2774.00,0.0055
2773.00,0.0054
2772.00,0.0054
2771.00,0.0053
2770.00,0.0053
2769.00,0.0052
2768.00,0.0052
2767.00,0.0052
2766.00,0.0052
2765.00,0.0051
2764.00,0.0051
2763.00,0.0051
2762.00,0.0051
2761.00,0.0050
2760.00,0.0050
2759.00,0.0049
2758.00,0.0048
2757.00,0.0048
2756.00,0.0048
2755.00,0.0049
2754.00,0.0049
2753.00,0.0049
2752.00,0.0048
2751.00,0.0048
2750.00,0.0048
2749.00,0.0048
2748.00,0.0048
2747.00,0.0049
2746.00,0.0049
2745.00,0.0049
2744.00,0.0050
2743.00,0.0051
2742.00,0.0053
2741.00,0.0054
2740.00,0.0055
2739.00,0.0056
2738.00,0.0058
2737.00,0.0059
2736.00,0.0061
2735.00,0.0062
2734.00,0.0064
2733.00,0.0066
2732.00,0.0067
2731.00,0.0069
2730.00,0.0071
2729.00,0.0073
2728.00,0.0076
2727.00,0.0079
2726.00,0.0081
2725.00,0.0084
2724.00,0.0086
2723.00,0.0086
2722.00,0.0085
2721.00,0.0083
2720.00,0.0080
2719.00,0.0077
2718.00,0.0074
2717.00,0.0071
2716.00,0.0068
2715.00,0.0066
2714.00,0.0063
2713.00,0.0061
2712.00,0.0059
2711.00,0.0058
2710.00,0.0056
2709.00,0.0055
2708.00,0.0053
2707.00,0.0052
2706.00,0.0051
2705.00,0.0050
2704.00,0.0049
2703.00,0.0048
2702.00,0.0048
2701.00,0.0047
2700.00,0.0046
2699.00,0.0046
2698.00,0.0045
2697.00,0.0045
2696.00,0.0044
2695.00,0.0044
2694.00,0.0044
2693.00,0.0044
2692.00,0.0044
2691.00,0.0043
2690.00,0.0043
2689.00,0.0043
2688.00,0.0043
2687.00,0.0043
2686.00,0.0043
2685.00,0.0043
2684.00,0.0043
2683.00,0.0043
2682.00,0.0043
2681.00,0.0043
2680.00,0.0043
2679.00,0.0043
2678.00,0.0043
2677.00,0.0043
2676.00,0.0042
2675.00,0.0042
2674.00,0.0042
2673.00,0.0041
2672.00,0.0041
2671.00,0.0041
2670.00,0.0041
2669.00,0.0040
2668.00,0.0040
2667.00,0.0040
2666.00,0.0040
2665.00,0.0040
2664.00,0.0041
2663.00,0.0042
2662.00,0.0043
2661.00,0.0043
2660.00,0.0043
2659.00,0.0044
2658.00,0.0043
2657.00,0.0043
2656.00,0.0043
2655.00,0.0042
2654.00,0.0041
2653.00,0.0040
2652.00,0.0040
2651.00,0.0039
2650.00,0.0039
2649.00,0.0039
2648.00,0.0038
2647.00,0.0038
2646.00,0.0038
2645.00,0.0037
2644.00,0.0037
2643.00,0.0037
2642.00,0.0036
2641.00,0.0036
2640.00,0.0036
2639.00,0.0035
2638.00,0.0035
2637.00,0.0035
2636.00,0.0035
2635.00,0.0035
2634.00,0.0035
2633.00,0.0035
2632.00,0.0035
2631.00,0.0035
2630.00,0.0036
2629.00,0.0036
2628.00,0.0037
2627.00,0.0037
2626.00,0.0037
2625.00,0.0038
2624.00,0.0038
2623.00,0.0038
2622.00,0.0039
2621.00,0.0039
2620.00,0.0039
2619.00,0.0040
2618.00,0.0040
2617.00,0.0040
2616.00,0.0040
2615.00,0.0040
2614.00,0.0040
2613.00,0.0040
2612.00,0.0039
2611.00,0.0038
2610.00,0.0038
2609.00,0.0037
2608.00,0.0036
2607.00,0.0035
2606.00,0.0034
2605.00,0.0033
2604.00,0.0032
2603.00,0.0032
2602.00,0.0032
2601.00,0.0032
2600.00,0.0032
2599.00,0.0032
2598.00,0.0032
2597.00,0.0032
2596.00,0.0032
2595.00,0.0032
2594.00,0.0033
2593.00,0.0033
2592.00,0.0034
2591.00,0.0034
2590.00,0.0034
2589.00,0.0035
2588.00,0.0036
2587.00,0.0036
2586.00,0.0037
2585.00,0.0039
2584.00,0.0040
2583.00,0.0040
2582.00,0.0040
2581.00,0.0040
2580.00,0.0039
2579.00,0.0038
2578.00,0.0037
2577.00,0.0036
2576.00,0.0036
2575.00,0.0034
2574.00,0.0033
2573.00,0.0032
2572.00,0.0030
2571.00,0.0029
2570.00,0.0029
2569.00,0.0028
2568.00,0.0028
2567.00,0.0028
2566.00,0.0028
2565.00,0.0027
2564.00,0.0027
2563.00,0.0026
2562.00,0.0025
2561.00,0.0025
2560.00,0.0025
2559.00,0.0025
2558.00,0.0024
2557.00,0.0024
2556.00,0.0024
2555.00,0.0024
2554.00,0.0024
2553.00,0.0024
2552.00,0.0023
2551.00,0.0022
2550.00,0.0021
2549.00,0.0021
2548.00,0.0020
2547.00,0.0020
2546.00,0.0020
2545.00,0.0019
2544.00,0.0019
2543.00,0.0018
2542.00,0.0018
2541.00,0.0019
2540.00,0.0019
2539.00,0.0018
2538.00,0.0018
2537.00,0.0017
2536.00,0.0016
2535.00,0.0016
2534.00,0.0016
2533.00,0.0016
2532.00,0.0017
2531.00,0.0017
2530.00,0.0016
2529.00,0.0016
2528.00,0.0016
2527.00,0.0016
2526.00,0.0016
2525.00,0.0016
2524.00,0.0015
2523.00,0.0015
2522.00,0.0014
2521.00,0.0013
2520.00,0.0012
2519.00,0.0012
2518.00,0.0011
2517.00,0.0011
2516.00,0.0011
2515.00,0.0010
2514.00,0.0010
2513.00,0.0011
2512.00,0.0011
2511.00,0.0011
2510.00,0.0011
2509.00,0.0012
2508.00,0.0012
2507.00,0.0011
2506.00,0.0011
2505.00,0.0012
2504.00,0.0012
2503.00,0.0012
2502.00,0.0012
2501.00,0.0012
2500.00,0.0012
2499.00,0.0012
2498.00,0.0012
2497.00,0.0011
2496.00,0.0011
2495.00,0.0010
2494.00,0.0010
2493.00,0.0010
2492.00,0.0010
2491.00,0.0010
2490.00,0.0011
2489.00,0.0011
2488.00,0.0011
2487.00,0.0011
2486.00,0.0011
2485.00,0.0011
2484.00,0.0010
2483.00,0.0010
2482.00,0.0010
2481.00,0.0010
2480.00,0.0010
2479.00,0.0010
2478.00,0.0010
2477.00,0.0010
2476.00,0.0010
2475.00,0.0010
2474.00,0.0009
2473.00,0.0009
2472.00,0.0009
2471.00,0.0009
2470.00,0.0009
2469.00,0.0009
2468.00,0.0010
2467.00,0.0010
2466.00,0.0010
2465.00,0.0010
2464.00,0.0010
2463.00,0.0010
2462.00,0.0010
2461.00,0.0010
2460.00,0.0011
2459.00,0.0011
2458.00,0.0011
2457.00,0.0012
2456.00,0.0012
2455.00,0.0012
2454.00,0.0012
2453.00,0.0012
2452.00,0.0012
2451.00,0.0012
2450.00,0.0012
2449.00,0.0012
2448.00,0.0012
2447.00,0.0012
2446.00,0.0012
2445.00,0.0012
2444.00,0.0012
2443.00,0.0012
2442.00,0.0012
2441.00,0.0012
2440.00,0.0012
2439.00,0.0012
2438.00,0.0012
2437.00,0.0013
2436.00,0.0013
2435.00,0.0013
2434.00,0.0013
2433.00,0.0013
2432.00,0.0013
2431.00,0.0013
2430.00,0.0013
2429.00,0.0014
2428.00,0.0014
2427.00,0.0015
2426.00,0.0015
2425.00,0.0015
2424.00,0.0015
2423.00,0.0014
2422.00,0.0014
2421.00,0.0013
2420.00,0.0012
2419.00,0.0011
2418.00,0.0011
2417.00,0.0011
2416.00,0.0011
2415.00,0.0012
2414.00,0.0012
2413.00,0.0011
2412.00,0.0011
2411.00,0.0011
2410.00,0.0011
2409.00,0.0011
2408.00,0.0011
2407.00,0.0012
2406.00,0.0012
2405.00,0.0012
2404.00,0.0011
2403.00,0.0010
2402.00,0.0010
2401.00,0.0009
2400.00,0.0009
2399.00,0.0009
2398.00,0.0010
2397.00,0.0011
2396.00,0.0011
2395.00,0.0011
2394.00,0.0011
2393.00,0.0011
2392.00,0.0010
2391.00,0.0010
2390.00,0.0009
2389.00,0.0009
2388.00,0.0008
2387.00,0.0008
2386.00,0.0008
2385.00,0.0008
2384.00,0.0007
2383.00,0.0006
2382.00,0.0005
2381.00,0.0005
2380.00,0.0005
2379.00,0.0005
2378.00,0.0005
2377.00,0.0005
2376.00,0.0005
2375.00,0.0006
2374.00,0.0006
2373.00,0.0006
2372.00,0.0006
2371.00,0.0006
2370.00,0.0005
2369.00,0.0005
2368.00,0.0004
2367.00,0.0004
2366.00,0.0004
2365.00,0.0005
2364.00,0.0005
2363.00,0.0005
2362.00,0.0005
2361.00,0.0005
2360.00,0.0006
2359.00,0.0006
2358.00,0.0007
2357.00,0.0007
2356.00,0.0007
2355.00,0.0006
2354.00,0.0005
2353.00,0.0004
2352.00,0.0002
2351.00,0.0002
2350.00,0.0003
2349.00,0.0005
2348.00,0.0007
2347.00,0.0008
2346.00,0.0007
2345.00,0.0006
2344.00,0.0006
2343.00,0.0007
2342.00,0.0007
2341.00,0.0007
2340.00,0.0007
2339.00,0.0008
2338.00,0.0008
2337.00,0.0007
2336.00,0.0007
2335.00,0.0007
2334.00,0.0007
2333.00,0.0007
2332.00,0.0006
2331.00,0.0006
2330.00,0.0006
2329.00,0.0008
2328.00,0.0010
2327.00,0.0013
2326.00,0.0016
2325.00,0.0019
2324.00,0.0020
2323.00,0.0018
2322.00,0.0016
2321.00,0.0014
2320.00,0.0012
2319.00,0.0012
2318.00,0.0011
2317.00,0.0011
2316.00,0.0010
2315.00,0.0009
2314.00,0.0008
2313.00,0.0008
2312.00,0.0008
2311.00,0.0008
2310.00,0.0008
2309.00,0.0007
2308.00,0.0007
2307.00,0.0007
2306.00,0.0007
2305.00,0.0007
2304.00,0.0008
2303.00,0.0008
2302.00,0.0008
2301.00,0.0008
2300.00,0.0009
2299.00,0.0010
2298.00,0.0012
2297.00,0.0014
2296.00,0.0014
2295.00,0.0014
2294.00,0.0014
2293.00,0.0014
2292.00,0.0015
2291.00,0.0016
2290.00,0.0017
2289.00,0.0017
2288.00,0.0018
2287.00,0.0018
2286.00,0.0018
2285.00,0.0019
2284.00,0.0019
2283.00,0.0019
2282.00,0.0018
2281.00,0.0017
2280.00,0.0015
2279.00,0.0015
2278.00,0.0014
2277.00,0.0013
2276.00,0.0013
2275.00,0.0013
2274.00,0.0013
2273.00,0.0014
2272.00,0.0014
2271.00,0.0015
2270.00,0.0015
2269.00,0.0016
2268.00,0.0016
2267.00,0.0015
2266.00,0.0014
2265.00,0.0013
2264.00,0.0012
2263.00,0.0011
2262.00,0.0011
2261.00,0.0011
2260.00,0.0012
2259.00,0.0013
2258.00,0.0014
2257.00,0.0015
2256.00,0.0015
2255.00,0.0014
2254.00,0.0013
2253.00,0.0012
2252.00,0.0012
2251.00,0.0011
2250.00,0.0010
2249.00,0.0011
2248.00,0.0011
2247.00,0.0011
2246.00,0.0012
2245.00,0.0012
2244.00,0.0011
2243.00,0.0011
2242.00,0.0010
2241.00,0.0010
2240.00,0.0010
2239.00,0.0009
2238.00,0.0008
2237.00,0.0008
2236.00,0.0008
2235.00,0.0008
2234.00,0.0009
2233.00,0.0011
2232.00,0.0014
2231.00,0.0015
2230.00,0.0014
2229.00,0.0013
2228.00,0.0012
2227.00,0.0011
2226.00,0.0010
2225.00,0.0009
2224.00,0.0009
2223.00,0.0008
2222.00,0.0008
2221.00,0.0008
2220.00,0.0009
2219.00,0.0009
2218.00,0.0009
2217.00,0.0008
2216.00,0.0008
2215.00,0.0008
2214.00,0.0009
2213.00,0.0010
2212.00,0.0010
2211.00,0.0009
2210.00,0.0009
2209.00,0.0010
2208.00,0.0010
2207.00,0.0008
2206.00,0.0006
2205.00,0.0005
2204.00,0.0006
2203.00,0.0006
2202.00,0.0006
2201.00,0.0006
2200.00,0.0005
2199.00,0.0005
2198.00,0.0005
2197.00,0.0005
2196.00,0.0007
2195.00,0.0009
2194.00,0.0011
2193.00,0.0013
2192.00,0.0013
2191.00,0.0012
2190.00,0.0011
2189.00,0.0010
2188.00,0.0010
2187.00,0.0011
2186.00,0.0012
2185.00,0.0013
2184.00,0.0013
2183.00,0.0012
2182.00,0.0010
2181.00,0.0009
2180.00,0.0009
2179.00,0.0010
2178.00,0.0012
2177.00,0.0014
2176.00,0.0014
2175.00,0.0010
2174.00,0.0007
2173.00,0.0005
2172.00,0.0005
2171.00,0.0008
2170.00,0.0011
2169.00,0.0014
2168.00,0.0017
2167.00,0.0019
2166.00,0.0020
2165.00,0.0021
2164.00,0.0022
2163.00,0.0022
2162.00,0.0021
2161.00,0.0017
2160.00,0.0007
2159.00,-0.0006
2158.00,-0.0017
2157.00,-0.0022
2156.00,-0.0022
2155.00,-0.0019
2154.00,-0.0016
2153.00,-0.0016
2152.00,-0.0016
2151.00,-0.0017
2150.00,-0.0016
2149.00,-0.0015
2148.00,-0.0013
2147.00,-0.0012
2146.00,-0.0012
2145.00,-0.0011
2144.00,-0.0011
2143.00,-0.0010
2142.00,-0.0009
2141.00,-0.0008
2140.00,-0.0007
2139.00,-0.0008
2138.00,-0.0009
2137.00,-0.0011
2136.00,-0.0013
2135.00,-0.0014
2134.00,-0.0014
2133.00,-0.0013
2132.00,-0.0012
2131.00,-0.0011
2130.00,-0.0010
2129.00,-0.0009
2128.00,-0.0008
2127.00,-0.0007
2126.00,-0.0006
2125.00,-0.0004
2124.00,-0.0003
2123.00,-0.0002
2122.00,-0.0002
2121.00,-0.0002
2120.00,-0.0001
2119.00,-0.0001
2118.00,0.0000
2117.00,0.0001
2116.00,0.0002
2115.00,0.0002
2114.00,0.0003
2113.00,0.0004
2112.00,0.0004
2111.00,0.0005
2110.00,0.0005
2109.00,0.0004
2108.00,0.0002
2107.00,0.0001
2106.00,0.0000
2105.00,-0.0000
2104.00,-0.0001
2103.00,-0.0001
2102.00,-0.0001
2101.00,-0.0001
2100.00,-0.0000
2099.00,0.0001
2098.00,0.0001
2097.00,0.0001
2096.00,-0.0001
2095.00,-0.0003
2094.00,-0.0004
2093.00,-0.0005
2092.00,-0.0003
2091.00,-0.0002
2090.00,-0.0001
2089.00,0.0000
2088.00,0.0001
2087.00,0.0002
2086.00,0.0002
2085.00,0.0003
2084.00,0.0003
2083.00,0.0003
2082.00,0.0003
2081.00,0.0004
2080.00,0.0004
2079.00,0.0005
2078.00,0.0006
2077.00,0.0006
2076.00,0.0006
2075.00,0.0006
2074.00,0.0005
2073.00,0.0004
2072.00,0.0003
2071.00,0.0001
2070.00,-0.0000
2069.00,-0.0001
2068.00,-0.0002
2067.00,-0.0001
2066.00,-0.0001
2065.00,0.0000
2064.00,0.0002
2063.00,0.0003
2062.00,0.0003
2061.00,0.0003
2060.00,0.0003
2059.00,0.0004
2058.00,0.0004
2057.00,0.0005
2056.00,0.0006
2055.00,0.0006
2054.00,0.0007
2053.00,0.0011
2052.00,0.0016
2051.00,0.0020
2050.00,0.0020
2049.00,0.0017
2048.00,0.0013
2047.00,0.0009
2046.00,0.0007
2045.00,0.0006
2044.00,0.0006
2043.00,0.0005
2042.00,0.0004
2041.00,0.0003
2040.00,0.0002
2039.00,0.0002
2038.00,0.0003
2037.00,0.0004
2036.00,0.0003
2035.00,0.0000
2034.00,-0.0003
2033.00,-0.0006
2032.00,-0.0007
2031.00,-0.0006
2030.00,-0.0004
2029.00,-0.0003
2028.00,-0.0003
2027.00,-0.0005
2026.00,-0.0007
2025.00,-0.0009
2024.00,-0.0010
2023.00,-0.0012
2022.00,-0.0015
2021.00,-0.0016
2020.00,-0.0015
2019.00,-0.0013
2018.00,-0.0010
2017.00,-0.0007
2016.00,-0.0007
2015.00,-0.0009
2014.00,-0.0012
2013.00,-0.0013
2012.00,-0.0011
2011.00,-0.0009
2010.00,-0.0007
2009.00,-0.0007
2008.00,-0.0009
2007.00,-0.0012
2006.00,-0.0014
2005.00,-0.0015
2004.00,-0.0015
2003.00,-0.0017
2002.00,-0.0018
2001.00,-0.0017
2000.00,-0.0015
1999.00,-0.0013
1998.00,-0.0011
1997.00,-0.0009
1996.00,-0.0006
1995.00,-0.0004
1994.00,-0.0002
1993.00,-0.0002
1992.00,-0.0004
1991.00,-0.0005
1990.00,-0.0007
1989.00,-0.0006
1988.00,-0.0003
1987.00,-0.0001
1986.00,0.0001
1985.00,0.0002
1984.00,0.0004
1983.00,0.0006
1982.00,0.0008
1981.00,0.0012
1980.00,0.0016
1979.00,0.0015
1978.00,0.0008
1977.00,-0.0002
1976.00,-0.0010
1975.00,-0.0015
1974.00,-0.0016
1973.00,-0.0015
1972.00,-0.0013
1971.00,-0.0013
1970.00,-0.0013
1969.00,-0.0012
1968.00,-0.0010
1967.00,-0.0009
1966.00,-0.0010
1965.00,-0.0012
1964.00,-0.0013
1963.00,-0.0014
1962.00,-0.0013
1961.00,-0.0012
1960.00,-0.0011
1959.00,-0.0010
1958.00,-0.0009
1957.00,-0.0010
1956.00,-0.0010
1955.00,-0.0011
1954.00,-0.0011
1953.00,-0.0011
1952.00,-0.0011
1951.00,-0.0011
1950.00,-0.0011
1949.00,-0.0012
1948.00,-0.0012
1947.00,-0.0012
1946.00,-0.0012
1945.00,-0.0012
1944.00,-0.0012
1943.00,-0.0011
1942.00,-0.0009
1941.00,-0.0008
1940.00,-0.0007
1939.00,-0.0007
1938.00,-0.0006
1937.00,-0.0005
1936.00,-0.0005
1935.00,-0.0005
1934.00,-0.0006
1933.00,-0.0006
1932.00,-0.0006
1931.00,-0.0006
1930.00,-0.0006
1929.00,-0.0006
1928.00,-0.0005
1927.00,-0.0004
1926.00,-0.0003
1925.00,-0.0001
1924.00,-0.0001
1923.00,-0.0002
1922.00,-0.0002
1921.00,-0.0002
1920.00,-0.0002
1919.00,-0.0001
1918.00,-0.0001
1917.00,-0.0001
1916.00,-0.0001
1915.00,-0.0001
1914.00,-0.0000
1913.00,0.0000
1912.00,0.0001
1911.00,0.0000
1910.00,-0.0001
1909.00,-0.0002
1908.00,-0.0003
1907.00,-0.0003
1906.00,-0.0003
1905.00,-0.0002
1904.00,-0.0001
1903.00,-0.0000
1902.00,-0.0000
1901.00,0.0000
1900.00,0.0000
1899.00,0.0000
1898.00,0.0001
1897.00,0.0001
1896.00,0.0003
1895.00,0.0003
1894.00,0.0003
1893.00,0.0003
1892.00,0.0003
1891.00,0.0003
1890.00,0.0004
1889.00,0.0004
1888.00,0.0003
1887.00,0.0002
1886.00,0.0001
1885.00,0.0001
1884.00,0.0002
1883.00,0.0002
1882.00,0.0002
1881.00,0.0002
1880.00,0.0002
1879.00,0.0002
1878.00,0.0001
1877.00,0.0001
1876.00,0.0000
1875.00,-0.0000
1874.00,-0.0000
1873.00,-0.0000
1872.00,-0.0001
1871.00,-0.0001
1870.00,-0.0001
1869.00,0.0001
1868.00,0.0002
1867.00,0.0001
1866.00,0.0000
1865.00,-0.0000
1864.00,-0.0000
1863.00,0.0000
1862.00,0.0001
1861.00,0.0002
1860.00,0.0002
1859.00,0.0002
1858.00,0.0002
1857.00,0.0002
1856.00,0.0003
1855.00,0.0003
1854.00,0.0002
1853.00,0.0002
1852.00,0.0001
1851.00,0.0001
1850.00,0.0001
1849.00,0.0002
1848.00,0.0003
1847.00,0.0003
1846.00,0.0002
1845.00,0.0002
1844.00,0.0003
1843.00,0.0004
1842.00,0.0005
1841.00,0.0005
1840.00,0.0004
1839.00,0.0004
1838.00,0.0004
1837.00,0.0005
1836.00,0.0005
1835.00,0.0004
1834.00,0.0004
1833.00,0.0005
1832.00,0.0005
1831.00,0.0006
1830.00,0.0006
1829.00,0.0006
1828.00,0.0006
1827.00,0.0005
1826.00,0.0005
1825.00,0.0006
1824.00,0.0007
1823.00,0.0007
1822.00,0.0007
1821.00,0.0007
1820.00,0.0006
1819.00,0.0005
1818.00,0.0003
1817.00,0.0003
1816.00,0.0003
1815.00,0.0003
1814.00,0.0004
1813.00,0.0004
1812.00,0.0005
1811.00,0.0005
1810.00,0.0006
1809.00,0.0006
1808.00,0.0007
1807.00,0.0007
1806.00,0.0007
1805.00,0.0007
1804.00,0.0006
1803.00,0.0006
1802.00,0.0006
1801.00,0.0007
1800.00,0.0007
1799.00,0.0008
1798.00,0.0008
1797.00,0.0007
1796.00,0.0007
1795.00,0.0007
1794.00,0.0006
1793.00,0.0007
1792.00,0.0007
1791.00,0.0008
1790.00,0.0008
1789.00,0.0008
1788.00,0.0008
1787.00,0.0008
1786.00,0.0008
1785.00,0.0008
1784.00,0.0008
1783.00,0.0008
1782.00,0.0008
1781.00,0.0009
1780.00,0.0009
1779.00,0.0009
1778.00,0.0009
1777.00,0.0009
1776.00,0.0009
1775.00,0.0008
1774.00,0.0008
1773.00,0.0008
1772.00,0.0009
1771.00,0.0010
1770.00,0.0010
1769.00,0.0011
1768.00,0.0011
1767.00,0.0012
1766.00,0.0012
1765.00,0.0012
1764.00,0.0013
1763.00,0.0014
1762.00,0.0015
1761.00,0.0016
1760.00,0.0017
1759.00,0.0018
1758.00,0.0019
1757.00,0.0021
1756.00,0.0023
1755.00,0.0024
1754.00,0.0025
1753.00,0.0027
1752.00,0.0029
1751.00,0.0032
1750.00,0.0035
1749.00,0.0038
1748.00,0.0040
1747.00,0.0041
1746.00,0.0041
1745.00,0.0041
1744.00,0.0041
1743.00,0.0041
1742.00,0.0041
1741.00,0.0042
1740.00,0.0042
1739.00,0.0041
1738.00,0.0040
1737.00,0.0038
1736.00,0.0037
1735.00,0.0037
1734.00,0.0038
1733.00,0.0039
1732.00,0.0039
1731.00,0.0038
1730.00,0.0037
1729.00,0.0036
1728.00,0.0035
1727.00,0.0034
1726.00,0.0034
1725.00,0.0033
1724.00,0.0033
1723.00,0.0032
1722.00,0.0032
1721.00,0.0032
1720.00,0.0032
1719.00,0.0031
1718.00,0.0031
1717.00,0.0031
1716.00,0.0032
1715.00,0.0033
1714.00,0.0033
1713.00,0.0034
1712.00,0.0034
1711.00,0.0034
1710.00,0.0034
1709.00,0.0034
1708.00,0.0034
1707.00,0.0035
1706.00,0.0036
1705.00,0.0038
1704.00,0.0039
1703.00,0.0039
1702.00,0.0039
1701.00,0.0040
1700.00,0.0042
1699.00,0.0042
1698.00,0.0042
1697.00,0.0044
1696.00,0.0046
1695.00,0.0048
1694.00,0.0049
1693.00,0.0050
1692.00,0.0051
1691.00,0.0052
1690.00,0.0054
1689.00,0.0056
1688.00,0.0057
1687.00,0.0058
1686.00,0.0059
1685.00,0.0061
1684.00,0.0064
1683.00,0.0066
1682.00,0.0067
1681.00,0.0069
1680.00,0.0070
1679.00,0.0071
1678.00,0.0071
1677.00,0.0072
1676.00,0.0073
1675.00,0.0075
1674.00,0.0076
1673.00,0.0078
1672.00,0.0079
1671.00,0.0081
1670.00,0.0083
1669.00,0.0085
1668.00,0.0087
1667.00,0.0088
1666.00,0.0089
1665.00,0.0089
1664.00,0.0090
1663.00,0.0091
1662.00,0.0092
1661.00,0.0093
1660.00,0.0094
1659.00,0.0095
1658.00,0.0095
1657.00,0.0096
1656.00,0.0097
1655.00,0.0097
1654.00,0.0098
1653.00,0.0098
1652.00,0.0097
1651.00,0.0096
1650.00,0.0095
1649.00,0.0095
1648.00,0.0095
1647.00,0.0095
1646.00,0.0094
1645.00,0.0094
1644.00,0.0093
1643.00,0.0092
1642.00,0.0091
1641.00,0.0091
1640.00,0.0090
1639.00,0.0090
1638.00,0.0090
1637.00,0.0089
1636.00,0.0088
1635.00,0.0086
1634.00,0.0085
1633.00,0.0084
1632.00,0.0084
1631.00,0.0084
1630.00,0.0084
1629.00,0.0083
1628.00,0.0082
1627.00,0.0081
1626.00,0.0079
1625.00,0.0078
1624.00,0.0078
1623.00,0.0077
1622.00,0.0077
1621.00,0.0076
1620.00,0.0075
1619.00,0.0074
1618.00,0.0073
1617.00,0.0073
1616.00,0.0072
1615.00,0.0072
1614.00,0.0071
1613.00,0.0071
1612.00,0.0071
1611.00,0.0071
1610.00,0.0070
1609.00,0.0070
1608.00,0.0070
1607.00,0.0069
1606.00,0.0069
1605.00,0.0069
1604.00,0.0069
1603.00,0.0069
1602.00,0.0069
1601.00,0.0069
1600.00,0.0070
1599.00,0.0070
1598.00,0.0070
1597.00,0.0070
1596.00,0.0070
1595.00,0.0070
1594.00,0.0070
1593.00,0.0071
1592.00,0.0071
1591.00,0.0072
1590.00,0.0072
1589.00,0.0073
1588.00,0.0074
1587.00,0.0074
1586.00,0.0075
1585.00,0.0076
1584.00,0.0078
1583.00,0.0080
1582.00,0.0082
1581.00,0.0085
1580.00,0.0087
1579.00,0.0089
1578.00,0.0090
1577.00,0.0091
1576.00,0.0090
1575.00,0.0089
1574.00,0.0087
1573.00,0.0086
1572.00,0.0084
1571.00,0.0083
1570.00,0.0081
1569.00,0.0080
1568.00,0.0080
1567.00,0.0079
1566.00,0.0079
1565.00,0.0079
1564.00,0.0080
1563.00,0.0080
1562.00,0.0081
1561.00,0.0082
1560.00,0.0082
1559.00,0.0082
1558.00,0.0083
1557.00,0.0083
1556.00,0.0084
1555.00,0.0085
1554.00,0.0086
1553.00,0.0088
1552.00,0.0090
1551.00,0.0092
1550.00,0.0094
1549.00,0.0096
1548.00,0.0097
1547.00,0.0099
1546.00,0.0101
1545.00,0.0103
1544.00,0.0106
1543.00,0.0107
1542.00,0.0107
1541.00,0.0106
1540.00,0.0105
1539.00,0.0103
1538.00,0.0100
1537.00,0.0099
1536.00,0.0097
1535.00,0.0095
1534.00,0.0092
1533.00,0.0089
1532.00,0.0087
1531.00,0.0086
1530.00,0.0084
1529.00,0.0084
1528.00,0.0084
1527.00,0.0083
1526.00,0.0081
1525.00,0.0080
1524.00,0.0079
1523.00,0.0078
1522.00,0.0077
1521.00,0.0078
1520.00,0.0079
1519.00,0.0080
1518.00,0.0081
1517.00,0.0081
1516.00,0.0082
1515.00,0.0081
1514.00,0.0080
1513.00,0.0079
1512.00,0.0079
1511.00,0.0079
1510.00,0.0079
1509.00,0.0079
1508.00,0.0079
1507.00,0.0080
1506.00,0.0079
1505.00,0.0079
1504.00,0.0080
1503.00,0.0080
1502.00,0.0080
1501.00,0.0081
1500.00,0.0083
1499.00,0.0084
1498.00,0.0085
1497.00,0.0088
1496.00,0.0091
1495.00,0.0093
1494.00,0.0094
1493.00,0.0097
1492.00,0.0100
1491.00,0.0103
1490.00,0.0107
1489.00,0.0112
1488.00,0.0116
1487.00,0.0120
1486.00,0.0125
1485.00,0.0130
1484.00,0.0137
1483.00,0.0144
1482.00,0.0153
1481.00,0.0164
1480.00,0.0175
1479.00,0.0187
1478.00,0.0200
1477.00,0.0216
1476.00,0.0234
1475.00,0.0254
1474.00,0.0283
1473.00,0.0334
1472.00,0.0400
1471.00,0.0467
1470.00,0.0530
1469.00,0.0595
1468.00,0.0663
1467.00,0.0737
1466.00,0.0819
1465.00,0.0906
1464.00,0.0985
1463.00,0.1043
1462.00,0.1086
1461.00,0.1120
1460.00,0.1147
1459.00,0.1171
1458.00,0.1196
1457.00,0.1222
1456.00,0.1239
1455.00,0.1244
1454.00,0.1244
1453.00,0.1238
1452.00,0.1221
1451.00,0.1191
1450.00,0.1144
1449.00,0.1073
1448.00,0.0979
1447.00,0.0876
1446.00,0.0781
1445.00,0.0699
1444.00,0.0629
1443.00,0.0571
1442.00,0.0529
1441.00,0.0500
1440.00,0.0481
1439.00,0.0472
1438.00,0.0470
1437.00,0.0467
1436.00,0.0454
1435.00,0.0427
1434.00,0.0388
1433.00,0.0343
1432.00,0.0297
1431.00,0.0257
1430.00,0.0226
1429.00,0.0204
1428.00,0.0188
1427.00,0.0177
1426.00,0.0171
1425.00,0.0165
1424.00,0.0159
1423.00,0.0154
1422.00,0.0151
1421.00,0.0148
1420.00,0.0143
1419.00,0.0140
1418.00,0.0137
1417.00,0.0132
1416.00,0.0127
1415.00,0.0122
1414.00,0.0117
1413.00,0.0113
1412.00,0.0107
1411.00,0.0103
1410.00,0.0098
1409.00,0.0093
1408.00,0.0088
1407.00,0.0084
1406.00,0.0080
1405.00,0.0074
1404.00,0.0067
1403.00,0.0061
1402.00,0.0055
1401.00,0.0049
1400.00,0.0042
1399.00,0.0036
1398.00,0.0031
1397.00,0.0026
1396.00,0.0022
1395.00,0.0020
1394.00,0.0020
1393.00,0.0023
1392.00,0.0028
1391.00,0.0036
1390.00,0.0049
1389.00,0.0065
1388.00,0.0089
1387.00,0.0125
1386.00,0.0174
1385.00,0.0235
1384.00,0.0315
1383.00,0.0423
1382.00,0.0565
1381.00,0.0744
1380.00,0.0965
1379.00,0.1216
1378.00,0.1463
1377.00,0.1652
1376.00,0.1729
1375.00,0.1660
1374.00,0.1461
1373.00,0.1209
1372.00,0.0970
1371.00,0.0770
1370.00,0.0609
1369.00,0.0487
1368.00,0.0404
1367.00,0.0353
1366.00,0.0327
1365.00,0.0319
1364.00,0.0325
1363.00,0.0341
1362.00,0.0365
1361.00,0.0389
1360.00,0.0408
1359.00,0.0414
1358.00,0.0404
1357.00,0.0379
1356.00,0.0342
1355.00,0.0301
1354.00,0.0262
1353.00,0.0229
1352.00,0.0202
1351.00,0.0181
1350.00,0.0164
1349.00,0.0151
1348.00,0.0140
1347.00,0.0131
1346.00,0.0125
1345.00,0.0120
1344.00,0.0115
1343.00,0.0112
1342.00,0.0110
1341.00,0.0108
1340.00,0.0107
1339.00,0.0106
1338.00,0.0105
1337.00,0.0105
1336.00,0.0106
1335.00,0.0108
1334.00,0.0111
1333.00,0.0116
1332.00,0.0121
1331.00,0.0126
1330.00,0.0129
1329.00,0.0129
1328.00,0.0127
1327.00,0.0124
1326.00,0.0119
1325.00,0.0113
1324.00,0.0107
1323.00,0.0102
1322.00,0.0099
1321.00,0.0096
1320.00,0.0094
1319.00,0.0093
1318.00,0.0092
1317.00,0.0091
1316.00,0.0090
1315.00,0.0090
1314.00,0.0090
1313.00,0.0090
1312.00,0.0092
1311.00,0.0095
1310.00,0.0101
1309.00,0.0110
1308.00,0.0122
1307.00,0.0137
1306.00,0.0150
1305.00,0.0160
1304.00,0.0162
1303.00,0.0158
1302.00,0.0151
1301.00,0.0144
1300.00,0.0139
1299.00,0.0136
1298.00,0.0135
1297.00,0.0134
1296.00,0.0132
1295.00,0.0130
1294.00,0.0125
1293.00,0.0120
1292.00,0.0114
1291.00,0.0107
1290.00,0.0102
1289.00,0.0097
1288.00,0.0093
1287.00,0.0089
1286.00,0.0086
1285.00,0.0083
1284.00,0.0079
1283.00,0.0077
1282.00,0.0074
1281.00,0.0072
1280.00,0.0069
1279.00,0.0067
1278.00,0.0064
1277.00,0.0061
1276.00,0.0058
1275.00,0.0055
1274.00,0.0052
1273.00,0.0049
1272.00,0.0046
1271.00,0.0043
1270.00,0.0040
1269.00,0.0038
1268.00,0.0037
1267.00,0.0037
1266.00,0.0037
1265.00,0.0038
1264.00,0.0040
1263.00,0.0042
1262.00,0.0046
1261.00,0.0050
1260.00,0.0056
1259.00,0.0063
1258.00,0.0071
1257.00,0.0076
1256.00,0.0078
1255.00,0.0073
1254.00,0.0064
1253.00,0.0052
1252.00,0.0040
1251.00,0.0032
1250.00,0.0027
1249.00,0.0026
1248.00,0.0026
1247.00,0.0027
1246.00,0.0028
1245.00,0.0029
1244.00,0.0029
1243.00,0.0030
1242.00,0.0030
1241.00,0.0030
1240.00,0.0030
1239.00,0.0030
1238.00,0.0031
1237.00,0.0032
1236.00,0.0034
1235.00,0.0036
1234.00,0.0039
1233.00,0.0041
1232.00,0.0044
1231.00,0.0047
1230.00,0.0051
1229.00,0.0055
1228.00,0.0059
1227.00,0.0063
1226.00,0.0068
1225.00,0.0072
1224.00,0.0077
1223.00,0.0082
1222.00,0.0087
1221.00,0.0092
1220.00,0.0095
1219.00,0.0097
1218.00,0.0098
1217.00,0.0098
1216.00,0.0096
1215.00,0.0094
1214.00,0.0091
1213.00,0.0089
1212.00,0.0087
1211.00,0.0085
1210.00,0.0083
1209.00,0.0082
1208.00,0.0081
1207.00,0.0080
1206.00,0.0079
1205.00,0.0078
1204.00,0.0078
1203.00,0.0077
1202.00,0.0077
1201.00,0.0077
1200.00,0.0076
1199.00,0.0076
1198.00,0.0075
1197.00,0.0075
1196.00,0.0074
1195.00,0.0073
1194.00,0.0072
1193.00,0.0070
1192.00,0.0068
1191.00,0.0065
1190.00,0.0063
1189.00,0.0060
1188.00,0.0058
1187.00,0.0057
1186.00,0.0054
1185.00,0.0052
1184.00,0.0049
1183.00,0.0047
1182.00,0.0045
1181.00,0.0045
1180.00,0.0045
1179.00,0.0047
1178.00,0.0052
1177.00,0.0059
1176.00,0.0070
1175.00,0.0085
1174.00,0.0106
1173.00,0.0133
1172.00,0.0167
1171.00,0.0205
1170.00,0.0243
1169.00,0.0274
1168.00,0.0293
1167.00,0.0296
1166.00,0.0285
1165.00,0.0263
1164.00,0.0236
1163.00,0.0209
1162.00,0.0183
1161.00,0.0162
1160.00,0.0143
1159.00,0.0127
1158.00,0.0114
1157.00,0.0104
1156.00,0.0096
1155.00,0.0090
1154.00,0.0084
1153.00,0.0079
1152.00,0.0074
1151.00,0.0067
1150.00,0.0059
1149.00,0.0051
1148.00,0.0043
1147.00,0.0036
1146.00,0.0030
1145.00,0.0026
1144.00,0.0021
1143.00,0.0017
1142.00,0.0013
1141.00,0.0009
1140.00,0.0004
1139.00,0.0001
1138.00,-0.0001
1137.00,-0.0002
1136.00,-0.0001
1135.00,0.0000
1134.00,0.0002
1133.00,0.0003
1132.00,0.0003
1131.00,0.0004
1130.00,0.0006
1129.00,0.0008
1128.00,0.0011
1127.00,0.0015
1126.00,0.0019
1125.00,0.0023
1124.00,0.0026
1123.00,0.0028
1122.00,0.0030
1121.00,0.0033
1120.00,0.0035
1119.00,0.0038
1118.00,0.0041
1117.00,0.0045
1116.00,0.0048
1115.00,0.0051
1114.00,0.0055
1113.00,0.0059
1112.00,0.0063
1111.00,0.0067
1110.00,0.0071
1109.00,0.0076
1108.00,0.0082
1107.00,0.0088
1106.00,0.0094
1105.00,0.0100
1104.00,0.0105
1103.00,0.0108
1102.00,0.0107
1101.00,0.0103
1100.00,0.0096
1099.00,0.0087
1098.00,0.0078
1097.00,0.0069
1096.00,0.0060
1095.00,0.0052
1094.00,0.0045
1093.00,0.0039
1092.00,0.0034
1091.00,0.0028
1090.00,0.0023
1089.00,0.0018
1088.00,0.0014
1087.00,0.0010
1086.00,0.0008
1085.00,0.0006
1084.00,0.0005
1083.00,0.0003
1082.00,0.0002
1081.00,0.0001
1080.00,-0.0001
1079.00,-0.0003
1078.00,-0.0004
1077.00,-0.0005
1076.00,-0.0007
1075.00,-0.0009
1074.00,-0.0011
1073.00,-0.0011
1072.00,-0.0010
1071.00,-0.0008
1070.00,-0.0006
1069.00,-0.0004
1068.00,-0.0001
1067.00,0.0002
1066.00,0.0006
1065.00,0.0010
1064.00,0.0013
1063.00,0.0016
1062.00,0.0019
1061.00,0.0021
1060.00,0.0024
1059.00,0.0028
1058.00,0.0031
1057.00,0.0034
1056.00,0.0039
1055.00,0.0044
1054.00,0.0050
1053.00,0.0054
1052.00,0.0058
1051.00,0.0063
1050.00,0.0068
1049.00,0.0074
1048.00,0.0080
1047.00,0.0087
1046.00,0.0093
1045.00,0.0098
1044.00,0.0100
1043.00,0.0100
1042.00,0.0099
1041.00,0.0097
1040.00,0.0096
1039.00,0.0097
1038.00,0.0098
1037.00,0.0099
1036.00,0.0100
1035.00,0.0101
1034.00,0.0100
1033.00,0.0100
1032.00,0.0099
1031.00,0.0099
1030.00,0.0100
1029.00,0.0100
1028.00,0.0100
1027.00,0.0099
1026.00,0.0099
1025.00,0.0099
1024.00,0.0099
1023.00,0.0100
1022.00,0.0101
1021.00,0.0102
1020.00,0.0104
1019.00,0.0106
1018.00,0.0107
1017.00,0.0109
1016.00,0.0111
1015.00,0.0114
1014.00,0.0118
1013.00,0.0122
1012.00,0.0127
1011.00,0.0132
1010.00,0.0137
1009.00,0.0141
1008.00,0.0146
1007.00,0.0153
1006.00,0.0162
1005.00,0.0177
1004.00,0.0196
1003.00,0.0223
1002.00,0.0258
1001.00,0.0301
1000.00,0.0349
999.00,0.0392
998.00,0.0416
997.00,0.0411
996.00,0.0379
995.00,0.0331
994.00,0.0278
993.00,0.0232
992.00,0.0196
991.00,0.0170
990.00,0.0151
989.00,0.0137
988.00,0.0128
987.00,0.0122
986.00,0.0119
985.00,0.0118
984.00,0.0120
983.00,0.0126
982.00,0.0137
981.00,0.0153
980.00,0.0173
979.00,0.0201
978.00,0.0236
977.00,0.0278
976.00,0.0326
975.00,0.0373
974.00,0.0409
973.00,0.0423
972.00,0.0405
971.00,0.0357
970.00,0.0290
969.00,0.0219
968.00,0.0157
967.00,0.0108
966.00,0.0074
965.00,0.0050
964.00,0.0033
963.00,0.0021
962.00,0.0010
961.00,0.0000
960.00,-0.0011
959.00,-0.0021
958.00,-0.0030
957.00,-0.0037
956.00,-0.0041
955.00,-0.0043
954.00,-0.0045
953.00,-0.0046
952.00,-0.0045
951.00,-0.0042
950.00,-0.0039
949.00,-0.0036
948.00,-0.0033
947.00,-0.0029
946.00,-0.0026
945.00,-0.0023
944.00,-0.0019
943.00,-0.0014
942.00,-0.0008
941.00,-0.0003
940.00,-0.0000
939.00,0.0001
938.00,0.0001
937.00,0.0001
936.00,0.0002
935.00,0.0004
934.00,0.0008
933.00,0.0012
932.00,0.0015
931.00,0.0019
930.00,0.0023
929.00,0.0027
928.00,0.0032
927.00,0.0036
926.00,0.0040
925.00,0.0043
924.00,0.0046
923.00,0.0049
922.00,0.0052
921.00,0.0055
920.00,0.0058
919.00,0.0061
918.00,0.0063
917.00,0.0066
916.00,0.0068
915.00,0.0069
914.00,0.0071
913.00,0.0071
912.00,0.0072
911.00,0.0073
910.00,0.0075
909.00,0.0077
908.00,0.0080
907.00,0.0085
906.00,0.0091
905.00,0.0101
904.00,0.0115
903.00,0.0133
902.00,0.0153
901.00,0.0171
900.00,0.0184
899.00,0.0187
898.00,0.0180
897.00,0.0165
896.00,0.0145
895.00,0.0126
894.00,0.0111
893.00,0.0099
892.00,0.0090
891.00,0.0085
890.00,0.0082
889.00,0.0080
888.00,0.0080
887.00,0.0080
886.00,0.0079
885.00,0.0079
884.00,0.0079
883.00,0.0079
882.00,0.0081
881.00,0.0082
880.00,0.0084
879.00,0.0086
878.00,0.0087
877.00,0.0088
876.00,0.0088
875.00,0.0087
874.00,0.0086
873.00,0.0085
872.00,0.0084
871.00,0.0083
870.00,0.0083
869.00,0.0082
868.00,0.0082
867.00,0.0081
866.00,0.0081
865.00,0.0082
864.00,0.0082
863.00,0.0084
862.00,0.0086
861.00,0.0088
860.00,0.0091
859.00,0.0093
858.00,0.0094
857.00,0.0095
856.00,0.0096
855.00,0.0098
854.00,0.0100
853.00,0.0103
852.00,0.0107
851.00,0.0112
850.00,0.0118
849.00,0.0126
848.00,0.0138
847.00,0.0155
846.00,0.0183
845.00,0.0223
844.00,0.0278
843.00,0.0341
842.00,0.0391
841.00,0.0409
840.00,0.0384
839.00,0.0329
838.00,0.0267
837.00,0.0216
836.00,0.0181
835.00,0.0158
834.00,0.0143
833.00,0.0133
832.00,0.0125
831.00,0.0118
830.00,0.0113
829.00,0.0108
828.00,0.0106
827.00,0.0105
826.00,0.0104
825.00,0.0104
824.00,0.0103
823.00,0.0102
822.00,0.0101
821.00,0.0101
820.00,0.0101
819.00,0.0102
818.00,0.0104
817.00,0.0109
816.00,0.0116
815.00,0.0126
814.00,0.0139
813.00,0.0155
812.00,0.0171
811.00,0.0186
810.00,0.0198
809.00,0.0203
808.00,0.0202
807.00,0.0193
806.00,0.0180
805.00,0.0165
804.00,0.0150
803.00,0.0137
802.00,0.0127
801.00,0.0120
800.00,0.0114
799.00,0.0108
798.00,0.0104
797.00,0.0100
796.00,0.0098
795.00,0.0096
794.00,0.0094
793.00,0.0093
792.00,0.0092
791.00,0.0092
790.00,0.0091
789.00,0.0089
788.00,0.0086
787.00,0.0083
786.00,0.0079
785.00,0.0076
784.00,0.0074
783.00,0.0073
782.00,0.0073
781.00,0.0073
780.00,0.0072
779.00,0.0071
778.00,0.0071
777.00,0.0072
776.00,0.0073
775.00,0.0075
774.00,0.0077
773.00,0.0080
772.00,0.0083
771.00,0.0086
770.00,0.0089
769.00,0.0090
768.00,0.0090
767.00,0.0090
766.00,0.0089
765.00,0.0087
764.00,0.0085
763.00,0.0082
762.00,0.0078
761.00,0.0074
760.00,0.0071
759.00,0.0069
758.00,0.0067
757.00,0.0066
756.00,0.0064
755.00,0.0062
754.00,0.0060
753.00,0.0059
752.00,0.0058
751.00,0.0059
750.00,0.0061
749.00,0.0064
748.00,0.0065
747.00,0.0066
746.00,0.0066
745.00,0.0065
744.00,0.0064
743.00,0.0064
742.00,0.0065
741.00,0.0067
740.00,0.0070
739.00,0.0072
738.00,0.0074
737.00,0.0075
736.00,0.0076
735.00,0.0077
734.00,0.0077
733.00,0.0077
732.00,0.0077
731.00,0.0078
730.00,0.0079
729.00,0.0079
728.00,0.0080
727.00,0.0081
726.00,0.0082
725.00,0.0081
724.00,0.0080
723.00,0.0078
722.00,0.0077
721.00,0.0076
720.00,0.0075
719.00,0.0075
718.00,0.0074
717.00,0.0072
716.00,0.0071
715.00,0.0071
714.00,0.0071
713.00,0.0071
712.00,0.0070
711.00,0.0068
710.00,0.0066
709.00,0.0065
708.00,0.0064
707.00,0.0065
706.00,0.0067
705.00,0.0069
704.00,0.0070
703.00,0.0070
702.00,0.0070
701.00,0.0069
700.00,0.0068
699.00,0.0067
698.00,0.0068
697.00,0.0067
696.00,0.0065
695.00,0.0063
694.00,0.0061
693.00,0.0061
692.00,0.0061
691.00,0.0060
690.00,0.0059
689.00,0.0059
688.00,0.0059
687.00,0.0061
686.00,0.0064
685.00,0.0066
684.00,0.0066
683.00,0.0064
682.00,0.0061
681.00,0.0060
680.00,0.0060
679.00,0.0062
678.00,0.0064
677.00,0.0066
676.00,0.0066
675.00,0.0065
674.00,0.0063
673.00,0.0062
672.00,0.0061
671.00,0.0061
670.00,0.0062
669.00,0.0063
668.00,0.0065
667.00,0.0067
666.00,0.0066
665.00,0.0064
664.00,0.0063
663.00,0.0063
662.00,0.0065
661.00,0.0066
660.00,0.0067
659.00,0.0068
658.00,0.0067
657.00,0.0066
656.00,0.0064
655.00,0.0060
654.00,0.0057
653.00,0.0056
652.00,0.0057
651.00,0.0059
650.00,0.0061
649.00,0.0062
648.00,0.0061
647.00,0.0061
646.00,0.0060
645.00,0.0060
644.00,0.0059
643.00,0.0059
642.00,0.0059
641.00,0.0060
640.00,0.0061
639.00,0.0062
638.00,0.0063
637.00,0.0064
636.00,0.0065
635.00,0.0066
634.00,0.0067
633.00,0.0067
632.00,0.0067
631.00,0.0067
630.00,0.0066
629.00,0.0064
628.00,0.0063
627.00,0.0064
626.00,0.0065
625.00,0.0066
624.00,0.0067
623.00,0.0068
622.00,0.0069
621.00,0.0070
620.00,0.0070
619.00,0.0067
618.00,0.0064
617.00,0.0062
616.00,0.0060
615.00,0.0061
614.00,0.0063
613.00,0.0066
612.00,0.0069
611.00,0.0070
610.00,0.0070
609.00,0.0070
608.00,0.0069
607.00,0.0069
606.00,0.0068
605.00,0.0066
604.00,0.0065
603.00,0.0064
602.00,0.0063
601.00,0.0064
600.00,0.0064
599.00,0.0065
598.00,0.0067
597.00,0.0068
596.00,0.0068
595.00,0.0067
594.00,0.0064
593.00,0.0062
592.00,0.0062
591.00,0.0065
590.00,0.0067
589.00,0.0069
588.00,0.0068
587.00,0.0068
586.00,0.0068
585.00,0.0069
584.00,0.0070
583.00,0.0072
582.00,0.0074
581.00,0.0075
580.00,0.0074
579.00,0.0071
578.00,0.0067
577.00,0.0063
576.00,0.0060
575.00,0.0061
574.00,0.0064
573.00,0.0069
572.00,0.0074
571.00,0.0078
570.00,0.0078
569.00,0.0077
568.00,0.0074
567.00,0.0072
566.00,0.0069
565.00,0.0068
564.00,0.0069
563.00,0.0070
562.00,0.0072
561.00,0.0074
560.00,0.0074
559.00,0.0074
558.00,0.0073
557.00,0.0073
556.00,0.0072
555.00,0.0071
554.00,0.0070
553.00,0.0069
552.00,0.0070
551.00,0.0072
550.00,0.0074
549.00,0.0074
548.00,0.0073
547.00,0.0071
546.00,0.0068
545.00,0.0066
544.00,0.0065
543.00,0.0067
542.00,0.0070
541.00,0.0073
540.00,0.0076
539.00,0.0079
538.00,0.0080
537.00,0.0077
536.00,0.0074
535.00,0.0072
534.00,0.0071
533.00,0.0072
532.00,0.0074
531.00,0.0077
530.00,0.0081
529.00,0.0082
528.00,0.0082
527.00,0.0079
526.00,0.0077
525.00,0.0076
524.00,0.0078
523.00,0.0081
522.00,0.0085
521.00,0.0087
520.00,0.0088
519.00,0.0087
518.00,0.0083
517.00,0.0076
516.00,0.0066
515.00,0.0061
514.00,0.0062
513.00,0.0067
512.00,0.0072
511.00,0.0073
510.00,0.0072
509.00,0.0070
508.00,0.0067
507.00,0.0064
506.00,0.0060
505.00,0.0057
504.00,0.0055
503.00,0.0053
502.00,0.0052
501.00,0.0051
500.00,0.0049
499.00,0.0049
498.00,0.0055
497.00,0.0064
496.00,0.0072
495.00,0.0075
494.00,0.0075
493.00,0.0074
492.00,0.0071
491.00,0.0067
490.00,0.0064
489.00,0.0063
488.00,0.0064
487.00,0.0067
486.00,0.0071
485.00,0.0075
484.00,0.0078
483.00,0.0074
482.00,0.0066
481.00,0.0054
480.00,0.0044
479.00,0.0041
478.00,0.0049
477.00,0.0064
476.00,0.0081
475.00,0.0092
474.00,0.0094
473.00,0.0087
472.00,0.0078
471.00,0.0071
470.00,0.0071
469.00,0.0074
468.00,0.0076
467.00,0.0077
466.00,0.0078
465.00,0.0082
464.00,0.0087
463.00,0.0093
462.00,0.0098
461.00,0.0106
460.00,0.0117
459.00,0.0132
458.00,0.0146
457.00,0.0150
456.00,0.0143
455.00,0.0132
454.00,0.0123
453.00,0.0112
452.00,0.0111
451.00,0.0113
450.00,0.0113
