Created as New Dataset,Sample 006 By Administrator Date Friday, September 05 2025
cm-1,A
4000.00,0.0011
3999.00,0.0011
3998.00,0.0011
3997.00,0.0011
3996.00,0.0011
3995.00,0.0011
3994.00,0.0011
3993.00,0.0012
3992.00,0.0012
3991.00,0.0012
3990.00,0.0012
3989.00,0.0012
3988.00,0.0012
3987.00,0.0012
3986.00,0.0012
3985.00,0.0012
3984.00,0.0011
3983.00,0.0011
3982.00,0.0011
3981.00,0.0010
3980.00,0.0010
3979.00,0.0010
3978.00,0.0010
3977.00,0.0010
3976.00,0.0010
3975.00,0.0011
3974.00,0.0011
3973.00,0.0011
3972.00,0.0011
3971.00,0.0011
3970.00,0.0011
3969.00,0.0011
3968.00,0.0010
3967.00,0.0010
3966.00,0.0009
3965.00,0.0009
3964.00,0.0009
3963.00,0.0009
3962.00,0.0009
3961.00,0.0010
3960.00,0.0010
3959.00,0.0010
3958.00,0.0010
3957.00,0.0010
3956.00,0.0010
3955.00,0.0010
3954.00,0.0010
3953.00,0.0010
3952.00,0.0010
3951.00,0.0010
3950.00,0.0010
3949.00,0.0010
3948.00,0.0010
3947.00,0.0010
3946.00,0.0010
3945.00,0.0010
3944.00,0.0010
3943.00,0.0010
3942.00,0.0010
3941.00,0.0009
3940.00,0.0009
3939.00,0.0009
3938.00,0.0009
3937.00,0.0009
3936.00,0.0010
3935.00,0.0010
3934.00,0.0010
3933.00,0.0010
3932.00,0.0011
3931.00,0.0011
3930.00,0.0011
3929.00,0.0011
3928.00,0.0011
3927.00,0.0011
3926.00,0.0011
3925.00,0.0011
3924.00,0.0010
3923.00,0.0010
3922.00,0.0010
3921.00,0.0010
3920.00,0.0010
3919.00,0.0010
3918.00,0.0010
3917.00,0.0010
3916.00,0.0009
3915.00,0.0009
3914.00,0.0009
3913.00,0.0009
3912.00,0.0009
3911.00,0.0009
3910.00,0.0009
3909.00,0.0009
3908.00,0.0009
3907.00,0.0009
3906.00,0.0009
3905.00,0.0009
3904.00,0.0009
3903.00,0.0009
3902.00,0.0009
3901.00,0.0009
3900.00,0.0009
3899.00,0.0009
3898.00,0.0009
3897.00,0.0009
3896.00,0.0009
3895.00,0.0009
3894.00,0.0009
3893.00,0.0009
3892.00,0.0009
3891.00,0.0009
3890.00,0.0010
3889.00,0.0009
3888.00,0.0009
3887.00,0.0009
3886.00,0.0008
3885.00,0.0009
3884.00,0.0009
3883.00,0.0009
3882.00,0.0009
3881.00,0.0009
3880.00,0.0009
3879.00,0.0008
3878.00,0.0008
3877.00,0.0008
3876.00,0.0008
3875.00,0.0008
3874.00,0.0009
3873.00,0.0009
3872.00,0.0009
3871.00,0.0009
3870.00,0.0008
3869.00,0.0008
3868.00,0.0008
3867.00,0.0007
3866.00,0.0007
3865.00,0.0007
3864.00,0.0007
3863.00,0.0007
3862.00,0.0007
3861.00,0.0007
3860.00,0.0008
3859.00,0.0008
3858.00,0.0009
3857.00,0.0009
3856.00,0.0009
3855.00,0.0009
3854.00,0.0008
3853.00,0.0008
3852.00,0.0008
3851.00,0.0008
3850.00,0.0007
3849.00,0.0007
3848.00,0.0007
3847.00,0.0007
3846.00,0.0007
3845.00,0.0007
3844.00,0.0007
3843.00,0.0007
3842.00,0.0006
3841.00,0.0006
3840.00,0.0006
3839.00,0.0006
3838.00,0.0007
3837.00,0.0007
3836.00,0.0007
3835.00,0.0007
3834.00,0.0007
3833.00,0.0007
3832.00,0.0007
3831.00,0.0007
3830.00,0.0007
3829.00,0.0006
3828.00,0.0006
3827.00,0.0006
3826.00,0.0006
3825.00,0.0006
3824.00,0.0006
3823.00,0.0006
3822.00,0.0006
3821.00,0.0006
3820.00,0.0007
3819.00,0.0007
3818.00,0.0006
3817.00,0.0006
3816.00,0.0006
3815.00,0.0007
3814.00,0.0007
3813.00,0.0007
3812.00,0.0008
3811.00,0.0008
3810.00,0.0008
3809.00,0.0008
3808.00,0.0007
3807.00,0.0007
3806.00,0.0007
3805.00,0.0007
3804.00,0.0006
3803.00,0.0006
3802.00,0.0006
3801.00,0.0006
3800.00,0.0007
3799.00,0.0007
3798.00,0.0007
3797.00,0.0007
3796.00,0.0008
3795.00,0.0008
3794.00,0.0008
3793.00,0.0008
3792.00,0.0008
3791.00,0.0008
3790.00,0.0008
3789.00,0.0008
3788.00,0.0009
3787.00,0.0009
3786.00,0.0008
3785.00,0.0008
3784.00,0.0008
3783.00,0.0008
3782.00,0.0008
3781.00,0.0008
3780.00,0.0008
3779.00,0.0009
3778.00,0.0009
3777.00,0.0009
3776.00,0.0009
3775.00,0.0009
3774.00,0.0009
3773.00,0.0009
3772.00,0.0009
3771.00,0.0009
3770.00,0.0008
3769.00,0.0009
3768.00,0.0009
3767.00,0.0009
3766.00,0.0010
3765.00,0.0010
3764.00,0.0010
3763.00,0.0010
3762.00,0.0009
3761.00,0.0009
3760.00,0.0009
3759.00,0.0009
3758.00,0.0009
3757.00,0.0009
3756.00,0.0009
3755.00,0.0008
3754.00,0.0007
3753.00,0.0007
3752.00,0.0006
3751.00,0.0006
3750.00,0.0006
3749.00,0.0007
3748.00,0.0008
3747.00,0.0009
3746.00,0.0009
3745.00,0.0010
3744.00,0.0009
3743.00,0.0008
3742.00,0.0007
3741.00,0.0006
3740.00,0.0005
3739.00,0.0005
3738.00,0.0005
3737.00,0.0005
3736.00,0.0005
3735.00,0.0006
3734.00,0.0006
3733.00,0.0006
3732.00,0.0007
3731.00,0.0007
3730.00,0.0007
3729.00,0.0007
3728.00,0.0007
3727.00,0.0007
3726.00,0.0007
3725.00,0.0007
3724.00,0.0007
3723.00,0.0006
3722.00,0.0006
3721.00,0.0006
3720.00,0.0006
3719.00,0.0007
3718.00,0.0007
3717.00,0.0007
3716.00,0.0007
3715.00,0.0007
3714.00,0.0007
3713.00,0.0007
3712.00,0.0007
3711.00,0.0007
3710.00,0.0007
3709.00,0.0006
3708.00,0.0006
3707.00,0.0005
3706.00,0.0005
3705.00,0.0005
3704.00,0.0005
3703.00,0.0005
3702.00,0.0006
3701.00,0.0006
3700.00,0.0006
3699.00,0.0006
3698.00,0.0006
3697.00,0.0006
3696.00,0.0006
3695.00,0.0006
3694.00,0.0005
3693.00,0.0005
3692.00,0.0005
3691.00,0.0004
3690.00,0.0004
3689.00,0.0003
3688.00,0.0002
3687.00,0.0001
3686.00,0.0000
3685.00,-0.0001
3684.00,-0.0002
3683.00,-0.0003
3682.00,-0.0005
3681.00,-0.0006
3680.00,-0.0008
3679.00,-0.0010
3678.00,-0.0012
3677.00,-0.0014
3676.00,-0.0015
3675.00,-0.0016
3674.00,-0.0017
3673.00,-0.0018
3672.00,-0.0019
3671.00,-0.0019
3670.00,-0.0020
3669.00,-0.0020
3668.00,-0.0020
3667.00,-0.0021
3666.00,-0.0022
3665.00,-0.0022
3664.00,-0.0023
3663.00,-0.0023
3662.00,-0.0024
3661.00,-0.0025
3660.00,-0.0025
3659.00,-0.0025
3658.00,-0.0026
3657.00,-0.0025
3656.00,-0.0025
3655.00,-0.0024
3654.00,-0.0023
3653.00,-0.0023
3652.00,-0.0023
3651.00,-0.0023
3650.00,-0.0023
3649.00,-0.0023
3648.00,-0.0022
3647.00,-0.0021
3646.00,-0.0020
3645.00,-0.0019
3644.00,-0.0017
3643.00,-0.0016
3642.00,-0.0014
3641.00,-0.0013
3640.00,-0.0014
3639.00,-0.0014
3638.00,-0.0014
3637.00,-0.0013
3636.00,-0.0011
3635.00,-0.0009
3634.00,-0.0006
3633.00,-0.0004
3632.00,-0.0003
3631.00,-0.0003
3630.00,-0.0002
3629.00,-0.0001
3628.00,-0.0000
3627.00,0.0001
3626.00,0.0002
3625.00,0.0002
3624.00,0.0003
3623.00,0.0003
3622.00,0.0002
3621.00,0.0002
3620.00,0.0002
3619.00,0.0003
3618.00,0.0003
3617.00,0.0003
3616.00,0.0003
3615.00,0.0003
3614.00,0.0004
3613.00,0.0005
3612.00,0.0005
3611.00,0.0006
3610.00,0.0006
3609.00,0.0007
3608.00,0.0008
3607.00,0.0008
3606.00,0.0008
3605.00,0.0008
3604.00,0.0007
3603.00,0.0007
3602.00,0.0007
3601.00,0.0007
3600.00,0.0008
3599.00,0.0008
3598.00,0.0008
3597.00,0.0008
3596.00,0.0009
3595.00,0.0009
3594.00,0.0009
3593.00,0.0009
3592.00,0.0009
3591.00,0.0009
3590.00,0.0009
3589.00,0.0009
3588.00,0.0010
3587.00,0.0010
3586.00,0.0010
3585.00,0.0011
3584.00,0.0011
3583.00,0.0012
3582.00,0.0012
3581.00,0.0012
3580.00,0.0011
3579.00,0.0011
3578.00,0.0011
3577.00,0.0011
3576.00,0.0011
3575.00,0.0011
3574.00,0.0011
3573.00,0.0011
3572.00,0.0012
3571.00,0.0012
3570.00,0.0012
3569.00,0.0012
3568.00,0.0013
3567.00,0.0013
3566.00,0.0013
3565.00,0.0013
3564.00,0.0013
3563.00,0.0013
3562.00,0.0013
3561.00,0.0013
3560.00,0.0013
3559.00,0.0014
3558.00,0.0015
3557.00,0.0015
3556.00,0.0015
3555.00,0.0015
3554.00,0.0015
3553.00,0.0015
3552.00,0.0015
3551.00,0.0016
3550.00,0.0016
3549.00,0.0017
3548.00,0.0018
3547.00,0.0018
3546.00,0.0018
3545.00,0.0017
3544.00,0.0017
3543.00,0.0017
3542.00,0.0017
3541.00,0.0018
3540.00,0.0018
3539.00,0.0018
3538.00,0.0018
3537.00,0.0018
3536.00,0.0018
3535.00,0.0018
3534.00,0.0018
3533.00,0.0018
3532.00,0.0018
3531.00,0.0018
3530.00,0.0018
3529.00,0.0019
3528.00,0.0019
3527.00,0.0019
3526.00,0.0020
3525.00,0.0020
3524.00,0.0020
3523.00,0.0020
3522.00,0.0021
3521.00,0.0021
3520.00,0.0021
3519.00,0.0021
3518.00,0.0021
3517.00,0.0021
3516.00,0.0021
3515.00,0.0021
3514.00,0.0022
3513.00,0.0022
3512.00,0.0022
3511.00,0.0022
3510.00,0.0023
3509.00,0.0023
3508.00,0.0023
3507.00,0.0024
3506.00,0.0024
3505.00,0.0024
3504.00,0.0023
3503.00,0.0023
3502.00,0.0023
3501.00,0.0024
3500.00,0.0024
3499.00,0.0024
3498.00,0.0025
3497.00,0.0025
3496.00,0.0026
3495.00,0.0026
3494.00,0.0026
3493.00,0.0026
3492.00,0.0026
3491.00,0.0026
3490.00,0.0025
3489.00,0.0025
3488.00,0.0025
3487.00,0.0026
3486.00,0.0026
3485.00,0.0026
3484.00,0.0027
3483.00,0.0026
3482.00,0.0026
3481.00,0.0026
3480.00,0.0026
3479.00,0.0026
3478.00,0.0026
3477.00,0.0026
3476.00,0.0026
3475.00,0.0027
3474.00,0.0028
3473.00,0.0028
3472.00,0.0028
3471.00,0.0029
3470.00,0.0029
3469.00,0.0029
3468.00,0.0029
3467.00,0.0029
3466.00,0.0029
3465.00,0.0029
3464.00,0.0029
3463.00,0.0029
3462.00,0.0029
3461.00,0.0029
3460.00,0.0029
3459.00,0.0029
3458.00,0.0029
3457.00,0.0029
3456.00,0.0029
3455.00,0.0029
3454.00,0.0030
3453.00,0.0030
3452.00,0.0031
3451.00,0.0031
3450.00,0.0031
3449.00,0.0031
3448.00,0.0031
3447.00,0.0031
3446.00,0.0031
3445.00,0.0031
3444.00,0.0031
3443.00,0.0031
3442.00,0.0031
3441.00,0.0032
3440.00,0.0032
3439.00,0.0033
3438.00,0.0033
3437.00,0.0033
3436.00,0.0033
3435.00,0.0033
3434.00,0.0033
3433.00,0.0033
3432.00,0.0034
3431.00,0.0034
3430.00,0.0034
3429.00,0.0035
3428.00,0.0035
3427.00,0.0035
3426.00,0.0035
3425.00,0.0035
3424.00,0.0035
3423.00,0.0036
3422.00,0.0036
3421.00,0.0036
3420.00,0.0036
3419.00,0.0036
3418.00,0.0036
3417.00,0.0036
3416.00,0.0036
3415.00,0.0037
3414.00,0.0037
3413.00,0.0038
3412.00,0.0038
3411.00,0.0038
3410.00,0.0039
3409.00,0.0039
3408.00,0.0039
3407.00,0.0039
3406.00,0.0039
3405.00,0.0039
3404.00,0.0038
3403.00,0.0038
3402.00,0.0038
3401.00,0.0038
3400.00,0.0038
3399.00,0.0038
3398.00,0.0039
3397.00,0.0039
3396.00,0.0039
3395.00,0.0039
3394.00,0.0040
3393.00,0.0040
3392.00,0.0040
3391.00,0.0040
3390.00,0.0040
3389.00,0.0041
3388.00,0.0041
3387.00,0.0042
3386.00,0.0042
3385.00,0.0042
3384.00,0.0041
3383.00,0.0041
3382.00,0.0041
3381.00,0.0041
3380.00,0.0042
3379.00,0.0042
3378.00,0.0042
3377.00,0.0043
3376.00,0.0043
3375.00,0.0043
3374.00,0.0043
3373.00,0.0043
3372.00,0.0043
3371.00,0.0044
3370.00,0.0044
3369.00,0.0044
3368.00,0.0044
3367.00,0.0044
3366.00,0.0045
3365.00,0.0045
3364.00,0.0045
3363.00,0.0045
3362.00,0.0045
3361.00,0.0045
3360.00,0.0045
3359.00,0.0045
3358.00,0.0045
3357.00,0.0045
3356.00,0.0045
3355.00,0.0045
3354.00,0.0046
3353.00,0.0046
3352.00,0.0046
3351.00,0.0045
3350.00,0.0045
3349.00,0.0045
3348.00,0.0046
3347.00,0.0046
3346.00,0.0046
3345.00,0.0047
3344.00,0.0047
3343.00,0.0047
3342.00,0.0047
3341.00,0.0047
3340.00,0.0047
3339.00,0.0047
3338.00,0.0047
3337.00,0.0047
3336.00,0.0047
3335.00,0.0047
3334.00,0.0047
3333.00,0.0047
3332.00,0.0047
3331.00,0.0047
3330.00,0.0047
3329.00,0.0046
3328.00,0.0046
3327.00,0.0047
3326.00,0.0047
3325.00,0.0047
3324.00,0.0047
3323.00,0.0047
3322.00,0.0047
3321.00,0.0048
3320.00,0.0048
3319.00,0.0048
3318.00,0.0049
3317.00,0.0049
3316.00,0.0049
3315.00,0.0049
3314.00,0.0049
3313.00,0.0049
3312.00,0.0048
3311.00,0.0048
3310.00,0.0049
3309.00,0.0049
3308.00,0.0049
3307.00,0.0049
3306.00,0.0050
3305.00,0.0050
3304.00,0.0050
3303.00,0.0050
3302.00,0.0050
3301.00,0.0051
3300.00,0.0051
3299.00,0.0051
3298.00,0.0051
3297.00,0.0050
3296.00,0.0050
3295.00,0.0050
3294.00,0.0050
3293.00,0.0050
3292.00,0.0050
3291.00,0.0050
3290.00,0.0050
3289.00,0.0050
3288.00,0.0050
3287.00,0.0049
3286.00,0.0049
3285.00,0.0049
3284.00,0.0049
3283.00,0.0049
3282.00,0.0049
3281.00,0.0049
3280.00,0.0049
3279.00,0.0049
3278.00,0.0049
3277.00,0.0049
3276.00,0.0049
3275.00,0.0048
3274.00,0.0048
3273.00,0.0048
3272.00,0.0048
3271.00,0.0047
3270.00,0.0047
3269.00,0.0047
3268.00,0.0047
3267.00,0.0047
3266.00,0.0047
3265.00,0.0047
3264.00,0.0047
3263.00,0.0047
3262.00,0.0047
3261.00,0.0047
3260.00,0.0046
3259.00,0.0045
3258.00,0.0045
3257.00,0.0045
3256.00,0.0044
3255.00,0.0044
3254.00,0.0044
3253.00,0.0044
3252.00,0.0043
3251.00,0.0043
3250.00,0.0043
3249.00,0.0043
3248.00,0.0043
3247.00,0.0042
3246.00,0.0042
3245.00,0.0042
3244.00,0.0042
3243.00,0.0042
3242.00,0.0042
3241.00,0.0042
3240.00,0.0042
3239.00,0.0042
3238.00,0.0041
3237.00,0.0041
3236.00,0.0041
3235.00,0.0041
3234.00,0.0041
3233.00,0.0042
3232.00,0.0042
3231.00,0.0042
3230.00,0.0042
3229.00,0.0042
3228.00,0.0042
3227.00,0.0042
3226.00,0.0042
3225.00,0.0042
3224.00,0.0042
3223.00,0.0042
3222.00,0.0042
3221.00,0.0043
3220.00,0.0043
3219.00,0.0043
3218.00,0.0043
3217.00,0.0043
3216.00,0.0042
3215.00,0.0042
3214.00,0.0043
3213.00,0.0043
3212.00,0.0043
3211.00,0.0043
3210.00,0.0043
3209.00,0.0043
3208.00,0.0043
3207.00,0.0044
3206.00,0.0044
3205.00,0.0044
3204.00,0.0044
3203.00,0.0044
3202.00,0.0044
3201.00,0.0044
3200.00,0.0044
3199.00,0.0044
3198.00,0.0044
3197.00,0.0044
3196.00,0.0044
3195.00,0.0044
3194.00,0.0044
3193.00,0.0044
3192.00,0.0043
3191.00,0.0043
3190.00,0.0043
3189.00,0.0043
3188.00,0.0043
3187.00,0.0042
3186.00,0.0042
3185.00,0.0042
3184.00,0.0042
3183.00,0.0042
3182.00,0.0042
3181.00,0.0042
3180.00,0.0042
3179.00,0.0042
3178.00,0.0041
3177.00,0.0041
3176.00,0.0041
3175.00,0.0040
3174.00,0.0040
3173.00,0.0041
3172.00,0.0041
3171.00,0.0041
3170.00,0.0040
3169.00,0.0040
3168.00,0.0040
3167.00,0.0040
3166.00,0.0040
3165.00,0.0040
3164.00,0.0040
3163.00,0.0039
3162.00,0.0039
3161.00,0.0039
3160.00,0.0039
3159.00,0.0040
3158.00,0.0040
3157.00,0.0041
3156.00,0.0041
3155.00,0.0040
3154.00,0.0040
3153.00,0.0040
3152.00,0.0040
3151.00,0.0040
3150.00,0.0040
3149.00,0.0040
3148.00,0.0040
3147.00,0.0040
3146.00,0.0039
3145.00,0.0039
3144.00,0.0039
3143.00,0.0039
3142.00,0.0039
3141.00,0.0039
3140.00,0.0039
3139.00,0.0039
3138.00,0.0039
3137.00,0.0039
3136.00,0.0039
3135.00,0.0038
3134.00,0.0037
3133.00,0.0037
3132.00,0.0037
3131.00,0.0037
3130.00,0.0037
3129.00,0.0037
3128.00,0.0036
3127.00,0.0036
3126.00,0.0036
3125.00,0.0036
3124.00,0.0035
3123.00,0.0035
3122.00,0.0034
3121.00,0.0034
3120.00,0.0034
3119.00,0.0034
3118.00,0.0034
3117.00,0.0034
3116.00,0.0034
3115.00,0.0033
3114.00,0.0033
3113.00,0.0033
3112.00,0.0033
3111.00,0.0033
3110.00,0.0033
3109.00,0.0033
3108.00,0.0033
3107.00,0.0033
3106.00,0.0033
3105.00,0.0033
3104.00,0.0033
3103.00,0.0033
3102.00,0.0033
3101.00,0.0033
3100.00,0.0033
3099.00,0.0033
3098.00,0.0033
3097.00,0.0034
3096.00,0.0034
3095.00,0.0033
3094.00,0.0033
3093.00,0.0033
3092.00,0.0033
3091.00,0.0033
3090.00,0.0032
3089.00,0.0032
3088.00,0.0033
3087.00,0.0033
3086.00,0.0033
3085.00,0.0033
3084.00,0.0033
3083.00,0.0032
3082.00,0.0032
3081.00,0.0032
3080.00,0.0032
3079.00,0.0032
3078.00,0.0032
3077.00,0.0033
3076.00,0.0034
3075.00,0.0034
3074.00,0.0034
3073.00,0.0034
3072.00,0.0034
3071.00,0.0035
3070.00,0.0035
3069.00,0.0035
3068.00,0.0035
3067.00,0.0035
3066.00,0.0035
3065.00,0.0035
3064.00,0.0036
3063.00,0.0036
3062.00,0.0036
3061.00,0.0036
3060.00,0.0036
3059.00,0.0036
3058.00,0.0037
3057.00,0.0037
3056.00,0.0037
3055.00,0.0038
3054.00,0.0037
3053.00,0.0037
3052.00,0.0037
3051.00,0.0037
3050.00,0.0037
3049.00,0.0038
3048.00,0.0038
3047.00,0.0038
3046.00,0.0038
3045.00,0.0038
3044.00,0.0039
3043.00,0.0039
3042.00,0.0039
3041.00,0.0039
3040.00,0.0039
3039.00,0.0039
3038.00,0.0040
3037.00,0.0040
3036.00,0.0040
3035.00,0.0040
3034.00,0.0040
3033.00,0.0040
3032.00,0.0040
3031.00,0.0040
3030.00,0.0040
3029.00,0.0041
3028.00,0.0041
3027.00,0.0041
3026.00,0.0041
3025.00,0.0041
3024.00,0.0042
3023.00,0.0041
3022.00,0.0041
3021.00,0.0040
3020.00,0.0039
3019.00,0.0038
3018.00,0.0037
3017.00,0.0036
3016.00,0.0034
3015.00,0.0032
3014.00,0.0030
3013.00,0.0026
3012.00,0.0023
3011.00,0.0019
3010.00,0.0014
3009.00,0.0009
3008.00,0.0003
3007.00,-0.0003
3006.00,-0.0010
3005.00,-0.0016
3004.00,-0.0023
3003.00,-0.0030
3002.00,-0.0037
3001.00,-0.0043
3000.00,-0.0048
2999.00,-0.0052
2998.00,-0.0055
2997.00,-0.0058
2996.00,-0.0059
2995.00,-0.0061
2994.00,-0.0061
2993.00,-0.0062
2992.00,-0.0061
2991.00,-0.0059
2990.00,-0.0057
2989.00,-0.0055
2988.00,-0.0053
2987.00,-0.0053
2986.00,-0.0057
2985.00,-0.0068
2984.00,-0.0083
2983.00,-0.0095
2982.00,-0.0096
2981.00,-0.0083
2980.00,-0.0056
2979.00,-0.0021
2978.00,0.0018
2977.00,0.0058
2976.00,0.0097
2975.00,0.0135
2974.00,0.0174
2973.00,0.0216
2972.00,0.0266
2971.00,0.0328
2970.00,0.0401
2969.00,0.0481
2968.00,0.0565
2967.00,0.0650
2966.00,0.0736
2965.00,0.0819
2964.00,0.0898
2963.00,0.0969
2962.00,0.1029
2961.00,0.1079
2960.00,0.1121
2959.00,0.1161
2958.00,0.1205
2957.00,0.1260
2956.00,0.1331
2955.00,0.1419
2954.00,0.1523
2953.00,0.1634
2952.00,0.1743
2951.00,0.1835
2950.00,0.1895
2949.00,0.1910
2948.00,0.1874
2947.00,0.1791
2946.00,0.1671
2945.00,0.1532
2944.00,0.1390
2943.00,0.1262
2942.00,0.1156
2941.00,0.1078
2940.00,0.1027
2939.00,0.1002
2938.00,0.1001
2937.00,0.1019
2936.00,0.1056
2935.00,0.1109
2934.00,0.1177
2933.00,0.1260
2932.00,0.1357
2931.00,0.1465
2930.00,0.1583
2929.00,0.1706
2928.00,0.1832
2927.00,0.1956
2926.00,0.2076
2925.00,0.2193
2924.00,0.2309
2923.00,0.2425
2922.00,0.2542
2921.00,0.2657
2920.00,0.2763
2919.00,0.2849
2918.00,0.2902
2917.00,0.2911
2916.00,0.2873
2915.00,0.2791
2914.00,0.2677
2913.00,0.2546
2912.00,0.2412
2911.00,0.2283
2910.00,0.2165
2909.00,0.2057
2908.00,0.1959
2907.00,0.1866
2906.00,0.1778
2905.00,0.1693
2904.00,0.1609
2903.00,0.1528
2902.00,0.1450
2901.00,0.1376
2900.00,0.1306
2899.00,0.1241
2898.00,0.1181
2897.00,0.1127
2896.00,0.1079
2895.00,0.1039
2894.00,0.1005
2893.00,0.0980
2892.00,0.0961
2891.00,0.0951
2890.00,0.0947
2889.00,0.0949
2888.00,0.0955
2887.00,0.0966
2886.00,0.0979
2885.00,0.0996
2884.00,0.1019
2883.00,0.1048
2882.00,0.1084
2881.00,0.1123
2880.00,0.1162
2879.00,0.1195
2878.00,0.1217
2877.00,0.1227
2876.00,0.1227
2875.00,0.1220
2874.00,0.1214
2873.00,0.1214
2872.00,0.1223
2871.00,0.1242
2870.00,0.1268
2869.00,0.1298
2868.00,0.1321
2867.00,0.1328
2866.00,0.1310
2865.00,0.1261
2864.00,0.1182
2863.00,0.1084
2862.00,0.0978
2861.00,0.0877
2860.00,0.0789
2859.00,0.0717
2858.00,0.0662
2857.00,0.0623
2856.00,0.0595
2855.00,0.0578
2854.00,0.0570
2853.00,0.0569
2852.00,0.0576
2851.00,0.0589
2850.00,0.0609
2849.00,0.0637
2848.00,0.0671
2847.00,0.0714
2846.00,0.0766
2845.00,0.0826
2844.00,0.0894
2843.00,0.0967
2842.00,0.1042
2841.00,0.1111
2840.00,0.1168
2839.00,0.1203
2838.00,0.1208
2837.00,0.1178
2836.00,0.1116
2835.00,0.1026
2834.00,0.0921
2833.00,0.0811
2832.00,0.0707
2831.00,0.0615
2830.00,0.0537
2829.00,0.0474
2828.00,0.0423
2827.00,0.0382
2826.00,0.0349
2825.00,0.0321
2824.00,0.0298
2823.00,0.0279
2822.00,0.0263
2821.00,0.0249
2820.00,0.0237
2819.00,0.0227
2818.00,0.0217
2817.00,0.0209
2816.00,0.0202
2815.00,0.0196
2814.00,0.0190
2813.00,0.0185
2812.00,0.0179
2811.00,0.0174
2810.00,0.0168
2809.00,0.0163
2808.00,0.0157
2807.00,0.0150
2806.00,0.0144
2805.00,0.0137
2804.00,0.0130
2803.00,0.0124
2802.00,0.0119
2801.00,0.0114
2800.00,0.0111
2799.00,0.0108
2798.00,0.0105
2797.00,0.0102
2796.00,0.0100
2795.00,0.0097
2794.00,0.0095
2793.00,0.0092
2792.00,0.0090
2791.00,0.0087
2790.00,0.0085
2789.00,0.0082
2788.00,0.0079
2787.00,0.0076
2786.00,0.0073
2785.00,0.0071
2784.00,0.0069
2783.00,0.0067
2782.00,0.0066
2781.00,0.0064
2780.00,0.0063
2779.00,0.0061
2778.00,0.0059
2777.00,0.0058
2776.00,0.0057
2775.00,0.0056
2774.00,0.0056
2773.00,0.0055
2772.00,0.0055
2771.00,0.0054
2770.00,0.0053
2769.00,0.0053
2768.00,0.0052
2767.00,0.0052
2766.00,0.0052
2765.00,0.0052
2764.00,0.0052
2763.00,0.0052
2762.00,0.0052
2761.00,0.0051
2760.00,0.0050
2759.00,0.0050
2758.00,0.0049
2757.00,0.0049
2756.00,0.0049
2755.00,0.0049
2754.00,0.0050
2753.00,0.0050
2752.00,0.0049
2751.00,0.0049
2750.00,0.0049
2749.00,0.0049
2748.00,0.0050
2747.00,0.0050
2746.00,0.0050
2745.00,0.0051
2744.00,0.0052
2743.00,0.0052
2742.00,0.0053
2741.00,0.0054
2740.00,0.0056
2739.00,0.0057
2738.00,0.0058
2737.00,0.0060
2736.00,0.0062
2735.00,0.0063
2734.00,0.0065
2733.00,0.0068
2732.00,0.0070
2731.00,0.0072
2730.00,0.0074
2729.00,0.0077
2728.00,0.0080
2727.00,0.0083
2726.00,0.0086
2725.00,0.0088
2724.00,0.0090
2723.00,0.0091
2722.00,0.0091
2721.00,0.0089
2720.00,0.0086
2719.00,0.0082
2718.00,0.0079
2717.00,0.0075
2716.00,0.0072
2715.00,0.0068
2714.00,0.0066
2713.00,0.0063
2712.00,0.0061
2711.00,0.0059
2710.00,0.0058
2709.00,0.0056
2708.00,0.0054
2707.00,0.0053
2706.00,0.0051
2705.00,0.0050
2704.00,0.0049
2703.00,0.0048
2702.00,0.0047
2701.00,0.0046
2700.00,0.0045
2699.00,0.0045
2698.00,0.0044
2697.00,0.0044
2696.00,0.0044
2695.00,0.0044
2694.00,0.0043
2693.00,0.0043
2692.00,0.0043
2691.00,0.0043
2690.00,0.0043
2689.00,0.0043
2688.00,0.0043
2687.00,0.0043
2686.00,0.0043
2685.00,0.0043
2684.00,0.0043
2683.00,0.0043
2682.00,0.0043
2681.00,0.0043
2680.00,0.0043
2679.00,0.0044
2678.00,0.0044
2677.00,0.0044
2676.00,0.0044
2675.00,0.0043
2674.00,0.0043
2673.00,0.0043
2672.00,0.0042
2671.00,0.0042
2670.00,0.0042
2669.00,0.0042
2668.00,0.0042
2667.00,0.0042
2666.00,0.0042
2665.00,0.0043
2664.00,0.0043
2663.00,0.0044
2662.00,0.0044
2661.00,0.0045
2660.00,0.0045
2659.00,0.0045
2658.00,0.0045
2657.00,0.0045
2656.00,0.0044
2655.00,0.0043
2654.00,0.0043
2653.00,0.0042
2652.00,0.0041
2651.00,0.0041
2650.00,0.0040
2649.00,0.0040
2648.00,0.0040
2647.00,0.0039
2646.00,0.0039
2645.00,0.0038
2644.00,0.0038
2643.00,0.0037
2642.00,0.0037
2641.00,0.0037
2640.00,0.0036
2639.00,0.0036
2638.00,0.0036
2637.00,0.0036
2636.00,0.0036
2635.00,0.0037
2634.00,0.0037
2633.00,0.0037
2632.00,0.0037
2631.00,0.0037
2630.00,0.0037
2629.00,0.0037
2628.00,0.0038
2627.00,0.0038
2626.00,0.0038
2625.00,0.0038
2624.00,0.0039
2623.00,0.0039
2622.00,0.0039
2621.00,0.0040
2620.00,0.0040
2619.00,0.0040
2618.00,0.0040
2617.00,0.0040
2616.00,0.0040
2615.00,0.0040
2614.00,0.0039
2613.00,0.0039
2612.00,0.0039
2611.00,0.0039
2610.00,0.0038
2609.00,0.0037
2608.00,0.0036
2607.00,0.0035
2606.00,0.0035
2605.00,0.0034
2604.00,0.0034
2603.00,0.0034
2602.00,0.0033
2601.00,0.0033
2600.00,0.0033
2599.00,0.0034
2598.00,0.0034
2597.00,0.0034
2596.00,0.0034
2595.00,0.0034
2594.00,0.0035
2593.00,0.0035
2592.00,0.0035
2591.00,0.0035
2590.00,0.0036
2589.00,0.0037
2588.00,0.0038
2587.00,0.0040
2586.00,0.0041
2585.00,0.0042
2584.00,0.0043
2583.00,0.0043
2582.00,0.0043
2581.00,0.0043
2580.00,0.0042
2579.00,0.0040
2578.00,0.0039
2577.00,0.0038
2576.00,0.0037
2575.00,0.0036
2574.00,0.0034
2573.00,0.0033
2572.00,0.0032
2571.00,0.0031
2570.00,0.0030
2569.00,0.0030
2568.00,0.0030
2567.00,0.0029
2566.00,0.0029
2565.00,0.0028
2564.00,0.0028
2563.00,0.0027
2562.00,0.0027
2561.00,0.0026
2560.00,0.0026
2559.00,0.0025
2558.00,0.0025
2557.00,0.0024
2556.00,0.0024
2555.00,0.0024
2554.00,0.0024
2553.00,0.0024
2552.00,0.0024
2551.00,0.0023
2550.00,0.0023
2549.00,0.0023
2548.00,0.0023
2547.00,0.0022
2546.00,0.0021
2545.00,0.0020
2544.00,0.0019
2543.00,0.0018
2542.00,0.0018
2541.00,0.0018
2540.00,0.0018
2539.00,0.0019
2538.00,0.0019
2537.00,0.0018
2536.00,0.0018
2535.00,0.0018
2534.00,0.0018
2533.00,0.0018
2532.00,0.0018
2531.00,0.0018
2530.00,0.0018
2529.00,0.0017
2528.00,0.0017
2527.00,0.0017
2526.00,0.0018
2525.00,0.0018
2524.00,0.0017
2523.00,0.0016
2522.00,0.0014
2521.00,0.0013
2520.00,0.0012
2519.00,0.0012
2518.00,0.0012
2517.00,0.0012
2516.00,0.0012
2515.00,0.0012
2514.00,0.0012
2513.00,0.0012
2512.00,0.0012
2511.00,0.0011
2510.00,0.0011
2509.00,0.0012
2508.00,0.0012
2507.00,0.0012
2506.00,0.0012
2505.00,0.0012
2504.00,0.0012
2503.00,0.0011
2502.00,0.0011
2501.00,0.0011
2500.00,0.0011
2499.00,0.0011
2498.00,0.0010
2497.00,0.0010
2496.00,0.0010
2495.00,0.0010
2494.00,0.0010
2493.00,0.0010
2492.00,0.0010
2491.00,0.0011
2490.00,0.0011
2489.00,0.0012
2488.00,0.0012
2487.00,0.0012
2486.00,0.0011
2485.00,0.0011
2484.00,0.0011
2483.00,0.0011
2482.00,0.0011
2481.00,0.0012
2480.00,0.0013
2479.00,0.0012
2478.00,0.0012
2477.00,0.0011
2476.00,0.0011
2475.00,0.0011
2474.00,0.0010
2473.00,0.0010
2472.00,0.0010
2471.00,0.0011
2470.00,0.0011
2469.00,0.0011
2468.00,0.0011
2467.00,0.0012
2466.00,0.0011
2465.00,0.0011
2464.00,0.0011
2463.00,0.0011
2462.00,0.0011
2461.00,0.0011
2460.00,0.0011
2459.00,0.0012
2458.00,0.0012
2457.00,0.0013
2456.00,0.0013
2455.00,0.0012
2454.00,0.0012
2453.00,0.0012
2452.00,0.0012
2451.00,0.0012
2450.00,0.0013
2449.00,0.0013
2448.00,0.0013
2447.00,0.0013
2446.00,0.0013
2445.00,0.0013
2444.00,0.0013
2443.00,0.0012
2442.00,0.0012
2441.00,0.0012
2440.00,0.0012
2439.00,0.0012
2438.00,0.0012
2437.00,0.0012
2436.00,0.0012
2435.00,0.0012
2434.00,0.0013
2433.00,0.0014
2432.00,0.0014
2431.00,0.0014
2430.00,0.0014
2429.00,0.0015
2428.00,0.0015
2427.00,0.0015
2426.00,0.0015
2425.00,0.0014
2424.00,0.0014
2423.00,0.0014
2422.00,0.0014
2421.00,0.0013
2420.00,0.0013
2419.00,0.0013
2418.00,0.0013
2417.00,0.0013
2416.00,0.0013
2415.00,0.0013
2414.00,0.0013
2413.00,0.0012
2412.00,0.0012
2411.00,0.0012
2410.00,0.0012
2409.00,0.0012
2408.00,0.0011
2407.00,0.0010
2406.00,0.0010
2405.00,0.0010
2404.00,0.0010
2403.00,0.0010
2402.00,0.0010
2401.00,0.0010
2400.00,0.0011
2399.00,0.0010
2398.00,0.0010
2397.00,0.0010
2396.00,0.0010
2395.00,0.0009
2394.00,0.0009
2393.00,0.0009
2392.00,0.0009
2391.00,0.0008
2390.00,0.0007
2389.00,0.0007
2388.00,0.0007
2387.00,0.0008
2386.00,0.0008
2385.00,0.0008
2384.00,0.0008
2383.00,0.0008
2382.00,0.0007
2381.00,0.0007
2380.00,0.0007
2379.00,0.0007
2378.00,0.0006
2377.00,0.0006
2376.00,0.0006
2375.00,0.0006
2374.00,0.0007
2373.00,0.0007
2372.00,0.0007
2371.00,0.0007
2370.00,0.0007
2369.00,0.0007
2368.00,0.0007
2367.00,0.0007
2366.00,0.0007
2365.00,0.0007
2364.00,0.0007
2363.00,0.0008
2362.00,0.0007
2361.00,0.0007
2360.00,0.0007
2359.00,0.0008
2358.00,0.0009
2357.00,0.0009
2356.00,0.0009
2355.00,0.0009
2354.00,0.0008
2353.00,0.0006
2352.00,0.0004
2351.00,0.0004
2350.00,0.0006
2349.00,0.0008
2348.00,0.0010
2347.00,0.0011
2346.00,0.0010
2345.00,0.0009
2344.00,0.0009
2343.00,0.0010
2342.00,0.0010
2341.00,0.0010
2340.00,0.0010
2339.00,0.0010
2338.00,0.0010
2337.00,0.0011
2336.00,0.0011
2335.00,0.0011
2334.00,0.0010
2333.00,0.0009
2332.00,0.0009
2331.00,0.0009
2330.00,0.0009
2329.00,0.0010
2328.00,0.0012
2327.00,0.0015
2326.00,0.0018
2325.00,0.0021
2324.00,0.0022
2323.00,0.0020
2322.00,0.0018
2321.00,0.0016
2320.00,0.0015
2319.00,0.0014
2318.00,0.0014
2317.00,0.0013
2316.00,0.0011
2315.00,0.0010
2314.00,0.0009
2313.00,0.0008
2312.00,0.0008
2311.00,0.0008
2310.00,0.0007
2309.00,0.0007
2308.00,0.0007
2307.00,0.0007
2306.00,0.0008
2305.00,0.0008
2304.00,0.0009
2303.00,0.0010
2302.00,0.0010
2301.00,0.0011
2300.00,0.0011
2299.00,0.0012
2298.00,0.0013
2297.00,0.0014
2296.00,0.0014
2295.00,0.0014
2294.00,0.0014
2293.00,0.0015
2292.00,0.0016
2291.00,0.0017
2290.00,0.0017
2289.00,0.0017
2288.00,0.0017
2287.00,0.0017
2286.00,0.0017
2285.00,0.0018
2284.00,0.0019
2283.00,0.0019
2282.00,0.0019
2281.00,0.0018
2280.00,0.0017
2279.00,0.0016
2278.00,0.0016
2277.00,0.0015
2276.00,0.0015
2275.00,0.0016
2274.00,0.0016
2273.00,0.0016
2272.00,0.0016
2271.00,0.0015
2270.00,0.0014
2269.00,0.0014
2268.00,0.0013
2267.00,0.0013
2266.00,0.0012
2265.00,0.0012
2264.00,0.0011
2263.00,0.0011
2262.00,0.0010
2261.00,0.0011
2260.00,0.0012
2259.00,0.0013
2258.00,0.0015
2257.00,0.0015
2256.00,0.0014
2255.00,0.0013
2254.00,0.0012
2253.00,0.0012
2252.00,0.0011
2251.00,0.0010
2250.00,0.0010
2249.00,0.0011
2248.00,0.0011
2247.00,0.0012
2246.00,0.0012
2245.00,0.0012
2244.00,0.0012
2243.00,0.0011
2242.00,0.0011
2241.00,0.0011
2240.00,0.0011
2239.00,0.0010
2238.00,0.0009
2237.00,0.0008
2236.00,0.0008
2235.00,0.0009
2234.00,0.0009
2233.00,0.0010
2232.00,0.0010
2231.00,0.0009
2230.00,0.0008
2229.00,0.0008
2228.00,0.0009
2227.00,0.0011
2226.00,0.0011
2225.00,0.0011
2224.00,0.0009
2223.00,0.0007
2222.00,0.0005
2221.00,0.0005
2220.00,0.0007
2219.00,0.0008
2218.00,0.0009
2217.00,0.0008
2216.00,0.0007
2215.00,0.0007
2214.00,0.0006
2213.00,0.0006
2212.00,0.0006
2211.00,0.0005
2210.00,0.0005
2209.00,0.0006
2208.00,0.0007
2207.00,0.0006
2206.00,0.0004
2205.00,0.0003
2204.00,0.0003
2203.00,0.0003
2202.00,0.0004
2201.00,0.0005
2200.00,0.0006
2199.00,0.0006
2198.00,0.0005
2197.00,0.0006
2196.00,0.0008
2195.00,0.0011
2194.00,0.0013
2193.00,0.0014
2192.00,0.0014
2191.00,0.0013
2190.00,0.0011
2189.00,0.0010
2188.00,0.0009
2187.00,0.0008
2186.00,0.0009
2185.00,0.0009
2184.00,0.0011
2183.00,0.0011
2182.00,0.0011
2181.00,0.0010
2180.00,0.0009
2179.00,0.0009
2178.00,0.0010
2177.00,0.0010
2176.00,0.0009
2175.00,0.0008
2174.00,0.0007
2173.00,0.0008
2172.00,0.0011
2171.00,0.0016
2170.00,0.0020
2169.00,0.0022
2168.00,0.0022
2167.00,0.0020
2166.00,0.0018
2165.00,0.0018
2164.00,0.0020
2163.00,0.0023
2162.00,0.0022
2161.00,0.0018
2160.00,0.0007
2159.00,-0.0007
2158.00,-0.0020
2157.00,-0.0025
2156.00,-0.0024
2155.00,-0.0019
2154.00,-0.0015
2153.00,-0.0014
2152.00,-0.0015
2151.00,-0.0015
2150.00,-0.0014
2149.00,-0.0012
2148.00,-0.0009
2147.00,-0.0008
2146.00,-0.0009
2145.00,-0.0009
2144.00,-0.0009
2143.00,-0.0009
2142.00,-0.0007
2141.00,-0.0005
2140.00,-0.0004
2139.00,-0.0003
2138.00,-0.0005
2137.00,-0.0008
2136.00,-0.0011
2135.00,-0.0013
2134.00,-0.0013
2133.00,-0.0013
2132.00,-0.0011
2131.00,-0.0010
2130.00,-0.0009
2129.00,-0.0009
2128.00,-0.0009
2127.00,-0.0008
2126.00,-0.0007
2125.00,-0.0005
2124.00,-0.0003
2123.00,-0.0003
2122.00,-0.0003
2121.00,-0.0003
2120.00,-0.0004
2119.00,-0.0004
2118.00,-0.0003
2117.00,-0.0002
2116.00,-0.0001
2115.00,-0.0000
2114.00,0.0001
2113.00,0.0002
2112.00,0.0003
2111.00,0.0003
2110.00,0.0003
2109.00,0.0003
2108.00,0.0003
2107.00,0.0003
2106.00,0.0002
2105.00,0.0002
2104.00,0.0000
2103.00,-0.0000
2102.00,0.0000
2101.00,0.0001
2100.00,0.0002
2099.00,0.0002
2098.00,0.0000
2097.00,-0.0002
2096.00,-0.0004
2095.00,-0.0006
2094.00,-0.0006
2093.00,-0.0004
2092.00,-0.0002
2091.00,-0.0001
2090.00,-0.0001
2089.00,-0.0000
2088.00,0.0001
2087.00,0.0003
2086.00,0.0004
2085.00,0.0004
2084.00,0.0005
2083.00,0.0005
2082.00,0.0005
2081.00,0.0005
2080.00,0.0004
2079.00,0.0004
2078.00,0.0003
2077.00,0.0003
2076.00,0.0004
2075.00,0.0003
2074.00,0.0002
2073.00,0.0002
2072.00,0.0001
2071.00,0.0001
2070.00,0.0001
2069.00,0.0001
2068.00,0.0001
2067.00,0.0000
2066.00,-0.0000
2065.00,-0.0000
2064.00,0.0000
2063.00,0.0001
2062.00,0.0003
2061.00,0.0004
2060.00,0.0005
2059.00,0.0004
2058.00,0.0003
2057.00,0.0002
2056.00,0.0001
2055.00,0.0002
2054.00,0.0004
2053.00,0.0009
2052.00,0.0015
2051.00,0.0018
2050.00,0.0016
2049.00,0.0012
2048.00,0.0006
2047.00,0.0002
2046.00,0.0001
2045.00,0.0002
2044.00,0.0004
2043.00,0.0006
2042.00,0.0008
2041.00,0.0008
2040.00,0.0006
2039.00,0.0004
2038.00,0.0002
2037.00,0.0002
2036.00,0.0004
2035.00,0.0004
2034.00,0.0003
2033.00,-0.0002
2032.00,-0.0007
2031.00,-0.0010
2030.00,-0.0010
2029.00,-0.0008
2028.00,-0.0006
2027.00,-0.0005
2026.00,-0.0005
2025.00,-0.0004
2024.00,-0.0003
2023.00,-0.0003
2022.00,-0.0004
2021.00,-0.0005
2020.00,-0.0007
2019.00,-0.0009
2018.00,-0.0010
2017.00,-0.0010
2016.00,-0.0008
2015.00,-0.0008
2014.00,-0.0009
2013.00,-0.0009
2012.00,-0.0008
2011.00,-0.0006
2010.00,-0.0004
2009.00,-0.0004
2008.00,-0.0007
2007.00,-0.0011
2006.00,-0.0014
2005.00,-0.0016
2004.00,-0.0016
2003.00,-0.0016
2002.00,-0.0015
2001.00,-0.0013
2000.00,-0.0010
1999.00,-0.0009
1998.00,-0.0009
1997.00,-0.0008
1996.00,-0.0008
1995.00,-0.0007
1994.00,-0.0006
1993.00,-0.0005
1992.00,-0.0005
1991.00,-0.0006
1990.00,-0.0008
1989.00,-0.0008
1988.00,-0.0007
1987.00,-0.0006
1986.00,-0.0004
1985.00,-0.0002
1984.00,0.0001
1983.00,0.0005
1982.00,0.0009
1981.00,0.0013
1980.00,0.0015
1979.00,0.0013
1978.00,0.0005
1977.00,-0.0005
1976.00,-0.0013
1975.00,-0.0016
1974.00,-0.0016
1973.00,-0.0013
1972.00,-0.0011
1971.00,-0.0010
1970.00,-0.0010
1969.00,-0.0009
1968.00,-0.0008
1967.00,-0.0008
1966.00,-0.0008
1965.00,-0.0009
1964.00,-0.0010
1963.00,-0.0012
1962.00,-0.0015
1961.00,-0.0016
1960.00,-0.0017
1959.00,-0.0016
1958.00,-0.0016
1957.00,-0.0014
1956.00,-0.0012
1955.00,-0.0011
1954.00,-0.0010
1953.00,-0.0009
1952.00,-0.0010
1951.00,-0.0011
1950.00,-0.0012
1949.00,-0.0011
1948.00,-0.0009
1947.00,-0.0009
1946.00,-0.0009
1945.00,-0.0009
1944.00,-0.0009
1943.00,-0.0007
1942.00,-0.0006
1941.00,-0.0005
1940.00,-0.0005
1939.00,-0.0004
1938.00,-0.0004
1937.00,-0.0004
1936.00,-0.0004
1935.00,-0.0006
1934.00,-0.0007
1933.00,-0.0009
1932.00,-0.0009
1931.00,-0.0009
1930.00,-0.0008
1929.00,-0.0007
1928.00,-0.0006
1927.00,-0.0005
1926.00,-0.0005
1925.00,-0.0005
1924.00,-0.0005
1923.00,-0.0005
1922.00,-0.0004
1921.00,-0.0003
1920.00,-0.0002
1919.00,-0.0001
1918.00,-0.0000
1917.00,-0.0000
1916.00,0.0000
1915.00,-0.0000
1914.00,-0.0001
1913.00,-0.0001
1912.00,-0.0001
1911.00,-0.0002
1910.00,-0.0002
1909.00,-0.0002
1908.00,-0.0003
1907.00,-0.0003
1906.00,-0.0004
1905.00,-0.0003
1904.00,-0.0002
1903.00,-0.0000
1902.00,-0.0000
1901.00,0.0000
1900.00,0.0000
1899.00,0.0001
1898.00,0.0002
1897.00,0.0002
1896.00,0.0003
1895.00,0.0003
1894.00,0.0003
1893.00,0.0003
1892.00,0.0003
1891.00,0.0003
1890.00,0.0003
1889.00,0.0003
1888.00,0.0002
1887.00,0.0002
1886.00,0.0001
1885.00,0.0001
1884.00,0.0001
1883.00,0.0001
1882.00,0.0000
1881.00,0.0001
1880.00,0.0002
1879.00,0.0003
1878.00,0.0004
1877.00,0.0004
1876.00,0.0003
1875.00,0.0002
1874.00,0.0002
1873.00,0.0002
1872.00,0.0002
1871.00,0.0002
1870.00,0.0002
1869.00,0.0002
1868.00,0.0002
1867.00,0.0001
1866.00,0.0000
1865.00,-0.0000
1864.00,-0.0000
1863.00,0.0000
1862.00,-0.0000
1861.00,-0.0000
1860.00,-0.0000
1859.00,-0.0000
1858.00,0.0001
1857.00,0.0002
1856.00,0.0003
1855.00,0.0003
1854.00,0.0002
1853.00,0.0002
1852.00,0.0002
1851.00,0.0002
1850.00,0.0003
1849.00,0.0003
1848.00,0.0003
1847.00,0.0002
1846.00,0.0001
1845.00,0.0001
1844.00,0.0002
1843.00,0.0003
1842.00,0.0004
1841.00,0.0004
1840.00,0.0005
1839.00,0.0005
1838.00,0.0005
1837.00,0.0005
1836.00,0.0005
1835.00,0.0004
1834.00,0.0005
1833.00,0.0005
1832.00,0.0006
1831.00,0.0006
1830.00,0.0006
1829.00,0.0006
1828.00,0.0006
1827.00,0.0006
1826.00,0.0006
1825.00,0.0006
1824.00,0.0007
1823.00,0.0007
1822.00,0.0007
1821.00,0.0006
1820.00,0.0005
1819.00,0.0004
1818.00,0.0003
1817.00,0.0003
1816.00,0.0003
1815.00,0.0003
1814.00,0.0003
1813.00,0.0003
1812.00,0.0003
1811.00,0.0003
1810.00,0.0004
1809.00,0.0005
1808.00,0.0006
1807.00,0.0006
1806.00,0.0006
1805.00,0.0005
1804.00,0.0005
1803.00,0.0005
1802.00,0.0004
1801.00,0.0005
1800.00,0.0006
1799.00,0.0006
1798.00,0.0006
1797.00,0.0006
1796.00,0.0006
1795.00,0.0006
1794.00,0.0006
1793.00,0.0006
1792.00,0.0007
1791.00,0.0008
1790.00,0.0008
1789.00,0.0008
1788.00,0.0009
1787.00,0.0009
1786.00,0.0008
1785.00,0.0008
1784.00,0.0008
1783.00,0.0008
1782.00,0.0008
1781.00,0.0009
1780.00,0.0009
1779.00,0.0009
1778.00,0.0009
1777.00,0.0009
1776.00,0.0008
1775.00,0.0008
1774.00,0.0007
1773.00,0.0008
1772.00,0.0008
1771.00,0.0009
1770.00,0.0010
1769.00,0.0010
1768.00,0.0011
1767.00,0.0011
1766.00,0.0012
1765.00,0.0012
1764.00,0.0012
1763.00,0.0013
1762.00,0.0013
1761.00,0.0014
1760.00,0.0016
1759.00,0.0017
1758.00,0.0017
1757.00,0.0019
1756.00,0.0020
1755.00,0.0021
1754.00,0.0022
1753.00,0.0024
1752.00,0.0025
1751.00,0.0027
1750.00,0.0029
1749.00,0.0031
1748.00,0.0033
1747.00,0.0034
1746.00,0.0035
1745.00,0.0035
1744.00,0.0034
1743.00,0.0034
1742.00,0.0035
1741.00,0.0035
1740.00,0.0035
1739.00,0.0035
1738.00,0.0034
1737.00,0.0033
1736.00,0.0032
1735.00,0.0032
1734.00,0.0032
1733.00,0.0032
1732.00,0.0033
1731.00,0.0032
1730.00,0.0032
1729.00,0.0031
1728.00,0.0031
1727.00,0.0030
1726.00,0.0030
1725.00,0.0029
1724.00,0.0029
1723.00,0.0029
1722.00,0.0029
1721.00,0.0029
1720.00,0.0028
1719.00,0.0028
1718.00,0.0027
1717.00,0.0027
1716.00,0.0029
1715.00,0.0030
1714.00,0.0031
1713.00,0.0031
1712.00,0.0032
1711.00,0.0032
1710.00,0.0031
1709.00,0.0031
1708.00,0.0031
1707.00,0.0032
1706.00,0.0033
1705.00,0.0035
1704.00,0.0036
1703.00,0.0037
1702.00,0.0037
1701.00,0.0039
1700.00,0.0040
1699.00,0.0040
1698.00,0.0040
1697.00,0.0040
1696.00,0.0042
1695.00,0.0045
1694.00,0.0046
1693.00,0.0047
1692.00,0.0048
1691.00,0.0050
1690.00,0.0051
1689.00,0.0052
1688.00,0.0052
1687.00,0.0052
1686.00,0.0052
1685.00,0.0054
1684.00,0.0058
1683.00,0.0060
1682.00,0.0062
1681.00,0.0062
1680.00,0.0063
1679.00,0.0063
1678.00,0.0064
1677.00,0.0065
1676.00,0.0066
1675.00,0.0068
1674.00,0.0070
1673.00,0.0071
1672.00,0.0072
1671.00,0.0073
1670.00,0.0075
1669.00,0.0076
1668.00,0.0078
1667.00,0.0078
1666.00,0.0079
1665.00,0.0079
1664.00,0.0080
1663.00,0.0081
1662.00,0.0082
1661.00,0.0083
1660.00,0.0083
1659.00,0.0084
1658.00,0.0084
1657.00,0.0085
1656.00,0.0085
1655.00,0.0086
1654.00,0.0086
1653.00,0.0086
1652.00,0.0086
1651.00,0.0087
1650.00,0.0087
1649.00,0.0086
1648.00,0.0085
1647.00,0.0084
1646.00,0.0083
1645.00,0.0083
1644.00,0.0083
1643.00,0.0083
1642.00,0.0082
1641.00,0.0082
1640.00,0.0082
1639.00,0.0081
1638.00,0.0080
1637.00,0.0079
1636.00,0.0078
1635.00,0.0078
1634.00,0.0077
1633.00,0.0077
1632.00,0.0077
1631.00,0.0076
1630.00,0.0076
1629.00,0.0075
1628.00,0.0074
1627.00,0.0072
1626.00,0.0071
1625.00,0.0071
1624.00,0.0070
1623.00,0.0069
1622.00,0.0068
1621.00,0.0068
1620.00,0.0067
1619.00,0.0065
1618.00,0.0064
1617.00,0.0063
1616.00,0.0063
1615.00,0.0062
1614.00,0.0062
1613.00,0.0062
1612.00,0.0062
1611.00,0.0062
1610.00,0.0062
1609.00,0.0062
1608.00,0.0062
1607.00,0.0061
1606.00,0.0061
1605.00,0.0060
1604.00,0.0060
1603.00,0.0059
1602.00,0.0059
1601.00,0.0060
1600.00,0.0060
1599.00,0.0060
1598.00,0.0060
1597.00,0.0060
1596.00,0.0060
1595.00,0.0061
1594.00,0.0061
1593.00,0.0062
1592.00,0.0062
1591.00,0.0063
1590.00,0.0063
1589.00,0.0063
1588.00,0.0063
1587.00,0.0064
1586.00,0.0064
1585.00,0.0065
1584.00,0.0066
1583.00,0.0067
1582.00,0.0068
1581.00,0.0069
1580.00,0.0070
1579.00,0.0071
1578.00,0.0071
1577.00,0.0071
1576.00,0.0071
1575.00,0.0071
1574.00,0.0070
1573.00,0.0070
1572.00,0.0069
1571.00,0.0069
1570.00,0.0068
1569.00,0.0068
1568.00,0.0068
1567.00,0.0068
1566.00,0.0068
1565.00,0.0069
1564.00,0.0070
1563.00,0.0070
1562.00,0.0070
1561.00,0.0072
1560.00,0.0074
1559.00,0.0073
1558.00,0.0073
1557.00,0.0074
1556.00,0.0074
1555.00,0.0075
1554.00,0.0075
1553.00,0.0077
1552.00,0.0079
1551.00,0.0080
1550.00,0.0081
1549.00,0.0083
1548.00,0.0084
1547.00,0.0086
1546.00,0.0087
1545.00,0.0089
1544.00,0.0090
1543.00,0.0090
1542.00,0.0089
1541.00,0.0087
1540.00,0.0086
1539.00,0.0085
1538.00,0.0084
1537.00,0.0083
1536.00,0.0083
1535.00,0.0082
1534.00,0.0080
1533.00,0.0078
1532.00,0.0077
1531.00,0.0075
1530.00,0.0074
1529.00,0.0074
1528.00,0.0074
1527.00,0.0073
1526.00,0.0072
1525.00,0.0071
1524.00,0.0070
1523.00,0.0069
1522.00,0.0068
1521.00,0.0069
1520.00,0.0071
1519.00,0.0072
1518.00,0.0073
1517.00,0.0073
1516.00,0.0073
1515.00,0.0073
1514.00,0.0072
1513.00,0.0072
1512.00,0.0072
1511.00,0.0073
1510.00,0.0073
1509.00,0.0073
1508.00,0.0073
1507.00,0.0073
1506.00,0.0072
1505.00,0.0072
1504.00,0.0073
1503.00,0.0073
1502.00,0.0073
1501.00,0.0074
1500.00,0.0076
1499.00,0.0077
1498.00,0.0078
1497.00,0.0080
1496.00,0.0083
1495.00,0.0085
1494.00,0.0086
1493.00,0.0089
1492.00,0.0092
1491.00,0.0095
1490.00,0.0098
1489.00,0.0103
1488.00,0.0107
1487.00,0.0111
1486.00,0.0114
1485.00,0.0120
1484.00,0.0126
1483.00,0.0132
1482.00,0.0140
1481.00,0.0151
1480.00,0.0162
1479.00,0.0173
1478.00,0.0187
1477.00,0.0205
1476.00,0.0225
1475.00,0.0248
1474.00,0.0280
1473.00,0.0332
1472.00,0.0400
1471.00,0.0469
1470.00,0.0536
1469.00,0.0605
1468.00,0.0680
1467.00,0.0760
1466.00,0.0851
1465.00,0.0950
1464.00,0.1037
1463.00,0.1101
1462.00,0.1144
1461.00,0.1176
1460.00,0.1199
1459.00,0.1214
1458.00,0.1227
1457.00,0.1236
1456.00,0.1236
1455.00,0.1228
1454.00,0.1216
1453.00,0.1199
1452.00,0.1172
1451.00,0.1133
1450.00,0.1078
1449.00,0.1002
1448.00,0.0906
1447.00,0.0805
1446.00,0.0715
1445.00,0.0638
1444.00,0.0574
1443.00,0.0523
1442.00,0.0486
1441.00,0.0462
1440.00,0.0450
1439.00,0.0447
1438.00,0.0453
1437.00,0.0461
1436.00,0.0455
1435.00,0.0430
1434.00,0.0389
1433.00,0.0340
1432.00,0.0289
1431.00,0.0245
1430.00,0.0212
1429.00,0.0187
1428.00,0.0171
1427.00,0.0160
1426.00,0.0154
1425.00,0.0148
1424.00,0.0142
1423.00,0.0138
1422.00,0.0135
1421.00,0.0132
1420.00,0.0128
1419.00,0.0125
1418.00,0.0122
1417.00,0.0118
1416.00,0.0114
1415.00,0.0111
1414.00,0.0108
1413.00,0.0105
1412.00,0.0101
1411.00,0.0098
1410.00,0.0096
1409.00,0.0092
1408.00,0.0089
1407.00,0.0086
1406.00,0.0083
1405.00,0.0078
1404.00,0.0072
1403.00,0.0068
1402.00,0.0065
1401.00,0.0061
1400.00,0.0057
1399.00,0.0054
1398.00,0.0051
1397.00,0.0048
1396.00,0.0045
1395.00,0.0044
1394.00,0.0047
1393.00,0.0050
1392.00,0.0055
1391.00,0.0064
1390.00,0.0077
1389.00,0.0094
1388.00,0.0118
1387.00,0.0155
1386.00,0.0204
1385.00,0.0265
1384.00,0.0346
1383.00,0.0457
1382.00,0.0606
1381.00,0.0801
1380.00,0.1054
1379.00,0.1360
1378.00,0.1683
1377.00,0.1955
1376.00,0.2099
1375.00,0.2052
1374.00,0.1822
1373.00,0.1506
1372.00,0.1199
1371.00,0.0940
1370.00,0.0733
1369.00,0.0578
1368.00,0.0472
1367.00,0.0409
1366.00,0.0376
1365.00,0.0365
1364.00,0.0371
1363.00,0.0391
1362.00,0.0421
1361.00,0.0451
1360.00,0.0474
1359.00,0.0483
1358.00,0.0471
1357.00,0.0440
1356.00,0.0395
1355.00,0.0345
1354.00,0.0297
1353.00,0.0257
1352.00,0.0224
1351.00,0.0199
1350.00,0.0178
1349.00,0.0162
1348.00,0.0149
1347.00,0.0139
1346.00,0.0131
1345.00,0.0126
1344.00,0.0121
1343.00,0.0118
1342.00,0.0115
1341.00,0.0112
1340.00,0.0111
1339.00,0.0109
1338.00,0.0109
1337.00,0.0108
1336.00,0.0109
1335.00,0.0112
1334.00,0.0116
1333.00,0.0122
1332.00,0.0128
1331.00,0.0133
1330.00,0.0135
1329.00,0.0135
1328.00,0.0131
1327.00,0.0125
1326.00,0.0119
1325.00,0.0112
1324.00,0.0106
1323.00,0.0101
1322.00,0.0097
1321.00,0.0094
1320.00,0.0092
1319.00,0.0090
1318.00,0.0088
1317.00,0.0087
1316.00,0.0086
1315.00,0.0085
1314.00,0.0084
1313.00,0.0084
1312.00,0.0085
1311.00,0.0087
1310.00,0.0090
1309.00,0.0095
1308.00,0.0102
1307.00,0.0110
1306.00,0.0118
1305.00,0.0124
1304.00,0.0127
1303.00,0.0127
1302.00,0.0126
1301.00,0.0125
1300.00,0.0125
1299.00,0.0127
1298.00,0.0129
1297.00,0.0131
1296.00,0.0131
1295.00,0.0129
1294.00,0.0124
1293.00,0.0119
1292.00,0.0112
1291.00,0.0106
1290.00,0.0100
1289.00,0.0095
1288.00,0.0091
1287.00,0.0087
1286.00,0.0084
1285.00,0.0081
1284.00,0.0078
1283.00,0.0076
1282.00,0.0073
1281.00,0.0071
1280.00,0.0069
1279.00,0.0067
1278.00,0.0064
1277.00,0.0061
1276.00,0.0059
1275.00,0.0057
1274.00,0.0054
1273.00,0.0052
1272.00,0.0049
1271.00,0.0047
1270.00,0.0045
1269.00,0.0043
1268.00,0.0042
1267.00,0.0042
1266.00,0.0042
1265.00,0.0043
1264.00,0.0044
1263.00,0.0045
1262.00,0.0047
1261.00,0.0049
1260.00,0.0052
1259.00,0.0056
1258.00,0.0060
1257.00,0.0062
1256.00,0.0062
1255.00,0.0059
1254.00,0.0054
1253.00,0.0047
1252.00,0.0040
1251.00,0.0036
1250.00,0.0034
1249.00,0.0033
1248.00,0.0033
1247.00,0.0034
1246.00,0.0035
1245.00,0.0035
1244.00,0.0036
1243.00,0.0036
1242.00,0.0037
1241.00,0.0037
1240.00,0.0037
1239.00,0.0037
1238.00,0.0038
1237.00,0.0039
1236.00,0.0040
1235.00,0.0042
1234.00,0.0044
1233.00,0.0046
1232.00,0.0049
1231.00,0.0052
1230.00,0.0055
1229.00,0.0058
1228.00,0.0061
1227.00,0.0065
1226.00,0.0069
1225.00,0.0074
1224.00,0.0079
1223.00,0.0085
1222.00,0.0090
1221.00,0.0095
1220.00,0.0099
1219.00,0.0100
1218.00,0.0100
1217.00,0.0099
1216.00,0.0096
1215.00,0.0093
1214.00,0.0090
1213.00,0.0088
1212.00,0.0085
1211.00,0.0083
1210.00,0.0080
1209.00,0.0077
1208.00,0.0075
1207.00,0.0074
1206.00,0.0073
1205.00,0.0073
1204.00,0.0072
1203.00,0.0072
1202.00,0.0071
1201.00,0.0071
1200.00,0.0071
1199.00,0.0070
1198.00,0.0069
1197.00,0.0068
1196.00,0.0068
1195.00,0.0067
1194.00,0.0066
1193.00,0.0064
1192.00,0.0062
1191.00,0.0060
1190.00,0.0059
1189.00,0.0057
1188.00,0.0055
1187.00,0.0053
1186.00,0.0051
1185.00,0.0049
1184.00,0.0046
1183.00,0.0044
1182.00,0.0043
1181.00,0.0042
1180.00,0.0040
1179.00,0.0041
1178.00,0.0043
1177.00,0.0047
1176.00,0.0054
1175.00,0.0063
1174.00,0.0076
1173.00,0.0092
1172.00,0.0110
1171.00,0.0131
1170.00,0.0151
1169.00,0.0168
1168.00,0.0177
1167.00,0.0180
1166.00,0.0175
1165.00,0.0165
1164.00,0.0153
1163.00,0.0140
1162.00,0.0129
1161.00,0.0120
1160.00,0.0111
1159.00,0.0104
1158.00,0.0098
1157.00,0.0093
1156.00,0.0090
1155.00,0.0088
1154.00,0.0087
1153.00,0.0086
1152.00,0.0083
1151.00,0.0079
1150.00,0.0072
1149.00,0.0065
1148.00,0.0057
1147.00,0.0050
1146.00,0.0043
1145.00,0.0038
1144.00,0.0033
1143.00,0.0029
1142.00,0.0025
1141.00,0.0021
1140.00,0.0017
1139.00,0.0014
1138.00,0.0012
1137.00,0.0011
1136.00,0.0012
1135.00,0.0013
1134.00,0.0014
1133.00,0.0015
1132.00,0.0016
1131.00,0.0017
1130.00,0.0018
1129.00,0.0019
1128.00,0.0022
1127.00,0.0024
1126.00,0.0027
1125.00,0.0029
1124.00,0.0032
1123.00,0.0034
1122.00,0.0036
1121.00,0.0038
1120.00,0.0040
1119.00,0.0042
1118.00,0.0044
1117.00,0.0046
1116.00,0.0049
1115.00,0.0051
1114.00,0.0054
1113.00,0.0058
1112.00,0.0061
1111.00,0.0065
1110.00,0.0070
1109.00,0.0076
1108.00,0.0083
1107.00,0.0091
1106.00,0.0099
1105.00,0.0108
1104.00,0.0115
1103.00,0.0119
1102.00,0.0119
1101.00,0.0115
1100.00,0.0107
1099.00,0.0097
1098.00,0.0087
1097.00,0.0077
1096.00,0.0067
1095.00,0.0059
1094.00,0.0053
1093.00,0.0048
1092.00,0.0043
1091.00,0.0039
1090.00,0.0034
1089.00,0.0030
1088.00,0.0027
1087.00,0.0025
1086.00,0.0023
1085.00,0.0022
1084.00,0.0020
1083.00,0.0019
1082.00,0.0017
1081.00,0.0015
1080.00,0.0014
1079.00,0.0012
1078.00,0.0011
1077.00,0.0010
1076.00,0.0009
1075.00,0.0008
1074.00,0.0007
1073.00,0.0007
1072.00,0.0007
1071.00,0.0007
1070.00,0.0008
1069.00,0.0010
1068.00,0.0012
1067.00,0.0016
1066.00,0.0019
1065.00,0.0021
1064.00,0.0024
1063.00,0.0026
1062.00,0.0028
1061.00,0.0030
1060.00,0.0032
1059.00,0.0034
1058.00,0.0037
1057.00,0.0039
1056.00,0.0042
1055.00,0.0045
1054.00,0.0048
1053.00,0.0051
1052.00,0.0054
1051.00,0.0057
1050.00,0.0061
1049.00,0.0065
1048.00,0.0069
1047.00,0.0074
1046.00,0.0078
1045.00,0.0081
1044.00,0.0083
1043.00,0.0083
1042.00,0.0083
1041.00,0.0082
1040.00,0.0082
1039.00,0.0084
1038.00,0.0086
1037.00,0.0087
1036.00,0.0088
1035.00,0.0089
1034.00,0.0089
1033.00,0.0088
1032.00,0.0087
1031.00,0.0086
1030.00,0.0086
1029.00,0.0086
1028.00,0.0087
1027.00,0.0088
1026.00,0.0088
1025.00,0.0089
1024.00,0.0089
1023.00,0.0090
1022.00,0.0090
1021.00,0.0090
1020.00,0.0090
1019.00,0.0091
1018.00,0.0092
1017.00,0.0093
1016.00,0.0094
1015.00,0.0095
1014.00,0.0097
1013.00,0.0100
1012.00,0.0104
1011.00,0.0107
1010.00,0.0109
1009.00,0.0110
1008.00,0.0112
1007.00,0.0115
1006.00,0.0120
1005.00,0.0128
1004.00,0.0140
1003.00,0.0155
1002.00,0.0175
1001.00,0.0199
1000.00,0.0223
999.00,0.0243
998.00,0.0251
997.00,0.0245
996.00,0.0226
995.00,0.0199
994.00,0.0171
993.00,0.0147
992.00,0.0128
991.00,0.0115
990.00,0.0105
989.00,0.0099
988.00,0.0094
987.00,0.0091
986.00,0.0090
985.00,0.0091
984.00,0.0093
983.00,0.0097
982.00,0.0105
981.00,0.0117
980.00,0.0132
979.00,0.0153
978.00,0.0178
977.00,0.0206
976.00,0.0234
975.00,0.0257
974.00,0.0271
973.00,0.0270
972.00,0.0251
971.00,0.0217
970.00,0.0176
969.00,0.0135
968.00,0.0101
967.00,0.0074
966.00,0.0055
965.00,0.0041
964.00,0.0031
963.00,0.0023
962.00,0.0017
961.00,0.0011
960.00,0.0003
959.00,-0.0004
958.00,-0.0010
957.00,-0.0015
956.00,-0.0019
955.00,-0.0021
954.00,-0.0022
953.00,-0.0022
952.00,-0.0020
951.00,-0.0017
950.00,-0.0014
949.00,-0.0011
948.00,-0.0007
947.00,-0.0003
946.00,0.0000
945.00,0.0004
944.00,0.0008
943.00,0.0013
942.00,0.0018
941.00,0.0022
940.00,0.0024
939.00,0.0024
938.00,0.0022
937.00,0.0020
936.00,0.0019
935.00,0.0020
934.00,0.0022
933.00,0.0025
932.00,0.0027
931.00,0.0029
930.00,0.0031
929.00,0.0034
928.00,0.0037
927.00,0.0040
926.00,0.0043
925.00,0.0045
924.00,0.0048
923.00,0.0051
922.00,0.0054
921.00,0.0057
920.00,0.0059
919.00,0.0061
918.00,0.0063
917.00,0.0064
916.00,0.0066
915.00,0.0067
914.00,0.0068
913.00,0.0069
912.00,0.0071
911.00,0.0072
910.00,0.0075
909.00,0.0078
908.00,0.0083
907.00,0.0089
906.00,0.0096
905.00,0.0107
904.00,0.0122
903.00,0.0143
902.00,0.0166
901.00,0.0188
900.00,0.0204
899.00,0.0209
898.00,0.0202
897.00,0.0184
896.00,0.0161
895.00,0.0138
894.00,0.0119
893.00,0.0103
892.00,0.0092
891.00,0.0084
890.00,0.0080
889.00,0.0078
888.00,0.0077
887.00,0.0076
886.00,0.0075
885.00,0.0074
884.00,0.0073
883.00,0.0073
882.00,0.0074
881.00,0.0074
880.00,0.0075
879.00,0.0075
878.00,0.0075
877.00,0.0076
876.00,0.0076
875.00,0.0076
874.00,0.0076
873.00,0.0076
872.00,0.0076
871.00,0.0076
870.00,0.0075
869.00,0.0075
868.00,0.0075
867.00,0.0075
866.00,0.0076
865.00,0.0076
864.00,0.0076
863.00,0.0076
862.00,0.0077
861.00,0.0078
860.00,0.0080
859.00,0.0082
858.00,0.0084
857.00,0.0086
856.00,0.0087
855.00,0.0087
854.00,0.0088
853.00,0.0089
852.00,0.0090
851.00,0.0093
850.00,0.0096
849.00,0.0100
848.00,0.0106
847.00,0.0115
846.00,0.0129
845.00,0.0150
844.00,0.0177
843.00,0.0205
842.00,0.0226
841.00,0.0230
840.00,0.0216
839.00,0.0189
838.00,0.0162
837.00,0.0140
836.00,0.0125
835.00,0.0114
834.00,0.0107
833.00,0.0101
832.00,0.0098
831.00,0.0095
830.00,0.0093
829.00,0.0090
828.00,0.0088
827.00,0.0088
826.00,0.0089
825.00,0.0092
824.00,0.0093
823.00,0.0094
822.00,0.0093
821.00,0.0093
820.00,0.0093
819.00,0.0095
818.00,0.0098
817.00,0.0104
816.00,0.0114
815.00,0.0127
814.00,0.0144
813.00,0.0165
812.00,0.0187
811.00,0.0207
810.00,0.0223
809.00,0.0230
808.00,0.0228
807.00,0.0216
806.00,0.0198
805.00,0.0178
804.00,0.0158
803.00,0.0141
802.00,0.0128
801.00,0.0118
800.00,0.0111
799.00,0.0107
798.00,0.0103
797.00,0.0100
796.00,0.0097
795.00,0.0094
794.00,0.0092
793.00,0.0090
792.00,0.0088
791.00,0.0087
790.00,0.0085
789.00,0.0082
788.00,0.0079
787.00,0.0076
786.00,0.0073
785.00,0.0070
784.00,0.0067
783.00,0.0065
782.00,0.0064
781.00,0.0062
780.00,0.0062
779.00,0.0062
778.00,0.0064
777.00,0.0065
776.00,0.0067
775.00,0.0068
774.00,0.0070
773.00,0.0071
772.00,0.0072
771.00,0.0074
770.00,0.0075
769.00,0.0077
768.00,0.0077
767.00,0.0078
766.00,0.0077
765.00,0.0075
764.00,0.0073
763.00,0.0071
762.00,0.0069
761.00,0.0067
760.00,0.0065
759.00,0.0063
758.00,0.0061
757.00,0.0060
756.00,0.0059
755.00,0.0057
754.00,0.0056
753.00,0.0054
752.00,0.0053
751.00,0.0054
750.00,0.0055
749.00,0.0057
748.00,0.0059
747.00,0.0060
746.00,0.0061
745.00,0.0061
744.00,0.0060
743.00,0.0059
742.00,0.0060
741.00,0.0061
740.00,0.0063
739.00,0.0065
738.00,0.0066
737.00,0.0068
736.00,0.0070
735.00,0.0072
734.00,0.0074
733.00,0.0075
732.00,0.0075
731.00,0.0074
730.00,0.0073
729.00,0.0072
728.00,0.0072
727.00,0.0073
726.00,0.0073
725.00,0.0072
724.00,0.0069
723.00,0.0066
722.00,0.0064
721.00,0.0063
720.00,0.0062
719.00,0.0062
718.00,0.0062
717.00,0.0063
716.00,0.0063
715.00,0.0063
714.00,0.0063
713.00,0.0062
712.00,0.0060
711.00,0.0058
710.00,0.0057
709.00,0.0056
708.00,0.0056
707.00,0.0057
706.00,0.0059
705.00,0.0060
704.00,0.0060
703.00,0.0059
702.00,0.0058
701.00,0.0058
700.00,0.0058
699.00,0.0058
698.00,0.0057
697.00,0.0056
696.00,0.0055
695.00,0.0055
694.00,0.0056
693.00,0.0058
692.00,0.0057
691.00,0.0056
690.00,0.0054
689.00,0.0054
688.00,0.0056
687.00,0.0058
686.00,0.0060
685.00,0.0060
684.00,0.0058
683.00,0.0055
682.00,0.0052
681.00,0.0050
680.00,0.0050
679.00,0.0052
678.00,0.0054
677.00,0.0057
676.00,0.0058
675.00,0.0058
674.00,0.0058
673.00,0.0058
672.00,0.0057
671.00,0.0057
670.00,0.0057
669.00,0.0056
668.00,0.0055
667.00,0.0056
666.00,0.0056
665.00,0.0055
664.00,0.0054
663.00,0.0054
662.00,0.0056
661.00,0.0058
660.00,0.0059
659.00,0.0059
658.00,0.0058
657.00,0.0056
656.00,0.0055
655.00,0.0052
654.00,0.0051
653.00,0.0051
652.00,0.0052
651.00,0.0053
650.00,0.0054
649.00,0.0054
648.00,0.0054
647.00,0.0054
646.00,0.0054
645.00,0.0055
644.00,0.0055
643.00,0.0054
642.00,0.0053
641.00,0.0051
640.00,0.0051
639.00,0.0051
638.00,0.0052
637.00,0.0053
636.00,0.0055
635.00,0.0056
634.00,0.0057
633.00,0.0059
632.00,0.0060
631.00,0.0061
630.00,0.0059
629.00,0.0056
628.00,0.0054
627.00,0.0053
626.00,0.0053
625.00,0.0055
624.00,0.0057
623.00,0.0058
622.00,0.0059
621.00,0.0059
620.00,0.0057
619.00,0.0054
618.00,0.0053
617.00,0.0053
616.00,0.0054
615.00,0.0056
614.00,0.0058
613.00,0.0060
612.00,0.0062
611.00,0.0064
610.00,0.0065
609.00,0.0066
608.00,0.0065
607.00,0.0063
606.00,0.0062
605.00,0.0060
604.00,0.0057
603.00,0.0054
602.00,0.0052
601.00,0.0053
600.00,0.0057
599.00,0.0060
598.00,0.0061
597.00,0.0061
596.00,0.0061
595.00,0.0061
594.00,0.0061
593.00,0.0060
592.00,0.0057
591.00,0.0055
590.00,0.0055
589.00,0.0057
588.00,0.0059
587.00,0.0061
586.00,0.0061
585.00,0.0060
584.00,0.0059
583.00,0.0059
582.00,0.0061
581.00,0.0065
580.00,0.0068
579.00,0.0068
578.00,0.0067
577.00,0.0065
576.00,0.0065
575.00,0.0066
574.00,0.0068
573.00,0.0069
572.00,0.0070
571.00,0.0070
570.00,0.0068
569.00,0.0067
568.00,0.0066
567.00,0.0066
566.00,0.0067
565.00,0.0067
564.00,0.0067
563.00,0.0067
562.00,0.0067
561.00,0.0068
560.00,0.0069
559.00,0.0069
558.00,0.0069
557.00,0.0069
556.00,0.0068
555.00,0.0066
554.00,0.0065
553.00,0.0065
552.00,0.0067
551.00,0.0070
550.00,0.0071
549.00,0.0070
548.00,0.0069
547.00,0.0068
546.00,0.0068
545.00,0.0069
544.00,0.0070
543.00,0.0070
542.00,0.0071
541.00,0.0072
540.00,0.0074
539.00,0.0077
538.00,0.0079
537.00,0.0078
536.00,0.0075
535.00,0.0074
534.00,0.0076
533.00,0.0080
532.00,0.0083
531.00,0.0085
530.00,0.0087
529.00,0.0088
528.00,0.0091
527.00,0.0093
526.00,0.0094
525.00,0.0092
524.00,0.0090
523.00,0.0086
522.00,0.0081
521.00,0.0076
520.00,0.0073
519.00,0.0072
518.00,0.0071
517.00,0.0066
516.00,0.0059
515.00,0.0055
514.00,0.0057
513.00,0.0061
512.00,0.0065
511.00,0.0067
510.00,0.0067
509.00,0.0068
508.00,0.0068
507.00,0.0067
506.00,0.0065
505.00,0.0063
504.00,0.0063
503.00,0.0066
502.00,0.0068
501.00,0.0069
500.00,0.0066
499.00,0.0063
498.00,0.0062
497.00,0.0066
496.00,0.0073
495.00,0.0079
494.00,0.0083
493.00,0.0081
492.00,0.0077
491.00,0.0072
490.00,0.0070
489.00,0.0070
488.00,0.0069
487.00,0.0066
486.00,0.0065
485.00,0.0067
484.00,0.0068
483.00,0.0067
482.00,0.0063
481.00,0.0059
480.00,0.0056
479.00,0.0058
478.00,0.0066
477.00,0.0075
476.00,0.0082
475.00,0.0082
474.00,0.0077
473.00,0.0071
472.00,0.0067
471.00,0.0067
470.00,0.0069
469.00,0.0073
468.00,0.0078
467.00,0.0085
466.00,0.0092
465.00,0.0101
464.00,0.0113
463.00,0.0127
462.00,0.0140
461.00,0.0150
460.00,0.0157
459.00,0.0161
458.00,0.0157
457.00,0.0146
456.00,0.0129
455.00,0.0112
454.00,0.0100
453.00,0.0098
452.00,0.0104
451.00,0.0107
450.00,0.0100
