Created as New Dataset,Sample 030 By Administrator Date Friday, September 05 2025
cm-1,A
4000.00,0.0009
3999.00,0.0009
3998.00,0.0009
3997.00,0.0009
3996.00,0.0009
3995.00,0.0009
3994.00,0.0009
3993.00,0.0009
3992.00,0.0009
3991.00,0.0009
3990.00,0.0009
3989.00,0.0009
3988.00,0.0009
3987.00,0.0008
3986.00,0.0008
3985.00,0.0008
3984.00,0.0007
3983.00,0.0007
3982.00,0.0007
3981.00,0.0008
3980.00,0.0008
3979.00,0.0008
3978.00,0.0008
3977.00,0.0007
3976.00,0.0007
3975.00,0.0007
3974.00,0.0007
3973.00,0.0006
3972.00,0.0006
3971.00,0.0006
3970.00,0.0006
3969.00,0.0006
3968.00,0.0006
3967.00,0.0006
3966.00,0.0007
3965.00,0.0007
3964.00,0.0007
3963.00,0.0007
3962.00,0.0007
3961.00,0.0007
3960.00,0.0007
3959.00,0.0007
3958.00,0.0007
3957.00,0.0007
3956.00,0.0007
3955.00,0.0007
3954.00,0.0006
3953.00,0.0006
3952.00,0.0006
3951.00,0.0007
3950.00,0.0007
3949.00,0.0007
3948.00,0.0006
3947.00,0.0006
3946.00,0.0006
3945.00,0.0007
3944.00,0.0007
3943.00,0.0007
3942.00,0.0007
3941.00,0.0007
3940.00,0.0007
3939.00,0.0006
3938.00,0.0006
3937.00,0.0006
3936.00,0.0006
3935.00,0.0006
3934.00,0.0006
3933.00,0.0006
3932.00,0.0006
3931.00,0.0006
3930.00,0.0007
3929.00,0.0007
3928.00,0.0007
3927.00,0.0007
3926.00,0.0007
3925.00,0.0007
3924.00,0.0007
3923.00,0.0007
3922.00,0.0007
3921.00,0.0007
3920.00,0.0008
3919.00,0.0008
3918.00,0.0007
3917.00,0.0007
3916.00,0.0007
3915.00,0.0006
3914.00,0.0007
3913.00,0.0007
3912.00,0.0007
3911.00,0.0008
3910.00,0.0008
3909.00,0.0008
3908.00,0.0008
3907.00,0.0008
3906.00,0.0007
3905.00,0.0007
3904.00,0.0007
3903.00,0.0006
3902.00,0.0006
3901.00,0.0006
3900.00,0.0006
3899.00,0.0006
3898.00,0.0006
3897.00,0.0006
3896.00,0.0006
3895.00,0.0006
3894.00,0.0007
3893.00,0.0007
3892.00,0.0007
3891.00,0.0006
3890.00,0.0006
3889.00,0.0006
3888.00,0.0006
3887.00,0.0006
3886.00,0.0006
3885.00,0.0006
3884.00,0.0006
3883.00,0.0006
3882.00,0.0006
3881.00,0.0006
3880.00,0.0006
3879.00,0.0006
3878.00,0.0006
3877.00,0.0006
3876.00,0.0006
3875.00,0.0006
3874.00,0.0006
3873.00,0.0007
3872.00,0.0007
3871.00,0.0007
3870.00,0.0007
3869.00,0.0007
3868.00,0.0007
3867.00,0.0006
3866.00,0.0006
3865.00,0.0006
3864.00,0.0006
3863.00,0.0006
3862.00,0.0006
3861.00,0.0006
3860.00,0.0006
3859.00,0.0006
3858.00,0.0006
3857.00,0.0007
3856.00,0.0007
3855.00,0.0007
3854.00,0.0007
3853.00,0.0006
3852.00,0.0006
3851.00,0.0006
3850.00,0.0006
3849.00,0.0005
3848.00,0.0006
3847.00,0.0006
3846.00,0.0005
3845.00,0.0005
3844.00,0.0005
3843.00,0.0005
3842.00,0.0006
3841.00,0.0006
3840.00,0.0006
3839.00,0.0006
3838.00,0.0006
3837.00,0.0006
3836.00,0.0006
3835.00,0.0005
3834.00,0.0005
3833.00,0.0005
3832.00,0.0005
3831.00,0.0005
3830.00,0.0005
3829.00,0.0005
3828.00,0.0004
3827.00,0.0004
3826.00,0.0004
3825.00,0.0004
3824.00,0.0004
3823.00,0.0005
3822.00,0.0005
3821.00,0.0006
3820.00,0.0006
3819.00,0.0006
3818.00,0.0006
3817.00,0.0006
3816.00,0.0006
3815.00,0.0007
3814.00,0.0007
3813.00,0.0007
3812.00,0.0007
3811.00,0.0007
3810.00,0.0007
3809.00,0.0007
3808.00,0.0007
3807.00,0.0007
3806.00,0.0006
3805.00,0.0006
3804.00,0.0006
3803.00,0.0006
3802.00,0.0006
3801.00,0.0006
3800.00,0.0006
3799.00,0.0006
3798.00,0.0006
3797.00,0.0006
3796.00,0.0006
3795.00,0.0006
3794.00,0.0006
3793.00,0.0006
3792.00,0.0006
3791.00,0.0006
3790.00,0.0006
3789.00,0.0006
3788.00,0.0006
3787.00,0.0006
3786.00,0.0006
3785.00,0.0006
3784.00,0.0007
3783.00,0.0007
3782.00,0.0007
3781.00,0.0007
3780.00,0.0007
3779.00,0.0007
3778.00,0.0007
3777.00,0.0007
3776.00,0.0007
3775.00,0.0007
3774.00,0.0007
3773.00,0.0006
3772.00,0.0006
3771.00,0.0006
3770.00,0.0006
3769.00,0.0006
3768.00,0.0007
3767.00,0.0007
3766.00,0.0008
3765.00,0.0008
3764.00,0.0008
3763.00,0.0007
3762.00,0.0007
3761.00,0.0006
3760.00,0.0006
3759.00,0.0006
3758.00,0.0006
3757.00,0.0007
3756.00,0.0007
3755.00,0.0007
3754.00,0.0006
3753.00,0.0007
3752.00,0.0007
3751.00,0.0007
3750.00,0.0008
3749.00,0.0008
3748.00,0.0008
3747.00,0.0007
3746.00,0.0007
3745.00,0.0007
3744.00,0.0006
3743.00,0.0006
3742.00,0.0005
3741.00,0.0004
3740.00,0.0004
3739.00,0.0004
3738.00,0.0004
3737.00,0.0003
3736.00,0.0003
3735.00,0.0004
3734.00,0.0005
3733.00,0.0005
3732.00,0.0005
3731.00,0.0005
3730.00,0.0005
3729.00,0.0005
3728.00,0.0005
3727.00,0.0005
3726.00,0.0004
3725.00,0.0004
3724.00,0.0004
3723.00,0.0004
3722.00,0.0003
3721.00,0.0003
3720.00,0.0003
3719.00,0.0003
3718.00,0.0003
3717.00,0.0003
3716.00,0.0003
3715.00,0.0003
3714.00,0.0003
3713.00,0.0003
3712.00,0.0004
3711.00,0.0004
3710.00,0.0004
3709.00,0.0004
3708.00,0.0004
3707.00,0.0004
3706.00,0.0005
3705.00,0.0005
3704.00,0.0005
3703.00,0.0005
3702.00,0.0005
3701.00,0.0005
3700.00,0.0005
3699.00,0.0004
3698.00,0.0004
3697.00,0.0005
3696.00,0.0005
3695.00,0.0005
3694.00,0.0005
3693.00,0.0005
3692.00,0.0005
3691.00,0.0004
3690.00,0.0004
3689.00,0.0004
3688.00,0.0004
3687.00,0.0004
3686.00,0.0004
3685.00,0.0004
3684.00,0.0004
3683.00,0.0004
3682.00,0.0004
3681.00,0.0004
3680.00,0.0004
3679.00,0.0004
3678.00,0.0004
3677.00,0.0003
3676.00,0.0003
3675.00,0.0002
3674.00,0.0002
3673.00,0.0001
3672.00,0.0000
3671.00,-0.0000
3670.00,-0.0000
3669.00,-0.0000
3668.00,0.0000
3667.00,0.0000
3666.00,0.0000
3665.00,0.0001
3664.00,0.0001
3663.00,0.0001
3662.00,0.0000
3661.00,0.0000
3660.00,0.0000
3659.00,0.0000
3658.00,0.0000
3657.00,0.0001
3656.00,0.0001
3655.00,0.0001
3654.00,0.0001
3653.00,0.0000
3652.00,-0.0000
3651.00,-0.0001
3650.00,-0.0000
3649.00,0.0000
3648.00,0.0001
3647.00,0.0001
3646.00,0.0001
3645.00,0.0001
3644.00,0.0001
3643.00,0.0001
3642.00,0.0001
3641.00,0.0002
3640.00,0.0002
3639.00,0.0002
3638.00,0.0002
3637.00,0.0002
3636.00,0.0002
3635.00,0.0002
3634.00,0.0003
3633.00,0.0003
3632.00,0.0004
3631.00,0.0004
3630.00,0.0005
3629.00,0.0005
3628.00,0.0004
3627.00,0.0004
3626.00,0.0004
3625.00,0.0004
3624.00,0.0004
3623.00,0.0004
3622.00,0.0003
3621.00,0.0003
3620.00,0.0003
3619.00,0.0003
3618.00,0.0003
3617.00,0.0004
3616.00,0.0005
3615.00,0.0005
3614.00,0.0006
3613.00,0.0007
3612.00,0.0007
3611.00,0.0007
3610.00,0.0007
3609.00,0.0007
3608.00,0.0007
3607.00,0.0007
3606.00,0.0007
3605.00,0.0007
3604.00,0.0007
3603.00,0.0008
3602.00,0.0008
3601.00,0.0008
3600.00,0.0008
3599.00,0.0008
3598.00,0.0008
3597.00,0.0008
3596.00,0.0009
3595.00,0.0009
3594.00,0.0009
3593.00,0.0009
3592.00,0.0010
3591.00,0.0009
3590.00,0.0009
3589.00,0.0009
3588.00,0.0010
3587.00,0.0011
3586.00,0.0011
3585.00,0.0012
3584.00,0.0012
3583.00,0.0011
3582.00,0.0011
3581.00,0.0011
3580.00,0.0011
3579.00,0.0010
3578.00,0.0010
3577.00,0.0010
3576.00,0.0011
3575.00,0.0011
3574.00,0.0012
3573.00,0.0012
3572.00,0.0013
3571.00,0.0013
3570.00,0.0013
3569.00,0.0013
3568.00,0.0013
3567.00,0.0014
3566.00,0.0014
3565.00,0.0014
3564.00,0.0014
3563.00,0.0014
3562.00,0.0014
3561.00,0.0014
3560.00,0.0015
3559.00,0.0015
3558.00,0.0015
3557.00,0.0015
3556.00,0.0015
3555.00,0.0015
3554.00,0.0016
3553.00,0.0016
3552.00,0.0016
3551.00,0.0016
3550.00,0.0016
3549.00,0.0016
3548.00,0.0017
3547.00,0.0017
3546.00,0.0017
3545.00,0.0017
3544.00,0.0018
3543.00,0.0018
3542.00,0.0018
3541.00,0.0018
3540.00,0.0018
3539.00,0.0018
3538.00,0.0018
3537.00,0.0019
3536.00,0.0019
3535.00,0.0019
3534.00,0.0019
3533.00,0.0019
3532.00,0.0019
3531.00,0.0018
3530.00,0.0018
3529.00,0.0018
3528.00,0.0018
3527.00,0.0019
3526.00,0.0020
3525.00,0.0020
3524.00,0.0021
3523.00,0.0021
3522.00,0.0021
3521.00,0.0021
3520.00,0.0021
3519.00,0.0021
3518.00,0.0021
3517.00,0.0021
3516.00,0.0021
3515.00,0.0021
3514.00,0.0021
3513.00,0.0022
3512.00,0.0022
3511.00,0.0021
3510.00,0.0021
3509.00,0.0022
3508.00,0.0022
3507.00,0.0022
3506.00,0.0022
3505.00,0.0022
3504.00,0.0022
3503.00,0.0023
3502.00,0.0024
3501.00,0.0024
3500.00,0.0024
3499.00,0.0023
3498.00,0.0023
3497.00,0.0023
3496.00,0.0023
3495.00,0.0024
3494.00,0.0024
3493.00,0.0024
3492.00,0.0024
3491.00,0.0024
3490.00,0.0025
3489.00,0.0025
3488.00,0.0025
3487.00,0.0025
3486.00,0.0025
3485.00,0.0025
3484.00,0.0025
3483.00,0.0024
3482.00,0.0024
3481.00,0.0024
3480.00,0.0025
3479.00,0.0025
3478.00,0.0026
3477.00,0.0026
3476.00,0.0027
3475.00,0.0027
3474.00,0.0027
3473.00,0.0027
3472.00,0.0027
3471.00,0.0027
3470.00,0.0027
3469.00,0.0028
3468.00,0.0028
3467.00,0.0028
3466.00,0.0028
3465.00,0.0028
3464.00,0.0028
3463.00,0.0029
3462.00,0.0029
3461.00,0.0029
3460.00,0.0029
3459.00,0.0029
3458.00,0.0029
3457.00,0.0029
3456.00,0.0029
3455.00,0.0029
3454.00,0.0030
3453.00,0.0030
3452.00,0.0031
3451.00,0.0031
3450.00,0.0031
3449.00,0.0030
3448.00,0.0030
3447.00,0.0030
3446.00,0.0031
3445.00,0.0031
3444.00,0.0031
3443.00,0.0031
3442.00,0.0031
3441.00,0.0032
3440.00,0.0032
3439.00,0.0033
3438.00,0.0033
3437.00,0.0033
3436.00,0.0033
3435.00,0.0033
3434.00,0.0033
3433.00,0.0033
3432.00,0.0033
3431.00,0.0033
3430.00,0.0034
3429.00,0.0035
3428.00,0.0035
3427.00,0.0035
3426.00,0.0036
3425.00,0.0036
3424.00,0.0036
3423.00,0.0036
3422.00,0.0036
3421.00,0.0036
3420.00,0.0036
3419.00,0.0036
3418.00,0.0036
3417.00,0.0036
3416.00,0.0036
3415.00,0.0036
3414.00,0.0037
3413.00,0.0037
3412.00,0.0037
3411.00,0.0037
3410.00,0.0037
3409.00,0.0038
3408.00,0.0038
3407.00,0.0038
3406.00,0.0039
3405.00,0.0039
3404.00,0.0039
3403.00,0.0040
3402.00,0.0040
3401.00,0.0041
3400.00,0.0041
3399.00,0.0041
3398.00,0.0041
3397.00,0.0041
3396.00,0.0041
3395.00,0.0041
3394.00,0.0041
3393.00,0.0041
3392.00,0.0041
3391.00,0.0041
3390.00,0.0041
3389.00,0.0040
3388.00,0.0040
3387.00,0.0040
3386.00,0.0040
3385.00,0.0041
3384.00,0.0041
3383.00,0.0041
3382.00,0.0041
3381.00,0.0040
3380.00,0.0040
3379.00,0.0039
3378.00,0.0039
3377.00,0.0039
3376.00,0.0039
3375.00,0.0039
3374.00,0.0039
3373.00,0.0039
3372.00,0.0040
3371.00,0.0040
3370.00,0.0040
3369.00,0.0040
3368.00,0.0040
3367.00,0.0039
3366.00,0.0039
3365.00,0.0039
3364.00,0.0040
3363.00,0.0040
3362.00,0.0040
3361.00,0.0040
3360.00,0.0040
3359.00,0.0040
3358.00,0.0040
3357.00,0.0040
3356.00,0.0040
3355.00,0.0040
3354.00,0.0040
3353.00,0.0040
3352.00,0.0041
3351.00,0.0041
3350.00,0.0041
3349.00,0.0041
3348.00,0.0041
3347.00,0.0041
3346.00,0.0041
3345.00,0.0041
3344.00,0.0041
3343.00,0.0040
3342.00,0.0040
3341.00,0.0039
3340.00,0.0040
3339.00,0.0040
3338.00,0.0040
3337.00,0.0040
3336.00,0.0040
3335.00,0.0040
3334.00,0.0040
3333.00,0.0040
3332.00,0.0040
3331.00,0.0040
3330.00,0.0040
3329.00,0.0040
3328.00,0.0040
3327.00,0.0039
3326.00,0.0039
3325.00,0.0039
3324.00,0.0039
3323.00,0.0039
3322.00,0.0039
3321.00,0.0040
3320.00,0.0040
3319.00,0.0040
3318.00,0.0040
3317.00,0.0040
3316.00,0.0039
3315.00,0.0039
3314.00,0.0039
3313.00,0.0039
3312.00,0.0039
3311.00,0.0039
3310.00,0.0039
3309.00,0.0040
3308.00,0.0040
3307.00,0.0040
3306.00,0.0040
3305.00,0.0040
3304.00,0.0040
3303.00,0.0040
3302.00,0.0040
3301.00,0.0040
3300.00,0.0041
3299.00,0.0041
3298.00,0.0041
3297.00,0.0041
3296.00,0.0040
3295.00,0.0040
3294.00,0.0039
3293.00,0.0039
3292.00,0.0039
3291.00,0.0040
3290.00,0.0040
3289.00,0.0040
3288.00,0.0039
3287.00,0.0039
3286.00,0.0039
3285.00,0.0039
3284.00,0.0039
3283.00,0.0039
3282.00,0.0039
3281.00,0.0039
3280.00,0.0039
3279.00,0.0039
3278.00,0.0039
3277.00,0.0039
3276.00,0.0039
3275.00,0.0039
3274.00,0.0039
3273.00,0.0039
3272.00,0.0039
3271.00,0.0039
3270.00,0.0039
3269.00,0.0039
3268.00,0.0039
3267.00,0.0039
3266.00,0.0038
3265.00,0.0038
3264.00,0.0038
3263.00,0.0037
3262.00,0.0037
3261.00,0.0036
3260.00,0.0036
3259.00,0.0036
3258.00,0.0036
3257.00,0.0036
3256.00,0.0036
3255.00,0.0036
3254.00,0.0036
3253.00,0.0036
3252.00,0.0036
3251.00,0.0036
3250.00,0.0036
3249.00,0.0036
3248.00,0.0036
3247.00,0.0036
3246.00,0.0035
3245.00,0.0035
3244.00,0.0035
3243.00,0.0035
3242.00,0.0035
3241.00,0.0035
3240.00,0.0036
3239.00,0.0036
3238.00,0.0037
3237.00,0.0037
3236.00,0.0037
3235.00,0.0036
3234.00,0.0036
3233.00,0.0036
3232.00,0.0036
3231.00,0.0036
3230.00,0.0036
3229.00,0.0036
3228.00,0.0037
3227.00,0.0037
3226.00,0.0038
3225.00,0.0037
3224.00,0.0037
3223.00,0.0037
3222.00,0.0037
3221.00,0.0037
3220.00,0.0038
3219.00,0.0038
3218.00,0.0039
3217.00,0.0039
3216.00,0.0039
3215.00,0.0039
3214.00,0.0040
3213.00,0.0040
3212.00,0.0040
3211.00,0.0041
3210.00,0.0041
3209.00,0.0041
3208.00,0.0041
3207.00,0.0041
3206.00,0.0041
3205.00,0.0040
3204.00,0.0040
3203.00,0.0040
3202.00,0.0039
3201.00,0.0039
3200.00,0.0040
3199.00,0.0040
3198.00,0.0041
3197.00,0.0042
3196.00,0.0042
3195.00,0.0043
3194.00,0.0043
3193.00,0.0043
3192.00,0.0042
3191.00,0.0042
3190.00,0.0042
3189.00,0.0041
3188.00,0.0041
3187.00,0.0041
3186.00,0.0041
3185.00,0.0040
3184.00,0.0040
3183.00,0.0039
3182.00,0.0039
3181.00,0.0039
3180.00,0.0039
3179.00,0.0039
3178.00,0.0039
3177.00,0.0038
3176.00,0.0038
3175.00,0.0038
3174.00,0.0038
3173.00,0.0038
3172.00,0.0038
3171.00,0.0037
3170.00,0.0037
3169.00,0.0037
3168.00,0.0037
3167.00,0.0037
3166.00,0.0037
3165.00,0.0037
3164.00,0.0037
3163.00,0.0036
3162.00,0.0036
3161.00,0.0036
3160.00,0.0036
3159.00,0.0035
3158.00,0.0035
3157.00,0.0036
3156.00,0.0036
3155.00,0.0036
3154.00,0.0036
3153.00,0.0035
3152.00,0.0035
3151.00,0.0034
3150.00,0.0035
3149.00,0.0035
3148.00,0.0035
3147.00,0.0035
3146.00,0.0035
3145.00,0.0035
3144.00,0.0035
3143.00,0.0034
3142.00,0.0034
3141.00,0.0034
3140.00,0.0034
3139.00,0.0034
3138.00,0.0034
3137.00,0.0034
3136.00,0.0034
3135.00,0.0034
3134.00,0.0034
3133.00,0.0034
3132.00,0.0034
3131.00,0.0033
3130.00,0.0033
3129.00,0.0032
3128.00,0.0032
3127.00,0.0031
3126.00,0.0031
3125.00,0.0031
3124.00,0.0030
3123.00,0.0030
3122.00,0.0030
3121.00,0.0030
3120.00,0.0030
3119.00,0.0030
3118.00,0.0030
3117.00,0.0029
3116.00,0.0029
3115.00,0.0029
3114.00,0.0029
3113.00,0.0029
3112.00,0.0029
3111.00,0.0029
3110.00,0.0029
3109.00,0.0029
3108.00,0.0029
3107.00,0.0029
3106.00,0.0029
3105.00,0.0029
3104.00,0.0029
3103.00,0.0028
3102.00,0.0028
3101.00,0.0028
3100.00,0.0027
3099.00,0.0027
3098.00,0.0027
3097.00,0.0028
3096.00,0.0028
3095.00,0.0028
3094.00,0.0028
3093.00,0.0028
3092.00,0.0028
3091.00,0.0028
3090.00,0.0028
3089.00,0.0028
3088.00,0.0028
3087.00,0.0028
3086.00,0.0028
3085.00,0.0028
3084.00,0.0028
3083.00,0.0028
3082.00,0.0028
3081.00,0.0028
3080.00,0.0028
3079.00,0.0028
3078.00,0.0028
3077.00,0.0029
3076.00,0.0029
3075.00,0.0029
3074.00,0.0029
3073.00,0.0030
3072.00,0.0030
3071.00,0.0030
3070.00,0.0030
3069.00,0.0030
3068.00,0.0030
3067.00,0.0030
3066.00,0.0031
3065.00,0.0031
3064.00,0.0032
3063.00,0.0032
3062.00,0.0032
3061.00,0.0031
3060.00,0.0031
3059.00,0.0031
3058.00,0.0031
3057.00,0.0031
3056.00,0.0031
3055.00,0.0031
3054.00,0.0031
3053.00,0.0032
3052.00,0.0032
3051.00,0.0032
3050.00,0.0032
3049.00,0.0033
3048.00,0.0033
3047.00,0.0033
3046.00,0.0033
3045.00,0.0033
3044.00,0.0034
3043.00,0.0034
3042.00,0.0034
3041.00,0.0034
3040.00,0.0034
3039.00,0.0035
3038.00,0.0035
3037.00,0.0036
3036.00,0.0036
3035.00,0.0037
3034.00,0.0037
3033.00,0.0037
3032.00,0.0037
3031.00,0.0038
3030.00,0.0038
3029.00,0.0039
3028.00,0.0039
3027.00,0.0039
3026.00,0.0040
3025.00,0.0040
3024.00,0.0040
3023.00,0.0041
3022.00,0.0041
3021.00,0.0042
3020.00,0.0043
3019.00,0.0044
3018.00,0.0045
3017.00,0.0045
3016.00,0.0045
3015.00,0.0045
3014.00,0.0045
3013.00,0.0046
3012.00,0.0047
3011.00,0.0047
3010.00,0.0048
3009.00,0.0049
3008.00,0.0049
3007.00,0.0050
3006.00,0.0050
3005.00,0.0051
3004.00,0.0052
3003.00,0.0053
3002.00,0.0053
3001.00,0.0054
3000.00,0.0055
2999.00,0.0056
2998.00,0.0058
2997.00,0.0060
2996.00,0.0063
2995.00,0.0067
2994.00,0.0071
2993.00,0.0075
2992.00,0.0079
2991.00,0.0085
2990.00,0.0090
2989.00,0.0097
2988.00,0.0104
2987.00,0.0111
2986.00,0.0119
2985.00,0.0126
2984.00,0.0133
2983.00,0.0142
2982.00,0.0155
2981.00,0.0172
2980.00,0.0192
2979.00,0.0216
2978.00,0.0242
2977.00,0.0271
2976.00,0.0303
2975.00,0.0338
2974.00,0.0378
2973.00,0.0423
2972.00,0.0474
2971.00,0.0531
2970.00,0.0594
2969.00,0.0663
2968.00,0.0736
2967.00,0.0813
2966.00,0.0890
2965.00,0.0967
2964.00,0.1040
2963.00,0.1108
2962.00,0.1167
2961.00,0.1218
2960.00,0.1263
2959.00,0.1307
2958.00,0.1353
2957.00,0.1408
2956.00,0.1474
2955.00,0.1553
2954.00,0.1643
2953.00,0.1738
2952.00,0.1830
2951.00,0.1906
2950.00,0.1954
2949.00,0.1963
2948.00,0.1926
2947.00,0.1844
2946.00,0.1728
2945.00,0.1592
2944.00,0.1454
2943.00,0.1328
2942.00,0.1224
2941.00,0.1148
2940.00,0.1099
2939.00,0.1076
2938.00,0.1076
2937.00,0.1097
2936.00,0.1136
2935.00,0.1192
2934.00,0.1264
2933.00,0.1349
2932.00,0.1448
2931.00,0.1556
2930.00,0.1673
2929.00,0.1795
2928.00,0.1918
2927.00,0.2039
2926.00,0.2158
2925.00,0.2273
2924.00,0.2386
2923.00,0.2499
2922.00,0.2612
2921.00,0.2722
2920.00,0.2824
2919.00,0.2907
2918.00,0.2959
2917.00,0.2970
2916.00,0.2934
2915.00,0.2857
2914.00,0.2748
2913.00,0.2621
2912.00,0.2489
2911.00,0.2362
2910.00,0.2244
2909.00,0.2136
2908.00,0.2036
2907.00,0.1943
2906.00,0.1855
2905.00,0.1769
2904.00,0.1686
2903.00,0.1606
2902.00,0.1529
2901.00,0.1455
2900.00,0.1385
2899.00,0.1320
2898.00,0.1261
2897.00,0.1207
2896.00,0.1161
2895.00,0.1122
2894.00,0.1090
2893.00,0.1065
2892.00,0.1048
2891.00,0.1037
2890.00,0.1032
2889.00,0.1033
2888.00,0.1038
2887.00,0.1048
2886.00,0.1061
2885.00,0.1078
2884.00,0.1100
2883.00,0.1128
2882.00,0.1162
2881.00,0.1199
2880.00,0.1237
2879.00,0.1271
2878.00,0.1295
2877.00,0.1308
2876.00,0.1308
2875.00,0.1301
2874.00,0.1293
2873.00,0.1288
2872.00,0.1293
2871.00,0.1306
2870.00,0.1328
2869.00,0.1351
2868.00,0.1369
2867.00,0.1372
2866.00,0.1349
2865.00,0.1297
2864.00,0.1216
2863.00,0.1117
2862.00,0.1011
2861.00,0.0910
2860.00,0.0822
2859.00,0.0750
2858.00,0.0696
2857.00,0.0657
2856.00,0.0631
2855.00,0.0617
2854.00,0.0612
2853.00,0.0615
2852.00,0.0626
2851.00,0.0642
2850.00,0.0664
2849.00,0.0689
2848.00,0.0719
2847.00,0.0754
2846.00,0.0797
2845.00,0.0849
2844.00,0.0910
2843.00,0.0978
2842.00,0.1049
2841.00,0.1117
2840.00,0.1175
2839.00,0.1214
2838.00,0.1225
2837.00,0.1202
2836.00,0.1145
2835.00,0.1058
2834.00,0.0953
2833.00,0.0842
2832.00,0.0735
2831.00,0.0639
2830.00,0.0558
2829.00,0.0492
2828.00,0.0438
2827.00,0.0395
2826.00,0.0360
2825.00,0.0331
2824.00,0.0308
2823.00,0.0288
2822.00,0.0271
2821.00,0.0256
2820.00,0.0244
2819.00,0.0233
2818.00,0.0224
2817.00,0.0216
2816.00,0.0209
2815.00,0.0202
2814.00,0.0197
2813.00,0.0191
2812.00,0.0185
2811.00,0.0179
2810.00,0.0173
2809.00,0.0167
2808.00,0.0161
2807.00,0.0154
2806.00,0.0147
2805.00,0.0140
2804.00,0.0134
2803.00,0.0128
2802.00,0.0122
2801.00,0.0117
2800.00,0.0113
2799.00,0.0110
2798.00,0.0107
2797.00,0.0104
2796.00,0.0102
2795.00,0.0100
2794.00,0.0097
2793.00,0.0094
2792.00,0.0092
2791.00,0.0089
2790.00,0.0086
2789.00,0.0083
2788.00,0.0080
2787.00,0.0078
2786.00,0.0076
2785.00,0.0074
2784.00,0.0072
2783.00,0.0070
2782.00,0.0068
2781.00,0.0066
2780.00,0.0064
2779.00,0.0062
2778.00,0.0061
2777.00,0.0060
2776.00,0.0058
2775.00,0.0057
2774.00,0.0057
2773.00,0.0056
2772.00,0.0056
2771.00,0.0055
2770.00,0.0055
2769.00,0.0055
2768.00,0.0054
2767.00,0.0054
2766.00,0.0054
2765.00,0.0054
2764.00,0.0054
2763.00,0.0053
2762.00,0.0053
2761.00,0.0052
2760.00,0.0052
2759.00,0.0052
2758.00,0.0052
2757.00,0.0052
2756.00,0.0051
2755.00,0.0051
2754.00,0.0051
2753.00,0.0051
2752.00,0.0051
2751.00,0.0051
2750.00,0.0051
2749.00,0.0051
2748.00,0.0051
2747.00,0.0051
2746.00,0.0051
2745.00,0.0052
2744.00,0.0053
2743.00,0.0054
2742.00,0.0055
2741.00,0.0056
2740.00,0.0058
2739.00,0.0060
2738.00,0.0061
2737.00,0.0063
2736.00,0.0064
2735.00,0.0066
2734.00,0.0068
2733.00,0.0070
2732.00,0.0072
2731.00,0.0074
2730.00,0.0076
2729.00,0.0079
2728.00,0.0082
2727.00,0.0085
2726.00,0.0088
2725.00,0.0090
2724.00,0.0092
2723.00,0.0092
2722.00,0.0092
2721.00,0.0089
2720.00,0.0086
2719.00,0.0082
2718.00,0.0079
2717.00,0.0075
2716.00,0.0072
2715.00,0.0069
2714.00,0.0066
2713.00,0.0063
2712.00,0.0061
2711.00,0.0059
2710.00,0.0057
2709.00,0.0055
2708.00,0.0054
2707.00,0.0053
2706.00,0.0052
2705.00,0.0050
2704.00,0.0049
2703.00,0.0047
2702.00,0.0047
2701.00,0.0046
2700.00,0.0046
2699.00,0.0045
2698.00,0.0045
2697.00,0.0045
2696.00,0.0044
2695.00,0.0044
2694.00,0.0044
2693.00,0.0044
2692.00,0.0044
2691.00,0.0044
2690.00,0.0043
2689.00,0.0043
2688.00,0.0043
2687.00,0.0043
2686.00,0.0044
2685.00,0.0044
2684.00,0.0044
2683.00,0.0044
2682.00,0.0044
2681.00,0.0045
2680.00,0.0045
2679.00,0.0045
2678.00,0.0045
2677.00,0.0045
2676.00,0.0045
2675.00,0.0045
2674.00,0.0045
2673.00,0.0044
2672.00,0.0044
2671.00,0.0044
2670.00,0.0044
2669.00,0.0044
2668.00,0.0044
2667.00,0.0045
2666.00,0.0045
2665.00,0.0046
2664.00,0.0046
2663.00,0.0046
2662.00,0.0046
2661.00,0.0046
2660.00,0.0047
2659.00,0.0047
2658.00,0.0047
2657.00,0.0047
2656.00,0.0046
2655.00,0.0046
2654.00,0.0045
2653.00,0.0045
2652.00,0.0044
2651.00,0.0043
2650.00,0.0043
2649.00,0.0043
2648.00,0.0043
2647.00,0.0042
2646.00,0.0042
2645.00,0.0041
2644.00,0.0041
2643.00,0.0040
2642.00,0.0040
2641.00,0.0040
2640.00,0.0039
2639.00,0.0038
2638.00,0.0038
2637.00,0.0038
2636.00,0.0038
2635.00,0.0038
2634.00,0.0038
2633.00,0.0039
2632.00,0.0039
2631.00,0.0039
2630.00,0.0039
2629.00,0.0039
2628.00,0.0039
2627.00,0.0039
2626.00,0.0039
2625.00,0.0039
2624.00,0.0039
2623.00,0.0039
2622.00,0.0040
2621.00,0.0041
2620.00,0.0042
2619.00,0.0042
2618.00,0.0042
2617.00,0.0042
2616.00,0.0041
2615.00,0.0041
2614.00,0.0041
2613.00,0.0040
2612.00,0.0040
2611.00,0.0039
2610.00,0.0038
2609.00,0.0037
2608.00,0.0037
2607.00,0.0036
2606.00,0.0036
2605.00,0.0035
2604.00,0.0035
2603.00,0.0034
2602.00,0.0033
2601.00,0.0033
2600.00,0.0033
2599.00,0.0032
2598.00,0.0032
2597.00,0.0032
2596.00,0.0032
2595.00,0.0032
2594.00,0.0032
2593.00,0.0033
2592.00,0.0034
2591.00,0.0035
2590.00,0.0036
2589.00,0.0038
2588.00,0.0039
2587.00,0.0040
2586.00,0.0041
2585.00,0.0041
2584.00,0.0042
2583.00,0.0042
2582.00,0.0042
2581.00,0.0042
2580.00,0.0041
2579.00,0.0040
2578.00,0.0039
2577.00,0.0037
2576.00,0.0036
2575.00,0.0034
2574.00,0.0033
2573.00,0.0032
2572.00,0.0031
2571.00,0.0030
2570.00,0.0029
2569.00,0.0029
2568.00,0.0029
2567.00,0.0028
2566.00,0.0028
2565.00,0.0027
2564.00,0.0026
2563.00,0.0026
2562.00,0.0026
2561.00,0.0025
2560.00,0.0025
2559.00,0.0024
2558.00,0.0023
2557.00,0.0022
2556.00,0.0022
2555.00,0.0021
2554.00,0.0021
2553.00,0.0021
2552.00,0.0021
2551.00,0.0021
2550.00,0.0021
2549.00,0.0021
2548.00,0.0020
2547.00,0.0020
2546.00,0.0019
2545.00,0.0019
2544.00,0.0019
2543.00,0.0019
2542.00,0.0019
2541.00,0.0019
2540.00,0.0019
2539.00,0.0019
2538.00,0.0018
2537.00,0.0018
2536.00,0.0017
2535.00,0.0017
2534.00,0.0016
2533.00,0.0016
2532.00,0.0015
2531.00,0.0015
2530.00,0.0014
2529.00,0.0015
2528.00,0.0015
2527.00,0.0015
2526.00,0.0015
2525.00,0.0014
2524.00,0.0014
2523.00,0.0013
2522.00,0.0013
2521.00,0.0012
2520.00,0.0012
2519.00,0.0012
2518.00,0.0012
2517.00,0.0012
2516.00,0.0011
2515.00,0.0011
2514.00,0.0010
2513.00,0.0010
2512.00,0.0009
2511.00,0.0009
2510.00,0.0009
2509.00,0.0010
2508.00,0.0010
2507.00,0.0010
2506.00,0.0010
2505.00,0.0010
2504.00,0.0011
2503.00,0.0010
2502.00,0.0010
2501.00,0.0009
2500.00,0.0009
2499.00,0.0009
2498.00,0.0010
2497.00,0.0010
2496.00,0.0011
2495.00,0.0011
2494.00,0.0011
2493.00,0.0010
2492.00,0.0010
2491.00,0.0010
2490.00,0.0010
2489.00,0.0011
2488.00,0.0011
2487.00,0.0011
2486.00,0.0011
2485.00,0.0011
2484.00,0.0011
2483.00,0.0010
2482.00,0.0010
2481.00,0.0010
2480.00,0.0010
2479.00,0.0010
2478.00,0.0009
2477.00,0.0009
2476.00,0.0009
2475.00,0.0009
2474.00,0.0010
2473.00,0.0010
2472.00,0.0009
2471.00,0.0009
2470.00,0.0009
2469.00,0.0009
2468.00,0.0009
2467.00,0.0009
2466.00,0.0010
2465.00,0.0009
2464.00,0.0009
2463.00,0.0009
2462.00,0.0009
2461.00,0.0010
2460.00,0.0011
2459.00,0.0012
2458.00,0.0012
2457.00,0.0012
2456.00,0.0012
2455.00,0.0011
2454.00,0.0011
2453.00,0.0011
2452.00,0.0011
2451.00,0.0011
2450.00,0.0012
2449.00,0.0012
2448.00,0.0012
2447.00,0.0011
2446.00,0.0010
2445.00,0.0009
2444.00,0.0009
2443.00,0.0010
2442.00,0.0010
2441.00,0.0010
2440.00,0.0010
2439.00,0.0010
2438.00,0.0011
2437.00,0.0012
2436.00,0.0012
2435.00,0.0012
2434.00,0.0012
2433.00,0.0012
2432.00,0.0012
2431.00,0.0012
2430.00,0.0012
2429.00,0.0012
2428.00,0.0012
2427.00,0.0012
2426.00,0.0012
2425.00,0.0011
2424.00,0.0011
2423.00,0.0011
2422.00,0.0011
2421.00,0.0011
2420.00,0.0011
2419.00,0.0011
2418.00,0.0011
2417.00,0.0011
2416.00,0.0010
2415.00,0.0010
2414.00,0.0010
2413.00,0.0010
2412.00,0.0011
2411.00,0.0011
2410.00,0.0011
2409.00,0.0011
2408.00,0.0011
2407.00,0.0010
2406.00,0.0010
2405.00,0.0009
2404.00,0.0008
2403.00,0.0008
2402.00,0.0008
2401.00,0.0008
2400.00,0.0008
2399.00,0.0008
2398.00,0.0009
2397.00,0.0009
2396.00,0.0009
2395.00,0.0008
2394.00,0.0008
2393.00,0.0008
2392.00,0.0008
2391.00,0.0008
2390.00,0.0008
2389.00,0.0008
2388.00,0.0007
2387.00,0.0007
2386.00,0.0006
2385.00,0.0006
2384.00,0.0005
2383.00,0.0004
2382.00,0.0002
2381.00,0.0001
2380.00,0.0000
2379.00,-0.0000
2378.00,-0.0001
2377.00,-0.0001
2376.00,-0.0000
2375.00,0.0000
2374.00,0.0001
2373.00,0.0001
2372.00,0.0000
2371.00,-0.0000
2370.00,-0.0001
2369.00,-0.0002
2368.00,-0.0003
2367.00,-0.0003
2366.00,-0.0003
2365.00,-0.0002
2364.00,-0.0001
2363.00,-0.0000
2362.00,-0.0000
2361.00,-0.0001
2360.00,-0.0001
2359.00,-0.0002
2358.00,-0.0002
2357.00,-0.0001
2356.00,-0.0000
2355.00,0.0000
2354.00,0.0000
2353.00,0.0000
2352.00,-0.0001
2351.00,-0.0003
2350.00,-0.0005
2349.00,-0.0006
2348.00,-0.0005
2347.00,-0.0002
2346.00,0.0000
2345.00,0.0001
2344.00,0.0001
2343.00,0.0001
2342.00,0.0001
2341.00,0.0002
2340.00,0.0002
2339.00,0.0003
2338.00,0.0003
2337.00,0.0003
2336.00,0.0002
2335.00,0.0002
2334.00,0.0002
2333.00,0.0002
2332.00,0.0002
2331.00,0.0002
2330.00,0.0002
2329.00,0.0003
2328.00,0.0005
2327.00,0.0008
2326.00,0.0012
2325.00,0.0016
2324.00,0.0019
2323.00,0.0019
2322.00,0.0017
2321.00,0.0015
2320.00,0.0013
2319.00,0.0011
2318.00,0.0010
2317.00,0.0010
2316.00,0.0009
2315.00,0.0009
2314.00,0.0008
2313.00,0.0008
2312.00,0.0008
2311.00,0.0007
2310.00,0.0007
2309.00,0.0007
2308.00,0.0007
2307.00,0.0008
2306.00,0.0008
2305.00,0.0008
2304.00,0.0008
2303.00,0.0008
2302.00,0.0009
2301.00,0.0009
2300.00,0.0009
2299.00,0.0009
2298.00,0.0010
2297.00,0.0010
2296.00,0.0011
2295.00,0.0011
2294.00,0.0011
2293.00,0.0012
2292.00,0.0012
2291.00,0.0013
2290.00,0.0014
2289.00,0.0015
2288.00,0.0016
2287.00,0.0016
2286.00,0.0017
2285.00,0.0017
2284.00,0.0017
2283.00,0.0017
2282.00,0.0017
2281.00,0.0016
2280.00,0.0016
2279.00,0.0015
2278.00,0.0015
2277.00,0.0014
2276.00,0.0013
2275.00,0.0013
2274.00,0.0013
2273.00,0.0014
2272.00,0.0014
2271.00,0.0014
2270.00,0.0014
2269.00,0.0014
2268.00,0.0013
2267.00,0.0012
2266.00,0.0011
2265.00,0.0011
2264.00,0.0011
2263.00,0.0013
2262.00,0.0014
2261.00,0.0014
2260.00,0.0015
2259.00,0.0015
2258.00,0.0015
2257.00,0.0014
2256.00,0.0012
2255.00,0.0010
2254.00,0.0008
2253.00,0.0007
2252.00,0.0007
2251.00,0.0006
2250.00,0.0006
2249.00,0.0007
2248.00,0.0009
2247.00,0.0010
2246.00,0.0011
2245.00,0.0011
2244.00,0.0011
2243.00,0.0010
2242.00,0.0009
2241.00,0.0009
2240.00,0.0009
2239.00,0.0009
2238.00,0.0009
2237.00,0.0010
2236.00,0.0011
2235.00,0.0012
2234.00,0.0012
2233.00,0.0012
2232.00,0.0012
2231.00,0.0010
2230.00,0.0009
2229.00,0.0007
2228.00,0.0006
2227.00,0.0005
2226.00,0.0006
2225.00,0.0006
2224.00,0.0007
2223.00,0.0007
2222.00,0.0007
2221.00,0.0007
2220.00,0.0007
2219.00,0.0006
2218.00,0.0006
2217.00,0.0006
2216.00,0.0006
2215.00,0.0007
2214.00,0.0006
2213.00,0.0005
2212.00,0.0005
2211.00,0.0004
2210.00,0.0004
2209.00,0.0002
2208.00,0.0001
2207.00,0.0000
2206.00,0.0000
2205.00,0.0001
2204.00,0.0002
2203.00,0.0003
2202.00,0.0004
2201.00,0.0006
2200.00,0.0008
2199.00,0.0009
2198.00,0.0010
2197.00,0.0009
2196.00,0.0008
2195.00,0.0007
2194.00,0.0007
2193.00,0.0009
2192.00,0.0010
2191.00,0.0010
2190.00,0.0008
2189.00,0.0007
2188.00,0.0007
2187.00,0.0008
2186.00,0.0008
2185.00,0.0007
2184.00,0.0005
2183.00,0.0003
2182.00,-0.0000
2181.00,-0.0002
2180.00,-0.0001
2179.00,0.0001
2178.00,0.0005
2177.00,0.0007
2176.00,0.0008
2175.00,0.0007
2174.00,0.0006
2173.00,0.0006
2172.00,0.0006
2171.00,0.0006
2170.00,0.0007
2169.00,0.0009
2168.00,0.0010
2167.00,0.0012
2166.00,0.0013
2165.00,0.0016
2164.00,0.0019
2163.00,0.0020
2162.00,0.0018
2161.00,0.0011
2160.00,-0.0001
2159.00,-0.0016
2158.00,-0.0029
2157.00,-0.0035
2156.00,-0.0034
2155.00,-0.0030
2154.00,-0.0025
2153.00,-0.0021
2152.00,-0.0017
2151.00,-0.0016
2150.00,-0.0015
2149.00,-0.0014
2148.00,-0.0013
2147.00,-0.0013
2146.00,-0.0013
2145.00,-0.0013
2144.00,-0.0013
2143.00,-0.0013
2142.00,-0.0014
2141.00,-0.0014
2140.00,-0.0014
2139.00,-0.0014
2138.00,-0.0013
2137.00,-0.0013
2136.00,-0.0015
2135.00,-0.0018
2134.00,-0.0021
2133.00,-0.0022
2132.00,-0.0022
2131.00,-0.0020
2130.00,-0.0017
2129.00,-0.0013
2128.00,-0.0010
2127.00,-0.0007
2126.00,-0.0006
2125.00,-0.0006
2124.00,-0.0005
2123.00,-0.0006
2122.00,-0.0005
2121.00,-0.0004
2120.00,-0.0001
2119.00,0.0001
2118.00,0.0002
2117.00,0.0002
2116.00,0.0001
2115.00,-0.0000
2114.00,-0.0001
2113.00,-0.0002
2112.00,-0.0001
2111.00,0.0000
2110.00,0.0002
2109.00,0.0003
2108.00,0.0004
2107.00,0.0003
2106.00,0.0002
2105.00,0.0001
2104.00,0.0001
2103.00,0.0001
2102.00,0.0001
2101.00,0.0002
2100.00,0.0002
2099.00,0.0002
2098.00,0.0001
2097.00,-0.0001
2096.00,-0.0003
2095.00,-0.0004
2094.00,-0.0005
2093.00,-0.0004
2092.00,-0.0004
2091.00,-0.0003
2090.00,-0.0003
2089.00,-0.0003
2088.00,-0.0002
2087.00,-0.0001
2086.00,0.0000
2085.00,0.0001
2084.00,0.0002
2083.00,0.0002
2082.00,0.0002
2081.00,0.0001
2080.00,0.0001
2079.00,-0.0000
2078.00,-0.0001
2077.00,-0.0001
2076.00,0.0001
2075.00,0.0003
2074.00,0.0004
2073.00,0.0004
2072.00,0.0002
2071.00,0.0001
2070.00,0.0000
2069.00,-0.0000
2068.00,-0.0000
2067.00,-0.0002
2066.00,-0.0004
2065.00,-0.0005
2064.00,-0.0004
2063.00,-0.0003
2062.00,-0.0002
2061.00,-0.0001
2060.00,-0.0001
2059.00,-0.0000
2058.00,0.0000
2057.00,0.0001
2056.00,0.0000
2055.00,-0.0001
2054.00,0.0000
2053.00,0.0004
2052.00,0.0010
2051.00,0.0014
2050.00,0.0013
2049.00,0.0008
2048.00,0.0002
2047.00,-0.0003
2046.00,-0.0006
2045.00,-0.0007
2044.00,-0.0005
2043.00,-0.0001
2042.00,0.0003
2041.00,0.0005
2040.00,0.0004
2039.00,0.0001
2038.00,-0.0001
2037.00,-0.0002
2036.00,-0.0004
2035.00,-0.0006
2034.00,-0.0009
2033.00,-0.0011
2032.00,-0.0012
2031.00,-0.0010
2030.00,-0.0008
2029.00,-0.0005
2028.00,-0.0004
2027.00,-0.0004
2026.00,-0.0004
2025.00,-0.0004
2024.00,-0.0004
2023.00,-0.0004
2022.00,-0.0006
2021.00,-0.0007
2020.00,-0.0009
2019.00,-0.0011
2018.00,-0.0010
2017.00,-0.0009
2016.00,-0.0008
2015.00,-0.0008
2014.00,-0.0009
2013.00,-0.0010
2012.00,-0.0010
2011.00,-0.0011
2010.00,-0.0013
2009.00,-0.0016
2008.00,-0.0019
2007.00,-0.0021
2006.00,-0.0022
2005.00,-0.0022
2004.00,-0.0020
2003.00,-0.0019
2002.00,-0.0017
2001.00,-0.0014
2000.00,-0.0011
1999.00,-0.0007
1998.00,-0.0005
1997.00,-0.0004
1996.00,-0.0004
1995.00,-0.0006
1994.00,-0.0007
1993.00,-0.0008
1992.00,-0.0009
1991.00,-0.0010
1990.00,-0.0011
1989.00,-0.0009
1988.00,-0.0006
1987.00,-0.0002
1986.00,0.0002
1985.00,0.0004
1984.00,0.0005
1983.00,0.0005
1982.00,0.0006
1981.00,0.0008
1980.00,0.0008
1979.00,0.0004
1978.00,-0.0002
1977.00,-0.0007
1976.00,-0.0009
1975.00,-0.0008
1974.00,-0.0009
1973.00,-0.0010
1972.00,-0.0013
1971.00,-0.0014
1970.00,-0.0014
1969.00,-0.0014
1968.00,-0.0013
1967.00,-0.0013
1966.00,-0.0012
1965.00,-0.0011
1964.00,-0.0012
1963.00,-0.0016
1962.00,-0.0020
1961.00,-0.0023
1960.00,-0.0023
1959.00,-0.0022
1958.00,-0.0019
1957.00,-0.0016
1956.00,-0.0013
1955.00,-0.0012
1954.00,-0.0011
1953.00,-0.0011
1952.00,-0.0012
1951.00,-0.0013
1950.00,-0.0015
1949.00,-0.0016
1948.00,-0.0017
1947.00,-0.0017
1946.00,-0.0017
1945.00,-0.0017
1944.00,-0.0016
1943.00,-0.0017
1942.00,-0.0017
1941.00,-0.0017
1940.00,-0.0016
1939.00,-0.0015
1938.00,-0.0013
1937.00,-0.0011
1936.00,-0.0010
1935.00,-0.0009
1934.00,-0.0009
1933.00,-0.0009
1932.00,-0.0010
1931.00,-0.0010
1930.00,-0.0009
1929.00,-0.0007
1928.00,-0.0006
1927.00,-0.0006
1926.00,-0.0007
1925.00,-0.0008
1924.00,-0.0007
1923.00,-0.0007
1922.00,-0.0006
1921.00,-0.0005
1920.00,-0.0005
1919.00,-0.0006
1918.00,-0.0006
1917.00,-0.0005
1916.00,-0.0005
1915.00,-0.0005
1914.00,-0.0005
1913.00,-0.0005
1912.00,-0.0004
1911.00,-0.0003
1910.00,-0.0002
1909.00,-0.0002
1908.00,-0.0002
1907.00,-0.0002
1906.00,-0.0002
1905.00,-0.0002
1904.00,-0.0001
1903.00,-0.0001
1902.00,-0.0002
1901.00,-0.0002
1900.00,-0.0003
1899.00,-0.0002
1898.00,-0.0002
1897.00,-0.0002
1896.00,-0.0001
1895.00,-0.0001
1894.00,-0.0001
1893.00,-0.0001
1892.00,-0.0001
1891.00,-0.0001
1890.00,-0.0000
1889.00,-0.0000
1888.00,0.0000
1887.00,0.0000
1886.00,-0.0000
1885.00,-0.0000
1884.00,-0.0001
1883.00,-0.0002
1882.00,-0.0002
1881.00,-0.0002
1880.00,-0.0002
1879.00,-0.0002
1878.00,-0.0002
1877.00,-0.0003
1876.00,-0.0003
1875.00,-0.0002
1874.00,-0.0002
1873.00,-0.0001
1872.00,-0.0001
1871.00,-0.0002
1870.00,-0.0003
1869.00,-0.0003
1868.00,-0.0003
1867.00,-0.0002
1866.00,-0.0001
1865.00,-0.0001
1864.00,-0.0000
1863.00,0.0000
1862.00,0.0001
1861.00,0.0001
1860.00,0.0001
1859.00,0.0001
1858.00,0.0001
1857.00,0.0001
1856.00,0.0001
1855.00,0.0001
1854.00,-0.0000
1853.00,-0.0000
1852.00,-0.0001
1851.00,-0.0001
1850.00,-0.0000
1849.00,0.0000
1848.00,0.0001
1847.00,0.0002
1846.00,0.0002
1845.00,0.0001
1844.00,0.0001
1843.00,0.0001
1842.00,0.0001
1841.00,0.0001
1840.00,0.0000
1839.00,-0.0000
1838.00,-0.0000
1837.00,0.0001
1836.00,0.0002
1835.00,0.0002
1834.00,0.0003
1833.00,0.0003
1832.00,0.0003
1831.00,0.0003
1830.00,0.0004
1829.00,0.0005
1828.00,0.0005
1827.00,0.0005
1826.00,0.0005
1825.00,0.0004
1824.00,0.0003
1823.00,0.0003
1822.00,0.0002
1821.00,0.0002
1820.00,0.0002
1819.00,0.0002
1818.00,0.0001
1817.00,0.0001
1816.00,0.0001
1815.00,0.0002
1814.00,0.0002
1813.00,0.0002
1812.00,0.0002
1811.00,0.0002
1810.00,0.0003
1809.00,0.0004
1808.00,0.0004
1807.00,0.0004
1806.00,0.0004
1805.00,0.0004
1804.00,0.0004
1803.00,0.0004
1802.00,0.0004
1801.00,0.0005
1800.00,0.0005
1799.00,0.0006
1798.00,0.0006
1797.00,0.0006
1796.00,0.0006
1795.00,0.0006
1794.00,0.0006
1793.00,0.0007
1792.00,0.0007
1791.00,0.0007
1790.00,0.0007
1789.00,0.0007
1788.00,0.0007
1787.00,0.0007
1786.00,0.0007
1785.00,0.0007
1784.00,0.0007
1783.00,0.0007
1782.00,0.0007
1781.00,0.0007
1780.00,0.0007
1779.00,0.0007
1778.00,0.0007
1777.00,0.0006
1776.00,0.0005
1775.00,0.0005
1774.00,0.0005
1773.00,0.0006
1772.00,0.0007
1771.00,0.0008
1770.00,0.0009
1769.00,0.0009
1768.00,0.0009
1767.00,0.0010
1766.00,0.0010
1765.00,0.0010
1764.00,0.0010
1763.00,0.0011
1762.00,0.0012
1761.00,0.0012
1760.00,0.0013
1759.00,0.0012
1758.00,0.0012
1757.00,0.0012
1756.00,0.0012
1755.00,0.0013
1754.00,0.0014
1753.00,0.0015
1752.00,0.0015
1751.00,0.0015
1750.00,0.0016
1749.00,0.0017
1748.00,0.0018
1747.00,0.0018
1746.00,0.0018
1745.00,0.0019
1744.00,0.0019
1743.00,0.0020
1742.00,0.0020
1741.00,0.0021
1740.00,0.0021
1739.00,0.0021
1738.00,0.0021
1737.00,0.0022
1736.00,0.0022
1735.00,0.0022
1734.00,0.0021
1733.00,0.0021
1732.00,0.0021
1731.00,0.0021
1730.00,0.0021
1729.00,0.0022
1728.00,0.0022
1727.00,0.0021
1726.00,0.0020
1725.00,0.0020
1724.00,0.0020
1723.00,0.0020
1722.00,0.0019
1721.00,0.0020
1720.00,0.0020
1719.00,0.0020
1718.00,0.0021
1717.00,0.0021
1716.00,0.0022
1715.00,0.0023
1714.00,0.0023
1713.00,0.0023
1712.00,0.0023
1711.00,0.0023
1710.00,0.0024
1709.00,0.0024
1708.00,0.0024
1707.00,0.0025
1706.00,0.0025
1705.00,0.0026
1704.00,0.0027
1703.00,0.0027
1702.00,0.0028
1701.00,0.0028
1700.00,0.0028
1699.00,0.0029
1698.00,0.0029
1697.00,0.0030
1696.00,0.0031
1695.00,0.0032
1694.00,0.0033
1693.00,0.0033
1692.00,0.0034
1691.00,0.0035
1690.00,0.0035
1689.00,0.0036
1688.00,0.0038
1687.00,0.0039
1686.00,0.0040
1685.00,0.0041
1684.00,0.0042
1683.00,0.0042
1682.00,0.0042
1681.00,0.0042
1680.00,0.0043
1679.00,0.0043
1678.00,0.0044
1677.00,0.0045
1676.00,0.0046
1675.00,0.0047
1674.00,0.0048
1673.00,0.0048
1672.00,0.0049
1671.00,0.0050
1670.00,0.0050
1669.00,0.0051
1668.00,0.0052
1667.00,0.0052
1666.00,0.0053
1665.00,0.0053
1664.00,0.0053
1663.00,0.0054
1662.00,0.0054
1661.00,0.0055
1660.00,0.0056
1659.00,0.0057
1658.00,0.0057
1657.00,0.0058
1656.00,0.0059
1655.00,0.0060
1654.00,0.0061
1653.00,0.0064
1652.00,0.0066
1651.00,0.0067
1650.00,0.0068
1649.00,0.0069
1648.00,0.0071
1647.00,0.0073
1646.00,0.0074
1645.00,0.0074
1644.00,0.0073
1643.00,0.0072
1642.00,0.0070
1641.00,0.0069
1640.00,0.0068
1639.00,0.0067
1638.00,0.0066
1637.00,0.0065
1636.00,0.0066
1635.00,0.0066
1634.00,0.0067
1633.00,0.0067
1632.00,0.0067
1631.00,0.0067
1630.00,0.0067
1629.00,0.0066
1628.00,0.0066
1627.00,0.0065
1626.00,0.0065
1625.00,0.0064
1624.00,0.0063
1623.00,0.0063
1622.00,0.0062
1621.00,0.0061
1620.00,0.0061
1619.00,0.0060
1618.00,0.0059
1617.00,0.0059
1616.00,0.0058
1615.00,0.0058
1614.00,0.0058
1613.00,0.0058
1612.00,0.0057
1611.00,0.0057
1610.00,0.0056
1609.00,0.0056
1608.00,0.0056
1607.00,0.0055
1606.00,0.0055
1605.00,0.0055
1604.00,0.0055
1603.00,0.0055
1602.00,0.0055
1601.00,0.0055
1600.00,0.0055
1599.00,0.0055
1598.00,0.0055
1597.00,0.0055
1596.00,0.0056
1595.00,0.0056
1594.00,0.0057
1593.00,0.0058
1592.00,0.0059
1591.00,0.0060
1590.00,0.0061
1589.00,0.0062
1588.00,0.0064
1587.00,0.0066
1586.00,0.0068
1585.00,0.0071
1584.00,0.0074
1583.00,0.0078
1582.00,0.0083
1581.00,0.0088
1580.00,0.0092
1579.00,0.0096
1578.00,0.0098
1577.00,0.0099
1576.00,0.0098
1575.00,0.0096
1574.00,0.0093
1573.00,0.0090
1572.00,0.0088
1571.00,0.0084
1570.00,0.0080
1569.00,0.0076
1568.00,0.0073
1567.00,0.0071
1566.00,0.0070
1565.00,0.0069
1564.00,0.0068
1563.00,0.0067
1562.00,0.0067
1561.00,0.0067
1560.00,0.0068
1559.00,0.0068
1558.00,0.0067
1557.00,0.0068
1556.00,0.0069
1555.00,0.0070
1554.00,0.0071
1553.00,0.0073
1552.00,0.0074
1551.00,0.0076
1550.00,0.0078
1549.00,0.0081
1548.00,0.0084
1547.00,0.0087
1546.00,0.0091
1545.00,0.0095
1544.00,0.0099
1543.00,0.0103
1542.00,0.0107
1541.00,0.0109
1540.00,0.0108
1539.00,0.0104
1538.00,0.0100
1537.00,0.0096
1536.00,0.0093
1535.00,0.0088
1534.00,0.0082
1533.00,0.0076
1532.00,0.0073
1531.00,0.0071
1530.00,0.0069
1529.00,0.0068
1528.00,0.0067
1527.00,0.0066
1526.00,0.0064
1525.00,0.0063
1524.00,0.0063
1523.00,0.0062
1522.00,0.0062
1521.00,0.0062
1520.00,0.0062
1519.00,0.0063
1518.00,0.0063
1517.00,0.0063
1516.00,0.0064
1515.00,0.0064
1514.00,0.0065
1513.00,0.0065
1512.00,0.0066
1511.00,0.0066
1510.00,0.0066
1509.00,0.0067
1508.00,0.0067
1507.00,0.0068
1506.00,0.0068
1505.00,0.0070
1504.00,0.0072
1503.00,0.0073
1502.00,0.0075
1501.00,0.0077
1500.00,0.0080
1499.00,0.0081
1498.00,0.0082
1497.00,0.0085
1496.00,0.0089
1495.00,0.0093
1494.00,0.0095
1493.00,0.0099
1492.00,0.0103
1491.00,0.0106
1490.00,0.0111
1489.00,0.0117
1488.00,0.0123
1487.00,0.0128
1486.00,0.0134
1485.00,0.0142
1484.00,0.0152
1483.00,0.0161
1482.00,0.0173
1481.00,0.0186
1480.00,0.0200
1479.00,0.0214
1478.00,0.0230
1477.00,0.0250
1476.00,0.0273
1475.00,0.0298
1474.00,0.0333
1473.00,0.0386
1472.00,0.0452
1471.00,0.0518
1470.00,0.0582
1469.00,0.0649
1468.00,0.0722
1467.00,0.0803
1466.00,0.0896
1465.00,0.0997
1464.00,0.1088
1463.00,0.1152
1462.00,0.1195
1461.00,0.1226
1460.00,0.1247
1459.00,0.1260
1458.00,0.1269
1457.00,0.1273
1456.00,0.1269
1455.00,0.1258
1454.00,0.1244
1453.00,0.1224
1452.00,0.1194
1451.00,0.1150
1450.00,0.1091
1449.00,0.1011
1448.00,0.0914
1447.00,0.0813
1446.00,0.0724
1445.00,0.0649
1444.00,0.0587
1443.00,0.0537
1442.00,0.0501
1441.00,0.0478
1440.00,0.0466
1439.00,0.0465
1438.00,0.0472
1437.00,0.0480
1436.00,0.0474
1435.00,0.0449
1434.00,0.0408
1433.00,0.0358
1432.00,0.0306
1431.00,0.0261
1430.00,0.0227
1429.00,0.0203
1428.00,0.0187
1427.00,0.0178
1426.00,0.0172
1425.00,0.0167
1424.00,0.0163
1423.00,0.0160
1422.00,0.0158
1421.00,0.0155
1420.00,0.0151
1419.00,0.0148
1418.00,0.0146
1417.00,0.0143
1416.00,0.0140
1415.00,0.0138
1414.00,0.0136
1413.00,0.0134
1412.00,0.0131
1411.00,0.0129
1410.00,0.0128
1409.00,0.0126
1408.00,0.0124
1407.00,0.0123
1406.00,0.0123
1405.00,0.0122
1404.00,0.0120
1403.00,0.0120
1402.00,0.0121
1401.00,0.0121
1400.00,0.0121
1399.00,0.0122
1398.00,0.0123
1397.00,0.0124
1396.00,0.0126
1395.00,0.0129
1394.00,0.0135
1393.00,0.0140
1392.00,0.0147
1391.00,0.0156
1390.00,0.0169
1389.00,0.0186
1388.00,0.0212
1387.00,0.0252
1386.00,0.0303
1385.00,0.0369
1384.00,0.0455
1383.00,0.0571
1382.00,0.0727
1381.00,0.0931
1380.00,0.1190
1379.00,0.1499
1378.00,0.1815
1377.00,0.2072
1376.00,0.2194
1375.00,0.2125
1374.00,0.1882
1373.00,0.1562
1372.00,0.1255
1371.00,0.0998
1370.00,0.0792
1369.00,0.0636
1368.00,0.0529
1367.00,0.0464
1366.00,0.0429
1365.00,0.0415
1364.00,0.0419
1363.00,0.0436
1362.00,0.0463
1361.00,0.0492
1360.00,0.0513
1359.00,0.0520
1358.00,0.0508
1357.00,0.0477
1356.00,0.0433
1355.00,0.0383
1354.00,0.0335
1353.00,0.0293
1352.00,0.0260
1351.00,0.0234
1350.00,0.0212
1349.00,0.0196
1348.00,0.0183
1347.00,0.0172
1346.00,0.0164
1345.00,0.0157
1344.00,0.0151
1343.00,0.0146
1342.00,0.0143
1341.00,0.0140
1340.00,0.0137
1339.00,0.0135
1338.00,0.0134
1337.00,0.0134
1336.00,0.0135
1335.00,0.0138
1334.00,0.0142
1333.00,0.0146
1332.00,0.0151
1331.00,0.0155
1330.00,0.0157
1329.00,0.0155
1328.00,0.0151
1327.00,0.0144
1326.00,0.0137
1325.00,0.0130
1324.00,0.0123
1323.00,0.0117
1322.00,0.0113
1321.00,0.0109
1320.00,0.0105
1319.00,0.0102
1318.00,0.0100
1317.00,0.0098
1316.00,0.0096
1315.00,0.0094
1314.00,0.0093
1313.00,0.0093
1312.00,0.0093
1311.00,0.0095
1310.00,0.0098
1309.00,0.0102
1308.00,0.0109
1307.00,0.0117
1306.00,0.0124
1305.00,0.0130
1304.00,0.0133
1303.00,0.0133
1302.00,0.0133
1301.00,0.0132
1300.00,0.0134
1299.00,0.0136
1298.00,0.0138
1297.00,0.0139
1296.00,0.0139
1295.00,0.0136
1294.00,0.0132
1293.00,0.0126
1292.00,0.0119
1291.00,0.0113
1290.00,0.0108
1289.00,0.0103
1288.00,0.0099
1287.00,0.0096
1286.00,0.0093
1285.00,0.0091
1284.00,0.0089
1283.00,0.0087
1282.00,0.0085
1281.00,0.0083
1280.00,0.0082
1279.00,0.0081
1278.00,0.0080
1277.00,0.0080
1276.00,0.0080
1275.00,0.0079
1274.00,0.0078
1273.00,0.0077
1272.00,0.0076
1271.00,0.0076
1270.00,0.0077
1269.00,0.0078
1268.00,0.0080
1267.00,0.0081
1266.00,0.0083
1265.00,0.0085
1264.00,0.0086
1263.00,0.0088
1262.00,0.0091
1261.00,0.0094
1260.00,0.0097
1259.00,0.0101
1258.00,0.0105
1257.00,0.0108
1256.00,0.0110
1255.00,0.0108
1254.00,0.0104
1253.00,0.0099
1252.00,0.0093
1251.00,0.0089
1250.00,0.0086
1249.00,0.0084
1248.00,0.0083
1247.00,0.0082
1246.00,0.0081
1245.00,0.0081
1244.00,0.0080
1243.00,0.0079
1242.00,0.0079
1241.00,0.0078
1240.00,0.0078
1239.00,0.0078
1238.00,0.0079
1237.00,0.0080
1236.00,0.0080
1235.00,0.0080
1234.00,0.0080
1233.00,0.0081
1232.00,0.0081
1231.00,0.0082
1230.00,0.0083
1229.00,0.0085
1228.00,0.0087
1227.00,0.0089
1226.00,0.0092
1225.00,0.0095
1224.00,0.0099
1223.00,0.0104
1222.00,0.0108
1221.00,0.0112
1220.00,0.0115
1219.00,0.0117
1218.00,0.0118
1217.00,0.0116
1216.00,0.0114
1215.00,0.0110
1214.00,0.0107
1213.00,0.0102
1212.00,0.0098
1211.00,0.0095
1210.00,0.0092
1209.00,0.0090
1208.00,0.0088
1207.00,0.0086
1206.00,0.0085
1205.00,0.0085
1204.00,0.0084
1203.00,0.0084
1202.00,0.0083
1201.00,0.0083
1200.00,0.0082
1199.00,0.0082
1198.00,0.0082
1197.00,0.0082
1196.00,0.0082
1195.00,0.0082
1194.00,0.0082
1193.00,0.0082
1192.00,0.0081
1191.00,0.0081
1190.00,0.0080
1189.00,0.0079
1188.00,0.0078
1187.00,0.0077
1186.00,0.0077
1185.00,0.0077
1184.00,0.0077
1183.00,0.0078
1182.00,0.0079
1181.00,0.0080
1180.00,0.0082
1179.00,0.0084
1178.00,0.0088
1177.00,0.0094
1176.00,0.0101
1175.00,0.0111
1174.00,0.0125
1173.00,0.0141
1172.00,0.0162
1171.00,0.0184
1170.00,0.0206
1169.00,0.0224
1168.00,0.0235
1167.00,0.0238
1166.00,0.0234
1165.00,0.0227
1164.00,0.0217
1163.00,0.0208
1162.00,0.0200
1161.00,0.0192
1160.00,0.0186
1159.00,0.0181
1158.00,0.0177
1157.00,0.0175
1156.00,0.0174
1155.00,0.0174
1154.00,0.0173
1153.00,0.0171
1152.00,0.0168
1151.00,0.0163
1150.00,0.0156
1149.00,0.0148
1148.00,0.0139
1147.00,0.0131
1146.00,0.0122
1145.00,0.0115
1144.00,0.0108
1143.00,0.0102
1142.00,0.0097
1141.00,0.0093
1140.00,0.0088
1139.00,0.0084
1138.00,0.0080
1137.00,0.0078
1136.00,0.0076
1135.00,0.0075
1134.00,0.0075
1133.00,0.0074
1132.00,0.0074
1131.00,0.0074
1130.00,0.0076
1129.00,0.0078
1128.00,0.0080
1127.00,0.0081
1126.00,0.0082
1125.00,0.0083
1124.00,0.0084
1123.00,0.0084
1122.00,0.0084
1121.00,0.0085
1120.00,0.0085
1119.00,0.0086
1118.00,0.0087
1117.00,0.0088
1116.00,0.0090
1115.00,0.0091
1114.00,0.0093
1113.00,0.0096
1112.00,0.0099
1111.00,0.0102
1110.00,0.0107
1109.00,0.0112
1108.00,0.0118
1107.00,0.0125
1106.00,0.0133
1105.00,0.0141
1104.00,0.0148
1103.00,0.0152
1102.00,0.0152
1101.00,0.0148
1100.00,0.0142
1099.00,0.0134
1098.00,0.0126
1097.00,0.0118
1096.00,0.0111
1095.00,0.0105
1094.00,0.0100
1093.00,0.0095
1092.00,0.0092
1091.00,0.0089
1090.00,0.0087
1089.00,0.0085
1088.00,0.0083
1087.00,0.0081
1086.00,0.0080
1085.00,0.0079
1084.00,0.0079
1083.00,0.0079
1082.00,0.0079
1081.00,0.0078
1080.00,0.0078
1079.00,0.0077
1078.00,0.0075
1077.00,0.0073
1076.00,0.0071
1075.00,0.0071
1074.00,0.0070
1073.00,0.0070
1072.00,0.0070
1071.00,0.0071
1070.00,0.0071
1069.00,0.0072
1068.00,0.0072
1067.00,0.0073
1066.00,0.0073
1065.00,0.0073
1064.00,0.0074
1063.00,0.0075
1062.00,0.0076
1061.00,0.0077
1060.00,0.0078
1059.00,0.0079
1058.00,0.0080
1057.00,0.0080
1056.00,0.0080
1055.00,0.0080
1054.00,0.0080
1053.00,0.0081
1052.00,0.0081
1051.00,0.0082
1050.00,0.0084
1049.00,0.0086
1048.00,0.0090
1047.00,0.0094
1046.00,0.0096
1045.00,0.0097
1044.00,0.0097
1043.00,0.0097
1042.00,0.0097
1041.00,0.0098
1040.00,0.0099
1039.00,0.0100
1038.00,0.0102
1037.00,0.0104
1036.00,0.0105
1035.00,0.0106
1034.00,0.0105
1033.00,0.0103
1032.00,0.0102
1031.00,0.0101
1030.00,0.0101
1029.00,0.0100
1028.00,0.0098
1027.00,0.0097
1026.00,0.0096
1025.00,0.0096
1024.00,0.0096
1023.00,0.0096
1022.00,0.0096
1021.00,0.0097
1020.00,0.0097
1019.00,0.0098
1018.00,0.0099
1017.00,0.0101
1016.00,0.0103
1015.00,0.0107
1014.00,0.0110
1013.00,0.0113
1012.00,0.0116
1011.00,0.0118
1010.00,0.0119
1009.00,0.0120
1008.00,0.0121
1007.00,0.0124
1006.00,0.0129
1005.00,0.0137
1004.00,0.0147
1003.00,0.0161
1002.00,0.0180
1001.00,0.0203
1000.00,0.0226
999.00,0.0244
998.00,0.0251
997.00,0.0245
996.00,0.0226
995.00,0.0201
994.00,0.0175
993.00,0.0152
992.00,0.0134
991.00,0.0120
990.00,0.0111
989.00,0.0105
988.00,0.0101
987.00,0.0099
986.00,0.0099
985.00,0.0101
984.00,0.0104
983.00,0.0109
982.00,0.0118
981.00,0.0132
980.00,0.0150
979.00,0.0173
978.00,0.0202
977.00,0.0234
976.00,0.0266
975.00,0.0295
974.00,0.0314
973.00,0.0317
972.00,0.0302
971.00,0.0272
970.00,0.0234
969.00,0.0197
968.00,0.0165
967.00,0.0141
966.00,0.0123
965.00,0.0110
964.00,0.0100
963.00,0.0092
962.00,0.0086
961.00,0.0081
960.00,0.0077
959.00,0.0073
958.00,0.0070
957.00,0.0068
956.00,0.0066
955.00,0.0065
954.00,0.0064
953.00,0.0063
952.00,0.0063
951.00,0.0062
950.00,0.0062
949.00,0.0063
948.00,0.0064
947.00,0.0066
946.00,0.0069
945.00,0.0072
944.00,0.0077
943.00,0.0082
942.00,0.0087
941.00,0.0090
940.00,0.0090
939.00,0.0087
938.00,0.0083
937.00,0.0078
936.00,0.0074
935.00,0.0070
934.00,0.0068
933.00,0.0065
932.00,0.0063
931.00,0.0062
930.00,0.0061
929.00,0.0061
928.00,0.0061
927.00,0.0062
926.00,0.0063
925.00,0.0064
924.00,0.0064
923.00,0.0064
922.00,0.0065
921.00,0.0066
920.00,0.0069
919.00,0.0071
918.00,0.0074
917.00,0.0075
916.00,0.0076
915.00,0.0076
914.00,0.0075
913.00,0.0076
912.00,0.0076
911.00,0.0077
910.00,0.0079
909.00,0.0081
908.00,0.0084
907.00,0.0088
906.00,0.0095
905.00,0.0107
904.00,0.0123
903.00,0.0145
902.00,0.0169
901.00,0.0191
900.00,0.0206
899.00,0.0211
898.00,0.0204
897.00,0.0188
896.00,0.0165
895.00,0.0142
894.00,0.0122
893.00,0.0108
892.00,0.0098
891.00,0.0091
890.00,0.0086
889.00,0.0082
888.00,0.0078
887.00,0.0075
886.00,0.0073
885.00,0.0072
884.00,0.0071
883.00,0.0071
882.00,0.0072
881.00,0.0073
880.00,0.0075
879.00,0.0076
878.00,0.0076
877.00,0.0075
876.00,0.0075
875.00,0.0074
874.00,0.0075
873.00,0.0075
872.00,0.0075
871.00,0.0075
870.00,0.0075
869.00,0.0074
868.00,0.0074
867.00,0.0074
866.00,0.0075
865.00,0.0077
864.00,0.0079
863.00,0.0080
862.00,0.0080
861.00,0.0081
860.00,0.0082
859.00,0.0084
858.00,0.0086
857.00,0.0086
856.00,0.0086
855.00,0.0086
854.00,0.0087
853.00,0.0089
852.00,0.0092
851.00,0.0095
850.00,0.0099
849.00,0.0104
848.00,0.0110
847.00,0.0119
846.00,0.0132
845.00,0.0152
844.00,0.0178
843.00,0.0205
842.00,0.0224
841.00,0.0227
840.00,0.0212
839.00,0.0188
838.00,0.0163
837.00,0.0143
836.00,0.0130
835.00,0.0122
834.00,0.0117
833.00,0.0113
832.00,0.0110
831.00,0.0108
830.00,0.0107
829.00,0.0105
828.00,0.0104
827.00,0.0104
826.00,0.0105
825.00,0.0106
824.00,0.0106
823.00,0.0106
822.00,0.0107
821.00,0.0109
820.00,0.0111
819.00,0.0114
818.00,0.0119
817.00,0.0125
816.00,0.0135
815.00,0.0148
814.00,0.0165
813.00,0.0184
812.00,0.0204
811.00,0.0222
810.00,0.0236
809.00,0.0241
808.00,0.0238
807.00,0.0228
806.00,0.0213
805.00,0.0194
804.00,0.0176
803.00,0.0159
802.00,0.0145
801.00,0.0136
800.00,0.0129
799.00,0.0124
798.00,0.0118
797.00,0.0113
796.00,0.0107
795.00,0.0102
794.00,0.0098
793.00,0.0094
792.00,0.0092
791.00,0.0090
790.00,0.0088
789.00,0.0087
788.00,0.0086
787.00,0.0084
786.00,0.0082
785.00,0.0078
784.00,0.0075
783.00,0.0072
782.00,0.0070
781.00,0.0067
780.00,0.0066
779.00,0.0065
778.00,0.0065
777.00,0.0066
776.00,0.0066
775.00,0.0067
774.00,0.0069
773.00,0.0072
772.00,0.0075
771.00,0.0078
770.00,0.0081
769.00,0.0082
768.00,0.0082
767.00,0.0082
766.00,0.0082
765.00,0.0082
764.00,0.0081
763.00,0.0079
762.00,0.0076
761.00,0.0072
760.00,0.0068
759.00,0.0064
758.00,0.0061
757.00,0.0060
756.00,0.0058
755.00,0.0057
754.00,0.0057
753.00,0.0057
752.00,0.0058
751.00,0.0059
750.00,0.0060
749.00,0.0059
748.00,0.0058
747.00,0.0057
746.00,0.0058
745.00,0.0060
744.00,0.0062
743.00,0.0063
742.00,0.0064
741.00,0.0065
740.00,0.0066
739.00,0.0068
738.00,0.0069
737.00,0.0070
736.00,0.0072
735.00,0.0073
734.00,0.0074
733.00,0.0074
732.00,0.0073
731.00,0.0073
730.00,0.0073
729.00,0.0072
728.00,0.0070
727.00,0.0070
726.00,0.0071
725.00,0.0072
724.00,0.0073
723.00,0.0073
722.00,0.0072
721.00,0.0072
720.00,0.0071
719.00,0.0071
718.00,0.0069
717.00,0.0068
716.00,0.0067
715.00,0.0067
714.00,0.0067
713.00,0.0066
712.00,0.0065
711.00,0.0064
710.00,0.0063
709.00,0.0062
708.00,0.0062
707.00,0.0063
706.00,0.0065
705.00,0.0066
704.00,0.0068
703.00,0.0069
702.00,0.0069
701.00,0.0068
700.00,0.0067
699.00,0.0065
698.00,0.0064
697.00,0.0064
696.00,0.0065
695.00,0.0066
694.00,0.0065
693.00,0.0063
692.00,0.0061
691.00,0.0060
690.00,0.0061
689.00,0.0062
688.00,0.0062
687.00,0.0062
686.00,0.0061
685.00,0.0061
684.00,0.0062
683.00,0.0063
682.00,0.0062
681.00,0.0061
680.00,0.0059
679.00,0.0059
678.00,0.0060
677.00,0.0062
676.00,0.0064
675.00,0.0067
674.00,0.0068
673.00,0.0068
672.00,0.0066
671.00,0.0065
670.00,0.0066
669.00,0.0068
668.00,0.0069
667.00,0.0070
666.00,0.0068
665.00,0.0065
664.00,0.0063
663.00,0.0062
662.00,0.0062
661.00,0.0062
660.00,0.0063
659.00,0.0063
658.00,0.0063
657.00,0.0062
656.00,0.0060
655.00,0.0059
654.00,0.0058
653.00,0.0058
652.00,0.0058
651.00,0.0058
650.00,0.0058
649.00,0.0058
648.00,0.0058
647.00,0.0059
646.00,0.0061
645.00,0.0063
644.00,0.0064
643.00,0.0064
642.00,0.0064
641.00,0.0064
640.00,0.0064
639.00,0.0064
638.00,0.0065
637.00,0.0065
636.00,0.0065
635.00,0.0065
634.00,0.0066
633.00,0.0067
632.00,0.0069
631.00,0.0070
630.00,0.0069
629.00,0.0067
628.00,0.0064
627.00,0.0062
626.00,0.0062
625.00,0.0064
624.00,0.0066
623.00,0.0068
622.00,0.0068
621.00,0.0068
620.00,0.0068
619.00,0.0068
618.00,0.0068
617.00,0.0069
616.00,0.0070
615.00,0.0071
614.00,0.0070
613.00,0.0069
612.00,0.0067
611.00,0.0066
610.00,0.0067
609.00,0.0070
608.00,0.0073
607.00,0.0073
606.00,0.0071
605.00,0.0069
604.00,0.0069
603.00,0.0069
602.00,0.0070
601.00,0.0070
600.00,0.0070
599.00,0.0070
598.00,0.0069
597.00,0.0067
596.00,0.0064
595.00,0.0063
594.00,0.0063
593.00,0.0064
592.00,0.0065
591.00,0.0065
590.00,0.0066
589.00,0.0066
588.00,0.0067
587.00,0.0069
586.00,0.0070
585.00,0.0071
584.00,0.0073
583.00,0.0075
582.00,0.0076
581.00,0.0074
580.00,0.0069
579.00,0.0066
578.00,0.0066
577.00,0.0068
576.00,0.0069
575.00,0.0069
574.00,0.0066
573.00,0.0064
572.00,0.0062
571.00,0.0063
570.00,0.0064
569.00,0.0065
568.00,0.0066
567.00,0.0068
566.00,0.0070
565.00,0.0071
564.00,0.0072
563.00,0.0072
562.00,0.0073
561.00,0.0076
560.00,0.0078
559.00,0.0079
558.00,0.0078
557.00,0.0074
556.00,0.0070
555.00,0.0067
554.00,0.0066
553.00,0.0067
552.00,0.0068
551.00,0.0069
550.00,0.0070
549.00,0.0070
548.00,0.0070
547.00,0.0071
546.00,0.0072
545.00,0.0074
544.00,0.0076
543.00,0.0078
542.00,0.0079
541.00,0.0080
540.00,0.0080
539.00,0.0081
538.00,0.0083
537.00,0.0087
536.00,0.0092
535.00,0.0096
534.00,0.0098
533.00,0.0100
532.00,0.0101
531.00,0.0102
530.00,0.0101
529.00,0.0099
528.00,0.0095
527.00,0.0092
526.00,0.0090
525.00,0.0089
524.00,0.0091
523.00,0.0093
522.00,0.0093
521.00,0.0089
520.00,0.0084
519.00,0.0081
518.00,0.0080
517.00,0.0079
516.00,0.0076
515.00,0.0073
514.00,0.0073
513.00,0.0077
512.00,0.0082
511.00,0.0084
510.00,0.0081
509.00,0.0075
508.00,0.0068
507.00,0.0064
506.00,0.0062
505.00,0.0062
504.00,0.0065
503.00,0.0068
502.00,0.0071
501.00,0.0074
500.00,0.0076
499.00,0.0081
498.00,0.0085
497.00,0.0089
496.00,0.0091
495.00,0.0092
494.00,0.0089
493.00,0.0084
492.00,0.0076
491.00,0.0069
490.00,0.0064
489.00,0.0064
488.00,0.0071
487.00,0.0082
486.00,0.0091
485.00,0.0091
484.00,0.0083
483.00,0.0075
482.00,0.0070
481.00,0.0067
480.00,0.0064
479.00,0.0062
478.00,0.0063
477.00,0.0067
476.00,0.0070
475.00,0.0073
474.00,0.0075
473.00,0.0077
472.00,0.0083
471.00,0.0091
470.00,0.0099
469.00,0.0101
468.00,0.0099
467.00,0.0095
466.00,0.0093
465.00,0.0095
464.00,0.0100
463.00,0.0112
462.00,0.0127
461.00,0.0139
460.00,0.0146
459.00,0.0150
458.00,0.0154
457.00,0.0155
456.00,0.0150
455.00,0.0140
454.00,0.0129
453.00,0.0119
452.00,0.0109
451.00,0.0101
450.00,0.0097
