Created as New Dataset,Sample 040 By Administrator Date Friday, September 05 2025
cm-1,A
4000.00,0.0011
3999.00,0.0012
3998.00,0.0012
3997.00,0.0011
3996.00,0.0011
3995.00,0.0011
3994.00,0.0011
3993.00,0.0011
3992.00,0.0011
3991.00,0.0010
3990.00,0.0010
3989.00,0.0010
3988.00,0.0010
3987.00,0.0010
3986.00,0.0010
3985.00,0.0010
3984.00,0.0010
3983.00,0.0010
3982.00,0.0010
3981.00,0.0010
3980.00,0.0010
3979.00,0.0010
3978.00,0.0011
3977.00,0.0011
3976.00,0.0010
3975.00,0.0010
3974.00,0.0010
3973.00,0.0009
3972.00,0.0009
3971.00,0.0009
3970.00,0.0009
3969.00,0.0009
3968.00,0.0009
3967.00,0.0009
3966.00,0.0009
3965.00,0.0010
3964.00,0.0010
3963.00,0.0010
3962.00,0.0010
3961.00,0.0010
3960.00,0.0009
3959.00,0.0009
3958.00,0.0009
3957.00,0.0009
3956.00,0.0009
3955.00,0.0009
3954.00,0.0008
3953.00,0.0008
3952.00,0.0008
3951.00,0.0008
3950.00,0.0008
3949.00,0.0008
3948.00,0.0009
3947.00,0.0009
3946.00,0.0009
3945.00,0.0009
3944.00,0.0009
3943.00,0.0009
3942.00,0.0009
3941.00,0.0009
3940.00,0.0009
3939.00,0.0009
3938.00,0.0009
3937.00,0.0009
3936.00,0.0009
3935.00,0.0009
3934.00,0.0009
3933.00,0.0009
3932.00,0.0009
3931.00,0.0009
3930.00,0.0010
3929.00,0.0010
3928.00,0.0010
3927.00,0.0010
3926.00,0.0010
3925.00,0.0010
3924.00,0.0010
3923.00,0.0010
3922.00,0.0009
3921.00,0.0009
3920.00,0.0008
3919.00,0.0008
3918.00,0.0008
3917.00,0.0009
3916.00,0.0009
3915.00,0.0009
3914.00,0.0010
3913.00,0.0010
3912.00,0.0010
3911.00,0.0010
3910.00,0.0010
3909.00,0.0010
3908.00,0.0010
3907.00,0.0010
3906.00,0.0009
3905.00,0.0009
3904.00,0.0008
3903.00,0.0007
3902.00,0.0007
3901.00,0.0007
3900.00,0.0008
3899.00,0.0008
3898.00,0.0009
3897.00,0.0009
3896.00,0.0009
3895.00,0.0008
3894.00,0.0008
3893.00,0.0008
3892.00,0.0008
3891.00,0.0008
3890.00,0.0008
3889.00,0.0008
3888.00,0.0008
3887.00,0.0008
3886.00,0.0008
3885.00,0.0008
3884.00,0.0008
3883.00,0.0008
3882.00,0.0008
3881.00,0.0008
3880.00,0.0008
3879.00,0.0008
3878.00,0.0008
3877.00,0.0008
3876.00,0.0008
3875.00,0.0009
3874.00,0.0009
3873.00,0.0009
3872.00,0.0009
3871.00,0.0008
3870.00,0.0008
3869.00,0.0008
3868.00,0.0008
3867.00,0.0007
3866.00,0.0007
3865.00,0.0007
3864.00,0.0008
3863.00,0.0008
3862.00,0.0008
3861.00,0.0008
3860.00,0.0008
3859.00,0.0008
3858.00,0.0009
3857.00,0.0009
3856.00,0.0008
3855.00,0.0008
3854.00,0.0008
3853.00,0.0008
3852.00,0.0008
3851.00,0.0008
3850.00,0.0008
3849.00,0.0008
3848.00,0.0008
3847.00,0.0008
3846.00,0.0008
3845.00,0.0008
3844.00,0.0008
3843.00,0.0008
3842.00,0.0008
3841.00,0.0008
3840.00,0.0008
3839.00,0.0008
3838.00,0.0008
3837.00,0.0008
3836.00,0.0007
3835.00,0.0007
3834.00,0.0007
3833.00,0.0007
3832.00,0.0008
3831.00,0.0008
3830.00,0.0008
3829.00,0.0008
3828.00,0.0007
3827.00,0.0007
3826.00,0.0007
3825.00,0.0007
3824.00,0.0007
3823.00,0.0007
3822.00,0.0008
3821.00,0.0008
3820.00,0.0009
3819.00,0.0009
3818.00,0.0008
3817.00,0.0008
3816.00,0.0009
3815.00,0.0009
3814.00,0.0008
3813.00,0.0008
3812.00,0.0008
3811.00,0.0008
3810.00,0.0009
3809.00,0.0009
3808.00,0.0009
3807.00,0.0009
3806.00,0.0009
3805.00,0.0008
3804.00,0.0008
3803.00,0.0008
3802.00,0.0008
3801.00,0.0008
3800.00,0.0008
3799.00,0.0008
3798.00,0.0008
3797.00,0.0008
3796.00,0.0008
3795.00,0.0008
3794.00,0.0008
3793.00,0.0008
3792.00,0.0009
3791.00,0.0009
3790.00,0.0009
3789.00,0.0010
3788.00,0.0009
3787.00,0.0009
3786.00,0.0009
3785.00,0.0009
3784.00,0.0009
3783.00,0.0009
3782.00,0.0009
3781.00,0.0009
3780.00,0.0009
3779.00,0.0009
3778.00,0.0009
3777.00,0.0009
3776.00,0.0008
3775.00,0.0008
3774.00,0.0008
3773.00,0.0008
3772.00,0.0008
3771.00,0.0008
3770.00,0.0009
3769.00,0.0009
3768.00,0.0009
3767.00,0.0009
3766.00,0.0009
3765.00,0.0009
3764.00,0.0009
3763.00,0.0009
3762.00,0.0009
3761.00,0.0009
3760.00,0.0009
3759.00,0.0009
3758.00,0.0008
3757.00,0.0008
3756.00,0.0008
3755.00,0.0008
3754.00,0.0008
3753.00,0.0007
3752.00,0.0007
3751.00,0.0007
3750.00,0.0007
3749.00,0.0008
3748.00,0.0008
3747.00,0.0008
3746.00,0.0008
3745.00,0.0007
3744.00,0.0007
3743.00,0.0007
3742.00,0.0006
3741.00,0.0006
3740.00,0.0005
3739.00,0.0005
3738.00,0.0005
3737.00,0.0005
3736.00,0.0006
3735.00,0.0006
3734.00,0.0006
3733.00,0.0006
3732.00,0.0006
3731.00,0.0007
3730.00,0.0007
3729.00,0.0007
3728.00,0.0006
3727.00,0.0006
3726.00,0.0006
3725.00,0.0006
3724.00,0.0006
3723.00,0.0005
3722.00,0.0005
3721.00,0.0005
3720.00,0.0005
3719.00,0.0005
3718.00,0.0006
3717.00,0.0006
3716.00,0.0006
3715.00,0.0007
3714.00,0.0007
3713.00,0.0007
3712.00,0.0007
3711.00,0.0007
3710.00,0.0006
3709.00,0.0006
3708.00,0.0006
3707.00,0.0006
3706.00,0.0006
3705.00,0.0007
3704.00,0.0007
3703.00,0.0007
3702.00,0.0007
3701.00,0.0006
3700.00,0.0006
3699.00,0.0006
3698.00,0.0006
3697.00,0.0006
3696.00,0.0006
3695.00,0.0007
3694.00,0.0007
3693.00,0.0007
3692.00,0.0007
3691.00,0.0007
3690.00,0.0006
3689.00,0.0005
3688.00,0.0005
3687.00,0.0005
3686.00,0.0005
3685.00,0.0005
3684.00,0.0004
3683.00,0.0004
3682.00,0.0004
3681.00,0.0003
3680.00,0.0003
3679.00,0.0002
3678.00,0.0002
3677.00,0.0001
3676.00,0.0000
3675.00,-0.0000
3674.00,-0.0000
3673.00,-0.0001
3672.00,-0.0002
3671.00,-0.0003
3670.00,-0.0004
3669.00,-0.0004
3668.00,-0.0004
3667.00,-0.0004
3666.00,-0.0004
3665.00,-0.0004
3664.00,-0.0004
3663.00,-0.0004
3662.00,-0.0004
3661.00,-0.0005
3660.00,-0.0005
3659.00,-0.0005
3658.00,-0.0006
3657.00,-0.0006
3656.00,-0.0005
3655.00,-0.0005
3654.00,-0.0005
3653.00,-0.0006
3652.00,-0.0006
3651.00,-0.0006
3650.00,-0.0006
3649.00,-0.0005
3648.00,-0.0005
3647.00,-0.0004
3646.00,-0.0004
3645.00,-0.0004
3644.00,-0.0003
3643.00,-0.0003
3642.00,-0.0002
3641.00,-0.0001
3640.00,-0.0000
3639.00,-0.0000
3638.00,-0.0001
3637.00,-0.0001
3636.00,-0.0000
3635.00,0.0000
3634.00,0.0001
3633.00,0.0002
3632.00,0.0002
3631.00,0.0003
3630.00,0.0003
3629.00,0.0003
3628.00,0.0004
3627.00,0.0004
3626.00,0.0004
3625.00,0.0004
3624.00,0.0004
3623.00,0.0004
3622.00,0.0003
3621.00,0.0003
3620.00,0.0003
3619.00,0.0003
3618.00,0.0003
3617.00,0.0004
3616.00,0.0004
3615.00,0.0004
3614.00,0.0005
3613.00,0.0005
3612.00,0.0005
3611.00,0.0005
3610.00,0.0005
3609.00,0.0006
3608.00,0.0007
3607.00,0.0007
3606.00,0.0008
3605.00,0.0008
3604.00,0.0008
3603.00,0.0008
3602.00,0.0008
3601.00,0.0008
3600.00,0.0008
3599.00,0.0007
3598.00,0.0008
3597.00,0.0008
3596.00,0.0008
3595.00,0.0008
3594.00,0.0009
3593.00,0.0009
3592.00,0.0009
3591.00,0.0008
3590.00,0.0008
3589.00,0.0007
3588.00,0.0008
3587.00,0.0008
3586.00,0.0009
3585.00,0.0009
3584.00,0.0010
3583.00,0.0010
3582.00,0.0010
3581.00,0.0011
3580.00,0.0011
3579.00,0.0011
3578.00,0.0010
3577.00,0.0010
3576.00,0.0010
3575.00,0.0010
3574.00,0.0010
3573.00,0.0011
3572.00,0.0011
3571.00,0.0012
3570.00,0.0012
3569.00,0.0012
3568.00,0.0012
3567.00,0.0012
3566.00,0.0012
3565.00,0.0013
3564.00,0.0013
3563.00,0.0012
3562.00,0.0013
3561.00,0.0013
3560.00,0.0013
3559.00,0.0014
3558.00,0.0014
3557.00,0.0014
3556.00,0.0014
3555.00,0.0014
3554.00,0.0014
3553.00,0.0014
3552.00,0.0014
3551.00,0.0014
3550.00,0.0014
3549.00,0.0014
3548.00,0.0014
3547.00,0.0015
3546.00,0.0015
3545.00,0.0015
3544.00,0.0015
3543.00,0.0016
3542.00,0.0016
3541.00,0.0016
3540.00,0.0017
3539.00,0.0017
3538.00,0.0017
3537.00,0.0017
3536.00,0.0017
3535.00,0.0017
3534.00,0.0017
3533.00,0.0017
3532.00,0.0018
3531.00,0.0018
3530.00,0.0018
3529.00,0.0018
3528.00,0.0019
3527.00,0.0019
3526.00,0.0019
3525.00,0.0019
3524.00,0.0019
3523.00,0.0019
3522.00,0.0019
3521.00,0.0019
3520.00,0.0019
3519.00,0.0019
3518.00,0.0019
3517.00,0.0019
3516.00,0.0020
3515.00,0.0020
3514.00,0.0020
3513.00,0.0020
3512.00,0.0020
3511.00,0.0020
3510.00,0.0021
3509.00,0.0021
3508.00,0.0021
3507.00,0.0020
3506.00,0.0020
3505.00,0.0020
3504.00,0.0020
3503.00,0.0021
3502.00,0.0021
3501.00,0.0021
3500.00,0.0021
3499.00,0.0022
3498.00,0.0022
3497.00,0.0022
3496.00,0.0022
3495.00,0.0021
3494.00,0.0021
3493.00,0.0022
3492.00,0.0022
3491.00,0.0023
3490.00,0.0023
3489.00,0.0023
3488.00,0.0023
3487.00,0.0022
3486.00,0.0022
3485.00,0.0022
3484.00,0.0022
3483.00,0.0023
3482.00,0.0023
3481.00,0.0023
3480.00,0.0023
3479.00,0.0023
3478.00,0.0024
3477.00,0.0024
3476.00,0.0024
3475.00,0.0025
3474.00,0.0025
3473.00,0.0024
3472.00,0.0024
3471.00,0.0025
3470.00,0.0025
3469.00,0.0025
3468.00,0.0025
3467.00,0.0025
3466.00,0.0025
3465.00,0.0025
3464.00,0.0026
3463.00,0.0026
3462.00,0.0027
3461.00,0.0027
3460.00,0.0027
3459.00,0.0027
3458.00,0.0027
3457.00,0.0027
3456.00,0.0027
3455.00,0.0027
3454.00,0.0027
3453.00,0.0027
3452.00,0.0027
3451.00,0.0028
3450.00,0.0028
3449.00,0.0028
3448.00,0.0028
3447.00,0.0029
3446.00,0.0029
3445.00,0.0029
3444.00,0.0029
3443.00,0.0029
3442.00,0.0029
3441.00,0.0029
3440.00,0.0029
3439.00,0.0029
3438.00,0.0030
3437.00,0.0030
3436.00,0.0030
3435.00,0.0030
3434.00,0.0031
3433.00,0.0031
3432.00,0.0031
3431.00,0.0031
3430.00,0.0032
3429.00,0.0032
3428.00,0.0032
3427.00,0.0032
3426.00,0.0033
3425.00,0.0033
3424.00,0.0033
3423.00,0.0033
3422.00,0.0033
3421.00,0.0033
3420.00,0.0033
3419.00,0.0033
3418.00,0.0033
3417.00,0.0033
3416.00,0.0033
3415.00,0.0033
3414.00,0.0034
3413.00,0.0034
3412.00,0.0034
3411.00,0.0034
3410.00,0.0034
3409.00,0.0035
3408.00,0.0035
3407.00,0.0035
3406.00,0.0035
3405.00,0.0035
3404.00,0.0035
3403.00,0.0035
3402.00,0.0036
3401.00,0.0036
3400.00,0.0036
3399.00,0.0036
3398.00,0.0036
3397.00,0.0037
3396.00,0.0037
3395.00,0.0037
3394.00,0.0037
3393.00,0.0037
3392.00,0.0037
3391.00,0.0037
3390.00,0.0037
3389.00,0.0036
3388.00,0.0036
3387.00,0.0036
3386.00,0.0037
3385.00,0.0037
3384.00,0.0038
3383.00,0.0038
3382.00,0.0038
3381.00,0.0038
3380.00,0.0037
3379.00,0.0037
3378.00,0.0037
3377.00,0.0036
3376.00,0.0036
3375.00,0.0036
3374.00,0.0036
3373.00,0.0036
3372.00,0.0037
3371.00,0.0037
3370.00,0.0038
3369.00,0.0038
3368.00,0.0037
3367.00,0.0037
3366.00,0.0038
3365.00,0.0038
3364.00,0.0038
3363.00,0.0038
3362.00,0.0038
3361.00,0.0038
3360.00,0.0038
3359.00,0.0038
3358.00,0.0039
3357.00,0.0039
3356.00,0.0039
3355.00,0.0039
3354.00,0.0039
3353.00,0.0039
3352.00,0.0039
3351.00,0.0039
3350.00,0.0039
3349.00,0.0039
3348.00,0.0040
3347.00,0.0040
3346.00,0.0041
3345.00,0.0040
3344.00,0.0040
3343.00,0.0040
3342.00,0.0039
3341.00,0.0039
3340.00,0.0039
3339.00,0.0039
3338.00,0.0039
3337.00,0.0039
3336.00,0.0039
3335.00,0.0039
3334.00,0.0039
3333.00,0.0039
3332.00,0.0039
3331.00,0.0039
3330.00,0.0039
3329.00,0.0039
3328.00,0.0039
3327.00,0.0039
3326.00,0.0039
3325.00,0.0038
3324.00,0.0038
3323.00,0.0038
3322.00,0.0039
3321.00,0.0039
3320.00,0.0040
3319.00,0.0040
3318.00,0.0041
3317.00,0.0040
3316.00,0.0040
3315.00,0.0039
3314.00,0.0039
3313.00,0.0039
3312.00,0.0039
3311.00,0.0039
3310.00,0.0039
3309.00,0.0039
3308.00,0.0039
3307.00,0.0039
3306.00,0.0039
3305.00,0.0039
3304.00,0.0039
3303.00,0.0039
3302.00,0.0039
3301.00,0.0040
3300.00,0.0040
3299.00,0.0041
3298.00,0.0041
3297.00,0.0041
3296.00,0.0041
3295.00,0.0040
3294.00,0.0040
3293.00,0.0040
3292.00,0.0040
3291.00,0.0040
3290.00,0.0040
3289.00,0.0040
3288.00,0.0040
3287.00,0.0040
3286.00,0.0040
3285.00,0.0040
3284.00,0.0040
3283.00,0.0039
3282.00,0.0039
3281.00,0.0039
3280.00,0.0039
3279.00,0.0040
3278.00,0.0040
3277.00,0.0039
3276.00,0.0039
3275.00,0.0039
3274.00,0.0039
3273.00,0.0038
3272.00,0.0038
3271.00,0.0038
3270.00,0.0039
3269.00,0.0039
3268.00,0.0038
3267.00,0.0038
3266.00,0.0038
3265.00,0.0037
3264.00,0.0037
3263.00,0.0037
3262.00,0.0037
3261.00,0.0037
3260.00,0.0037
3259.00,0.0037
3258.00,0.0037
3257.00,0.0037
3256.00,0.0037
3255.00,0.0036
3254.00,0.0036
3253.00,0.0036
3252.00,0.0036
3251.00,0.0036
3250.00,0.0036
3249.00,0.0037
3248.00,0.0037
3247.00,0.0036
3246.00,0.0036
3245.00,0.0036
3244.00,0.0036
3243.00,0.0035
3242.00,0.0035
3241.00,0.0036
3240.00,0.0036
3239.00,0.0036
3238.00,0.0036
3237.00,0.0036
3236.00,0.0036
3235.00,0.0036
3234.00,0.0036
3233.00,0.0036
3232.00,0.0036
3231.00,0.0036
3230.00,0.0036
3229.00,0.0037
3228.00,0.0037
3227.00,0.0037
3226.00,0.0037
3225.00,0.0037
3224.00,0.0037
3223.00,0.0037
3222.00,0.0037
3221.00,0.0038
3220.00,0.0038
3219.00,0.0039
3218.00,0.0039
3217.00,0.0039
3216.00,0.0039
3215.00,0.0039
3214.00,0.0040
3213.00,0.0040
3212.00,0.0040
3211.00,0.0040
3210.00,0.0041
3209.00,0.0041
3208.00,0.0041
3207.00,0.0041
3206.00,0.0040
3205.00,0.0040
3204.00,0.0040
3203.00,0.0041
3202.00,0.0041
3201.00,0.0041
3200.00,0.0041
3199.00,0.0041
3198.00,0.0042
3197.00,0.0042
3196.00,0.0042
3195.00,0.0043
3194.00,0.0043
3193.00,0.0042
3192.00,0.0042
3191.00,0.0042
3190.00,0.0042
3189.00,0.0042
3188.00,0.0042
3187.00,0.0041
3186.00,0.0041
3185.00,0.0040
3184.00,0.0040
3183.00,0.0040
3182.00,0.0040
3181.00,0.0039
3180.00,0.0039
3179.00,0.0039
3178.00,0.0039
3177.00,0.0039
3176.00,0.0038
3175.00,0.0038
3174.00,0.0038
3173.00,0.0038
3172.00,0.0038
3171.00,0.0038
3170.00,0.0038
3169.00,0.0038
3168.00,0.0038
3167.00,0.0038
3166.00,0.0038
3165.00,0.0038
3164.00,0.0038
3163.00,0.0037
3162.00,0.0037
3161.00,0.0037
3160.00,0.0037
3159.00,0.0036
3158.00,0.0036
3157.00,0.0036
3156.00,0.0036
3155.00,0.0036
3154.00,0.0036
3153.00,0.0036
3152.00,0.0036
3151.00,0.0036
3150.00,0.0036
3149.00,0.0037
3148.00,0.0037
3147.00,0.0038
3146.00,0.0038
3145.00,0.0037
3144.00,0.0037
3143.00,0.0037
3142.00,0.0036
3141.00,0.0036
3140.00,0.0036
3139.00,0.0036
3138.00,0.0036
3137.00,0.0036
3136.00,0.0036
3135.00,0.0036
3134.00,0.0036
3133.00,0.0036
3132.00,0.0035
3131.00,0.0035
3130.00,0.0034
3129.00,0.0034
3128.00,0.0034
3127.00,0.0034
3126.00,0.0033
3125.00,0.0033
3124.00,0.0033
3123.00,0.0032
3122.00,0.0032
3121.00,0.0032
3120.00,0.0032
3119.00,0.0032
3118.00,0.0032
3117.00,0.0032
3116.00,0.0032
3115.00,0.0032
3114.00,0.0032
3113.00,0.0032
3112.00,0.0032
3111.00,0.0031
3110.00,0.0031
3109.00,0.0031
3108.00,0.0031
3107.00,0.0031
3106.00,0.0031
3105.00,0.0031
3104.00,0.0031
3103.00,0.0030
3102.00,0.0030
3101.00,0.0030
3100.00,0.0030
3099.00,0.0030
3098.00,0.0030
3097.00,0.0030
3096.00,0.0030
3095.00,0.0031
3094.00,0.0030
3093.00,0.0030
3092.00,0.0030
3091.00,0.0030
3090.00,0.0030
3089.00,0.0030
3088.00,0.0030
3087.00,0.0030
3086.00,0.0030
3085.00,0.0030
3084.00,0.0030
3083.00,0.0029
3082.00,0.0029
3081.00,0.0029
3080.00,0.0029
3079.00,0.0029
3078.00,0.0030
3077.00,0.0030
3076.00,0.0030
3075.00,0.0030
3074.00,0.0030
3073.00,0.0030
3072.00,0.0031
3071.00,0.0031
3070.00,0.0031
3069.00,0.0031
3068.00,0.0031
3067.00,0.0031
3066.00,0.0032
3065.00,0.0032
3064.00,0.0032
3063.00,0.0032
3062.00,0.0032
3061.00,0.0032
3060.00,0.0032
3059.00,0.0032
3058.00,0.0032
3057.00,0.0032
3056.00,0.0032
3055.00,0.0032
3054.00,0.0032
3053.00,0.0032
3052.00,0.0033
3051.00,0.0033
3050.00,0.0033
3049.00,0.0034
3048.00,0.0034
3047.00,0.0034
3046.00,0.0034
3045.00,0.0034
3044.00,0.0034
3043.00,0.0035
3042.00,0.0035
3041.00,0.0036
3040.00,0.0036
3039.00,0.0036
3038.00,0.0037
3037.00,0.0037
3036.00,0.0037
3035.00,0.0037
3034.00,0.0037
3033.00,0.0037
3032.00,0.0037
3031.00,0.0038
3030.00,0.0038
3029.00,0.0039
3028.00,0.0039
3027.00,0.0040
3026.00,0.0040
3025.00,0.0041
3024.00,0.0041
3023.00,0.0041
3022.00,0.0041
3021.00,0.0042
3020.00,0.0042
3019.00,0.0042
3018.00,0.0042
3017.00,0.0042
3016.00,0.0042
3015.00,0.0042
3014.00,0.0042
3013.00,0.0042
3012.00,0.0042
3011.00,0.0041
3010.00,0.0041
3009.00,0.0040
3008.00,0.0039
3007.00,0.0038
3006.00,0.0038
3005.00,0.0037
3004.00,0.0036
3003.00,0.0035
3002.00,0.0034
3001.00,0.0033
3000.00,0.0033
2999.00,0.0033
2998.00,0.0034
2997.00,0.0035
2996.00,0.0037
2995.00,0.0040
2994.00,0.0043
2993.00,0.0046
2992.00,0.0051
2991.00,0.0056
2990.00,0.0061
2989.00,0.0068
2988.00,0.0074
2987.00,0.0081
2986.00,0.0086
2985.00,0.0090
2984.00,0.0094
2983.00,0.0099
2982.00,0.0110
2981.00,0.0128
2980.00,0.0152
2979.00,0.0181
2978.00,0.0213
2977.00,0.0247
2976.00,0.0285
2975.00,0.0326
2974.00,0.0372
2973.00,0.0423
2972.00,0.0482
2971.00,0.0549
2970.00,0.0626
2969.00,0.0711
2968.00,0.0804
2967.00,0.0902
2966.00,0.1007
2965.00,0.1114
2964.00,0.1222
2963.00,0.1325
2962.00,0.1418
2961.00,0.1497
2960.00,0.1561
2959.00,0.1610
2958.00,0.1649
2957.00,0.1684
2956.00,0.1721
2955.00,0.1765
2954.00,0.1816
2953.00,0.1872
2952.00,0.1925
2951.00,0.1964
2950.00,0.1978
2949.00,0.1957
2948.00,0.1898
2947.00,0.1802
2946.00,0.1678
2945.00,0.1541
2944.00,0.1406
2943.00,0.1284
2942.00,0.1184
2941.00,0.1110
2940.00,0.1062
2939.00,0.1040
2938.00,0.1039
2937.00,0.1058
2936.00,0.1094
2935.00,0.1145
2934.00,0.1211
2933.00,0.1289
2932.00,0.1378
2931.00,0.1476
2930.00,0.1581
2929.00,0.1687
2928.00,0.1793
2927.00,0.1895
2926.00,0.1992
2925.00,0.2084
2924.00,0.2171
2923.00,0.2257
2922.00,0.2340
2921.00,0.2419
2920.00,0.2489
2919.00,0.2543
2918.00,0.2573
2917.00,0.2572
2916.00,0.2540
2915.00,0.2480
2914.00,0.2400
2913.00,0.2311
2912.00,0.2219
2911.00,0.2133
2910.00,0.2054
2909.00,0.1981
2908.00,0.1914
2907.00,0.1848
2906.00,0.1782
2905.00,0.1715
2904.00,0.1646
2903.00,0.1575
2902.00,0.1503
2901.00,0.1433
2900.00,0.1364
2899.00,0.1299
2898.00,0.1238
2897.00,0.1183
2896.00,0.1134
2895.00,0.1093
2894.00,0.1059
2893.00,0.1033
2892.00,0.1013
2891.00,0.1001
2890.00,0.0994
2889.00,0.0993
2888.00,0.0996
2887.00,0.1003
2886.00,0.1014
2885.00,0.1028
2884.00,0.1047
2883.00,0.1071
2882.00,0.1099
2881.00,0.1130
2880.00,0.1160
2879.00,0.1186
2878.00,0.1203
2877.00,0.1210
2876.00,0.1207
2875.00,0.1199
2874.00,0.1191
2873.00,0.1188
2872.00,0.1192
2871.00,0.1204
2870.00,0.1222
2869.00,0.1242
2868.00,0.1254
2867.00,0.1251
2866.00,0.1225
2865.00,0.1173
2864.00,0.1098
2863.00,0.1006
2862.00,0.0910
2861.00,0.0819
2860.00,0.0740
2859.00,0.0676
2858.00,0.0628
2857.00,0.0593
2856.00,0.0571
2855.00,0.0558
2854.00,0.0554
2853.00,0.0557
2852.00,0.0567
2851.00,0.0584
2850.00,0.0607
2849.00,0.0638
2848.00,0.0675
2847.00,0.0721
2846.00,0.0775
2845.00,0.0838
2844.00,0.0910
2843.00,0.0987
2842.00,0.1067
2841.00,0.1144
2840.00,0.1208
2839.00,0.1251
2838.00,0.1264
2837.00,0.1241
2836.00,0.1181
2835.00,0.1090
2834.00,0.0981
2833.00,0.0865
2832.00,0.0755
2831.00,0.0656
2830.00,0.0573
2829.00,0.0505
2828.00,0.0450
2827.00,0.0406
2826.00,0.0370
2825.00,0.0340
2824.00,0.0316
2823.00,0.0295
2822.00,0.0277
2821.00,0.0261
2820.00,0.0248
2819.00,0.0237
2818.00,0.0227
2817.00,0.0218
2816.00,0.0210
2815.00,0.0204
2814.00,0.0198
2813.00,0.0193
2812.00,0.0187
2811.00,0.0182
2810.00,0.0176
2809.00,0.0170
2808.00,0.0164
2807.00,0.0158
2806.00,0.0152
2805.00,0.0145
2804.00,0.0139
2803.00,0.0133
2802.00,0.0127
2801.00,0.0122
2800.00,0.0119
2799.00,0.0116
2798.00,0.0113
2797.00,0.0111
2796.00,0.0109
2795.00,0.0106
2794.00,0.0104
2793.00,0.0101
2792.00,0.0097
2791.00,0.0094
2790.00,0.0091
2789.00,0.0087
2788.00,0.0084
2787.00,0.0081
2786.00,0.0078
2785.00,0.0076
2784.00,0.0074
2783.00,0.0072
2782.00,0.0070
2781.00,0.0068
2780.00,0.0066
2779.00,0.0064
2778.00,0.0062
2777.00,0.0061
2776.00,0.0060
2775.00,0.0060
2774.00,0.0059
2773.00,0.0058
2772.00,0.0057
2771.00,0.0057
2770.00,0.0057
2769.00,0.0057
2768.00,0.0056
2767.00,0.0056
2766.00,0.0055
2765.00,0.0055
2764.00,0.0055
2763.00,0.0054
2762.00,0.0054
2761.00,0.0054
2760.00,0.0053
2759.00,0.0053
2758.00,0.0053
2757.00,0.0053
2756.00,0.0053
2755.00,0.0053
2754.00,0.0053
2753.00,0.0053
2752.00,0.0053
2751.00,0.0052
2750.00,0.0052
2749.00,0.0052
2748.00,0.0052
2747.00,0.0053
2746.00,0.0053
2745.00,0.0054
2744.00,0.0054
2743.00,0.0055
2742.00,0.0056
2741.00,0.0057
2740.00,0.0059
2739.00,0.0060
2738.00,0.0062
2737.00,0.0063
2736.00,0.0065
2735.00,0.0066
2734.00,0.0068
2733.00,0.0070
2732.00,0.0072
2731.00,0.0074
2730.00,0.0076
2729.00,0.0078
2728.00,0.0081
2727.00,0.0084
2726.00,0.0087
2725.00,0.0089
2724.00,0.0091
2723.00,0.0092
2722.00,0.0091
2721.00,0.0089
2720.00,0.0086
2719.00,0.0082
2718.00,0.0079
2717.00,0.0076
2716.00,0.0073
2715.00,0.0070
2714.00,0.0068
2713.00,0.0065
2712.00,0.0063
2711.00,0.0060
2710.00,0.0058
2709.00,0.0057
2708.00,0.0055
2707.00,0.0054
2706.00,0.0053
2705.00,0.0052
2704.00,0.0051
2703.00,0.0050
2702.00,0.0049
2701.00,0.0049
2700.00,0.0048
2699.00,0.0048
2698.00,0.0047
2697.00,0.0047
2696.00,0.0046
2695.00,0.0046
2694.00,0.0046
2693.00,0.0046
2692.00,0.0046
2691.00,0.0046
2690.00,0.0046
2689.00,0.0046
2688.00,0.0046
2687.00,0.0046
2686.00,0.0046
2685.00,0.0046
2684.00,0.0046
2683.00,0.0046
2682.00,0.0046
2681.00,0.0046
2680.00,0.0046
2679.00,0.0046
2678.00,0.0046
2677.00,0.0047
2676.00,0.0047
2675.00,0.0046
2674.00,0.0046
2673.00,0.0045
2672.00,0.0044
2671.00,0.0044
2670.00,0.0044
2669.00,0.0045
2668.00,0.0045
2667.00,0.0046
2666.00,0.0046
2665.00,0.0046
2664.00,0.0047
2663.00,0.0047
2662.00,0.0047
2661.00,0.0047
2660.00,0.0047
2659.00,0.0048
2658.00,0.0048
2657.00,0.0047
2656.00,0.0047
2655.00,0.0046
2654.00,0.0046
2653.00,0.0045
2652.00,0.0045
2651.00,0.0044
2650.00,0.0044
2649.00,0.0044
2648.00,0.0043
2647.00,0.0043
2646.00,0.0042
2645.00,0.0042
2644.00,0.0042
2643.00,0.0041
2642.00,0.0041
2641.00,0.0041
2640.00,0.0040
2639.00,0.0040
2638.00,0.0040
2637.00,0.0040
2636.00,0.0040
2635.00,0.0040
2634.00,0.0040
2633.00,0.0040
2632.00,0.0040
2631.00,0.0040
2630.00,0.0040
2629.00,0.0040
2628.00,0.0041
2627.00,0.0041
2626.00,0.0041
2625.00,0.0041
2624.00,0.0041
2623.00,0.0042
2622.00,0.0042
2621.00,0.0043
2620.00,0.0044
2619.00,0.0044
2618.00,0.0044
2617.00,0.0043
2616.00,0.0043
2615.00,0.0042
2614.00,0.0042
2613.00,0.0041
2612.00,0.0041
2611.00,0.0040
2610.00,0.0039
2609.00,0.0038
2608.00,0.0037
2607.00,0.0037
2606.00,0.0037
2605.00,0.0036
2604.00,0.0036
2603.00,0.0035
2602.00,0.0034
2601.00,0.0034
2600.00,0.0033
2599.00,0.0033
2598.00,0.0033
2597.00,0.0033
2596.00,0.0033
2595.00,0.0033
2594.00,0.0033
2593.00,0.0033
2592.00,0.0034
2591.00,0.0035
2590.00,0.0036
2589.00,0.0038
2588.00,0.0039
2587.00,0.0040
2586.00,0.0041
2585.00,0.0041
2584.00,0.0041
2583.00,0.0042
2582.00,0.0042
2581.00,0.0042
2580.00,0.0042
2579.00,0.0041
2578.00,0.0040
2577.00,0.0039
2576.00,0.0038
2575.00,0.0037
2574.00,0.0035
2573.00,0.0034
2572.00,0.0032
2571.00,0.0031
2570.00,0.0030
2569.00,0.0029
2568.00,0.0029
2567.00,0.0029
2566.00,0.0028
2565.00,0.0028
2564.00,0.0028
2563.00,0.0027
2562.00,0.0027
2561.00,0.0027
2560.00,0.0026
2559.00,0.0026
2558.00,0.0025
2557.00,0.0025
2556.00,0.0024
2555.00,0.0024
2554.00,0.0024
2553.00,0.0024
2552.00,0.0025
2551.00,0.0024
2550.00,0.0024
2549.00,0.0023
2548.00,0.0023
2547.00,0.0022
2546.00,0.0022
2545.00,0.0022
2544.00,0.0021
2543.00,0.0021
2542.00,0.0020
2541.00,0.0020
2540.00,0.0020
2539.00,0.0020
2538.00,0.0020
2537.00,0.0019
2536.00,0.0019
2535.00,0.0018
2534.00,0.0017
2533.00,0.0017
2532.00,0.0016
2531.00,0.0016
2530.00,0.0016
2529.00,0.0016
2528.00,0.0016
2527.00,0.0016
2526.00,0.0016
2525.00,0.0016
2524.00,0.0016
2523.00,0.0015
2522.00,0.0015
2521.00,0.0015
2520.00,0.0015
2519.00,0.0015
2518.00,0.0015
2517.00,0.0015
2516.00,0.0015
2515.00,0.0015
2514.00,0.0014
2513.00,0.0014
2512.00,0.0013
2511.00,0.0013
2510.00,0.0012
2509.00,0.0011
2508.00,0.0010
2507.00,0.0010
2506.00,0.0011
2505.00,0.0011
2504.00,0.0012
2503.00,0.0013
2502.00,0.0013
2501.00,0.0013
2500.00,0.0013
2499.00,0.0013
2498.00,0.0013
2497.00,0.0012
2496.00,0.0012
2495.00,0.0012
2494.00,0.0013
2493.00,0.0013
2492.00,0.0013
2491.00,0.0013
2490.00,0.0013
2489.00,0.0013
2488.00,0.0013
2487.00,0.0013
2486.00,0.0012
2485.00,0.0012
2484.00,0.0012
2483.00,0.0011
2482.00,0.0011
2481.00,0.0011
2480.00,0.0011
2479.00,0.0011
2478.00,0.0011
2477.00,0.0010
2476.00,0.0010
2475.00,0.0011
2474.00,0.0011
2473.00,0.0012
2472.00,0.0012
2471.00,0.0012
2470.00,0.0011
2469.00,0.0011
2468.00,0.0012
2467.00,0.0011
2466.00,0.0011
2465.00,0.0011
2464.00,0.0011
2463.00,0.0011
2462.00,0.0012
2461.00,0.0013
2460.00,0.0013
2459.00,0.0013
2458.00,0.0013
2457.00,0.0013
2456.00,0.0013
2455.00,0.0013
2454.00,0.0013
2453.00,0.0013
2452.00,0.0014
2451.00,0.0014
2450.00,0.0014
2449.00,0.0014
2448.00,0.0013
2447.00,0.0013
2446.00,0.0012
2445.00,0.0012
2444.00,0.0013
2443.00,0.0013
2442.00,0.0014
2441.00,0.0014
2440.00,0.0014
2439.00,0.0014
2438.00,0.0015
2437.00,0.0015
2436.00,0.0015
2435.00,0.0016
2434.00,0.0015
2433.00,0.0015
2432.00,0.0015
2431.00,0.0015
2430.00,0.0014
2429.00,0.0014
2428.00,0.0014
2427.00,0.0014
2426.00,0.0014
2425.00,0.0015
2424.00,0.0015
2423.00,0.0015
2422.00,0.0014
2421.00,0.0014
2420.00,0.0013
2419.00,0.0012
2418.00,0.0012
2417.00,0.0011
2416.00,0.0012
2415.00,0.0012
2414.00,0.0012
2413.00,0.0013
2412.00,0.0013
2411.00,0.0013
2410.00,0.0013
2409.00,0.0013
2408.00,0.0012
2407.00,0.0012
2406.00,0.0011
2405.00,0.0011
2404.00,0.0011
2403.00,0.0011
2402.00,0.0011
2401.00,0.0011
2400.00,0.0011
2399.00,0.0011
2398.00,0.0012
2397.00,0.0012
2396.00,0.0012
2395.00,0.0012
2394.00,0.0011
2393.00,0.0011
2392.00,0.0011
2391.00,0.0010
2390.00,0.0010
2389.00,0.0010
2388.00,0.0009
2387.00,0.0009
2386.00,0.0008
2385.00,0.0007
2384.00,0.0007
2383.00,0.0006
2382.00,0.0005
2381.00,0.0004
2380.00,0.0004
2379.00,0.0003
2378.00,0.0003
2377.00,0.0003
2376.00,0.0003
2375.00,0.0004
2374.00,0.0004
2373.00,0.0004
2372.00,0.0004
2371.00,0.0005
2370.00,0.0005
2369.00,0.0004
2368.00,0.0002
2367.00,0.0002
2366.00,0.0002
2365.00,0.0003
2364.00,0.0004
2363.00,0.0004
2362.00,0.0005
2361.00,0.0005
2360.00,0.0005
2359.00,0.0004
2358.00,0.0004
2357.00,0.0004
2356.00,0.0004
2355.00,0.0005
2354.00,0.0005
2353.00,0.0005
2352.00,0.0004
2351.00,0.0003
2350.00,0.0004
2349.00,0.0004
2348.00,0.0005
2347.00,0.0006
2346.00,0.0006
2345.00,0.0006
2344.00,0.0006
2343.00,0.0007
2342.00,0.0007
2341.00,0.0007
2340.00,0.0007
2339.00,0.0006
2338.00,0.0006
2337.00,0.0006
2336.00,0.0006
2335.00,0.0006
2334.00,0.0007
2333.00,0.0007
2332.00,0.0007
2331.00,0.0006
2330.00,0.0005
2329.00,0.0005
2328.00,0.0007
2327.00,0.0010
2326.00,0.0014
2325.00,0.0019
2324.00,0.0021
2323.00,0.0020
2322.00,0.0019
2321.00,0.0017
2320.00,0.0015
2319.00,0.0014
2318.00,0.0013
2317.00,0.0012
2316.00,0.0011
2315.00,0.0011
2314.00,0.0010
2313.00,0.0009
2312.00,0.0008
2311.00,0.0008
2310.00,0.0008
2309.00,0.0008
2308.00,0.0008
2307.00,0.0009
2306.00,0.0009
2305.00,0.0009
2304.00,0.0009
2303.00,0.0010
2302.00,0.0010
2301.00,0.0010
2300.00,0.0010
2299.00,0.0010
2298.00,0.0010
2297.00,0.0011
2296.00,0.0012
2295.00,0.0013
2294.00,0.0014
2293.00,0.0014
2292.00,0.0015
2291.00,0.0016
2290.00,0.0017
2289.00,0.0018
2288.00,0.0018
2287.00,0.0019
2286.00,0.0019
2285.00,0.0019
2284.00,0.0019
2283.00,0.0019
2282.00,0.0018
2281.00,0.0018
2280.00,0.0018
2279.00,0.0017
2278.00,0.0017
2277.00,0.0017
2276.00,0.0017
2275.00,0.0017
2274.00,0.0017
2273.00,0.0016
2272.00,0.0016
2271.00,0.0015
2270.00,0.0016
2269.00,0.0016
2268.00,0.0017
2267.00,0.0017
2266.00,0.0017
2265.00,0.0017
2264.00,0.0017
2263.00,0.0016
2262.00,0.0015
2261.00,0.0015
2260.00,0.0016
2259.00,0.0017
2258.00,0.0017
2257.00,0.0016
2256.00,0.0014
2255.00,0.0012
2254.00,0.0010
2253.00,0.0009
2252.00,0.0009
2251.00,0.0009
2250.00,0.0010
2249.00,0.0012
2248.00,0.0013
2247.00,0.0014
2246.00,0.0014
2245.00,0.0013
2244.00,0.0012
2243.00,0.0010
2242.00,0.0009
2241.00,0.0008
2240.00,0.0009
2239.00,0.0010
2238.00,0.0010
2237.00,0.0010
2236.00,0.0011
2235.00,0.0011
2234.00,0.0012
2233.00,0.0013
2232.00,0.0014
2231.00,0.0014
2230.00,0.0013
2229.00,0.0011
2228.00,0.0009
2227.00,0.0008
2226.00,0.0008
2225.00,0.0009
2224.00,0.0010
2223.00,0.0011
2222.00,0.0012
2221.00,0.0012
2220.00,0.0013
2219.00,0.0013
2218.00,0.0012
2217.00,0.0010
2216.00,0.0010
2215.00,0.0010
2214.00,0.0010
2213.00,0.0011
2212.00,0.0011
2211.00,0.0010
2210.00,0.0009
2209.00,0.0007
2208.00,0.0006
2207.00,0.0004
2206.00,0.0003
2205.00,0.0004
2204.00,0.0004
2203.00,0.0005
2202.00,0.0005
2201.00,0.0006
2200.00,0.0008
2199.00,0.0010
2198.00,0.0011
2197.00,0.0011
2196.00,0.0011
2195.00,0.0011
2194.00,0.0011
2193.00,0.0012
2192.00,0.0014
2191.00,0.0014
2190.00,0.0014
2189.00,0.0013
2188.00,0.0013
2187.00,0.0013
2186.00,0.0014
2185.00,0.0014
2184.00,0.0012
2183.00,0.0009
2182.00,0.0007
2181.00,0.0005
2180.00,0.0005
2179.00,0.0007
2178.00,0.0008
2177.00,0.0008
2176.00,0.0006
2175.00,0.0004
2174.00,0.0002
2173.00,0.0002
2172.00,0.0004
2171.00,0.0007
2170.00,0.0012
2169.00,0.0017
2168.00,0.0020
2167.00,0.0021
2166.00,0.0021
2165.00,0.0021
2164.00,0.0022
2163.00,0.0023
2162.00,0.0021
2161.00,0.0016
2160.00,0.0003
2159.00,-0.0014
2158.00,-0.0028
2157.00,-0.0035
2156.00,-0.0034
2155.00,-0.0030
2154.00,-0.0026
2153.00,-0.0022
2152.00,-0.0018
2151.00,-0.0015
2150.00,-0.0014
2149.00,-0.0012
2148.00,-0.0011
2147.00,-0.0012
2146.00,-0.0013
2145.00,-0.0013
2144.00,-0.0013
2143.00,-0.0012
2142.00,-0.0012
2141.00,-0.0013
2140.00,-0.0014
2139.00,-0.0012
2138.00,-0.0010
2137.00,-0.0008
2136.00,-0.0010
2135.00,-0.0013
2134.00,-0.0016
2133.00,-0.0017
2132.00,-0.0016
2131.00,-0.0015
2130.00,-0.0013
2129.00,-0.0010
2128.00,-0.0007
2127.00,-0.0006
2126.00,-0.0005
2125.00,-0.0004
2124.00,-0.0003
2123.00,-0.0002
2122.00,-0.0001
2121.00,-0.0000
2120.00,-0.0000
2119.00,0.0000
2118.00,0.0000
2117.00,0.0001
2116.00,0.0002
2115.00,0.0002
2114.00,0.0001
2113.00,0.0001
2112.00,0.0001
2111.00,0.0001
2110.00,0.0002
2109.00,0.0003
2108.00,0.0004
2107.00,0.0005
2106.00,0.0005
2105.00,0.0005
2104.00,0.0005
2103.00,0.0005
2102.00,0.0005
2101.00,0.0004
2100.00,0.0004
2099.00,0.0004
2098.00,0.0003
2097.00,0.0001
2096.00,-0.0001
2095.00,-0.0003
2094.00,-0.0003
2093.00,-0.0002
2092.00,-0.0000
2091.00,0.0001
2090.00,0.0002
2089.00,0.0002
2088.00,0.0001
2087.00,0.0001
2086.00,0.0002
2085.00,0.0002
2084.00,0.0002
2083.00,0.0002
2082.00,0.0002
2081.00,0.0002
2080.00,0.0001
2079.00,0.0000
2078.00,-0.0001
2077.00,-0.0001
2076.00,0.0000
2075.00,0.0001
2074.00,0.0002
2073.00,0.0003
2072.00,0.0004
2071.00,0.0003
2070.00,0.0002
2069.00,0.0001
2068.00,0.0001
2067.00,0.0001
2066.00,0.0000
2065.00,-0.0000
2064.00,-0.0000
2063.00,0.0000
2062.00,0.0001
2061.00,0.0001
2060.00,0.0001
2059.00,0.0001
2058.00,0.0002
2057.00,0.0002
2056.00,0.0002
2055.00,0.0002
2054.00,0.0002
2053.00,0.0006
2052.00,0.0011
2051.00,0.0014
2050.00,0.0013
2049.00,0.0009
2048.00,0.0004
2047.00,0.0002
2046.00,0.0002
2045.00,0.0002
2044.00,0.0003
2043.00,0.0005
2042.00,0.0008
2041.00,0.0011
2040.00,0.0011
2039.00,0.0009
2038.00,0.0007
2037.00,0.0007
2036.00,0.0006
2035.00,0.0003
2034.00,-0.0001
2033.00,-0.0005
2032.00,-0.0007
2031.00,-0.0008
2030.00,-0.0007
2029.00,-0.0004
2028.00,-0.0000
2027.00,0.0000
2026.00,-0.0001
2025.00,-0.0003
2024.00,-0.0005
2023.00,-0.0007
2022.00,-0.0009
2021.00,-0.0011
2020.00,-0.0013
2019.00,-0.0014
2018.00,-0.0015
2017.00,-0.0014
2016.00,-0.0011
2015.00,-0.0009
2014.00,-0.0009
2013.00,-0.0009
2012.00,-0.0008
2011.00,-0.0008
2010.00,-0.0008
2009.00,-0.0008
2008.00,-0.0011
2007.00,-0.0015
2006.00,-0.0019
2005.00,-0.0020
2004.00,-0.0019
2003.00,-0.0019
2002.00,-0.0020
2001.00,-0.0019
2000.00,-0.0015
1999.00,-0.0011
1998.00,-0.0007
1997.00,-0.0006
1996.00,-0.0006
1995.00,-0.0007
1994.00,-0.0009
1993.00,-0.0010
1992.00,-0.0011
1991.00,-0.0010
1990.00,-0.0008
1989.00,-0.0003
1988.00,0.0002
1987.00,0.0006
1986.00,0.0007
1985.00,0.0007
1984.00,0.0007
1983.00,0.0007
1982.00,0.0007
1981.00,0.0007
1980.00,0.0006
1979.00,0.0003
1978.00,-0.0002
1977.00,-0.0006
1976.00,-0.0009
1975.00,-0.0010
1974.00,-0.0010
1973.00,-0.0010
1972.00,-0.0010
1971.00,-0.0011
1970.00,-0.0013
1969.00,-0.0013
1968.00,-0.0011
1967.00,-0.0009
1966.00,-0.0008
1965.00,-0.0007
1964.00,-0.0008
1963.00,-0.0009
1962.00,-0.0011
1961.00,-0.0013
1960.00,-0.0016
1959.00,-0.0017
1958.00,-0.0017
1957.00,-0.0015
1956.00,-0.0012
1955.00,-0.0009
1954.00,-0.0009
1953.00,-0.0010
1952.00,-0.0012
1951.00,-0.0013
1950.00,-0.0014
1949.00,-0.0014
1948.00,-0.0014
1947.00,-0.0014
1946.00,-0.0014
1945.00,-0.0014
1944.00,-0.0014
1943.00,-0.0015
1942.00,-0.0015
1941.00,-0.0015
1940.00,-0.0014
1939.00,-0.0013
1938.00,-0.0011
1937.00,-0.0009
1936.00,-0.0008
1935.00,-0.0008
1934.00,-0.0009
1933.00,-0.0009
1932.00,-0.0008
1931.00,-0.0008
1930.00,-0.0008
1929.00,-0.0006
1928.00,-0.0005
1927.00,-0.0004
1926.00,-0.0005
1925.00,-0.0005
1924.00,-0.0005
1923.00,-0.0004
1922.00,-0.0003
1921.00,-0.0002
1920.00,-0.0001
1919.00,-0.0001
1918.00,-0.0001
1917.00,-0.0002
1916.00,-0.0002
1915.00,-0.0002
1914.00,-0.0001
1913.00,-0.0000
1912.00,0.0001
1911.00,0.0002
1910.00,0.0001
1909.00,0.0000
1908.00,-0.0001
1907.00,-0.0002
1906.00,-0.0002
1905.00,-0.0001
1904.00,-0.0001
1903.00,-0.0001
1902.00,-0.0002
1901.00,-0.0003
1900.00,-0.0003
1899.00,-0.0003
1898.00,-0.0002
1897.00,0.0000
1896.00,0.0002
1895.00,0.0003
1894.00,0.0003
1893.00,0.0002
1892.00,0.0002
1891.00,0.0002
1890.00,0.0002
1889.00,0.0002
1888.00,0.0001
1887.00,0.0000
1886.00,0.0000
1885.00,-0.0000
1884.00,-0.0000
1883.00,-0.0001
1882.00,-0.0001
1881.00,-0.0000
1880.00,0.0000
1879.00,0.0000
1878.00,-0.0000
1877.00,-0.0001
1876.00,-0.0001
1875.00,-0.0000
1874.00,-0.0000
1873.00,-0.0000
1872.00,-0.0000
1871.00,-0.0001
1870.00,-0.0002
1869.00,-0.0002
1868.00,-0.0001
1867.00,-0.0000
1866.00,0.0000
1865.00,0.0001
1864.00,0.0001
1863.00,0.0002
1862.00,0.0002
1861.00,0.0002
1860.00,0.0003
1859.00,0.0002
1858.00,0.0002
1857.00,0.0003
1856.00,0.0003
1855.00,0.0002
1854.00,0.0002
1853.00,0.0002
1852.00,0.0002
1851.00,0.0002
1850.00,0.0001
1849.00,0.0002
1848.00,0.0002
1847.00,0.0003
1846.00,0.0003
1845.00,0.0002
1844.00,0.0002
1843.00,0.0001
1842.00,0.0001
1841.00,0.0001
1840.00,0.0001
1839.00,0.0001
1838.00,0.0002
1837.00,0.0002
1836.00,0.0003
1835.00,0.0003
1834.00,0.0004
1833.00,0.0004
1832.00,0.0005
1831.00,0.0006
1830.00,0.0007
1829.00,0.0007
1828.00,0.0006
1827.00,0.0006
1826.00,0.0005
1825.00,0.0005
1824.00,0.0005
1823.00,0.0004
1822.00,0.0004
1821.00,0.0003
1820.00,0.0003
1819.00,0.0003
1818.00,0.0002
1817.00,0.0002
1816.00,0.0002
1815.00,0.0003
1814.00,0.0004
1813.00,0.0004
1812.00,0.0004
1811.00,0.0004
1810.00,0.0004
1809.00,0.0004
1808.00,0.0004
1807.00,0.0005
1806.00,0.0005
1805.00,0.0004
1804.00,0.0005
1803.00,0.0005
1802.00,0.0006
1801.00,0.0007
1800.00,0.0008
1799.00,0.0008
1798.00,0.0008
1797.00,0.0008
1796.00,0.0008
1795.00,0.0008
1794.00,0.0008
1793.00,0.0008
1792.00,0.0008
1791.00,0.0008
1790.00,0.0008
1789.00,0.0008
1788.00,0.0008
1787.00,0.0008
1786.00,0.0008
1785.00,0.0008
1784.00,0.0008
1783.00,0.0008
1782.00,0.0008
1781.00,0.0008
1780.00,0.0008
1779.00,0.0008
1778.00,0.0007
1777.00,0.0006
1776.00,0.0006
1775.00,0.0005
1774.00,0.0005
1773.00,0.0006
1772.00,0.0008
1771.00,0.0009
1770.00,0.0010
1769.00,0.0010
1768.00,0.0011
1767.00,0.0011
1766.00,0.0011
1765.00,0.0011
1764.00,0.0011
1763.00,0.0011
1762.00,0.0011
1761.00,0.0011
1760.00,0.0011
1759.00,0.0011
1758.00,0.0011
1757.00,0.0012
1756.00,0.0012
1755.00,0.0012
1754.00,0.0012
1753.00,0.0012
1752.00,0.0012
1751.00,0.0012
1750.00,0.0013
1749.00,0.0014
1748.00,0.0014
1747.00,0.0014
1746.00,0.0014
1745.00,0.0014
1744.00,0.0015
1743.00,0.0015
1742.00,0.0016
1741.00,0.0017
1740.00,0.0017
1739.00,0.0017
1738.00,0.0018
1737.00,0.0018
1736.00,0.0018
1735.00,0.0018
1734.00,0.0018
1733.00,0.0019
1732.00,0.0019
1731.00,0.0020
1730.00,0.0020
1729.00,0.0020
1728.00,0.0020
1727.00,0.0019
1726.00,0.0019
1725.00,0.0018
1724.00,0.0019
1723.00,0.0019
1722.00,0.0019
1721.00,0.0020
1720.00,0.0021
1719.00,0.0021
1718.00,0.0021
1717.00,0.0021
1716.00,0.0021
1715.00,0.0022
1714.00,0.0023
1713.00,0.0023
1712.00,0.0024
1711.00,0.0024
1710.00,0.0024
1709.00,0.0024
1708.00,0.0024
1707.00,0.0025
1706.00,0.0026
1705.00,0.0027
1704.00,0.0028
1703.00,0.0028
1702.00,0.0027
1701.00,0.0027
1700.00,0.0028
1699.00,0.0028
1698.00,0.0028
1697.00,0.0028
1696.00,0.0030
1695.00,0.0032
1694.00,0.0033
1693.00,0.0033
1692.00,0.0034
1691.00,0.0035
1690.00,0.0035
1689.00,0.0037
1688.00,0.0038
1687.00,0.0038
1686.00,0.0039
1685.00,0.0039
1684.00,0.0041
1683.00,0.0042
1682.00,0.0042
1681.00,0.0043
1680.00,0.0044
1679.00,0.0044
1678.00,0.0045
1677.00,0.0045
1676.00,0.0046
1675.00,0.0047
1674.00,0.0048
1673.00,0.0048
1672.00,0.0048
1671.00,0.0048
1670.00,0.0049
1669.00,0.0050
1668.00,0.0052
1667.00,0.0053
1666.00,0.0053
1665.00,0.0053
1664.00,0.0053
1663.00,0.0054
1662.00,0.0054
1661.00,0.0055
1660.00,0.0056
1659.00,0.0057
1658.00,0.0057
1657.00,0.0058
1656.00,0.0059
1655.00,0.0060
1654.00,0.0061
1653.00,0.0063
1652.00,0.0063
1651.00,0.0063
1650.00,0.0063
1649.00,0.0064
1648.00,0.0064
1647.00,0.0065
1646.00,0.0066
1645.00,0.0066
1644.00,0.0066
1643.00,0.0066
1642.00,0.0065
1641.00,0.0065
1640.00,0.0064
1639.00,0.0064
1638.00,0.0062
1637.00,0.0061
1636.00,0.0062
1635.00,0.0062
1634.00,0.0063
1633.00,0.0064
1632.00,0.0064
1631.00,0.0064
1630.00,0.0064
1629.00,0.0064
1628.00,0.0063
1627.00,0.0063
1626.00,0.0062
1625.00,0.0061
1624.00,0.0060
1623.00,0.0059
1622.00,0.0059
1621.00,0.0059
1620.00,0.0058
1619.00,0.0057
1618.00,0.0056
1617.00,0.0056
1616.00,0.0056
1615.00,0.0056
1614.00,0.0056
1613.00,0.0055
1612.00,0.0055
1611.00,0.0055
1610.00,0.0055
1609.00,0.0055
1608.00,0.0055
1607.00,0.0054
1606.00,0.0054
1605.00,0.0054
1604.00,0.0054
1603.00,0.0054
1602.00,0.0053
1601.00,0.0053
1600.00,0.0053
1599.00,0.0053
1598.00,0.0053
1597.00,0.0053
1596.00,0.0053
1595.00,0.0053
1594.00,0.0054
1593.00,0.0054
1592.00,0.0055
1591.00,0.0055
1590.00,0.0055
1589.00,0.0056
1588.00,0.0057
1587.00,0.0057
1586.00,0.0058
1585.00,0.0059
1584.00,0.0061
1583.00,0.0063
1582.00,0.0065
1581.00,0.0067
1580.00,0.0070
1579.00,0.0071
1578.00,0.0072
1577.00,0.0073
1576.00,0.0073
1575.00,0.0072
1574.00,0.0070
1573.00,0.0069
1572.00,0.0068
1571.00,0.0066
1570.00,0.0065
1569.00,0.0064
1568.00,0.0063
1567.00,0.0063
1566.00,0.0062
1565.00,0.0062
1564.00,0.0062
1563.00,0.0062
1562.00,0.0063
1561.00,0.0063
1560.00,0.0064
1559.00,0.0064
1558.00,0.0064
1557.00,0.0064
1556.00,0.0065
1555.00,0.0065
1554.00,0.0066
1553.00,0.0067
1552.00,0.0068
1551.00,0.0069
1550.00,0.0070
1549.00,0.0072
1548.00,0.0073
1547.00,0.0074
1546.00,0.0076
1545.00,0.0078
1544.00,0.0080
1543.00,0.0081
1542.00,0.0082
1541.00,0.0082
1540.00,0.0081
1539.00,0.0080
1538.00,0.0079
1537.00,0.0077
1536.00,0.0076
1535.00,0.0074
1534.00,0.0071
1533.00,0.0069
1532.00,0.0067
1531.00,0.0066
1530.00,0.0064
1529.00,0.0064
1528.00,0.0063
1527.00,0.0063
1526.00,0.0062
1525.00,0.0062
1524.00,0.0063
1523.00,0.0063
1522.00,0.0062
1521.00,0.0063
1520.00,0.0063
1519.00,0.0063
1518.00,0.0063
1517.00,0.0063
1516.00,0.0063
1515.00,0.0063
1514.00,0.0063
1513.00,0.0064
1512.00,0.0065
1511.00,0.0066
1510.00,0.0067
1509.00,0.0068
1508.00,0.0069
1507.00,0.0070
1506.00,0.0070
1505.00,0.0070
1504.00,0.0071
1503.00,0.0072
1502.00,0.0073
1501.00,0.0075
1500.00,0.0077
1499.00,0.0079
1498.00,0.0080
1497.00,0.0082
1496.00,0.0085
1495.00,0.0088
1494.00,0.0090
1493.00,0.0092
1492.00,0.0095
1491.00,0.0098
1490.00,0.0102
1489.00,0.0107
1488.00,0.0113
1487.00,0.0118
1486.00,0.0123
1485.00,0.0130
1484.00,0.0137
1483.00,0.0145
1482.00,0.0154
1481.00,0.0165
1480.00,0.0177
1479.00,0.0189
1478.00,0.0203
1477.00,0.0221
1476.00,0.0242
1475.00,0.0266
1474.00,0.0300
1473.00,0.0351
1472.00,0.0415
1471.00,0.0480
1470.00,0.0542
1469.00,0.0608
1468.00,0.0679
1467.00,0.0756
1466.00,0.0844
1465.00,0.0940
1464.00,0.1026
1463.00,0.1089
1462.00,0.1133
1461.00,0.1166
1460.00,0.1190
1459.00,0.1209
1458.00,0.1228
1457.00,0.1245
1456.00,0.1255
1455.00,0.1255
1454.00,0.1251
1453.00,0.1240
1452.00,0.1219
1451.00,0.1184
1450.00,0.1131
1449.00,0.1055
1448.00,0.0957
1447.00,0.0853
1446.00,0.0759
1445.00,0.0678
1444.00,0.0610
1443.00,0.0555
1442.00,0.0515
1441.00,0.0488
1440.00,0.0471
1439.00,0.0464
1438.00,0.0465
1437.00,0.0465
1436.00,0.0454
1435.00,0.0427
1434.00,0.0387
1433.00,0.0340
1432.00,0.0292
1431.00,0.0250
1430.00,0.0219
1429.00,0.0196
1428.00,0.0180
1427.00,0.0171
1426.00,0.0164
1425.00,0.0159
1424.00,0.0154
1423.00,0.0151
1422.00,0.0149
1421.00,0.0147
1420.00,0.0143
1419.00,0.0140
1418.00,0.0138
1417.00,0.0134
1416.00,0.0131
1415.00,0.0129
1414.00,0.0127
1413.00,0.0125
1412.00,0.0123
1411.00,0.0121
1410.00,0.0120
1409.00,0.0118
1408.00,0.0116
1407.00,0.0115
1406.00,0.0114
1405.00,0.0112
1404.00,0.0110
1403.00,0.0109
1402.00,0.0108
1401.00,0.0108
1400.00,0.0107
1399.00,0.0107
1398.00,0.0108
1397.00,0.0108
1396.00,0.0108
1395.00,0.0111
1394.00,0.0115
1393.00,0.0120
1392.00,0.0126
1391.00,0.0135
1390.00,0.0148
1389.00,0.0166
1388.00,0.0192
1387.00,0.0232
1386.00,0.0285
1385.00,0.0350
1384.00,0.0436
1383.00,0.0551
1382.00,0.0702
1381.00,0.0894
1380.00,0.1130
1379.00,0.1400
1378.00,0.1665
1377.00,0.1864
1376.00,0.1941
1375.00,0.1857
1374.00,0.1635
1373.00,0.1357
1372.00,0.1096
1371.00,0.0878
1370.00,0.0704
1369.00,0.0571
1368.00,0.0479
1367.00,0.0423
1366.00,0.0393
1365.00,0.0381
1364.00,0.0384
1363.00,0.0400
1362.00,0.0424
1361.00,0.0449
1360.00,0.0467
1359.00,0.0472
1358.00,0.0461
1357.00,0.0433
1356.00,0.0394
1355.00,0.0350
1354.00,0.0308
1353.00,0.0271
1352.00,0.0242
1351.00,0.0218
1350.00,0.0198
1349.00,0.0183
1348.00,0.0171
1347.00,0.0162
1346.00,0.0154
1345.00,0.0148
1344.00,0.0143
1343.00,0.0139
1342.00,0.0136
1341.00,0.0134
1340.00,0.0132
1339.00,0.0130
1338.00,0.0129
1337.00,0.0128
1336.00,0.0129
1335.00,0.0132
1334.00,0.0135
1333.00,0.0139
1332.00,0.0144
1331.00,0.0147
1330.00,0.0149
1329.00,0.0148
1328.00,0.0144
1327.00,0.0139
1326.00,0.0133
1325.00,0.0126
1324.00,0.0120
1323.00,0.0115
1322.00,0.0110
1321.00,0.0107
1320.00,0.0104
1319.00,0.0102
1318.00,0.0100
1317.00,0.0098
1316.00,0.0096
1315.00,0.0095
1314.00,0.0094
1313.00,0.0094
1312.00,0.0095
1311.00,0.0097
1310.00,0.0102
1309.00,0.0110
1308.00,0.0121
1307.00,0.0133
1306.00,0.0146
1305.00,0.0155
1304.00,0.0157
1303.00,0.0155
1302.00,0.0149
1301.00,0.0144
1300.00,0.0140
1299.00,0.0139
1298.00,0.0138
1297.00,0.0138
1296.00,0.0136
1295.00,0.0133
1294.00,0.0129
1293.00,0.0123
1292.00,0.0117
1291.00,0.0112
1290.00,0.0106
1289.00,0.0102
1288.00,0.0097
1287.00,0.0094
1286.00,0.0091
1285.00,0.0089
1284.00,0.0086
1283.00,0.0084
1282.00,0.0083
1281.00,0.0081
1280.00,0.0080
1279.00,0.0079
1278.00,0.0078
1277.00,0.0076
1276.00,0.0075
1275.00,0.0074
1274.00,0.0073
1273.00,0.0073
1272.00,0.0072
1271.00,0.0072
1270.00,0.0072
1269.00,0.0072
1268.00,0.0072
1267.00,0.0073
1266.00,0.0075
1265.00,0.0077
1264.00,0.0079
1263.00,0.0081
1262.00,0.0085
1261.00,0.0090
1260.00,0.0096
1259.00,0.0103
1258.00,0.0111
1257.00,0.0117
1256.00,0.0119
1255.00,0.0117
1254.00,0.0110
1253.00,0.0101
1252.00,0.0092
1251.00,0.0084
1250.00,0.0080
1249.00,0.0077
1248.00,0.0075
1247.00,0.0074
1246.00,0.0074
1245.00,0.0073
1244.00,0.0073
1243.00,0.0072
1242.00,0.0072
1241.00,0.0071
1240.00,0.0071
1239.00,0.0070
1238.00,0.0071
1237.00,0.0071
1236.00,0.0071
1235.00,0.0071
1234.00,0.0072
1233.00,0.0072
1232.00,0.0073
1231.00,0.0075
1230.00,0.0076
1229.00,0.0077
1228.00,0.0079
1227.00,0.0080
1226.00,0.0083
1225.00,0.0086
1224.00,0.0090
1223.00,0.0095
1222.00,0.0099
1221.00,0.0102
1220.00,0.0105
1219.00,0.0106
1218.00,0.0106
1217.00,0.0105
1216.00,0.0103
1215.00,0.0101
1214.00,0.0098
1213.00,0.0095
1212.00,0.0092
1211.00,0.0089
1210.00,0.0087
1209.00,0.0085
1208.00,0.0083
1207.00,0.0082
1206.00,0.0081
1205.00,0.0081
1204.00,0.0080
1203.00,0.0080
1202.00,0.0079
1201.00,0.0079
1200.00,0.0078
1199.00,0.0077
1198.00,0.0077
1197.00,0.0076
1196.00,0.0075
1195.00,0.0076
1194.00,0.0076
1193.00,0.0076
1192.00,0.0075
1191.00,0.0075
1190.00,0.0074
1189.00,0.0073
1188.00,0.0071
1187.00,0.0071
1186.00,0.0070
1185.00,0.0071
1184.00,0.0072
1183.00,0.0073
1182.00,0.0074
1181.00,0.0076
1180.00,0.0079
1179.00,0.0083
1178.00,0.0089
1177.00,0.0097
1176.00,0.0109
1175.00,0.0126
1174.00,0.0147
1173.00,0.0174
1172.00,0.0206
1171.00,0.0241
1170.00,0.0276
1169.00,0.0304
1168.00,0.0322
1167.00,0.0326
1166.00,0.0317
1165.00,0.0300
1164.00,0.0278
1163.00,0.0257
1162.00,0.0237
1161.00,0.0220
1160.00,0.0206
1159.00,0.0195
1158.00,0.0187
1157.00,0.0181
1156.00,0.0177
1155.00,0.0173
1154.00,0.0171
1153.00,0.0167
1152.00,0.0162
1151.00,0.0155
1150.00,0.0147
1149.00,0.0138
1148.00,0.0129
1147.00,0.0120
1146.00,0.0113
1145.00,0.0105
1144.00,0.0098
1143.00,0.0092
1142.00,0.0086
1141.00,0.0081
1140.00,0.0076
1139.00,0.0071
1138.00,0.0068
1137.00,0.0065
1136.00,0.0064
1135.00,0.0063
1134.00,0.0063
1133.00,0.0062
1132.00,0.0061
1131.00,0.0062
1130.00,0.0063
1129.00,0.0066
1128.00,0.0067
1127.00,0.0069
1126.00,0.0070
1125.00,0.0071
1124.00,0.0072
1123.00,0.0072
1122.00,0.0073
1121.00,0.0073
1120.00,0.0074
1119.00,0.0075
1118.00,0.0076
1117.00,0.0078
1116.00,0.0080
1115.00,0.0082
1114.00,0.0084
1113.00,0.0086
1112.00,0.0088
1111.00,0.0092
1110.00,0.0096
1109.00,0.0101
1108.00,0.0107
1107.00,0.0114
1106.00,0.0121
1105.00,0.0127
1104.00,0.0133
1103.00,0.0136
1102.00,0.0136
1101.00,0.0133
1100.00,0.0127
1099.00,0.0120
1098.00,0.0113
1097.00,0.0106
1096.00,0.0100
1095.00,0.0094
1094.00,0.0089
1093.00,0.0085
1092.00,0.0081
1091.00,0.0077
1090.00,0.0074
1089.00,0.0072
1088.00,0.0070
1087.00,0.0068
1086.00,0.0067
1085.00,0.0066
1084.00,0.0066
1083.00,0.0065
1082.00,0.0064
1081.00,0.0063
1080.00,0.0063
1079.00,0.0062
1078.00,0.0060
1077.00,0.0058
1076.00,0.0056
1075.00,0.0056
1074.00,0.0056
1073.00,0.0056
1072.00,0.0057
1071.00,0.0057
1070.00,0.0058
1069.00,0.0058
1068.00,0.0059
1067.00,0.0060
1066.00,0.0062
1065.00,0.0063
1064.00,0.0064
1063.00,0.0065
1062.00,0.0065
1061.00,0.0066
1060.00,0.0067
1059.00,0.0069
1058.00,0.0070
1057.00,0.0071
1056.00,0.0072
1055.00,0.0073
1054.00,0.0075
1053.00,0.0077
1052.00,0.0080
1051.00,0.0083
1050.00,0.0087
1049.00,0.0091
1048.00,0.0096
1047.00,0.0100
1046.00,0.0103
1045.00,0.0105
1044.00,0.0106
1043.00,0.0106
1042.00,0.0105
1041.00,0.0103
1040.00,0.0102
1039.00,0.0101
1038.00,0.0101
1037.00,0.0103
1036.00,0.0105
1035.00,0.0107
1034.00,0.0107
1033.00,0.0105
1032.00,0.0103
1031.00,0.0102
1030.00,0.0102
1029.00,0.0102
1028.00,0.0102
1027.00,0.0101
1026.00,0.0101
1025.00,0.0101
1024.00,0.0101
1023.00,0.0101
1022.00,0.0101
1021.00,0.0102
1020.00,0.0102
1019.00,0.0104
1018.00,0.0106
1017.00,0.0107
1016.00,0.0110
1015.00,0.0113
1014.00,0.0117
1013.00,0.0122
1012.00,0.0126
1011.00,0.0129
1010.00,0.0133
1009.00,0.0136
1008.00,0.0141
1007.00,0.0148
1006.00,0.0157
1005.00,0.0169
1004.00,0.0187
1003.00,0.0211
1002.00,0.0243
1001.00,0.0282
1000.00,0.0323
999.00,0.0357
998.00,0.0376
997.00,0.0370
996.00,0.0343
995.00,0.0301
994.00,0.0256
993.00,0.0215
992.00,0.0183
991.00,0.0160
990.00,0.0144
989.00,0.0133
988.00,0.0125
987.00,0.0121
986.00,0.0119
985.00,0.0120
984.00,0.0124
983.00,0.0130
982.00,0.0141
981.00,0.0157
980.00,0.0180
979.00,0.0209
978.00,0.0247
977.00,0.0291
976.00,0.0339
975.00,0.0385
974.00,0.0420
973.00,0.0433
972.00,0.0418
971.00,0.0377
970.00,0.0320
969.00,0.0261
968.00,0.0209
967.00,0.0170
966.00,0.0142
965.00,0.0121
964.00,0.0107
963.00,0.0095
962.00,0.0086
961.00,0.0078
960.00,0.0071
959.00,0.0065
958.00,0.0060
957.00,0.0056
956.00,0.0053
955.00,0.0051
954.00,0.0050
953.00,0.0049
952.00,0.0049
951.00,0.0049
950.00,0.0049
949.00,0.0049
948.00,0.0049
947.00,0.0050
946.00,0.0053
945.00,0.0056
944.00,0.0060
943.00,0.0065
942.00,0.0069
941.00,0.0071
940.00,0.0071
939.00,0.0069
938.00,0.0066
937.00,0.0063
936.00,0.0061
935.00,0.0059
934.00,0.0058
933.00,0.0057
932.00,0.0056
931.00,0.0055
930.00,0.0054
929.00,0.0055
928.00,0.0055
927.00,0.0057
926.00,0.0059
925.00,0.0061
924.00,0.0062
923.00,0.0063
922.00,0.0064
921.00,0.0065
920.00,0.0066
919.00,0.0068
918.00,0.0069
917.00,0.0070
916.00,0.0070
915.00,0.0070
914.00,0.0071
913.00,0.0073
912.00,0.0075
911.00,0.0077
910.00,0.0080
909.00,0.0082
908.00,0.0083
907.00,0.0086
906.00,0.0092
905.00,0.0102
904.00,0.0117
903.00,0.0136
902.00,0.0157
901.00,0.0176
900.00,0.0189
899.00,0.0193
898.00,0.0187
897.00,0.0172
896.00,0.0152
895.00,0.0132
894.00,0.0114
893.00,0.0101
892.00,0.0093
891.00,0.0087
890.00,0.0083
889.00,0.0080
888.00,0.0076
887.00,0.0074
886.00,0.0073
885.00,0.0072
884.00,0.0073
883.00,0.0073
882.00,0.0074
881.00,0.0074
880.00,0.0076
879.00,0.0077
878.00,0.0078
877.00,0.0079
876.00,0.0079
875.00,0.0079
874.00,0.0079
873.00,0.0079
872.00,0.0078
871.00,0.0078
870.00,0.0078
869.00,0.0078
868.00,0.0078
867.00,0.0079
866.00,0.0079
865.00,0.0080
864.00,0.0081
863.00,0.0082
862.00,0.0082
861.00,0.0083
860.00,0.0085
859.00,0.0088
858.00,0.0090
857.00,0.0091
856.00,0.0090
855.00,0.0090
854.00,0.0092
853.00,0.0095
852.00,0.0100
851.00,0.0106
850.00,0.0112
849.00,0.0120
848.00,0.0130
847.00,0.0146
846.00,0.0170
845.00,0.0207
844.00,0.0257
843.00,0.0311
842.00,0.0352
841.00,0.0362
840.00,0.0338
839.00,0.0291
838.00,0.0240
837.00,0.0198
836.00,0.0170
835.00,0.0152
834.00,0.0141
833.00,0.0132
832.00,0.0126
831.00,0.0121
830.00,0.0118
829.00,0.0115
828.00,0.0112
827.00,0.0111
826.00,0.0111
825.00,0.0112
824.00,0.0111
823.00,0.0110
822.00,0.0109
821.00,0.0110
820.00,0.0112
819.00,0.0115
818.00,0.0119
817.00,0.0124
816.00,0.0131
815.00,0.0142
814.00,0.0156
813.00,0.0172
812.00,0.0189
811.00,0.0204
810.00,0.0215
809.00,0.0220
808.00,0.0218
807.00,0.0210
806.00,0.0197
805.00,0.0182
804.00,0.0166
803.00,0.0152
802.00,0.0139
801.00,0.0130
800.00,0.0124
799.00,0.0119
798.00,0.0115
797.00,0.0111
796.00,0.0106
795.00,0.0102
794.00,0.0098
793.00,0.0094
792.00,0.0090
791.00,0.0087
790.00,0.0086
789.00,0.0086
788.00,0.0085
787.00,0.0084
786.00,0.0081
785.00,0.0078
784.00,0.0074
783.00,0.0070
782.00,0.0068
781.00,0.0067
780.00,0.0066
779.00,0.0066
778.00,0.0067
777.00,0.0068
776.00,0.0070
775.00,0.0072
774.00,0.0074
773.00,0.0076
772.00,0.0079
771.00,0.0082
770.00,0.0084
769.00,0.0086
768.00,0.0087
767.00,0.0086
766.00,0.0085
765.00,0.0083
764.00,0.0082
763.00,0.0080
762.00,0.0078
761.00,0.0075
760.00,0.0071
759.00,0.0068
758.00,0.0066
757.00,0.0064
756.00,0.0062
755.00,0.0061
754.00,0.0060
753.00,0.0058
752.00,0.0057
751.00,0.0056
750.00,0.0055
749.00,0.0054
748.00,0.0054
747.00,0.0056
746.00,0.0058
745.00,0.0060
744.00,0.0061
743.00,0.0062
742.00,0.0062
741.00,0.0063
740.00,0.0064
739.00,0.0066
738.00,0.0067
737.00,0.0067
736.00,0.0068
735.00,0.0068
734.00,0.0069
733.00,0.0069
732.00,0.0068
731.00,0.0067
730.00,0.0067
729.00,0.0067
728.00,0.0067
727.00,0.0068
726.00,0.0070
725.00,0.0071
724.00,0.0071
723.00,0.0070
722.00,0.0069
721.00,0.0066
720.00,0.0064
719.00,0.0063
718.00,0.0062
717.00,0.0062
716.00,0.0062
715.00,0.0063
714.00,0.0063
713.00,0.0063
712.00,0.0063
711.00,0.0062
710.00,0.0061
709.00,0.0061
708.00,0.0060
707.00,0.0060
706.00,0.0059
705.00,0.0060
704.00,0.0060
703.00,0.0060
702.00,0.0060
701.00,0.0059
700.00,0.0059
699.00,0.0059
698.00,0.0060
697.00,0.0061
696.00,0.0061
695.00,0.0061
694.00,0.0059
693.00,0.0057
692.00,0.0055
691.00,0.0054
690.00,0.0055
689.00,0.0057
688.00,0.0059
687.00,0.0060
686.00,0.0061
685.00,0.0061
684.00,0.0062
683.00,0.0063
682.00,0.0062
681.00,0.0061
680.00,0.0057
679.00,0.0054
678.00,0.0054
677.00,0.0056
676.00,0.0059
675.00,0.0062
674.00,0.0064
673.00,0.0064
672.00,0.0063
671.00,0.0063
670.00,0.0064
669.00,0.0064
668.00,0.0064
667.00,0.0065
666.00,0.0063
665.00,0.0062
664.00,0.0062
663.00,0.0063
662.00,0.0063
661.00,0.0063
660.00,0.0063
659.00,0.0062
658.00,0.0061
657.00,0.0059
656.00,0.0056
655.00,0.0054
654.00,0.0054
653.00,0.0055
652.00,0.0057
651.00,0.0058
650.00,0.0058
649.00,0.0058
648.00,0.0058
647.00,0.0058
646.00,0.0058
645.00,0.0058
644.00,0.0058
643.00,0.0059
642.00,0.0061
641.00,0.0063
640.00,0.0063
639.00,0.0062
638.00,0.0061
637.00,0.0060
636.00,0.0061
635.00,0.0062
634.00,0.0063
633.00,0.0063
632.00,0.0063
631.00,0.0062
630.00,0.0064
629.00,0.0065
628.00,0.0065
627.00,0.0064
626.00,0.0062
625.00,0.0062
624.00,0.0063
623.00,0.0063
622.00,0.0062
621.00,0.0062
620.00,0.0062
619.00,0.0063
618.00,0.0065
617.00,0.0069
616.00,0.0072
615.00,0.0072
614.00,0.0071
613.00,0.0068
612.00,0.0067
611.00,0.0067
610.00,0.0069
609.00,0.0073
608.00,0.0076
607.00,0.0077
606.00,0.0076
605.00,0.0075
604.00,0.0074
603.00,0.0075
602.00,0.0076
601.00,0.0075
600.00,0.0072
599.00,0.0068
598.00,0.0065
597.00,0.0063
596.00,0.0062
595.00,0.0061
594.00,0.0061
593.00,0.0061
592.00,0.0061
591.00,0.0061
590.00,0.0063
589.00,0.0065
588.00,0.0069
587.00,0.0072
586.00,0.0073
585.00,0.0073
584.00,0.0074
583.00,0.0074
582.00,0.0073
581.00,0.0069
580.00,0.0064
579.00,0.0060
578.00,0.0060
577.00,0.0063
576.00,0.0066
575.00,0.0067
574.00,0.0067
573.00,0.0065
572.00,0.0063
571.00,0.0062
570.00,0.0062
569.00,0.0065
568.00,0.0068
567.00,0.0071
566.00,0.0073
565.00,0.0073
564.00,0.0074
563.00,0.0076
562.00,0.0077
561.00,0.0076
560.00,0.0075
559.00,0.0073
558.00,0.0073
557.00,0.0072
556.00,0.0070
555.00,0.0067
554.00,0.0062
553.00,0.0060
552.00,0.0060
551.00,0.0065
550.00,0.0071
549.00,0.0075
548.00,0.0076
547.00,0.0075
546.00,0.0075
545.00,0.0075
544.00,0.0074
543.00,0.0071
542.00,0.0070
541.00,0.0071
540.00,0.0075
539.00,0.0078
538.00,0.0079
537.00,0.0081
536.00,0.0084
535.00,0.0087
534.00,0.0090
533.00,0.0093
532.00,0.0097
531.00,0.0102
530.00,0.0103
529.00,0.0100
528.00,0.0094
527.00,0.0087
526.00,0.0082
525.00,0.0078
524.00,0.0077
523.00,0.0077
522.00,0.0078
521.00,0.0078
520.00,0.0078
519.00,0.0082
518.00,0.0089
517.00,0.0096
516.00,0.0096
515.00,0.0089
514.00,0.0080
513.00,0.0074
512.00,0.0072
511.00,0.0071
510.00,0.0068
509.00,0.0064
508.00,0.0063
507.00,0.0063
506.00,0.0063
505.00,0.0062
504.00,0.0060
503.00,0.0059
502.00,0.0060
501.00,0.0063
500.00,0.0066
499.00,0.0066
498.00,0.0065
497.00,0.0062
496.00,0.0060
495.00,0.0058
494.00,0.0055
493.00,0.0052
492.00,0.0051
491.00,0.0052
490.00,0.0054
489.00,0.0057
488.00,0.0061
487.00,0.0068
486.00,0.0076
485.00,0.0081
484.00,0.0082
483.00,0.0079
482.00,0.0074
481.00,0.0067
480.00,0.0061
479.00,0.0057
478.00,0.0057
477.00,0.0061
476.00,0.0065
475.00,0.0068
474.00,0.0069
473.00,0.0070
472.00,0.0075
471.00,0.0084
470.00,0.0093
469.00,0.0097
468.00,0.0098
467.00,0.0099
466.00,0.0104
465.00,0.0112
464.00,0.0125
463.00,0.0141
462.00,0.0151
461.00,0.0152
460.00,0.0145
459.00,0.0140
458.00,0.0145
457.00,0.0151
456.00,0.0149
455.00,0.0140
454.00,0.0127
453.00,0.0113
452.00,0.0099
451.00,0.0088
450.00,0.0080
