Created as New Dataset,Sample 037 By Administrator Date Friday, September 05 2025
cm-1,A
4000.00,0.0020
3999.00,0.0020
3998.00,0.0020
3997.00,0.0021
3996.00,0.0021
3995.00,0.0021
3994.00,0.0021
3993.00,0.0021
3992.00,0.0021
3991.00,0.0021
3990.00,0.0021
3989.00,0.0021
3988.00,0.0021
3987.00,0.0021
3986.00,0.0020
3985.00,0.0020
3984.00,0.0020
3983.00,0.0019
3982.00,0.0019
3981.00,0.0019
3980.00,0.0019
3979.00,0.0019
3978.00,0.0020
3977.00,0.0020
3976.00,0.0020
3975.00,0.0019
3974.00,0.0019
3973.00,0.0019
3972.00,0.0019
3971.00,0.0019
3970.00,0.0019
3969.00,0.0018
3968.00,0.0018
3967.00,0.0018
3966.00,0.0018
3965.00,0.0018
3964.00,0.0018
3963.00,0.0019
3962.00,0.0019
3961.00,0.0019
3960.00,0.0019
3959.00,0.0019
3958.00,0.0019
3957.00,0.0018
3956.00,0.0018
3955.00,0.0018
3954.00,0.0018
3953.00,0.0018
3952.00,0.0018
3951.00,0.0018
3950.00,0.0018
3949.00,0.0018
3948.00,0.0018
3947.00,0.0018
3946.00,0.0018
3945.00,0.0018
3944.00,0.0018
3943.00,0.0018
3942.00,0.0018
3941.00,0.0018
3940.00,0.0018
3939.00,0.0018
3938.00,0.0018
3937.00,0.0018
3936.00,0.0018
3935.00,0.0018
3934.00,0.0018
3933.00,0.0018
3932.00,0.0018
3931.00,0.0018
3930.00,0.0019
3929.00,0.0019
3928.00,0.0019
3927.00,0.0020
3926.00,0.0020
3925.00,0.0020
3924.00,0.0020
3923.00,0.0020
3922.00,0.0019
3921.00,0.0019
3920.00,0.0019
3919.00,0.0020
3918.00,0.0019
3917.00,0.0019
3916.00,0.0019
3915.00,0.0019
3914.00,0.0019
3913.00,0.0019
3912.00,0.0019
3911.00,0.0019
3910.00,0.0019
3909.00,0.0019
3908.00,0.0020
3907.00,0.0020
3906.00,0.0020
3905.00,0.0019
3904.00,0.0019
3903.00,0.0019
3902.00,0.0018
3901.00,0.0018
3900.00,0.0018
3899.00,0.0019
3898.00,0.0019
3897.00,0.0018
3896.00,0.0018
3895.00,0.0018
3894.00,0.0018
3893.00,0.0018
3892.00,0.0018
3891.00,0.0019
3890.00,0.0019
3889.00,0.0019
3888.00,0.0019
3887.00,0.0018
3886.00,0.0018
3885.00,0.0018
3884.00,0.0018
3883.00,0.0018
3882.00,0.0018
3881.00,0.0018
3880.00,0.0019
3879.00,0.0019
3878.00,0.0019
3877.00,0.0018
3876.00,0.0018
3875.00,0.0019
3874.00,0.0019
3873.00,0.0019
3872.00,0.0019
3871.00,0.0018
3870.00,0.0019
3869.00,0.0019
3868.00,0.0018
3867.00,0.0018
3866.00,0.0018
3865.00,0.0018
3864.00,0.0018
3863.00,0.0018
3862.00,0.0018
3861.00,0.0018
3860.00,0.0018
3859.00,0.0018
3858.00,0.0018
3857.00,0.0018
3856.00,0.0018
3855.00,0.0017
3854.00,0.0017
3853.00,0.0016
3852.00,0.0016
3851.00,0.0016
3850.00,0.0016
3849.00,0.0017
3848.00,0.0017
3847.00,0.0017
3846.00,0.0017
3845.00,0.0017
3844.00,0.0017
3843.00,0.0017
3842.00,0.0017
3841.00,0.0017
3840.00,0.0017
3839.00,0.0017
3838.00,0.0017
3837.00,0.0017
3836.00,0.0017
3835.00,0.0017
3834.00,0.0017
3833.00,0.0017
3832.00,0.0018
3831.00,0.0018
3830.00,0.0018
3829.00,0.0018
3828.00,0.0017
3827.00,0.0017
3826.00,0.0017
3825.00,0.0016
3824.00,0.0016
3823.00,0.0017
3822.00,0.0017
3821.00,0.0018
3820.00,0.0018
3819.00,0.0017
3818.00,0.0016
3817.00,0.0016
3816.00,0.0017
3815.00,0.0018
3814.00,0.0018
3813.00,0.0018
3812.00,0.0018
3811.00,0.0018
3810.00,0.0018
3809.00,0.0018
3808.00,0.0018
3807.00,0.0018
3806.00,0.0018
3805.00,0.0018
3804.00,0.0018
3803.00,0.0018
3802.00,0.0018
3801.00,0.0019
3800.00,0.0019
3799.00,0.0019
3798.00,0.0018
3797.00,0.0018
3796.00,0.0018
3795.00,0.0018
3794.00,0.0018
3793.00,0.0018
3792.00,0.0018
3791.00,0.0019
3790.00,0.0019
3789.00,0.0019
3788.00,0.0019
3787.00,0.0019
3786.00,0.0018
3785.00,0.0018
3784.00,0.0019
3783.00,0.0019
3782.00,0.0019
3781.00,0.0019
3780.00,0.0019
3779.00,0.0019
3778.00,0.0019
3777.00,0.0019
3776.00,0.0019
3775.00,0.0019
3774.00,0.0019
3773.00,0.0018
3772.00,0.0018
3771.00,0.0018
3770.00,0.0018
3769.00,0.0018
3768.00,0.0018
3767.00,0.0019
3766.00,0.0019
3765.00,0.0019
3764.00,0.0019
3763.00,0.0019
3762.00,0.0018
3761.00,0.0018
3760.00,0.0018
3759.00,0.0018
3758.00,0.0018
3757.00,0.0018
3756.00,0.0018
3755.00,0.0017
3754.00,0.0017
3753.00,0.0017
3752.00,0.0017
3751.00,0.0017
3750.00,0.0018
3749.00,0.0018
3748.00,0.0018
3747.00,0.0018
3746.00,0.0017
3745.00,0.0017
3744.00,0.0017
3743.00,0.0017
3742.00,0.0016
3741.00,0.0016
3740.00,0.0015
3739.00,0.0016
3738.00,0.0016
3737.00,0.0016
3736.00,0.0016
3735.00,0.0016
3734.00,0.0016
3733.00,0.0016
3732.00,0.0016
3731.00,0.0016
3730.00,0.0016
3729.00,0.0016
3728.00,0.0016
3727.00,0.0016
3726.00,0.0016
3725.00,0.0016
3724.00,0.0015
3723.00,0.0015
3722.00,0.0015
3721.00,0.0015
3720.00,0.0015
3719.00,0.0015
3718.00,0.0016
3717.00,0.0017
3716.00,0.0017
3715.00,0.0018
3714.00,0.0018
3713.00,0.0018
3712.00,0.0017
3711.00,0.0017
3710.00,0.0017
3709.00,0.0016
3708.00,0.0016
3707.00,0.0016
3706.00,0.0016
3705.00,0.0016
3704.00,0.0016
3703.00,0.0016
3702.00,0.0017
3701.00,0.0017
3700.00,0.0016
3699.00,0.0016
3698.00,0.0016
3697.00,0.0015
3696.00,0.0016
3695.00,0.0016
3694.00,0.0016
3693.00,0.0016
3692.00,0.0016
3691.00,0.0016
3690.00,0.0015
3689.00,0.0015
3688.00,0.0015
3687.00,0.0015
3686.00,0.0015
3685.00,0.0015
3684.00,0.0015
3683.00,0.0015
3682.00,0.0015
3681.00,0.0015
3680.00,0.0014
3679.00,0.0013
3678.00,0.0012
3677.00,0.0011
3676.00,0.0010
3675.00,0.0010
3674.00,0.0010
3673.00,0.0010
3672.00,0.0009
3671.00,0.0009
3670.00,0.0009
3669.00,0.0009
3668.00,0.0009
3667.00,0.0009
3666.00,0.0008
3665.00,0.0008
3664.00,0.0008
3663.00,0.0008
3662.00,0.0008
3661.00,0.0008
3660.00,0.0008
3659.00,0.0008
3658.00,0.0008
3657.00,0.0008
3656.00,0.0009
3655.00,0.0009
3654.00,0.0009
3653.00,0.0009
3652.00,0.0008
3651.00,0.0008
3650.00,0.0008
3649.00,0.0008
3648.00,0.0009
3647.00,0.0010
3646.00,0.0010
3645.00,0.0010
3644.00,0.0010
3643.00,0.0010
3642.00,0.0011
3641.00,0.0011
3640.00,0.0012
3639.00,0.0012
3638.00,0.0012
3637.00,0.0012
3636.00,0.0012
3635.00,0.0013
3634.00,0.0014
3633.00,0.0015
3632.00,0.0016
3631.00,0.0016
3630.00,0.0016
3629.00,0.0016
3628.00,0.0016
3627.00,0.0015
3626.00,0.0015
3625.00,0.0015
3624.00,0.0015
3623.00,0.0016
3622.00,0.0016
3621.00,0.0016
3620.00,0.0016
3619.00,0.0016
3618.00,0.0017
3617.00,0.0018
3616.00,0.0018
3615.00,0.0019
3614.00,0.0019
3613.00,0.0019
3612.00,0.0019
3611.00,0.0019
3610.00,0.0019
3609.00,0.0020
3608.00,0.0020
3607.00,0.0020
3606.00,0.0020
3605.00,0.0020
3604.00,0.0020
3603.00,0.0020
3602.00,0.0020
3601.00,0.0020
3600.00,0.0020
3599.00,0.0020
3598.00,0.0020
3597.00,0.0021
3596.00,0.0021
3595.00,0.0022
3594.00,0.0022
3593.00,0.0022
3592.00,0.0022
3591.00,0.0022
3590.00,0.0021
3589.00,0.0021
3588.00,0.0021
3587.00,0.0022
3586.00,0.0022
3585.00,0.0022
3584.00,0.0023
3583.00,0.0023
3582.00,0.0023
3581.00,0.0023
3580.00,0.0023
3579.00,0.0023
3578.00,0.0023
3577.00,0.0023
3576.00,0.0023
3575.00,0.0024
3574.00,0.0024
3573.00,0.0024
3572.00,0.0025
3571.00,0.0025
3570.00,0.0025
3569.00,0.0026
3568.00,0.0026
3567.00,0.0027
3566.00,0.0027
3565.00,0.0027
3564.00,0.0027
3563.00,0.0027
3562.00,0.0027
3561.00,0.0027
3560.00,0.0027
3559.00,0.0027
3558.00,0.0028
3557.00,0.0028
3556.00,0.0028
3555.00,0.0028
3554.00,0.0028
3553.00,0.0028
3552.00,0.0028
3551.00,0.0028
3550.00,0.0028
3549.00,0.0028
3548.00,0.0029
3547.00,0.0029
3546.00,0.0029
3545.00,0.0030
3544.00,0.0030
3543.00,0.0030
3542.00,0.0030
3541.00,0.0030
3540.00,0.0030
3539.00,0.0030
3538.00,0.0030
3537.00,0.0030
3536.00,0.0031
3535.00,0.0031
3534.00,0.0032
3533.00,0.0032
3532.00,0.0032
3531.00,0.0032
3530.00,0.0032
3529.00,0.0032
3528.00,0.0032
3527.00,0.0032
3526.00,0.0032
3525.00,0.0032
3524.00,0.0032
3523.00,0.0033
3522.00,0.0033
3521.00,0.0033
3520.00,0.0034
3519.00,0.0034
3518.00,0.0034
3517.00,0.0034
3516.00,0.0034
3515.00,0.0034
3514.00,0.0035
3513.00,0.0035
3512.00,0.0035
3511.00,0.0035
3510.00,0.0035
3509.00,0.0035
3508.00,0.0035
3507.00,0.0035
3506.00,0.0035
3505.00,0.0035
3504.00,0.0035
3503.00,0.0036
3502.00,0.0036
3501.00,0.0036
3500.00,0.0036
3499.00,0.0036
3498.00,0.0036
3497.00,0.0036
3496.00,0.0036
3495.00,0.0037
3494.00,0.0037
3493.00,0.0037
3492.00,0.0038
3491.00,0.0038
3490.00,0.0039
3489.00,0.0039
3488.00,0.0039
3487.00,0.0039
3486.00,0.0039
3485.00,0.0039
3484.00,0.0039
3483.00,0.0039
3482.00,0.0039
3481.00,0.0039
3480.00,0.0039
3479.00,0.0039
3478.00,0.0039
3477.00,0.0039
3476.00,0.0039
3475.00,0.0039
3474.00,0.0040
3473.00,0.0040
3472.00,0.0040
3471.00,0.0040
3470.00,0.0040
3469.00,0.0040
3468.00,0.0040
3467.00,0.0041
3466.00,0.0041
3465.00,0.0041
3464.00,0.0042
3463.00,0.0042
3462.00,0.0042
3461.00,0.0042
3460.00,0.0042
3459.00,0.0042
3458.00,0.0042
3457.00,0.0042
3456.00,0.0043
3455.00,0.0043
3454.00,0.0043
3453.00,0.0043
3452.00,0.0044
3451.00,0.0044
3450.00,0.0044
3449.00,0.0044
3448.00,0.0044
3447.00,0.0044
3446.00,0.0044
3445.00,0.0044
3444.00,0.0045
3443.00,0.0045
3442.00,0.0045
3441.00,0.0045
3440.00,0.0045
3439.00,0.0045
3438.00,0.0046
3437.00,0.0046
3436.00,0.0046
3435.00,0.0047
3434.00,0.0047
3433.00,0.0047
3432.00,0.0047
3431.00,0.0047
3430.00,0.0047
3429.00,0.0048
3428.00,0.0048
3427.00,0.0048
3426.00,0.0048
3425.00,0.0049
3424.00,0.0049
3423.00,0.0049
3422.00,0.0049
3421.00,0.0049
3420.00,0.0049
3419.00,0.0049
3418.00,0.0049
3417.00,0.0049
3416.00,0.0049
3415.00,0.0050
3414.00,0.0050
3413.00,0.0050
3412.00,0.0050
3411.00,0.0050
3410.00,0.0050
3409.00,0.0050
3408.00,0.0051
3407.00,0.0051
3406.00,0.0051
3405.00,0.0050
3404.00,0.0050
3403.00,0.0051
3402.00,0.0051
3401.00,0.0052
3400.00,0.0052
3399.00,0.0052
3398.00,0.0052
3397.00,0.0052
3396.00,0.0052
3395.00,0.0052
3394.00,0.0053
3393.00,0.0053
3392.00,0.0053
3391.00,0.0053
3390.00,0.0052
3389.00,0.0052
3388.00,0.0051
3387.00,0.0052
3386.00,0.0052
3385.00,0.0053
3384.00,0.0053
3383.00,0.0053
3382.00,0.0053
3381.00,0.0053
3380.00,0.0052
3379.00,0.0052
3378.00,0.0052
3377.00,0.0052
3376.00,0.0052
3375.00,0.0052
3374.00,0.0052
3373.00,0.0053
3372.00,0.0053
3371.00,0.0053
3370.00,0.0053
3369.00,0.0053
3368.00,0.0053
3367.00,0.0053
3366.00,0.0053
3365.00,0.0053
3364.00,0.0054
3363.00,0.0054
3362.00,0.0054
3361.00,0.0054
3360.00,0.0054
3359.00,0.0054
3358.00,0.0054
3357.00,0.0055
3356.00,0.0055
3355.00,0.0055
3354.00,0.0055
3353.00,0.0055
3352.00,0.0055
3351.00,0.0055
3350.00,0.0055
3349.00,0.0055
3348.00,0.0055
3347.00,0.0055
3346.00,0.0055
3345.00,0.0055
3344.00,0.0055
3343.00,0.0055
3342.00,0.0055
3341.00,0.0054
3340.00,0.0055
3339.00,0.0055
3338.00,0.0055
3337.00,0.0055
3336.00,0.0055
3335.00,0.0055
3334.00,0.0055
3333.00,0.0055
3332.00,0.0055
3331.00,0.0055
3330.00,0.0055
3329.00,0.0055
3328.00,0.0055
3327.00,0.0055
3326.00,0.0055
3325.00,0.0055
3324.00,0.0054
3323.00,0.0054
3322.00,0.0055
3321.00,0.0055
3320.00,0.0056
3319.00,0.0056
3318.00,0.0056
3317.00,0.0055
3316.00,0.0055
3315.00,0.0054
3314.00,0.0054
3313.00,0.0054
3312.00,0.0055
3311.00,0.0055
3310.00,0.0055
3309.00,0.0055
3308.00,0.0055
3307.00,0.0055
3306.00,0.0055
3305.00,0.0055
3304.00,0.0055
3303.00,0.0055
3302.00,0.0055
3301.00,0.0056
3300.00,0.0056
3299.00,0.0056
3298.00,0.0056
3297.00,0.0055
3296.00,0.0055
3295.00,0.0055
3294.00,0.0054
3293.00,0.0055
3292.00,0.0055
3291.00,0.0056
3290.00,0.0056
3289.00,0.0056
3288.00,0.0055
3287.00,0.0055
3286.00,0.0055
3285.00,0.0055
3284.00,0.0055
3283.00,0.0054
3282.00,0.0054
3281.00,0.0054
3280.00,0.0054
3279.00,0.0054
3278.00,0.0054
3277.00,0.0054
3276.00,0.0053
3275.00,0.0053
3274.00,0.0052
3273.00,0.0052
3272.00,0.0053
3271.00,0.0053
3270.00,0.0053
3269.00,0.0053
3268.00,0.0053
3267.00,0.0052
3266.00,0.0052
3265.00,0.0052
3264.00,0.0052
3263.00,0.0051
3262.00,0.0051
3261.00,0.0051
3260.00,0.0052
3259.00,0.0052
3258.00,0.0052
3257.00,0.0052
3256.00,0.0051
3255.00,0.0051
3254.00,0.0051
3253.00,0.0051
3252.00,0.0051
3251.00,0.0051
3250.00,0.0051
3249.00,0.0050
3248.00,0.0050
3247.00,0.0050
3246.00,0.0050
3245.00,0.0050
3244.00,0.0050
3243.00,0.0049
3242.00,0.0049
3241.00,0.0050
3240.00,0.0050
3239.00,0.0050
3238.00,0.0051
3237.00,0.0050
3236.00,0.0050
3235.00,0.0050
3234.00,0.0050
3233.00,0.0050
3232.00,0.0050
3231.00,0.0050
3230.00,0.0050
3229.00,0.0050
3228.00,0.0050
3227.00,0.0050
3226.00,0.0050
3225.00,0.0050
3224.00,0.0050
3223.00,0.0050
3222.00,0.0050
3221.00,0.0050
3220.00,0.0050
3219.00,0.0051
3218.00,0.0051
3217.00,0.0051
3216.00,0.0051
3215.00,0.0051
3214.00,0.0051
3213.00,0.0051
3212.00,0.0052
3211.00,0.0052
3210.00,0.0052
3209.00,0.0052
3208.00,0.0052
3207.00,0.0052
3206.00,0.0052
3205.00,0.0051
3204.00,0.0051
3203.00,0.0051
3202.00,0.0051
3201.00,0.0051
3200.00,0.0051
3199.00,0.0052
3198.00,0.0052
3197.00,0.0052
3196.00,0.0052
3195.00,0.0052
3194.00,0.0052
3193.00,0.0051
3192.00,0.0051
3191.00,0.0051
3190.00,0.0051
3189.00,0.0052
3188.00,0.0052
3187.00,0.0051
3186.00,0.0051
3185.00,0.0050
3184.00,0.0049
3183.00,0.0049
3182.00,0.0049
3181.00,0.0049
3180.00,0.0050
3179.00,0.0050
3178.00,0.0049
3177.00,0.0049
3176.00,0.0049
3175.00,0.0049
3174.00,0.0049
3173.00,0.0048
3172.00,0.0048
3171.00,0.0048
3170.00,0.0048
3169.00,0.0048
3168.00,0.0048
3167.00,0.0048
3166.00,0.0048
3165.00,0.0048
3164.00,0.0048
3163.00,0.0048
3162.00,0.0048
3161.00,0.0048
3160.00,0.0047
3159.00,0.0047
3158.00,0.0047
3157.00,0.0047
3156.00,0.0047
3155.00,0.0046
3154.00,0.0046
3153.00,0.0045
3152.00,0.0045
3151.00,0.0045
3150.00,0.0045
3149.00,0.0046
3148.00,0.0046
3147.00,0.0047
3146.00,0.0047
3145.00,0.0046
3144.00,0.0046
3143.00,0.0046
3142.00,0.0045
3141.00,0.0045
3140.00,0.0045
3139.00,0.0045
3138.00,0.0045
3137.00,0.0045
3136.00,0.0045
3135.00,0.0045
3134.00,0.0045
3133.00,0.0044
3132.00,0.0044
3131.00,0.0044
3130.00,0.0044
3129.00,0.0044
3128.00,0.0043
3127.00,0.0043
3126.00,0.0042
3125.00,0.0042
3124.00,0.0041
3123.00,0.0041
3122.00,0.0041
3121.00,0.0041
3120.00,0.0041
3119.00,0.0041
3118.00,0.0041
3117.00,0.0041
3116.00,0.0041
3115.00,0.0041
3114.00,0.0041
3113.00,0.0041
3112.00,0.0041
3111.00,0.0041
3110.00,0.0040
3109.00,0.0040
3108.00,0.0040
3107.00,0.0040
3106.00,0.0040
3105.00,0.0040
3104.00,0.0040
3103.00,0.0040
3102.00,0.0039
3101.00,0.0039
3100.00,0.0038
3099.00,0.0038
3098.00,0.0038
3097.00,0.0039
3096.00,0.0039
3095.00,0.0039
3094.00,0.0039
3093.00,0.0040
3092.00,0.0040
3091.00,0.0040
3090.00,0.0039
3089.00,0.0039
3088.00,0.0039
3087.00,0.0039
3086.00,0.0039
3085.00,0.0039
3084.00,0.0038
3083.00,0.0038
3082.00,0.0038
3081.00,0.0038
3080.00,0.0038
3079.00,0.0038
3078.00,0.0039
3077.00,0.0039
3076.00,0.0039
3075.00,0.0039
3074.00,0.0040
3073.00,0.0040
3072.00,0.0039
3071.00,0.0039
3070.00,0.0039
3069.00,0.0039
3068.00,0.0039
3067.00,0.0039
3066.00,0.0040
3065.00,0.0040
3064.00,0.0041
3063.00,0.0041
3062.00,0.0041
3061.00,0.0041
3060.00,0.0041
3059.00,0.0040
3058.00,0.0040
3057.00,0.0040
3056.00,0.0040
3055.00,0.0040
3054.00,0.0040
3053.00,0.0041
3052.00,0.0041
3051.00,0.0041
3050.00,0.0041
3049.00,0.0042
3048.00,0.0041
3047.00,0.0041
3046.00,0.0041
3045.00,0.0041
3044.00,0.0041
3043.00,0.0042
3042.00,0.0042
3041.00,0.0042
3040.00,0.0043
3039.00,0.0043
3038.00,0.0044
3037.00,0.0045
3036.00,0.0045
3035.00,0.0045
3034.00,0.0044
3033.00,0.0044
3032.00,0.0044
3031.00,0.0044
3030.00,0.0044
3029.00,0.0045
3028.00,0.0045
3027.00,0.0046
3026.00,0.0046
3025.00,0.0046
3024.00,0.0047
3023.00,0.0047
3022.00,0.0047
3021.00,0.0048
3020.00,0.0048
3019.00,0.0048
3018.00,0.0048
3017.00,0.0048
3016.00,0.0047
3015.00,0.0047
3014.00,0.0046
3013.00,0.0046
3012.00,0.0046
3011.00,0.0046
3010.00,0.0045
3009.00,0.0045
3008.00,0.0044
3007.00,0.0044
3006.00,0.0043
3005.00,0.0042
3004.00,0.0042
3003.00,0.0041
3002.00,0.0040
3001.00,0.0040
3000.00,0.0040
2999.00,0.0040
2998.00,0.0040
2997.00,0.0041
2996.00,0.0043
2995.00,0.0045
2994.00,0.0048
2993.00,0.0051
2992.00,0.0055
2991.00,0.0060
2990.00,0.0064
2989.00,0.0070
2988.00,0.0075
2987.00,0.0081
2986.00,0.0086
2985.00,0.0090
2984.00,0.0093
2983.00,0.0099
2982.00,0.0108
2981.00,0.0124
2980.00,0.0144
2979.00,0.0169
2978.00,0.0197
2977.00,0.0227
2976.00,0.0258
2975.00,0.0292
2974.00,0.0329
2973.00,0.0370
2972.00,0.0416
2971.00,0.0468
2970.00,0.0526
2969.00,0.0589
2968.00,0.0656
2967.00,0.0725
2966.00,0.0796
2965.00,0.0867
2964.00,0.0935
2963.00,0.0998
2962.00,0.1053
2961.00,0.1100
2960.00,0.1138
2959.00,0.1171
2958.00,0.1200
2957.00,0.1232
2956.00,0.1268
2955.00,0.1309
2954.00,0.1355
2953.00,0.1401
2952.00,0.1442
2951.00,0.1469
2950.00,0.1477
2949.00,0.1459
2948.00,0.1413
2947.00,0.1343
2946.00,0.1255
2945.00,0.1160
2944.00,0.1068
2943.00,0.0987
2942.00,0.0922
2941.00,0.0877
2940.00,0.0850
2939.00,0.0842
2938.00,0.0850
2937.00,0.0871
2936.00,0.0905
2935.00,0.0950
2934.00,0.1004
2933.00,0.1067
2932.00,0.1138
2931.00,0.1214
2930.00,0.1293
2929.00,0.1373
2928.00,0.1452
2927.00,0.1529
2926.00,0.1602
2925.00,0.1672
2924.00,0.1739
2923.00,0.1804
2922.00,0.1867
2921.00,0.1926
2920.00,0.1978
2919.00,0.2016
2918.00,0.2037
2917.00,0.2034
2916.00,0.2009
2915.00,0.1962
2914.00,0.1902
2913.00,0.1834
2912.00,0.1765
2911.00,0.1698
2910.00,0.1636
2909.00,0.1578
2908.00,0.1523
2907.00,0.1470
2906.00,0.1417
2905.00,0.1365
2904.00,0.1313
2903.00,0.1261
2902.00,0.1209
2901.00,0.1157
2900.00,0.1107
2899.00,0.1059
2898.00,0.1015
2897.00,0.0975
2896.00,0.0939
2895.00,0.0907
2894.00,0.0881
2893.00,0.0860
2892.00,0.0843
2891.00,0.0831
2890.00,0.0825
2889.00,0.0822
2888.00,0.0822
2887.00,0.0826
2886.00,0.0832
2885.00,0.0842
2884.00,0.0854
2883.00,0.0871
2882.00,0.0891
2881.00,0.0913
2880.00,0.0934
2879.00,0.0952
2878.00,0.0963
2877.00,0.0967
2876.00,0.0965
2875.00,0.0960
2874.00,0.0956
2873.00,0.0956
2872.00,0.0962
2871.00,0.0972
2870.00,0.0986
2869.00,0.0997
2868.00,0.1003
2867.00,0.0995
2866.00,0.0971
2865.00,0.0928
2864.00,0.0870
2863.00,0.0804
2862.00,0.0735
2861.00,0.0673
2860.00,0.0620
2859.00,0.0578
2858.00,0.0548
2857.00,0.0528
2856.00,0.0517
2855.00,0.0513
2854.00,0.0515
2853.00,0.0521
2852.00,0.0532
2851.00,0.0546
2850.00,0.0562
2849.00,0.0582
2848.00,0.0606
2847.00,0.0635
2846.00,0.0669
2845.00,0.0710
2844.00,0.0756
2843.00,0.0806
2842.00,0.0856
2841.00,0.0902
2840.00,0.0938
2839.00,0.0959
2838.00,0.0959
2837.00,0.0935
2836.00,0.0887
2835.00,0.0820
2834.00,0.0741
2833.00,0.0658
2832.00,0.0580
2831.00,0.0511
2830.00,0.0452
2829.00,0.0403
2828.00,0.0364
2827.00,0.0332
2826.00,0.0306
2825.00,0.0284
2824.00,0.0266
2823.00,0.0250
2822.00,0.0237
2821.00,0.0226
2820.00,0.0215
2819.00,0.0206
2818.00,0.0198
2817.00,0.0192
2816.00,0.0186
2815.00,0.0181
2814.00,0.0176
2813.00,0.0171
2812.00,0.0167
2811.00,0.0162
2810.00,0.0158
2809.00,0.0153
2808.00,0.0148
2807.00,0.0143
2806.00,0.0138
2805.00,0.0133
2804.00,0.0128
2803.00,0.0123
2802.00,0.0118
2801.00,0.0114
2800.00,0.0111
2799.00,0.0108
2798.00,0.0107
2797.00,0.0105
2796.00,0.0103
2795.00,0.0101
2794.00,0.0099
2793.00,0.0096
2792.00,0.0094
2791.00,0.0091
2790.00,0.0089
2789.00,0.0086
2788.00,0.0084
2787.00,0.0082
2786.00,0.0080
2785.00,0.0078
2784.00,0.0076
2783.00,0.0074
2782.00,0.0073
2781.00,0.0071
2780.00,0.0070
2779.00,0.0068
2778.00,0.0067
2777.00,0.0066
2776.00,0.0065
2775.00,0.0064
2774.00,0.0064
2773.00,0.0063
2772.00,0.0062
2771.00,0.0062
2770.00,0.0062
2769.00,0.0061
2768.00,0.0061
2767.00,0.0061
2766.00,0.0060
2765.00,0.0060
2764.00,0.0060
2763.00,0.0060
2762.00,0.0059
2761.00,0.0059
2760.00,0.0059
2759.00,0.0058
2758.00,0.0058
2757.00,0.0058
2756.00,0.0058
2755.00,0.0059
2754.00,0.0059
2753.00,0.0059
2752.00,0.0058
2751.00,0.0058
2750.00,0.0058
2749.00,0.0057
2748.00,0.0057
2747.00,0.0057
2746.00,0.0057
2745.00,0.0058
2744.00,0.0059
2743.00,0.0060
2742.00,0.0060
2741.00,0.0062
2740.00,0.0063
2739.00,0.0064
2738.00,0.0065
2737.00,0.0066
2736.00,0.0067
2735.00,0.0068
2734.00,0.0070
2733.00,0.0071
2732.00,0.0073
2731.00,0.0074
2730.00,0.0076
2729.00,0.0078
2728.00,0.0080
2727.00,0.0082
2726.00,0.0084
2725.00,0.0086
2724.00,0.0087
2723.00,0.0087
2722.00,0.0086
2721.00,0.0084
2720.00,0.0082
2719.00,0.0079
2718.00,0.0076
2717.00,0.0074
2716.00,0.0072
2715.00,0.0070
2714.00,0.0068
2713.00,0.0066
2712.00,0.0065
2711.00,0.0063
2710.00,0.0061
2709.00,0.0060
2708.00,0.0059
2707.00,0.0058
2706.00,0.0057
2705.00,0.0056
2704.00,0.0055
2703.00,0.0055
2702.00,0.0054
2701.00,0.0054
2700.00,0.0054
2699.00,0.0054
2698.00,0.0053
2697.00,0.0053
2696.00,0.0052
2695.00,0.0052
2694.00,0.0051
2693.00,0.0051
2692.00,0.0051
2691.00,0.0051
2690.00,0.0051
2689.00,0.0051
2688.00,0.0051
2687.00,0.0051
2686.00,0.0051
2685.00,0.0052
2684.00,0.0052
2683.00,0.0052
2682.00,0.0052
2681.00,0.0052
2680.00,0.0052
2679.00,0.0052
2678.00,0.0052
2677.00,0.0052
2676.00,0.0052
2675.00,0.0051
2674.00,0.0051
2673.00,0.0050
2672.00,0.0050
2671.00,0.0050
2670.00,0.0050
2669.00,0.0050
2668.00,0.0051
2667.00,0.0051
2666.00,0.0051
2665.00,0.0052
2664.00,0.0052
2663.00,0.0053
2662.00,0.0053
2661.00,0.0054
2660.00,0.0054
2659.00,0.0054
2658.00,0.0054
2657.00,0.0054
2656.00,0.0054
2655.00,0.0054
2654.00,0.0053
2653.00,0.0053
2652.00,0.0052
2651.00,0.0052
2650.00,0.0052
2649.00,0.0052
2648.00,0.0052
2647.00,0.0051
2646.00,0.0051
2645.00,0.0050
2644.00,0.0050
2643.00,0.0050
2642.00,0.0050
2641.00,0.0049
2640.00,0.0048
2639.00,0.0048
2638.00,0.0048
2637.00,0.0047
2636.00,0.0047
2635.00,0.0048
2634.00,0.0048
2633.00,0.0048
2632.00,0.0049
2631.00,0.0049
2630.00,0.0048
2629.00,0.0048
2628.00,0.0048
2627.00,0.0048
2626.00,0.0048
2625.00,0.0048
2624.00,0.0048
2623.00,0.0048
2622.00,0.0049
2621.00,0.0049
2620.00,0.0050
2619.00,0.0050
2618.00,0.0050
2617.00,0.0050
2616.00,0.0049
2615.00,0.0049
2614.00,0.0049
2613.00,0.0048
2612.00,0.0048
2611.00,0.0048
2610.00,0.0047
2609.00,0.0046
2608.00,0.0046
2607.00,0.0045
2606.00,0.0045
2605.00,0.0044
2604.00,0.0044
2603.00,0.0043
2602.00,0.0043
2601.00,0.0043
2600.00,0.0044
2599.00,0.0044
2598.00,0.0043
2597.00,0.0043
2596.00,0.0042
2595.00,0.0042
2594.00,0.0041
2593.00,0.0041
2592.00,0.0042
2591.00,0.0043
2590.00,0.0044
2589.00,0.0045
2588.00,0.0046
2587.00,0.0046
2586.00,0.0047
2585.00,0.0047
2584.00,0.0047
2583.00,0.0047
2582.00,0.0047
2581.00,0.0047
2580.00,0.0047
2579.00,0.0047
2578.00,0.0046
2577.00,0.0045
2576.00,0.0044
2575.00,0.0043
2574.00,0.0042
2573.00,0.0042
2572.00,0.0041
2571.00,0.0040
2570.00,0.0040
2569.00,0.0039
2568.00,0.0038
2567.00,0.0038
2566.00,0.0037
2565.00,0.0036
2564.00,0.0036
2563.00,0.0036
2562.00,0.0036
2561.00,0.0036
2560.00,0.0036
2559.00,0.0035
2558.00,0.0035
2557.00,0.0035
2556.00,0.0034
2555.00,0.0034
2554.00,0.0034
2553.00,0.0034
2552.00,0.0034
2551.00,0.0033
2550.00,0.0033
2549.00,0.0032
2548.00,0.0032
2547.00,0.0032
2546.00,0.0032
2545.00,0.0032
2544.00,0.0032
2543.00,0.0032
2542.00,0.0031
2541.00,0.0030
2540.00,0.0030
2539.00,0.0029
2538.00,0.0029
2537.00,0.0029
2536.00,0.0029
2535.00,0.0030
2534.00,0.0029
2533.00,0.0029
2532.00,0.0028
2531.00,0.0028
2530.00,0.0028
2529.00,0.0028
2528.00,0.0029
2527.00,0.0028
2526.00,0.0028
2525.00,0.0027
2524.00,0.0027
2523.00,0.0026
2522.00,0.0026
2521.00,0.0026
2520.00,0.0026
2519.00,0.0026
2518.00,0.0026
2517.00,0.0027
2516.00,0.0026
2515.00,0.0026
2514.00,0.0025
2513.00,0.0025
2512.00,0.0025
2511.00,0.0025
2510.00,0.0024
2509.00,0.0024
2508.00,0.0023
2507.00,0.0023
2506.00,0.0024
2505.00,0.0024
2504.00,0.0024
2503.00,0.0024
2502.00,0.0024
2501.00,0.0024
2500.00,0.0024
2499.00,0.0024
2498.00,0.0024
2497.00,0.0024
2496.00,0.0024
2495.00,0.0025
2494.00,0.0025
2493.00,0.0025
2492.00,0.0025
2491.00,0.0024
2490.00,0.0024
2489.00,0.0024
2488.00,0.0024
2487.00,0.0023
2486.00,0.0023
2485.00,0.0023
2484.00,0.0023
2483.00,0.0023
2482.00,0.0023
2481.00,0.0022
2480.00,0.0022
2479.00,0.0022
2478.00,0.0021
2477.00,0.0021
2476.00,0.0021
2475.00,0.0021
2474.00,0.0022
2473.00,0.0022
2472.00,0.0023
2471.00,0.0023
2470.00,0.0023
2469.00,0.0024
2468.00,0.0024
2467.00,0.0024
2466.00,0.0023
2465.00,0.0023
2464.00,0.0023
2463.00,0.0023
2462.00,0.0024
2461.00,0.0024
2460.00,0.0024
2459.00,0.0025
2458.00,0.0025
2457.00,0.0025
2456.00,0.0024
2455.00,0.0024
2454.00,0.0023
2453.00,0.0023
2452.00,0.0023
2451.00,0.0022
2450.00,0.0023
2449.00,0.0023
2448.00,0.0024
2447.00,0.0024
2446.00,0.0024
2445.00,0.0023
2444.00,0.0023
2443.00,0.0023
2442.00,0.0023
2441.00,0.0023
2440.00,0.0023
2439.00,0.0023
2438.00,0.0023
2437.00,0.0024
2436.00,0.0024
2435.00,0.0024
2434.00,0.0024
2433.00,0.0024
2432.00,0.0023
2431.00,0.0023
2430.00,0.0022
2429.00,0.0022
2428.00,0.0022
2427.00,0.0022
2426.00,0.0023
2425.00,0.0023
2424.00,0.0024
2423.00,0.0024
2422.00,0.0024
2421.00,0.0024
2420.00,0.0023
2419.00,0.0022
2418.00,0.0022
2417.00,0.0022
2416.00,0.0022
2415.00,0.0022
2414.00,0.0022
2413.00,0.0022
2412.00,0.0022
2411.00,0.0023
2410.00,0.0023
2409.00,0.0023
2408.00,0.0023
2407.00,0.0022
2406.00,0.0022
2405.00,0.0021
2404.00,0.0020
2403.00,0.0020
2402.00,0.0020
2401.00,0.0020
2400.00,0.0020
2399.00,0.0020
2398.00,0.0020
2397.00,0.0020
2396.00,0.0020
2395.00,0.0020
2394.00,0.0021
2393.00,0.0021
2392.00,0.0020
2391.00,0.0020
2390.00,0.0019
2389.00,0.0019
2388.00,0.0018
2387.00,0.0018
2386.00,0.0017
2385.00,0.0017
2384.00,0.0016
2383.00,0.0015
2382.00,0.0014
2381.00,0.0013
2380.00,0.0013
2379.00,0.0012
2378.00,0.0012
2377.00,0.0012
2376.00,0.0012
2375.00,0.0012
2374.00,0.0012
2373.00,0.0012
2372.00,0.0012
2371.00,0.0011
2370.00,0.0009
2369.00,0.0008
2368.00,0.0008
2367.00,0.0008
2366.00,0.0008
2365.00,0.0009
2364.00,0.0010
2363.00,0.0011
2362.00,0.0011
2361.00,0.0011
2360.00,0.0010
2359.00,0.0010
2358.00,0.0009
2357.00,0.0010
2356.00,0.0011
2355.00,0.0012
2354.00,0.0013
2353.00,0.0012
2352.00,0.0011
2351.00,0.0011
2350.00,0.0011
2349.00,0.0011
2348.00,0.0012
2347.00,0.0012
2346.00,0.0012
2345.00,0.0012
2344.00,0.0012
2343.00,0.0013
2342.00,0.0014
2341.00,0.0015
2340.00,0.0015
2339.00,0.0015
2338.00,0.0015
2337.00,0.0015
2336.00,0.0015
2335.00,0.0015
2334.00,0.0016
2333.00,0.0016
2332.00,0.0016
2331.00,0.0015
2330.00,0.0015
2329.00,0.0015
2328.00,0.0017
2327.00,0.0021
2326.00,0.0027
2325.00,0.0032
2324.00,0.0035
2323.00,0.0035
2322.00,0.0032
2321.00,0.0030
2320.00,0.0028
2319.00,0.0027
2318.00,0.0026
2317.00,0.0026
2316.00,0.0025
2315.00,0.0023
2314.00,0.0022
2313.00,0.0021
2312.00,0.0020
2311.00,0.0019
2310.00,0.0019
2309.00,0.0020
2308.00,0.0021
2307.00,0.0021
2306.00,0.0022
2305.00,0.0022
2304.00,0.0022
2303.00,0.0022
2302.00,0.0022
2301.00,0.0022
2300.00,0.0022
2299.00,0.0022
2298.00,0.0023
2297.00,0.0025
2296.00,0.0026
2295.00,0.0026
2294.00,0.0027
2293.00,0.0027
2292.00,0.0028
2291.00,0.0030
2290.00,0.0031
2289.00,0.0032
2288.00,0.0032
2287.00,0.0033
2286.00,0.0033
2285.00,0.0033
2284.00,0.0033
2283.00,0.0032
2282.00,0.0031
2281.00,0.0031
2280.00,0.0031
2279.00,0.0031
2278.00,0.0030
2277.00,0.0029
2276.00,0.0028
2275.00,0.0028
2274.00,0.0028
2273.00,0.0028
2272.00,0.0029
2271.00,0.0029
2270.00,0.0028
2269.00,0.0028
2268.00,0.0027
2267.00,0.0026
2266.00,0.0025
2265.00,0.0023
2264.00,0.0022
2263.00,0.0022
2262.00,0.0023
2261.00,0.0025
2260.00,0.0026
2259.00,0.0027
2258.00,0.0027
2257.00,0.0026
2256.00,0.0024
2255.00,0.0022
2254.00,0.0021
2253.00,0.0021
2252.00,0.0021
2251.00,0.0020
2250.00,0.0020
2249.00,0.0021
2248.00,0.0023
2247.00,0.0024
2246.00,0.0024
2245.00,0.0023
2244.00,0.0022
2243.00,0.0021
2242.00,0.0020
2241.00,0.0020
2240.00,0.0020
2239.00,0.0020
2238.00,0.0022
2237.00,0.0023
2236.00,0.0024
2235.00,0.0024
2234.00,0.0024
2233.00,0.0024
2232.00,0.0024
2231.00,0.0024
2230.00,0.0024
2229.00,0.0022
2228.00,0.0021
2227.00,0.0020
2226.00,0.0020
2225.00,0.0020
2224.00,0.0021
2223.00,0.0021
2222.00,0.0022
2221.00,0.0022
2220.00,0.0022
2219.00,0.0022
2218.00,0.0022
2217.00,0.0022
2216.00,0.0021
2215.00,0.0021
2214.00,0.0021
2213.00,0.0021
2212.00,0.0020
2211.00,0.0020
2210.00,0.0019
2209.00,0.0018
2208.00,0.0017
2207.00,0.0015
2206.00,0.0014
2205.00,0.0014
2204.00,0.0016
2203.00,0.0019
2202.00,0.0022
2201.00,0.0024
2200.00,0.0025
2199.00,0.0025
2198.00,0.0023
2197.00,0.0020
2196.00,0.0019
2195.00,0.0019
2194.00,0.0020
2193.00,0.0023
2192.00,0.0025
2191.00,0.0026
2190.00,0.0026
2189.00,0.0025
2188.00,0.0023
2187.00,0.0023
2186.00,0.0022
2185.00,0.0020
2184.00,0.0018
2183.00,0.0015
2182.00,0.0012
2181.00,0.0010
2180.00,0.0011
2179.00,0.0013
2178.00,0.0017
2177.00,0.0020
2176.00,0.0020
2175.00,0.0018
2174.00,0.0015
2173.00,0.0015
2172.00,0.0017
2171.00,0.0020
2170.00,0.0026
2169.00,0.0031
2168.00,0.0035
2167.00,0.0036
2166.00,0.0035
2165.00,0.0034
2164.00,0.0033
2163.00,0.0034
2162.00,0.0032
2161.00,0.0026
2160.00,0.0012
2159.00,-0.0005
2158.00,-0.0020
2157.00,-0.0028
2156.00,-0.0028
2155.00,-0.0025
2154.00,-0.0020
2153.00,-0.0016
2152.00,-0.0012
2151.00,-0.0010
2150.00,-0.0008
2149.00,-0.0007
2148.00,-0.0005
2147.00,-0.0005
2146.00,-0.0005
2145.00,-0.0004
2144.00,-0.0003
2143.00,-0.0002
2142.00,-0.0001
2141.00,-0.0001
2140.00,-0.0000
2139.00,0.0002
2138.00,0.0003
2137.00,0.0002
2136.00,-0.0001
2135.00,-0.0005
2134.00,-0.0008
2133.00,-0.0009
2132.00,-0.0008
2131.00,-0.0007
2130.00,-0.0005
2129.00,-0.0003
2128.00,0.0000
2127.00,0.0002
2126.00,0.0004
2125.00,0.0006
2124.00,0.0009
2123.00,0.0010
2122.00,0.0011
2121.00,0.0013
2120.00,0.0014
2119.00,0.0014
2118.00,0.0015
2117.00,0.0015
2116.00,0.0016
2115.00,0.0017
2114.00,0.0016
2113.00,0.0015
2112.00,0.0015
2111.00,0.0016
2110.00,0.0017
2109.00,0.0019
2108.00,0.0019
2107.00,0.0018
2106.00,0.0017
2105.00,0.0016
2104.00,0.0016
2103.00,0.0017
2102.00,0.0018
2101.00,0.0018
2100.00,0.0018
2099.00,0.0017
2098.00,0.0016
2097.00,0.0013
2096.00,0.0010
2095.00,0.0008
2094.00,0.0008
2093.00,0.0009
2092.00,0.0011
2091.00,0.0013
2090.00,0.0014
2089.00,0.0014
2088.00,0.0014
2087.00,0.0013
2086.00,0.0014
2085.00,0.0015
2084.00,0.0017
2083.00,0.0017
2082.00,0.0017
2081.00,0.0017
2080.00,0.0016
2079.00,0.0016
2078.00,0.0016
2077.00,0.0017
2076.00,0.0018
2075.00,0.0018
2074.00,0.0018
2073.00,0.0017
2072.00,0.0015
2071.00,0.0014
2070.00,0.0013
2069.00,0.0013
2068.00,0.0013
2067.00,0.0013
2066.00,0.0011
2065.00,0.0010
2064.00,0.0009
2063.00,0.0010
2062.00,0.0011
2061.00,0.0012
2060.00,0.0013
2059.00,0.0014
2058.00,0.0016
2057.00,0.0017
2056.00,0.0016
2055.00,0.0015
2054.00,0.0017
2053.00,0.0021
2052.00,0.0026
2051.00,0.0028
2050.00,0.0024
2049.00,0.0018
2048.00,0.0013
2047.00,0.0012
2046.00,0.0013
2045.00,0.0015
2044.00,0.0017
2043.00,0.0020
2042.00,0.0022
2041.00,0.0022
2040.00,0.0021
2039.00,0.0019
2038.00,0.0017
2037.00,0.0017
2036.00,0.0017
2035.00,0.0015
2034.00,0.0012
2033.00,0.0008
2032.00,0.0005
2031.00,0.0004
2030.00,0.0005
2029.00,0.0008
2028.00,0.0009
2027.00,0.0009
2026.00,0.0007
2025.00,0.0007
2024.00,0.0006
2023.00,0.0006
2022.00,0.0005
2021.00,0.0004
2020.00,0.0002
2019.00,0.0001
2018.00,-0.0000
2017.00,0.0001
2016.00,0.0003
2015.00,0.0003
2014.00,0.0002
2013.00,0.0001
2012.00,0.0001
2011.00,0.0003
2010.00,0.0004
2009.00,0.0004
2008.00,0.0002
2007.00,0.0000
2006.00,-0.0002
2005.00,-0.0004
2004.00,-0.0005
2003.00,-0.0005
2002.00,-0.0005
2001.00,-0.0002
2000.00,0.0002
1999.00,0.0006
1998.00,0.0008
1997.00,0.0008
1996.00,0.0009
1995.00,0.0010
1994.00,0.0010
1993.00,0.0009
1992.00,0.0009
1991.00,0.0009
1990.00,0.0011
1989.00,0.0014
1988.00,0.0017
1987.00,0.0019
1986.00,0.0020
1985.00,0.0022
1984.00,0.0023
1983.00,0.0024
1982.00,0.0025
1981.00,0.0026
1980.00,0.0024
1979.00,0.0020
1978.00,0.0014
1977.00,0.0009
1976.00,0.0006
1975.00,0.0005
1974.00,0.0005
1973.00,0.0004
1972.00,0.0003
1971.00,0.0002
1970.00,0.0001
1969.00,0.0002
1968.00,0.0003
1967.00,0.0004
1966.00,0.0005
1965.00,0.0006
1964.00,0.0005
1963.00,0.0002
1962.00,-0.0000
1961.00,-0.0001
1960.00,-0.0002
1959.00,-0.0002
1958.00,-0.0003
1957.00,-0.0003
1956.00,-0.0001
1955.00,0.0002
1954.00,0.0003
1953.00,0.0004
1952.00,0.0003
1951.00,0.0001
1950.00,-0.0001
1949.00,-0.0003
1948.00,-0.0003
1947.00,-0.0003
1946.00,-0.0002
1945.00,-0.0002
1944.00,-0.0000
1943.00,-0.0000
1942.00,-0.0000
1941.00,-0.0002
1940.00,-0.0003
1939.00,-0.0004
1938.00,-0.0004
1937.00,-0.0003
1936.00,-0.0001
1935.00,0.0001
1934.00,0.0003
1933.00,0.0004
1932.00,0.0004
1931.00,0.0005
1930.00,0.0006
1929.00,0.0008
1928.00,0.0009
1927.00,0.0009
1926.00,0.0008
1925.00,0.0008
1924.00,0.0007
1923.00,0.0007
1922.00,0.0008
1921.00,0.0008
1920.00,0.0008
1919.00,0.0008
1918.00,0.0009
1917.00,0.0009
1916.00,0.0010
1915.00,0.0011
1914.00,0.0011
1913.00,0.0012
1912.00,0.0013
1911.00,0.0013
1910.00,0.0014
1909.00,0.0014
1908.00,0.0014
1907.00,0.0013
1906.00,0.0012
1905.00,0.0012
1904.00,0.0012
1903.00,0.0012
1902.00,0.0012
1901.00,0.0012
1900.00,0.0011
1899.00,0.0011
1898.00,0.0011
1897.00,0.0012
1896.00,0.0014
1895.00,0.0014
1894.00,0.0014
1893.00,0.0013
1892.00,0.0013
1891.00,0.0013
1890.00,0.0013
1889.00,0.0013
1888.00,0.0013
1887.00,0.0013
1886.00,0.0013
1885.00,0.0012
1884.00,0.0012
1883.00,0.0012
1882.00,0.0012
1881.00,0.0012
1880.00,0.0013
1879.00,0.0013
1878.00,0.0013
1877.00,0.0013
1876.00,0.0013
1875.00,0.0013
1874.00,0.0013
1873.00,0.0014
1872.00,0.0014
1871.00,0.0014
1870.00,0.0014
1869.00,0.0014
1868.00,0.0014
1867.00,0.0013
1866.00,0.0013
1865.00,0.0014
1864.00,0.0014
1863.00,0.0014
1862.00,0.0015
1861.00,0.0014
1860.00,0.0014
1859.00,0.0013
1858.00,0.0013
1857.00,0.0013
1856.00,0.0014
1855.00,0.0015
1854.00,0.0015
1853.00,0.0014
1852.00,0.0014
1851.00,0.0013
1850.00,0.0013
1849.00,0.0014
1848.00,0.0016
1847.00,0.0017
1846.00,0.0017
1845.00,0.0016
1844.00,0.0015
1843.00,0.0014
1842.00,0.0014
1841.00,0.0014
1840.00,0.0014
1839.00,0.0014
1838.00,0.0015
1837.00,0.0015
1836.00,0.0016
1835.00,0.0016
1834.00,0.0016
1833.00,0.0016
1832.00,0.0017
1831.00,0.0018
1830.00,0.0018
1829.00,0.0019
1828.00,0.0019
1827.00,0.0018
1826.00,0.0018
1825.00,0.0017
1824.00,0.0017
1823.00,0.0017
1822.00,0.0016
1821.00,0.0016
1820.00,0.0015
1819.00,0.0014
1818.00,0.0013
1817.00,0.0013
1816.00,0.0014
1815.00,0.0016
1814.00,0.0017
1813.00,0.0017
1812.00,0.0017
1811.00,0.0018
1810.00,0.0018
1809.00,0.0018
1808.00,0.0018
1807.00,0.0017
1806.00,0.0017
1805.00,0.0018
1804.00,0.0019
1803.00,0.0020
1802.00,0.0021
1801.00,0.0021
1800.00,0.0021
1799.00,0.0021
1798.00,0.0022
1797.00,0.0022
1796.00,0.0022
1795.00,0.0022
1794.00,0.0022
1793.00,0.0022
1792.00,0.0022
1791.00,0.0022
1790.00,0.0021
1789.00,0.0021
1788.00,0.0021
1787.00,0.0021
1786.00,0.0021
1785.00,0.0021
1784.00,0.0022
1783.00,0.0022
1782.00,0.0022
1781.00,0.0023
1780.00,0.0022
1779.00,0.0022
1778.00,0.0021
1777.00,0.0021
1776.00,0.0021
1775.00,0.0021
1774.00,0.0020
1773.00,0.0020
1772.00,0.0021
1771.00,0.0021
1770.00,0.0022
1769.00,0.0022
1768.00,0.0023
1767.00,0.0023
1766.00,0.0023
1765.00,0.0023
1764.00,0.0023
1763.00,0.0024
1762.00,0.0025
1761.00,0.0026
1760.00,0.0026
1759.00,0.0027
1758.00,0.0027
1757.00,0.0027
1756.00,0.0028
1755.00,0.0028
1754.00,0.0029
1753.00,0.0029
1752.00,0.0030
1751.00,0.0031
1750.00,0.0032
1749.00,0.0033
1748.00,0.0033
1747.00,0.0033
1746.00,0.0033
1745.00,0.0033
1744.00,0.0034
1743.00,0.0034
1742.00,0.0035
1741.00,0.0035
1740.00,0.0035
1739.00,0.0035
1738.00,0.0036
1737.00,0.0036
1736.00,0.0036
1735.00,0.0035
1734.00,0.0035
1733.00,0.0034
1732.00,0.0035
1731.00,0.0035
1730.00,0.0035
1729.00,0.0035
1728.00,0.0035
1727.00,0.0035
1726.00,0.0034
1725.00,0.0034
1724.00,0.0034
1723.00,0.0034
1722.00,0.0034
1721.00,0.0035
1720.00,0.0036
1719.00,0.0036
1718.00,0.0035
1717.00,0.0034
1716.00,0.0034
1715.00,0.0034
1714.00,0.0035
1713.00,0.0035
1712.00,0.0036
1711.00,0.0036
1710.00,0.0036
1709.00,0.0036
1708.00,0.0037
1707.00,0.0038
1706.00,0.0038
1705.00,0.0039
1704.00,0.0040
1703.00,0.0040
1702.00,0.0040
1701.00,0.0040
1700.00,0.0041
1699.00,0.0042
1698.00,0.0042
1697.00,0.0042
1696.00,0.0042
1695.00,0.0044
1694.00,0.0045
1693.00,0.0046
1692.00,0.0047
1691.00,0.0047
1690.00,0.0049
1689.00,0.0050
1688.00,0.0051
1687.00,0.0052
1686.00,0.0052
1685.00,0.0053
1684.00,0.0054
1683.00,0.0055
1682.00,0.0057
1681.00,0.0058
1680.00,0.0058
1679.00,0.0059
1678.00,0.0059
1677.00,0.0060
1676.00,0.0061
1675.00,0.0061
1674.00,0.0062
1673.00,0.0063
1672.00,0.0063
1671.00,0.0064
1670.00,0.0065
1669.00,0.0066
1668.00,0.0067
1667.00,0.0068
1666.00,0.0068
1665.00,0.0068
1664.00,0.0068
1663.00,0.0068
1662.00,0.0069
1661.00,0.0070
1660.00,0.0071
1659.00,0.0072
1658.00,0.0073
1657.00,0.0074
1656.00,0.0075
1655.00,0.0076
1654.00,0.0076
1653.00,0.0076
1652.00,0.0077
1651.00,0.0077
1650.00,0.0078
1649.00,0.0078
1648.00,0.0079
1647.00,0.0079
1646.00,0.0080
1645.00,0.0080
1644.00,0.0080
1643.00,0.0079
1642.00,0.0079
1641.00,0.0079
1640.00,0.0079
1639.00,0.0078
1638.00,0.0078
1637.00,0.0078
1636.00,0.0078
1635.00,0.0079
1634.00,0.0080
1633.00,0.0080
1632.00,0.0080
1631.00,0.0079
1630.00,0.0079
1629.00,0.0079
1628.00,0.0079
1627.00,0.0078
1626.00,0.0078
1625.00,0.0078
1624.00,0.0077
1623.00,0.0077
1622.00,0.0077
1621.00,0.0077
1620.00,0.0076
1619.00,0.0075
1618.00,0.0073
1617.00,0.0073
1616.00,0.0073
1615.00,0.0073
1614.00,0.0073
1613.00,0.0073
1612.00,0.0073
1611.00,0.0072
1610.00,0.0072
1609.00,0.0072
1608.00,0.0072
1607.00,0.0072
1606.00,0.0073
1605.00,0.0073
1604.00,0.0074
1603.00,0.0074
1602.00,0.0074
1601.00,0.0074
1600.00,0.0074
1599.00,0.0074
1598.00,0.0074
1597.00,0.0074
1596.00,0.0075
1595.00,0.0075
1594.00,0.0076
1593.00,0.0077
1592.00,0.0078
1591.00,0.0079
1590.00,0.0079
1589.00,0.0080
1588.00,0.0082
1587.00,0.0084
1586.00,0.0086
1585.00,0.0089
1584.00,0.0092
1583.00,0.0096
1582.00,0.0099
1581.00,0.0103
1580.00,0.0105
1579.00,0.0107
1578.00,0.0108
1577.00,0.0108
1576.00,0.0107
1575.00,0.0105
1574.00,0.0104
1573.00,0.0102
1572.00,0.0100
1571.00,0.0097
1570.00,0.0094
1569.00,0.0093
1568.00,0.0092
1567.00,0.0091
1566.00,0.0090
1565.00,0.0089
1564.00,0.0089
1563.00,0.0089
1562.00,0.0089
1561.00,0.0090
1560.00,0.0091
1559.00,0.0091
1558.00,0.0091
1557.00,0.0093
1556.00,0.0094
1555.00,0.0095
1554.00,0.0096
1553.00,0.0098
1552.00,0.0099
1551.00,0.0101
1550.00,0.0104
1549.00,0.0107
1548.00,0.0110
1547.00,0.0113
1546.00,0.0117
1545.00,0.0121
1544.00,0.0125
1543.00,0.0127
1542.00,0.0127
1541.00,0.0126
1540.00,0.0124
1539.00,0.0121
1538.00,0.0118
1537.00,0.0116
1536.00,0.0114
1535.00,0.0111
1534.00,0.0108
1533.00,0.0105
1532.00,0.0102
1531.00,0.0101
1530.00,0.0099
1529.00,0.0099
1528.00,0.0099
1527.00,0.0098
1526.00,0.0098
1525.00,0.0098
1524.00,0.0099
1523.00,0.0098
1522.00,0.0098
1521.00,0.0099
1520.00,0.0101
1519.00,0.0102
1518.00,0.0102
1517.00,0.0103
1516.00,0.0105
1515.00,0.0105
1514.00,0.0106
1513.00,0.0108
1512.00,0.0110
1511.00,0.0111
1510.00,0.0113
1509.00,0.0114
1508.00,0.0115
1507.00,0.0116
1506.00,0.0118
1505.00,0.0121
1504.00,0.0123
1503.00,0.0125
1502.00,0.0126
1501.00,0.0129
1500.00,0.0133
1499.00,0.0135
1498.00,0.0138
1497.00,0.0142
1496.00,0.0147
1495.00,0.0151
1494.00,0.0153
1493.00,0.0157
1492.00,0.0161
1491.00,0.0166
1490.00,0.0171
1489.00,0.0177
1488.00,0.0183
1487.00,0.0188
1486.00,0.0194
1485.00,0.0202
1484.00,0.0210
1483.00,0.0218
1482.00,0.0228
1481.00,0.0240
1480.00,0.0252
1479.00,0.0264
1478.00,0.0278
1477.00,0.0296
1476.00,0.0316
1475.00,0.0338
1474.00,0.0368
1473.00,0.0414
1472.00,0.0470
1471.00,0.0525
1470.00,0.0575
1469.00,0.0626
1468.00,0.0680
1467.00,0.0739
1466.00,0.0808
1465.00,0.0885
1464.00,0.0953
1463.00,0.1001
1462.00,0.1032
1461.00,0.1053
1460.00,0.1068
1459.00,0.1081
1458.00,0.1100
1457.00,0.1125
1456.00,0.1140
1455.00,0.1138
1454.00,0.1126
1453.00,0.1110
1452.00,0.1087
1451.00,0.1055
1450.00,0.1013
1449.00,0.0958
1448.00,0.0891
1447.00,0.0820
1446.00,0.0755
1445.00,0.0699
1444.00,0.0651
1443.00,0.0611
1442.00,0.0583
1441.00,0.0563
1440.00,0.0551
1439.00,0.0545
1438.00,0.0546
1437.00,0.0549
1436.00,0.0543
1435.00,0.0523
1434.00,0.0491
1433.00,0.0453
1432.00,0.0414
1431.00,0.0380
1430.00,0.0355
1429.00,0.0336
1428.00,0.0323
1427.00,0.0314
1426.00,0.0308
1425.00,0.0301
1424.00,0.0295
1423.00,0.0290
1422.00,0.0286
1421.00,0.0281
1420.00,0.0276
1419.00,0.0271
1418.00,0.0265
1417.00,0.0259
1416.00,0.0251
1415.00,0.0245
1414.00,0.0239
1413.00,0.0233
1412.00,0.0226
1411.00,0.0220
1410.00,0.0214
1409.00,0.0208
1408.00,0.0202
1407.00,0.0197
1406.00,0.0193
1405.00,0.0188
1404.00,0.0184
1403.00,0.0180
1402.00,0.0178
1401.00,0.0175
1400.00,0.0172
1399.00,0.0170
1398.00,0.0168
1397.00,0.0165
1396.00,0.0163
1395.00,0.0163
1394.00,0.0164
1393.00,0.0166
1392.00,0.0168
1391.00,0.0173
1390.00,0.0181
1389.00,0.0194
1388.00,0.0214
1387.00,0.0245
1386.00,0.0287
1385.00,0.0340
1384.00,0.0410
1383.00,0.0504
1382.00,0.0628
1381.00,0.0783
1380.00,0.0971
1379.00,0.1181
1378.00,0.1379
1377.00,0.1522
1376.00,0.1571
1375.00,0.1504
1374.00,0.1337
1373.00,0.1126
1372.00,0.0925
1371.00,0.0753
1370.00,0.0614
1369.00,0.0508
1368.00,0.0435
1367.00,0.0390
1366.00,0.0365
1365.00,0.0355
1364.00,0.0357
1363.00,0.0369
1362.00,0.0386
1361.00,0.0404
1360.00,0.0415
1359.00,0.0416
1358.00,0.0405
1357.00,0.0381
1356.00,0.0349
1355.00,0.0315
1354.00,0.0282
1353.00,0.0254
1352.00,0.0231
1351.00,0.0213
1350.00,0.0198
1349.00,0.0186
1348.00,0.0177
1347.00,0.0169
1346.00,0.0162
1345.00,0.0157
1344.00,0.0152
1343.00,0.0148
1342.00,0.0146
1341.00,0.0144
1340.00,0.0142
1339.00,0.0141
1338.00,0.0140
1337.00,0.0139
1336.00,0.0139
1335.00,0.0140
1334.00,0.0142
1333.00,0.0145
1332.00,0.0148
1331.00,0.0150
1330.00,0.0150
1329.00,0.0148
1328.00,0.0145
1327.00,0.0141
1326.00,0.0136
1325.00,0.0131
1324.00,0.0126
1323.00,0.0122
1322.00,0.0119
1321.00,0.0117
1320.00,0.0115
1319.00,0.0113
1318.00,0.0111
1317.00,0.0109
1316.00,0.0108
1315.00,0.0106
1314.00,0.0106
1313.00,0.0105
1312.00,0.0106
1311.00,0.0107
1310.00,0.0110
1309.00,0.0115
1308.00,0.0122
1307.00,0.0131
1306.00,0.0139
1305.00,0.0145
1304.00,0.0147
1303.00,0.0145
1302.00,0.0142
1301.00,0.0139
1300.00,0.0137
1299.00,0.0137
1298.00,0.0137
1297.00,0.0137
1296.00,0.0135
1295.00,0.0132
1294.00,0.0129
1293.00,0.0124
1292.00,0.0120
1291.00,0.0116
1290.00,0.0112
1289.00,0.0108
1288.00,0.0105
1287.00,0.0103
1286.00,0.0100
1285.00,0.0098
1284.00,0.0097
1283.00,0.0095
1282.00,0.0093
1281.00,0.0092
1280.00,0.0091
1279.00,0.0090
1278.00,0.0089
1277.00,0.0089
1276.00,0.0088
1275.00,0.0086
1274.00,0.0085
1273.00,0.0084
1272.00,0.0083
1271.00,0.0083
1270.00,0.0084
1269.00,0.0084
1268.00,0.0085
1267.00,0.0085
1266.00,0.0086
1265.00,0.0086
1264.00,0.0087
1263.00,0.0089
1262.00,0.0091
1261.00,0.0095
1260.00,0.0100
1259.00,0.0105
1258.00,0.0110
1257.00,0.0114
1256.00,0.0116
1255.00,0.0114
1254.00,0.0109
1253.00,0.0103
1252.00,0.0097
1251.00,0.0092
1250.00,0.0089
1249.00,0.0088
1248.00,0.0087
1247.00,0.0087
1246.00,0.0086
1245.00,0.0086
1244.00,0.0086
1243.00,0.0085
1242.00,0.0084
1241.00,0.0084
1240.00,0.0084
1239.00,0.0084
1238.00,0.0084
1237.00,0.0085
1236.00,0.0086
1235.00,0.0086
1234.00,0.0087
1233.00,0.0087
1232.00,0.0088
1231.00,0.0090
1230.00,0.0091
1229.00,0.0092
1228.00,0.0093
1227.00,0.0095
1226.00,0.0098
1225.00,0.0101
1224.00,0.0104
1223.00,0.0107
1222.00,0.0110
1221.00,0.0113
1220.00,0.0114
1219.00,0.0115
1218.00,0.0115
1217.00,0.0115
1216.00,0.0113
1215.00,0.0111
1214.00,0.0108
1213.00,0.0106
1212.00,0.0104
1211.00,0.0103
1210.00,0.0101
1209.00,0.0100
1208.00,0.0098
1207.00,0.0097
1206.00,0.0096
1205.00,0.0096
1204.00,0.0095
1203.00,0.0095
1202.00,0.0094
1201.00,0.0094
1200.00,0.0093
1199.00,0.0094
1198.00,0.0094
1197.00,0.0094
1196.00,0.0095
1195.00,0.0095
1194.00,0.0095
1193.00,0.0095
1192.00,0.0094
1191.00,0.0094
1190.00,0.0093
1189.00,0.0092
1188.00,0.0091
1187.00,0.0090
1186.00,0.0089
1185.00,0.0089
1184.00,0.0089
1183.00,0.0090
1182.00,0.0091
1181.00,0.0092
1180.00,0.0094
1179.00,0.0098
1178.00,0.0102
1177.00,0.0108
1176.00,0.0117
1175.00,0.0128
1174.00,0.0143
1173.00,0.0162
1172.00,0.0184
1171.00,0.0209
1170.00,0.0232
1169.00,0.0251
1168.00,0.0262
1167.00,0.0264
1166.00,0.0259
1165.00,0.0249
1164.00,0.0236
1163.00,0.0224
1162.00,0.0212
1161.00,0.0202
1160.00,0.0194
1159.00,0.0187
1158.00,0.0181
1157.00,0.0176
1156.00,0.0173
1155.00,0.0171
1154.00,0.0169
1153.00,0.0167
1152.00,0.0164
1151.00,0.0159
1150.00,0.0152
1149.00,0.0144
1148.00,0.0137
1147.00,0.0130
1146.00,0.0123
1145.00,0.0117
1144.00,0.0111
1143.00,0.0106
1142.00,0.0102
1141.00,0.0098
1140.00,0.0094
1139.00,0.0091
1138.00,0.0088
1137.00,0.0086
1136.00,0.0085
1135.00,0.0085
1134.00,0.0084
1133.00,0.0084
1132.00,0.0083
1131.00,0.0084
1130.00,0.0086
1129.00,0.0088
1128.00,0.0089
1127.00,0.0089
1126.00,0.0090
1125.00,0.0091
1124.00,0.0092
1123.00,0.0093
1122.00,0.0094
1121.00,0.0094
1120.00,0.0095
1119.00,0.0095
1118.00,0.0097
1117.00,0.0098
1116.00,0.0099
1115.00,0.0102
1114.00,0.0104
1113.00,0.0106
1112.00,0.0108
1111.00,0.0111
1110.00,0.0114
1109.00,0.0118
1108.00,0.0122
1107.00,0.0127
1106.00,0.0132
1105.00,0.0137
1104.00,0.0141
1103.00,0.0143
1102.00,0.0143
1101.00,0.0141
1100.00,0.0136
1099.00,0.0130
1098.00,0.0124
1097.00,0.0119
1096.00,0.0113
1095.00,0.0109
1094.00,0.0105
1093.00,0.0101
1092.00,0.0098
1091.00,0.0096
1090.00,0.0094
1089.00,0.0092
1088.00,0.0090
1087.00,0.0088
1086.00,0.0087
1085.00,0.0087
1084.00,0.0087
1083.00,0.0086
1082.00,0.0085
1081.00,0.0084
1080.00,0.0083
1079.00,0.0082
1078.00,0.0081
1077.00,0.0080
1076.00,0.0078
1075.00,0.0077
1074.00,0.0077
1073.00,0.0077
1072.00,0.0078
1071.00,0.0078
1070.00,0.0078
1069.00,0.0078
1068.00,0.0079
1067.00,0.0080
1066.00,0.0081
1065.00,0.0082
1064.00,0.0083
1063.00,0.0084
1062.00,0.0086
1061.00,0.0088
1060.00,0.0089
1059.00,0.0090
1058.00,0.0091
1057.00,0.0092
1056.00,0.0093
1055.00,0.0094
1054.00,0.0095
1053.00,0.0097
1052.00,0.0100
1051.00,0.0102
1050.00,0.0105
1049.00,0.0107
1048.00,0.0111
1047.00,0.0114
1046.00,0.0116
1045.00,0.0116
1044.00,0.0116
1043.00,0.0115
1042.00,0.0115
1041.00,0.0114
1040.00,0.0114
1039.00,0.0114
1038.00,0.0115
1037.00,0.0116
1036.00,0.0118
1035.00,0.0118
1034.00,0.0118
1033.00,0.0116
1032.00,0.0115
1031.00,0.0115
1030.00,0.0115
1029.00,0.0115
1028.00,0.0114
1027.00,0.0113
1026.00,0.0112
1025.00,0.0111
1024.00,0.0111
1023.00,0.0112
1022.00,0.0112
1021.00,0.0112
1020.00,0.0113
1019.00,0.0114
1018.00,0.0116
1017.00,0.0117
1016.00,0.0119
1015.00,0.0122
1014.00,0.0125
1013.00,0.0129
1012.00,0.0132
1011.00,0.0135
1010.00,0.0137
1009.00,0.0138
1008.00,0.0141
1007.00,0.0145
1006.00,0.0151
1005.00,0.0159
1004.00,0.0172
1003.00,0.0189
1002.00,0.0211
1001.00,0.0238
1000.00,0.0265
999.00,0.0287
998.00,0.0296
997.00,0.0288
996.00,0.0267
995.00,0.0239
994.00,0.0208
993.00,0.0181
992.00,0.0159
991.00,0.0143
990.00,0.0132
989.00,0.0124
988.00,0.0119
987.00,0.0117
986.00,0.0116
985.00,0.0116
984.00,0.0119
983.00,0.0125
982.00,0.0135
981.00,0.0148
980.00,0.0167
979.00,0.0192
978.00,0.0221
977.00,0.0253
976.00,0.0287
975.00,0.0318
974.00,0.0339
973.00,0.0344
972.00,0.0329
971.00,0.0297
970.00,0.0256
969.00,0.0215
968.00,0.0178
967.00,0.0150
966.00,0.0130
965.00,0.0115
964.00,0.0104
963.00,0.0096
962.00,0.0090
961.00,0.0084
960.00,0.0078
959.00,0.0074
958.00,0.0069
957.00,0.0066
956.00,0.0064
955.00,0.0062
954.00,0.0061
953.00,0.0059
952.00,0.0058
951.00,0.0057
950.00,0.0057
949.00,0.0058
948.00,0.0060
947.00,0.0062
946.00,0.0064
945.00,0.0067
944.00,0.0070
943.00,0.0074
942.00,0.0077
941.00,0.0078
940.00,0.0078
939.00,0.0076
938.00,0.0073
937.00,0.0071
936.00,0.0069
935.00,0.0068
934.00,0.0068
933.00,0.0068
932.00,0.0067
931.00,0.0066
930.00,0.0066
929.00,0.0066
928.00,0.0067
927.00,0.0067
926.00,0.0068
925.00,0.0070
924.00,0.0071
923.00,0.0071
922.00,0.0071
921.00,0.0072
920.00,0.0073
919.00,0.0075
918.00,0.0078
917.00,0.0079
916.00,0.0080
915.00,0.0081
914.00,0.0081
913.00,0.0082
912.00,0.0082
911.00,0.0083
910.00,0.0084
909.00,0.0085
908.00,0.0086
907.00,0.0089
906.00,0.0095
905.00,0.0105
904.00,0.0118
903.00,0.0134
902.00,0.0151
901.00,0.0166
900.00,0.0176
899.00,0.0179
898.00,0.0174
897.00,0.0162
896.00,0.0146
895.00,0.0130
894.00,0.0117
893.00,0.0107
892.00,0.0100
891.00,0.0095
890.00,0.0092
889.00,0.0089
888.00,0.0087
887.00,0.0087
886.00,0.0087
885.00,0.0088
884.00,0.0091
883.00,0.0095
882.00,0.0102
881.00,0.0110
880.00,0.0119
879.00,0.0128
878.00,0.0136
877.00,0.0140
876.00,0.0142
875.00,0.0142
874.00,0.0138
873.00,0.0130
872.00,0.0119
871.00,0.0109
870.00,0.0101
869.00,0.0095
868.00,0.0092
867.00,0.0090
866.00,0.0090
865.00,0.0091
864.00,0.0091
863.00,0.0090
862.00,0.0088
861.00,0.0088
860.00,0.0090
859.00,0.0093
858.00,0.0097
857.00,0.0098
856.00,0.0099
855.00,0.0099
854.00,0.0100
853.00,0.0102
852.00,0.0105
851.00,0.0108
850.00,0.0113
849.00,0.0119
848.00,0.0128
847.00,0.0141
846.00,0.0159
845.00,0.0185
844.00,0.0217
843.00,0.0250
842.00,0.0273
841.00,0.0275
840.00,0.0256
839.00,0.0225
838.00,0.0193
837.00,0.0167
836.00,0.0150
835.00,0.0139
834.00,0.0132
833.00,0.0127
832.00,0.0123
831.00,0.0120
830.00,0.0118
829.00,0.0115
828.00,0.0113
827.00,0.0111
826.00,0.0111
825.00,0.0110
824.00,0.0109
823.00,0.0108
822.00,0.0108
821.00,0.0108
820.00,0.0111
819.00,0.0114
818.00,0.0119
817.00,0.0124
816.00,0.0131
815.00,0.0140
814.00,0.0152
813.00,0.0165
812.00,0.0177
811.00,0.0188
810.00,0.0195
809.00,0.0199
808.00,0.0197
807.00,0.0190
806.00,0.0180
805.00,0.0168
804.00,0.0156
803.00,0.0146
802.00,0.0138
801.00,0.0131
800.00,0.0125
799.00,0.0121
798.00,0.0117
797.00,0.0113
796.00,0.0109
795.00,0.0106
794.00,0.0103
793.00,0.0100
792.00,0.0097
791.00,0.0094
790.00,0.0092
789.00,0.0090
788.00,0.0090
787.00,0.0090
786.00,0.0089
785.00,0.0088
784.00,0.0087
783.00,0.0085
782.00,0.0083
781.00,0.0080
780.00,0.0078
779.00,0.0078
778.00,0.0078
777.00,0.0078
776.00,0.0079
775.00,0.0079
774.00,0.0080
773.00,0.0083
772.00,0.0086
771.00,0.0090
770.00,0.0093
769.00,0.0094
768.00,0.0093
767.00,0.0091
766.00,0.0090
765.00,0.0089
764.00,0.0089
763.00,0.0089
762.00,0.0087
761.00,0.0083
760.00,0.0079
759.00,0.0077
758.00,0.0076
757.00,0.0076
756.00,0.0076
755.00,0.0075
754.00,0.0074
753.00,0.0073
752.00,0.0072
751.00,0.0071
750.00,0.0070
749.00,0.0069
748.00,0.0068
747.00,0.0069
746.00,0.0070
745.00,0.0073
744.00,0.0075
743.00,0.0076
742.00,0.0076
741.00,0.0077
740.00,0.0078
739.00,0.0080
738.00,0.0082
737.00,0.0083
736.00,0.0085
735.00,0.0086
734.00,0.0087
733.00,0.0086
732.00,0.0086
731.00,0.0085
730.00,0.0084
729.00,0.0084
728.00,0.0085
727.00,0.0086
726.00,0.0087
725.00,0.0089
724.00,0.0090
723.00,0.0089
722.00,0.0089
721.00,0.0089
720.00,0.0088
719.00,0.0089
718.00,0.0089
717.00,0.0089
716.00,0.0089
715.00,0.0089
714.00,0.0090
713.00,0.0090
712.00,0.0089
711.00,0.0087
710.00,0.0085
709.00,0.0082
708.00,0.0081
707.00,0.0081
706.00,0.0082
705.00,0.0083
704.00,0.0082
703.00,0.0081
702.00,0.0080
701.00,0.0078
700.00,0.0078
699.00,0.0078
698.00,0.0080
697.00,0.0081
696.00,0.0082
695.00,0.0083
694.00,0.0082
693.00,0.0081
692.00,0.0079
691.00,0.0078
690.00,0.0078
689.00,0.0079
688.00,0.0080
687.00,0.0080
686.00,0.0079
685.00,0.0078
684.00,0.0078
683.00,0.0079
682.00,0.0079
681.00,0.0077
680.00,0.0075
679.00,0.0073
678.00,0.0074
677.00,0.0076
676.00,0.0079
675.00,0.0082
674.00,0.0084
673.00,0.0084
672.00,0.0083
671.00,0.0083
670.00,0.0084
669.00,0.0086
668.00,0.0087
667.00,0.0087
666.00,0.0084
665.00,0.0081
664.00,0.0080
663.00,0.0081
662.00,0.0080
661.00,0.0080
660.00,0.0079
659.00,0.0078
658.00,0.0078
657.00,0.0077
656.00,0.0075
655.00,0.0074
654.00,0.0074
653.00,0.0075
652.00,0.0075
651.00,0.0075
650.00,0.0074
649.00,0.0073
648.00,0.0072
647.00,0.0072
646.00,0.0074
645.00,0.0076
644.00,0.0077
643.00,0.0079
642.00,0.0080
641.00,0.0082
640.00,0.0083
639.00,0.0085
638.00,0.0085
637.00,0.0084
636.00,0.0082
635.00,0.0080
634.00,0.0079
633.00,0.0078
632.00,0.0079
631.00,0.0081
630.00,0.0084
629.00,0.0086
628.00,0.0085
627.00,0.0083
626.00,0.0082
625.00,0.0082
624.00,0.0083
623.00,0.0082
622.00,0.0081
621.00,0.0081
620.00,0.0082
619.00,0.0084
618.00,0.0086
617.00,0.0086
616.00,0.0086
615.00,0.0086
614.00,0.0088
613.00,0.0090
612.00,0.0090
611.00,0.0090
610.00,0.0089
609.00,0.0089
608.00,0.0089
607.00,0.0088
606.00,0.0088
605.00,0.0087
604.00,0.0087
603.00,0.0086
602.00,0.0086
601.00,0.0085
600.00,0.0087
599.00,0.0089
598.00,0.0090
597.00,0.0088
596.00,0.0084
595.00,0.0079
594.00,0.0076
593.00,0.0075
592.00,0.0077
591.00,0.0080
590.00,0.0085
589.00,0.0088
588.00,0.0089
587.00,0.0088
586.00,0.0088
585.00,0.0089
584.00,0.0089
583.00,0.0090
582.00,0.0090
581.00,0.0088
580.00,0.0085
579.00,0.0082
578.00,0.0082
577.00,0.0084
576.00,0.0088
575.00,0.0090
574.00,0.0090
573.00,0.0089
572.00,0.0088
571.00,0.0088
570.00,0.0090
569.00,0.0091
568.00,0.0092
567.00,0.0091
566.00,0.0091
565.00,0.0089
564.00,0.0088
563.00,0.0087
562.00,0.0087
561.00,0.0088
560.00,0.0090
559.00,0.0092
558.00,0.0090
557.00,0.0088
556.00,0.0084
555.00,0.0082
554.00,0.0081
553.00,0.0080
552.00,0.0080
551.00,0.0082
550.00,0.0086
549.00,0.0088
548.00,0.0088
547.00,0.0085
546.00,0.0083
545.00,0.0082
544.00,0.0083
543.00,0.0085
542.00,0.0088
541.00,0.0092
540.00,0.0094
539.00,0.0095
538.00,0.0096
537.00,0.0099
536.00,0.0104
535.00,0.0109
534.00,0.0111
533.00,0.0112
532.00,0.0112
531.00,0.0111
530.00,0.0110
529.00,0.0108
528.00,0.0105
527.00,0.0102
526.00,0.0099
525.00,0.0096
524.00,0.0095
523.00,0.0095
522.00,0.0096
521.00,0.0100
520.00,0.0103
519.00,0.0107
518.00,0.0109
517.00,0.0109
516.00,0.0106
515.00,0.0101
514.00,0.0099
513.00,0.0099
512.00,0.0101
511.00,0.0101
510.00,0.0099
509.00,0.0093
508.00,0.0088
507.00,0.0083
506.00,0.0080
505.00,0.0078
504.00,0.0077
503.00,0.0077
502.00,0.0078
501.00,0.0078
500.00,0.0079
499.00,0.0083
498.00,0.0088
497.00,0.0092
496.00,0.0093
495.00,0.0092
494.00,0.0088
493.00,0.0082
492.00,0.0075
491.00,0.0073
490.00,0.0076
489.00,0.0082
488.00,0.0091
487.00,0.0099
486.00,0.0104
485.00,0.0105
484.00,0.0104
483.00,0.0104
482.00,0.0102
481.00,0.0095
480.00,0.0084
479.00,0.0074
478.00,0.0070
477.00,0.0072
476.00,0.0078
475.00,0.0083
474.00,0.0086
473.00,0.0087
472.00,0.0090
471.00,0.0099
470.00,0.0108
469.00,0.0112
468.00,0.0107
467.00,0.0101
466.00,0.0100
465.00,0.0108
464.00,0.0122
463.00,0.0135
462.00,0.0142
461.00,0.0139
460.00,0.0131
459.00,0.0127
458.00,0.0137
457.00,0.0155
456.00,0.0166
455.00,0.0163
454.00,0.0146
453.00,0.0120
452.00,0.0097
451.00,0.0085
450.00,0.0086
