Created as New Dataset,Sample 038 By Administrator Date Friday, September 05 2025
cm-1,A
4000.00,0.0009
3999.00,0.0010
3998.00,0.0010
3997.00,0.0010
3996.00,0.0010
3995.00,0.0010
3994.00,0.0010
3993.00,0.0010
3992.00,0.0010
3991.00,0.0010
3990.00,0.0010
3989.00,0.0010
3988.00,0.0010
3987.00,0.0009
3986.00,0.0009
3985.00,0.0009
3984.00,0.0009
3983.00,0.0009
3982.00,0.0009
3981.00,0.0009
3980.00,0.0009
3979.00,0.0009
3978.00,0.0008
3977.00,0.0008
3976.00,0.0008
3975.00,0.0008
3974.00,0.0008
3973.00,0.0007
3972.00,0.0007
3971.00,0.0007
3970.00,0.0007
3969.00,0.0007
3968.00,0.0007
3967.00,0.0007
3966.00,0.0007
3965.00,0.0007
3964.00,0.0008
3963.00,0.0008
3962.00,0.0008
3961.00,0.0008
3960.00,0.0008
3959.00,0.0008
3958.00,0.0008
3957.00,0.0008
3956.00,0.0008
3955.00,0.0008
3954.00,0.0008
3953.00,0.0008
3952.00,0.0007
3951.00,0.0007
3950.00,0.0007
3949.00,0.0007
3948.00,0.0007
3947.00,0.0008
3946.00,0.0008
3945.00,0.0008
3944.00,0.0009
3943.00,0.0009
3942.00,0.0009
3941.00,0.0009
3940.00,0.0008
3939.00,0.0007
3938.00,0.0007
3937.00,0.0007
3936.00,0.0008
3935.00,0.0008
3934.00,0.0008
3933.00,0.0008
3932.00,0.0008
3931.00,0.0008
3930.00,0.0009
3929.00,0.0009
3928.00,0.0009
3927.00,0.0009
3926.00,0.0009
3925.00,0.0010
3924.00,0.0009
3923.00,0.0009
3922.00,0.0009
3921.00,0.0009
3920.00,0.0009
3919.00,0.0009
3918.00,0.0008
3917.00,0.0008
3916.00,0.0008
3915.00,0.0008
3914.00,0.0008
3913.00,0.0008
3912.00,0.0008
3911.00,0.0008
3910.00,0.0009
3909.00,0.0009
3908.00,0.0009
3907.00,0.0009
3906.00,0.0009
3905.00,0.0008
3904.00,0.0008
3903.00,0.0008
3902.00,0.0008
3901.00,0.0008
3900.00,0.0009
3899.00,0.0009
3898.00,0.0009
3897.00,0.0008
3896.00,0.0008
3895.00,0.0008
3894.00,0.0008
3893.00,0.0008
3892.00,0.0007
3891.00,0.0007
3890.00,0.0007
3889.00,0.0007
3888.00,0.0007
3887.00,0.0007
3886.00,0.0008
3885.00,0.0008
3884.00,0.0008
3883.00,0.0008
3882.00,0.0008
3881.00,0.0008
3880.00,0.0008
3879.00,0.0008
3878.00,0.0008
3877.00,0.0008
3876.00,0.0008
3875.00,0.0008
3874.00,0.0008
3873.00,0.0008
3872.00,0.0008
3871.00,0.0007
3870.00,0.0007
3869.00,0.0008
3868.00,0.0007
3867.00,0.0007
3866.00,0.0006
3865.00,0.0006
3864.00,0.0006
3863.00,0.0006
3862.00,0.0006
3861.00,0.0006
3860.00,0.0006
3859.00,0.0006
3858.00,0.0006
3857.00,0.0006
3856.00,0.0006
3855.00,0.0006
3854.00,0.0006
3853.00,0.0006
3852.00,0.0006
3851.00,0.0006
3850.00,0.0006
3849.00,0.0006
3848.00,0.0006
3847.00,0.0007
3846.00,0.0006
3845.00,0.0006
3844.00,0.0006
3843.00,0.0006
3842.00,0.0006
3841.00,0.0006
3840.00,0.0006
3839.00,0.0006
3838.00,0.0006
3837.00,0.0006
3836.00,0.0006
3835.00,0.0007
3834.00,0.0007
3833.00,0.0007
3832.00,0.0007
3831.00,0.0007
3830.00,0.0007
3829.00,0.0006
3828.00,0.0006
3827.00,0.0006
3826.00,0.0005
3825.00,0.0005
3824.00,0.0005
3823.00,0.0005
3822.00,0.0005
3821.00,0.0006
3820.00,0.0006
3819.00,0.0005
3818.00,0.0005
3817.00,0.0004
3816.00,0.0005
3815.00,0.0005
3814.00,0.0006
3813.00,0.0006
3812.00,0.0007
3811.00,0.0007
3810.00,0.0007
3809.00,0.0007
3808.00,0.0007
3807.00,0.0006
3806.00,0.0006
3805.00,0.0006
3804.00,0.0006
3803.00,0.0005
3802.00,0.0005
3801.00,0.0006
3800.00,0.0006
3799.00,0.0006
3798.00,0.0006
3797.00,0.0006
3796.00,0.0006
3795.00,0.0006
3794.00,0.0007
3793.00,0.0007
3792.00,0.0007
3791.00,0.0007
3790.00,0.0008
3789.00,0.0008
3788.00,0.0008
3787.00,0.0008
3786.00,0.0008
3785.00,0.0008
3784.00,0.0007
3783.00,0.0007
3782.00,0.0007
3781.00,0.0008
3780.00,0.0008
3779.00,0.0008
3778.00,0.0008
3777.00,0.0008
3776.00,0.0007
3775.00,0.0007
3774.00,0.0007
3773.00,0.0007
3772.00,0.0007
3771.00,0.0007
3770.00,0.0008
3769.00,0.0008
3768.00,0.0009
3767.00,0.0009
3766.00,0.0009
3765.00,0.0009
3764.00,0.0009
3763.00,0.0009
3762.00,0.0009
3761.00,0.0008
3760.00,0.0008
3759.00,0.0008
3758.00,0.0007
3757.00,0.0007
3756.00,0.0006
3755.00,0.0006
3754.00,0.0006
3753.00,0.0005
3752.00,0.0005
3751.00,0.0005
3750.00,0.0005
3749.00,0.0006
3748.00,0.0006
3747.00,0.0006
3746.00,0.0006
3745.00,0.0006
3744.00,0.0006
3743.00,0.0006
3742.00,0.0005
3741.00,0.0005
3740.00,0.0005
3739.00,0.0005
3738.00,0.0005
3737.00,0.0005
3736.00,0.0005
3735.00,0.0005
3734.00,0.0006
3733.00,0.0005
3732.00,0.0005
3731.00,0.0005
3730.00,0.0005
3729.00,0.0005
3728.00,0.0005
3727.00,0.0005
3726.00,0.0005
3725.00,0.0005
3724.00,0.0005
3723.00,0.0005
3722.00,0.0004
3721.00,0.0004
3720.00,0.0004
3719.00,0.0004
3718.00,0.0004
3717.00,0.0005
3716.00,0.0005
3715.00,0.0006
3714.00,0.0006
3713.00,0.0006
3712.00,0.0007
3711.00,0.0007
3710.00,0.0007
3709.00,0.0006
3708.00,0.0006
3707.00,0.0005
3706.00,0.0005
3705.00,0.0006
3704.00,0.0006
3703.00,0.0006
3702.00,0.0006
3701.00,0.0006
3700.00,0.0005
3699.00,0.0005
3698.00,0.0005
3697.00,0.0005
3696.00,0.0005
3695.00,0.0005
3694.00,0.0005
3693.00,0.0005
3692.00,0.0005
3691.00,0.0005
3690.00,0.0004
3689.00,0.0003
3688.00,0.0003
3687.00,0.0003
3686.00,0.0003
3685.00,0.0003
3684.00,0.0003
3683.00,0.0003
3682.00,0.0003
3681.00,0.0002
3680.00,0.0002
3679.00,0.0002
3678.00,0.0001
3677.00,-0.0000
3676.00,-0.0001
3675.00,-0.0002
3674.00,-0.0002
3673.00,-0.0002
3672.00,-0.0002
3671.00,-0.0003
3670.00,-0.0003
3669.00,-0.0003
3668.00,-0.0003
3667.00,-0.0004
3666.00,-0.0004
3665.00,-0.0004
3664.00,-0.0004
3663.00,-0.0003
3662.00,-0.0003
3661.00,-0.0003
3660.00,-0.0004
3659.00,-0.0004
3658.00,-0.0004
3657.00,-0.0004
3656.00,-0.0004
3655.00,-0.0004
3654.00,-0.0004
3653.00,-0.0004
3652.00,-0.0005
3651.00,-0.0005
3650.00,-0.0005
3649.00,-0.0004
3648.00,-0.0003
3647.00,-0.0002
3646.00,-0.0003
3645.00,-0.0003
3644.00,-0.0003
3643.00,-0.0002
3642.00,-0.0002
3641.00,-0.0001
3640.00,-0.0001
3639.00,-0.0001
3638.00,-0.0001
3637.00,-0.0001
3636.00,0.0000
3635.00,0.0001
3634.00,0.0002
3633.00,0.0002
3632.00,0.0002
3631.00,0.0002
3630.00,0.0003
3629.00,0.0003
3628.00,0.0003
3627.00,0.0003
3626.00,0.0003
3625.00,0.0003
3624.00,0.0003
3623.00,0.0003
3622.00,0.0003
3621.00,0.0003
3620.00,0.0004
3619.00,0.0004
3618.00,0.0004
3617.00,0.0004
3616.00,0.0005
3615.00,0.0005
3614.00,0.0006
3613.00,0.0006
3612.00,0.0006
3611.00,0.0006
3610.00,0.0006
3609.00,0.0006
3608.00,0.0007
3607.00,0.0007
3606.00,0.0006
3605.00,0.0006
3604.00,0.0006
3603.00,0.0006
3602.00,0.0006
3601.00,0.0006
3600.00,0.0006
3599.00,0.0007
3598.00,0.0007
3597.00,0.0008
3596.00,0.0008
3595.00,0.0009
3594.00,0.0009
3593.00,0.0008
3592.00,0.0008
3591.00,0.0008
3590.00,0.0008
3589.00,0.0008
3588.00,0.0008
3587.00,0.0009
3586.00,0.0009
3585.00,0.0010
3584.00,0.0010
3583.00,0.0010
3582.00,0.0010
3581.00,0.0010
3580.00,0.0010
3579.00,0.0009
3578.00,0.0009
3577.00,0.0009
3576.00,0.0009
3575.00,0.0010
3574.00,0.0010
3573.00,0.0011
3572.00,0.0011
3571.00,0.0011
3570.00,0.0011
3569.00,0.0011
3568.00,0.0011
3567.00,0.0012
3566.00,0.0012
3565.00,0.0012
3564.00,0.0012
3563.00,0.0012
3562.00,0.0012
3561.00,0.0012
3560.00,0.0012
3559.00,0.0012
3558.00,0.0013
3557.00,0.0013
3556.00,0.0013
3555.00,0.0013
3554.00,0.0013
3553.00,0.0013
3552.00,0.0013
3551.00,0.0013
3550.00,0.0014
3549.00,0.0014
3548.00,0.0014
3547.00,0.0014
3546.00,0.0014
3545.00,0.0014
3544.00,0.0014
3543.00,0.0015
3542.00,0.0015
3541.00,0.0015
3540.00,0.0015
3539.00,0.0015
3538.00,0.0016
3537.00,0.0016
3536.00,0.0016
3535.00,0.0016
3534.00,0.0016
3533.00,0.0016
3532.00,0.0015
3531.00,0.0015
3530.00,0.0016
3529.00,0.0016
3528.00,0.0016
3527.00,0.0017
3526.00,0.0017
3525.00,0.0017
3524.00,0.0017
3523.00,0.0018
3522.00,0.0018
3521.00,0.0019
3520.00,0.0019
3519.00,0.0018
3518.00,0.0018
3517.00,0.0018
3516.00,0.0018
3515.00,0.0017
3514.00,0.0017
3513.00,0.0018
3512.00,0.0018
3511.00,0.0018
3510.00,0.0018
3509.00,0.0018
3508.00,0.0019
3507.00,0.0019
3506.00,0.0019
3505.00,0.0019
3504.00,0.0019
3503.00,0.0019
3502.00,0.0019
3501.00,0.0019
3500.00,0.0019
3499.00,0.0019
3498.00,0.0019
3497.00,0.0019
3496.00,0.0020
3495.00,0.0020
3494.00,0.0020
3493.00,0.0020
3492.00,0.0020
3491.00,0.0021
3490.00,0.0021
3489.00,0.0021
3488.00,0.0021
3487.00,0.0021
3486.00,0.0021
3485.00,0.0021
3484.00,0.0021
3483.00,0.0021
3482.00,0.0021
3481.00,0.0020
3480.00,0.0021
3479.00,0.0021
3478.00,0.0022
3477.00,0.0022
3476.00,0.0022
3475.00,0.0022
3474.00,0.0022
3473.00,0.0022
3472.00,0.0022
3471.00,0.0023
3470.00,0.0023
3469.00,0.0023
3468.00,0.0023
3467.00,0.0023
3466.00,0.0023
3465.00,0.0024
3464.00,0.0024
3463.00,0.0024
3462.00,0.0025
3461.00,0.0025
3460.00,0.0025
3459.00,0.0025
3458.00,0.0025
3457.00,0.0024
3456.00,0.0024
3455.00,0.0024
3454.00,0.0024
3453.00,0.0024
3452.00,0.0024
3451.00,0.0024
3450.00,0.0024
3449.00,0.0025
3448.00,0.0025
3447.00,0.0026
3446.00,0.0026
3445.00,0.0026
3444.00,0.0027
3443.00,0.0027
3442.00,0.0027
3441.00,0.0027
3440.00,0.0027
3439.00,0.0027
3438.00,0.0027
3437.00,0.0028
3436.00,0.0028
3435.00,0.0028
3434.00,0.0028
3433.00,0.0028
3432.00,0.0029
3431.00,0.0029
3430.00,0.0029
3429.00,0.0030
3428.00,0.0030
3427.00,0.0030
3426.00,0.0030
3425.00,0.0030
3424.00,0.0031
3423.00,0.0031
3422.00,0.0031
3421.00,0.0031
3420.00,0.0031
3419.00,0.0031
3418.00,0.0030
3417.00,0.0030
3416.00,0.0031
3415.00,0.0031
3414.00,0.0031
3413.00,0.0032
3412.00,0.0032
3411.00,0.0032
3410.00,0.0032
3409.00,0.0032
3408.00,0.0032
3407.00,0.0032
3406.00,0.0032
3405.00,0.0032
3404.00,0.0032
3403.00,0.0032
3402.00,0.0032
3401.00,0.0033
3400.00,0.0033
3399.00,0.0033
3398.00,0.0033
3397.00,0.0033
3396.00,0.0034
3395.00,0.0034
3394.00,0.0034
3393.00,0.0034
3392.00,0.0034
3391.00,0.0034
3390.00,0.0034
3389.00,0.0034
3388.00,0.0034
3387.00,0.0034
3386.00,0.0034
3385.00,0.0034
3384.00,0.0035
3383.00,0.0035
3382.00,0.0035
3381.00,0.0035
3380.00,0.0034
3379.00,0.0034
3378.00,0.0034
3377.00,0.0033
3376.00,0.0033
3375.00,0.0034
3374.00,0.0034
3373.00,0.0034
3372.00,0.0034
3371.00,0.0034
3370.00,0.0034
3369.00,0.0035
3368.00,0.0035
3367.00,0.0034
3366.00,0.0034
3365.00,0.0034
3364.00,0.0035
3363.00,0.0035
3362.00,0.0035
3361.00,0.0035
3360.00,0.0035
3359.00,0.0035
3358.00,0.0036
3357.00,0.0036
3356.00,0.0036
3355.00,0.0036
3354.00,0.0036
3353.00,0.0036
3352.00,0.0036
3351.00,0.0036
3350.00,0.0036
3349.00,0.0036
3348.00,0.0036
3347.00,0.0036
3346.00,0.0037
3345.00,0.0037
3344.00,0.0037
3343.00,0.0036
3342.00,0.0036
3341.00,0.0036
3340.00,0.0036
3339.00,0.0037
3338.00,0.0037
3337.00,0.0037
3336.00,0.0037
3335.00,0.0036
3334.00,0.0036
3333.00,0.0036
3332.00,0.0036
3331.00,0.0036
3330.00,0.0037
3329.00,0.0037
3328.00,0.0037
3327.00,0.0036
3326.00,0.0036
3325.00,0.0036
3324.00,0.0036
3323.00,0.0036
3322.00,0.0036
3321.00,0.0037
3320.00,0.0037
3319.00,0.0037
3318.00,0.0037
3317.00,0.0037
3316.00,0.0036
3315.00,0.0036
3314.00,0.0036
3313.00,0.0036
3312.00,0.0036
3311.00,0.0036
3310.00,0.0036
3309.00,0.0036
3308.00,0.0036
3307.00,0.0037
3306.00,0.0037
3305.00,0.0037
3304.00,0.0037
3303.00,0.0037
3302.00,0.0037
3301.00,0.0038
3300.00,0.0038
3299.00,0.0037
3298.00,0.0037
3297.00,0.0037
3296.00,0.0036
3295.00,0.0036
3294.00,0.0036
3293.00,0.0036
3292.00,0.0036
3291.00,0.0037
3290.00,0.0037
3289.00,0.0037
3288.00,0.0037
3287.00,0.0037
3286.00,0.0037
3285.00,0.0037
3284.00,0.0037
3283.00,0.0037
3282.00,0.0036
3281.00,0.0036
3280.00,0.0036
3279.00,0.0036
3278.00,0.0036
3277.00,0.0036
3276.00,0.0036
3275.00,0.0036
3274.00,0.0035
3273.00,0.0035
3272.00,0.0036
3271.00,0.0036
3270.00,0.0036
3269.00,0.0036
3268.00,0.0036
3267.00,0.0036
3266.00,0.0035
3265.00,0.0035
3264.00,0.0035
3263.00,0.0034
3262.00,0.0034
3261.00,0.0034
3260.00,0.0034
3259.00,0.0034
3258.00,0.0034
3257.00,0.0034
3256.00,0.0034
3255.00,0.0034
3254.00,0.0034
3253.00,0.0034
3252.00,0.0034
3251.00,0.0034
3250.00,0.0034
3249.00,0.0034
3248.00,0.0034
3247.00,0.0034
3246.00,0.0034
3245.00,0.0034
3244.00,0.0034
3243.00,0.0033
3242.00,0.0033
3241.00,0.0033
3240.00,0.0033
3239.00,0.0033
3238.00,0.0034
3237.00,0.0033
3236.00,0.0033
3235.00,0.0033
3234.00,0.0033
3233.00,0.0033
3232.00,0.0033
3231.00,0.0033
3230.00,0.0033
3229.00,0.0034
3228.00,0.0034
3227.00,0.0034
3226.00,0.0034
3225.00,0.0034
3224.00,0.0034
3223.00,0.0034
3222.00,0.0034
3221.00,0.0035
3220.00,0.0035
3219.00,0.0036
3218.00,0.0036
3217.00,0.0036
3216.00,0.0036
3215.00,0.0036
3214.00,0.0036
3213.00,0.0037
3212.00,0.0037
3211.00,0.0037
3210.00,0.0037
3209.00,0.0037
3208.00,0.0038
3207.00,0.0038
3206.00,0.0038
3205.00,0.0038
3204.00,0.0038
3203.00,0.0037
3202.00,0.0037
3201.00,0.0037
3200.00,0.0037
3199.00,0.0038
3198.00,0.0038
3197.00,0.0038
3196.00,0.0039
3195.00,0.0039
3194.00,0.0039
3193.00,0.0039
3192.00,0.0039
3191.00,0.0039
3190.00,0.0039
3189.00,0.0039
3188.00,0.0039
3187.00,0.0038
3186.00,0.0038
3185.00,0.0037
3184.00,0.0036
3183.00,0.0036
3182.00,0.0036
3181.00,0.0036
3180.00,0.0037
3179.00,0.0037
3178.00,0.0037
3177.00,0.0036
3176.00,0.0036
3175.00,0.0035
3174.00,0.0035
3173.00,0.0035
3172.00,0.0035
3171.00,0.0035
3170.00,0.0035
3169.00,0.0035
3168.00,0.0035
3167.00,0.0035
3166.00,0.0035
3165.00,0.0035
3164.00,0.0035
3163.00,0.0035
3162.00,0.0034
3161.00,0.0034
3160.00,0.0034
3159.00,0.0034
3158.00,0.0034
3157.00,0.0034
3156.00,0.0034
3155.00,0.0034
3154.00,0.0034
3153.00,0.0033
3152.00,0.0033
3151.00,0.0033
3150.00,0.0033
3149.00,0.0034
3148.00,0.0034
3147.00,0.0035
3146.00,0.0035
3145.00,0.0035
3144.00,0.0035
3143.00,0.0034
3142.00,0.0034
3141.00,0.0033
3140.00,0.0033
3139.00,0.0033
3138.00,0.0033
3137.00,0.0033
3136.00,0.0033
3135.00,0.0033
3134.00,0.0033
3133.00,0.0033
3132.00,0.0033
3131.00,0.0032
3130.00,0.0032
3129.00,0.0031
3128.00,0.0031
3127.00,0.0030
3126.00,0.0030
3125.00,0.0030
3124.00,0.0029
3123.00,0.0029
3122.00,0.0029
3121.00,0.0029
3120.00,0.0029
3119.00,0.0029
3118.00,0.0029
3117.00,0.0028
3116.00,0.0028
3115.00,0.0029
3114.00,0.0029
3113.00,0.0030
3112.00,0.0030
3111.00,0.0030
3110.00,0.0029
3109.00,0.0029
3108.00,0.0029
3107.00,0.0028
3106.00,0.0028
3105.00,0.0028
3104.00,0.0027
3103.00,0.0027
3102.00,0.0027
3101.00,0.0027
3100.00,0.0027
3099.00,0.0027
3098.00,0.0027
3097.00,0.0027
3096.00,0.0027
3095.00,0.0027
3094.00,0.0027
3093.00,0.0027
3092.00,0.0028
3091.00,0.0028
3090.00,0.0028
3089.00,0.0028
3088.00,0.0028
3087.00,0.0028
3086.00,0.0027
3085.00,0.0027
3084.00,0.0027
3083.00,0.0027
3082.00,0.0027
3081.00,0.0027
3080.00,0.0027
3079.00,0.0027
3078.00,0.0027
3077.00,0.0027
3076.00,0.0028
3075.00,0.0028
3074.00,0.0028
3073.00,0.0028
3072.00,0.0028
3071.00,0.0028
3070.00,0.0028
3069.00,0.0028
3068.00,0.0029
3067.00,0.0029
3066.00,0.0029
3065.00,0.0029
3064.00,0.0029
3063.00,0.0030
3062.00,0.0029
3061.00,0.0029
3060.00,0.0029
3059.00,0.0029
3058.00,0.0029
3057.00,0.0029
3056.00,0.0029
3055.00,0.0029
3054.00,0.0029
3053.00,0.0030
3052.00,0.0030
3051.00,0.0031
3050.00,0.0031
3049.00,0.0031
3048.00,0.0031
3047.00,0.0031
3046.00,0.0031
3045.00,0.0031
3044.00,0.0031
3043.00,0.0031
3042.00,0.0032
3041.00,0.0032
3040.00,0.0032
3039.00,0.0033
3038.00,0.0033
3037.00,0.0034
3036.00,0.0034
3035.00,0.0034
3034.00,0.0034
3033.00,0.0034
3032.00,0.0034
3031.00,0.0035
3030.00,0.0035
3029.00,0.0036
3028.00,0.0036
3027.00,0.0037
3026.00,0.0037
3025.00,0.0037
3024.00,0.0037
3023.00,0.0038
3022.00,0.0038
3021.00,0.0039
3020.00,0.0039
3019.00,0.0040
3018.00,0.0040
3017.00,0.0040
3016.00,0.0039
3015.00,0.0039
3014.00,0.0039
3013.00,0.0039
3012.00,0.0038
3011.00,0.0038
3010.00,0.0037
3009.00,0.0037
3008.00,0.0036
3007.00,0.0036
3006.00,0.0035
3005.00,0.0033
3004.00,0.0033
3003.00,0.0032
3002.00,0.0031
3001.00,0.0031
3000.00,0.0031
2999.00,0.0032
2998.00,0.0032
2997.00,0.0034
2996.00,0.0036
2995.00,0.0038
2994.00,0.0041
2993.00,0.0044
2992.00,0.0048
2991.00,0.0052
2990.00,0.0057
2989.00,0.0063
2988.00,0.0068
2987.00,0.0074
2986.00,0.0079
2985.00,0.0083
2984.00,0.0087
2983.00,0.0092
2982.00,0.0102
2981.00,0.0118
2980.00,0.0140
2979.00,0.0166
2978.00,0.0195
2977.00,0.0227
2976.00,0.0261
2975.00,0.0298
2974.00,0.0339
2973.00,0.0385
2972.00,0.0437
2971.00,0.0498
2970.00,0.0567
2969.00,0.0642
2968.00,0.0724
2967.00,0.0810
2966.00,0.0900
2965.00,0.0991
2964.00,0.1081
2963.00,0.1164
2962.00,0.1236
2961.00,0.1296
2960.00,0.1344
2959.00,0.1381
2958.00,0.1415
2957.00,0.1449
2956.00,0.1491
2955.00,0.1543
2954.00,0.1604
2953.00,0.1671
2952.00,0.1733
2951.00,0.1781
2950.00,0.1804
2949.00,0.1793
2948.00,0.1743
2947.00,0.1657
2946.00,0.1544
2945.00,0.1417
2944.00,0.1291
2943.00,0.1178
2942.00,0.1086
2941.00,0.1019
2940.00,0.0977
2939.00,0.0958
2938.00,0.0959
2937.00,0.0978
2936.00,0.1013
2935.00,0.1062
2934.00,0.1126
2933.00,0.1201
2932.00,0.1287
2931.00,0.1381
2930.00,0.1481
2929.00,0.1583
2928.00,0.1685
2927.00,0.1783
2926.00,0.1878
2925.00,0.1968
2924.00,0.2054
2923.00,0.2139
2922.00,0.2222
2921.00,0.2301
2920.00,0.2370
2919.00,0.2423
2918.00,0.2451
2917.00,0.2447
2916.00,0.2412
2915.00,0.2348
2914.00,0.2265
2913.00,0.2173
2912.00,0.2079
2911.00,0.1990
2910.00,0.1909
2909.00,0.1835
2908.00,0.1766
2907.00,0.1700
2906.00,0.1635
2905.00,0.1569
2904.00,0.1502
2903.00,0.1435
2902.00,0.1368
2901.00,0.1303
2900.00,0.1240
2899.00,0.1181
2898.00,0.1126
2897.00,0.1078
2896.00,0.1035
2895.00,0.0999
2894.00,0.0969
2893.00,0.0946
2892.00,0.0930
2891.00,0.0920
2890.00,0.0915
2889.00,0.0915
2888.00,0.0920
2887.00,0.0927
2886.00,0.0938
2885.00,0.0952
2884.00,0.0970
2883.00,0.0993
2882.00,0.1022
2881.00,0.1052
2880.00,0.1082
2879.00,0.1108
2878.00,0.1125
2877.00,0.1131
2876.00,0.1128
2875.00,0.1120
2874.00,0.1112
2873.00,0.1109
2872.00,0.1114
2871.00,0.1127
2870.00,0.1145
2869.00,0.1165
2868.00,0.1178
2867.00,0.1176
2866.00,0.1151
2865.00,0.1101
2864.00,0.1028
2863.00,0.0941
2862.00,0.0850
2861.00,0.0764
2860.00,0.0689
2859.00,0.0630
2858.00,0.0585
2857.00,0.0552
2856.00,0.0532
2855.00,0.0520
2854.00,0.0517
2853.00,0.0520
2852.00,0.0530
2851.00,0.0546
2850.00,0.0567
2849.00,0.0594
2848.00,0.0627
2847.00,0.0668
2846.00,0.0717
2845.00,0.0774
2844.00,0.0838
2843.00,0.0908
2842.00,0.0979
2841.00,0.1046
2840.00,0.1102
2839.00,0.1138
2838.00,0.1145
2837.00,0.1121
2836.00,0.1063
2835.00,0.0979
2834.00,0.0878
2833.00,0.0773
2832.00,0.0674
2831.00,0.0586
2830.00,0.0512
2829.00,0.0452
2828.00,0.0403
2827.00,0.0364
2826.00,0.0332
2825.00,0.0306
2824.00,0.0284
2823.00,0.0265
2822.00,0.0250
2821.00,0.0236
2820.00,0.0225
2819.00,0.0215
2818.00,0.0206
2817.00,0.0198
2816.00,0.0191
2815.00,0.0185
2814.00,0.0180
2813.00,0.0175
2812.00,0.0170
2811.00,0.0165
2810.00,0.0160
2809.00,0.0155
2808.00,0.0149
2807.00,0.0143
2806.00,0.0137
2805.00,0.0132
2804.00,0.0126
2803.00,0.0120
2802.00,0.0115
2801.00,0.0111
2800.00,0.0107
2799.00,0.0104
2798.00,0.0102
2797.00,0.0099
2796.00,0.0098
2795.00,0.0096
2794.00,0.0093
2793.00,0.0091
2792.00,0.0088
2791.00,0.0085
2790.00,0.0081
2789.00,0.0078
2788.00,0.0075
2787.00,0.0073
2786.00,0.0071
2785.00,0.0069
2784.00,0.0068
2783.00,0.0066
2782.00,0.0064
2781.00,0.0062
2780.00,0.0060
2779.00,0.0059
2778.00,0.0057
2777.00,0.0056
2776.00,0.0055
2775.00,0.0054
2774.00,0.0054
2773.00,0.0053
2772.00,0.0052
2771.00,0.0052
2770.00,0.0052
2769.00,0.0052
2768.00,0.0052
2767.00,0.0051
2766.00,0.0051
2765.00,0.0050
2764.00,0.0050
2763.00,0.0049
2762.00,0.0049
2761.00,0.0049
2760.00,0.0049
2759.00,0.0048
2758.00,0.0048
2757.00,0.0048
2756.00,0.0048
2755.00,0.0048
2754.00,0.0048
2753.00,0.0048
2752.00,0.0048
2751.00,0.0048
2750.00,0.0048
2749.00,0.0048
2748.00,0.0048
2747.00,0.0048
2746.00,0.0049
2745.00,0.0049
2744.00,0.0050
2743.00,0.0050
2742.00,0.0051
2741.00,0.0052
2740.00,0.0054
2739.00,0.0055
2738.00,0.0057
2737.00,0.0058
2736.00,0.0060
2735.00,0.0061
2734.00,0.0063
2733.00,0.0065
2732.00,0.0066
2731.00,0.0068
2730.00,0.0070
2729.00,0.0072
2728.00,0.0075
2727.00,0.0077
2726.00,0.0080
2725.00,0.0082
2724.00,0.0084
2723.00,0.0085
2722.00,0.0084
2721.00,0.0082
2720.00,0.0079
2719.00,0.0075
2718.00,0.0072
2717.00,0.0069
2716.00,0.0066
2715.00,0.0064
2714.00,0.0062
2713.00,0.0059
2712.00,0.0057
2711.00,0.0055
2710.00,0.0054
2709.00,0.0052
2708.00,0.0051
2707.00,0.0049
2706.00,0.0048
2705.00,0.0047
2704.00,0.0046
2703.00,0.0045
2702.00,0.0044
2701.00,0.0044
2700.00,0.0043
2699.00,0.0043
2698.00,0.0043
2697.00,0.0042
2696.00,0.0042
2695.00,0.0042
2694.00,0.0042
2693.00,0.0042
2692.00,0.0042
2691.00,0.0042
2690.00,0.0042
2689.00,0.0041
2688.00,0.0041
2687.00,0.0041
2686.00,0.0041
2685.00,0.0042
2684.00,0.0042
2683.00,0.0042
2682.00,0.0042
2681.00,0.0043
2680.00,0.0043
2679.00,0.0043
2678.00,0.0043
2677.00,0.0043
2676.00,0.0042
2675.00,0.0042
2674.00,0.0042
2673.00,0.0042
2672.00,0.0041
2671.00,0.0041
2670.00,0.0041
2669.00,0.0041
2668.00,0.0041
2667.00,0.0042
2666.00,0.0042
2665.00,0.0042
2664.00,0.0043
2663.00,0.0043
2662.00,0.0043
2661.00,0.0044
2660.00,0.0044
2659.00,0.0044
2658.00,0.0044
2657.00,0.0043
2656.00,0.0043
2655.00,0.0042
2654.00,0.0042
2653.00,0.0041
2652.00,0.0041
2651.00,0.0040
2650.00,0.0040
2649.00,0.0040
2648.00,0.0039
2647.00,0.0039
2646.00,0.0039
2645.00,0.0039
2644.00,0.0038
2643.00,0.0038
2642.00,0.0037
2641.00,0.0037
2640.00,0.0036
2639.00,0.0036
2638.00,0.0036
2637.00,0.0035
2636.00,0.0035
2635.00,0.0035
2634.00,0.0036
2633.00,0.0036
2632.00,0.0037
2631.00,0.0037
2630.00,0.0037
2629.00,0.0037
2628.00,0.0037
2627.00,0.0037
2626.00,0.0037
2625.00,0.0037
2624.00,0.0037
2623.00,0.0037
2622.00,0.0038
2621.00,0.0039
2620.00,0.0039
2619.00,0.0039
2618.00,0.0039
2617.00,0.0039
2616.00,0.0038
2615.00,0.0038
2614.00,0.0038
2613.00,0.0038
2612.00,0.0037
2611.00,0.0036
2610.00,0.0036
2609.00,0.0035
2608.00,0.0034
2607.00,0.0034
2606.00,0.0033
2605.00,0.0033
2604.00,0.0032
2603.00,0.0031
2602.00,0.0031
2601.00,0.0031
2600.00,0.0031
2599.00,0.0031
2598.00,0.0031
2597.00,0.0031
2596.00,0.0030
2595.00,0.0030
2594.00,0.0030
2593.00,0.0031
2592.00,0.0032
2591.00,0.0032
2590.00,0.0033
2589.00,0.0034
2588.00,0.0035
2587.00,0.0036
2586.00,0.0036
2585.00,0.0037
2584.00,0.0037
2583.00,0.0038
2582.00,0.0038
2581.00,0.0038
2580.00,0.0037
2579.00,0.0037
2578.00,0.0036
2577.00,0.0035
2576.00,0.0034
2575.00,0.0033
2574.00,0.0032
2573.00,0.0030
2572.00,0.0029
2571.00,0.0028
2570.00,0.0027
2569.00,0.0026
2568.00,0.0026
2567.00,0.0026
2566.00,0.0025
2565.00,0.0024
2564.00,0.0024
2563.00,0.0024
2562.00,0.0023
2561.00,0.0023
2560.00,0.0022
2559.00,0.0022
2558.00,0.0022
2557.00,0.0022
2556.00,0.0022
2555.00,0.0022
2554.00,0.0022
2553.00,0.0022
2552.00,0.0021
2551.00,0.0020
2550.00,0.0020
2549.00,0.0019
2548.00,0.0019
2547.00,0.0019
2546.00,0.0018
2545.00,0.0018
2544.00,0.0018
2543.00,0.0018
2542.00,0.0018
2541.00,0.0019
2540.00,0.0018
2539.00,0.0018
2538.00,0.0018
2537.00,0.0018
2536.00,0.0018
2535.00,0.0018
2534.00,0.0017
2533.00,0.0017
2532.00,0.0016
2531.00,0.0015
2530.00,0.0015
2529.00,0.0014
2528.00,0.0014
2527.00,0.0014
2526.00,0.0015
2525.00,0.0015
2524.00,0.0015
2523.00,0.0014
2522.00,0.0014
2521.00,0.0013
2520.00,0.0013
2519.00,0.0013
2518.00,0.0013
2517.00,0.0013
2516.00,0.0013
2515.00,0.0012
2514.00,0.0011
2513.00,0.0011
2512.00,0.0010
2511.00,0.0010
2510.00,0.0009
2509.00,0.0009
2508.00,0.0009
2507.00,0.0008
2506.00,0.0009
2505.00,0.0009
2504.00,0.0009
2503.00,0.0010
2502.00,0.0010
2501.00,0.0010
2500.00,0.0011
2499.00,0.0011
2498.00,0.0011
2497.00,0.0011
2496.00,0.0012
2495.00,0.0012
2494.00,0.0012
2493.00,0.0012
2492.00,0.0012
2491.00,0.0012
2490.00,0.0011
2489.00,0.0011
2488.00,0.0011
2487.00,0.0010
2486.00,0.0010
2485.00,0.0010
2484.00,0.0010
2483.00,0.0010
2482.00,0.0010
2481.00,0.0010
2480.00,0.0010
2479.00,0.0009
2478.00,0.0009
2477.00,0.0008
2476.00,0.0009
2475.00,0.0009
2474.00,0.0010
2473.00,0.0010
2472.00,0.0010
2471.00,0.0010
2470.00,0.0010
2469.00,0.0010
2468.00,0.0010
2467.00,0.0010
2466.00,0.0010
2465.00,0.0010
2464.00,0.0011
2463.00,0.0011
2462.00,0.0012
2461.00,0.0012
2460.00,0.0012
2459.00,0.0012
2458.00,0.0012
2457.00,0.0012
2456.00,0.0012
2455.00,0.0012
2454.00,0.0012
2453.00,0.0011
2452.00,0.0011
2451.00,0.0011
2450.00,0.0011
2449.00,0.0011
2448.00,0.0012
2447.00,0.0012
2446.00,0.0011
2445.00,0.0011
2444.00,0.0011
2443.00,0.0011
2442.00,0.0011
2441.00,0.0011
2440.00,0.0011
2439.00,0.0011
2438.00,0.0012
2437.00,0.0012
2436.00,0.0013
2435.00,0.0014
2434.00,0.0014
2433.00,0.0014
2432.00,0.0014
2431.00,0.0014
2430.00,0.0013
2429.00,0.0013
2428.00,0.0012
2427.00,0.0012
2426.00,0.0012
2425.00,0.0012
2424.00,0.0012
2423.00,0.0012
2422.00,0.0012
2421.00,0.0012
2420.00,0.0012
2419.00,0.0011
2418.00,0.0011
2417.00,0.0010
2416.00,0.0010
2415.00,0.0010
2414.00,0.0011
2413.00,0.0011
2412.00,0.0012
2411.00,0.0012
2410.00,0.0011
2409.00,0.0011
2408.00,0.0011
2407.00,0.0011
2406.00,0.0011
2405.00,0.0010
2404.00,0.0010
2403.00,0.0010
2402.00,0.0010
2401.00,0.0010
2400.00,0.0010
2399.00,0.0010
2398.00,0.0009
2397.00,0.0009
2396.00,0.0009
2395.00,0.0009
2394.00,0.0009
2393.00,0.0009
2392.00,0.0009
2391.00,0.0008
2390.00,0.0008
2389.00,0.0008
2388.00,0.0008
2387.00,0.0007
2386.00,0.0007
2385.00,0.0006
2384.00,0.0005
2383.00,0.0004
2382.00,0.0003
2381.00,0.0002
2380.00,0.0002
2379.00,0.0002
2378.00,0.0002
2377.00,0.0002
2376.00,0.0001
2375.00,0.0001
2374.00,0.0000
2373.00,-0.0000
2372.00,0.0000
2371.00,0.0001
2370.00,0.0001
2369.00,-0.0000
2368.00,-0.0001
2367.00,-0.0001
2366.00,-0.0002
2365.00,-0.0001
2364.00,-0.0001
2363.00,-0.0000
2362.00,-0.0000
2361.00,-0.0000
2360.00,-0.0001
2359.00,-0.0002
2358.00,-0.0002
2357.00,-0.0002
2356.00,-0.0001
2355.00,-0.0000
2354.00,0.0000
2353.00,-0.0000
2352.00,-0.0001
2351.00,-0.0001
2350.00,-0.0001
2349.00,-0.0000
2348.00,0.0000
2347.00,0.0000
2346.00,0.0001
2345.00,0.0001
2344.00,0.0001
2343.00,0.0001
2342.00,0.0002
2341.00,0.0002
2340.00,0.0002
2339.00,0.0001
2338.00,0.0001
2337.00,0.0001
2336.00,0.0002
2335.00,0.0002
2334.00,0.0002
2333.00,0.0002
2332.00,0.0002
2331.00,0.0002
2330.00,0.0002
2329.00,0.0003
2328.00,0.0004
2327.00,0.0007
2326.00,0.0011
2325.00,0.0015
2324.00,0.0017
2323.00,0.0017
2322.00,0.0016
2321.00,0.0014
2320.00,0.0014
2319.00,0.0013
2318.00,0.0012
2317.00,0.0011
2316.00,0.0010
2315.00,0.0009
2314.00,0.0008
2313.00,0.0007
2312.00,0.0007
2311.00,0.0007
2310.00,0.0008
2309.00,0.0008
2308.00,0.0008
2307.00,0.0008
2306.00,0.0008
2305.00,0.0008
2304.00,0.0008
2303.00,0.0009
2302.00,0.0009
2301.00,0.0010
2300.00,0.0010
2299.00,0.0010
2298.00,0.0011
2297.00,0.0011
2296.00,0.0012
2295.00,0.0013
2294.00,0.0013
2293.00,0.0014
2292.00,0.0014
2291.00,0.0015
2290.00,0.0016
2289.00,0.0016
2288.00,0.0017
2287.00,0.0017
2286.00,0.0018
2285.00,0.0017
2284.00,0.0017
2283.00,0.0016
2282.00,0.0016
2281.00,0.0016
2280.00,0.0017
2279.00,0.0017
2278.00,0.0017
2277.00,0.0015
2276.00,0.0015
2275.00,0.0015
2274.00,0.0015
2273.00,0.0015
2272.00,0.0014
2271.00,0.0014
2270.00,0.0014
2269.00,0.0014
2268.00,0.0014
2267.00,0.0014
2266.00,0.0014
2265.00,0.0013
2264.00,0.0013
2263.00,0.0013
2262.00,0.0013
2261.00,0.0013
2260.00,0.0012
2259.00,0.0013
2258.00,0.0013
2257.00,0.0013
2256.00,0.0012
2255.00,0.0010
2254.00,0.0009
2253.00,0.0008
2252.00,0.0009
2251.00,0.0009
2250.00,0.0009
2249.00,0.0010
2248.00,0.0010
2247.00,0.0010
2246.00,0.0009
2245.00,0.0009
2244.00,0.0010
2243.00,0.0010
2242.00,0.0010
2241.00,0.0009
2240.00,0.0009
2239.00,0.0009
2238.00,0.0009
2237.00,0.0010
2236.00,0.0010
2235.00,0.0011
2234.00,0.0012
2233.00,0.0012
2232.00,0.0013
2231.00,0.0012
2230.00,0.0011
2229.00,0.0010
2228.00,0.0009
2227.00,0.0008
2226.00,0.0008
2225.00,0.0008
2224.00,0.0008
2223.00,0.0009
2222.00,0.0010
2221.00,0.0011
2220.00,0.0012
2219.00,0.0013
2218.00,0.0012
2217.00,0.0012
2216.00,0.0011
2215.00,0.0010
2214.00,0.0010
2213.00,0.0009
2212.00,0.0008
2211.00,0.0007
2210.00,0.0006
2209.00,0.0005
2208.00,0.0004
2207.00,0.0003
2206.00,0.0003
2205.00,0.0004
2204.00,0.0005
2203.00,0.0007
2202.00,0.0008
2201.00,0.0010
2200.00,0.0011
2199.00,0.0012
2198.00,0.0011
2197.00,0.0010
2196.00,0.0007
2195.00,0.0006
2194.00,0.0006
2193.00,0.0008
2192.00,0.0011
2191.00,0.0012
2190.00,0.0012
2189.00,0.0010
2188.00,0.0009
2187.00,0.0009
2186.00,0.0009
2185.00,0.0010
2184.00,0.0009
2183.00,0.0007
2182.00,0.0006
2181.00,0.0004
2180.00,0.0004
2179.00,0.0005
2178.00,0.0007
2177.00,0.0008
2176.00,0.0007
2175.00,0.0006
2174.00,0.0005
2173.00,0.0005
2172.00,0.0005
2171.00,0.0005
2170.00,0.0006
2169.00,0.0009
2168.00,0.0012
2167.00,0.0015
2166.00,0.0015
2165.00,0.0015
2164.00,0.0016
2163.00,0.0017
2162.00,0.0017
2161.00,0.0013
2160.00,0.0002
2159.00,-0.0012
2158.00,-0.0023
2157.00,-0.0029
2156.00,-0.0028
2155.00,-0.0026
2154.00,-0.0022
2153.00,-0.0019
2152.00,-0.0016
2151.00,-0.0014
2150.00,-0.0013
2149.00,-0.0013
2148.00,-0.0013
2147.00,-0.0013
2146.00,-0.0012
2145.00,-0.0011
2144.00,-0.0010
2143.00,-0.0010
2142.00,-0.0010
2141.00,-0.0011
2140.00,-0.0011
2139.00,-0.0011
2138.00,-0.0009
2137.00,-0.0008
2136.00,-0.0010
2135.00,-0.0014
2134.00,-0.0017
2133.00,-0.0018
2132.00,-0.0017
2131.00,-0.0014
2130.00,-0.0012
2129.00,-0.0009
2128.00,-0.0007
2127.00,-0.0006
2126.00,-0.0005
2125.00,-0.0004
2124.00,-0.0003
2123.00,-0.0002
2122.00,-0.0002
2121.00,-0.0001
2120.00,-0.0000
2119.00,-0.0000
2118.00,0.0000
2117.00,0.0001
2116.00,0.0001
2115.00,0.0001
2114.00,0.0000
2113.00,-0.0001
2112.00,-0.0001
2111.00,-0.0000
2110.00,0.0000
2109.00,0.0002
2108.00,0.0003
2107.00,0.0004
2106.00,0.0004
2105.00,0.0003
2104.00,0.0002
2103.00,0.0001
2102.00,0.0000
2101.00,0.0001
2100.00,0.0002
2099.00,0.0002
2098.00,0.0002
2097.00,0.0000
2096.00,-0.0001
2095.00,-0.0002
2094.00,-0.0003
2093.00,-0.0002
2092.00,-0.0001
2091.00,-0.0000
2090.00,-0.0000
2089.00,0.0000
2088.00,0.0000
2087.00,0.0000
2086.00,0.0000
2085.00,0.0001
2084.00,0.0001
2083.00,0.0001
2082.00,0.0002
2081.00,0.0002
2080.00,0.0002
2079.00,0.0002
2078.00,0.0002
2077.00,0.0002
2076.00,0.0002
2075.00,0.0002
2074.00,0.0002
2073.00,0.0002
2072.00,0.0002
2071.00,0.0001
2070.00,0.0000
2069.00,-0.0001
2068.00,-0.0003
2067.00,-0.0005
2066.00,-0.0005
2065.00,-0.0004
2064.00,-0.0002
2063.00,0.0000
2062.00,0.0003
2061.00,0.0004
2060.00,0.0005
2059.00,0.0005
2058.00,0.0005
2057.00,0.0005
2056.00,0.0004
2055.00,0.0004
2054.00,0.0005
2053.00,0.0009
2052.00,0.0012
2051.00,0.0014
2050.00,0.0011
2049.00,0.0006
2048.00,0.0001
2047.00,-0.0002
2046.00,-0.0003
2045.00,-0.0003
2044.00,-0.0001
2043.00,0.0002
2042.00,0.0005
2041.00,0.0007
2040.00,0.0007
2039.00,0.0005
2038.00,0.0003
2037.00,0.0002
2036.00,0.0001
2035.00,-0.0001
2034.00,-0.0004
2033.00,-0.0006
2032.00,-0.0007
2031.00,-0.0006
2030.00,-0.0004
2029.00,-0.0003
2028.00,-0.0003
2027.00,-0.0005
2026.00,-0.0007
2025.00,-0.0007
2024.00,-0.0007
2023.00,-0.0006
2022.00,-0.0006
2021.00,-0.0005
2020.00,-0.0004
2019.00,-0.0004
2018.00,-0.0004
2017.00,-0.0005
2016.00,-0.0007
2015.00,-0.0010
2014.00,-0.0012
2013.00,-0.0013
2012.00,-0.0014
2011.00,-0.0015
2010.00,-0.0015
2009.00,-0.0015
2008.00,-0.0014
2007.00,-0.0015
2006.00,-0.0015
2005.00,-0.0014
2004.00,-0.0012
2003.00,-0.0011
2002.00,-0.0011
2001.00,-0.0011
2000.00,-0.0008
1999.00,-0.0005
1998.00,-0.0003
1997.00,-0.0003
1996.00,-0.0004
1995.00,-0.0005
1994.00,-0.0005
1993.00,-0.0004
1992.00,-0.0001
1991.00,0.0000
1990.00,0.0001
1989.00,0.0000
1988.00,0.0000
1987.00,0.0001
1986.00,0.0002
1985.00,0.0003
1984.00,0.0004
1983.00,0.0004
1982.00,0.0004
1981.00,0.0005
1980.00,0.0005
1979.00,0.0003
1978.00,-0.0001
1977.00,-0.0005
1976.00,-0.0008
1975.00,-0.0010
1974.00,-0.0011
1973.00,-0.0011
1972.00,-0.0012
1971.00,-0.0013
1970.00,-0.0015
1969.00,-0.0016
1968.00,-0.0015
1967.00,-0.0014
1966.00,-0.0012
1965.00,-0.0011
1964.00,-0.0012
1963.00,-0.0013
1962.00,-0.0013
1961.00,-0.0013
1960.00,-0.0012
1959.00,-0.0012
1958.00,-0.0013
1957.00,-0.0012
1956.00,-0.0011
1955.00,-0.0010
1954.00,-0.0009
1953.00,-0.0010
1952.00,-0.0011
1951.00,-0.0012
1950.00,-0.0012
1949.00,-0.0011
1948.00,-0.0011
1947.00,-0.0012
1946.00,-0.0013
1945.00,-0.0014
1944.00,-0.0015
1943.00,-0.0014
1942.00,-0.0013
1941.00,-0.0012
1940.00,-0.0011
1939.00,-0.0011
1938.00,-0.0011
1937.00,-0.0010
1936.00,-0.0010
1935.00,-0.0009
1934.00,-0.0008
1933.00,-0.0008
1932.00,-0.0008
1931.00,-0.0008
1930.00,-0.0008
1929.00,-0.0007
1928.00,-0.0006
1927.00,-0.0007
1926.00,-0.0007
1925.00,-0.0008
1924.00,-0.0008
1923.00,-0.0006
1922.00,-0.0004
1921.00,-0.0003
1920.00,-0.0003
1919.00,-0.0004
1918.00,-0.0004
1917.00,-0.0004
1916.00,-0.0003
1915.00,-0.0003
1914.00,-0.0003
1913.00,-0.0002
1912.00,-0.0001
1911.00,-0.0001
1910.00,-0.0001
1909.00,-0.0001
1908.00,-0.0001
1907.00,-0.0001
1906.00,-0.0001
1905.00,-0.0001
1904.00,-0.0001
1903.00,-0.0001
1902.00,-0.0001
1901.00,-0.0002
1900.00,-0.0002
1899.00,-0.0002
1898.00,-0.0001
1897.00,-0.0000
1896.00,0.0000
1895.00,0.0001
1894.00,0.0001
1893.00,0.0000
1892.00,-0.0000
1891.00,-0.0001
1890.00,-0.0001
1889.00,-0.0001
1888.00,-0.0001
1887.00,-0.0000
1886.00,-0.0000
1885.00,0.0000
1884.00,0.0000
1883.00,-0.0000
1882.00,-0.0001
1881.00,-0.0000
1880.00,0.0001
1879.00,0.0001
1878.00,0.0000
1877.00,-0.0000
1876.00,-0.0001
1875.00,-0.0001
1874.00,-0.0001
1873.00,-0.0000
1872.00,0.0000
1871.00,0.0000
1870.00,-0.0000
1869.00,0.0000
1868.00,0.0001
1867.00,0.0001
1866.00,0.0001
1865.00,0.0001
1864.00,0.0001
1863.00,0.0001
1862.00,0.0001
1861.00,0.0001
1860.00,0.0001
1859.00,0.0001
1858.00,0.0001
1857.00,0.0002
1856.00,0.0002
1855.00,0.0002
1854.00,0.0002
1853.00,0.0001
1852.00,0.0001
1851.00,0.0001
1850.00,0.0001
1849.00,0.0002
1848.00,0.0003
1847.00,0.0003
1846.00,0.0003
1845.00,0.0002
1844.00,0.0002
1843.00,0.0002
1842.00,0.0002
1841.00,0.0001
1840.00,0.0001
1839.00,0.0001
1838.00,0.0001
1837.00,0.0002
1836.00,0.0002
1835.00,0.0003
1834.00,0.0003
1833.00,0.0003
1832.00,0.0003
1831.00,0.0004
1830.00,0.0005
1829.00,0.0006
1828.00,0.0006
1827.00,0.0005
1826.00,0.0005
1825.00,0.0005
1824.00,0.0004
1823.00,0.0004
1822.00,0.0004
1821.00,0.0003
1820.00,0.0003
1819.00,0.0003
1818.00,0.0002
1817.00,0.0002
1816.00,0.0002
1815.00,0.0003
1814.00,0.0004
1813.00,0.0004
1812.00,0.0004
1811.00,0.0004
1810.00,0.0004
1809.00,0.0004
1808.00,0.0004
1807.00,0.0004
1806.00,0.0003
1805.00,0.0003
1804.00,0.0003
1803.00,0.0004
1802.00,0.0005
1801.00,0.0005
1800.00,0.0006
1799.00,0.0007
1798.00,0.0007
1797.00,0.0007
1796.00,0.0007
1795.00,0.0007
1794.00,0.0007
1793.00,0.0007
1792.00,0.0007
1791.00,0.0007
1790.00,0.0007
1789.00,0.0007
1788.00,0.0007
1787.00,0.0007
1786.00,0.0008
1785.00,0.0008
1784.00,0.0009
1783.00,0.0008
1782.00,0.0008
1781.00,0.0008
1780.00,0.0008
1779.00,0.0008
1778.00,0.0007
1777.00,0.0007
1776.00,0.0007
1775.00,0.0006
1774.00,0.0006
1773.00,0.0006
1772.00,0.0007
1771.00,0.0008
1770.00,0.0009
1769.00,0.0010
1768.00,0.0010
1767.00,0.0010
1766.00,0.0010
1765.00,0.0010
1764.00,0.0010
1763.00,0.0010
1762.00,0.0010
1761.00,0.0010
1760.00,0.0010
1759.00,0.0010
1758.00,0.0011
1757.00,0.0011
1756.00,0.0012
1755.00,0.0012
1754.00,0.0012
1753.00,0.0012
1752.00,0.0011
1751.00,0.0012
1750.00,0.0013
1749.00,0.0014
1748.00,0.0015
1747.00,0.0014
1746.00,0.0014
1745.00,0.0014
1744.00,0.0014
1743.00,0.0015
1742.00,0.0015
1741.00,0.0016
1740.00,0.0016
1739.00,0.0017
1738.00,0.0017
1737.00,0.0017
1736.00,0.0017
1735.00,0.0016
1734.00,0.0016
1733.00,0.0016
1732.00,0.0017
1731.00,0.0017
1730.00,0.0018
1729.00,0.0018
1728.00,0.0018
1727.00,0.0017
1726.00,0.0017
1725.00,0.0017
1724.00,0.0018
1723.00,0.0018
1722.00,0.0018
1721.00,0.0018
1720.00,0.0019
1719.00,0.0019
1718.00,0.0018
1717.00,0.0017
1716.00,0.0018
1715.00,0.0019
1714.00,0.0020
1713.00,0.0021
1712.00,0.0022
1711.00,0.0022
1710.00,0.0022
1709.00,0.0023
1708.00,0.0023
1707.00,0.0023
1706.00,0.0023
1705.00,0.0024
1704.00,0.0025
1703.00,0.0026
1702.00,0.0026
1701.00,0.0026
1700.00,0.0026
1699.00,0.0027
1698.00,0.0027
1697.00,0.0027
1696.00,0.0028
1695.00,0.0029
1694.00,0.0030
1693.00,0.0030
1692.00,0.0031
1691.00,0.0032
1690.00,0.0032
1689.00,0.0033
1688.00,0.0034
1687.00,0.0034
1686.00,0.0035
1685.00,0.0036
1684.00,0.0037
1683.00,0.0039
1682.00,0.0039
1681.00,0.0040
1680.00,0.0041
1679.00,0.0041
1678.00,0.0041
1677.00,0.0042
1676.00,0.0043
1675.00,0.0043
1674.00,0.0044
1673.00,0.0044
1672.00,0.0045
1671.00,0.0046
1670.00,0.0047
1669.00,0.0048
1668.00,0.0049
1667.00,0.0049
1666.00,0.0049
1665.00,0.0049
1664.00,0.0049
1663.00,0.0049
1662.00,0.0050
1661.00,0.0050
1660.00,0.0051
1659.00,0.0052
1658.00,0.0053
1657.00,0.0054
1656.00,0.0055
1655.00,0.0055
1654.00,0.0056
1653.00,0.0058
1652.00,0.0058
1651.00,0.0058
1650.00,0.0058
1649.00,0.0059
1648.00,0.0060
1647.00,0.0061
1646.00,0.0062
1645.00,0.0062
1644.00,0.0062
1643.00,0.0062
1642.00,0.0061
1641.00,0.0061
1640.00,0.0060
1639.00,0.0060
1638.00,0.0059
1637.00,0.0059
1636.00,0.0059
1635.00,0.0061
1634.00,0.0061
1633.00,0.0061
1632.00,0.0060
1631.00,0.0060
1630.00,0.0059
1629.00,0.0059
1628.00,0.0059
1627.00,0.0059
1626.00,0.0058
1625.00,0.0058
1624.00,0.0057
1623.00,0.0056
1622.00,0.0056
1621.00,0.0055
1620.00,0.0055
1619.00,0.0055
1618.00,0.0054
1617.00,0.0053
1616.00,0.0052
1615.00,0.0052
1614.00,0.0052
1613.00,0.0052
1612.00,0.0052
1611.00,0.0051
1610.00,0.0051
1609.00,0.0051
1608.00,0.0050
1607.00,0.0050
1606.00,0.0050
1605.00,0.0050
1604.00,0.0050
1603.00,0.0050
1602.00,0.0050
1601.00,0.0050
1600.00,0.0050
1599.00,0.0050
1598.00,0.0049
1597.00,0.0049
1596.00,0.0050
1595.00,0.0050
1594.00,0.0050
1593.00,0.0051
1592.00,0.0051
1591.00,0.0052
1590.00,0.0052
1589.00,0.0053
1588.00,0.0054
1587.00,0.0055
1586.00,0.0056
1585.00,0.0057
1584.00,0.0059
1583.00,0.0061
1582.00,0.0063
1581.00,0.0066
1580.00,0.0068
1579.00,0.0069
1578.00,0.0071
1577.00,0.0071
1576.00,0.0071
1575.00,0.0070
1574.00,0.0069
1573.00,0.0067
1572.00,0.0066
1571.00,0.0064
1570.00,0.0062
1569.00,0.0061
1568.00,0.0060
1567.00,0.0059
1566.00,0.0059
1565.00,0.0058
1564.00,0.0059
1563.00,0.0059
1562.00,0.0060
1561.00,0.0061
1560.00,0.0061
1559.00,0.0061
1558.00,0.0061
1557.00,0.0062
1556.00,0.0062
1555.00,0.0063
1554.00,0.0063
1553.00,0.0064
1552.00,0.0065
1551.00,0.0066
1550.00,0.0067
1549.00,0.0069
1548.00,0.0070
1547.00,0.0071
1546.00,0.0072
1545.00,0.0074
1544.00,0.0076
1543.00,0.0077
1542.00,0.0078
1541.00,0.0079
1540.00,0.0079
1539.00,0.0078
1538.00,0.0076
1537.00,0.0075
1536.00,0.0073
1535.00,0.0070
1534.00,0.0067
1533.00,0.0065
1532.00,0.0064
1531.00,0.0062
1530.00,0.0061
1529.00,0.0060
1528.00,0.0060
1527.00,0.0059
1526.00,0.0058
1525.00,0.0058
1524.00,0.0057
1523.00,0.0057
1522.00,0.0056
1521.00,0.0056
1520.00,0.0058
1519.00,0.0058
1518.00,0.0058
1517.00,0.0059
1516.00,0.0059
1515.00,0.0060
1514.00,0.0060
1513.00,0.0060
1512.00,0.0061
1511.00,0.0062
1510.00,0.0063
1509.00,0.0064
1508.00,0.0064
1507.00,0.0064
1506.00,0.0064
1505.00,0.0065
1504.00,0.0066
1503.00,0.0067
1502.00,0.0068
1501.00,0.0070
1500.00,0.0073
1499.00,0.0074
1498.00,0.0076
1497.00,0.0078
1496.00,0.0081
1495.00,0.0082
1494.00,0.0084
1493.00,0.0086
1492.00,0.0090
1491.00,0.0093
1490.00,0.0097
1489.00,0.0102
1488.00,0.0108
1487.00,0.0112
1486.00,0.0117
1485.00,0.0123
1484.00,0.0130
1483.00,0.0137
1482.00,0.0146
1481.00,0.0157
1480.00,0.0168
1479.00,0.0180
1478.00,0.0193
1477.00,0.0211
1476.00,0.0231
1475.00,0.0254
1474.00,0.0285
1473.00,0.0334
1472.00,0.0396
1471.00,0.0456
1470.00,0.0514
1469.00,0.0575
1468.00,0.0640
1467.00,0.0713
1466.00,0.0796
1465.00,0.0887
1464.00,0.0969
1463.00,0.1027
1462.00,0.1065
1461.00,0.1091
1460.00,0.1110
1459.00,0.1125
1458.00,0.1142
1457.00,0.1162
1456.00,0.1173
1455.00,0.1171
1454.00,0.1161
1453.00,0.1146
1452.00,0.1121
1451.00,0.1085
1450.00,0.1033
1449.00,0.0962
1448.00,0.0873
1447.00,0.0779
1446.00,0.0694
1445.00,0.0620
1444.00,0.0558
1443.00,0.0508
1442.00,0.0472
1441.00,0.0448
1440.00,0.0434
1439.00,0.0429
1438.00,0.0431
1437.00,0.0435
1436.00,0.0426
1435.00,0.0401
1434.00,0.0363
1433.00,0.0318
1432.00,0.0272
1431.00,0.0233
1430.00,0.0204
1429.00,0.0183
1428.00,0.0168
1427.00,0.0159
1426.00,0.0154
1425.00,0.0148
1424.00,0.0143
1423.00,0.0141
1422.00,0.0139
1421.00,0.0137
1420.00,0.0134
1419.00,0.0132
1418.00,0.0130
1417.00,0.0127
1416.00,0.0123
1415.00,0.0121
1414.00,0.0120
1413.00,0.0118
1412.00,0.0115
1411.00,0.0113
1410.00,0.0112
1409.00,0.0110
1408.00,0.0108
1407.00,0.0107
1406.00,0.0107
1405.00,0.0105
1404.00,0.0103
1403.00,0.0102
1402.00,0.0102
1401.00,0.0101
1400.00,0.0100
1399.00,0.0100
1398.00,0.0101
1397.00,0.0101
1396.00,0.0102
1395.00,0.0105
1394.00,0.0109
1393.00,0.0114
1392.00,0.0120
1391.00,0.0128
1390.00,0.0140
1389.00,0.0157
1388.00,0.0182
1387.00,0.0219
1386.00,0.0269
1385.00,0.0330
1384.00,0.0409
1383.00,0.0517
1382.00,0.0659
1381.00,0.0841
1380.00,0.1068
1379.00,0.1330
1378.00,0.1588
1377.00,0.1785
1376.00,0.1863
1375.00,0.1786
1374.00,0.1573
1373.00,0.1304
1372.00,0.1050
1371.00,0.0837
1370.00,0.0667
1369.00,0.0539
1368.00,0.0452
1367.00,0.0399
1366.00,0.0371
1365.00,0.0360
1364.00,0.0364
1363.00,0.0380
1362.00,0.0404
1361.00,0.0428
1360.00,0.0446
1359.00,0.0451
1358.00,0.0439
1357.00,0.0411
1356.00,0.0373
1355.00,0.0331
1354.00,0.0290
1353.00,0.0256
1352.00,0.0228
1351.00,0.0205
1350.00,0.0188
1349.00,0.0173
1348.00,0.0162
1347.00,0.0153
1346.00,0.0146
1345.00,0.0140
1344.00,0.0135
1343.00,0.0131
1342.00,0.0128
1341.00,0.0125
1340.00,0.0123
1339.00,0.0122
1338.00,0.0121
1337.00,0.0120
1336.00,0.0121
1335.00,0.0124
1334.00,0.0127
1333.00,0.0132
1332.00,0.0136
1331.00,0.0140
1330.00,0.0142
1329.00,0.0140
1328.00,0.0136
1327.00,0.0130
1326.00,0.0124
1325.00,0.0118
1324.00,0.0112
1323.00,0.0107
1322.00,0.0103
1321.00,0.0100
1320.00,0.0097
1319.00,0.0095
1318.00,0.0093
1317.00,0.0091
1316.00,0.0089
1315.00,0.0088
1314.00,0.0087
1313.00,0.0087
1312.00,0.0088
1311.00,0.0090
1310.00,0.0094
1309.00,0.0101
1308.00,0.0110
1307.00,0.0120
1306.00,0.0131
1305.00,0.0138
1304.00,0.0140
1303.00,0.0138
1302.00,0.0134
1301.00,0.0130
1300.00,0.0128
1299.00,0.0128
1298.00,0.0128
1297.00,0.0129
1296.00,0.0128
1295.00,0.0125
1294.00,0.0121
1293.00,0.0115
1292.00,0.0110
1291.00,0.0104
1290.00,0.0099
1289.00,0.0095
1288.00,0.0091
1287.00,0.0087
1286.00,0.0085
1285.00,0.0082
1284.00,0.0080
1283.00,0.0079
1282.00,0.0077
1281.00,0.0076
1280.00,0.0075
1279.00,0.0074
1278.00,0.0073
1277.00,0.0072
1276.00,0.0071
1275.00,0.0070
1274.00,0.0069
1273.00,0.0068
1272.00,0.0067
1271.00,0.0067
1270.00,0.0067
1269.00,0.0067
1268.00,0.0068
1267.00,0.0068
1266.00,0.0070
1265.00,0.0072
1264.00,0.0074
1263.00,0.0076
1262.00,0.0079
1261.00,0.0082
1260.00,0.0087
1259.00,0.0094
1258.00,0.0100
1257.00,0.0105
1256.00,0.0107
1255.00,0.0105
1254.00,0.0100
1253.00,0.0092
1252.00,0.0084
1251.00,0.0078
1250.00,0.0073
1249.00,0.0071
1248.00,0.0069
1247.00,0.0069
1246.00,0.0068
1245.00,0.0068
1244.00,0.0068
1243.00,0.0067
1242.00,0.0067
1241.00,0.0066
1240.00,0.0065
1239.00,0.0065
1238.00,0.0066
1237.00,0.0066
1236.00,0.0067
1235.00,0.0067
1234.00,0.0067
1233.00,0.0068
1232.00,0.0069
1231.00,0.0070
1230.00,0.0071
1229.00,0.0073
1228.00,0.0074
1227.00,0.0076
1226.00,0.0078
1225.00,0.0081
1224.00,0.0085
1223.00,0.0090
1222.00,0.0094
1221.00,0.0097
1220.00,0.0099
1219.00,0.0100
1218.00,0.0100
1217.00,0.0099
1216.00,0.0098
1215.00,0.0095
1214.00,0.0092
1213.00,0.0089
1212.00,0.0086
1211.00,0.0084
1210.00,0.0082
1209.00,0.0080
1208.00,0.0078
1207.00,0.0077
1206.00,0.0076
1205.00,0.0075
1204.00,0.0075
1203.00,0.0074
1202.00,0.0074
1201.00,0.0073
1200.00,0.0072
1199.00,0.0072
1198.00,0.0071
1197.00,0.0071
1196.00,0.0071
1195.00,0.0071
1194.00,0.0071
1193.00,0.0071
1192.00,0.0070
1191.00,0.0069
1190.00,0.0069
1189.00,0.0068
1188.00,0.0067
1187.00,0.0066
1186.00,0.0066
1185.00,0.0066
1184.00,0.0066
1183.00,0.0067
1182.00,0.0069
1181.00,0.0070
1180.00,0.0072
1179.00,0.0076
1178.00,0.0081
1177.00,0.0088
1176.00,0.0098
1175.00,0.0111
1174.00,0.0128
1173.00,0.0151
1172.00,0.0178
1171.00,0.0208
1170.00,0.0236
1169.00,0.0259
1168.00,0.0273
1167.00,0.0276
1166.00,0.0268
1165.00,0.0255
1164.00,0.0238
1163.00,0.0222
1162.00,0.0207
1161.00,0.0193
1160.00,0.0183
1159.00,0.0174
1158.00,0.0167
1157.00,0.0162
1156.00,0.0158
1155.00,0.0156
1154.00,0.0154
1153.00,0.0151
1152.00,0.0148
1151.00,0.0142
1150.00,0.0135
1149.00,0.0127
1148.00,0.0119
1147.00,0.0112
1146.00,0.0105
1145.00,0.0098
1144.00,0.0092
1143.00,0.0086
1142.00,0.0080
1141.00,0.0075
1140.00,0.0071
1139.00,0.0067
1138.00,0.0064
1137.00,0.0062
1136.00,0.0061
1135.00,0.0060
1134.00,0.0059
1133.00,0.0058
1132.00,0.0057
1131.00,0.0058
1130.00,0.0059
1129.00,0.0061
1128.00,0.0062
1127.00,0.0063
1126.00,0.0064
1125.00,0.0065
1124.00,0.0067
1123.00,0.0068
1122.00,0.0068
1121.00,0.0068
1120.00,0.0069
1119.00,0.0070
1118.00,0.0071
1117.00,0.0073
1116.00,0.0074
1115.00,0.0076
1114.00,0.0078
1113.00,0.0080
1112.00,0.0083
1111.00,0.0086
1110.00,0.0090
1109.00,0.0095
1108.00,0.0100
1107.00,0.0107
1106.00,0.0114
1105.00,0.0121
1104.00,0.0126
1103.00,0.0130
1102.00,0.0130
1101.00,0.0127
1100.00,0.0122
1099.00,0.0115
1098.00,0.0108
1097.00,0.0101
1096.00,0.0095
1095.00,0.0089
1094.00,0.0084
1093.00,0.0079
1092.00,0.0076
1091.00,0.0073
1090.00,0.0071
1089.00,0.0069
1088.00,0.0067
1087.00,0.0065
1086.00,0.0064
1085.00,0.0064
1084.00,0.0064
1083.00,0.0063
1082.00,0.0062
1081.00,0.0060
1080.00,0.0059
1079.00,0.0058
1078.00,0.0057
1077.00,0.0056
1076.00,0.0055
1075.00,0.0054
1074.00,0.0053
1073.00,0.0052
1072.00,0.0052
1071.00,0.0053
1070.00,0.0054
1069.00,0.0055
1068.00,0.0057
1067.00,0.0059
1066.00,0.0060
1065.00,0.0061
1064.00,0.0061
1063.00,0.0061
1062.00,0.0062
1061.00,0.0063
1060.00,0.0064
1059.00,0.0066
1058.00,0.0067
1057.00,0.0067
1056.00,0.0068
1055.00,0.0068
1054.00,0.0070
1053.00,0.0072
1052.00,0.0074
1051.00,0.0077
1050.00,0.0079
1049.00,0.0082
1048.00,0.0087
1047.00,0.0091
1046.00,0.0095
1045.00,0.0098
1044.00,0.0099
1043.00,0.0099
1042.00,0.0098
1041.00,0.0097
1040.00,0.0095
1039.00,0.0094
1038.00,0.0094
1037.00,0.0096
1036.00,0.0098
1035.00,0.0099
1034.00,0.0098
1033.00,0.0097
1032.00,0.0096
1031.00,0.0095
1030.00,0.0095
1029.00,0.0095
1028.00,0.0094
1027.00,0.0093
1026.00,0.0093
1025.00,0.0093
1024.00,0.0093
1023.00,0.0094
1022.00,0.0094
1021.00,0.0094
1020.00,0.0094
1019.00,0.0095
1018.00,0.0097
1017.00,0.0099
1016.00,0.0101
1015.00,0.0104
1014.00,0.0107
1013.00,0.0111
1012.00,0.0115
1011.00,0.0119
1010.00,0.0122
1009.00,0.0125
1008.00,0.0129
1007.00,0.0134
1006.00,0.0141
1005.00,0.0151
1004.00,0.0165
1003.00,0.0185
1002.00,0.0212
1001.00,0.0245
1000.00,0.0280
999.00,0.0308
998.00,0.0322
997.00,0.0315
996.00,0.0290
995.00,0.0255
994.00,0.0217
993.00,0.0184
992.00,0.0158
991.00,0.0139
990.00,0.0127
989.00,0.0118
988.00,0.0112
987.00,0.0109
986.00,0.0108
985.00,0.0109
984.00,0.0112
983.00,0.0117
982.00,0.0126
981.00,0.0141
980.00,0.0161
979.00,0.0188
978.00,0.0221
977.00,0.0259
976.00,0.0300
975.00,0.0338
974.00,0.0365
973.00,0.0373
972.00,0.0358
971.00,0.0321
970.00,0.0273
969.00,0.0224
968.00,0.0181
967.00,0.0148
966.00,0.0124
965.00,0.0106
964.00,0.0094
963.00,0.0084
962.00,0.0077
961.00,0.0071
960.00,0.0065
959.00,0.0060
958.00,0.0056
957.00,0.0053
956.00,0.0051
955.00,0.0050
954.00,0.0048
953.00,0.0047
952.00,0.0047
951.00,0.0046
950.00,0.0046
949.00,0.0046
948.00,0.0047
947.00,0.0049
946.00,0.0051
945.00,0.0055
944.00,0.0059
943.00,0.0063
942.00,0.0066
941.00,0.0069
940.00,0.0069
939.00,0.0068
938.00,0.0065
937.00,0.0062
936.00,0.0059
935.00,0.0057
934.00,0.0056
933.00,0.0055
932.00,0.0054
931.00,0.0053
930.00,0.0052
929.00,0.0052
928.00,0.0052
927.00,0.0054
926.00,0.0055
925.00,0.0057
924.00,0.0058
923.00,0.0059
922.00,0.0061
921.00,0.0062
920.00,0.0063
919.00,0.0065
918.00,0.0066
917.00,0.0067
916.00,0.0068
915.00,0.0069
914.00,0.0070
913.00,0.0070
912.00,0.0071
911.00,0.0071
910.00,0.0072
909.00,0.0074
908.00,0.0077
907.00,0.0081
906.00,0.0087
905.00,0.0097
904.00,0.0112
903.00,0.0131
902.00,0.0152
901.00,0.0171
900.00,0.0185
899.00,0.0188
898.00,0.0181
897.00,0.0166
896.00,0.0146
895.00,0.0126
894.00,0.0109
893.00,0.0097
892.00,0.0089
891.00,0.0084
890.00,0.0080
889.00,0.0077
888.00,0.0073
887.00,0.0071
886.00,0.0069
885.00,0.0068
884.00,0.0069
883.00,0.0069
882.00,0.0069
881.00,0.0069
880.00,0.0070
879.00,0.0071
878.00,0.0072
877.00,0.0073
876.00,0.0073
875.00,0.0074
874.00,0.0075
873.00,0.0076
872.00,0.0075
871.00,0.0074
870.00,0.0074
869.00,0.0073
868.00,0.0073
867.00,0.0073
866.00,0.0074
865.00,0.0074
864.00,0.0075
863.00,0.0076
862.00,0.0077
861.00,0.0078
860.00,0.0080
859.00,0.0082
858.00,0.0083
857.00,0.0083
856.00,0.0083
855.00,0.0084
854.00,0.0086
853.00,0.0089
852.00,0.0094
851.00,0.0098
850.00,0.0103
849.00,0.0110
848.00,0.0118
847.00,0.0132
846.00,0.0153
845.00,0.0183
844.00,0.0224
843.00,0.0267
842.00,0.0300
841.00,0.0308
840.00,0.0288
839.00,0.0249
838.00,0.0208
837.00,0.0173
836.00,0.0150
835.00,0.0135
834.00,0.0126
833.00,0.0121
832.00,0.0116
831.00,0.0113
830.00,0.0110
829.00,0.0107
828.00,0.0104
827.00,0.0103
826.00,0.0103
825.00,0.0104
824.00,0.0103
823.00,0.0102
822.00,0.0102
821.00,0.0103
820.00,0.0105
819.00,0.0109
818.00,0.0114
817.00,0.0120
816.00,0.0127
815.00,0.0137
814.00,0.0150
813.00,0.0166
812.00,0.0183
811.00,0.0198
810.00,0.0210
809.00,0.0216
808.00,0.0214
807.00,0.0205
806.00,0.0192
805.00,0.0177
804.00,0.0160
803.00,0.0146
802.00,0.0134
801.00,0.0124
800.00,0.0117
799.00,0.0111
798.00,0.0107
797.00,0.0104
796.00,0.0101
795.00,0.0097
794.00,0.0093
793.00,0.0089
792.00,0.0085
791.00,0.0083
790.00,0.0081
789.00,0.0080
788.00,0.0080
787.00,0.0080
786.00,0.0078
785.00,0.0074
784.00,0.0071
783.00,0.0067
782.00,0.0065
781.00,0.0063
780.00,0.0063
779.00,0.0064
778.00,0.0065
777.00,0.0066
776.00,0.0065
775.00,0.0065
774.00,0.0066
773.00,0.0068
772.00,0.0072
771.00,0.0076
770.00,0.0079
769.00,0.0080
768.00,0.0080
767.00,0.0080
766.00,0.0080
765.00,0.0079
764.00,0.0078
763.00,0.0076
762.00,0.0073
761.00,0.0069
760.00,0.0065
759.00,0.0063
758.00,0.0061
757.00,0.0059
756.00,0.0057
755.00,0.0056
754.00,0.0054
753.00,0.0054
752.00,0.0054
751.00,0.0054
750.00,0.0054
749.00,0.0054
748.00,0.0053
747.00,0.0053
746.00,0.0055
745.00,0.0057
744.00,0.0057
743.00,0.0057
742.00,0.0058
741.00,0.0059
740.00,0.0062
739.00,0.0065
738.00,0.0066
737.00,0.0066
736.00,0.0066
735.00,0.0066
734.00,0.0067
733.00,0.0067
732.00,0.0067
731.00,0.0067
730.00,0.0067
729.00,0.0067
728.00,0.0067
727.00,0.0066
726.00,0.0066
725.00,0.0066
724.00,0.0066
723.00,0.0066
722.00,0.0066
721.00,0.0065
720.00,0.0064
719.00,0.0063
718.00,0.0061
717.00,0.0060
716.00,0.0059
715.00,0.0059
714.00,0.0061
713.00,0.0062
712.00,0.0063
711.00,0.0062
710.00,0.0060
709.00,0.0058
708.00,0.0057
707.00,0.0059
706.00,0.0061
705.00,0.0061
704.00,0.0061
703.00,0.0060
702.00,0.0058
701.00,0.0057
700.00,0.0057
699.00,0.0057
698.00,0.0057
697.00,0.0059
696.00,0.0060
695.00,0.0060
694.00,0.0059
693.00,0.0057
692.00,0.0057
691.00,0.0057
690.00,0.0058
689.00,0.0059
688.00,0.0060
687.00,0.0060
686.00,0.0059
685.00,0.0058
684.00,0.0058
683.00,0.0058
682.00,0.0058
681.00,0.0058
680.00,0.0056
679.00,0.0054
678.00,0.0054
677.00,0.0055
676.00,0.0058
675.00,0.0060
674.00,0.0061
673.00,0.0060
672.00,0.0058
671.00,0.0057
670.00,0.0058
669.00,0.0059
668.00,0.0062
667.00,0.0064
666.00,0.0064
665.00,0.0064
664.00,0.0064
663.00,0.0064
662.00,0.0063
661.00,0.0061
660.00,0.0061
659.00,0.0060
658.00,0.0058
657.00,0.0055
656.00,0.0053
655.00,0.0052
654.00,0.0053
653.00,0.0054
652.00,0.0054
651.00,0.0053
650.00,0.0052
649.00,0.0051
648.00,0.0050
647.00,0.0051
646.00,0.0053
645.00,0.0054
644.00,0.0054
643.00,0.0053
642.00,0.0053
641.00,0.0055
640.00,0.0057
639.00,0.0058
638.00,0.0058
637.00,0.0058
636.00,0.0058
635.00,0.0059
634.00,0.0059
633.00,0.0059
632.00,0.0059
631.00,0.0059
630.00,0.0059
629.00,0.0060
628.00,0.0061
627.00,0.0061
626.00,0.0061
625.00,0.0061
624.00,0.0061
623.00,0.0061
622.00,0.0061
621.00,0.0061
620.00,0.0061
619.00,0.0061
618.00,0.0061
617.00,0.0061
616.00,0.0062
615.00,0.0063
614.00,0.0065
613.00,0.0064
612.00,0.0062
611.00,0.0060
610.00,0.0060
609.00,0.0061
608.00,0.0064
607.00,0.0066
606.00,0.0067
605.00,0.0067
604.00,0.0066
603.00,0.0065
602.00,0.0064
601.00,0.0063
600.00,0.0063
599.00,0.0062
598.00,0.0061
597.00,0.0061
596.00,0.0061
595.00,0.0063
594.00,0.0065
593.00,0.0066
592.00,0.0066
591.00,0.0066
590.00,0.0067
589.00,0.0067
588.00,0.0068
587.00,0.0066
586.00,0.0064
585.00,0.0063
584.00,0.0065
583.00,0.0068
582.00,0.0070
581.00,0.0069
580.00,0.0066
579.00,0.0063
578.00,0.0062
577.00,0.0062
576.00,0.0063
575.00,0.0064
574.00,0.0063
573.00,0.0060
572.00,0.0057
571.00,0.0055
570.00,0.0055
569.00,0.0058
568.00,0.0062
567.00,0.0064
566.00,0.0066
565.00,0.0066
564.00,0.0065
563.00,0.0066
562.00,0.0067
561.00,0.0068
560.00,0.0069
559.00,0.0069
558.00,0.0067
557.00,0.0064
556.00,0.0060
555.00,0.0058
554.00,0.0058
553.00,0.0060
552.00,0.0062
551.00,0.0064
550.00,0.0066
549.00,0.0067
548.00,0.0067
547.00,0.0068
546.00,0.0068
545.00,0.0066
544.00,0.0063
543.00,0.0062
542.00,0.0064
541.00,0.0068
540.00,0.0072
539.00,0.0073
538.00,0.0075
537.00,0.0078
536.00,0.0082
535.00,0.0086
534.00,0.0087
533.00,0.0086
532.00,0.0086
531.00,0.0087
530.00,0.0088
529.00,0.0088
528.00,0.0087
527.00,0.0086
526.00,0.0083
525.00,0.0080
524.00,0.0079
523.00,0.0079
522.00,0.0081
521.00,0.0083
520.00,0.0085
519.00,0.0088
518.00,0.0087
517.00,0.0083
516.00,0.0075
515.00,0.0070
514.00,0.0069
513.00,0.0073
512.00,0.0079
511.00,0.0082
510.00,0.0081
509.00,0.0077
508.00,0.0072
507.00,0.0068
506.00,0.0066
505.00,0.0064
504.00,0.0064
503.00,0.0064
502.00,0.0064
501.00,0.0061
500.00,0.0059
499.00,0.0058
498.00,0.0059
497.00,0.0059
496.00,0.0060
495.00,0.0061
494.00,0.0060
493.00,0.0058
492.00,0.0059
491.00,0.0062
490.00,0.0065
489.00,0.0065
488.00,0.0065
487.00,0.0068
486.00,0.0072
485.00,0.0073
484.00,0.0069
483.00,0.0064
482.00,0.0058
481.00,0.0052
480.00,0.0045
479.00,0.0042
478.00,0.0041
477.00,0.0044
476.00,0.0050
475.00,0.0059
474.00,0.0068
473.00,0.0073
472.00,0.0068
471.00,0.0059
470.00,0.0051
469.00,0.0049
468.00,0.0054
467.00,0.0063
466.00,0.0075
465.00,0.0086
464.00,0.0098
463.00,0.0112
462.00,0.0127
461.00,0.0137
460.00,0.0140
459.00,0.0139
458.00,0.0139
457.00,0.0140
456.00,0.0138
455.00,0.0133
454.00,0.0123
453.00,0.0110
452.00,0.0094
451.00,0.0082
450.00,0.0077
