Created as New Dataset,Sample 039 By Administrator Date Friday, September 05 2025
cm-1,A
4000.00,0.0012
3999.00,0.0012
3998.00,0.0012
3997.00,0.0012
3996.00,0.0012
3995.00,0.0012
3994.00,0.0012
3993.00,0.0012
3992.00,0.0012
3991.00,0.0012
3990.00,0.0012
3989.00,0.0012
3988.00,0.0012
3987.00,0.0012
3986.00,0.0012
3985.00,0.0011
3984.00,0.0011
3983.00,0.0011
3982.00,0.0011
3981.00,0.0011
3980.00,0.0010
3979.00,0.0010
3978.00,0.0010
3977.00,0.0011
3976.00,0.0011
3975.00,0.0011
3974.00,0.0010
3973.00,0.0010
3972.00,0.0010
3971.00,0.0010
3970.00,0.0010
3969.00,0.0010
3968.00,0.0010
3967.00,0.0010
3966.00,0.0010
3965.00,0.0009
3964.00,0.0009
3963.00,0.0010
3962.00,0.0010
3961.00,0.0010
3960.00,0.0010
3959.00,0.0010
3958.00,0.0010
3957.00,0.0010
3956.00,0.0010
3955.00,0.0010
3954.00,0.0010
3953.00,0.0010
3952.00,0.0010
3951.00,0.0010
3950.00,0.0010
3949.00,0.0010
3948.00,0.0010
3947.00,0.0009
3946.00,0.0009
3945.00,0.0010
3944.00,0.0010
3943.00,0.0010
3942.00,0.0010
3941.00,0.0010
3940.00,0.0010
3939.00,0.0009
3938.00,0.0009
3937.00,0.0009
3936.00,0.0009
3935.00,0.0009
3934.00,0.0010
3933.00,0.0010
3932.00,0.0011
3931.00,0.0011
3930.00,0.0011
3929.00,0.0011
3928.00,0.0011
3927.00,0.0011
3926.00,0.0011
3925.00,0.0011
3924.00,0.0011
3923.00,0.0011
3922.00,0.0011
3921.00,0.0011
3920.00,0.0010
3919.00,0.0010
3918.00,0.0010
3917.00,0.0010
3916.00,0.0010
3915.00,0.0010
3914.00,0.0010
3913.00,0.0010
3912.00,0.0010
3911.00,0.0010
3910.00,0.0011
3909.00,0.0011
3908.00,0.0011
3907.00,0.0010
3906.00,0.0010
3905.00,0.0009
3904.00,0.0009
3903.00,0.0008
3902.00,0.0008
3901.00,0.0009
3900.00,0.0009
3899.00,0.0009
3898.00,0.0009
3897.00,0.0009
3896.00,0.0009
3895.00,0.0009
3894.00,0.0009
3893.00,0.0008
3892.00,0.0008
3891.00,0.0008
3890.00,0.0009
3889.00,0.0009
3888.00,0.0009
3887.00,0.0009
3886.00,0.0010
3885.00,0.0010
3884.00,0.0009
3883.00,0.0009
3882.00,0.0008
3881.00,0.0008
3880.00,0.0008
3879.00,0.0008
3878.00,0.0008
3877.00,0.0008
3876.00,0.0008
3875.00,0.0008
3874.00,0.0009
3873.00,0.0009
3872.00,0.0009
3871.00,0.0009
3870.00,0.0009
3869.00,0.0009
3868.00,0.0009
3867.00,0.0008
3866.00,0.0008
3865.00,0.0008
3864.00,0.0008
3863.00,0.0008
3862.00,0.0008
3861.00,0.0008
3860.00,0.0008
3859.00,0.0008
3858.00,0.0009
3857.00,0.0009
3856.00,0.0010
3855.00,0.0009
3854.00,0.0009
3853.00,0.0009
3852.00,0.0008
3851.00,0.0008
3850.00,0.0007
3849.00,0.0007
3848.00,0.0007
3847.00,0.0008
3846.00,0.0008
3845.00,0.0008
3844.00,0.0008
3843.00,0.0008
3842.00,0.0008
3841.00,0.0007
3840.00,0.0007
3839.00,0.0007
3838.00,0.0007
3837.00,0.0007
3836.00,0.0007
3835.00,0.0007
3834.00,0.0007
3833.00,0.0008
3832.00,0.0008
3831.00,0.0008
3830.00,0.0008
3829.00,0.0008
3828.00,0.0007
3827.00,0.0007
3826.00,0.0008
3825.00,0.0007
3824.00,0.0007
3823.00,0.0007
3822.00,0.0007
3821.00,0.0008
3820.00,0.0008
3819.00,0.0008
3818.00,0.0008
3817.00,0.0008
3816.00,0.0008
3815.00,0.0009
3814.00,0.0009
3813.00,0.0009
3812.00,0.0009
3811.00,0.0009
3810.00,0.0009
3809.00,0.0008
3808.00,0.0008
3807.00,0.0008
3806.00,0.0008
3805.00,0.0008
3804.00,0.0008
3803.00,0.0008
3802.00,0.0008
3801.00,0.0008
3800.00,0.0008
3799.00,0.0008
3798.00,0.0008
3797.00,0.0008
3796.00,0.0008
3795.00,0.0008
3794.00,0.0008
3793.00,0.0008
3792.00,0.0008
3791.00,0.0009
3790.00,0.0009
3789.00,0.0009
3788.00,0.0009
3787.00,0.0009
3786.00,0.0009
3785.00,0.0009
3784.00,0.0009
3783.00,0.0009
3782.00,0.0009
3781.00,0.0009
3780.00,0.0009
3779.00,0.0010
3778.00,0.0009
3777.00,0.0009
3776.00,0.0009
3775.00,0.0009
3774.00,0.0009
3773.00,0.0009
3772.00,0.0008
3771.00,0.0008
3770.00,0.0008
3769.00,0.0009
3768.00,0.0009
3767.00,0.0009
3766.00,0.0009
3765.00,0.0009
3764.00,0.0009
3763.00,0.0009
3762.00,0.0009
3761.00,0.0009
3760.00,0.0009
3759.00,0.0008
3758.00,0.0008
3757.00,0.0008
3756.00,0.0008
3755.00,0.0008
3754.00,0.0007
3753.00,0.0007
3752.00,0.0007
3751.00,0.0007
3750.00,0.0008
3749.00,0.0009
3748.00,0.0009
3747.00,0.0009
3746.00,0.0009
3745.00,0.0008
3744.00,0.0008
3743.00,0.0008
3742.00,0.0007
3741.00,0.0007
3740.00,0.0006
3739.00,0.0006
3738.00,0.0006
3737.00,0.0006
3736.00,0.0006
3735.00,0.0007
3734.00,0.0007
3733.00,0.0007
3732.00,0.0007
3731.00,0.0006
3730.00,0.0006
3729.00,0.0006
3728.00,0.0006
3727.00,0.0006
3726.00,0.0006
3725.00,0.0006
3724.00,0.0006
3723.00,0.0005
3722.00,0.0005
3721.00,0.0005
3720.00,0.0005
3719.00,0.0005
3718.00,0.0005
3717.00,0.0006
3716.00,0.0006
3715.00,0.0007
3714.00,0.0007
3713.00,0.0007
3712.00,0.0008
3711.00,0.0008
3710.00,0.0007
3709.00,0.0007
3708.00,0.0007
3707.00,0.0007
3706.00,0.0007
3705.00,0.0007
3704.00,0.0007
3703.00,0.0007
3702.00,0.0007
3701.00,0.0006
3700.00,0.0006
3699.00,0.0006
3698.00,0.0006
3697.00,0.0006
3696.00,0.0006
3695.00,0.0006
3694.00,0.0006
3693.00,0.0006
3692.00,0.0006
3691.00,0.0005
3690.00,0.0005
3689.00,0.0004
3688.00,0.0004
3687.00,0.0005
3686.00,0.0005
3685.00,0.0005
3684.00,0.0005
3683.00,0.0004
3682.00,0.0004
3681.00,0.0004
3680.00,0.0003
3679.00,0.0003
3678.00,0.0002
3677.00,0.0000
3676.00,-0.0001
3675.00,-0.0001
3674.00,-0.0002
3673.00,-0.0002
3672.00,-0.0003
3671.00,-0.0003
3670.00,-0.0003
3669.00,-0.0002
3668.00,-0.0003
3667.00,-0.0003
3666.00,-0.0003
3665.00,-0.0003
3664.00,-0.0003
3663.00,-0.0003
3662.00,-0.0003
3661.00,-0.0003
3660.00,-0.0003
3659.00,-0.0003
3658.00,-0.0003
3657.00,-0.0003
3656.00,-0.0003
3655.00,-0.0003
3654.00,-0.0003
3653.00,-0.0004
3652.00,-0.0005
3651.00,-0.0005
3650.00,-0.0005
3649.00,-0.0004
3648.00,-0.0004
3647.00,-0.0003
3646.00,-0.0003
3645.00,-0.0003
3644.00,-0.0002
3643.00,-0.0001
3642.00,-0.0000
3641.00,0.0000
3640.00,0.0001
3639.00,0.0000
3638.00,0.0000
3637.00,0.0000
3636.00,0.0001
3635.00,0.0002
3634.00,0.0003
3633.00,0.0003
3632.00,0.0004
3631.00,0.0004
3630.00,0.0004
3629.00,0.0005
3628.00,0.0005
3627.00,0.0005
3626.00,0.0005
3625.00,0.0004
3624.00,0.0004
3623.00,0.0004
3622.00,0.0004
3621.00,0.0004
3620.00,0.0004
3619.00,0.0004
3618.00,0.0005
3617.00,0.0005
3616.00,0.0005
3615.00,0.0005
3614.00,0.0006
3613.00,0.0006
3612.00,0.0006
3611.00,0.0006
3610.00,0.0006
3609.00,0.0007
3608.00,0.0008
3607.00,0.0009
3606.00,0.0009
3605.00,0.0008
3604.00,0.0008
3603.00,0.0008
3602.00,0.0008
3601.00,0.0009
3600.00,0.0009
3599.00,0.0009
3598.00,0.0009
3597.00,0.0009
3596.00,0.0009
3595.00,0.0009
3594.00,0.0010
3593.00,0.0010
3592.00,0.0009
3591.00,0.0009
3590.00,0.0008
3589.00,0.0008
3588.00,0.0009
3587.00,0.0010
3586.00,0.0010
3585.00,0.0011
3584.00,0.0011
3583.00,0.0011
3582.00,0.0012
3581.00,0.0012
3580.00,0.0011
3579.00,0.0011
3578.00,0.0011
3577.00,0.0011
3576.00,0.0011
3575.00,0.0012
3574.00,0.0012
3573.00,0.0012
3572.00,0.0012
3571.00,0.0012
3570.00,0.0013
3569.00,0.0014
3568.00,0.0014
3567.00,0.0015
3566.00,0.0015
3565.00,0.0015
3564.00,0.0014
3563.00,0.0014
3562.00,0.0014
3561.00,0.0014
3560.00,0.0014
3559.00,0.0015
3558.00,0.0015
3557.00,0.0015
3556.00,0.0015
3555.00,0.0016
3554.00,0.0016
3553.00,0.0016
3552.00,0.0016
3551.00,0.0016
3550.00,0.0016
3549.00,0.0016
3548.00,0.0016
3547.00,0.0016
3546.00,0.0016
3545.00,0.0017
3544.00,0.0017
3543.00,0.0017
3542.00,0.0017
3541.00,0.0018
3540.00,0.0018
3539.00,0.0018
3538.00,0.0018
3537.00,0.0018
3536.00,0.0018
3535.00,0.0019
3534.00,0.0019
3533.00,0.0019
3532.00,0.0019
3531.00,0.0019
3530.00,0.0019
3529.00,0.0019
3528.00,0.0019
3527.00,0.0020
3526.00,0.0020
3525.00,0.0020
3524.00,0.0020
3523.00,0.0020
3522.00,0.0020
3521.00,0.0021
3520.00,0.0021
3519.00,0.0021
3518.00,0.0021
3517.00,0.0021
3516.00,0.0021
3515.00,0.0021
3514.00,0.0021
3513.00,0.0021
3512.00,0.0021
3511.00,0.0021
3510.00,0.0021
3509.00,0.0022
3508.00,0.0022
3507.00,0.0022
3506.00,0.0022
3505.00,0.0022
3504.00,0.0023
3503.00,0.0023
3502.00,0.0023
3501.00,0.0023
3500.00,0.0023
3499.00,0.0023
3498.00,0.0023
3497.00,0.0024
3496.00,0.0024
3495.00,0.0024
3494.00,0.0024
3493.00,0.0024
3492.00,0.0024
3491.00,0.0024
3490.00,0.0024
3489.00,0.0024
3488.00,0.0025
3487.00,0.0024
3486.00,0.0024
3485.00,0.0024
3484.00,0.0024
3483.00,0.0024
3482.00,0.0025
3481.00,0.0025
3480.00,0.0025
3479.00,0.0025
3478.00,0.0025
3477.00,0.0026
3476.00,0.0026
3475.00,0.0026
3474.00,0.0026
3473.00,0.0026
3472.00,0.0026
3471.00,0.0026
3470.00,0.0026
3469.00,0.0026
3468.00,0.0027
3467.00,0.0027
3466.00,0.0027
3465.00,0.0027
3464.00,0.0028
3463.00,0.0028
3462.00,0.0028
3461.00,0.0028
3460.00,0.0028
3459.00,0.0028
3458.00,0.0028
3457.00,0.0029
3456.00,0.0029
3455.00,0.0029
3454.00,0.0029
3453.00,0.0029
3452.00,0.0029
3451.00,0.0029
3450.00,0.0029
3449.00,0.0029
3448.00,0.0029
3447.00,0.0030
3446.00,0.0030
3445.00,0.0030
3444.00,0.0030
3443.00,0.0030
3442.00,0.0030
3441.00,0.0031
3440.00,0.0031
3439.00,0.0031
3438.00,0.0031
3437.00,0.0032
3436.00,0.0032
3435.00,0.0032
3434.00,0.0032
3433.00,0.0032
3432.00,0.0032
3431.00,0.0032
3430.00,0.0033
3429.00,0.0033
3428.00,0.0034
3427.00,0.0034
3426.00,0.0035
3425.00,0.0035
3424.00,0.0035
3423.00,0.0035
3422.00,0.0035
3421.00,0.0035
3420.00,0.0035
3419.00,0.0035
3418.00,0.0035
3417.00,0.0035
3416.00,0.0035
3415.00,0.0035
3414.00,0.0036
3413.00,0.0036
3412.00,0.0036
3411.00,0.0036
3410.00,0.0036
3409.00,0.0036
3408.00,0.0036
3407.00,0.0036
3406.00,0.0036
3405.00,0.0036
3404.00,0.0036
3403.00,0.0036
3402.00,0.0037
3401.00,0.0037
3400.00,0.0037
3399.00,0.0037
3398.00,0.0037
3397.00,0.0037
3396.00,0.0037
3395.00,0.0038
3394.00,0.0038
3393.00,0.0038
3392.00,0.0038
3391.00,0.0038
3390.00,0.0038
3389.00,0.0037
3388.00,0.0037
3387.00,0.0037
3386.00,0.0037
3385.00,0.0038
3384.00,0.0038
3383.00,0.0038
3382.00,0.0038
3381.00,0.0038
3380.00,0.0038
3379.00,0.0038
3378.00,0.0038
3377.00,0.0038
3376.00,0.0038
3375.00,0.0039
3374.00,0.0039
3373.00,0.0039
3372.00,0.0039
3371.00,0.0039
3370.00,0.0039
3369.00,0.0039
3368.00,0.0039
3367.00,0.0039
3366.00,0.0039
3365.00,0.0040
3364.00,0.0040
3363.00,0.0040
3362.00,0.0040
3361.00,0.0040
3360.00,0.0040
3359.00,0.0040
3358.00,0.0040
3357.00,0.0040
3356.00,0.0040
3355.00,0.0040
3354.00,0.0040
3353.00,0.0040
3352.00,0.0040
3351.00,0.0040
3350.00,0.0041
3349.00,0.0041
3348.00,0.0041
3347.00,0.0041
3346.00,0.0042
3345.00,0.0042
3344.00,0.0041
3343.00,0.0041
3342.00,0.0040
3341.00,0.0040
3340.00,0.0041
3339.00,0.0041
3338.00,0.0042
3337.00,0.0042
3336.00,0.0041
3335.00,0.0041
3334.00,0.0041
3333.00,0.0041
3332.00,0.0041
3331.00,0.0041
3330.00,0.0041
3329.00,0.0041
3328.00,0.0041
3327.00,0.0041
3326.00,0.0041
3325.00,0.0040
3324.00,0.0040
3323.00,0.0040
3322.00,0.0041
3321.00,0.0041
3320.00,0.0041
3319.00,0.0042
3318.00,0.0042
3317.00,0.0042
3316.00,0.0041
3315.00,0.0041
3314.00,0.0041
3313.00,0.0041
3312.00,0.0041
3311.00,0.0041
3310.00,0.0041
3309.00,0.0042
3308.00,0.0042
3307.00,0.0042
3306.00,0.0042
3305.00,0.0042
3304.00,0.0042
3303.00,0.0042
3302.00,0.0042
3301.00,0.0043
3300.00,0.0043
3299.00,0.0043
3298.00,0.0042
3297.00,0.0042
3296.00,0.0042
3295.00,0.0042
3294.00,0.0041
3293.00,0.0041
3292.00,0.0042
3291.00,0.0042
3290.00,0.0042
3289.00,0.0042
3288.00,0.0043
3287.00,0.0042
3286.00,0.0042
3285.00,0.0042
3284.00,0.0042
3283.00,0.0041
3282.00,0.0041
3281.00,0.0041
3280.00,0.0041
3279.00,0.0041
3278.00,0.0041
3277.00,0.0041
3276.00,0.0041
3275.00,0.0041
3274.00,0.0041
3273.00,0.0040
3272.00,0.0040
3271.00,0.0040
3270.00,0.0040
3269.00,0.0040
3268.00,0.0040
3267.00,0.0040
3266.00,0.0040
3265.00,0.0040
3264.00,0.0040
3263.00,0.0039
3262.00,0.0039
3261.00,0.0039
3260.00,0.0039
3259.00,0.0039
3258.00,0.0039
3257.00,0.0039
3256.00,0.0039
3255.00,0.0038
3254.00,0.0038
3253.00,0.0038
3252.00,0.0038
3251.00,0.0038
3250.00,0.0038
3249.00,0.0038
3248.00,0.0038
3247.00,0.0038
3246.00,0.0038
3245.00,0.0038
3244.00,0.0038
3243.00,0.0037
3242.00,0.0037
3241.00,0.0037
3240.00,0.0037
3239.00,0.0037
3238.00,0.0038
3237.00,0.0038
3236.00,0.0038
3235.00,0.0038
3234.00,0.0038
3233.00,0.0038
3232.00,0.0038
3231.00,0.0038
3230.00,0.0038
3229.00,0.0038
3228.00,0.0039
3227.00,0.0039
3226.00,0.0039
3225.00,0.0039
3224.00,0.0039
3223.00,0.0039
3222.00,0.0039
3221.00,0.0039
3220.00,0.0040
3219.00,0.0040
3218.00,0.0041
3217.00,0.0041
3216.00,0.0041
3215.00,0.0041
3214.00,0.0041
3213.00,0.0041
3212.00,0.0041
3211.00,0.0042
3210.00,0.0042
3209.00,0.0042
3208.00,0.0042
3207.00,0.0042
3206.00,0.0042
3205.00,0.0042
3204.00,0.0042
3203.00,0.0042
3202.00,0.0042
3201.00,0.0042
3200.00,0.0042
3199.00,0.0042
3198.00,0.0043
3197.00,0.0043
3196.00,0.0043
3195.00,0.0043
3194.00,0.0043
3193.00,0.0043
3192.00,0.0043
3191.00,0.0043
3190.00,0.0043
3189.00,0.0043
3188.00,0.0043
3187.00,0.0042
3186.00,0.0042
3185.00,0.0041
3184.00,0.0041
3183.00,0.0040
3182.00,0.0041
3181.00,0.0041
3180.00,0.0041
3179.00,0.0041
3178.00,0.0041
3177.00,0.0040
3176.00,0.0040
3175.00,0.0040
3174.00,0.0039
3173.00,0.0039
3172.00,0.0039
3171.00,0.0039
3170.00,0.0039
3169.00,0.0039
3168.00,0.0039
3167.00,0.0039
3166.00,0.0039
3165.00,0.0039
3164.00,0.0039
3163.00,0.0039
3162.00,0.0039
3161.00,0.0039
3160.00,0.0039
3159.00,0.0038
3158.00,0.0038
3157.00,0.0038
3156.00,0.0038
3155.00,0.0038
3154.00,0.0038
3153.00,0.0038
3152.00,0.0038
3151.00,0.0038
3150.00,0.0038
3149.00,0.0039
3148.00,0.0039
3147.00,0.0039
3146.00,0.0039
3145.00,0.0039
3144.00,0.0039
3143.00,0.0039
3142.00,0.0038
3141.00,0.0038
3140.00,0.0037
3139.00,0.0037
3138.00,0.0037
3137.00,0.0037
3136.00,0.0037
3135.00,0.0037
3134.00,0.0037
3133.00,0.0036
3132.00,0.0036
3131.00,0.0036
3130.00,0.0035
3129.00,0.0035
3128.00,0.0035
3127.00,0.0035
3126.00,0.0035
3125.00,0.0034
3124.00,0.0034
3123.00,0.0034
3122.00,0.0033
3121.00,0.0033
3120.00,0.0033
3119.00,0.0033
3118.00,0.0033
3117.00,0.0033
3116.00,0.0033
3115.00,0.0033
3114.00,0.0033
3113.00,0.0033
3112.00,0.0033
3111.00,0.0033
3110.00,0.0032
3109.00,0.0032
3108.00,0.0032
3107.00,0.0032
3106.00,0.0032
3105.00,0.0032
3104.00,0.0032
3103.00,0.0031
3102.00,0.0031
3101.00,0.0031
3100.00,0.0031
3099.00,0.0031
3098.00,0.0031
3097.00,0.0031
3096.00,0.0031
3095.00,0.0031
3094.00,0.0031
3093.00,0.0031
3092.00,0.0031
3091.00,0.0031
3090.00,0.0031
3089.00,0.0031
3088.00,0.0031
3087.00,0.0031
3086.00,0.0031
3085.00,0.0031
3084.00,0.0031
3083.00,0.0031
3082.00,0.0031
3081.00,0.0031
3080.00,0.0031
3079.00,0.0031
3078.00,0.0032
3077.00,0.0032
3076.00,0.0031
3075.00,0.0031
3074.00,0.0032
3073.00,0.0032
3072.00,0.0032
3071.00,0.0033
3070.00,0.0033
3069.00,0.0033
3068.00,0.0033
3067.00,0.0033
3066.00,0.0033
3065.00,0.0033
3064.00,0.0034
3063.00,0.0034
3062.00,0.0034
3061.00,0.0034
3060.00,0.0034
3059.00,0.0034
3058.00,0.0034
3057.00,0.0034
3056.00,0.0034
3055.00,0.0034
3054.00,0.0034
3053.00,0.0034
3052.00,0.0034
3051.00,0.0035
3050.00,0.0035
3049.00,0.0035
3048.00,0.0035
3047.00,0.0036
3046.00,0.0036
3045.00,0.0036
3044.00,0.0037
3043.00,0.0037
3042.00,0.0037
3041.00,0.0037
3040.00,0.0037
3039.00,0.0037
3038.00,0.0038
3037.00,0.0038
3036.00,0.0039
3035.00,0.0039
3034.00,0.0039
3033.00,0.0039
3032.00,0.0039
3031.00,0.0040
3030.00,0.0040
3029.00,0.0041
3028.00,0.0041
3027.00,0.0042
3026.00,0.0042
3025.00,0.0042
3024.00,0.0043
3023.00,0.0043
3022.00,0.0043
3021.00,0.0044
3020.00,0.0044
3019.00,0.0044
3018.00,0.0045
3017.00,0.0045
3016.00,0.0045
3015.00,0.0044
3014.00,0.0044
3013.00,0.0044
3012.00,0.0043
3011.00,0.0042
3010.00,0.0042
3009.00,0.0042
3008.00,0.0041
3007.00,0.0041
3006.00,0.0040
3005.00,0.0039
3004.00,0.0038
3003.00,0.0038
3002.00,0.0037
3001.00,0.0037
3000.00,0.0037
2999.00,0.0037
2998.00,0.0038
2997.00,0.0039
2996.00,0.0041
2995.00,0.0043
2994.00,0.0046
2993.00,0.0050
2992.00,0.0055
2991.00,0.0060
2990.00,0.0065
2989.00,0.0071
2988.00,0.0077
2987.00,0.0084
2986.00,0.0089
2985.00,0.0093
2984.00,0.0097
2983.00,0.0103
2982.00,0.0114
2981.00,0.0131
2980.00,0.0154
2979.00,0.0182
2978.00,0.0213
2977.00,0.0247
2976.00,0.0284
2975.00,0.0323
2974.00,0.0367
2973.00,0.0416
2972.00,0.0472
2971.00,0.0537
2970.00,0.0611
2969.00,0.0692
2968.00,0.0781
2967.00,0.0874
2966.00,0.0971
2965.00,0.1070
2964.00,0.1167
2963.00,0.1258
2962.00,0.1339
2961.00,0.1407
2960.00,0.1462
2959.00,0.1506
2958.00,0.1544
2957.00,0.1584
2956.00,0.1629
2955.00,0.1685
2954.00,0.1751
2953.00,0.1822
2952.00,0.1890
2951.00,0.1944
2950.00,0.1972
2949.00,0.1963
2948.00,0.1912
2947.00,0.1820
2946.00,0.1698
2945.00,0.1559
2944.00,0.1422
2943.00,0.1297
2942.00,0.1196
2941.00,0.1121
2940.00,0.1073
2939.00,0.1050
2938.00,0.1050
2937.00,0.1070
2936.00,0.1107
2935.00,0.1160
2934.00,0.1228
2933.00,0.1309
2932.00,0.1401
2931.00,0.1503
2930.00,0.1612
2929.00,0.1725
2928.00,0.1837
2927.00,0.1946
2926.00,0.2051
2925.00,0.2151
2924.00,0.2248
2923.00,0.2343
2922.00,0.2436
2921.00,0.2526
2920.00,0.2606
2919.00,0.2669
2918.00,0.2705
2917.00,0.2705
2916.00,0.2670
2915.00,0.2602
2914.00,0.2511
2913.00,0.2408
2912.00,0.2303
2911.00,0.2203
2910.00,0.2111
2909.00,0.2027
2908.00,0.1950
2907.00,0.1876
2906.00,0.1803
2905.00,0.1731
2904.00,0.1657
2903.00,0.1583
2902.00,0.1510
2901.00,0.1438
2900.00,0.1369
2899.00,0.1304
2898.00,0.1244
2897.00,0.1189
2896.00,0.1141
2895.00,0.1101
2894.00,0.1067
2893.00,0.1041
2892.00,0.1022
2891.00,0.1010
2890.00,0.1004
2889.00,0.1004
2888.00,0.1008
2887.00,0.1016
2886.00,0.1027
2885.00,0.1042
2884.00,0.1062
2883.00,0.1087
2882.00,0.1117
2881.00,0.1151
2880.00,0.1184
2879.00,0.1212
2878.00,0.1232
2877.00,0.1240
2876.00,0.1238
2875.00,0.1230
2874.00,0.1222
2873.00,0.1218
2872.00,0.1222
2871.00,0.1235
2870.00,0.1254
2869.00,0.1275
2868.00,0.1289
2867.00,0.1288
2866.00,0.1263
2865.00,0.1211
2864.00,0.1134
2863.00,0.1040
2862.00,0.0941
2861.00,0.0847
2860.00,0.0765
2859.00,0.0698
2858.00,0.0648
2857.00,0.0612
2856.00,0.0589
2855.00,0.0576
2854.00,0.0572
2853.00,0.0575
2852.00,0.0586
2851.00,0.0603
2850.00,0.0626
2849.00,0.0655
2848.00,0.0690
2847.00,0.0733
2846.00,0.0784
2845.00,0.0844
2844.00,0.0913
2843.00,0.0987
2842.00,0.1065
2841.00,0.1138
2840.00,0.1201
2839.00,0.1242
2838.00,0.1254
2837.00,0.1230
2836.00,0.1170
2835.00,0.1080
2834.00,0.0972
2833.00,0.0858
2832.00,0.0748
2831.00,0.0651
2830.00,0.0569
2829.00,0.0501
2828.00,0.0447
2827.00,0.0403
2826.00,0.0367
2825.00,0.0338
2824.00,0.0314
2823.00,0.0293
2822.00,0.0276
2821.00,0.0261
2820.00,0.0248
2819.00,0.0236
2818.00,0.0227
2817.00,0.0218
2816.00,0.0211
2815.00,0.0204
2814.00,0.0198
2813.00,0.0193
2812.00,0.0187
2811.00,0.0182
2810.00,0.0176
2809.00,0.0170
2808.00,0.0164
2807.00,0.0158
2806.00,0.0151
2805.00,0.0145
2804.00,0.0138
2803.00,0.0132
2802.00,0.0127
2801.00,0.0122
2800.00,0.0118
2799.00,0.0115
2798.00,0.0112
2797.00,0.0110
2796.00,0.0108
2795.00,0.0106
2794.00,0.0103
2793.00,0.0100
2792.00,0.0097
2791.00,0.0094
2790.00,0.0090
2789.00,0.0087
2788.00,0.0084
2787.00,0.0081
2786.00,0.0079
2785.00,0.0077
2784.00,0.0074
2783.00,0.0072
2782.00,0.0070
2781.00,0.0068
2780.00,0.0067
2779.00,0.0065
2778.00,0.0064
2777.00,0.0063
2776.00,0.0061
2775.00,0.0060
2774.00,0.0059
2773.00,0.0059
2772.00,0.0058
2771.00,0.0058
2770.00,0.0057
2769.00,0.0057
2768.00,0.0057
2767.00,0.0056
2766.00,0.0055
2765.00,0.0055
2764.00,0.0055
2763.00,0.0055
2762.00,0.0054
2761.00,0.0054
2760.00,0.0054
2759.00,0.0054
2758.00,0.0054
2757.00,0.0054
2756.00,0.0054
2755.00,0.0053
2754.00,0.0053
2753.00,0.0053
2752.00,0.0053
2751.00,0.0053
2750.00,0.0053
2749.00,0.0053
2748.00,0.0053
2747.00,0.0053
2746.00,0.0053
2745.00,0.0054
2744.00,0.0055
2743.00,0.0056
2742.00,0.0057
2741.00,0.0058
2740.00,0.0060
2739.00,0.0062
2738.00,0.0063
2737.00,0.0065
2736.00,0.0066
2735.00,0.0068
2734.00,0.0069
2733.00,0.0071
2732.00,0.0073
2731.00,0.0075
2730.00,0.0077
2729.00,0.0080
2728.00,0.0082
2727.00,0.0085
2726.00,0.0088
2725.00,0.0091
2724.00,0.0093
2723.00,0.0093
2722.00,0.0092
2721.00,0.0090
2720.00,0.0087
2719.00,0.0083
2718.00,0.0080
2717.00,0.0077
2716.00,0.0074
2715.00,0.0071
2714.00,0.0068
2713.00,0.0066
2712.00,0.0063
2711.00,0.0061
2710.00,0.0060
2709.00,0.0058
2708.00,0.0057
2707.00,0.0056
2706.00,0.0054
2705.00,0.0053
2704.00,0.0052
2703.00,0.0051
2702.00,0.0050
2701.00,0.0049
2700.00,0.0049
2699.00,0.0048
2698.00,0.0048
2697.00,0.0048
2696.00,0.0047
2695.00,0.0047
2694.00,0.0046
2693.00,0.0046
2692.00,0.0046
2691.00,0.0046
2690.00,0.0046
2689.00,0.0047
2688.00,0.0047
2687.00,0.0047
2686.00,0.0047
2685.00,0.0047
2684.00,0.0047
2683.00,0.0047
2682.00,0.0047
2681.00,0.0047
2680.00,0.0047
2679.00,0.0047
2678.00,0.0047
2677.00,0.0047
2676.00,0.0047
2675.00,0.0047
2674.00,0.0046
2673.00,0.0046
2672.00,0.0045
2671.00,0.0045
2670.00,0.0045
2669.00,0.0046
2668.00,0.0046
2667.00,0.0046
2666.00,0.0046
2665.00,0.0046
2664.00,0.0047
2663.00,0.0047
2662.00,0.0047
2661.00,0.0048
2660.00,0.0048
2659.00,0.0049
2658.00,0.0048
2657.00,0.0048
2656.00,0.0048
2655.00,0.0047
2654.00,0.0047
2653.00,0.0046
2652.00,0.0045
2651.00,0.0045
2650.00,0.0045
2649.00,0.0044
2648.00,0.0044
2647.00,0.0044
2646.00,0.0043
2645.00,0.0043
2644.00,0.0042
2643.00,0.0042
2642.00,0.0042
2641.00,0.0041
2640.00,0.0041
2639.00,0.0040
2638.00,0.0040
2637.00,0.0040
2636.00,0.0040
2635.00,0.0040
2634.00,0.0040
2633.00,0.0040
2632.00,0.0040
2631.00,0.0040
2630.00,0.0040
2629.00,0.0041
2628.00,0.0041
2627.00,0.0042
2626.00,0.0042
2625.00,0.0042
2624.00,0.0042
2623.00,0.0042
2622.00,0.0042
2621.00,0.0043
2620.00,0.0043
2619.00,0.0044
2618.00,0.0044
2617.00,0.0044
2616.00,0.0043
2615.00,0.0043
2614.00,0.0043
2613.00,0.0043
2612.00,0.0042
2611.00,0.0042
2610.00,0.0041
2609.00,0.0041
2608.00,0.0040
2607.00,0.0039
2606.00,0.0038
2605.00,0.0038
2604.00,0.0037
2603.00,0.0036
2602.00,0.0035
2601.00,0.0034
2600.00,0.0034
2599.00,0.0034
2598.00,0.0034
2597.00,0.0034
2596.00,0.0034
2595.00,0.0034
2594.00,0.0034
2593.00,0.0034
2592.00,0.0035
2591.00,0.0036
2590.00,0.0037
2589.00,0.0038
2588.00,0.0039
2587.00,0.0040
2586.00,0.0040
2585.00,0.0041
2584.00,0.0042
2583.00,0.0042
2582.00,0.0043
2581.00,0.0043
2580.00,0.0042
2579.00,0.0041
2578.00,0.0040
2577.00,0.0039
2576.00,0.0037
2575.00,0.0036
2574.00,0.0035
2573.00,0.0033
2572.00,0.0032
2571.00,0.0032
2570.00,0.0031
2569.00,0.0031
2568.00,0.0031
2567.00,0.0031
2566.00,0.0030
2565.00,0.0030
2564.00,0.0029
2563.00,0.0028
2562.00,0.0028
2561.00,0.0028
2560.00,0.0027
2559.00,0.0027
2558.00,0.0026
2557.00,0.0026
2556.00,0.0025
2555.00,0.0025
2554.00,0.0025
2553.00,0.0025
2552.00,0.0025
2551.00,0.0024
2550.00,0.0023
2549.00,0.0023
2548.00,0.0022
2547.00,0.0022
2546.00,0.0022
2545.00,0.0023
2544.00,0.0023
2543.00,0.0022
2542.00,0.0022
2541.00,0.0021
2540.00,0.0020
2539.00,0.0020
2538.00,0.0019
2537.00,0.0019
2536.00,0.0019
2535.00,0.0019
2534.00,0.0018
2533.00,0.0018
2532.00,0.0018
2531.00,0.0018
2530.00,0.0018
2529.00,0.0017
2528.00,0.0017
2527.00,0.0017
2526.00,0.0017
2525.00,0.0017
2524.00,0.0017
2523.00,0.0017
2522.00,0.0017
2521.00,0.0017
2520.00,0.0017
2519.00,0.0016
2518.00,0.0016
2517.00,0.0015
2516.00,0.0015
2515.00,0.0014
2514.00,0.0014
2513.00,0.0013
2512.00,0.0014
2511.00,0.0014
2510.00,0.0013
2509.00,0.0013
2508.00,0.0012
2507.00,0.0012
2506.00,0.0011
2505.00,0.0012
2504.00,0.0011
2503.00,0.0011
2502.00,0.0011
2501.00,0.0011
2500.00,0.0012
2499.00,0.0012
2498.00,0.0012
2497.00,0.0013
2496.00,0.0013
2495.00,0.0014
2494.00,0.0015
2493.00,0.0015
2492.00,0.0014
2491.00,0.0014
2490.00,0.0013
2489.00,0.0013
2488.00,0.0013
2487.00,0.0013
2486.00,0.0013
2485.00,0.0013
2484.00,0.0013
2483.00,0.0013
2482.00,0.0013
2481.00,0.0013
2480.00,0.0013
2479.00,0.0013
2478.00,0.0013
2477.00,0.0012
2476.00,0.0012
2475.00,0.0012
2474.00,0.0012
2473.00,0.0012
2472.00,0.0012
2471.00,0.0012
2470.00,0.0012
2469.00,0.0012
2468.00,0.0012
2467.00,0.0012
2466.00,0.0012
2465.00,0.0012
2464.00,0.0012
2463.00,0.0012
2462.00,0.0013
2461.00,0.0013
2460.00,0.0014
2459.00,0.0014
2458.00,0.0014
2457.00,0.0014
2456.00,0.0015
2455.00,0.0015
2454.00,0.0014
2453.00,0.0014
2452.00,0.0013
2451.00,0.0012
2450.00,0.0012
2449.00,0.0013
2448.00,0.0013
2447.00,0.0013
2446.00,0.0012
2445.00,0.0012
2444.00,0.0012
2443.00,0.0012
2442.00,0.0012
2441.00,0.0012
2440.00,0.0013
2439.00,0.0013
2438.00,0.0014
2437.00,0.0015
2436.00,0.0015
2435.00,0.0016
2434.00,0.0016
2433.00,0.0016
2432.00,0.0016
2431.00,0.0015
2430.00,0.0015
2429.00,0.0014
2428.00,0.0014
2427.00,0.0014
2426.00,0.0014
2425.00,0.0014
2424.00,0.0014
2423.00,0.0015
2422.00,0.0015
2421.00,0.0015
2420.00,0.0015
2419.00,0.0014
2418.00,0.0014
2417.00,0.0014
2416.00,0.0014
2415.00,0.0013
2414.00,0.0013
2413.00,0.0013
2412.00,0.0013
2411.00,0.0013
2410.00,0.0013
2409.00,0.0014
2408.00,0.0014
2407.00,0.0013
2406.00,0.0012
2405.00,0.0012
2404.00,0.0011
2403.00,0.0011
2402.00,0.0012
2401.00,0.0012
2400.00,0.0013
2399.00,0.0013
2398.00,0.0012
2397.00,0.0012
2396.00,0.0013
2395.00,0.0013
2394.00,0.0012
2393.00,0.0012
2392.00,0.0012
2391.00,0.0011
2390.00,0.0010
2389.00,0.0010
2388.00,0.0010
2387.00,0.0010
2386.00,0.0009
2385.00,0.0009
2384.00,0.0008
2383.00,0.0006
2382.00,0.0005
2381.00,0.0004
2380.00,0.0004
2379.00,0.0003
2378.00,0.0002
2377.00,0.0002
2376.00,0.0002
2375.00,0.0002
2374.00,0.0003
2373.00,0.0003
2372.00,0.0003
2371.00,0.0003
2370.00,0.0002
2369.00,0.0001
2368.00,0.0001
2367.00,0.0001
2366.00,0.0002
2365.00,0.0002
2364.00,0.0003
2363.00,0.0003
2362.00,0.0003
2361.00,0.0002
2360.00,0.0001
2359.00,0.0001
2358.00,0.0000
2357.00,0.0001
2356.00,0.0001
2355.00,0.0002
2354.00,0.0002
2353.00,0.0002
2352.00,0.0001
2351.00,0.0000
2350.00,0.0001
2349.00,0.0001
2348.00,0.0002
2347.00,0.0003
2346.00,0.0003
2345.00,0.0003
2344.00,0.0002
2343.00,0.0003
2342.00,0.0003
2341.00,0.0004
2340.00,0.0004
2339.00,0.0005
2338.00,0.0004
2337.00,0.0004
2336.00,0.0004
2335.00,0.0005
2334.00,0.0005
2333.00,0.0005
2332.00,0.0005
2331.00,0.0004
2330.00,0.0004
2329.00,0.0005
2328.00,0.0007
2327.00,0.0010
2326.00,0.0015
2325.00,0.0019
2324.00,0.0021
2323.00,0.0020
2322.00,0.0018
2321.00,0.0016
2320.00,0.0015
2319.00,0.0014
2318.00,0.0014
2317.00,0.0013
2316.00,0.0012
2315.00,0.0012
2314.00,0.0011
2313.00,0.0010
2312.00,0.0010
2311.00,0.0010
2310.00,0.0010
2309.00,0.0010
2308.00,0.0010
2307.00,0.0010
2306.00,0.0011
2305.00,0.0011
2304.00,0.0011
2303.00,0.0011
2302.00,0.0011
2301.00,0.0011
2300.00,0.0011
2299.00,0.0012
2298.00,0.0013
2297.00,0.0014
2296.00,0.0015
2295.00,0.0015
2294.00,0.0015
2293.00,0.0015
2292.00,0.0016
2291.00,0.0016
2290.00,0.0017
2289.00,0.0018
2288.00,0.0018
2287.00,0.0018
2286.00,0.0018
2285.00,0.0019
2284.00,0.0019
2283.00,0.0019
2282.00,0.0019
2281.00,0.0019
2280.00,0.0018
2279.00,0.0018
2278.00,0.0017
2277.00,0.0016
2276.00,0.0016
2275.00,0.0016
2274.00,0.0016
2273.00,0.0016
2272.00,0.0016
2271.00,0.0016
2270.00,0.0016
2269.00,0.0016
2268.00,0.0015
2267.00,0.0015
2266.00,0.0014
2265.00,0.0014
2264.00,0.0014
2263.00,0.0013
2262.00,0.0013
2261.00,0.0013
2260.00,0.0013
2259.00,0.0014
2258.00,0.0015
2257.00,0.0015
2256.00,0.0014
2255.00,0.0013
2254.00,0.0011
2253.00,0.0010
2252.00,0.0009
2251.00,0.0009
2250.00,0.0009
2249.00,0.0011
2248.00,0.0012
2247.00,0.0013
2246.00,0.0014
2245.00,0.0013
2244.00,0.0012
2243.00,0.0011
2242.00,0.0011
2241.00,0.0012
2240.00,0.0013
2239.00,0.0013
2238.00,0.0013
2237.00,0.0012
2236.00,0.0012
2235.00,0.0012
2234.00,0.0012
2233.00,0.0013
2232.00,0.0013
2231.00,0.0013
2230.00,0.0011
2229.00,0.0010
2228.00,0.0009
2227.00,0.0009
2226.00,0.0009
2225.00,0.0009
2224.00,0.0009
2223.00,0.0009
2222.00,0.0009
2221.00,0.0011
2220.00,0.0013
2219.00,0.0014
2218.00,0.0014
2217.00,0.0013
2216.00,0.0012
2215.00,0.0012
2214.00,0.0011
2213.00,0.0010
2212.00,0.0009
2211.00,0.0009
2210.00,0.0008
2209.00,0.0008
2208.00,0.0007
2207.00,0.0005
2206.00,0.0004
2205.00,0.0002
2204.00,0.0002
2203.00,0.0003
2202.00,0.0005
2201.00,0.0008
2200.00,0.0010
2199.00,0.0012
2198.00,0.0013
2197.00,0.0013
2196.00,0.0014
2195.00,0.0014
2194.00,0.0014
2193.00,0.0014
2192.00,0.0013
2191.00,0.0012
2190.00,0.0010
2189.00,0.0008
2188.00,0.0009
2187.00,0.0010
2186.00,0.0012
2185.00,0.0013
2184.00,0.0012
2183.00,0.0009
2182.00,0.0005
2181.00,0.0004
2180.00,0.0004
2179.00,0.0006
2178.00,0.0007
2177.00,0.0008
2176.00,0.0007
2175.00,0.0005
2174.00,0.0004
2173.00,0.0005
2172.00,0.0006
2171.00,0.0009
2170.00,0.0012
2169.00,0.0014
2168.00,0.0015
2167.00,0.0015
2166.00,0.0015
2165.00,0.0016
2164.00,0.0018
2163.00,0.0021
2162.00,0.0022
2161.00,0.0018
2160.00,0.0007
2159.00,-0.0010
2158.00,-0.0025
2157.00,-0.0033
2156.00,-0.0034
2155.00,-0.0031
2154.00,-0.0026
2153.00,-0.0021
2152.00,-0.0016
2151.00,-0.0013
2150.00,-0.0012
2149.00,-0.0010
2148.00,-0.0010
2147.00,-0.0010
2146.00,-0.0012
2145.00,-0.0013
2144.00,-0.0014
2143.00,-0.0013
2142.00,-0.0012
2141.00,-0.0011
2140.00,-0.0010
2139.00,-0.0008
2138.00,-0.0007
2137.00,-0.0008
2136.00,-0.0010
2135.00,-0.0014
2134.00,-0.0016
2133.00,-0.0016
2132.00,-0.0016
2131.00,-0.0014
2130.00,-0.0012
2129.00,-0.0010
2128.00,-0.0008
2127.00,-0.0006
2126.00,-0.0005
2125.00,-0.0003
2124.00,-0.0002
2123.00,-0.0001
2122.00,-0.0000
2121.00,0.0001
2120.00,0.0003
2119.00,0.0003
2118.00,0.0004
2117.00,0.0003
2116.00,0.0003
2115.00,0.0001
2114.00,0.0000
2113.00,0.0000
2112.00,0.0001
2111.00,0.0002
2110.00,0.0004
2109.00,0.0005
2108.00,0.0006
2107.00,0.0006
2106.00,0.0005
2105.00,0.0004
2104.00,0.0004
2103.00,0.0003
2102.00,0.0002
2101.00,0.0003
2100.00,0.0003
2099.00,0.0004
2098.00,0.0004
2097.00,0.0003
2096.00,0.0002
2095.00,0.0001
2094.00,0.0000
2093.00,-0.0000
2092.00,0.0000
2091.00,0.0000
2090.00,-0.0000
2089.00,-0.0001
2088.00,-0.0000
2087.00,0.0001
2086.00,0.0003
2085.00,0.0005
2084.00,0.0007
2083.00,0.0007
2082.00,0.0006
2081.00,0.0005
2080.00,0.0005
2079.00,0.0004
2078.00,0.0004
2077.00,0.0004
2076.00,0.0004
2075.00,0.0004
2074.00,0.0004
2073.00,0.0004
2072.00,0.0004
2071.00,0.0004
2070.00,0.0004
2069.00,0.0004
2068.00,0.0004
2067.00,0.0002
2066.00,0.0001
2065.00,-0.0001
2064.00,-0.0001
2063.00,-0.0000
2062.00,0.0001
2061.00,0.0002
2060.00,0.0002
2059.00,0.0002
2058.00,0.0002
2057.00,0.0003
2056.00,0.0004
2055.00,0.0003
2054.00,0.0003
2053.00,0.0007
2052.00,0.0011
2051.00,0.0014
2050.00,0.0013
2049.00,0.0009
2048.00,0.0005
2047.00,0.0002
2046.00,-0.0000
2045.00,-0.0001
2044.00,-0.0000
2043.00,0.0002
2042.00,0.0005
2041.00,0.0007
2040.00,0.0008
2039.00,0.0008
2038.00,0.0008
2037.00,0.0008
2036.00,0.0008
2035.00,0.0006
2034.00,0.0004
2033.00,0.0001
2032.00,-0.0002
2031.00,-0.0003
2030.00,-0.0003
2029.00,-0.0001
2028.00,-0.0000
2027.00,-0.0000
2026.00,-0.0001
2025.00,0.0000
2024.00,0.0002
2023.00,0.0002
2022.00,-0.0000
2021.00,-0.0004
2020.00,-0.0007
2019.00,-0.0009
2018.00,-0.0009
2017.00,-0.0006
2016.00,-0.0003
2015.00,-0.0003
2014.00,-0.0005
2013.00,-0.0008
2012.00,-0.0010
2011.00,-0.0012
2010.00,-0.0014
2009.00,-0.0015
2008.00,-0.0017
2007.00,-0.0018
2006.00,-0.0019
2005.00,-0.0017
2004.00,-0.0015
2003.00,-0.0013
2002.00,-0.0011
2001.00,-0.0010
2000.00,-0.0008
1999.00,-0.0006
1998.00,-0.0005
1997.00,-0.0005
1996.00,-0.0006
1995.00,-0.0006
1994.00,-0.0005
1993.00,-0.0005
1992.00,-0.0005
1991.00,-0.0006
1990.00,-0.0005
1989.00,-0.0002
1988.00,0.0003
1987.00,0.0006
1986.00,0.0007
1985.00,0.0005
1984.00,0.0003
1983.00,0.0003
1982.00,0.0003
1981.00,0.0005
1980.00,0.0006
1979.00,0.0004
1978.00,-0.0000
1977.00,-0.0005
1976.00,-0.0009
1975.00,-0.0010
1974.00,-0.0011
1973.00,-0.0010
1972.00,-0.0010
1971.00,-0.0011
1970.00,-0.0011
1969.00,-0.0010
1968.00,-0.0009
1967.00,-0.0009
1966.00,-0.0009
1965.00,-0.0009
1964.00,-0.0010
1963.00,-0.0012
1962.00,-0.0014
1961.00,-0.0015
1960.00,-0.0016
1959.00,-0.0015
1958.00,-0.0013
1957.00,-0.0011
1956.00,-0.0008
1955.00,-0.0007
1954.00,-0.0007
1953.00,-0.0009
1952.00,-0.0011
1951.00,-0.0013
1950.00,-0.0013
1949.00,-0.0013
1948.00,-0.0012
1947.00,-0.0012
1946.00,-0.0013
1945.00,-0.0013
1944.00,-0.0012
1943.00,-0.0011
1942.00,-0.0010
1941.00,-0.0011
1940.00,-0.0011
1939.00,-0.0012
1938.00,-0.0012
1937.00,-0.0011
1936.00,-0.0009
1935.00,-0.0007
1934.00,-0.0005
1933.00,-0.0004
1932.00,-0.0003
1931.00,-0.0004
1930.00,-0.0004
1929.00,-0.0004
1928.00,-0.0004
1927.00,-0.0003
1926.00,-0.0003
1925.00,-0.0003
1924.00,-0.0002
1923.00,-0.0002
1922.00,-0.0002
1921.00,-0.0002
1920.00,-0.0002
1919.00,-0.0002
1918.00,-0.0001
1917.00,-0.0001
1916.00,-0.0001
1915.00,-0.0001
1914.00,-0.0001
1913.00,0.0000
1912.00,0.0001
1911.00,0.0001
1910.00,0.0001
1909.00,0.0001
1908.00,0.0001
1907.00,0.0001
1906.00,0.0000
1905.00,0.0000
1904.00,0.0001
1903.00,0.0001
1902.00,0.0000
1901.00,-0.0000
1900.00,-0.0001
1899.00,-0.0001
1898.00,0.0000
1897.00,0.0002
1896.00,0.0003
1895.00,0.0003
1894.00,0.0003
1893.00,0.0002
1892.00,0.0002
1891.00,0.0002
1890.00,0.0002
1889.00,0.0002
1888.00,0.0001
1887.00,0.0001
1886.00,0.0002
1885.00,0.0002
1884.00,0.0002
1883.00,0.0001
1882.00,0.0001
1881.00,0.0001
1880.00,0.0002
1879.00,0.0001
1878.00,-0.0000
1877.00,-0.0002
1876.00,-0.0002
1875.00,-0.0001
1874.00,0.0000
1873.00,0.0001
1872.00,0.0002
1871.00,0.0002
1870.00,0.0002
1869.00,0.0002
1868.00,0.0002
1867.00,0.0002
1866.00,0.0002
1865.00,0.0002
1864.00,0.0002
1863.00,0.0002
1862.00,0.0002
1861.00,0.0002
1860.00,0.0001
1859.00,0.0002
1858.00,0.0002
1857.00,0.0003
1856.00,0.0004
1855.00,0.0004
1854.00,0.0003
1853.00,0.0003
1852.00,0.0002
1851.00,0.0002
1850.00,0.0002
1849.00,0.0003
1848.00,0.0003
1847.00,0.0003
1846.00,0.0003
1845.00,0.0003
1844.00,0.0002
1843.00,0.0003
1842.00,0.0003
1841.00,0.0003
1840.00,0.0003
1839.00,0.0003
1838.00,0.0003
1837.00,0.0004
1836.00,0.0004
1835.00,0.0004
1834.00,0.0004
1833.00,0.0005
1832.00,0.0006
1831.00,0.0007
1830.00,0.0007
1829.00,0.0007
1828.00,0.0007
1827.00,0.0006
1826.00,0.0006
1825.00,0.0006
1824.00,0.0006
1823.00,0.0006
1822.00,0.0005
1821.00,0.0005
1820.00,0.0005
1819.00,0.0004
1818.00,0.0003
1817.00,0.0003
1816.00,0.0004
1815.00,0.0005
1814.00,0.0006
1813.00,0.0006
1812.00,0.0006
1811.00,0.0007
1810.00,0.0007
1809.00,0.0007
1808.00,0.0007
1807.00,0.0006
1806.00,0.0006
1805.00,0.0006
1804.00,0.0007
1803.00,0.0007
1802.00,0.0007
1801.00,0.0008
1800.00,0.0008
1799.00,0.0008
1798.00,0.0008
1797.00,0.0008
1796.00,0.0008
1795.00,0.0008
1794.00,0.0009
1793.00,0.0009
1792.00,0.0009
1791.00,0.0009
1790.00,0.0009
1789.00,0.0009
1788.00,0.0009
1787.00,0.0009
1786.00,0.0009
1785.00,0.0009
1784.00,0.0009
1783.00,0.0009
1782.00,0.0009
1781.00,0.0009
1780.00,0.0009
1779.00,0.0008
1778.00,0.0008
1777.00,0.0008
1776.00,0.0008
1775.00,0.0007
1774.00,0.0007
1773.00,0.0007
1772.00,0.0008
1771.00,0.0009
1770.00,0.0010
1769.00,0.0011
1768.00,0.0011
1767.00,0.0012
1766.00,0.0012
1765.00,0.0012
1764.00,0.0012
1763.00,0.0012
1762.00,0.0013
1761.00,0.0013
1760.00,0.0013
1759.00,0.0014
1758.00,0.0014
1757.00,0.0014
1756.00,0.0014
1755.00,0.0014
1754.00,0.0014
1753.00,0.0014
1752.00,0.0014
1751.00,0.0015
1750.00,0.0016
1749.00,0.0018
1748.00,0.0018
1747.00,0.0018
1746.00,0.0017
1745.00,0.0017
1744.00,0.0018
1743.00,0.0018
1742.00,0.0019
1741.00,0.0020
1740.00,0.0020
1739.00,0.0021
1738.00,0.0022
1737.00,0.0022
1736.00,0.0022
1735.00,0.0021
1734.00,0.0021
1733.00,0.0021
1732.00,0.0021
1731.00,0.0022
1730.00,0.0022
1729.00,0.0022
1728.00,0.0022
1727.00,0.0021
1726.00,0.0021
1725.00,0.0020
1724.00,0.0020
1723.00,0.0021
1722.00,0.0021
1721.00,0.0022
1720.00,0.0022
1719.00,0.0022
1718.00,0.0022
1717.00,0.0022
1716.00,0.0023
1715.00,0.0024
1714.00,0.0024
1713.00,0.0024
1712.00,0.0025
1711.00,0.0025
1710.00,0.0025
1709.00,0.0026
1708.00,0.0027
1707.00,0.0028
1706.00,0.0028
1705.00,0.0029
1704.00,0.0030
1703.00,0.0031
1702.00,0.0030
1701.00,0.0030
1700.00,0.0031
1699.00,0.0032
1698.00,0.0032
1697.00,0.0032
1696.00,0.0033
1695.00,0.0034
1694.00,0.0035
1693.00,0.0036
1692.00,0.0036
1691.00,0.0037
1690.00,0.0037
1689.00,0.0038
1688.00,0.0039
1687.00,0.0040
1686.00,0.0041
1685.00,0.0042
1684.00,0.0043
1683.00,0.0044
1682.00,0.0045
1681.00,0.0046
1680.00,0.0046
1679.00,0.0047
1678.00,0.0048
1677.00,0.0049
1676.00,0.0049
1675.00,0.0050
1674.00,0.0050
1673.00,0.0051
1672.00,0.0052
1671.00,0.0052
1670.00,0.0053
1669.00,0.0054
1668.00,0.0055
1667.00,0.0055
1666.00,0.0055
1665.00,0.0056
1664.00,0.0056
1663.00,0.0056
1662.00,0.0057
1661.00,0.0058
1660.00,0.0059
1659.00,0.0060
1658.00,0.0061
1657.00,0.0062
1656.00,0.0064
1655.00,0.0065
1654.00,0.0067
1653.00,0.0068
1652.00,0.0068
1651.00,0.0068
1650.00,0.0068
1649.00,0.0068
1648.00,0.0069
1647.00,0.0070
1646.00,0.0071
1645.00,0.0071
1644.00,0.0071
1643.00,0.0070
1642.00,0.0069
1641.00,0.0068
1640.00,0.0068
1639.00,0.0068
1638.00,0.0067
1637.00,0.0067
1636.00,0.0067
1635.00,0.0068
1634.00,0.0068
1633.00,0.0069
1632.00,0.0068
1631.00,0.0068
1630.00,0.0067
1629.00,0.0067
1628.00,0.0067
1627.00,0.0067
1626.00,0.0067
1625.00,0.0066
1624.00,0.0066
1623.00,0.0065
1622.00,0.0064
1621.00,0.0064
1620.00,0.0063
1619.00,0.0062
1618.00,0.0061
1617.00,0.0059
1616.00,0.0059
1615.00,0.0059
1614.00,0.0059
1613.00,0.0059
1612.00,0.0059
1611.00,0.0059
1610.00,0.0058
1609.00,0.0058
1608.00,0.0058
1607.00,0.0057
1606.00,0.0057
1605.00,0.0058
1604.00,0.0058
1603.00,0.0058
1602.00,0.0057
1601.00,0.0057
1600.00,0.0057
1599.00,0.0057
1598.00,0.0057
1597.00,0.0057
1596.00,0.0057
1595.00,0.0058
1594.00,0.0058
1593.00,0.0059
1592.00,0.0060
1591.00,0.0060
1590.00,0.0061
1589.00,0.0062
1588.00,0.0064
1587.00,0.0065
1586.00,0.0066
1585.00,0.0069
1584.00,0.0071
1583.00,0.0074
1582.00,0.0077
1581.00,0.0080
1580.00,0.0083
1579.00,0.0085
1578.00,0.0086
1577.00,0.0087
1576.00,0.0087
1575.00,0.0086
1574.00,0.0084
1573.00,0.0083
1572.00,0.0082
1571.00,0.0079
1570.00,0.0076
1569.00,0.0074
1568.00,0.0072
1567.00,0.0071
1566.00,0.0070
1565.00,0.0069
1564.00,0.0069
1563.00,0.0069
1562.00,0.0069
1561.00,0.0070
1560.00,0.0071
1559.00,0.0071
1558.00,0.0071
1557.00,0.0072
1556.00,0.0072
1555.00,0.0072
1554.00,0.0073
1553.00,0.0074
1552.00,0.0076
1551.00,0.0077
1550.00,0.0079
1549.00,0.0081
1548.00,0.0084
1547.00,0.0086
1546.00,0.0089
1545.00,0.0092
1544.00,0.0096
1543.00,0.0098
1542.00,0.0099
1541.00,0.0099
1540.00,0.0098
1539.00,0.0096
1538.00,0.0094
1537.00,0.0092
1536.00,0.0090
1535.00,0.0086
1534.00,0.0082
1533.00,0.0078
1532.00,0.0075
1531.00,0.0073
1530.00,0.0071
1529.00,0.0071
1528.00,0.0070
1527.00,0.0069
1526.00,0.0068
1525.00,0.0068
1524.00,0.0068
1523.00,0.0068
1522.00,0.0067
1521.00,0.0067
1520.00,0.0067
1519.00,0.0067
1518.00,0.0067
1517.00,0.0067
1516.00,0.0068
1515.00,0.0069
1514.00,0.0069
1513.00,0.0070
1512.00,0.0071
1511.00,0.0071
1510.00,0.0071
1509.00,0.0072
1508.00,0.0073
1507.00,0.0073
1506.00,0.0074
1505.00,0.0074
1504.00,0.0075
1503.00,0.0076
1502.00,0.0077
1501.00,0.0079
1500.00,0.0081
1499.00,0.0083
1498.00,0.0084
1497.00,0.0086
1496.00,0.0090
1495.00,0.0092
1494.00,0.0094
1493.00,0.0097
1492.00,0.0101
1491.00,0.0105
1490.00,0.0108
1489.00,0.0114
1488.00,0.0119
1487.00,0.0124
1486.00,0.0130
1485.00,0.0137
1484.00,0.0145
1483.00,0.0154
1482.00,0.0164
1481.00,0.0176
1480.00,0.0189
1479.00,0.0202
1478.00,0.0217
1477.00,0.0236
1476.00,0.0258
1475.00,0.0282
1474.00,0.0316
1473.00,0.0367
1472.00,0.0431
1471.00,0.0495
1470.00,0.0558
1469.00,0.0623
1468.00,0.0695
1467.00,0.0774
1466.00,0.0864
1465.00,0.0961
1464.00,0.1047
1463.00,0.1110
1462.00,0.1154
1461.00,0.1186
1460.00,0.1210
1459.00,0.1228
1458.00,0.1244
1457.00,0.1257
1456.00,0.1262
1455.00,0.1259
1454.00,0.1252
1453.00,0.1238
1452.00,0.1214
1451.00,0.1176
1450.00,0.1121
1449.00,0.1045
1448.00,0.0948
1447.00,0.0845
1446.00,0.0752
1445.00,0.0673
1444.00,0.0607
1443.00,0.0553
1442.00,0.0514
1441.00,0.0488
1440.00,0.0473
1439.00,0.0468
1438.00,0.0471
1437.00,0.0474
1436.00,0.0464
1435.00,0.0438
1434.00,0.0398
1433.00,0.0350
1432.00,0.0300
1431.00,0.0258
1430.00,0.0225
1429.00,0.0202
1428.00,0.0186
1427.00,0.0176
1426.00,0.0170
1425.00,0.0164
1424.00,0.0159
1423.00,0.0156
1422.00,0.0155
1421.00,0.0152
1420.00,0.0148
1419.00,0.0145
1418.00,0.0143
1417.00,0.0139
1416.00,0.0136
1415.00,0.0133
1414.00,0.0132
1413.00,0.0129
1412.00,0.0127
1411.00,0.0125
1410.00,0.0124
1409.00,0.0122
1408.00,0.0119
1407.00,0.0118
1406.00,0.0117
1405.00,0.0116
1404.00,0.0114
1403.00,0.0113
1402.00,0.0112
1401.00,0.0112
1400.00,0.0111
1399.00,0.0111
1398.00,0.0112
1397.00,0.0113
1396.00,0.0113
1395.00,0.0116
1394.00,0.0120
1393.00,0.0124
1392.00,0.0130
1391.00,0.0139
1390.00,0.0153
1389.00,0.0171
1388.00,0.0198
1387.00,0.0237
1386.00,0.0289
1385.00,0.0354
1384.00,0.0439
1383.00,0.0555
1382.00,0.0707
1381.00,0.0902
1380.00,0.1146
1379.00,0.1429
1378.00,0.1711
1377.00,0.1930
1376.00,0.2022
1375.00,0.1943
1374.00,0.1714
1373.00,0.1422
1372.00,0.1146
1371.00,0.0915
1370.00,0.0730
1369.00,0.0590
1368.00,0.0494
1367.00,0.0435
1366.00,0.0404
1365.00,0.0393
1364.00,0.0396
1363.00,0.0412
1362.00,0.0436
1361.00,0.0462
1360.00,0.0481
1359.00,0.0487
1358.00,0.0475
1357.00,0.0446
1356.00,0.0405
1355.00,0.0360
1354.00,0.0316
1353.00,0.0279
1352.00,0.0248
1351.00,0.0224
1350.00,0.0203
1349.00,0.0187
1348.00,0.0175
1347.00,0.0165
1346.00,0.0158
1345.00,0.0151
1344.00,0.0146
1343.00,0.0142
1342.00,0.0139
1341.00,0.0137
1340.00,0.0135
1339.00,0.0133
1338.00,0.0132
1337.00,0.0131
1336.00,0.0132
1335.00,0.0135
1334.00,0.0138
1333.00,0.0143
1332.00,0.0148
1331.00,0.0151
1330.00,0.0153
1329.00,0.0151
1328.00,0.0147
1327.00,0.0141
1326.00,0.0134
1325.00,0.0127
1324.00,0.0121
1323.00,0.0116
1322.00,0.0112
1321.00,0.0109
1320.00,0.0106
1319.00,0.0104
1318.00,0.0101
1317.00,0.0099
1316.00,0.0098
1315.00,0.0096
1314.00,0.0095
1313.00,0.0095
1312.00,0.0096
1311.00,0.0098
1310.00,0.0103
1309.00,0.0109
1308.00,0.0119
1307.00,0.0130
1306.00,0.0141
1305.00,0.0149
1304.00,0.0152
1303.00,0.0150
1302.00,0.0146
1301.00,0.0142
1300.00,0.0139
1299.00,0.0139
1298.00,0.0140
1297.00,0.0140
1296.00,0.0139
1295.00,0.0136
1294.00,0.0131
1293.00,0.0125
1292.00,0.0119
1291.00,0.0113
1290.00,0.0108
1289.00,0.0104
1288.00,0.0099
1287.00,0.0096
1286.00,0.0093
1285.00,0.0091
1284.00,0.0089
1283.00,0.0088
1282.00,0.0086
1281.00,0.0084
1280.00,0.0082
1279.00,0.0081
1278.00,0.0080
1277.00,0.0079
1276.00,0.0079
1275.00,0.0078
1274.00,0.0077
1273.00,0.0076
1272.00,0.0075
1271.00,0.0074
1270.00,0.0074
1269.00,0.0074
1268.00,0.0075
1267.00,0.0076
1266.00,0.0078
1265.00,0.0080
1264.00,0.0082
1263.00,0.0085
1262.00,0.0088
1261.00,0.0092
1260.00,0.0097
1259.00,0.0104
1258.00,0.0110
1257.00,0.0115
1256.00,0.0117
1255.00,0.0115
1254.00,0.0109
1253.00,0.0101
1252.00,0.0093
1251.00,0.0086
1250.00,0.0082
1249.00,0.0080
1248.00,0.0078
1247.00,0.0077
1246.00,0.0077
1245.00,0.0076
1244.00,0.0076
1243.00,0.0075
1242.00,0.0075
1241.00,0.0074
1240.00,0.0073
1239.00,0.0073
1238.00,0.0073
1237.00,0.0074
1236.00,0.0074
1235.00,0.0074
1234.00,0.0074
1233.00,0.0074
1232.00,0.0075
1231.00,0.0077
1230.00,0.0079
1229.00,0.0081
1228.00,0.0083
1227.00,0.0085
1226.00,0.0088
1225.00,0.0091
1224.00,0.0094
1223.00,0.0098
1222.00,0.0103
1221.00,0.0106
1220.00,0.0108
1219.00,0.0110
1218.00,0.0110
1217.00,0.0109
1216.00,0.0108
1215.00,0.0105
1214.00,0.0102
1213.00,0.0099
1212.00,0.0096
1211.00,0.0093
1210.00,0.0091
1209.00,0.0088
1208.00,0.0086
1207.00,0.0085
1206.00,0.0084
1205.00,0.0083
1204.00,0.0083
1203.00,0.0083
1202.00,0.0082
1201.00,0.0082
1200.00,0.0081
1199.00,0.0080
1198.00,0.0080
1197.00,0.0080
1196.00,0.0079
1195.00,0.0079
1194.00,0.0079
1193.00,0.0079
1192.00,0.0078
1191.00,0.0077
1190.00,0.0076
1189.00,0.0075
1188.00,0.0075
1187.00,0.0074
1186.00,0.0074
1185.00,0.0074
1184.00,0.0074
1183.00,0.0075
1182.00,0.0076
1181.00,0.0077
1180.00,0.0080
1179.00,0.0084
1178.00,0.0089
1177.00,0.0097
1176.00,0.0108
1175.00,0.0122
1174.00,0.0140
1173.00,0.0164
1172.00,0.0193
1171.00,0.0224
1170.00,0.0255
1169.00,0.0280
1168.00,0.0295
1167.00,0.0299
1166.00,0.0291
1165.00,0.0276
1164.00,0.0258
1163.00,0.0240
1162.00,0.0224
1161.00,0.0209
1160.00,0.0197
1159.00,0.0188
1158.00,0.0181
1157.00,0.0176
1156.00,0.0172
1155.00,0.0170
1154.00,0.0168
1153.00,0.0165
1152.00,0.0161
1151.00,0.0155
1150.00,0.0147
1149.00,0.0138
1148.00,0.0129
1147.00,0.0121
1146.00,0.0113
1145.00,0.0105
1144.00,0.0098
1143.00,0.0092
1142.00,0.0087
1141.00,0.0083
1140.00,0.0078
1139.00,0.0074
1138.00,0.0071
1137.00,0.0068
1136.00,0.0067
1135.00,0.0065
1134.00,0.0064
1133.00,0.0064
1132.00,0.0063
1131.00,0.0064
1130.00,0.0066
1129.00,0.0068
1128.00,0.0070
1127.00,0.0071
1126.00,0.0072
1125.00,0.0073
1124.00,0.0074
1123.00,0.0075
1122.00,0.0075
1121.00,0.0076
1120.00,0.0077
1119.00,0.0078
1118.00,0.0079
1117.00,0.0081
1116.00,0.0082
1115.00,0.0085
1114.00,0.0087
1113.00,0.0090
1112.00,0.0093
1111.00,0.0097
1110.00,0.0100
1109.00,0.0105
1108.00,0.0110
1107.00,0.0117
1106.00,0.0124
1105.00,0.0132
1104.00,0.0138
1103.00,0.0141
1102.00,0.0140
1101.00,0.0137
1100.00,0.0132
1099.00,0.0125
1098.00,0.0117
1097.00,0.0110
1096.00,0.0104
1095.00,0.0098
1094.00,0.0092
1093.00,0.0087
1092.00,0.0083
1091.00,0.0081
1090.00,0.0079
1089.00,0.0077
1088.00,0.0074
1087.00,0.0072
1086.00,0.0071
1085.00,0.0071
1084.00,0.0071
1083.00,0.0070
1082.00,0.0068
1081.00,0.0067
1080.00,0.0066
1079.00,0.0064
1078.00,0.0063
1077.00,0.0061
1076.00,0.0059
1075.00,0.0058
1074.00,0.0058
1073.00,0.0058
1072.00,0.0058
1071.00,0.0058
1070.00,0.0059
1069.00,0.0060
1068.00,0.0062
1067.00,0.0064
1066.00,0.0065
1065.00,0.0066
1064.00,0.0067
1063.00,0.0067
1062.00,0.0068
1061.00,0.0068
1060.00,0.0070
1059.00,0.0071
1058.00,0.0073
1057.00,0.0074
1056.00,0.0075
1055.00,0.0076
1054.00,0.0077
1053.00,0.0079
1052.00,0.0081
1051.00,0.0083
1050.00,0.0086
1049.00,0.0090
1048.00,0.0095
1047.00,0.0100
1046.00,0.0104
1045.00,0.0106
1044.00,0.0107
1043.00,0.0107
1042.00,0.0105
1041.00,0.0104
1040.00,0.0103
1039.00,0.0103
1038.00,0.0104
1037.00,0.0106
1036.00,0.0107
1035.00,0.0108
1034.00,0.0108
1033.00,0.0107
1032.00,0.0106
1031.00,0.0105
1030.00,0.0105
1029.00,0.0104
1028.00,0.0103
1027.00,0.0102
1026.00,0.0101
1025.00,0.0101
1024.00,0.0101
1023.00,0.0101
1022.00,0.0101
1021.00,0.0102
1020.00,0.0102
1019.00,0.0104
1018.00,0.0106
1017.00,0.0108
1016.00,0.0110
1015.00,0.0113
1014.00,0.0117
1013.00,0.0121
1012.00,0.0125
1011.00,0.0128
1010.00,0.0131
1009.00,0.0134
1008.00,0.0138
1007.00,0.0143
1006.00,0.0151
1005.00,0.0162
1004.00,0.0177
1003.00,0.0199
1002.00,0.0227
1001.00,0.0262
1000.00,0.0298
999.00,0.0328
998.00,0.0343
997.00,0.0336
996.00,0.0310
995.00,0.0272
994.00,0.0232
993.00,0.0196
992.00,0.0168
991.00,0.0148
990.00,0.0134
989.00,0.0125
988.00,0.0119
987.00,0.0116
986.00,0.0115
985.00,0.0116
984.00,0.0119
983.00,0.0125
982.00,0.0135
981.00,0.0151
980.00,0.0173
979.00,0.0201
978.00,0.0236
977.00,0.0276
976.00,0.0320
975.00,0.0360
974.00,0.0389
973.00,0.0398
972.00,0.0383
971.00,0.0345
970.00,0.0293
969.00,0.0240
968.00,0.0194
967.00,0.0158
966.00,0.0132
965.00,0.0114
964.00,0.0101
963.00,0.0091
962.00,0.0084
961.00,0.0077
960.00,0.0071
959.00,0.0066
958.00,0.0061
957.00,0.0058
956.00,0.0055
955.00,0.0053
954.00,0.0051
953.00,0.0049
952.00,0.0049
951.00,0.0049
950.00,0.0050
949.00,0.0051
948.00,0.0053
947.00,0.0055
946.00,0.0058
945.00,0.0062
944.00,0.0066
943.00,0.0070
942.00,0.0074
941.00,0.0076
940.00,0.0076
939.00,0.0074
938.00,0.0071
937.00,0.0067
936.00,0.0064
935.00,0.0061
934.00,0.0059
933.00,0.0058
932.00,0.0057
931.00,0.0056
930.00,0.0056
929.00,0.0056
928.00,0.0056
927.00,0.0058
926.00,0.0060
925.00,0.0062
924.00,0.0063
923.00,0.0064
922.00,0.0066
921.00,0.0067
920.00,0.0069
919.00,0.0071
918.00,0.0072
917.00,0.0074
916.00,0.0075
915.00,0.0076
914.00,0.0076
913.00,0.0076
912.00,0.0076
911.00,0.0076
910.00,0.0077
909.00,0.0080
908.00,0.0083
907.00,0.0087
906.00,0.0094
905.00,0.0105
904.00,0.0120
903.00,0.0139
902.00,0.0161
901.00,0.0182
900.00,0.0196
899.00,0.0201
898.00,0.0193
897.00,0.0177
896.00,0.0156
895.00,0.0135
894.00,0.0118
893.00,0.0105
892.00,0.0097
891.00,0.0091
890.00,0.0087
889.00,0.0083
888.00,0.0079
887.00,0.0077
886.00,0.0075
885.00,0.0075
884.00,0.0074
883.00,0.0074
882.00,0.0074
881.00,0.0075
880.00,0.0076
879.00,0.0078
878.00,0.0079
877.00,0.0079
876.00,0.0080
875.00,0.0081
874.00,0.0081
873.00,0.0081
872.00,0.0080
871.00,0.0078
870.00,0.0077
869.00,0.0077
868.00,0.0076
867.00,0.0077
866.00,0.0079
865.00,0.0080
864.00,0.0082
863.00,0.0083
862.00,0.0084
861.00,0.0084
860.00,0.0085
859.00,0.0087
858.00,0.0089
857.00,0.0090
856.00,0.0091
855.00,0.0092
854.00,0.0095
853.00,0.0098
852.00,0.0102
851.00,0.0107
850.00,0.0112
849.00,0.0118
848.00,0.0128
847.00,0.0143
846.00,0.0165
845.00,0.0197
844.00,0.0239
843.00,0.0284
842.00,0.0318
841.00,0.0326
840.00,0.0305
839.00,0.0264
838.00,0.0220
837.00,0.0184
836.00,0.0160
835.00,0.0145
834.00,0.0136
833.00,0.0131
832.00,0.0126
831.00,0.0121
830.00,0.0117
829.00,0.0113
828.00,0.0111
827.00,0.0110
826.00,0.0110
825.00,0.0110
824.00,0.0109
823.00,0.0108
822.00,0.0107
821.00,0.0108
820.00,0.0110
819.00,0.0113
818.00,0.0118
817.00,0.0124
816.00,0.0133
815.00,0.0144
814.00,0.0159
813.00,0.0176
812.00,0.0194
811.00,0.0210
810.00,0.0222
809.00,0.0227
808.00,0.0225
807.00,0.0216
806.00,0.0202
805.00,0.0186
804.00,0.0170
803.00,0.0155
802.00,0.0143
801.00,0.0134
800.00,0.0127
799.00,0.0120
798.00,0.0114
797.00,0.0109
796.00,0.0104
795.00,0.0101
794.00,0.0097
793.00,0.0094
792.00,0.0091
791.00,0.0088
790.00,0.0086
789.00,0.0085
788.00,0.0085
787.00,0.0083
786.00,0.0081
785.00,0.0078
784.00,0.0075
783.00,0.0073
782.00,0.0072
781.00,0.0071
780.00,0.0069
779.00,0.0068
778.00,0.0067
777.00,0.0067
776.00,0.0068
775.00,0.0070
774.00,0.0072
773.00,0.0074
772.00,0.0078
771.00,0.0082
770.00,0.0085
769.00,0.0087
768.00,0.0087
767.00,0.0086
766.00,0.0086
765.00,0.0085
764.00,0.0084
763.00,0.0081
762.00,0.0078
761.00,0.0074
760.00,0.0070
759.00,0.0067
758.00,0.0064
757.00,0.0063
756.00,0.0061
755.00,0.0060
754.00,0.0060
753.00,0.0060
752.00,0.0059
751.00,0.0058
750.00,0.0056
749.00,0.0055
748.00,0.0054
747.00,0.0055
746.00,0.0058
745.00,0.0061
744.00,0.0063
743.00,0.0065
742.00,0.0065
741.00,0.0065
740.00,0.0065
739.00,0.0066
738.00,0.0067
737.00,0.0068
736.00,0.0069
735.00,0.0070
734.00,0.0072
733.00,0.0074
732.00,0.0076
731.00,0.0076
730.00,0.0075
729.00,0.0073
728.00,0.0072
727.00,0.0072
726.00,0.0073
725.00,0.0073
724.00,0.0072
723.00,0.0071
722.00,0.0070
721.00,0.0069
720.00,0.0068
719.00,0.0067
718.00,0.0067
717.00,0.0067
716.00,0.0067
715.00,0.0067
714.00,0.0068
713.00,0.0068
712.00,0.0068
711.00,0.0067
710.00,0.0066
709.00,0.0065
708.00,0.0065
707.00,0.0065
706.00,0.0065
705.00,0.0065
704.00,0.0065
703.00,0.0065
702.00,0.0065
701.00,0.0064
700.00,0.0063
699.00,0.0063
698.00,0.0063
697.00,0.0063
696.00,0.0063
695.00,0.0063
694.00,0.0063
693.00,0.0062
692.00,0.0060
691.00,0.0059
690.00,0.0059
689.00,0.0061
688.00,0.0063
687.00,0.0065
686.00,0.0066
685.00,0.0066
684.00,0.0065
683.00,0.0065
682.00,0.0063
681.00,0.0061
680.00,0.0058
679.00,0.0055
678.00,0.0054
677.00,0.0055
676.00,0.0058
675.00,0.0061
674.00,0.0064
673.00,0.0065
672.00,0.0066
671.00,0.0066
670.00,0.0067
669.00,0.0068
668.00,0.0070
667.00,0.0071
666.00,0.0070
665.00,0.0067
664.00,0.0065
663.00,0.0064
662.00,0.0063
661.00,0.0062
660.00,0.0062
659.00,0.0062
658.00,0.0061
657.00,0.0060
656.00,0.0058
655.00,0.0056
654.00,0.0055
653.00,0.0055
652.00,0.0057
651.00,0.0058
650.00,0.0059
649.00,0.0058
648.00,0.0056
647.00,0.0056
646.00,0.0057
645.00,0.0060
644.00,0.0062
643.00,0.0063
642.00,0.0062
641.00,0.0061
640.00,0.0061
639.00,0.0062
638.00,0.0063
637.00,0.0065
636.00,0.0066
635.00,0.0067
634.00,0.0068
633.00,0.0068
632.00,0.0068
631.00,0.0067
630.00,0.0066
629.00,0.0065
628.00,0.0064
627.00,0.0064
626.00,0.0064
625.00,0.0065
624.00,0.0065
623.00,0.0065
622.00,0.0065
621.00,0.0066
620.00,0.0067
619.00,0.0069
618.00,0.0071
617.00,0.0073
616.00,0.0073
615.00,0.0072
614.00,0.0070
613.00,0.0068
612.00,0.0066
611.00,0.0064
610.00,0.0064
609.00,0.0066
608.00,0.0068
607.00,0.0070
606.00,0.0072
605.00,0.0074
604.00,0.0076
603.00,0.0077
602.00,0.0076
601.00,0.0073
600.00,0.0071
599.00,0.0069
598.00,0.0068
597.00,0.0068
596.00,0.0067
595.00,0.0066
594.00,0.0065
593.00,0.0065
592.00,0.0065
591.00,0.0066
590.00,0.0067
589.00,0.0067
588.00,0.0067
587.00,0.0068
586.00,0.0069
585.00,0.0070
584.00,0.0072
583.00,0.0076
582.00,0.0079
581.00,0.0080
580.00,0.0077
579.00,0.0074
578.00,0.0072
577.00,0.0073
576.00,0.0073
575.00,0.0073
574.00,0.0070
573.00,0.0068
572.00,0.0065
571.00,0.0064
570.00,0.0063
569.00,0.0062
568.00,0.0063
567.00,0.0066
566.00,0.0069
565.00,0.0071
564.00,0.0071
563.00,0.0071
562.00,0.0071
561.00,0.0072
560.00,0.0074
559.00,0.0076
558.00,0.0077
557.00,0.0078
556.00,0.0076
555.00,0.0074
554.00,0.0073
553.00,0.0073
552.00,0.0072
551.00,0.0070
550.00,0.0067
549.00,0.0065
548.00,0.0065
547.00,0.0066
546.00,0.0069
545.00,0.0071
544.00,0.0072
543.00,0.0073
542.00,0.0076
541.00,0.0081
540.00,0.0086
539.00,0.0090
538.00,0.0093
537.00,0.0094
536.00,0.0097
535.00,0.0099
534.00,0.0097
533.00,0.0094
532.00,0.0091
531.00,0.0091
530.00,0.0093
529.00,0.0094
528.00,0.0094
527.00,0.0092
526.00,0.0089
525.00,0.0084
524.00,0.0079
523.00,0.0078
522.00,0.0078
521.00,0.0078
520.00,0.0079
519.00,0.0084
518.00,0.0089
517.00,0.0090
516.00,0.0085
515.00,0.0077
514.00,0.0071
513.00,0.0069
512.00,0.0068
511.00,0.0067
510.00,0.0067
509.00,0.0067
508.00,0.0069
507.00,0.0071
506.00,0.0070
505.00,0.0067
504.00,0.0065
503.00,0.0068
502.00,0.0073
501.00,0.0076
500.00,0.0073
499.00,0.0068
498.00,0.0063
497.00,0.0061
496.00,0.0064
495.00,0.0069
494.00,0.0072
493.00,0.0072
492.00,0.0069
491.00,0.0067
490.00,0.0066
489.00,0.0066
488.00,0.0070
487.00,0.0078
486.00,0.0086
485.00,0.0089
484.00,0.0088
483.00,0.0084
482.00,0.0078
481.00,0.0070
480.00,0.0062
479.00,0.0058
478.00,0.0061
477.00,0.0065
476.00,0.0067
475.00,0.0067
474.00,0.0068
473.00,0.0071
472.00,0.0075
471.00,0.0079
470.00,0.0080
469.00,0.0079
468.00,0.0079
467.00,0.0086
466.00,0.0099
465.00,0.0113
464.00,0.0123
463.00,0.0128
462.00,0.0132
461.00,0.0134
460.00,0.0133
459.00,0.0129
458.00,0.0125
457.00,0.0125
456.00,0.0129
455.00,0.0134
454.00,0.0134
453.00,0.0126
452.00,0.0111
451.00,0.0099
450.00,0.0095
