Created as New Dataset,Sample 029 By Administrator Date Friday, September 05 2025
cm-1,A
4000.00,0.0010
3999.00,0.0010
3998.00,0.0010
3997.00,0.0010
3996.00,0.0010
3995.00,0.0010
3994.00,0.0010
3993.00,0.0010
3992.00,0.0010
3991.00,0.0010
3990.00,0.0010
3989.00,0.0010
3988.00,0.0010
3987.00,0.0009
3986.00,0.0009
3985.00,0.0009
3984.00,0.0009
3983.00,0.0008
3982.00,0.0008
3981.00,0.0008
3980.00,0.0008
3979.00,0.0008
3978.00,0.0009
3977.00,0.0009
3976.00,0.0009
3975.00,0.0009
3974.00,0.0008
3973.00,0.0008
3972.00,0.0007
3971.00,0.0007
3970.00,0.0007
3969.00,0.0007
3968.00,0.0007
3967.00,0.0007
3966.00,0.0007
3965.00,0.0007
3964.00,0.0007
3963.00,0.0008
3962.00,0.0008
3961.00,0.0008
3960.00,0.0008
3959.00,0.0008
3958.00,0.0008
3957.00,0.0008
3956.00,0.0008
3955.00,0.0008
3954.00,0.0008
3953.00,0.0007
3952.00,0.0007
3951.00,0.0008
3950.00,0.0008
3949.00,0.0008
3948.00,0.0008
3947.00,0.0008
3946.00,0.0008
3945.00,0.0008
3944.00,0.0008
3943.00,0.0008
3942.00,0.0008
3941.00,0.0008
3940.00,0.0008
3939.00,0.0008
3938.00,0.0007
3937.00,0.0007
3936.00,0.0007
3935.00,0.0007
3934.00,0.0007
3933.00,0.0008
3932.00,0.0008
3931.00,0.0008
3930.00,0.0008
3929.00,0.0008
3928.00,0.0008
3927.00,0.0008
3926.00,0.0008
3925.00,0.0008
3924.00,0.0008
3923.00,0.0008
3922.00,0.0008
3921.00,0.0008
3920.00,0.0008
3919.00,0.0009
3918.00,0.0009
3917.00,0.0008
3916.00,0.0008
3915.00,0.0008
3914.00,0.0008
3913.00,0.0008
3912.00,0.0008
3911.00,0.0008
3910.00,0.0008
3909.00,0.0008
3908.00,0.0008
3907.00,0.0009
3906.00,0.0008
3905.00,0.0008
3904.00,0.0008
3903.00,0.0007
3902.00,0.0007
3901.00,0.0008
3900.00,0.0008
3899.00,0.0008
3898.00,0.0008
3897.00,0.0007
3896.00,0.0007
3895.00,0.0007
3894.00,0.0007
3893.00,0.0007
3892.00,0.0007
3891.00,0.0007
3890.00,0.0007
3889.00,0.0007
3888.00,0.0008
3887.00,0.0008
3886.00,0.0008
3885.00,0.0007
3884.00,0.0007
3883.00,0.0007
3882.00,0.0007
3881.00,0.0007
3880.00,0.0007
3879.00,0.0007
3878.00,0.0007
3877.00,0.0007
3876.00,0.0007
3875.00,0.0007
3874.00,0.0007
3873.00,0.0007
3872.00,0.0007
3871.00,0.0007
3870.00,0.0007
3869.00,0.0006
3868.00,0.0006
3867.00,0.0006
3866.00,0.0006
3865.00,0.0006
3864.00,0.0007
3863.00,0.0007
3862.00,0.0007
3861.00,0.0007
3860.00,0.0007
3859.00,0.0006
3858.00,0.0007
3857.00,0.0007
3856.00,0.0007
3855.00,0.0007
3854.00,0.0006
3853.00,0.0006
3852.00,0.0005
3851.00,0.0005
3850.00,0.0005
3849.00,0.0006
3848.00,0.0006
3847.00,0.0007
3846.00,0.0007
3845.00,0.0006
3844.00,0.0006
3843.00,0.0006
3842.00,0.0006
3841.00,0.0006
3840.00,0.0006
3839.00,0.0006
3838.00,0.0006
3837.00,0.0005
3836.00,0.0005
3835.00,0.0005
3834.00,0.0006
3833.00,0.0006
3832.00,0.0006
3831.00,0.0005
3830.00,0.0005
3829.00,0.0005
3828.00,0.0005
3827.00,0.0005
3826.00,0.0005
3825.00,0.0005
3824.00,0.0006
3823.00,0.0006
3822.00,0.0006
3821.00,0.0006
3820.00,0.0006
3819.00,0.0006
3818.00,0.0006
3817.00,0.0006
3816.00,0.0006
3815.00,0.0007
3814.00,0.0007
3813.00,0.0007
3812.00,0.0007
3811.00,0.0007
3810.00,0.0007
3809.00,0.0007
3808.00,0.0007
3807.00,0.0007
3806.00,0.0007
3805.00,0.0007
3804.00,0.0007
3803.00,0.0007
3802.00,0.0007
3801.00,0.0006
3800.00,0.0006
3799.00,0.0006
3798.00,0.0006
3797.00,0.0006
3796.00,0.0006
3795.00,0.0006
3794.00,0.0006
3793.00,0.0006
3792.00,0.0006
3791.00,0.0006
3790.00,0.0007
3789.00,0.0007
3788.00,0.0007
3787.00,0.0007
3786.00,0.0007
3785.00,0.0007
3784.00,0.0007
3783.00,0.0007
3782.00,0.0007
3781.00,0.0007
3780.00,0.0008
3779.00,0.0008
3778.00,0.0007
3777.00,0.0007
3776.00,0.0007
3775.00,0.0007
3774.00,0.0006
3773.00,0.0006
3772.00,0.0006
3771.00,0.0006
3770.00,0.0006
3769.00,0.0007
3768.00,0.0007
3767.00,0.0007
3766.00,0.0008
3765.00,0.0008
3764.00,0.0008
3763.00,0.0008
3762.00,0.0008
3761.00,0.0007
3760.00,0.0007
3759.00,0.0007
3758.00,0.0007
3757.00,0.0007
3756.00,0.0007
3755.00,0.0007
3754.00,0.0007
3753.00,0.0007
3752.00,0.0007
3751.00,0.0007
3750.00,0.0007
3749.00,0.0006
3748.00,0.0006
3747.00,0.0006
3746.00,0.0006
3745.00,0.0006
3744.00,0.0006
3743.00,0.0006
3742.00,0.0005
3741.00,0.0005
3740.00,0.0005
3739.00,0.0005
3738.00,0.0005
3737.00,0.0004
3736.00,0.0005
3735.00,0.0005
3734.00,0.0005
3733.00,0.0005
3732.00,0.0005
3731.00,0.0005
3730.00,0.0005
3729.00,0.0005
3728.00,0.0005
3727.00,0.0005
3726.00,0.0005
3725.00,0.0005
3724.00,0.0005
3723.00,0.0005
3722.00,0.0004
3721.00,0.0004
3720.00,0.0004
3719.00,0.0004
3718.00,0.0005
3717.00,0.0005
3716.00,0.0005
3715.00,0.0006
3714.00,0.0006
3713.00,0.0006
3712.00,0.0006
3711.00,0.0006
3710.00,0.0006
3709.00,0.0006
3708.00,0.0005
3707.00,0.0005
3706.00,0.0005
3705.00,0.0005
3704.00,0.0005
3703.00,0.0005
3702.00,0.0005
3701.00,0.0005
3700.00,0.0004
3699.00,0.0004
3698.00,0.0004
3697.00,0.0004
3696.00,0.0005
3695.00,0.0004
3694.00,0.0004
3693.00,0.0004
3692.00,0.0004
3691.00,0.0004
3690.00,0.0004
3689.00,0.0004
3688.00,0.0004
3687.00,0.0004
3686.00,0.0004
3685.00,0.0004
3684.00,0.0004
3683.00,0.0004
3682.00,0.0004
3681.00,0.0004
3680.00,0.0004
3679.00,0.0004
3678.00,0.0004
3677.00,0.0003
3676.00,0.0002
3675.00,0.0002
3674.00,0.0001
3673.00,0.0000
3672.00,0.0000
3671.00,-0.0000
3670.00,-0.0000
3669.00,-0.0000
3668.00,-0.0000
3667.00,0.0000
3666.00,0.0001
3665.00,0.0001
3664.00,0.0001
3663.00,0.0001
3662.00,0.0001
3661.00,0.0001
3660.00,0.0001
3659.00,0.0001
3658.00,0.0001
3657.00,0.0001
3656.00,0.0001
3655.00,0.0000
3654.00,-0.0000
3653.00,-0.0001
3652.00,-0.0001
3651.00,-0.0001
3650.00,-0.0000
3649.00,0.0000
3648.00,0.0001
3647.00,0.0001
3646.00,0.0001
3645.00,0.0001
3644.00,0.0001
3643.00,0.0001
3642.00,0.0002
3641.00,0.0002
3640.00,0.0002
3639.00,0.0002
3638.00,0.0002
3637.00,0.0002
3636.00,0.0002
3635.00,0.0003
3634.00,0.0003
3633.00,0.0004
3632.00,0.0004
3631.00,0.0004
3630.00,0.0004
3629.00,0.0004
3628.00,0.0004
3627.00,0.0004
3626.00,0.0003
3625.00,0.0004
3624.00,0.0004
3623.00,0.0004
3622.00,0.0004
3621.00,0.0004
3620.00,0.0004
3619.00,0.0004
3618.00,0.0004
3617.00,0.0005
3616.00,0.0005
3615.00,0.0006
3614.00,0.0006
3613.00,0.0007
3612.00,0.0007
3611.00,0.0006
3610.00,0.0006
3609.00,0.0007
3608.00,0.0008
3607.00,0.0008
3606.00,0.0008
3605.00,0.0008
3604.00,0.0008
3603.00,0.0008
3602.00,0.0007
3601.00,0.0007
3600.00,0.0007
3599.00,0.0007
3598.00,0.0007
3597.00,0.0007
3596.00,0.0007
3595.00,0.0007
3594.00,0.0008
3593.00,0.0008
3592.00,0.0008
3591.00,0.0008
3590.00,0.0009
3589.00,0.0009
3588.00,0.0009
3587.00,0.0010
3586.00,0.0010
3585.00,0.0011
3584.00,0.0011
3583.00,0.0011
3582.00,0.0011
3581.00,0.0011
3580.00,0.0011
3579.00,0.0011
3578.00,0.0010
3577.00,0.0010
3576.00,0.0010
3575.00,0.0011
3574.00,0.0011
3573.00,0.0011
3572.00,0.0011
3571.00,0.0011
3570.00,0.0011
3569.00,0.0011
3568.00,0.0012
3567.00,0.0013
3566.00,0.0013
3565.00,0.0013
3564.00,0.0013
3563.00,0.0013
3562.00,0.0013
3561.00,0.0014
3560.00,0.0014
3559.00,0.0014
3558.00,0.0014
3557.00,0.0014
3556.00,0.0014
3555.00,0.0014
3554.00,0.0014
3553.00,0.0015
3552.00,0.0015
3551.00,0.0015
3550.00,0.0015
3549.00,0.0015
3548.00,0.0016
3547.00,0.0016
3546.00,0.0016
3545.00,0.0016
3544.00,0.0016
3543.00,0.0016
3542.00,0.0016
3541.00,0.0016
3540.00,0.0016
3539.00,0.0016
3538.00,0.0017
3537.00,0.0017
3536.00,0.0018
3535.00,0.0018
3534.00,0.0018
3533.00,0.0018
3532.00,0.0018
3531.00,0.0018
3530.00,0.0018
3529.00,0.0018
3528.00,0.0018
3527.00,0.0018
3526.00,0.0018
3525.00,0.0019
3524.00,0.0019
3523.00,0.0019
3522.00,0.0019
3521.00,0.0019
3520.00,0.0019
3519.00,0.0019
3518.00,0.0019
3517.00,0.0019
3516.00,0.0019
3515.00,0.0019
3514.00,0.0020
3513.00,0.0020
3512.00,0.0020
3511.00,0.0020
3510.00,0.0020
3509.00,0.0020
3508.00,0.0020
3507.00,0.0020
3506.00,0.0020
3505.00,0.0020
3504.00,0.0020
3503.00,0.0021
3502.00,0.0021
3501.00,0.0021
3500.00,0.0021
3499.00,0.0021
3498.00,0.0021
3497.00,0.0022
3496.00,0.0022
3495.00,0.0022
3494.00,0.0022
3493.00,0.0022
3492.00,0.0022
3491.00,0.0022
3490.00,0.0023
3489.00,0.0023
3488.00,0.0023
3487.00,0.0023
3486.00,0.0022
3485.00,0.0022
3484.00,0.0022
3483.00,0.0022
3482.00,0.0022
3481.00,0.0022
3480.00,0.0022
3479.00,0.0022
3478.00,0.0023
3477.00,0.0023
3476.00,0.0024
3475.00,0.0024
3474.00,0.0024
3473.00,0.0024
3472.00,0.0024
3471.00,0.0023
3470.00,0.0023
3469.00,0.0023
3468.00,0.0023
3467.00,0.0023
3466.00,0.0024
3465.00,0.0024
3464.00,0.0025
3463.00,0.0025
3462.00,0.0026
3461.00,0.0026
3460.00,0.0026
3459.00,0.0026
3458.00,0.0026
3457.00,0.0025
3456.00,0.0026
3455.00,0.0026
3454.00,0.0026
3453.00,0.0026
3452.00,0.0026
3451.00,0.0026
3450.00,0.0026
3449.00,0.0026
3448.00,0.0026
3447.00,0.0026
3446.00,0.0027
3445.00,0.0027
3444.00,0.0027
3443.00,0.0027
3442.00,0.0027
3441.00,0.0027
3440.00,0.0027
3439.00,0.0027
3438.00,0.0027
3437.00,0.0028
3436.00,0.0028
3435.00,0.0028
3434.00,0.0028
3433.00,0.0029
3432.00,0.0029
3431.00,0.0030
3430.00,0.0030
3429.00,0.0031
3428.00,0.0031
3427.00,0.0030
3426.00,0.0030
3425.00,0.0030
3424.00,0.0030
3423.00,0.0031
3422.00,0.0031
3421.00,0.0031
3420.00,0.0031
3419.00,0.0031
3418.00,0.0031
3417.00,0.0030
3416.00,0.0030
3415.00,0.0031
3414.00,0.0031
3413.00,0.0031
3412.00,0.0031
3411.00,0.0032
3410.00,0.0032
3409.00,0.0032
3408.00,0.0032
3407.00,0.0032
3406.00,0.0032
3405.00,0.0032
3404.00,0.0032
3403.00,0.0032
3402.00,0.0032
3401.00,0.0032
3400.00,0.0032
3399.00,0.0032
3398.00,0.0032
3397.00,0.0032
3396.00,0.0032
3395.00,0.0032
3394.00,0.0032
3393.00,0.0032
3392.00,0.0032
3391.00,0.0032
3390.00,0.0032
3389.00,0.0032
3388.00,0.0032
3387.00,0.0032
3386.00,0.0032
3385.00,0.0033
3384.00,0.0033
3383.00,0.0033
3382.00,0.0033
3381.00,0.0033
3380.00,0.0033
3379.00,0.0033
3378.00,0.0033
3377.00,0.0033
3376.00,0.0033
3375.00,0.0033
3374.00,0.0033
3373.00,0.0033
3372.00,0.0033
3371.00,0.0033
3370.00,0.0033
3369.00,0.0033
3368.00,0.0033
3367.00,0.0033
3366.00,0.0033
3365.00,0.0033
3364.00,0.0034
3363.00,0.0034
3362.00,0.0034
3361.00,0.0035
3360.00,0.0035
3359.00,0.0035
3358.00,0.0035
3357.00,0.0035
3356.00,0.0035
3355.00,0.0035
3354.00,0.0034
3353.00,0.0034
3352.00,0.0034
3351.00,0.0034
3350.00,0.0034
3349.00,0.0035
3348.00,0.0035
3347.00,0.0035
3346.00,0.0035
3345.00,0.0035
3344.00,0.0035
3343.00,0.0034
3342.00,0.0034
3341.00,0.0034
3340.00,0.0034
3339.00,0.0034
3338.00,0.0034
3337.00,0.0034
3336.00,0.0034
3335.00,0.0034
3334.00,0.0034
3333.00,0.0033
3332.00,0.0033
3331.00,0.0033
3330.00,0.0033
3329.00,0.0033
3328.00,0.0033
3327.00,0.0033
3326.00,0.0032
3325.00,0.0032
3324.00,0.0032
3323.00,0.0032
3322.00,0.0032
3321.00,0.0032
3320.00,0.0033
3319.00,0.0034
3318.00,0.0034
3317.00,0.0034
3316.00,0.0033
3315.00,0.0033
3314.00,0.0033
3313.00,0.0033
3312.00,0.0033
3311.00,0.0033
3310.00,0.0033
3309.00,0.0032
3308.00,0.0032
3307.00,0.0033
3306.00,0.0033
3305.00,0.0033
3304.00,0.0033
3303.00,0.0033
3302.00,0.0033
3301.00,0.0034
3300.00,0.0034
3299.00,0.0034
3298.00,0.0034
3297.00,0.0034
3296.00,0.0034
3295.00,0.0034
3294.00,0.0033
3293.00,0.0033
3292.00,0.0033
3291.00,0.0033
3290.00,0.0034
3289.00,0.0033
3288.00,0.0033
3287.00,0.0033
3286.00,0.0033
3285.00,0.0033
3284.00,0.0033
3283.00,0.0033
3282.00,0.0033
3281.00,0.0033
3280.00,0.0033
3279.00,0.0033
3278.00,0.0032
3277.00,0.0032
3276.00,0.0032
3275.00,0.0032
3274.00,0.0032
3273.00,0.0032
3272.00,0.0031
3271.00,0.0032
3270.00,0.0032
3269.00,0.0032
3268.00,0.0032
3267.00,0.0032
3266.00,0.0031
3265.00,0.0031
3264.00,0.0031
3263.00,0.0030
3262.00,0.0030
3261.00,0.0030
3260.00,0.0030
3259.00,0.0030
3258.00,0.0031
3257.00,0.0031
3256.00,0.0030
3255.00,0.0030
3254.00,0.0030
3253.00,0.0030
3252.00,0.0029
3251.00,0.0029
3250.00,0.0029
3249.00,0.0029
3248.00,0.0030
3247.00,0.0030
3246.00,0.0030
3245.00,0.0030
3244.00,0.0030
3243.00,0.0029
3242.00,0.0029
3241.00,0.0029
3240.00,0.0029
3239.00,0.0030
3238.00,0.0030
3237.00,0.0030
3236.00,0.0030
3235.00,0.0030
3234.00,0.0030
3233.00,0.0030
3232.00,0.0030
3231.00,0.0030
3230.00,0.0030
3229.00,0.0030
3228.00,0.0030
3227.00,0.0031
3226.00,0.0031
3225.00,0.0031
3224.00,0.0031
3223.00,0.0031
3222.00,0.0031
3221.00,0.0031
3220.00,0.0032
3219.00,0.0032
3218.00,0.0033
3217.00,0.0033
3216.00,0.0033
3215.00,0.0034
3214.00,0.0034
3213.00,0.0035
3212.00,0.0035
3211.00,0.0035
3210.00,0.0035
3209.00,0.0035
3208.00,0.0035
3207.00,0.0035
3206.00,0.0035
3205.00,0.0035
3204.00,0.0035
3203.00,0.0035
3202.00,0.0034
3201.00,0.0035
3200.00,0.0035
3199.00,0.0035
3198.00,0.0035
3197.00,0.0035
3196.00,0.0036
3195.00,0.0036
3194.00,0.0036
3193.00,0.0036
3192.00,0.0036
3191.00,0.0036
3190.00,0.0036
3189.00,0.0036
3188.00,0.0036
3187.00,0.0036
3186.00,0.0036
3185.00,0.0035
3184.00,0.0035
3183.00,0.0034
3182.00,0.0034
3181.00,0.0034
3180.00,0.0034
3179.00,0.0034
3178.00,0.0034
3177.00,0.0034
3176.00,0.0034
3175.00,0.0034
3174.00,0.0033
3173.00,0.0033
3172.00,0.0033
3171.00,0.0033
3170.00,0.0033
3169.00,0.0033
3168.00,0.0033
3167.00,0.0033
3166.00,0.0032
3165.00,0.0032
3164.00,0.0032
3163.00,0.0032
3162.00,0.0032
3161.00,0.0032
3160.00,0.0032
3159.00,0.0032
3158.00,0.0032
3157.00,0.0032
3156.00,0.0032
3155.00,0.0032
3154.00,0.0032
3153.00,0.0031
3152.00,0.0031
3151.00,0.0031
3150.00,0.0032
3149.00,0.0032
3148.00,0.0033
3147.00,0.0033
3146.00,0.0033
3145.00,0.0033
3144.00,0.0033
3143.00,0.0032
3142.00,0.0032
3141.00,0.0031
3140.00,0.0031
3139.00,0.0031
3138.00,0.0031
3137.00,0.0031
3136.00,0.0031
3135.00,0.0032
3134.00,0.0032
3133.00,0.0032
3132.00,0.0031
3131.00,0.0031
3130.00,0.0031
3129.00,0.0031
3128.00,0.0030
3127.00,0.0030
3126.00,0.0029
3125.00,0.0028
3124.00,0.0028
3123.00,0.0027
3122.00,0.0027
3121.00,0.0027
3120.00,0.0027
3119.00,0.0027
3118.00,0.0027
3117.00,0.0027
3116.00,0.0026
3115.00,0.0026
3114.00,0.0027
3113.00,0.0027
3112.00,0.0027
3111.00,0.0027
3110.00,0.0027
3109.00,0.0027
3108.00,0.0027
3107.00,0.0027
3106.00,0.0026
3105.00,0.0026
3104.00,0.0026
3103.00,0.0026
3102.00,0.0026
3101.00,0.0026
3100.00,0.0026
3099.00,0.0026
3098.00,0.0026
3097.00,0.0026
3096.00,0.0026
3095.00,0.0026
3094.00,0.0026
3093.00,0.0026
3092.00,0.0026
3091.00,0.0026
3090.00,0.0026
3089.00,0.0026
3088.00,0.0026
3087.00,0.0026
3086.00,0.0026
3085.00,0.0025
3084.00,0.0025
3083.00,0.0025
3082.00,0.0025
3081.00,0.0025
3080.00,0.0025
3079.00,0.0025
3078.00,0.0026
3077.00,0.0026
3076.00,0.0026
3075.00,0.0026
3074.00,0.0026
3073.00,0.0026
3072.00,0.0027
3071.00,0.0027
3070.00,0.0027
3069.00,0.0027
3068.00,0.0028
3067.00,0.0028
3066.00,0.0028
3065.00,0.0028
3064.00,0.0028
3063.00,0.0029
3062.00,0.0029
3061.00,0.0029
3060.00,0.0029
3059.00,0.0029
3058.00,0.0029
3057.00,0.0029
3056.00,0.0029
3055.00,0.0029
3054.00,0.0029
3053.00,0.0029
3052.00,0.0030
3051.00,0.0030
3050.00,0.0030
3049.00,0.0030
3048.00,0.0030
3047.00,0.0031
3046.00,0.0031
3045.00,0.0031
3044.00,0.0032
3043.00,0.0032
3042.00,0.0032
3041.00,0.0033
3040.00,0.0033
3039.00,0.0034
3038.00,0.0035
3037.00,0.0035
3036.00,0.0035
3035.00,0.0035
3034.00,0.0035
3033.00,0.0035
3032.00,0.0035
3031.00,0.0035
3030.00,0.0036
3029.00,0.0036
3028.00,0.0037
3027.00,0.0038
3026.00,0.0039
3025.00,0.0039
3024.00,0.0039
3023.00,0.0040
3022.00,0.0040
3021.00,0.0041
3020.00,0.0042
3019.00,0.0043
3018.00,0.0043
3017.00,0.0044
3016.00,0.0044
3015.00,0.0044
3014.00,0.0044
3013.00,0.0045
3012.00,0.0046
3011.00,0.0046
3010.00,0.0047
3009.00,0.0048
3008.00,0.0049
3007.00,0.0050
3006.00,0.0051
3005.00,0.0052
3004.00,0.0053
3003.00,0.0055
3002.00,0.0056
3001.00,0.0057
3000.00,0.0059
2999.00,0.0061
2998.00,0.0064
2997.00,0.0066
2996.00,0.0069
2995.00,0.0072
2994.00,0.0076
2993.00,0.0081
2992.00,0.0087
2991.00,0.0093
2990.00,0.0100
2989.00,0.0108
2988.00,0.0116
2987.00,0.0124
2986.00,0.0133
2985.00,0.0143
2984.00,0.0152
2983.00,0.0164
2982.00,0.0180
2981.00,0.0199
2980.00,0.0222
2979.00,0.0249
2978.00,0.0279
2977.00,0.0312
2976.00,0.0350
2975.00,0.0392
2974.00,0.0440
2973.00,0.0494
2972.00,0.0555
2971.00,0.0626
2970.00,0.0705
2969.00,0.0792
2968.00,0.0889
2967.00,0.0994
2966.00,0.1107
2965.00,0.1227
2964.00,0.1351
2963.00,0.1475
2962.00,0.1593
2961.00,0.1700
2960.00,0.1789
2959.00,0.1858
2958.00,0.1907
2957.00,0.1938
2956.00,0.1958
2955.00,0.1973
2954.00,0.1986
2953.00,0.1999
2952.00,0.2008
2951.00,0.2006
2950.00,0.1985
2949.00,0.1939
2948.00,0.1863
2947.00,0.1760
2946.00,0.1637
2945.00,0.1505
2944.00,0.1376
2943.00,0.1262
2942.00,0.1169
2941.00,0.1100
2940.00,0.1056
2939.00,0.1036
2938.00,0.1035
2937.00,0.1053
2936.00,0.1087
2935.00,0.1135
2934.00,0.1196
2933.00,0.1268
2932.00,0.1350
2931.00,0.1438
2930.00,0.1531
2929.00,0.1625
2928.00,0.1718
2927.00,0.1806
2926.00,0.1890
2925.00,0.1969
2924.00,0.2044
2923.00,0.2116
2922.00,0.2187
2921.00,0.2254
2920.00,0.2314
2919.00,0.2361
2918.00,0.2388
2917.00,0.2391
2916.00,0.2367
2915.00,0.2320
2914.00,0.2257
2913.00,0.2185
2912.00,0.2113
2911.00,0.2044
2910.00,0.1983
2909.00,0.1926
2908.00,0.1874
2907.00,0.1822
2906.00,0.1768
2905.00,0.1711
2904.00,0.1649
2903.00,0.1583
2902.00,0.1515
2901.00,0.1446
2900.00,0.1378
2899.00,0.1313
2898.00,0.1252
2897.00,0.1196
2896.00,0.1147
2895.00,0.1105
2894.00,0.1070
2893.00,0.1042
2892.00,0.1022
2891.00,0.1007
2890.00,0.0998
2889.00,0.0994
2888.00,0.0995
2887.00,0.0999
2886.00,0.1007
2885.00,0.1017
2884.00,0.1032
2883.00,0.1051
2882.00,0.1073
2881.00,0.1096
2880.00,0.1118
2879.00,0.1137
2878.00,0.1148
2877.00,0.1151
2876.00,0.1146
2875.00,0.1138
2874.00,0.1130
2873.00,0.1127
2872.00,0.1131
2871.00,0.1142
2870.00,0.1157
2869.00,0.1173
2868.00,0.1182
2867.00,0.1177
2866.00,0.1152
2865.00,0.1103
2864.00,0.1034
2863.00,0.0953
2862.00,0.0867
2861.00,0.0787
2860.00,0.0717
2859.00,0.0662
2858.00,0.0621
2857.00,0.0593
2856.00,0.0576
2855.00,0.0569
2854.00,0.0570
2853.00,0.0579
2852.00,0.0594
2851.00,0.0615
2850.00,0.0640
2849.00,0.0670
2848.00,0.0705
2847.00,0.0747
2846.00,0.0798
2845.00,0.0858
2844.00,0.0927
2843.00,0.1003
2842.00,0.1081
2841.00,0.1157
2840.00,0.1220
2839.00,0.1262
2838.00,0.1274
2837.00,0.1249
2836.00,0.1187
2835.00,0.1096
2834.00,0.0986
2833.00,0.0870
2832.00,0.0759
2831.00,0.0660
2830.00,0.0577
2829.00,0.0509
2828.00,0.0454
2827.00,0.0410
2826.00,0.0374
2825.00,0.0344
2824.00,0.0319
2823.00,0.0297
2822.00,0.0279
2821.00,0.0264
2820.00,0.0250
2819.00,0.0238
2818.00,0.0227
2817.00,0.0218
2816.00,0.0210
2815.00,0.0203
2814.00,0.0197
2813.00,0.0192
2812.00,0.0187
2811.00,0.0182
2810.00,0.0176
2809.00,0.0171
2808.00,0.0165
2807.00,0.0159
2806.00,0.0153
2805.00,0.0147
2804.00,0.0141
2803.00,0.0135
2802.00,0.0129
2801.00,0.0124
2800.00,0.0120
2799.00,0.0117
2798.00,0.0115
2797.00,0.0113
2796.00,0.0111
2795.00,0.0109
2794.00,0.0106
2793.00,0.0103
2792.00,0.0100
2791.00,0.0096
2790.00,0.0092
2789.00,0.0089
2788.00,0.0085
2787.00,0.0082
2786.00,0.0079
2785.00,0.0077
2784.00,0.0074
2783.00,0.0072
2782.00,0.0070
2781.00,0.0068
2780.00,0.0065
2779.00,0.0063
2778.00,0.0062
2777.00,0.0060
2776.00,0.0059
2775.00,0.0058
2774.00,0.0057
2773.00,0.0057
2772.00,0.0056
2771.00,0.0056
2770.00,0.0055
2769.00,0.0055
2768.00,0.0055
2767.00,0.0054
2766.00,0.0054
2765.00,0.0053
2764.00,0.0053
2763.00,0.0053
2762.00,0.0052
2761.00,0.0052
2760.00,0.0051
2759.00,0.0051
2758.00,0.0051
2757.00,0.0051
2756.00,0.0050
2755.00,0.0050
2754.00,0.0050
2753.00,0.0051
2752.00,0.0051
2751.00,0.0050
2750.00,0.0050
2749.00,0.0050
2748.00,0.0050
2747.00,0.0051
2746.00,0.0051
2745.00,0.0052
2744.00,0.0053
2743.00,0.0053
2742.00,0.0054
2741.00,0.0056
2740.00,0.0057
2739.00,0.0058
2738.00,0.0060
2737.00,0.0061
2736.00,0.0063
2735.00,0.0064
2734.00,0.0066
2733.00,0.0068
2732.00,0.0069
2731.00,0.0071
2730.00,0.0073
2729.00,0.0075
2728.00,0.0078
2727.00,0.0081
2726.00,0.0083
2725.00,0.0085
2724.00,0.0087
2723.00,0.0088
2722.00,0.0087
2721.00,0.0085
2720.00,0.0082
2719.00,0.0078
2718.00,0.0075
2717.00,0.0072
2716.00,0.0069
2715.00,0.0066
2714.00,0.0064
2713.00,0.0062
2712.00,0.0060
2711.00,0.0058
2710.00,0.0057
2709.00,0.0055
2708.00,0.0054
2707.00,0.0053
2706.00,0.0052
2705.00,0.0051
2704.00,0.0049
2703.00,0.0048
2702.00,0.0048
2701.00,0.0047
2700.00,0.0047
2699.00,0.0047
2698.00,0.0047
2697.00,0.0046
2696.00,0.0046
2695.00,0.0046
2694.00,0.0046
2693.00,0.0046
2692.00,0.0046
2691.00,0.0046
2690.00,0.0045
2689.00,0.0045
2688.00,0.0045
2687.00,0.0045
2686.00,0.0045
2685.00,0.0045
2684.00,0.0045
2683.00,0.0046
2682.00,0.0046
2681.00,0.0046
2680.00,0.0046
2679.00,0.0046
2678.00,0.0046
2677.00,0.0046
2676.00,0.0046
2675.00,0.0045
2674.00,0.0045
2673.00,0.0044
2672.00,0.0044
2671.00,0.0043
2670.00,0.0044
2669.00,0.0044
2668.00,0.0045
2667.00,0.0045
2666.00,0.0045
2665.00,0.0045
2664.00,0.0046
2663.00,0.0046
2662.00,0.0046
2661.00,0.0047
2660.00,0.0047
2659.00,0.0047
2658.00,0.0047
2657.00,0.0047
2656.00,0.0046
2655.00,0.0046
2654.00,0.0045
2653.00,0.0045
2652.00,0.0044
2651.00,0.0044
2650.00,0.0044
2649.00,0.0043
2648.00,0.0043
2647.00,0.0043
2646.00,0.0042
2645.00,0.0042
2644.00,0.0041
2643.00,0.0041
2642.00,0.0041
2641.00,0.0040
2640.00,0.0039
2639.00,0.0039
2638.00,0.0038
2637.00,0.0038
2636.00,0.0038
2635.00,0.0038
2634.00,0.0038
2633.00,0.0039
2632.00,0.0039
2631.00,0.0040
2630.00,0.0040
2629.00,0.0040
2628.00,0.0040
2627.00,0.0040
2626.00,0.0040
2625.00,0.0040
2624.00,0.0040
2623.00,0.0040
2622.00,0.0041
2621.00,0.0041
2620.00,0.0042
2619.00,0.0042
2618.00,0.0041
2617.00,0.0041
2616.00,0.0041
2615.00,0.0041
2614.00,0.0041
2613.00,0.0040
2612.00,0.0040
2611.00,0.0039
2610.00,0.0039
2609.00,0.0038
2608.00,0.0037
2607.00,0.0036
2606.00,0.0035
2605.00,0.0034
2604.00,0.0034
2603.00,0.0033
2602.00,0.0032
2601.00,0.0032
2600.00,0.0032
2599.00,0.0032
2598.00,0.0032
2597.00,0.0032
2596.00,0.0032
2595.00,0.0031
2594.00,0.0031
2593.00,0.0031
2592.00,0.0032
2591.00,0.0033
2590.00,0.0034
2589.00,0.0035
2588.00,0.0035
2587.00,0.0036
2586.00,0.0036
2585.00,0.0036
2584.00,0.0037
2583.00,0.0037
2582.00,0.0038
2581.00,0.0038
2580.00,0.0038
2579.00,0.0038
2578.00,0.0037
2577.00,0.0036
2576.00,0.0034
2575.00,0.0033
2574.00,0.0032
2573.00,0.0031
2572.00,0.0030
2571.00,0.0029
2570.00,0.0028
2569.00,0.0028
2568.00,0.0027
2567.00,0.0027
2566.00,0.0026
2565.00,0.0025
2564.00,0.0025
2563.00,0.0025
2562.00,0.0024
2561.00,0.0024
2560.00,0.0023
2559.00,0.0023
2558.00,0.0023
2557.00,0.0023
2556.00,0.0023
2555.00,0.0023
2554.00,0.0023
2553.00,0.0024
2552.00,0.0024
2551.00,0.0024
2550.00,0.0023
2549.00,0.0022
2548.00,0.0022
2547.00,0.0021
2546.00,0.0021
2545.00,0.0020
2544.00,0.0020
2543.00,0.0019
2542.00,0.0019
2541.00,0.0019
2540.00,0.0018
2539.00,0.0018
2538.00,0.0018
2537.00,0.0017
2536.00,0.0017
2535.00,0.0016
2534.00,0.0016
2533.00,0.0015
2532.00,0.0015
2531.00,0.0014
2530.00,0.0014
2529.00,0.0014
2528.00,0.0014
2527.00,0.0014
2526.00,0.0014
2525.00,0.0015
2524.00,0.0015
2523.00,0.0015
2522.00,0.0015
2521.00,0.0015
2520.00,0.0015
2519.00,0.0015
2518.00,0.0015
2517.00,0.0014
2516.00,0.0014
2515.00,0.0013
2514.00,0.0012
2513.00,0.0012
2512.00,0.0012
2511.00,0.0011
2510.00,0.0011
2509.00,0.0010
2508.00,0.0009
2507.00,0.0009
2506.00,0.0009
2505.00,0.0010
2504.00,0.0010
2503.00,0.0011
2502.00,0.0011
2501.00,0.0011
2500.00,0.0011
2499.00,0.0011
2498.00,0.0011
2497.00,0.0011
2496.00,0.0011
2495.00,0.0012
2494.00,0.0012
2493.00,0.0012
2492.00,0.0012
2491.00,0.0012
2490.00,0.0011
2489.00,0.0011
2488.00,0.0011
2487.00,0.0011
2486.00,0.0011
2485.00,0.0011
2484.00,0.0011
2483.00,0.0010
2482.00,0.0010
2481.00,0.0009
2480.00,0.0009
2479.00,0.0009
2478.00,0.0009
2477.00,0.0010
2476.00,0.0010
2475.00,0.0010
2474.00,0.0010
2473.00,0.0009
2472.00,0.0009
2471.00,0.0008
2470.00,0.0008
2469.00,0.0009
2468.00,0.0009
2467.00,0.0009
2466.00,0.0009
2465.00,0.0009
2464.00,0.0009
2463.00,0.0010
2462.00,0.0011
2461.00,0.0011
2460.00,0.0012
2459.00,0.0012
2458.00,0.0012
2457.00,0.0012
2456.00,0.0013
2455.00,0.0013
2454.00,0.0012
2453.00,0.0011
2452.00,0.0011
2451.00,0.0011
2450.00,0.0011
2449.00,0.0011
2448.00,0.0012
2447.00,0.0011
2446.00,0.0011
2445.00,0.0011
2444.00,0.0011
2443.00,0.0011
2442.00,0.0012
2441.00,0.0012
2440.00,0.0012
2439.00,0.0013
2438.00,0.0013
2437.00,0.0013
2436.00,0.0013
2435.00,0.0013
2434.00,0.0013
2433.00,0.0013
2432.00,0.0013
2431.00,0.0013
2430.00,0.0013
2429.00,0.0013
2428.00,0.0012
2427.00,0.0012
2426.00,0.0012
2425.00,0.0012
2424.00,0.0013
2423.00,0.0013
2422.00,0.0013
2421.00,0.0013
2420.00,0.0012
2419.00,0.0011
2418.00,0.0010
2417.00,0.0009
2416.00,0.0009
2415.00,0.0010
2414.00,0.0010
2413.00,0.0011
2412.00,0.0012
2411.00,0.0012
2410.00,0.0012
2409.00,0.0012
2408.00,0.0012
2407.00,0.0011
2406.00,0.0010
2405.00,0.0010
2404.00,0.0010
2403.00,0.0010
2402.00,0.0010
2401.00,0.0010
2400.00,0.0010
2399.00,0.0010
2398.00,0.0010
2397.00,0.0010
2396.00,0.0010
2395.00,0.0010
2394.00,0.0010
2393.00,0.0010
2392.00,0.0010
2391.00,0.0009
2390.00,0.0009
2389.00,0.0008
2388.00,0.0008
2387.00,0.0008
2386.00,0.0007
2385.00,0.0007
2384.00,0.0006
2383.00,0.0005
2382.00,0.0005
2381.00,0.0004
2380.00,0.0003
2379.00,0.0003
2378.00,0.0004
2377.00,0.0004
2376.00,0.0004
2375.00,0.0005
2374.00,0.0005
2373.00,0.0005
2372.00,0.0005
2371.00,0.0006
2370.00,0.0006
2369.00,0.0005
2368.00,0.0005
2367.00,0.0005
2366.00,0.0005
2365.00,0.0006
2364.00,0.0006
2363.00,0.0007
2362.00,0.0007
2361.00,0.0007
2360.00,0.0006
2359.00,0.0006
2358.00,0.0005
2357.00,0.0006
2356.00,0.0007
2355.00,0.0008
2354.00,0.0009
2353.00,0.0008
2352.00,0.0006
2351.00,0.0006
2350.00,0.0006
2349.00,0.0007
2348.00,0.0007
2347.00,0.0008
2346.00,0.0008
2345.00,0.0008
2344.00,0.0008
2343.00,0.0009
2342.00,0.0009
2341.00,0.0009
2340.00,0.0009
2339.00,0.0009
2338.00,0.0009
2337.00,0.0008
2336.00,0.0008
2335.00,0.0009
2334.00,0.0010
2333.00,0.0010
2332.00,0.0010
2331.00,0.0009
2330.00,0.0009
2329.00,0.0009
2328.00,0.0011
2327.00,0.0013
2326.00,0.0018
2325.00,0.0021
2324.00,0.0023
2323.00,0.0023
2322.00,0.0021
2321.00,0.0018
2320.00,0.0016
2319.00,0.0015
2318.00,0.0014
2317.00,0.0013
2316.00,0.0013
2315.00,0.0012
2314.00,0.0011
2313.00,0.0010
2312.00,0.0010
2311.00,0.0009
2310.00,0.0008
2309.00,0.0008
2308.00,0.0008
2307.00,0.0008
2306.00,0.0008
2305.00,0.0008
2304.00,0.0008
2303.00,0.0008
2302.00,0.0008
2301.00,0.0008
2300.00,0.0008
2299.00,0.0008
2298.00,0.0009
2297.00,0.0010
2296.00,0.0011
2295.00,0.0012
2294.00,0.0012
2293.00,0.0012
2292.00,0.0013
2291.00,0.0013
2290.00,0.0014
2289.00,0.0015
2288.00,0.0016
2287.00,0.0017
2286.00,0.0017
2285.00,0.0018
2284.00,0.0018
2283.00,0.0017
2282.00,0.0017
2281.00,0.0017
2280.00,0.0017
2279.00,0.0017
2278.00,0.0017
2277.00,0.0016
2276.00,0.0016
2275.00,0.0015
2274.00,0.0014
2273.00,0.0013
2272.00,0.0012
2271.00,0.0012
2270.00,0.0013
2269.00,0.0015
2268.00,0.0016
2267.00,0.0015
2266.00,0.0014
2265.00,0.0013
2264.00,0.0013
2263.00,0.0012
2262.00,0.0012
2261.00,0.0011
2260.00,0.0011
2259.00,0.0012
2258.00,0.0012
2257.00,0.0012
2256.00,0.0011
2255.00,0.0009
2254.00,0.0008
2253.00,0.0008
2252.00,0.0009
2251.00,0.0009
2250.00,0.0010
2249.00,0.0010
2248.00,0.0011
2247.00,0.0011
2246.00,0.0011
2245.00,0.0010
2244.00,0.0010
2243.00,0.0010
2242.00,0.0010
2241.00,0.0010
2240.00,0.0010
2239.00,0.0010
2238.00,0.0010
2237.00,0.0010
2236.00,0.0011
2235.00,0.0011
2234.00,0.0011
2233.00,0.0011
2232.00,0.0011
2231.00,0.0010
2230.00,0.0009
2229.00,0.0008
2228.00,0.0006
2227.00,0.0006
2226.00,0.0006
2225.00,0.0007
2224.00,0.0009
2223.00,0.0010
2222.00,0.0011
2221.00,0.0011
2220.00,0.0011
2219.00,0.0011
2218.00,0.0011
2217.00,0.0010
2216.00,0.0010
2215.00,0.0010
2214.00,0.0009
2213.00,0.0010
2212.00,0.0010
2211.00,0.0009
2210.00,0.0008
2209.00,0.0007
2208.00,0.0006
2207.00,0.0006
2206.00,0.0006
2205.00,0.0006
2204.00,0.0006
2203.00,0.0007
2202.00,0.0007
2201.00,0.0008
2200.00,0.0009
2199.00,0.0010
2198.00,0.0011
2197.00,0.0010
2196.00,0.0009
2195.00,0.0007
2194.00,0.0007
2193.00,0.0008
2192.00,0.0011
2191.00,0.0012
2190.00,0.0013
2189.00,0.0012
2188.00,0.0012
2187.00,0.0012
2186.00,0.0012
2185.00,0.0012
2184.00,0.0009
2183.00,0.0006
2182.00,0.0003
2181.00,0.0002
2180.00,0.0003
2179.00,0.0006
2178.00,0.0008
2177.00,0.0009
2176.00,0.0008
2175.00,0.0005
2174.00,0.0003
2173.00,0.0004
2172.00,0.0007
2171.00,0.0009
2170.00,0.0011
2169.00,0.0012
2168.00,0.0013
2167.00,0.0012
2166.00,0.0012
2165.00,0.0014
2164.00,0.0017
2163.00,0.0020
2162.00,0.0021
2161.00,0.0014
2160.00,0.0000
2159.00,-0.0018
2158.00,-0.0033
2157.00,-0.0039
2156.00,-0.0039
2155.00,-0.0035
2154.00,-0.0029
2153.00,-0.0022
2152.00,-0.0017
2151.00,-0.0014
2150.00,-0.0014
2149.00,-0.0014
2148.00,-0.0015
2147.00,-0.0016
2146.00,-0.0018
2145.00,-0.0018
2144.00,-0.0017
2143.00,-0.0015
2142.00,-0.0015
2141.00,-0.0014
2140.00,-0.0013
2139.00,-0.0012
2138.00,-0.0011
2137.00,-0.0011
2136.00,-0.0014
2135.00,-0.0017
2134.00,-0.0020
2133.00,-0.0020
2132.00,-0.0019
2131.00,-0.0016
2130.00,-0.0014
2129.00,-0.0012
2128.00,-0.0010
2127.00,-0.0009
2126.00,-0.0008
2125.00,-0.0007
2124.00,-0.0005
2123.00,-0.0003
2122.00,-0.0002
2121.00,-0.0001
2120.00,0.0000
2119.00,0.0001
2118.00,0.0001
2117.00,0.0001
2116.00,0.0001
2115.00,0.0001
2114.00,0.0000
2113.00,-0.0000
2112.00,-0.0000
2111.00,0.0000
2110.00,0.0001
2109.00,0.0003
2108.00,0.0004
2107.00,0.0005
2106.00,0.0005
2105.00,0.0004
2104.00,0.0003
2103.00,0.0003
2102.00,0.0002
2101.00,0.0003
2100.00,0.0003
2099.00,0.0004
2098.00,0.0003
2097.00,0.0001
2096.00,-0.0000
2095.00,-0.0002
2094.00,-0.0002
2093.00,-0.0002
2092.00,-0.0001
2091.00,-0.0001
2090.00,-0.0001
2089.00,-0.0000
2088.00,0.0000
2087.00,0.0000
2086.00,0.0001
2085.00,0.0001
2084.00,0.0002
2083.00,0.0003
2082.00,0.0003
2081.00,0.0004
2080.00,0.0004
2079.00,0.0005
2078.00,0.0005
2077.00,0.0005
2076.00,0.0006
2075.00,0.0005
2074.00,0.0004
2073.00,0.0003
2072.00,0.0002
2071.00,0.0001
2070.00,0.0001
2069.00,0.0000
2068.00,-0.0001
2067.00,-0.0002
2066.00,-0.0004
2065.00,-0.0005
2064.00,-0.0005
2063.00,-0.0006
2062.00,-0.0005
2061.00,-0.0004
2060.00,-0.0002
2059.00,-0.0001
2058.00,0.0001
2057.00,0.0002
2056.00,0.0002
2055.00,0.0002
2054.00,0.0003
2053.00,0.0005
2052.00,0.0010
2051.00,0.0013
2050.00,0.0013
2049.00,0.0010
2048.00,0.0006
2047.00,0.0002
2046.00,-0.0002
2045.00,-0.0003
2044.00,-0.0002
2043.00,0.0001
2042.00,0.0004
2041.00,0.0005
2040.00,0.0003
2039.00,0.0000
2038.00,-0.0001
2037.00,0.0001
2036.00,0.0003
2035.00,0.0003
2034.00,-0.0000
2033.00,-0.0005
2032.00,-0.0008
2031.00,-0.0009
2030.00,-0.0008
2029.00,-0.0005
2028.00,-0.0003
2027.00,-0.0003
2026.00,-0.0004
2025.00,-0.0005
2024.00,-0.0006
2023.00,-0.0006
2022.00,-0.0008
2021.00,-0.0009
2020.00,-0.0011
2019.00,-0.0013
2018.00,-0.0014
2017.00,-0.0013
2016.00,-0.0010
2015.00,-0.0009
2014.00,-0.0009
2013.00,-0.0010
2012.00,-0.0011
2011.00,-0.0012
2010.00,-0.0015
2009.00,-0.0019
2008.00,-0.0022
2007.00,-0.0024
2006.00,-0.0023
2005.00,-0.0021
2004.00,-0.0019
2003.00,-0.0019
2002.00,-0.0020
2001.00,-0.0020
2000.00,-0.0017
1999.00,-0.0014
1998.00,-0.0012
1997.00,-0.0010
1996.00,-0.0008
1995.00,-0.0006
1994.00,-0.0005
1993.00,-0.0006
1992.00,-0.0009
1991.00,-0.0010
1990.00,-0.0009
1989.00,-0.0004
1988.00,0.0001
1987.00,0.0004
1986.00,0.0005
1985.00,0.0004
1984.00,0.0004
1983.00,0.0005
1982.00,0.0005
1981.00,0.0006
1980.00,0.0006
1979.00,0.0003
1978.00,-0.0001
1977.00,-0.0005
1976.00,-0.0007
1975.00,-0.0007
1974.00,-0.0007
1973.00,-0.0009
1972.00,-0.0011
1971.00,-0.0015
1970.00,-0.0016
1969.00,-0.0016
1968.00,-0.0015
1967.00,-0.0014
1966.00,-0.0014
1965.00,-0.0015
1964.00,-0.0018
1963.00,-0.0021
1962.00,-0.0024
1961.00,-0.0026
1960.00,-0.0026
1959.00,-0.0025
1958.00,-0.0022
1957.00,-0.0018
1956.00,-0.0014
1955.00,-0.0012
1954.00,-0.0012
1953.00,-0.0012
1952.00,-0.0012
1951.00,-0.0012
1950.00,-0.0013
1949.00,-0.0013
1948.00,-0.0013
1947.00,-0.0015
1946.00,-0.0017
1945.00,-0.0019
1944.00,-0.0020
1943.00,-0.0020
1942.00,-0.0019
1941.00,-0.0018
1940.00,-0.0018
1939.00,-0.0017
1938.00,-0.0016
1937.00,-0.0014
1936.00,-0.0012
1935.00,-0.0012
1934.00,-0.0012
1933.00,-0.0011
1932.00,-0.0011
1931.00,-0.0009
1930.00,-0.0008
1929.00,-0.0007
1928.00,-0.0006
1927.00,-0.0007
1926.00,-0.0008
1925.00,-0.0009
1924.00,-0.0009
1923.00,-0.0008
1922.00,-0.0006
1921.00,-0.0005
1920.00,-0.0004
1919.00,-0.0003
1918.00,-0.0003
1917.00,-0.0003
1916.00,-0.0004
1915.00,-0.0004
1914.00,-0.0005
1913.00,-0.0004
1912.00,-0.0003
1911.00,-0.0002
1910.00,-0.0002
1909.00,-0.0002
1908.00,-0.0002
1907.00,-0.0002
1906.00,-0.0002
1905.00,-0.0002
1904.00,-0.0002
1903.00,-0.0003
1902.00,-0.0003
1901.00,-0.0003
1900.00,-0.0003
1899.00,-0.0002
1898.00,-0.0001
1897.00,-0.0001
1896.00,-0.0001
1895.00,-0.0001
1894.00,-0.0001
1893.00,-0.0001
1892.00,-0.0001
1891.00,-0.0000
1890.00,-0.0000
1889.00,-0.0000
1888.00,-0.0000
1887.00,-0.0001
1886.00,-0.0001
1885.00,-0.0001
1884.00,-0.0001
1883.00,-0.0002
1882.00,-0.0002
1881.00,-0.0002
1880.00,-0.0002
1879.00,-0.0002
1878.00,-0.0002
1877.00,-0.0003
1876.00,-0.0004
1875.00,-0.0004
1874.00,-0.0003
1873.00,-0.0003
1872.00,-0.0002
1871.00,-0.0002
1870.00,-0.0002
1869.00,-0.0002
1868.00,-0.0001
1867.00,-0.0001
1866.00,-0.0001
1865.00,-0.0001
1864.00,-0.0001
1863.00,-0.0001
1862.00,-0.0001
1861.00,-0.0001
1860.00,-0.0001
1859.00,-0.0001
1858.00,0.0000
1857.00,0.0001
1856.00,0.0002
1855.00,0.0001
1854.00,0.0000
1853.00,-0.0001
1852.00,-0.0002
1851.00,-0.0001
1850.00,-0.0001
1849.00,0.0001
1848.00,0.0002
1847.00,0.0004
1846.00,0.0004
1845.00,0.0003
1844.00,0.0002
1843.00,0.0002
1842.00,0.0001
1841.00,0.0001
1840.00,0.0001
1839.00,0.0002
1838.00,0.0002
1837.00,0.0002
1836.00,0.0003
1835.00,0.0003
1834.00,0.0003
1833.00,0.0004
1832.00,0.0004
1831.00,0.0004
1830.00,0.0004
1829.00,0.0005
1828.00,0.0005
1827.00,0.0005
1826.00,0.0004
1825.00,0.0004
1824.00,0.0004
1823.00,0.0003
1822.00,0.0003
1821.00,0.0002
1820.00,0.0002
1819.00,0.0001
1818.00,0.0001
1817.00,0.0000
1816.00,0.0001
1815.00,0.0002
1814.00,0.0002
1813.00,0.0003
1812.00,0.0003
1811.00,0.0003
1810.00,0.0003
1809.00,0.0004
1808.00,0.0005
1807.00,0.0005
1806.00,0.0005
1805.00,0.0005
1804.00,0.0004
1803.00,0.0004
1802.00,0.0005
1801.00,0.0005
1800.00,0.0006
1799.00,0.0006
1798.00,0.0006
1797.00,0.0005
1796.00,0.0005
1795.00,0.0006
1794.00,0.0006
1793.00,0.0007
1792.00,0.0007
1791.00,0.0007
1790.00,0.0007
1789.00,0.0007
1788.00,0.0007
1787.00,0.0007
1786.00,0.0007
1785.00,0.0008
1784.00,0.0008
1783.00,0.0008
1782.00,0.0007
1781.00,0.0007
1780.00,0.0007
1779.00,0.0006
1778.00,0.0006
1777.00,0.0006
1776.00,0.0006
1775.00,0.0006
1774.00,0.0006
1773.00,0.0006
1772.00,0.0008
1771.00,0.0009
1770.00,0.0010
1769.00,0.0010
1768.00,0.0010
1767.00,0.0010
1766.00,0.0010
1765.00,0.0010
1764.00,0.0011
1763.00,0.0011
1762.00,0.0012
1761.00,0.0012
1760.00,0.0012
1759.00,0.0011
1758.00,0.0011
1757.00,0.0011
1756.00,0.0011
1755.00,0.0012
1754.00,0.0012
1753.00,0.0012
1752.00,0.0012
1751.00,0.0013
1750.00,0.0014
1749.00,0.0015
1748.00,0.0016
1747.00,0.0015
1746.00,0.0015
1745.00,0.0014
1744.00,0.0015
1743.00,0.0015
1742.00,0.0016
1741.00,0.0017
1740.00,0.0017
1739.00,0.0017
1738.00,0.0017
1737.00,0.0018
1736.00,0.0018
1735.00,0.0018
1734.00,0.0018
1733.00,0.0019
1732.00,0.0019
1731.00,0.0019
1730.00,0.0019
1729.00,0.0019
1728.00,0.0018
1727.00,0.0018
1726.00,0.0017
1725.00,0.0017
1724.00,0.0017
1723.00,0.0017
1722.00,0.0018
1721.00,0.0018
1720.00,0.0019
1719.00,0.0020
1718.00,0.0020
1717.00,0.0020
1716.00,0.0021
1715.00,0.0021
1714.00,0.0021
1713.00,0.0021
1712.00,0.0021
1711.00,0.0021
1710.00,0.0021
1709.00,0.0021
1708.00,0.0022
1707.00,0.0022
1706.00,0.0022
1705.00,0.0023
1704.00,0.0024
1703.00,0.0025
1702.00,0.0026
1701.00,0.0026
1700.00,0.0026
1699.00,0.0026
1698.00,0.0026
1697.00,0.0026
1696.00,0.0027
1695.00,0.0027
1694.00,0.0027
1693.00,0.0027
1692.00,0.0028
1691.00,0.0028
1690.00,0.0029
1689.00,0.0030
1688.00,0.0030
1687.00,0.0031
1686.00,0.0031
1685.00,0.0031
1684.00,0.0031
1683.00,0.0032
1682.00,0.0033
1681.00,0.0034
1680.00,0.0035
1679.00,0.0035
1678.00,0.0036
1677.00,0.0036
1676.00,0.0037
1675.00,0.0037
1674.00,0.0037
1673.00,0.0038
1672.00,0.0039
1671.00,0.0039
1670.00,0.0040
1669.00,0.0041
1668.00,0.0041
1667.00,0.0042
1666.00,0.0041
1665.00,0.0041
1664.00,0.0041
1663.00,0.0041
1662.00,0.0041
1661.00,0.0041
1660.00,0.0042
1659.00,0.0043
1658.00,0.0044
1657.00,0.0045
1656.00,0.0047
1655.00,0.0048
1654.00,0.0050
1653.00,0.0051
1652.00,0.0051
1651.00,0.0050
1650.00,0.0050
1649.00,0.0050
1648.00,0.0051
1647.00,0.0052
1646.00,0.0052
1645.00,0.0052
1644.00,0.0051
1643.00,0.0051
1642.00,0.0050
1641.00,0.0050
1640.00,0.0050
1639.00,0.0051
1638.00,0.0050
1637.00,0.0050
1636.00,0.0051
1635.00,0.0051
1634.00,0.0051
1633.00,0.0052
1632.00,0.0052
1631.00,0.0053
1630.00,0.0053
1629.00,0.0053
1628.00,0.0053
1627.00,0.0053
1626.00,0.0052
1625.00,0.0052
1624.00,0.0051
1623.00,0.0051
1622.00,0.0050
1621.00,0.0050
1620.00,0.0050
1619.00,0.0050
1618.00,0.0049
1617.00,0.0048
1616.00,0.0048
1615.00,0.0047
1614.00,0.0047
1613.00,0.0047
1612.00,0.0046
1611.00,0.0046
1610.00,0.0046
1609.00,0.0046
1608.00,0.0046
1607.00,0.0045
1606.00,0.0045
1605.00,0.0045
1604.00,0.0045
1603.00,0.0045
1602.00,0.0045
1601.00,0.0045
1600.00,0.0045
1599.00,0.0045
1598.00,0.0045
1597.00,0.0045
1596.00,0.0046
1595.00,0.0046
1594.00,0.0047
1593.00,0.0048
1592.00,0.0049
1591.00,0.0050
1590.00,0.0052
1589.00,0.0054
1588.00,0.0056
1587.00,0.0059
1586.00,0.0061
1585.00,0.0065
1584.00,0.0069
1583.00,0.0073
1582.00,0.0078
1581.00,0.0082
1580.00,0.0087
1579.00,0.0090
1578.00,0.0093
1577.00,0.0094
1576.00,0.0094
1575.00,0.0092
1574.00,0.0088
1573.00,0.0085
1572.00,0.0082
1571.00,0.0078
1570.00,0.0074
1569.00,0.0070
1568.00,0.0067
1567.00,0.0065
1566.00,0.0063
1565.00,0.0062
1564.00,0.0061
1563.00,0.0061
1562.00,0.0062
1561.00,0.0062
1560.00,0.0061
1559.00,0.0061
1558.00,0.0062
1557.00,0.0062
1556.00,0.0063
1555.00,0.0064
1554.00,0.0065
1553.00,0.0066
1552.00,0.0067
1551.00,0.0069
1550.00,0.0071
1549.00,0.0074
1548.00,0.0078
1547.00,0.0081
1546.00,0.0085
1545.00,0.0091
1544.00,0.0096
1543.00,0.0102
1542.00,0.0106
1541.00,0.0109
1540.00,0.0108
1539.00,0.0104
1538.00,0.0098
1537.00,0.0093
1536.00,0.0089
1535.00,0.0084
1534.00,0.0078
1533.00,0.0073
1532.00,0.0069
1531.00,0.0066
1530.00,0.0064
1529.00,0.0063
1528.00,0.0062
1527.00,0.0061
1526.00,0.0060
1525.00,0.0060
1524.00,0.0060
1523.00,0.0060
1522.00,0.0059
1521.00,0.0059
1520.00,0.0060
1519.00,0.0060
1518.00,0.0059
1517.00,0.0060
1516.00,0.0060
1515.00,0.0061
1514.00,0.0061
1513.00,0.0061
1512.00,0.0062
1511.00,0.0062
1510.00,0.0063
1509.00,0.0065
1508.00,0.0066
1507.00,0.0067
1506.00,0.0068
1505.00,0.0069
1504.00,0.0070
1503.00,0.0070
1502.00,0.0072
1501.00,0.0074
1500.00,0.0077
1499.00,0.0079
1498.00,0.0081
1497.00,0.0084
1496.00,0.0088
1495.00,0.0091
1494.00,0.0093
1493.00,0.0096
1492.00,0.0100
1491.00,0.0104
1490.00,0.0108
1489.00,0.0114
1488.00,0.0120
1487.00,0.0126
1486.00,0.0131
1485.00,0.0139
1484.00,0.0148
1483.00,0.0158
1482.00,0.0169
1481.00,0.0182
1480.00,0.0196
1479.00,0.0210
1478.00,0.0225
1477.00,0.0245
1476.00,0.0268
1475.00,0.0292
1474.00,0.0325
1473.00,0.0375
1472.00,0.0435
1471.00,0.0495
1470.00,0.0553
1469.00,0.0614
1468.00,0.0681
1467.00,0.0754
1466.00,0.0838
1465.00,0.0929
1464.00,0.1010
1463.00,0.1069
1462.00,0.1110
1461.00,0.1143
1460.00,0.1169
1459.00,0.1192
1458.00,0.1216
1457.00,0.1240
1456.00,0.1256
1455.00,0.1260
1454.00,0.1260
1453.00,0.1253
1452.00,0.1237
1451.00,0.1207
1450.00,0.1158
1449.00,0.1086
1448.00,0.0990
1447.00,0.0885
1446.00,0.0788
1445.00,0.0704
1444.00,0.0632
1443.00,0.0573
1442.00,0.0530
1441.00,0.0500
1440.00,0.0481
1439.00,0.0471
1438.00,0.0468
1437.00,0.0464
1436.00,0.0449
1435.00,0.0420
1434.00,0.0382
1433.00,0.0337
1432.00,0.0291
1431.00,0.0250
1430.00,0.0220
1429.00,0.0198
1428.00,0.0183
1427.00,0.0174
1426.00,0.0168
1425.00,0.0163
1424.00,0.0159
1423.00,0.0156
1422.00,0.0155
1421.00,0.0152
1420.00,0.0148
1419.00,0.0144
1418.00,0.0142
1417.00,0.0139
1416.00,0.0135
1415.00,0.0133
1414.00,0.0131
1413.00,0.0129
1412.00,0.0126
1411.00,0.0125
1410.00,0.0124
1409.00,0.0122
1408.00,0.0119
1407.00,0.0118
1406.00,0.0118
1405.00,0.0118
1404.00,0.0117
1403.00,0.0117
1402.00,0.0118
1401.00,0.0118
1400.00,0.0118
1399.00,0.0118
1398.00,0.0120
1397.00,0.0121
1396.00,0.0123
1395.00,0.0127
1394.00,0.0132
1393.00,0.0137
1392.00,0.0144
1391.00,0.0152
1390.00,0.0165
1389.00,0.0183
1388.00,0.0210
1387.00,0.0249
1386.00,0.0301
1385.00,0.0367
1384.00,0.0452
1383.00,0.0564
1382.00,0.0709
1381.00,0.0888
1380.00,0.1101
1379.00,0.1337
1378.00,0.1560
1377.00,0.1720
1376.00,0.1772
1375.00,0.1689
1374.00,0.1490
1373.00,0.1246
1372.00,0.1017
1371.00,0.0824
1370.00,0.0667
1369.00,0.0547
1368.00,0.0463
1367.00,0.0411
1366.00,0.0383
1365.00,0.0371
1364.00,0.0373
1363.00,0.0386
1362.00,0.0406
1361.00,0.0428
1360.00,0.0444
1359.00,0.0448
1358.00,0.0437
1357.00,0.0411
1356.00,0.0375
1355.00,0.0335
1354.00,0.0296
1353.00,0.0262
1352.00,0.0235
1351.00,0.0214
1350.00,0.0196
1349.00,0.0181
1348.00,0.0170
1347.00,0.0162
1346.00,0.0155
1345.00,0.0149
1344.00,0.0144
1343.00,0.0139
1342.00,0.0136
1341.00,0.0133
1340.00,0.0132
1339.00,0.0130
1338.00,0.0129
1337.00,0.0129
1336.00,0.0130
1335.00,0.0132
1334.00,0.0135
1333.00,0.0138
1332.00,0.0142
1331.00,0.0145
1330.00,0.0147
1329.00,0.0145
1328.00,0.0142
1327.00,0.0136
1326.00,0.0131
1325.00,0.0125
1324.00,0.0119
1323.00,0.0114
1322.00,0.0110
1321.00,0.0107
1320.00,0.0104
1319.00,0.0102
1318.00,0.0100
1317.00,0.0098
1316.00,0.0096
1315.00,0.0095
1314.00,0.0094
1313.00,0.0094
1312.00,0.0096
1311.00,0.0099
1310.00,0.0105
1309.00,0.0114
1308.00,0.0127
1307.00,0.0142
1306.00,0.0157
1305.00,0.0167
1304.00,0.0170
1303.00,0.0167
1302.00,0.0159
1301.00,0.0150
1300.00,0.0144
1299.00,0.0140
1298.00,0.0138
1297.00,0.0136
1296.00,0.0134
1295.00,0.0130
1294.00,0.0126
1293.00,0.0121
1292.00,0.0115
1291.00,0.0110
1290.00,0.0104
1289.00,0.0100
1288.00,0.0096
1287.00,0.0093
1286.00,0.0090
1285.00,0.0088
1284.00,0.0086
1283.00,0.0084
1282.00,0.0083
1281.00,0.0081
1280.00,0.0080
1279.00,0.0079
1278.00,0.0079
1277.00,0.0079
1276.00,0.0078
1275.00,0.0078
1274.00,0.0077
1273.00,0.0077
1272.00,0.0076
1271.00,0.0077
1270.00,0.0078
1269.00,0.0079
1268.00,0.0081
1267.00,0.0083
1266.00,0.0085
1265.00,0.0088
1264.00,0.0091
1263.00,0.0094
1262.00,0.0099
1261.00,0.0105
1260.00,0.0113
1259.00,0.0122
1258.00,0.0132
1257.00,0.0140
1256.00,0.0144
1255.00,0.0142
1254.00,0.0134
1253.00,0.0123
1252.00,0.0111
1251.00,0.0102
1250.00,0.0095
1249.00,0.0091
1248.00,0.0088
1247.00,0.0087
1246.00,0.0086
1245.00,0.0085
1244.00,0.0084
1243.00,0.0083
1242.00,0.0083
1241.00,0.0082
1240.00,0.0081
1239.00,0.0081
1238.00,0.0080
1237.00,0.0081
1236.00,0.0081
1235.00,0.0081
1234.00,0.0081
1233.00,0.0081
1232.00,0.0081
1231.00,0.0082
1230.00,0.0083
1229.00,0.0084
1228.00,0.0085
1227.00,0.0087
1226.00,0.0089
1225.00,0.0091
1224.00,0.0095
1223.00,0.0099
1222.00,0.0102
1221.00,0.0105
1220.00,0.0108
1219.00,0.0109
1218.00,0.0109
1217.00,0.0108
1216.00,0.0106
1215.00,0.0104
1214.00,0.0101
1213.00,0.0099
1212.00,0.0096
1211.00,0.0093
1210.00,0.0091
1209.00,0.0088
1208.00,0.0087
1207.00,0.0086
1206.00,0.0086
1205.00,0.0086
1204.00,0.0086
1203.00,0.0085
1202.00,0.0085
1201.00,0.0084
1200.00,0.0084
1199.00,0.0083
1198.00,0.0083
1197.00,0.0083
1196.00,0.0083
1195.00,0.0083
1194.00,0.0084
1193.00,0.0084
1192.00,0.0084
1191.00,0.0083
1190.00,0.0083
1189.00,0.0083
1188.00,0.0083
1187.00,0.0082
1186.00,0.0083
1185.00,0.0084
1184.00,0.0085
1183.00,0.0087
1182.00,0.0089
1181.00,0.0092
1180.00,0.0096
1179.00,0.0102
1178.00,0.0110
1177.00,0.0121
1176.00,0.0135
1175.00,0.0154
1174.00,0.0180
1173.00,0.0213
1172.00,0.0252
1171.00,0.0296
1170.00,0.0339
1169.00,0.0375
1168.00,0.0398
1167.00,0.0404
1166.00,0.0394
1165.00,0.0373
1164.00,0.0346
1163.00,0.0319
1162.00,0.0294
1161.00,0.0273
1160.00,0.0254
1159.00,0.0240
1158.00,0.0228
1157.00,0.0219
1156.00,0.0212
1155.00,0.0206
1154.00,0.0201
1153.00,0.0196
1152.00,0.0190
1151.00,0.0182
1150.00,0.0173
1149.00,0.0163
1148.00,0.0154
1147.00,0.0145
1146.00,0.0136
1145.00,0.0127
1144.00,0.0118
1143.00,0.0111
1142.00,0.0104
1141.00,0.0099
1140.00,0.0093
1139.00,0.0089
1138.00,0.0085
1137.00,0.0082
1136.00,0.0080
1135.00,0.0079
1134.00,0.0078
1133.00,0.0076
1132.00,0.0075
1131.00,0.0075
1130.00,0.0076
1129.00,0.0078
1128.00,0.0079
1127.00,0.0080
1126.00,0.0081
1125.00,0.0081
1124.00,0.0082
1123.00,0.0082
1122.00,0.0082
1121.00,0.0082
1120.00,0.0083
1119.00,0.0083
1118.00,0.0084
1117.00,0.0085
1116.00,0.0087
1115.00,0.0089
1114.00,0.0091
1113.00,0.0093
1112.00,0.0095
1111.00,0.0098
1110.00,0.0102
1109.00,0.0105
1108.00,0.0110
1107.00,0.0116
1106.00,0.0122
1105.00,0.0129
1104.00,0.0134
1103.00,0.0138
1102.00,0.0138
1101.00,0.0136
1100.00,0.0131
1099.00,0.0124
1098.00,0.0117
1097.00,0.0111
1096.00,0.0105
1095.00,0.0100
1094.00,0.0096
1093.00,0.0093
1092.00,0.0090
1091.00,0.0088
1090.00,0.0086
1089.00,0.0085
1088.00,0.0083
1087.00,0.0081
1086.00,0.0081
1085.00,0.0080
1084.00,0.0079
1083.00,0.0078
1082.00,0.0077
1081.00,0.0076
1080.00,0.0075
1079.00,0.0074
1078.00,0.0073
1077.00,0.0072
1076.00,0.0072
1075.00,0.0071
1074.00,0.0071
1073.00,0.0071
1072.00,0.0070
1071.00,0.0069
1070.00,0.0070
1069.00,0.0070
1068.00,0.0071
1067.00,0.0072
1066.00,0.0074
1065.00,0.0074
1064.00,0.0074
1063.00,0.0074
1062.00,0.0075
1061.00,0.0076
1060.00,0.0077
1059.00,0.0079
1058.00,0.0080
1057.00,0.0081
1056.00,0.0082
1055.00,0.0083
1054.00,0.0085
1053.00,0.0086
1052.00,0.0088
1051.00,0.0090
1050.00,0.0093
1049.00,0.0097
1048.00,0.0102
1047.00,0.0107
1046.00,0.0112
1045.00,0.0114
1044.00,0.0114
1043.00,0.0113
1042.00,0.0111
1041.00,0.0109
1040.00,0.0107
1039.00,0.0106
1038.00,0.0107
1037.00,0.0108
1036.00,0.0109
1035.00,0.0110
1034.00,0.0109
1033.00,0.0107
1032.00,0.0105
1031.00,0.0104
1030.00,0.0102
1029.00,0.0101
1028.00,0.0099
1027.00,0.0098
1026.00,0.0098
1025.00,0.0099
1024.00,0.0099
1023.00,0.0100
1022.00,0.0101
1021.00,0.0102
1020.00,0.0104
1019.00,0.0105
1018.00,0.0108
1017.00,0.0110
1016.00,0.0114
1015.00,0.0119
1014.00,0.0124
1013.00,0.0130
1012.00,0.0136
1011.00,0.0140
1010.00,0.0144
1009.00,0.0148
1008.00,0.0153
1007.00,0.0161
1006.00,0.0171
1005.00,0.0186
1004.00,0.0207
1003.00,0.0236
1002.00,0.0275
1001.00,0.0323
1000.00,0.0375
999.00,0.0421
998.00,0.0446
997.00,0.0442
996.00,0.0410
995.00,0.0360
994.00,0.0305
993.00,0.0255
992.00,0.0215
991.00,0.0186
990.00,0.0165
989.00,0.0151
988.00,0.0141
987.00,0.0136
986.00,0.0134
985.00,0.0135
984.00,0.0138
983.00,0.0146
982.00,0.0159
981.00,0.0178
980.00,0.0204
979.00,0.0238
978.00,0.0281
977.00,0.0333
976.00,0.0392
975.00,0.0451
974.00,0.0499
973.00,0.0523
972.00,0.0513
971.00,0.0469
970.00,0.0404
969.00,0.0333
968.00,0.0270
967.00,0.0221
966.00,0.0185
965.00,0.0158
964.00,0.0139
963.00,0.0124
962.00,0.0113
961.00,0.0104
960.00,0.0096
959.00,0.0089
958.00,0.0085
957.00,0.0082
956.00,0.0080
955.00,0.0078
954.00,0.0075
953.00,0.0073
952.00,0.0070
951.00,0.0068
950.00,0.0067
949.00,0.0067
948.00,0.0068
947.00,0.0070
946.00,0.0072
945.00,0.0075
944.00,0.0078
943.00,0.0081
942.00,0.0084
941.00,0.0086
940.00,0.0086
939.00,0.0083
938.00,0.0080
937.00,0.0075
936.00,0.0072
935.00,0.0069
934.00,0.0067
933.00,0.0066
932.00,0.0064
931.00,0.0062
930.00,0.0062
929.00,0.0061
928.00,0.0061
927.00,0.0061
926.00,0.0062
925.00,0.0063
924.00,0.0063
923.00,0.0063
922.00,0.0064
921.00,0.0065
920.00,0.0067
919.00,0.0069
918.00,0.0070
917.00,0.0071
916.00,0.0072
915.00,0.0073
914.00,0.0074
913.00,0.0074
912.00,0.0075
911.00,0.0075
910.00,0.0076
909.00,0.0078
908.00,0.0079
907.00,0.0082
906.00,0.0087
905.00,0.0096
904.00,0.0110
903.00,0.0127
902.00,0.0146
901.00,0.0163
900.00,0.0175
899.00,0.0179
898.00,0.0175
897.00,0.0162
896.00,0.0145
895.00,0.0127
894.00,0.0112
893.00,0.0101
892.00,0.0092
891.00,0.0087
890.00,0.0083
889.00,0.0080
888.00,0.0077
887.00,0.0075
886.00,0.0073
885.00,0.0073
884.00,0.0073
883.00,0.0074
882.00,0.0075
881.00,0.0075
880.00,0.0076
879.00,0.0076
878.00,0.0077
877.00,0.0077
876.00,0.0078
875.00,0.0079
874.00,0.0079
873.00,0.0080
872.00,0.0079
871.00,0.0079
870.00,0.0078
869.00,0.0077
868.00,0.0077
867.00,0.0077
866.00,0.0078
865.00,0.0080
864.00,0.0081
863.00,0.0082
862.00,0.0083
861.00,0.0085
860.00,0.0087
859.00,0.0090
858.00,0.0093
857.00,0.0095
856.00,0.0096
855.00,0.0096
854.00,0.0098
853.00,0.0102
852.00,0.0107
851.00,0.0114
850.00,0.0121
849.00,0.0130
848.00,0.0143
847.00,0.0163
846.00,0.0193
845.00,0.0239
844.00,0.0302
843.00,0.0372
842.00,0.0428
841.00,0.0447
840.00,0.0420
839.00,0.0361
838.00,0.0296
837.00,0.0241
836.00,0.0203
835.00,0.0179
834.00,0.0163
833.00,0.0153
832.00,0.0145
831.00,0.0140
830.00,0.0135
829.00,0.0131
828.00,0.0128
827.00,0.0126
826.00,0.0125
825.00,0.0124
824.00,0.0122
823.00,0.0119
822.00,0.0117
821.00,0.0116
820.00,0.0117
819.00,0.0119
818.00,0.0123
817.00,0.0127
816.00,0.0134
815.00,0.0142
814.00,0.0154
813.00,0.0169
812.00,0.0183
811.00,0.0195
810.00,0.0204
809.00,0.0210
808.00,0.0210
807.00,0.0204
806.00,0.0194
805.00,0.0180
804.00,0.0166
803.00,0.0153
802.00,0.0141
801.00,0.0133
800.00,0.0126
799.00,0.0120
798.00,0.0114
797.00,0.0109
796.00,0.0105
795.00,0.0100
794.00,0.0096
793.00,0.0092
792.00,0.0089
791.00,0.0086
790.00,0.0085
789.00,0.0086
788.00,0.0086
787.00,0.0085
786.00,0.0082
785.00,0.0079
784.00,0.0076
783.00,0.0073
782.00,0.0071
781.00,0.0070
780.00,0.0069
779.00,0.0069
778.00,0.0069
777.00,0.0068
776.00,0.0068
775.00,0.0068
774.00,0.0070
773.00,0.0073
772.00,0.0078
771.00,0.0083
770.00,0.0087
769.00,0.0089
768.00,0.0089
767.00,0.0088
766.00,0.0087
765.00,0.0086
764.00,0.0085
763.00,0.0083
762.00,0.0080
761.00,0.0075
760.00,0.0071
759.00,0.0067
758.00,0.0065
757.00,0.0063
756.00,0.0061
755.00,0.0059
754.00,0.0057
753.00,0.0055
752.00,0.0055
751.00,0.0055
750.00,0.0055
749.00,0.0055
748.00,0.0055
747.00,0.0055
746.00,0.0057
745.00,0.0058
744.00,0.0059
743.00,0.0059
742.00,0.0059
741.00,0.0060
740.00,0.0062
739.00,0.0063
738.00,0.0064
737.00,0.0065
736.00,0.0065
735.00,0.0066
734.00,0.0068
733.00,0.0069
732.00,0.0070
731.00,0.0070
730.00,0.0070
729.00,0.0069
728.00,0.0069
727.00,0.0071
726.00,0.0073
725.00,0.0074
724.00,0.0074
723.00,0.0072
722.00,0.0070
721.00,0.0068
720.00,0.0066
719.00,0.0066
718.00,0.0065
717.00,0.0064
716.00,0.0062
715.00,0.0061
714.00,0.0061
713.00,0.0061
712.00,0.0061
711.00,0.0061
710.00,0.0061
709.00,0.0060
708.00,0.0060
707.00,0.0060
706.00,0.0061
705.00,0.0061
704.00,0.0060
703.00,0.0060
702.00,0.0060
701.00,0.0060
700.00,0.0060
699.00,0.0058
698.00,0.0058
697.00,0.0059
696.00,0.0060
695.00,0.0061
694.00,0.0061
693.00,0.0060
692.00,0.0058
691.00,0.0056
690.00,0.0056
689.00,0.0058
688.00,0.0059
687.00,0.0060
686.00,0.0059
685.00,0.0060
684.00,0.0060
683.00,0.0062
682.00,0.0062
681.00,0.0061
680.00,0.0059
679.00,0.0057
678.00,0.0056
677.00,0.0058
676.00,0.0061
675.00,0.0064
674.00,0.0065
673.00,0.0064
672.00,0.0063
671.00,0.0063
670.00,0.0066
669.00,0.0068
668.00,0.0070
667.00,0.0069
666.00,0.0066
665.00,0.0062
664.00,0.0061
663.00,0.0061
662.00,0.0062
661.00,0.0063
660.00,0.0063
659.00,0.0062
658.00,0.0060
657.00,0.0058
656.00,0.0055
655.00,0.0054
654.00,0.0054
653.00,0.0055
652.00,0.0057
651.00,0.0057
650.00,0.0057
649.00,0.0055
648.00,0.0054
647.00,0.0054
646.00,0.0055
645.00,0.0057
644.00,0.0059
643.00,0.0061
642.00,0.0062
641.00,0.0063
640.00,0.0063
639.00,0.0061
638.00,0.0059
637.00,0.0058
636.00,0.0058
635.00,0.0058
634.00,0.0058
633.00,0.0058
632.00,0.0059
631.00,0.0060
630.00,0.0062
629.00,0.0063
628.00,0.0063
627.00,0.0062
626.00,0.0060
625.00,0.0059
624.00,0.0059
623.00,0.0059
622.00,0.0060
621.00,0.0061
620.00,0.0062
619.00,0.0062
618.00,0.0062
617.00,0.0062
616.00,0.0064
615.00,0.0066
614.00,0.0068
613.00,0.0068
612.00,0.0066
611.00,0.0063
610.00,0.0061
609.00,0.0062
608.00,0.0064
607.00,0.0065
606.00,0.0064
605.00,0.0064
604.00,0.0064
603.00,0.0065
602.00,0.0066
601.00,0.0066
600.00,0.0067
599.00,0.0066
598.00,0.0064
597.00,0.0060
596.00,0.0057
595.00,0.0056
594.00,0.0057
593.00,0.0058
592.00,0.0060
591.00,0.0060
590.00,0.0059
589.00,0.0059
588.00,0.0060
587.00,0.0061
586.00,0.0062
585.00,0.0063
584.00,0.0064
583.00,0.0066
582.00,0.0068
581.00,0.0067
580.00,0.0064
579.00,0.0061
578.00,0.0061
577.00,0.0064
576.00,0.0068
575.00,0.0069
574.00,0.0068
573.00,0.0066
572.00,0.0064
571.00,0.0063
570.00,0.0063
569.00,0.0063
568.00,0.0065
567.00,0.0067
566.00,0.0067
565.00,0.0064
564.00,0.0062
563.00,0.0062
562.00,0.0063
561.00,0.0066
560.00,0.0069
559.00,0.0070
558.00,0.0069
557.00,0.0066
556.00,0.0063
555.00,0.0061
554.00,0.0060
553.00,0.0061
552.00,0.0062
551.00,0.0065
550.00,0.0068
549.00,0.0069
548.00,0.0068
547.00,0.0067
546.00,0.0068
545.00,0.0071
544.00,0.0072
543.00,0.0072
542.00,0.0071
541.00,0.0071
540.00,0.0072
539.00,0.0074
538.00,0.0077
537.00,0.0081
536.00,0.0086
535.00,0.0090
534.00,0.0091
533.00,0.0090
532.00,0.0090
531.00,0.0091
530.00,0.0094
529.00,0.0095
528.00,0.0094
527.00,0.0091
526.00,0.0087
525.00,0.0083
524.00,0.0081
523.00,0.0080
522.00,0.0081
521.00,0.0083
520.00,0.0085
519.00,0.0086
518.00,0.0087
517.00,0.0087
516.00,0.0087
515.00,0.0083
514.00,0.0080
513.00,0.0078
512.00,0.0078
511.00,0.0080
510.00,0.0081
509.00,0.0081
508.00,0.0079
507.00,0.0075
506.00,0.0069
505.00,0.0065
504.00,0.0065
503.00,0.0068
502.00,0.0071
501.00,0.0073
500.00,0.0075
499.00,0.0074
498.00,0.0072
497.00,0.0071
496.00,0.0076
495.00,0.0085
494.00,0.0090
493.00,0.0087
492.00,0.0078
491.00,0.0070
490.00,0.0067
489.00,0.0070
488.00,0.0078
487.00,0.0085
486.00,0.0089
485.00,0.0088
484.00,0.0084
483.00,0.0081
482.00,0.0076
481.00,0.0069
480.00,0.0063
479.00,0.0065
478.00,0.0074
477.00,0.0085
476.00,0.0090
475.00,0.0089
474.00,0.0084
473.00,0.0080
472.00,0.0081
471.00,0.0086
470.00,0.0090
469.00,0.0089
468.00,0.0083
467.00,0.0079
466.00,0.0080
465.00,0.0089
464.00,0.0104
463.00,0.0124
462.00,0.0141
461.00,0.0149
460.00,0.0151
459.00,0.0154
458.00,0.0161
457.00,0.0165
456.00,0.0160
455.00,0.0147
454.00,0.0132
453.00,0.0116
452.00,0.0102
451.00,0.0092
450.00,0.0089
