Created as New Dataset,Sample 035 By Administrator Date Friday, September 05 2025
cm-1,A
4000.00,0.0009
3999.00,0.0010
3998.00,0.0010
3997.00,0.0010
3996.00,0.0010
3995.00,0.0010
3994.00,0.0010
3993.00,0.0010
3992.00,0.0010
3991.00,0.0010
3990.00,0.0009
3989.00,0.0010
3988.00,0.0010
3987.00,0.0010
3986.00,0.0009
3985.00,0.0009
3984.00,0.0009
3983.00,0.0009
3982.00,0.0008
3981.00,0.0008
3980.00,0.0008
3979.00,0.0008
3978.00,0.0008
3977.00,0.0008
3976.00,0.0008
3975.00,0.0008
3974.00,0.0008
3973.00,0.0008
3972.00,0.0008
3971.00,0.0008
3970.00,0.0008
3969.00,0.0007
3968.00,0.0007
3967.00,0.0007
3966.00,0.0007
3965.00,0.0007
3964.00,0.0008
3963.00,0.0008
3962.00,0.0008
3961.00,0.0008
3960.00,0.0008
3959.00,0.0008
3958.00,0.0007
3957.00,0.0007
3956.00,0.0007
3955.00,0.0007
3954.00,0.0007
3953.00,0.0007
3952.00,0.0007
3951.00,0.0007
3950.00,0.0007
3949.00,0.0007
3948.00,0.0007
3947.00,0.0007
3946.00,0.0007
3945.00,0.0007
3944.00,0.0007
3943.00,0.0008
3942.00,0.0008
3941.00,0.0007
3940.00,0.0007
3939.00,0.0007
3938.00,0.0007
3937.00,0.0007
3936.00,0.0007
3935.00,0.0007
3934.00,0.0007
3933.00,0.0007
3932.00,0.0008
3931.00,0.0008
3930.00,0.0008
3929.00,0.0008
3928.00,0.0008
3927.00,0.0008
3926.00,0.0008
3925.00,0.0008
3924.00,0.0008
3923.00,0.0008
3922.00,0.0008
3921.00,0.0008
3920.00,0.0008
3919.00,0.0008
3918.00,0.0008
3917.00,0.0007
3916.00,0.0008
3915.00,0.0008
3914.00,0.0008
3913.00,0.0008
3912.00,0.0008
3911.00,0.0008
3910.00,0.0008
3909.00,0.0008
3908.00,0.0008
3907.00,0.0007
3906.00,0.0007
3905.00,0.0007
3904.00,0.0007
3903.00,0.0007
3902.00,0.0007
3901.00,0.0007
3900.00,0.0007
3899.00,0.0007
3898.00,0.0007
3897.00,0.0007
3896.00,0.0007
3895.00,0.0007
3894.00,0.0007
3893.00,0.0007
3892.00,0.0007
3891.00,0.0008
3890.00,0.0008
3889.00,0.0008
3888.00,0.0008
3887.00,0.0008
3886.00,0.0007
3885.00,0.0007
3884.00,0.0007
3883.00,0.0006
3882.00,0.0006
3881.00,0.0007
3880.00,0.0007
3879.00,0.0007
3878.00,0.0007
3877.00,0.0007
3876.00,0.0007
3875.00,0.0008
3874.00,0.0008
3873.00,0.0008
3872.00,0.0007
3871.00,0.0007
3870.00,0.0007
3869.00,0.0007
3868.00,0.0007
3867.00,0.0007
3866.00,0.0007
3865.00,0.0007
3864.00,0.0007
3863.00,0.0007
3862.00,0.0006
3861.00,0.0006
3860.00,0.0006
3859.00,0.0006
3858.00,0.0006
3857.00,0.0007
3856.00,0.0007
3855.00,0.0006
3854.00,0.0006
3853.00,0.0007
3852.00,0.0007
3851.00,0.0007
3850.00,0.0006
3849.00,0.0006
3848.00,0.0006
3847.00,0.0006
3846.00,0.0006
3845.00,0.0006
3844.00,0.0006
3843.00,0.0006
3842.00,0.0006
3841.00,0.0006
3840.00,0.0005
3839.00,0.0005
3838.00,0.0005
3837.00,0.0005
3836.00,0.0005
3835.00,0.0005
3834.00,0.0005
3833.00,0.0005
3832.00,0.0005
3831.00,0.0005
3830.00,0.0005
3829.00,0.0005
3828.00,0.0005
3827.00,0.0005
3826.00,0.0005
3825.00,0.0005
3824.00,0.0005
3823.00,0.0006
3822.00,0.0006
3821.00,0.0006
3820.00,0.0006
3819.00,0.0006
3818.00,0.0005
3817.00,0.0005
3816.00,0.0005
3815.00,0.0006
3814.00,0.0006
3813.00,0.0006
3812.00,0.0006
3811.00,0.0006
3810.00,0.0007
3809.00,0.0007
3808.00,0.0007
3807.00,0.0007
3806.00,0.0007
3805.00,0.0006
3804.00,0.0006
3803.00,0.0006
3802.00,0.0006
3801.00,0.0006
3800.00,0.0006
3799.00,0.0006
3798.00,0.0006
3797.00,0.0006
3796.00,0.0006
3795.00,0.0007
3794.00,0.0007
3793.00,0.0007
3792.00,0.0007
3791.00,0.0007
3790.00,0.0007
3789.00,0.0007
3788.00,0.0007
3787.00,0.0007
3786.00,0.0007
3785.00,0.0006
3784.00,0.0006
3783.00,0.0006
3782.00,0.0006
3781.00,0.0007
3780.00,0.0007
3779.00,0.0007
3778.00,0.0007
3777.00,0.0007
3776.00,0.0007
3775.00,0.0007
3774.00,0.0007
3773.00,0.0007
3772.00,0.0007
3771.00,0.0007
3770.00,0.0007
3769.00,0.0007
3768.00,0.0007
3767.00,0.0008
3766.00,0.0008
3765.00,0.0008
3764.00,0.0008
3763.00,0.0008
3762.00,0.0007
3761.00,0.0007
3760.00,0.0007
3759.00,0.0007
3758.00,0.0007
3757.00,0.0007
3756.00,0.0006
3755.00,0.0006
3754.00,0.0006
3753.00,0.0006
3752.00,0.0006
3751.00,0.0007
3750.00,0.0007
3749.00,0.0007
3748.00,0.0007
3747.00,0.0007
3746.00,0.0007
3745.00,0.0006
3744.00,0.0006
3743.00,0.0005
3742.00,0.0004
3741.00,0.0004
3740.00,0.0004
3739.00,0.0004
3738.00,0.0004
3737.00,0.0004
3736.00,0.0004
3735.00,0.0005
3734.00,0.0005
3733.00,0.0005
3732.00,0.0005
3731.00,0.0006
3730.00,0.0006
3729.00,0.0006
3728.00,0.0006
3727.00,0.0005
3726.00,0.0005
3725.00,0.0005
3724.00,0.0005
3723.00,0.0005
3722.00,0.0005
3721.00,0.0005
3720.00,0.0005
3719.00,0.0005
3718.00,0.0005
3717.00,0.0005
3716.00,0.0005
3715.00,0.0005
3714.00,0.0005
3713.00,0.0006
3712.00,0.0006
3711.00,0.0006
3710.00,0.0006
3709.00,0.0006
3708.00,0.0006
3707.00,0.0005
3706.00,0.0005
3705.00,0.0005
3704.00,0.0005
3703.00,0.0005
3702.00,0.0005
3701.00,0.0005
3700.00,0.0004
3699.00,0.0004
3698.00,0.0004
3697.00,0.0004
3696.00,0.0005
3695.00,0.0005
3694.00,0.0005
3693.00,0.0005
3692.00,0.0005
3691.00,0.0004
3690.00,0.0004
3689.00,0.0004
3688.00,0.0004
3687.00,0.0004
3686.00,0.0004
3685.00,0.0004
3684.00,0.0004
3683.00,0.0004
3682.00,0.0003
3681.00,0.0003
3680.00,0.0002
3679.00,0.0002
3678.00,0.0001
3677.00,0.0000
3676.00,-0.0001
3675.00,-0.0001
3674.00,-0.0002
3673.00,-0.0002
3672.00,-0.0003
3671.00,-0.0003
3670.00,-0.0003
3669.00,-0.0003
3668.00,-0.0003
3667.00,-0.0003
3666.00,-0.0003
3665.00,-0.0003
3664.00,-0.0002
3663.00,-0.0002
3662.00,-0.0003
3661.00,-0.0003
3660.00,-0.0003
3659.00,-0.0003
3658.00,-0.0003
3657.00,-0.0003
3656.00,-0.0002
3655.00,-0.0002
3654.00,-0.0003
3653.00,-0.0003
3652.00,-0.0003
3651.00,-0.0003
3650.00,-0.0002
3649.00,-0.0001
3648.00,-0.0000
3647.00,0.0000
3646.00,-0.0000
3645.00,-0.0001
3644.00,-0.0001
3643.00,-0.0001
3642.00,-0.0001
3641.00,-0.0000
3640.00,-0.0000
3639.00,0.0000
3638.00,0.0000
3637.00,0.0000
3636.00,0.0001
3635.00,0.0001
3634.00,0.0001
3633.00,0.0002
3632.00,0.0002
3631.00,0.0003
3630.00,0.0003
3629.00,0.0004
3628.00,0.0004
3627.00,0.0004
3626.00,0.0004
3625.00,0.0004
3624.00,0.0004
3623.00,0.0004
3622.00,0.0004
3621.00,0.0004
3620.00,0.0004
3619.00,0.0005
3618.00,0.0006
3617.00,0.0006
3616.00,0.0006
3615.00,0.0007
3614.00,0.0007
3613.00,0.0008
3612.00,0.0008
3611.00,0.0007
3610.00,0.0007
3609.00,0.0008
3608.00,0.0009
3607.00,0.0009
3606.00,0.0009
3605.00,0.0009
3604.00,0.0009
3603.00,0.0009
3602.00,0.0009
3601.00,0.0008
3600.00,0.0008
3599.00,0.0008
3598.00,0.0008
3597.00,0.0009
3596.00,0.0009
3595.00,0.0009
3594.00,0.0010
3593.00,0.0010
3592.00,0.0009
3591.00,0.0009
3590.00,0.0009
3589.00,0.0009
3588.00,0.0009
3587.00,0.0010
3586.00,0.0011
3585.00,0.0011
3584.00,0.0012
3583.00,0.0012
3582.00,0.0012
3581.00,0.0012
3580.00,0.0012
3579.00,0.0012
3578.00,0.0012
3577.00,0.0012
3576.00,0.0012
3575.00,0.0013
3574.00,0.0013
3573.00,0.0013
3572.00,0.0014
3571.00,0.0014
3570.00,0.0014
3569.00,0.0014
3568.00,0.0014
3567.00,0.0014
3566.00,0.0014
3565.00,0.0015
3564.00,0.0015
3563.00,0.0015
3562.00,0.0015
3561.00,0.0015
3560.00,0.0016
3559.00,0.0016
3558.00,0.0017
3557.00,0.0017
3556.00,0.0017
3555.00,0.0017
3554.00,0.0017
3553.00,0.0017
3552.00,0.0018
3551.00,0.0018
3550.00,0.0018
3549.00,0.0018
3548.00,0.0018
3547.00,0.0018
3546.00,0.0019
3545.00,0.0019
3544.00,0.0019
3543.00,0.0019
3542.00,0.0019
3541.00,0.0019
3540.00,0.0020
3539.00,0.0020
3538.00,0.0020
3537.00,0.0020
3536.00,0.0021
3535.00,0.0021
3534.00,0.0021
3533.00,0.0021
3532.00,0.0021
3531.00,0.0021
3530.00,0.0021
3529.00,0.0022
3528.00,0.0022
3527.00,0.0022
3526.00,0.0023
3525.00,0.0023
3524.00,0.0022
3523.00,0.0022
3522.00,0.0022
3521.00,0.0023
3520.00,0.0023
3519.00,0.0023
3518.00,0.0023
3517.00,0.0023
3516.00,0.0024
3515.00,0.0024
3514.00,0.0024
3513.00,0.0024
3512.00,0.0024
3511.00,0.0024
3510.00,0.0024
3509.00,0.0024
3508.00,0.0025
3507.00,0.0025
3506.00,0.0025
3505.00,0.0025
3504.00,0.0026
3503.00,0.0026
3502.00,0.0026
3501.00,0.0025
3500.00,0.0025
3499.00,0.0025
3498.00,0.0026
3497.00,0.0026
3496.00,0.0026
3495.00,0.0027
3494.00,0.0027
3493.00,0.0027
3492.00,0.0027
3491.00,0.0027
3490.00,0.0028
3489.00,0.0028
3488.00,0.0028
3487.00,0.0028
3486.00,0.0028
3485.00,0.0028
3484.00,0.0028
3483.00,0.0028
3482.00,0.0029
3481.00,0.0029
3480.00,0.0029
3479.00,0.0029
3478.00,0.0029
3477.00,0.0030
3476.00,0.0030
3475.00,0.0030
3474.00,0.0030
3473.00,0.0030
3472.00,0.0030
3471.00,0.0031
3470.00,0.0031
3469.00,0.0031
3468.00,0.0031
3467.00,0.0031
3466.00,0.0031
3465.00,0.0031
3464.00,0.0031
3463.00,0.0032
3462.00,0.0032
3461.00,0.0033
3460.00,0.0033
3459.00,0.0033
3458.00,0.0033
3457.00,0.0033
3456.00,0.0033
3455.00,0.0033
3454.00,0.0033
3453.00,0.0034
3452.00,0.0034
3451.00,0.0034
3450.00,0.0034
3449.00,0.0034
3448.00,0.0034
3447.00,0.0034
3446.00,0.0034
3445.00,0.0035
3444.00,0.0035
3443.00,0.0035
3442.00,0.0036
3441.00,0.0036
3440.00,0.0036
3439.00,0.0036
3438.00,0.0036
3437.00,0.0036
3436.00,0.0037
3435.00,0.0037
3434.00,0.0037
3433.00,0.0037
3432.00,0.0037
3431.00,0.0037
3430.00,0.0038
3429.00,0.0038
3428.00,0.0039
3427.00,0.0039
3426.00,0.0039
3425.00,0.0039
3424.00,0.0040
3423.00,0.0040
3422.00,0.0040
3421.00,0.0041
3420.00,0.0041
3419.00,0.0041
3418.00,0.0041
3417.00,0.0041
3416.00,0.0041
3415.00,0.0041
3414.00,0.0041
3413.00,0.0041
3412.00,0.0041
3411.00,0.0041
3410.00,0.0041
3409.00,0.0042
3408.00,0.0043
3407.00,0.0043
3406.00,0.0044
3405.00,0.0044
3404.00,0.0044
3403.00,0.0044
3402.00,0.0044
3401.00,0.0044
3400.00,0.0044
3399.00,0.0044
3398.00,0.0045
3397.00,0.0045
3396.00,0.0045
3395.00,0.0045
3394.00,0.0045
3393.00,0.0045
3392.00,0.0045
3391.00,0.0045
3390.00,0.0045
3389.00,0.0045
3388.00,0.0044
3387.00,0.0044
3386.00,0.0044
3385.00,0.0045
3384.00,0.0045
3383.00,0.0045
3382.00,0.0045
3381.00,0.0045
3380.00,0.0045
3379.00,0.0044
3378.00,0.0044
3377.00,0.0044
3376.00,0.0044
3375.00,0.0044
3374.00,0.0044
3373.00,0.0044
3372.00,0.0045
3371.00,0.0045
3370.00,0.0045
3369.00,0.0045
3368.00,0.0045
3367.00,0.0044
3366.00,0.0044
3365.00,0.0044
3364.00,0.0044
3363.00,0.0045
3362.00,0.0045
3361.00,0.0045
3360.00,0.0046
3359.00,0.0046
3358.00,0.0046
3357.00,0.0046
3356.00,0.0046
3355.00,0.0046
3354.00,0.0046
3353.00,0.0046
3352.00,0.0046
3351.00,0.0046
3350.00,0.0046
3349.00,0.0046
3348.00,0.0046
3347.00,0.0046
3346.00,0.0046
3345.00,0.0046
3344.00,0.0046
3343.00,0.0046
3342.00,0.0046
3341.00,0.0046
3340.00,0.0046
3339.00,0.0046
3338.00,0.0046
3337.00,0.0046
3336.00,0.0046
3335.00,0.0046
3334.00,0.0045
3333.00,0.0045
3332.00,0.0045
3331.00,0.0045
3330.00,0.0045
3329.00,0.0045
3328.00,0.0045
3327.00,0.0045
3326.00,0.0045
3325.00,0.0045
3324.00,0.0045
3323.00,0.0045
3322.00,0.0045
3321.00,0.0046
3320.00,0.0046
3319.00,0.0046
3318.00,0.0046
3317.00,0.0045
3316.00,0.0045
3315.00,0.0045
3314.00,0.0045
3313.00,0.0045
3312.00,0.0045
3311.00,0.0045
3310.00,0.0045
3309.00,0.0045
3308.00,0.0046
3307.00,0.0046
3306.00,0.0046
3305.00,0.0045
3304.00,0.0045
3303.00,0.0045
3302.00,0.0045
3301.00,0.0046
3300.00,0.0046
3299.00,0.0046
3298.00,0.0046
3297.00,0.0046
3296.00,0.0045
3295.00,0.0045
3294.00,0.0045
3293.00,0.0045
3292.00,0.0045
3291.00,0.0045
3290.00,0.0045
3289.00,0.0045
3288.00,0.0045
3287.00,0.0046
3286.00,0.0045
3285.00,0.0045
3284.00,0.0045
3283.00,0.0045
3282.00,0.0045
3281.00,0.0045
3280.00,0.0045
3279.00,0.0045
3278.00,0.0045
3277.00,0.0045
3276.00,0.0044
3275.00,0.0044
3274.00,0.0044
3273.00,0.0044
3272.00,0.0044
3271.00,0.0044
3270.00,0.0044
3269.00,0.0044
3268.00,0.0044
3267.00,0.0044
3266.00,0.0043
3265.00,0.0043
3264.00,0.0042
3263.00,0.0042
3262.00,0.0042
3261.00,0.0042
3260.00,0.0042
3259.00,0.0042
3258.00,0.0042
3257.00,0.0041
3256.00,0.0041
3255.00,0.0040
3254.00,0.0040
3253.00,0.0040
3252.00,0.0040
3251.00,0.0040
3250.00,0.0040
3249.00,0.0041
3248.00,0.0041
3247.00,0.0040
3246.00,0.0040
3245.00,0.0040
3244.00,0.0040
3243.00,0.0040
3242.00,0.0040
3241.00,0.0040
3240.00,0.0041
3239.00,0.0041
3238.00,0.0041
3237.00,0.0040
3236.00,0.0040
3235.00,0.0039
3234.00,0.0039
3233.00,0.0039
3232.00,0.0040
3231.00,0.0040
3230.00,0.0040
3229.00,0.0040
3228.00,0.0040
3227.00,0.0041
3226.00,0.0041
3225.00,0.0040
3224.00,0.0040
3223.00,0.0040
3222.00,0.0040
3221.00,0.0041
3220.00,0.0042
3219.00,0.0042
3218.00,0.0043
3217.00,0.0043
3216.00,0.0043
3215.00,0.0043
3214.00,0.0043
3213.00,0.0043
3212.00,0.0043
3211.00,0.0043
3210.00,0.0043
3209.00,0.0043
3208.00,0.0043
3207.00,0.0043
3206.00,0.0043
3205.00,0.0043
3204.00,0.0043
3203.00,0.0044
3202.00,0.0044
3201.00,0.0044
3200.00,0.0044
3199.00,0.0044
3198.00,0.0044
3197.00,0.0044
3196.00,0.0045
3195.00,0.0045
3194.00,0.0045
3193.00,0.0045
3192.00,0.0045
3191.00,0.0045
3190.00,0.0045
3189.00,0.0045
3188.00,0.0045
3187.00,0.0045
3186.00,0.0044
3185.00,0.0043
3184.00,0.0042
3183.00,0.0042
3182.00,0.0042
3181.00,0.0042
3180.00,0.0042
3179.00,0.0042
3178.00,0.0041
3177.00,0.0041
3176.00,0.0041
3175.00,0.0041
3174.00,0.0041
3173.00,0.0041
3172.00,0.0041
3171.00,0.0041
3170.00,0.0041
3169.00,0.0041
3168.00,0.0040
3167.00,0.0040
3166.00,0.0040
3165.00,0.0040
3164.00,0.0040
3163.00,0.0040
3162.00,0.0040
3161.00,0.0039
3160.00,0.0039
3159.00,0.0039
3158.00,0.0039
3157.00,0.0039
3156.00,0.0039
3155.00,0.0039
3154.00,0.0039
3153.00,0.0038
3152.00,0.0038
3151.00,0.0037
3150.00,0.0037
3149.00,0.0037
3148.00,0.0038
3147.00,0.0038
3146.00,0.0039
3145.00,0.0039
3144.00,0.0039
3143.00,0.0038
3142.00,0.0038
3141.00,0.0038
3140.00,0.0038
3139.00,0.0038
3138.00,0.0038
3137.00,0.0038
3136.00,0.0038
3135.00,0.0038
3134.00,0.0037
3133.00,0.0037
3132.00,0.0036
3131.00,0.0036
3130.00,0.0036
3129.00,0.0035
3128.00,0.0035
3127.00,0.0035
3126.00,0.0034
3125.00,0.0034
3124.00,0.0034
3123.00,0.0033
3122.00,0.0033
3121.00,0.0033
3120.00,0.0033
3119.00,0.0033
3118.00,0.0032
3117.00,0.0032
3116.00,0.0032
3115.00,0.0032
3114.00,0.0033
3113.00,0.0033
3112.00,0.0032
3111.00,0.0032
3110.00,0.0032
3109.00,0.0031
3108.00,0.0031
3107.00,0.0031
3106.00,0.0032
3105.00,0.0032
3104.00,0.0031
3103.00,0.0031
3102.00,0.0031
3101.00,0.0030
3100.00,0.0030
3099.00,0.0030
3098.00,0.0030
3097.00,0.0030
3096.00,0.0031
3095.00,0.0031
3094.00,0.0031
3093.00,0.0031
3092.00,0.0031
3091.00,0.0031
3090.00,0.0031
3089.00,0.0031
3088.00,0.0031
3087.00,0.0031
3086.00,0.0030
3085.00,0.0030
3084.00,0.0029
3083.00,0.0029
3082.00,0.0029
3081.00,0.0029
3080.00,0.0030
3079.00,0.0030
3078.00,0.0030
3077.00,0.0030
3076.00,0.0030
3075.00,0.0030
3074.00,0.0031
3073.00,0.0031
3072.00,0.0031
3071.00,0.0032
3070.00,0.0032
3069.00,0.0032
3068.00,0.0032
3067.00,0.0032
3066.00,0.0033
3065.00,0.0033
3064.00,0.0033
3063.00,0.0033
3062.00,0.0033
3061.00,0.0033
3060.00,0.0033
3059.00,0.0033
3058.00,0.0033
3057.00,0.0033
3056.00,0.0033
3055.00,0.0034
3054.00,0.0034
3053.00,0.0034
3052.00,0.0034
3051.00,0.0034
3050.00,0.0034
3049.00,0.0034
3048.00,0.0035
3047.00,0.0035
3046.00,0.0035
3045.00,0.0035
3044.00,0.0035
3043.00,0.0035
3042.00,0.0035
3041.00,0.0036
3040.00,0.0036
3039.00,0.0037
3038.00,0.0037
3037.00,0.0037
3036.00,0.0038
3035.00,0.0038
3034.00,0.0038
3033.00,0.0038
3032.00,0.0038
3031.00,0.0038
3030.00,0.0039
3029.00,0.0040
3028.00,0.0040
3027.00,0.0041
3026.00,0.0042
3025.00,0.0042
3024.00,0.0042
3023.00,0.0043
3022.00,0.0043
3021.00,0.0044
3020.00,0.0044
3019.00,0.0044
3018.00,0.0045
3017.00,0.0045
3016.00,0.0045
3015.00,0.0045
3014.00,0.0045
3013.00,0.0045
3012.00,0.0045
3011.00,0.0045
3010.00,0.0045
3009.00,0.0045
3008.00,0.0045
3007.00,0.0045
3006.00,0.0045
3005.00,0.0044
3004.00,0.0044
3003.00,0.0044
3002.00,0.0044
3001.00,0.0044
3000.00,0.0045
2999.00,0.0045
2998.00,0.0046
2997.00,0.0048
2996.00,0.0050
2995.00,0.0053
2994.00,0.0056
2993.00,0.0060
2992.00,0.0064
2991.00,0.0069
2990.00,0.0075
2989.00,0.0081
2988.00,0.0088
2987.00,0.0095
2986.00,0.0101
2985.00,0.0106
2984.00,0.0112
2983.00,0.0119
2982.00,0.0131
2981.00,0.0148
2980.00,0.0170
2979.00,0.0196
2978.00,0.0225
2977.00,0.0257
2976.00,0.0291
2975.00,0.0329
2974.00,0.0371
2973.00,0.0419
2972.00,0.0473
2971.00,0.0535
2970.00,0.0605
2969.00,0.0683
2968.00,0.0766
2967.00,0.0854
2966.00,0.0945
2965.00,0.1037
2964.00,0.1126
2963.00,0.1210
2962.00,0.1283
2961.00,0.1345
2960.00,0.1396
2959.00,0.1439
2958.00,0.1479
2957.00,0.1522
2956.00,0.1573
2955.00,0.1635
2954.00,0.1707
2953.00,0.1785
2952.00,0.1859
2951.00,0.1919
2950.00,0.1952
2949.00,0.1948
2948.00,0.1901
2947.00,0.1814
2946.00,0.1696
2945.00,0.1561
2944.00,0.1425
2943.00,0.1303
2942.00,0.1202
2941.00,0.1128
2940.00,0.1081
2939.00,0.1059
2938.00,0.1060
2937.00,0.1080
2936.00,0.1118
2935.00,0.1173
2934.00,0.1242
2933.00,0.1325
2932.00,0.1420
2931.00,0.1524
2930.00,0.1635
2929.00,0.1750
2928.00,0.1865
2927.00,0.1978
2926.00,0.2088
2925.00,0.2193
2924.00,0.2295
2923.00,0.2395
2922.00,0.2494
2921.00,0.2588
2920.00,0.2674
2919.00,0.2740
2918.00,0.2779
2917.00,0.2781
2916.00,0.2744
2915.00,0.2672
2914.00,0.2574
2913.00,0.2463
2912.00,0.2350
2911.00,0.2242
2910.00,0.2142
2909.00,0.2052
2908.00,0.1968
2907.00,0.1888
2906.00,0.1812
2905.00,0.1736
2904.00,0.1660
2903.00,0.1585
2902.00,0.1511
2901.00,0.1439
2900.00,0.1370
2899.00,0.1306
2898.00,0.1246
2897.00,0.1192
2896.00,0.1145
2895.00,0.1105
2894.00,0.1072
2893.00,0.1046
2892.00,0.1027
2891.00,0.1015
2890.00,0.1010
2889.00,0.1010
2888.00,0.1014
2887.00,0.1022
2886.00,0.1033
2885.00,0.1048
2884.00,0.1068
2883.00,0.1093
2882.00,0.1124
2881.00,0.1158
2880.00,0.1193
2879.00,0.1223
2878.00,0.1244
2877.00,0.1253
2876.00,0.1252
2875.00,0.1244
2874.00,0.1236
2873.00,0.1233
2872.00,0.1237
2871.00,0.1250
2870.00,0.1270
2869.00,0.1291
2868.00,0.1306
2867.00,0.1306
2866.00,0.1283
2865.00,0.1232
2864.00,0.1155
2863.00,0.1062
2862.00,0.0963
2861.00,0.0869
2860.00,0.0787
2859.00,0.0721
2858.00,0.0671
2857.00,0.0636
2856.00,0.0613
2855.00,0.0601
2854.00,0.0598
2853.00,0.0603
2852.00,0.0614
2851.00,0.0631
2850.00,0.0653
2849.00,0.0679
2848.00,0.0710
2847.00,0.0748
2846.00,0.0793
2845.00,0.0848
2844.00,0.0911
2843.00,0.0981
2842.00,0.1055
2841.00,0.1125
2840.00,0.1185
2839.00,0.1225
2838.00,0.1236
2837.00,0.1213
2836.00,0.1155
2835.00,0.1068
2834.00,0.0962
2833.00,0.0850
2832.00,0.0742
2831.00,0.0646
2830.00,0.0564
2829.00,0.0497
2828.00,0.0443
2827.00,0.0399
2826.00,0.0363
2825.00,0.0334
2824.00,0.0310
2823.00,0.0290
2822.00,0.0272
2821.00,0.0258
2820.00,0.0245
2819.00,0.0234
2818.00,0.0225
2817.00,0.0217
2816.00,0.0209
2815.00,0.0203
2814.00,0.0196
2813.00,0.0191
2812.00,0.0185
2811.00,0.0180
2810.00,0.0174
2809.00,0.0168
2808.00,0.0162
2807.00,0.0156
2806.00,0.0149
2805.00,0.0142
2804.00,0.0136
2803.00,0.0130
2802.00,0.0124
2801.00,0.0119
2800.00,0.0115
2799.00,0.0112
2798.00,0.0110
2797.00,0.0108
2796.00,0.0105
2795.00,0.0103
2794.00,0.0100
2793.00,0.0097
2792.00,0.0094
2791.00,0.0091
2790.00,0.0088
2789.00,0.0085
2788.00,0.0082
2787.00,0.0079
2786.00,0.0077
2785.00,0.0074
2784.00,0.0072
2783.00,0.0070
2782.00,0.0069
2781.00,0.0067
2780.00,0.0065
2779.00,0.0063
2778.00,0.0061
2777.00,0.0060
2776.00,0.0059
2775.00,0.0058
2774.00,0.0058
2773.00,0.0057
2772.00,0.0056
2771.00,0.0056
2770.00,0.0055
2769.00,0.0055
2768.00,0.0055
2767.00,0.0055
2766.00,0.0054
2765.00,0.0054
2764.00,0.0054
2763.00,0.0053
2762.00,0.0053
2761.00,0.0053
2760.00,0.0053
2759.00,0.0053
2758.00,0.0052
2757.00,0.0052
2756.00,0.0052
2755.00,0.0052
2754.00,0.0052
2753.00,0.0052
2752.00,0.0052
2751.00,0.0051
2750.00,0.0051
2749.00,0.0051
2748.00,0.0051
2747.00,0.0051
2746.00,0.0052
2745.00,0.0052
2744.00,0.0053
2743.00,0.0054
2742.00,0.0055
2741.00,0.0056
2740.00,0.0058
2739.00,0.0059
2738.00,0.0061
2737.00,0.0062
2736.00,0.0064
2735.00,0.0066
2734.00,0.0067
2733.00,0.0069
2732.00,0.0071
2731.00,0.0073
2730.00,0.0076
2729.00,0.0078
2728.00,0.0081
2727.00,0.0084
2726.00,0.0087
2725.00,0.0089
2724.00,0.0091
2723.00,0.0092
2722.00,0.0091
2721.00,0.0089
2720.00,0.0085
2719.00,0.0081
2718.00,0.0077
2717.00,0.0074
2716.00,0.0071
2715.00,0.0069
2714.00,0.0066
2713.00,0.0064
2712.00,0.0061
2711.00,0.0059
2710.00,0.0058
2709.00,0.0056
2708.00,0.0055
2707.00,0.0053
2706.00,0.0052
2705.00,0.0051
2704.00,0.0049
2703.00,0.0048
2702.00,0.0047
2701.00,0.0046
2700.00,0.0046
2699.00,0.0045
2698.00,0.0045
2697.00,0.0045
2696.00,0.0045
2695.00,0.0045
2694.00,0.0045
2693.00,0.0045
2692.00,0.0045
2691.00,0.0045
2690.00,0.0045
2689.00,0.0045
2688.00,0.0045
2687.00,0.0044
2686.00,0.0044
2685.00,0.0044
2684.00,0.0045
2683.00,0.0045
2682.00,0.0045
2681.00,0.0045
2680.00,0.0045
2679.00,0.0045
2678.00,0.0046
2677.00,0.0046
2676.00,0.0045
2675.00,0.0045
2674.00,0.0045
2673.00,0.0044
2672.00,0.0044
2671.00,0.0044
2670.00,0.0044
2669.00,0.0044
2668.00,0.0044
2667.00,0.0044
2666.00,0.0044
2665.00,0.0045
2664.00,0.0045
2663.00,0.0046
2662.00,0.0046
2661.00,0.0047
2660.00,0.0047
2659.00,0.0047
2658.00,0.0047
2657.00,0.0047
2656.00,0.0047
2655.00,0.0046
2654.00,0.0046
2653.00,0.0045
2652.00,0.0044
2651.00,0.0044
2650.00,0.0043
2649.00,0.0043
2648.00,0.0043
2647.00,0.0043
2646.00,0.0042
2645.00,0.0042
2644.00,0.0041
2643.00,0.0041
2642.00,0.0040
2641.00,0.0040
2640.00,0.0039
2639.00,0.0038
2638.00,0.0038
2637.00,0.0038
2636.00,0.0038
2635.00,0.0039
2634.00,0.0039
2633.00,0.0039
2632.00,0.0039
2631.00,0.0039
2630.00,0.0039
2629.00,0.0039
2628.00,0.0040
2627.00,0.0040
2626.00,0.0040
2625.00,0.0040
2624.00,0.0040
2623.00,0.0040
2622.00,0.0041
2621.00,0.0042
2620.00,0.0042
2619.00,0.0042
2618.00,0.0042
2617.00,0.0042
2616.00,0.0041
2615.00,0.0041
2614.00,0.0041
2613.00,0.0041
2612.00,0.0040
2611.00,0.0040
2610.00,0.0039
2609.00,0.0038
2608.00,0.0038
2607.00,0.0038
2606.00,0.0037
2605.00,0.0037
2604.00,0.0036
2603.00,0.0035
2602.00,0.0034
2601.00,0.0033
2600.00,0.0033
2599.00,0.0033
2598.00,0.0033
2597.00,0.0033
2596.00,0.0033
2595.00,0.0033
2594.00,0.0033
2593.00,0.0033
2592.00,0.0033
2591.00,0.0034
2590.00,0.0035
2589.00,0.0036
2588.00,0.0037
2587.00,0.0037
2586.00,0.0038
2585.00,0.0038
2584.00,0.0039
2583.00,0.0040
2582.00,0.0041
2581.00,0.0040
2580.00,0.0040
2579.00,0.0039
2578.00,0.0039
2577.00,0.0038
2576.00,0.0037
2575.00,0.0036
2574.00,0.0034
2573.00,0.0033
2572.00,0.0031
2571.00,0.0030
2570.00,0.0029
2569.00,0.0028
2568.00,0.0028
2567.00,0.0027
2566.00,0.0027
2565.00,0.0026
2564.00,0.0026
2563.00,0.0025
2562.00,0.0025
2561.00,0.0024
2560.00,0.0023
2559.00,0.0023
2558.00,0.0023
2557.00,0.0023
2556.00,0.0023
2555.00,0.0023
2554.00,0.0024
2553.00,0.0024
2552.00,0.0024
2551.00,0.0023
2550.00,0.0022
2549.00,0.0021
2548.00,0.0021
2547.00,0.0020
2546.00,0.0020
2545.00,0.0020
2544.00,0.0020
2543.00,0.0020
2542.00,0.0019
2541.00,0.0019
2540.00,0.0019
2539.00,0.0019
2538.00,0.0019
2537.00,0.0018
2536.00,0.0018
2535.00,0.0017
2534.00,0.0016
2533.00,0.0015
2532.00,0.0015
2531.00,0.0014
2530.00,0.0014
2529.00,0.0014
2528.00,0.0015
2527.00,0.0015
2526.00,0.0015
2525.00,0.0015
2524.00,0.0015
2523.00,0.0014
2522.00,0.0014
2521.00,0.0014
2520.00,0.0013
2519.00,0.0013
2518.00,0.0013
2517.00,0.0013
2516.00,0.0012
2515.00,0.0012
2514.00,0.0012
2513.00,0.0012
2512.00,0.0012
2511.00,0.0012
2510.00,0.0011
2509.00,0.0010
2508.00,0.0009
2507.00,0.0010
2506.00,0.0010
2505.00,0.0011
2504.00,0.0012
2503.00,0.0012
2502.00,0.0012
2501.00,0.0012
2500.00,0.0012
2499.00,0.0012
2498.00,0.0012
2497.00,0.0012
2496.00,0.0013
2495.00,0.0013
2494.00,0.0013
2493.00,0.0013
2492.00,0.0012
2491.00,0.0012
2490.00,0.0011
2489.00,0.0011
2488.00,0.0011
2487.00,0.0011
2486.00,0.0011
2485.00,0.0011
2484.00,0.0011
2483.00,0.0010
2482.00,0.0010
2481.00,0.0010
2480.00,0.0010
2479.00,0.0010
2478.00,0.0009
2477.00,0.0009
2476.00,0.0009
2475.00,0.0010
2474.00,0.0009
2473.00,0.0009
2472.00,0.0009
2471.00,0.0009
2470.00,0.0009
2469.00,0.0010
2468.00,0.0010
2467.00,0.0010
2466.00,0.0010
2465.00,0.0010
2464.00,0.0011
2463.00,0.0011
2462.00,0.0011
2461.00,0.0012
2460.00,0.0012
2459.00,0.0012
2458.00,0.0012
2457.00,0.0012
2456.00,0.0012
2455.00,0.0012
2454.00,0.0011
2453.00,0.0011
2452.00,0.0011
2451.00,0.0011
2450.00,0.0012
2449.00,0.0013
2448.00,0.0013
2447.00,0.0012
2446.00,0.0011
2445.00,0.0011
2444.00,0.0011
2443.00,0.0011
2442.00,0.0012
2441.00,0.0012
2440.00,0.0013
2439.00,0.0013
2438.00,0.0013
2437.00,0.0012
2436.00,0.0012
2435.00,0.0012
2434.00,0.0012
2433.00,0.0012
2432.00,0.0012
2431.00,0.0012
2430.00,0.0012
2429.00,0.0013
2428.00,0.0013
2427.00,0.0012
2426.00,0.0012
2425.00,0.0012
2424.00,0.0012
2423.00,0.0012
2422.00,0.0012
2421.00,0.0012
2420.00,0.0011
2419.00,0.0011
2418.00,0.0011
2417.00,0.0011
2416.00,0.0010
2415.00,0.0010
2414.00,0.0011
2413.00,0.0011
2412.00,0.0011
2411.00,0.0012
2410.00,0.0012
2409.00,0.0012
2408.00,0.0011
2407.00,0.0010
2406.00,0.0010
2405.00,0.0010
2404.00,0.0010
2403.00,0.0010
2402.00,0.0010
2401.00,0.0010
2400.00,0.0010
2399.00,0.0010
2398.00,0.0010
2397.00,0.0010
2396.00,0.0010
2395.00,0.0009
2394.00,0.0009
2393.00,0.0009
2392.00,0.0008
2391.00,0.0008
2390.00,0.0007
2389.00,0.0007
2388.00,0.0006
2387.00,0.0005
2386.00,0.0005
2385.00,0.0005
2384.00,0.0004
2383.00,0.0003
2382.00,0.0002
2381.00,0.0002
2380.00,0.0001
2379.00,0.0002
2378.00,0.0002
2377.00,0.0003
2376.00,0.0003
2375.00,0.0003
2374.00,0.0003
2373.00,0.0003
2372.00,0.0003
2371.00,0.0002
2370.00,0.0002
2369.00,0.0001
2368.00,0.0001
2367.00,0.0001
2366.00,0.0002
2365.00,0.0003
2364.00,0.0003
2363.00,0.0003
2362.00,0.0003
2361.00,0.0003
2360.00,0.0002
2359.00,0.0002
2358.00,0.0002
2357.00,0.0002
2356.00,0.0003
2355.00,0.0004
2354.00,0.0004
2353.00,0.0004
2352.00,0.0004
2351.00,0.0003
2350.00,0.0003
2349.00,0.0003
2348.00,0.0003
2347.00,0.0003
2346.00,0.0004
2345.00,0.0004
2344.00,0.0004
2343.00,0.0004
2342.00,0.0005
2341.00,0.0005
2340.00,0.0005
2339.00,0.0005
2338.00,0.0005
2337.00,0.0004
2336.00,0.0004
2335.00,0.0005
2334.00,0.0005
2333.00,0.0005
2332.00,0.0004
2331.00,0.0003
2330.00,0.0003
2329.00,0.0003
2328.00,0.0005
2327.00,0.0008
2326.00,0.0013
2325.00,0.0017
2324.00,0.0020
2323.00,0.0020
2322.00,0.0019
2321.00,0.0017
2320.00,0.0015
2319.00,0.0014
2318.00,0.0013
2317.00,0.0012
2316.00,0.0011
2315.00,0.0010
2314.00,0.0009
2313.00,0.0008
2312.00,0.0007
2311.00,0.0007
2310.00,0.0007
2309.00,0.0007
2308.00,0.0008
2307.00,0.0008
2306.00,0.0008
2305.00,0.0008
2304.00,0.0008
2303.00,0.0008
2302.00,0.0009
2301.00,0.0010
2300.00,0.0011
2299.00,0.0011
2298.00,0.0012
2297.00,0.0012
2296.00,0.0013
2295.00,0.0013
2294.00,0.0013
2293.00,0.0014
2292.00,0.0015
2291.00,0.0015
2290.00,0.0016
2289.00,0.0016
2288.00,0.0016
2287.00,0.0017
2286.00,0.0017
2285.00,0.0017
2284.00,0.0017
2283.00,0.0017
2282.00,0.0017
2281.00,0.0016
2280.00,0.0016
2279.00,0.0015
2278.00,0.0015
2277.00,0.0014
2276.00,0.0014
2275.00,0.0015
2274.00,0.0015
2273.00,0.0016
2272.00,0.0017
2271.00,0.0017
2270.00,0.0017
2269.00,0.0017
2268.00,0.0016
2267.00,0.0016
2266.00,0.0015
2265.00,0.0014
2264.00,0.0014
2263.00,0.0014
2262.00,0.0015
2261.00,0.0016
2260.00,0.0016
2259.00,0.0016
2258.00,0.0015
2257.00,0.0014
2256.00,0.0012
2255.00,0.0010
2254.00,0.0009
2253.00,0.0009
2252.00,0.0009
2251.00,0.0008
2250.00,0.0007
2249.00,0.0007
2248.00,0.0008
2247.00,0.0010
2246.00,0.0011
2245.00,0.0011
2244.00,0.0010
2243.00,0.0010
2242.00,0.0009
2241.00,0.0010
2240.00,0.0010
2239.00,0.0010
2238.00,0.0010
2237.00,0.0010
2236.00,0.0010
2235.00,0.0010
2234.00,0.0011
2233.00,0.0011
2232.00,0.0011
2231.00,0.0011
2230.00,0.0010
2229.00,0.0008
2228.00,0.0007
2227.00,0.0006
2226.00,0.0006
2225.00,0.0006
2224.00,0.0007
2223.00,0.0008
2222.00,0.0009
2221.00,0.0010
2220.00,0.0012
2219.00,0.0012
2218.00,0.0011
2217.00,0.0009
2216.00,0.0008
2215.00,0.0008
2214.00,0.0009
2213.00,0.0009
2212.00,0.0008
2211.00,0.0008
2210.00,0.0007
2209.00,0.0006
2208.00,0.0005
2207.00,0.0003
2206.00,0.0003
2205.00,0.0003
2204.00,0.0004
2203.00,0.0005
2202.00,0.0007
2201.00,0.0008
2200.00,0.0010
2199.00,0.0011
2198.00,0.0010
2197.00,0.0009
2196.00,0.0007
2195.00,0.0006
2194.00,0.0007
2193.00,0.0009
2192.00,0.0011
2191.00,0.0012
2190.00,0.0011
2189.00,0.0009
2188.00,0.0009
2187.00,0.0010
2186.00,0.0012
2185.00,0.0013
2184.00,0.0013
2183.00,0.0011
2182.00,0.0008
2181.00,0.0006
2180.00,0.0005
2179.00,0.0005
2178.00,0.0007
2177.00,0.0008
2176.00,0.0008
2175.00,0.0007
2174.00,0.0005
2173.00,0.0005
2172.00,0.0005
2171.00,0.0006
2170.00,0.0008
2169.00,0.0010
2168.00,0.0011
2167.00,0.0012
2166.00,0.0013
2165.00,0.0014
2164.00,0.0018
2163.00,0.0022
2162.00,0.0024
2161.00,0.0021
2160.00,0.0009
2159.00,-0.0010
2158.00,-0.0026
2157.00,-0.0033
2156.00,-0.0033
2155.00,-0.0029
2154.00,-0.0025
2153.00,-0.0021
2152.00,-0.0019
2151.00,-0.0017
2150.00,-0.0015
2149.00,-0.0014
2148.00,-0.0014
2147.00,-0.0015
2146.00,-0.0017
2145.00,-0.0018
2144.00,-0.0017
2143.00,-0.0015
2142.00,-0.0014
2141.00,-0.0013
2140.00,-0.0012
2139.00,-0.0011
2138.00,-0.0010
2137.00,-0.0010
2136.00,-0.0012
2135.00,-0.0016
2134.00,-0.0019
2133.00,-0.0020
2132.00,-0.0019
2131.00,-0.0017
2130.00,-0.0016
2129.00,-0.0014
2128.00,-0.0012
2127.00,-0.0010
2126.00,-0.0008
2125.00,-0.0006
2124.00,-0.0004
2123.00,-0.0003
2122.00,-0.0003
2121.00,-0.0003
2120.00,-0.0003
2119.00,-0.0002
2118.00,-0.0001
2117.00,-0.0000
2116.00,0.0001
2115.00,0.0002
2114.00,0.0001
2113.00,0.0000
2112.00,0.0000
2111.00,0.0001
2110.00,0.0002
2109.00,0.0003
2108.00,0.0004
2107.00,0.0004
2106.00,0.0003
2105.00,0.0002
2104.00,0.0001
2103.00,0.0001
2102.00,0.0001
2101.00,0.0001
2100.00,0.0002
2099.00,0.0002
2098.00,0.0002
2097.00,0.0001
2096.00,-0.0001
2095.00,-0.0002
2094.00,-0.0003
2093.00,-0.0003
2092.00,-0.0002
2091.00,-0.0001
2090.00,-0.0000
2089.00,-0.0000
2088.00,-0.0001
2087.00,-0.0000
2086.00,0.0001
2085.00,0.0003
2084.00,0.0004
2083.00,0.0005
2082.00,0.0005
2081.00,0.0004
2080.00,0.0003
2079.00,0.0001
2078.00,-0.0000
2077.00,-0.0000
2076.00,0.0000
2075.00,0.0001
2074.00,0.0002
2073.00,0.0003
2072.00,0.0003
2071.00,0.0003
2070.00,0.0003
2069.00,0.0002
2068.00,0.0002
2067.00,0.0001
2066.00,-0.0000
2065.00,-0.0001
2064.00,-0.0003
2063.00,-0.0005
2062.00,-0.0005
2061.00,-0.0004
2060.00,-0.0002
2059.00,-0.0000
2058.00,0.0001
2057.00,0.0001
2056.00,0.0001
2055.00,0.0001
2054.00,0.0002
2053.00,0.0007
2052.00,0.0012
2051.00,0.0016
2050.00,0.0014
2049.00,0.0010
2048.00,0.0004
2047.00,-0.0000
2046.00,-0.0002
2045.00,-0.0001
2044.00,0.0001
2043.00,0.0004
2042.00,0.0007
2041.00,0.0008
2040.00,0.0007
2039.00,0.0007
2038.00,0.0007
2037.00,0.0008
2036.00,0.0008
2035.00,0.0004
2034.00,-0.0001
2033.00,-0.0004
2032.00,-0.0007
2031.00,-0.0008
2030.00,-0.0008
2029.00,-0.0007
2028.00,-0.0005
2027.00,-0.0004
2026.00,-0.0004
2025.00,-0.0005
2024.00,-0.0005
2023.00,-0.0006
2022.00,-0.0007
2021.00,-0.0009
2020.00,-0.0011
2019.00,-0.0012
2018.00,-0.0012
2017.00,-0.0011
2016.00,-0.0010
2015.00,-0.0010
2014.00,-0.0012
2013.00,-0.0012
2012.00,-0.0010
2011.00,-0.0008
2010.00,-0.0007
2009.00,-0.0009
2008.00,-0.0013
2007.00,-0.0017
2006.00,-0.0019
2005.00,-0.0019
2004.00,-0.0017
2003.00,-0.0016
2002.00,-0.0015
2001.00,-0.0014
2000.00,-0.0013
1999.00,-0.0010
1998.00,-0.0007
1997.00,-0.0004
1996.00,-0.0001
1995.00,0.0000
1994.00,-0.0000
1993.00,-0.0002
1992.00,-0.0003
1991.00,-0.0004
1990.00,-0.0002
1989.00,0.0000
1988.00,0.0003
1987.00,0.0004
1986.00,0.0004
1985.00,0.0004
1984.00,0.0003
1983.00,0.0003
1982.00,0.0005
1981.00,0.0007
1980.00,0.0009
1979.00,0.0009
1978.00,0.0005
1977.00,-0.0001
1976.00,-0.0006
1975.00,-0.0009
1974.00,-0.0011
1973.00,-0.0012
1972.00,-0.0013
1971.00,-0.0014
1970.00,-0.0013
1969.00,-0.0011
1968.00,-0.0010
1967.00,-0.0010
1966.00,-0.0011
1965.00,-0.0012
1964.00,-0.0013
1963.00,-0.0014
1962.00,-0.0015
1961.00,-0.0015
1960.00,-0.0015
1959.00,-0.0016
1958.00,-0.0017
1957.00,-0.0017
1956.00,-0.0015
1955.00,-0.0014
1954.00,-0.0013
1953.00,-0.0013
1952.00,-0.0014
1951.00,-0.0015
1950.00,-0.0014
1949.00,-0.0013
1948.00,-0.0011
1947.00,-0.0010
1946.00,-0.0010
1945.00,-0.0011
1944.00,-0.0011
1943.00,-0.0012
1942.00,-0.0012
1941.00,-0.0012
1940.00,-0.0012
1939.00,-0.0012
1938.00,-0.0012
1937.00,-0.0011
1936.00,-0.0010
1935.00,-0.0010
1934.00,-0.0009
1933.00,-0.0008
1932.00,-0.0007
1931.00,-0.0007
1930.00,-0.0007
1929.00,-0.0007
1928.00,-0.0007
1927.00,-0.0007
1926.00,-0.0007
1925.00,-0.0006
1924.00,-0.0005
1923.00,-0.0005
1922.00,-0.0004
1921.00,-0.0004
1920.00,-0.0004
1919.00,-0.0004
1918.00,-0.0004
1917.00,-0.0004
1916.00,-0.0004
1915.00,-0.0004
1914.00,-0.0004
1913.00,-0.0004
1912.00,-0.0004
1911.00,-0.0005
1910.00,-0.0005
1909.00,-0.0005
1908.00,-0.0004
1907.00,-0.0004
1906.00,-0.0004
1905.00,-0.0003
1904.00,-0.0002
1903.00,-0.0001
1902.00,-0.0002
1901.00,-0.0003
1900.00,-0.0003
1899.00,-0.0004
1898.00,-0.0003
1897.00,-0.0002
1896.00,-0.0001
1895.00,0.0000
1894.00,0.0001
1893.00,0.0001
1892.00,0.0001
1891.00,0.0000
1890.00,-0.0000
1889.00,-0.0000
1888.00,-0.0000
1887.00,-0.0000
1886.00,-0.0000
1885.00,-0.0000
1884.00,-0.0000
1883.00,-0.0001
1882.00,-0.0001
1881.00,-0.0000
1880.00,0.0000
1879.00,0.0000
1878.00,-0.0000
1877.00,-0.0001
1876.00,-0.0002
1875.00,-0.0002
1874.00,-0.0003
1873.00,-0.0003
1872.00,-0.0002
1871.00,-0.0002
1870.00,-0.0002
1869.00,-0.0002
1868.00,-0.0002
1867.00,-0.0001
1866.00,-0.0001
1865.00,-0.0000
1864.00,0.0000
1863.00,0.0001
1862.00,0.0001
1861.00,0.0001
1860.00,0.0001
1859.00,0.0001
1858.00,0.0001
1857.00,0.0002
1856.00,0.0002
1855.00,0.0002
1854.00,0.0002
1853.00,0.0001
1852.00,0.0001
1851.00,0.0000
1850.00,0.0000
1849.00,0.0001
1848.00,0.0003
1847.00,0.0004
1846.00,0.0004
1845.00,0.0004
1844.00,0.0003
1843.00,0.0003
1842.00,0.0002
1841.00,0.0002
1840.00,0.0002
1839.00,0.0002
1838.00,0.0002
1837.00,0.0003
1836.00,0.0003
1835.00,0.0002
1834.00,0.0002
1833.00,0.0002
1832.00,0.0003
1831.00,0.0003
1830.00,0.0004
1829.00,0.0005
1828.00,0.0005
1827.00,0.0005
1826.00,0.0004
1825.00,0.0004
1824.00,0.0004
1823.00,0.0004
1822.00,0.0003
1821.00,0.0003
1820.00,0.0002
1819.00,0.0002
1818.00,0.0001
1817.00,0.0001
1816.00,0.0001
1815.00,0.0002
1814.00,0.0003
1813.00,0.0003
1812.00,0.0003
1811.00,0.0004
1810.00,0.0004
1809.00,0.0004
1808.00,0.0004
1807.00,0.0004
1806.00,0.0004
1805.00,0.0005
1804.00,0.0005
1803.00,0.0005
1802.00,0.0006
1801.00,0.0006
1800.00,0.0007
1799.00,0.0007
1798.00,0.0006
1797.00,0.0006
1796.00,0.0006
1795.00,0.0006
1794.00,0.0006
1793.00,0.0007
1792.00,0.0007
1791.00,0.0007
1790.00,0.0006
1789.00,0.0006
1788.00,0.0007
1787.00,0.0007
1786.00,0.0007
1785.00,0.0007
1784.00,0.0007
1783.00,0.0008
1782.00,0.0008
1781.00,0.0008
1780.00,0.0008
1779.00,0.0008
1778.00,0.0007
1777.00,0.0007
1776.00,0.0007
1775.00,0.0007
1774.00,0.0007
1773.00,0.0007
1772.00,0.0008
1771.00,0.0009
1770.00,0.0009
1769.00,0.0010
1768.00,0.0010
1767.00,0.0010
1766.00,0.0010
1765.00,0.0011
1764.00,0.0011
1763.00,0.0011
1762.00,0.0012
1761.00,0.0012
1760.00,0.0012
1759.00,0.0011
1758.00,0.0011
1757.00,0.0012
1756.00,0.0012
1755.00,0.0013
1754.00,0.0013
1753.00,0.0013
1752.00,0.0014
1751.00,0.0014
1750.00,0.0015
1749.00,0.0016
1748.00,0.0017
1747.00,0.0017
1746.00,0.0017
1745.00,0.0017
1744.00,0.0017
1743.00,0.0018
1742.00,0.0018
1741.00,0.0019
1740.00,0.0020
1739.00,0.0020
1738.00,0.0020
1737.00,0.0020
1736.00,0.0020
1735.00,0.0020
1734.00,0.0020
1733.00,0.0019
1732.00,0.0020
1731.00,0.0020
1730.00,0.0020
1729.00,0.0021
1728.00,0.0021
1727.00,0.0020
1726.00,0.0019
1725.00,0.0019
1724.00,0.0019
1723.00,0.0020
1722.00,0.0020
1721.00,0.0021
1720.00,0.0022
1719.00,0.0022
1718.00,0.0022
1717.00,0.0022
1716.00,0.0022
1715.00,0.0023
1714.00,0.0023
1713.00,0.0023
1712.00,0.0023
1711.00,0.0024
1710.00,0.0024
1709.00,0.0024
1708.00,0.0025
1707.00,0.0026
1706.00,0.0026
1705.00,0.0027
1704.00,0.0028
1703.00,0.0028
1702.00,0.0028
1701.00,0.0028
1700.00,0.0029
1699.00,0.0029
1698.00,0.0030
1697.00,0.0031
1696.00,0.0032
1695.00,0.0034
1694.00,0.0034
1693.00,0.0034
1692.00,0.0035
1691.00,0.0036
1690.00,0.0036
1689.00,0.0038
1688.00,0.0039
1687.00,0.0040
1686.00,0.0041
1685.00,0.0043
1684.00,0.0044
1683.00,0.0045
1682.00,0.0045
1681.00,0.0045
1680.00,0.0046
1679.00,0.0046
1678.00,0.0047
1677.00,0.0048
1676.00,0.0049
1675.00,0.0050
1674.00,0.0051
1673.00,0.0051
1672.00,0.0052
1671.00,0.0052
1670.00,0.0053
1669.00,0.0054
1668.00,0.0055
1667.00,0.0056
1666.00,0.0056
1665.00,0.0057
1664.00,0.0057
1663.00,0.0057
1662.00,0.0058
1661.00,0.0059
1660.00,0.0060
1659.00,0.0060
1658.00,0.0061
1657.00,0.0062
1656.00,0.0064
1655.00,0.0066
1654.00,0.0068
1653.00,0.0070
1652.00,0.0070
1651.00,0.0070
1650.00,0.0070
1649.00,0.0071
1648.00,0.0073
1647.00,0.0074
1646.00,0.0075
1645.00,0.0074
1644.00,0.0073
1643.00,0.0072
1642.00,0.0071
1641.00,0.0071
1640.00,0.0070
1639.00,0.0070
1638.00,0.0069
1637.00,0.0069
1636.00,0.0069
1635.00,0.0070
1634.00,0.0070
1633.00,0.0071
1632.00,0.0070
1631.00,0.0070
1630.00,0.0070
1629.00,0.0070
1628.00,0.0070
1627.00,0.0070
1626.00,0.0069
1625.00,0.0069
1624.00,0.0068
1623.00,0.0067
1622.00,0.0066
1621.00,0.0065
1620.00,0.0064
1619.00,0.0063
1618.00,0.0063
1617.00,0.0062
1616.00,0.0062
1615.00,0.0061
1614.00,0.0061
1613.00,0.0061
1612.00,0.0060
1611.00,0.0060
1610.00,0.0059
1609.00,0.0059
1608.00,0.0058
1607.00,0.0058
1606.00,0.0058
1605.00,0.0059
1604.00,0.0059
1603.00,0.0059
1602.00,0.0059
1601.00,0.0059
1600.00,0.0059
1599.00,0.0059
1598.00,0.0059
1597.00,0.0059
1596.00,0.0059
1595.00,0.0060
1594.00,0.0061
1593.00,0.0062
1592.00,0.0063
1591.00,0.0064
1590.00,0.0065
1589.00,0.0066
1588.00,0.0068
1587.00,0.0069
1586.00,0.0072
1585.00,0.0075
1584.00,0.0078
1583.00,0.0082
1582.00,0.0086
1581.00,0.0091
1580.00,0.0095
1579.00,0.0098
1578.00,0.0100
1577.00,0.0102
1576.00,0.0101
1575.00,0.0099
1574.00,0.0097
1573.00,0.0094
1572.00,0.0091
1571.00,0.0088
1570.00,0.0084
1569.00,0.0080
1568.00,0.0078
1567.00,0.0075
1566.00,0.0074
1565.00,0.0073
1564.00,0.0072
1563.00,0.0072
1562.00,0.0073
1561.00,0.0074
1560.00,0.0075
1559.00,0.0075
1558.00,0.0075
1557.00,0.0075
1556.00,0.0076
1555.00,0.0077
1554.00,0.0077
1553.00,0.0079
1552.00,0.0080
1551.00,0.0082
1550.00,0.0084
1549.00,0.0087
1548.00,0.0090
1547.00,0.0093
1546.00,0.0097
1545.00,0.0101
1544.00,0.0105
1543.00,0.0109
1542.00,0.0113
1541.00,0.0115
1540.00,0.0114
1539.00,0.0109
1538.00,0.0104
1537.00,0.0101
1536.00,0.0097
1535.00,0.0093
1534.00,0.0088
1533.00,0.0083
1532.00,0.0080
1531.00,0.0076
1530.00,0.0074
1529.00,0.0073
1528.00,0.0072
1527.00,0.0070
1526.00,0.0069
1525.00,0.0068
1524.00,0.0068
1523.00,0.0068
1522.00,0.0067
1521.00,0.0068
1520.00,0.0068
1519.00,0.0068
1518.00,0.0068
1517.00,0.0068
1516.00,0.0069
1515.00,0.0069
1514.00,0.0069
1513.00,0.0069
1512.00,0.0070
1511.00,0.0070
1510.00,0.0070
1509.00,0.0071
1508.00,0.0072
1507.00,0.0072
1506.00,0.0072
1505.00,0.0073
1504.00,0.0074
1503.00,0.0075
1502.00,0.0077
1501.00,0.0079
1500.00,0.0082
1499.00,0.0084
1498.00,0.0085
1497.00,0.0088
1496.00,0.0092
1495.00,0.0095
1494.00,0.0097
1493.00,0.0100
1492.00,0.0104
1491.00,0.0108
1490.00,0.0112
1489.00,0.0118
1488.00,0.0124
1487.00,0.0129
1486.00,0.0135
1485.00,0.0143
1484.00,0.0152
1483.00,0.0161
1482.00,0.0172
1481.00,0.0185
1480.00,0.0199
1479.00,0.0213
1478.00,0.0228
1477.00,0.0248
1476.00,0.0271
1475.00,0.0296
1474.00,0.0330
1473.00,0.0382
1472.00,0.0446
1471.00,0.0510
1470.00,0.0572
1469.00,0.0637
1468.00,0.0709
1467.00,0.0788
1466.00,0.0878
1465.00,0.0975
1464.00,0.1062
1463.00,0.1125
1462.00,0.1168
1461.00,0.1199
1460.00,0.1222
1459.00,0.1238
1458.00,0.1251
1457.00,0.1262
1456.00,0.1264
1455.00,0.1258
1454.00,0.1248
1453.00,0.1233
1452.00,0.1207
1451.00,0.1167
1450.00,0.1112
1449.00,0.1034
1448.00,0.0937
1447.00,0.0835
1446.00,0.0744
1445.00,0.0667
1444.00,0.0602
1443.00,0.0549
1442.00,0.0511
1441.00,0.0486
1440.00,0.0472
1439.00,0.0469
1438.00,0.0473
1437.00,0.0478
1436.00,0.0469
1435.00,0.0442
1434.00,0.0402
1433.00,0.0353
1432.00,0.0304
1431.00,0.0260
1430.00,0.0228
1429.00,0.0204
1428.00,0.0188
1427.00,0.0178
1426.00,0.0172
1425.00,0.0167
1424.00,0.0163
1423.00,0.0160
1422.00,0.0159
1421.00,0.0156
1420.00,0.0153
1419.00,0.0150
1418.00,0.0148
1417.00,0.0144
1416.00,0.0140
1415.00,0.0138
1414.00,0.0136
1413.00,0.0133
1412.00,0.0131
1411.00,0.0129
1410.00,0.0128
1409.00,0.0126
1408.00,0.0124
1407.00,0.0123
1406.00,0.0122
1405.00,0.0121
1404.00,0.0119
1403.00,0.0118
1402.00,0.0118
1401.00,0.0117
1400.00,0.0117
1399.00,0.0117
1398.00,0.0118
1397.00,0.0119
1396.00,0.0120
1395.00,0.0123
1394.00,0.0128
1393.00,0.0132
1392.00,0.0138
1391.00,0.0147
1390.00,0.0159
1389.00,0.0177
1388.00,0.0204
1387.00,0.0243
1386.00,0.0295
1385.00,0.0360
1384.00,0.0445
1383.00,0.0560
1382.00,0.0713
1381.00,0.0911
1380.00,0.1159
1379.00,0.1448
1378.00,0.1739
1377.00,0.1966
1376.00,0.2064
1375.00,0.1987
1374.00,0.1754
1373.00,0.1455
1372.00,0.1173
1371.00,0.0936
1370.00,0.0747
1369.00,0.0603
1368.00,0.0504
1367.00,0.0444
1366.00,0.0412
1365.00,0.0400
1364.00,0.0404
1363.00,0.0420
1362.00,0.0445
1361.00,0.0471
1360.00,0.0491
1359.00,0.0497
1358.00,0.0485
1357.00,0.0455
1356.00,0.0414
1355.00,0.0367
1354.00,0.0323
1353.00,0.0284
1352.00,0.0253
1351.00,0.0228
1350.00,0.0209
1349.00,0.0193
1348.00,0.0180
1347.00,0.0170
1346.00,0.0162
1345.00,0.0156
1344.00,0.0150
1343.00,0.0146
1342.00,0.0143
1341.00,0.0140
1340.00,0.0138
1339.00,0.0136
1338.00,0.0135
1337.00,0.0134
1336.00,0.0135
1335.00,0.0138
1334.00,0.0141
1333.00,0.0146
1332.00,0.0150
1331.00,0.0154
1330.00,0.0156
1329.00,0.0154
1328.00,0.0150
1327.00,0.0144
1326.00,0.0138
1325.00,0.0131
1324.00,0.0124
1323.00,0.0118
1322.00,0.0114
1321.00,0.0110
1320.00,0.0108
1319.00,0.0106
1318.00,0.0103
1317.00,0.0101
1316.00,0.0099
1315.00,0.0097
1314.00,0.0096
1313.00,0.0095
1312.00,0.0096
1311.00,0.0099
1310.00,0.0103
1309.00,0.0109
1308.00,0.0117
1307.00,0.0127
1306.00,0.0138
1305.00,0.0145
1304.00,0.0148
1303.00,0.0147
1302.00,0.0144
1301.00,0.0141
1300.00,0.0139
1299.00,0.0139
1298.00,0.0140
1297.00,0.0140
1296.00,0.0139
1295.00,0.0136
1294.00,0.0131
1293.00,0.0126
1292.00,0.0120
1291.00,0.0114
1290.00,0.0109
1289.00,0.0104
1288.00,0.0100
1287.00,0.0096
1286.00,0.0094
1285.00,0.0091
1284.00,0.0089
1283.00,0.0087
1282.00,0.0086
1281.00,0.0084
1280.00,0.0083
1279.00,0.0081
1278.00,0.0080
1277.00,0.0079
1276.00,0.0078
1275.00,0.0077
1274.00,0.0076
1273.00,0.0076
1272.00,0.0075
1271.00,0.0075
1270.00,0.0076
1269.00,0.0076
1268.00,0.0077
1267.00,0.0078
1266.00,0.0080
1265.00,0.0081
1264.00,0.0083
1263.00,0.0085
1262.00,0.0088
1261.00,0.0093
1260.00,0.0098
1259.00,0.0105
1258.00,0.0111
1257.00,0.0115
1256.00,0.0116
1255.00,0.0114
1254.00,0.0108
1253.00,0.0101
1252.00,0.0094
1251.00,0.0089
1250.00,0.0085
1249.00,0.0083
1248.00,0.0081
1247.00,0.0080
1246.00,0.0079
1245.00,0.0078
1244.00,0.0078
1243.00,0.0078
1242.00,0.0077
1241.00,0.0077
1240.00,0.0077
1239.00,0.0077
1238.00,0.0078
1237.00,0.0078
1236.00,0.0078
1235.00,0.0078
1234.00,0.0078
1233.00,0.0079
1232.00,0.0080
1231.00,0.0081
1230.00,0.0082
1229.00,0.0084
1228.00,0.0086
1227.00,0.0088
1226.00,0.0091
1225.00,0.0094
1224.00,0.0098
1223.00,0.0102
1222.00,0.0106
1221.00,0.0109
1220.00,0.0111
1219.00,0.0112
1218.00,0.0113
1217.00,0.0112
1216.00,0.0110
1215.00,0.0108
1214.00,0.0105
1213.00,0.0101
1212.00,0.0098
1211.00,0.0095
1210.00,0.0092
1209.00,0.0090
1208.00,0.0089
1207.00,0.0088
1206.00,0.0087
1205.00,0.0086
1204.00,0.0085
1203.00,0.0084
1202.00,0.0084
1201.00,0.0083
1200.00,0.0083
1199.00,0.0083
1198.00,0.0083
1197.00,0.0083
1196.00,0.0083
1195.00,0.0083
1194.00,0.0083
1193.00,0.0083
1192.00,0.0083
1191.00,0.0082
1190.00,0.0081
1189.00,0.0080
1188.00,0.0079
1187.00,0.0078
1186.00,0.0078
1185.00,0.0078
1184.00,0.0079
1183.00,0.0079
1182.00,0.0079
1181.00,0.0081
1180.00,0.0083
1179.00,0.0086
1178.00,0.0092
1177.00,0.0099
1176.00,0.0109
1175.00,0.0122
1174.00,0.0139
1173.00,0.0160
1172.00,0.0186
1171.00,0.0215
1170.00,0.0242
1169.00,0.0265
1168.00,0.0279
1167.00,0.0283
1166.00,0.0277
1165.00,0.0265
1164.00,0.0250
1163.00,0.0235
1162.00,0.0221
1161.00,0.0208
1160.00,0.0198
1159.00,0.0190
1158.00,0.0183
1157.00,0.0178
1156.00,0.0175
1155.00,0.0173
1154.00,0.0172
1153.00,0.0170
1152.00,0.0166
1151.00,0.0160
1150.00,0.0151
1149.00,0.0142
1148.00,0.0134
1147.00,0.0125
1146.00,0.0118
1145.00,0.0111
1144.00,0.0105
1143.00,0.0100
1142.00,0.0094
1141.00,0.0089
1140.00,0.0085
1139.00,0.0081
1138.00,0.0078
1137.00,0.0076
1136.00,0.0074
1135.00,0.0074
1134.00,0.0073
1133.00,0.0072
1132.00,0.0072
1131.00,0.0072
1130.00,0.0073
1129.00,0.0075
1128.00,0.0076
1127.00,0.0078
1126.00,0.0079
1125.00,0.0080
1124.00,0.0081
1123.00,0.0081
1122.00,0.0081
1121.00,0.0081
1120.00,0.0081
1119.00,0.0082
1118.00,0.0083
1117.00,0.0084
1116.00,0.0086
1115.00,0.0088
1114.00,0.0092
1113.00,0.0095
1112.00,0.0098
1111.00,0.0101
1110.00,0.0104
1109.00,0.0109
1108.00,0.0115
1107.00,0.0121
1106.00,0.0128
1105.00,0.0135
1104.00,0.0141
1103.00,0.0145
1102.00,0.0145
1101.00,0.0141
1100.00,0.0135
1099.00,0.0128
1098.00,0.0120
1097.00,0.0113
1096.00,0.0107
1095.00,0.0101
1094.00,0.0096
1093.00,0.0092
1092.00,0.0089
1091.00,0.0086
1090.00,0.0084
1089.00,0.0081
1088.00,0.0079
1087.00,0.0076
1086.00,0.0075
1085.00,0.0074
1084.00,0.0073
1083.00,0.0073
1082.00,0.0072
1081.00,0.0071
1080.00,0.0070
1079.00,0.0069
1078.00,0.0067
1077.00,0.0066
1076.00,0.0064
1075.00,0.0064
1074.00,0.0063
1073.00,0.0062
1072.00,0.0062
1071.00,0.0062
1070.00,0.0063
1069.00,0.0065
1068.00,0.0067
1067.00,0.0068
1066.00,0.0069
1065.00,0.0070
1064.00,0.0070
1063.00,0.0071
1062.00,0.0072
1061.00,0.0073
1060.00,0.0075
1059.00,0.0076
1058.00,0.0078
1057.00,0.0078
1056.00,0.0079
1055.00,0.0079
1054.00,0.0080
1053.00,0.0082
1052.00,0.0084
1051.00,0.0086
1050.00,0.0088
1049.00,0.0091
1048.00,0.0095
1047.00,0.0099
1046.00,0.0102
1045.00,0.0104
1044.00,0.0105
1043.00,0.0105
1042.00,0.0105
1041.00,0.0104
1040.00,0.0103
1039.00,0.0103
1038.00,0.0103
1037.00,0.0105
1036.00,0.0106
1035.00,0.0107
1034.00,0.0107
1033.00,0.0105
1032.00,0.0103
1031.00,0.0102
1030.00,0.0102
1029.00,0.0102
1028.00,0.0101
1027.00,0.0100
1026.00,0.0100
1025.00,0.0099
1024.00,0.0099
1023.00,0.0099
1022.00,0.0099
1021.00,0.0100
1020.00,0.0100
1019.00,0.0102
1018.00,0.0104
1017.00,0.0106
1016.00,0.0109
1015.00,0.0111
1014.00,0.0115
1013.00,0.0119
1012.00,0.0122
1011.00,0.0125
1010.00,0.0128
1009.00,0.0130
1008.00,0.0133
1007.00,0.0137
1006.00,0.0144
1005.00,0.0154
1004.00,0.0168
1003.00,0.0188
1002.00,0.0214
1001.00,0.0245
1000.00,0.0278
999.00,0.0304
998.00,0.0317
997.00,0.0310
996.00,0.0287
995.00,0.0253
994.00,0.0217
993.00,0.0185
992.00,0.0160
991.00,0.0142
990.00,0.0129
989.00,0.0121
988.00,0.0116
987.00,0.0113
986.00,0.0112
985.00,0.0112
984.00,0.0114
983.00,0.0120
982.00,0.0130
981.00,0.0145
980.00,0.0166
979.00,0.0193
978.00,0.0226
977.00,0.0264
976.00,0.0304
975.00,0.0341
974.00,0.0368
973.00,0.0375
972.00,0.0359
971.00,0.0323
970.00,0.0277
969.00,0.0230
968.00,0.0189
967.00,0.0156
966.00,0.0132
965.00,0.0114
964.00,0.0102
963.00,0.0092
962.00,0.0085
961.00,0.0078
960.00,0.0073
959.00,0.0068
958.00,0.0065
957.00,0.0062
956.00,0.0059
955.00,0.0057
954.00,0.0056
953.00,0.0055
952.00,0.0054
951.00,0.0054
950.00,0.0054
949.00,0.0055
948.00,0.0057
947.00,0.0059
946.00,0.0062
945.00,0.0065
944.00,0.0070
943.00,0.0074
942.00,0.0078
941.00,0.0080
940.00,0.0079
939.00,0.0077
938.00,0.0074
937.00,0.0071
936.00,0.0068
935.00,0.0066
934.00,0.0064
933.00,0.0063
932.00,0.0061
931.00,0.0060
930.00,0.0060
929.00,0.0059
928.00,0.0059
927.00,0.0060
926.00,0.0061
925.00,0.0062
924.00,0.0063
923.00,0.0063
922.00,0.0064
921.00,0.0065
920.00,0.0067
919.00,0.0070
918.00,0.0072
917.00,0.0073
916.00,0.0074
915.00,0.0075
914.00,0.0075
913.00,0.0075
912.00,0.0075
911.00,0.0075
910.00,0.0077
909.00,0.0079
908.00,0.0082
907.00,0.0087
906.00,0.0095
905.00,0.0106
904.00,0.0122
903.00,0.0142
902.00,0.0165
901.00,0.0186
900.00,0.0200
899.00,0.0205
898.00,0.0198
897.00,0.0182
896.00,0.0160
895.00,0.0138
894.00,0.0119
893.00,0.0105
892.00,0.0096
891.00,0.0091
890.00,0.0087
889.00,0.0083
888.00,0.0080
887.00,0.0077
886.00,0.0076
885.00,0.0075
884.00,0.0075
883.00,0.0075
882.00,0.0076
881.00,0.0076
880.00,0.0076
879.00,0.0076
878.00,0.0075
877.00,0.0075
876.00,0.0075
875.00,0.0077
874.00,0.0077
873.00,0.0077
872.00,0.0077
871.00,0.0076
870.00,0.0077
869.00,0.0078
868.00,0.0078
867.00,0.0078
866.00,0.0078
865.00,0.0079
864.00,0.0080
863.00,0.0081
862.00,0.0082
861.00,0.0082
860.00,0.0084
859.00,0.0086
858.00,0.0088
857.00,0.0089
856.00,0.0089
855.00,0.0089
854.00,0.0090
853.00,0.0092
852.00,0.0096
851.00,0.0101
850.00,0.0106
849.00,0.0112
848.00,0.0121
847.00,0.0133
846.00,0.0153
845.00,0.0183
844.00,0.0222
843.00,0.0263
842.00,0.0293
841.00,0.0299
840.00,0.0278
839.00,0.0241
838.00,0.0203
837.00,0.0172
836.00,0.0151
835.00,0.0138
834.00,0.0129
833.00,0.0124
832.00,0.0120
831.00,0.0117
830.00,0.0115
829.00,0.0113
828.00,0.0111
827.00,0.0109
826.00,0.0110
825.00,0.0111
824.00,0.0112
823.00,0.0111
822.00,0.0111
821.00,0.0112
820.00,0.0114
819.00,0.0117
818.00,0.0120
817.00,0.0125
816.00,0.0132
815.00,0.0143
814.00,0.0159
813.00,0.0177
812.00,0.0196
811.00,0.0213
810.00,0.0226
809.00,0.0232
808.00,0.0230
807.00,0.0220
806.00,0.0206
805.00,0.0189
804.00,0.0171
803.00,0.0156
802.00,0.0143
801.00,0.0133
800.00,0.0125
799.00,0.0120
798.00,0.0114
797.00,0.0109
796.00,0.0104
795.00,0.0101
794.00,0.0098
793.00,0.0095
792.00,0.0092
791.00,0.0089
790.00,0.0087
789.00,0.0086
788.00,0.0085
787.00,0.0084
786.00,0.0082
785.00,0.0080
784.00,0.0077
783.00,0.0074
782.00,0.0073
781.00,0.0072
780.00,0.0071
779.00,0.0071
778.00,0.0070
777.00,0.0070
776.00,0.0070
775.00,0.0071
774.00,0.0072
773.00,0.0075
772.00,0.0079
771.00,0.0083
770.00,0.0086
769.00,0.0087
768.00,0.0087
767.00,0.0086
766.00,0.0085
765.00,0.0084
764.00,0.0082
763.00,0.0080
762.00,0.0077
761.00,0.0073
760.00,0.0070
759.00,0.0068
758.00,0.0067
757.00,0.0066
756.00,0.0065
755.00,0.0063
754.00,0.0061
753.00,0.0060
752.00,0.0060
751.00,0.0060
750.00,0.0060
749.00,0.0060
748.00,0.0059
747.00,0.0059
746.00,0.0059
745.00,0.0061
744.00,0.0062
743.00,0.0063
742.00,0.0064
741.00,0.0065
740.00,0.0067
739.00,0.0070
738.00,0.0072
737.00,0.0073
736.00,0.0074
735.00,0.0075
734.00,0.0075
733.00,0.0076
732.00,0.0076
731.00,0.0076
730.00,0.0076
729.00,0.0076
728.00,0.0076
727.00,0.0077
726.00,0.0079
725.00,0.0081
724.00,0.0081
723.00,0.0080
722.00,0.0078
721.00,0.0076
720.00,0.0074
719.00,0.0073
718.00,0.0072
717.00,0.0072
716.00,0.0071
715.00,0.0070
714.00,0.0069
713.00,0.0069
712.00,0.0069
711.00,0.0068
710.00,0.0067
709.00,0.0067
708.00,0.0067
707.00,0.0068
706.00,0.0069
705.00,0.0070
704.00,0.0069
703.00,0.0067
702.00,0.0066
701.00,0.0064
700.00,0.0064
699.00,0.0064
698.00,0.0065
697.00,0.0068
696.00,0.0069
695.00,0.0069
694.00,0.0067
693.00,0.0065
692.00,0.0064
691.00,0.0064
690.00,0.0065
689.00,0.0066
688.00,0.0066
687.00,0.0064
686.00,0.0063
685.00,0.0063
684.00,0.0064
683.00,0.0066
682.00,0.0067
681.00,0.0065
680.00,0.0063
679.00,0.0061
678.00,0.0061
677.00,0.0062
676.00,0.0065
675.00,0.0067
674.00,0.0068
673.00,0.0068
672.00,0.0067
671.00,0.0068
670.00,0.0070
669.00,0.0074
668.00,0.0079
667.00,0.0078
666.00,0.0073
665.00,0.0068
664.00,0.0066
663.00,0.0065
662.00,0.0065
661.00,0.0065
660.00,0.0065
659.00,0.0065
658.00,0.0065
657.00,0.0064
656.00,0.0062
655.00,0.0059
654.00,0.0059
653.00,0.0060
652.00,0.0062
651.00,0.0064
650.00,0.0064
649.00,0.0064
648.00,0.0063
647.00,0.0062
646.00,0.0062
645.00,0.0062
644.00,0.0062
643.00,0.0063
642.00,0.0064
641.00,0.0066
640.00,0.0068
639.00,0.0070
638.00,0.0072
637.00,0.0071
636.00,0.0070
635.00,0.0069
634.00,0.0068
633.00,0.0068
632.00,0.0069
631.00,0.0069
630.00,0.0069
629.00,0.0070
628.00,0.0071
627.00,0.0071
626.00,0.0071
625.00,0.0071
624.00,0.0070
623.00,0.0070
622.00,0.0069
621.00,0.0068
620.00,0.0068
619.00,0.0068
618.00,0.0069
617.00,0.0069
616.00,0.0069
615.00,0.0069
614.00,0.0069
613.00,0.0069
612.00,0.0070
611.00,0.0070
610.00,0.0071
609.00,0.0072
608.00,0.0073
607.00,0.0074
606.00,0.0075
605.00,0.0077
604.00,0.0077
603.00,0.0076
602.00,0.0074
601.00,0.0071
600.00,0.0069
599.00,0.0069
598.00,0.0070
597.00,0.0071
596.00,0.0071
595.00,0.0070
594.00,0.0069
593.00,0.0068
592.00,0.0069
591.00,0.0071
590.00,0.0072
589.00,0.0073
588.00,0.0073
587.00,0.0072
586.00,0.0072
585.00,0.0072
584.00,0.0072
583.00,0.0073
582.00,0.0073
581.00,0.0072
580.00,0.0070
579.00,0.0069
578.00,0.0069
577.00,0.0071
576.00,0.0074
575.00,0.0076
574.00,0.0075
573.00,0.0071
572.00,0.0067
571.00,0.0064
570.00,0.0064
569.00,0.0067
568.00,0.0070
567.00,0.0073
566.00,0.0074
565.00,0.0074
564.00,0.0073
563.00,0.0074
562.00,0.0076
561.00,0.0077
560.00,0.0078
559.00,0.0078
558.00,0.0078
557.00,0.0077
556.00,0.0074
555.00,0.0070
554.00,0.0067
553.00,0.0067
552.00,0.0068
551.00,0.0071
550.00,0.0074
549.00,0.0077
548.00,0.0078
547.00,0.0079
546.00,0.0080
545.00,0.0079
544.00,0.0077
543.00,0.0075
542.00,0.0075
541.00,0.0076
540.00,0.0078
539.00,0.0083
538.00,0.0087
537.00,0.0092
536.00,0.0096
535.00,0.0098
534.00,0.0099
533.00,0.0099
532.00,0.0100
531.00,0.0101
530.00,0.0101
529.00,0.0099
528.00,0.0094
527.00,0.0089
526.00,0.0083
525.00,0.0079
524.00,0.0079
523.00,0.0083
522.00,0.0088
521.00,0.0092
520.00,0.0094
519.00,0.0095
518.00,0.0095
517.00,0.0092
516.00,0.0086
515.00,0.0080
514.00,0.0077
513.00,0.0077
512.00,0.0079
511.00,0.0081
510.00,0.0081
509.00,0.0080
508.00,0.0078
507.00,0.0077
506.00,0.0075
505.00,0.0073
504.00,0.0073
503.00,0.0073
502.00,0.0075
501.00,0.0076
500.00,0.0080
499.00,0.0083
498.00,0.0084
497.00,0.0083
496.00,0.0080
495.00,0.0079
494.00,0.0077
493.00,0.0074
492.00,0.0069
491.00,0.0067
490.00,0.0065
489.00,0.0064
488.00,0.0063
487.00,0.0065
486.00,0.0069
485.00,0.0072
484.00,0.0071
483.00,0.0067
482.00,0.0061
481.00,0.0054
480.00,0.0048
479.00,0.0048
478.00,0.0054
477.00,0.0062
476.00,0.0067
475.00,0.0071
474.00,0.0076
473.00,0.0081
472.00,0.0085
471.00,0.0089
470.00,0.0092
469.00,0.0093
468.00,0.0091
467.00,0.0089
466.00,0.0092
465.00,0.0100
464.00,0.0113
463.00,0.0127
462.00,0.0140
461.00,0.0149
460.00,0.0154
459.00,0.0155
458.00,0.0155
457.00,0.0153
456.00,0.0149
455.00,0.0143
454.00,0.0134
453.00,0.0127
452.00,0.0117
451.00,0.0105
450.00,0.0095
