Created as New Dataset,Sample 027 By Administrator Date Friday, September 05 2025
cm-1,A
4000.00,0.0008
3999.00,0.0008
3998.00,0.0008
3997.00,0.0008
3996.00,0.0008
3995.00,0.0008
3994.00,0.0008
3993.00,0.0008
3992.00,0.0007
3991.00,0.0007
3990.00,0.0007
3989.00,0.0007
3988.00,0.0007
3987.00,0.0007
3986.00,0.0007
3985.00,0.0007
3984.00,0.0007
3983.00,0.0007
3982.00,0.0007
3981.00,0.0007
3980.00,0.0007
3979.00,0.0007
3978.00,0.0007
3977.00,0.0007
3976.00,0.0007
3975.00,0.0006
3974.00,0.0006
3973.00,0.0006
3972.00,0.0006
3971.00,0.0006
3970.00,0.0006
3969.00,0.0006
3968.00,0.0006
3967.00,0.0006
3966.00,0.0006
3965.00,0.0007
3964.00,0.0007
3963.00,0.0007
3962.00,0.0007
3961.00,0.0007
3960.00,0.0007
3959.00,0.0007
3958.00,0.0007
3957.00,0.0007
3956.00,0.0007
3955.00,0.0007
3954.00,0.0007
3953.00,0.0006
3952.00,0.0006
3951.00,0.0006
3950.00,0.0007
3949.00,0.0007
3948.00,0.0007
3947.00,0.0006
3946.00,0.0006
3945.00,0.0006
3944.00,0.0007
3943.00,0.0007
3942.00,0.0007
3941.00,0.0007
3940.00,0.0007
3939.00,0.0007
3938.00,0.0006
3937.00,0.0006
3936.00,0.0006
3935.00,0.0006
3934.00,0.0006
3933.00,0.0006
3932.00,0.0007
3931.00,0.0007
3930.00,0.0007
3929.00,0.0007
3928.00,0.0007
3927.00,0.0007
3926.00,0.0007
3925.00,0.0007
3924.00,0.0007
3923.00,0.0007
3922.00,0.0007
3921.00,0.0007
3920.00,0.0008
3919.00,0.0008
3918.00,0.0008
3917.00,0.0008
3916.00,0.0007
3915.00,0.0007
3914.00,0.0007
3913.00,0.0007
3912.00,0.0007
3911.00,0.0007
3910.00,0.0007
3909.00,0.0006
3908.00,0.0007
3907.00,0.0007
3906.00,0.0007
3905.00,0.0007
3904.00,0.0007
3903.00,0.0007
3902.00,0.0007
3901.00,0.0007
3900.00,0.0007
3899.00,0.0007
3898.00,0.0006
3897.00,0.0006
3896.00,0.0006
3895.00,0.0006
3894.00,0.0006
3893.00,0.0006
3892.00,0.0006
3891.00,0.0006
3890.00,0.0007
3889.00,0.0007
3888.00,0.0007
3887.00,0.0007
3886.00,0.0007
3885.00,0.0007
3884.00,0.0006
3883.00,0.0006
3882.00,0.0006
3881.00,0.0006
3880.00,0.0006
3879.00,0.0006
3878.00,0.0006
3877.00,0.0006
3876.00,0.0006
3875.00,0.0006
3874.00,0.0006
3873.00,0.0007
3872.00,0.0007
3871.00,0.0008
3870.00,0.0008
3869.00,0.0008
3868.00,0.0007
3867.00,0.0007
3866.00,0.0006
3865.00,0.0006
3864.00,0.0006
3863.00,0.0006
3862.00,0.0007
3861.00,0.0006
3860.00,0.0006
3859.00,0.0006
3858.00,0.0006
3857.00,0.0006
3856.00,0.0006
3855.00,0.0006
3854.00,0.0006
3853.00,0.0006
3852.00,0.0006
3851.00,0.0006
3850.00,0.0006
3849.00,0.0006
3848.00,0.0006
3847.00,0.0006
3846.00,0.0006
3845.00,0.0006
3844.00,0.0006
3843.00,0.0006
3842.00,0.0006
3841.00,0.0006
3840.00,0.0006
3839.00,0.0006
3838.00,0.0006
3837.00,0.0005
3836.00,0.0005
3835.00,0.0005
3834.00,0.0005
3833.00,0.0006
3832.00,0.0006
3831.00,0.0006
3830.00,0.0006
3829.00,0.0006
3828.00,0.0005
3827.00,0.0005
3826.00,0.0005
3825.00,0.0005
3824.00,0.0006
3823.00,0.0006
3822.00,0.0007
3821.00,0.0007
3820.00,0.0007
3819.00,0.0007
3818.00,0.0007
3817.00,0.0007
3816.00,0.0007
3815.00,0.0007
3814.00,0.0007
3813.00,0.0006
3812.00,0.0006
3811.00,0.0006
3810.00,0.0006
3809.00,0.0007
3808.00,0.0007
3807.00,0.0007
3806.00,0.0007
3805.00,0.0007
3804.00,0.0007
3803.00,0.0007
3802.00,0.0007
3801.00,0.0007
3800.00,0.0007
3799.00,0.0007
3798.00,0.0007
3797.00,0.0007
3796.00,0.0007
3795.00,0.0007
3794.00,0.0006
3793.00,0.0006
3792.00,0.0006
3791.00,0.0006
3790.00,0.0006
3789.00,0.0006
3788.00,0.0006
3787.00,0.0006
3786.00,0.0006
3785.00,0.0006
3784.00,0.0006
3783.00,0.0006
3782.00,0.0006
3781.00,0.0006
3780.00,0.0006
3779.00,0.0006
3778.00,0.0006
3777.00,0.0006
3776.00,0.0006
3775.00,0.0006
3774.00,0.0006
3773.00,0.0006
3772.00,0.0006
3771.00,0.0007
3770.00,0.0007
3769.00,0.0007
3768.00,0.0007
3767.00,0.0007
3766.00,0.0007
3765.00,0.0007
3764.00,0.0007
3763.00,0.0007
3762.00,0.0007
3761.00,0.0007
3760.00,0.0006
3759.00,0.0006
3758.00,0.0006
3757.00,0.0006
3756.00,0.0006
3755.00,0.0006
3754.00,0.0006
3753.00,0.0006
3752.00,0.0007
3751.00,0.0007
3750.00,0.0008
3749.00,0.0008
3748.00,0.0008
3747.00,0.0008
3746.00,0.0008
3745.00,0.0007
3744.00,0.0006
3743.00,0.0006
3742.00,0.0005
3741.00,0.0005
3740.00,0.0005
3739.00,0.0005
3738.00,0.0005
3737.00,0.0005
3736.00,0.0006
3735.00,0.0006
3734.00,0.0007
3733.00,0.0007
3732.00,0.0007
3731.00,0.0006
3730.00,0.0006
3729.00,0.0006
3728.00,0.0006
3727.00,0.0006
3726.00,0.0006
3725.00,0.0006
3724.00,0.0006
3723.00,0.0006
3722.00,0.0005
3721.00,0.0005
3720.00,0.0004
3719.00,0.0004
3718.00,0.0004
3717.00,0.0004
3716.00,0.0004
3715.00,0.0005
3714.00,0.0005
3713.00,0.0006
3712.00,0.0006
3711.00,0.0006
3710.00,0.0006
3709.00,0.0005
3708.00,0.0005
3707.00,0.0004
3706.00,0.0004
3705.00,0.0005
3704.00,0.0005
3703.00,0.0005
3702.00,0.0005
3701.00,0.0005
3700.00,0.0005
3699.00,0.0004
3698.00,0.0004
3697.00,0.0004
3696.00,0.0004
3695.00,0.0005
3694.00,0.0005
3693.00,0.0005
3692.00,0.0005
3691.00,0.0005
3690.00,0.0005
3689.00,0.0005
3688.00,0.0005
3687.00,0.0005
3686.00,0.0005
3685.00,0.0005
3684.00,0.0004
3683.00,0.0004
3682.00,0.0004
3681.00,0.0004
3680.00,0.0004
3679.00,0.0004
3678.00,0.0004
3677.00,0.0004
3676.00,0.0004
3675.00,0.0003
3674.00,0.0003
3673.00,0.0003
3672.00,0.0002
3671.00,0.0002
3670.00,0.0002
3669.00,0.0002
3668.00,0.0002
3667.00,0.0002
3666.00,0.0002
3665.00,0.0002
3664.00,0.0002
3663.00,0.0002
3662.00,0.0002
3661.00,0.0002
3660.00,0.0002
3659.00,0.0002
3658.00,0.0002
3657.00,0.0002
3656.00,0.0002
3655.00,0.0002
3654.00,0.0002
3653.00,0.0002
3652.00,0.0001
3651.00,0.0001
3650.00,0.0002
3649.00,0.0003
3648.00,0.0003
3647.00,0.0003
3646.00,0.0003
3645.00,0.0002
3644.00,0.0002
3643.00,0.0002
3642.00,0.0003
3641.00,0.0003
3640.00,0.0004
3639.00,0.0004
3638.00,0.0004
3637.00,0.0004
3636.00,0.0004
3635.00,0.0004
3634.00,0.0004
3633.00,0.0005
3632.00,0.0005
3631.00,0.0005
3630.00,0.0006
3629.00,0.0006
3628.00,0.0007
3627.00,0.0006
3626.00,0.0006
3625.00,0.0005
3624.00,0.0005
3623.00,0.0005
3622.00,0.0004
3621.00,0.0004
3620.00,0.0004
3619.00,0.0004
3618.00,0.0005
3617.00,0.0005
3616.00,0.0005
3615.00,0.0006
3614.00,0.0006
3613.00,0.0006
3612.00,0.0006
3611.00,0.0006
3610.00,0.0006
3609.00,0.0007
3608.00,0.0007
3607.00,0.0008
3606.00,0.0008
3605.00,0.0008
3604.00,0.0008
3603.00,0.0008
3602.00,0.0008
3601.00,0.0008
3600.00,0.0008
3599.00,0.0008
3598.00,0.0008
3597.00,0.0008
3596.00,0.0009
3595.00,0.0009
3594.00,0.0009
3593.00,0.0009
3592.00,0.0009
3591.00,0.0008
3590.00,0.0008
3589.00,0.0008
3588.00,0.0008
3587.00,0.0008
3586.00,0.0009
3585.00,0.0010
3584.00,0.0010
3583.00,0.0010
3582.00,0.0010
3581.00,0.0009
3580.00,0.0009
3579.00,0.0009
3578.00,0.0009
3577.00,0.0009
3576.00,0.0009
3575.00,0.0010
3574.00,0.0010
3573.00,0.0011
3572.00,0.0011
3571.00,0.0011
3570.00,0.0011
3569.00,0.0012
3568.00,0.0012
3567.00,0.0013
3566.00,0.0013
3565.00,0.0013
3564.00,0.0013
3563.00,0.0012
3562.00,0.0012
3561.00,0.0012
3560.00,0.0012
3559.00,0.0013
3558.00,0.0013
3557.00,0.0013
3556.00,0.0013
3555.00,0.0013
3554.00,0.0013
3553.00,0.0013
3552.00,0.0013
3551.00,0.0013
3550.00,0.0013
3549.00,0.0013
3548.00,0.0013
3547.00,0.0013
3546.00,0.0013
3545.00,0.0013
3544.00,0.0013
3543.00,0.0013
3542.00,0.0013
3541.00,0.0014
3540.00,0.0014
3539.00,0.0014
3538.00,0.0014
3537.00,0.0015
3536.00,0.0015
3535.00,0.0015
3534.00,0.0015
3533.00,0.0015
3532.00,0.0015
3531.00,0.0014
3530.00,0.0015
3529.00,0.0015
3528.00,0.0016
3527.00,0.0016
3526.00,0.0016
3525.00,0.0016
3524.00,0.0016
3523.00,0.0017
3522.00,0.0017
3521.00,0.0017
3520.00,0.0017
3519.00,0.0017
3518.00,0.0017
3517.00,0.0017
3516.00,0.0016
3515.00,0.0016
3514.00,0.0016
3513.00,0.0017
3512.00,0.0017
3511.00,0.0017
3510.00,0.0017
3509.00,0.0017
3508.00,0.0017
3507.00,0.0017
3506.00,0.0017
3505.00,0.0017
3504.00,0.0018
3503.00,0.0018
3502.00,0.0018
3501.00,0.0018
3500.00,0.0018
3499.00,0.0018
3498.00,0.0018
3497.00,0.0018
3496.00,0.0018
3495.00,0.0018
3494.00,0.0018
3493.00,0.0018
3492.00,0.0018
3491.00,0.0018
3490.00,0.0018
3489.00,0.0018
3488.00,0.0018
3487.00,0.0018
3486.00,0.0018
3485.00,0.0018
3484.00,0.0018
3483.00,0.0018
3482.00,0.0018
3481.00,0.0018
3480.00,0.0018
3479.00,0.0018
3478.00,0.0018
3477.00,0.0019
3476.00,0.0019
3475.00,0.0019
3474.00,0.0019
3473.00,0.0019
3472.00,0.0019
3471.00,0.0019
3470.00,0.0019
3469.00,0.0019
3468.00,0.0019
3467.00,0.0019
3466.00,0.0020
3465.00,0.0020
3464.00,0.0020
3463.00,0.0021
3462.00,0.0021
3461.00,0.0021
3460.00,0.0021
3459.00,0.0021
3458.00,0.0020
3457.00,0.0020
3456.00,0.0020
3455.00,0.0020
3454.00,0.0020
3453.00,0.0020
3452.00,0.0020
3451.00,0.0020
3450.00,0.0020
3449.00,0.0020
3448.00,0.0020
3447.00,0.0020
3446.00,0.0021
3445.00,0.0021
3444.00,0.0021
3443.00,0.0021
3442.00,0.0021
3441.00,0.0022
3440.00,0.0022
3439.00,0.0022
3438.00,0.0022
3437.00,0.0022
3436.00,0.0022
3435.00,0.0022
3434.00,0.0022
3433.00,0.0021
3432.00,0.0022
3431.00,0.0022
3430.00,0.0022
3429.00,0.0023
3428.00,0.0023
3427.00,0.0024
3426.00,0.0024
3425.00,0.0024
3424.00,0.0023
3423.00,0.0023
3422.00,0.0023
3421.00,0.0023
3420.00,0.0023
3419.00,0.0023
3418.00,0.0023
3417.00,0.0023
3416.00,0.0023
3415.00,0.0023
3414.00,0.0024
3413.00,0.0024
3412.00,0.0024
3411.00,0.0024
3410.00,0.0024
3409.00,0.0024
3408.00,0.0024
3407.00,0.0024
3406.00,0.0024
3405.00,0.0024
3404.00,0.0024
3403.00,0.0024
3402.00,0.0024
3401.00,0.0024
3400.00,0.0024
3399.00,0.0024
3398.00,0.0024
3397.00,0.0024
3396.00,0.0024
3395.00,0.0025
3394.00,0.0025
3393.00,0.0025
3392.00,0.0025
3391.00,0.0024
3390.00,0.0024
3389.00,0.0024
3388.00,0.0024
3387.00,0.0024
3386.00,0.0024
3385.00,0.0025
3384.00,0.0025
3383.00,0.0025
3382.00,0.0025
3381.00,0.0024
3380.00,0.0024
3379.00,0.0024
3378.00,0.0024
3377.00,0.0024
3376.00,0.0024
3375.00,0.0024
3374.00,0.0024
3373.00,0.0024
3372.00,0.0024
3371.00,0.0024
3370.00,0.0024
3369.00,0.0024
3368.00,0.0024
3367.00,0.0024
3366.00,0.0024
3365.00,0.0025
3364.00,0.0025
3363.00,0.0025
3362.00,0.0025
3361.00,0.0025
3360.00,0.0025
3359.00,0.0025
3358.00,0.0025
3357.00,0.0025
3356.00,0.0025
3355.00,0.0025
3354.00,0.0025
3353.00,0.0025
3352.00,0.0025
3351.00,0.0025
3350.00,0.0025
3349.00,0.0025
3348.00,0.0025
3347.00,0.0025
3346.00,0.0025
3345.00,0.0025
3344.00,0.0025
3343.00,0.0025
3342.00,0.0024
3341.00,0.0024
3340.00,0.0024
3339.00,0.0025
3338.00,0.0025
3337.00,0.0026
3336.00,0.0026
3335.00,0.0025
3334.00,0.0025
3333.00,0.0025
3332.00,0.0025
3331.00,0.0024
3330.00,0.0024
3329.00,0.0024
3328.00,0.0024
3327.00,0.0024
3326.00,0.0024
3325.00,0.0024
3324.00,0.0024
3323.00,0.0024
3322.00,0.0024
3321.00,0.0025
3320.00,0.0025
3319.00,0.0025
3318.00,0.0025
3317.00,0.0025
3316.00,0.0025
3315.00,0.0024
3314.00,0.0024
3313.00,0.0024
3312.00,0.0024
3311.00,0.0024
3310.00,0.0024
3309.00,0.0024
3308.00,0.0024
3307.00,0.0024
3306.00,0.0024
3305.00,0.0024
3304.00,0.0024
3303.00,0.0024
3302.00,0.0024
3301.00,0.0024
3300.00,0.0025
3299.00,0.0025
3298.00,0.0025
3297.00,0.0025
3296.00,0.0025
3295.00,0.0025
3294.00,0.0024
3293.00,0.0024
3292.00,0.0024
3291.00,0.0024
3290.00,0.0024
3289.00,0.0024
3288.00,0.0024
3287.00,0.0024
3286.00,0.0024
3285.00,0.0024
3284.00,0.0024
3283.00,0.0024
3282.00,0.0024
3281.00,0.0024
3280.00,0.0024
3279.00,0.0024
3278.00,0.0024
3277.00,0.0024
3276.00,0.0024
3275.00,0.0023
3274.00,0.0023
3273.00,0.0023
3272.00,0.0023
3271.00,0.0023
3270.00,0.0023
3269.00,0.0023
3268.00,0.0023
3267.00,0.0023
3266.00,0.0023
3265.00,0.0022
3264.00,0.0022
3263.00,0.0022
3262.00,0.0022
3261.00,0.0022
3260.00,0.0022
3259.00,0.0022
3258.00,0.0023
3257.00,0.0023
3256.00,0.0022
3255.00,0.0022
3254.00,0.0022
3253.00,0.0022
3252.00,0.0022
3251.00,0.0022
3250.00,0.0022
3249.00,0.0022
3248.00,0.0022
3247.00,0.0022
3246.00,0.0022
3245.00,0.0022
3244.00,0.0021
3243.00,0.0021
3242.00,0.0021
3241.00,0.0021
3240.00,0.0021
3239.00,0.0021
3238.00,0.0021
3237.00,0.0021
3236.00,0.0021
3235.00,0.0021
3234.00,0.0021
3233.00,0.0021
3232.00,0.0022
3231.00,0.0022
3230.00,0.0022
3229.00,0.0022
3228.00,0.0021
3227.00,0.0021
3226.00,0.0021
3225.00,0.0021
3224.00,0.0021
3223.00,0.0021
3222.00,0.0020
3221.00,0.0021
3220.00,0.0021
3219.00,0.0022
3218.00,0.0022
3217.00,0.0022
3216.00,0.0022
3215.00,0.0022
3214.00,0.0022
3213.00,0.0022
3212.00,0.0023
3211.00,0.0023
3210.00,0.0023
3209.00,0.0023
3208.00,0.0023
3207.00,0.0022
3206.00,0.0022
3205.00,0.0022
3204.00,0.0022
3203.00,0.0021
3202.00,0.0021
3201.00,0.0021
3200.00,0.0021
3199.00,0.0022
3198.00,0.0022
3197.00,0.0022
3196.00,0.0022
3195.00,0.0023
3194.00,0.0023
3193.00,0.0023
3192.00,0.0023
3191.00,0.0023
3190.00,0.0023
3189.00,0.0023
3188.00,0.0022
3187.00,0.0022
3186.00,0.0022
3185.00,0.0021
3184.00,0.0021
3183.00,0.0021
3182.00,0.0021
3181.00,0.0022
3180.00,0.0022
3179.00,0.0022
3178.00,0.0021
3177.00,0.0021
3176.00,0.0021
3175.00,0.0021
3174.00,0.0021
3173.00,0.0021
3172.00,0.0022
3171.00,0.0022
3170.00,0.0021
3169.00,0.0021
3168.00,0.0021
3167.00,0.0021
3166.00,0.0021
3165.00,0.0020
3164.00,0.0020
3163.00,0.0020
3162.00,0.0020
3161.00,0.0020
3160.00,0.0020
3159.00,0.0020
3158.00,0.0020
3157.00,0.0020
3156.00,0.0021
3155.00,0.0020
3154.00,0.0020
3153.00,0.0019
3152.00,0.0019
3151.00,0.0019
3150.00,0.0019
3149.00,0.0019
3148.00,0.0020
3147.00,0.0021
3146.00,0.0021
3145.00,0.0021
3144.00,0.0021
3143.00,0.0020
3142.00,0.0020
3141.00,0.0020
3140.00,0.0020
3139.00,0.0019
3138.00,0.0019
3137.00,0.0019
3136.00,0.0019
3135.00,0.0020
3134.00,0.0020
3133.00,0.0019
3132.00,0.0019
3131.00,0.0019
3130.00,0.0019
3129.00,0.0019
3128.00,0.0019
3127.00,0.0018
3126.00,0.0018
3125.00,0.0017
3124.00,0.0017
3123.00,0.0017
3122.00,0.0017
3121.00,0.0017
3120.00,0.0017
3119.00,0.0017
3118.00,0.0017
3117.00,0.0017
3116.00,0.0018
3115.00,0.0018
3114.00,0.0018
3113.00,0.0019
3112.00,0.0018
3111.00,0.0017
3110.00,0.0017
3109.00,0.0016
3108.00,0.0017
3107.00,0.0017
3106.00,0.0017
3105.00,0.0017
3104.00,0.0017
3103.00,0.0017
3102.00,0.0016
3101.00,0.0016
3100.00,0.0016
3099.00,0.0016
3098.00,0.0016
3097.00,0.0016
3096.00,0.0016
3095.00,0.0017
3094.00,0.0017
3093.00,0.0017
3092.00,0.0017
3091.00,0.0017
3090.00,0.0017
3089.00,0.0017
3088.00,0.0017
3087.00,0.0016
3086.00,0.0016
3085.00,0.0016
3084.00,0.0016
3083.00,0.0016
3082.00,0.0016
3081.00,0.0016
3080.00,0.0016
3079.00,0.0017
3078.00,0.0017
3077.00,0.0017
3076.00,0.0017
3075.00,0.0017
3074.00,0.0017
3073.00,0.0017
3072.00,0.0017
3071.00,0.0017
3070.00,0.0017
3069.00,0.0017
3068.00,0.0017
3067.00,0.0017
3066.00,0.0018
3065.00,0.0018
3064.00,0.0018
3063.00,0.0018
3062.00,0.0018
3061.00,0.0018
3060.00,0.0017
3059.00,0.0017
3058.00,0.0017
3057.00,0.0017
3056.00,0.0017
3055.00,0.0017
3054.00,0.0017
3053.00,0.0017
3052.00,0.0018
3051.00,0.0018
3050.00,0.0018
3049.00,0.0018
3048.00,0.0018
3047.00,0.0018
3046.00,0.0018
3045.00,0.0018
3044.00,0.0018
3043.00,0.0018
3042.00,0.0019
3041.00,0.0019
3040.00,0.0020
3039.00,0.0020
3038.00,0.0020
3037.00,0.0020
3036.00,0.0020
3035.00,0.0020
3034.00,0.0020
3033.00,0.0020
3032.00,0.0020
3031.00,0.0020
3030.00,0.0020
3029.00,0.0020
3028.00,0.0021
3027.00,0.0021
3026.00,0.0021
3025.00,0.0021
3024.00,0.0022
3023.00,0.0022
3022.00,0.0022
3021.00,0.0023
3020.00,0.0023
3019.00,0.0023
3018.00,0.0023
3017.00,0.0023
3016.00,0.0023
3015.00,0.0023
3014.00,0.0023
3013.00,0.0023
3012.00,0.0023
3011.00,0.0023
3010.00,0.0023
3009.00,0.0023
3008.00,0.0024
3007.00,0.0024
3006.00,0.0024
3005.00,0.0025
3004.00,0.0025
3003.00,0.0025
3002.00,0.0026
3001.00,0.0026
3000.00,0.0027
2999.00,0.0027
2998.00,0.0028
2997.00,0.0028
2996.00,0.0029
2995.00,0.0030
2994.00,0.0032
2993.00,0.0034
2992.00,0.0036
2991.00,0.0039
2990.00,0.0041
2989.00,0.0045
2988.00,0.0048
2987.00,0.0051
2986.00,0.0055
2985.00,0.0057
2984.00,0.0060
2983.00,0.0064
2982.00,0.0070
2981.00,0.0078
2980.00,0.0088
2979.00,0.0099
2978.00,0.0112
2977.00,0.0126
2976.00,0.0141
2975.00,0.0159
2974.00,0.0178
2973.00,0.0199
2972.00,0.0224
2971.00,0.0252
2970.00,0.0283
2969.00,0.0318
2968.00,0.0355
2967.00,0.0395
2966.00,0.0436
2965.00,0.0478
2964.00,0.0520
2963.00,0.0558
2962.00,0.0593
2961.00,0.0622
2960.00,0.0645
2959.00,0.0662
2958.00,0.0677
2957.00,0.0690
2956.00,0.0705
2955.00,0.0724
2954.00,0.0746
2953.00,0.0771
2952.00,0.0794
2951.00,0.0812
2950.00,0.0820
2949.00,0.0816
2948.00,0.0797
2947.00,0.0762
2946.00,0.0716
2945.00,0.0664
2944.00,0.0611
2943.00,0.0563
2942.00,0.0523
2941.00,0.0494
2940.00,0.0475
2939.00,0.0466
2938.00,0.0466
2937.00,0.0474
2936.00,0.0490
2935.00,0.0512
2934.00,0.0539
2933.00,0.0572
2932.00,0.0610
2931.00,0.0651
2930.00,0.0694
2929.00,0.0738
2928.00,0.0782
2927.00,0.0824
2926.00,0.0864
2925.00,0.0903
2924.00,0.0939
2923.00,0.0975
2922.00,0.1009
2921.00,0.1041
2920.00,0.1069
2919.00,0.1091
2918.00,0.1104
2917.00,0.1104
2916.00,0.1091
2915.00,0.1066
2914.00,0.1031
2913.00,0.0992
2912.00,0.0952
2911.00,0.0914
2910.00,0.0880
2909.00,0.0848
2908.00,0.0819
2907.00,0.0792
2906.00,0.0765
2905.00,0.0737
2904.00,0.0710
2903.00,0.0681
2902.00,0.0653
2901.00,0.0625
2900.00,0.0597
2899.00,0.0570
2898.00,0.0546
2897.00,0.0524
2896.00,0.0504
2895.00,0.0486
2894.00,0.0472
2893.00,0.0461
2892.00,0.0453
2891.00,0.0447
2890.00,0.0444
2889.00,0.0443
2888.00,0.0445
2887.00,0.0447
2886.00,0.0451
2885.00,0.0457
2884.00,0.0464
2883.00,0.0474
2882.00,0.0485
2881.00,0.0498
2880.00,0.0511
2879.00,0.0521
2878.00,0.0529
2877.00,0.0532
2876.00,0.0531
2875.00,0.0528
2874.00,0.0525
2873.00,0.0523
2872.00,0.0525
2871.00,0.0530
2870.00,0.0537
2869.00,0.0545
2868.00,0.0551
2867.00,0.0552
2866.00,0.0543
2865.00,0.0524
2864.00,0.0495
2863.00,0.0459
2862.00,0.0420
2861.00,0.0383
2860.00,0.0350
2859.00,0.0324
2858.00,0.0305
2857.00,0.0292
2856.00,0.0285
2855.00,0.0282
2854.00,0.0283
2853.00,0.0288
2852.00,0.0295
2851.00,0.0304
2850.00,0.0315
2849.00,0.0326
2848.00,0.0338
2847.00,0.0351
2846.00,0.0368
2845.00,0.0388
2844.00,0.0413
2843.00,0.0441
2842.00,0.0471
2841.00,0.0499
2840.00,0.0524
2839.00,0.0540
2838.00,0.0544
2837.00,0.0535
2836.00,0.0511
2835.00,0.0474
2834.00,0.0429
2833.00,0.0382
2832.00,0.0335
2831.00,0.0293
2830.00,0.0258
2829.00,0.0228
2828.00,0.0205
2827.00,0.0185
2826.00,0.0169
2825.00,0.0156
2824.00,0.0145
2823.00,0.0136
2822.00,0.0128
2821.00,0.0122
2820.00,0.0116
2819.00,0.0111
2818.00,0.0106
2817.00,0.0102
2816.00,0.0099
2815.00,0.0096
2814.00,0.0094
2813.00,0.0092
2812.00,0.0089
2811.00,0.0087
2810.00,0.0084
2809.00,0.0081
2808.00,0.0078
2807.00,0.0075
2806.00,0.0073
2805.00,0.0070
2804.00,0.0067
2803.00,0.0064
2802.00,0.0062
2801.00,0.0059
2800.00,0.0058
2799.00,0.0056
2798.00,0.0055
2797.00,0.0055
2796.00,0.0054
2795.00,0.0053
2794.00,0.0052
2793.00,0.0050
2792.00,0.0049
2791.00,0.0047
2790.00,0.0046
2789.00,0.0044
2788.00,0.0042
2787.00,0.0041
2786.00,0.0040
2785.00,0.0039
2784.00,0.0039
2783.00,0.0038
2782.00,0.0037
2781.00,0.0036
2780.00,0.0035
2779.00,0.0034
2778.00,0.0033
2777.00,0.0033
2776.00,0.0032
2775.00,0.0032
2774.00,0.0031
2773.00,0.0031
2772.00,0.0030
2771.00,0.0030
2770.00,0.0030
2769.00,0.0030
2768.00,0.0030
2767.00,0.0030
2766.00,0.0029
2765.00,0.0029
2764.00,0.0029
2763.00,0.0029
2762.00,0.0030
2761.00,0.0029
2760.00,0.0029
2759.00,0.0029
2758.00,0.0029
2757.00,0.0029
2756.00,0.0029
2755.00,0.0029
2754.00,0.0029
2753.00,0.0029
2752.00,0.0029
2751.00,0.0028
2750.00,0.0028
2749.00,0.0028
2748.00,0.0028
2747.00,0.0028
2746.00,0.0029
2745.00,0.0029
2744.00,0.0029
2743.00,0.0029
2742.00,0.0029
2741.00,0.0030
2740.00,0.0031
2739.00,0.0031
2738.00,0.0032
2737.00,0.0032
2736.00,0.0033
2735.00,0.0034
2734.00,0.0035
2733.00,0.0036
2732.00,0.0037
2731.00,0.0038
2730.00,0.0038
2729.00,0.0039
2728.00,0.0040
2727.00,0.0042
2726.00,0.0043
2725.00,0.0044
2724.00,0.0045
2723.00,0.0046
2722.00,0.0045
2721.00,0.0045
2720.00,0.0043
2719.00,0.0042
2718.00,0.0040
2717.00,0.0039
2716.00,0.0037
2715.00,0.0036
2714.00,0.0035
2713.00,0.0034
2712.00,0.0032
2711.00,0.0032
2710.00,0.0031
2709.00,0.0030
2708.00,0.0030
2707.00,0.0030
2706.00,0.0029
2705.00,0.0028
2704.00,0.0027
2703.00,0.0027
2702.00,0.0026
2701.00,0.0026
2700.00,0.0026
2699.00,0.0026
2698.00,0.0026
2697.00,0.0025
2696.00,0.0025
2695.00,0.0025
2694.00,0.0024
2693.00,0.0024
2692.00,0.0025
2691.00,0.0025
2690.00,0.0025
2689.00,0.0025
2688.00,0.0025
2687.00,0.0025
2686.00,0.0025
2685.00,0.0025
2684.00,0.0025
2683.00,0.0025
2682.00,0.0025
2681.00,0.0025
2680.00,0.0024
2679.00,0.0025
2678.00,0.0025
2677.00,0.0025
2676.00,0.0025
2675.00,0.0025
2674.00,0.0025
2673.00,0.0024
2672.00,0.0024
2671.00,0.0024
2670.00,0.0024
2669.00,0.0025
2668.00,0.0025
2667.00,0.0025
2666.00,0.0025
2665.00,0.0026
2664.00,0.0026
2663.00,0.0026
2662.00,0.0027
2661.00,0.0027
2660.00,0.0027
2659.00,0.0027
2658.00,0.0027
2657.00,0.0027
2656.00,0.0027
2655.00,0.0027
2654.00,0.0027
2653.00,0.0027
2652.00,0.0027
2651.00,0.0027
2650.00,0.0026
2649.00,0.0026
2648.00,0.0026
2647.00,0.0025
2646.00,0.0025
2645.00,0.0024
2644.00,0.0024
2643.00,0.0024
2642.00,0.0024
2641.00,0.0024
2640.00,0.0023
2639.00,0.0023
2638.00,0.0023
2637.00,0.0023
2636.00,0.0023
2635.00,0.0023
2634.00,0.0023
2633.00,0.0024
2632.00,0.0024
2631.00,0.0024
2630.00,0.0024
2629.00,0.0024
2628.00,0.0024
2627.00,0.0024
2626.00,0.0023
2625.00,0.0023
2624.00,0.0023
2623.00,0.0023
2622.00,0.0024
2621.00,0.0024
2620.00,0.0024
2619.00,0.0024
2618.00,0.0024
2617.00,0.0024
2616.00,0.0023
2615.00,0.0024
2614.00,0.0024
2613.00,0.0024
2612.00,0.0023
2611.00,0.0023
2610.00,0.0022
2609.00,0.0022
2608.00,0.0021
2607.00,0.0021
2606.00,0.0021
2605.00,0.0021
2604.00,0.0021
2603.00,0.0020
2602.00,0.0020
2601.00,0.0019
2600.00,0.0019
2599.00,0.0019
2598.00,0.0019
2597.00,0.0019
2596.00,0.0019
2595.00,0.0019
2594.00,0.0018
2593.00,0.0018
2592.00,0.0018
2591.00,0.0018
2590.00,0.0019
2589.00,0.0020
2588.00,0.0021
2587.00,0.0021
2586.00,0.0021
2585.00,0.0021
2584.00,0.0021
2583.00,0.0021
2582.00,0.0021
2581.00,0.0022
2580.00,0.0022
2579.00,0.0022
2578.00,0.0021
2577.00,0.0020
2576.00,0.0020
2575.00,0.0019
2574.00,0.0019
2573.00,0.0018
2572.00,0.0018
2571.00,0.0017
2570.00,0.0017
2569.00,0.0016
2568.00,0.0016
2567.00,0.0016
2566.00,0.0015
2565.00,0.0015
2564.00,0.0014
2563.00,0.0014
2562.00,0.0014
2561.00,0.0014
2560.00,0.0014
2559.00,0.0014
2558.00,0.0014
2557.00,0.0013
2556.00,0.0013
2555.00,0.0012
2554.00,0.0012
2553.00,0.0013
2552.00,0.0013
2551.00,0.0013
2550.00,0.0013
2549.00,0.0012
2548.00,0.0012
2547.00,0.0013
2546.00,0.0013
2545.00,0.0013
2544.00,0.0014
2543.00,0.0013
2542.00,0.0013
2541.00,0.0012
2540.00,0.0011
2539.00,0.0011
2538.00,0.0011
2537.00,0.0011
2536.00,0.0011
2535.00,0.0011
2534.00,0.0010
2533.00,0.0010
2532.00,0.0009
2531.00,0.0009
2530.00,0.0009
2529.00,0.0009
2528.00,0.0009
2527.00,0.0009
2526.00,0.0009
2525.00,0.0008
2524.00,0.0008
2523.00,0.0008
2522.00,0.0008
2521.00,0.0008
2520.00,0.0009
2519.00,0.0009
2518.00,0.0009
2517.00,0.0009
2516.00,0.0009
2515.00,0.0008
2514.00,0.0008
2513.00,0.0008
2512.00,0.0008
2511.00,0.0008
2510.00,0.0008
2509.00,0.0007
2508.00,0.0007
2507.00,0.0006
2506.00,0.0006
2505.00,0.0006
2504.00,0.0006
2503.00,0.0006
2502.00,0.0006
2501.00,0.0006
2500.00,0.0007
2499.00,0.0007
2498.00,0.0007
2497.00,0.0007
2496.00,0.0007
2495.00,0.0008
2494.00,0.0008
2493.00,0.0009
2492.00,0.0009
2491.00,0.0008
2490.00,0.0008
2489.00,0.0007
2488.00,0.0007
2487.00,0.0008
2486.00,0.0008
2485.00,0.0008
2484.00,0.0008
2483.00,0.0007
2482.00,0.0007
2481.00,0.0007
2480.00,0.0008
2479.00,0.0008
2478.00,0.0007
2477.00,0.0007
2476.00,0.0007
2475.00,0.0007
2474.00,0.0007
2473.00,0.0007
2472.00,0.0007
2471.00,0.0006
2470.00,0.0006
2469.00,0.0006
2468.00,0.0006
2467.00,0.0007
2466.00,0.0007
2465.00,0.0007
2464.00,0.0007
2463.00,0.0007
2462.00,0.0008
2461.00,0.0008
2460.00,0.0009
2459.00,0.0009
2458.00,0.0008
2457.00,0.0008
2456.00,0.0008
2455.00,0.0009
2454.00,0.0009
2453.00,0.0008
2452.00,0.0008
2451.00,0.0007
2450.00,0.0007
2449.00,0.0008
2448.00,0.0008
2447.00,0.0007
2446.00,0.0007
2445.00,0.0007
2444.00,0.0007
2443.00,0.0008
2442.00,0.0007
2441.00,0.0007
2440.00,0.0006
2439.00,0.0006
2438.00,0.0007
2437.00,0.0007
2436.00,0.0008
2435.00,0.0009
2434.00,0.0009
2433.00,0.0008
2432.00,0.0008
2431.00,0.0008
2430.00,0.0008
2429.00,0.0009
2428.00,0.0008
2427.00,0.0008
2426.00,0.0008
2425.00,0.0008
2424.00,0.0009
2423.00,0.0009
2422.00,0.0009
2421.00,0.0009
2420.00,0.0009
2419.00,0.0009
2418.00,0.0008
2417.00,0.0008
2416.00,0.0007
2415.00,0.0007
2414.00,0.0007
2413.00,0.0007
2412.00,0.0007
2411.00,0.0007
2410.00,0.0007
2409.00,0.0007
2408.00,0.0007
2407.00,0.0007
2406.00,0.0006
2405.00,0.0006
2404.00,0.0006
2403.00,0.0006
2402.00,0.0007
2401.00,0.0007
2400.00,0.0006
2399.00,0.0006
2398.00,0.0005
2397.00,0.0005
2396.00,0.0005
2395.00,0.0005
2394.00,0.0006
2393.00,0.0006
2392.00,0.0006
2391.00,0.0005
2390.00,0.0005
2389.00,0.0005
2388.00,0.0005
2387.00,0.0004
2386.00,0.0003
2385.00,0.0002
2384.00,0.0002
2383.00,0.0001
2382.00,0.0001
2381.00,0.0000
2380.00,-0.0000
2379.00,-0.0001
2378.00,-0.0000
2377.00,-0.0000
2376.00,0.0000
2375.00,0.0001
2374.00,0.0001
2373.00,0.0001
2372.00,0.0001
2371.00,-0.0000
2370.00,-0.0001
2369.00,-0.0002
2368.00,-0.0002
2367.00,-0.0001
2366.00,0.0000
2365.00,0.0002
2364.00,0.0003
2363.00,0.0004
2362.00,0.0003
2361.00,0.0002
2360.00,0.0001
2359.00,0.0000
2358.00,-0.0001
2357.00,-0.0001
2356.00,-0.0000
2355.00,0.0001
2354.00,0.0001
2353.00,0.0001
2352.00,0.0000
2351.00,0.0000
2350.00,0.0001
2349.00,0.0002
2348.00,0.0002
2347.00,0.0003
2346.00,0.0002
2345.00,0.0002
2344.00,0.0002
2343.00,0.0002
2342.00,0.0002
2341.00,0.0003
2340.00,0.0003
2339.00,0.0004
2338.00,0.0004
2337.00,0.0003
2336.00,0.0003
2335.00,0.0003
2334.00,0.0003
2333.00,0.0004
2332.00,0.0003
2331.00,0.0003
2330.00,0.0003
2329.00,0.0003
2328.00,0.0004
2327.00,0.0006
2326.00,0.0010
2325.00,0.0014
2324.00,0.0016
2323.00,0.0017
2322.00,0.0016
2321.00,0.0014
2320.00,0.0013
2319.00,0.0012
2318.00,0.0011
2317.00,0.0011
2316.00,0.0010
2315.00,0.0008
2314.00,0.0008
2313.00,0.0007
2312.00,0.0007
2311.00,0.0007
2310.00,0.0006
2309.00,0.0006
2308.00,0.0007
2307.00,0.0007
2306.00,0.0008
2305.00,0.0007
2304.00,0.0007
2303.00,0.0007
2302.00,0.0007
2301.00,0.0007
2300.00,0.0008
2299.00,0.0008
2298.00,0.0009
2297.00,0.0010
2296.00,0.0011
2295.00,0.0011
2294.00,0.0011
2293.00,0.0011
2292.00,0.0012
2291.00,0.0012
2290.00,0.0012
2289.00,0.0013
2288.00,0.0013
2287.00,0.0014
2286.00,0.0015
2285.00,0.0015
2284.00,0.0014
2283.00,0.0013
2282.00,0.0012
2281.00,0.0012
2280.00,0.0012
2279.00,0.0012
2278.00,0.0012
2277.00,0.0013
2276.00,0.0013
2275.00,0.0012
2274.00,0.0012
2273.00,0.0011
2272.00,0.0011
2271.00,0.0011
2270.00,0.0011
2269.00,0.0011
2268.00,0.0011
2267.00,0.0010
2266.00,0.0009
2265.00,0.0009
2264.00,0.0010
2263.00,0.0010
2262.00,0.0011
2261.00,0.0011
2260.00,0.0010
2259.00,0.0010
2258.00,0.0009
2257.00,0.0008
2256.00,0.0007
2255.00,0.0006
2254.00,0.0005
2253.00,0.0005
2252.00,0.0004
2251.00,0.0004
2250.00,0.0005
2249.00,0.0006
2248.00,0.0007
2247.00,0.0008
2246.00,0.0008
2245.00,0.0008
2244.00,0.0008
2243.00,0.0007
2242.00,0.0006
2241.00,0.0006
2240.00,0.0007
2239.00,0.0009
2238.00,0.0010
2237.00,0.0010
2236.00,0.0010
2235.00,0.0009
2234.00,0.0008
2233.00,0.0008
2232.00,0.0009
2231.00,0.0009
2230.00,0.0009
2229.00,0.0007
2228.00,0.0006
2227.00,0.0005
2226.00,0.0004
2225.00,0.0004
2224.00,0.0003
2223.00,0.0004
2222.00,0.0005
2221.00,0.0007
2220.00,0.0009
2219.00,0.0010
2218.00,0.0009
2217.00,0.0007
2216.00,0.0006
2215.00,0.0005
2214.00,0.0006
2213.00,0.0007
2212.00,0.0007
2211.00,0.0007
2210.00,0.0007
2209.00,0.0007
2208.00,0.0007
2207.00,0.0006
2206.00,0.0004
2205.00,0.0002
2204.00,0.0001
2203.00,0.0001
2202.00,0.0001
2201.00,0.0003
2200.00,0.0005
2199.00,0.0007
2198.00,0.0008
2197.00,0.0009
2196.00,0.0009
2195.00,0.0009
2194.00,0.0010
2193.00,0.0011
2192.00,0.0012
2191.00,0.0012
2190.00,0.0011
2189.00,0.0009
2188.00,0.0007
2187.00,0.0005
2186.00,0.0004
2185.00,0.0002
2184.00,0.0001
2183.00,-0.0001
2182.00,-0.0002
2181.00,-0.0002
2180.00,-0.0000
2179.00,0.0002
2178.00,0.0004
2177.00,0.0005
2176.00,0.0004
2175.00,0.0002
2174.00,0.0000
2173.00,-0.0001
2172.00,-0.0001
2171.00,-0.0000
2170.00,0.0002
2169.00,0.0006
2168.00,0.0010
2167.00,0.0014
2166.00,0.0016
2165.00,0.0017
2164.00,0.0016
2163.00,0.0015
2162.00,0.0011
2161.00,0.0004
2160.00,-0.0008
2159.00,-0.0021
2158.00,-0.0030
2157.00,-0.0033
2156.00,-0.0031
2155.00,-0.0027
2154.00,-0.0023
2153.00,-0.0019
2152.00,-0.0015
2151.00,-0.0011
2150.00,-0.0008
2149.00,-0.0008
2148.00,-0.0008
2147.00,-0.0010
2146.00,-0.0011
2145.00,-0.0011
2144.00,-0.0009
2143.00,-0.0008
2142.00,-0.0008
2141.00,-0.0009
2140.00,-0.0009
2139.00,-0.0008
2138.00,-0.0007
2137.00,-0.0006
2136.00,-0.0007
2135.00,-0.0010
2134.00,-0.0012
2133.00,-0.0013
2132.00,-0.0014
2131.00,-0.0013
2130.00,-0.0012
2129.00,-0.0009
2128.00,-0.0007
2127.00,-0.0007
2126.00,-0.0006
2125.00,-0.0006
2124.00,-0.0004
2123.00,-0.0003
2122.00,-0.0001
2121.00,-0.0000
2120.00,0.0001
2119.00,0.0002
2118.00,0.0003
2117.00,0.0003
2116.00,0.0003
2115.00,0.0002
2114.00,0.0001
2113.00,0.0000
2112.00,0.0000
2111.00,0.0001
2110.00,0.0001
2109.00,0.0002
2108.00,0.0003
2107.00,0.0004
2106.00,0.0004
2105.00,0.0003
2104.00,0.0003
2103.00,0.0003
2102.00,0.0002
2101.00,0.0002
2100.00,0.0003
2099.00,0.0002
2098.00,0.0001
2097.00,0.0000
2096.00,-0.0001
2095.00,-0.0002
2094.00,-0.0001
2093.00,0.0000
2092.00,0.0000
2091.00,0.0001
2090.00,0.0001
2089.00,0.0001
2088.00,0.0001
2087.00,0.0001
2086.00,0.0002
2085.00,0.0002
2084.00,0.0003
2083.00,0.0003
2082.00,0.0003
2081.00,0.0002
2080.00,0.0002
2079.00,0.0002
2078.00,0.0003
2077.00,0.0003
2076.00,0.0004
2075.00,0.0004
2074.00,0.0004
2073.00,0.0003
2072.00,0.0002
2071.00,0.0002
2070.00,0.0002
2069.00,0.0002
2068.00,0.0001
2067.00,-0.0000
2066.00,-0.0002
2065.00,-0.0002
2064.00,-0.0002
2063.00,-0.0000
2062.00,0.0001
2061.00,0.0003
2060.00,0.0003
2059.00,0.0004
2058.00,0.0004
2057.00,0.0003
2056.00,0.0002
2055.00,0.0001
2054.00,0.0001
2053.00,0.0004
2052.00,0.0008
2051.00,0.0010
2050.00,0.0010
2049.00,0.0006
2048.00,0.0002
2047.00,-0.0000
2046.00,-0.0001
2045.00,0.0000
2044.00,0.0002
2043.00,0.0005
2042.00,0.0007
2041.00,0.0006
2040.00,0.0004
2039.00,0.0000
2038.00,-0.0001
2037.00,0.0001
2036.00,0.0003
2035.00,0.0002
2034.00,-0.0002
2033.00,-0.0006
2032.00,-0.0010
2031.00,-0.0010
2030.00,-0.0007
2029.00,-0.0002
2028.00,0.0002
2027.00,0.0004
2026.00,0.0003
2025.00,0.0001
2024.00,0.0000
2023.00,-0.0001
2022.00,-0.0003
2021.00,-0.0005
2020.00,-0.0006
2019.00,-0.0006
2018.00,-0.0006
2017.00,-0.0006
2016.00,-0.0006
2015.00,-0.0007
2014.00,-0.0007
2013.00,-0.0009
2012.00,-0.0010
2011.00,-0.0010
2010.00,-0.0009
2009.00,-0.0009
2008.00,-0.0008
2007.00,-0.0009
2006.00,-0.0011
2005.00,-0.0012
2004.00,-0.0013
2003.00,-0.0014
2002.00,-0.0015
2001.00,-0.0013
2000.00,-0.0010
1999.00,-0.0007
1998.00,-0.0005
1997.00,-0.0004
1996.00,-0.0003
1995.00,-0.0001
1994.00,0.0001
1993.00,0.0002
1992.00,0.0001
1991.00,0.0000
1990.00,0.0000
1989.00,0.0001
1988.00,0.0003
1987.00,0.0004
1986.00,0.0005
1985.00,0.0005
1984.00,0.0005
1983.00,0.0005
1982.00,0.0005
1981.00,0.0007
1980.00,0.0007
1979.00,0.0006
1978.00,0.0001
1977.00,-0.0003
1976.00,-0.0004
1975.00,-0.0003
1974.00,-0.0002
1973.00,-0.0003
1972.00,-0.0005
1971.00,-0.0007
1970.00,-0.0008
1969.00,-0.0009
1968.00,-0.0009
1967.00,-0.0010
1966.00,-0.0011
1965.00,-0.0010
1964.00,-0.0010
1963.00,-0.0012
1962.00,-0.0015
1961.00,-0.0018
1960.00,-0.0018
1959.00,-0.0017
1958.00,-0.0015
1957.00,-0.0012
1956.00,-0.0009
1955.00,-0.0007
1954.00,-0.0006
1953.00,-0.0006
1952.00,-0.0006
1951.00,-0.0008
1950.00,-0.0009
1949.00,-0.0010
1948.00,-0.0010
1947.00,-0.0010
1946.00,-0.0010
1945.00,-0.0009
1944.00,-0.0009
1943.00,-0.0009
1942.00,-0.0010
1941.00,-0.0010
1940.00,-0.0010
1939.00,-0.0010
1938.00,-0.0010
1937.00,-0.0010
1936.00,-0.0009
1935.00,-0.0009
1934.00,-0.0008
1933.00,-0.0007
1932.00,-0.0006
1931.00,-0.0006
1930.00,-0.0005
1929.00,-0.0005
1928.00,-0.0004
1927.00,-0.0004
1926.00,-0.0004
1925.00,-0.0004
1924.00,-0.0004
1923.00,-0.0004
1922.00,-0.0003
1921.00,-0.0003
1920.00,-0.0003
1919.00,-0.0003
1918.00,-0.0003
1917.00,-0.0003
1916.00,-0.0003
1915.00,-0.0003
1914.00,-0.0003
1913.00,-0.0002
1912.00,-0.0001
1911.00,-0.0001
1910.00,-0.0001
1909.00,-0.0001
1908.00,-0.0002
1907.00,-0.0002
1906.00,-0.0002
1905.00,-0.0002
1904.00,-0.0002
1903.00,-0.0002
1902.00,-0.0003
1901.00,-0.0004
1900.00,-0.0005
1899.00,-0.0005
1898.00,-0.0003
1897.00,-0.0002
1896.00,0.0000
1895.00,0.0001
1894.00,0.0001
1893.00,0.0001
1892.00,0.0001
1891.00,0.0001
1890.00,0.0000
1889.00,0.0000
1888.00,0.0000
1887.00,0.0000
1886.00,0.0000
1885.00,-0.0000
1884.00,-0.0001
1883.00,-0.0002
1882.00,-0.0002
1881.00,-0.0002
1880.00,-0.0002
1879.00,-0.0001
1878.00,-0.0002
1877.00,-0.0003
1876.00,-0.0003
1875.00,-0.0002
1874.00,-0.0001
1873.00,-0.0000
1872.00,-0.0000
1871.00,-0.0000
1870.00,-0.0000
1869.00,-0.0000
1868.00,0.0000
1867.00,0.0000
1866.00,0.0000
1865.00,0.0000
1864.00,0.0000
1863.00,0.0001
1862.00,0.0001
1861.00,0.0001
1860.00,0.0001
1859.00,0.0001
1858.00,0.0001
1857.00,0.0002
1856.00,0.0002
1855.00,0.0001
1854.00,0.0000
1853.00,0.0000
1852.00,-0.0000
1851.00,-0.0000
1850.00,-0.0000
1849.00,0.0000
1848.00,0.0001
1847.00,0.0002
1846.00,0.0001
1845.00,0.0000
1844.00,-0.0001
1843.00,-0.0001
1842.00,-0.0000
1841.00,-0.0000
1840.00,0.0000
1839.00,0.0000
1838.00,0.0000
1837.00,0.0000
1836.00,0.0001
1835.00,0.0001
1834.00,0.0001
1833.00,0.0002
1832.00,0.0002
1831.00,0.0003
1830.00,0.0003
1829.00,0.0004
1828.00,0.0004
1827.00,0.0004
1826.00,0.0004
1825.00,0.0003
1824.00,0.0003
1823.00,0.0003
1822.00,0.0002
1821.00,0.0002
1820.00,0.0002
1819.00,0.0001
1818.00,0.0001
1817.00,0.0001
1816.00,0.0001
1815.00,0.0002
1814.00,0.0003
1813.00,0.0003
1812.00,0.0003
1811.00,0.0003
1810.00,0.0003
1809.00,0.0003
1808.00,0.0004
1807.00,0.0004
1806.00,0.0004
1805.00,0.0003
1804.00,0.0003
1803.00,0.0004
1802.00,0.0005
1801.00,0.0005
1800.00,0.0006
1799.00,0.0006
1798.00,0.0006
1797.00,0.0006
1796.00,0.0006
1795.00,0.0006
1794.00,0.0006
1793.00,0.0006
1792.00,0.0006
1791.00,0.0005
1790.00,0.0005
1789.00,0.0005
1788.00,0.0006
1787.00,0.0006
1786.00,0.0006
1785.00,0.0007
1784.00,0.0007
1783.00,0.0006
1782.00,0.0006
1781.00,0.0006
1780.00,0.0006
1779.00,0.0006
1778.00,0.0005
1777.00,0.0005
1776.00,0.0004
1775.00,0.0004
1774.00,0.0004
1773.00,0.0005
1772.00,0.0006
1771.00,0.0008
1770.00,0.0009
1769.00,0.0009
1768.00,0.0009
1767.00,0.0008
1766.00,0.0008
1765.00,0.0008
1764.00,0.0008
1763.00,0.0008
1762.00,0.0008
1761.00,0.0008
1760.00,0.0008
1759.00,0.0008
1758.00,0.0008
1757.00,0.0008
1756.00,0.0008
1755.00,0.0008
1754.00,0.0008
1753.00,0.0008
1752.00,0.0007
1751.00,0.0008
1750.00,0.0009
1749.00,0.0010
1748.00,0.0011
1747.00,0.0010
1746.00,0.0010
1745.00,0.0010
1744.00,0.0011
1743.00,0.0011
1742.00,0.0012
1741.00,0.0012
1740.00,0.0012
1739.00,0.0012
1738.00,0.0012
1737.00,0.0012
1736.00,0.0012
1735.00,0.0012
1734.00,0.0012
1733.00,0.0012
1732.00,0.0012
1731.00,0.0013
1730.00,0.0014
1729.00,0.0014
1728.00,0.0014
1727.00,0.0013
1726.00,0.0012
1725.00,0.0012
1724.00,0.0012
1723.00,0.0013
1722.00,0.0013
1721.00,0.0014
1720.00,0.0014
1719.00,0.0014
1718.00,0.0013
1717.00,0.0013
1716.00,0.0014
1715.00,0.0015
1714.00,0.0015
1713.00,0.0015
1712.00,0.0015
1711.00,0.0015
1710.00,0.0015
1709.00,0.0015
1708.00,0.0015
1707.00,0.0015
1706.00,0.0015
1705.00,0.0016
1704.00,0.0016
1703.00,0.0017
1702.00,0.0017
1701.00,0.0017
1700.00,0.0018
1699.00,0.0018
1698.00,0.0018
1697.00,0.0018
1696.00,0.0019
1695.00,0.0019
1694.00,0.0019
1693.00,0.0019
1692.00,0.0019
1691.00,0.0019
1690.00,0.0020
1689.00,0.0021
1688.00,0.0022
1687.00,0.0022
1686.00,0.0023
1685.00,0.0023
1684.00,0.0023
1683.00,0.0023
1682.00,0.0023
1681.00,0.0024
1680.00,0.0024
1679.00,0.0024
1678.00,0.0025
1677.00,0.0025
1676.00,0.0026
1675.00,0.0027
1674.00,0.0027
1673.00,0.0027
1672.00,0.0027
1671.00,0.0028
1670.00,0.0028
1669.00,0.0028
1668.00,0.0029
1667.00,0.0029
1666.00,0.0029
1665.00,0.0029
1664.00,0.0029
1663.00,0.0029
1662.00,0.0029
1661.00,0.0030
1660.00,0.0031
1659.00,0.0031
1658.00,0.0032
1657.00,0.0033
1656.00,0.0034
1655.00,0.0036
1654.00,0.0037
1653.00,0.0037
1652.00,0.0036
1651.00,0.0035
1650.00,0.0035
1649.00,0.0036
1648.00,0.0037
1647.00,0.0037
1646.00,0.0037
1645.00,0.0037
1644.00,0.0037
1643.00,0.0037
1642.00,0.0037
1641.00,0.0037
1640.00,0.0037
1639.00,0.0036
1638.00,0.0036
1637.00,0.0037
1636.00,0.0037
1635.00,0.0038
1634.00,0.0038
1633.00,0.0039
1632.00,0.0039
1631.00,0.0039
1630.00,0.0039
1629.00,0.0039
1628.00,0.0039
1627.00,0.0039
1626.00,0.0039
1625.00,0.0039
1624.00,0.0039
1623.00,0.0039
1622.00,0.0038
1621.00,0.0038
1620.00,0.0038
1619.00,0.0037
1618.00,0.0036
1617.00,0.0036
1616.00,0.0035
1615.00,0.0035
1614.00,0.0035
1613.00,0.0035
1612.00,0.0034
1611.00,0.0034
1610.00,0.0034
1609.00,0.0034
1608.00,0.0034
1607.00,0.0034
1606.00,0.0034
1605.00,0.0034
1604.00,0.0034
1603.00,0.0034
1602.00,0.0034
1601.00,0.0034
1600.00,0.0034
1599.00,0.0034
1598.00,0.0034
1597.00,0.0035
1596.00,0.0036
1595.00,0.0036
1594.00,0.0037
1593.00,0.0038
1592.00,0.0039
1591.00,0.0041
1590.00,0.0042
1589.00,0.0044
1588.00,0.0046
1587.00,0.0048
1586.00,0.0051
1585.00,0.0054
1584.00,0.0058
1583.00,0.0063
1582.00,0.0067
1581.00,0.0072
1580.00,0.0076
1579.00,0.0080
1578.00,0.0082
1577.00,0.0083
1576.00,0.0082
1575.00,0.0080
1574.00,0.0077
1573.00,0.0075
1572.00,0.0072
1571.00,0.0068
1570.00,0.0063
1569.00,0.0059
1568.00,0.0056
1567.00,0.0055
1566.00,0.0053
1565.00,0.0051
1564.00,0.0050
1563.00,0.0050
1562.00,0.0050
1561.00,0.0050
1560.00,0.0050
1559.00,0.0050
1558.00,0.0050
1557.00,0.0050
1556.00,0.0050
1555.00,0.0051
1554.00,0.0052
1553.00,0.0053
1552.00,0.0054
1551.00,0.0056
1550.00,0.0058
1549.00,0.0061
1548.00,0.0065
1547.00,0.0069
1546.00,0.0073
1545.00,0.0078
1544.00,0.0083
1543.00,0.0089
1542.00,0.0093
1541.00,0.0096
1540.00,0.0096
1539.00,0.0093
1538.00,0.0089
1537.00,0.0085
1536.00,0.0081
1535.00,0.0076
1534.00,0.0070
1533.00,0.0064
1532.00,0.0060
1531.00,0.0057
1530.00,0.0055
1529.00,0.0054
1528.00,0.0053
1527.00,0.0051
1526.00,0.0050
1525.00,0.0050
1524.00,0.0049
1523.00,0.0049
1522.00,0.0048
1521.00,0.0047
1520.00,0.0047
1519.00,0.0047
1518.00,0.0047
1517.00,0.0047
1516.00,0.0047
1515.00,0.0047
1514.00,0.0048
1513.00,0.0048
1512.00,0.0049
1511.00,0.0049
1510.00,0.0050
1509.00,0.0051
1508.00,0.0052
1507.00,0.0053
1506.00,0.0053
1505.00,0.0053
1504.00,0.0053
1503.00,0.0053
1502.00,0.0054
1501.00,0.0056
1500.00,0.0058
1499.00,0.0060
1498.00,0.0061
1497.00,0.0062
1496.00,0.0064
1495.00,0.0066
1494.00,0.0067
1493.00,0.0068
1492.00,0.0071
1491.00,0.0073
1490.00,0.0076
1489.00,0.0079
1488.00,0.0083
1487.00,0.0086
1486.00,0.0089
1485.00,0.0094
1484.00,0.0100
1483.00,0.0106
1482.00,0.0113
1481.00,0.0121
1480.00,0.0130
1479.00,0.0138
1478.00,0.0147
1477.00,0.0159
1476.00,0.0171
1475.00,0.0186
1474.00,0.0204
1473.00,0.0230
1472.00,0.0262
1471.00,0.0293
1470.00,0.0322
1469.00,0.0353
1468.00,0.0388
1467.00,0.0426
1466.00,0.0470
1465.00,0.0516
1464.00,0.0557
1463.00,0.0586
1462.00,0.0606
1461.00,0.0620
1460.00,0.0631
1459.00,0.0640
1458.00,0.0647
1457.00,0.0652
1456.00,0.0654
1455.00,0.0652
1454.00,0.0649
1453.00,0.0643
1452.00,0.0632
1451.00,0.0615
1450.00,0.0589
1449.00,0.0553
1448.00,0.0506
1447.00,0.0456
1446.00,0.0409
1445.00,0.0370
1444.00,0.0336
1443.00,0.0309
1442.00,0.0288
1441.00,0.0275
1440.00,0.0267
1439.00,0.0264
1438.00,0.0265
1437.00,0.0266
1436.00,0.0262
1435.00,0.0249
1434.00,0.0229
1433.00,0.0205
1432.00,0.0180
1431.00,0.0158
1430.00,0.0142
1429.00,0.0130
1428.00,0.0122
1427.00,0.0117
1426.00,0.0114
1425.00,0.0112
1424.00,0.0110
1423.00,0.0109
1422.00,0.0108
1421.00,0.0107
1420.00,0.0105
1419.00,0.0103
1418.00,0.0102
1417.00,0.0100
1416.00,0.0097
1415.00,0.0096
1414.00,0.0094
1413.00,0.0093
1412.00,0.0091
1411.00,0.0090
1410.00,0.0089
1409.00,0.0088
1408.00,0.0086
1407.00,0.0085
1406.00,0.0084
1405.00,0.0083
1404.00,0.0082
1403.00,0.0082
1402.00,0.0082
1401.00,0.0081
1400.00,0.0081
1399.00,0.0081
1398.00,0.0081
1397.00,0.0081
1396.00,0.0082
1395.00,0.0083
1394.00,0.0086
1393.00,0.0089
1392.00,0.0092
1391.00,0.0097
1390.00,0.0103
1389.00,0.0112
1388.00,0.0126
1387.00,0.0146
1386.00,0.0173
1385.00,0.0206
1384.00,0.0250
1383.00,0.0309
1382.00,0.0386
1381.00,0.0484
1380.00,0.0604
1379.00,0.0739
1378.00,0.0870
1377.00,0.0969
1376.00,0.1007
1375.00,0.0969
1374.00,0.0862
1373.00,0.0725
1372.00,0.0592
1371.00,0.0480
1370.00,0.0389
1369.00,0.0319
1368.00,0.0271
1367.00,0.0242
1366.00,0.0226
1365.00,0.0220
1364.00,0.0221
1363.00,0.0229
1362.00,0.0241
1361.00,0.0254
1360.00,0.0264
1359.00,0.0267
1358.00,0.0261
1357.00,0.0247
1356.00,0.0226
1355.00,0.0203
1354.00,0.0181
1353.00,0.0162
1352.00,0.0147
1351.00,0.0135
1350.00,0.0126
1349.00,0.0118
1348.00,0.0111
1347.00,0.0106
1346.00,0.0102
1345.00,0.0098
1344.00,0.0095
1343.00,0.0093
1342.00,0.0091
1341.00,0.0089
1340.00,0.0089
1339.00,0.0088
1338.00,0.0088
1337.00,0.0089
1336.00,0.0089
1335.00,0.0090
1334.00,0.0092
1333.00,0.0093
1332.00,0.0095
1331.00,0.0096
1330.00,0.0097
1329.00,0.0096
1328.00,0.0093
1327.00,0.0091
1326.00,0.0088
1325.00,0.0085
1324.00,0.0082
1323.00,0.0079
1322.00,0.0076
1321.00,0.0075
1320.00,0.0073
1319.00,0.0072
1318.00,0.0071
1317.00,0.0069
1316.00,0.0068
1315.00,0.0067
1314.00,0.0066
1313.00,0.0066
1312.00,0.0066
1311.00,0.0067
1310.00,0.0069
1309.00,0.0073
1308.00,0.0079
1307.00,0.0086
1306.00,0.0093
1305.00,0.0098
1304.00,0.0099
1303.00,0.0098
1302.00,0.0095
1301.00,0.0092
1300.00,0.0090
1299.00,0.0089
1298.00,0.0088
1297.00,0.0088
1296.00,0.0087
1295.00,0.0085
1294.00,0.0083
1293.00,0.0080
1292.00,0.0077
1291.00,0.0074
1290.00,0.0071
1289.00,0.0068
1288.00,0.0066
1287.00,0.0064
1286.00,0.0062
1285.00,0.0061
1284.00,0.0060
1283.00,0.0059
1282.00,0.0058
1281.00,0.0057
1280.00,0.0057
1279.00,0.0056
1278.00,0.0056
1277.00,0.0056
1276.00,0.0056
1275.00,0.0055
1274.00,0.0054
1273.00,0.0054
1272.00,0.0053
1271.00,0.0053
1270.00,0.0053
1269.00,0.0054
1268.00,0.0054
1267.00,0.0055
1266.00,0.0055
1265.00,0.0056
1264.00,0.0057
1263.00,0.0059
1262.00,0.0061
1261.00,0.0064
1260.00,0.0067
1259.00,0.0071
1258.00,0.0075
1257.00,0.0079
1256.00,0.0080
1255.00,0.0080
1254.00,0.0077
1253.00,0.0072
1252.00,0.0067
1251.00,0.0064
1250.00,0.0061
1249.00,0.0060
1248.00,0.0059
1247.00,0.0058
1246.00,0.0058
1245.00,0.0058
1244.00,0.0058
1243.00,0.0058
1242.00,0.0057
1241.00,0.0057
1240.00,0.0057
1239.00,0.0057
1238.00,0.0058
1237.00,0.0058
1236.00,0.0059
1235.00,0.0059
1234.00,0.0059
1233.00,0.0059
1232.00,0.0060
1231.00,0.0061
1230.00,0.0062
1229.00,0.0063
1228.00,0.0063
1227.00,0.0065
1226.00,0.0066
1225.00,0.0069
1224.00,0.0071
1223.00,0.0073
1222.00,0.0076
1221.00,0.0078
1220.00,0.0080
1219.00,0.0081
1218.00,0.0081
1217.00,0.0080
1216.00,0.0079
1215.00,0.0078
1214.00,0.0077
1213.00,0.0075
1212.00,0.0073
1211.00,0.0071
1210.00,0.0070
1209.00,0.0068
1208.00,0.0067
1207.00,0.0067
1206.00,0.0067
1205.00,0.0067
1204.00,0.0067
1203.00,0.0067
1202.00,0.0066
1201.00,0.0066
1200.00,0.0065
1199.00,0.0066
1198.00,0.0066
1197.00,0.0066
1196.00,0.0066
1195.00,0.0066
1194.00,0.0066
1193.00,0.0066
1192.00,0.0066
1191.00,0.0065
1190.00,0.0065
1189.00,0.0065
1188.00,0.0065
1187.00,0.0065
1186.00,0.0065
1185.00,0.0065
1184.00,0.0065
1183.00,0.0065
1182.00,0.0066
1181.00,0.0067
1180.00,0.0068
1179.00,0.0070
1178.00,0.0073
1177.00,0.0077
1176.00,0.0083
1175.00,0.0091
1174.00,0.0102
1173.00,0.0116
1172.00,0.0133
1171.00,0.0152
1170.00,0.0171
1169.00,0.0186
1168.00,0.0196
1167.00,0.0198
1166.00,0.0194
1165.00,0.0185
1164.00,0.0173
1163.00,0.0162
1162.00,0.0152
1161.00,0.0144
1160.00,0.0136
1159.00,0.0130
1158.00,0.0126
1157.00,0.0122
1156.00,0.0120
1155.00,0.0119
1154.00,0.0118
1153.00,0.0116
1152.00,0.0114
1151.00,0.0110
1150.00,0.0105
1149.00,0.0100
1148.00,0.0095
1147.00,0.0091
1146.00,0.0086
1145.00,0.0082
1144.00,0.0078
1143.00,0.0074
1142.00,0.0071
1141.00,0.0068
1140.00,0.0066
1139.00,0.0064
1138.00,0.0063
1137.00,0.0061
1136.00,0.0060
1135.00,0.0059
1134.00,0.0058
1133.00,0.0058
1132.00,0.0057
1131.00,0.0058
1130.00,0.0060
1129.00,0.0061
1128.00,0.0063
1127.00,0.0063
1126.00,0.0064
1125.00,0.0064
1124.00,0.0065
1123.00,0.0065
1122.00,0.0065
1121.00,0.0064
1120.00,0.0064
1119.00,0.0063
1118.00,0.0064
1117.00,0.0064
1116.00,0.0065
1115.00,0.0066
1114.00,0.0067
1113.00,0.0068
1112.00,0.0069
1111.00,0.0071
1110.00,0.0074
1109.00,0.0076
1108.00,0.0079
1107.00,0.0082
1106.00,0.0085
1105.00,0.0089
1104.00,0.0092
1103.00,0.0094
1102.00,0.0093
1101.00,0.0091
1100.00,0.0088
1099.00,0.0085
1098.00,0.0082
1097.00,0.0079
1096.00,0.0075
1095.00,0.0072
1094.00,0.0070
1093.00,0.0067
1092.00,0.0064
1091.00,0.0063
1090.00,0.0062
1089.00,0.0061
1088.00,0.0060
1087.00,0.0059
1086.00,0.0058
1085.00,0.0058
1084.00,0.0058
1083.00,0.0058
1082.00,0.0057
1081.00,0.0056
1080.00,0.0056
1079.00,0.0055
1078.00,0.0054
1077.00,0.0053
1076.00,0.0052
1075.00,0.0052
1074.00,0.0052
1073.00,0.0052
1072.00,0.0052
1071.00,0.0052
1070.00,0.0052
1069.00,0.0053
1068.00,0.0054
1067.00,0.0055
1066.00,0.0056
1065.00,0.0055
1064.00,0.0055
1063.00,0.0054
1062.00,0.0055
1061.00,0.0056
1060.00,0.0057
1059.00,0.0058
1058.00,0.0058
1057.00,0.0058
1056.00,0.0058
1055.00,0.0058
1054.00,0.0058
1053.00,0.0059
1052.00,0.0060
1051.00,0.0062
1050.00,0.0064
1049.00,0.0067
1048.00,0.0070
1047.00,0.0072
1046.00,0.0074
1045.00,0.0075
1044.00,0.0075
1043.00,0.0076
1042.00,0.0076
1041.00,0.0076
1040.00,0.0076
1039.00,0.0076
1038.00,0.0077
1037.00,0.0079
1036.00,0.0081
1035.00,0.0083
1034.00,0.0082
1033.00,0.0080
1032.00,0.0079
1031.00,0.0077
1030.00,0.0076
1029.00,0.0075
1028.00,0.0074
1027.00,0.0073
1026.00,0.0072
1025.00,0.0072
1024.00,0.0072
1023.00,0.0072
1022.00,0.0073
1021.00,0.0073
1020.00,0.0074
1019.00,0.0075
1018.00,0.0076
1017.00,0.0078
1016.00,0.0080
1015.00,0.0083
1014.00,0.0087
1013.00,0.0091
1012.00,0.0095
1011.00,0.0097
1010.00,0.0098
1009.00,0.0099
1008.00,0.0100
1007.00,0.0103
1006.00,0.0107
1005.00,0.0113
1004.00,0.0122
1003.00,0.0134
1002.00,0.0152
1001.00,0.0173
1000.00,0.0196
999.00,0.0216
998.00,0.0226
997.00,0.0223
996.00,0.0208
995.00,0.0185
994.00,0.0160
993.00,0.0138
992.00,0.0120
991.00,0.0107
990.00,0.0097
989.00,0.0091
988.00,0.0087
987.00,0.0085
986.00,0.0085
985.00,0.0085
984.00,0.0086
983.00,0.0089
982.00,0.0095
981.00,0.0104
980.00,0.0117
979.00,0.0135
978.00,0.0156
977.00,0.0182
976.00,0.0210
975.00,0.0237
974.00,0.0257
973.00,0.0265
972.00,0.0258
971.00,0.0236
970.00,0.0205
969.00,0.0172
968.00,0.0144
967.00,0.0122
966.00,0.0105
965.00,0.0093
964.00,0.0085
963.00,0.0079
962.00,0.0074
961.00,0.0071
960.00,0.0067
959.00,0.0063
958.00,0.0060
957.00,0.0057
956.00,0.0056
955.00,0.0055
954.00,0.0054
953.00,0.0054
952.00,0.0053
951.00,0.0052
950.00,0.0052
949.00,0.0051
948.00,0.0051
947.00,0.0052
946.00,0.0054
945.00,0.0057
944.00,0.0059
943.00,0.0062
942.00,0.0064
941.00,0.0065
940.00,0.0065
939.00,0.0064
938.00,0.0062
937.00,0.0060
936.00,0.0059
935.00,0.0058
934.00,0.0056
933.00,0.0053
932.00,0.0051
931.00,0.0050
930.00,0.0050
929.00,0.0050
928.00,0.0050
927.00,0.0050
926.00,0.0051
925.00,0.0052
924.00,0.0052
923.00,0.0051
922.00,0.0052
921.00,0.0053
920.00,0.0055
919.00,0.0056
918.00,0.0058
917.00,0.0059
916.00,0.0059
915.00,0.0058
914.00,0.0057
913.00,0.0057
912.00,0.0056
911.00,0.0057
910.00,0.0058
909.00,0.0059
908.00,0.0061
907.00,0.0063
906.00,0.0067
905.00,0.0073
904.00,0.0082
903.00,0.0094
902.00,0.0106
901.00,0.0118
900.00,0.0126
899.00,0.0129
898.00,0.0125
897.00,0.0116
896.00,0.0104
895.00,0.0092
894.00,0.0082
893.00,0.0074
892.00,0.0069
891.00,0.0066
890.00,0.0064
889.00,0.0062
888.00,0.0060
887.00,0.0058
886.00,0.0057
885.00,0.0057
884.00,0.0058
883.00,0.0059
882.00,0.0060
881.00,0.0061
880.00,0.0063
879.00,0.0064
878.00,0.0065
877.00,0.0065
876.00,0.0066
875.00,0.0066
874.00,0.0066
873.00,0.0064
872.00,0.0062
871.00,0.0062
870.00,0.0061
869.00,0.0061
868.00,0.0060
867.00,0.0060
866.00,0.0060
865.00,0.0061
864.00,0.0062
863.00,0.0063
862.00,0.0064
861.00,0.0064
860.00,0.0065
859.00,0.0066
858.00,0.0066
857.00,0.0066
856.00,0.0066
855.00,0.0066
854.00,0.0066
853.00,0.0069
852.00,0.0072
851.00,0.0076
850.00,0.0080
849.00,0.0084
848.00,0.0091
847.00,0.0101
846.00,0.0115
845.00,0.0137
844.00,0.0165
843.00,0.0197
842.00,0.0220
841.00,0.0227
840.00,0.0214
839.00,0.0187
838.00,0.0157
837.00,0.0133
836.00,0.0116
835.00,0.0106
834.00,0.0100
833.00,0.0096
832.00,0.0093
831.00,0.0090
830.00,0.0087
829.00,0.0084
828.00,0.0082
827.00,0.0082
826.00,0.0082
825.00,0.0082
824.00,0.0080
823.00,0.0079
822.00,0.0079
821.00,0.0079
820.00,0.0079
819.00,0.0081
818.00,0.0083
817.00,0.0087
816.00,0.0092
815.00,0.0098
814.00,0.0106
813.00,0.0116
812.00,0.0126
811.00,0.0135
810.00,0.0142
809.00,0.0145
808.00,0.0144
807.00,0.0140
806.00,0.0133
805.00,0.0124
804.00,0.0114
803.00,0.0105
802.00,0.0098
801.00,0.0092
800.00,0.0087
799.00,0.0083
798.00,0.0080
797.00,0.0077
796.00,0.0075
795.00,0.0073
794.00,0.0072
793.00,0.0070
792.00,0.0068
791.00,0.0066
790.00,0.0065
789.00,0.0065
788.00,0.0066
787.00,0.0066
786.00,0.0066
785.00,0.0065
784.00,0.0064
783.00,0.0062
782.00,0.0061
781.00,0.0058
780.00,0.0056
779.00,0.0055
778.00,0.0056
777.00,0.0056
776.00,0.0057
775.00,0.0057
774.00,0.0057
773.00,0.0059
772.00,0.0061
771.00,0.0065
770.00,0.0069
769.00,0.0071
768.00,0.0072
767.00,0.0071
766.00,0.0071
765.00,0.0070
764.00,0.0069
763.00,0.0068
762.00,0.0065
761.00,0.0063
760.00,0.0061
759.00,0.0060
758.00,0.0059
757.00,0.0058
756.00,0.0056
755.00,0.0054
754.00,0.0052
753.00,0.0051
752.00,0.0051
751.00,0.0050
750.00,0.0049
749.00,0.0048
748.00,0.0048
747.00,0.0049
746.00,0.0051
745.00,0.0053
744.00,0.0054
743.00,0.0054
742.00,0.0054
741.00,0.0055
740.00,0.0057
739.00,0.0058
738.00,0.0059
737.00,0.0059
736.00,0.0060
735.00,0.0061
734.00,0.0062
733.00,0.0063
732.00,0.0064
731.00,0.0063
730.00,0.0062
729.00,0.0061
728.00,0.0060
727.00,0.0061
726.00,0.0064
725.00,0.0067
724.00,0.0069
723.00,0.0069
722.00,0.0069
721.00,0.0067
720.00,0.0064
719.00,0.0061
718.00,0.0060
717.00,0.0059
716.00,0.0059
715.00,0.0058
714.00,0.0058
713.00,0.0057
712.00,0.0057
711.00,0.0057
710.00,0.0056
709.00,0.0056
708.00,0.0055
707.00,0.0054
706.00,0.0054
705.00,0.0053
704.00,0.0053
703.00,0.0053
702.00,0.0054
701.00,0.0054
700.00,0.0055
699.00,0.0055
698.00,0.0056
697.00,0.0057
696.00,0.0059
695.00,0.0060
694.00,0.0059
693.00,0.0057
692.00,0.0055
691.00,0.0053
690.00,0.0052
689.00,0.0053
688.00,0.0055
687.00,0.0057
686.00,0.0058
685.00,0.0059
684.00,0.0059
683.00,0.0060
682.00,0.0060
681.00,0.0060
680.00,0.0057
679.00,0.0055
678.00,0.0054
677.00,0.0056
676.00,0.0058
675.00,0.0061
674.00,0.0062
673.00,0.0062
672.00,0.0061
671.00,0.0061
670.00,0.0062
669.00,0.0064
668.00,0.0065
667.00,0.0064
666.00,0.0062
665.00,0.0060
664.00,0.0059
663.00,0.0058
662.00,0.0058
661.00,0.0058
660.00,0.0057
659.00,0.0056
658.00,0.0055
657.00,0.0053
656.00,0.0052
655.00,0.0050
654.00,0.0049
653.00,0.0048
652.00,0.0049
651.00,0.0049
650.00,0.0051
649.00,0.0052
648.00,0.0054
647.00,0.0056
646.00,0.0058
645.00,0.0060
644.00,0.0060
643.00,0.0059
642.00,0.0059
641.00,0.0058
640.00,0.0056
639.00,0.0054
638.00,0.0052
637.00,0.0052
636.00,0.0054
635.00,0.0057
634.00,0.0059
633.00,0.0061
632.00,0.0060
631.00,0.0060
630.00,0.0060
629.00,0.0061
628.00,0.0061
627.00,0.0061
626.00,0.0061
625.00,0.0062
624.00,0.0063
623.00,0.0063
622.00,0.0062
621.00,0.0061
620.00,0.0061
619.00,0.0060
618.00,0.0059
617.00,0.0059
616.00,0.0061
615.00,0.0063
614.00,0.0064
613.00,0.0062
612.00,0.0059
611.00,0.0056
610.00,0.0056
609.00,0.0058
608.00,0.0060
607.00,0.0062
606.00,0.0061
605.00,0.0060
604.00,0.0060
603.00,0.0063
602.00,0.0066
601.00,0.0069
600.00,0.0070
599.00,0.0069
598.00,0.0067
597.00,0.0064
596.00,0.0063
595.00,0.0063
594.00,0.0064
593.00,0.0065
592.00,0.0066
591.00,0.0067
590.00,0.0068
589.00,0.0068
588.00,0.0067
587.00,0.0065
586.00,0.0064
585.00,0.0064
584.00,0.0067
583.00,0.0070
582.00,0.0071
581.00,0.0070
580.00,0.0068
579.00,0.0066
578.00,0.0065
577.00,0.0066
576.00,0.0067
575.00,0.0067
574.00,0.0067
573.00,0.0066
572.00,0.0064
571.00,0.0062
570.00,0.0061
569.00,0.0062
568.00,0.0065
567.00,0.0068
566.00,0.0069
565.00,0.0069
564.00,0.0067
563.00,0.0067
562.00,0.0068
561.00,0.0071
560.00,0.0073
559.00,0.0074
558.00,0.0071
557.00,0.0065
556.00,0.0060
555.00,0.0058
554.00,0.0059
553.00,0.0063
552.00,0.0065
551.00,0.0066
550.00,0.0066
549.00,0.0065
548.00,0.0064
547.00,0.0063
546.00,0.0063
545.00,0.0065
544.00,0.0066
543.00,0.0067
542.00,0.0067
541.00,0.0068
540.00,0.0069
539.00,0.0071
538.00,0.0072
537.00,0.0076
536.00,0.0080
535.00,0.0083
534.00,0.0083
533.00,0.0081
532.00,0.0080
531.00,0.0082
530.00,0.0085
529.00,0.0089
528.00,0.0094
527.00,0.0097
526.00,0.0096
525.00,0.0091
524.00,0.0086
523.00,0.0083
522.00,0.0081
521.00,0.0080
520.00,0.0079
519.00,0.0078
518.00,0.0078
517.00,0.0078
516.00,0.0074
515.00,0.0068
514.00,0.0064
513.00,0.0065
512.00,0.0069
511.00,0.0071
510.00,0.0068
509.00,0.0066
508.00,0.0066
507.00,0.0067
506.00,0.0067
505.00,0.0067
504.00,0.0069
503.00,0.0073
502.00,0.0079
501.00,0.0084
500.00,0.0089
499.00,0.0090
498.00,0.0087
497.00,0.0081
496.00,0.0077
495.00,0.0077
494.00,0.0079
493.00,0.0078
492.00,0.0072
491.00,0.0064
490.00,0.0060
489.00,0.0062
488.00,0.0068
487.00,0.0073
486.00,0.0072
485.00,0.0065
484.00,0.0057
483.00,0.0051
482.00,0.0051
481.00,0.0054
480.00,0.0058
479.00,0.0062
478.00,0.0065
477.00,0.0068
476.00,0.0068
475.00,0.0066
474.00,0.0064
473.00,0.0066
472.00,0.0074
471.00,0.0084
470.00,0.0092
469.00,0.0093
468.00,0.0091
467.00,0.0089
466.00,0.0090
465.00,0.0094
464.00,0.0103
463.00,0.0111
462.00,0.0115
461.00,0.0111
460.00,0.0104
459.00,0.0101
458.00,0.0106
457.00,0.0117
456.00,0.0126
455.00,0.0129
454.00,0.0123
453.00,0.0108
452.00,0.0087
451.00,0.0070
450.00,0.0064
