Created as New Dataset,Sample 033 By Administrator Date Friday, September 05 2025
cm-1,A
4000.00,0.0011
3999.00,0.0011
3998.00,0.0011
3997.00,0.0011
3996.00,0.0011
3995.00,0.0011
3994.00,0.0011
3993.00,0.0011
3992.00,0.0011
3991.00,0.0011
3990.00,0.0011
3989.00,0.0011
3988.00,0.0011
3987.00,0.0011
3986.00,0.0010
3985.00,0.0010
3984.00,0.0010
3983.00,0.0010
3982.00,0.0010
3981.00,0.0010
3980.00,0.0010
3979.00,0.0010
3978.00,0.0010
3977.00,0.0010
3976.00,0.0010
3975.00,0.0010
3974.00,0.0009
3973.00,0.0009
3972.00,0.0009
3971.00,0.0009
3970.00,0.0009
3969.00,0.0009
3968.00,0.0009
3967.00,0.0009
3966.00,0.0009
3965.00,0.0009
3964.00,0.0009
3963.00,0.0009
3962.00,0.0009
3961.00,0.0009
3960.00,0.0009
3959.00,0.0009
3958.00,0.0009
3957.00,0.0009
3956.00,0.0009
3955.00,0.0009
3954.00,0.0009
3953.00,0.0009
3952.00,0.0009
3951.00,0.0009
3950.00,0.0009
3949.00,0.0009
3948.00,0.0009
3947.00,0.0009
3946.00,0.0009
3945.00,0.0009
3944.00,0.0009
3943.00,0.0009
3942.00,0.0009
3941.00,0.0009
3940.00,0.0009
3939.00,0.0009
3938.00,0.0009
3937.00,0.0009
3936.00,0.0009
3935.00,0.0009
3934.00,0.0009
3933.00,0.0009
3932.00,0.0009
3931.00,0.0009
3930.00,0.0009
3929.00,0.0009
3928.00,0.0009
3927.00,0.0009
3926.00,0.0009
3925.00,0.0010
3924.00,0.0009
3923.00,0.0009
3922.00,0.0009
3921.00,0.0009
3920.00,0.0010
3919.00,0.0010
3918.00,0.0010
3917.00,0.0010
3916.00,0.0009
3915.00,0.0009
3914.00,0.0009
3913.00,0.0009
3912.00,0.0009
3911.00,0.0010
3910.00,0.0010
3909.00,0.0010
3908.00,0.0010
3907.00,0.0010
3906.00,0.0010
3905.00,0.0010
3904.00,0.0010
3903.00,0.0009
3902.00,0.0009
3901.00,0.0009
3900.00,0.0009
3899.00,0.0009
3898.00,0.0009
3897.00,0.0009
3896.00,0.0009
3895.00,0.0009
3894.00,0.0009
3893.00,0.0009
3892.00,0.0009
3891.00,0.0009
3890.00,0.0009
3889.00,0.0009
3888.00,0.0009
3887.00,0.0009
3886.00,0.0009
3885.00,0.0009
3884.00,0.0009
3883.00,0.0009
3882.00,0.0009
3881.00,0.0009
3880.00,0.0009
3879.00,0.0009
3878.00,0.0009
3877.00,0.0009
3876.00,0.0010
3875.00,0.0010
3874.00,0.0010
3873.00,0.0010
3872.00,0.0010
3871.00,0.0010
3870.00,0.0011
3869.00,0.0010
3868.00,0.0010
3867.00,0.0009
3866.00,0.0008
3865.00,0.0008
3864.00,0.0008
3863.00,0.0008
3862.00,0.0008
3861.00,0.0008
3860.00,0.0008
3859.00,0.0008
3858.00,0.0008
3857.00,0.0009
3856.00,0.0010
3855.00,0.0010
3854.00,0.0010
3853.00,0.0010
3852.00,0.0010
3851.00,0.0009
3850.00,0.0008
3849.00,0.0008
3848.00,0.0008
3847.00,0.0008
3846.00,0.0008
3845.00,0.0008
3844.00,0.0009
3843.00,0.0009
3842.00,0.0009
3841.00,0.0009
3840.00,0.0009
3839.00,0.0009
3838.00,0.0009
3837.00,0.0009
3836.00,0.0009
3835.00,0.0009
3834.00,0.0009
3833.00,0.0008
3832.00,0.0008
3831.00,0.0008
3830.00,0.0008
3829.00,0.0007
3828.00,0.0007
3827.00,0.0007
3826.00,0.0008
3825.00,0.0008
3824.00,0.0008
3823.00,0.0008
3822.00,0.0009
3821.00,0.0010
3820.00,0.0010
3819.00,0.0010
3818.00,0.0009
3817.00,0.0009
3816.00,0.0009
3815.00,0.0010
3814.00,0.0009
3813.00,0.0009
3812.00,0.0009
3811.00,0.0009
3810.00,0.0009
3809.00,0.0009
3808.00,0.0009
3807.00,0.0009
3806.00,0.0010
3805.00,0.0010
3804.00,0.0010
3803.00,0.0010
3802.00,0.0011
3801.00,0.0011
3800.00,0.0011
3799.00,0.0010
3798.00,0.0009
3797.00,0.0008
3796.00,0.0008
3795.00,0.0008
3794.00,0.0008
3793.00,0.0008
3792.00,0.0009
3791.00,0.0009
3790.00,0.0009
3789.00,0.0008
3788.00,0.0008
3787.00,0.0008
3786.00,0.0008
3785.00,0.0008
3784.00,0.0008
3783.00,0.0008
3782.00,0.0009
3781.00,0.0009
3780.00,0.0009
3779.00,0.0009
3778.00,0.0008
3777.00,0.0008
3776.00,0.0007
3775.00,0.0007
3774.00,0.0007
3773.00,0.0008
3772.00,0.0008
3771.00,0.0008
3770.00,0.0008
3769.00,0.0009
3768.00,0.0009
3767.00,0.0009
3766.00,0.0009
3765.00,0.0009
3764.00,0.0008
3763.00,0.0008
3762.00,0.0008
3761.00,0.0008
3760.00,0.0009
3759.00,0.0009
3758.00,0.0009
3757.00,0.0009
3756.00,0.0009
3755.00,0.0010
3754.00,0.0010
3753.00,0.0010
3752.00,0.0011
3751.00,0.0011
3750.00,0.0011
3749.00,0.0011
3748.00,0.0011
3747.00,0.0010
3746.00,0.0010
3745.00,0.0010
3744.00,0.0009
3743.00,0.0009
3742.00,0.0008
3741.00,0.0008
3740.00,0.0008
3739.00,0.0008
3738.00,0.0008
3737.00,0.0007
3736.00,0.0007
3735.00,0.0007
3734.00,0.0007
3733.00,0.0007
3732.00,0.0007
3731.00,0.0007
3730.00,0.0007
3729.00,0.0006
3728.00,0.0006
3727.00,0.0007
3726.00,0.0007
3725.00,0.0007
3724.00,0.0007
3723.00,0.0006
3722.00,0.0006
3721.00,0.0005
3720.00,0.0005
3719.00,0.0005
3718.00,0.0006
3717.00,0.0007
3716.00,0.0008
3715.00,0.0009
3714.00,0.0009
3713.00,0.0009
3712.00,0.0009
3711.00,0.0008
3710.00,0.0007
3709.00,0.0007
3708.00,0.0007
3707.00,0.0006
3706.00,0.0006
3705.00,0.0006
3704.00,0.0007
3703.00,0.0007
3702.00,0.0006
3701.00,0.0006
3700.00,0.0006
3699.00,0.0006
3698.00,0.0006
3697.00,0.0007
3696.00,0.0007
3695.00,0.0007
3694.00,0.0008
3693.00,0.0008
3692.00,0.0008
3691.00,0.0008
3690.00,0.0007
3689.00,0.0007
3688.00,0.0007
3687.00,0.0007
3686.00,0.0007
3685.00,0.0007
3684.00,0.0006
3683.00,0.0006
3682.00,0.0006
3681.00,0.0006
3680.00,0.0006
3679.00,0.0006
3678.00,0.0005
3677.00,0.0005
3676.00,0.0004
3675.00,0.0004
3674.00,0.0004
3673.00,0.0004
3672.00,0.0003
3671.00,0.0003
3670.00,0.0002
3669.00,0.0002
3668.00,0.0001
3667.00,0.0000
3666.00,0.0000
3665.00,-0.0000
3664.00,-0.0000
3663.00,-0.0001
3662.00,-0.0001
3661.00,-0.0001
3660.00,-0.0001
3659.00,-0.0000
3658.00,0.0000
3657.00,0.0000
3656.00,0.0001
3655.00,0.0001
3654.00,0.0001
3653.00,0.0001
3652.00,0.0000
3651.00,0.0000
3650.00,0.0001
3649.00,0.0001
3648.00,0.0002
3647.00,0.0002
3646.00,0.0002
3645.00,0.0002
3644.00,0.0002
3643.00,0.0002
3642.00,0.0002
3641.00,0.0003
3640.00,0.0003
3639.00,0.0003
3638.00,0.0003
3637.00,0.0003
3636.00,0.0004
3635.00,0.0004
3634.00,0.0005
3633.00,0.0005
3632.00,0.0006
3631.00,0.0006
3630.00,0.0006
3629.00,0.0006
3628.00,0.0007
3627.00,0.0006
3626.00,0.0006
3625.00,0.0006
3624.00,0.0006
3623.00,0.0006
3622.00,0.0006
3621.00,0.0006
3620.00,0.0006
3619.00,0.0006
3618.00,0.0006
3617.00,0.0007
3616.00,0.0007
3615.00,0.0008
3614.00,0.0008
3613.00,0.0008
3612.00,0.0008
3611.00,0.0008
3610.00,0.0008
3609.00,0.0009
3608.00,0.0009
3607.00,0.0009
3606.00,0.0009
3605.00,0.0009
3604.00,0.0009
3603.00,0.0010
3602.00,0.0010
3601.00,0.0010
3600.00,0.0010
3599.00,0.0010
3598.00,0.0010
3597.00,0.0010
3596.00,0.0010
3595.00,0.0010
3594.00,0.0011
3593.00,0.0010
3592.00,0.0010
3591.00,0.0010
3590.00,0.0010
3589.00,0.0010
3588.00,0.0011
3587.00,0.0011
3586.00,0.0012
3585.00,0.0012
3584.00,0.0012
3583.00,0.0012
3582.00,0.0012
3581.00,0.0012
3580.00,0.0012
3579.00,0.0012
3578.00,0.0012
3577.00,0.0013
3576.00,0.0013
3575.00,0.0013
3574.00,0.0013
3573.00,0.0013
3572.00,0.0014
3571.00,0.0014
3570.00,0.0014
3569.00,0.0015
3568.00,0.0015
3567.00,0.0016
3566.00,0.0016
3565.00,0.0016
3564.00,0.0016
3563.00,0.0016
3562.00,0.0016
3561.00,0.0016
3560.00,0.0016
3559.00,0.0016
3558.00,0.0016
3557.00,0.0016
3556.00,0.0017
3555.00,0.0017
3554.00,0.0017
3553.00,0.0018
3552.00,0.0018
3551.00,0.0018
3550.00,0.0018
3549.00,0.0019
3548.00,0.0019
3547.00,0.0019
3546.00,0.0019
3545.00,0.0019
3544.00,0.0019
3543.00,0.0020
3542.00,0.0020
3541.00,0.0020
3540.00,0.0020
3539.00,0.0020
3538.00,0.0021
3537.00,0.0021
3536.00,0.0021
3535.00,0.0022
3534.00,0.0022
3533.00,0.0022
3532.00,0.0021
3531.00,0.0021
3530.00,0.0022
3529.00,0.0022
3528.00,0.0022
3527.00,0.0023
3526.00,0.0023
3525.00,0.0023
3524.00,0.0024
3523.00,0.0024
3522.00,0.0024
3521.00,0.0024
3520.00,0.0024
3519.00,0.0024
3518.00,0.0024
3517.00,0.0024
3516.00,0.0024
3515.00,0.0025
3514.00,0.0025
3513.00,0.0025
3512.00,0.0025
3511.00,0.0025
3510.00,0.0025
3509.00,0.0025
3508.00,0.0025
3507.00,0.0025
3506.00,0.0026
3505.00,0.0026
3504.00,0.0027
3503.00,0.0027
3502.00,0.0027
3501.00,0.0027
3500.00,0.0027
3499.00,0.0027
3498.00,0.0027
3497.00,0.0027
3496.00,0.0028
3495.00,0.0028
3494.00,0.0028
3493.00,0.0028
3492.00,0.0029
3491.00,0.0029
3490.00,0.0030
3489.00,0.0030
3488.00,0.0030
3487.00,0.0029
3486.00,0.0029
3485.00,0.0029
3484.00,0.0029
3483.00,0.0029
3482.00,0.0029
3481.00,0.0029
3480.00,0.0029
3479.00,0.0030
3478.00,0.0031
3477.00,0.0031
3476.00,0.0032
3475.00,0.0032
3474.00,0.0032
3473.00,0.0032
3472.00,0.0031
3471.00,0.0031
3470.00,0.0031
3469.00,0.0031
3468.00,0.0031
3467.00,0.0031
3466.00,0.0032
3465.00,0.0032
3464.00,0.0033
3463.00,0.0034
3462.00,0.0034
3461.00,0.0035
3460.00,0.0035
3459.00,0.0035
3458.00,0.0035
3457.00,0.0035
3456.00,0.0035
3455.00,0.0035
3454.00,0.0035
3453.00,0.0035
3452.00,0.0036
3451.00,0.0036
3450.00,0.0036
3449.00,0.0036
3448.00,0.0036
3447.00,0.0036
3446.00,0.0036
3445.00,0.0036
3444.00,0.0036
3443.00,0.0037
3442.00,0.0037
3441.00,0.0038
3440.00,0.0038
3439.00,0.0039
3438.00,0.0039
3437.00,0.0039
3436.00,0.0039
3435.00,0.0039
3434.00,0.0039
3433.00,0.0039
3432.00,0.0040
3431.00,0.0040
3430.00,0.0041
3429.00,0.0041
3428.00,0.0042
3427.00,0.0042
3426.00,0.0042
3425.00,0.0042
3424.00,0.0042
3423.00,0.0042
3422.00,0.0042
3421.00,0.0042
3420.00,0.0042
3419.00,0.0042
3418.00,0.0042
3417.00,0.0043
3416.00,0.0043
3415.00,0.0043
3414.00,0.0044
3413.00,0.0044
3412.00,0.0044
3411.00,0.0044
3410.00,0.0044
3409.00,0.0044
3408.00,0.0045
3407.00,0.0045
3406.00,0.0045
3405.00,0.0045
3404.00,0.0046
3403.00,0.0046
3402.00,0.0047
3401.00,0.0047
3400.00,0.0048
3399.00,0.0048
3398.00,0.0049
3397.00,0.0049
3396.00,0.0050
3395.00,0.0050
3394.00,0.0050
3393.00,0.0050
3392.00,0.0050
3391.00,0.0049
3390.00,0.0049
3389.00,0.0049
3388.00,0.0048
3387.00,0.0048
3386.00,0.0048
3385.00,0.0048
3384.00,0.0048
3383.00,0.0048
3382.00,0.0048
3381.00,0.0048
3380.00,0.0048
3379.00,0.0047
3378.00,0.0047
3377.00,0.0047
3376.00,0.0047
3375.00,0.0047
3374.00,0.0047
3373.00,0.0047
3372.00,0.0047
3371.00,0.0048
3370.00,0.0048
3369.00,0.0048
3368.00,0.0048
3367.00,0.0047
3366.00,0.0047
3365.00,0.0047
3364.00,0.0047
3363.00,0.0047
3362.00,0.0047
3361.00,0.0047
3360.00,0.0047
3359.00,0.0048
3358.00,0.0048
3357.00,0.0048
3356.00,0.0049
3355.00,0.0049
3354.00,0.0049
3353.00,0.0049
3352.00,0.0048
3351.00,0.0048
3350.00,0.0048
3349.00,0.0048
3348.00,0.0049
3347.00,0.0049
3346.00,0.0049
3345.00,0.0049
3344.00,0.0048
3343.00,0.0048
3342.00,0.0047
3341.00,0.0047
3340.00,0.0048
3339.00,0.0048
3338.00,0.0048
3337.00,0.0048
3336.00,0.0048
3335.00,0.0048
3334.00,0.0048
3333.00,0.0048
3332.00,0.0048
3331.00,0.0048
3330.00,0.0048
3329.00,0.0048
3328.00,0.0047
3327.00,0.0047
3326.00,0.0047
3325.00,0.0046
3324.00,0.0046
3323.00,0.0047
3322.00,0.0047
3321.00,0.0047
3320.00,0.0048
3319.00,0.0048
3318.00,0.0049
3317.00,0.0048
3316.00,0.0048
3315.00,0.0048
3314.00,0.0048
3313.00,0.0048
3312.00,0.0048
3311.00,0.0048
3310.00,0.0048
3309.00,0.0048
3308.00,0.0048
3307.00,0.0048
3306.00,0.0048
3305.00,0.0048
3304.00,0.0048
3303.00,0.0048
3302.00,0.0048
3301.00,0.0048
3300.00,0.0048
3299.00,0.0048
3298.00,0.0048
3297.00,0.0047
3296.00,0.0047
3295.00,0.0047
3294.00,0.0047
3293.00,0.0047
3292.00,0.0048
3291.00,0.0048
3290.00,0.0048
3289.00,0.0048
3288.00,0.0047
3287.00,0.0047
3286.00,0.0047
3285.00,0.0047
3284.00,0.0047
3283.00,0.0047
3282.00,0.0047
3281.00,0.0047
3280.00,0.0047
3279.00,0.0046
3278.00,0.0046
3277.00,0.0046
3276.00,0.0046
3275.00,0.0046
3274.00,0.0046
3273.00,0.0045
3272.00,0.0045
3271.00,0.0045
3270.00,0.0045
3269.00,0.0045
3268.00,0.0045
3267.00,0.0045
3266.00,0.0045
3265.00,0.0044
3264.00,0.0044
3263.00,0.0043
3262.00,0.0043
3261.00,0.0043
3260.00,0.0044
3259.00,0.0044
3258.00,0.0043
3257.00,0.0043
3256.00,0.0043
3255.00,0.0043
3254.00,0.0043
3253.00,0.0043
3252.00,0.0043
3251.00,0.0043
3250.00,0.0043
3249.00,0.0043
3248.00,0.0043
3247.00,0.0042
3246.00,0.0042
3245.00,0.0042
3244.00,0.0042
3243.00,0.0042
3242.00,0.0042
3241.00,0.0042
3240.00,0.0042
3239.00,0.0042
3238.00,0.0042
3237.00,0.0042
3236.00,0.0041
3235.00,0.0041
3234.00,0.0041
3233.00,0.0042
3232.00,0.0042
3231.00,0.0042
3230.00,0.0042
3229.00,0.0042
3228.00,0.0042
3227.00,0.0042
3226.00,0.0043
3225.00,0.0043
3224.00,0.0043
3223.00,0.0043
3222.00,0.0043
3221.00,0.0043
3220.00,0.0044
3219.00,0.0045
3218.00,0.0045
3217.00,0.0045
3216.00,0.0045
3215.00,0.0045
3214.00,0.0045
3213.00,0.0046
3212.00,0.0046
3211.00,0.0046
3210.00,0.0047
3209.00,0.0047
3208.00,0.0047
3207.00,0.0047
3206.00,0.0047
3205.00,0.0047
3204.00,0.0047
3203.00,0.0047
3202.00,0.0047
3201.00,0.0047
3200.00,0.0048
3199.00,0.0048
3198.00,0.0049
3197.00,0.0049
3196.00,0.0049
3195.00,0.0049
3194.00,0.0050
3193.00,0.0050
3192.00,0.0050
3191.00,0.0049
3190.00,0.0049
3189.00,0.0049
3188.00,0.0049
3187.00,0.0049
3186.00,0.0049
3185.00,0.0049
3184.00,0.0048
3183.00,0.0047
3182.00,0.0047
3181.00,0.0047
3180.00,0.0046
3179.00,0.0046
3178.00,0.0045
3177.00,0.0045
3176.00,0.0045
3175.00,0.0045
3174.00,0.0045
3173.00,0.0044
3172.00,0.0044
3171.00,0.0044
3170.00,0.0044
3169.00,0.0044
3168.00,0.0044
3167.00,0.0044
3166.00,0.0044
3165.00,0.0044
3164.00,0.0043
3163.00,0.0043
3162.00,0.0043
3161.00,0.0042
3160.00,0.0042
3159.00,0.0042
3158.00,0.0042
3157.00,0.0042
3156.00,0.0042
3155.00,0.0042
3154.00,0.0042
3153.00,0.0042
3152.00,0.0041
3151.00,0.0041
3150.00,0.0041
3149.00,0.0041
3148.00,0.0042
3147.00,0.0042
3146.00,0.0042
3145.00,0.0042
3144.00,0.0041
3143.00,0.0041
3142.00,0.0041
3141.00,0.0041
3140.00,0.0041
3139.00,0.0041
3138.00,0.0040
3137.00,0.0040
3136.00,0.0040
3135.00,0.0040
3134.00,0.0039
3133.00,0.0039
3132.00,0.0039
3131.00,0.0039
3130.00,0.0038
3129.00,0.0038
3128.00,0.0037
3127.00,0.0037
3126.00,0.0036
3125.00,0.0036
3124.00,0.0036
3123.00,0.0036
3122.00,0.0036
3121.00,0.0036
3120.00,0.0036
3119.00,0.0036
3118.00,0.0035
3117.00,0.0035
3116.00,0.0035
3115.00,0.0036
3114.00,0.0036
3113.00,0.0036
3112.00,0.0035
3111.00,0.0035
3110.00,0.0034
3109.00,0.0034
3108.00,0.0034
3107.00,0.0034
3106.00,0.0034
3105.00,0.0033
3104.00,0.0033
3103.00,0.0033
3102.00,0.0033
3101.00,0.0032
3100.00,0.0032
3099.00,0.0032
3098.00,0.0032
3097.00,0.0032
3096.00,0.0033
3095.00,0.0033
3094.00,0.0033
3093.00,0.0033
3092.00,0.0033
3091.00,0.0033
3090.00,0.0033
3089.00,0.0033
3088.00,0.0033
3087.00,0.0033
3086.00,0.0033
3085.00,0.0033
3084.00,0.0032
3083.00,0.0032
3082.00,0.0032
3081.00,0.0032
3080.00,0.0032
3079.00,0.0032
3078.00,0.0033
3077.00,0.0033
3076.00,0.0033
3075.00,0.0033
3074.00,0.0033
3073.00,0.0033
3072.00,0.0033
3071.00,0.0034
3070.00,0.0034
3069.00,0.0034
3068.00,0.0034
3067.00,0.0034
3066.00,0.0034
3065.00,0.0035
3064.00,0.0035
3063.00,0.0035
3062.00,0.0035
3061.00,0.0035
3060.00,0.0035
3059.00,0.0035
3058.00,0.0035
3057.00,0.0035
3056.00,0.0035
3055.00,0.0035
3054.00,0.0035
3053.00,0.0035
3052.00,0.0036
3051.00,0.0036
3050.00,0.0036
3049.00,0.0036
3048.00,0.0036
3047.00,0.0036
3046.00,0.0036
3045.00,0.0037
3044.00,0.0037
3043.00,0.0037
3042.00,0.0038
3041.00,0.0038
3040.00,0.0038
3039.00,0.0039
3038.00,0.0039
3037.00,0.0040
3036.00,0.0040
3035.00,0.0040
3034.00,0.0041
3033.00,0.0041
3032.00,0.0041
3031.00,0.0041
3030.00,0.0042
3029.00,0.0042
3028.00,0.0042
3027.00,0.0043
3026.00,0.0044
3025.00,0.0044
3024.00,0.0045
3023.00,0.0046
3022.00,0.0046
3021.00,0.0047
3020.00,0.0047
3019.00,0.0048
3018.00,0.0048
3017.00,0.0048
3016.00,0.0049
3015.00,0.0049
3014.00,0.0049
3013.00,0.0049
3012.00,0.0049
3011.00,0.0049
3010.00,0.0049
3009.00,0.0049
3008.00,0.0050
3007.00,0.0050
3006.00,0.0050
3005.00,0.0050
3004.00,0.0050
3003.00,0.0050
3002.00,0.0051
3001.00,0.0052
3000.00,0.0053
2999.00,0.0054
2998.00,0.0056
2997.00,0.0058
2996.00,0.0061
2995.00,0.0064
2994.00,0.0068
2993.00,0.0072
2992.00,0.0077
2991.00,0.0082
2990.00,0.0088
2989.00,0.0095
2988.00,0.0102
2987.00,0.0110
2986.00,0.0117
2985.00,0.0124
2984.00,0.0132
2983.00,0.0141
2982.00,0.0155
2981.00,0.0173
2980.00,0.0196
2979.00,0.0224
2978.00,0.0255
2977.00,0.0289
2976.00,0.0326
2975.00,0.0368
2974.00,0.0415
2973.00,0.0468
2972.00,0.0529
2971.00,0.0599
2970.00,0.0678
2969.00,0.0766
2968.00,0.0864
2967.00,0.0970
2966.00,0.1084
2965.00,0.1205
2964.00,0.1329
2963.00,0.1454
2962.00,0.1572
2961.00,0.1679
2960.00,0.1768
2959.00,0.1837
2958.00,0.1885
2957.00,0.1915
2956.00,0.1934
2955.00,0.1949
2954.00,0.1963
2953.00,0.1977
2952.00,0.1988
2951.00,0.1987
2950.00,0.1968
2949.00,0.1923
2948.00,0.1848
2947.00,0.1746
2946.00,0.1624
2945.00,0.1493
2944.00,0.1366
2943.00,0.1254
2942.00,0.1162
2941.00,0.1094
2940.00,0.1050
2939.00,0.1029
2938.00,0.1029
2937.00,0.1046
2936.00,0.1080
2935.00,0.1127
2934.00,0.1187
2933.00,0.1258
2932.00,0.1339
2931.00,0.1427
2930.00,0.1519
2929.00,0.1612
2928.00,0.1704
2927.00,0.1791
2926.00,0.1874
2925.00,0.1951
2924.00,0.2024
2923.00,0.2094
2922.00,0.2161
2921.00,0.2223
2920.00,0.2278
2919.00,0.2320
2918.00,0.2344
2917.00,0.2344
2916.00,0.2320
2915.00,0.2275
2914.00,0.2214
2913.00,0.2147
2912.00,0.2079
2911.00,0.2015
2910.00,0.1956
2909.00,0.1902
2908.00,0.1852
2907.00,0.1801
2906.00,0.1748
2905.00,0.1691
2904.00,0.1630
2903.00,0.1565
2902.00,0.1497
2901.00,0.1428
2900.00,0.1360
2899.00,0.1296
2898.00,0.1235
2897.00,0.1180
2896.00,0.1131
2895.00,0.1089
2894.00,0.1055
2893.00,0.1027
2892.00,0.1007
2891.00,0.0993
2890.00,0.0984
2889.00,0.0981
2888.00,0.0981
2887.00,0.0985
2886.00,0.0993
2885.00,0.1004
2884.00,0.1018
2883.00,0.1037
2882.00,0.1059
2881.00,0.1082
2880.00,0.1105
2879.00,0.1124
2878.00,0.1135
2877.00,0.1137
2876.00,0.1132
2875.00,0.1124
2874.00,0.1117
2873.00,0.1115
2872.00,0.1120
2871.00,0.1131
2870.00,0.1147
2869.00,0.1163
2868.00,0.1173
2867.00,0.1170
2866.00,0.1146
2865.00,0.1100
2864.00,0.1033
2863.00,0.0952
2862.00,0.0868
2861.00,0.0789
2860.00,0.0720
2859.00,0.0665
2858.00,0.0624
2857.00,0.0595
2856.00,0.0577
2855.00,0.0567
2854.00,0.0565
2853.00,0.0570
2852.00,0.0581
2851.00,0.0598
2850.00,0.0622
2849.00,0.0651
2848.00,0.0687
2847.00,0.0731
2846.00,0.0783
2845.00,0.0845
2844.00,0.0916
2843.00,0.0993
2842.00,0.1074
2841.00,0.1150
2840.00,0.1214
2839.00,0.1256
2838.00,0.1268
2837.00,0.1243
2836.00,0.1182
2835.00,0.1091
2834.00,0.0981
2833.00,0.0866
2832.00,0.0756
2831.00,0.0658
2830.00,0.0576
2829.00,0.0508
2828.00,0.0454
2827.00,0.0410
2826.00,0.0374
2825.00,0.0344
2824.00,0.0320
2823.00,0.0299
2822.00,0.0281
2821.00,0.0265
2820.00,0.0251
2819.00,0.0239
2818.00,0.0229
2817.00,0.0220
2816.00,0.0212
2815.00,0.0205
2814.00,0.0199
2813.00,0.0193
2812.00,0.0188
2811.00,0.0183
2810.00,0.0178
2809.00,0.0173
2808.00,0.0167
2807.00,0.0162
2806.00,0.0155
2805.00,0.0149
2804.00,0.0143
2803.00,0.0137
2802.00,0.0131
2801.00,0.0126
2800.00,0.0123
2799.00,0.0120
2798.00,0.0117
2797.00,0.0115
2796.00,0.0113
2795.00,0.0111
2794.00,0.0109
2793.00,0.0106
2792.00,0.0103
2791.00,0.0099
2790.00,0.0095
2789.00,0.0091
2788.00,0.0088
2787.00,0.0084
2786.00,0.0081
2785.00,0.0079
2784.00,0.0076
2783.00,0.0074
2782.00,0.0072
2781.00,0.0070
2780.00,0.0068
2779.00,0.0066
2778.00,0.0065
2777.00,0.0063
2776.00,0.0062
2775.00,0.0061
2774.00,0.0060
2773.00,0.0060
2772.00,0.0059
2771.00,0.0058
2770.00,0.0058
2769.00,0.0057
2768.00,0.0057
2767.00,0.0057
2766.00,0.0056
2765.00,0.0056
2764.00,0.0056
2763.00,0.0055
2762.00,0.0055
2761.00,0.0054
2760.00,0.0054
2759.00,0.0053
2758.00,0.0053
2757.00,0.0053
2756.00,0.0052
2755.00,0.0052
2754.00,0.0052
2753.00,0.0052
2752.00,0.0053
2751.00,0.0053
2750.00,0.0053
2749.00,0.0053
2748.00,0.0053
2747.00,0.0053
2746.00,0.0054
2745.00,0.0055
2744.00,0.0055
2743.00,0.0056
2742.00,0.0057
2741.00,0.0058
2740.00,0.0059
2739.00,0.0061
2738.00,0.0062
2737.00,0.0063
2736.00,0.0065
2735.00,0.0066
2734.00,0.0068
2733.00,0.0070
2732.00,0.0071
2731.00,0.0073
2730.00,0.0075
2729.00,0.0077
2728.00,0.0079
2727.00,0.0082
2726.00,0.0085
2725.00,0.0087
2724.00,0.0089
2723.00,0.0089
2722.00,0.0089
2721.00,0.0087
2720.00,0.0084
2719.00,0.0080
2718.00,0.0077
2717.00,0.0074
2716.00,0.0071
2715.00,0.0068
2714.00,0.0066
2713.00,0.0064
2712.00,0.0062
2711.00,0.0060
2710.00,0.0058
2709.00,0.0057
2708.00,0.0056
2707.00,0.0055
2706.00,0.0054
2705.00,0.0053
2704.00,0.0052
2703.00,0.0051
2702.00,0.0050
2701.00,0.0049
2700.00,0.0049
2699.00,0.0049
2698.00,0.0048
2697.00,0.0048
2696.00,0.0047
2695.00,0.0047
2694.00,0.0047
2693.00,0.0047
2692.00,0.0047
2691.00,0.0047
2690.00,0.0047
2689.00,0.0047
2688.00,0.0047
2687.00,0.0047
2686.00,0.0048
2685.00,0.0048
2684.00,0.0048
2683.00,0.0047
2682.00,0.0047
2681.00,0.0047
2680.00,0.0048
2679.00,0.0048
2678.00,0.0048
2677.00,0.0048
2676.00,0.0047
2675.00,0.0047
2674.00,0.0046
2673.00,0.0046
2672.00,0.0045
2671.00,0.0045
2670.00,0.0045
2669.00,0.0045
2668.00,0.0045
2667.00,0.0045
2666.00,0.0046
2665.00,0.0046
2664.00,0.0047
2663.00,0.0047
2662.00,0.0047
2661.00,0.0048
2660.00,0.0048
2659.00,0.0048
2658.00,0.0048
2657.00,0.0047
2656.00,0.0047
2655.00,0.0047
2654.00,0.0046
2653.00,0.0046
2652.00,0.0045
2651.00,0.0045
2650.00,0.0044
2649.00,0.0044
2648.00,0.0044
2647.00,0.0043
2646.00,0.0043
2645.00,0.0042
2644.00,0.0042
2643.00,0.0042
2642.00,0.0041
2641.00,0.0041
2640.00,0.0040
2639.00,0.0040
2638.00,0.0039
2637.00,0.0039
2636.00,0.0039
2635.00,0.0039
2634.00,0.0039
2633.00,0.0039
2632.00,0.0039
2631.00,0.0040
2630.00,0.0040
2629.00,0.0040
2628.00,0.0040
2627.00,0.0041
2626.00,0.0041
2625.00,0.0041
2624.00,0.0041
2623.00,0.0041
2622.00,0.0042
2621.00,0.0043
2620.00,0.0043
2619.00,0.0043
2618.00,0.0043
2617.00,0.0043
2616.00,0.0042
2615.00,0.0042
2614.00,0.0042
2613.00,0.0042
2612.00,0.0041
2611.00,0.0040
2610.00,0.0039
2609.00,0.0039
2608.00,0.0038
2607.00,0.0038
2606.00,0.0037
2605.00,0.0036
2604.00,0.0035
2603.00,0.0034
2602.00,0.0033
2601.00,0.0033
2600.00,0.0034
2599.00,0.0033
2598.00,0.0033
2597.00,0.0033
2596.00,0.0033
2595.00,0.0033
2594.00,0.0033
2593.00,0.0033
2592.00,0.0034
2591.00,0.0035
2590.00,0.0036
2589.00,0.0037
2588.00,0.0037
2587.00,0.0038
2586.00,0.0038
2585.00,0.0038
2584.00,0.0038
2583.00,0.0039
2582.00,0.0039
2581.00,0.0039
2580.00,0.0039
2579.00,0.0038
2578.00,0.0037
2577.00,0.0036
2576.00,0.0035
2575.00,0.0034
2574.00,0.0033
2573.00,0.0032
2572.00,0.0031
2571.00,0.0030
2570.00,0.0030
2569.00,0.0029
2568.00,0.0029
2567.00,0.0028
2566.00,0.0028
2565.00,0.0027
2564.00,0.0027
2563.00,0.0027
2562.00,0.0027
2561.00,0.0027
2560.00,0.0026
2559.00,0.0026
2558.00,0.0025
2557.00,0.0025
2556.00,0.0024
2555.00,0.0024
2554.00,0.0024
2553.00,0.0024
2552.00,0.0024
2551.00,0.0023
2550.00,0.0023
2549.00,0.0023
2548.00,0.0022
2547.00,0.0022
2546.00,0.0021
2545.00,0.0021
2544.00,0.0021
2543.00,0.0021
2542.00,0.0021
2541.00,0.0020
2540.00,0.0020
2539.00,0.0020
2538.00,0.0020
2537.00,0.0020
2536.00,0.0020
2535.00,0.0019
2534.00,0.0018
2533.00,0.0018
2532.00,0.0017
2531.00,0.0017
2530.00,0.0017
2529.00,0.0017
2528.00,0.0017
2527.00,0.0017
2526.00,0.0017
2525.00,0.0017
2524.00,0.0017
2523.00,0.0016
2522.00,0.0016
2521.00,0.0016
2520.00,0.0015
2519.00,0.0015
2518.00,0.0015
2517.00,0.0014
2516.00,0.0014
2515.00,0.0014
2514.00,0.0013
2513.00,0.0013
2512.00,0.0013
2511.00,0.0013
2510.00,0.0012
2509.00,0.0012
2508.00,0.0011
2507.00,0.0011
2506.00,0.0011
2505.00,0.0011
2504.00,0.0011
2503.00,0.0012
2502.00,0.0012
2501.00,0.0013
2500.00,0.0013
2499.00,0.0013
2498.00,0.0013
2497.00,0.0013
2496.00,0.0013
2495.00,0.0013
2494.00,0.0013
2493.00,0.0013
2492.00,0.0013
2491.00,0.0013
2490.00,0.0013
2489.00,0.0013
2488.00,0.0013
2487.00,0.0013
2486.00,0.0013
2485.00,0.0013
2484.00,0.0013
2483.00,0.0012
2482.00,0.0012
2481.00,0.0011
2480.00,0.0011
2479.00,0.0011
2478.00,0.0010
2477.00,0.0010
2476.00,0.0010
2475.00,0.0010
2474.00,0.0010
2473.00,0.0011
2472.00,0.0011
2471.00,0.0011
2470.00,0.0011
2469.00,0.0011
2468.00,0.0011
2467.00,0.0011
2466.00,0.0011
2465.00,0.0011
2464.00,0.0011
2463.00,0.0011
2462.00,0.0012
2461.00,0.0013
2460.00,0.0014
2459.00,0.0013
2458.00,0.0013
2457.00,0.0012
2456.00,0.0012
2455.00,0.0013
2454.00,0.0013
2453.00,0.0013
2452.00,0.0013
2451.00,0.0013
2450.00,0.0013
2449.00,0.0013
2448.00,0.0012
2447.00,0.0012
2446.00,0.0011
2445.00,0.0011
2444.00,0.0012
2443.00,0.0012
2442.00,0.0013
2441.00,0.0013
2440.00,0.0013
2439.00,0.0014
2438.00,0.0014
2437.00,0.0015
2436.00,0.0015
2435.00,0.0016
2434.00,0.0015
2433.00,0.0015
2432.00,0.0014
2431.00,0.0014
2430.00,0.0013
2429.00,0.0013
2428.00,0.0013
2427.00,0.0012
2426.00,0.0012
2425.00,0.0013
2424.00,0.0013
2423.00,0.0014
2422.00,0.0014
2421.00,0.0014
2420.00,0.0013
2419.00,0.0013
2418.00,0.0013
2417.00,0.0013
2416.00,0.0012
2415.00,0.0012
2414.00,0.0012
2413.00,0.0013
2412.00,0.0013
2411.00,0.0014
2410.00,0.0014
2409.00,0.0014
2408.00,0.0014
2407.00,0.0013
2406.00,0.0012
2405.00,0.0011
2404.00,0.0011
2403.00,0.0011
2402.00,0.0011
2401.00,0.0011
2400.00,0.0011
2399.00,0.0011
2398.00,0.0012
2397.00,0.0012
2396.00,0.0012
2395.00,0.0012
2394.00,0.0012
2393.00,0.0011
2392.00,0.0011
2391.00,0.0010
2390.00,0.0010
2389.00,0.0010
2388.00,0.0010
2387.00,0.0010
2386.00,0.0009
2385.00,0.0008
2384.00,0.0008
2383.00,0.0007
2382.00,0.0006
2381.00,0.0006
2380.00,0.0005
2379.00,0.0005
2378.00,0.0005
2377.00,0.0005
2376.00,0.0005
2375.00,0.0005
2374.00,0.0005
2373.00,0.0005
2372.00,0.0005
2371.00,0.0005
2370.00,0.0005
2369.00,0.0004
2368.00,0.0004
2367.00,0.0004
2366.00,0.0004
2365.00,0.0005
2364.00,0.0006
2363.00,0.0006
2362.00,0.0005
2361.00,0.0005
2360.00,0.0005
2359.00,0.0004
2358.00,0.0004
2357.00,0.0004
2356.00,0.0005
2355.00,0.0006
2354.00,0.0007
2353.00,0.0007
2352.00,0.0006
2351.00,0.0005
2350.00,0.0005
2349.00,0.0006
2348.00,0.0006
2347.00,0.0006
2346.00,0.0005
2345.00,0.0006
2344.00,0.0007
2343.00,0.0007
2342.00,0.0008
2341.00,0.0008
2340.00,0.0008
2339.00,0.0008
2338.00,0.0008
2337.00,0.0008
2336.00,0.0007
2335.00,0.0007
2334.00,0.0008
2333.00,0.0008
2332.00,0.0008
2331.00,0.0007
2330.00,0.0008
2329.00,0.0008
2328.00,0.0009
2327.00,0.0012
2326.00,0.0017
2325.00,0.0021
2324.00,0.0023
2323.00,0.0022
2322.00,0.0021
2321.00,0.0019
2320.00,0.0018
2319.00,0.0017
2318.00,0.0016
2317.00,0.0015
2316.00,0.0014
2315.00,0.0013
2314.00,0.0013
2313.00,0.0012
2312.00,0.0012
2311.00,0.0012
2310.00,0.0012
2309.00,0.0012
2308.00,0.0012
2307.00,0.0012
2306.00,0.0012
2305.00,0.0012
2304.00,0.0011
2303.00,0.0012
2302.00,0.0012
2301.00,0.0012
2300.00,0.0013
2299.00,0.0013
2298.00,0.0013
2297.00,0.0014
2296.00,0.0015
2295.00,0.0015
2294.00,0.0015
2293.00,0.0015
2292.00,0.0016
2291.00,0.0017
2290.00,0.0018
2289.00,0.0019
2288.00,0.0019
2287.00,0.0019
2286.00,0.0019
2285.00,0.0018
2284.00,0.0018
2283.00,0.0018
2282.00,0.0018
2281.00,0.0018
2280.00,0.0018
2279.00,0.0018
2278.00,0.0017
2277.00,0.0016
2276.00,0.0015
2275.00,0.0015
2274.00,0.0015
2273.00,0.0015
2272.00,0.0015
2271.00,0.0015
2270.00,0.0015
2269.00,0.0015
2268.00,0.0015
2267.00,0.0015
2266.00,0.0014
2265.00,0.0013
2264.00,0.0013
2263.00,0.0013
2262.00,0.0012
2261.00,0.0013
2260.00,0.0014
2259.00,0.0015
2258.00,0.0016
2257.00,0.0016
2256.00,0.0014
2255.00,0.0012
2254.00,0.0011
2253.00,0.0010
2252.00,0.0009
2251.00,0.0009
2250.00,0.0009
2249.00,0.0010
2248.00,0.0012
2247.00,0.0013
2246.00,0.0013
2245.00,0.0012
2244.00,0.0012
2243.00,0.0011
2242.00,0.0011
2241.00,0.0011
2240.00,0.0011
2239.00,0.0011
2238.00,0.0011
2237.00,0.0011
2236.00,0.0011
2235.00,0.0011
2234.00,0.0010
2233.00,0.0010
2232.00,0.0010
2231.00,0.0009
2230.00,0.0009
2229.00,0.0008
2228.00,0.0008
2227.00,0.0007
2226.00,0.0006
2225.00,0.0006
2224.00,0.0006
2223.00,0.0007
2222.00,0.0008
2221.00,0.0009
2220.00,0.0011
2219.00,0.0012
2218.00,0.0013
2217.00,0.0012
2216.00,0.0011
2215.00,0.0011
2214.00,0.0010
2213.00,0.0010
2212.00,0.0009
2211.00,0.0009
2210.00,0.0008
2209.00,0.0008
2208.00,0.0007
2207.00,0.0006
2206.00,0.0004
2205.00,0.0004
2204.00,0.0005
2203.00,0.0006
2202.00,0.0008
2201.00,0.0010
2200.00,0.0011
2199.00,0.0011
2198.00,0.0010
2197.00,0.0009
2196.00,0.0010
2195.00,0.0012
2194.00,0.0014
2193.00,0.0017
2192.00,0.0017
2191.00,0.0016
2190.00,0.0014
2189.00,0.0013
2188.00,0.0013
2187.00,0.0013
2186.00,0.0012
2185.00,0.0010
2184.00,0.0008
2183.00,0.0004
2182.00,0.0001
2181.00,0.0000
2180.00,0.0002
2179.00,0.0006
2178.00,0.0010
2177.00,0.0012
2176.00,0.0011
2175.00,0.0008
2174.00,0.0005
2173.00,0.0003
2172.00,0.0003
2171.00,0.0004
2170.00,0.0006
2169.00,0.0010
2168.00,0.0013
2167.00,0.0015
2166.00,0.0016
2165.00,0.0016
2164.00,0.0017
2163.00,0.0019
2162.00,0.0020
2161.00,0.0017
2160.00,0.0007
2159.00,-0.0008
2158.00,-0.0021
2157.00,-0.0029
2156.00,-0.0030
2155.00,-0.0028
2154.00,-0.0024
2153.00,-0.0019
2152.00,-0.0016
2151.00,-0.0013
2150.00,-0.0012
2149.00,-0.0010
2148.00,-0.0008
2147.00,-0.0007
2146.00,-0.0007
2145.00,-0.0008
2144.00,-0.0008
2143.00,-0.0008
2142.00,-0.0008
2141.00,-0.0008
2140.00,-0.0009
2139.00,-0.0009
2138.00,-0.0008
2137.00,-0.0008
2136.00,-0.0009
2135.00,-0.0011
2134.00,-0.0012
2133.00,-0.0012
2132.00,-0.0011
2131.00,-0.0010
2130.00,-0.0009
2129.00,-0.0008
2128.00,-0.0006
2127.00,-0.0005
2126.00,-0.0004
2125.00,-0.0003
2124.00,-0.0002
2123.00,-0.0001
2122.00,-0.0000
2121.00,0.0001
2120.00,0.0001
2119.00,0.0002
2118.00,0.0002
2117.00,0.0002
2116.00,0.0003
2115.00,0.0002
2114.00,0.0002
2113.00,0.0001
2112.00,0.0001
2111.00,0.0001
2110.00,0.0002
2109.00,0.0003
2108.00,0.0004
2107.00,0.0004
2106.00,0.0003
2105.00,0.0002
2104.00,0.0001
2103.00,0.0000
2102.00,0.0001
2101.00,0.0001
2100.00,0.0002
2099.00,0.0002
2098.00,0.0001
2097.00,-0.0000
2096.00,-0.0002
2095.00,-0.0002
2094.00,-0.0001
2093.00,0.0001
2092.00,0.0001
2091.00,0.0001
2090.00,0.0000
2089.00,0.0000
2088.00,0.0001
2087.00,0.0001
2086.00,0.0003
2085.00,0.0005
2084.00,0.0006
2083.00,0.0006
2082.00,0.0006
2081.00,0.0005
2080.00,0.0004
2079.00,0.0003
2078.00,0.0002
2077.00,0.0002
2076.00,0.0003
2075.00,0.0004
2074.00,0.0005
2073.00,0.0006
2072.00,0.0006
2071.00,0.0006
2070.00,0.0005
2069.00,0.0004
2068.00,0.0003
2067.00,0.0001
2066.00,-0.0000
2065.00,-0.0001
2064.00,-0.0001
2063.00,-0.0001
2062.00,-0.0000
2061.00,-0.0000
2060.00,-0.0000
2059.00,-0.0001
2058.00,0.0000
2057.00,0.0002
2056.00,0.0003
2055.00,0.0002
2054.00,0.0003
2053.00,0.0006
2052.00,0.0010
2051.00,0.0012
2050.00,0.0011
2049.00,0.0006
2048.00,0.0001
2047.00,-0.0002
2046.00,-0.0003
2045.00,-0.0003
2044.00,-0.0002
2043.00,0.0001
2042.00,0.0003
2041.00,0.0005
2040.00,0.0005
2039.00,0.0005
2038.00,0.0006
2037.00,0.0008
2036.00,0.0008
2035.00,0.0006
2034.00,0.0002
2033.00,-0.0003
2032.00,-0.0006
2031.00,-0.0007
2030.00,-0.0006
2029.00,-0.0003
2028.00,-0.0001
2027.00,-0.0000
2026.00,-0.0003
2025.00,-0.0005
2024.00,-0.0005
2023.00,-0.0005
2022.00,-0.0004
2021.00,-0.0005
2020.00,-0.0005
2019.00,-0.0007
2018.00,-0.0008
2017.00,-0.0008
2016.00,-0.0008
2015.00,-0.0008
2014.00,-0.0010
2013.00,-0.0012
2012.00,-0.0014
2011.00,-0.0015
2010.00,-0.0015
2009.00,-0.0016
2008.00,-0.0017
2007.00,-0.0018
2006.00,-0.0018
2005.00,-0.0017
2004.00,-0.0015
2003.00,-0.0013
2002.00,-0.0012
2001.00,-0.0011
2000.00,-0.0010
1999.00,-0.0008
1998.00,-0.0007
1997.00,-0.0007
1996.00,-0.0008
1995.00,-0.0009
1994.00,-0.0009
1993.00,-0.0009
1992.00,-0.0009
1991.00,-0.0008
1990.00,-0.0007
1989.00,-0.0005
1988.00,-0.0002
1987.00,0.0001
1986.00,0.0002
1985.00,0.0003
1984.00,0.0003
1983.00,0.0002
1982.00,0.0002
1981.00,0.0003
1980.00,0.0005
1979.00,0.0005
1978.00,0.0002
1977.00,-0.0003
1976.00,-0.0005
1975.00,-0.0005
1974.00,-0.0003
1973.00,-0.0003
1972.00,-0.0004
1971.00,-0.0006
1970.00,-0.0008
1969.00,-0.0010
1968.00,-0.0011
1967.00,-0.0013
1966.00,-0.0013
1965.00,-0.0012
1964.00,-0.0012
1963.00,-0.0012
1962.00,-0.0013
1961.00,-0.0013
1960.00,-0.0014
1959.00,-0.0015
1958.00,-0.0016
1957.00,-0.0015
1956.00,-0.0013
1955.00,-0.0012
1954.00,-0.0011
1953.00,-0.0011
1952.00,-0.0011
1951.00,-0.0013
1950.00,-0.0015
1949.00,-0.0016
1948.00,-0.0017
1947.00,-0.0017
1946.00,-0.0017
1945.00,-0.0016
1944.00,-0.0015
1943.00,-0.0014
1942.00,-0.0013
1941.00,-0.0012
1940.00,-0.0012
1939.00,-0.0013
1938.00,-0.0014
1937.00,-0.0013
1936.00,-0.0011
1935.00,-0.0010
1934.00,-0.0008
1933.00,-0.0007
1932.00,-0.0007
1931.00,-0.0007
1930.00,-0.0006
1929.00,-0.0005
1928.00,-0.0004
1927.00,-0.0004
1926.00,-0.0004
1925.00,-0.0005
1924.00,-0.0006
1923.00,-0.0006
1922.00,-0.0006
1921.00,-0.0006
1920.00,-0.0005
1919.00,-0.0004
1918.00,-0.0004
1917.00,-0.0003
1916.00,-0.0003
1915.00,-0.0004
1914.00,-0.0003
1913.00,-0.0002
1912.00,-0.0000
1911.00,0.0001
1910.00,0.0002
1909.00,0.0002
1908.00,0.0001
1907.00,-0.0001
1906.00,-0.0002
1905.00,-0.0001
1904.00,-0.0001
1903.00,-0.0001
1902.00,-0.0001
1901.00,-0.0002
1900.00,-0.0002
1899.00,-0.0002
1898.00,-0.0001
1897.00,0.0000
1896.00,0.0001
1895.00,0.0002
1894.00,0.0002
1893.00,0.0002
1892.00,0.0002
1891.00,0.0002
1890.00,0.0001
1889.00,0.0000
1888.00,-0.0000
1887.00,-0.0000
1886.00,-0.0000
1885.00,-0.0000
1884.00,0.0000
1883.00,-0.0000
1882.00,-0.0000
1881.00,-0.0000
1880.00,0.0000
1879.00,0.0000
1878.00,-0.0000
1877.00,-0.0001
1876.00,-0.0001
1875.00,-0.0001
1874.00,-0.0001
1873.00,-0.0001
1872.00,-0.0001
1871.00,-0.0001
1870.00,-0.0001
1869.00,-0.0001
1868.00,-0.0000
1867.00,-0.0000
1866.00,0.0001
1865.00,0.0002
1864.00,0.0003
1863.00,0.0004
1862.00,0.0004
1861.00,0.0003
1860.00,0.0003
1859.00,0.0002
1858.00,0.0002
1857.00,0.0002
1856.00,0.0002
1855.00,0.0002
1854.00,0.0002
1853.00,0.0002
1852.00,0.0001
1851.00,0.0001
1850.00,0.0001
1849.00,0.0002
1848.00,0.0002
1847.00,0.0003
1846.00,0.0002
1845.00,0.0002
1844.00,0.0003
1843.00,0.0003
1842.00,0.0003
1841.00,0.0003
1840.00,0.0003
1839.00,0.0004
1838.00,0.0004
1837.00,0.0005
1836.00,0.0005
1835.00,0.0005
1834.00,0.0004
1833.00,0.0004
1832.00,0.0004
1831.00,0.0004
1830.00,0.0005
1829.00,0.0005
1828.00,0.0005
1827.00,0.0005
1826.00,0.0005
1825.00,0.0005
1824.00,0.0005
1823.00,0.0004
1822.00,0.0003
1821.00,0.0003
1820.00,0.0003
1819.00,0.0003
1818.00,0.0002
1817.00,0.0002
1816.00,0.0003
1815.00,0.0003
1814.00,0.0004
1813.00,0.0004
1812.00,0.0005
1811.00,0.0005
1810.00,0.0006
1809.00,0.0006
1808.00,0.0007
1807.00,0.0006
1806.00,0.0006
1805.00,0.0006
1804.00,0.0006
1803.00,0.0006
1802.00,0.0006
1801.00,0.0006
1800.00,0.0006
1799.00,0.0007
1798.00,0.0007
1797.00,0.0007
1796.00,0.0007
1795.00,0.0007
1794.00,0.0007
1793.00,0.0007
1792.00,0.0008
1791.00,0.0008
1790.00,0.0008
1789.00,0.0008
1788.00,0.0008
1787.00,0.0008
1786.00,0.0008
1785.00,0.0008
1784.00,0.0008
1783.00,0.0008
1782.00,0.0008
1781.00,0.0009
1780.00,0.0009
1779.00,0.0008
1778.00,0.0008
1777.00,0.0007
1776.00,0.0007
1775.00,0.0006
1774.00,0.0006
1773.00,0.0007
1772.00,0.0008
1771.00,0.0010
1770.00,0.0011
1769.00,0.0012
1768.00,0.0012
1767.00,0.0012
1766.00,0.0012
1765.00,0.0012
1764.00,0.0012
1763.00,0.0012
1762.00,0.0013
1761.00,0.0013
1760.00,0.0013
1759.00,0.0013
1758.00,0.0013
1757.00,0.0013
1756.00,0.0013
1755.00,0.0013
1754.00,0.0013
1753.00,0.0013
1752.00,0.0013
1751.00,0.0014
1750.00,0.0015
1749.00,0.0015
1748.00,0.0016
1747.00,0.0016
1746.00,0.0017
1745.00,0.0017
1744.00,0.0017
1743.00,0.0017
1742.00,0.0017
1741.00,0.0017
1740.00,0.0018
1739.00,0.0018
1738.00,0.0019
1737.00,0.0019
1736.00,0.0019
1735.00,0.0019
1734.00,0.0019
1733.00,0.0020
1732.00,0.0020
1731.00,0.0020
1730.00,0.0021
1729.00,0.0021
1728.00,0.0021
1727.00,0.0020
1726.00,0.0020
1725.00,0.0020
1724.00,0.0020
1723.00,0.0020
1722.00,0.0020
1721.00,0.0021
1720.00,0.0022
1719.00,0.0022
1718.00,0.0022
1717.00,0.0022
1716.00,0.0023
1715.00,0.0024
1714.00,0.0024
1713.00,0.0025
1712.00,0.0025
1711.00,0.0025
1710.00,0.0024
1709.00,0.0024
1708.00,0.0025
1707.00,0.0025
1706.00,0.0026
1705.00,0.0027
1704.00,0.0028
1703.00,0.0028
1702.00,0.0029
1701.00,0.0030
1700.00,0.0030
1699.00,0.0030
1698.00,0.0029
1697.00,0.0030
1696.00,0.0031
1695.00,0.0033
1694.00,0.0034
1693.00,0.0035
1692.00,0.0035
1691.00,0.0036
1690.00,0.0037
1689.00,0.0037
1688.00,0.0039
1687.00,0.0040
1686.00,0.0041
1685.00,0.0043
1684.00,0.0044
1683.00,0.0044
1682.00,0.0044
1681.00,0.0045
1680.00,0.0046
1679.00,0.0047
1678.00,0.0047
1677.00,0.0048
1676.00,0.0049
1675.00,0.0051
1674.00,0.0052
1673.00,0.0052
1672.00,0.0053
1671.00,0.0053
1670.00,0.0054
1669.00,0.0055
1668.00,0.0056
1667.00,0.0057
1666.00,0.0057
1665.00,0.0057
1664.00,0.0057
1663.00,0.0057
1662.00,0.0058
1661.00,0.0059
1660.00,0.0060
1659.00,0.0061
1658.00,0.0061
1657.00,0.0062
1656.00,0.0063
1655.00,0.0065
1654.00,0.0067
1653.00,0.0069
1652.00,0.0070
1651.00,0.0071
1650.00,0.0072
1649.00,0.0073
1648.00,0.0076
1647.00,0.0078
1646.00,0.0080
1645.00,0.0079
1644.00,0.0078
1643.00,0.0076
1642.00,0.0074
1641.00,0.0072
1640.00,0.0071
1639.00,0.0069
1638.00,0.0068
1637.00,0.0068
1636.00,0.0068
1635.00,0.0068
1634.00,0.0069
1633.00,0.0069
1632.00,0.0069
1631.00,0.0069
1630.00,0.0069
1629.00,0.0069
1628.00,0.0069
1627.00,0.0068
1626.00,0.0067
1625.00,0.0066
1624.00,0.0065
1623.00,0.0064
1622.00,0.0063
1621.00,0.0062
1620.00,0.0062
1619.00,0.0061
1618.00,0.0060
1617.00,0.0059
1616.00,0.0059
1615.00,0.0058
1614.00,0.0057
1613.00,0.0057
1612.00,0.0058
1611.00,0.0057
1610.00,0.0057
1609.00,0.0057
1608.00,0.0056
1607.00,0.0056
1606.00,0.0055
1605.00,0.0055
1604.00,0.0055
1603.00,0.0055
1602.00,0.0055
1601.00,0.0055
1600.00,0.0054
1599.00,0.0054
1598.00,0.0054
1597.00,0.0054
1596.00,0.0054
1595.00,0.0054
1594.00,0.0054
1593.00,0.0055
1592.00,0.0055
1591.00,0.0055
1590.00,0.0055
1589.00,0.0056
1588.00,0.0057
1587.00,0.0058
1586.00,0.0059
1585.00,0.0060
1584.00,0.0061
1583.00,0.0063
1582.00,0.0065
1581.00,0.0067
1580.00,0.0068
1579.00,0.0069
1578.00,0.0070
1577.00,0.0071
1576.00,0.0072
1575.00,0.0071
1574.00,0.0070
1573.00,0.0069
1572.00,0.0067
1571.00,0.0066
1570.00,0.0064
1569.00,0.0063
1568.00,0.0062
1567.00,0.0061
1566.00,0.0061
1565.00,0.0061
1564.00,0.0061
1563.00,0.0061
1562.00,0.0062
1561.00,0.0063
1560.00,0.0064
1559.00,0.0063
1558.00,0.0063
1557.00,0.0064
1556.00,0.0065
1555.00,0.0066
1554.00,0.0067
1553.00,0.0068
1552.00,0.0069
1551.00,0.0070
1550.00,0.0070
1549.00,0.0071
1548.00,0.0073
1547.00,0.0074
1546.00,0.0076
1545.00,0.0078
1544.00,0.0080
1543.00,0.0081
1542.00,0.0082
1541.00,0.0082
1540.00,0.0081
1539.00,0.0080
1538.00,0.0078
1537.00,0.0076
1536.00,0.0075
1535.00,0.0073
1534.00,0.0071
1533.00,0.0069
1532.00,0.0067
1531.00,0.0065
1530.00,0.0064
1529.00,0.0064
1528.00,0.0064
1527.00,0.0063
1526.00,0.0062
1525.00,0.0062
1524.00,0.0062
1523.00,0.0062
1522.00,0.0061
1521.00,0.0061
1520.00,0.0062
1519.00,0.0061
1518.00,0.0061
1517.00,0.0062
1516.00,0.0063
1515.00,0.0063
1514.00,0.0064
1513.00,0.0065
1512.00,0.0066
1511.00,0.0067
1510.00,0.0067
1509.00,0.0068
1508.00,0.0069
1507.00,0.0070
1506.00,0.0070
1505.00,0.0070
1504.00,0.0071
1503.00,0.0072
1502.00,0.0073
1501.00,0.0076
1500.00,0.0079
1499.00,0.0080
1498.00,0.0082
1497.00,0.0085
1496.00,0.0088
1495.00,0.0091
1494.00,0.0093
1493.00,0.0096
1492.00,0.0100
1491.00,0.0103
1490.00,0.0107
1489.00,0.0112
1488.00,0.0117
1487.00,0.0122
1486.00,0.0127
1485.00,0.0134
1484.00,0.0141
1483.00,0.0149
1482.00,0.0158
1481.00,0.0169
1480.00,0.0180
1479.00,0.0192
1478.00,0.0206
1477.00,0.0224
1476.00,0.0246
1475.00,0.0270
1474.00,0.0302
1473.00,0.0352
1472.00,0.0415
1471.00,0.0477
1470.00,0.0537
1469.00,0.0599
1468.00,0.0666
1467.00,0.0739
1466.00,0.0822
1465.00,0.0912
1464.00,0.0994
1463.00,0.1054
1462.00,0.1096
1461.00,0.1130
1460.00,0.1157
1459.00,0.1180
1458.00,0.1204
1457.00,0.1228
1456.00,0.1243
1455.00,0.1249
1454.00,0.1249
1453.00,0.1244
1452.00,0.1229
1451.00,0.1199
1450.00,0.1152
1449.00,0.1080
1448.00,0.0984
1447.00,0.0880
1446.00,0.0784
1445.00,0.0700
1444.00,0.0628
1443.00,0.0569
1442.00,0.0526
1441.00,0.0495
1440.00,0.0476
1439.00,0.0466
1438.00,0.0462
1437.00,0.0458
1436.00,0.0443
1435.00,0.0414
1434.00,0.0375
1433.00,0.0330
1432.00,0.0285
1431.00,0.0246
1430.00,0.0216
1429.00,0.0194
1428.00,0.0179
1427.00,0.0170
1426.00,0.0165
1425.00,0.0160
1424.00,0.0155
1423.00,0.0152
1422.00,0.0150
1421.00,0.0148
1420.00,0.0145
1419.00,0.0143
1418.00,0.0141
1417.00,0.0138
1416.00,0.0135
1415.00,0.0132
1414.00,0.0130
1413.00,0.0128
1412.00,0.0126
1411.00,0.0124
1410.00,0.0123
1409.00,0.0121
1408.00,0.0120
1407.00,0.0119
1406.00,0.0119
1405.00,0.0119
1404.00,0.0117
1403.00,0.0117
1402.00,0.0117
1401.00,0.0117
1400.00,0.0117
1399.00,0.0117
1398.00,0.0118
1397.00,0.0119
1396.00,0.0120
1395.00,0.0123
1394.00,0.0128
1393.00,0.0134
1392.00,0.0140
1391.00,0.0149
1390.00,0.0161
1389.00,0.0179
1388.00,0.0206
1387.00,0.0244
1386.00,0.0296
1385.00,0.0360
1384.00,0.0443
1383.00,0.0554
1382.00,0.0697
1381.00,0.0875
1380.00,0.1087
1379.00,0.1321
1378.00,0.1544
1377.00,0.1705
1376.00,0.1758
1375.00,0.1677
1374.00,0.1481
1373.00,0.1238
1372.00,0.1011
1371.00,0.0819
1370.00,0.0664
1369.00,0.0545
1368.00,0.0461
1367.00,0.0410
1366.00,0.0382
1365.00,0.0371
1364.00,0.0373
1363.00,0.0386
1362.00,0.0407
1361.00,0.0428
1360.00,0.0445
1359.00,0.0449
1358.00,0.0439
1357.00,0.0413
1356.00,0.0378
1355.00,0.0338
1354.00,0.0299
1353.00,0.0266
1352.00,0.0239
1351.00,0.0217
1350.00,0.0199
1349.00,0.0185
1348.00,0.0174
1347.00,0.0165
1346.00,0.0158
1345.00,0.0152
1344.00,0.0147
1343.00,0.0143
1342.00,0.0140
1341.00,0.0138
1340.00,0.0136
1339.00,0.0134
1338.00,0.0133
1337.00,0.0132
1336.00,0.0132
1335.00,0.0134
1334.00,0.0137
1333.00,0.0141
1332.00,0.0145
1331.00,0.0149
1330.00,0.0151
1329.00,0.0150
1328.00,0.0146
1327.00,0.0141
1326.00,0.0136
1325.00,0.0129
1324.00,0.0123
1323.00,0.0118
1322.00,0.0113
1321.00,0.0110
1320.00,0.0107
1319.00,0.0105
1318.00,0.0103
1317.00,0.0101
1316.00,0.0099
1315.00,0.0098
1314.00,0.0097
1313.00,0.0098
1312.00,0.0100
1311.00,0.0103
1310.00,0.0109
1309.00,0.0118
1308.00,0.0131
1307.00,0.0147
1306.00,0.0162
1305.00,0.0173
1304.00,0.0176
1303.00,0.0171
1302.00,0.0163
1301.00,0.0154
1300.00,0.0148
1299.00,0.0144
1298.00,0.0142
1297.00,0.0140
1296.00,0.0138
1295.00,0.0134
1294.00,0.0130
1293.00,0.0124
1292.00,0.0118
1291.00,0.0112
1290.00,0.0108
1289.00,0.0103
1288.00,0.0100
1287.00,0.0097
1286.00,0.0094
1285.00,0.0092
1284.00,0.0091
1283.00,0.0089
1282.00,0.0087
1281.00,0.0086
1280.00,0.0084
1279.00,0.0083
1278.00,0.0082
1277.00,0.0082
1276.00,0.0081
1275.00,0.0081
1274.00,0.0081
1273.00,0.0081
1272.00,0.0080
1271.00,0.0081
1270.00,0.0081
1269.00,0.0082
1268.00,0.0083
1267.00,0.0085
1266.00,0.0087
1265.00,0.0089
1264.00,0.0092
1263.00,0.0095
1262.00,0.0100
1261.00,0.0106
1260.00,0.0113
1259.00,0.0123
1258.00,0.0133
1257.00,0.0141
1256.00,0.0145
1255.00,0.0142
1254.00,0.0135
1253.00,0.0123
1252.00,0.0112
1251.00,0.0102
1250.00,0.0096
1249.00,0.0091
1248.00,0.0089
1247.00,0.0088
1246.00,0.0087
1245.00,0.0086
1244.00,0.0085
1243.00,0.0085
1242.00,0.0084
1241.00,0.0083
1240.00,0.0082
1239.00,0.0081
1238.00,0.0081
1237.00,0.0081
1236.00,0.0081
1235.00,0.0080
1234.00,0.0080
1233.00,0.0079
1232.00,0.0079
1231.00,0.0080
1230.00,0.0081
1229.00,0.0083
1228.00,0.0084
1227.00,0.0085
1226.00,0.0087
1225.00,0.0089
1224.00,0.0093
1223.00,0.0097
1222.00,0.0101
1221.00,0.0104
1220.00,0.0106
1219.00,0.0108
1218.00,0.0108
1217.00,0.0107
1216.00,0.0105
1215.00,0.0102
1214.00,0.0099
1213.00,0.0096
1212.00,0.0093
1211.00,0.0091
1210.00,0.0088
1209.00,0.0086
1208.00,0.0085
1207.00,0.0084
1206.00,0.0084
1205.00,0.0084
1204.00,0.0083
1203.00,0.0083
1202.00,0.0083
1201.00,0.0082
1200.00,0.0081
1199.00,0.0081
1198.00,0.0080
1197.00,0.0080
1196.00,0.0080
1195.00,0.0080
1194.00,0.0081
1193.00,0.0081
1192.00,0.0080
1191.00,0.0079
1190.00,0.0078
1189.00,0.0078
1188.00,0.0078
1187.00,0.0078
1186.00,0.0078
1185.00,0.0079
1184.00,0.0081
1183.00,0.0082
1182.00,0.0085
1181.00,0.0087
1180.00,0.0091
1179.00,0.0097
1178.00,0.0105
1177.00,0.0115
1176.00,0.0130
1175.00,0.0149
1174.00,0.0175
1173.00,0.0208
1172.00,0.0247
1171.00,0.0292
1170.00,0.0335
1169.00,0.0372
1168.00,0.0394
1167.00,0.0400
1166.00,0.0390
1165.00,0.0368
1164.00,0.0342
1163.00,0.0315
1162.00,0.0289
1161.00,0.0267
1160.00,0.0249
1159.00,0.0234
1158.00,0.0222
1157.00,0.0212
1156.00,0.0205
1155.00,0.0199
1154.00,0.0194
1153.00,0.0190
1152.00,0.0184
1151.00,0.0176
1150.00,0.0167
1149.00,0.0158
1148.00,0.0148
1147.00,0.0140
1146.00,0.0131
1145.00,0.0123
1144.00,0.0115
1143.00,0.0108
1142.00,0.0102
1141.00,0.0096
1140.00,0.0091
1139.00,0.0087
1138.00,0.0083
1137.00,0.0080
1136.00,0.0079
1135.00,0.0078
1134.00,0.0077
1133.00,0.0075
1132.00,0.0073
1131.00,0.0073
1130.00,0.0074
1129.00,0.0076
1128.00,0.0078
1127.00,0.0080
1126.00,0.0081
1125.00,0.0082
1124.00,0.0083
1123.00,0.0083
1122.00,0.0084
1121.00,0.0084
1120.00,0.0085
1119.00,0.0085
1118.00,0.0086
1117.00,0.0087
1116.00,0.0088
1115.00,0.0089
1114.00,0.0092
1113.00,0.0094
1112.00,0.0097
1111.00,0.0101
1110.00,0.0105
1109.00,0.0109
1108.00,0.0113
1107.00,0.0119
1106.00,0.0125
1105.00,0.0131
1104.00,0.0136
1103.00,0.0139
1102.00,0.0139
1101.00,0.0137
1100.00,0.0132
1099.00,0.0126
1098.00,0.0119
1097.00,0.0113
1096.00,0.0107
1095.00,0.0102
1094.00,0.0098
1093.00,0.0094
1092.00,0.0091
1091.00,0.0088
1090.00,0.0087
1089.00,0.0085
1088.00,0.0083
1087.00,0.0081
1086.00,0.0080
1085.00,0.0079
1084.00,0.0079
1083.00,0.0079
1082.00,0.0078
1081.00,0.0077
1080.00,0.0076
1079.00,0.0075
1078.00,0.0074
1077.00,0.0072
1076.00,0.0071
1075.00,0.0070
1074.00,0.0070
1073.00,0.0070
1072.00,0.0070
1071.00,0.0071
1070.00,0.0071
1069.00,0.0071
1068.00,0.0072
1067.00,0.0072
1066.00,0.0072
1065.00,0.0073
1064.00,0.0074
1063.00,0.0075
1062.00,0.0076
1061.00,0.0078
1060.00,0.0079
1059.00,0.0080
1058.00,0.0081
1057.00,0.0082
1056.00,0.0083
1055.00,0.0084
1054.00,0.0086
1053.00,0.0089
1052.00,0.0092
1051.00,0.0094
1050.00,0.0097
1049.00,0.0102
1048.00,0.0107
1047.00,0.0112
1046.00,0.0116
1045.00,0.0118
1044.00,0.0119
1043.00,0.0117
1042.00,0.0115
1041.00,0.0112
1040.00,0.0110
1039.00,0.0109
1038.00,0.0108
1037.00,0.0109
1036.00,0.0110
1035.00,0.0111
1034.00,0.0111
1033.00,0.0110
1032.00,0.0109
1031.00,0.0108
1030.00,0.0108
1029.00,0.0107
1028.00,0.0107
1027.00,0.0106
1026.00,0.0105
1025.00,0.0105
1024.00,0.0106
1023.00,0.0107
1022.00,0.0107
1021.00,0.0108
1020.00,0.0109
1019.00,0.0111
1018.00,0.0112
1017.00,0.0114
1016.00,0.0117
1015.00,0.0120
1014.00,0.0125
1013.00,0.0130
1012.00,0.0136
1011.00,0.0141
1010.00,0.0145
1009.00,0.0150
1008.00,0.0156
1007.00,0.0165
1006.00,0.0176
1005.00,0.0191
1004.00,0.0212
1003.00,0.0241
1002.00,0.0281
1001.00,0.0329
1000.00,0.0381
999.00,0.0427
998.00,0.0453
997.00,0.0450
996.00,0.0418
995.00,0.0367
994.00,0.0311
993.00,0.0260
992.00,0.0219
991.00,0.0190
990.00,0.0168
989.00,0.0154
988.00,0.0144
987.00,0.0139
986.00,0.0136
985.00,0.0137
984.00,0.0141
983.00,0.0149
982.00,0.0162
981.00,0.0181
980.00,0.0205
979.00,0.0238
978.00,0.0280
977.00,0.0332
976.00,0.0391
975.00,0.0450
974.00,0.0498
973.00,0.0522
972.00,0.0512
971.00,0.0468
970.00,0.0402
969.00,0.0331
968.00,0.0266
967.00,0.0215
966.00,0.0178
965.00,0.0151
964.00,0.0132
963.00,0.0118
962.00,0.0108
961.00,0.0100
960.00,0.0092
959.00,0.0085
958.00,0.0080
957.00,0.0077
956.00,0.0074
955.00,0.0071
954.00,0.0069
953.00,0.0067
952.00,0.0066
951.00,0.0065
950.00,0.0065
949.00,0.0065
948.00,0.0065
947.00,0.0066
946.00,0.0068
945.00,0.0071
944.00,0.0075
943.00,0.0078
942.00,0.0081
941.00,0.0083
940.00,0.0082
939.00,0.0079
938.00,0.0075
937.00,0.0072
936.00,0.0069
935.00,0.0066
934.00,0.0064
933.00,0.0063
932.00,0.0062
931.00,0.0062
930.00,0.0062
929.00,0.0062
928.00,0.0062
927.00,0.0062
926.00,0.0064
925.00,0.0065
924.00,0.0066
923.00,0.0067
922.00,0.0068
921.00,0.0069
920.00,0.0071
919.00,0.0073
918.00,0.0074
917.00,0.0074
916.00,0.0074
915.00,0.0074
914.00,0.0075
913.00,0.0075
912.00,0.0077
911.00,0.0078
910.00,0.0080
909.00,0.0082
908.00,0.0085
907.00,0.0088
906.00,0.0093
905.00,0.0102
904.00,0.0116
903.00,0.0132
902.00,0.0150
901.00,0.0167
900.00,0.0178
899.00,0.0182
898.00,0.0177
897.00,0.0164
896.00,0.0146
895.00,0.0128
894.00,0.0113
893.00,0.0103
892.00,0.0096
891.00,0.0091
890.00,0.0087
889.00,0.0084
888.00,0.0081
887.00,0.0078
886.00,0.0077
885.00,0.0076
884.00,0.0076
883.00,0.0076
882.00,0.0076
881.00,0.0077
880.00,0.0078
879.00,0.0079
878.00,0.0080
877.00,0.0080
876.00,0.0080
875.00,0.0082
874.00,0.0082
873.00,0.0082
872.00,0.0082
871.00,0.0081
870.00,0.0081
869.00,0.0081
868.00,0.0081
867.00,0.0081
866.00,0.0081
865.00,0.0082
864.00,0.0083
863.00,0.0086
862.00,0.0088
861.00,0.0089
860.00,0.0090
859.00,0.0091
858.00,0.0092
857.00,0.0093
856.00,0.0095
855.00,0.0097
854.00,0.0099
853.00,0.0103
852.00,0.0109
851.00,0.0116
850.00,0.0124
849.00,0.0133
848.00,0.0146
847.00,0.0166
846.00,0.0195
845.00,0.0240
844.00,0.0302
843.00,0.0372
842.00,0.0428
841.00,0.0447
840.00,0.0421
839.00,0.0363
838.00,0.0297
837.00,0.0242
836.00,0.0204
835.00,0.0180
834.00,0.0165
833.00,0.0154
832.00,0.0146
831.00,0.0140
830.00,0.0135
829.00,0.0131
828.00,0.0127
827.00,0.0125
826.00,0.0123
825.00,0.0122
824.00,0.0120
823.00,0.0118
822.00,0.0117
821.00,0.0117
820.00,0.0119
819.00,0.0122
818.00,0.0125
817.00,0.0129
816.00,0.0135
815.00,0.0143
814.00,0.0154
813.00,0.0167
812.00,0.0182
811.00,0.0195
810.00,0.0205
809.00,0.0211
808.00,0.0210
807.00,0.0202
806.00,0.0191
805.00,0.0177
804.00,0.0164
803.00,0.0153
802.00,0.0143
801.00,0.0134
800.00,0.0128
799.00,0.0122
798.00,0.0117
797.00,0.0113
796.00,0.0109
795.00,0.0105
794.00,0.0100
793.00,0.0096
792.00,0.0092
791.00,0.0089
790.00,0.0088
789.00,0.0088
788.00,0.0088
787.00,0.0087
786.00,0.0085
785.00,0.0082
784.00,0.0079
783.00,0.0076
782.00,0.0073
781.00,0.0070
780.00,0.0069
779.00,0.0068
778.00,0.0068
777.00,0.0068
776.00,0.0069
775.00,0.0071
774.00,0.0073
773.00,0.0077
772.00,0.0081
771.00,0.0086
770.00,0.0089
769.00,0.0091
768.00,0.0091
767.00,0.0090
766.00,0.0088
765.00,0.0087
764.00,0.0086
763.00,0.0083
762.00,0.0080
761.00,0.0076
760.00,0.0072
759.00,0.0069
758.00,0.0067
757.00,0.0066
756.00,0.0065
755.00,0.0063
754.00,0.0062
753.00,0.0061
752.00,0.0061
751.00,0.0061
750.00,0.0060
749.00,0.0060
748.00,0.0060
747.00,0.0060
746.00,0.0060
745.00,0.0061
744.00,0.0062
743.00,0.0063
742.00,0.0065
741.00,0.0067
740.00,0.0069
739.00,0.0071
738.00,0.0071
737.00,0.0071
736.00,0.0071
735.00,0.0072
734.00,0.0073
733.00,0.0073
732.00,0.0074
731.00,0.0074
730.00,0.0074
729.00,0.0074
728.00,0.0074
727.00,0.0074
726.00,0.0076
725.00,0.0077
724.00,0.0077
723.00,0.0076
722.00,0.0074
721.00,0.0072
720.00,0.0071
719.00,0.0069
718.00,0.0066
717.00,0.0065
716.00,0.0064
715.00,0.0065
714.00,0.0066
713.00,0.0067
712.00,0.0068
711.00,0.0068
710.00,0.0068
709.00,0.0066
708.00,0.0065
707.00,0.0066
706.00,0.0067
705.00,0.0068
704.00,0.0068
703.00,0.0067
702.00,0.0066
701.00,0.0066
700.00,0.0065
699.00,0.0064
698.00,0.0064
697.00,0.0064
696.00,0.0065
695.00,0.0065
694.00,0.0064
693.00,0.0063
692.00,0.0062
691.00,0.0061
690.00,0.0060
689.00,0.0060
688.00,0.0061
687.00,0.0062
686.00,0.0063
685.00,0.0064
684.00,0.0064
683.00,0.0063
682.00,0.0062
681.00,0.0061
680.00,0.0060
679.00,0.0059
678.00,0.0059
677.00,0.0061
676.00,0.0063
675.00,0.0066
674.00,0.0068
673.00,0.0067
672.00,0.0067
671.00,0.0068
670.00,0.0070
669.00,0.0071
668.00,0.0070
667.00,0.0068
666.00,0.0065
665.00,0.0063
664.00,0.0063
663.00,0.0065
662.00,0.0066
661.00,0.0066
660.00,0.0066
659.00,0.0065
658.00,0.0064
657.00,0.0063
656.00,0.0060
655.00,0.0058
654.00,0.0057
653.00,0.0058
652.00,0.0059
651.00,0.0059
650.00,0.0057
649.00,0.0056
648.00,0.0056
647.00,0.0058
646.00,0.0062
645.00,0.0064
644.00,0.0066
643.00,0.0068
642.00,0.0068
641.00,0.0069
640.00,0.0070
639.00,0.0070
638.00,0.0070
637.00,0.0069
636.00,0.0068
635.00,0.0068
634.00,0.0069
633.00,0.0069
632.00,0.0069
631.00,0.0069
630.00,0.0069
629.00,0.0068
628.00,0.0067
627.00,0.0067
626.00,0.0067
625.00,0.0068
624.00,0.0069
623.00,0.0068
622.00,0.0067
621.00,0.0065
620.00,0.0065
619.00,0.0067
618.00,0.0069
617.00,0.0072
616.00,0.0073
615.00,0.0073
614.00,0.0072
613.00,0.0071
612.00,0.0070
611.00,0.0067
610.00,0.0066
609.00,0.0065
608.00,0.0066
607.00,0.0067
606.00,0.0068
605.00,0.0069
604.00,0.0071
603.00,0.0074
602.00,0.0076
601.00,0.0077
600.00,0.0077
599.00,0.0076
598.00,0.0073
597.00,0.0070
596.00,0.0068
595.00,0.0068
594.00,0.0069
593.00,0.0069
592.00,0.0070
591.00,0.0071
590.00,0.0072
589.00,0.0072
588.00,0.0072
587.00,0.0072
586.00,0.0071
585.00,0.0071
584.00,0.0073
583.00,0.0075
582.00,0.0076
581.00,0.0075
580.00,0.0072
579.00,0.0069
578.00,0.0067
577.00,0.0068
576.00,0.0071
575.00,0.0074
574.00,0.0074
573.00,0.0071
572.00,0.0068
571.00,0.0067
570.00,0.0068
569.00,0.0068
568.00,0.0067
567.00,0.0068
566.00,0.0071
565.00,0.0074
564.00,0.0075
563.00,0.0074
562.00,0.0073
561.00,0.0074
560.00,0.0076
559.00,0.0080
558.00,0.0082
557.00,0.0081
556.00,0.0077
555.00,0.0073
554.00,0.0070
553.00,0.0069
552.00,0.0070
551.00,0.0073
550.00,0.0076
549.00,0.0077
548.00,0.0077
547.00,0.0077
546.00,0.0076
545.00,0.0077
544.00,0.0077
543.00,0.0076
542.00,0.0077
541.00,0.0079
540.00,0.0082
539.00,0.0086
538.00,0.0089
537.00,0.0093
536.00,0.0097
535.00,0.0100
534.00,0.0099
533.00,0.0097
532.00,0.0096
531.00,0.0097
530.00,0.0100
529.00,0.0102
528.00,0.0102
527.00,0.0099
526.00,0.0093
525.00,0.0087
524.00,0.0085
523.00,0.0088
522.00,0.0091
521.00,0.0093
520.00,0.0093
519.00,0.0092
518.00,0.0092
517.00,0.0092
516.00,0.0090
515.00,0.0087
514.00,0.0083
513.00,0.0081
512.00,0.0081
511.00,0.0082
510.00,0.0081
509.00,0.0080
508.00,0.0080
507.00,0.0080
506.00,0.0079
505.00,0.0076
504.00,0.0072
503.00,0.0071
502.00,0.0073
501.00,0.0076
500.00,0.0081
499.00,0.0086
498.00,0.0090
497.00,0.0091
496.00,0.0088
495.00,0.0082
494.00,0.0076
493.00,0.0072
492.00,0.0070
491.00,0.0070
490.00,0.0069
489.00,0.0066
488.00,0.0063
487.00,0.0064
486.00,0.0067
485.00,0.0069
484.00,0.0070
483.00,0.0070
482.00,0.0070
481.00,0.0067
480.00,0.0061
479.00,0.0055
478.00,0.0054
477.00,0.0061
476.00,0.0071
475.00,0.0083
474.00,0.0092
473.00,0.0097
472.00,0.0096
471.00,0.0091
470.00,0.0086
469.00,0.0082
468.00,0.0080
467.00,0.0081
466.00,0.0086
465.00,0.0096
464.00,0.0111
463.00,0.0127
462.00,0.0139
461.00,0.0145
460.00,0.0148
459.00,0.0154
458.00,0.0161
457.00,0.0162
456.00,0.0153
455.00,0.0138
454.00,0.0122
453.00,0.0113
452.00,0.0109
451.00,0.0110
450.00,0.0116
