Created as New Dataset,Sample 046 By Administrator Date Friday, September 05 2025
cm-1,A
4000.00,0.0017
3999.00,0.0017
3998.00,0.0017
3997.00,0.0017
3996.00,0.0017
3995.00,0.0017
3994.00,0.0017
3993.00,0.0017
3992.00,0.0017
3991.00,0.0017
3990.00,0.0016
3989.00,0.0016
3988.00,0.0016
3987.00,0.0016
3986.00,0.0016
3985.00,0.0016
3984.00,0.0016
3983.00,0.0016
3982.00,0.0015
3981.00,0.0015
3980.00,0.0015
3979.00,0.0015
3978.00,0.0016
3977.00,0.0016
3976.00,0.0015
3975.00,0.0015
3974.00,0.0015
3973.00,0.0015
3972.00,0.0014
3971.00,0.0014
3970.00,0.0014
3969.00,0.0014
3968.00,0.0014
3967.00,0.0014
3966.00,0.0014
3965.00,0.0015
3964.00,0.0015
3963.00,0.0015
3962.00,0.0015
3961.00,0.0015
3960.00,0.0015
3959.00,0.0015
3958.00,0.0015
3957.00,0.0015
3956.00,0.0015
3955.00,0.0015
3954.00,0.0015
3953.00,0.0015
3952.00,0.0015
3951.00,0.0015
3950.00,0.0014
3949.00,0.0014
3948.00,0.0014
3947.00,0.0014
3946.00,0.0014
3945.00,0.0015
3944.00,0.0015
3943.00,0.0015
3942.00,0.0015
3941.00,0.0015
3940.00,0.0014
3939.00,0.0014
3938.00,0.0014
3937.00,0.0014
3936.00,0.0014
3935.00,0.0014
3934.00,0.0014
3933.00,0.0014
3932.00,0.0014
3931.00,0.0015
3930.00,0.0015
3929.00,0.0015
3928.00,0.0016
3927.00,0.0016
3926.00,0.0016
3925.00,0.0016
3924.00,0.0016
3923.00,0.0015
3922.00,0.0015
3921.00,0.0015
3920.00,0.0015
3919.00,0.0015
3918.00,0.0015
3917.00,0.0015
3916.00,0.0015
3915.00,0.0015
3914.00,0.0015
3913.00,0.0015
3912.00,0.0015
3911.00,0.0015
3910.00,0.0015
3909.00,0.0016
3908.00,0.0016
3907.00,0.0016
3906.00,0.0015
3905.00,0.0015
3904.00,0.0014
3903.00,0.0013
3902.00,0.0013
3901.00,0.0013
3900.00,0.0014
3899.00,0.0014
3898.00,0.0014
3897.00,0.0014
3896.00,0.0013
3895.00,0.0013
3894.00,0.0013
3893.00,0.0013
3892.00,0.0013
3891.00,0.0013
3890.00,0.0013
3889.00,0.0013
3888.00,0.0013
3887.00,0.0013
3886.00,0.0013
3885.00,0.0014
3884.00,0.0014
3883.00,0.0013
3882.00,0.0014
3881.00,0.0014
3880.00,0.0014
3879.00,0.0014
3878.00,0.0014
3877.00,0.0013
3876.00,0.0013
3875.00,0.0014
3874.00,0.0014
3873.00,0.0014
3872.00,0.0013
3871.00,0.0013
3870.00,0.0013
3869.00,0.0013
3868.00,0.0013
3867.00,0.0012
3866.00,0.0012
3865.00,0.0012
3864.00,0.0012
3863.00,0.0012
3862.00,0.0012
3861.00,0.0012
3860.00,0.0012
3859.00,0.0012
3858.00,0.0012
3857.00,0.0013
3856.00,0.0013
3855.00,0.0013
3854.00,0.0013
3853.00,0.0013
3852.00,0.0013
3851.00,0.0013
3850.00,0.0013
3849.00,0.0013
3848.00,0.0013
3847.00,0.0013
3846.00,0.0013
3845.00,0.0012
3844.00,0.0012
3843.00,0.0012
3842.00,0.0012
3841.00,0.0012
3840.00,0.0012
3839.00,0.0012
3838.00,0.0011
3837.00,0.0011
3836.00,0.0011
3835.00,0.0011
3834.00,0.0011
3833.00,0.0012
3832.00,0.0012
3831.00,0.0012
3830.00,0.0012
3829.00,0.0012
3828.00,0.0012
3827.00,0.0012
3826.00,0.0012
3825.00,0.0012
3824.00,0.0012
3823.00,0.0012
3822.00,0.0012
3821.00,0.0012
3820.00,0.0012
3819.00,0.0011
3818.00,0.0011
3817.00,0.0012
3816.00,0.0013
3815.00,0.0014
3814.00,0.0014
3813.00,0.0014
3812.00,0.0013
3811.00,0.0013
3810.00,0.0013
3809.00,0.0013
3808.00,0.0013
3807.00,0.0013
3806.00,0.0013
3805.00,0.0013
3804.00,0.0012
3803.00,0.0012
3802.00,0.0012
3801.00,0.0012
3800.00,0.0012
3799.00,0.0012
3798.00,0.0012
3797.00,0.0012
3796.00,0.0013
3795.00,0.0013
3794.00,0.0013
3793.00,0.0013
3792.00,0.0013
3791.00,0.0014
3790.00,0.0014
3789.00,0.0014
3788.00,0.0013
3787.00,0.0013
3786.00,0.0013
3785.00,0.0014
3784.00,0.0014
3783.00,0.0014
3782.00,0.0014
3781.00,0.0014
3780.00,0.0014
3779.00,0.0014
3778.00,0.0014
3777.00,0.0014
3776.00,0.0013
3775.00,0.0013
3774.00,0.0013
3773.00,0.0013
3772.00,0.0013
3771.00,0.0013
3770.00,0.0013
3769.00,0.0013
3768.00,0.0014
3767.00,0.0014
3766.00,0.0015
3765.00,0.0015
3764.00,0.0015
3763.00,0.0014
3762.00,0.0014
3761.00,0.0014
3760.00,0.0014
3759.00,0.0013
3758.00,0.0013
3757.00,0.0013
3756.00,0.0013
3755.00,0.0013
3754.00,0.0013
3753.00,0.0012
3752.00,0.0012
3751.00,0.0011
3750.00,0.0011
3749.00,0.0011
3748.00,0.0012
3747.00,0.0011
3746.00,0.0011
3745.00,0.0011
3744.00,0.0012
3743.00,0.0012
3742.00,0.0011
3741.00,0.0011
3740.00,0.0010
3739.00,0.0010
3738.00,0.0010
3737.00,0.0010
3736.00,0.0011
3735.00,0.0011
3734.00,0.0011
3733.00,0.0011
3732.00,0.0011
3731.00,0.0011
3730.00,0.0011
3729.00,0.0011
3728.00,0.0011
3727.00,0.0011
3726.00,0.0011
3725.00,0.0011
3724.00,0.0011
3723.00,0.0011
3722.00,0.0011
3721.00,0.0010
3720.00,0.0010
3719.00,0.0010
3718.00,0.0010
3717.00,0.0011
3716.00,0.0011
3715.00,0.0012
3714.00,0.0012
3713.00,0.0012
3712.00,0.0012
3711.00,0.0012
3710.00,0.0012
3709.00,0.0012
3708.00,0.0012
3707.00,0.0012
3706.00,0.0011
3705.00,0.0011
3704.00,0.0011
3703.00,0.0012
3702.00,0.0012
3701.00,0.0011
3700.00,0.0011
3699.00,0.0011
3698.00,0.0011
3697.00,0.0011
3696.00,0.0011
3695.00,0.0011
3694.00,0.0011
3693.00,0.0011
3692.00,0.0010
3691.00,0.0010
3690.00,0.0009
3689.00,0.0009
3688.00,0.0009
3687.00,0.0009
3686.00,0.0009
3685.00,0.0009
3684.00,0.0009
3683.00,0.0008
3682.00,0.0007
3681.00,0.0007
3680.00,0.0006
3679.00,0.0005
3678.00,0.0003
3677.00,0.0002
3676.00,0.0001
3675.00,0.0001
3674.00,0.0001
3673.00,0.0000
3672.00,-0.0000
3671.00,-0.0000
3670.00,0.0000
3669.00,0.0000
3668.00,-0.0000
3667.00,-0.0001
3666.00,-0.0001
3665.00,-0.0001
3664.00,-0.0001
3663.00,-0.0001
3662.00,-0.0001
3661.00,-0.0002
3660.00,-0.0002
3659.00,-0.0002
3658.00,-0.0003
3657.00,-0.0002
3656.00,-0.0001
3655.00,-0.0001
3654.00,-0.0001
3653.00,-0.0001
3652.00,-0.0002
3651.00,-0.0003
3650.00,-0.0003
3649.00,-0.0002
3648.00,-0.0001
3647.00,-0.0001
3646.00,-0.0000
3645.00,-0.0000
3644.00,0.0000
3643.00,0.0001
3642.00,0.0002
3641.00,0.0003
3640.00,0.0004
3639.00,0.0005
3638.00,0.0005
3637.00,0.0005
3636.00,0.0006
3635.00,0.0007
3634.00,0.0008
3633.00,0.0009
3632.00,0.0009
3631.00,0.0009
3630.00,0.0010
3629.00,0.0010
3628.00,0.0011
3627.00,0.0011
3626.00,0.0011
3625.00,0.0012
3624.00,0.0012
3623.00,0.0012
3622.00,0.0011
3621.00,0.0012
3620.00,0.0012
3619.00,0.0012
3618.00,0.0012
3617.00,0.0013
3616.00,0.0013
3615.00,0.0014
3614.00,0.0015
3613.00,0.0015
3612.00,0.0015
3611.00,0.0014
3610.00,0.0014
3609.00,0.0015
3608.00,0.0016
3607.00,0.0017
3606.00,0.0018
3605.00,0.0018
3604.00,0.0018
3603.00,0.0018
3602.00,0.0018
3601.00,0.0019
3600.00,0.0019
3599.00,0.0019
3598.00,0.0019
3597.00,0.0019
3596.00,0.0020
3595.00,0.0020
3594.00,0.0020
3593.00,0.0020
3592.00,0.0020
3591.00,0.0020
3590.00,0.0020
3589.00,0.0020
3588.00,0.0021
3587.00,0.0022
3586.00,0.0023
3585.00,0.0023
3584.00,0.0024
3583.00,0.0024
3582.00,0.0024
3581.00,0.0024
3580.00,0.0024
3579.00,0.0024
3578.00,0.0024
3577.00,0.0024
3576.00,0.0025
3575.00,0.0025
3574.00,0.0026
3573.00,0.0026
3572.00,0.0026
3571.00,0.0026
3570.00,0.0027
3569.00,0.0027
3568.00,0.0027
3567.00,0.0028
3566.00,0.0029
3565.00,0.0029
3564.00,0.0029
3563.00,0.0029
3562.00,0.0028
3561.00,0.0029
3560.00,0.0029
3559.00,0.0029
3558.00,0.0030
3557.00,0.0030
3556.00,0.0030
3555.00,0.0030
3554.00,0.0030
3553.00,0.0030
3552.00,0.0030
3551.00,0.0030
3550.00,0.0030
3549.00,0.0031
3548.00,0.0031
3547.00,0.0031
3546.00,0.0032
3545.00,0.0032
3544.00,0.0032
3543.00,0.0032
3542.00,0.0032
3541.00,0.0033
3540.00,0.0033
3539.00,0.0033
3538.00,0.0033
3537.00,0.0034
3536.00,0.0034
3535.00,0.0034
3534.00,0.0034
3533.00,0.0034
3532.00,0.0034
3531.00,0.0034
3530.00,0.0034
3529.00,0.0034
3528.00,0.0034
3527.00,0.0035
3526.00,0.0035
3525.00,0.0036
3524.00,0.0036
3523.00,0.0036
3522.00,0.0036
3521.00,0.0036
3520.00,0.0036
3519.00,0.0036
3518.00,0.0036
3517.00,0.0035
3516.00,0.0035
3515.00,0.0036
3514.00,0.0036
3513.00,0.0036
3512.00,0.0036
3511.00,0.0036
3510.00,0.0037
3509.00,0.0037
3508.00,0.0037
3507.00,0.0037
3506.00,0.0037
3505.00,0.0037
3504.00,0.0037
3503.00,0.0038
3502.00,0.0038
3501.00,0.0038
3500.00,0.0038
3499.00,0.0038
3498.00,0.0038
3497.00,0.0038
3496.00,0.0038
3495.00,0.0038
3494.00,0.0038
3493.00,0.0039
3492.00,0.0039
3491.00,0.0039
3490.00,0.0040
3489.00,0.0040
3488.00,0.0040
3487.00,0.0040
3486.00,0.0040
3485.00,0.0040
3484.00,0.0040
3483.00,0.0040
3482.00,0.0040
3481.00,0.0040
3480.00,0.0040
3479.00,0.0041
3478.00,0.0041
3477.00,0.0041
3476.00,0.0042
3475.00,0.0042
3474.00,0.0042
3473.00,0.0042
3472.00,0.0042
3471.00,0.0042
3470.00,0.0042
3469.00,0.0043
3468.00,0.0043
3467.00,0.0043
3466.00,0.0043
3465.00,0.0043
3464.00,0.0044
3463.00,0.0044
3462.00,0.0044
3461.00,0.0045
3460.00,0.0045
3459.00,0.0044
3458.00,0.0044
3457.00,0.0045
3456.00,0.0045
3455.00,0.0045
3454.00,0.0045
3453.00,0.0045
3452.00,0.0045
3451.00,0.0045
3450.00,0.0045
3449.00,0.0045
3448.00,0.0045
3447.00,0.0046
3446.00,0.0046
3445.00,0.0047
3444.00,0.0047
3443.00,0.0047
3442.00,0.0047
3441.00,0.0048
3440.00,0.0048
3439.00,0.0048
3438.00,0.0048
3437.00,0.0048
3436.00,0.0048
3435.00,0.0048
3434.00,0.0048
3433.00,0.0048
3432.00,0.0049
3431.00,0.0049
3430.00,0.0049
3429.00,0.0050
3428.00,0.0050
3427.00,0.0050
3426.00,0.0051
3425.00,0.0051
3424.00,0.0051
3423.00,0.0051
3422.00,0.0052
3421.00,0.0052
3420.00,0.0052
3419.00,0.0052
3418.00,0.0052
3417.00,0.0052
3416.00,0.0052
3415.00,0.0053
3414.00,0.0053
3413.00,0.0053
3412.00,0.0053
3411.00,0.0053
3410.00,0.0053
3409.00,0.0053
3408.00,0.0053
3407.00,0.0053
3406.00,0.0053
3405.00,0.0053
3404.00,0.0053
3403.00,0.0053
3402.00,0.0053
3401.00,0.0054
3400.00,0.0054
3399.00,0.0054
3398.00,0.0054
3397.00,0.0054
3396.00,0.0054
3395.00,0.0054
3394.00,0.0054
3393.00,0.0054
3392.00,0.0054
3391.00,0.0054
3390.00,0.0054
3389.00,0.0054
3388.00,0.0054
3387.00,0.0054
3386.00,0.0054
3385.00,0.0055
3384.00,0.0055
3383.00,0.0055
3382.00,0.0056
3381.00,0.0056
3380.00,0.0056
3379.00,0.0056
3378.00,0.0055
3377.00,0.0055
3376.00,0.0055
3375.00,0.0055
3374.00,0.0055
3373.00,0.0055
3372.00,0.0055
3371.00,0.0055
3370.00,0.0056
3369.00,0.0056
3368.00,0.0056
3367.00,0.0056
3366.00,0.0056
3365.00,0.0056
3364.00,0.0056
3363.00,0.0056
3362.00,0.0056
3361.00,0.0056
3360.00,0.0056
3359.00,0.0056
3358.00,0.0057
3357.00,0.0057
3356.00,0.0057
3355.00,0.0058
3354.00,0.0057
3353.00,0.0057
3352.00,0.0057
3351.00,0.0057
3350.00,0.0057
3349.00,0.0057
3348.00,0.0057
3347.00,0.0057
3346.00,0.0057
3345.00,0.0057
3344.00,0.0057
3343.00,0.0057
3342.00,0.0057
3341.00,0.0057
3340.00,0.0057
3339.00,0.0057
3338.00,0.0057
3337.00,0.0057
3336.00,0.0057
3335.00,0.0057
3334.00,0.0057
3333.00,0.0057
3332.00,0.0057
3331.00,0.0057
3330.00,0.0057
3329.00,0.0057
3328.00,0.0057
3327.00,0.0057
3326.00,0.0056
3325.00,0.0056
3324.00,0.0056
3323.00,0.0056
3322.00,0.0057
3321.00,0.0057
3320.00,0.0057
3319.00,0.0058
3318.00,0.0058
3317.00,0.0057
3316.00,0.0057
3315.00,0.0057
3314.00,0.0056
3313.00,0.0056
3312.00,0.0056
3311.00,0.0056
3310.00,0.0056
3309.00,0.0057
3308.00,0.0057
3307.00,0.0057
3306.00,0.0057
3305.00,0.0056
3304.00,0.0056
3303.00,0.0056
3302.00,0.0056
3301.00,0.0057
3300.00,0.0057
3299.00,0.0057
3298.00,0.0057
3297.00,0.0057
3296.00,0.0056
3295.00,0.0056
3294.00,0.0056
3293.00,0.0056
3292.00,0.0056
3291.00,0.0056
3290.00,0.0056
3289.00,0.0056
3288.00,0.0056
3287.00,0.0056
3286.00,0.0056
3285.00,0.0056
3284.00,0.0056
3283.00,0.0056
3282.00,0.0055
3281.00,0.0055
3280.00,0.0055
3279.00,0.0055
3278.00,0.0054
3277.00,0.0054
3276.00,0.0054
3275.00,0.0054
3274.00,0.0054
3273.00,0.0054
3272.00,0.0054
3271.00,0.0054
3270.00,0.0054
3269.00,0.0054
3268.00,0.0054
3267.00,0.0054
3266.00,0.0054
3265.00,0.0053
3264.00,0.0053
3263.00,0.0052
3262.00,0.0052
3261.00,0.0052
3260.00,0.0052
3259.00,0.0052
3258.00,0.0052
3257.00,0.0051
3256.00,0.0051
3255.00,0.0051
3254.00,0.0051
3253.00,0.0051
3252.00,0.0050
3251.00,0.0050
3250.00,0.0050
3249.00,0.0050
3248.00,0.0050
3247.00,0.0050
3246.00,0.0050
3245.00,0.0050
3244.00,0.0050
3243.00,0.0049
3242.00,0.0049
3241.00,0.0049
3240.00,0.0049
3239.00,0.0050
3238.00,0.0050
3237.00,0.0050
3236.00,0.0049
3235.00,0.0049
3234.00,0.0049
3233.00,0.0049
3232.00,0.0049
3231.00,0.0049
3230.00,0.0049
3229.00,0.0049
3228.00,0.0050
3227.00,0.0050
3226.00,0.0050
3225.00,0.0050
3224.00,0.0050
3223.00,0.0049
3222.00,0.0049
3221.00,0.0050
3220.00,0.0050
3219.00,0.0051
3218.00,0.0051
3217.00,0.0051
3216.00,0.0051
3215.00,0.0051
3214.00,0.0051
3213.00,0.0051
3212.00,0.0051
3211.00,0.0051
3210.00,0.0051
3209.00,0.0052
3208.00,0.0052
3207.00,0.0052
3206.00,0.0052
3205.00,0.0052
3204.00,0.0052
3203.00,0.0052
3202.00,0.0052
3201.00,0.0051
3200.00,0.0051
3199.00,0.0051
3198.00,0.0052
3197.00,0.0052
3196.00,0.0052
3195.00,0.0053
3194.00,0.0053
3193.00,0.0053
3192.00,0.0052
3191.00,0.0052
3190.00,0.0052
3189.00,0.0052
3188.00,0.0052
3187.00,0.0052
3186.00,0.0051
3185.00,0.0051
3184.00,0.0050
3183.00,0.0050
3182.00,0.0050
3181.00,0.0050
3180.00,0.0049
3179.00,0.0049
3178.00,0.0049
3177.00,0.0048
3176.00,0.0048
3175.00,0.0049
3174.00,0.0049
3173.00,0.0049
3172.00,0.0048
3171.00,0.0048
3170.00,0.0048
3169.00,0.0048
3168.00,0.0048
3167.00,0.0048
3166.00,0.0048
3165.00,0.0048
3164.00,0.0048
3163.00,0.0048
3162.00,0.0048
3161.00,0.0048
3160.00,0.0048
3159.00,0.0048
3158.00,0.0048
3157.00,0.0048
3156.00,0.0047
3155.00,0.0047
3154.00,0.0046
3153.00,0.0046
3152.00,0.0046
3151.00,0.0046
3150.00,0.0046
3149.00,0.0047
3148.00,0.0047
3147.00,0.0048
3146.00,0.0048
3145.00,0.0048
3144.00,0.0048
3143.00,0.0047
3142.00,0.0047
3141.00,0.0046
3140.00,0.0046
3139.00,0.0045
3138.00,0.0045
3137.00,0.0045
3136.00,0.0045
3135.00,0.0045
3134.00,0.0045
3133.00,0.0044
3132.00,0.0044
3131.00,0.0043
3130.00,0.0043
3129.00,0.0043
3128.00,0.0043
3127.00,0.0043
3126.00,0.0042
3125.00,0.0041
3124.00,0.0041
3123.00,0.0041
3122.00,0.0040
3121.00,0.0041
3120.00,0.0041
3119.00,0.0041
3118.00,0.0041
3117.00,0.0041
3116.00,0.0041
3115.00,0.0041
3114.00,0.0041
3113.00,0.0041
3112.00,0.0041
3111.00,0.0040
3110.00,0.0040
3109.00,0.0040
3108.00,0.0040
3107.00,0.0040
3106.00,0.0040
3105.00,0.0040
3104.00,0.0040
3103.00,0.0040
3102.00,0.0039
3101.00,0.0039
3100.00,0.0039
3099.00,0.0039
3098.00,0.0039
3097.00,0.0039
3096.00,0.0039
3095.00,0.0039
3094.00,0.0039
3093.00,0.0039
3092.00,0.0039
3091.00,0.0040
3090.00,0.0040
3089.00,0.0040
3088.00,0.0040
3087.00,0.0040
3086.00,0.0040
3085.00,0.0039
3084.00,0.0039
3083.00,0.0039
3082.00,0.0039
3081.00,0.0039
3080.00,0.0039
3079.00,0.0039
3078.00,0.0039
3077.00,0.0039
3076.00,0.0040
3075.00,0.0040
3074.00,0.0040
3073.00,0.0041
3072.00,0.0041
3071.00,0.0041
3070.00,0.0041
3069.00,0.0041
3068.00,0.0041
3067.00,0.0041
3066.00,0.0041
3065.00,0.0041
3064.00,0.0042
3063.00,0.0042
3062.00,0.0042
3061.00,0.0042
3060.00,0.0042
3059.00,0.0042
3058.00,0.0042
3057.00,0.0042
3056.00,0.0042
3055.00,0.0042
3054.00,0.0042
3053.00,0.0042
3052.00,0.0042
3051.00,0.0043
3050.00,0.0043
3049.00,0.0043
3048.00,0.0043
3047.00,0.0043
3046.00,0.0043
3045.00,0.0044
3044.00,0.0044
3043.00,0.0044
3042.00,0.0044
3041.00,0.0044
3040.00,0.0045
3039.00,0.0045
3038.00,0.0046
3037.00,0.0046
3036.00,0.0046
3035.00,0.0046
3034.00,0.0046
3033.00,0.0047
3032.00,0.0047
3031.00,0.0047
3030.00,0.0047
3029.00,0.0048
3028.00,0.0049
3027.00,0.0050
3026.00,0.0050
3025.00,0.0050
3024.00,0.0050
3023.00,0.0050
3022.00,0.0050
3021.00,0.0051
3020.00,0.0051
3019.00,0.0051
3018.00,0.0051
3017.00,0.0050
3016.00,0.0050
3015.00,0.0049
3014.00,0.0048
3013.00,0.0048
3012.00,0.0047
3011.00,0.0046
3010.00,0.0044
3009.00,0.0043
3008.00,0.0042
3007.00,0.0040
3006.00,0.0038
3005.00,0.0036
3004.00,0.0034
3003.00,0.0033
3002.00,0.0031
3001.00,0.0030
3000.00,0.0029
2999.00,0.0028
2998.00,0.0028
2997.00,0.0029
2996.00,0.0030
2995.00,0.0032
2994.00,0.0035
2993.00,0.0038
2992.00,0.0042
2991.00,0.0047
2990.00,0.0052
2989.00,0.0057
2988.00,0.0063
2987.00,0.0069
2986.00,0.0072
2985.00,0.0074
2984.00,0.0075
2983.00,0.0078
2982.00,0.0087
2981.00,0.0105
2980.00,0.0130
2979.00,0.0160
2978.00,0.0194
2977.00,0.0230
2976.00,0.0268
2975.00,0.0309
2974.00,0.0353
2973.00,0.0403
2972.00,0.0460
2971.00,0.0528
2970.00,0.0605
2969.00,0.0692
2968.00,0.0786
2967.00,0.0887
2966.00,0.0994
2965.00,0.1107
2964.00,0.1222
2963.00,0.1336
2962.00,0.1442
2961.00,0.1537
2960.00,0.1616
2959.00,0.1677
2958.00,0.1723
2957.00,0.1756
2956.00,0.1783
2955.00,0.1809
2954.00,0.1836
2953.00,0.1865
2952.00,0.1890
2951.00,0.1904
2950.00,0.1897
2949.00,0.1863
2948.00,0.1797
2947.00,0.1703
2946.00,0.1588
2945.00,0.1463
2944.00,0.1341
2943.00,0.1232
2942.00,0.1143
2941.00,0.1078
2940.00,0.1038
2939.00,0.1020
2938.00,0.1022
2937.00,0.1042
2936.00,0.1078
2935.00,0.1129
2934.00,0.1192
2933.00,0.1266
2932.00,0.1350
2931.00,0.1442
2930.00,0.1539
2929.00,0.1638
2928.00,0.1737
2927.00,0.1833
2926.00,0.1924
2925.00,0.2012
2924.00,0.2096
2923.00,0.2178
2922.00,0.2258
2921.00,0.2335
2920.00,0.2404
2919.00,0.2458
2918.00,0.2488
2917.00,0.2488
2916.00,0.2457
2915.00,0.2398
2914.00,0.2318
2913.00,0.2229
2912.00,0.2139
2911.00,0.2055
2910.00,0.1980
2909.00,0.1914
2908.00,0.1852
2907.00,0.1794
2906.00,0.1735
2905.00,0.1674
2904.00,0.1611
2903.00,0.1544
2902.00,0.1477
2901.00,0.1408
2900.00,0.1342
2899.00,0.1278
2898.00,0.1219
2897.00,0.1165
2896.00,0.1117
2895.00,0.1075
2894.00,0.1041
2893.00,0.1013
2892.00,0.0992
2891.00,0.0977
2890.00,0.0968
2889.00,0.0964
2888.00,0.0964
2887.00,0.0968
2886.00,0.0975
2885.00,0.0986
2884.00,0.1001
2883.00,0.1021
2882.00,0.1045
2881.00,0.1072
2880.00,0.1097
2879.00,0.1119
2878.00,0.1134
2877.00,0.1139
2876.00,0.1137
2875.00,0.1130
2874.00,0.1123
2873.00,0.1120
2872.00,0.1124
2871.00,0.1135
2870.00,0.1150
2869.00,0.1166
2868.00,0.1176
2867.00,0.1173
2866.00,0.1150
2865.00,0.1104
2864.00,0.1039
2863.00,0.0960
2862.00,0.0878
2861.00,0.0802
2860.00,0.0736
2859.00,0.0684
2858.00,0.0646
2857.00,0.0621
2856.00,0.0609
2855.00,0.0607
2854.00,0.0614
2853.00,0.0629
2852.00,0.0651
2851.00,0.0676
2850.00,0.0702
2849.00,0.0728
2848.00,0.0755
2847.00,0.0786
2846.00,0.0823
2845.00,0.0870
2844.00,0.0928
2843.00,0.0993
2842.00,0.1063
2841.00,0.1132
2840.00,0.1189
2839.00,0.1227
2838.00,0.1237
2837.00,0.1213
2836.00,0.1154
2835.00,0.1067
2834.00,0.0962
2833.00,0.0851
2832.00,0.0745
2831.00,0.0650
2830.00,0.0569
2829.00,0.0503
2828.00,0.0449
2827.00,0.0406
2826.00,0.0371
2825.00,0.0342
2824.00,0.0318
2823.00,0.0297
2822.00,0.0279
2821.00,0.0264
2820.00,0.0251
2819.00,0.0240
2818.00,0.0230
2817.00,0.0221
2816.00,0.0214
2815.00,0.0208
2814.00,0.0201
2813.00,0.0196
2812.00,0.0190
2811.00,0.0185
2810.00,0.0180
2809.00,0.0175
2808.00,0.0169
2807.00,0.0163
2806.00,0.0157
2805.00,0.0151
2804.00,0.0144
2803.00,0.0138
2802.00,0.0133
2801.00,0.0128
2800.00,0.0125
2799.00,0.0122
2798.00,0.0120
2797.00,0.0118
2796.00,0.0116
2795.00,0.0113
2794.00,0.0111
2793.00,0.0108
2792.00,0.0104
2791.00,0.0101
2790.00,0.0098
2789.00,0.0094
2788.00,0.0091
2787.00,0.0087
2786.00,0.0085
2785.00,0.0082
2784.00,0.0080
2783.00,0.0078
2782.00,0.0076
2781.00,0.0074
2780.00,0.0071
2779.00,0.0070
2778.00,0.0068
2777.00,0.0067
2776.00,0.0066
2775.00,0.0065
2774.00,0.0065
2773.00,0.0064
2772.00,0.0063
2771.00,0.0063
2770.00,0.0063
2769.00,0.0062
2768.00,0.0062
2767.00,0.0061
2766.00,0.0061
2765.00,0.0061
2764.00,0.0061
2763.00,0.0060
2762.00,0.0060
2761.00,0.0059
2760.00,0.0059
2759.00,0.0059
2758.00,0.0059
2757.00,0.0058
2756.00,0.0058
2755.00,0.0058
2754.00,0.0058
2753.00,0.0058
2752.00,0.0058
2751.00,0.0058
2750.00,0.0058
2749.00,0.0058
2748.00,0.0058
2747.00,0.0058
2746.00,0.0058
2745.00,0.0059
2744.00,0.0059
2743.00,0.0060
2742.00,0.0062
2741.00,0.0063
2740.00,0.0065
2739.00,0.0066
2738.00,0.0067
2737.00,0.0068
2736.00,0.0070
2735.00,0.0071
2734.00,0.0073
2733.00,0.0075
2732.00,0.0076
2731.00,0.0078
2730.00,0.0080
2729.00,0.0082
2728.00,0.0085
2727.00,0.0087
2726.00,0.0090
2725.00,0.0092
2724.00,0.0093
2723.00,0.0093
2722.00,0.0093
2721.00,0.0091
2720.00,0.0088
2719.00,0.0085
2718.00,0.0081
2717.00,0.0078
2716.00,0.0076
2715.00,0.0073
2714.00,0.0071
2713.00,0.0069
2712.00,0.0067
2711.00,0.0065
2710.00,0.0063
2709.00,0.0062
2708.00,0.0061
2707.00,0.0060
2706.00,0.0059
2705.00,0.0057
2704.00,0.0056
2703.00,0.0055
2702.00,0.0055
2701.00,0.0054
2700.00,0.0054
2699.00,0.0054
2698.00,0.0053
2697.00,0.0053
2696.00,0.0053
2695.00,0.0052
2694.00,0.0052
2693.00,0.0052
2692.00,0.0052
2691.00,0.0051
2690.00,0.0051
2689.00,0.0051
2688.00,0.0052
2687.00,0.0052
2686.00,0.0052
2685.00,0.0052
2684.00,0.0052
2683.00,0.0052
2682.00,0.0052
2681.00,0.0052
2680.00,0.0052
2679.00,0.0052
2678.00,0.0052
2677.00,0.0052
2676.00,0.0052
2675.00,0.0052
2674.00,0.0052
2673.00,0.0051
2672.00,0.0051
2671.00,0.0050
2670.00,0.0050
2669.00,0.0050
2668.00,0.0050
2667.00,0.0051
2666.00,0.0051
2665.00,0.0052
2664.00,0.0052
2663.00,0.0053
2662.00,0.0053
2661.00,0.0053
2660.00,0.0053
2659.00,0.0053
2658.00,0.0053
2657.00,0.0052
2656.00,0.0052
2655.00,0.0052
2654.00,0.0051
2653.00,0.0051
2652.00,0.0050
2651.00,0.0050
2650.00,0.0049
2649.00,0.0049
2648.00,0.0049
2647.00,0.0049
2646.00,0.0048
2645.00,0.0047
2644.00,0.0047
2643.00,0.0047
2642.00,0.0047
2641.00,0.0046
2640.00,0.0046
2639.00,0.0045
2638.00,0.0045
2637.00,0.0045
2636.00,0.0045
2635.00,0.0045
2634.00,0.0045
2633.00,0.0045
2632.00,0.0045
2631.00,0.0045
2630.00,0.0045
2629.00,0.0045
2628.00,0.0045
2627.00,0.0046
2626.00,0.0047
2625.00,0.0047
2624.00,0.0047
2623.00,0.0047
2622.00,0.0048
2621.00,0.0048
2620.00,0.0048
2619.00,0.0048
2618.00,0.0048
2617.00,0.0048
2616.00,0.0047
2615.00,0.0047
2614.00,0.0047
2613.00,0.0047
2612.00,0.0046
2611.00,0.0046
2610.00,0.0045
2609.00,0.0044
2608.00,0.0044
2607.00,0.0043
2606.00,0.0043
2605.00,0.0042
2604.00,0.0041
2603.00,0.0041
2602.00,0.0040
2601.00,0.0040
2600.00,0.0039
2599.00,0.0039
2598.00,0.0038
2597.00,0.0038
2596.00,0.0038
2595.00,0.0038
2594.00,0.0038
2593.00,0.0038
2592.00,0.0039
2591.00,0.0040
2590.00,0.0041
2589.00,0.0042
2588.00,0.0043
2587.00,0.0044
2586.00,0.0044
2585.00,0.0044
2584.00,0.0045
2583.00,0.0045
2582.00,0.0046
2581.00,0.0046
2580.00,0.0045
2579.00,0.0044
2578.00,0.0043
2577.00,0.0042
2576.00,0.0041
2575.00,0.0040
2574.00,0.0039
2573.00,0.0038
2572.00,0.0037
2571.00,0.0036
2570.00,0.0035
2569.00,0.0034
2568.00,0.0033
2567.00,0.0033
2566.00,0.0032
2565.00,0.0032
2564.00,0.0032
2563.00,0.0032
2562.00,0.0032
2561.00,0.0032
2560.00,0.0032
2559.00,0.0031
2558.00,0.0031
2557.00,0.0031
2556.00,0.0030
2555.00,0.0030
2554.00,0.0029
2553.00,0.0030
2552.00,0.0029
2551.00,0.0029
2550.00,0.0028
2549.00,0.0028
2548.00,0.0028
2547.00,0.0028
2546.00,0.0028
2545.00,0.0027
2544.00,0.0027
2543.00,0.0026
2542.00,0.0026
2541.00,0.0026
2540.00,0.0026
2539.00,0.0026
2538.00,0.0025
2537.00,0.0025
2536.00,0.0024
2535.00,0.0024
2534.00,0.0023
2533.00,0.0022
2532.00,0.0022
2531.00,0.0021
2530.00,0.0021
2529.00,0.0022
2528.00,0.0022
2527.00,0.0022
2526.00,0.0022
2525.00,0.0022
2524.00,0.0022
2523.00,0.0022
2522.00,0.0022
2521.00,0.0022
2520.00,0.0022
2519.00,0.0022
2518.00,0.0022
2517.00,0.0021
2516.00,0.0021
2515.00,0.0020
2514.00,0.0020
2513.00,0.0019
2512.00,0.0019
2511.00,0.0018
2510.00,0.0017
2509.00,0.0017
2508.00,0.0016
2507.00,0.0016
2506.00,0.0016
2505.00,0.0016
2504.00,0.0016
2503.00,0.0016
2502.00,0.0017
2501.00,0.0017
2500.00,0.0018
2499.00,0.0018
2498.00,0.0018
2497.00,0.0018
2496.00,0.0018
2495.00,0.0019
2494.00,0.0019
2493.00,0.0019
2492.00,0.0019
2491.00,0.0018
2490.00,0.0018
2489.00,0.0019
2488.00,0.0018
2487.00,0.0018
2486.00,0.0018
2485.00,0.0018
2484.00,0.0018
2483.00,0.0017
2482.00,0.0017
2481.00,0.0016
2480.00,0.0016
2479.00,0.0015
2478.00,0.0015
2477.00,0.0015
2476.00,0.0015
2475.00,0.0016
2474.00,0.0016
2473.00,0.0017
2472.00,0.0017
2471.00,0.0017
2470.00,0.0017
2469.00,0.0017
2468.00,0.0017
2467.00,0.0017
2466.00,0.0016
2465.00,0.0016
2464.00,0.0016
2463.00,0.0016
2462.00,0.0017
2461.00,0.0018
2460.00,0.0019
2459.00,0.0019
2458.00,0.0019
2457.00,0.0018
2456.00,0.0018
2455.00,0.0018
2454.00,0.0018
2453.00,0.0017
2452.00,0.0017
2451.00,0.0017
2450.00,0.0018
2449.00,0.0018
2448.00,0.0018
2447.00,0.0017
2446.00,0.0017
2445.00,0.0017
2444.00,0.0018
2443.00,0.0018
2442.00,0.0018
2441.00,0.0018
2440.00,0.0018
2439.00,0.0018
2438.00,0.0019
2437.00,0.0020
2436.00,0.0021
2435.00,0.0021
2434.00,0.0021
2433.00,0.0021
2432.00,0.0020
2431.00,0.0019
2430.00,0.0018
2429.00,0.0018
2428.00,0.0018
2427.00,0.0018
2426.00,0.0018
2425.00,0.0019
2424.00,0.0019
2423.00,0.0020
2422.00,0.0019
2421.00,0.0019
2420.00,0.0018
2419.00,0.0018
2418.00,0.0018
2417.00,0.0018
2416.00,0.0018
2415.00,0.0018
2414.00,0.0018
2413.00,0.0018
2412.00,0.0019
2411.00,0.0019
2410.00,0.0019
2409.00,0.0019
2408.00,0.0018
2407.00,0.0017
2406.00,0.0016
2405.00,0.0016
2404.00,0.0016
2403.00,0.0016
2402.00,0.0016
2401.00,0.0017
2400.00,0.0017
2399.00,0.0017
2398.00,0.0017
2397.00,0.0018
2396.00,0.0018
2395.00,0.0018
2394.00,0.0017
2393.00,0.0017
2392.00,0.0016
2391.00,0.0016
2390.00,0.0015
2389.00,0.0015
2388.00,0.0014
2387.00,0.0014
2386.00,0.0013
2385.00,0.0013
2384.00,0.0012
2383.00,0.0012
2382.00,0.0011
2381.00,0.0010
2380.00,0.0009
2379.00,0.0009
2378.00,0.0009
2377.00,0.0008
2376.00,0.0009
2375.00,0.0009
2374.00,0.0009
2373.00,0.0010
2372.00,0.0010
2371.00,0.0009
2370.00,0.0009
2369.00,0.0008
2368.00,0.0007
2367.00,0.0007
2366.00,0.0007
2365.00,0.0008
2364.00,0.0008
2363.00,0.0008
2362.00,0.0008
2361.00,0.0009
2360.00,0.0009
2359.00,0.0009
2358.00,0.0009
2357.00,0.0008
2356.00,0.0008
2355.00,0.0009
2354.00,0.0009
2353.00,0.0009
2352.00,0.0009
2351.00,0.0008
2350.00,0.0008
2349.00,0.0008
2348.00,0.0009
2347.00,0.0009
2346.00,0.0010
2345.00,0.0010
2344.00,0.0010
2343.00,0.0010
2342.00,0.0011
2341.00,0.0011
2340.00,0.0012
2339.00,0.0012
2338.00,0.0011
2337.00,0.0010
2336.00,0.0010
2335.00,0.0011
2334.00,0.0011
2333.00,0.0012
2332.00,0.0011
2331.00,0.0010
2330.00,0.0010
2329.00,0.0010
2328.00,0.0012
2327.00,0.0015
2326.00,0.0020
2325.00,0.0025
2324.00,0.0027
2323.00,0.0027
2322.00,0.0025
2321.00,0.0023
2320.00,0.0021
2319.00,0.0019
2318.00,0.0017
2317.00,0.0017
2316.00,0.0017
2315.00,0.0016
2314.00,0.0016
2313.00,0.0015
2312.00,0.0015
2311.00,0.0014
2310.00,0.0014
2309.00,0.0014
2308.00,0.0015
2307.00,0.0015
2306.00,0.0015
2305.00,0.0014
2304.00,0.0015
2303.00,0.0015
2302.00,0.0016
2301.00,0.0017
2300.00,0.0017
2299.00,0.0018
2298.00,0.0019
2297.00,0.0019
2296.00,0.0019
2295.00,0.0019
2294.00,0.0019
2293.00,0.0020
2292.00,0.0021
2291.00,0.0022
2290.00,0.0023
2289.00,0.0023
2288.00,0.0023
2287.00,0.0024
2286.00,0.0024
2285.00,0.0024
2284.00,0.0024
2283.00,0.0024
2282.00,0.0024
2281.00,0.0023
2280.00,0.0023
2279.00,0.0023
2278.00,0.0023
2277.00,0.0023
2276.00,0.0022
2275.00,0.0022
2274.00,0.0021
2273.00,0.0021
2272.00,0.0021
2271.00,0.0022
2270.00,0.0022
2269.00,0.0022
2268.00,0.0021
2267.00,0.0020
2266.00,0.0019
2265.00,0.0018
2264.00,0.0018
2263.00,0.0019
2262.00,0.0019
2261.00,0.0019
2260.00,0.0019
2259.00,0.0020
2258.00,0.0021
2257.00,0.0020
2256.00,0.0018
2255.00,0.0017
2254.00,0.0016
2253.00,0.0016
2252.00,0.0016
2251.00,0.0016
2250.00,0.0015
2249.00,0.0016
2248.00,0.0017
2247.00,0.0018
2246.00,0.0018
2245.00,0.0018
2244.00,0.0017
2243.00,0.0016
2242.00,0.0015
2241.00,0.0016
2240.00,0.0016
2239.00,0.0017
2238.00,0.0017
2237.00,0.0017
2236.00,0.0017
2235.00,0.0017
2234.00,0.0017
2233.00,0.0017
2232.00,0.0017
2231.00,0.0018
2230.00,0.0017
2229.00,0.0015
2228.00,0.0013
2227.00,0.0011
2226.00,0.0010
2225.00,0.0010
2224.00,0.0011
2223.00,0.0013
2222.00,0.0015
2221.00,0.0017
2220.00,0.0018
2219.00,0.0018
2218.00,0.0018
2217.00,0.0017
2216.00,0.0017
2215.00,0.0017
2214.00,0.0017
2213.00,0.0017
2212.00,0.0016
2211.00,0.0015
2210.00,0.0014
2209.00,0.0014
2208.00,0.0013
2207.00,0.0012
2206.00,0.0012
2205.00,0.0011
2204.00,0.0011
2203.00,0.0010
2202.00,0.0010
2201.00,0.0010
2200.00,0.0011
2199.00,0.0013
2198.00,0.0016
2197.00,0.0017
2196.00,0.0017
2195.00,0.0016
2194.00,0.0015
2193.00,0.0016
2192.00,0.0018
2191.00,0.0019
2190.00,0.0018
2189.00,0.0018
2188.00,0.0017
2187.00,0.0017
2186.00,0.0017
2185.00,0.0016
2184.00,0.0015
2183.00,0.0014
2182.00,0.0012
2181.00,0.0011
2180.00,0.0010
2179.00,0.0011
2178.00,0.0012
2177.00,0.0014
2176.00,0.0015
2175.00,0.0014
2174.00,0.0014
2173.00,0.0014
2172.00,0.0015
2171.00,0.0017
2170.00,0.0018
2169.00,0.0019
2168.00,0.0021
2167.00,0.0022
2166.00,0.0022
2165.00,0.0023
2164.00,0.0024
2163.00,0.0025
2162.00,0.0026
2161.00,0.0023
2160.00,0.0014
2159.00,0.0001
2158.00,-0.0012
2157.00,-0.0020
2156.00,-0.0023
2155.00,-0.0022
2154.00,-0.0019
2153.00,-0.0016
2152.00,-0.0012
2151.00,-0.0009
2150.00,-0.0006
2149.00,-0.0003
2148.00,-0.0003
2147.00,-0.0004
2146.00,-0.0007
2145.00,-0.0008
2144.00,-0.0007
2143.00,-0.0006
2142.00,-0.0005
2141.00,-0.0005
2140.00,-0.0005
2139.00,-0.0005
2138.00,-0.0005
2137.00,-0.0005
2136.00,-0.0007
2135.00,-0.0009
2134.00,-0.0011
2133.00,-0.0012
2132.00,-0.0010
2131.00,-0.0008
2130.00,-0.0005
2129.00,-0.0003
2128.00,-0.0001
2127.00,0.0001
2126.00,0.0001
2125.00,0.0002
2124.00,0.0004
2123.00,0.0005
2122.00,0.0006
2121.00,0.0007
2120.00,0.0007
2119.00,0.0007
2118.00,0.0007
2117.00,0.0007
2116.00,0.0007
2115.00,0.0006
2114.00,0.0005
2113.00,0.0004
2112.00,0.0005
2111.00,0.0007
2110.00,0.0009
2109.00,0.0010
2108.00,0.0010
2107.00,0.0010
2106.00,0.0009
2105.00,0.0009
2104.00,0.0008
2103.00,0.0008
2102.00,0.0007
2101.00,0.0008
2100.00,0.0009
2099.00,0.0009
2098.00,0.0008
2097.00,0.0006
2096.00,0.0004
2095.00,0.0003
2094.00,0.0004
2093.00,0.0005
2092.00,0.0006
2091.00,0.0006
2090.00,0.0007
2089.00,0.0007
2088.00,0.0007
2087.00,0.0007
2086.00,0.0008
2085.00,0.0009
2084.00,0.0010
2083.00,0.0011
2082.00,0.0010
2081.00,0.0009
2080.00,0.0008
2079.00,0.0008
2078.00,0.0007
2077.00,0.0007
2076.00,0.0007
2075.00,0.0008
2074.00,0.0008
2073.00,0.0008
2072.00,0.0008
2071.00,0.0008
2070.00,0.0007
2069.00,0.0007
2068.00,0.0006
2067.00,0.0005
2066.00,0.0004
2065.00,0.0003
2064.00,0.0002
2063.00,0.0001
2062.00,0.0002
2061.00,0.0003
2060.00,0.0005
2059.00,0.0006
2058.00,0.0007
2057.00,0.0007
2056.00,0.0007
2055.00,0.0007
2054.00,0.0008
2053.00,0.0011
2052.00,0.0016
2051.00,0.0017
2050.00,0.0015
2049.00,0.0009
2048.00,0.0004
2047.00,0.0002
2046.00,0.0001
2045.00,0.0002
2044.00,0.0004
2043.00,0.0007
2042.00,0.0010
2041.00,0.0012
2040.00,0.0011
2039.00,0.0010
2038.00,0.0008
2037.00,0.0008
2036.00,0.0008
2035.00,0.0006
2034.00,0.0003
2033.00,0.0001
2032.00,0.0000
2031.00,-0.0000
2030.00,0.0000
2029.00,0.0000
2028.00,0.0000
2027.00,-0.0000
2026.00,-0.0001
2025.00,-0.0002
2024.00,-0.0002
2023.00,-0.0002
2022.00,-0.0002
2021.00,-0.0003
2020.00,-0.0004
2019.00,-0.0007
2018.00,-0.0009
2017.00,-0.0008
2016.00,-0.0005
2015.00,-0.0002
2014.00,-0.0001
2013.00,-0.0001
2012.00,-0.0003
2011.00,-0.0006
2010.00,-0.0008
2009.00,-0.0009
2008.00,-0.0010
2007.00,-0.0011
2006.00,-0.0012
2005.00,-0.0011
2004.00,-0.0010
2003.00,-0.0010
2002.00,-0.0010
2001.00,-0.0009
2000.00,-0.0006
1999.00,-0.0004
1998.00,-0.0003
1997.00,-0.0004
1996.00,-0.0005
1995.00,-0.0006
1994.00,-0.0006
1993.00,-0.0004
1992.00,-0.0002
1991.00,-0.0001
1990.00,-0.0000
1989.00,0.0002
1988.00,0.0005
1987.00,0.0008
1986.00,0.0010
1985.00,0.0011
1984.00,0.0011
1983.00,0.0009
1982.00,0.0009
1981.00,0.0009
1980.00,0.0010
1979.00,0.0009
1978.00,0.0005
1977.00,-0.0000
1976.00,-0.0003
1975.00,-0.0004
1974.00,-0.0005
1973.00,-0.0006
1972.00,-0.0007
1971.00,-0.0008
1970.00,-0.0008
1969.00,-0.0006
1968.00,-0.0003
1967.00,-0.0001
1966.00,-0.0000
1965.00,-0.0000
1964.00,-0.0001
1963.00,-0.0004
1962.00,-0.0008
1961.00,-0.0011
1960.00,-0.0013
1959.00,-0.0014
1958.00,-0.0014
1957.00,-0.0011
1956.00,-0.0008
1955.00,-0.0006
1954.00,-0.0005
1953.00,-0.0005
1952.00,-0.0006
1951.00,-0.0008
1950.00,-0.0009
1949.00,-0.0008
1948.00,-0.0007
1947.00,-0.0006
1946.00,-0.0005
1945.00,-0.0006
1944.00,-0.0006
1943.00,-0.0007
1942.00,-0.0008
1941.00,-0.0009
1940.00,-0.0009
1939.00,-0.0008
1938.00,-0.0006
1937.00,-0.0005
1936.00,-0.0003
1935.00,-0.0003
1934.00,-0.0002
1933.00,-0.0001
1932.00,-0.0001
1931.00,-0.0001
1930.00,-0.0002
1929.00,-0.0001
1928.00,-0.0000
1927.00,0.0001
1926.00,0.0001
1925.00,-0.0000
1924.00,-0.0001
1923.00,-0.0000
1922.00,0.0001
1921.00,0.0003
1920.00,0.0004
1919.00,0.0004
1918.00,0.0004
1917.00,0.0004
1916.00,0.0004
1915.00,0.0003
1914.00,0.0004
1913.00,0.0004
1912.00,0.0005
1911.00,0.0005
1910.00,0.0005
1909.00,0.0005
1908.00,0.0005
1907.00,0.0004
1906.00,0.0005
1905.00,0.0006
1904.00,0.0007
1903.00,0.0007
1902.00,0.0006
1901.00,0.0005
1900.00,0.0005
1899.00,0.0004
1898.00,0.0004
1897.00,0.0004
1896.00,0.0005
1895.00,0.0005
1894.00,0.0005
1893.00,0.0005
1892.00,0.0006
1891.00,0.0006
1890.00,0.0005
1889.00,0.0004
1888.00,0.0004
1887.00,0.0004
1886.00,0.0004
1885.00,0.0004
1884.00,0.0004
1883.00,0.0004
1882.00,0.0004
1881.00,0.0005
1880.00,0.0006
1879.00,0.0006
1878.00,0.0005
1877.00,0.0005
1876.00,0.0004
1875.00,0.0005
1874.00,0.0005
1873.00,0.0005
1872.00,0.0005
1871.00,0.0005
1870.00,0.0004
1869.00,0.0005
1868.00,0.0006
1867.00,0.0006
1866.00,0.0006
1865.00,0.0007
1864.00,0.0007
1863.00,0.0007
1862.00,0.0007
1861.00,0.0007
1860.00,0.0007
1859.00,0.0006
1858.00,0.0007
1857.00,0.0008
1856.00,0.0009
1855.00,0.0008
1854.00,0.0008
1853.00,0.0007
1852.00,0.0007
1851.00,0.0007
1850.00,0.0007
1849.00,0.0008
1848.00,0.0010
1847.00,0.0010
1846.00,0.0010
1845.00,0.0009
1844.00,0.0008
1843.00,0.0007
1842.00,0.0007
1841.00,0.0007
1840.00,0.0008
1839.00,0.0009
1838.00,0.0010
1837.00,0.0010
1836.00,0.0010
1835.00,0.0010
1834.00,0.0010
1833.00,0.0010
1832.00,0.0010
1831.00,0.0010
1830.00,0.0011
1829.00,0.0011
1828.00,0.0011
1827.00,0.0011
1826.00,0.0010
1825.00,0.0010
1824.00,0.0010
1823.00,0.0010
1822.00,0.0009
1821.00,0.0009
1820.00,0.0009
1819.00,0.0009
1818.00,0.0008
1817.00,0.0007
1816.00,0.0008
1815.00,0.0009
1814.00,0.0010
1813.00,0.0011
1812.00,0.0011
1811.00,0.0011
1810.00,0.0011
1809.00,0.0011
1808.00,0.0011
1807.00,0.0011
1806.00,0.0011
1805.00,0.0011
1804.00,0.0012
1803.00,0.0012
1802.00,0.0012
1801.00,0.0012
1800.00,0.0012
1799.00,0.0012
1798.00,0.0012
1797.00,0.0013
1796.00,0.0013
1795.00,0.0013
1794.00,0.0013
1793.00,0.0013
1792.00,0.0014
1791.00,0.0015
1790.00,0.0015
1789.00,0.0014
1788.00,0.0014
1787.00,0.0014
1786.00,0.0014
1785.00,0.0015
1784.00,0.0015
1783.00,0.0015
1782.00,0.0015
1781.00,0.0015
1780.00,0.0015
1779.00,0.0014
1778.00,0.0014
1777.00,0.0013
1776.00,0.0013
1775.00,0.0013
1774.00,0.0012
1773.00,0.0013
1772.00,0.0014
1771.00,0.0016
1770.00,0.0017
1769.00,0.0018
1768.00,0.0017
1767.00,0.0017
1766.00,0.0017
1765.00,0.0017
1764.00,0.0017
1763.00,0.0018
1762.00,0.0019
1761.00,0.0019
1760.00,0.0019
1759.00,0.0019
1758.00,0.0020
1757.00,0.0020
1756.00,0.0021
1755.00,0.0022
1754.00,0.0022
1753.00,0.0022
1752.00,0.0023
1751.00,0.0024
1750.00,0.0026
1749.00,0.0027
1748.00,0.0027
1747.00,0.0027
1746.00,0.0027
1745.00,0.0028
1744.00,0.0029
1743.00,0.0029
1742.00,0.0030
1741.00,0.0030
1740.00,0.0031
1739.00,0.0031
1738.00,0.0031
1737.00,0.0032
1736.00,0.0032
1735.00,0.0031
1734.00,0.0031
1733.00,0.0031
1732.00,0.0032
1731.00,0.0032
1730.00,0.0033
1729.00,0.0033
1728.00,0.0032
1727.00,0.0031
1726.00,0.0031
1725.00,0.0031
1724.00,0.0031
1723.00,0.0031
1722.00,0.0031
1721.00,0.0032
1720.00,0.0032
1719.00,0.0032
1718.00,0.0032
1717.00,0.0032
1716.00,0.0032
1715.00,0.0033
1714.00,0.0033
1713.00,0.0033
1712.00,0.0034
1711.00,0.0034
1710.00,0.0034
1709.00,0.0035
1708.00,0.0035
1707.00,0.0036
1706.00,0.0036
1705.00,0.0038
1704.00,0.0039
1703.00,0.0040
1702.00,0.0040
1701.00,0.0040
1700.00,0.0040
1699.00,0.0040
1698.00,0.0040
1697.00,0.0041
1696.00,0.0043
1695.00,0.0044
1694.00,0.0045
1693.00,0.0045
1692.00,0.0046
1691.00,0.0047
1690.00,0.0048
1689.00,0.0049
1688.00,0.0050
1687.00,0.0051
1686.00,0.0051
1685.00,0.0052
1684.00,0.0054
1683.00,0.0056
1682.00,0.0057
1681.00,0.0057
1680.00,0.0058
1679.00,0.0059
1678.00,0.0059
1677.00,0.0060
1676.00,0.0061
1675.00,0.0061
1674.00,0.0062
1673.00,0.0062
1672.00,0.0063
1671.00,0.0063
1670.00,0.0065
1669.00,0.0067
1668.00,0.0068
1667.00,0.0069
1666.00,0.0069
1665.00,0.0069
1664.00,0.0069
1663.00,0.0069
1662.00,0.0070
1661.00,0.0071
1660.00,0.0072
1659.00,0.0073
1658.00,0.0074
1657.00,0.0076
1656.00,0.0078
1655.00,0.0079
1654.00,0.0080
1653.00,0.0082
1652.00,0.0082
1651.00,0.0081
1650.00,0.0081
1649.00,0.0081
1648.00,0.0081
1647.00,0.0082
1646.00,0.0083
1645.00,0.0083
1644.00,0.0083
1643.00,0.0083
1642.00,0.0083
1641.00,0.0083
1640.00,0.0083
1639.00,0.0083
1638.00,0.0083
1637.00,0.0083
1636.00,0.0084
1635.00,0.0086
1634.00,0.0086
1633.00,0.0087
1632.00,0.0087
1631.00,0.0086
1630.00,0.0086
1629.00,0.0087
1628.00,0.0087
1627.00,0.0087
1626.00,0.0086
1625.00,0.0086
1624.00,0.0086
1623.00,0.0085
1622.00,0.0085
1621.00,0.0084
1620.00,0.0084
1619.00,0.0083
1618.00,0.0081
1617.00,0.0080
1616.00,0.0080
1615.00,0.0079
1614.00,0.0079
1613.00,0.0079
1612.00,0.0079
1611.00,0.0078
1610.00,0.0078
1609.00,0.0077
1608.00,0.0077
1607.00,0.0077
1606.00,0.0077
1605.00,0.0077
1604.00,0.0078
1603.00,0.0079
1602.00,0.0079
1601.00,0.0079
1600.00,0.0079
1599.00,0.0079
1598.00,0.0080
1597.00,0.0080
1596.00,0.0082
1595.00,0.0083
1594.00,0.0085
1593.00,0.0087
1592.00,0.0089
1591.00,0.0091
1590.00,0.0094
1589.00,0.0097
1588.00,0.0102
1587.00,0.0107
1586.00,0.0114
1585.00,0.0122
1584.00,0.0130
1583.00,0.0140
1582.00,0.0150
1581.00,0.0161
1580.00,0.0170
1579.00,0.0177
1578.00,0.0181
1577.00,0.0183
1576.00,0.0181
1575.00,0.0176
1574.00,0.0170
1573.00,0.0165
1572.00,0.0159
1571.00,0.0151
1570.00,0.0141
1569.00,0.0132
1568.00,0.0124
1567.00,0.0119
1566.00,0.0115
1565.00,0.0112
1564.00,0.0109
1563.00,0.0108
1562.00,0.0108
1561.00,0.0109
1560.00,0.0107
1559.00,0.0106
1558.00,0.0106
1557.00,0.0106
1556.00,0.0107
1555.00,0.0109
1554.00,0.0111
1553.00,0.0114
1552.00,0.0118
1551.00,0.0122
1550.00,0.0128
1549.00,0.0135
1548.00,0.0142
1547.00,0.0149
1546.00,0.0159
1545.00,0.0170
1544.00,0.0182
1543.00,0.0193
1542.00,0.0200
1541.00,0.0204
1540.00,0.0202
1539.00,0.0194
1538.00,0.0184
1537.00,0.0175
1536.00,0.0167
1535.00,0.0156
1534.00,0.0142
1533.00,0.0130
1532.00,0.0122
1531.00,0.0115
1530.00,0.0110
1529.00,0.0107
1528.00,0.0104
1527.00,0.0100
1526.00,0.0097
1525.00,0.0094
1524.00,0.0093
1523.00,0.0092
1522.00,0.0091
1521.00,0.0091
1520.00,0.0092
1519.00,0.0092
1518.00,0.0091
1517.00,0.0091
1516.00,0.0091
1515.00,0.0091
1514.00,0.0090
1513.00,0.0090
1512.00,0.0090
1511.00,0.0091
1510.00,0.0092
1509.00,0.0093
1508.00,0.0093
1507.00,0.0093
1506.00,0.0092
1505.00,0.0091
1504.00,0.0092
1503.00,0.0093
1502.00,0.0094
1501.00,0.0097
1500.00,0.0099
1499.00,0.0101
1498.00,0.0103
1497.00,0.0106
1496.00,0.0110
1495.00,0.0112
1494.00,0.0115
1493.00,0.0118
1492.00,0.0122
1491.00,0.0126
1490.00,0.0132
1489.00,0.0139
1488.00,0.0146
1487.00,0.0153
1486.00,0.0161
1485.00,0.0172
1484.00,0.0184
1483.00,0.0197
1482.00,0.0212
1481.00,0.0230
1480.00,0.0248
1479.00,0.0265
1478.00,0.0283
1477.00,0.0304
1476.00,0.0326
1475.00,0.0350
1474.00,0.0381
1473.00,0.0429
1472.00,0.0488
1471.00,0.0546
1470.00,0.0602
1469.00,0.0662
1468.00,0.0727
1467.00,0.0798
1466.00,0.0879
1465.00,0.0965
1464.00,0.1042
1463.00,0.1098
1462.00,0.1137
1461.00,0.1166
1460.00,0.1190
1459.00,0.1209
1458.00,0.1229
1457.00,0.1250
1456.00,0.1263
1455.00,0.1266
1454.00,0.1264
1453.00,0.1256
1452.00,0.1237
1451.00,0.1205
1450.00,0.1156
1449.00,0.1084
1448.00,0.0989
1447.00,0.0888
1446.00,0.0794
1445.00,0.0714
1444.00,0.0645
1443.00,0.0589
1442.00,0.0548
1441.00,0.0521
1440.00,0.0505
1439.00,0.0498
1438.00,0.0498
1437.00,0.0497
1436.00,0.0485
1435.00,0.0457
1434.00,0.0419
1433.00,0.0373
1432.00,0.0327
1431.00,0.0286
1430.00,0.0255
1429.00,0.0233
1428.00,0.0218
1427.00,0.0209
1426.00,0.0204
1425.00,0.0199
1424.00,0.0195
1423.00,0.0192
1422.00,0.0191
1421.00,0.0188
1420.00,0.0184
1419.00,0.0180
1418.00,0.0177
1417.00,0.0172
1416.00,0.0166
1415.00,0.0162
1414.00,0.0159
1413.00,0.0156
1412.00,0.0152
1411.00,0.0149
1410.00,0.0147
1409.00,0.0143
1408.00,0.0140
1407.00,0.0137
1406.00,0.0135
1405.00,0.0132
1404.00,0.0129
1403.00,0.0126
1402.00,0.0124
1401.00,0.0122
1400.00,0.0120
1399.00,0.0119
1398.00,0.0118
1397.00,0.0118
1396.00,0.0117
1395.00,0.0119
1394.00,0.0123
1393.00,0.0127
1392.00,0.0132
1391.00,0.0141
1390.00,0.0153
1389.00,0.0171
1388.00,0.0197
1387.00,0.0235
1386.00,0.0285
1385.00,0.0348
1384.00,0.0431
1383.00,0.0542
1382.00,0.0687
1381.00,0.0867
1380.00,0.1085
1379.00,0.1328
1378.00,0.1561
1377.00,0.1730
1376.00,0.1788
1375.00,0.1706
1374.00,0.1504
1373.00,0.1254
1372.00,0.1021
1371.00,0.0826
1370.00,0.0668
1369.00,0.0548
1368.00,0.0465
1367.00,0.0413
1366.00,0.0386
1365.00,0.0375
1364.00,0.0378
1363.00,0.0392
1362.00,0.0413
1361.00,0.0435
1360.00,0.0451
1359.00,0.0456
1358.00,0.0446
1357.00,0.0421
1356.00,0.0385
1355.00,0.0346
1354.00,0.0308
1353.00,0.0275
1352.00,0.0248
1351.00,0.0226
1350.00,0.0208
1349.00,0.0194
1348.00,0.0183
1347.00,0.0174
1346.00,0.0167
1345.00,0.0160
1344.00,0.0155
1343.00,0.0152
1342.00,0.0149
1341.00,0.0147
1340.00,0.0145
1339.00,0.0144
1338.00,0.0143
1337.00,0.0143
1336.00,0.0144
1335.00,0.0145
1334.00,0.0148
1333.00,0.0152
1332.00,0.0156
1331.00,0.0159
1330.00,0.0161
1329.00,0.0159
1328.00,0.0156
1327.00,0.0151
1326.00,0.0145
1325.00,0.0139
1324.00,0.0133
1323.00,0.0129
1322.00,0.0125
1321.00,0.0123
1320.00,0.0121
1319.00,0.0119
1318.00,0.0117
1317.00,0.0114
1316.00,0.0112
1315.00,0.0110
1314.00,0.0109
1313.00,0.0109
1312.00,0.0110
1311.00,0.0114
1310.00,0.0119
1309.00,0.0128
1308.00,0.0140
1307.00,0.0154
1306.00,0.0168
1305.00,0.0178
1304.00,0.0181
1303.00,0.0178
1302.00,0.0171
1301.00,0.0163
1300.00,0.0158
1299.00,0.0155
1298.00,0.0153
1297.00,0.0152
1296.00,0.0150
1295.00,0.0147
1294.00,0.0142
1293.00,0.0136
1292.00,0.0130
1291.00,0.0124
1290.00,0.0119
1289.00,0.0115
1288.00,0.0111
1287.00,0.0107
1286.00,0.0105
1285.00,0.0102
1284.00,0.0100
1283.00,0.0098
1282.00,0.0097
1281.00,0.0095
1280.00,0.0094
1279.00,0.0092
1278.00,0.0091
1277.00,0.0090
1276.00,0.0089
1275.00,0.0088
1274.00,0.0086
1273.00,0.0085
1272.00,0.0084
1271.00,0.0084
1270.00,0.0084
1269.00,0.0084
1268.00,0.0085
1267.00,0.0086
1266.00,0.0088
1265.00,0.0090
1264.00,0.0092
1263.00,0.0095
1262.00,0.0099
1261.00,0.0104
1260.00,0.0111
1259.00,0.0120
1258.00,0.0129
1257.00,0.0137
1256.00,0.0139
1255.00,0.0137
1254.00,0.0129
1253.00,0.0119
1252.00,0.0108
1251.00,0.0100
1250.00,0.0095
1249.00,0.0092
1248.00,0.0091
1247.00,0.0091
1246.00,0.0091
1245.00,0.0091
1244.00,0.0091
1243.00,0.0091
1242.00,0.0090
1241.00,0.0090
1240.00,0.0090
1239.00,0.0091
1238.00,0.0092
1237.00,0.0094
1236.00,0.0095
1235.00,0.0095
1234.00,0.0096
1233.00,0.0097
1232.00,0.0098
1231.00,0.0100
1230.00,0.0101
1229.00,0.0103
1228.00,0.0105
1227.00,0.0108
1226.00,0.0111
1225.00,0.0115
1224.00,0.0119
1223.00,0.0123
1222.00,0.0126
1221.00,0.0129
1220.00,0.0132
1219.00,0.0133
1218.00,0.0133
1217.00,0.0133
1216.00,0.0132
1215.00,0.0130
1214.00,0.0128
1213.00,0.0125
1212.00,0.0122
1211.00,0.0119
1210.00,0.0117
1209.00,0.0115
1208.00,0.0113
1207.00,0.0112
1206.00,0.0111
1205.00,0.0111
1204.00,0.0111
1203.00,0.0110
1202.00,0.0110
1201.00,0.0110
1200.00,0.0111
1199.00,0.0111
1198.00,0.0110
1197.00,0.0110
1196.00,0.0109
1195.00,0.0108
1194.00,0.0108
1193.00,0.0108
1192.00,0.0108
1191.00,0.0107
1190.00,0.0107
1189.00,0.0106
1188.00,0.0105
1187.00,0.0105
1186.00,0.0104
1185.00,0.0104
1184.00,0.0105
1183.00,0.0105
1182.00,0.0106
1181.00,0.0108
1180.00,0.0110
1179.00,0.0114
1178.00,0.0120
1177.00,0.0129
1176.00,0.0142
1175.00,0.0159
1174.00,0.0182
1173.00,0.0211
1172.00,0.0246
1171.00,0.0284
1170.00,0.0321
1169.00,0.0353
1168.00,0.0372
1167.00,0.0376
1166.00,0.0365
1165.00,0.0345
1164.00,0.0320
1163.00,0.0295
1162.00,0.0272
1161.00,0.0252
1160.00,0.0235
1159.00,0.0222
1158.00,0.0211
1157.00,0.0202
1156.00,0.0195
1155.00,0.0189
1154.00,0.0185
1153.00,0.0180
1152.00,0.0175
1151.00,0.0168
1150.00,0.0159
1149.00,0.0149
1148.00,0.0140
1147.00,0.0132
1146.00,0.0125
1145.00,0.0118
1144.00,0.0112
1143.00,0.0106
1142.00,0.0100
1141.00,0.0095
1140.00,0.0089
1139.00,0.0085
1138.00,0.0082
1137.00,0.0081
1136.00,0.0080
1135.00,0.0080
1134.00,0.0080
1133.00,0.0080
1132.00,0.0081
1131.00,0.0083
1130.00,0.0086
1129.00,0.0088
1128.00,0.0091
1127.00,0.0093
1126.00,0.0095
1125.00,0.0096
1124.00,0.0096
1123.00,0.0095
1122.00,0.0095
1121.00,0.0095
1120.00,0.0095
1119.00,0.0096
1118.00,0.0098
1117.00,0.0100
1116.00,0.0102
1115.00,0.0105
1114.00,0.0109
1113.00,0.0112
1112.00,0.0115
1111.00,0.0117
1110.00,0.0120
1109.00,0.0124
1108.00,0.0128
1107.00,0.0133
1106.00,0.0138
1105.00,0.0144
1104.00,0.0149
1103.00,0.0152
1102.00,0.0152
1101.00,0.0149
1100.00,0.0143
1099.00,0.0137
1098.00,0.0129
1097.00,0.0122
1096.00,0.0115
1095.00,0.0110
1094.00,0.0104
1093.00,0.0099
1092.00,0.0095
1091.00,0.0091
1090.00,0.0088
1089.00,0.0085
1088.00,0.0082
1087.00,0.0079
1086.00,0.0078
1085.00,0.0078
1084.00,0.0078
1083.00,0.0077
1082.00,0.0076
1081.00,0.0075
1080.00,0.0073
1079.00,0.0072
1078.00,0.0071
1077.00,0.0069
1076.00,0.0068
1075.00,0.0066
1074.00,0.0065
1073.00,0.0064
1072.00,0.0063
1071.00,0.0063
1070.00,0.0065
1069.00,0.0066
1068.00,0.0069
1067.00,0.0071
1066.00,0.0072
1065.00,0.0073
1064.00,0.0074
1063.00,0.0074
1062.00,0.0075
1061.00,0.0077
1060.00,0.0079
1059.00,0.0082
1058.00,0.0083
1057.00,0.0085
1056.00,0.0087
1055.00,0.0089
1054.00,0.0091
1053.00,0.0094
1052.00,0.0098
1051.00,0.0102
1050.00,0.0106
1049.00,0.0111
1048.00,0.0117
1047.00,0.0122
1046.00,0.0128
1045.00,0.0131
1044.00,0.0132
1043.00,0.0132
1042.00,0.0131
1041.00,0.0130
1040.00,0.0129
1039.00,0.0130
1038.00,0.0132
1037.00,0.0134
1036.00,0.0136
1035.00,0.0136
1034.00,0.0134
1033.00,0.0131
1032.00,0.0128
1031.00,0.0126
1030.00,0.0124
1029.00,0.0122
1028.00,0.0120
1027.00,0.0118
1026.00,0.0117
1025.00,0.0117
1024.00,0.0118
1023.00,0.0119
1022.00,0.0120
1021.00,0.0121
1020.00,0.0122
1019.00,0.0123
1018.00,0.0126
1017.00,0.0129
1016.00,0.0133
1015.00,0.0139
1014.00,0.0145
1013.00,0.0152
1012.00,0.0158
1011.00,0.0163
1010.00,0.0166
1009.00,0.0168
1008.00,0.0171
1007.00,0.0177
1006.00,0.0185
1005.00,0.0197
1004.00,0.0215
1003.00,0.0241
1002.00,0.0276
1001.00,0.0319
1000.00,0.0366
999.00,0.0407
998.00,0.0428
997.00,0.0424
996.00,0.0394
995.00,0.0348
994.00,0.0297
993.00,0.0251
992.00,0.0213
991.00,0.0186
990.00,0.0167
989.00,0.0154
988.00,0.0146
987.00,0.0141
986.00,0.0138
985.00,0.0139
984.00,0.0141
983.00,0.0148
982.00,0.0159
981.00,0.0176
980.00,0.0200
979.00,0.0231
978.00,0.0271
977.00,0.0319
976.00,0.0372
975.00,0.0424
974.00,0.0464
973.00,0.0482
972.00,0.0469
971.00,0.0425
970.00,0.0362
969.00,0.0296
968.00,0.0237
967.00,0.0191
966.00,0.0157
965.00,0.0133
964.00,0.0114
963.00,0.0101
962.00,0.0090
961.00,0.0082
960.00,0.0075
959.00,0.0069
958.00,0.0064
957.00,0.0060
956.00,0.0056
955.00,0.0053
954.00,0.0051
953.00,0.0049
952.00,0.0048
951.00,0.0049
950.00,0.0050
949.00,0.0051
948.00,0.0052
947.00,0.0054
946.00,0.0056
945.00,0.0058
944.00,0.0061
943.00,0.0065
942.00,0.0068
941.00,0.0071
940.00,0.0072
939.00,0.0071
938.00,0.0069
937.00,0.0067
936.00,0.0065
935.00,0.0064
934.00,0.0063
933.00,0.0063
932.00,0.0063
931.00,0.0063
930.00,0.0063
929.00,0.0063
928.00,0.0063
927.00,0.0064
926.00,0.0065
925.00,0.0067
924.00,0.0067
923.00,0.0068
922.00,0.0069
921.00,0.0071
920.00,0.0073
919.00,0.0076
918.00,0.0078
917.00,0.0079
916.00,0.0080
915.00,0.0081
914.00,0.0082
913.00,0.0082
912.00,0.0083
911.00,0.0083
910.00,0.0084
909.00,0.0086
908.00,0.0088
907.00,0.0092
906.00,0.0098
905.00,0.0107
904.00,0.0121
903.00,0.0139
902.00,0.0159
901.00,0.0177
900.00,0.0189
899.00,0.0192
898.00,0.0186
897.00,0.0172
896.00,0.0154
895.00,0.0136
894.00,0.0121
893.00,0.0110
892.00,0.0103
891.00,0.0098
890.00,0.0093
889.00,0.0089
888.00,0.0085
887.00,0.0082
886.00,0.0081
885.00,0.0081
884.00,0.0082
883.00,0.0084
882.00,0.0085
881.00,0.0086
880.00,0.0088
879.00,0.0089
878.00,0.0090
877.00,0.0089
876.00,0.0088
875.00,0.0088
874.00,0.0088
873.00,0.0087
872.00,0.0087
871.00,0.0087
870.00,0.0086
869.00,0.0086
868.00,0.0086
867.00,0.0087
866.00,0.0088
865.00,0.0090
864.00,0.0090
863.00,0.0090
862.00,0.0089
861.00,0.0089
860.00,0.0091
859.00,0.0095
858.00,0.0098
857.00,0.0100
856.00,0.0101
855.00,0.0103
854.00,0.0106
853.00,0.0110
852.00,0.0115
851.00,0.0122
850.00,0.0129
849.00,0.0138
848.00,0.0150
847.00,0.0169
846.00,0.0196
845.00,0.0237
844.00,0.0294
843.00,0.0357
842.00,0.0406
841.00,0.0422
840.00,0.0396
839.00,0.0343
838.00,0.0284
837.00,0.0236
836.00,0.0202
835.00,0.0180
834.00,0.0165
833.00,0.0154
832.00,0.0145
831.00,0.0139
830.00,0.0134
829.00,0.0130
828.00,0.0127
827.00,0.0125
826.00,0.0124
825.00,0.0124
824.00,0.0123
823.00,0.0122
822.00,0.0121
821.00,0.0120
820.00,0.0120
819.00,0.0121
818.00,0.0124
817.00,0.0129
816.00,0.0136
815.00,0.0147
814.00,0.0160
813.00,0.0175
812.00,0.0190
811.00,0.0204
810.00,0.0214
809.00,0.0220
808.00,0.0219
807.00,0.0211
806.00,0.0198
805.00,0.0183
804.00,0.0169
803.00,0.0156
802.00,0.0147
801.00,0.0139
800.00,0.0133
799.00,0.0129
798.00,0.0124
797.00,0.0119
796.00,0.0114
795.00,0.0109
794.00,0.0105
793.00,0.0102
792.00,0.0099
791.00,0.0096
790.00,0.0095
789.00,0.0095
788.00,0.0095
787.00,0.0095
786.00,0.0094
785.00,0.0091
784.00,0.0088
783.00,0.0086
782.00,0.0085
781.00,0.0085
780.00,0.0084
779.00,0.0084
778.00,0.0083
777.00,0.0082
776.00,0.0082
775.00,0.0083
774.00,0.0085
773.00,0.0089
772.00,0.0094
771.00,0.0099
770.00,0.0101
769.00,0.0102
768.00,0.0102
767.00,0.0102
766.00,0.0102
765.00,0.0102
764.00,0.0100
763.00,0.0097
762.00,0.0093
761.00,0.0089
760.00,0.0085
759.00,0.0082
758.00,0.0080
757.00,0.0079
756.00,0.0077
755.00,0.0075
754.00,0.0074
753.00,0.0074
752.00,0.0073
751.00,0.0072
750.00,0.0071
749.00,0.0069
748.00,0.0069
747.00,0.0070
746.00,0.0073
745.00,0.0076
744.00,0.0077
743.00,0.0077
742.00,0.0076
741.00,0.0076
740.00,0.0077
739.00,0.0078
738.00,0.0080
737.00,0.0081
736.00,0.0082
735.00,0.0084
734.00,0.0086
733.00,0.0088
732.00,0.0090
731.00,0.0090
730.00,0.0090
729.00,0.0090
728.00,0.0090
727.00,0.0092
726.00,0.0094
725.00,0.0096
724.00,0.0097
723.00,0.0097
722.00,0.0096
721.00,0.0095
720.00,0.0093
719.00,0.0091
718.00,0.0088
717.00,0.0085
716.00,0.0083
715.00,0.0082
714.00,0.0081
713.00,0.0081
712.00,0.0081
711.00,0.0080
710.00,0.0079
709.00,0.0078
708.00,0.0078
707.00,0.0080
706.00,0.0082
705.00,0.0084
704.00,0.0085
703.00,0.0084
702.00,0.0082
701.00,0.0081
700.00,0.0080
699.00,0.0080
698.00,0.0082
697.00,0.0085
696.00,0.0087
695.00,0.0087
694.00,0.0086
693.00,0.0083
692.00,0.0081
691.00,0.0080
690.00,0.0081
689.00,0.0083
688.00,0.0086
687.00,0.0087
686.00,0.0087
685.00,0.0087
684.00,0.0086
683.00,0.0087
682.00,0.0087
681.00,0.0087
680.00,0.0085
679.00,0.0084
678.00,0.0083
677.00,0.0084
676.00,0.0086
675.00,0.0089
674.00,0.0092
673.00,0.0093
672.00,0.0092
671.00,0.0092
670.00,0.0091
669.00,0.0090
668.00,0.0090
667.00,0.0090
666.00,0.0089
665.00,0.0087
664.00,0.0086
663.00,0.0085
662.00,0.0084
661.00,0.0083
660.00,0.0083
659.00,0.0084
658.00,0.0084
657.00,0.0083
656.00,0.0080
655.00,0.0076
654.00,0.0073
653.00,0.0071
652.00,0.0070
651.00,0.0070
650.00,0.0071
649.00,0.0072
648.00,0.0075
647.00,0.0077
646.00,0.0077
645.00,0.0077
644.00,0.0077
643.00,0.0078
642.00,0.0082
641.00,0.0086
640.00,0.0089
639.00,0.0089
638.00,0.0087
637.00,0.0084
636.00,0.0083
635.00,0.0082
634.00,0.0083
633.00,0.0085
632.00,0.0088
631.00,0.0090
630.00,0.0090
629.00,0.0089
628.00,0.0088
627.00,0.0087
626.00,0.0088
625.00,0.0088
624.00,0.0088
623.00,0.0086
622.00,0.0084
621.00,0.0082
620.00,0.0082
619.00,0.0083
618.00,0.0086
617.00,0.0088
616.00,0.0090
615.00,0.0092
614.00,0.0094
613.00,0.0095
612.00,0.0095
611.00,0.0094
610.00,0.0094
609.00,0.0095
608.00,0.0096
607.00,0.0096
606.00,0.0095
605.00,0.0093
604.00,0.0093
603.00,0.0092
602.00,0.0091
601.00,0.0090
600.00,0.0090
599.00,0.0091
598.00,0.0092
597.00,0.0090
596.00,0.0087
595.00,0.0084
594.00,0.0083
593.00,0.0083
592.00,0.0084
591.00,0.0086
590.00,0.0088
589.00,0.0088
588.00,0.0087
587.00,0.0085
586.00,0.0084
585.00,0.0084
584.00,0.0086
583.00,0.0089
582.00,0.0091
581.00,0.0091
580.00,0.0088
579.00,0.0084
578.00,0.0082
577.00,0.0083
576.00,0.0085
575.00,0.0086
574.00,0.0085
573.00,0.0083
572.00,0.0081
571.00,0.0081
570.00,0.0081
569.00,0.0084
568.00,0.0087
567.00,0.0091
566.00,0.0094
565.00,0.0093
564.00,0.0089
563.00,0.0085
562.00,0.0083
561.00,0.0085
560.00,0.0088
559.00,0.0092
558.00,0.0094
557.00,0.0094
556.00,0.0092
555.00,0.0091
554.00,0.0090
553.00,0.0089
552.00,0.0088
551.00,0.0088
550.00,0.0088
549.00,0.0089
548.00,0.0089
547.00,0.0089
546.00,0.0088
545.00,0.0086
544.00,0.0083
543.00,0.0083
542.00,0.0086
541.00,0.0091
540.00,0.0096
539.00,0.0100
538.00,0.0104
537.00,0.0110
536.00,0.0115
535.00,0.0116
534.00,0.0115
533.00,0.0113
532.00,0.0115
531.00,0.0118
530.00,0.0119
529.00,0.0117
528.00,0.0112
527.00,0.0106
526.00,0.0103
525.00,0.0102
524.00,0.0105
523.00,0.0108
522.00,0.0111
521.00,0.0110
520.00,0.0107
519.00,0.0103
518.00,0.0101
517.00,0.0100
516.00,0.0099
515.00,0.0098
514.00,0.0100
513.00,0.0105
512.00,0.0110
511.00,0.0111
510.00,0.0109
509.00,0.0105
508.00,0.0099
507.00,0.0091
506.00,0.0083
505.00,0.0079
504.00,0.0080
503.00,0.0081
502.00,0.0082
501.00,0.0082
500.00,0.0085
499.00,0.0090
498.00,0.0094
497.00,0.0094
496.00,0.0092
495.00,0.0092
494.00,0.0093
493.00,0.0095
492.00,0.0098
491.00,0.0099
490.00,0.0097
489.00,0.0093
488.00,0.0092
487.00,0.0097
486.00,0.0102
485.00,0.0103
484.00,0.0100
483.00,0.0096
482.00,0.0092
481.00,0.0084
480.00,0.0074
479.00,0.0066
478.00,0.0064
477.00,0.0067
476.00,0.0070
475.00,0.0072
474.00,0.0072
473.00,0.0073
472.00,0.0080
471.00,0.0090
470.00,0.0098
469.00,0.0096
468.00,0.0087
467.00,0.0079
466.00,0.0079
465.00,0.0086
464.00,0.0097
463.00,0.0113
462.00,0.0132
461.00,0.0148
460.00,0.0153
459.00,0.0143
458.00,0.0125
457.00,0.0111
456.00,0.0106
455.00,0.0108
454.00,0.0108
453.00,0.0101
452.00,0.0088
451.00,0.0076
450.00,0.0074
