Created as New Dataset,Sample 048 By Administrator Date Friday, September 05 2025
cm-1,A
4000.00,0.0019
3999.00,0.0019
3998.00,0.0019
3997.00,0.0018
3996.00,0.0018
3995.00,0.0019
3994.00,0.0019
3993.00,0.0019
3992.00,0.0019
3991.00,0.0019
3990.00,0.0019
3989.00,0.0019
3988.00,0.0019
3987.00,0.0019
3986.00,0.0019
3985.00,0.0019
3984.00,0.0018
3983.00,0.0018
3982.00,0.0018
3981.00,0.0018
3980.00,0.0018
3979.00,0.0018
3978.00,0.0018
3977.00,0.0018
3976.00,0.0018
3975.00,0.0018
3974.00,0.0017
3973.00,0.0017
3972.00,0.0016
3971.00,0.0016
3970.00,0.0016
3969.00,0.0017
3968.00,0.0017
3967.00,0.0017
3966.00,0.0017
3965.00,0.0018
3964.00,0.0018
3963.00,0.0018
3962.00,0.0018
3961.00,0.0018
3960.00,0.0018
3959.00,0.0018
3958.00,0.0018
3957.00,0.0018
3956.00,0.0018
3955.00,0.0017
3954.00,0.0017
3953.00,0.0017
3952.00,0.0018
3951.00,0.0018
3950.00,0.0018
3949.00,0.0017
3948.00,0.0017
3947.00,0.0017
3946.00,0.0017
3945.00,0.0017
3944.00,0.0017
3943.00,0.0017
3942.00,0.0017
3941.00,0.0017
3940.00,0.0016
3939.00,0.0016
3938.00,0.0016
3937.00,0.0016
3936.00,0.0016
3935.00,0.0016
3934.00,0.0016
3933.00,0.0017
3932.00,0.0017
3931.00,0.0018
3930.00,0.0018
3929.00,0.0018
3928.00,0.0018
3927.00,0.0018
3926.00,0.0018
3925.00,0.0019
3924.00,0.0019
3923.00,0.0018
3922.00,0.0018
3921.00,0.0018
3920.00,0.0018
3919.00,0.0018
3918.00,0.0017
3917.00,0.0017
3916.00,0.0017
3915.00,0.0017
3914.00,0.0017
3913.00,0.0017
3912.00,0.0017
3911.00,0.0018
3910.00,0.0018
3909.00,0.0018
3908.00,0.0018
3907.00,0.0018
3906.00,0.0018
3905.00,0.0017
3904.00,0.0016
3903.00,0.0016
3902.00,0.0015
3901.00,0.0016
3900.00,0.0016
3899.00,0.0016
3898.00,0.0017
3897.00,0.0017
3896.00,0.0017
3895.00,0.0016
3894.00,0.0016
3893.00,0.0016
3892.00,0.0016
3891.00,0.0016
3890.00,0.0016
3889.00,0.0016
3888.00,0.0016
3887.00,0.0016
3886.00,0.0017
3885.00,0.0017
3884.00,0.0017
3883.00,0.0016
3882.00,0.0016
3881.00,0.0016
3880.00,0.0016
3879.00,0.0016
3878.00,0.0016
3877.00,0.0016
3876.00,0.0016
3875.00,0.0017
3874.00,0.0017
3873.00,0.0017
3872.00,0.0016
3871.00,0.0016
3870.00,0.0015
3869.00,0.0015
3868.00,0.0015
3867.00,0.0014
3866.00,0.0014
3865.00,0.0014
3864.00,0.0015
3863.00,0.0015
3862.00,0.0015
3861.00,0.0015
3860.00,0.0015
3859.00,0.0015
3858.00,0.0016
3857.00,0.0016
3856.00,0.0016
3855.00,0.0016
3854.00,0.0016
3853.00,0.0015
3852.00,0.0015
3851.00,0.0015
3850.00,0.0015
3849.00,0.0015
3848.00,0.0015
3847.00,0.0015
3846.00,0.0015
3845.00,0.0015
3844.00,0.0015
3843.00,0.0015
3842.00,0.0015
3841.00,0.0015
3840.00,0.0015
3839.00,0.0015
3838.00,0.0015
3837.00,0.0015
3836.00,0.0015
3835.00,0.0015
3834.00,0.0015
3833.00,0.0015
3832.00,0.0015
3831.00,0.0015
3830.00,0.0016
3829.00,0.0016
3828.00,0.0015
3827.00,0.0015
3826.00,0.0015
3825.00,0.0014
3824.00,0.0014
3823.00,0.0014
3822.00,0.0014
3821.00,0.0015
3820.00,0.0015
3819.00,0.0015
3818.00,0.0015
3817.00,0.0014
3816.00,0.0015
3815.00,0.0016
3814.00,0.0016
3813.00,0.0015
3812.00,0.0015
3811.00,0.0015
3810.00,0.0016
3809.00,0.0016
3808.00,0.0016
3807.00,0.0016
3806.00,0.0016
3805.00,0.0015
3804.00,0.0015
3803.00,0.0015
3802.00,0.0015
3801.00,0.0016
3800.00,0.0016
3799.00,0.0016
3798.00,0.0015
3797.00,0.0015
3796.00,0.0015
3795.00,0.0015
3794.00,0.0015
3793.00,0.0015
3792.00,0.0016
3791.00,0.0016
3790.00,0.0017
3789.00,0.0017
3788.00,0.0017
3787.00,0.0017
3786.00,0.0017
3785.00,0.0017
3784.00,0.0017
3783.00,0.0017
3782.00,0.0017
3781.00,0.0017
3780.00,0.0017
3779.00,0.0017
3778.00,0.0017
3777.00,0.0017
3776.00,0.0017
3775.00,0.0017
3774.00,0.0017
3773.00,0.0017
3772.00,0.0016
3771.00,0.0016
3770.00,0.0016
3769.00,0.0016
3768.00,0.0016
3767.00,0.0016
3766.00,0.0017
3765.00,0.0017
3764.00,0.0017
3763.00,0.0017
3762.00,0.0016
3761.00,0.0016
3760.00,0.0016
3759.00,0.0016
3758.00,0.0016
3757.00,0.0016
3756.00,0.0016
3755.00,0.0016
3754.00,0.0015
3753.00,0.0014
3752.00,0.0014
3751.00,0.0014
3750.00,0.0014
3749.00,0.0015
3748.00,0.0015
3747.00,0.0015
3746.00,0.0014
3745.00,0.0014
3744.00,0.0014
3743.00,0.0015
3742.00,0.0014
3741.00,0.0013
3740.00,0.0013
3739.00,0.0013
3738.00,0.0013
3737.00,0.0013
3736.00,0.0013
3735.00,0.0013
3734.00,0.0013
3733.00,0.0013
3732.00,0.0013
3731.00,0.0014
3730.00,0.0014
3729.00,0.0015
3728.00,0.0014
3727.00,0.0014
3726.00,0.0014
3725.00,0.0015
3724.00,0.0014
3723.00,0.0014
3722.00,0.0014
3721.00,0.0014
3720.00,0.0013
3719.00,0.0013
3718.00,0.0014
3717.00,0.0014
3716.00,0.0014
3715.00,0.0015
3714.00,0.0015
3713.00,0.0015
3712.00,0.0015
3711.00,0.0015
3710.00,0.0014
3709.00,0.0014
3708.00,0.0014
3707.00,0.0014
3706.00,0.0014
3705.00,0.0015
3704.00,0.0015
3703.00,0.0015
3702.00,0.0015
3701.00,0.0015
3700.00,0.0015
3699.00,0.0014
3698.00,0.0014
3697.00,0.0014
3696.00,0.0014
3695.00,0.0014
3694.00,0.0014
3693.00,0.0014
3692.00,0.0014
3691.00,0.0013
3690.00,0.0012
3689.00,0.0012
3688.00,0.0012
3687.00,0.0012
3686.00,0.0012
3685.00,0.0012
3684.00,0.0012
3683.00,0.0011
3682.00,0.0010
3681.00,0.0010
3680.00,0.0009
3679.00,0.0009
3678.00,0.0008
3677.00,0.0007
3676.00,0.0006
3675.00,0.0006
3674.00,0.0005
3673.00,0.0004
3672.00,0.0003
3671.00,0.0003
3670.00,0.0003
3669.00,0.0003
3668.00,0.0003
3667.00,0.0002
3666.00,0.0002
3665.00,0.0002
3664.00,0.0002
3663.00,0.0002
3662.00,0.0002
3661.00,0.0001
3660.00,0.0001
3659.00,0.0001
3658.00,0.0001
3657.00,0.0001
3656.00,0.0001
3655.00,0.0002
3654.00,0.0002
3653.00,0.0001
3652.00,0.0001
3651.00,0.0001
3650.00,0.0001
3649.00,0.0002
3648.00,0.0003
3647.00,0.0003
3646.00,0.0004
3645.00,0.0004
3644.00,0.0004
3643.00,0.0005
3642.00,0.0006
3641.00,0.0006
3640.00,0.0007
3639.00,0.0007
3638.00,0.0007
3637.00,0.0007
3636.00,0.0008
3635.00,0.0010
3634.00,0.0011
3633.00,0.0013
3632.00,0.0013
3631.00,0.0014
3630.00,0.0014
3629.00,0.0014
3628.00,0.0015
3627.00,0.0015
3626.00,0.0015
3625.00,0.0015
3624.00,0.0016
3623.00,0.0016
3622.00,0.0016
3621.00,0.0016
3620.00,0.0016
3619.00,0.0017
3618.00,0.0017
3617.00,0.0018
3616.00,0.0018
3615.00,0.0019
3614.00,0.0019
3613.00,0.0020
3612.00,0.0020
3611.00,0.0020
3610.00,0.0020
3609.00,0.0021
3608.00,0.0022
3607.00,0.0023
3606.00,0.0023
3605.00,0.0023
3604.00,0.0024
3603.00,0.0024
3602.00,0.0024
3601.00,0.0024
3600.00,0.0024
3599.00,0.0025
3598.00,0.0025
3597.00,0.0026
3596.00,0.0026
3595.00,0.0027
3594.00,0.0027
3593.00,0.0027
3592.00,0.0027
3591.00,0.0027
3590.00,0.0027
3589.00,0.0027
3588.00,0.0027
3587.00,0.0027
3586.00,0.0028
3585.00,0.0028
3584.00,0.0029
3583.00,0.0030
3582.00,0.0030
3581.00,0.0031
3580.00,0.0031
3579.00,0.0031
3578.00,0.0031
3577.00,0.0031
3576.00,0.0031
3575.00,0.0031
3574.00,0.0032
3573.00,0.0032
3572.00,0.0033
3571.00,0.0033
3570.00,0.0034
3569.00,0.0034
3568.00,0.0035
3567.00,0.0035
3566.00,0.0035
3565.00,0.0035
3564.00,0.0035
3563.00,0.0035
3562.00,0.0035
3561.00,0.0035
3560.00,0.0036
3559.00,0.0036
3558.00,0.0036
3557.00,0.0036
3556.00,0.0037
3555.00,0.0037
3554.00,0.0037
3553.00,0.0037
3552.00,0.0037
3551.00,0.0038
3550.00,0.0038
3549.00,0.0038
3548.00,0.0039
3547.00,0.0039
3546.00,0.0039
3545.00,0.0039
3544.00,0.0039
3543.00,0.0039
3542.00,0.0039
3541.00,0.0039
3540.00,0.0039
3539.00,0.0039
3538.00,0.0040
3537.00,0.0040
3536.00,0.0040
3535.00,0.0040
3534.00,0.0040
3533.00,0.0041
3532.00,0.0041
3531.00,0.0041
3530.00,0.0042
3529.00,0.0042
3528.00,0.0042
3527.00,0.0042
3526.00,0.0042
3525.00,0.0042
3524.00,0.0042
3523.00,0.0042
3522.00,0.0043
3521.00,0.0043
3520.00,0.0043
3519.00,0.0043
3518.00,0.0043
3517.00,0.0043
3516.00,0.0043
3515.00,0.0043
3514.00,0.0043
3513.00,0.0043
3512.00,0.0043
3511.00,0.0044
3510.00,0.0044
3509.00,0.0044
3508.00,0.0044
3507.00,0.0044
3506.00,0.0044
3505.00,0.0044
3504.00,0.0044
3503.00,0.0045
3502.00,0.0045
3501.00,0.0045
3500.00,0.0044
3499.00,0.0044
3498.00,0.0044
3497.00,0.0045
3496.00,0.0045
3495.00,0.0045
3494.00,0.0046
3493.00,0.0046
3492.00,0.0047
3491.00,0.0047
3490.00,0.0048
3489.00,0.0048
3488.00,0.0048
3487.00,0.0048
3486.00,0.0048
3485.00,0.0047
3484.00,0.0047
3483.00,0.0047
3482.00,0.0047
3481.00,0.0046
3480.00,0.0047
3479.00,0.0047
3478.00,0.0048
3477.00,0.0049
3476.00,0.0049
3475.00,0.0049
3474.00,0.0049
3473.00,0.0049
3472.00,0.0049
3471.00,0.0049
3470.00,0.0049
3469.00,0.0049
3468.00,0.0049
3467.00,0.0049
3466.00,0.0050
3465.00,0.0050
3464.00,0.0050
3463.00,0.0051
3462.00,0.0051
3461.00,0.0052
3460.00,0.0052
3459.00,0.0052
3458.00,0.0052
3457.00,0.0052
3456.00,0.0052
3455.00,0.0052
3454.00,0.0053
3453.00,0.0053
3452.00,0.0053
3451.00,0.0053
3450.00,0.0053
3449.00,0.0053
3448.00,0.0053
3447.00,0.0054
3446.00,0.0054
3445.00,0.0054
3444.00,0.0054
3443.00,0.0054
3442.00,0.0054
3441.00,0.0055
3440.00,0.0055
3439.00,0.0056
3438.00,0.0056
3437.00,0.0056
3436.00,0.0057
3435.00,0.0057
3434.00,0.0057
3433.00,0.0057
3432.00,0.0057
3431.00,0.0057
3430.00,0.0057
3429.00,0.0058
3428.00,0.0058
3427.00,0.0058
3426.00,0.0058
3425.00,0.0058
3424.00,0.0058
3423.00,0.0058
3422.00,0.0058
3421.00,0.0058
3420.00,0.0059
3419.00,0.0059
3418.00,0.0059
3417.00,0.0059
3416.00,0.0060
3415.00,0.0060
3414.00,0.0060
3413.00,0.0060
3412.00,0.0060
3411.00,0.0060
3410.00,0.0060
3409.00,0.0060
3408.00,0.0061
3407.00,0.0061
3406.00,0.0061
3405.00,0.0061
3404.00,0.0061
3403.00,0.0061
3402.00,0.0061
3401.00,0.0061
3400.00,0.0061
3399.00,0.0061
3398.00,0.0061
3397.00,0.0061
3396.00,0.0062
3395.00,0.0062
3394.00,0.0062
3393.00,0.0063
3392.00,0.0063
3391.00,0.0062
3390.00,0.0062
3389.00,0.0061
3388.00,0.0061
3387.00,0.0062
3386.00,0.0062
3385.00,0.0063
3384.00,0.0063
3383.00,0.0063
3382.00,0.0063
3381.00,0.0063
3380.00,0.0063
3379.00,0.0063
3378.00,0.0062
3377.00,0.0062
3376.00,0.0062
3375.00,0.0062
3374.00,0.0062
3373.00,0.0062
3372.00,0.0062
3371.00,0.0063
3370.00,0.0063
3369.00,0.0063
3368.00,0.0063
3367.00,0.0063
3366.00,0.0063
3365.00,0.0063
3364.00,0.0063
3363.00,0.0063
3362.00,0.0063
3361.00,0.0064
3360.00,0.0064
3359.00,0.0064
3358.00,0.0065
3357.00,0.0065
3356.00,0.0065
3355.00,0.0064
3354.00,0.0064
3353.00,0.0064
3352.00,0.0064
3351.00,0.0065
3350.00,0.0065
3349.00,0.0065
3348.00,0.0065
3347.00,0.0066
3346.00,0.0066
3345.00,0.0065
3344.00,0.0065
3343.00,0.0064
3342.00,0.0064
3341.00,0.0064
3340.00,0.0064
3339.00,0.0064
3338.00,0.0064
3337.00,0.0065
3336.00,0.0065
3335.00,0.0065
3334.00,0.0065
3333.00,0.0065
3332.00,0.0065
3331.00,0.0065
3330.00,0.0065
3329.00,0.0065
3328.00,0.0064
3327.00,0.0064
3326.00,0.0064
3325.00,0.0064
3324.00,0.0064
3323.00,0.0064
3322.00,0.0064
3321.00,0.0064
3320.00,0.0064
3319.00,0.0064
3318.00,0.0064
3317.00,0.0064
3316.00,0.0064
3315.00,0.0063
3314.00,0.0063
3313.00,0.0063
3312.00,0.0063
3311.00,0.0062
3310.00,0.0062
3309.00,0.0063
3308.00,0.0063
3307.00,0.0063
3306.00,0.0063
3305.00,0.0062
3304.00,0.0062
3303.00,0.0062
3302.00,0.0063
3301.00,0.0063
3300.00,0.0064
3299.00,0.0064
3298.00,0.0064
3297.00,0.0063
3296.00,0.0063
3295.00,0.0062
3294.00,0.0062
3293.00,0.0062
3292.00,0.0063
3291.00,0.0063
3290.00,0.0063
3289.00,0.0063
3288.00,0.0063
3287.00,0.0062
3286.00,0.0062
3285.00,0.0062
3284.00,0.0062
3283.00,0.0062
3282.00,0.0062
3281.00,0.0062
3280.00,0.0062
3279.00,0.0062
3278.00,0.0061
3277.00,0.0061
3276.00,0.0061
3275.00,0.0061
3274.00,0.0060
3273.00,0.0060
3272.00,0.0060
3271.00,0.0060
3270.00,0.0060
3269.00,0.0060
3268.00,0.0060
3267.00,0.0060
3266.00,0.0059
3265.00,0.0059
3264.00,0.0059
3263.00,0.0059
3262.00,0.0058
3261.00,0.0058
3260.00,0.0058
3259.00,0.0058
3258.00,0.0058
3257.00,0.0058
3256.00,0.0057
3255.00,0.0056
3254.00,0.0056
3253.00,0.0056
3252.00,0.0055
3251.00,0.0055
3250.00,0.0055
3249.00,0.0056
3248.00,0.0056
3247.00,0.0056
3246.00,0.0056
3245.00,0.0056
3244.00,0.0056
3243.00,0.0056
3242.00,0.0055
3241.00,0.0055
3240.00,0.0055
3239.00,0.0055
3238.00,0.0055
3237.00,0.0055
3236.00,0.0055
3235.00,0.0054
3234.00,0.0054
3233.00,0.0055
3232.00,0.0055
3231.00,0.0055
3230.00,0.0055
3229.00,0.0055
3228.00,0.0055
3227.00,0.0055
3226.00,0.0055
3225.00,0.0055
3224.00,0.0055
3223.00,0.0055
3222.00,0.0055
3221.00,0.0055
3220.00,0.0055
3219.00,0.0056
3218.00,0.0056
3217.00,0.0056
3216.00,0.0056
3215.00,0.0056
3214.00,0.0056
3213.00,0.0056
3212.00,0.0056
3211.00,0.0056
3210.00,0.0056
3209.00,0.0056
3208.00,0.0056
3207.00,0.0056
3206.00,0.0056
3205.00,0.0056
3204.00,0.0056
3203.00,0.0056
3202.00,0.0056
3201.00,0.0056
3200.00,0.0055
3199.00,0.0055
3198.00,0.0055
3197.00,0.0056
3196.00,0.0056
3195.00,0.0056
3194.00,0.0056
3193.00,0.0056
3192.00,0.0055
3191.00,0.0055
3190.00,0.0055
3189.00,0.0054
3188.00,0.0055
3187.00,0.0054
3186.00,0.0054
3185.00,0.0053
3184.00,0.0053
3183.00,0.0053
3182.00,0.0053
3181.00,0.0053
3180.00,0.0053
3179.00,0.0053
3178.00,0.0053
3177.00,0.0053
3176.00,0.0053
3175.00,0.0052
3174.00,0.0052
3173.00,0.0052
3172.00,0.0052
3171.00,0.0052
3170.00,0.0052
3169.00,0.0052
3168.00,0.0052
3167.00,0.0052
3166.00,0.0052
3165.00,0.0052
3164.00,0.0052
3163.00,0.0052
3162.00,0.0051
3161.00,0.0051
3160.00,0.0051
3159.00,0.0051
3158.00,0.0051
3157.00,0.0051
3156.00,0.0051
3155.00,0.0050
3154.00,0.0050
3153.00,0.0049
3152.00,0.0049
3151.00,0.0049
3150.00,0.0049
3149.00,0.0050
3148.00,0.0051
3147.00,0.0051
3146.00,0.0051
3145.00,0.0051
3144.00,0.0050
3143.00,0.0050
3142.00,0.0049
3141.00,0.0049
3140.00,0.0048
3139.00,0.0048
3138.00,0.0048
3137.00,0.0048
3136.00,0.0048
3135.00,0.0048
3134.00,0.0048
3133.00,0.0047
3132.00,0.0047
3131.00,0.0046
3130.00,0.0046
3129.00,0.0046
3128.00,0.0046
3127.00,0.0045
3126.00,0.0045
3125.00,0.0044
3124.00,0.0044
3123.00,0.0044
3122.00,0.0044
3121.00,0.0044
3120.00,0.0044
3119.00,0.0044
3118.00,0.0044
3117.00,0.0043
3116.00,0.0043
3115.00,0.0043
3114.00,0.0043
3113.00,0.0043
3112.00,0.0043
3111.00,0.0043
3110.00,0.0043
3109.00,0.0043
3108.00,0.0043
3107.00,0.0043
3106.00,0.0043
3105.00,0.0043
3104.00,0.0043
3103.00,0.0043
3102.00,0.0042
3101.00,0.0042
3100.00,0.0042
3099.00,0.0042
3098.00,0.0043
3097.00,0.0043
3096.00,0.0043
3095.00,0.0044
3094.00,0.0043
3093.00,0.0043
3092.00,0.0043
3091.00,0.0043
3090.00,0.0043
3089.00,0.0043
3088.00,0.0043
3087.00,0.0042
3086.00,0.0042
3085.00,0.0042
3084.00,0.0042
3083.00,0.0042
3082.00,0.0042
3081.00,0.0042
3080.00,0.0043
3079.00,0.0043
3078.00,0.0043
3077.00,0.0043
3076.00,0.0044
3075.00,0.0044
3074.00,0.0044
3073.00,0.0044
3072.00,0.0044
3071.00,0.0044
3070.00,0.0044
3069.00,0.0044
3068.00,0.0044
3067.00,0.0044
3066.00,0.0045
3065.00,0.0045
3064.00,0.0046
3063.00,0.0046
3062.00,0.0046
3061.00,0.0046
3060.00,0.0046
3059.00,0.0046
3058.00,0.0046
3057.00,0.0046
3056.00,0.0046
3055.00,0.0046
3054.00,0.0046
3053.00,0.0046
3052.00,0.0046
3051.00,0.0046
3050.00,0.0047
3049.00,0.0047
3048.00,0.0047
3047.00,0.0047
3046.00,0.0047
3045.00,0.0047
3044.00,0.0047
3043.00,0.0048
3042.00,0.0048
3041.00,0.0048
3040.00,0.0048
3039.00,0.0048
3038.00,0.0049
3037.00,0.0049
3036.00,0.0049
3035.00,0.0050
3034.00,0.0050
3033.00,0.0050
3032.00,0.0050
3031.00,0.0050
3030.00,0.0050
3029.00,0.0051
3028.00,0.0051
3027.00,0.0052
3026.00,0.0052
3025.00,0.0052
3024.00,0.0052
3023.00,0.0052
3022.00,0.0053
3021.00,0.0053
3020.00,0.0053
3019.00,0.0053
3018.00,0.0053
3017.00,0.0053
3016.00,0.0052
3015.00,0.0051
3014.00,0.0050
3013.00,0.0049
3012.00,0.0048
3011.00,0.0046
3010.00,0.0045
3009.00,0.0043
3008.00,0.0042
3007.00,0.0040
3006.00,0.0037
3005.00,0.0035
3004.00,0.0033
3003.00,0.0031
3002.00,0.0029
3001.00,0.0027
3000.00,0.0026
2999.00,0.0024
2998.00,0.0024
2997.00,0.0024
2996.00,0.0025
2995.00,0.0026
2994.00,0.0028
2993.00,0.0031
2992.00,0.0034
2991.00,0.0038
2990.00,0.0042
2989.00,0.0047
2988.00,0.0052
2987.00,0.0057
2986.00,0.0059
2985.00,0.0059
2984.00,0.0057
2983.00,0.0058
2982.00,0.0065
2981.00,0.0080
2980.00,0.0102
2979.00,0.0130
2978.00,0.0160
2977.00,0.0192
2976.00,0.0226
2975.00,0.0261
2974.00,0.0299
2973.00,0.0341
2972.00,0.0390
2971.00,0.0446
2970.00,0.0511
2969.00,0.0582
2968.00,0.0657
2967.00,0.0735
2966.00,0.0813
2965.00,0.0891
2964.00,0.0966
2963.00,0.1034
2962.00,0.1095
2961.00,0.1148
2960.00,0.1194
2959.00,0.1238
2958.00,0.1284
2957.00,0.1336
2956.00,0.1397
2955.00,0.1470
2954.00,0.1552
2953.00,0.1639
2952.00,0.1722
2951.00,0.1791
2950.00,0.1835
2949.00,0.1843
2948.00,0.1809
2947.00,0.1735
2946.00,0.1629
2945.00,0.1505
2944.00,0.1378
2943.00,0.1263
2942.00,0.1169
2941.00,0.1099
2940.00,0.1056
2939.00,0.1037
2938.00,0.1040
2937.00,0.1062
2936.00,0.1102
2935.00,0.1158
2934.00,0.1228
2933.00,0.1311
2932.00,0.1407
2931.00,0.1513
2930.00,0.1628
2929.00,0.1747
2928.00,0.1868
2927.00,0.1989
2926.00,0.2108
2925.00,0.2225
2924.00,0.2341
2923.00,0.2458
2922.00,0.2577
2921.00,0.2693
2920.00,0.2801
2919.00,0.2890
2918.00,0.2947
2917.00,0.2959
2916.00,0.2922
2915.00,0.2839
2914.00,0.2722
2913.00,0.2585
2912.00,0.2444
2911.00,0.2310
2910.00,0.2188
2909.00,0.2077
2908.00,0.1977
2907.00,0.1885
2906.00,0.1798
2905.00,0.1714
2904.00,0.1634
2903.00,0.1556
2902.00,0.1481
2901.00,0.1409
2900.00,0.1342
2899.00,0.1278
2898.00,0.1220
2897.00,0.1167
2896.00,0.1121
2895.00,0.1082
2894.00,0.1049
2893.00,0.1024
2892.00,0.1005
2891.00,0.0993
2890.00,0.0987
2889.00,0.0986
2888.00,0.0990
2887.00,0.0998
2886.00,0.1009
2885.00,0.1024
2884.00,0.1044
2883.00,0.1070
2882.00,0.1102
2881.00,0.1139
2880.00,0.1177
2879.00,0.1211
2878.00,0.1236
2877.00,0.1250
2876.00,0.1252
2875.00,0.1247
2874.00,0.1240
2873.00,0.1236
2872.00,0.1240
2871.00,0.1252
2870.00,0.1271
2869.00,0.1293
2868.00,0.1310
2867.00,0.1313
2866.00,0.1293
2865.00,0.1247
2864.00,0.1175
2863.00,0.1085
2862.00,0.0989
2861.00,0.0898
2860.00,0.0819
2859.00,0.0756
2858.00,0.0711
2857.00,0.0681
2856.00,0.0666
2855.00,0.0663
2854.00,0.0672
2853.00,0.0690
2852.00,0.0714
2851.00,0.0740
2850.00,0.0765
2849.00,0.0786
2848.00,0.0803
2847.00,0.0822
2846.00,0.0846
2845.00,0.0880
2844.00,0.0924
2843.00,0.0978
2842.00,0.1037
2841.00,0.1096
2840.00,0.1146
2839.00,0.1180
2838.00,0.1188
2837.00,0.1165
2836.00,0.1110
2835.00,0.1028
2834.00,0.0928
2833.00,0.0821
2832.00,0.0719
2831.00,0.0627
2830.00,0.0549
2829.00,0.0485
2828.00,0.0434
2827.00,0.0392
2826.00,0.0359
2825.00,0.0331
2824.00,0.0308
2823.00,0.0289
2822.00,0.0273
2821.00,0.0259
2820.00,0.0247
2819.00,0.0236
2818.00,0.0227
2817.00,0.0219
2816.00,0.0212
2815.00,0.0206
2814.00,0.0200
2813.00,0.0195
2812.00,0.0189
2811.00,0.0184
2810.00,0.0178
2809.00,0.0172
2808.00,0.0166
2807.00,0.0160
2806.00,0.0153
2805.00,0.0147
2804.00,0.0141
2803.00,0.0135
2802.00,0.0129
2801.00,0.0124
2800.00,0.0120
2799.00,0.0117
2798.00,0.0115
2797.00,0.0113
2796.00,0.0110
2795.00,0.0108
2794.00,0.0105
2793.00,0.0103
2792.00,0.0100
2791.00,0.0097
2790.00,0.0094
2789.00,0.0091
2788.00,0.0088
2787.00,0.0086
2786.00,0.0084
2785.00,0.0082
2784.00,0.0080
2783.00,0.0078
2782.00,0.0077
2781.00,0.0075
2780.00,0.0073
2779.00,0.0072
2778.00,0.0070
2777.00,0.0069
2776.00,0.0068
2775.00,0.0067
2774.00,0.0066
2773.00,0.0065
2772.00,0.0064
2771.00,0.0064
2770.00,0.0064
2769.00,0.0064
2768.00,0.0063
2767.00,0.0063
2766.00,0.0063
2765.00,0.0062
2764.00,0.0062
2763.00,0.0062
2762.00,0.0062
2761.00,0.0061
2760.00,0.0061
2759.00,0.0061
2758.00,0.0061
2757.00,0.0060
2756.00,0.0060
2755.00,0.0060
2754.00,0.0060
2753.00,0.0061
2752.00,0.0061
2751.00,0.0061
2750.00,0.0060
2749.00,0.0060
2748.00,0.0060
2747.00,0.0060
2746.00,0.0061
2745.00,0.0061
2744.00,0.0062
2743.00,0.0063
2742.00,0.0064
2741.00,0.0065
2740.00,0.0066
2739.00,0.0068
2738.00,0.0069
2737.00,0.0071
2736.00,0.0072
2735.00,0.0074
2734.00,0.0076
2733.00,0.0078
2732.00,0.0080
2731.00,0.0082
2730.00,0.0084
2729.00,0.0086
2728.00,0.0089
2727.00,0.0092
2726.00,0.0095
2725.00,0.0097
2724.00,0.0098
2723.00,0.0099
2722.00,0.0098
2721.00,0.0096
2720.00,0.0093
2719.00,0.0090
2718.00,0.0086
2717.00,0.0083
2716.00,0.0080
2715.00,0.0077
2714.00,0.0075
2713.00,0.0072
2712.00,0.0070
2711.00,0.0068
2710.00,0.0066
2709.00,0.0065
2708.00,0.0063
2707.00,0.0062
2706.00,0.0060
2705.00,0.0058
2704.00,0.0057
2703.00,0.0056
2702.00,0.0056
2701.00,0.0055
2700.00,0.0055
2699.00,0.0054
2698.00,0.0054
2697.00,0.0053
2696.00,0.0053
2695.00,0.0053
2694.00,0.0052
2693.00,0.0052
2692.00,0.0052
2691.00,0.0053
2690.00,0.0053
2689.00,0.0053
2688.00,0.0052
2687.00,0.0052
2686.00,0.0052
2685.00,0.0052
2684.00,0.0053
2683.00,0.0053
2682.00,0.0053
2681.00,0.0053
2680.00,0.0053
2679.00,0.0054
2678.00,0.0054
2677.00,0.0054
2676.00,0.0054
2675.00,0.0054
2674.00,0.0054
2673.00,0.0053
2672.00,0.0053
2671.00,0.0053
2670.00,0.0053
2669.00,0.0053
2668.00,0.0053
2667.00,0.0053
2666.00,0.0053
2665.00,0.0054
2664.00,0.0054
2663.00,0.0055
2662.00,0.0055
2661.00,0.0055
2660.00,0.0055
2659.00,0.0055
2658.00,0.0055
2657.00,0.0055
2656.00,0.0055
2655.00,0.0055
2654.00,0.0054
2653.00,0.0053
2652.00,0.0052
2651.00,0.0052
2650.00,0.0051
2649.00,0.0051
2648.00,0.0051
2647.00,0.0051
2646.00,0.0050
2645.00,0.0049
2644.00,0.0049
2643.00,0.0049
2642.00,0.0048
2641.00,0.0047
2640.00,0.0047
2639.00,0.0046
2638.00,0.0046
2637.00,0.0046
2636.00,0.0047
2635.00,0.0047
2634.00,0.0048
2633.00,0.0048
2632.00,0.0048
2631.00,0.0048
2630.00,0.0048
2629.00,0.0048
2628.00,0.0048
2627.00,0.0048
2626.00,0.0049
2625.00,0.0049
2624.00,0.0049
2623.00,0.0049
2622.00,0.0049
2621.00,0.0049
2620.00,0.0050
2619.00,0.0050
2618.00,0.0049
2617.00,0.0049
2616.00,0.0049
2615.00,0.0049
2614.00,0.0049
2613.00,0.0049
2612.00,0.0049
2611.00,0.0048
2610.00,0.0047
2609.00,0.0046
2608.00,0.0046
2607.00,0.0045
2606.00,0.0045
2605.00,0.0044
2604.00,0.0043
2603.00,0.0043
2602.00,0.0042
2601.00,0.0042
2600.00,0.0042
2599.00,0.0041
2598.00,0.0041
2597.00,0.0042
2596.00,0.0042
2595.00,0.0043
2594.00,0.0043
2593.00,0.0043
2592.00,0.0043
2591.00,0.0043
2590.00,0.0044
2589.00,0.0045
2588.00,0.0047
2587.00,0.0048
2586.00,0.0049
2585.00,0.0049
2584.00,0.0049
2583.00,0.0050
2582.00,0.0050
2581.00,0.0050
2580.00,0.0049
2579.00,0.0049
2578.00,0.0047
2577.00,0.0046
2576.00,0.0045
2575.00,0.0043
2574.00,0.0042
2573.00,0.0041
2572.00,0.0040
2571.00,0.0039
2570.00,0.0038
2569.00,0.0038
2568.00,0.0038
2567.00,0.0037
2566.00,0.0037
2565.00,0.0036
2564.00,0.0035
2563.00,0.0035
2562.00,0.0034
2561.00,0.0033
2560.00,0.0033
2559.00,0.0033
2558.00,0.0032
2557.00,0.0033
2556.00,0.0032
2555.00,0.0032
2554.00,0.0032
2553.00,0.0032
2552.00,0.0032
2551.00,0.0031
2550.00,0.0031
2549.00,0.0030
2548.00,0.0029
2547.00,0.0029
2546.00,0.0028
2545.00,0.0028
2544.00,0.0028
2543.00,0.0028
2542.00,0.0028
2541.00,0.0028
2540.00,0.0028
2539.00,0.0027
2538.00,0.0027
2537.00,0.0027
2536.00,0.0026
2535.00,0.0026
2534.00,0.0026
2533.00,0.0025
2532.00,0.0025
2531.00,0.0024
2530.00,0.0024
2529.00,0.0024
2528.00,0.0024
2527.00,0.0024
2526.00,0.0024
2525.00,0.0023
2524.00,0.0023
2523.00,0.0023
2522.00,0.0023
2521.00,0.0023
2520.00,0.0024
2519.00,0.0024
2518.00,0.0023
2517.00,0.0023
2516.00,0.0022
2515.00,0.0022
2514.00,0.0022
2513.00,0.0021
2512.00,0.0021
2511.00,0.0021
2510.00,0.0020
2509.00,0.0019
2508.00,0.0019
2507.00,0.0019
2506.00,0.0019
2505.00,0.0020
2504.00,0.0021
2503.00,0.0021
2502.00,0.0021
2501.00,0.0021
2500.00,0.0021
2499.00,0.0021
2498.00,0.0020
2497.00,0.0020
2496.00,0.0020
2495.00,0.0020
2494.00,0.0021
2493.00,0.0020
2492.00,0.0020
2491.00,0.0019
2490.00,0.0019
2489.00,0.0020
2488.00,0.0020
2487.00,0.0021
2486.00,0.0021
2485.00,0.0021
2484.00,0.0021
2483.00,0.0020
2482.00,0.0020
2481.00,0.0020
2480.00,0.0020
2479.00,0.0019
2478.00,0.0019
2477.00,0.0019
2476.00,0.0019
2475.00,0.0019
2474.00,0.0019
2473.00,0.0019
2472.00,0.0019
2471.00,0.0019
2470.00,0.0019
2469.00,0.0020
2468.00,0.0021
2467.00,0.0021
2466.00,0.0021
2465.00,0.0020
2464.00,0.0020
2463.00,0.0020
2462.00,0.0020
2461.00,0.0021
2460.00,0.0021
2459.00,0.0022
2458.00,0.0022
2457.00,0.0022
2456.00,0.0021
2455.00,0.0021
2454.00,0.0021
2453.00,0.0021
2452.00,0.0022
2451.00,0.0022
2450.00,0.0022
2449.00,0.0022
2448.00,0.0021
2447.00,0.0021
2446.00,0.0020
2445.00,0.0019
2444.00,0.0019
2443.00,0.0020
2442.00,0.0020
2441.00,0.0020
2440.00,0.0021
2439.00,0.0021
2438.00,0.0021
2437.00,0.0022
2436.00,0.0022
2435.00,0.0022
2434.00,0.0022
2433.00,0.0022
2432.00,0.0022
2431.00,0.0022
2430.00,0.0022
2429.00,0.0022
2428.00,0.0021
2427.00,0.0021
2426.00,0.0021
2425.00,0.0021
2424.00,0.0021
2423.00,0.0022
2422.00,0.0022
2421.00,0.0022
2420.00,0.0022
2419.00,0.0021
2418.00,0.0020
2417.00,0.0020
2416.00,0.0019
2415.00,0.0020
2414.00,0.0020
2413.00,0.0020
2412.00,0.0021
2411.00,0.0021
2410.00,0.0022
2409.00,0.0021
2408.00,0.0021
2407.00,0.0020
2406.00,0.0019
2405.00,0.0019
2404.00,0.0019
2403.00,0.0018
2402.00,0.0018
2401.00,0.0018
2400.00,0.0018
2399.00,0.0018
2398.00,0.0019
2397.00,0.0019
2396.00,0.0019
2395.00,0.0018
2394.00,0.0018
2393.00,0.0018
2392.00,0.0017
2391.00,0.0017
2390.00,0.0017
2389.00,0.0017
2388.00,0.0017
2387.00,0.0016
2386.00,0.0015
2385.00,0.0015
2384.00,0.0015
2383.00,0.0014
2382.00,0.0014
2381.00,0.0013
2380.00,0.0013
2379.00,0.0013
2378.00,0.0013
2377.00,0.0013
2376.00,0.0014
2375.00,0.0014
2374.00,0.0014
2373.00,0.0014
2372.00,0.0014
2371.00,0.0014
2370.00,0.0013
2369.00,0.0013
2368.00,0.0012
2367.00,0.0012
2366.00,0.0012
2365.00,0.0013
2364.00,0.0013
2363.00,0.0014
2362.00,0.0015
2361.00,0.0015
2360.00,0.0014
2359.00,0.0013
2358.00,0.0013
2357.00,0.0013
2356.00,0.0013
2355.00,0.0014
2354.00,0.0014
2353.00,0.0014
2352.00,0.0013
2351.00,0.0013
2350.00,0.0013
2349.00,0.0014
2348.00,0.0015
2347.00,0.0015
2346.00,0.0015
2345.00,0.0015
2344.00,0.0015
2343.00,0.0016
2342.00,0.0016
2341.00,0.0017
2340.00,0.0017
2339.00,0.0016
2338.00,0.0016
2337.00,0.0015
2336.00,0.0016
2335.00,0.0016
2334.00,0.0017
2333.00,0.0017
2332.00,0.0016
2331.00,0.0015
2330.00,0.0015
2329.00,0.0016
2328.00,0.0018
2327.00,0.0021
2326.00,0.0025
2325.00,0.0029
2324.00,0.0031
2323.00,0.0031
2322.00,0.0030
2321.00,0.0028
2320.00,0.0026
2319.00,0.0025
2318.00,0.0023
2317.00,0.0022
2316.00,0.0022
2315.00,0.0021
2314.00,0.0020
2313.00,0.0019
2312.00,0.0018
2311.00,0.0017
2310.00,0.0017
2309.00,0.0017
2308.00,0.0018
2307.00,0.0018
2306.00,0.0019
2305.00,0.0018
2304.00,0.0018
2303.00,0.0018
2302.00,0.0018
2301.00,0.0018
2300.00,0.0018
2299.00,0.0019
2298.00,0.0019
2297.00,0.0020
2296.00,0.0021
2295.00,0.0021
2294.00,0.0021
2293.00,0.0022
2292.00,0.0024
2291.00,0.0025
2290.00,0.0026
2289.00,0.0027
2288.00,0.0027
2287.00,0.0028
2286.00,0.0028
2285.00,0.0027
2284.00,0.0027
2283.00,0.0026
2282.00,0.0026
2281.00,0.0026
2280.00,0.0026
2279.00,0.0026
2278.00,0.0025
2277.00,0.0025
2276.00,0.0025
2275.00,0.0025
2274.00,0.0025
2273.00,0.0026
2272.00,0.0025
2271.00,0.0025
2270.00,0.0025
2269.00,0.0025
2268.00,0.0024
2267.00,0.0023
2266.00,0.0023
2265.00,0.0022
2264.00,0.0022
2263.00,0.0021
2262.00,0.0021
2261.00,0.0021
2260.00,0.0022
2259.00,0.0023
2258.00,0.0022
2257.00,0.0021
2256.00,0.0020
2255.00,0.0019
2254.00,0.0018
2253.00,0.0018
2252.00,0.0017
2251.00,0.0016
2250.00,0.0015
2249.00,0.0016
2248.00,0.0017
2247.00,0.0019
2246.00,0.0020
2245.00,0.0020
2244.00,0.0020
2243.00,0.0018
2242.00,0.0018
2241.00,0.0017
2240.00,0.0018
2239.00,0.0019
2238.00,0.0019
2237.00,0.0020
2236.00,0.0021
2235.00,0.0022
2234.00,0.0022
2233.00,0.0021
2232.00,0.0021
2231.00,0.0020
2230.00,0.0019
2229.00,0.0017
2228.00,0.0017
2227.00,0.0017
2226.00,0.0017
2225.00,0.0018
2224.00,0.0018
2223.00,0.0019
2222.00,0.0019
2221.00,0.0020
2220.00,0.0020
2219.00,0.0021
2218.00,0.0021
2217.00,0.0020
2216.00,0.0020
2215.00,0.0020
2214.00,0.0019
2213.00,0.0019
2212.00,0.0019
2211.00,0.0018
2210.00,0.0018
2209.00,0.0017
2208.00,0.0016
2207.00,0.0015
2206.00,0.0014
2205.00,0.0015
2204.00,0.0015
2203.00,0.0015
2202.00,0.0015
2201.00,0.0014
2200.00,0.0014
2199.00,0.0014
2198.00,0.0014
2197.00,0.0015
2196.00,0.0015
2195.00,0.0015
2194.00,0.0015
2193.00,0.0017
2192.00,0.0018
2191.00,0.0018
2190.00,0.0017
2189.00,0.0017
2188.00,0.0019
2187.00,0.0021
2186.00,0.0022
2185.00,0.0021
2184.00,0.0018
2183.00,0.0013
2182.00,0.0008
2181.00,0.0008
2180.00,0.0010
2179.00,0.0014
2178.00,0.0017
2177.00,0.0019
2176.00,0.0019
2175.00,0.0017
2174.00,0.0015
2173.00,0.0014
2172.00,0.0015
2171.00,0.0017
2170.00,0.0020
2169.00,0.0021
2168.00,0.0022
2167.00,0.0021
2166.00,0.0021
2165.00,0.0022
2164.00,0.0024
2163.00,0.0027
2162.00,0.0028
2161.00,0.0024
2160.00,0.0013
2159.00,-0.0001
2158.00,-0.0013
2157.00,-0.0019
2156.00,-0.0020
2155.00,-0.0018
2154.00,-0.0015
2153.00,-0.0012
2152.00,-0.0009
2151.00,-0.0006
2150.00,-0.0004
2149.00,-0.0002
2148.00,-0.0002
2147.00,-0.0005
2146.00,-0.0007
2145.00,-0.0008
2144.00,-0.0007
2143.00,-0.0004
2142.00,-0.0003
2141.00,-0.0003
2140.00,-0.0004
2139.00,-0.0005
2138.00,-0.0005
2137.00,-0.0006
2136.00,-0.0007
2135.00,-0.0009
2134.00,-0.0010
2133.00,-0.0010
2132.00,-0.0010
2131.00,-0.0009
2130.00,-0.0007
2129.00,-0.0004
2128.00,-0.0001
2127.00,0.0001
2126.00,0.0004
2125.00,0.0006
2124.00,0.0008
2123.00,0.0010
2122.00,0.0010
2121.00,0.0010
2120.00,0.0011
2119.00,0.0012
2118.00,0.0013
2117.00,0.0014
2116.00,0.0014
2115.00,0.0013
2114.00,0.0012
2113.00,0.0011
2112.00,0.0011
2111.00,0.0012
2110.00,0.0013
2109.00,0.0015
2108.00,0.0015
2107.00,0.0014
2106.00,0.0013
2105.00,0.0012
2104.00,0.0011
2103.00,0.0010
2102.00,0.0010
2101.00,0.0010
2100.00,0.0011
2099.00,0.0011
2098.00,0.0010
2097.00,0.0008
2096.00,0.0006
2095.00,0.0004
2094.00,0.0004
2093.00,0.0005
2092.00,0.0007
2091.00,0.0008
2090.00,0.0009
2089.00,0.0009
2088.00,0.0010
2087.00,0.0010
2086.00,0.0011
2085.00,0.0011
2084.00,0.0012
2083.00,0.0011
2082.00,0.0011
2081.00,0.0011
2080.00,0.0011
2079.00,0.0012
2078.00,0.0011
2077.00,0.0011
2076.00,0.0010
2075.00,0.0010
2074.00,0.0010
2073.00,0.0010
2072.00,0.0011
2071.00,0.0012
2070.00,0.0012
2069.00,0.0012
2068.00,0.0011
2067.00,0.0009
2066.00,0.0008
2065.00,0.0007
2064.00,0.0007
2063.00,0.0007
2062.00,0.0007
2061.00,0.0008
2060.00,0.0008
2059.00,0.0009
2058.00,0.0009
2057.00,0.0009
2056.00,0.0009
2055.00,0.0009
2054.00,0.0010
2053.00,0.0014
2052.00,0.0019
2051.00,0.0021
2050.00,0.0018
2049.00,0.0013
2048.00,0.0008
2047.00,0.0006
2046.00,0.0006
2045.00,0.0007
2044.00,0.0010
2043.00,0.0013
2042.00,0.0015
2041.00,0.0016
2040.00,0.0015
2039.00,0.0014
2038.00,0.0013
2037.00,0.0012
2036.00,0.0010
2035.00,0.0007
2034.00,0.0003
2033.00,-0.0000
2032.00,-0.0002
2031.00,-0.0003
2030.00,-0.0003
2029.00,-0.0001
2028.00,0.0002
2027.00,0.0003
2026.00,0.0003
2025.00,0.0003
2024.00,0.0002
2023.00,0.0001
2022.00,0.0000
2021.00,0.0001
2020.00,0.0002
2019.00,0.0002
2018.00,0.0001
2017.00,-0.0001
2016.00,-0.0002
2015.00,-0.0003
2014.00,-0.0003
2013.00,-0.0001
2012.00,0.0000
2011.00,-0.0002
2010.00,-0.0006
2009.00,-0.0011
2008.00,-0.0014
2007.00,-0.0016
2006.00,-0.0017
2005.00,-0.0015
2004.00,-0.0011
2003.00,-0.0007
2002.00,-0.0004
2001.00,-0.0001
2000.00,0.0001
1999.00,0.0004
1998.00,0.0006
1997.00,0.0008
1996.00,0.0009
1995.00,0.0009
1994.00,0.0009
1993.00,0.0009
1992.00,0.0008
1991.00,0.0007
1990.00,0.0009
1989.00,0.0012
1988.00,0.0016
1987.00,0.0018
1986.00,0.0017
1985.00,0.0015
1984.00,0.0013
1983.00,0.0012
1982.00,0.0013
1981.00,0.0015
1980.00,0.0016
1979.00,0.0013
1978.00,0.0010
1977.00,0.0007
1976.00,0.0006
1975.00,0.0005
1974.00,0.0005
1973.00,0.0003
1972.00,0.0000
1971.00,-0.0003
1970.00,-0.0005
1969.00,-0.0006
1968.00,-0.0006
1967.00,-0.0005
1966.00,-0.0005
1965.00,-0.0004
1964.00,-0.0004
1963.00,-0.0005
1962.00,-0.0006
1961.00,-0.0006
1960.00,-0.0007
1959.00,-0.0007
1958.00,-0.0006
1957.00,-0.0005
1956.00,-0.0003
1955.00,-0.0002
1954.00,-0.0000
1953.00,0.0001
1952.00,0.0001
1951.00,-0.0001
1950.00,-0.0002
1949.00,-0.0002
1948.00,-0.0002
1947.00,-0.0002
1946.00,-0.0002
1945.00,-0.0002
1944.00,-0.0002
1943.00,-0.0003
1942.00,-0.0004
1941.00,-0.0005
1940.00,-0.0006
1939.00,-0.0006
1938.00,-0.0005
1937.00,-0.0002
1936.00,0.0001
1935.00,0.0003
1934.00,0.0004
1933.00,0.0005
1932.00,0.0005
1931.00,0.0005
1930.00,0.0004
1929.00,0.0003
1928.00,0.0004
1927.00,0.0004
1926.00,0.0005
1925.00,0.0005
1924.00,0.0005
1923.00,0.0004
1922.00,0.0004
1921.00,0.0004
1920.00,0.0005
1919.00,0.0006
1918.00,0.0007
1917.00,0.0007
1916.00,0.0007
1915.00,0.0007
1914.00,0.0007
1913.00,0.0007
1912.00,0.0008
1911.00,0.0008
1910.00,0.0008
1909.00,0.0007
1908.00,0.0007
1907.00,0.0006
1906.00,0.0006
1905.00,0.0006
1904.00,0.0006
1903.00,0.0006
1902.00,0.0006
1901.00,0.0006
1900.00,0.0006
1899.00,0.0007
1898.00,0.0007
1897.00,0.0008
1896.00,0.0009
1895.00,0.0009
1894.00,0.0009
1893.00,0.0009
1892.00,0.0010
1891.00,0.0010
1890.00,0.0010
1889.00,0.0010
1888.00,0.0010
1887.00,0.0009
1886.00,0.0009
1885.00,0.0009
1884.00,0.0009
1883.00,0.0008
1882.00,0.0007
1881.00,0.0007
1880.00,0.0008
1879.00,0.0008
1878.00,0.0007
1877.00,0.0007
1876.00,0.0007
1875.00,0.0008
1874.00,0.0008
1873.00,0.0009
1872.00,0.0009
1871.00,0.0010
1870.00,0.0010
1869.00,0.0011
1868.00,0.0011
1867.00,0.0010
1866.00,0.0009
1865.00,0.0009
1864.00,0.0010
1863.00,0.0010
1862.00,0.0010
1861.00,0.0010
1860.00,0.0009
1859.00,0.0008
1858.00,0.0008
1857.00,0.0008
1856.00,0.0009
1855.00,0.0010
1854.00,0.0010
1853.00,0.0010
1852.00,0.0010
1851.00,0.0010
1850.00,0.0010
1849.00,0.0011
1848.00,0.0011
1847.00,0.0011
1846.00,0.0011
1845.00,0.0010
1844.00,0.0010
1843.00,0.0010
1842.00,0.0010
1841.00,0.0010
1840.00,0.0010
1839.00,0.0011
1838.00,0.0011
1837.00,0.0011
1836.00,0.0012
1835.00,0.0012
1834.00,0.0013
1833.00,0.0014
1832.00,0.0015
1831.00,0.0016
1830.00,0.0017
1829.00,0.0017
1828.00,0.0016
1827.00,0.0015
1826.00,0.0014
1825.00,0.0014
1824.00,0.0014
1823.00,0.0013
1822.00,0.0013
1821.00,0.0013
1820.00,0.0013
1819.00,0.0012
1818.00,0.0011
1817.00,0.0011
1816.00,0.0011
1815.00,0.0012
1814.00,0.0013
1813.00,0.0013
1812.00,0.0014
1811.00,0.0014
1810.00,0.0014
1809.00,0.0014
1808.00,0.0014
1807.00,0.0013
1806.00,0.0013
1805.00,0.0014
1804.00,0.0014
1803.00,0.0015
1802.00,0.0015
1801.00,0.0015
1800.00,0.0015
1799.00,0.0016
1798.00,0.0015
1797.00,0.0015
1796.00,0.0015
1795.00,0.0016
1794.00,0.0016
1793.00,0.0017
1792.00,0.0017
1791.00,0.0017
1790.00,0.0017
1789.00,0.0016
1788.00,0.0016
1787.00,0.0016
1786.00,0.0016
1785.00,0.0016
1784.00,0.0016
1783.00,0.0016
1782.00,0.0016
1781.00,0.0017
1780.00,0.0017
1779.00,0.0016
1778.00,0.0016
1777.00,0.0016
1776.00,0.0016
1775.00,0.0016
1774.00,0.0016
1773.00,0.0017
1772.00,0.0017
1771.00,0.0018
1770.00,0.0019
1769.00,0.0019
1768.00,0.0020
1767.00,0.0020
1766.00,0.0020
1765.00,0.0020
1764.00,0.0020
1763.00,0.0020
1762.00,0.0020
1761.00,0.0021
1760.00,0.0021
1759.00,0.0022
1758.00,0.0022
1757.00,0.0022
1756.00,0.0023
1755.00,0.0024
1754.00,0.0025
1753.00,0.0025
1752.00,0.0026
1751.00,0.0026
1750.00,0.0027
1749.00,0.0029
1748.00,0.0030
1747.00,0.0030
1746.00,0.0031
1745.00,0.0032
1744.00,0.0032
1743.00,0.0033
1742.00,0.0033
1741.00,0.0034
1740.00,0.0034
1739.00,0.0035
1738.00,0.0035
1737.00,0.0035
1736.00,0.0035
1735.00,0.0035
1734.00,0.0034
1733.00,0.0034
1732.00,0.0035
1731.00,0.0036
1730.00,0.0036
1729.00,0.0037
1728.00,0.0036
1727.00,0.0036
1726.00,0.0036
1725.00,0.0035
1724.00,0.0035
1723.00,0.0035
1722.00,0.0035
1721.00,0.0035
1720.00,0.0036
1719.00,0.0037
1718.00,0.0036
1717.00,0.0035
1716.00,0.0036
1715.00,0.0036
1714.00,0.0037
1713.00,0.0037
1712.00,0.0038
1711.00,0.0038
1710.00,0.0039
1709.00,0.0039
1708.00,0.0040
1707.00,0.0041
1706.00,0.0042
1705.00,0.0043
1704.00,0.0044
1703.00,0.0044
1702.00,0.0044
1701.00,0.0044
1700.00,0.0045
1699.00,0.0045
1698.00,0.0045
1697.00,0.0046
1696.00,0.0049
1695.00,0.0050
1694.00,0.0051
1693.00,0.0051
1692.00,0.0052
1691.00,0.0053
1690.00,0.0054
1689.00,0.0055
1688.00,0.0056
1687.00,0.0057
1686.00,0.0058
1685.00,0.0060
1684.00,0.0062
1683.00,0.0063
1682.00,0.0063
1681.00,0.0064
1680.00,0.0064
1679.00,0.0065
1678.00,0.0065
1677.00,0.0066
1676.00,0.0067
1675.00,0.0068
1674.00,0.0069
1673.00,0.0070
1672.00,0.0072
1671.00,0.0073
1670.00,0.0074
1669.00,0.0075
1668.00,0.0076
1667.00,0.0077
1666.00,0.0077
1665.00,0.0078
1664.00,0.0078
1663.00,0.0079
1662.00,0.0079
1661.00,0.0080
1660.00,0.0081
1659.00,0.0083
1658.00,0.0084
1657.00,0.0086
1656.00,0.0087
1655.00,0.0089
1654.00,0.0090
1653.00,0.0091
1652.00,0.0091
1651.00,0.0091
1650.00,0.0090
1649.00,0.0091
1648.00,0.0091
1647.00,0.0091
1646.00,0.0092
1645.00,0.0093
1644.00,0.0093
1643.00,0.0093
1642.00,0.0093
1641.00,0.0093
1640.00,0.0094
1639.00,0.0094
1638.00,0.0094
1637.00,0.0095
1636.00,0.0096
1635.00,0.0098
1634.00,0.0099
1633.00,0.0099
1632.00,0.0099
1631.00,0.0099
1630.00,0.0099
1629.00,0.0100
1628.00,0.0100
1627.00,0.0101
1626.00,0.0100
1625.00,0.0100
1624.00,0.0100
1623.00,0.0099
1622.00,0.0098
1621.00,0.0097
1620.00,0.0097
1619.00,0.0096
1618.00,0.0096
1617.00,0.0095
1616.00,0.0094
1615.00,0.0093
1614.00,0.0092
1613.00,0.0092
1612.00,0.0092
1611.00,0.0091
1610.00,0.0090
1609.00,0.0090
1608.00,0.0089
1607.00,0.0089
1606.00,0.0089
1605.00,0.0090
1604.00,0.0091
1603.00,0.0091
1602.00,0.0092
1601.00,0.0092
1600.00,0.0093
1599.00,0.0093
1598.00,0.0094
1597.00,0.0095
1596.00,0.0097
1595.00,0.0098
1594.00,0.0100
1593.00,0.0103
1592.00,0.0107
1591.00,0.0111
1590.00,0.0115
1589.00,0.0121
1588.00,0.0128
1587.00,0.0136
1586.00,0.0145
1585.00,0.0155
1584.00,0.0168
1583.00,0.0182
1582.00,0.0197
1581.00,0.0212
1580.00,0.0225
1579.00,0.0234
1578.00,0.0240
1577.00,0.0242
1576.00,0.0239
1575.00,0.0231
1574.00,0.0223
1573.00,0.0214
1572.00,0.0205
1571.00,0.0193
1570.00,0.0179
1569.00,0.0166
1568.00,0.0156
1567.00,0.0149
1566.00,0.0143
1565.00,0.0138
1564.00,0.0135
1563.00,0.0132
1562.00,0.0131
1561.00,0.0132
1560.00,0.0132
1559.00,0.0130
1558.00,0.0129
1557.00,0.0130
1556.00,0.0130
1555.00,0.0132
1554.00,0.0136
1553.00,0.0140
1552.00,0.0145
1551.00,0.0152
1550.00,0.0160
1549.00,0.0170
1548.00,0.0180
1547.00,0.0191
1546.00,0.0205
1545.00,0.0222
1544.00,0.0239
1543.00,0.0253
1542.00,0.0264
1541.00,0.0270
1540.00,0.0266
1539.00,0.0254
1538.00,0.0239
1537.00,0.0226
1536.00,0.0213
1535.00,0.0197
1534.00,0.0179
1533.00,0.0161
1532.00,0.0148
1531.00,0.0139
1530.00,0.0132
1529.00,0.0127
1528.00,0.0123
1527.00,0.0118
1526.00,0.0114
1525.00,0.0111
1524.00,0.0110
1523.00,0.0108
1522.00,0.0106
1521.00,0.0105
1520.00,0.0105
1519.00,0.0105
1518.00,0.0105
1517.00,0.0104
1516.00,0.0104
1515.00,0.0103
1514.00,0.0102
1513.00,0.0102
1512.00,0.0102
1511.00,0.0103
1510.00,0.0103
1509.00,0.0104
1508.00,0.0104
1507.00,0.0103
1506.00,0.0102
1505.00,0.0103
1504.00,0.0104
1503.00,0.0105
1502.00,0.0107
1501.00,0.0109
1500.00,0.0112
1499.00,0.0114
1498.00,0.0115
1497.00,0.0118
1496.00,0.0122
1495.00,0.0125
1494.00,0.0127
1493.00,0.0131
1492.00,0.0135
1491.00,0.0141
1490.00,0.0147
1489.00,0.0155
1488.00,0.0164
1487.00,0.0173
1486.00,0.0183
1485.00,0.0196
1484.00,0.0210
1483.00,0.0227
1482.00,0.0246
1481.00,0.0267
1480.00,0.0289
1479.00,0.0309
1478.00,0.0330
1477.00,0.0353
1476.00,0.0378
1475.00,0.0403
1474.00,0.0437
1473.00,0.0486
1472.00,0.0546
1471.00,0.0605
1470.00,0.0662
1469.00,0.0724
1468.00,0.0792
1467.00,0.0867
1466.00,0.0954
1465.00,0.1047
1464.00,0.1128
1463.00,0.1185
1462.00,0.1223
1461.00,0.1249
1460.00,0.1266
1459.00,0.1277
1458.00,0.1284
1457.00,0.1287
1456.00,0.1283
1455.00,0.1273
1454.00,0.1259
1453.00,0.1238
1452.00,0.1208
1451.00,0.1166
1450.00,0.1109
1449.00,0.1032
1448.00,0.0938
1447.00,0.0840
1446.00,0.0753
1445.00,0.0681
1444.00,0.0621
1443.00,0.0574
1442.00,0.0540
1441.00,0.0519
1440.00,0.0508
1439.00,0.0509
1438.00,0.0518
1437.00,0.0528
1436.00,0.0526
1435.00,0.0502
1434.00,0.0463
1433.00,0.0414
1432.00,0.0364
1431.00,0.0319
1430.00,0.0285
1429.00,0.0260
1428.00,0.0244
1427.00,0.0235
1426.00,0.0230
1425.00,0.0226
1424.00,0.0223
1423.00,0.0221
1422.00,0.0219
1421.00,0.0216
1420.00,0.0212
1419.00,0.0207
1418.00,0.0202
1417.00,0.0196
1416.00,0.0191
1415.00,0.0186
1414.00,0.0182
1413.00,0.0178
1412.00,0.0173
1411.00,0.0169
1410.00,0.0166
1409.00,0.0162
1408.00,0.0157
1407.00,0.0154
1406.00,0.0151
1405.00,0.0147
1404.00,0.0142
1403.00,0.0139
1402.00,0.0136
1401.00,0.0134
1400.00,0.0130
1399.00,0.0128
1398.00,0.0127
1397.00,0.0126
1396.00,0.0125
1395.00,0.0127
1394.00,0.0130
1393.00,0.0134
1392.00,0.0139
1391.00,0.0148
1390.00,0.0160
1389.00,0.0176
1388.00,0.0201
1387.00,0.0238
1386.00,0.0287
1385.00,0.0349
1384.00,0.0432
1383.00,0.0545
1382.00,0.0697
1381.00,0.0896
1380.00,0.1149
1379.00,0.1447
1378.00,0.1751
1377.00,0.1996
1376.00,0.2109
1375.00,0.2041
1374.00,0.1807
1373.00,0.1501
1372.00,0.1208
1371.00,0.0962
1370.00,0.0766
1369.00,0.0618
1368.00,0.0517
1367.00,0.0455
1366.00,0.0422
1365.00,0.0410
1364.00,0.0414
1363.00,0.0432
1362.00,0.0458
1361.00,0.0486
1360.00,0.0507
1359.00,0.0514
1358.00,0.0502
1357.00,0.0473
1356.00,0.0431
1355.00,0.0384
1354.00,0.0339
1353.00,0.0300
1352.00,0.0269
1351.00,0.0244
1350.00,0.0223
1349.00,0.0207
1348.00,0.0194
1347.00,0.0183
1346.00,0.0175
1345.00,0.0168
1344.00,0.0162
1343.00,0.0159
1342.00,0.0156
1341.00,0.0154
1340.00,0.0152
1339.00,0.0150
1338.00,0.0149
1337.00,0.0149
1336.00,0.0150
1335.00,0.0152
1334.00,0.0155
1333.00,0.0159
1332.00,0.0164
1331.00,0.0168
1330.00,0.0169
1329.00,0.0168
1328.00,0.0164
1327.00,0.0158
1326.00,0.0151
1325.00,0.0144
1324.00,0.0138
1323.00,0.0134
1322.00,0.0130
1321.00,0.0127
1320.00,0.0125
1319.00,0.0123
1318.00,0.0120
1317.00,0.0117
1316.00,0.0114
1315.00,0.0112
1314.00,0.0111
1313.00,0.0111
1312.00,0.0111
1311.00,0.0113
1310.00,0.0116
1309.00,0.0121
1308.00,0.0127
1307.00,0.0135
1306.00,0.0143
1305.00,0.0150
1304.00,0.0153
1303.00,0.0154
1302.00,0.0153
1301.00,0.0153
1300.00,0.0153
1299.00,0.0155
1298.00,0.0156
1297.00,0.0157
1296.00,0.0155
1295.00,0.0152
1294.00,0.0148
1293.00,0.0142
1292.00,0.0137
1291.00,0.0131
1290.00,0.0126
1289.00,0.0121
1288.00,0.0116
1287.00,0.0112
1286.00,0.0109
1285.00,0.0106
1284.00,0.0104
1283.00,0.0102
1282.00,0.0100
1281.00,0.0098
1280.00,0.0097
1279.00,0.0096
1278.00,0.0095
1277.00,0.0094
1276.00,0.0092
1275.00,0.0090
1274.00,0.0088
1273.00,0.0087
1272.00,0.0085
1271.00,0.0084
1270.00,0.0084
1269.00,0.0085
1268.00,0.0085
1267.00,0.0086
1266.00,0.0087
1265.00,0.0088
1264.00,0.0090
1263.00,0.0092
1262.00,0.0095
1261.00,0.0098
1260.00,0.0102
1259.00,0.0106
1258.00,0.0111
1257.00,0.0114
1256.00,0.0114
1255.00,0.0112
1254.00,0.0108
1253.00,0.0102
1252.00,0.0096
1251.00,0.0092
1250.00,0.0090
1249.00,0.0089
1248.00,0.0089
1247.00,0.0090
1246.00,0.0091
1245.00,0.0091
1244.00,0.0091
1243.00,0.0091
1242.00,0.0092
1241.00,0.0092
1240.00,0.0093
1239.00,0.0094
1238.00,0.0096
1237.00,0.0098
1236.00,0.0100
1235.00,0.0102
1234.00,0.0104
1233.00,0.0105
1232.00,0.0107
1231.00,0.0109
1230.00,0.0112
1229.00,0.0115
1228.00,0.0117
1227.00,0.0120
1226.00,0.0124
1225.00,0.0128
1224.00,0.0132
1223.00,0.0136
1222.00,0.0140
1221.00,0.0144
1220.00,0.0147
1219.00,0.0148
1218.00,0.0148
1217.00,0.0147
1216.00,0.0144
1215.00,0.0142
1214.00,0.0138
1213.00,0.0135
1212.00,0.0132
1211.00,0.0130
1210.00,0.0127
1209.00,0.0125
1208.00,0.0123
1207.00,0.0122
1206.00,0.0121
1205.00,0.0121
1204.00,0.0120
1203.00,0.0120
1202.00,0.0120
1201.00,0.0119
1200.00,0.0119
1199.00,0.0119
1198.00,0.0119
1197.00,0.0119
1196.00,0.0119
1195.00,0.0119
1194.00,0.0118
1193.00,0.0118
1192.00,0.0117
1191.00,0.0116
1190.00,0.0116
1189.00,0.0115
1188.00,0.0113
1187.00,0.0112
1186.00,0.0110
1185.00,0.0109
1184.00,0.0108
1183.00,0.0107
1182.00,0.0107
1181.00,0.0107
1180.00,0.0107
1179.00,0.0109
1178.00,0.0112
1177.00,0.0116
1176.00,0.0122
1175.00,0.0130
1174.00,0.0141
1173.00,0.0157
1172.00,0.0176
1171.00,0.0197
1170.00,0.0217
1169.00,0.0233
1168.00,0.0242
1167.00,0.0245
1166.00,0.0240
1165.00,0.0231
1164.00,0.0220
1163.00,0.0208
1162.00,0.0198
1161.00,0.0189
1160.00,0.0181
1159.00,0.0174
1158.00,0.0170
1157.00,0.0166
1156.00,0.0164
1155.00,0.0163
1154.00,0.0162
1153.00,0.0161
1152.00,0.0157
1151.00,0.0152
1150.00,0.0145
1149.00,0.0137
1148.00,0.0130
1147.00,0.0123
1146.00,0.0117
1145.00,0.0110
1144.00,0.0104
1143.00,0.0099
1142.00,0.0096
1141.00,0.0092
1140.00,0.0089
1139.00,0.0086
1138.00,0.0084
1137.00,0.0083
1136.00,0.0083
1135.00,0.0083
1134.00,0.0085
1133.00,0.0086
1132.00,0.0087
1131.00,0.0090
1130.00,0.0093
1129.00,0.0096
1128.00,0.0097
1127.00,0.0099
1126.00,0.0099
1125.00,0.0100
1124.00,0.0100
1123.00,0.0099
1122.00,0.0099
1121.00,0.0099
1120.00,0.0099
1119.00,0.0100
1118.00,0.0102
1117.00,0.0105
1116.00,0.0108
1115.00,0.0111
1114.00,0.0115
1113.00,0.0118
1112.00,0.0120
1111.00,0.0123
1110.00,0.0127
1109.00,0.0131
1108.00,0.0135
1107.00,0.0141
1106.00,0.0147
1105.00,0.0154
1104.00,0.0159
1103.00,0.0161
1102.00,0.0161
1101.00,0.0157
1100.00,0.0151
1099.00,0.0143
1098.00,0.0135
1097.00,0.0126
1096.00,0.0119
1095.00,0.0112
1094.00,0.0106
1093.00,0.0101
1092.00,0.0096
1091.00,0.0092
1090.00,0.0089
1089.00,0.0086
1088.00,0.0083
1087.00,0.0081
1086.00,0.0080
1085.00,0.0079
1084.00,0.0078
1083.00,0.0077
1082.00,0.0076
1081.00,0.0074
1080.00,0.0073
1079.00,0.0071
1078.00,0.0069
1077.00,0.0068
1076.00,0.0066
1075.00,0.0065
1074.00,0.0065
1073.00,0.0065
1072.00,0.0064
1071.00,0.0064
1070.00,0.0064
1069.00,0.0066
1068.00,0.0068
1067.00,0.0069
1066.00,0.0071
1065.00,0.0072
1064.00,0.0073
1063.00,0.0073
1062.00,0.0074
1061.00,0.0075
1060.00,0.0077
1059.00,0.0080
1058.00,0.0082
1057.00,0.0084
1056.00,0.0085
1055.00,0.0087
1054.00,0.0089
1053.00,0.0092
1052.00,0.0095
1051.00,0.0098
1050.00,0.0102
1049.00,0.0106
1048.00,0.0111
1047.00,0.0116
1046.00,0.0120
1045.00,0.0124
1044.00,0.0127
1043.00,0.0129
1042.00,0.0130
1041.00,0.0131
1040.00,0.0131
1039.00,0.0132
1038.00,0.0132
1037.00,0.0133
1036.00,0.0133
1035.00,0.0133
1034.00,0.0131
1033.00,0.0129
1032.00,0.0125
1031.00,0.0122
1030.00,0.0120
1029.00,0.0117
1028.00,0.0115
1027.00,0.0114
1026.00,0.0113
1025.00,0.0113
1024.00,0.0113
1023.00,0.0113
1022.00,0.0113
1021.00,0.0114
1020.00,0.0115
1019.00,0.0117
1018.00,0.0119
1017.00,0.0123
1016.00,0.0128
1015.00,0.0134
1014.00,0.0139
1013.00,0.0144
1012.00,0.0147
1011.00,0.0150
1010.00,0.0151
1009.00,0.0151
1008.00,0.0150
1007.00,0.0151
1006.00,0.0152
1005.00,0.0157
1004.00,0.0165
1003.00,0.0179
1002.00,0.0197
1001.00,0.0220
1000.00,0.0243
999.00,0.0262
998.00,0.0270
997.00,0.0264
996.00,0.0245
995.00,0.0219
994.00,0.0192
993.00,0.0168
992.00,0.0149
991.00,0.0136
990.00,0.0126
989.00,0.0119
988.00,0.0114
987.00,0.0111
986.00,0.0109
985.00,0.0109
984.00,0.0112
983.00,0.0116
982.00,0.0125
981.00,0.0137
980.00,0.0154
979.00,0.0176
978.00,0.0204
977.00,0.0235
976.00,0.0267
975.00,0.0294
974.00,0.0311
973.00,0.0312
972.00,0.0294
971.00,0.0262
970.00,0.0223
969.00,0.0184
968.00,0.0152
967.00,0.0126
966.00,0.0107
965.00,0.0094
964.00,0.0084
963.00,0.0077
962.00,0.0072
961.00,0.0067
960.00,0.0062
959.00,0.0057
958.00,0.0053
957.00,0.0050
956.00,0.0048
955.00,0.0046
954.00,0.0044
953.00,0.0044
952.00,0.0044
951.00,0.0044
950.00,0.0044
949.00,0.0045
948.00,0.0046
947.00,0.0049
946.00,0.0052
945.00,0.0056
944.00,0.0062
943.00,0.0067
942.00,0.0072
941.00,0.0075
940.00,0.0076
939.00,0.0075
938.00,0.0072
937.00,0.0069
936.00,0.0067
935.00,0.0065
934.00,0.0063
933.00,0.0062
932.00,0.0062
931.00,0.0061
930.00,0.0061
929.00,0.0061
928.00,0.0062
927.00,0.0063
926.00,0.0066
925.00,0.0067
924.00,0.0068
923.00,0.0069
922.00,0.0070
921.00,0.0072
920.00,0.0075
919.00,0.0078
918.00,0.0080
917.00,0.0082
916.00,0.0083
915.00,0.0084
914.00,0.0083
913.00,0.0083
912.00,0.0084
911.00,0.0085
910.00,0.0087
909.00,0.0089
908.00,0.0091
907.00,0.0095
906.00,0.0102
905.00,0.0114
904.00,0.0131
903.00,0.0152
902.00,0.0176
901.00,0.0197
900.00,0.0213
899.00,0.0218
898.00,0.0210
897.00,0.0193
896.00,0.0170
895.00,0.0147
894.00,0.0129
893.00,0.0115
892.00,0.0106
891.00,0.0101
890.00,0.0096
889.00,0.0092
888.00,0.0089
887.00,0.0086
886.00,0.0084
885.00,0.0084
884.00,0.0084
883.00,0.0085
882.00,0.0086
881.00,0.0087
880.00,0.0088
879.00,0.0089
878.00,0.0090
877.00,0.0090
876.00,0.0090
875.00,0.0090
874.00,0.0089
873.00,0.0087
872.00,0.0086
871.00,0.0086
870.00,0.0087
869.00,0.0087
868.00,0.0087
867.00,0.0087
866.00,0.0087
865.00,0.0087
864.00,0.0088
863.00,0.0088
862.00,0.0088
861.00,0.0089
860.00,0.0091
859.00,0.0094
858.00,0.0096
857.00,0.0097
856.00,0.0096
855.00,0.0096
854.00,0.0098
853.00,0.0100
852.00,0.0104
851.00,0.0108
850.00,0.0113
849.00,0.0118
848.00,0.0125
847.00,0.0134
846.00,0.0148
845.00,0.0169
844.00,0.0195
843.00,0.0223
842.00,0.0243
841.00,0.0246
840.00,0.0231
839.00,0.0205
838.00,0.0179
837.00,0.0158
836.00,0.0144
835.00,0.0135
834.00,0.0129
833.00,0.0125
832.00,0.0123
831.00,0.0120
830.00,0.0118
829.00,0.0114
828.00,0.0111
827.00,0.0110
826.00,0.0111
825.00,0.0112
824.00,0.0112
823.00,0.0112
822.00,0.0111
821.00,0.0113
820.00,0.0115
819.00,0.0120
818.00,0.0125
817.00,0.0132
816.00,0.0141
815.00,0.0154
814.00,0.0170
813.00,0.0188
812.00,0.0208
811.00,0.0226
810.00,0.0239
809.00,0.0245
808.00,0.0243
807.00,0.0234
806.00,0.0219
805.00,0.0201
804.00,0.0183
803.00,0.0167
802.00,0.0155
801.00,0.0146
800.00,0.0140
799.00,0.0133
798.00,0.0128
797.00,0.0122
796.00,0.0116
795.00,0.0112
794.00,0.0107
793.00,0.0104
792.00,0.0101
791.00,0.0099
790.00,0.0098
789.00,0.0098
788.00,0.0098
787.00,0.0097
786.00,0.0096
785.00,0.0093
784.00,0.0090
783.00,0.0088
782.00,0.0087
781.00,0.0086
780.00,0.0084
779.00,0.0083
778.00,0.0083
777.00,0.0083
776.00,0.0084
775.00,0.0085
774.00,0.0086
773.00,0.0089
772.00,0.0092
771.00,0.0096
770.00,0.0099
769.00,0.0102
768.00,0.0103
767.00,0.0104
766.00,0.0104
765.00,0.0103
764.00,0.0101
763.00,0.0097
762.00,0.0093
761.00,0.0089
760.00,0.0086
759.00,0.0084
758.00,0.0082
757.00,0.0081
756.00,0.0080
755.00,0.0080
754.00,0.0079
753.00,0.0079
752.00,0.0078
751.00,0.0077
750.00,0.0076
749.00,0.0076
748.00,0.0076
747.00,0.0077
746.00,0.0080
745.00,0.0082
744.00,0.0084
743.00,0.0085
742.00,0.0086
741.00,0.0088
740.00,0.0090
739.00,0.0091
738.00,0.0091
737.00,0.0091
736.00,0.0091
735.00,0.0092
734.00,0.0094
733.00,0.0095
732.00,0.0096
731.00,0.0097
730.00,0.0098
729.00,0.0099
728.00,0.0099
727.00,0.0101
726.00,0.0103
725.00,0.0104
724.00,0.0105
723.00,0.0104
722.00,0.0104
721.00,0.0102
720.00,0.0100
719.00,0.0098
718.00,0.0096
717.00,0.0094
716.00,0.0091
715.00,0.0090
714.00,0.0089
713.00,0.0088
712.00,0.0088
711.00,0.0088
710.00,0.0088
709.00,0.0087
708.00,0.0087
707.00,0.0087
706.00,0.0088
705.00,0.0088
704.00,0.0087
703.00,0.0087
702.00,0.0088
701.00,0.0088
700.00,0.0089
699.00,0.0090
698.00,0.0092
697.00,0.0094
696.00,0.0095
695.00,0.0095
694.00,0.0094
693.00,0.0095
692.00,0.0096
691.00,0.0098
690.00,0.0099
689.00,0.0098
688.00,0.0098
687.00,0.0097
686.00,0.0095
685.00,0.0095
684.00,0.0095
683.00,0.0096
682.00,0.0097
681.00,0.0097
680.00,0.0096
679.00,0.0095
678.00,0.0096
677.00,0.0098
676.00,0.0100
675.00,0.0103
674.00,0.0104
673.00,0.0104
672.00,0.0104
671.00,0.0104
670.00,0.0106
669.00,0.0107
668.00,0.0106
667.00,0.0103
666.00,0.0099
665.00,0.0096
664.00,0.0095
663.00,0.0094
662.00,0.0093
661.00,0.0092
660.00,0.0091
659.00,0.0091
658.00,0.0089
657.00,0.0087
656.00,0.0084
655.00,0.0082
654.00,0.0081
653.00,0.0080
652.00,0.0080
651.00,0.0079
650.00,0.0078
649.00,0.0077
648.00,0.0076
647.00,0.0077
646.00,0.0080
645.00,0.0084
644.00,0.0087
643.00,0.0089
642.00,0.0090
641.00,0.0091
640.00,0.0092
639.00,0.0093
638.00,0.0093
637.00,0.0092
636.00,0.0090
635.00,0.0089
634.00,0.0089
633.00,0.0090
632.00,0.0091
631.00,0.0092
630.00,0.0093
629.00,0.0092
628.00,0.0090
627.00,0.0089
626.00,0.0090
625.00,0.0093
624.00,0.0094
623.00,0.0095
622.00,0.0094
621.00,0.0094
620.00,0.0093
619.00,0.0092
618.00,0.0092
617.00,0.0092
616.00,0.0094
615.00,0.0096
614.00,0.0099
613.00,0.0101
612.00,0.0102
611.00,0.0101
610.00,0.0100
609.00,0.0100
608.00,0.0100
607.00,0.0100
606.00,0.0099
605.00,0.0097
604.00,0.0096
603.00,0.0096
602.00,0.0095
601.00,0.0095
600.00,0.0095
599.00,0.0097
598.00,0.0097
597.00,0.0097
596.00,0.0095
595.00,0.0094
594.00,0.0093
593.00,0.0094
592.00,0.0095
591.00,0.0097
590.00,0.0098
589.00,0.0100
588.00,0.0101
587.00,0.0102
586.00,0.0101
585.00,0.0101
584.00,0.0100
583.00,0.0101
582.00,0.0102
581.00,0.0100
580.00,0.0097
579.00,0.0094
578.00,0.0094
577.00,0.0097
576.00,0.0099
575.00,0.0100
574.00,0.0099
573.00,0.0098
572.00,0.0097
571.00,0.0097
570.00,0.0096
569.00,0.0094
568.00,0.0092
567.00,0.0091
566.00,0.0091
565.00,0.0091
564.00,0.0092
563.00,0.0095
562.00,0.0098
561.00,0.0103
560.00,0.0107
559.00,0.0109
558.00,0.0109
557.00,0.0105
556.00,0.0098
555.00,0.0091
554.00,0.0086
553.00,0.0085
552.00,0.0086
551.00,0.0088
550.00,0.0090
549.00,0.0090
548.00,0.0089
547.00,0.0088
546.00,0.0088
545.00,0.0090
544.00,0.0091
543.00,0.0091
542.00,0.0093
541.00,0.0096
540.00,0.0101
539.00,0.0105
538.00,0.0107
537.00,0.0108
536.00,0.0110
535.00,0.0111
534.00,0.0112
533.00,0.0111
532.00,0.0112
531.00,0.0114
530.00,0.0119
529.00,0.0122
528.00,0.0121
527.00,0.0117
526.00,0.0110
525.00,0.0105
524.00,0.0104
523.00,0.0106
522.00,0.0108
521.00,0.0108
520.00,0.0107
519.00,0.0108
518.00,0.0111
517.00,0.0112
516.00,0.0107
515.00,0.0098
514.00,0.0093
513.00,0.0094
512.00,0.0100
511.00,0.0105
510.00,0.0108
509.00,0.0106
508.00,0.0103
507.00,0.0100
506.00,0.0097
505.00,0.0093
504.00,0.0090
503.00,0.0087
502.00,0.0087
501.00,0.0089
500.00,0.0094
499.00,0.0099
498.00,0.0102
497.00,0.0102
496.00,0.0101
495.00,0.0100
494.00,0.0097
493.00,0.0093
492.00,0.0089
491.00,0.0084
490.00,0.0080
489.00,0.0078
488.00,0.0078
487.00,0.0083
486.00,0.0091
485.00,0.0096
484.00,0.0095
483.00,0.0088
482.00,0.0077
481.00,0.0068
480.00,0.0064
479.00,0.0068
478.00,0.0079
477.00,0.0092
476.00,0.0103
475.00,0.0112
474.00,0.0120
473.00,0.0127
472.00,0.0127
471.00,0.0123
470.00,0.0117
469.00,0.0114
468.00,0.0113
467.00,0.0114
466.00,0.0116
465.00,0.0122
464.00,0.0133
463.00,0.0148
462.00,0.0162
461.00,0.0165
460.00,0.0161
459.00,0.0157
458.00,0.0159
457.00,0.0166
456.00,0.0169
455.00,0.0163
454.00,0.0151
453.00,0.0135
452.00,0.0119
451.00,0.0108
450.00,0.0104
