Created as New Dataset,Sample 025 By Administrator Date Friday, September 05 2025
cm-1,A
4000.00,0.0010
3999.00,0.0010
3998.00,0.0010
3997.00,0.0010
3996.00,0.0010
3995.00,0.0010
3994.00,0.0010
3993.00,0.0010
3992.00,0.0010
3991.00,0.0010
3990.00,0.0010
3989.00,0.0010
3988.00,0.0009
3987.00,0.0009
3986.00,0.0009
3985.00,0.0009
3984.00,0.0008
3983.00,0.0008
3982.00,0.0008
3981.00,0.0008
3980.00,0.0008
3979.00,0.0008
3978.00,0.0009
3977.00,0.0009
3976.00,0.0009
3975.00,0.0008
3974.00,0.0008
3973.00,0.0007
3972.00,0.0007
3971.00,0.0007
3970.00,0.0007
3969.00,0.0007
3968.00,0.0007
3967.00,0.0007
3966.00,0.0007
3965.00,0.0008
3964.00,0.0008
3963.00,0.0008
3962.00,0.0008
3961.00,0.0008
3960.00,0.0008
3959.00,0.0008
3958.00,0.0007
3957.00,0.0007
3956.00,0.0007
3955.00,0.0007
3954.00,0.0007
3953.00,0.0007
3952.00,0.0008
3951.00,0.0008
3950.00,0.0008
3949.00,0.0008
3948.00,0.0008
3947.00,0.0008
3946.00,0.0008
3945.00,0.0008
3944.00,0.0008
3943.00,0.0007
3942.00,0.0007
3941.00,0.0007
3940.00,0.0007
3939.00,0.0007
3938.00,0.0007
3937.00,0.0008
3936.00,0.0008
3935.00,0.0008
3934.00,0.0008
3933.00,0.0008
3932.00,0.0008
3931.00,0.0008
3930.00,0.0008
3929.00,0.0009
3928.00,0.0009
3927.00,0.0009
3926.00,0.0009
3925.00,0.0008
3924.00,0.0008
3923.00,0.0008
3922.00,0.0008
3921.00,0.0008
3920.00,0.0008
3919.00,0.0008
3918.00,0.0008
3917.00,0.0008
3916.00,0.0008
3915.00,0.0008
3914.00,0.0008
3913.00,0.0008
3912.00,0.0008
3911.00,0.0008
3910.00,0.0008
3909.00,0.0008
3908.00,0.0009
3907.00,0.0009
3906.00,0.0009
3905.00,0.0009
3904.00,0.0008
3903.00,0.0008
3902.00,0.0008
3901.00,0.0009
3900.00,0.0009
3899.00,0.0009
3898.00,0.0009
3897.00,0.0008
3896.00,0.0008
3895.00,0.0008
3894.00,0.0008
3893.00,0.0008
3892.00,0.0008
3891.00,0.0008
3890.00,0.0008
3889.00,0.0009
3888.00,0.0009
3887.00,0.0009
3886.00,0.0008
3885.00,0.0008
3884.00,0.0008
3883.00,0.0008
3882.00,0.0008
3881.00,0.0007
3880.00,0.0007
3879.00,0.0007
3878.00,0.0007
3877.00,0.0008
3876.00,0.0008
3875.00,0.0008
3874.00,0.0008
3873.00,0.0009
3872.00,0.0009
3871.00,0.0009
3870.00,0.0009
3869.00,0.0008
3868.00,0.0008
3867.00,0.0007
3866.00,0.0007
3865.00,0.0007
3864.00,0.0008
3863.00,0.0008
3862.00,0.0008
3861.00,0.0008
3860.00,0.0008
3859.00,0.0007
3858.00,0.0007
3857.00,0.0007
3856.00,0.0007
3855.00,0.0007
3854.00,0.0007
3853.00,0.0008
3852.00,0.0008
3851.00,0.0009
3850.00,0.0009
3849.00,0.0008
3848.00,0.0008
3847.00,0.0007
3846.00,0.0007
3845.00,0.0007
3844.00,0.0007
3843.00,0.0007
3842.00,0.0007
3841.00,0.0007
3840.00,0.0007
3839.00,0.0007
3838.00,0.0007
3837.00,0.0007
3836.00,0.0007
3835.00,0.0007
3834.00,0.0008
3833.00,0.0008
3832.00,0.0008
3831.00,0.0008
3830.00,0.0008
3829.00,0.0008
3828.00,0.0007
3827.00,0.0007
3826.00,0.0007
3825.00,0.0007
3824.00,0.0008
3823.00,0.0009
3822.00,0.0009
3821.00,0.0009
3820.00,0.0009
3819.00,0.0008
3818.00,0.0008
3817.00,0.0007
3816.00,0.0007
3815.00,0.0007
3814.00,0.0007
3813.00,0.0007
3812.00,0.0007
3811.00,0.0007
3810.00,0.0007
3809.00,0.0008
3808.00,0.0008
3807.00,0.0008
3806.00,0.0008
3805.00,0.0008
3804.00,0.0009
3803.00,0.0009
3802.00,0.0009
3801.00,0.0009
3800.00,0.0008
3799.00,0.0008
3798.00,0.0008
3797.00,0.0008
3796.00,0.0007
3795.00,0.0007
3794.00,0.0007
3793.00,0.0007
3792.00,0.0007
3791.00,0.0007
3790.00,0.0007
3789.00,0.0007
3788.00,0.0007
3787.00,0.0007
3786.00,0.0007
3785.00,0.0007
3784.00,0.0007
3783.00,0.0007
3782.00,0.0008
3781.00,0.0008
3780.00,0.0008
3779.00,0.0008
3778.00,0.0008
3777.00,0.0008
3776.00,0.0007
3775.00,0.0007
3774.00,0.0007
3773.00,0.0007
3772.00,0.0007
3771.00,0.0007
3770.00,0.0007
3769.00,0.0007
3768.00,0.0008
3767.00,0.0009
3766.00,0.0009
3765.00,0.0009
3764.00,0.0009
3763.00,0.0008
3762.00,0.0008
3761.00,0.0008
3760.00,0.0007
3759.00,0.0007
3758.00,0.0007
3757.00,0.0007
3756.00,0.0008
3755.00,0.0008
3754.00,0.0008
3753.00,0.0008
3752.00,0.0008
3751.00,0.0009
3750.00,0.0010
3749.00,0.0010
3748.00,0.0010
3747.00,0.0010
3746.00,0.0010
3745.00,0.0009
3744.00,0.0008
3743.00,0.0008
3742.00,0.0007
3741.00,0.0007
3740.00,0.0006
3739.00,0.0006
3738.00,0.0007
3737.00,0.0007
3736.00,0.0007
3735.00,0.0008
3734.00,0.0008
3733.00,0.0008
3732.00,0.0007
3731.00,0.0007
3730.00,0.0007
3729.00,0.0007
3728.00,0.0007
3727.00,0.0007
3726.00,0.0007
3725.00,0.0006
3724.00,0.0006
3723.00,0.0006
3722.00,0.0005
3721.00,0.0005
3720.00,0.0005
3719.00,0.0005
3718.00,0.0005
3717.00,0.0005
3716.00,0.0006
3715.00,0.0006
3714.00,0.0007
3713.00,0.0007
3712.00,0.0007
3711.00,0.0008
3710.00,0.0008
3709.00,0.0008
3708.00,0.0007
3707.00,0.0006
3706.00,0.0006
3705.00,0.0006
3704.00,0.0006
3703.00,0.0006
3702.00,0.0005
3701.00,0.0005
3700.00,0.0005
3699.00,0.0004
3698.00,0.0004
3697.00,0.0004
3696.00,0.0005
3695.00,0.0005
3694.00,0.0005
3693.00,0.0005
3692.00,0.0006
3691.00,0.0006
3690.00,0.0006
3689.00,0.0006
3688.00,0.0006
3687.00,0.0006
3686.00,0.0007
3685.00,0.0007
3684.00,0.0006
3683.00,0.0006
3682.00,0.0006
3681.00,0.0006
3680.00,0.0006
3679.00,0.0006
3678.00,0.0006
3677.00,0.0006
3676.00,0.0006
3675.00,0.0006
3674.00,0.0006
3673.00,0.0006
3672.00,0.0006
3671.00,0.0006
3670.00,0.0005
3669.00,0.0004
3668.00,0.0004
3667.00,0.0004
3666.00,0.0004
3665.00,0.0004
3664.00,0.0004
3663.00,0.0004
3662.00,0.0004
3661.00,0.0004
3660.00,0.0004
3659.00,0.0004
3658.00,0.0004
3657.00,0.0004
3656.00,0.0004
3655.00,0.0004
3654.00,0.0004
3653.00,0.0005
3652.00,0.0005
3651.00,0.0005
3650.00,0.0005
3649.00,0.0005
3648.00,0.0005
3647.00,0.0005
3646.00,0.0004
3645.00,0.0004
3644.00,0.0004
3643.00,0.0004
3642.00,0.0005
3641.00,0.0005
3640.00,0.0005
3639.00,0.0005
3638.00,0.0005
3637.00,0.0005
3636.00,0.0005
3635.00,0.0005
3634.00,0.0005
3633.00,0.0005
3632.00,0.0005
3631.00,0.0006
3630.00,0.0006
3629.00,0.0007
3628.00,0.0007
3627.00,0.0006
3626.00,0.0006
3625.00,0.0006
3624.00,0.0006
3623.00,0.0006
3622.00,0.0005
3621.00,0.0005
3620.00,0.0005
3619.00,0.0005
3618.00,0.0006
3617.00,0.0006
3616.00,0.0006
3615.00,0.0006
3614.00,0.0006
3613.00,0.0006
3612.00,0.0006
3611.00,0.0006
3610.00,0.0007
3609.00,0.0007
3608.00,0.0007
3607.00,0.0007
3606.00,0.0006
3605.00,0.0007
3604.00,0.0007
3603.00,0.0007
3602.00,0.0007
3601.00,0.0007
3600.00,0.0007
3599.00,0.0007
3598.00,0.0007
3597.00,0.0007
3596.00,0.0008
3595.00,0.0008
3594.00,0.0008
3593.00,0.0008
3592.00,0.0008
3591.00,0.0008
3590.00,0.0008
3589.00,0.0007
3588.00,0.0008
3587.00,0.0008
3586.00,0.0008
3585.00,0.0009
3584.00,0.0009
3583.00,0.0009
3582.00,0.0009
3581.00,0.0009
3580.00,0.0008
3579.00,0.0008
3578.00,0.0008
3577.00,0.0008
3576.00,0.0008
3575.00,0.0009
3574.00,0.0009
3573.00,0.0010
3572.00,0.0010
3571.00,0.0010
3570.00,0.0010
3569.00,0.0011
3568.00,0.0011
3567.00,0.0011
3566.00,0.0012
3565.00,0.0012
3564.00,0.0012
3563.00,0.0012
3562.00,0.0011
3561.00,0.0011
3560.00,0.0011
3559.00,0.0011
3558.00,0.0011
3557.00,0.0012
3556.00,0.0012
3555.00,0.0012
3554.00,0.0013
3553.00,0.0013
3552.00,0.0013
3551.00,0.0013
3550.00,0.0013
3549.00,0.0014
3548.00,0.0014
3547.00,0.0014
3546.00,0.0014
3545.00,0.0014
3544.00,0.0014
3543.00,0.0014
3542.00,0.0014
3541.00,0.0014
3540.00,0.0014
3539.00,0.0014
3538.00,0.0014
3537.00,0.0014
3536.00,0.0014
3535.00,0.0014
3534.00,0.0014
3533.00,0.0014
3532.00,0.0015
3531.00,0.0015
3530.00,0.0015
3529.00,0.0015
3528.00,0.0015
3527.00,0.0016
3526.00,0.0016
3525.00,0.0016
3524.00,0.0016
3523.00,0.0016
3522.00,0.0016
3521.00,0.0016
3520.00,0.0016
3519.00,0.0016
3518.00,0.0016
3517.00,0.0016
3516.00,0.0016
3515.00,0.0016
3514.00,0.0016
3513.00,0.0016
3512.00,0.0016
3511.00,0.0016
3510.00,0.0016
3509.00,0.0017
3508.00,0.0017
3507.00,0.0017
3506.00,0.0017
3505.00,0.0018
3504.00,0.0018
3503.00,0.0018
3502.00,0.0018
3501.00,0.0017
3500.00,0.0017
3499.00,0.0017
3498.00,0.0017
3497.00,0.0017
3496.00,0.0017
3495.00,0.0017
3494.00,0.0017
3493.00,0.0017
3492.00,0.0017
3491.00,0.0018
3490.00,0.0018
3489.00,0.0018
3488.00,0.0018
3487.00,0.0018
3486.00,0.0018
3485.00,0.0018
3484.00,0.0018
3483.00,0.0018
3482.00,0.0018
3481.00,0.0018
3480.00,0.0018
3479.00,0.0018
3478.00,0.0019
3477.00,0.0019
3476.00,0.0019
3475.00,0.0020
3474.00,0.0019
3473.00,0.0019
3472.00,0.0019
3471.00,0.0019
3470.00,0.0019
3469.00,0.0019
3468.00,0.0019
3467.00,0.0019
3466.00,0.0020
3465.00,0.0020
3464.00,0.0020
3463.00,0.0020
3462.00,0.0021
3461.00,0.0021
3460.00,0.0021
3459.00,0.0021
3458.00,0.0021
3457.00,0.0021
3456.00,0.0020
3455.00,0.0020
3454.00,0.0020
3453.00,0.0021
3452.00,0.0021
3451.00,0.0021
3450.00,0.0022
3449.00,0.0022
3448.00,0.0022
3447.00,0.0022
3446.00,0.0023
3445.00,0.0023
3444.00,0.0023
3443.00,0.0023
3442.00,0.0023
3441.00,0.0023
3440.00,0.0023
3439.00,0.0023
3438.00,0.0023
3437.00,0.0024
3436.00,0.0024
3435.00,0.0024
3434.00,0.0024
3433.00,0.0024
3432.00,0.0024
3431.00,0.0025
3430.00,0.0025
3429.00,0.0025
3428.00,0.0026
3427.00,0.0026
3426.00,0.0026
3425.00,0.0026
3424.00,0.0025
3423.00,0.0025
3422.00,0.0025
3421.00,0.0025
3420.00,0.0025
3419.00,0.0025
3418.00,0.0025
3417.00,0.0025
3416.00,0.0025
3415.00,0.0025
3414.00,0.0025
3413.00,0.0026
3412.00,0.0026
3411.00,0.0026
3410.00,0.0026
3409.00,0.0026
3408.00,0.0026
3407.00,0.0026
3406.00,0.0026
3405.00,0.0026
3404.00,0.0025
3403.00,0.0026
3402.00,0.0026
3401.00,0.0026
3400.00,0.0026
3399.00,0.0026
3398.00,0.0025
3397.00,0.0026
3396.00,0.0026
3395.00,0.0026
3394.00,0.0026
3393.00,0.0026
3392.00,0.0026
3391.00,0.0026
3390.00,0.0026
3389.00,0.0026
3388.00,0.0026
3387.00,0.0026
3386.00,0.0026
3385.00,0.0026
3384.00,0.0026
3383.00,0.0026
3382.00,0.0026
3381.00,0.0026
3380.00,0.0026
3379.00,0.0026
3378.00,0.0026
3377.00,0.0026
3376.00,0.0026
3375.00,0.0026
3374.00,0.0026
3373.00,0.0026
3372.00,0.0026
3371.00,0.0027
3370.00,0.0027
3369.00,0.0027
3368.00,0.0027
3367.00,0.0026
3366.00,0.0027
3365.00,0.0027
3364.00,0.0027
3363.00,0.0027
3362.00,0.0027
3361.00,0.0027
3360.00,0.0027
3359.00,0.0027
3358.00,0.0027
3357.00,0.0028
3356.00,0.0028
3355.00,0.0028
3354.00,0.0027
3353.00,0.0027
3352.00,0.0027
3351.00,0.0026
3350.00,0.0027
3349.00,0.0027
3348.00,0.0027
3347.00,0.0027
3346.00,0.0027
3345.00,0.0027
3344.00,0.0026
3343.00,0.0026
3342.00,0.0026
3341.00,0.0026
3340.00,0.0026
3339.00,0.0027
3338.00,0.0027
3337.00,0.0027
3336.00,0.0027
3335.00,0.0027
3334.00,0.0027
3333.00,0.0026
3332.00,0.0026
3331.00,0.0026
3330.00,0.0026
3329.00,0.0026
3328.00,0.0026
3327.00,0.0026
3326.00,0.0026
3325.00,0.0026
3324.00,0.0025
3323.00,0.0025
3322.00,0.0025
3321.00,0.0026
3320.00,0.0026
3319.00,0.0026
3318.00,0.0026
3317.00,0.0026
3316.00,0.0026
3315.00,0.0025
3314.00,0.0025
3313.00,0.0025
3312.00,0.0025
3311.00,0.0025
3310.00,0.0025
3309.00,0.0025
3308.00,0.0026
3307.00,0.0026
3306.00,0.0026
3305.00,0.0026
3304.00,0.0026
3303.00,0.0026
3302.00,0.0026
3301.00,0.0026
3300.00,0.0027
3299.00,0.0027
3298.00,0.0027
3297.00,0.0026
3296.00,0.0026
3295.00,0.0025
3294.00,0.0025
3293.00,0.0025
3292.00,0.0026
3291.00,0.0026
3290.00,0.0026
3289.00,0.0026
3288.00,0.0026
3287.00,0.0025
3286.00,0.0025
3285.00,0.0025
3284.00,0.0025
3283.00,0.0025
3282.00,0.0025
3281.00,0.0025
3280.00,0.0025
3279.00,0.0026
3278.00,0.0026
3277.00,0.0026
3276.00,0.0026
3275.00,0.0026
3274.00,0.0026
3273.00,0.0026
3272.00,0.0025
3271.00,0.0025
3270.00,0.0025
3269.00,0.0025
3268.00,0.0025
3267.00,0.0025
3266.00,0.0024
3265.00,0.0024
3264.00,0.0024
3263.00,0.0024
3262.00,0.0024
3261.00,0.0024
3260.00,0.0024
3259.00,0.0024
3258.00,0.0024
3257.00,0.0024
3256.00,0.0024
3255.00,0.0024
3254.00,0.0024
3253.00,0.0024
3252.00,0.0024
3251.00,0.0023
3250.00,0.0023
3249.00,0.0023
3248.00,0.0024
3247.00,0.0024
3246.00,0.0024
3245.00,0.0024
3244.00,0.0024
3243.00,0.0024
3242.00,0.0024
3241.00,0.0024
3240.00,0.0023
3239.00,0.0024
3238.00,0.0024
3237.00,0.0024
3236.00,0.0024
3235.00,0.0024
3234.00,0.0024
3233.00,0.0024
3232.00,0.0024
3231.00,0.0024
3230.00,0.0024
3229.00,0.0024
3228.00,0.0025
3227.00,0.0025
3226.00,0.0026
3225.00,0.0026
3224.00,0.0026
3223.00,0.0025
3222.00,0.0026
3221.00,0.0026
3220.00,0.0027
3219.00,0.0027
3218.00,0.0028
3217.00,0.0028
3216.00,0.0028
3215.00,0.0028
3214.00,0.0029
3213.00,0.0029
3212.00,0.0029
3211.00,0.0029
3210.00,0.0029
3209.00,0.0029
3208.00,0.0029
3207.00,0.0028
3206.00,0.0028
3205.00,0.0028
3204.00,0.0028
3203.00,0.0028
3202.00,0.0028
3201.00,0.0028
3200.00,0.0028
3199.00,0.0029
3198.00,0.0029
3197.00,0.0029
3196.00,0.0029
3195.00,0.0030
3194.00,0.0030
3193.00,0.0029
3192.00,0.0029
3191.00,0.0029
3190.00,0.0029
3189.00,0.0029
3188.00,0.0029
3187.00,0.0029
3186.00,0.0028
3185.00,0.0028
3184.00,0.0027
3183.00,0.0027
3182.00,0.0027
3181.00,0.0027
3180.00,0.0027
3179.00,0.0027
3178.00,0.0027
3177.00,0.0027
3176.00,0.0026
3175.00,0.0026
3174.00,0.0026
3173.00,0.0026
3172.00,0.0026
3171.00,0.0026
3170.00,0.0026
3169.00,0.0026
3168.00,0.0026
3167.00,0.0026
3166.00,0.0026
3165.00,0.0026
3164.00,0.0026
3163.00,0.0026
3162.00,0.0026
3161.00,0.0026
3160.00,0.0026
3159.00,0.0026
3158.00,0.0026
3157.00,0.0026
3156.00,0.0026
3155.00,0.0026
3154.00,0.0026
3153.00,0.0026
3152.00,0.0026
3151.00,0.0026
3150.00,0.0026
3149.00,0.0026
3148.00,0.0027
3147.00,0.0027
3146.00,0.0027
3145.00,0.0027
3144.00,0.0027
3143.00,0.0026
3142.00,0.0026
3141.00,0.0026
3140.00,0.0026
3139.00,0.0025
3138.00,0.0025
3137.00,0.0025
3136.00,0.0025
3135.00,0.0025
3134.00,0.0025
3133.00,0.0024
3132.00,0.0024
3131.00,0.0024
3130.00,0.0024
3129.00,0.0024
3128.00,0.0024
3127.00,0.0023
3126.00,0.0023
3125.00,0.0023
3124.00,0.0022
3123.00,0.0022
3122.00,0.0022
3121.00,0.0022
3120.00,0.0022
3119.00,0.0022
3118.00,0.0022
3117.00,0.0022
3116.00,0.0022
3115.00,0.0022
3114.00,0.0022
3113.00,0.0022
3112.00,0.0022
3111.00,0.0022
3110.00,0.0021
3109.00,0.0021
3108.00,0.0021
3107.00,0.0021
3106.00,0.0022
3105.00,0.0022
3104.00,0.0022
3103.00,0.0022
3102.00,0.0021
3101.00,0.0021
3100.00,0.0021
3099.00,0.0021
3098.00,0.0020
3097.00,0.0020
3096.00,0.0020
3095.00,0.0020
3094.00,0.0020
3093.00,0.0020
3092.00,0.0021
3091.00,0.0021
3090.00,0.0021
3089.00,0.0021
3088.00,0.0021
3087.00,0.0021
3086.00,0.0021
3085.00,0.0021
3084.00,0.0021
3083.00,0.0020
3082.00,0.0020
3081.00,0.0020
3080.00,0.0020
3079.00,0.0021
3078.00,0.0021
3077.00,0.0021
3076.00,0.0022
3075.00,0.0022
3074.00,0.0022
3073.00,0.0023
3072.00,0.0023
3071.00,0.0023
3070.00,0.0023
3069.00,0.0023
3068.00,0.0023
3067.00,0.0023
3066.00,0.0024
3065.00,0.0024
3064.00,0.0024
3063.00,0.0025
3062.00,0.0024
3061.00,0.0024
3060.00,0.0025
3059.00,0.0025
3058.00,0.0025
3057.00,0.0025
3056.00,0.0025
3055.00,0.0025
3054.00,0.0025
3053.00,0.0025
3052.00,0.0025
3051.00,0.0026
3050.00,0.0026
3049.00,0.0026
3048.00,0.0027
3047.00,0.0027
3046.00,0.0027
3045.00,0.0027
3044.00,0.0027
3043.00,0.0027
3042.00,0.0028
3041.00,0.0028
3040.00,0.0028
3039.00,0.0029
3038.00,0.0029
3037.00,0.0030
3036.00,0.0030
3035.00,0.0030
3034.00,0.0030
3033.00,0.0031
3032.00,0.0031
3031.00,0.0031
3030.00,0.0031
3029.00,0.0031
3028.00,0.0032
3027.00,0.0033
3026.00,0.0033
3025.00,0.0034
3024.00,0.0034
3023.00,0.0035
3022.00,0.0036
3021.00,0.0036
3020.00,0.0037
3019.00,0.0039
3018.00,0.0040
3017.00,0.0040
3016.00,0.0041
3015.00,0.0041
3014.00,0.0042
3013.00,0.0043
3012.00,0.0044
3011.00,0.0045
3010.00,0.0047
3009.00,0.0048
3008.00,0.0049
3007.00,0.0051
3006.00,0.0052
3005.00,0.0054
3004.00,0.0055
3003.00,0.0057
3002.00,0.0059
3001.00,0.0062
3000.00,0.0064
2999.00,0.0066
2998.00,0.0069
2997.00,0.0072
2996.00,0.0075
2995.00,0.0079
2994.00,0.0083
2993.00,0.0088
2992.00,0.0093
2991.00,0.0099
2990.00,0.0105
2989.00,0.0112
2988.00,0.0120
2987.00,0.0129
2986.00,0.0138
2985.00,0.0148
2984.00,0.0158
2983.00,0.0170
2982.00,0.0185
2981.00,0.0202
2980.00,0.0222
2979.00,0.0244
2978.00,0.0270
2977.00,0.0298
2976.00,0.0329
2975.00,0.0365
2974.00,0.0405
2973.00,0.0451
2972.00,0.0502
2971.00,0.0559
2970.00,0.0622
2969.00,0.0691
2968.00,0.0764
2967.00,0.0841
2966.00,0.0919
2965.00,0.0996
2964.00,0.1070
2963.00,0.1137
2962.00,0.1196
2961.00,0.1246
2960.00,0.1291
2959.00,0.1335
2958.00,0.1382
2957.00,0.1437
2956.00,0.1505
2955.00,0.1586
2954.00,0.1679
2953.00,0.1777
2952.00,0.1871
2951.00,0.1949
2950.00,0.1998
2949.00,0.2005
2948.00,0.1966
2947.00,0.1880
2946.00,0.1759
2945.00,0.1617
2944.00,0.1473
2943.00,0.1343
2942.00,0.1235
2941.00,0.1155
2940.00,0.1104
2939.00,0.1080
2938.00,0.1079
2937.00,0.1100
2936.00,0.1139
2935.00,0.1195
2934.00,0.1266
2933.00,0.1353
2932.00,0.1453
2931.00,0.1563
2930.00,0.1681
2929.00,0.1804
2928.00,0.1927
2927.00,0.2048
2926.00,0.2166
2925.00,0.2281
2924.00,0.2394
2923.00,0.2506
2922.00,0.2619
2921.00,0.2730
2920.00,0.2832
2919.00,0.2915
2918.00,0.2966
2917.00,0.2977
2916.00,0.2941
2915.00,0.2864
2914.00,0.2755
2913.00,0.2629
2912.00,0.2498
2911.00,0.2373
2910.00,0.2256
2909.00,0.2148
2908.00,0.2049
2907.00,0.1955
2906.00,0.1867
2905.00,0.1781
2904.00,0.1697
2903.00,0.1616
2902.00,0.1539
2901.00,0.1465
2900.00,0.1395
2899.00,0.1330
2898.00,0.1270
2897.00,0.1216
2896.00,0.1169
2895.00,0.1130
2894.00,0.1098
2893.00,0.1074
2892.00,0.1058
2891.00,0.1048
2890.00,0.1045
2889.00,0.1047
2888.00,0.1053
2887.00,0.1063
2886.00,0.1077
2885.00,0.1095
2884.00,0.1117
2883.00,0.1146
2882.00,0.1180
2881.00,0.1218
2880.00,0.1257
2879.00,0.1291
2878.00,0.1315
2877.00,0.1326
2876.00,0.1325
2875.00,0.1317
2874.00,0.1307
2873.00,0.1303
2872.00,0.1307
2871.00,0.1321
2870.00,0.1342
2869.00,0.1366
2868.00,0.1384
2867.00,0.1385
2866.00,0.1361
2865.00,0.1306
2864.00,0.1222
2863.00,0.1118
2862.00,0.1008
2861.00,0.0902
2860.00,0.0810
2859.00,0.0735
2858.00,0.0677
2857.00,0.0635
2856.00,0.0606
2855.00,0.0590
2854.00,0.0583
2853.00,0.0584
2852.00,0.0593
2851.00,0.0609
2850.00,0.0631
2849.00,0.0659
2848.00,0.0693
2847.00,0.0734
2846.00,0.0783
2845.00,0.0841
2844.00,0.0908
2843.00,0.0980
2842.00,0.1056
2841.00,0.1127
2840.00,0.1188
2839.00,0.1228
2838.00,0.1240
2837.00,0.1217
2836.00,0.1158
2835.00,0.1070
2834.00,0.0962
2833.00,0.0849
2832.00,0.0740
2831.00,0.0643
2830.00,0.0561
2829.00,0.0494
2828.00,0.0440
2827.00,0.0396
2826.00,0.0361
2825.00,0.0332
2824.00,0.0307
2823.00,0.0287
2822.00,0.0270
2821.00,0.0256
2820.00,0.0243
2819.00,0.0233
2818.00,0.0223
2817.00,0.0215
2816.00,0.0208
2815.00,0.0202
2814.00,0.0196
2813.00,0.0190
2812.00,0.0184
2811.00,0.0178
2810.00,0.0172
2809.00,0.0166
2808.00,0.0159
2807.00,0.0153
2806.00,0.0146
2805.00,0.0139
2804.00,0.0133
2803.00,0.0127
2802.00,0.0121
2801.00,0.0116
2800.00,0.0112
2799.00,0.0109
2798.00,0.0106
2797.00,0.0104
2796.00,0.0101
2795.00,0.0099
2794.00,0.0096
2793.00,0.0093
2792.00,0.0090
2791.00,0.0087
2790.00,0.0084
2789.00,0.0081
2788.00,0.0078
2787.00,0.0076
2786.00,0.0074
2785.00,0.0073
2784.00,0.0071
2783.00,0.0069
2782.00,0.0067
2781.00,0.0065
2780.00,0.0063
2779.00,0.0062
2778.00,0.0060
2777.00,0.0059
2776.00,0.0058
2775.00,0.0057
2774.00,0.0056
2773.00,0.0055
2772.00,0.0054
2771.00,0.0054
2770.00,0.0054
2769.00,0.0053
2768.00,0.0053
2767.00,0.0053
2766.00,0.0052
2765.00,0.0052
2764.00,0.0052
2763.00,0.0052
2762.00,0.0051
2761.00,0.0051
2760.00,0.0051
2759.00,0.0050
2758.00,0.0050
2757.00,0.0050
2756.00,0.0050
2755.00,0.0050
2754.00,0.0050
2753.00,0.0050
2752.00,0.0050
2751.00,0.0050
2750.00,0.0049
2749.00,0.0049
2748.00,0.0049
2747.00,0.0050
2746.00,0.0050
2745.00,0.0051
2744.00,0.0052
2743.00,0.0052
2742.00,0.0054
2741.00,0.0055
2740.00,0.0056
2739.00,0.0058
2738.00,0.0059
2737.00,0.0061
2736.00,0.0063
2735.00,0.0065
2734.00,0.0067
2733.00,0.0069
2732.00,0.0071
2731.00,0.0073
2730.00,0.0075
2729.00,0.0078
2728.00,0.0081
2727.00,0.0084
2726.00,0.0088
2725.00,0.0090
2724.00,0.0092
2723.00,0.0092
2722.00,0.0091
2721.00,0.0089
2720.00,0.0086
2719.00,0.0082
2718.00,0.0078
2717.00,0.0075
2716.00,0.0071
2715.00,0.0068
2714.00,0.0066
2713.00,0.0063
2712.00,0.0061
2711.00,0.0059
2710.00,0.0057
2709.00,0.0055
2708.00,0.0053
2707.00,0.0052
2706.00,0.0050
2705.00,0.0049
2704.00,0.0047
2703.00,0.0046
2702.00,0.0046
2701.00,0.0045
2700.00,0.0045
2699.00,0.0044
2698.00,0.0044
2697.00,0.0043
2696.00,0.0043
2695.00,0.0043
2694.00,0.0042
2693.00,0.0042
2692.00,0.0042
2691.00,0.0042
2690.00,0.0042
2689.00,0.0042
2688.00,0.0043
2687.00,0.0043
2686.00,0.0043
2685.00,0.0043
2684.00,0.0043
2683.00,0.0043
2682.00,0.0043
2681.00,0.0043
2680.00,0.0044
2679.00,0.0044
2678.00,0.0044
2677.00,0.0044
2676.00,0.0044
2675.00,0.0044
2674.00,0.0043
2673.00,0.0043
2672.00,0.0043
2671.00,0.0042
2670.00,0.0043
2669.00,0.0043
2668.00,0.0043
2667.00,0.0044
2666.00,0.0044
2665.00,0.0044
2664.00,0.0045
2663.00,0.0046
2662.00,0.0046
2661.00,0.0047
2660.00,0.0047
2659.00,0.0047
2658.00,0.0047
2657.00,0.0046
2656.00,0.0046
2655.00,0.0045
2654.00,0.0045
2653.00,0.0044
2652.00,0.0044
2651.00,0.0043
2650.00,0.0042
2649.00,0.0042
2648.00,0.0042
2647.00,0.0041
2646.00,0.0041
2645.00,0.0040
2644.00,0.0040
2643.00,0.0039
2642.00,0.0039
2641.00,0.0038
2640.00,0.0038
2639.00,0.0037
2638.00,0.0037
2637.00,0.0037
2636.00,0.0037
2635.00,0.0037
2634.00,0.0037
2633.00,0.0038
2632.00,0.0038
2631.00,0.0038
2630.00,0.0038
2629.00,0.0038
2628.00,0.0038
2627.00,0.0038
2626.00,0.0038
2625.00,0.0038
2624.00,0.0038
2623.00,0.0039
2622.00,0.0039
2621.00,0.0040
2620.00,0.0041
2619.00,0.0042
2618.00,0.0042
2617.00,0.0041
2616.00,0.0041
2615.00,0.0040
2614.00,0.0039
2613.00,0.0039
2612.00,0.0039
2611.00,0.0038
2610.00,0.0037
2609.00,0.0037
2608.00,0.0036
2607.00,0.0036
2606.00,0.0035
2605.00,0.0035
2604.00,0.0034
2603.00,0.0033
2602.00,0.0032
2601.00,0.0032
2600.00,0.0032
2599.00,0.0032
2598.00,0.0033
2597.00,0.0033
2596.00,0.0033
2595.00,0.0032
2594.00,0.0032
2593.00,0.0032
2592.00,0.0033
2591.00,0.0034
2590.00,0.0035
2589.00,0.0036
2588.00,0.0037
2587.00,0.0038
2586.00,0.0038
2585.00,0.0038
2584.00,0.0039
2583.00,0.0039
2582.00,0.0040
2581.00,0.0040
2580.00,0.0040
2579.00,0.0040
2578.00,0.0039
2577.00,0.0038
2576.00,0.0036
2575.00,0.0034
2574.00,0.0032
2573.00,0.0031
2572.00,0.0030
2571.00,0.0029
2570.00,0.0028
2569.00,0.0027
2568.00,0.0027
2567.00,0.0026
2566.00,0.0026
2565.00,0.0025
2564.00,0.0025
2563.00,0.0025
2562.00,0.0024
2561.00,0.0024
2560.00,0.0024
2559.00,0.0023
2558.00,0.0023
2557.00,0.0023
2556.00,0.0022
2555.00,0.0022
2554.00,0.0022
2553.00,0.0022
2552.00,0.0022
2551.00,0.0021
2550.00,0.0020
2549.00,0.0020
2548.00,0.0019
2547.00,0.0019
2546.00,0.0018
2545.00,0.0019
2544.00,0.0019
2543.00,0.0019
2542.00,0.0018
2541.00,0.0018
2540.00,0.0018
2539.00,0.0018
2538.00,0.0017
2537.00,0.0017
2536.00,0.0016
2535.00,0.0015
2534.00,0.0014
2533.00,0.0014
2532.00,0.0014
2531.00,0.0014
2530.00,0.0014
2529.00,0.0014
2528.00,0.0014
2527.00,0.0014
2526.00,0.0014
2525.00,0.0014
2524.00,0.0014
2523.00,0.0014
2522.00,0.0013
2521.00,0.0013
2520.00,0.0013
2519.00,0.0013
2518.00,0.0013
2517.00,0.0012
2516.00,0.0012
2515.00,0.0011
2514.00,0.0011
2513.00,0.0011
2512.00,0.0011
2511.00,0.0011
2510.00,0.0011
2509.00,0.0010
2508.00,0.0009
2507.00,0.0009
2506.00,0.0008
2505.00,0.0009
2504.00,0.0009
2503.00,0.0009
2502.00,0.0009
2501.00,0.0010
2500.00,0.0010
2499.00,0.0010
2498.00,0.0010
2497.00,0.0010
2496.00,0.0010
2495.00,0.0011
2494.00,0.0011
2493.00,0.0011
2492.00,0.0011
2491.00,0.0011
2490.00,0.0011
2489.00,0.0011
2488.00,0.0010
2487.00,0.0010
2486.00,0.0009
2485.00,0.0009
2484.00,0.0009
2483.00,0.0008
2482.00,0.0008
2481.00,0.0008
2480.00,0.0008
2479.00,0.0008
2478.00,0.0008
2477.00,0.0008
2476.00,0.0008
2475.00,0.0008
2474.00,0.0009
2473.00,0.0009
2472.00,0.0009
2471.00,0.0009
2470.00,0.0009
2469.00,0.0009
2468.00,0.0010
2467.00,0.0010
2466.00,0.0010
2465.00,0.0010
2464.00,0.0010
2463.00,0.0010
2462.00,0.0010
2461.00,0.0011
2460.00,0.0011
2459.00,0.0011
2458.00,0.0011
2457.00,0.0011
2456.00,0.0011
2455.00,0.0010
2454.00,0.0010
2453.00,0.0010
2452.00,0.0010
2451.00,0.0010
2450.00,0.0010
2449.00,0.0011
2448.00,0.0010
2447.00,0.0009
2446.00,0.0009
2445.00,0.0008
2444.00,0.0009
2443.00,0.0009
2442.00,0.0010
2441.00,0.0010
2440.00,0.0010
2439.00,0.0010
2438.00,0.0011
2437.00,0.0011
2436.00,0.0012
2435.00,0.0012
2434.00,0.0012
2433.00,0.0012
2432.00,0.0012
2431.00,0.0011
2430.00,0.0011
2429.00,0.0011
2428.00,0.0010
2427.00,0.0010
2426.00,0.0010
2425.00,0.0010
2424.00,0.0011
2423.00,0.0012
2422.00,0.0012
2421.00,0.0012
2420.00,0.0012
2419.00,0.0011
2418.00,0.0011
2417.00,0.0010
2416.00,0.0010
2415.00,0.0010
2414.00,0.0009
2413.00,0.0009
2412.00,0.0009
2411.00,0.0009
2410.00,0.0009
2409.00,0.0009
2408.00,0.0009
2407.00,0.0009
2406.00,0.0008
2405.00,0.0008
2404.00,0.0008
2403.00,0.0009
2402.00,0.0009
2401.00,0.0009
2400.00,0.0008
2399.00,0.0008
2398.00,0.0008
2397.00,0.0009
2396.00,0.0009
2395.00,0.0009
2394.00,0.0009
2393.00,0.0009
2392.00,0.0008
2391.00,0.0008
2390.00,0.0007
2389.00,0.0007
2388.00,0.0006
2387.00,0.0006
2386.00,0.0005
2385.00,0.0004
2384.00,0.0004
2383.00,0.0003
2382.00,0.0002
2381.00,0.0001
2380.00,-0.0000
2379.00,-0.0001
2378.00,-0.0002
2377.00,-0.0002
2376.00,-0.0002
2375.00,-0.0002
2374.00,-0.0001
2373.00,-0.0001
2372.00,-0.0001
2371.00,-0.0001
2370.00,-0.0002
2369.00,-0.0003
2368.00,-0.0004
2367.00,-0.0004
2366.00,-0.0003
2365.00,-0.0003
2364.00,-0.0002
2363.00,-0.0002
2362.00,-0.0002
2361.00,-0.0002
2360.00,-0.0002
2359.00,-0.0003
2358.00,-0.0003
2357.00,-0.0003
2356.00,-0.0003
2355.00,-0.0002
2354.00,-0.0001
2353.00,-0.0001
2352.00,-0.0002
2351.00,-0.0002
2350.00,-0.0002
2349.00,-0.0002
2348.00,-0.0001
2347.00,-0.0001
2346.00,-0.0001
2345.00,-0.0001
2344.00,-0.0000
2343.00,-0.0000
2342.00,0.0000
2341.00,0.0001
2340.00,0.0001
2339.00,0.0001
2338.00,0.0001
2337.00,0.0002
2336.00,0.0002
2335.00,0.0002
2334.00,0.0002
2333.00,0.0002
2332.00,0.0001
2331.00,0.0000
2330.00,-0.0000
2329.00,0.0000
2328.00,0.0002
2327.00,0.0006
2326.00,0.0010
2325.00,0.0014
2324.00,0.0016
2323.00,0.0016
2322.00,0.0014
2321.00,0.0011
2320.00,0.0009
2319.00,0.0008
2318.00,0.0007
2317.00,0.0007
2316.00,0.0006
2315.00,0.0006
2314.00,0.0005
2313.00,0.0005
2312.00,0.0004
2311.00,0.0004
2310.00,0.0005
2309.00,0.0005
2308.00,0.0005
2307.00,0.0006
2306.00,0.0006
2305.00,0.0006
2304.00,0.0006
2303.00,0.0007
2302.00,0.0007
2301.00,0.0007
2300.00,0.0008
2299.00,0.0009
2298.00,0.0010
2297.00,0.0012
2296.00,0.0012
2295.00,0.0013
2294.00,0.0012
2293.00,0.0013
2292.00,0.0013
2291.00,0.0014
2290.00,0.0014
2289.00,0.0015
2288.00,0.0016
2287.00,0.0016
2286.00,0.0017
2285.00,0.0017
2284.00,0.0016
2283.00,0.0016
2282.00,0.0015
2281.00,0.0014
2280.00,0.0014
2279.00,0.0014
2278.00,0.0013
2277.00,0.0013
2276.00,0.0014
2275.00,0.0014
2274.00,0.0015
2273.00,0.0015
2272.00,0.0016
2271.00,0.0016
2270.00,0.0016
2269.00,0.0016
2268.00,0.0015
2267.00,0.0014
2266.00,0.0013
2265.00,0.0012
2264.00,0.0012
2263.00,0.0011
2262.00,0.0011
2261.00,0.0011
2260.00,0.0012
2259.00,0.0013
2258.00,0.0013
2257.00,0.0012
2256.00,0.0010
2255.00,0.0008
2254.00,0.0007
2253.00,0.0007
2252.00,0.0006
2251.00,0.0006
2250.00,0.0005
2249.00,0.0005
2248.00,0.0006
2247.00,0.0007
2246.00,0.0008
2245.00,0.0009
2244.00,0.0010
2243.00,0.0010
2242.00,0.0010
2241.00,0.0009
2240.00,0.0009
2239.00,0.0009
2238.00,0.0008
2237.00,0.0009
2236.00,0.0011
2235.00,0.0012
2234.00,0.0013
2233.00,0.0013
2232.00,0.0012
2231.00,0.0010
2230.00,0.0008
2229.00,0.0005
2228.00,0.0003
2227.00,0.0002
2226.00,0.0003
2225.00,0.0004
2224.00,0.0006
2223.00,0.0007
2222.00,0.0008
2221.00,0.0009
2220.00,0.0009
2219.00,0.0009
2218.00,0.0010
2217.00,0.0010
2216.00,0.0011
2215.00,0.0011
2214.00,0.0011
2213.00,0.0009
2212.00,0.0007
2211.00,0.0005
2210.00,0.0003
2209.00,0.0001
2208.00,0.0001
2207.00,0.0001
2206.00,0.0001
2205.00,0.0002
2204.00,0.0003
2203.00,0.0004
2202.00,0.0005
2201.00,0.0006
2200.00,0.0007
2199.00,0.0008
2198.00,0.0009
2197.00,0.0009
2196.00,0.0009
2195.00,0.0009
2194.00,0.0010
2193.00,0.0011
2192.00,0.0012
2191.00,0.0011
2190.00,0.0009
2189.00,0.0008
2188.00,0.0008
2187.00,0.0009
2186.00,0.0010
2185.00,0.0010
2184.00,0.0009
2183.00,0.0006
2182.00,0.0002
2181.00,0.0001
2180.00,0.0002
2179.00,0.0005
2178.00,0.0007
2177.00,0.0007
2176.00,0.0005
2175.00,0.0002
2174.00,0.0001
2173.00,0.0000
2172.00,0.0001
2171.00,0.0003
2170.00,0.0005
2169.00,0.0008
2168.00,0.0011
2167.00,0.0013
2166.00,0.0014
2165.00,0.0014
2164.00,0.0015
2163.00,0.0015
2162.00,0.0014
2161.00,0.0008
2160.00,-0.0005
2159.00,-0.0021
2158.00,-0.0034
2157.00,-0.0039
2156.00,-0.0037
2155.00,-0.0034
2154.00,-0.0030
2153.00,-0.0027
2152.00,-0.0025
2151.00,-0.0022
2150.00,-0.0020
2149.00,-0.0018
2148.00,-0.0017
2147.00,-0.0016
2146.00,-0.0015
2145.00,-0.0013
2144.00,-0.0013
2143.00,-0.0013
2142.00,-0.0014
2141.00,-0.0015
2140.00,-0.0015
2139.00,-0.0014
2138.00,-0.0012
2137.00,-0.0011
2136.00,-0.0012
2135.00,-0.0015
2134.00,-0.0018
2133.00,-0.0019
2132.00,-0.0019
2131.00,-0.0017
2130.00,-0.0016
2129.00,-0.0014
2128.00,-0.0012
2127.00,-0.0010
2126.00,-0.0009
2125.00,-0.0008
2124.00,-0.0007
2123.00,-0.0006
2122.00,-0.0005
2121.00,-0.0004
2120.00,-0.0002
2119.00,-0.0001
2118.00,-0.0000
2117.00,-0.0000
2116.00,-0.0001
2115.00,-0.0002
2114.00,-0.0002
2113.00,-0.0002
2112.00,-0.0002
2111.00,-0.0000
2110.00,0.0001
2109.00,0.0002
2108.00,0.0003
2107.00,0.0002
2106.00,0.0001
2105.00,-0.0001
2104.00,-0.0002
2103.00,-0.0003
2102.00,-0.0002
2101.00,-0.0001
2100.00,0.0000
2099.00,-0.0000
2098.00,-0.0001
2097.00,-0.0003
2096.00,-0.0005
2095.00,-0.0006
2094.00,-0.0006
2093.00,-0.0006
2092.00,-0.0005
2091.00,-0.0004
2090.00,-0.0004
2089.00,-0.0004
2088.00,-0.0004
2087.00,-0.0003
2086.00,-0.0002
2085.00,-0.0000
2084.00,0.0001
2083.00,0.0001
2082.00,0.0000
2081.00,-0.0000
2080.00,0.0000
2079.00,0.0001
2078.00,0.0002
2077.00,0.0003
2076.00,0.0002
2075.00,0.0002
2074.00,0.0001
2073.00,-0.0000
2072.00,-0.0000
2071.00,-0.0000
2070.00,-0.0000
2069.00,-0.0001
2068.00,-0.0003
2067.00,-0.0005
2066.00,-0.0006
2065.00,-0.0005
2064.00,-0.0004
2063.00,-0.0002
2062.00,-0.0001
2061.00,-0.0001
2060.00,-0.0002
2059.00,-0.0002
2058.00,-0.0001
2057.00,0.0001
2056.00,0.0001
2055.00,0.0001
2054.00,0.0001
2053.00,0.0004
2052.00,0.0007
2051.00,0.0008
2050.00,0.0006
2049.00,0.0002
2048.00,-0.0001
2047.00,-0.0003
2046.00,-0.0002
2045.00,-0.0001
2044.00,0.0001
2043.00,0.0003
2042.00,0.0006
2041.00,0.0006
2040.00,0.0004
2039.00,0.0002
2038.00,0.0001
2037.00,0.0002
2036.00,0.0002
2035.00,0.0001
2034.00,-0.0001
2033.00,-0.0003
2032.00,-0.0005
2031.00,-0.0006
2030.00,-0.0006
2029.00,-0.0003
2028.00,-0.0000
2027.00,0.0000
2026.00,-0.0003
2025.00,-0.0006
2024.00,-0.0009
2023.00,-0.0011
2022.00,-0.0012
2021.00,-0.0012
2020.00,-0.0012
2019.00,-0.0013
2018.00,-0.0015
2017.00,-0.0016
2016.00,-0.0017
2015.00,-0.0018
2014.00,-0.0018
2013.00,-0.0016
2012.00,-0.0013
2011.00,-0.0011
2010.00,-0.0010
2009.00,-0.0011
2008.00,-0.0013
2007.00,-0.0016
2006.00,-0.0019
2005.00,-0.0020
2004.00,-0.0021
2003.00,-0.0021
2002.00,-0.0020
2001.00,-0.0016
2000.00,-0.0012
1999.00,-0.0008
1998.00,-0.0006
1997.00,-0.0006
1996.00,-0.0006
1995.00,-0.0006
1994.00,-0.0006
1993.00,-0.0006
1992.00,-0.0007
1991.00,-0.0008
1990.00,-0.0007
1989.00,-0.0004
1988.00,-0.0001
1987.00,0.0001
1986.00,0.0001
1985.00,0.0000
1984.00,-0.0000
1983.00,-0.0001
1982.00,-0.0001
1981.00,-0.0000
1980.00,-0.0000
1979.00,-0.0002
1978.00,-0.0006
1977.00,-0.0010
1976.00,-0.0011
1975.00,-0.0012
1974.00,-0.0013
1973.00,-0.0013
1972.00,-0.0013
1971.00,-0.0012
1970.00,-0.0012
1969.00,-0.0012
1968.00,-0.0012
1967.00,-0.0012
1966.00,-0.0012
1965.00,-0.0011
1964.00,-0.0011
1963.00,-0.0012
1962.00,-0.0015
1961.00,-0.0019
1960.00,-0.0021
1959.00,-0.0022
1958.00,-0.0020
1957.00,-0.0017
1956.00,-0.0014
1955.00,-0.0013
1954.00,-0.0013
1953.00,-0.0014
1952.00,-0.0014
1951.00,-0.0013
1950.00,-0.0013
1949.00,-0.0014
1948.00,-0.0015
1947.00,-0.0016
1946.00,-0.0017
1945.00,-0.0017
1944.00,-0.0016
1943.00,-0.0016
1942.00,-0.0016
1941.00,-0.0016
1940.00,-0.0016
1939.00,-0.0016
1938.00,-0.0015
1937.00,-0.0015
1936.00,-0.0014
1935.00,-0.0013
1934.00,-0.0012
1933.00,-0.0010
1932.00,-0.0009
1931.00,-0.0008
1930.00,-0.0007
1929.00,-0.0007
1928.00,-0.0006
1927.00,-0.0006
1926.00,-0.0007
1925.00,-0.0008
1924.00,-0.0010
1923.00,-0.0009
1922.00,-0.0008
1921.00,-0.0006
1920.00,-0.0005
1919.00,-0.0005
1918.00,-0.0007
1917.00,-0.0008
1916.00,-0.0008
1915.00,-0.0008
1914.00,-0.0006
1913.00,-0.0004
1912.00,-0.0002
1911.00,-0.0002
1910.00,-0.0002
1909.00,-0.0003
1908.00,-0.0004
1907.00,-0.0004
1906.00,-0.0005
1905.00,-0.0004
1904.00,-0.0004
1903.00,-0.0004
1902.00,-0.0005
1901.00,-0.0005
1900.00,-0.0005
1899.00,-0.0004
1898.00,-0.0003
1897.00,-0.0003
1896.00,-0.0001
1895.00,-0.0000
1894.00,-0.0000
1893.00,-0.0001
1892.00,-0.0002
1891.00,-0.0003
1890.00,-0.0004
1889.00,-0.0004
1888.00,-0.0004
1887.00,-0.0004
1886.00,-0.0003
1885.00,-0.0003
1884.00,-0.0002
1883.00,-0.0003
1882.00,-0.0004
1881.00,-0.0003
1880.00,-0.0003
1879.00,-0.0003
1878.00,-0.0003
1877.00,-0.0003
1876.00,-0.0003
1875.00,-0.0004
1874.00,-0.0004
1873.00,-0.0003
1872.00,-0.0003
1871.00,-0.0003
1870.00,-0.0003
1869.00,-0.0003
1868.00,-0.0003
1867.00,-0.0003
1866.00,-0.0004
1865.00,-0.0004
1864.00,-0.0003
1863.00,-0.0002
1862.00,-0.0001
1861.00,-0.0001
1860.00,-0.0001
1859.00,-0.0001
1858.00,-0.0001
1857.00,-0.0001
1856.00,-0.0000
1855.00,0.0000
1854.00,0.0001
1853.00,0.0001
1852.00,0.0000
1851.00,-0.0000
1850.00,-0.0000
1849.00,0.0000
1848.00,0.0002
1847.00,0.0002
1846.00,0.0002
1845.00,0.0001
1844.00,0.0001
1843.00,0.0000
1842.00,0.0001
1841.00,0.0001
1840.00,0.0000
1839.00,0.0000
1838.00,0.0000
1837.00,0.0000
1836.00,0.0000
1835.00,0.0001
1834.00,0.0001
1833.00,0.0002
1832.00,0.0002
1831.00,0.0002
1830.00,0.0002
1829.00,0.0003
1828.00,0.0003
1827.00,0.0003
1826.00,0.0003
1825.00,0.0003
1824.00,0.0003
1823.00,0.0003
1822.00,0.0003
1821.00,0.0002
1820.00,0.0001
1819.00,0.0000
1818.00,-0.0001
1817.00,-0.0001
1816.00,-0.0000
1815.00,0.0001
1814.00,0.0002
1813.00,0.0003
1812.00,0.0003
1811.00,0.0003
1810.00,0.0003
1809.00,0.0003
1808.00,0.0003
1807.00,0.0003
1806.00,0.0003
1805.00,0.0003
1804.00,0.0004
1803.00,0.0004
1802.00,0.0004
1801.00,0.0005
1800.00,0.0005
1799.00,0.0005
1798.00,0.0005
1797.00,0.0005
1796.00,0.0005
1795.00,0.0005
1794.00,0.0005
1793.00,0.0005
1792.00,0.0006
1791.00,0.0006
1790.00,0.0006
1789.00,0.0006
1788.00,0.0005
1787.00,0.0005
1786.00,0.0005
1785.00,0.0005
1784.00,0.0006
1783.00,0.0006
1782.00,0.0006
1781.00,0.0006
1780.00,0.0006
1779.00,0.0006
1778.00,0.0005
1777.00,0.0005
1776.00,0.0005
1775.00,0.0005
1774.00,0.0005
1773.00,0.0006
1772.00,0.0007
1771.00,0.0008
1770.00,0.0009
1769.00,0.0009
1768.00,0.0009
1767.00,0.0009
1766.00,0.0009
1765.00,0.0009
1764.00,0.0010
1763.00,0.0010
1762.00,0.0010
1761.00,0.0010
1760.00,0.0010
1759.00,0.0010
1758.00,0.0010
1757.00,0.0010
1756.00,0.0011
1755.00,0.0012
1754.00,0.0013
1753.00,0.0013
1752.00,0.0014
1751.00,0.0014
1750.00,0.0016
1749.00,0.0017
1748.00,0.0017
1747.00,0.0017
1746.00,0.0017
1745.00,0.0016
1744.00,0.0017
1743.00,0.0017
1742.00,0.0018
1741.00,0.0019
1740.00,0.0019
1739.00,0.0019
1738.00,0.0019
1737.00,0.0018
1736.00,0.0018
1735.00,0.0018
1734.00,0.0017
1733.00,0.0017
1732.00,0.0017
1731.00,0.0017
1730.00,0.0017
1729.00,0.0018
1728.00,0.0018
1727.00,0.0017
1726.00,0.0017
1725.00,0.0017
1724.00,0.0017
1723.00,0.0017
1722.00,0.0017
1721.00,0.0017
1720.00,0.0017
1719.00,0.0017
1718.00,0.0017
1717.00,0.0017
1716.00,0.0018
1715.00,0.0019
1714.00,0.0019
1713.00,0.0020
1712.00,0.0020
1711.00,0.0020
1710.00,0.0020
1709.00,0.0020
1708.00,0.0020
1707.00,0.0020
1706.00,0.0021
1705.00,0.0022
1704.00,0.0022
1703.00,0.0022
1702.00,0.0022
1701.00,0.0022
1700.00,0.0022
1699.00,0.0022
1698.00,0.0023
1697.00,0.0023
1696.00,0.0024
1695.00,0.0024
1694.00,0.0025
1693.00,0.0025
1692.00,0.0025
1691.00,0.0026
1690.00,0.0026
1689.00,0.0026
1688.00,0.0027
1687.00,0.0027
1686.00,0.0027
1685.00,0.0027
1684.00,0.0027
1683.00,0.0028
1682.00,0.0028
1681.00,0.0028
1680.00,0.0028
1679.00,0.0028
1678.00,0.0028
1677.00,0.0029
1676.00,0.0030
1675.00,0.0030
1674.00,0.0030
1673.00,0.0030
1672.00,0.0030
1671.00,0.0030
1670.00,0.0030
1669.00,0.0031
1668.00,0.0031
1667.00,0.0032
1666.00,0.0032
1665.00,0.0032
1664.00,0.0032
1663.00,0.0032
1662.00,0.0032
1661.00,0.0033
1660.00,0.0033
1659.00,0.0034
1658.00,0.0035
1657.00,0.0036
1656.00,0.0037
1655.00,0.0038
1654.00,0.0038
1653.00,0.0038
1652.00,0.0038
1651.00,0.0038
1650.00,0.0038
1649.00,0.0038
1648.00,0.0039
1647.00,0.0040
1646.00,0.0041
1645.00,0.0041
1644.00,0.0041
1643.00,0.0041
1642.00,0.0041
1641.00,0.0041
1640.00,0.0041
1639.00,0.0041
1638.00,0.0040
1637.00,0.0040
1636.00,0.0041
1635.00,0.0041
1634.00,0.0042
1633.00,0.0042
1632.00,0.0042
1631.00,0.0042
1630.00,0.0042
1629.00,0.0042
1628.00,0.0042
1627.00,0.0042
1626.00,0.0042
1625.00,0.0042
1624.00,0.0042
1623.00,0.0041
1622.00,0.0041
1621.00,0.0041
1620.00,0.0040
1619.00,0.0040
1618.00,0.0039
1617.00,0.0038
1616.00,0.0038
1615.00,0.0038
1614.00,0.0038
1613.00,0.0038
1612.00,0.0038
1611.00,0.0037
1610.00,0.0037
1609.00,0.0037
1608.00,0.0037
1607.00,0.0037
1606.00,0.0037
1605.00,0.0037
1604.00,0.0037
1603.00,0.0037
1602.00,0.0037
1601.00,0.0037
1600.00,0.0037
1599.00,0.0037
1598.00,0.0037
1597.00,0.0037
1596.00,0.0037
1595.00,0.0038
1594.00,0.0038
1593.00,0.0039
1592.00,0.0039
1591.00,0.0040
1590.00,0.0041
1589.00,0.0042
1588.00,0.0043
1587.00,0.0045
1586.00,0.0046
1585.00,0.0048
1584.00,0.0051
1583.00,0.0053
1582.00,0.0056
1581.00,0.0058
1580.00,0.0061
1579.00,0.0063
1578.00,0.0065
1577.00,0.0065
1576.00,0.0065
1575.00,0.0063
1574.00,0.0061
1573.00,0.0060
1572.00,0.0058
1571.00,0.0056
1570.00,0.0054
1569.00,0.0052
1568.00,0.0050
1567.00,0.0049
1566.00,0.0048
1565.00,0.0047
1564.00,0.0047
1563.00,0.0047
1562.00,0.0047
1561.00,0.0048
1560.00,0.0049
1559.00,0.0048
1558.00,0.0047
1557.00,0.0047
1556.00,0.0047
1555.00,0.0048
1554.00,0.0049
1553.00,0.0049
1552.00,0.0050
1551.00,0.0051
1550.00,0.0052
1549.00,0.0055
1548.00,0.0057
1547.00,0.0059
1546.00,0.0062
1545.00,0.0065
1544.00,0.0068
1543.00,0.0072
1542.00,0.0074
1541.00,0.0076
1540.00,0.0075
1539.00,0.0072
1538.00,0.0069
1537.00,0.0067
1536.00,0.0065
1535.00,0.0062
1534.00,0.0059
1533.00,0.0056
1532.00,0.0054
1531.00,0.0053
1530.00,0.0052
1529.00,0.0052
1528.00,0.0052
1527.00,0.0051
1526.00,0.0050
1525.00,0.0050
1524.00,0.0051
1523.00,0.0051
1522.00,0.0051
1521.00,0.0051
1520.00,0.0052
1519.00,0.0052
1518.00,0.0052
1517.00,0.0052
1516.00,0.0053
1515.00,0.0054
1514.00,0.0054
1513.00,0.0055
1512.00,0.0056
1511.00,0.0057
1510.00,0.0058
1509.00,0.0059
1508.00,0.0061
1507.00,0.0062
1506.00,0.0063
1505.00,0.0065
1504.00,0.0067
1503.00,0.0068
1502.00,0.0070
1501.00,0.0072
1500.00,0.0075
1499.00,0.0076
1498.00,0.0078
1497.00,0.0081
1496.00,0.0084
1495.00,0.0087
1494.00,0.0089
1493.00,0.0092
1492.00,0.0095
1491.00,0.0099
1490.00,0.0103
1489.00,0.0109
1488.00,0.0115
1487.00,0.0120
1486.00,0.0126
1485.00,0.0133
1484.00,0.0142
1483.00,0.0151
1482.00,0.0161
1481.00,0.0174
1480.00,0.0187
1479.00,0.0200
1478.00,0.0216
1477.00,0.0235
1476.00,0.0258
1475.00,0.0285
1474.00,0.0321
1473.00,0.0375
1472.00,0.0441
1471.00,0.0506
1470.00,0.0570
1469.00,0.0638
1468.00,0.0712
1467.00,0.0795
1466.00,0.0891
1465.00,0.0996
1464.00,0.1089
1463.00,0.1156
1462.00,0.1200
1461.00,0.1231
1460.00,0.1253
1459.00,0.1267
1458.00,0.1276
1457.00,0.1281
1456.00,0.1278
1455.00,0.1268
1454.00,0.1253
1453.00,0.1233
1452.00,0.1203
1451.00,0.1159
1450.00,0.1100
1449.00,0.1020
1448.00,0.0922
1447.00,0.0820
1446.00,0.0731
1445.00,0.0655
1444.00,0.0592
1443.00,0.0542
1442.00,0.0506
1441.00,0.0482
1440.00,0.0470
1439.00,0.0468
1438.00,0.0475
1437.00,0.0483
1436.00,0.0478
1435.00,0.0452
1434.00,0.0411
1433.00,0.0360
1432.00,0.0308
1431.00,0.0263
1430.00,0.0228
1429.00,0.0204
1428.00,0.0188
1427.00,0.0179
1426.00,0.0172
1425.00,0.0167
1424.00,0.0161
1423.00,0.0158
1422.00,0.0156
1421.00,0.0153
1420.00,0.0150
1419.00,0.0146
1418.00,0.0144
1417.00,0.0141
1416.00,0.0138
1415.00,0.0137
1414.00,0.0135
1413.00,0.0134
1412.00,0.0131
1411.00,0.0130
1410.00,0.0129
1409.00,0.0127
1408.00,0.0125
1407.00,0.0125
1406.00,0.0125
1405.00,0.0124
1404.00,0.0124
1403.00,0.0124
1402.00,0.0125
1401.00,0.0126
1400.00,0.0126
1399.00,0.0127
1398.00,0.0128
1397.00,0.0129
1396.00,0.0131
1395.00,0.0135
1394.00,0.0141
1393.00,0.0147
1392.00,0.0154
1391.00,0.0163
1390.00,0.0176
1389.00,0.0194
1388.00,0.0221
1387.00,0.0261
1386.00,0.0313
1385.00,0.0379
1384.00,0.0466
1383.00,0.0584
1382.00,0.0742
1381.00,0.0947
1380.00,0.1210
1379.00,0.1521
1378.00,0.1841
1377.00,0.2100
1376.00,0.2222
1375.00,0.2152
1374.00,0.1904
1373.00,0.1578
1372.00,0.1268
1371.00,0.1007
1370.00,0.0798
1369.00,0.0639
1368.00,0.0531
1367.00,0.0465
1366.00,0.0429
1365.00,0.0416
1364.00,0.0419
1363.00,0.0437
1362.00,0.0463
1361.00,0.0492
1360.00,0.0514
1359.00,0.0520
1358.00,0.0507
1357.00,0.0475
1356.00,0.0430
1355.00,0.0379
1354.00,0.0329
1353.00,0.0287
1352.00,0.0254
1351.00,0.0227
1350.00,0.0206
1349.00,0.0190
1348.00,0.0176
1347.00,0.0166
1346.00,0.0157
1345.00,0.0150
1344.00,0.0144
1343.00,0.0139
1342.00,0.0135
1341.00,0.0132
1340.00,0.0130
1339.00,0.0128
1338.00,0.0127
1337.00,0.0127
1336.00,0.0128
1335.00,0.0131
1334.00,0.0134
1333.00,0.0139
1332.00,0.0145
1331.00,0.0149
1330.00,0.0150
1329.00,0.0149
1328.00,0.0144
1327.00,0.0137
1326.00,0.0130
1325.00,0.0122
1324.00,0.0115
1323.00,0.0109
1322.00,0.0104
1321.00,0.0100
1320.00,0.0098
1319.00,0.0095
1318.00,0.0092
1317.00,0.0090
1316.00,0.0088
1315.00,0.0086
1314.00,0.0085
1313.00,0.0085
1312.00,0.0086
1311.00,0.0087
1310.00,0.0090
1309.00,0.0095
1308.00,0.0101
1307.00,0.0109
1306.00,0.0117
1305.00,0.0123
1304.00,0.0126
1303.00,0.0125
1302.00,0.0124
1301.00,0.0124
1300.00,0.0125
1299.00,0.0127
1298.00,0.0129
1297.00,0.0131
1296.00,0.0131
1295.00,0.0128
1294.00,0.0124
1293.00,0.0118
1292.00,0.0112
1291.00,0.0106
1290.00,0.0101
1289.00,0.0097
1288.00,0.0093
1287.00,0.0090
1286.00,0.0087
1285.00,0.0085
1284.00,0.0082
1283.00,0.0080
1282.00,0.0079
1281.00,0.0077
1280.00,0.0076
1279.00,0.0075
1278.00,0.0075
1277.00,0.0074
1276.00,0.0074
1275.00,0.0073
1274.00,0.0073
1273.00,0.0072
1272.00,0.0072
1271.00,0.0073
1270.00,0.0073
1269.00,0.0074
1268.00,0.0074
1267.00,0.0075
1266.00,0.0075
1265.00,0.0075
1264.00,0.0076
1263.00,0.0078
1262.00,0.0081
1261.00,0.0084
1260.00,0.0088
1259.00,0.0094
1258.00,0.0099
1257.00,0.0104
1256.00,0.0106
1255.00,0.0105
1254.00,0.0101
1253.00,0.0095
1252.00,0.0090
1251.00,0.0087
1250.00,0.0084
1249.00,0.0082
1248.00,0.0080
1247.00,0.0080
1246.00,0.0079
1245.00,0.0079
1244.00,0.0079
1243.00,0.0079
1242.00,0.0078
1241.00,0.0078
1240.00,0.0077
1239.00,0.0077
1238.00,0.0077
1237.00,0.0078
1236.00,0.0078
1235.00,0.0078
1234.00,0.0077
1233.00,0.0078
1232.00,0.0078
1231.00,0.0080
1230.00,0.0081
1229.00,0.0082
1228.00,0.0083
1227.00,0.0085
1226.00,0.0087
1225.00,0.0091
1224.00,0.0094
1223.00,0.0098
1222.00,0.0102
1221.00,0.0105
1220.00,0.0108
1219.00,0.0109
1218.00,0.0108
1217.00,0.0107
1216.00,0.0104
1215.00,0.0101
1214.00,0.0097
1213.00,0.0093
1212.00,0.0090
1211.00,0.0088
1210.00,0.0085
1209.00,0.0083
1208.00,0.0082
1207.00,0.0080
1206.00,0.0079
1205.00,0.0078
1204.00,0.0077
1203.00,0.0077
1202.00,0.0076
1201.00,0.0076
1200.00,0.0076
1199.00,0.0076
1198.00,0.0076
1197.00,0.0076
1196.00,0.0076
1195.00,0.0076
1194.00,0.0076
1193.00,0.0077
1192.00,0.0077
1191.00,0.0077
1190.00,0.0077
1189.00,0.0077
1188.00,0.0076
1187.00,0.0076
1186.00,0.0076
1185.00,0.0076
1184.00,0.0077
1183.00,0.0078
1182.00,0.0079
1181.00,0.0081
1180.00,0.0083
1179.00,0.0086
1178.00,0.0091
1177.00,0.0097
1176.00,0.0104
1175.00,0.0114
1174.00,0.0128
1173.00,0.0145
1172.00,0.0167
1171.00,0.0190
1170.00,0.0212
1169.00,0.0230
1168.00,0.0242
1167.00,0.0245
1166.00,0.0242
1165.00,0.0234
1164.00,0.0224
1163.00,0.0214
1162.00,0.0205
1161.00,0.0197
1160.00,0.0190
1159.00,0.0185
1158.00,0.0182
1157.00,0.0179
1156.00,0.0178
1155.00,0.0178
1154.00,0.0178
1153.00,0.0177
1152.00,0.0174
1151.00,0.0168
1150.00,0.0160
1149.00,0.0151
1148.00,0.0142
1147.00,0.0134
1146.00,0.0127
1145.00,0.0120
1144.00,0.0112
1143.00,0.0106
1142.00,0.0100
1141.00,0.0095
1140.00,0.0090
1139.00,0.0085
1138.00,0.0082
1137.00,0.0079
1136.00,0.0077
1135.00,0.0076
1134.00,0.0075
1133.00,0.0074
1132.00,0.0072
1131.00,0.0072
1130.00,0.0072
1129.00,0.0074
1128.00,0.0075
1127.00,0.0075
1126.00,0.0075
1125.00,0.0075
1124.00,0.0075
1123.00,0.0075
1122.00,0.0074
1121.00,0.0074
1120.00,0.0074
1119.00,0.0074
1118.00,0.0075
1117.00,0.0075
1116.00,0.0075
1115.00,0.0077
1114.00,0.0079
1113.00,0.0082
1112.00,0.0085
1111.00,0.0088
1110.00,0.0093
1109.00,0.0097
1108.00,0.0103
1107.00,0.0110
1106.00,0.0118
1105.00,0.0126
1104.00,0.0133
1103.00,0.0137
1102.00,0.0137
1101.00,0.0134
1100.00,0.0128
1099.00,0.0121
1098.00,0.0114
1097.00,0.0107
1096.00,0.0100
1095.00,0.0094
1094.00,0.0089
1093.00,0.0085
1092.00,0.0082
1091.00,0.0080
1090.00,0.0078
1089.00,0.0076
1088.00,0.0074
1087.00,0.0073
1086.00,0.0071
1085.00,0.0071
1084.00,0.0071
1083.00,0.0071
1082.00,0.0071
1081.00,0.0071
1080.00,0.0070
1079.00,0.0069
1078.00,0.0067
1077.00,0.0066
1076.00,0.0065
1075.00,0.0064
1074.00,0.0063
1073.00,0.0062
1072.00,0.0062
1071.00,0.0062
1070.00,0.0063
1069.00,0.0064
1068.00,0.0065
1067.00,0.0066
1066.00,0.0067
1065.00,0.0067
1064.00,0.0067
1063.00,0.0067
1062.00,0.0068
1061.00,0.0069
1060.00,0.0069
1059.00,0.0070
1058.00,0.0070
1057.00,0.0070
1056.00,0.0069
1055.00,0.0070
1054.00,0.0071
1053.00,0.0072
1052.00,0.0073
1051.00,0.0075
1050.00,0.0077
1049.00,0.0079
1048.00,0.0082
1047.00,0.0085
1046.00,0.0087
1045.00,0.0088
1044.00,0.0088
1043.00,0.0088
1042.00,0.0087
1041.00,0.0087
1040.00,0.0086
1039.00,0.0086
1038.00,0.0087
1037.00,0.0089
1036.00,0.0090
1035.00,0.0090
1034.00,0.0090
1033.00,0.0088
1032.00,0.0087
1031.00,0.0086
1030.00,0.0085
1029.00,0.0084
1028.00,0.0083
1027.00,0.0082
1026.00,0.0082
1025.00,0.0081
1024.00,0.0081
1023.00,0.0081
1022.00,0.0081
1021.00,0.0082
1020.00,0.0082
1019.00,0.0083
1018.00,0.0085
1017.00,0.0086
1016.00,0.0088
1015.00,0.0090
1014.00,0.0094
1013.00,0.0098
1012.00,0.0102
1011.00,0.0105
1010.00,0.0107
1009.00,0.0109
1008.00,0.0112
1007.00,0.0116
1006.00,0.0121
1005.00,0.0128
1004.00,0.0139
1003.00,0.0154
1002.00,0.0173
1001.00,0.0196
1000.00,0.0219
999.00,0.0237
998.00,0.0244
997.00,0.0238
996.00,0.0220
995.00,0.0195
994.00,0.0169
993.00,0.0146
992.00,0.0128
991.00,0.0115
990.00,0.0106
989.00,0.0100
988.00,0.0096
987.00,0.0095
986.00,0.0095
985.00,0.0096
984.00,0.0098
983.00,0.0103
982.00,0.0113
981.00,0.0127
980.00,0.0147
979.00,0.0171
978.00,0.0201
977.00,0.0234
976.00,0.0267
975.00,0.0296
974.00,0.0314
973.00,0.0317
972.00,0.0302
971.00,0.0274
970.00,0.0238
969.00,0.0202
968.00,0.0171
967.00,0.0147
966.00,0.0130
965.00,0.0116
964.00,0.0105
963.00,0.0097
962.00,0.0091
961.00,0.0087
960.00,0.0083
959.00,0.0081
958.00,0.0078
957.00,0.0075
956.00,0.0073
955.00,0.0072
954.00,0.0071
953.00,0.0070
952.00,0.0069
951.00,0.0068
950.00,0.0067
949.00,0.0066
948.00,0.0066
947.00,0.0068
946.00,0.0071
945.00,0.0076
944.00,0.0081
943.00,0.0086
942.00,0.0090
941.00,0.0092
940.00,0.0091
939.00,0.0087
938.00,0.0082
937.00,0.0077
936.00,0.0073
935.00,0.0070
934.00,0.0067
933.00,0.0065
932.00,0.0063
931.00,0.0061
930.00,0.0060
929.00,0.0059
928.00,0.0058
927.00,0.0058
926.00,0.0058
925.00,0.0059
924.00,0.0059
923.00,0.0060
922.00,0.0060
921.00,0.0061
920.00,0.0063
919.00,0.0065
918.00,0.0067
917.00,0.0069
916.00,0.0069
915.00,0.0069
914.00,0.0069
913.00,0.0069
912.00,0.0070
911.00,0.0071
910.00,0.0073
909.00,0.0075
908.00,0.0078
907.00,0.0083
906.00,0.0090
905.00,0.0102
904.00,0.0119
903.00,0.0141
902.00,0.0166
901.00,0.0188
900.00,0.0202
899.00,0.0207
898.00,0.0199
897.00,0.0181
896.00,0.0158
895.00,0.0135
894.00,0.0115
893.00,0.0101
892.00,0.0091
891.00,0.0084
890.00,0.0079
889.00,0.0074
888.00,0.0070
887.00,0.0067
886.00,0.0066
885.00,0.0066
884.00,0.0067
883.00,0.0068
882.00,0.0068
881.00,0.0068
880.00,0.0069
879.00,0.0070
878.00,0.0071
877.00,0.0073
876.00,0.0076
875.00,0.0078
874.00,0.0079
873.00,0.0078
872.00,0.0075
871.00,0.0073
870.00,0.0072
869.00,0.0071
868.00,0.0070
867.00,0.0070
866.00,0.0070
865.00,0.0071
864.00,0.0073
863.00,0.0074
862.00,0.0075
861.00,0.0075
860.00,0.0076
859.00,0.0078
858.00,0.0079
857.00,0.0079
856.00,0.0079
855.00,0.0079
854.00,0.0080
853.00,0.0082
852.00,0.0085
851.00,0.0089
850.00,0.0094
849.00,0.0100
848.00,0.0108
847.00,0.0118
846.00,0.0132
845.00,0.0152
844.00,0.0177
843.00,0.0204
842.00,0.0223
841.00,0.0226
840.00,0.0211
839.00,0.0185
838.00,0.0157
837.00,0.0136
836.00,0.0122
835.00,0.0115
834.00,0.0112
833.00,0.0109
832.00,0.0107
831.00,0.0106
830.00,0.0104
829.00,0.0101
828.00,0.0099
827.00,0.0098
826.00,0.0098
825.00,0.0099
824.00,0.0100
823.00,0.0100
822.00,0.0101
821.00,0.0102
820.00,0.0104
819.00,0.0108
818.00,0.0112
817.00,0.0119
816.00,0.0128
815.00,0.0140
814.00,0.0156
813.00,0.0175
812.00,0.0194
811.00,0.0213
810.00,0.0227
809.00,0.0234
808.00,0.0231
807.00,0.0220
806.00,0.0203
805.00,0.0183
804.00,0.0163
803.00,0.0146
802.00,0.0133
801.00,0.0124
800.00,0.0116
799.00,0.0110
798.00,0.0105
797.00,0.0101
796.00,0.0096
795.00,0.0092
794.00,0.0088
793.00,0.0085
792.00,0.0082
791.00,0.0079
790.00,0.0076
789.00,0.0075
788.00,0.0074
787.00,0.0073
786.00,0.0072
785.00,0.0070
784.00,0.0068
783.00,0.0066
782.00,0.0063
781.00,0.0061
780.00,0.0060
779.00,0.0059
778.00,0.0059
777.00,0.0059
776.00,0.0058
775.00,0.0059
774.00,0.0062
773.00,0.0065
772.00,0.0069
771.00,0.0072
770.00,0.0074
769.00,0.0075
768.00,0.0073
767.00,0.0073
766.00,0.0073
765.00,0.0073
764.00,0.0073
763.00,0.0071
762.00,0.0069
761.00,0.0066
760.00,0.0062
759.00,0.0059
758.00,0.0056
757.00,0.0053
756.00,0.0052
755.00,0.0051
754.00,0.0051
753.00,0.0051
752.00,0.0051
751.00,0.0050
750.00,0.0050
749.00,0.0050
748.00,0.0050
747.00,0.0050
746.00,0.0051
745.00,0.0052
744.00,0.0053
743.00,0.0054
742.00,0.0054
741.00,0.0055
740.00,0.0057
739.00,0.0060
738.00,0.0061
737.00,0.0061
736.00,0.0060
735.00,0.0061
734.00,0.0061
733.00,0.0062
732.00,0.0062
731.00,0.0062
730.00,0.0062
729.00,0.0061
728.00,0.0061
727.00,0.0061
726.00,0.0062
725.00,0.0063
724.00,0.0062
723.00,0.0061
722.00,0.0061
721.00,0.0061
720.00,0.0061
719.00,0.0061
718.00,0.0061
717.00,0.0060
716.00,0.0059
715.00,0.0058
714.00,0.0058
713.00,0.0057
712.00,0.0056
711.00,0.0054
710.00,0.0053
709.00,0.0052
708.00,0.0052
707.00,0.0053
706.00,0.0054
705.00,0.0056
704.00,0.0056
703.00,0.0056
702.00,0.0055
701.00,0.0055
700.00,0.0053
699.00,0.0052
698.00,0.0050
697.00,0.0051
696.00,0.0052
695.00,0.0053
694.00,0.0054
693.00,0.0053
692.00,0.0052
691.00,0.0052
690.00,0.0053
689.00,0.0054
688.00,0.0055
687.00,0.0055
686.00,0.0055
685.00,0.0055
684.00,0.0055
683.00,0.0055
682.00,0.0054
681.00,0.0053
680.00,0.0051
679.00,0.0049
678.00,0.0049
677.00,0.0050
676.00,0.0053
675.00,0.0056
674.00,0.0057
673.00,0.0057
672.00,0.0056
671.00,0.0056
670.00,0.0056
669.00,0.0056
668.00,0.0057
667.00,0.0058
666.00,0.0057
665.00,0.0055
664.00,0.0054
663.00,0.0053
662.00,0.0053
661.00,0.0053
660.00,0.0053
659.00,0.0053
658.00,0.0053
657.00,0.0052
656.00,0.0051
655.00,0.0049
654.00,0.0047
653.00,0.0045
652.00,0.0044
651.00,0.0044
650.00,0.0044
649.00,0.0044
648.00,0.0044
647.00,0.0046
646.00,0.0048
645.00,0.0050
644.00,0.0051
643.00,0.0051
642.00,0.0051
641.00,0.0051
640.00,0.0051
639.00,0.0052
638.00,0.0054
637.00,0.0055
636.00,0.0055
635.00,0.0054
634.00,0.0054
633.00,0.0054
632.00,0.0054
631.00,0.0055
630.00,0.0054
629.00,0.0054
628.00,0.0053
627.00,0.0054
626.00,0.0056
625.00,0.0057
624.00,0.0056
623.00,0.0055
622.00,0.0054
621.00,0.0055
620.00,0.0055
619.00,0.0057
618.00,0.0059
617.00,0.0061
616.00,0.0061
615.00,0.0060
614.00,0.0059
613.00,0.0058
612.00,0.0057
611.00,0.0056
610.00,0.0056
609.00,0.0056
608.00,0.0056
607.00,0.0055
606.00,0.0054
605.00,0.0054
604.00,0.0055
603.00,0.0057
602.00,0.0057
601.00,0.0057
600.00,0.0057
599.00,0.0058
598.00,0.0058
597.00,0.0057
596.00,0.0055
595.00,0.0054
594.00,0.0055
593.00,0.0056
592.00,0.0057
591.00,0.0058
590.00,0.0059
589.00,0.0059
588.00,0.0059
587.00,0.0060
586.00,0.0060
585.00,0.0059
584.00,0.0060
583.00,0.0062
582.00,0.0064
581.00,0.0064
580.00,0.0064
579.00,0.0063
578.00,0.0065
577.00,0.0066
576.00,0.0066
575.00,0.0064
574.00,0.0062
573.00,0.0059
572.00,0.0057
571.00,0.0057
570.00,0.0057
569.00,0.0058
568.00,0.0057
567.00,0.0057
566.00,0.0056
565.00,0.0057
564.00,0.0058
563.00,0.0060
562.00,0.0062
561.00,0.0063
560.00,0.0064
559.00,0.0063
558.00,0.0061
557.00,0.0057
556.00,0.0052
555.00,0.0046
554.00,0.0044
553.00,0.0046
552.00,0.0050
551.00,0.0056
550.00,0.0061
549.00,0.0065
548.00,0.0067
547.00,0.0067
546.00,0.0064
545.00,0.0061
544.00,0.0058
543.00,0.0056
542.00,0.0055
541.00,0.0055
540.00,0.0058
539.00,0.0063
538.00,0.0071
537.00,0.0080
536.00,0.0086
535.00,0.0088
534.00,0.0086
533.00,0.0084
532.00,0.0084
531.00,0.0085
530.00,0.0085
529.00,0.0084
528.00,0.0082
527.00,0.0080
526.00,0.0079
525.00,0.0077
524.00,0.0075
523.00,0.0074
522.00,0.0076
521.00,0.0079
520.00,0.0083
519.00,0.0087
518.00,0.0089
517.00,0.0087
516.00,0.0082
515.00,0.0075
514.00,0.0071
513.00,0.0072
512.00,0.0076
511.00,0.0079
510.00,0.0076
509.00,0.0068
508.00,0.0061
507.00,0.0057
506.00,0.0056
505.00,0.0055
504.00,0.0054
503.00,0.0051
502.00,0.0051
501.00,0.0053
500.00,0.0058
499.00,0.0064
498.00,0.0069
497.00,0.0072
496.00,0.0072
495.00,0.0071
494.00,0.0067
493.00,0.0063
492.00,0.0057
491.00,0.0054
490.00,0.0054
489.00,0.0059
488.00,0.0067
487.00,0.0077
486.00,0.0085
485.00,0.0089
484.00,0.0089
483.00,0.0083
482.00,0.0070
481.00,0.0053
480.00,0.0039
479.00,0.0034
478.00,0.0038
477.00,0.0044
476.00,0.0050
475.00,0.0056
474.00,0.0060
473.00,0.0065
472.00,0.0073
471.00,0.0082
470.00,0.0086
469.00,0.0083
468.00,0.0076
467.00,0.0073
466.00,0.0079
465.00,0.0090
464.00,0.0103
463.00,0.0117
462.00,0.0130
461.00,0.0139
460.00,0.0140
459.00,0.0137
458.00,0.0138
457.00,0.0143
456.00,0.0147
455.00,0.0143
454.00,0.0130
453.00,0.0108
452.00,0.0082
451.00,0.0065
450.00,0.0060
