Created as New Dataset,Sample 031 By Administrator Date Friday, September 05 2025
cm-1,A
4000.00,0.0010
3999.00,0.0011
3998.00,0.0011
3997.00,0.0011
3996.00,0.0010
3995.00,0.0010
3994.00,0.0010
3993.00,0.0010
3992.00,0.0010
3991.00,0.0010
3990.00,0.0010
3989.00,0.0010
3988.00,0.0010
3987.00,0.0010
3986.00,0.0009
3985.00,0.0009
3984.00,0.0009
3983.00,0.0009
3982.00,0.0009
3981.00,0.0009
3980.00,0.0008
3979.00,0.0008
3978.00,0.0008
3977.00,0.0009
3976.00,0.0009
3975.00,0.0009
3974.00,0.0008
3973.00,0.0008
3972.00,0.0008
3971.00,0.0008
3970.00,0.0008
3969.00,0.0007
3968.00,0.0007
3967.00,0.0007
3966.00,0.0008
3965.00,0.0008
3964.00,0.0008
3963.00,0.0008
3962.00,0.0009
3961.00,0.0009
3960.00,0.0009
3959.00,0.0008
3958.00,0.0008
3957.00,0.0008
3956.00,0.0008
3955.00,0.0008
3954.00,0.0008
3953.00,0.0008
3952.00,0.0008
3951.00,0.0008
3950.00,0.0008
3949.00,0.0008
3948.00,0.0007
3947.00,0.0007
3946.00,0.0007
3945.00,0.0008
3944.00,0.0008
3943.00,0.0008
3942.00,0.0008
3941.00,0.0008
3940.00,0.0008
3939.00,0.0008
3938.00,0.0008
3937.00,0.0008
3936.00,0.0008
3935.00,0.0008
3934.00,0.0008
3933.00,0.0008
3932.00,0.0008
3931.00,0.0009
3930.00,0.0009
3929.00,0.0009
3928.00,0.0009
3927.00,0.0010
3926.00,0.0010
3925.00,0.0010
3924.00,0.0009
3923.00,0.0009
3922.00,0.0009
3921.00,0.0009
3920.00,0.0009
3919.00,0.0009
3918.00,0.0009
3917.00,0.0008
3916.00,0.0008
3915.00,0.0008
3914.00,0.0008
3913.00,0.0008
3912.00,0.0008
3911.00,0.0008
3910.00,0.0008
3909.00,0.0008
3908.00,0.0008
3907.00,0.0007
3906.00,0.0007
3905.00,0.0007
3904.00,0.0007
3903.00,0.0006
3902.00,0.0007
3901.00,0.0007
3900.00,0.0007
3899.00,0.0007
3898.00,0.0008
3897.00,0.0008
3896.00,0.0007
3895.00,0.0007
3894.00,0.0007
3893.00,0.0007
3892.00,0.0007
3891.00,0.0007
3890.00,0.0008
3889.00,0.0008
3888.00,0.0007
3887.00,0.0007
3886.00,0.0007
3885.00,0.0007
3884.00,0.0007
3883.00,0.0007
3882.00,0.0007
3881.00,0.0007
3880.00,0.0007
3879.00,0.0007
3878.00,0.0007
3877.00,0.0007
3876.00,0.0007
3875.00,0.0008
3874.00,0.0008
3873.00,0.0008
3872.00,0.0008
3871.00,0.0008
3870.00,0.0008
3869.00,0.0008
3868.00,0.0007
3867.00,0.0007
3866.00,0.0006
3865.00,0.0006
3864.00,0.0006
3863.00,0.0007
3862.00,0.0007
3861.00,0.0007
3860.00,0.0007
3859.00,0.0007
3858.00,0.0007
3857.00,0.0007
3856.00,0.0007
3855.00,0.0007
3854.00,0.0007
3853.00,0.0007
3852.00,0.0007
3851.00,0.0007
3850.00,0.0007
3849.00,0.0007
3848.00,0.0007
3847.00,0.0007
3846.00,0.0007
3845.00,0.0007
3844.00,0.0007
3843.00,0.0007
3842.00,0.0007
3841.00,0.0008
3840.00,0.0008
3839.00,0.0008
3838.00,0.0008
3837.00,0.0007
3836.00,0.0007
3835.00,0.0007
3834.00,0.0007
3833.00,0.0008
3832.00,0.0008
3831.00,0.0008
3830.00,0.0008
3829.00,0.0007
3828.00,0.0007
3827.00,0.0006
3826.00,0.0006
3825.00,0.0006
3824.00,0.0006
3823.00,0.0006
3822.00,0.0007
3821.00,0.0007
3820.00,0.0008
3819.00,0.0007
3818.00,0.0007
3817.00,0.0008
3816.00,0.0008
3815.00,0.0008
3814.00,0.0008
3813.00,0.0008
3812.00,0.0008
3811.00,0.0007
3810.00,0.0007
3809.00,0.0007
3808.00,0.0007
3807.00,0.0008
3806.00,0.0008
3805.00,0.0008
3804.00,0.0008
3803.00,0.0008
3802.00,0.0008
3801.00,0.0008
3800.00,0.0008
3799.00,0.0008
3798.00,0.0007
3797.00,0.0007
3796.00,0.0007
3795.00,0.0007
3794.00,0.0007
3793.00,0.0007
3792.00,0.0007
3791.00,0.0007
3790.00,0.0008
3789.00,0.0008
3788.00,0.0008
3787.00,0.0007
3786.00,0.0007
3785.00,0.0007
3784.00,0.0007
3783.00,0.0007
3782.00,0.0007
3781.00,0.0008
3780.00,0.0008
3779.00,0.0008
3778.00,0.0008
3777.00,0.0008
3776.00,0.0008
3775.00,0.0008
3774.00,0.0008
3773.00,0.0008
3772.00,0.0008
3771.00,0.0008
3770.00,0.0008
3769.00,0.0008
3768.00,0.0008
3767.00,0.0008
3766.00,0.0008
3765.00,0.0008
3764.00,0.0008
3763.00,0.0008
3762.00,0.0008
3761.00,0.0008
3760.00,0.0008
3759.00,0.0008
3758.00,0.0007
3757.00,0.0007
3756.00,0.0007
3755.00,0.0007
3754.00,0.0007
3753.00,0.0007
3752.00,0.0007
3751.00,0.0008
3750.00,0.0008
3749.00,0.0008
3748.00,0.0009
3747.00,0.0009
3746.00,0.0008
3745.00,0.0008
3744.00,0.0008
3743.00,0.0007
3742.00,0.0007
3741.00,0.0006
3740.00,0.0006
3739.00,0.0006
3738.00,0.0005
3737.00,0.0005
3736.00,0.0005
3735.00,0.0005
3734.00,0.0005
3733.00,0.0005
3732.00,0.0006
3731.00,0.0006
3730.00,0.0006
3729.00,0.0006
3728.00,0.0006
3727.00,0.0006
3726.00,0.0006
3725.00,0.0006
3724.00,0.0006
3723.00,0.0006
3722.00,0.0006
3721.00,0.0005
3720.00,0.0005
3719.00,0.0005
3718.00,0.0005
3717.00,0.0005
3716.00,0.0006
3715.00,0.0006
3714.00,0.0007
3713.00,0.0007
3712.00,0.0008
3711.00,0.0008
3710.00,0.0007
3709.00,0.0007
3708.00,0.0006
3707.00,0.0006
3706.00,0.0006
3705.00,0.0006
3704.00,0.0006
3703.00,0.0006
3702.00,0.0006
3701.00,0.0005
3700.00,0.0005
3699.00,0.0005
3698.00,0.0005
3697.00,0.0005
3696.00,0.0006
3695.00,0.0006
3694.00,0.0006
3693.00,0.0006
3692.00,0.0006
3691.00,0.0006
3690.00,0.0006
3689.00,0.0005
3688.00,0.0006
3687.00,0.0006
3686.00,0.0006
3685.00,0.0006
3684.00,0.0006
3683.00,0.0006
3682.00,0.0006
3681.00,0.0005
3680.00,0.0005
3679.00,0.0004
3678.00,0.0004
3677.00,0.0003
3676.00,0.0002
3675.00,0.0002
3674.00,0.0001
3673.00,0.0001
3672.00,0.0001
3671.00,0.0001
3670.00,0.0001
3669.00,0.0001
3668.00,0.0001
3667.00,0.0001
3666.00,0.0002
3665.00,0.0002
3664.00,0.0001
3663.00,0.0001
3662.00,0.0001
3661.00,0.0000
3660.00,-0.0000
3659.00,-0.0000
3658.00,-0.0000
3657.00,-0.0000
3656.00,0.0000
3655.00,-0.0000
3654.00,-0.0001
3653.00,-0.0001
3652.00,-0.0001
3651.00,-0.0001
3650.00,0.0000
3649.00,0.0001
3648.00,0.0002
3647.00,0.0002
3646.00,0.0002
3645.00,0.0001
3644.00,0.0002
3643.00,0.0002
3642.00,0.0003
3641.00,0.0003
3640.00,0.0004
3639.00,0.0004
3638.00,0.0004
3637.00,0.0003
3636.00,0.0003
3635.00,0.0003
3634.00,0.0004
3633.00,0.0004
3632.00,0.0004
3631.00,0.0004
3630.00,0.0004
3629.00,0.0004
3628.00,0.0005
3627.00,0.0005
3626.00,0.0005
3625.00,0.0005
3624.00,0.0005
3623.00,0.0005
3622.00,0.0005
3621.00,0.0005
3620.00,0.0005
3619.00,0.0005
3618.00,0.0006
3617.00,0.0006
3616.00,0.0007
3615.00,0.0007
3614.00,0.0007
3613.00,0.0007
3612.00,0.0007
3611.00,0.0007
3610.00,0.0007
3609.00,0.0007
3608.00,0.0008
3607.00,0.0008
3606.00,0.0009
3605.00,0.0009
3604.00,0.0009
3603.00,0.0009
3602.00,0.0009
3601.00,0.0010
3600.00,0.0010
3599.00,0.0009
3598.00,0.0009
3597.00,0.0009
3596.00,0.0009
3595.00,0.0010
3594.00,0.0010
3593.00,0.0010
3592.00,0.0010
3591.00,0.0009
3590.00,0.0009
3589.00,0.0009
3588.00,0.0010
3587.00,0.0010
3586.00,0.0011
3585.00,0.0012
3584.00,0.0012
3583.00,0.0012
3582.00,0.0011
3581.00,0.0012
3580.00,0.0012
3579.00,0.0012
3578.00,0.0012
3577.00,0.0011
3576.00,0.0012
3575.00,0.0012
3574.00,0.0012
3573.00,0.0013
3572.00,0.0013
3571.00,0.0013
3570.00,0.0013
3569.00,0.0014
3568.00,0.0014
3567.00,0.0014
3566.00,0.0015
3565.00,0.0015
3564.00,0.0015
3563.00,0.0015
3562.00,0.0015
3561.00,0.0015
3560.00,0.0015
3559.00,0.0016
3558.00,0.0016
3557.00,0.0016
3556.00,0.0017
3555.00,0.0017
3554.00,0.0017
3553.00,0.0017
3552.00,0.0016
3551.00,0.0016
3550.00,0.0016
3549.00,0.0016
3548.00,0.0017
3547.00,0.0017
3546.00,0.0017
3545.00,0.0017
3544.00,0.0017
3543.00,0.0017
3542.00,0.0018
3541.00,0.0018
3540.00,0.0018
3539.00,0.0018
3538.00,0.0018
3537.00,0.0018
3536.00,0.0019
3535.00,0.0019
3534.00,0.0020
3533.00,0.0020
3532.00,0.0020
3531.00,0.0020
3530.00,0.0020
3529.00,0.0020
3528.00,0.0021
3527.00,0.0021
3526.00,0.0022
3525.00,0.0022
3524.00,0.0022
3523.00,0.0021
3522.00,0.0021
3521.00,0.0021
3520.00,0.0022
3519.00,0.0022
3518.00,0.0022
3517.00,0.0023
3516.00,0.0023
3515.00,0.0023
3514.00,0.0023
3513.00,0.0023
3512.00,0.0023
3511.00,0.0023
3510.00,0.0023
3509.00,0.0023
3508.00,0.0023
3507.00,0.0024
3506.00,0.0024
3505.00,0.0024
3504.00,0.0024
3503.00,0.0025
3502.00,0.0025
3501.00,0.0025
3500.00,0.0025
3499.00,0.0024
3498.00,0.0024
3497.00,0.0024
3496.00,0.0024
3495.00,0.0025
3494.00,0.0025
3493.00,0.0026
3492.00,0.0026
3491.00,0.0026
3490.00,0.0026
3489.00,0.0026
3488.00,0.0026
3487.00,0.0026
3486.00,0.0026
3485.00,0.0026
3484.00,0.0027
3483.00,0.0027
3482.00,0.0027
3481.00,0.0027
3480.00,0.0027
3479.00,0.0027
3478.00,0.0027
3477.00,0.0027
3476.00,0.0028
3475.00,0.0028
3474.00,0.0028
3473.00,0.0028
3472.00,0.0028
3471.00,0.0028
3470.00,0.0028
3469.00,0.0028
3468.00,0.0028
3467.00,0.0029
3466.00,0.0029
3465.00,0.0029
3464.00,0.0029
3463.00,0.0030
3462.00,0.0030
3461.00,0.0030
3460.00,0.0030
3459.00,0.0030
3458.00,0.0030
3457.00,0.0030
3456.00,0.0030
3455.00,0.0031
3454.00,0.0031
3453.00,0.0031
3452.00,0.0031
3451.00,0.0032
3450.00,0.0032
3449.00,0.0032
3448.00,0.0032
3447.00,0.0032
3446.00,0.0032
3445.00,0.0032
3444.00,0.0033
3443.00,0.0033
3442.00,0.0033
3441.00,0.0033
3440.00,0.0033
3439.00,0.0033
3438.00,0.0034
3437.00,0.0034
3436.00,0.0035
3435.00,0.0035
3434.00,0.0035
3433.00,0.0035
3432.00,0.0035
3431.00,0.0035
3430.00,0.0035
3429.00,0.0036
3428.00,0.0036
3427.00,0.0037
3426.00,0.0037
3425.00,0.0037
3424.00,0.0037
3423.00,0.0037
3422.00,0.0037
3421.00,0.0037
3420.00,0.0038
3419.00,0.0038
3418.00,0.0038
3417.00,0.0038
3416.00,0.0038
3415.00,0.0038
3414.00,0.0039
3413.00,0.0039
3412.00,0.0040
3411.00,0.0040
3410.00,0.0040
3409.00,0.0041
3408.00,0.0041
3407.00,0.0041
3406.00,0.0042
3405.00,0.0042
3404.00,0.0043
3403.00,0.0043
3402.00,0.0044
3401.00,0.0044
3400.00,0.0045
3399.00,0.0045
3398.00,0.0046
3397.00,0.0046
3396.00,0.0047
3395.00,0.0047
3394.00,0.0047
3393.00,0.0047
3392.00,0.0046
3391.00,0.0046
3390.00,0.0045
3389.00,0.0045
3388.00,0.0044
3387.00,0.0044
3386.00,0.0044
3385.00,0.0044
3384.00,0.0044
3383.00,0.0043
3382.00,0.0043
3381.00,0.0043
3380.00,0.0043
3379.00,0.0042
3378.00,0.0042
3377.00,0.0042
3376.00,0.0042
3375.00,0.0042
3374.00,0.0042
3373.00,0.0042
3372.00,0.0042
3371.00,0.0042
3370.00,0.0042
3369.00,0.0042
3368.00,0.0042
3367.00,0.0042
3366.00,0.0042
3365.00,0.0043
3364.00,0.0043
3363.00,0.0043
3362.00,0.0043
3361.00,0.0043
3360.00,0.0043
3359.00,0.0043
3358.00,0.0043
3357.00,0.0043
3356.00,0.0043
3355.00,0.0043
3354.00,0.0043
3353.00,0.0042
3352.00,0.0042
3351.00,0.0042
3350.00,0.0042
3349.00,0.0043
3348.00,0.0043
3347.00,0.0044
3346.00,0.0044
3345.00,0.0044
3344.00,0.0044
3343.00,0.0044
3342.00,0.0043
3341.00,0.0043
3340.00,0.0043
3339.00,0.0043
3338.00,0.0043
3337.00,0.0043
3336.00,0.0043
3335.00,0.0043
3334.00,0.0043
3333.00,0.0043
3332.00,0.0042
3331.00,0.0042
3330.00,0.0042
3329.00,0.0042
3328.00,0.0043
3327.00,0.0043
3326.00,0.0042
3325.00,0.0042
3324.00,0.0042
3323.00,0.0042
3322.00,0.0042
3321.00,0.0042
3320.00,0.0043
3319.00,0.0043
3318.00,0.0044
3317.00,0.0044
3316.00,0.0043
3315.00,0.0043
3314.00,0.0043
3313.00,0.0043
3312.00,0.0043
3311.00,0.0043
3310.00,0.0043
3309.00,0.0043
3308.00,0.0043
3307.00,0.0043
3306.00,0.0043
3305.00,0.0043
3304.00,0.0043
3303.00,0.0044
3302.00,0.0044
3301.00,0.0044
3300.00,0.0044
3299.00,0.0044
3298.00,0.0044
3297.00,0.0044
3296.00,0.0043
3295.00,0.0043
3294.00,0.0043
3293.00,0.0043
3292.00,0.0043
3291.00,0.0043
3290.00,0.0043
3289.00,0.0043
3288.00,0.0043
3287.00,0.0043
3286.00,0.0043
3285.00,0.0043
3284.00,0.0043
3283.00,0.0042
3282.00,0.0042
3281.00,0.0042
3280.00,0.0042
3279.00,0.0042
3278.00,0.0042
3277.00,0.0042
3276.00,0.0042
3275.00,0.0042
3274.00,0.0041
3273.00,0.0041
3272.00,0.0041
3271.00,0.0041
3270.00,0.0041
3269.00,0.0041
3268.00,0.0041
3267.00,0.0041
3266.00,0.0040
3265.00,0.0040
3264.00,0.0040
3263.00,0.0039
3262.00,0.0039
3261.00,0.0039
3260.00,0.0039
3259.00,0.0039
3258.00,0.0039
3257.00,0.0039
3256.00,0.0039
3255.00,0.0040
3254.00,0.0040
3253.00,0.0040
3252.00,0.0040
3251.00,0.0039
3250.00,0.0039
3249.00,0.0039
3248.00,0.0038
3247.00,0.0039
3246.00,0.0039
3245.00,0.0039
3244.00,0.0039
3243.00,0.0039
3242.00,0.0038
3241.00,0.0038
3240.00,0.0038
3239.00,0.0038
3238.00,0.0038
3237.00,0.0038
3236.00,0.0037
3235.00,0.0037
3234.00,0.0037
3233.00,0.0038
3232.00,0.0038
3231.00,0.0039
3230.00,0.0039
3229.00,0.0039
3228.00,0.0039
3227.00,0.0040
3226.00,0.0040
3225.00,0.0040
3224.00,0.0040
3223.00,0.0040
3222.00,0.0040
3221.00,0.0041
3220.00,0.0041
3219.00,0.0042
3218.00,0.0042
3217.00,0.0042
3216.00,0.0042
3215.00,0.0042
3214.00,0.0042
3213.00,0.0042
3212.00,0.0042
3211.00,0.0043
3210.00,0.0043
3209.00,0.0043
3208.00,0.0044
3207.00,0.0044
3206.00,0.0044
3205.00,0.0044
3204.00,0.0044
3203.00,0.0044
3202.00,0.0044
3201.00,0.0044
3200.00,0.0045
3199.00,0.0045
3198.00,0.0045
3197.00,0.0045
3196.00,0.0046
3195.00,0.0046
3194.00,0.0046
3193.00,0.0046
3192.00,0.0045
3191.00,0.0045
3190.00,0.0046
3189.00,0.0046
3188.00,0.0046
3187.00,0.0046
3186.00,0.0045
3185.00,0.0044
3184.00,0.0044
3183.00,0.0043
3182.00,0.0043
3181.00,0.0044
3180.00,0.0044
3179.00,0.0043
3178.00,0.0043
3177.00,0.0042
3176.00,0.0042
3175.00,0.0042
3174.00,0.0042
3173.00,0.0041
3172.00,0.0041
3171.00,0.0041
3170.00,0.0040
3169.00,0.0040
3168.00,0.0040
3167.00,0.0040
3166.00,0.0040
3165.00,0.0040
3164.00,0.0040
3163.00,0.0040
3162.00,0.0039
3161.00,0.0039
3160.00,0.0039
3159.00,0.0039
3158.00,0.0039
3157.00,0.0039
3156.00,0.0039
3155.00,0.0038
3154.00,0.0038
3153.00,0.0038
3152.00,0.0037
3151.00,0.0037
3150.00,0.0037
3149.00,0.0038
3148.00,0.0038
3147.00,0.0038
3146.00,0.0038
3145.00,0.0038
3144.00,0.0038
3143.00,0.0037
3142.00,0.0037
3141.00,0.0037
3140.00,0.0037
3139.00,0.0036
3138.00,0.0036
3137.00,0.0036
3136.00,0.0036
3135.00,0.0036
3134.00,0.0036
3133.00,0.0036
3132.00,0.0036
3131.00,0.0036
3130.00,0.0035
3129.00,0.0035
3128.00,0.0034
3127.00,0.0033
3126.00,0.0033
3125.00,0.0032
3124.00,0.0032
3123.00,0.0032
3122.00,0.0032
3121.00,0.0031
3120.00,0.0031
3119.00,0.0032
3118.00,0.0032
3117.00,0.0032
3116.00,0.0032
3115.00,0.0032
3114.00,0.0032
3113.00,0.0032
3112.00,0.0031
3111.00,0.0031
3110.00,0.0031
3109.00,0.0031
3108.00,0.0031
3107.00,0.0031
3106.00,0.0032
3105.00,0.0032
3104.00,0.0031
3103.00,0.0031
3102.00,0.0031
3101.00,0.0031
3100.00,0.0030
3099.00,0.0030
3098.00,0.0030
3097.00,0.0030
3096.00,0.0030
3095.00,0.0030
3094.00,0.0030
3093.00,0.0030
3092.00,0.0030
3091.00,0.0030
3090.00,0.0030
3089.00,0.0030
3088.00,0.0030
3087.00,0.0030
3086.00,0.0030
3085.00,0.0030
3084.00,0.0030
3083.00,0.0029
3082.00,0.0030
3081.00,0.0030
3080.00,0.0030
3079.00,0.0029
3078.00,0.0030
3077.00,0.0030
3076.00,0.0030
3075.00,0.0031
3074.00,0.0031
3073.00,0.0031
3072.00,0.0031
3071.00,0.0031
3070.00,0.0031
3069.00,0.0032
3068.00,0.0032
3067.00,0.0032
3066.00,0.0032
3065.00,0.0033
3064.00,0.0033
3063.00,0.0033
3062.00,0.0032
3061.00,0.0032
3060.00,0.0032
3059.00,0.0033
3058.00,0.0033
3057.00,0.0033
3056.00,0.0033
3055.00,0.0033
3054.00,0.0033
3053.00,0.0033
3052.00,0.0034
3051.00,0.0034
3050.00,0.0034
3049.00,0.0035
3048.00,0.0035
3047.00,0.0035
3046.00,0.0035
3045.00,0.0035
3044.00,0.0036
3043.00,0.0036
3042.00,0.0037
3041.00,0.0037
3040.00,0.0037
3039.00,0.0037
3038.00,0.0038
3037.00,0.0038
3036.00,0.0038
3035.00,0.0038
3034.00,0.0038
3033.00,0.0038
3032.00,0.0039
3031.00,0.0039
3030.00,0.0039
3029.00,0.0040
3028.00,0.0040
3027.00,0.0041
3026.00,0.0041
3025.00,0.0042
3024.00,0.0042
3023.00,0.0043
3022.00,0.0044
3021.00,0.0044
3020.00,0.0045
3019.00,0.0046
3018.00,0.0046
3017.00,0.0047
3016.00,0.0047
3015.00,0.0047
3014.00,0.0048
3013.00,0.0048
3012.00,0.0049
3011.00,0.0049
3010.00,0.0049
3009.00,0.0049
3008.00,0.0049
3007.00,0.0050
3006.00,0.0050
3005.00,0.0051
3004.00,0.0052
3003.00,0.0052
3002.00,0.0052
3001.00,0.0053
3000.00,0.0054
2999.00,0.0055
2998.00,0.0057
2997.00,0.0059
2996.00,0.0061
2995.00,0.0064
2994.00,0.0068
2993.00,0.0072
2992.00,0.0077
2991.00,0.0082
2990.00,0.0088
2989.00,0.0094
2988.00,0.0101
2987.00,0.0107
2986.00,0.0114
2985.00,0.0121
2984.00,0.0129
2983.00,0.0137
2982.00,0.0150
2981.00,0.0166
2980.00,0.0186
2979.00,0.0210
2978.00,0.0237
2977.00,0.0266
2976.00,0.0299
2975.00,0.0335
2974.00,0.0374
2973.00,0.0419
2972.00,0.0470
2971.00,0.0527
2970.00,0.0591
2969.00,0.0660
2968.00,0.0733
2967.00,0.0809
2966.00,0.0887
2965.00,0.0964
2964.00,0.1038
2963.00,0.1104
2962.00,0.1163
2961.00,0.1213
2960.00,0.1258
2959.00,0.1302
2958.00,0.1349
2957.00,0.1404
2956.00,0.1471
2955.00,0.1551
2954.00,0.1641
2953.00,0.1737
2952.00,0.1828
2951.00,0.1903
2950.00,0.1949
2949.00,0.1955
2948.00,0.1916
2947.00,0.1834
2946.00,0.1717
2945.00,0.1581
2944.00,0.1444
2943.00,0.1319
2942.00,0.1217
2941.00,0.1141
2940.00,0.1093
2939.00,0.1071
2938.00,0.1072
2937.00,0.1093
2936.00,0.1132
2935.00,0.1188
2934.00,0.1259
2933.00,0.1344
2932.00,0.1443
2931.00,0.1551
2930.00,0.1668
2929.00,0.1788
2928.00,0.1910
2927.00,0.2031
2926.00,0.2149
2925.00,0.2264
2924.00,0.2376
2923.00,0.2487
2922.00,0.2599
2921.00,0.2708
2920.00,0.2809
2919.00,0.2892
2918.00,0.2946
2917.00,0.2958
2916.00,0.2925
2915.00,0.2850
2914.00,0.2744
2913.00,0.2619
2912.00,0.2488
2911.00,0.2362
2910.00,0.2245
2909.00,0.2138
2908.00,0.2038
2907.00,0.1946
2906.00,0.1857
2905.00,0.1771
2904.00,0.1688
2903.00,0.1608
2902.00,0.1530
2901.00,0.1456
2900.00,0.1387
2899.00,0.1322
2898.00,0.1262
2897.00,0.1208
2896.00,0.1161
2895.00,0.1121
2894.00,0.1088
2893.00,0.1063
2892.00,0.1046
2891.00,0.1035
2890.00,0.1030
2889.00,0.1030
2888.00,0.1035
2887.00,0.1045
2886.00,0.1057
2885.00,0.1074
2884.00,0.1096
2883.00,0.1123
2882.00,0.1156
2881.00,0.1194
2880.00,0.1232
2879.00,0.1265
2878.00,0.1290
2877.00,0.1303
2876.00,0.1305
2875.00,0.1299
2874.00,0.1291
2873.00,0.1287
2872.00,0.1292
2871.00,0.1305
2870.00,0.1326
2869.00,0.1349
2868.00,0.1367
2867.00,0.1369
2866.00,0.1346
2865.00,0.1294
2864.00,0.1213
2863.00,0.1114
2862.00,0.1009
2861.00,0.0908
2860.00,0.0820
2859.00,0.0749
2858.00,0.0695
2857.00,0.0655
2856.00,0.0629
2855.00,0.0614
2854.00,0.0609
2853.00,0.0611
2852.00,0.0621
2851.00,0.0636
2850.00,0.0657
2849.00,0.0682
2848.00,0.0712
2847.00,0.0748
2846.00,0.0792
2845.00,0.0845
2844.00,0.0906
2843.00,0.0974
2842.00,0.1046
2841.00,0.1114
2840.00,0.1171
2839.00,0.1210
2838.00,0.1221
2837.00,0.1199
2836.00,0.1143
2835.00,0.1057
2834.00,0.0953
2833.00,0.0842
2832.00,0.0735
2831.00,0.0640
2830.00,0.0559
2829.00,0.0492
2828.00,0.0439
2827.00,0.0395
2826.00,0.0360
2825.00,0.0332
2824.00,0.0308
2823.00,0.0289
2822.00,0.0272
2821.00,0.0258
2820.00,0.0245
2819.00,0.0234
2818.00,0.0225
2817.00,0.0217
2816.00,0.0209
2815.00,0.0203
2814.00,0.0197
2813.00,0.0191
2812.00,0.0185
2811.00,0.0179
2810.00,0.0174
2809.00,0.0167
2808.00,0.0161
2807.00,0.0154
2806.00,0.0148
2805.00,0.0142
2804.00,0.0135
2803.00,0.0129
2802.00,0.0124
2801.00,0.0119
2800.00,0.0114
2799.00,0.0111
2798.00,0.0108
2797.00,0.0106
2796.00,0.0103
2795.00,0.0101
2794.00,0.0098
2793.00,0.0095
2792.00,0.0093
2791.00,0.0090
2790.00,0.0087
2789.00,0.0084
2788.00,0.0082
2787.00,0.0079
2786.00,0.0077
2785.00,0.0075
2784.00,0.0073
2783.00,0.0071
2782.00,0.0069
2781.00,0.0067
2780.00,0.0065
2779.00,0.0063
2778.00,0.0062
2777.00,0.0061
2776.00,0.0060
2775.00,0.0059
2774.00,0.0058
2773.00,0.0058
2772.00,0.0057
2771.00,0.0057
2770.00,0.0057
2769.00,0.0057
2768.00,0.0056
2767.00,0.0056
2766.00,0.0055
2765.00,0.0055
2764.00,0.0054
2763.00,0.0054
2762.00,0.0054
2761.00,0.0054
2760.00,0.0054
2759.00,0.0053
2758.00,0.0053
2757.00,0.0053
2756.00,0.0052
2755.00,0.0052
2754.00,0.0052
2753.00,0.0052
2752.00,0.0052
2751.00,0.0052
2750.00,0.0052
2749.00,0.0052
2748.00,0.0052
2747.00,0.0052
2746.00,0.0052
2745.00,0.0053
2744.00,0.0054
2743.00,0.0054
2742.00,0.0055
2741.00,0.0056
2740.00,0.0058
2739.00,0.0060
2738.00,0.0061
2737.00,0.0063
2736.00,0.0064
2735.00,0.0066
2734.00,0.0067
2733.00,0.0069
2732.00,0.0071
2731.00,0.0074
2730.00,0.0076
2729.00,0.0079
2728.00,0.0082
2727.00,0.0086
2726.00,0.0089
2725.00,0.0091
2724.00,0.0093
2723.00,0.0093
2722.00,0.0092
2721.00,0.0090
2720.00,0.0087
2719.00,0.0083
2718.00,0.0079
2717.00,0.0076
2716.00,0.0073
2715.00,0.0070
2714.00,0.0067
2713.00,0.0064
2712.00,0.0062
2711.00,0.0060
2710.00,0.0058
2709.00,0.0057
2708.00,0.0055
2707.00,0.0054
2706.00,0.0052
2705.00,0.0051
2704.00,0.0049
2703.00,0.0048
2702.00,0.0047
2701.00,0.0047
2700.00,0.0046
2699.00,0.0046
2698.00,0.0046
2697.00,0.0045
2696.00,0.0045
2695.00,0.0045
2694.00,0.0044
2693.00,0.0044
2692.00,0.0044
2691.00,0.0044
2690.00,0.0044
2689.00,0.0044
2688.00,0.0044
2687.00,0.0044
2686.00,0.0044
2685.00,0.0044
2684.00,0.0045
2683.00,0.0045
2682.00,0.0045
2681.00,0.0045
2680.00,0.0045
2679.00,0.0045
2678.00,0.0045
2677.00,0.0045
2676.00,0.0045
2675.00,0.0045
2674.00,0.0045
2673.00,0.0045
2672.00,0.0044
2671.00,0.0044
2670.00,0.0044
2669.00,0.0045
2668.00,0.0045
2667.00,0.0045
2666.00,0.0046
2665.00,0.0046
2664.00,0.0046
2663.00,0.0047
2662.00,0.0047
2661.00,0.0047
2660.00,0.0048
2659.00,0.0048
2658.00,0.0048
2657.00,0.0048
2656.00,0.0047
2655.00,0.0047
2654.00,0.0046
2653.00,0.0045
2652.00,0.0045
2651.00,0.0044
2650.00,0.0044
2649.00,0.0044
2648.00,0.0043
2647.00,0.0043
2646.00,0.0042
2645.00,0.0042
2644.00,0.0041
2643.00,0.0041
2642.00,0.0040
2641.00,0.0040
2640.00,0.0039
2639.00,0.0039
2638.00,0.0039
2637.00,0.0038
2636.00,0.0039
2635.00,0.0039
2634.00,0.0039
2633.00,0.0039
2632.00,0.0040
2631.00,0.0040
2630.00,0.0040
2629.00,0.0040
2628.00,0.0040
2627.00,0.0040
2626.00,0.0040
2625.00,0.0040
2624.00,0.0040
2623.00,0.0041
2622.00,0.0042
2621.00,0.0042
2620.00,0.0043
2619.00,0.0043
2618.00,0.0042
2617.00,0.0042
2616.00,0.0041
2615.00,0.0041
2614.00,0.0041
2613.00,0.0041
2612.00,0.0040
2611.00,0.0039
2610.00,0.0039
2609.00,0.0038
2608.00,0.0038
2607.00,0.0037
2606.00,0.0036
2605.00,0.0036
2604.00,0.0035
2603.00,0.0034
2602.00,0.0034
2601.00,0.0034
2600.00,0.0034
2599.00,0.0034
2598.00,0.0034
2597.00,0.0034
2596.00,0.0034
2595.00,0.0034
2594.00,0.0034
2593.00,0.0034
2592.00,0.0035
2591.00,0.0035
2590.00,0.0036
2589.00,0.0037
2588.00,0.0039
2587.00,0.0040
2586.00,0.0041
2585.00,0.0041
2584.00,0.0042
2583.00,0.0042
2582.00,0.0042
2581.00,0.0042
2580.00,0.0041
2579.00,0.0040
2578.00,0.0039
2577.00,0.0038
2576.00,0.0036
2575.00,0.0035
2574.00,0.0034
2573.00,0.0033
2572.00,0.0032
2571.00,0.0031
2570.00,0.0030
2569.00,0.0029
2568.00,0.0029
2567.00,0.0028
2566.00,0.0027
2565.00,0.0027
2564.00,0.0026
2563.00,0.0026
2562.00,0.0025
2561.00,0.0025
2560.00,0.0025
2559.00,0.0025
2558.00,0.0025
2557.00,0.0024
2556.00,0.0023
2555.00,0.0023
2554.00,0.0023
2553.00,0.0023
2552.00,0.0023
2551.00,0.0023
2550.00,0.0022
2549.00,0.0021
2548.00,0.0021
2547.00,0.0020
2546.00,0.0020
2545.00,0.0019
2544.00,0.0019
2543.00,0.0019
2542.00,0.0019
2541.00,0.0019
2540.00,0.0018
2539.00,0.0018
2538.00,0.0018
2537.00,0.0018
2536.00,0.0018
2535.00,0.0018
2534.00,0.0017
2533.00,0.0016
2532.00,0.0016
2531.00,0.0015
2530.00,0.0015
2529.00,0.0015
2528.00,0.0015
2527.00,0.0016
2526.00,0.0016
2525.00,0.0016
2524.00,0.0016
2523.00,0.0015
2522.00,0.0015
2521.00,0.0014
2520.00,0.0014
2519.00,0.0014
2518.00,0.0014
2517.00,0.0013
2516.00,0.0013
2515.00,0.0012
2514.00,0.0012
2513.00,0.0012
2512.00,0.0012
2511.00,0.0012
2510.00,0.0011
2509.00,0.0011
2508.00,0.0010
2507.00,0.0010
2506.00,0.0010
2505.00,0.0010
2504.00,0.0010
2503.00,0.0011
2502.00,0.0011
2501.00,0.0012
2500.00,0.0012
2499.00,0.0011
2498.00,0.0011
2497.00,0.0011
2496.00,0.0011
2495.00,0.0012
2494.00,0.0012
2493.00,0.0013
2492.00,0.0013
2491.00,0.0013
2490.00,0.0013
2489.00,0.0013
2488.00,0.0012
2487.00,0.0012
2486.00,0.0012
2485.00,0.0012
2484.00,0.0012
2483.00,0.0011
2482.00,0.0011
2481.00,0.0011
2480.00,0.0011
2479.00,0.0010
2478.00,0.0010
2477.00,0.0010
2476.00,0.0010
2475.00,0.0010
2474.00,0.0010
2473.00,0.0010
2472.00,0.0011
2471.00,0.0011
2470.00,0.0011
2469.00,0.0011
2468.00,0.0011
2467.00,0.0011
2466.00,0.0011
2465.00,0.0011
2464.00,0.0011
2463.00,0.0012
2462.00,0.0012
2461.00,0.0012
2460.00,0.0013
2459.00,0.0013
2458.00,0.0013
2457.00,0.0013
2456.00,0.0012
2455.00,0.0012
2454.00,0.0012
2453.00,0.0012
2452.00,0.0012
2451.00,0.0012
2450.00,0.0012
2449.00,0.0012
2448.00,0.0011
2447.00,0.0011
2446.00,0.0011
2445.00,0.0010
2444.00,0.0011
2443.00,0.0011
2442.00,0.0011
2441.00,0.0011
2440.00,0.0012
2439.00,0.0012
2438.00,0.0012
2437.00,0.0012
2436.00,0.0013
2435.00,0.0013
2434.00,0.0013
2433.00,0.0013
2432.00,0.0013
2431.00,0.0012
2430.00,0.0012
2429.00,0.0012
2428.00,0.0012
2427.00,0.0012
2426.00,0.0012
2425.00,0.0012
2424.00,0.0012
2423.00,0.0012
2422.00,0.0012
2421.00,0.0012
2420.00,0.0012
2419.00,0.0012
2418.00,0.0012
2417.00,0.0011
2416.00,0.0011
2415.00,0.0011
2414.00,0.0011
2413.00,0.0011
2412.00,0.0011
2411.00,0.0012
2410.00,0.0012
2409.00,0.0013
2408.00,0.0012
2407.00,0.0012
2406.00,0.0011
2405.00,0.0010
2404.00,0.0009
2403.00,0.0009
2402.00,0.0009
2401.00,0.0009
2400.00,0.0009
2399.00,0.0009
2398.00,0.0009
2397.00,0.0009
2396.00,0.0009
2395.00,0.0009
2394.00,0.0009
2393.00,0.0009
2392.00,0.0009
2391.00,0.0008
2390.00,0.0008
2389.00,0.0008
2388.00,0.0008
2387.00,0.0007
2386.00,0.0007
2385.00,0.0006
2384.00,0.0006
2383.00,0.0005
2382.00,0.0004
2381.00,0.0004
2380.00,0.0003
2379.00,0.0003
2378.00,0.0002
2377.00,0.0003
2376.00,0.0003
2375.00,0.0003
2374.00,0.0004
2373.00,0.0004
2372.00,0.0004
2371.00,0.0004
2370.00,0.0004
2369.00,0.0003
2368.00,0.0003
2367.00,0.0003
2366.00,0.0003
2365.00,0.0003
2364.00,0.0003
2363.00,0.0004
2362.00,0.0004
2361.00,0.0004
2360.00,0.0004
2359.00,0.0003
2358.00,0.0003
2357.00,0.0003
2356.00,0.0004
2355.00,0.0004
2354.00,0.0004
2353.00,0.0004
2352.00,0.0004
2351.00,0.0003
2350.00,0.0004
2349.00,0.0004
2348.00,0.0004
2347.00,0.0004
2346.00,0.0004
2345.00,0.0005
2344.00,0.0006
2343.00,0.0007
2342.00,0.0007
2341.00,0.0007
2340.00,0.0007
2339.00,0.0006
2338.00,0.0006
2337.00,0.0005
2336.00,0.0005
2335.00,0.0006
2334.00,0.0006
2333.00,0.0006
2332.00,0.0006
2331.00,0.0005
2330.00,0.0005
2329.00,0.0005
2328.00,0.0007
2327.00,0.0011
2326.00,0.0015
2325.00,0.0020
2324.00,0.0022
2323.00,0.0022
2322.00,0.0020
2321.00,0.0018
2320.00,0.0016
2319.00,0.0015
2318.00,0.0014
2317.00,0.0013
2316.00,0.0013
2315.00,0.0012
2314.00,0.0011
2313.00,0.0011
2312.00,0.0010
2311.00,0.0010
2310.00,0.0009
2309.00,0.0009
2308.00,0.0009
2307.00,0.0009
2306.00,0.0010
2305.00,0.0010
2304.00,0.0011
2303.00,0.0011
2302.00,0.0010
2301.00,0.0010
2300.00,0.0010
2299.00,0.0010
2298.00,0.0011
2297.00,0.0011
2296.00,0.0012
2295.00,0.0012
2294.00,0.0013
2293.00,0.0014
2292.00,0.0015
2291.00,0.0016
2290.00,0.0017
2289.00,0.0017
2288.00,0.0018
2287.00,0.0019
2286.00,0.0019
2285.00,0.0019
2284.00,0.0019
2283.00,0.0018
2282.00,0.0017
2281.00,0.0017
2280.00,0.0017
2279.00,0.0016
2278.00,0.0016
2277.00,0.0014
2276.00,0.0014
2275.00,0.0013
2274.00,0.0013
2273.00,0.0014
2272.00,0.0014
2271.00,0.0014
2270.00,0.0014
2269.00,0.0015
2268.00,0.0016
2267.00,0.0015
2266.00,0.0015
2265.00,0.0014
2264.00,0.0014
2263.00,0.0014
2262.00,0.0014
2261.00,0.0014
2260.00,0.0014
2259.00,0.0015
2258.00,0.0015
2257.00,0.0015
2256.00,0.0014
2255.00,0.0012
2254.00,0.0010
2253.00,0.0008
2252.00,0.0007
2251.00,0.0006
2250.00,0.0006
2249.00,0.0008
2248.00,0.0009
2247.00,0.0011
2246.00,0.0012
2245.00,0.0011
2244.00,0.0010
2243.00,0.0009
2242.00,0.0008
2241.00,0.0008
2240.00,0.0009
2239.00,0.0010
2238.00,0.0011
2237.00,0.0012
2236.00,0.0012
2235.00,0.0012
2234.00,0.0012
2233.00,0.0012
2232.00,0.0011
2231.00,0.0010
2230.00,0.0009
2229.00,0.0007
2228.00,0.0007
2227.00,0.0007
2226.00,0.0008
2225.00,0.0009
2224.00,0.0009
2223.00,0.0010
2222.00,0.0010
2221.00,0.0011
2220.00,0.0011
2219.00,0.0012
2218.00,0.0012
2217.00,0.0011
2216.00,0.0010
2215.00,0.0009
2214.00,0.0008
2213.00,0.0008
2212.00,0.0007
2211.00,0.0007
2210.00,0.0006
2209.00,0.0005
2208.00,0.0003
2207.00,0.0002
2206.00,0.0001
2205.00,0.0003
2204.00,0.0005
2203.00,0.0007
2202.00,0.0008
2201.00,0.0008
2200.00,0.0008
2199.00,0.0008
2198.00,0.0008
2197.00,0.0008
2196.00,0.0009
2195.00,0.0009
2194.00,0.0009
2193.00,0.0011
2192.00,0.0012
2191.00,0.0013
2190.00,0.0013
2189.00,0.0013
2188.00,0.0012
2187.00,0.0012
2186.00,0.0013
2185.00,0.0012
2184.00,0.0011
2183.00,0.0007
2182.00,0.0002
2181.00,-0.0000
2180.00,0.0000
2179.00,0.0003
2178.00,0.0006
2177.00,0.0007
2176.00,0.0006
2175.00,0.0004
2174.00,0.0002
2173.00,0.0002
2172.00,0.0004
2171.00,0.0005
2170.00,0.0008
2169.00,0.0010
2168.00,0.0014
2167.00,0.0016
2166.00,0.0019
2165.00,0.0022
2164.00,0.0024
2163.00,0.0026
2162.00,0.0026
2161.00,0.0021
2160.00,0.0008
2159.00,-0.0009
2158.00,-0.0024
2157.00,-0.0031
2156.00,-0.0031
2155.00,-0.0027
2154.00,-0.0022
2153.00,-0.0018
2152.00,-0.0015
2151.00,-0.0013
2150.00,-0.0012
2149.00,-0.0011
2148.00,-0.0011
2147.00,-0.0011
2146.00,-0.0012
2145.00,-0.0014
2144.00,-0.0015
2143.00,-0.0015
2142.00,-0.0015
2141.00,-0.0014
2140.00,-0.0013
2139.00,-0.0011
2138.00,-0.0009
2137.00,-0.0008
2136.00,-0.0010
2135.00,-0.0013
2134.00,-0.0016
2133.00,-0.0018
2132.00,-0.0018
2131.00,-0.0017
2130.00,-0.0016
2129.00,-0.0014
2128.00,-0.0012
2127.00,-0.0010
2126.00,-0.0009
2125.00,-0.0008
2124.00,-0.0007
2123.00,-0.0005
2122.00,-0.0004
2121.00,-0.0002
2120.00,0.0000
2119.00,0.0002
2118.00,0.0002
2117.00,0.0003
2116.00,0.0002
2115.00,0.0001
2114.00,0.0000
2113.00,-0.0000
2112.00,0.0000
2111.00,0.0002
2110.00,0.0004
2109.00,0.0006
2108.00,0.0006
2107.00,0.0005
2106.00,0.0004
2105.00,0.0003
2104.00,0.0003
2103.00,0.0003
2102.00,0.0003
2101.00,0.0003
2100.00,0.0003
2099.00,0.0002
2098.00,-0.0000
2097.00,-0.0003
2096.00,-0.0006
2095.00,-0.0007
2094.00,-0.0007
2093.00,-0.0005
2092.00,-0.0002
2091.00,-0.0000
2090.00,0.0001
2089.00,0.0001
2088.00,0.0001
2087.00,0.0001
2086.00,0.0000
2085.00,0.0001
2084.00,0.0001
2083.00,0.0002
2082.00,0.0003
2081.00,0.0004
2080.00,0.0004
2079.00,0.0004
2078.00,0.0003
2077.00,0.0003
2076.00,0.0003
2075.00,0.0003
2074.00,0.0004
2073.00,0.0004
2072.00,0.0003
2071.00,0.0002
2070.00,0.0000
2069.00,-0.0001
2068.00,-0.0003
2067.00,-0.0005
2066.00,-0.0006
2065.00,-0.0006
2064.00,-0.0006
2063.00,-0.0005
2062.00,-0.0004
2061.00,-0.0002
2060.00,-0.0001
2059.00,0.0001
2058.00,0.0002
2057.00,0.0003
2056.00,0.0003
2055.00,0.0002
2054.00,0.0002
2053.00,0.0005
2052.00,0.0009
2051.00,0.0012
2050.00,0.0010
2049.00,0.0007
2048.00,0.0003
2047.00,0.0000
2046.00,-0.0001
2045.00,-0.0002
2044.00,-0.0000
2043.00,0.0003
2042.00,0.0007
2041.00,0.0009
2040.00,0.0009
2039.00,0.0008
2038.00,0.0006
2037.00,0.0005
2036.00,0.0005
2035.00,0.0003
2034.00,0.0001
2033.00,-0.0002
2032.00,-0.0004
2031.00,-0.0006
2030.00,-0.0007
2029.00,-0.0005
2028.00,-0.0004
2027.00,-0.0004
2026.00,-0.0007
2025.00,-0.0009
2024.00,-0.0011
2023.00,-0.0013
2022.00,-0.0014
2021.00,-0.0013
2020.00,-0.0011
2019.00,-0.0010
2018.00,-0.0009
2017.00,-0.0007
2016.00,-0.0005
2015.00,-0.0004
2014.00,-0.0005
2013.00,-0.0006
2012.00,-0.0007
2011.00,-0.0009
2010.00,-0.0012
2009.00,-0.0014
2008.00,-0.0016
2007.00,-0.0018
2006.00,-0.0019
2005.00,-0.0019
2004.00,-0.0018
2003.00,-0.0018
2002.00,-0.0017
2001.00,-0.0014
2000.00,-0.0010
1999.00,-0.0005
1998.00,-0.0002
1997.00,-0.0003
1996.00,-0.0004
1995.00,-0.0006
1994.00,-0.0006
1993.00,-0.0005
1992.00,-0.0005
1991.00,-0.0005
1990.00,-0.0005
1989.00,-0.0004
1988.00,-0.0002
1987.00,0.0001
1986.00,0.0003
1985.00,0.0004
1984.00,0.0005
1983.00,0.0006
1982.00,0.0007
1981.00,0.0008
1980.00,0.0007
1979.00,0.0001
1978.00,-0.0007
1977.00,-0.0013
1976.00,-0.0014
1975.00,-0.0011
1974.00,-0.0009
1973.00,-0.0010
1972.00,-0.0012
1971.00,-0.0014
1970.00,-0.0015
1969.00,-0.0014
1968.00,-0.0013
1967.00,-0.0013
1966.00,-0.0014
1965.00,-0.0014
1964.00,-0.0014
1963.00,-0.0013
1962.00,-0.0014
1961.00,-0.0016
1960.00,-0.0018
1959.00,-0.0020
1958.00,-0.0020
1957.00,-0.0018
1956.00,-0.0015
1955.00,-0.0012
1954.00,-0.0011
1953.00,-0.0011
1952.00,-0.0011
1951.00,-0.0012
1950.00,-0.0012
1949.00,-0.0012
1948.00,-0.0010
1947.00,-0.0010
1946.00,-0.0010
1945.00,-0.0012
1944.00,-0.0014
1943.00,-0.0015
1942.00,-0.0016
1941.00,-0.0015
1940.00,-0.0015
1939.00,-0.0015
1938.00,-0.0014
1937.00,-0.0014
1936.00,-0.0012
1935.00,-0.0010
1934.00,-0.0009
1933.00,-0.0008
1932.00,-0.0008
1931.00,-0.0008
1930.00,-0.0008
1929.00,-0.0008
1928.00,-0.0007
1927.00,-0.0006
1926.00,-0.0005
1925.00,-0.0005
1924.00,-0.0005
1923.00,-0.0004
1922.00,-0.0004
1921.00,-0.0002
1920.00,-0.0001
1919.00,-0.0000
1918.00,0.0000
1917.00,-0.0000
1916.00,-0.0001
1915.00,-0.0001
1914.00,-0.0002
1913.00,-0.0001
1912.00,-0.0001
1911.00,-0.0001
1910.00,-0.0002
1909.00,-0.0003
1908.00,-0.0003
1907.00,-0.0003
1906.00,-0.0002
1905.00,-0.0001
1904.00,-0.0000
1903.00,-0.0000
1902.00,-0.0001
1901.00,-0.0003
1900.00,-0.0003
1899.00,-0.0003
1898.00,-0.0002
1897.00,-0.0001
1896.00,0.0001
1895.00,0.0002
1894.00,0.0002
1893.00,0.0002
1892.00,0.0002
1891.00,0.0002
1890.00,0.0002
1889.00,0.0002
1888.00,0.0001
1887.00,0.0001
1886.00,0.0001
1885.00,0.0001
1884.00,0.0001
1883.00,0.0000
1882.00,0.0001
1881.00,0.0001
1880.00,0.0002
1879.00,0.0001
1878.00,0.0000
1877.00,-0.0001
1876.00,-0.0002
1875.00,-0.0002
1874.00,-0.0002
1873.00,-0.0001
1872.00,-0.0001
1871.00,-0.0001
1870.00,-0.0001
1869.00,-0.0001
1868.00,-0.0000
1867.00,-0.0000
1866.00,0.0000
1865.00,0.0000
1864.00,0.0001
1863.00,0.0001
1862.00,0.0001
1861.00,0.0002
1860.00,0.0002
1859.00,0.0002
1858.00,0.0002
1857.00,0.0002
1856.00,0.0002
1855.00,0.0002
1854.00,0.0002
1853.00,0.0002
1852.00,0.0002
1851.00,0.0002
1850.00,0.0002
1849.00,0.0002
1848.00,0.0002
1847.00,0.0002
1846.00,0.0002
1845.00,0.0002
1844.00,0.0002
1843.00,0.0002
1842.00,0.0002
1841.00,0.0002
1840.00,0.0002
1839.00,0.0001
1838.00,0.0001
1837.00,0.0002
1836.00,0.0002
1835.00,0.0003
1834.00,0.0003
1833.00,0.0004
1832.00,0.0004
1831.00,0.0005
1830.00,0.0006
1829.00,0.0006
1828.00,0.0006
1827.00,0.0005
1826.00,0.0004
1825.00,0.0003
1824.00,0.0003
1823.00,0.0004
1822.00,0.0004
1821.00,0.0004
1820.00,0.0003
1819.00,0.0002
1818.00,0.0001
1817.00,0.0001
1816.00,0.0001
1815.00,0.0002
1814.00,0.0003
1813.00,0.0004
1812.00,0.0004
1811.00,0.0004
1810.00,0.0004
1809.00,0.0004
1808.00,0.0004
1807.00,0.0004
1806.00,0.0004
1805.00,0.0004
1804.00,0.0005
1803.00,0.0005
1802.00,0.0005
1801.00,0.0005
1800.00,0.0006
1799.00,0.0006
1798.00,0.0006
1797.00,0.0007
1796.00,0.0007
1795.00,0.0007
1794.00,0.0008
1793.00,0.0008
1792.00,0.0009
1791.00,0.0009
1790.00,0.0008
1789.00,0.0008
1788.00,0.0008
1787.00,0.0008
1786.00,0.0009
1785.00,0.0009
1784.00,0.0009
1783.00,0.0009
1782.00,0.0008
1781.00,0.0008
1780.00,0.0008
1779.00,0.0008
1778.00,0.0008
1777.00,0.0008
1776.00,0.0008
1775.00,0.0008
1774.00,0.0007
1773.00,0.0007
1772.00,0.0008
1771.00,0.0009
1770.00,0.0010
1769.00,0.0011
1768.00,0.0011
1767.00,0.0011
1766.00,0.0011
1765.00,0.0011
1764.00,0.0011
1763.00,0.0011
1762.00,0.0012
1761.00,0.0012
1760.00,0.0012
1759.00,0.0013
1758.00,0.0012
1757.00,0.0012
1756.00,0.0012
1755.00,0.0013
1754.00,0.0013
1753.00,0.0013
1752.00,0.0014
1751.00,0.0015
1750.00,0.0016
1749.00,0.0017
1748.00,0.0018
1747.00,0.0018
1746.00,0.0018
1745.00,0.0018
1744.00,0.0018
1743.00,0.0018
1742.00,0.0018
1741.00,0.0019
1740.00,0.0019
1739.00,0.0019
1738.00,0.0019
1737.00,0.0020
1736.00,0.0020
1735.00,0.0020
1734.00,0.0020
1733.00,0.0021
1732.00,0.0021
1731.00,0.0021
1730.00,0.0022
1729.00,0.0022
1728.00,0.0022
1727.00,0.0021
1726.00,0.0021
1725.00,0.0020
1724.00,0.0020
1723.00,0.0021
1722.00,0.0021
1721.00,0.0022
1720.00,0.0023
1719.00,0.0023
1718.00,0.0024
1717.00,0.0024
1716.00,0.0024
1715.00,0.0024
1714.00,0.0024
1713.00,0.0025
1712.00,0.0025
1711.00,0.0025
1710.00,0.0025
1709.00,0.0025
1708.00,0.0026
1707.00,0.0026
1706.00,0.0026
1705.00,0.0027
1704.00,0.0028
1703.00,0.0028
1702.00,0.0029
1701.00,0.0029
1700.00,0.0030
1699.00,0.0031
1698.00,0.0031
1697.00,0.0031
1696.00,0.0033
1695.00,0.0034
1694.00,0.0035
1693.00,0.0036
1692.00,0.0036
1691.00,0.0037
1690.00,0.0038
1689.00,0.0038
1688.00,0.0039
1687.00,0.0040
1686.00,0.0041
1685.00,0.0042
1684.00,0.0044
1683.00,0.0045
1682.00,0.0046
1681.00,0.0046
1680.00,0.0046
1679.00,0.0047
1678.00,0.0048
1677.00,0.0049
1676.00,0.0050
1675.00,0.0051
1674.00,0.0051
1673.00,0.0051
1672.00,0.0051
1671.00,0.0052
1670.00,0.0053
1669.00,0.0054
1668.00,0.0055
1667.00,0.0056
1666.00,0.0056
1665.00,0.0056
1664.00,0.0056
1663.00,0.0057
1662.00,0.0057
1661.00,0.0059
1660.00,0.0060
1659.00,0.0061
1658.00,0.0062
1657.00,0.0062
1656.00,0.0064
1655.00,0.0066
1654.00,0.0069
1653.00,0.0072
1652.00,0.0074
1651.00,0.0075
1650.00,0.0076
1649.00,0.0078
1648.00,0.0081
1647.00,0.0084
1646.00,0.0085
1645.00,0.0084
1644.00,0.0082
1643.00,0.0080
1642.00,0.0077
1641.00,0.0075
1640.00,0.0073
1639.00,0.0071
1638.00,0.0070
1637.00,0.0069
1636.00,0.0069
1635.00,0.0070
1634.00,0.0071
1633.00,0.0071
1632.00,0.0071
1631.00,0.0071
1630.00,0.0071
1629.00,0.0071
1628.00,0.0071
1627.00,0.0070
1626.00,0.0069
1625.00,0.0068
1624.00,0.0068
1623.00,0.0066
1622.00,0.0065
1621.00,0.0064
1620.00,0.0063
1619.00,0.0062
1618.00,0.0061
1617.00,0.0060
1616.00,0.0060
1615.00,0.0060
1614.00,0.0059
1613.00,0.0059
1612.00,0.0059
1611.00,0.0058
1610.00,0.0058
1609.00,0.0058
1608.00,0.0057
1607.00,0.0057
1606.00,0.0056
1605.00,0.0056
1604.00,0.0056
1603.00,0.0056
1602.00,0.0056
1601.00,0.0056
1600.00,0.0056
1599.00,0.0056
1598.00,0.0055
1597.00,0.0056
1596.00,0.0056
1595.00,0.0056
1594.00,0.0057
1593.00,0.0058
1592.00,0.0058
1591.00,0.0059
1590.00,0.0060
1589.00,0.0061
1588.00,0.0062
1587.00,0.0064
1586.00,0.0065
1585.00,0.0068
1584.00,0.0071
1583.00,0.0074
1582.00,0.0078
1581.00,0.0081
1580.00,0.0085
1579.00,0.0087
1578.00,0.0088
1577.00,0.0089
1576.00,0.0089
1575.00,0.0087
1574.00,0.0085
1573.00,0.0083
1572.00,0.0081
1571.00,0.0079
1570.00,0.0076
1569.00,0.0073
1568.00,0.0071
1567.00,0.0070
1566.00,0.0069
1565.00,0.0068
1564.00,0.0067
1563.00,0.0066
1562.00,0.0066
1561.00,0.0067
1560.00,0.0068
1559.00,0.0068
1558.00,0.0068
1557.00,0.0069
1556.00,0.0069
1555.00,0.0070
1554.00,0.0071
1553.00,0.0073
1552.00,0.0074
1551.00,0.0075
1550.00,0.0076
1549.00,0.0079
1548.00,0.0081
1547.00,0.0084
1546.00,0.0087
1545.00,0.0090
1544.00,0.0094
1543.00,0.0097
1542.00,0.0099
1541.00,0.0101
1540.00,0.0100
1539.00,0.0096
1538.00,0.0093
1537.00,0.0090
1536.00,0.0087
1535.00,0.0083
1534.00,0.0079
1533.00,0.0075
1532.00,0.0072
1531.00,0.0070
1530.00,0.0069
1529.00,0.0068
1528.00,0.0068
1527.00,0.0067
1526.00,0.0066
1525.00,0.0065
1524.00,0.0065
1523.00,0.0065
1522.00,0.0064
1521.00,0.0065
1520.00,0.0066
1519.00,0.0066
1518.00,0.0066
1517.00,0.0066
1516.00,0.0066
1515.00,0.0066
1514.00,0.0066
1513.00,0.0067
1512.00,0.0068
1511.00,0.0069
1510.00,0.0069
1509.00,0.0069
1508.00,0.0070
1507.00,0.0071
1506.00,0.0072
1505.00,0.0074
1504.00,0.0075
1503.00,0.0076
1502.00,0.0077
1501.00,0.0080
1500.00,0.0082
1499.00,0.0084
1498.00,0.0086
1497.00,0.0089
1496.00,0.0093
1495.00,0.0096
1494.00,0.0098
1493.00,0.0101
1492.00,0.0105
1491.00,0.0109
1490.00,0.0114
1489.00,0.0119
1488.00,0.0125
1487.00,0.0130
1486.00,0.0136
1485.00,0.0143
1484.00,0.0152
1483.00,0.0160
1482.00,0.0171
1481.00,0.0184
1480.00,0.0197
1479.00,0.0211
1478.00,0.0226
1477.00,0.0245
1476.00,0.0268
1475.00,0.0294
1474.00,0.0330
1473.00,0.0384
1472.00,0.0450
1471.00,0.0516
1470.00,0.0581
1469.00,0.0649
1468.00,0.0722
1467.00,0.0803
1466.00,0.0896
1465.00,0.0996
1464.00,0.1086
1463.00,0.1150
1462.00,0.1193
1461.00,0.1223
1460.00,0.1245
1459.00,0.1258
1458.00,0.1267
1457.00,0.1271
1456.00,0.1267
1455.00,0.1257
1454.00,0.1243
1453.00,0.1223
1452.00,0.1193
1451.00,0.1150
1450.00,0.1091
1449.00,0.1013
1448.00,0.0916
1447.00,0.0816
1446.00,0.0727
1445.00,0.0653
1444.00,0.0590
1443.00,0.0540
1442.00,0.0504
1441.00,0.0481
1440.00,0.0469
1439.00,0.0467
1438.00,0.0474
1437.00,0.0483
1436.00,0.0478
1435.00,0.0452
1434.00,0.0412
1433.00,0.0362
1432.00,0.0310
1431.00,0.0265
1430.00,0.0231
1429.00,0.0207
1428.00,0.0191
1427.00,0.0182
1426.00,0.0176
1425.00,0.0171
1424.00,0.0166
1423.00,0.0164
1422.00,0.0162
1421.00,0.0160
1420.00,0.0157
1419.00,0.0154
1418.00,0.0152
1417.00,0.0148
1416.00,0.0143
1415.00,0.0141
1414.00,0.0138
1413.00,0.0136
1412.00,0.0133
1411.00,0.0132
1410.00,0.0131
1409.00,0.0129
1408.00,0.0127
1407.00,0.0127
1406.00,0.0126
1405.00,0.0125
1404.00,0.0124
1403.00,0.0123
1402.00,0.0124
1401.00,0.0124
1400.00,0.0124
1399.00,0.0125
1398.00,0.0126
1397.00,0.0127
1396.00,0.0128
1395.00,0.0132
1394.00,0.0137
1393.00,0.0142
1392.00,0.0149
1391.00,0.0158
1390.00,0.0171
1389.00,0.0188
1388.00,0.0214
1387.00,0.0253
1386.00,0.0304
1385.00,0.0369
1384.00,0.0454
1383.00,0.0571
1382.00,0.0727
1381.00,0.0930
1380.00,0.1190
1379.00,0.1498
1378.00,0.1814
1377.00,0.2069
1376.00,0.2191
1375.00,0.2123
1374.00,0.1881
1373.00,0.1562
1372.00,0.1256
1371.00,0.0999
1370.00,0.0792
1369.00,0.0636
1368.00,0.0529
1367.00,0.0464
1366.00,0.0429
1365.00,0.0416
1364.00,0.0419
1363.00,0.0437
1362.00,0.0464
1361.00,0.0493
1360.00,0.0514
1359.00,0.0521
1358.00,0.0509
1357.00,0.0478
1356.00,0.0433
1355.00,0.0383
1354.00,0.0335
1353.00,0.0294
1352.00,0.0261
1351.00,0.0235
1350.00,0.0213
1349.00,0.0196
1348.00,0.0183
1347.00,0.0173
1346.00,0.0165
1345.00,0.0158
1344.00,0.0152
1343.00,0.0148
1342.00,0.0144
1341.00,0.0142
1340.00,0.0139
1339.00,0.0137
1338.00,0.0135
1337.00,0.0135
1336.00,0.0136
1335.00,0.0138
1334.00,0.0142
1333.00,0.0147
1332.00,0.0152
1331.00,0.0157
1330.00,0.0158
1329.00,0.0156
1328.00,0.0151
1327.00,0.0145
1326.00,0.0138
1325.00,0.0131
1324.00,0.0125
1323.00,0.0119
1322.00,0.0114
1321.00,0.0110
1320.00,0.0107
1319.00,0.0104
1318.00,0.0102
1317.00,0.0099
1316.00,0.0097
1315.00,0.0095
1314.00,0.0094
1313.00,0.0094
1312.00,0.0094
1311.00,0.0095
1310.00,0.0098
1309.00,0.0103
1308.00,0.0109
1307.00,0.0117
1306.00,0.0125
1305.00,0.0132
1304.00,0.0135
1303.00,0.0135
1302.00,0.0134
1301.00,0.0133
1300.00,0.0134
1299.00,0.0136
1298.00,0.0138
1297.00,0.0140
1296.00,0.0140
1295.00,0.0138
1294.00,0.0133
1293.00,0.0128
1292.00,0.0121
1291.00,0.0115
1290.00,0.0109
1289.00,0.0104
1288.00,0.0099
1287.00,0.0096
1286.00,0.0093
1285.00,0.0091
1284.00,0.0089
1283.00,0.0087
1282.00,0.0085
1281.00,0.0084
1280.00,0.0083
1279.00,0.0082
1278.00,0.0081
1277.00,0.0081
1276.00,0.0080
1275.00,0.0080
1274.00,0.0079
1273.00,0.0078
1272.00,0.0077
1271.00,0.0077
1270.00,0.0077
1269.00,0.0078
1268.00,0.0079
1267.00,0.0080
1266.00,0.0081
1265.00,0.0083
1264.00,0.0084
1263.00,0.0087
1262.00,0.0089
1261.00,0.0092
1260.00,0.0096
1259.00,0.0100
1258.00,0.0104
1257.00,0.0107
1256.00,0.0108
1255.00,0.0106
1254.00,0.0102
1253.00,0.0097
1252.00,0.0092
1251.00,0.0088
1250.00,0.0085
1249.00,0.0084
1248.00,0.0083
1247.00,0.0082
1246.00,0.0082
1245.00,0.0081
1244.00,0.0080
1243.00,0.0079
1242.00,0.0079
1241.00,0.0078
1240.00,0.0078
1239.00,0.0078
1238.00,0.0078
1237.00,0.0078
1236.00,0.0078
1235.00,0.0079
1234.00,0.0079
1233.00,0.0080
1232.00,0.0081
1231.00,0.0082
1230.00,0.0083
1229.00,0.0084
1228.00,0.0085
1227.00,0.0087
1226.00,0.0090
1225.00,0.0094
1224.00,0.0099
1223.00,0.0103
1222.00,0.0107
1221.00,0.0111
1220.00,0.0114
1219.00,0.0116
1218.00,0.0116
1217.00,0.0115
1216.00,0.0112
1215.00,0.0109
1214.00,0.0104
1213.00,0.0100
1212.00,0.0097
1211.00,0.0094
1210.00,0.0092
1209.00,0.0090
1208.00,0.0088
1207.00,0.0086
1206.00,0.0085
1205.00,0.0084
1204.00,0.0083
1203.00,0.0082
1202.00,0.0081
1201.00,0.0080
1200.00,0.0080
1199.00,0.0080
1198.00,0.0080
1197.00,0.0080
1196.00,0.0080
1195.00,0.0080
1194.00,0.0080
1193.00,0.0080
1192.00,0.0079
1191.00,0.0078
1190.00,0.0077
1189.00,0.0077
1188.00,0.0076
1187.00,0.0076
1186.00,0.0075
1185.00,0.0075
1184.00,0.0075
1183.00,0.0075
1182.00,0.0075
1181.00,0.0075
1180.00,0.0077
1179.00,0.0080
1178.00,0.0084
1177.00,0.0090
1176.00,0.0097
1175.00,0.0106
1174.00,0.0119
1173.00,0.0135
1172.00,0.0155
1171.00,0.0178
1170.00,0.0200
1169.00,0.0219
1168.00,0.0231
1167.00,0.0236
1166.00,0.0233
1165.00,0.0226
1164.00,0.0216
1163.00,0.0206
1162.00,0.0198
1161.00,0.0190
1160.00,0.0184
1159.00,0.0179
1158.00,0.0175
1157.00,0.0173
1156.00,0.0171
1155.00,0.0171
1154.00,0.0171
1153.00,0.0170
1152.00,0.0167
1151.00,0.0161
1150.00,0.0154
1149.00,0.0145
1148.00,0.0137
1147.00,0.0129
1146.00,0.0122
1145.00,0.0115
1144.00,0.0108
1143.00,0.0102
1142.00,0.0097
1141.00,0.0091
1140.00,0.0086
1139.00,0.0082
1138.00,0.0078
1137.00,0.0076
1136.00,0.0074
1135.00,0.0073
1134.00,0.0072
1133.00,0.0071
1132.00,0.0071
1131.00,0.0072
1130.00,0.0074
1129.00,0.0076
1128.00,0.0078
1127.00,0.0079
1126.00,0.0080
1125.00,0.0081
1124.00,0.0082
1123.00,0.0083
1122.00,0.0083
1121.00,0.0084
1120.00,0.0084
1119.00,0.0085
1118.00,0.0085
1117.00,0.0087
1116.00,0.0088
1115.00,0.0090
1114.00,0.0093
1113.00,0.0095
1112.00,0.0097
1111.00,0.0100
1110.00,0.0104
1109.00,0.0109
1108.00,0.0114
1107.00,0.0121
1106.00,0.0129
1105.00,0.0136
1104.00,0.0143
1103.00,0.0147
1102.00,0.0148
1101.00,0.0145
1100.00,0.0139
1099.00,0.0132
1098.00,0.0123
1097.00,0.0116
1096.00,0.0109
1095.00,0.0103
1094.00,0.0099
1093.00,0.0094
1092.00,0.0091
1091.00,0.0088
1090.00,0.0086
1089.00,0.0084
1088.00,0.0082
1087.00,0.0080
1086.00,0.0079
1085.00,0.0078
1084.00,0.0077
1083.00,0.0076
1082.00,0.0076
1081.00,0.0075
1080.00,0.0074
1079.00,0.0072
1078.00,0.0071
1077.00,0.0069
1076.00,0.0068
1075.00,0.0068
1074.00,0.0068
1073.00,0.0069
1072.00,0.0069
1071.00,0.0068
1070.00,0.0068
1069.00,0.0068
1068.00,0.0069
1067.00,0.0070
1066.00,0.0072
1065.00,0.0073
1064.00,0.0074
1063.00,0.0074
1062.00,0.0074
1061.00,0.0075
1060.00,0.0076
1059.00,0.0076
1058.00,0.0077
1057.00,0.0077
1056.00,0.0077
1055.00,0.0077
1054.00,0.0079
1053.00,0.0080
1052.00,0.0081
1051.00,0.0082
1050.00,0.0084
1049.00,0.0086
1048.00,0.0090
1047.00,0.0093
1046.00,0.0095
1045.00,0.0096
1044.00,0.0097
1043.00,0.0098
1042.00,0.0098
1041.00,0.0099
1040.00,0.0099
1039.00,0.0100
1038.00,0.0101
1037.00,0.0103
1036.00,0.0105
1035.00,0.0106
1034.00,0.0106
1033.00,0.0105
1032.00,0.0103
1031.00,0.0102
1030.00,0.0101
1029.00,0.0100
1028.00,0.0098
1027.00,0.0097
1026.00,0.0096
1025.00,0.0096
1024.00,0.0096
1023.00,0.0096
1022.00,0.0097
1021.00,0.0097
1020.00,0.0098
1019.00,0.0099
1018.00,0.0099
1017.00,0.0100
1016.00,0.0101
1015.00,0.0104
1014.00,0.0107
1013.00,0.0111
1012.00,0.0115
1011.00,0.0117
1010.00,0.0119
1009.00,0.0121
1008.00,0.0122
1007.00,0.0125
1006.00,0.0130
1005.00,0.0138
1004.00,0.0148
1003.00,0.0163
1002.00,0.0182
1001.00,0.0205
1000.00,0.0228
999.00,0.0246
998.00,0.0254
997.00,0.0248
996.00,0.0229
995.00,0.0204
994.00,0.0177
993.00,0.0154
992.00,0.0135
991.00,0.0121
990.00,0.0111
989.00,0.0105
988.00,0.0101
987.00,0.0099
986.00,0.0100
985.00,0.0102
984.00,0.0105
983.00,0.0110
982.00,0.0118
981.00,0.0131
980.00,0.0149
979.00,0.0172
978.00,0.0201
977.00,0.0234
976.00,0.0267
975.00,0.0296
974.00,0.0314
973.00,0.0316
972.00,0.0300
971.00,0.0270
970.00,0.0232
969.00,0.0195
968.00,0.0164
967.00,0.0140
966.00,0.0122
965.00,0.0108
964.00,0.0099
963.00,0.0091
962.00,0.0086
961.00,0.0081
960.00,0.0078
959.00,0.0074
958.00,0.0071
957.00,0.0068
956.00,0.0066
955.00,0.0064
954.00,0.0063
953.00,0.0061
952.00,0.0060
951.00,0.0060
950.00,0.0060
949.00,0.0061
948.00,0.0062
947.00,0.0064
946.00,0.0067
945.00,0.0071
944.00,0.0076
943.00,0.0081
942.00,0.0085
941.00,0.0088
940.00,0.0088
939.00,0.0085
938.00,0.0081
937.00,0.0077
936.00,0.0072
935.00,0.0068
934.00,0.0065
933.00,0.0064
932.00,0.0063
931.00,0.0061
930.00,0.0060
929.00,0.0058
928.00,0.0058
927.00,0.0059
926.00,0.0061
925.00,0.0062
924.00,0.0064
923.00,0.0064
922.00,0.0065
921.00,0.0066
920.00,0.0067
919.00,0.0069
918.00,0.0071
917.00,0.0072
916.00,0.0072
915.00,0.0073
914.00,0.0073
913.00,0.0074
912.00,0.0075
911.00,0.0077
910.00,0.0079
909.00,0.0081
908.00,0.0084
907.00,0.0088
906.00,0.0096
905.00,0.0108
904.00,0.0125
903.00,0.0146
902.00,0.0170
901.00,0.0193
900.00,0.0208
899.00,0.0213
898.00,0.0205
897.00,0.0187
896.00,0.0164
895.00,0.0141
894.00,0.0122
893.00,0.0108
892.00,0.0098
891.00,0.0092
890.00,0.0087
889.00,0.0082
888.00,0.0079
887.00,0.0076
886.00,0.0075
885.00,0.0074
884.00,0.0073
883.00,0.0073
882.00,0.0073
881.00,0.0074
880.00,0.0075
879.00,0.0076
878.00,0.0076
877.00,0.0077
876.00,0.0078
875.00,0.0079
874.00,0.0080
873.00,0.0080
872.00,0.0079
871.00,0.0079
870.00,0.0078
869.00,0.0077
868.00,0.0076
867.00,0.0075
866.00,0.0075
865.00,0.0075
864.00,0.0076
863.00,0.0077
862.00,0.0078
861.00,0.0079
860.00,0.0081
859.00,0.0084
858.00,0.0086
857.00,0.0087
856.00,0.0087
855.00,0.0086
854.00,0.0087
853.00,0.0088
852.00,0.0091
851.00,0.0095
850.00,0.0099
849.00,0.0104
848.00,0.0110
847.00,0.0120
846.00,0.0134
845.00,0.0154
844.00,0.0179
843.00,0.0206
842.00,0.0225
841.00,0.0229
840.00,0.0215
839.00,0.0189
838.00,0.0163
837.00,0.0141
836.00,0.0127
835.00,0.0119
834.00,0.0114
833.00,0.0110
832.00,0.0108
831.00,0.0106
830.00,0.0105
829.00,0.0103
828.00,0.0101
827.00,0.0101
826.00,0.0101
825.00,0.0102
824.00,0.0102
823.00,0.0103
822.00,0.0104
821.00,0.0106
820.00,0.0110
819.00,0.0114
818.00,0.0118
817.00,0.0124
816.00,0.0133
815.00,0.0146
814.00,0.0163
813.00,0.0183
812.00,0.0204
811.00,0.0223
810.00,0.0236
809.00,0.0243
808.00,0.0241
807.00,0.0230
806.00,0.0214
805.00,0.0195
804.00,0.0176
803.00,0.0159
802.00,0.0146
801.00,0.0136
800.00,0.0128
799.00,0.0122
798.00,0.0117
797.00,0.0111
796.00,0.0107
795.00,0.0103
794.00,0.0099
793.00,0.0095
792.00,0.0092
791.00,0.0090
790.00,0.0088
789.00,0.0086
788.00,0.0085
787.00,0.0084
786.00,0.0082
785.00,0.0079
784.00,0.0075
783.00,0.0072
782.00,0.0069
781.00,0.0067
780.00,0.0066
779.00,0.0065
778.00,0.0065
777.00,0.0065
776.00,0.0065
775.00,0.0066
774.00,0.0068
773.00,0.0070
772.00,0.0072
771.00,0.0075
770.00,0.0077
769.00,0.0079
768.00,0.0080
767.00,0.0080
766.00,0.0080
765.00,0.0079
764.00,0.0079
763.00,0.0078
762.00,0.0076
761.00,0.0073
760.00,0.0069
759.00,0.0066
758.00,0.0063
757.00,0.0061
756.00,0.0059
755.00,0.0058
754.00,0.0058
753.00,0.0059
752.00,0.0059
751.00,0.0058
750.00,0.0057
749.00,0.0055
748.00,0.0055
747.00,0.0055
746.00,0.0058
745.00,0.0062
744.00,0.0065
743.00,0.0066
742.00,0.0066
741.00,0.0065
740.00,0.0066
739.00,0.0068
738.00,0.0069
737.00,0.0069
736.00,0.0070
735.00,0.0071
734.00,0.0073
733.00,0.0076
732.00,0.0077
731.00,0.0077
730.00,0.0075
729.00,0.0072
728.00,0.0071
727.00,0.0072
726.00,0.0075
725.00,0.0077
724.00,0.0077
723.00,0.0075
722.00,0.0073
721.00,0.0072
720.00,0.0072
719.00,0.0072
718.00,0.0072
717.00,0.0071
716.00,0.0070
715.00,0.0069
714.00,0.0069
713.00,0.0068
712.00,0.0067
711.00,0.0066
710.00,0.0064
709.00,0.0063
708.00,0.0062
707.00,0.0063
706.00,0.0065
705.00,0.0065
704.00,0.0065
703.00,0.0066
702.00,0.0066
701.00,0.0065
700.00,0.0064
699.00,0.0062
698.00,0.0062
697.00,0.0063
696.00,0.0063
695.00,0.0064
694.00,0.0064
693.00,0.0063
692.00,0.0062
691.00,0.0062
690.00,0.0062
689.00,0.0063
688.00,0.0063
687.00,0.0062
686.00,0.0060
685.00,0.0058
684.00,0.0059
683.00,0.0061
682.00,0.0062
681.00,0.0061
680.00,0.0060
679.00,0.0059
678.00,0.0059
677.00,0.0060
676.00,0.0062
675.00,0.0065
674.00,0.0068
673.00,0.0070
672.00,0.0071
671.00,0.0070
670.00,0.0068
669.00,0.0067
668.00,0.0068
667.00,0.0069
666.00,0.0068
665.00,0.0066
664.00,0.0065
663.00,0.0065
662.00,0.0065
661.00,0.0065
660.00,0.0065
659.00,0.0064
658.00,0.0062
657.00,0.0060
656.00,0.0058
655.00,0.0057
654.00,0.0058
653.00,0.0059
652.00,0.0060
651.00,0.0061
650.00,0.0060
649.00,0.0059
648.00,0.0058
647.00,0.0058
646.00,0.0061
645.00,0.0063
644.00,0.0064
643.00,0.0064
642.00,0.0063
641.00,0.0064
640.00,0.0064
639.00,0.0065
638.00,0.0065
637.00,0.0064
636.00,0.0064
635.00,0.0064
634.00,0.0065
633.00,0.0066
632.00,0.0068
631.00,0.0070
630.00,0.0071
629.00,0.0070
628.00,0.0070
627.00,0.0069
626.00,0.0069
625.00,0.0069
624.00,0.0068
623.00,0.0067
622.00,0.0065
621.00,0.0065
620.00,0.0065
619.00,0.0067
618.00,0.0069
617.00,0.0071
616.00,0.0073
615.00,0.0073
614.00,0.0072
613.00,0.0070
612.00,0.0068
611.00,0.0067
610.00,0.0066
609.00,0.0066
608.00,0.0067
607.00,0.0068
606.00,0.0069
605.00,0.0069
604.00,0.0069
603.00,0.0068
602.00,0.0066
601.00,0.0066
600.00,0.0067
599.00,0.0069
598.00,0.0071
597.00,0.0072
596.00,0.0071
595.00,0.0069
594.00,0.0067
593.00,0.0065
592.00,0.0065
591.00,0.0067
590.00,0.0069
589.00,0.0071
588.00,0.0072
587.00,0.0071
586.00,0.0071
585.00,0.0072
584.00,0.0074
583.00,0.0076
582.00,0.0077
581.00,0.0075
580.00,0.0071
579.00,0.0067
578.00,0.0066
577.00,0.0068
576.00,0.0071
575.00,0.0072
574.00,0.0071
573.00,0.0069
572.00,0.0068
571.00,0.0068
570.00,0.0069
569.00,0.0071
568.00,0.0072
567.00,0.0073
566.00,0.0072
565.00,0.0071
564.00,0.0071
563.00,0.0072
562.00,0.0074
561.00,0.0077
560.00,0.0079
559.00,0.0080
558.00,0.0079
557.00,0.0076
556.00,0.0073
555.00,0.0070
554.00,0.0068
553.00,0.0069
552.00,0.0070
551.00,0.0071
550.00,0.0073
549.00,0.0073
548.00,0.0073
547.00,0.0073
546.00,0.0073
545.00,0.0072
544.00,0.0070
543.00,0.0069
542.00,0.0069
541.00,0.0071
540.00,0.0075
539.00,0.0081
538.00,0.0085
537.00,0.0090
536.00,0.0093
535.00,0.0096
534.00,0.0099
533.00,0.0100
532.00,0.0102
531.00,0.0103
530.00,0.0105
529.00,0.0108
528.00,0.0109
527.00,0.0107
526.00,0.0099
525.00,0.0090
524.00,0.0082
523.00,0.0078
522.00,0.0078
521.00,0.0079
520.00,0.0080
519.00,0.0081
518.00,0.0084
517.00,0.0086
516.00,0.0087
515.00,0.0083
514.00,0.0078
513.00,0.0075
512.00,0.0075
511.00,0.0076
510.00,0.0077
509.00,0.0079
508.00,0.0082
507.00,0.0084
506.00,0.0085
505.00,0.0084
504.00,0.0084
503.00,0.0086
502.00,0.0086
501.00,0.0083
500.00,0.0080
499.00,0.0079
498.00,0.0080
497.00,0.0079
496.00,0.0076
495.00,0.0074
494.00,0.0074
493.00,0.0074
492.00,0.0074
491.00,0.0072
490.00,0.0070
489.00,0.0071
488.00,0.0074
487.00,0.0079
486.00,0.0083
485.00,0.0085
484.00,0.0085
483.00,0.0083
482.00,0.0076
481.00,0.0063
480.00,0.0049
479.00,0.0042
478.00,0.0045
477.00,0.0052
476.00,0.0060
475.00,0.0067
474.00,0.0073
473.00,0.0078
472.00,0.0080
471.00,0.0081
470.00,0.0083
469.00,0.0085
468.00,0.0088
467.00,0.0092
466.00,0.0099
465.00,0.0109
464.00,0.0122
463.00,0.0135
462.00,0.0144
461.00,0.0148
460.00,0.0151
459.00,0.0154
458.00,0.0160
457.00,0.0165
456.00,0.0163
455.00,0.0156
454.00,0.0141
453.00,0.0123
452.00,0.0107
451.00,0.0099
450.00,0.0098
