Created as New Dataset,Sample 044 By Administrator Date Friday, September 05 2025
cm-1,A
4000.00,0.0011
3999.00,0.0011
3998.00,0.0011
3997.00,0.0011
3996.00,0.0011
3995.00,0.0011
3994.00,0.0011
3993.00,0.0011
3992.00,0.0011
3991.00,0.0011
3990.00,0.0011
3989.00,0.0011
3988.00,0.0012
3987.00,0.0012
3986.00,0.0012
3985.00,0.0012
3984.00,0.0012
3983.00,0.0011
3982.00,0.0011
3981.00,0.0011
3980.00,0.0011
3979.00,0.0010
3978.00,0.0010
3977.00,0.0010
3976.00,0.0010
3975.00,0.0010
3974.00,0.0010
3973.00,0.0010
3972.00,0.0010
3971.00,0.0009
3970.00,0.0009
3969.00,0.0009
3968.00,0.0009
3967.00,0.0009
3966.00,0.0009
3965.00,0.0009
3964.00,0.0009
3963.00,0.0009
3962.00,0.0010
3961.00,0.0010
3960.00,0.0010
3959.00,0.0010
3958.00,0.0010
3957.00,0.0010
3956.00,0.0010
3955.00,0.0010
3954.00,0.0010
3953.00,0.0010
3952.00,0.0009
3951.00,0.0009
3950.00,0.0009
3949.00,0.0009
3948.00,0.0009
3947.00,0.0009
3946.00,0.0009
3945.00,0.0009
3944.00,0.0009
3943.00,0.0010
3942.00,0.0010
3941.00,0.0010
3940.00,0.0010
3939.00,0.0009
3938.00,0.0009
3937.00,0.0009
3936.00,0.0008
3935.00,0.0008
3934.00,0.0008
3933.00,0.0008
3932.00,0.0009
3931.00,0.0009
3930.00,0.0010
3929.00,0.0010
3928.00,0.0010
3927.00,0.0010
3926.00,0.0010
3925.00,0.0010
3924.00,0.0010
3923.00,0.0010
3922.00,0.0010
3921.00,0.0009
3920.00,0.0009
3919.00,0.0009
3918.00,0.0009
3917.00,0.0009
3916.00,0.0009
3915.00,0.0010
3914.00,0.0010
3913.00,0.0010
3912.00,0.0010
3911.00,0.0010
3910.00,0.0010
3909.00,0.0010
3908.00,0.0010
3907.00,0.0010
3906.00,0.0010
3905.00,0.0009
3904.00,0.0008
3903.00,0.0007
3902.00,0.0007
3901.00,0.0007
3900.00,0.0007
3899.00,0.0008
3898.00,0.0008
3897.00,0.0008
3896.00,0.0008
3895.00,0.0008
3894.00,0.0008
3893.00,0.0009
3892.00,0.0009
3891.00,0.0009
3890.00,0.0009
3889.00,0.0009
3888.00,0.0009
3887.00,0.0009
3886.00,0.0009
3885.00,0.0009
3884.00,0.0009
3883.00,0.0008
3882.00,0.0008
3881.00,0.0008
3880.00,0.0008
3879.00,0.0008
3878.00,0.0009
3877.00,0.0009
3876.00,0.0009
3875.00,0.0010
3874.00,0.0010
3873.00,0.0010
3872.00,0.0009
3871.00,0.0009
3870.00,0.0008
3869.00,0.0008
3868.00,0.0008
3867.00,0.0007
3866.00,0.0007
3865.00,0.0008
3864.00,0.0008
3863.00,0.0008
3862.00,0.0008
3861.00,0.0008
3860.00,0.0007
3859.00,0.0007
3858.00,0.0007
3857.00,0.0007
3856.00,0.0006
3855.00,0.0006
3854.00,0.0006
3853.00,0.0006
3852.00,0.0006
3851.00,0.0006
3850.00,0.0007
3849.00,0.0007
3848.00,0.0007
3847.00,0.0008
3846.00,0.0008
3845.00,0.0008
3844.00,0.0008
3843.00,0.0008
3842.00,0.0008
3841.00,0.0008
3840.00,0.0008
3839.00,0.0008
3838.00,0.0008
3837.00,0.0008
3836.00,0.0008
3835.00,0.0008
3834.00,0.0008
3833.00,0.0008
3832.00,0.0008
3831.00,0.0008
3830.00,0.0008
3829.00,0.0008
3828.00,0.0007
3827.00,0.0007
3826.00,0.0007
3825.00,0.0007
3824.00,0.0007
3823.00,0.0007
3822.00,0.0008
3821.00,0.0008
3820.00,0.0008
3819.00,0.0008
3818.00,0.0007
3817.00,0.0007
3816.00,0.0008
3815.00,0.0008
3814.00,0.0008
3813.00,0.0008
3812.00,0.0008
3811.00,0.0008
3810.00,0.0008
3809.00,0.0008
3808.00,0.0008
3807.00,0.0008
3806.00,0.0008
3805.00,0.0008
3804.00,0.0008
3803.00,0.0008
3802.00,0.0009
3801.00,0.0009
3800.00,0.0009
3799.00,0.0009
3798.00,0.0008
3797.00,0.0008
3796.00,0.0008
3795.00,0.0008
3794.00,0.0008
3793.00,0.0009
3792.00,0.0009
3791.00,0.0009
3790.00,0.0009
3789.00,0.0009
3788.00,0.0009
3787.00,0.0009
3786.00,0.0009
3785.00,0.0009
3784.00,0.0009
3783.00,0.0009
3782.00,0.0009
3781.00,0.0010
3780.00,0.0010
3779.00,0.0010
3778.00,0.0010
3777.00,0.0010
3776.00,0.0009
3775.00,0.0009
3774.00,0.0008
3773.00,0.0008
3772.00,0.0008
3771.00,0.0009
3770.00,0.0009
3769.00,0.0010
3768.00,0.0010
3767.00,0.0011
3766.00,0.0011
3765.00,0.0011
3764.00,0.0011
3763.00,0.0010
3762.00,0.0010
3761.00,0.0010
3760.00,0.0010
3759.00,0.0010
3758.00,0.0009
3757.00,0.0008
3756.00,0.0008
3755.00,0.0008
3754.00,0.0007
3753.00,0.0007
3752.00,0.0006
3751.00,0.0006
3750.00,0.0006
3749.00,0.0006
3748.00,0.0007
3747.00,0.0007
3746.00,0.0007
3745.00,0.0006
3744.00,0.0006
3743.00,0.0006
3742.00,0.0006
3741.00,0.0005
3740.00,0.0005
3739.00,0.0005
3738.00,0.0005
3737.00,0.0004
3736.00,0.0004
3735.00,0.0005
3734.00,0.0005
3733.00,0.0005
3732.00,0.0005
3731.00,0.0005
3730.00,0.0006
3729.00,0.0006
3728.00,0.0006
3727.00,0.0006
3726.00,0.0006
3725.00,0.0006
3724.00,0.0006
3723.00,0.0006
3722.00,0.0006
3721.00,0.0006
3720.00,0.0005
3719.00,0.0005
3718.00,0.0005
3717.00,0.0005
3716.00,0.0006
3715.00,0.0006
3714.00,0.0007
3713.00,0.0007
3712.00,0.0007
3711.00,0.0007
3710.00,0.0007
3709.00,0.0007
3708.00,0.0006
3707.00,0.0006
3706.00,0.0006
3705.00,0.0006
3704.00,0.0006
3703.00,0.0007
3702.00,0.0007
3701.00,0.0006
3700.00,0.0006
3699.00,0.0006
3698.00,0.0005
3697.00,0.0005
3696.00,0.0006
3695.00,0.0006
3694.00,0.0006
3693.00,0.0006
3692.00,0.0006
3691.00,0.0006
3690.00,0.0005
3689.00,0.0005
3688.00,0.0004
3687.00,0.0004
3686.00,0.0004
3685.00,0.0004
3684.00,0.0003
3683.00,0.0003
3682.00,0.0002
3681.00,0.0002
3680.00,0.0002
3679.00,0.0001
3678.00,0.0000
3677.00,-0.0001
3676.00,-0.0002
3675.00,-0.0003
3674.00,-0.0003
3673.00,-0.0004
3672.00,-0.0005
3671.00,-0.0005
3670.00,-0.0005
3669.00,-0.0006
3668.00,-0.0006
3667.00,-0.0006
3666.00,-0.0006
3665.00,-0.0006
3664.00,-0.0006
3663.00,-0.0006
3662.00,-0.0006
3661.00,-0.0006
3660.00,-0.0006
3659.00,-0.0007
3658.00,-0.0007
3657.00,-0.0007
3656.00,-0.0007
3655.00,-0.0007
3654.00,-0.0007
3653.00,-0.0007
3652.00,-0.0007
3651.00,-0.0007
3650.00,-0.0007
3649.00,-0.0006
3648.00,-0.0005
3647.00,-0.0005
3646.00,-0.0005
3645.00,-0.0005
3644.00,-0.0004
3643.00,-0.0004
3642.00,-0.0003
3641.00,-0.0002
3640.00,-0.0002
3639.00,-0.0002
3638.00,-0.0002
3637.00,-0.0002
3636.00,-0.0001
3635.00,-0.0000
3634.00,0.0001
3633.00,0.0002
3632.00,0.0002
3631.00,0.0002
3630.00,0.0002
3629.00,0.0002
3628.00,0.0003
3627.00,0.0003
3626.00,0.0003
3625.00,0.0003
3624.00,0.0004
3623.00,0.0004
3622.00,0.0004
3621.00,0.0004
3620.00,0.0005
3619.00,0.0005
3618.00,0.0005
3617.00,0.0005
3616.00,0.0006
3615.00,0.0007
3614.00,0.0007
3613.00,0.0007
3612.00,0.0006
3611.00,0.0006
3610.00,0.0006
3609.00,0.0006
3608.00,0.0007
3607.00,0.0008
3606.00,0.0009
3605.00,0.0009
3604.00,0.0009
3603.00,0.0009
3602.00,0.0009
3601.00,0.0010
3600.00,0.0010
3599.00,0.0010
3598.00,0.0009
3597.00,0.0009
3596.00,0.0010
3595.00,0.0010
3594.00,0.0010
3593.00,0.0010
3592.00,0.0010
3591.00,0.0009
3590.00,0.0009
3589.00,0.0009
3588.00,0.0010
3587.00,0.0011
3586.00,0.0011
3585.00,0.0011
3584.00,0.0012
3583.00,0.0012
3582.00,0.0012
3581.00,0.0012
3580.00,0.0012
3579.00,0.0012
3578.00,0.0012
3577.00,0.0012
3576.00,0.0012
3575.00,0.0012
3574.00,0.0012
3573.00,0.0013
3572.00,0.0013
3571.00,0.0013
3570.00,0.0013
3569.00,0.0013
3568.00,0.0013
3567.00,0.0014
3566.00,0.0015
3565.00,0.0015
3564.00,0.0015
3563.00,0.0015
3562.00,0.0015
3561.00,0.0015
3560.00,0.0016
3559.00,0.0016
3558.00,0.0016
3557.00,0.0016
3556.00,0.0016
3555.00,0.0016
3554.00,0.0016
3553.00,0.0017
3552.00,0.0017
3551.00,0.0017
3550.00,0.0017
3549.00,0.0017
3548.00,0.0017
3547.00,0.0017
3546.00,0.0017
3545.00,0.0017
3544.00,0.0017
3543.00,0.0018
3542.00,0.0018
3541.00,0.0019
3540.00,0.0019
3539.00,0.0019
3538.00,0.0019
3537.00,0.0019
3536.00,0.0019
3535.00,0.0019
3534.00,0.0019
3533.00,0.0019
3532.00,0.0019
3531.00,0.0020
3530.00,0.0020
3529.00,0.0020
3528.00,0.0020
3527.00,0.0020
3526.00,0.0020
3525.00,0.0020
3524.00,0.0021
3523.00,0.0021
3522.00,0.0021
3521.00,0.0022
3520.00,0.0022
3519.00,0.0022
3518.00,0.0022
3517.00,0.0022
3516.00,0.0021
3515.00,0.0021
3514.00,0.0021
3513.00,0.0022
3512.00,0.0022
3511.00,0.0022
3510.00,0.0022
3509.00,0.0022
3508.00,0.0022
3507.00,0.0022
3506.00,0.0023
3505.00,0.0023
3504.00,0.0023
3503.00,0.0023
3502.00,0.0023
3501.00,0.0023
3500.00,0.0023
3499.00,0.0023
3498.00,0.0023
3497.00,0.0023
3496.00,0.0024
3495.00,0.0024
3494.00,0.0024
3493.00,0.0024
3492.00,0.0025
3491.00,0.0025
3490.00,0.0025
3489.00,0.0025
3488.00,0.0025
3487.00,0.0024
3486.00,0.0024
3485.00,0.0024
3484.00,0.0025
3483.00,0.0025
3482.00,0.0024
3481.00,0.0024
3480.00,0.0024
3479.00,0.0025
3478.00,0.0025
3477.00,0.0026
3476.00,0.0027
3475.00,0.0027
3474.00,0.0027
3473.00,0.0027
3472.00,0.0027
3471.00,0.0027
3470.00,0.0027
3469.00,0.0027
3468.00,0.0027
3467.00,0.0027
3466.00,0.0028
3465.00,0.0028
3464.00,0.0028
3463.00,0.0029
3462.00,0.0029
3461.00,0.0030
3460.00,0.0030
3459.00,0.0030
3458.00,0.0030
3457.00,0.0030
3456.00,0.0030
3455.00,0.0030
3454.00,0.0030
3453.00,0.0029
3452.00,0.0029
3451.00,0.0029
3450.00,0.0029
3449.00,0.0029
3448.00,0.0030
3447.00,0.0030
3446.00,0.0030
3445.00,0.0030
3444.00,0.0031
3443.00,0.0031
3442.00,0.0031
3441.00,0.0031
3440.00,0.0031
3439.00,0.0031
3438.00,0.0032
3437.00,0.0032
3436.00,0.0032
3435.00,0.0032
3434.00,0.0032
3433.00,0.0032
3432.00,0.0033
3431.00,0.0033
3430.00,0.0034
3429.00,0.0034
3428.00,0.0034
3427.00,0.0034
3426.00,0.0034
3425.00,0.0034
3424.00,0.0034
3423.00,0.0034
3422.00,0.0034
3421.00,0.0034
3420.00,0.0034
3419.00,0.0035
3418.00,0.0035
3417.00,0.0035
3416.00,0.0035
3415.00,0.0036
3414.00,0.0036
3413.00,0.0036
3412.00,0.0036
3411.00,0.0036
3410.00,0.0036
3409.00,0.0036
3408.00,0.0036
3407.00,0.0036
3406.00,0.0036
3405.00,0.0036
3404.00,0.0036
3403.00,0.0037
3402.00,0.0037
3401.00,0.0037
3400.00,0.0037
3399.00,0.0037
3398.00,0.0037
3397.00,0.0037
3396.00,0.0037
3395.00,0.0037
3394.00,0.0037
3393.00,0.0038
3392.00,0.0038
3391.00,0.0038
3390.00,0.0038
3389.00,0.0038
3388.00,0.0037
3387.00,0.0037
3386.00,0.0037
3385.00,0.0038
3384.00,0.0038
3383.00,0.0039
3382.00,0.0039
3381.00,0.0039
3380.00,0.0039
3379.00,0.0039
3378.00,0.0038
3377.00,0.0038
3376.00,0.0038
3375.00,0.0038
3374.00,0.0038
3373.00,0.0039
3372.00,0.0039
3371.00,0.0039
3370.00,0.0039
3369.00,0.0039
3368.00,0.0039
3367.00,0.0039
3366.00,0.0040
3365.00,0.0040
3364.00,0.0040
3363.00,0.0040
3362.00,0.0040
3361.00,0.0040
3360.00,0.0040
3359.00,0.0041
3358.00,0.0041
3357.00,0.0041
3356.00,0.0041
3355.00,0.0041
3354.00,0.0041
3353.00,0.0041
3352.00,0.0041
3351.00,0.0041
3350.00,0.0042
3349.00,0.0042
3348.00,0.0042
3347.00,0.0042
3346.00,0.0042
3345.00,0.0042
3344.00,0.0042
3343.00,0.0041
3342.00,0.0041
3341.00,0.0041
3340.00,0.0041
3339.00,0.0042
3338.00,0.0042
3337.00,0.0042
3336.00,0.0043
3335.00,0.0043
3334.00,0.0043
3333.00,0.0042
3332.00,0.0042
3331.00,0.0042
3330.00,0.0042
3329.00,0.0042
3328.00,0.0042
3327.00,0.0041
3326.00,0.0041
3325.00,0.0041
3324.00,0.0041
3323.00,0.0041
3322.00,0.0041
3321.00,0.0042
3320.00,0.0042
3319.00,0.0043
3318.00,0.0043
3317.00,0.0042
3316.00,0.0042
3315.00,0.0042
3314.00,0.0042
3313.00,0.0042
3312.00,0.0042
3311.00,0.0042
3310.00,0.0042
3309.00,0.0042
3308.00,0.0043
3307.00,0.0043
3306.00,0.0043
3305.00,0.0043
3304.00,0.0042
3303.00,0.0042
3302.00,0.0043
3301.00,0.0043
3300.00,0.0043
3299.00,0.0044
3298.00,0.0044
3297.00,0.0044
3296.00,0.0043
3295.00,0.0043
3294.00,0.0043
3293.00,0.0043
3292.00,0.0043
3291.00,0.0043
3290.00,0.0043
3289.00,0.0043
3288.00,0.0043
3287.00,0.0043
3286.00,0.0043
3285.00,0.0044
3284.00,0.0044
3283.00,0.0043
3282.00,0.0043
3281.00,0.0043
3280.00,0.0042
3279.00,0.0042
3278.00,0.0042
3277.00,0.0042
3276.00,0.0042
3275.00,0.0042
3274.00,0.0042
3273.00,0.0042
3272.00,0.0042
3271.00,0.0042
3270.00,0.0042
3269.00,0.0042
3268.00,0.0042
3267.00,0.0042
3266.00,0.0042
3265.00,0.0041
3264.00,0.0041
3263.00,0.0040
3262.00,0.0040
3261.00,0.0040
3260.00,0.0040
3259.00,0.0040
3258.00,0.0040
3257.00,0.0039
3256.00,0.0039
3255.00,0.0039
3254.00,0.0039
3253.00,0.0039
3252.00,0.0039
3251.00,0.0039
3250.00,0.0039
3249.00,0.0039
3248.00,0.0039
3247.00,0.0039
3246.00,0.0039
3245.00,0.0039
3244.00,0.0039
3243.00,0.0038
3242.00,0.0038
3241.00,0.0038
3240.00,0.0038
3239.00,0.0038
3238.00,0.0039
3237.00,0.0038
3236.00,0.0038
3235.00,0.0038
3234.00,0.0038
3233.00,0.0038
3232.00,0.0039
3231.00,0.0039
3230.00,0.0039
3229.00,0.0039
3228.00,0.0039
3227.00,0.0040
3226.00,0.0040
3225.00,0.0040
3224.00,0.0040
3223.00,0.0040
3222.00,0.0040
3221.00,0.0040
3220.00,0.0041
3219.00,0.0041
3218.00,0.0041
3217.00,0.0041
3216.00,0.0041
3215.00,0.0041
3214.00,0.0041
3213.00,0.0041
3212.00,0.0042
3211.00,0.0042
3210.00,0.0042
3209.00,0.0042
3208.00,0.0042
3207.00,0.0042
3206.00,0.0042
3205.00,0.0042
3204.00,0.0042
3203.00,0.0042
3202.00,0.0042
3201.00,0.0042
3200.00,0.0042
3199.00,0.0042
3198.00,0.0042
3197.00,0.0043
3196.00,0.0043
3195.00,0.0043
3194.00,0.0043
3193.00,0.0043
3192.00,0.0043
3191.00,0.0042
3190.00,0.0042
3189.00,0.0042
3188.00,0.0042
3187.00,0.0042
3186.00,0.0042
3185.00,0.0041
3184.00,0.0040
3183.00,0.0040
3182.00,0.0040
3181.00,0.0040
3180.00,0.0040
3179.00,0.0040
3178.00,0.0040
3177.00,0.0040
3176.00,0.0040
3175.00,0.0040
3174.00,0.0040
3173.00,0.0040
3172.00,0.0040
3171.00,0.0040
3170.00,0.0039
3169.00,0.0039
3168.00,0.0039
3167.00,0.0038
3166.00,0.0038
3165.00,0.0038
3164.00,0.0038
3163.00,0.0038
3162.00,0.0038
3161.00,0.0038
3160.00,0.0038
3159.00,0.0038
3158.00,0.0039
3157.00,0.0039
3156.00,0.0039
3155.00,0.0038
3154.00,0.0038
3153.00,0.0037
3152.00,0.0037
3151.00,0.0037
3150.00,0.0037
3149.00,0.0038
3148.00,0.0038
3147.00,0.0039
3146.00,0.0039
3145.00,0.0039
3144.00,0.0038
3143.00,0.0038
3142.00,0.0038
3141.00,0.0038
3140.00,0.0037
3139.00,0.0037
3138.00,0.0037
3137.00,0.0037
3136.00,0.0037
3135.00,0.0037
3134.00,0.0037
3133.00,0.0037
3132.00,0.0037
3131.00,0.0036
3130.00,0.0036
3129.00,0.0036
3128.00,0.0035
3127.00,0.0035
3126.00,0.0034
3125.00,0.0034
3124.00,0.0034
3123.00,0.0033
3122.00,0.0033
3121.00,0.0033
3120.00,0.0033
3119.00,0.0033
3118.00,0.0033
3117.00,0.0033
3116.00,0.0033
3115.00,0.0033
3114.00,0.0034
3113.00,0.0034
3112.00,0.0033
3111.00,0.0033
3110.00,0.0032
3109.00,0.0032
3108.00,0.0032
3107.00,0.0032
3106.00,0.0032
3105.00,0.0032
3104.00,0.0032
3103.00,0.0031
3102.00,0.0031
3101.00,0.0031
3100.00,0.0031
3099.00,0.0031
3098.00,0.0031
3097.00,0.0032
3096.00,0.0032
3095.00,0.0032
3094.00,0.0032
3093.00,0.0032
3092.00,0.0032
3091.00,0.0032
3090.00,0.0032
3089.00,0.0032
3088.00,0.0032
3087.00,0.0032
3086.00,0.0032
3085.00,0.0032
3084.00,0.0031
3083.00,0.0031
3082.00,0.0031
3081.00,0.0031
3080.00,0.0031
3079.00,0.0031
3078.00,0.0031
3077.00,0.0032
3076.00,0.0032
3075.00,0.0032
3074.00,0.0032
3073.00,0.0032
3072.00,0.0033
3071.00,0.0033
3070.00,0.0033
3069.00,0.0033
3068.00,0.0033
3067.00,0.0033
3066.00,0.0034
3065.00,0.0034
3064.00,0.0034
3063.00,0.0034
3062.00,0.0034
3061.00,0.0034
3060.00,0.0034
3059.00,0.0035
3058.00,0.0035
3057.00,0.0035
3056.00,0.0035
3055.00,0.0035
3054.00,0.0035
3053.00,0.0035
3052.00,0.0035
3051.00,0.0035
3050.00,0.0036
3049.00,0.0036
3048.00,0.0036
3047.00,0.0036
3046.00,0.0036
3045.00,0.0037
3044.00,0.0037
3043.00,0.0037
3042.00,0.0037
3041.00,0.0038
3040.00,0.0038
3039.00,0.0038
3038.00,0.0038
3037.00,0.0039
3036.00,0.0039
3035.00,0.0039
3034.00,0.0039
3033.00,0.0039
3032.00,0.0039
3031.00,0.0039
3030.00,0.0040
3029.00,0.0040
3028.00,0.0041
3027.00,0.0041
3026.00,0.0042
3025.00,0.0042
3024.00,0.0042
3023.00,0.0042
3022.00,0.0043
3021.00,0.0043
3020.00,0.0044
3019.00,0.0044
3018.00,0.0044
3017.00,0.0044
3016.00,0.0043
3015.00,0.0042
3014.00,0.0042
3013.00,0.0041
3012.00,0.0040
3011.00,0.0039
3010.00,0.0038
3009.00,0.0037
3008.00,0.0036
3007.00,0.0035
3006.00,0.0033
3005.00,0.0031
3004.00,0.0029
3003.00,0.0028
3002.00,0.0026
3001.00,0.0025
3000.00,0.0025
2999.00,0.0024
2998.00,0.0025
2997.00,0.0025
2996.00,0.0026
2995.00,0.0028
2994.00,0.0031
2993.00,0.0034
2992.00,0.0037
2991.00,0.0041
2990.00,0.0046
2989.00,0.0051
2988.00,0.0056
2987.00,0.0061
2986.00,0.0065
2985.00,0.0067
2984.00,0.0067
2983.00,0.0070
2982.00,0.0078
2981.00,0.0094
2980.00,0.0116
2979.00,0.0144
2978.00,0.0174
2977.00,0.0207
2976.00,0.0242
2975.00,0.0279
2974.00,0.0319
2973.00,0.0363
2972.00,0.0413
2971.00,0.0472
2970.00,0.0539
2969.00,0.0612
2968.00,0.0690
2967.00,0.0770
2966.00,0.0852
2965.00,0.0932
2964.00,0.1009
2963.00,0.1079
2962.00,0.1141
2961.00,0.1194
2960.00,0.1241
2959.00,0.1285
2958.00,0.1333
2957.00,0.1388
2956.00,0.1455
2955.00,0.1536
2954.00,0.1628
2953.00,0.1726
2952.00,0.1820
2951.00,0.1899
2950.00,0.1949
2949.00,0.1959
2948.00,0.1922
2947.00,0.1840
2946.00,0.1722
2945.00,0.1584
2944.00,0.1443
2943.00,0.1315
2942.00,0.1209
2941.00,0.1131
2940.00,0.1080
2939.00,0.1056
2938.00,0.1056
2937.00,0.1076
2936.00,0.1115
2935.00,0.1170
2934.00,0.1241
2933.00,0.1327
2932.00,0.1425
2931.00,0.1534
2930.00,0.1650
2929.00,0.1771
2928.00,0.1893
2927.00,0.2013
2926.00,0.2130
2925.00,0.2244
2924.00,0.2355
2923.00,0.2466
2922.00,0.2577
2921.00,0.2685
2920.00,0.2785
2919.00,0.2866
2918.00,0.2916
2917.00,0.2925
2916.00,0.2890
2915.00,0.2813
2914.00,0.2706
2913.00,0.2582
2912.00,0.2454
2911.00,0.2330
2910.00,0.2214
2909.00,0.2108
2908.00,0.2010
2907.00,0.1918
2906.00,0.1830
2905.00,0.1745
2904.00,0.1662
2903.00,0.1582
2902.00,0.1506
2901.00,0.1432
2900.00,0.1363
2899.00,0.1298
2898.00,0.1238
2897.00,0.1184
2896.00,0.1137
2895.00,0.1098
2894.00,0.1066
2893.00,0.1041
2892.00,0.1024
2891.00,0.1013
2890.00,0.1009
2889.00,0.1011
2888.00,0.1017
2887.00,0.1027
2886.00,0.1040
2885.00,0.1057
2884.00,0.1080
2883.00,0.1109
2882.00,0.1144
2881.00,0.1183
2880.00,0.1223
2879.00,0.1258
2878.00,0.1284
2877.00,0.1297
2876.00,0.1297
2875.00,0.1290
2874.00,0.1281
2873.00,0.1277
2872.00,0.1281
2871.00,0.1295
2870.00,0.1317
2869.00,0.1341
2868.00,0.1359
2867.00,0.1362
2866.00,0.1339
2865.00,0.1286
2864.00,0.1205
2863.00,0.1104
2862.00,0.0996
2861.00,0.0893
2860.00,0.0803
2859.00,0.0729
2858.00,0.0673
2857.00,0.0633
2856.00,0.0606
2855.00,0.0590
2854.00,0.0584
2853.00,0.0586
2852.00,0.0595
2851.00,0.0610
2850.00,0.0631
2849.00,0.0657
2848.00,0.0690
2847.00,0.0731
2846.00,0.0779
2845.00,0.0837
2844.00,0.0902
2843.00,0.0973
2842.00,0.1048
2841.00,0.1119
2840.00,0.1179
2839.00,0.1220
2838.00,0.1232
2837.00,0.1210
2836.00,0.1153
2835.00,0.1066
2834.00,0.0960
2833.00,0.0847
2832.00,0.0739
2831.00,0.0643
2830.00,0.0561
2829.00,0.0493
2828.00,0.0439
2827.00,0.0395
2826.00,0.0360
2825.00,0.0332
2824.00,0.0308
2823.00,0.0288
2822.00,0.0271
2821.00,0.0257
2820.00,0.0245
2819.00,0.0234
2818.00,0.0225
2817.00,0.0217
2816.00,0.0210
2815.00,0.0203
2814.00,0.0197
2813.00,0.0192
2812.00,0.0186
2811.00,0.0180
2810.00,0.0174
2809.00,0.0168
2808.00,0.0162
2807.00,0.0155
2806.00,0.0148
2805.00,0.0141
2804.00,0.0135
2803.00,0.0129
2802.00,0.0123
2801.00,0.0119
2800.00,0.0115
2799.00,0.0111
2798.00,0.0109
2797.00,0.0106
2796.00,0.0104
2795.00,0.0102
2794.00,0.0099
2793.00,0.0096
2792.00,0.0093
2791.00,0.0090
2790.00,0.0087
2789.00,0.0084
2788.00,0.0082
2787.00,0.0079
2786.00,0.0077
2785.00,0.0075
2784.00,0.0073
2783.00,0.0072
2782.00,0.0070
2781.00,0.0068
2780.00,0.0066
2779.00,0.0064
2778.00,0.0063
2777.00,0.0062
2776.00,0.0061
2775.00,0.0060
2774.00,0.0059
2773.00,0.0058
2772.00,0.0057
2771.00,0.0057
2770.00,0.0057
2769.00,0.0056
2768.00,0.0056
2767.00,0.0056
2766.00,0.0056
2765.00,0.0056
2764.00,0.0055
2763.00,0.0055
2762.00,0.0054
2761.00,0.0054
2760.00,0.0054
2759.00,0.0053
2758.00,0.0053
2757.00,0.0053
2756.00,0.0053
2755.00,0.0053
2754.00,0.0053
2753.00,0.0053
2752.00,0.0053
2751.00,0.0053
2750.00,0.0053
2749.00,0.0052
2748.00,0.0052
2747.00,0.0053
2746.00,0.0053
2745.00,0.0054
2744.00,0.0055
2743.00,0.0056
2742.00,0.0057
2741.00,0.0058
2740.00,0.0060
2739.00,0.0062
2738.00,0.0063
2737.00,0.0065
2736.00,0.0066
2735.00,0.0068
2734.00,0.0069
2733.00,0.0071
2732.00,0.0073
2731.00,0.0075
2730.00,0.0078
2729.00,0.0081
2728.00,0.0084
2727.00,0.0087
2726.00,0.0090
2725.00,0.0092
2724.00,0.0094
2723.00,0.0095
2722.00,0.0094
2721.00,0.0092
2720.00,0.0089
2719.00,0.0085
2718.00,0.0081
2717.00,0.0077
2716.00,0.0074
2715.00,0.0071
2714.00,0.0069
2713.00,0.0066
2712.00,0.0064
2711.00,0.0062
2710.00,0.0060
2709.00,0.0058
2708.00,0.0057
2707.00,0.0055
2706.00,0.0054
2705.00,0.0052
2704.00,0.0051
2703.00,0.0050
2702.00,0.0049
2701.00,0.0048
2700.00,0.0048
2699.00,0.0047
2698.00,0.0047
2697.00,0.0046
2696.00,0.0046
2695.00,0.0046
2694.00,0.0046
2693.00,0.0046
2692.00,0.0046
2691.00,0.0046
2690.00,0.0046
2689.00,0.0046
2688.00,0.0046
2687.00,0.0046
2686.00,0.0046
2685.00,0.0046
2684.00,0.0046
2683.00,0.0046
2682.00,0.0046
2681.00,0.0046
2680.00,0.0046
2679.00,0.0047
2678.00,0.0047
2677.00,0.0047
2676.00,0.0047
2675.00,0.0046
2674.00,0.0046
2673.00,0.0046
2672.00,0.0045
2671.00,0.0045
2670.00,0.0045
2669.00,0.0046
2668.00,0.0046
2667.00,0.0046
2666.00,0.0046
2665.00,0.0047
2664.00,0.0047
2663.00,0.0048
2662.00,0.0048
2661.00,0.0048
2660.00,0.0048
2659.00,0.0048
2658.00,0.0048
2657.00,0.0048
2656.00,0.0048
2655.00,0.0047
2654.00,0.0047
2653.00,0.0046
2652.00,0.0046
2651.00,0.0045
2650.00,0.0045
2649.00,0.0044
2648.00,0.0044
2647.00,0.0043
2646.00,0.0042
2645.00,0.0042
2644.00,0.0041
2643.00,0.0041
2642.00,0.0040
2641.00,0.0040
2640.00,0.0040
2639.00,0.0039
2638.00,0.0039
2637.00,0.0039
2636.00,0.0039
2635.00,0.0040
2634.00,0.0040
2633.00,0.0040
2632.00,0.0041
2631.00,0.0041
2630.00,0.0041
2629.00,0.0041
2628.00,0.0041
2627.00,0.0041
2626.00,0.0041
2625.00,0.0041
2624.00,0.0041
2623.00,0.0041
2622.00,0.0042
2621.00,0.0043
2620.00,0.0044
2619.00,0.0044
2618.00,0.0044
2617.00,0.0043
2616.00,0.0043
2615.00,0.0043
2614.00,0.0042
2613.00,0.0042
2612.00,0.0042
2611.00,0.0041
2610.00,0.0041
2609.00,0.0040
2608.00,0.0039
2607.00,0.0039
2606.00,0.0038
2605.00,0.0038
2604.00,0.0037
2603.00,0.0036
2602.00,0.0036
2601.00,0.0035
2600.00,0.0035
2599.00,0.0035
2598.00,0.0035
2597.00,0.0035
2596.00,0.0036
2595.00,0.0036
2594.00,0.0036
2593.00,0.0036
2592.00,0.0037
2591.00,0.0038
2590.00,0.0039
2589.00,0.0040
2588.00,0.0041
2587.00,0.0042
2586.00,0.0042
2585.00,0.0042
2584.00,0.0043
2583.00,0.0044
2582.00,0.0045
2581.00,0.0045
2580.00,0.0045
2579.00,0.0044
2578.00,0.0043
2577.00,0.0041
2576.00,0.0039
2575.00,0.0038
2574.00,0.0037
2573.00,0.0036
2572.00,0.0034
2571.00,0.0033
2570.00,0.0032
2569.00,0.0031
2568.00,0.0030
2567.00,0.0029
2566.00,0.0028
2565.00,0.0028
2564.00,0.0027
2563.00,0.0027
2562.00,0.0027
2561.00,0.0027
2560.00,0.0027
2559.00,0.0026
2558.00,0.0026
2557.00,0.0026
2556.00,0.0025
2555.00,0.0025
2554.00,0.0024
2553.00,0.0024
2552.00,0.0024
2551.00,0.0024
2550.00,0.0024
2549.00,0.0023
2548.00,0.0023
2547.00,0.0023
2546.00,0.0023
2545.00,0.0023
2544.00,0.0023
2543.00,0.0022
2542.00,0.0022
2541.00,0.0021
2540.00,0.0021
2539.00,0.0021
2538.00,0.0021
2537.00,0.0021
2536.00,0.0021
2535.00,0.0020
2534.00,0.0019
2533.00,0.0018
2532.00,0.0018
2531.00,0.0018
2530.00,0.0017
2529.00,0.0017
2528.00,0.0017
2527.00,0.0017
2526.00,0.0017
2525.00,0.0016
2524.00,0.0016
2523.00,0.0017
2522.00,0.0017
2521.00,0.0017
2520.00,0.0016
2519.00,0.0016
2518.00,0.0015
2517.00,0.0015
2516.00,0.0014
2515.00,0.0014
2514.00,0.0013
2513.00,0.0013
2512.00,0.0013
2511.00,0.0013
2510.00,0.0012
2509.00,0.0012
2508.00,0.0011
2507.00,0.0011
2506.00,0.0012
2505.00,0.0012
2504.00,0.0012
2503.00,0.0012
2502.00,0.0012
2501.00,0.0012
2500.00,0.0012
2499.00,0.0013
2498.00,0.0013
2497.00,0.0013
2496.00,0.0013
2495.00,0.0014
2494.00,0.0013
2493.00,0.0013
2492.00,0.0013
2491.00,0.0013
2490.00,0.0013
2489.00,0.0013
2488.00,0.0013
2487.00,0.0013
2486.00,0.0013
2485.00,0.0012
2484.00,0.0012
2483.00,0.0011
2482.00,0.0011
2481.00,0.0011
2480.00,0.0012
2479.00,0.0012
2478.00,0.0012
2477.00,0.0012
2476.00,0.0011
2475.00,0.0012
2474.00,0.0012
2473.00,0.0012
2472.00,0.0012
2471.00,0.0012
2470.00,0.0012
2469.00,0.0012
2468.00,0.0012
2467.00,0.0012
2466.00,0.0012
2465.00,0.0011
2464.00,0.0012
2463.00,0.0012
2462.00,0.0012
2461.00,0.0013
2460.00,0.0013
2459.00,0.0013
2458.00,0.0013
2457.00,0.0013
2456.00,0.0014
2455.00,0.0014
2454.00,0.0014
2453.00,0.0013
2452.00,0.0013
2451.00,0.0013
2450.00,0.0014
2449.00,0.0014
2448.00,0.0013
2447.00,0.0013
2446.00,0.0012
2445.00,0.0012
2444.00,0.0012
2443.00,0.0013
2442.00,0.0013
2441.00,0.0013
2440.00,0.0013
2439.00,0.0013
2438.00,0.0014
2437.00,0.0015
2436.00,0.0015
2435.00,0.0015
2434.00,0.0015
2433.00,0.0014
2432.00,0.0014
2431.00,0.0013
2430.00,0.0013
2429.00,0.0013
2428.00,0.0013
2427.00,0.0013
2426.00,0.0013
2425.00,0.0014
2424.00,0.0014
2423.00,0.0014
2422.00,0.0014
2421.00,0.0014
2420.00,0.0013
2419.00,0.0013
2418.00,0.0013
2417.00,0.0013
2416.00,0.0013
2415.00,0.0012
2414.00,0.0012
2413.00,0.0013
2412.00,0.0013
2411.00,0.0013
2410.00,0.0013
2409.00,0.0013
2408.00,0.0013
2407.00,0.0012
2406.00,0.0012
2405.00,0.0011
2404.00,0.0012
2403.00,0.0012
2402.00,0.0012
2401.00,0.0012
2400.00,0.0012
2399.00,0.0012
2398.00,0.0012
2397.00,0.0012
2396.00,0.0012
2395.00,0.0012
2394.00,0.0011
2393.00,0.0011
2392.00,0.0011
2391.00,0.0011
2390.00,0.0010
2389.00,0.0010
2388.00,0.0009
2387.00,0.0008
2386.00,0.0008
2385.00,0.0007
2384.00,0.0006
2383.00,0.0005
2382.00,0.0004
2381.00,0.0003
2380.00,0.0003
2379.00,0.0002
2378.00,0.0002
2377.00,0.0002
2376.00,0.0002
2375.00,0.0002
2374.00,0.0003
2373.00,0.0003
2372.00,0.0003
2371.00,0.0002
2370.00,0.0001
2369.00,0.0000
2368.00,-0.0001
2367.00,-0.0001
2366.00,-0.0000
2365.00,0.0001
2364.00,0.0001
2363.00,0.0001
2362.00,0.0001
2361.00,0.0001
2360.00,0.0001
2359.00,0.0001
2358.00,0.0000
2357.00,0.0001
2356.00,0.0001
2355.00,0.0002
2354.00,0.0002
2353.00,0.0001
2352.00,0.0001
2351.00,0.0001
2350.00,0.0001
2349.00,0.0001
2348.00,0.0002
2347.00,0.0002
2346.00,0.0002
2345.00,0.0003
2344.00,0.0003
2343.00,0.0004
2342.00,0.0004
2341.00,0.0004
2340.00,0.0004
2339.00,0.0004
2338.00,0.0004
2337.00,0.0004
2336.00,0.0005
2335.00,0.0005
2334.00,0.0005
2333.00,0.0005
2332.00,0.0004
2331.00,0.0003
2330.00,0.0003
2329.00,0.0003
2328.00,0.0005
2327.00,0.0008
2326.00,0.0013
2325.00,0.0017
2324.00,0.0019
2323.00,0.0019
2322.00,0.0017
2321.00,0.0015
2320.00,0.0014
2319.00,0.0013
2318.00,0.0012
2317.00,0.0011
2316.00,0.0010
2315.00,0.0009
2314.00,0.0009
2313.00,0.0008
2312.00,0.0007
2311.00,0.0007
2310.00,0.0007
2309.00,0.0007
2308.00,0.0008
2307.00,0.0008
2306.00,0.0009
2305.00,0.0009
2304.00,0.0009
2303.00,0.0009
2302.00,0.0009
2301.00,0.0009
2300.00,0.0010
2299.00,0.0010
2298.00,0.0011
2297.00,0.0012
2296.00,0.0012
2295.00,0.0012
2294.00,0.0013
2293.00,0.0014
2292.00,0.0015
2291.00,0.0016
2290.00,0.0017
2289.00,0.0017
2288.00,0.0017
2287.00,0.0017
2286.00,0.0017
2285.00,0.0018
2284.00,0.0018
2283.00,0.0017
2282.00,0.0017
2281.00,0.0017
2280.00,0.0017
2279.00,0.0017
2278.00,0.0018
2277.00,0.0018
2276.00,0.0017
2275.00,0.0018
2274.00,0.0018
2273.00,0.0018
2272.00,0.0017
2271.00,0.0017
2270.00,0.0016
2269.00,0.0016
2268.00,0.0015
2267.00,0.0014
2266.00,0.0013
2265.00,0.0013
2264.00,0.0013
2263.00,0.0013
2262.00,0.0014
2261.00,0.0015
2260.00,0.0016
2259.00,0.0016
2258.00,0.0016
2257.00,0.0015
2256.00,0.0013
2255.00,0.0011
2254.00,0.0010
2253.00,0.0010
2252.00,0.0010
2251.00,0.0010
2250.00,0.0009
2249.00,0.0010
2248.00,0.0011
2247.00,0.0013
2246.00,0.0015
2245.00,0.0016
2244.00,0.0016
2243.00,0.0015
2242.00,0.0013
2241.00,0.0012
2240.00,0.0012
2239.00,0.0013
2238.00,0.0013
2237.00,0.0014
2236.00,0.0014
2235.00,0.0014
2234.00,0.0013
2233.00,0.0013
2232.00,0.0012
2231.00,0.0011
2230.00,0.0010
2229.00,0.0008
2228.00,0.0008
2227.00,0.0007
2226.00,0.0007
2225.00,0.0007
2224.00,0.0008
2223.00,0.0008
2222.00,0.0009
2221.00,0.0010
2220.00,0.0010
2219.00,0.0010
2218.00,0.0010
2217.00,0.0009
2216.00,0.0008
2215.00,0.0008
2214.00,0.0009
2213.00,0.0010
2212.00,0.0010
2211.00,0.0009
2210.00,0.0007
2209.00,0.0005
2208.00,0.0004
2207.00,0.0003
2206.00,0.0003
2205.00,0.0004
2204.00,0.0006
2203.00,0.0008
2202.00,0.0009
2201.00,0.0010
2200.00,0.0012
2199.00,0.0013
2198.00,0.0012
2197.00,0.0011
2196.00,0.0009
2195.00,0.0009
2194.00,0.0010
2193.00,0.0012
2192.00,0.0013
2191.00,0.0014
2190.00,0.0013
2189.00,0.0013
2188.00,0.0013
2187.00,0.0015
2186.00,0.0017
2185.00,0.0017
2184.00,0.0015
2183.00,0.0011
2182.00,0.0008
2181.00,0.0007
2180.00,0.0008
2179.00,0.0010
2178.00,0.0012
2177.00,0.0012
2176.00,0.0009
2175.00,0.0005
2174.00,0.0002
2173.00,0.0001
2172.00,0.0002
2171.00,0.0005
2170.00,0.0009
2169.00,0.0013
2168.00,0.0015
2167.00,0.0016
2166.00,0.0017
2165.00,0.0018
2164.00,0.0019
2163.00,0.0020
2162.00,0.0018
2161.00,0.0011
2160.00,-0.0002
2159.00,-0.0017
2158.00,-0.0028
2157.00,-0.0032
2156.00,-0.0030
2155.00,-0.0027
2154.00,-0.0023
2153.00,-0.0018
2152.00,-0.0014
2151.00,-0.0010
2150.00,-0.0008
2149.00,-0.0007
2148.00,-0.0007
2147.00,-0.0009
2146.00,-0.0011
2145.00,-0.0011
2144.00,-0.0010
2143.00,-0.0008
2142.00,-0.0007
2141.00,-0.0007
2140.00,-0.0007
2139.00,-0.0006
2138.00,-0.0005
2137.00,-0.0005
2136.00,-0.0007
2135.00,-0.0011
2134.00,-0.0015
2133.00,-0.0017
2132.00,-0.0016
2131.00,-0.0015
2130.00,-0.0013
2129.00,-0.0011
2128.00,-0.0009
2127.00,-0.0008
2126.00,-0.0006
2125.00,-0.0004
2124.00,-0.0002
2123.00,0.0000
2122.00,0.0002
2121.00,0.0003
2120.00,0.0004
2119.00,0.0004
2118.00,0.0004
2117.00,0.0004
2116.00,0.0003
2115.00,0.0002
2114.00,0.0001
2113.00,0.0001
2112.00,0.0002
2111.00,0.0003
2110.00,0.0004
2109.00,0.0004
2108.00,0.0004
2107.00,0.0004
2106.00,0.0003
2105.00,0.0002
2104.00,0.0002
2103.00,0.0002
2102.00,0.0002
2101.00,0.0003
2100.00,0.0004
2099.00,0.0004
2098.00,0.0002
2097.00,0.0000
2096.00,-0.0002
2095.00,-0.0002
2094.00,-0.0001
2093.00,0.0001
2092.00,0.0003
2091.00,0.0004
2090.00,0.0003
2089.00,0.0003
2088.00,0.0002
2087.00,0.0002
2086.00,0.0002
2085.00,0.0003
2084.00,0.0004
2083.00,0.0005
2082.00,0.0006
2081.00,0.0005
2080.00,0.0004
2079.00,0.0003
2078.00,0.0002
2077.00,0.0002
2076.00,0.0004
2075.00,0.0005
2074.00,0.0005
2073.00,0.0005
2072.00,0.0003
2071.00,0.0002
2070.00,0.0001
2069.00,0.0001
2068.00,0.0001
2067.00,0.0001
2066.00,-0.0000
2065.00,-0.0001
2064.00,-0.0001
2063.00,-0.0002
2062.00,-0.0001
2061.00,0.0001
2060.00,0.0002
2059.00,0.0004
2058.00,0.0006
2057.00,0.0007
2056.00,0.0007
2055.00,0.0006
2054.00,0.0006
2053.00,0.0009
2052.00,0.0013
2051.00,0.0014
2050.00,0.0012
2049.00,0.0007
2048.00,0.0002
2047.00,-0.0002
2046.00,-0.0004
2045.00,-0.0003
2044.00,0.0000
2043.00,0.0005
2042.00,0.0010
2041.00,0.0013
2040.00,0.0014
2039.00,0.0012
2038.00,0.0011
2037.00,0.0010
2036.00,0.0008
2035.00,0.0003
2034.00,-0.0003
2033.00,-0.0006
2032.00,-0.0007
2031.00,-0.0006
2030.00,-0.0003
2029.00,0.0000
2028.00,0.0003
2027.00,0.0003
2026.00,0.0001
2025.00,0.0000
2024.00,-0.0001
2023.00,-0.0003
2022.00,-0.0006
2021.00,-0.0009
2020.00,-0.0010
2019.00,-0.0011
2018.00,-0.0011
2017.00,-0.0009
2016.00,-0.0008
2015.00,-0.0007
2014.00,-0.0009
2013.00,-0.0011
2012.00,-0.0013
2011.00,-0.0015
2010.00,-0.0016
2009.00,-0.0017
2008.00,-0.0018
2007.00,-0.0020
2006.00,-0.0022
2005.00,-0.0022
2004.00,-0.0020
2003.00,-0.0017
2002.00,-0.0013
2001.00,-0.0010
2000.00,-0.0007
1999.00,-0.0005
1998.00,-0.0003
1997.00,-0.0002
1996.00,-0.0002
1995.00,-0.0003
1994.00,-0.0004
1993.00,-0.0004
1992.00,-0.0004
1991.00,-0.0004
1990.00,-0.0003
1989.00,-0.0002
1988.00,0.0001
1987.00,0.0003
1986.00,0.0005
1985.00,0.0005
1984.00,0.0006
1983.00,0.0006
1982.00,0.0007
1981.00,0.0008
1980.00,0.0008
1979.00,0.0004
1978.00,-0.0002
1977.00,-0.0007
1976.00,-0.0009
1975.00,-0.0008
1974.00,-0.0006
1973.00,-0.0004
1972.00,-0.0003
1971.00,-0.0004
1970.00,-0.0005
1969.00,-0.0007
1968.00,-0.0009
1967.00,-0.0010
1966.00,-0.0010
1965.00,-0.0011
1964.00,-0.0011
1963.00,-0.0012
1962.00,-0.0014
1961.00,-0.0017
1960.00,-0.0019
1959.00,-0.0020
1958.00,-0.0018
1957.00,-0.0016
1956.00,-0.0012
1955.00,-0.0010
1954.00,-0.0008
1953.00,-0.0008
1952.00,-0.0009
1951.00,-0.0010
1950.00,-0.0010
1949.00,-0.0010
1948.00,-0.0010
1947.00,-0.0010
1946.00,-0.0012
1945.00,-0.0013
1944.00,-0.0012
1943.00,-0.0012
1942.00,-0.0010
1941.00,-0.0009
1940.00,-0.0008
1939.00,-0.0007
1938.00,-0.0007
1937.00,-0.0006
1936.00,-0.0006
1935.00,-0.0006
1934.00,-0.0006
1933.00,-0.0005
1932.00,-0.0004
1931.00,-0.0004
1930.00,-0.0004
1929.00,-0.0004
1928.00,-0.0003
1927.00,-0.0002
1926.00,-0.0003
1925.00,-0.0003
1924.00,-0.0003
1923.00,-0.0004
1922.00,-0.0005
1921.00,-0.0005
1920.00,-0.0005
1919.00,-0.0004
1918.00,-0.0004
1917.00,-0.0003
1916.00,-0.0003
1915.00,-0.0002
1914.00,-0.0002
1913.00,-0.0000
1912.00,0.0000
1911.00,0.0001
1910.00,0.0000
1909.00,0.0000
1908.00,-0.0000
1907.00,-0.0000
1906.00,-0.0000
1905.00,0.0000
1904.00,0.0001
1903.00,0.0001
1902.00,0.0000
1901.00,-0.0001
1900.00,-0.0001
1899.00,-0.0001
1898.00,-0.0000
1897.00,0.0002
1896.00,0.0003
1895.00,0.0004
1894.00,0.0004
1893.00,0.0003
1892.00,0.0003
1891.00,0.0002
1890.00,0.0001
1889.00,0.0001
1888.00,0.0002
1887.00,0.0002
1886.00,0.0002
1885.00,0.0003
1884.00,0.0002
1883.00,0.0001
1882.00,0.0000
1881.00,0.0000
1880.00,0.0001
1879.00,0.0001
1878.00,0.0000
1877.00,0.0000
1876.00,0.0000
1875.00,0.0001
1874.00,0.0001
1873.00,0.0001
1872.00,0.0001
1871.00,0.0001
1870.00,0.0001
1869.00,0.0000
1868.00,0.0000
1867.00,0.0000
1866.00,0.0000
1865.00,0.0001
1864.00,0.0003
1863.00,0.0004
1862.00,0.0004
1861.00,0.0004
1860.00,0.0003
1859.00,0.0003
1858.00,0.0004
1857.00,0.0004
1856.00,0.0005
1855.00,0.0004
1854.00,0.0004
1853.00,0.0003
1852.00,0.0003
1851.00,0.0002
1850.00,0.0002
1849.00,0.0002
1848.00,0.0003
1847.00,0.0004
1846.00,0.0004
1845.00,0.0004
1844.00,0.0004
1843.00,0.0004
1842.00,0.0003
1841.00,0.0003
1840.00,0.0004
1839.00,0.0004
1838.00,0.0004
1837.00,0.0004
1836.00,0.0004
1835.00,0.0004
1834.00,0.0003
1833.00,0.0004
1832.00,0.0005
1831.00,0.0007
1830.00,0.0008
1829.00,0.0008
1828.00,0.0007
1827.00,0.0006
1826.00,0.0005
1825.00,0.0005
1824.00,0.0005
1823.00,0.0005
1822.00,0.0005
1821.00,0.0005
1820.00,0.0005
1819.00,0.0004
1818.00,0.0003
1817.00,0.0003
1816.00,0.0003
1815.00,0.0004
1814.00,0.0005
1813.00,0.0006
1812.00,0.0006
1811.00,0.0006
1810.00,0.0006
1809.00,0.0006
1808.00,0.0006
1807.00,0.0006
1806.00,0.0006
1805.00,0.0006
1804.00,0.0007
1803.00,0.0007
1802.00,0.0007
1801.00,0.0007
1800.00,0.0007
1799.00,0.0007
1798.00,0.0007
1797.00,0.0007
1796.00,0.0007
1795.00,0.0007
1794.00,0.0008
1793.00,0.0008
1792.00,0.0008
1791.00,0.0008
1790.00,0.0007
1789.00,0.0007
1788.00,0.0007
1787.00,0.0008
1786.00,0.0008
1785.00,0.0008
1784.00,0.0008
1783.00,0.0009
1782.00,0.0009
1781.00,0.0009
1780.00,0.0009
1779.00,0.0009
1778.00,0.0009
1777.00,0.0009
1776.00,0.0009
1775.00,0.0008
1774.00,0.0008
1773.00,0.0008
1772.00,0.0009
1771.00,0.0009
1770.00,0.0010
1769.00,0.0010
1768.00,0.0011
1767.00,0.0011
1766.00,0.0011
1765.00,0.0012
1764.00,0.0012
1763.00,0.0012
1762.00,0.0013
1761.00,0.0013
1760.00,0.0013
1759.00,0.0013
1758.00,0.0013
1757.00,0.0014
1756.00,0.0014
1755.00,0.0014
1754.00,0.0014
1753.00,0.0014
1752.00,0.0014
1751.00,0.0015
1750.00,0.0015
1749.00,0.0016
1748.00,0.0017
1747.00,0.0017
1746.00,0.0017
1745.00,0.0017
1744.00,0.0018
1743.00,0.0018
1742.00,0.0018
1741.00,0.0019
1740.00,0.0019
1739.00,0.0019
1738.00,0.0019
1737.00,0.0019
1736.00,0.0020
1735.00,0.0020
1734.00,0.0020
1733.00,0.0020
1732.00,0.0021
1731.00,0.0022
1730.00,0.0022
1729.00,0.0022
1728.00,0.0021
1727.00,0.0021
1726.00,0.0021
1725.00,0.0021
1724.00,0.0021
1723.00,0.0021
1722.00,0.0021
1721.00,0.0022
1720.00,0.0023
1719.00,0.0024
1718.00,0.0023
1717.00,0.0022
1716.00,0.0022
1715.00,0.0023
1714.00,0.0024
1713.00,0.0024
1712.00,0.0025
1711.00,0.0026
1710.00,0.0026
1709.00,0.0026
1708.00,0.0027
1707.00,0.0028
1706.00,0.0029
1705.00,0.0030
1704.00,0.0030
1703.00,0.0030
1702.00,0.0031
1701.00,0.0032
1700.00,0.0032
1699.00,0.0032
1698.00,0.0032
1697.00,0.0032
1696.00,0.0034
1695.00,0.0036
1694.00,0.0037
1693.00,0.0037
1692.00,0.0038
1691.00,0.0039
1690.00,0.0040
1689.00,0.0041
1688.00,0.0041
1687.00,0.0042
1686.00,0.0045
1685.00,0.0047
1684.00,0.0048
1683.00,0.0048
1682.00,0.0048
1681.00,0.0048
1680.00,0.0048
1679.00,0.0049
1678.00,0.0049
1677.00,0.0050
1676.00,0.0051
1675.00,0.0052
1674.00,0.0053
1673.00,0.0054
1672.00,0.0055
1671.00,0.0056
1670.00,0.0057
1669.00,0.0058
1668.00,0.0059
1667.00,0.0059
1666.00,0.0059
1665.00,0.0060
1664.00,0.0060
1663.00,0.0060
1662.00,0.0060
1661.00,0.0061
1660.00,0.0062
1659.00,0.0064
1658.00,0.0064
1657.00,0.0065
1656.00,0.0066
1655.00,0.0068
1654.00,0.0070
1653.00,0.0071
1652.00,0.0072
1651.00,0.0071
1650.00,0.0071
1649.00,0.0071
1648.00,0.0072
1647.00,0.0072
1646.00,0.0072
1645.00,0.0072
1644.00,0.0072
1643.00,0.0072
1642.00,0.0071
1641.00,0.0071
1640.00,0.0071
1639.00,0.0071
1638.00,0.0070
1637.00,0.0070
1636.00,0.0071
1635.00,0.0071
1634.00,0.0072
1633.00,0.0072
1632.00,0.0072
1631.00,0.0072
1630.00,0.0072
1629.00,0.0072
1628.00,0.0071
1627.00,0.0070
1626.00,0.0070
1625.00,0.0069
1624.00,0.0069
1623.00,0.0068
1622.00,0.0067
1621.00,0.0067
1620.00,0.0066
1619.00,0.0065
1618.00,0.0065
1617.00,0.0064
1616.00,0.0064
1615.00,0.0064
1614.00,0.0063
1613.00,0.0063
1612.00,0.0063
1611.00,0.0062
1610.00,0.0062
1609.00,0.0062
1608.00,0.0062
1607.00,0.0062
1606.00,0.0061
1605.00,0.0061
1604.00,0.0062
1603.00,0.0062
1602.00,0.0061
1601.00,0.0062
1600.00,0.0062
1599.00,0.0062
1598.00,0.0062
1597.00,0.0062
1596.00,0.0062
1595.00,0.0063
1594.00,0.0063
1593.00,0.0063
1592.00,0.0064
1591.00,0.0065
1590.00,0.0066
1589.00,0.0067
1588.00,0.0068
1587.00,0.0070
1586.00,0.0072
1585.00,0.0074
1584.00,0.0077
1583.00,0.0080
1582.00,0.0083
1581.00,0.0086
1580.00,0.0089
1579.00,0.0091
1578.00,0.0093
1577.00,0.0094
1576.00,0.0093
1575.00,0.0091
1574.00,0.0089
1573.00,0.0088
1572.00,0.0086
1571.00,0.0083
1570.00,0.0080
1569.00,0.0077
1568.00,0.0075
1567.00,0.0074
1566.00,0.0074
1565.00,0.0073
1564.00,0.0072
1563.00,0.0072
1562.00,0.0072
1561.00,0.0075
1560.00,0.0078
1559.00,0.0076
1558.00,0.0075
1557.00,0.0075
1556.00,0.0076
1555.00,0.0076
1554.00,0.0077
1553.00,0.0079
1552.00,0.0080
1551.00,0.0081
1550.00,0.0083
1549.00,0.0085
1548.00,0.0087
1547.00,0.0090
1546.00,0.0093
1545.00,0.0097
1544.00,0.0100
1543.00,0.0102
1542.00,0.0103
1541.00,0.0104
1540.00,0.0102
1539.00,0.0099
1538.00,0.0096
1537.00,0.0093
1536.00,0.0091
1535.00,0.0088
1534.00,0.0084
1533.00,0.0079
1532.00,0.0076
1531.00,0.0074
1530.00,0.0073
1529.00,0.0072
1528.00,0.0072
1527.00,0.0071
1526.00,0.0069
1525.00,0.0068
1524.00,0.0068
1523.00,0.0068
1522.00,0.0067
1521.00,0.0067
1520.00,0.0068
1519.00,0.0068
1518.00,0.0068
1517.00,0.0068
1516.00,0.0069
1515.00,0.0068
1514.00,0.0068
1513.00,0.0069
1512.00,0.0069
1511.00,0.0070
1510.00,0.0070
1509.00,0.0071
1508.00,0.0072
1507.00,0.0071
1506.00,0.0070
1505.00,0.0072
1504.00,0.0074
1503.00,0.0075
1502.00,0.0076
1501.00,0.0077
1500.00,0.0079
1499.00,0.0081
1498.00,0.0081
1497.00,0.0083
1496.00,0.0086
1495.00,0.0088
1494.00,0.0090
1493.00,0.0093
1492.00,0.0097
1491.00,0.0100
1490.00,0.0104
1489.00,0.0109
1488.00,0.0115
1487.00,0.0120
1486.00,0.0125
1485.00,0.0132
1484.00,0.0141
1483.00,0.0150
1482.00,0.0160
1481.00,0.0172
1480.00,0.0186
1479.00,0.0199
1478.00,0.0214
1477.00,0.0233
1476.00,0.0255
1475.00,0.0279
1474.00,0.0312
1473.00,0.0364
1472.00,0.0429
1471.00,0.0495
1470.00,0.0560
1469.00,0.0629
1468.00,0.0703
1467.00,0.0785
1466.00,0.0879
1465.00,0.0980
1464.00,0.1070
1463.00,0.1135
1462.00,0.1180
1461.00,0.1212
1460.00,0.1235
1459.00,0.1251
1458.00,0.1261
1457.00,0.1266
1456.00,0.1263
1455.00,0.1254
1454.00,0.1240
1453.00,0.1220
1452.00,0.1190
1451.00,0.1146
1450.00,0.1088
1449.00,0.1009
1448.00,0.0911
1447.00,0.0810
1446.00,0.0720
1445.00,0.0645
1444.00,0.0582
1443.00,0.0532
1442.00,0.0496
1441.00,0.0473
1440.00,0.0461
1439.00,0.0459
1438.00,0.0467
1437.00,0.0474
1436.00,0.0468
1435.00,0.0442
1434.00,0.0401
1433.00,0.0350
1432.00,0.0299
1431.00,0.0253
1430.00,0.0219
1429.00,0.0195
1428.00,0.0179
1427.00,0.0169
1426.00,0.0164
1425.00,0.0158
1424.00,0.0153
1423.00,0.0149
1422.00,0.0147
1421.00,0.0144
1420.00,0.0141
1419.00,0.0138
1418.00,0.0136
1417.00,0.0133
1416.00,0.0129
1415.00,0.0127
1414.00,0.0126
1413.00,0.0124
1412.00,0.0121
1411.00,0.0119
1410.00,0.0118
1409.00,0.0116
1408.00,0.0113
1407.00,0.0112
1406.00,0.0111
1405.00,0.0109
1404.00,0.0107
1403.00,0.0106
1402.00,0.0106
1401.00,0.0105
1400.00,0.0103
1399.00,0.0102
1398.00,0.0102
1397.00,0.0102
1396.00,0.0102
1395.00,0.0105
1394.00,0.0110
1393.00,0.0115
1392.00,0.0121
1391.00,0.0130
1390.00,0.0144
1389.00,0.0161
1388.00,0.0188
1387.00,0.0227
1386.00,0.0278
1385.00,0.0343
1384.00,0.0428
1383.00,0.0546
1382.00,0.0703
1381.00,0.0908
1380.00,0.1169
1379.00,0.1479
1378.00,0.1796
1377.00,0.2053
1376.00,0.2174
1375.00,0.2104
1374.00,0.1860
1373.00,0.1539
1372.00,0.1234
1371.00,0.0977
1370.00,0.0773
1369.00,0.0619
1368.00,0.0513
1367.00,0.0449
1366.00,0.0415
1365.00,0.0403
1364.00,0.0408
1363.00,0.0426
1362.00,0.0453
1361.00,0.0482
1360.00,0.0504
1359.00,0.0512
1358.00,0.0500
1357.00,0.0469
1356.00,0.0425
1355.00,0.0376
1354.00,0.0328
1353.00,0.0287
1352.00,0.0255
1351.00,0.0228
1350.00,0.0207
1349.00,0.0191
1348.00,0.0178
1347.00,0.0167
1346.00,0.0159
1345.00,0.0151
1344.00,0.0146
1343.00,0.0142
1342.00,0.0139
1341.00,0.0136
1340.00,0.0134
1339.00,0.0133
1338.00,0.0131
1337.00,0.0131
1336.00,0.0132
1335.00,0.0135
1334.00,0.0139
1333.00,0.0144
1332.00,0.0149
1331.00,0.0154
1330.00,0.0156
1329.00,0.0154
1328.00,0.0149
1327.00,0.0142
1326.00,0.0135
1325.00,0.0128
1324.00,0.0121
1323.00,0.0116
1322.00,0.0112
1321.00,0.0109
1320.00,0.0106
1319.00,0.0103
1318.00,0.0101
1317.00,0.0099
1316.00,0.0097
1315.00,0.0095
1314.00,0.0094
1313.00,0.0093
1312.00,0.0094
1311.00,0.0096
1310.00,0.0099
1309.00,0.0104
1308.00,0.0110
1307.00,0.0118
1306.00,0.0126
1305.00,0.0133
1304.00,0.0136
1303.00,0.0136
1302.00,0.0135
1301.00,0.0134
1300.00,0.0134
1299.00,0.0135
1298.00,0.0138
1297.00,0.0139
1296.00,0.0139
1295.00,0.0137
1294.00,0.0132
1293.00,0.0127
1292.00,0.0120
1291.00,0.0114
1290.00,0.0108
1289.00,0.0103
1288.00,0.0099
1287.00,0.0095
1286.00,0.0092
1285.00,0.0089
1284.00,0.0087
1283.00,0.0085
1282.00,0.0083
1281.00,0.0082
1280.00,0.0080
1279.00,0.0079
1278.00,0.0078
1277.00,0.0076
1276.00,0.0075
1275.00,0.0074
1274.00,0.0073
1273.00,0.0072
1272.00,0.0071
1271.00,0.0070
1270.00,0.0070
1269.00,0.0069
1268.00,0.0070
1267.00,0.0070
1266.00,0.0071
1265.00,0.0073
1264.00,0.0074
1263.00,0.0076
1262.00,0.0078
1261.00,0.0081
1260.00,0.0085
1259.00,0.0089
1258.00,0.0094
1257.00,0.0096
1256.00,0.0097
1255.00,0.0095
1254.00,0.0090
1253.00,0.0084
1252.00,0.0078
1251.00,0.0073
1250.00,0.0071
1249.00,0.0070
1248.00,0.0069
1247.00,0.0069
1246.00,0.0070
1245.00,0.0069
1244.00,0.0068
1243.00,0.0067
1242.00,0.0066
1241.00,0.0066
1240.00,0.0066
1239.00,0.0066
1238.00,0.0068
1237.00,0.0069
1236.00,0.0070
1235.00,0.0071
1234.00,0.0071
1233.00,0.0072
1232.00,0.0073
1231.00,0.0075
1230.00,0.0077
1229.00,0.0080
1228.00,0.0082
1227.00,0.0084
1226.00,0.0087
1225.00,0.0091
1224.00,0.0095
1223.00,0.0100
1222.00,0.0104
1221.00,0.0108
1220.00,0.0111
1219.00,0.0113
1218.00,0.0113
1217.00,0.0112
1216.00,0.0111
1215.00,0.0108
1214.00,0.0105
1213.00,0.0101
1212.00,0.0097
1211.00,0.0094
1210.00,0.0091
1209.00,0.0089
1208.00,0.0087
1207.00,0.0086
1206.00,0.0085
1205.00,0.0085
1204.00,0.0084
1203.00,0.0083
1202.00,0.0082
1201.00,0.0082
1200.00,0.0081
1199.00,0.0080
1198.00,0.0079
1197.00,0.0079
1196.00,0.0078
1195.00,0.0078
1194.00,0.0078
1193.00,0.0078
1192.00,0.0077
1191.00,0.0076
1190.00,0.0075
1189.00,0.0073
1188.00,0.0072
1187.00,0.0071
1186.00,0.0070
1185.00,0.0069
1184.00,0.0069
1183.00,0.0069
1182.00,0.0068
1181.00,0.0069
1180.00,0.0070
1179.00,0.0072
1178.00,0.0075
1177.00,0.0080
1176.00,0.0086
1175.00,0.0096
1174.00,0.0110
1173.00,0.0127
1172.00,0.0148
1171.00,0.0170
1170.00,0.0191
1169.00,0.0209
1168.00,0.0220
1167.00,0.0223
1166.00,0.0219
1165.00,0.0210
1164.00,0.0199
1163.00,0.0187
1162.00,0.0177
1161.00,0.0169
1160.00,0.0162
1159.00,0.0156
1158.00,0.0152
1157.00,0.0149
1156.00,0.0148
1155.00,0.0147
1154.00,0.0147
1153.00,0.0146
1152.00,0.0143
1151.00,0.0137
1150.00,0.0129
1149.00,0.0121
1148.00,0.0113
1147.00,0.0106
1146.00,0.0099
1145.00,0.0092
1144.00,0.0086
1143.00,0.0081
1142.00,0.0076
1141.00,0.0071
1140.00,0.0066
1139.00,0.0063
1138.00,0.0060
1137.00,0.0058
1136.00,0.0057
1135.00,0.0057
1134.00,0.0056
1133.00,0.0056
1132.00,0.0056
1131.00,0.0057
1130.00,0.0059
1129.00,0.0061
1128.00,0.0063
1127.00,0.0065
1126.00,0.0067
1125.00,0.0068
1124.00,0.0068
1123.00,0.0069
1122.00,0.0069
1121.00,0.0069
1120.00,0.0070
1119.00,0.0072
1118.00,0.0074
1117.00,0.0076
1116.00,0.0078
1115.00,0.0080
1114.00,0.0083
1113.00,0.0086
1112.00,0.0089
1111.00,0.0093
1110.00,0.0098
1109.00,0.0103
1108.00,0.0110
1107.00,0.0117
1106.00,0.0124
1105.00,0.0132
1104.00,0.0138
1103.00,0.0141
1102.00,0.0141
1101.00,0.0138
1100.00,0.0132
1099.00,0.0125
1098.00,0.0116
1097.00,0.0107
1096.00,0.0099
1095.00,0.0092
1094.00,0.0087
1093.00,0.0082
1092.00,0.0078
1091.00,0.0075
1090.00,0.0073
1089.00,0.0070
1088.00,0.0067
1087.00,0.0065
1086.00,0.0064
1085.00,0.0064
1084.00,0.0063
1083.00,0.0061
1082.00,0.0060
1081.00,0.0059
1080.00,0.0058
1079.00,0.0057
1078.00,0.0055
1077.00,0.0053
1076.00,0.0052
1075.00,0.0051
1074.00,0.0051
1073.00,0.0050
1072.00,0.0050
1071.00,0.0050
1070.00,0.0051
1069.00,0.0053
1068.00,0.0055
1067.00,0.0057
1066.00,0.0058
1065.00,0.0059
1064.00,0.0059
1063.00,0.0059
1062.00,0.0060
1061.00,0.0061
1060.00,0.0063
1059.00,0.0064
1058.00,0.0065
1057.00,0.0067
1056.00,0.0067
1055.00,0.0068
1054.00,0.0069
1053.00,0.0071
1052.00,0.0074
1051.00,0.0077
1050.00,0.0080
1049.00,0.0083
1048.00,0.0087
1047.00,0.0090
1046.00,0.0092
1045.00,0.0094
1044.00,0.0096
1043.00,0.0097
1042.00,0.0098
1041.00,0.0098
1040.00,0.0098
1039.00,0.0099
1038.00,0.0101
1037.00,0.0103
1036.00,0.0105
1035.00,0.0106
1034.00,0.0105
1033.00,0.0104
1032.00,0.0103
1031.00,0.0102
1030.00,0.0102
1029.00,0.0101
1028.00,0.0100
1027.00,0.0098
1026.00,0.0098
1025.00,0.0097
1024.00,0.0097
1023.00,0.0097
1022.00,0.0097
1021.00,0.0097
1020.00,0.0098
1019.00,0.0099
1018.00,0.0101
1017.00,0.0102
1016.00,0.0104
1015.00,0.0107
1014.00,0.0110
1013.00,0.0114
1012.00,0.0117
1011.00,0.0119
1010.00,0.0121
1009.00,0.0122
1008.00,0.0123
1007.00,0.0126
1006.00,0.0131
1005.00,0.0139
1004.00,0.0150
1003.00,0.0165
1002.00,0.0185
1001.00,0.0208
1000.00,0.0231
999.00,0.0250
998.00,0.0257
997.00,0.0251
996.00,0.0233
995.00,0.0207
994.00,0.0179
993.00,0.0156
992.00,0.0137
991.00,0.0123
990.00,0.0113
989.00,0.0107
988.00,0.0102
987.00,0.0100
986.00,0.0100
985.00,0.0101
984.00,0.0104
983.00,0.0109
982.00,0.0118
981.00,0.0131
980.00,0.0148
979.00,0.0170
978.00,0.0197
977.00,0.0229
976.00,0.0261
975.00,0.0289
974.00,0.0306
973.00,0.0307
972.00,0.0289
971.00,0.0257
970.00,0.0218
969.00,0.0179
968.00,0.0147
967.00,0.0121
966.00,0.0102
965.00,0.0089
964.00,0.0079
963.00,0.0071
962.00,0.0066
961.00,0.0060
960.00,0.0055
959.00,0.0051
958.00,0.0047
957.00,0.0044
956.00,0.0042
955.00,0.0040
954.00,0.0040
953.00,0.0039
952.00,0.0038
951.00,0.0038
950.00,0.0038
949.00,0.0039
948.00,0.0041
947.00,0.0043
946.00,0.0047
945.00,0.0052
944.00,0.0058
943.00,0.0064
942.00,0.0068
941.00,0.0070
940.00,0.0070
939.00,0.0068
938.00,0.0064
937.00,0.0061
936.00,0.0058
935.00,0.0057
934.00,0.0056
933.00,0.0055
932.00,0.0054
931.00,0.0054
930.00,0.0054
929.00,0.0054
928.00,0.0055
927.00,0.0057
926.00,0.0058
925.00,0.0059
924.00,0.0060
923.00,0.0061
922.00,0.0063
921.00,0.0064
920.00,0.0066
919.00,0.0069
918.00,0.0071
917.00,0.0073
916.00,0.0074
915.00,0.0075
914.00,0.0075
913.00,0.0075
912.00,0.0076
911.00,0.0076
910.00,0.0078
909.00,0.0080
908.00,0.0083
907.00,0.0087
906.00,0.0095
905.00,0.0107
904.00,0.0124
903.00,0.0145
902.00,0.0169
901.00,0.0191
900.00,0.0207
899.00,0.0211
898.00,0.0203
897.00,0.0185
896.00,0.0162
895.00,0.0139
894.00,0.0119
893.00,0.0106
892.00,0.0096
891.00,0.0091
890.00,0.0086
889.00,0.0083
888.00,0.0080
887.00,0.0077
886.00,0.0074
885.00,0.0072
884.00,0.0071
883.00,0.0071
882.00,0.0072
881.00,0.0072
880.00,0.0073
879.00,0.0073
878.00,0.0073
877.00,0.0073
876.00,0.0074
875.00,0.0076
874.00,0.0076
873.00,0.0076
872.00,0.0076
871.00,0.0077
870.00,0.0077
869.00,0.0077
868.00,0.0077
867.00,0.0076
866.00,0.0076
865.00,0.0078
864.00,0.0080
863.00,0.0082
862.00,0.0083
861.00,0.0083
860.00,0.0083
859.00,0.0085
858.00,0.0086
857.00,0.0086
856.00,0.0086
855.00,0.0087
854.00,0.0088
853.00,0.0091
852.00,0.0094
851.00,0.0097
850.00,0.0100
849.00,0.0105
848.00,0.0111
847.00,0.0121
846.00,0.0135
845.00,0.0157
844.00,0.0184
843.00,0.0213
842.00,0.0233
841.00,0.0235
840.00,0.0219
839.00,0.0192
838.00,0.0164
837.00,0.0142
836.00,0.0128
835.00,0.0120
834.00,0.0115
833.00,0.0112
832.00,0.0109
831.00,0.0107
830.00,0.0106
829.00,0.0104
828.00,0.0102
827.00,0.0100
826.00,0.0100
825.00,0.0101
824.00,0.0102
823.00,0.0102
822.00,0.0102
821.00,0.0104
820.00,0.0108
819.00,0.0113
818.00,0.0118
817.00,0.0124
816.00,0.0133
815.00,0.0145
814.00,0.0161
813.00,0.0180
812.00,0.0200
811.00,0.0217
810.00,0.0231
809.00,0.0237
808.00,0.0235
807.00,0.0225
806.00,0.0210
805.00,0.0192
804.00,0.0174
803.00,0.0158
802.00,0.0144
801.00,0.0133
800.00,0.0124
799.00,0.0118
798.00,0.0114
797.00,0.0110
796.00,0.0107
795.00,0.0103
794.00,0.0098
793.00,0.0094
792.00,0.0092
791.00,0.0090
790.00,0.0088
789.00,0.0087
788.00,0.0086
787.00,0.0085
786.00,0.0082
785.00,0.0079
784.00,0.0075
783.00,0.0072
782.00,0.0070
781.00,0.0068
780.00,0.0067
779.00,0.0067
778.00,0.0067
777.00,0.0067
776.00,0.0067
775.00,0.0068
774.00,0.0069
773.00,0.0071
772.00,0.0074
771.00,0.0078
770.00,0.0081
769.00,0.0083
768.00,0.0084
767.00,0.0083
766.00,0.0082
765.00,0.0081
764.00,0.0079
763.00,0.0077
762.00,0.0075
761.00,0.0072
760.00,0.0068
759.00,0.0065
758.00,0.0063
757.00,0.0060
756.00,0.0058
755.00,0.0057
754.00,0.0057
753.00,0.0058
752.00,0.0058
751.00,0.0058
750.00,0.0058
749.00,0.0059
748.00,0.0059
747.00,0.0060
746.00,0.0062
745.00,0.0064
744.00,0.0066
743.00,0.0065
742.00,0.0065
741.00,0.0064
740.00,0.0065
739.00,0.0066
738.00,0.0067
737.00,0.0068
736.00,0.0069
735.00,0.0071
734.00,0.0072
733.00,0.0072
732.00,0.0072
731.00,0.0071
730.00,0.0071
729.00,0.0070
728.00,0.0070
727.00,0.0071
726.00,0.0073
725.00,0.0074
724.00,0.0074
723.00,0.0072
722.00,0.0070
721.00,0.0068
720.00,0.0066
719.00,0.0066
718.00,0.0066
717.00,0.0065
716.00,0.0065
715.00,0.0065
714.00,0.0064
713.00,0.0064
712.00,0.0063
711.00,0.0063
710.00,0.0062
709.00,0.0062
708.00,0.0063
707.00,0.0064
706.00,0.0066
705.00,0.0066
704.00,0.0066
703.00,0.0066
702.00,0.0065
701.00,0.0064
700.00,0.0063
699.00,0.0062
698.00,0.0062
697.00,0.0062
696.00,0.0062
695.00,0.0062
694.00,0.0061
693.00,0.0060
692.00,0.0060
691.00,0.0060
690.00,0.0061
689.00,0.0063
688.00,0.0064
687.00,0.0064
686.00,0.0063
685.00,0.0063
684.00,0.0063
683.00,0.0064
682.00,0.0064
681.00,0.0064
680.00,0.0063
679.00,0.0062
678.00,0.0062
677.00,0.0063
676.00,0.0065
675.00,0.0067
674.00,0.0068
673.00,0.0068
672.00,0.0066
671.00,0.0065
670.00,0.0067
669.00,0.0070
668.00,0.0073
667.00,0.0072
666.00,0.0067
665.00,0.0063
664.00,0.0061
663.00,0.0061
662.00,0.0062
661.00,0.0063
660.00,0.0064
659.00,0.0064
658.00,0.0064
657.00,0.0062
656.00,0.0061
655.00,0.0060
654.00,0.0061
653.00,0.0061
652.00,0.0061
651.00,0.0060
650.00,0.0058
649.00,0.0058
648.00,0.0058
647.00,0.0059
646.00,0.0060
645.00,0.0061
644.00,0.0062
643.00,0.0063
642.00,0.0063
641.00,0.0065
640.00,0.0066
639.00,0.0068
638.00,0.0068
637.00,0.0067
636.00,0.0065
635.00,0.0064
634.00,0.0064
633.00,0.0065
632.00,0.0067
631.00,0.0068
630.00,0.0068
629.00,0.0068
628.00,0.0068
627.00,0.0068
626.00,0.0068
625.00,0.0068
624.00,0.0066
623.00,0.0063
622.00,0.0060
621.00,0.0060
620.00,0.0062
619.00,0.0064
618.00,0.0066
617.00,0.0065
616.00,0.0065
615.00,0.0066
614.00,0.0068
613.00,0.0069
612.00,0.0070
611.00,0.0070
610.00,0.0070
609.00,0.0071
608.00,0.0073
607.00,0.0073
606.00,0.0072
605.00,0.0071
604.00,0.0070
603.00,0.0070
602.00,0.0069
601.00,0.0068
600.00,0.0069
599.00,0.0071
598.00,0.0073
597.00,0.0073
596.00,0.0071
595.00,0.0070
594.00,0.0069
593.00,0.0069
592.00,0.0068
591.00,0.0068
590.00,0.0069
589.00,0.0070
588.00,0.0072
587.00,0.0074
586.00,0.0074
585.00,0.0074
584.00,0.0075
583.00,0.0075
582.00,0.0074
581.00,0.0072
580.00,0.0069
579.00,0.0068
578.00,0.0070
577.00,0.0071
576.00,0.0071
575.00,0.0069
574.00,0.0066
573.00,0.0064
572.00,0.0063
571.00,0.0063
570.00,0.0066
569.00,0.0069
568.00,0.0071
567.00,0.0073
566.00,0.0072
565.00,0.0071
564.00,0.0071
563.00,0.0072
562.00,0.0074
561.00,0.0076
560.00,0.0078
559.00,0.0078
558.00,0.0076
557.00,0.0073
556.00,0.0068
555.00,0.0064
554.00,0.0063
553.00,0.0065
552.00,0.0069
551.00,0.0073
550.00,0.0076
549.00,0.0076
548.00,0.0074
547.00,0.0073
546.00,0.0073
545.00,0.0074
544.00,0.0073
543.00,0.0070
542.00,0.0067
541.00,0.0068
540.00,0.0072
539.00,0.0076
538.00,0.0080
537.00,0.0083
536.00,0.0087
535.00,0.0093
534.00,0.0099
533.00,0.0100
532.00,0.0098
531.00,0.0097
530.00,0.0098
529.00,0.0101
528.00,0.0102
527.00,0.0100
526.00,0.0095
525.00,0.0089
524.00,0.0086
523.00,0.0087
522.00,0.0090
521.00,0.0092
520.00,0.0091
519.00,0.0088
518.00,0.0084
517.00,0.0080
516.00,0.0075
515.00,0.0071
514.00,0.0071
513.00,0.0075
512.00,0.0083
511.00,0.0088
510.00,0.0088
509.00,0.0084
508.00,0.0077
507.00,0.0069
506.00,0.0061
505.00,0.0055
504.00,0.0055
503.00,0.0060
502.00,0.0065
501.00,0.0068
500.00,0.0070
499.00,0.0072
498.00,0.0075
497.00,0.0077
496.00,0.0080
495.00,0.0084
494.00,0.0086
493.00,0.0086
492.00,0.0084
491.00,0.0081
490.00,0.0078
489.00,0.0076
488.00,0.0076
487.00,0.0079
486.00,0.0081
485.00,0.0080
484.00,0.0075
483.00,0.0070
482.00,0.0066
481.00,0.0065
480.00,0.0068
479.00,0.0073
478.00,0.0078
477.00,0.0079
476.00,0.0076
475.00,0.0073
474.00,0.0072
473.00,0.0071
472.00,0.0071
471.00,0.0076
470.00,0.0088
469.00,0.0101
468.00,0.0107
467.00,0.0103
466.00,0.0097
465.00,0.0099
464.00,0.0111
463.00,0.0127
462.00,0.0141
461.00,0.0147
460.00,0.0150
459.00,0.0156
458.00,0.0166
457.00,0.0169
456.00,0.0158
455.00,0.0148
454.00,0.0131
453.00,0.0114
452.00,0.0101
451.00,0.0096
450.00,0.0092
