Created as New Dataset,Sample 060 By Administrator Date Friday, September 05 2025
cm-1,A
4000.00,0.0010
3999.00,0.0010
3998.00,0.0010
3997.00,0.0010
3996.00,0.0010
3995.00,0.0010
3994.00,0.0010
3993.00,0.0010
3992.00,0.0010
3991.00,0.0010
3990.00,0.0010
3989.00,0.0010
3988.00,0.0010
3987.00,0.0010
3986.00,0.0010
3985.00,0.0009
3984.00,0.0009
3983.00,0.0009
3982.00,0.0009
3981.00,0.0008
3980.00,0.0008
3979.00,0.0008
3978.00,0.0008
3977.00,0.0008
3976.00,0.0008
3975.00,0.0008
3974.00,0.0009
3973.00,0.0009
3972.00,0.0009
3971.00,0.0009
3970.00,0.0009
3969.00,0.0009
3968.00,0.0009
3967.00,0.0009
3966.00,0.0009
3965.00,0.0009
3964.00,0.0008
3963.00,0.0008
3962.00,0.0008
3961.00,0.0008
3960.00,0.0008
3959.00,0.0008
3958.00,0.0008
3957.00,0.0008
3956.00,0.0008
3955.00,0.0008
3954.00,0.0008
3953.00,0.0008
3952.00,0.0008
3951.00,0.0008
3950.00,0.0008
3949.00,0.0008
3948.00,0.0008
3947.00,0.0008
3946.00,0.0008
3945.00,0.0008
3944.00,0.0008
3943.00,0.0008
3942.00,0.0008
3941.00,0.0008
3940.00,0.0008
3939.00,0.0008
3938.00,0.0008
3937.00,0.0008
3936.00,0.0008
3935.00,0.0008
3934.00,0.0008
3933.00,0.0008
3932.00,0.0008
3931.00,0.0008
3930.00,0.0008
3929.00,0.0008
3928.00,0.0008
3927.00,0.0008
3926.00,0.0009
3925.00,0.0009
3924.00,0.0009
3923.00,0.0009
3922.00,0.0009
3921.00,0.0008
3920.00,0.0008
3919.00,0.0008
3918.00,0.0008
3917.00,0.0008
3916.00,0.0008
3915.00,0.0009
3914.00,0.0009
3913.00,0.0009
3912.00,0.0009
3911.00,0.0009
3910.00,0.0009
3909.00,0.0009
3908.00,0.0008
3907.00,0.0008
3906.00,0.0008
3905.00,0.0008
3904.00,0.0008
3903.00,0.0008
3902.00,0.0008
3901.00,0.0008
3900.00,0.0008
3899.00,0.0008
3898.00,0.0008
3897.00,0.0007
3896.00,0.0007
3895.00,0.0007
3894.00,0.0007
3893.00,0.0007
3892.00,0.0007
3891.00,0.0008
3890.00,0.0008
3889.00,0.0008
3888.00,0.0008
3887.00,0.0008
3886.00,0.0008
3885.00,0.0008
3884.00,0.0008
3883.00,0.0008
3882.00,0.0008
3881.00,0.0007
3880.00,0.0007
3879.00,0.0008
3878.00,0.0008
3877.00,0.0008
3876.00,0.0008
3875.00,0.0008
3874.00,0.0008
3873.00,0.0008
3872.00,0.0008
3871.00,0.0007
3870.00,0.0007
3869.00,0.0007
3868.00,0.0007
3867.00,0.0007
3866.00,0.0006
3865.00,0.0007
3864.00,0.0007
3863.00,0.0007
3862.00,0.0007
3861.00,0.0007
3860.00,0.0007
3859.00,0.0007
3858.00,0.0007
3857.00,0.0007
3856.00,0.0007
3855.00,0.0007
3854.00,0.0007
3853.00,0.0007
3852.00,0.0007
3851.00,0.0007
3850.00,0.0007
3849.00,0.0007
3848.00,0.0007
3847.00,0.0007
3846.00,0.0007
3845.00,0.0007
3844.00,0.0007
3843.00,0.0007
3842.00,0.0007
3841.00,0.0007
3840.00,0.0007
3839.00,0.0007
3838.00,0.0007
3837.00,0.0007
3836.00,0.0006
3835.00,0.0006
3834.00,0.0007
3833.00,0.0007
3832.00,0.0007
3831.00,0.0007
3830.00,0.0007
3829.00,0.0007
3828.00,0.0007
3827.00,0.0007
3826.00,0.0008
3825.00,0.0008
3824.00,0.0008
3823.00,0.0008
3822.00,0.0008
3821.00,0.0008
3820.00,0.0008
3819.00,0.0007
3818.00,0.0007
3817.00,0.0007
3816.00,0.0007
3815.00,0.0008
3814.00,0.0008
3813.00,0.0008
3812.00,0.0008
3811.00,0.0008
3810.00,0.0009
3809.00,0.0009
3808.00,0.0009
3807.00,0.0009
3806.00,0.0009
3805.00,0.0008
3804.00,0.0008
3803.00,0.0008
3802.00,0.0008
3801.00,0.0009
3800.00,0.0009
3799.00,0.0008
3798.00,0.0007
3797.00,0.0007
3796.00,0.0007
3795.00,0.0007
3794.00,0.0006
3793.00,0.0007
3792.00,0.0007
3791.00,0.0007
3790.00,0.0008
3789.00,0.0008
3788.00,0.0008
3787.00,0.0008
3786.00,0.0008
3785.00,0.0008
3784.00,0.0008
3783.00,0.0008
3782.00,0.0008
3781.00,0.0007
3780.00,0.0007
3779.00,0.0008
3778.00,0.0008
3777.00,0.0008
3776.00,0.0009
3775.00,0.0009
3774.00,0.0009
3773.00,0.0010
3772.00,0.0010
3771.00,0.0010
3770.00,0.0009
3769.00,0.0009
3768.00,0.0009
3767.00,0.0008
3766.00,0.0009
3765.00,0.0009
3764.00,0.0009
3763.00,0.0009
3762.00,0.0008
3761.00,0.0008
3760.00,0.0008
3759.00,0.0008
3758.00,0.0008
3757.00,0.0008
3756.00,0.0008
3755.00,0.0008
3754.00,0.0007
3753.00,0.0007
3752.00,0.0007
3751.00,0.0006
3750.00,0.0006
3749.00,0.0006
3748.00,0.0007
3747.00,0.0007
3746.00,0.0007
3745.00,0.0007
3744.00,0.0008
3743.00,0.0008
3742.00,0.0007
3741.00,0.0007
3740.00,0.0006
3739.00,0.0006
3738.00,0.0005
3737.00,0.0005
3736.00,0.0005
3735.00,0.0005
3734.00,0.0005
3733.00,0.0005
3732.00,0.0005
3731.00,0.0005
3730.00,0.0005
3729.00,0.0005
3728.00,0.0004
3727.00,0.0004
3726.00,0.0004
3725.00,0.0004
3724.00,0.0004
3723.00,0.0004
3722.00,0.0004
3721.00,0.0005
3720.00,0.0005
3719.00,0.0006
3718.00,0.0006
3717.00,0.0006
3716.00,0.0007
3715.00,0.0007
3714.00,0.0007
3713.00,0.0007
3712.00,0.0007
3711.00,0.0007
3710.00,0.0006
3709.00,0.0006
3708.00,0.0006
3707.00,0.0006
3706.00,0.0006
3705.00,0.0006
3704.00,0.0006
3703.00,0.0006
3702.00,0.0006
3701.00,0.0006
3700.00,0.0006
3699.00,0.0006
3698.00,0.0006
3697.00,0.0006
3696.00,0.0006
3695.00,0.0006
3694.00,0.0006
3693.00,0.0006
3692.00,0.0006
3691.00,0.0006
3690.00,0.0006
3689.00,0.0006
3688.00,0.0006
3687.00,0.0005
3686.00,0.0005
3685.00,0.0004
3684.00,0.0004
3683.00,0.0003
3682.00,0.0003
3681.00,0.0003
3680.00,0.0003
3679.00,0.0003
3678.00,0.0003
3677.00,0.0003
3676.00,0.0003
3675.00,0.0004
3674.00,0.0004
3673.00,0.0003
3672.00,0.0002
3671.00,0.0001
3670.00,0.0002
3669.00,0.0002
3668.00,0.0002
3667.00,0.0002
3666.00,0.0002
3665.00,0.0001
3664.00,0.0001
3663.00,0.0001
3662.00,0.0001
3661.00,0.0001
3660.00,0.0002
3659.00,0.0002
3658.00,0.0001
3657.00,0.0001
3656.00,0.0001
3655.00,0.0001
3654.00,0.0001
3653.00,0.0001
3652.00,0.0001
3651.00,0.0001
3650.00,0.0002
3649.00,0.0001
3648.00,0.0001
3647.00,0.0002
3646.00,0.0002
3645.00,0.0002
3644.00,0.0002
3643.00,0.0002
3642.00,0.0002
3641.00,0.0003
3640.00,0.0003
3639.00,0.0003
3638.00,0.0004
3637.00,0.0004
3636.00,0.0004
3635.00,0.0005
3634.00,0.0005
3633.00,0.0005
3632.00,0.0004
3631.00,0.0004
3630.00,0.0005
3629.00,0.0006
3628.00,0.0007
3627.00,0.0007
3626.00,0.0007
3625.00,0.0006
3624.00,0.0006
3623.00,0.0006
3622.00,0.0005
3621.00,0.0005
3620.00,0.0005
3619.00,0.0005
3618.00,0.0005
3617.00,0.0006
3616.00,0.0006
3615.00,0.0006
3614.00,0.0007
3613.00,0.0007
3612.00,0.0007
3611.00,0.0007
3610.00,0.0007
3609.00,0.0007
3608.00,0.0007
3607.00,0.0008
3606.00,0.0009
3605.00,0.0009
3604.00,0.0009
3603.00,0.0009
3602.00,0.0009
3601.00,0.0009
3600.00,0.0010
3599.00,0.0010
3598.00,0.0010
3597.00,0.0010
3596.00,0.0009
3595.00,0.0009
3594.00,0.0009
3593.00,0.0009
3592.00,0.0009
3591.00,0.0009
3590.00,0.0010
3589.00,0.0010
3588.00,0.0010
3587.00,0.0010
3586.00,0.0010
3585.00,0.0010
3584.00,0.0010
3583.00,0.0010
3582.00,0.0011
3581.00,0.0011
3580.00,0.0011
3579.00,0.0012
3578.00,0.0012
3577.00,0.0013
3576.00,0.0013
3575.00,0.0013
3574.00,0.0013
3573.00,0.0013
3572.00,0.0013
3571.00,0.0013
3570.00,0.0013
3569.00,0.0014
3568.00,0.0014
3567.00,0.0014
3566.00,0.0014
3565.00,0.0014
3564.00,0.0014
3563.00,0.0014
3562.00,0.0015
3561.00,0.0015
3560.00,0.0015
3559.00,0.0015
3558.00,0.0015
3557.00,0.0015
3556.00,0.0016
3555.00,0.0016
3554.00,0.0016
3553.00,0.0017
3552.00,0.0017
3551.00,0.0017
3550.00,0.0016
3549.00,0.0016
3548.00,0.0016
3547.00,0.0016
3546.00,0.0017
3545.00,0.0018
3544.00,0.0018
3543.00,0.0019
3542.00,0.0019
3541.00,0.0019
3540.00,0.0019
3539.00,0.0019
3538.00,0.0019
3537.00,0.0018
3536.00,0.0018
3535.00,0.0018
3534.00,0.0019
3533.00,0.0019
3532.00,0.0019
3531.00,0.0019
3530.00,0.0019
3529.00,0.0019
3528.00,0.0019
3527.00,0.0019
3526.00,0.0019
3525.00,0.0019
3524.00,0.0020
3523.00,0.0020
3522.00,0.0020
3521.00,0.0020
3520.00,0.0020
3519.00,0.0020
3518.00,0.0020
3517.00,0.0020
3516.00,0.0020
3515.00,0.0020
3514.00,0.0020
3513.00,0.0021
3512.00,0.0021
3511.00,0.0021
3510.00,0.0021
3509.00,0.0020
3508.00,0.0020
3507.00,0.0021
3506.00,0.0021
3505.00,0.0021
3504.00,0.0021
3503.00,0.0021
3502.00,0.0021
3501.00,0.0021
3500.00,0.0021
3499.00,0.0021
3498.00,0.0022
3497.00,0.0022
3496.00,0.0022
3495.00,0.0022
3494.00,0.0022
3493.00,0.0022
3492.00,0.0022
3491.00,0.0022
3490.00,0.0023
3489.00,0.0023
3488.00,0.0023
3487.00,0.0023
3486.00,0.0023
3485.00,0.0023
3484.00,0.0023
3483.00,0.0023
3482.00,0.0023
3481.00,0.0023
3480.00,0.0024
3479.00,0.0024
3478.00,0.0024
3477.00,0.0024
3476.00,0.0024
3475.00,0.0025
3474.00,0.0025
3473.00,0.0025
3472.00,0.0025
3471.00,0.0025
3470.00,0.0025
3469.00,0.0025
3468.00,0.0025
3467.00,0.0025
3466.00,0.0025
3465.00,0.0025
3464.00,0.0025
3463.00,0.0025
3462.00,0.0025
3461.00,0.0025
3460.00,0.0026
3459.00,0.0026
3458.00,0.0027
3457.00,0.0027
3456.00,0.0027
3455.00,0.0027
3454.00,0.0027
3453.00,0.0027
3452.00,0.0028
3451.00,0.0028
3450.00,0.0028
3449.00,0.0028
3448.00,0.0028
3447.00,0.0028
3446.00,0.0028
3445.00,0.0028
3444.00,0.0028
3443.00,0.0028
3442.00,0.0028
3441.00,0.0028
3440.00,0.0028
3439.00,0.0028
3438.00,0.0029
3437.00,0.0029
3436.00,0.0029
3435.00,0.0029
3434.00,0.0029
3433.00,0.0029
3432.00,0.0029
3431.00,0.0029
3430.00,0.0029
3429.00,0.0029
3428.00,0.0030
3427.00,0.0030
3426.00,0.0030
3425.00,0.0031
3424.00,0.0031
3423.00,0.0031
3422.00,0.0031
3421.00,0.0031
3420.00,0.0031
3419.00,0.0032
3418.00,0.0031
3417.00,0.0031
3416.00,0.0031
3415.00,0.0031
3414.00,0.0031
3413.00,0.0031
3412.00,0.0031
3411.00,0.0031
3410.00,0.0031
3409.00,0.0031
3408.00,0.0032
3407.00,0.0032
3406.00,0.0032
3405.00,0.0032
3404.00,0.0032
3403.00,0.0032
3402.00,0.0032
3401.00,0.0032
3400.00,0.0032
3399.00,0.0032
3398.00,0.0032
3397.00,0.0032
3396.00,0.0032
3395.00,0.0032
3394.00,0.0032
3393.00,0.0032
3392.00,0.0033
3391.00,0.0033
3390.00,0.0033
3389.00,0.0033
3388.00,0.0033
3387.00,0.0033
3386.00,0.0033
3385.00,0.0033
3384.00,0.0033
3383.00,0.0033
3382.00,0.0033
3381.00,0.0034
3380.00,0.0034
3379.00,0.0034
3378.00,0.0034
3377.00,0.0034
3376.00,0.0034
3375.00,0.0034
3374.00,0.0034
3373.00,0.0033
3372.00,0.0033
3371.00,0.0033
3370.00,0.0033
3369.00,0.0033
3368.00,0.0033
3367.00,0.0033
3366.00,0.0034
3365.00,0.0034
3364.00,0.0035
3363.00,0.0035
3362.00,0.0035
3361.00,0.0035
3360.00,0.0035
3359.00,0.0035
3358.00,0.0035
3357.00,0.0035
3356.00,0.0034
3355.00,0.0034
3354.00,0.0034
3353.00,0.0035
3352.00,0.0036
3351.00,0.0036
3350.00,0.0036
3349.00,0.0036
3348.00,0.0036
3347.00,0.0036
3346.00,0.0035
3345.00,0.0035
3344.00,0.0035
3343.00,0.0035
3342.00,0.0035
3341.00,0.0035
3340.00,0.0035
3339.00,0.0035
3338.00,0.0035
3337.00,0.0035
3336.00,0.0035
3335.00,0.0035
3334.00,0.0035
3333.00,0.0035
3332.00,0.0035
3331.00,0.0035
3330.00,0.0035
3329.00,0.0035
3328.00,0.0035
3327.00,0.0035
3326.00,0.0034
3325.00,0.0034
3324.00,0.0034
3323.00,0.0034
3322.00,0.0034
3321.00,0.0034
3320.00,0.0034
3319.00,0.0035
3318.00,0.0035
3317.00,0.0035
3316.00,0.0035
3315.00,0.0035
3314.00,0.0035
3313.00,0.0035
3312.00,0.0035
3311.00,0.0035
3310.00,0.0035
3309.00,0.0035
3308.00,0.0035
3307.00,0.0034
3306.00,0.0034
3305.00,0.0034
3304.00,0.0034
3303.00,0.0034
3302.00,0.0035
3301.00,0.0035
3300.00,0.0035
3299.00,0.0035
3298.00,0.0035
3297.00,0.0035
3296.00,0.0035
3295.00,0.0034
3294.00,0.0034
3293.00,0.0034
3292.00,0.0034
3291.00,0.0034
3290.00,0.0034
3289.00,0.0034
3288.00,0.0034
3287.00,0.0033
3286.00,0.0033
3285.00,0.0033
3284.00,0.0033
3283.00,0.0034
3282.00,0.0034
3281.00,0.0034
3280.00,0.0034
3279.00,0.0034
3278.00,0.0034
3277.00,0.0034
3276.00,0.0034
3275.00,0.0034
3274.00,0.0033
3273.00,0.0033
3272.00,0.0032
3271.00,0.0032
3270.00,0.0032
3269.00,0.0032
3268.00,0.0032
3267.00,0.0032
3266.00,0.0033
3265.00,0.0033
3264.00,0.0033
3263.00,0.0033
3262.00,0.0033
3261.00,0.0033
3260.00,0.0032
3259.00,0.0032
3258.00,0.0032
3257.00,0.0031
3256.00,0.0031
3255.00,0.0031
3254.00,0.0031
3253.00,0.0031
3252.00,0.0031
3251.00,0.0031
3250.00,0.0030
3249.00,0.0030
3248.00,0.0030
3247.00,0.0031
3246.00,0.0031
3245.00,0.0031
3244.00,0.0031
3243.00,0.0031
3242.00,0.0031
3241.00,0.0031
3240.00,0.0031
3239.00,0.0031
3238.00,0.0030
3237.00,0.0031
3236.00,0.0031
3235.00,0.0031
3234.00,0.0031
3233.00,0.0031
3232.00,0.0031
3231.00,0.0031
3230.00,0.0031
3229.00,0.0031
3228.00,0.0031
3227.00,0.0032
3226.00,0.0032
3225.00,0.0032
3224.00,0.0032
3223.00,0.0032
3222.00,0.0032
3221.00,0.0032
3220.00,0.0033
3219.00,0.0033
3218.00,0.0034
3217.00,0.0034
3216.00,0.0034
3215.00,0.0033
3214.00,0.0033
3213.00,0.0034
3212.00,0.0034
3211.00,0.0035
3210.00,0.0035
3209.00,0.0035
3208.00,0.0035
3207.00,0.0035
3206.00,0.0035
3205.00,0.0035
3204.00,0.0036
3203.00,0.0036
3202.00,0.0036
3201.00,0.0036
3200.00,0.0036
3199.00,0.0036
3198.00,0.0036
3197.00,0.0036
3196.00,0.0036
3195.00,0.0036
3194.00,0.0036
3193.00,0.0036
3192.00,0.0036
3191.00,0.0036
3190.00,0.0035
3189.00,0.0035
3188.00,0.0035
3187.00,0.0035
3186.00,0.0035
3185.00,0.0035
3184.00,0.0035
3183.00,0.0034
3182.00,0.0034
3181.00,0.0033
3180.00,0.0033
3179.00,0.0033
3178.00,0.0032
3177.00,0.0032
3176.00,0.0032
3175.00,0.0033
3174.00,0.0033
3173.00,0.0033
3172.00,0.0033
3171.00,0.0033
3170.00,0.0032
3169.00,0.0032
3168.00,0.0032
3167.00,0.0032
3166.00,0.0032
3165.00,0.0032
3164.00,0.0032
3163.00,0.0032
3162.00,0.0032
3161.00,0.0032
3160.00,0.0033
3159.00,0.0033
3158.00,0.0034
3157.00,0.0033
3156.00,0.0033
3155.00,0.0033
3154.00,0.0033
3153.00,0.0032
3152.00,0.0032
3151.00,0.0032
3150.00,0.0032
3149.00,0.0032
3148.00,0.0032
3147.00,0.0032
3146.00,0.0032
3145.00,0.0032
3144.00,0.0032
3143.00,0.0032
3142.00,0.0032
3141.00,0.0032
3140.00,0.0031
3139.00,0.0031
3138.00,0.0031
3137.00,0.0031
3136.00,0.0031
3135.00,0.0031
3134.00,0.0030
3133.00,0.0030
3132.00,0.0030
3131.00,0.0030
3130.00,0.0029
3129.00,0.0029
3128.00,0.0029
3127.00,0.0029
3126.00,0.0029
3125.00,0.0028
3124.00,0.0028
3123.00,0.0028
3122.00,0.0028
3121.00,0.0028
3120.00,0.0028
3119.00,0.0028
3118.00,0.0027
3117.00,0.0027
3116.00,0.0027
3115.00,0.0027
3114.00,0.0027
3113.00,0.0027
3112.00,0.0027
3111.00,0.0027
3110.00,0.0027
3109.00,0.0026
3108.00,0.0027
3107.00,0.0027
3106.00,0.0027
3105.00,0.0027
3104.00,0.0027
3103.00,0.0027
3102.00,0.0027
3101.00,0.0027
3100.00,0.0027
3099.00,0.0027
3098.00,0.0028
3097.00,0.0028
3096.00,0.0027
3095.00,0.0027
3094.00,0.0027
3093.00,0.0027
3092.00,0.0027
3091.00,0.0026
3090.00,0.0026
3089.00,0.0027
3088.00,0.0027
3087.00,0.0027
3086.00,0.0027
3085.00,0.0027
3084.00,0.0027
3083.00,0.0027
3082.00,0.0027
3081.00,0.0027
3080.00,0.0027
3079.00,0.0027
3078.00,0.0027
3077.00,0.0027
3076.00,0.0027
3075.00,0.0027
3074.00,0.0027
3073.00,0.0027
3072.00,0.0027
3071.00,0.0028
3070.00,0.0028
3069.00,0.0028
3068.00,0.0029
3067.00,0.0029
3066.00,0.0029
3065.00,0.0029
3064.00,0.0029
3063.00,0.0029
3062.00,0.0029
3061.00,0.0029
3060.00,0.0029
3059.00,0.0029
3058.00,0.0030
3057.00,0.0030
3056.00,0.0031
3055.00,0.0031
3054.00,0.0031
3053.00,0.0031
3052.00,0.0031
3051.00,0.0031
3050.00,0.0031
3049.00,0.0032
3048.00,0.0032
3047.00,0.0032
3046.00,0.0033
3045.00,0.0033
3044.00,0.0033
3043.00,0.0033
3042.00,0.0034
3041.00,0.0034
3040.00,0.0034
3039.00,0.0035
3038.00,0.0035
3037.00,0.0036
3036.00,0.0036
3035.00,0.0036
3034.00,0.0036
3033.00,0.0036
3032.00,0.0037
3031.00,0.0037
3030.00,0.0037
3029.00,0.0038
3028.00,0.0038
3027.00,0.0038
3026.00,0.0039
3025.00,0.0040
3024.00,0.0040
3023.00,0.0041
3022.00,0.0042
3021.00,0.0042
3020.00,0.0043
3019.00,0.0043
3018.00,0.0043
3017.00,0.0044
3016.00,0.0044
3015.00,0.0045
3014.00,0.0046
3013.00,0.0046
3012.00,0.0047
3011.00,0.0047
3010.00,0.0048
3009.00,0.0048
3008.00,0.0049
3007.00,0.0049
3006.00,0.0050
3005.00,0.0050
3004.00,0.0051
3003.00,0.0052
3002.00,0.0053
3001.00,0.0054
3000.00,0.0056
2999.00,0.0058
2998.00,0.0060
2997.00,0.0063
2996.00,0.0066
2995.00,0.0069
2994.00,0.0073
2993.00,0.0077
2992.00,0.0081
2991.00,0.0086
2990.00,0.0092
2989.00,0.0099
2988.00,0.0106
2987.00,0.0114
2986.00,0.0121
2985.00,0.0129
2984.00,0.0137
2983.00,0.0148
2982.00,0.0161
2981.00,0.0178
2980.00,0.0199
2979.00,0.0223
2978.00,0.0251
2977.00,0.0281
2976.00,0.0315
2975.00,0.0352
2974.00,0.0394
2973.00,0.0441
2972.00,0.0495
2971.00,0.0556
2970.00,0.0624
2969.00,0.0699
2968.00,0.0778
2967.00,0.0863
2966.00,0.0950
2965.00,0.1037
2964.00,0.1122
2963.00,0.1200
2962.00,0.1269
2961.00,0.1327
2960.00,0.1375
2959.00,0.1418
2958.00,0.1459
2957.00,0.1505
2956.00,0.1561
2955.00,0.1628
2954.00,0.1705
2953.00,0.1788
2952.00,0.1868
2951.00,0.1932
2950.00,0.1969
2949.00,0.1968
2948.00,0.1923
2947.00,0.1836
2946.00,0.1717
2945.00,0.1581
2944.00,0.1443
2943.00,0.1319
2942.00,0.1217
2941.00,0.1142
2940.00,0.1094
2939.00,0.1072
2938.00,0.1073
2937.00,0.1094
2936.00,0.1133
2935.00,0.1189
2934.00,0.1259
2933.00,0.1343
2932.00,0.1439
2931.00,0.1544
2930.00,0.1657
2929.00,0.1774
2928.00,0.1893
2927.00,0.2010
2926.00,0.2123
2925.00,0.2232
2924.00,0.2339
2923.00,0.2446
2922.00,0.2552
2921.00,0.2655
2920.00,0.2750
2919.00,0.2826
2918.00,0.2871
2917.00,0.2877
2916.00,0.2840
2915.00,0.2764
2914.00,0.2659
2913.00,0.2539
2912.00,0.2416
2911.00,0.2298
2910.00,0.2190
2909.00,0.2092
2908.00,0.2003
2907.00,0.1919
2906.00,0.1838
2905.00,0.1759
2904.00,0.1681
2903.00,0.1604
2902.00,0.1529
2901.00,0.1457
2900.00,0.1388
2899.00,0.1323
2898.00,0.1263
2897.00,0.1208
2896.00,0.1161
2895.00,0.1120
2894.00,0.1088
2893.00,0.1062
2892.00,0.1044
2891.00,0.1033
2890.00,0.1028
2889.00,0.1028
2888.00,0.1033
2887.00,0.1041
2886.00,0.1052
2885.00,0.1068
2884.00,0.1088
2883.00,0.1115
2882.00,0.1146
2881.00,0.1181
2880.00,0.1216
2879.00,0.1247
2878.00,0.1269
2877.00,0.1279
2876.00,0.1279
2875.00,0.1271
2874.00,0.1263
2873.00,0.1258
2872.00,0.1262
2871.00,0.1275
2870.00,0.1295
2869.00,0.1317
2868.00,0.1333
2867.00,0.1334
2866.00,0.1310
2865.00,0.1258
2864.00,0.1180
2863.00,0.1084
2862.00,0.0983
2861.00,0.0886
2860.00,0.0803
2859.00,0.0735
2858.00,0.0684
2857.00,0.0648
2856.00,0.0625
2855.00,0.0614
2854.00,0.0614
2853.00,0.0621
2852.00,0.0636
2851.00,0.0656
2850.00,0.0679
2849.00,0.0704
2848.00,0.0733
2847.00,0.0767
2846.00,0.0808
2845.00,0.0860
2844.00,0.0921
2843.00,0.0989
2842.00,0.1061
2841.00,0.1130
2840.00,0.1188
2839.00,0.1227
2838.00,0.1237
2837.00,0.1213
2836.00,0.1155
2835.00,0.1067
2834.00,0.0961
2833.00,0.0849
2832.00,0.0741
2831.00,0.0645
2830.00,0.0564
2829.00,0.0497
2828.00,0.0443
2827.00,0.0400
2826.00,0.0364
2825.00,0.0335
2824.00,0.0311
2823.00,0.0290
2822.00,0.0273
2821.00,0.0258
2820.00,0.0245
2819.00,0.0234
2818.00,0.0224
2817.00,0.0216
2816.00,0.0209
2815.00,0.0202
2814.00,0.0196
2813.00,0.0190
2812.00,0.0185
2811.00,0.0180
2810.00,0.0174
2809.00,0.0168
2808.00,0.0162
2807.00,0.0155
2806.00,0.0149
2805.00,0.0143
2804.00,0.0136
2803.00,0.0130
2802.00,0.0125
2801.00,0.0120
2800.00,0.0116
2799.00,0.0113
2798.00,0.0110
2797.00,0.0108
2796.00,0.0105
2795.00,0.0103
2794.00,0.0100
2793.00,0.0097
2792.00,0.0094
2791.00,0.0091
2790.00,0.0087
2789.00,0.0084
2788.00,0.0082
2787.00,0.0079
2786.00,0.0077
2785.00,0.0075
2784.00,0.0073
2783.00,0.0071
2782.00,0.0069
2781.00,0.0067
2780.00,0.0065
2779.00,0.0064
2778.00,0.0062
2777.00,0.0061
2776.00,0.0059
2775.00,0.0058
2774.00,0.0057
2773.00,0.0056
2772.00,0.0056
2771.00,0.0055
2770.00,0.0055
2769.00,0.0055
2768.00,0.0054
2767.00,0.0054
2766.00,0.0054
2765.00,0.0054
2764.00,0.0054
2763.00,0.0053
2762.00,0.0053
2761.00,0.0052
2760.00,0.0052
2759.00,0.0052
2758.00,0.0052
2757.00,0.0052
2756.00,0.0052
2755.00,0.0051
2754.00,0.0051
2753.00,0.0051
2752.00,0.0051
2751.00,0.0051
2750.00,0.0051
2749.00,0.0052
2748.00,0.0052
2747.00,0.0052
2746.00,0.0052
2745.00,0.0053
2744.00,0.0053
2743.00,0.0054
2742.00,0.0055
2741.00,0.0056
2740.00,0.0057
2739.00,0.0059
2738.00,0.0060
2737.00,0.0062
2736.00,0.0064
2735.00,0.0066
2734.00,0.0067
2733.00,0.0069
2732.00,0.0071
2731.00,0.0073
2730.00,0.0075
2729.00,0.0078
2728.00,0.0081
2727.00,0.0084
2726.00,0.0087
2725.00,0.0089
2724.00,0.0091
2723.00,0.0091
2722.00,0.0090
2721.00,0.0088
2720.00,0.0085
2719.00,0.0082
2718.00,0.0078
2717.00,0.0074
2716.00,0.0071
2715.00,0.0067
2714.00,0.0065
2713.00,0.0062
2712.00,0.0060
2711.00,0.0059
2710.00,0.0057
2709.00,0.0056
2708.00,0.0054
2707.00,0.0053
2706.00,0.0051
2705.00,0.0050
2704.00,0.0049
2703.00,0.0048
2702.00,0.0047
2701.00,0.0046
2700.00,0.0046
2699.00,0.0045
2698.00,0.0045
2697.00,0.0045
2696.00,0.0045
2695.00,0.0044
2694.00,0.0044
2693.00,0.0044
2692.00,0.0044
2691.00,0.0044
2690.00,0.0044
2689.00,0.0044
2688.00,0.0044
2687.00,0.0044
2686.00,0.0044
2685.00,0.0044
2684.00,0.0044
2683.00,0.0044
2682.00,0.0044
2681.00,0.0044
2680.00,0.0045
2679.00,0.0045
2678.00,0.0045
2677.00,0.0045
2676.00,0.0045
2675.00,0.0045
2674.00,0.0045
2673.00,0.0045
2672.00,0.0044
2671.00,0.0044
2670.00,0.0044
2669.00,0.0044
2668.00,0.0044
2667.00,0.0045
2666.00,0.0045
2665.00,0.0045
2664.00,0.0046
2663.00,0.0047
2662.00,0.0047
2661.00,0.0048
2660.00,0.0049
2659.00,0.0049
2658.00,0.0048
2657.00,0.0048
2656.00,0.0047
2655.00,0.0046
2654.00,0.0046
2653.00,0.0045
2652.00,0.0045
2651.00,0.0044
2650.00,0.0044
2649.00,0.0043
2648.00,0.0043
2647.00,0.0042
2646.00,0.0042
2645.00,0.0042
2644.00,0.0042
2643.00,0.0042
2642.00,0.0042
2641.00,0.0041
2640.00,0.0041
2639.00,0.0040
2638.00,0.0039
2637.00,0.0039
2636.00,0.0039
2635.00,0.0038
2634.00,0.0038
2633.00,0.0038
2632.00,0.0039
2631.00,0.0039
2630.00,0.0039
2629.00,0.0039
2628.00,0.0039
2627.00,0.0039
2626.00,0.0039
2625.00,0.0040
2624.00,0.0040
2623.00,0.0041
2622.00,0.0041
2621.00,0.0041
2620.00,0.0041
2619.00,0.0041
2618.00,0.0041
2617.00,0.0041
2616.00,0.0041
2615.00,0.0041
2614.00,0.0041
2613.00,0.0041
2612.00,0.0041
2611.00,0.0040
2610.00,0.0039
2609.00,0.0038
2608.00,0.0037
2607.00,0.0036
2606.00,0.0035
2605.00,0.0035
2604.00,0.0034
2603.00,0.0033
2602.00,0.0033
2601.00,0.0032
2600.00,0.0033
2599.00,0.0033
2598.00,0.0034
2597.00,0.0034
2596.00,0.0034
2595.00,0.0034
2594.00,0.0034
2593.00,0.0035
2592.00,0.0035
2591.00,0.0036
2590.00,0.0036
2589.00,0.0037
2588.00,0.0038
2587.00,0.0039
2586.00,0.0040
2585.00,0.0041
2584.00,0.0042
2583.00,0.0042
2582.00,0.0042
2581.00,0.0041
2580.00,0.0041
2579.00,0.0040
2578.00,0.0039
2577.00,0.0039
2576.00,0.0038
2575.00,0.0036
2574.00,0.0034
2573.00,0.0033
2572.00,0.0032
2571.00,0.0032
2570.00,0.0031
2569.00,0.0030
2568.00,0.0030
2567.00,0.0029
2566.00,0.0028
2565.00,0.0027
2564.00,0.0026
2563.00,0.0026
2562.00,0.0026
2561.00,0.0025
2560.00,0.0024
2559.00,0.0023
2558.00,0.0023
2557.00,0.0023
2556.00,0.0024
2555.00,0.0024
2554.00,0.0024
2553.00,0.0024
2552.00,0.0023
2551.00,0.0022
2550.00,0.0022
2549.00,0.0021
2548.00,0.0021
2547.00,0.0020
2546.00,0.0019
2545.00,0.0019
2544.00,0.0019
2543.00,0.0019
2542.00,0.0019
2541.00,0.0019
2540.00,0.0019
2539.00,0.0018
2538.00,0.0018
2537.00,0.0017
2536.00,0.0017
2535.00,0.0016
2534.00,0.0017
2533.00,0.0017
2532.00,0.0017
2531.00,0.0017
2530.00,0.0016
2529.00,0.0016
2528.00,0.0016
2527.00,0.0015
2526.00,0.0015
2525.00,0.0014
2524.00,0.0014
2523.00,0.0014
2522.00,0.0014
2521.00,0.0013
2520.00,0.0013
2519.00,0.0013
2518.00,0.0013
2517.00,0.0013
2516.00,0.0013
2515.00,0.0013
2514.00,0.0013
2513.00,0.0013
2512.00,0.0013
2511.00,0.0013
2510.00,0.0012
2509.00,0.0012
2508.00,0.0012
2507.00,0.0012
2506.00,0.0012
2505.00,0.0012
2504.00,0.0012
2503.00,0.0012
2502.00,0.0011
2501.00,0.0011
2500.00,0.0011
2499.00,0.0011
2498.00,0.0011
2497.00,0.0012
2496.00,0.0012
2495.00,0.0012
2494.00,0.0012
2493.00,0.0011
2492.00,0.0012
2491.00,0.0012
2490.00,0.0012
2489.00,0.0012
2488.00,0.0013
2487.00,0.0013
2486.00,0.0013
2485.00,0.0012
2484.00,0.0012
2483.00,0.0012
2482.00,0.0012
2481.00,0.0012
2480.00,0.0012
2479.00,0.0012
2478.00,0.0012
2477.00,0.0011
2476.00,0.0011
2475.00,0.0010
2474.00,0.0010
2473.00,0.0010
2472.00,0.0009
2471.00,0.0009
2470.00,0.0009
2469.00,0.0009
2468.00,0.0010
2467.00,0.0011
2466.00,0.0011
2465.00,0.0011
2464.00,0.0011
2463.00,0.0011
2462.00,0.0011
2461.00,0.0012
2460.00,0.0012
2459.00,0.0013
2458.00,0.0013
2457.00,0.0012
2456.00,0.0012
2455.00,0.0012
2454.00,0.0013
2453.00,0.0013
2452.00,0.0012
2451.00,0.0012
2450.00,0.0011
2449.00,0.0011
2448.00,0.0011
2447.00,0.0011
2446.00,0.0011
2445.00,0.0012
2444.00,0.0012
2443.00,0.0012
2442.00,0.0012
2441.00,0.0012
2440.00,0.0012
2439.00,0.0012
2438.00,0.0012
2437.00,0.0012
2436.00,0.0012
2435.00,0.0012
2434.00,0.0012
2433.00,0.0012
2432.00,0.0012
2431.00,0.0013
2430.00,0.0013
2429.00,0.0013
2428.00,0.0014
2427.00,0.0014
2426.00,0.0014
2425.00,0.0013
2424.00,0.0013
2423.00,0.0012
2422.00,0.0011
2421.00,0.0011
2420.00,0.0012
2419.00,0.0012
2418.00,0.0013
2417.00,0.0012
2416.00,0.0012
2415.00,0.0012
2414.00,0.0011
2413.00,0.0011
2412.00,0.0011
2411.00,0.0011
2410.00,0.0010
2409.00,0.0010
2408.00,0.0009
2407.00,0.0009
2406.00,0.0008
2405.00,0.0008
2404.00,0.0008
2403.00,0.0009
2402.00,0.0009
2401.00,0.0009
2400.00,0.0009
2399.00,0.0009
2398.00,0.0009
2397.00,0.0009
2396.00,0.0009
2395.00,0.0009
2394.00,0.0009
2393.00,0.0008
2392.00,0.0008
2391.00,0.0008
2390.00,0.0008
2389.00,0.0008
2388.00,0.0008
2387.00,0.0007
2386.00,0.0007
2385.00,0.0006
2384.00,0.0005
2383.00,0.0004
2382.00,0.0003
2381.00,0.0003
2380.00,0.0002
2379.00,0.0002
2378.00,0.0001
2377.00,0.0001
2376.00,0.0001
2375.00,0.0000
2374.00,0.0000
2373.00,0.0000
2372.00,0.0000
2371.00,-0.0001
2370.00,-0.0002
2369.00,-0.0004
2368.00,-0.0004
2367.00,-0.0005
2366.00,-0.0005
2365.00,-0.0004
2364.00,-0.0004
2363.00,-0.0004
2362.00,-0.0003
2361.00,-0.0003
2360.00,-0.0003
2359.00,-0.0003
2358.00,-0.0003
2357.00,-0.0002
2356.00,-0.0002
2355.00,-0.0002
2354.00,-0.0002
2353.00,-0.0003
2352.00,-0.0003
2351.00,-0.0003
2350.00,-0.0004
2349.00,-0.0004
2348.00,-0.0003
2347.00,-0.0002
2346.00,-0.0001
2345.00,-0.0001
2344.00,-0.0001
2343.00,-0.0002
2342.00,-0.0001
2341.00,-0.0001
2340.00,-0.0000
2339.00,0.0000
2338.00,0.0001
2337.00,0.0001
2336.00,0.0001
2335.00,0.0001
2334.00,0.0001
2333.00,0.0001
2332.00,0.0000
2331.00,-0.0000
2330.00,-0.0001
2329.00,0.0000
2328.00,0.0003
2327.00,0.0006
2326.00,0.0011
2325.00,0.0014
2324.00,0.0015
2323.00,0.0014
2322.00,0.0011
2321.00,0.0008
2320.00,0.0006
2319.00,0.0006
2318.00,0.0006
2317.00,0.0006
2316.00,0.0006
2315.00,0.0006
2314.00,0.0005
2313.00,0.0005
2312.00,0.0005
2311.00,0.0004
2310.00,0.0004
2309.00,0.0004
2308.00,0.0004
2307.00,0.0004
2306.00,0.0005
2305.00,0.0006
2304.00,0.0007
2303.00,0.0008
2302.00,0.0008
2301.00,0.0008
2300.00,0.0009
2299.00,0.0009
2298.00,0.0009
2297.00,0.0009
2296.00,0.0010
2295.00,0.0011
2294.00,0.0013
2293.00,0.0015
2292.00,0.0016
2291.00,0.0016
2290.00,0.0016
2289.00,0.0016
2288.00,0.0017
2287.00,0.0018
2286.00,0.0019
2285.00,0.0019
2284.00,0.0018
2283.00,0.0017
2282.00,0.0017
2281.00,0.0016
2280.00,0.0016
2279.00,0.0017
2278.00,0.0017
2277.00,0.0018
2276.00,0.0018
2275.00,0.0018
2274.00,0.0017
2273.00,0.0016
2272.00,0.0015
2271.00,0.0014
2270.00,0.0013
2269.00,0.0013
2268.00,0.0013
2267.00,0.0013
2266.00,0.0012
2265.00,0.0012
2264.00,0.0011
2263.00,0.0011
2262.00,0.0011
2261.00,0.0012
2260.00,0.0014
2259.00,0.0016
2258.00,0.0017
2257.00,0.0017
2256.00,0.0016
2255.00,0.0014
2254.00,0.0011
2253.00,0.0010
2252.00,0.0010
2251.00,0.0010
2250.00,0.0009
2249.00,0.0008
2248.00,0.0007
2247.00,0.0006
2246.00,0.0007
2245.00,0.0009
2244.00,0.0010
2243.00,0.0010
2242.00,0.0009
2241.00,0.0009
2240.00,0.0009
2239.00,0.0009
2238.00,0.0010
2237.00,0.0011
2236.00,0.0013
2235.00,0.0014
2234.00,0.0014
2233.00,0.0015
2232.00,0.0015
2231.00,0.0015
2230.00,0.0015
2229.00,0.0015
2228.00,0.0014
2227.00,0.0013
2226.00,0.0012
2225.00,0.0010
2224.00,0.0008
2223.00,0.0006
2222.00,0.0006
2221.00,0.0007
2220.00,0.0008
2219.00,0.0009
2218.00,0.0009
2217.00,0.0008
2216.00,0.0007
2215.00,0.0005
2214.00,0.0005
2213.00,0.0005
2212.00,0.0007
2211.00,0.0009
2210.00,0.0009
2209.00,0.0010
2208.00,0.0010
2207.00,0.0011
2206.00,0.0012
2205.00,0.0012
2204.00,0.0011
2203.00,0.0010
2202.00,0.0009
2201.00,0.0007
2200.00,0.0006
2199.00,0.0005
2198.00,0.0005
2197.00,0.0008
2196.00,0.0011
2195.00,0.0014
2194.00,0.0016
2193.00,0.0016
2192.00,0.0015
2191.00,0.0014
2190.00,0.0013
2189.00,0.0013
2188.00,0.0013
2187.00,0.0012
2186.00,0.0012
2185.00,0.0011
2184.00,0.0010
2183.00,0.0008
2182.00,0.0006
2181.00,0.0004
2180.00,0.0004
2179.00,0.0005
2178.00,0.0008
2177.00,0.0009
2176.00,0.0009
2175.00,0.0007
2174.00,0.0005
2173.00,0.0005
2172.00,0.0007
2171.00,0.0008
2170.00,0.0010
2169.00,0.0011
2168.00,0.0012
2167.00,0.0013
2166.00,0.0015
2165.00,0.0018
2164.00,0.0022
2163.00,0.0025
2162.00,0.0025
2161.00,0.0018
2160.00,0.0004
2159.00,-0.0013
2158.00,-0.0025
2157.00,-0.0029
2156.00,-0.0026
2155.00,-0.0020
2154.00,-0.0015
2153.00,-0.0010
2152.00,-0.0009
2151.00,-0.0010
2150.00,-0.0012
2149.00,-0.0014
2148.00,-0.0015
2147.00,-0.0014
2146.00,-0.0014
2145.00,-0.0013
2144.00,-0.0014
2143.00,-0.0015
2142.00,-0.0016
2141.00,-0.0016
2140.00,-0.0016
2139.00,-0.0015
2138.00,-0.0015
2137.00,-0.0015
2136.00,-0.0016
2135.00,-0.0018
2134.00,-0.0019
2133.00,-0.0019
2132.00,-0.0016
2131.00,-0.0013
2130.00,-0.0010
2129.00,-0.0007
2128.00,-0.0006
2127.00,-0.0005
2126.00,-0.0004
2125.00,-0.0004
2124.00,-0.0003
2123.00,-0.0003
2122.00,-0.0002
2121.00,-0.0002
2120.00,-0.0002
2119.00,-0.0003
2118.00,-0.0002
2117.00,-0.0002
2116.00,-0.0001
2115.00,-0.0001
2114.00,-0.0000
2113.00,0.0001
2112.00,0.0001
2111.00,0.0002
2110.00,0.0003
2109.00,0.0004
2108.00,0.0003
2107.00,0.0001
2106.00,-0.0000
2105.00,-0.0001
2104.00,0.0000
2103.00,0.0002
2102.00,0.0003
2101.00,0.0004
2100.00,0.0003
2099.00,0.0001
2098.00,-0.0001
2097.00,-0.0003
2096.00,-0.0004
2095.00,-0.0004
2094.00,-0.0004
2093.00,-0.0003
2092.00,-0.0002
2091.00,-0.0001
2090.00,0.0000
2089.00,0.0001
2088.00,0.0002
2087.00,0.0002
2086.00,0.0002
2085.00,0.0003
2084.00,0.0004
2083.00,0.0003
2082.00,0.0003
2081.00,0.0004
2080.00,0.0004
2079.00,0.0005
2078.00,0.0005
2077.00,0.0005
2076.00,0.0004
2075.00,0.0004
2074.00,0.0004
2073.00,0.0005
2072.00,0.0007
2071.00,0.0007
2070.00,0.0005
2069.00,0.0002
2068.00,0.0001
2067.00,0.0001
2066.00,0.0001
2065.00,0.0001
2064.00,0.0001
2063.00,0.0001
2062.00,0.0001
2061.00,0.0001
2060.00,0.0001
2059.00,0.0000
2058.00,-0.0000
2057.00,-0.0000
2056.00,0.0000
2055.00,0.0000
2054.00,0.0002
2053.00,0.0006
2052.00,0.0010
2051.00,0.0011
2050.00,0.0009
2049.00,0.0005
2048.00,0.0002
2047.00,0.0001
2046.00,0.0002
2045.00,0.0002
2044.00,0.0003
2043.00,0.0003
2042.00,0.0003
2041.00,0.0003
2040.00,0.0004
2039.00,0.0007
2038.00,0.0009
2037.00,0.0010
2036.00,0.0009
2035.00,0.0005
2034.00,0.0001
2033.00,-0.0001
2032.00,-0.0000
2031.00,-0.0000
2030.00,-0.0001
2029.00,-0.0001
2028.00,-0.0002
2027.00,-0.0004
2026.00,-0.0007
2025.00,-0.0010
2024.00,-0.0012
2023.00,-0.0014
2022.00,-0.0013
2021.00,-0.0011
2020.00,-0.0007
2019.00,-0.0005
2018.00,-0.0003
2017.00,-0.0002
2016.00,-0.0002
2015.00,-0.0004
2014.00,-0.0008
2013.00,-0.0012
2012.00,-0.0014
2011.00,-0.0014
2010.00,-0.0013
2009.00,-0.0012
2008.00,-0.0013
2007.00,-0.0015
2006.00,-0.0016
2005.00,-0.0014
2004.00,-0.0012
2003.00,-0.0011
2002.00,-0.0012
2001.00,-0.0014
2000.00,-0.0014
1999.00,-0.0013
1998.00,-0.0011
1997.00,-0.0008
1996.00,-0.0007
1995.00,-0.0008
1994.00,-0.0010
1993.00,-0.0012
1992.00,-0.0013
1991.00,-0.0012
1990.00,-0.0008
1989.00,-0.0004
1988.00,-0.0002
1987.00,-0.0003
1986.00,-0.0005
1985.00,-0.0005
1984.00,-0.0004
1983.00,-0.0002
1982.00,0.0002
1981.00,0.0005
1980.00,0.0008
1979.00,0.0006
1978.00,0.0000
1977.00,-0.0007
1976.00,-0.0013
1975.00,-0.0017
1974.00,-0.0019
1973.00,-0.0019
1972.00,-0.0017
1971.00,-0.0015
1970.00,-0.0013
1969.00,-0.0010
1968.00,-0.0008
1967.00,-0.0008
1966.00,-0.0010
1965.00,-0.0011
1964.00,-0.0012
1963.00,-0.0011
1962.00,-0.0011
1961.00,-0.0012
1960.00,-0.0014
1959.00,-0.0018
1958.00,-0.0020
1957.00,-0.0020
1956.00,-0.0018
1955.00,-0.0017
1954.00,-0.0016
1953.00,-0.0016
1952.00,-0.0016
1951.00,-0.0015
1950.00,-0.0014
1949.00,-0.0013
1948.00,-0.0013
1947.00,-0.0015
1946.00,-0.0016
1945.00,-0.0016
1944.00,-0.0015
1943.00,-0.0014
1942.00,-0.0013
1941.00,-0.0012
1940.00,-0.0010
1939.00,-0.0008
1938.00,-0.0007
1937.00,-0.0006
1936.00,-0.0006
1935.00,-0.0007
1934.00,-0.0007
1933.00,-0.0006
1932.00,-0.0006
1931.00,-0.0006
1930.00,-0.0006
1929.00,-0.0007
1928.00,-0.0007
1927.00,-0.0008
1926.00,-0.0009
1925.00,-0.0008
1924.00,-0.0007
1923.00,-0.0006
1922.00,-0.0005
1921.00,-0.0004
1920.00,-0.0003
1919.00,-0.0002
1918.00,-0.0002
1917.00,-0.0001
1916.00,-0.0001
1915.00,-0.0002
1914.00,-0.0003
1913.00,-0.0003
1912.00,-0.0004
1911.00,-0.0004
1910.00,-0.0004
1909.00,-0.0003
1908.00,-0.0001
1907.00,-0.0000
1906.00,0.0000
1905.00,0.0000
1904.00,0.0000
1903.00,-0.0001
1902.00,-0.0001
1901.00,-0.0000
1900.00,0.0001
1899.00,0.0001
1898.00,0.0001
1897.00,0.0001
1896.00,0.0002
1895.00,0.0003
1894.00,0.0003
1893.00,0.0003
1892.00,0.0004
1891.00,0.0003
1890.00,0.0001
1889.00,-0.0000
1888.00,-0.0001
1887.00,-0.0001
1886.00,-0.0001
1885.00,-0.0000
1884.00,0.0000
1883.00,0.0000
1882.00,-0.0000
1881.00,-0.0000
1880.00,-0.0001
1879.00,-0.0002
1878.00,-0.0002
1877.00,-0.0001
1876.00,-0.0001
1875.00,-0.0000
1874.00,-0.0000
1873.00,-0.0000
1872.00,0.0000
1871.00,0.0000
1870.00,0.0000
1869.00,-0.0000
1868.00,-0.0000
1867.00,-0.0001
1866.00,-0.0002
1865.00,-0.0002
1864.00,-0.0002
1863.00,-0.0001
1862.00,-0.0000
1861.00,0.0000
1860.00,0.0000
1859.00,-0.0000
1858.00,-0.0001
1857.00,-0.0000
1856.00,-0.0000
1855.00,0.0000
1854.00,0.0001
1853.00,0.0001
1852.00,0.0002
1851.00,0.0002
1850.00,0.0002
1849.00,0.0002
1848.00,0.0002
1847.00,0.0002
1846.00,0.0001
1845.00,0.0002
1844.00,0.0002
1843.00,0.0002
1842.00,0.0002
1841.00,0.0002
1840.00,0.0002
1839.00,0.0003
1838.00,0.0004
1837.00,0.0004
1836.00,0.0005
1835.00,0.0005
1834.00,0.0005
1833.00,0.0005
1832.00,0.0005
1831.00,0.0004
1830.00,0.0003
1829.00,0.0003
1828.00,0.0003
1827.00,0.0003
1826.00,0.0004
1825.00,0.0005
1824.00,0.0005
1823.00,0.0005
1822.00,0.0005
1821.00,0.0004
1820.00,0.0004
1819.00,0.0003
1818.00,0.0001
1817.00,0.0001
1816.00,0.0001
1815.00,0.0002
1814.00,0.0003
1813.00,0.0004
1812.00,0.0005
1811.00,0.0005
1810.00,0.0005
1809.00,0.0005
1808.00,0.0005
1807.00,0.0005
1806.00,0.0005
1805.00,0.0005
1804.00,0.0005
1803.00,0.0005
1802.00,0.0005
1801.00,0.0005
1800.00,0.0005
1799.00,0.0005
1798.00,0.0005
1797.00,0.0005
1796.00,0.0006
1795.00,0.0006
1794.00,0.0006
1793.00,0.0006
1792.00,0.0005
1791.00,0.0005
1790.00,0.0006
1789.00,0.0007
1788.00,0.0007
1787.00,0.0007
1786.00,0.0008
1785.00,0.0008
1784.00,0.0008
1783.00,0.0008
1782.00,0.0008
1781.00,0.0009
1780.00,0.0009
1779.00,0.0009
1778.00,0.0009
1777.00,0.0009
1776.00,0.0009
1775.00,0.0009
1774.00,0.0009
1773.00,0.0009
1772.00,0.0009
1771.00,0.0009
1770.00,0.0009
1769.00,0.0009
1768.00,0.0009
1767.00,0.0009
1766.00,0.0010
1765.00,0.0010
1764.00,0.0010
1763.00,0.0011
1762.00,0.0011
1761.00,0.0011
1760.00,0.0011
1759.00,0.0011
1758.00,0.0011
1757.00,0.0011
1756.00,0.0012
1755.00,0.0013
1754.00,0.0014
1753.00,0.0014
1752.00,0.0015
1751.00,0.0015
1750.00,0.0015
1749.00,0.0016
1748.00,0.0016
1747.00,0.0016
1746.00,0.0017
1745.00,0.0018
1744.00,0.0018
1743.00,0.0018
1742.00,0.0019
1741.00,0.0019
1740.00,0.0019
1739.00,0.0020
1738.00,0.0020
1737.00,0.0019
1736.00,0.0019
1735.00,0.0019
1734.00,0.0019
1733.00,0.0020
1732.00,0.0020
1731.00,0.0020
1730.00,0.0020
1729.00,0.0020
1728.00,0.0021
1727.00,0.0021
1726.00,0.0021
1725.00,0.0021
1724.00,0.0021
1723.00,0.0020
1722.00,0.0020
1721.00,0.0020
1720.00,0.0021
1719.00,0.0022
1718.00,0.0023
1717.00,0.0023
1716.00,0.0023
1715.00,0.0023
1714.00,0.0022
1713.00,0.0022
1712.00,0.0023
1711.00,0.0023
1710.00,0.0023
1709.00,0.0024
1708.00,0.0025
1707.00,0.0025
1706.00,0.0026
1705.00,0.0026
1704.00,0.0027
1703.00,0.0027
1702.00,0.0027
1701.00,0.0027
1700.00,0.0027
1699.00,0.0028
1698.00,0.0027
1697.00,0.0027
1696.00,0.0029
1695.00,0.0030
1694.00,0.0031
1693.00,0.0031
1692.00,0.0031
1691.00,0.0032
1690.00,0.0032
1689.00,0.0033
1688.00,0.0033
1687.00,0.0033
1686.00,0.0033
1685.00,0.0034
1684.00,0.0034
1683.00,0.0035
1682.00,0.0035
1681.00,0.0036
1680.00,0.0036
1679.00,0.0037
1678.00,0.0038
1677.00,0.0039
1676.00,0.0039
1675.00,0.0040
1674.00,0.0040
1673.00,0.0040
1672.00,0.0040
1671.00,0.0041
1670.00,0.0041
1669.00,0.0042
1668.00,0.0042
1667.00,0.0042
1666.00,0.0042
1665.00,0.0043
1664.00,0.0043
1663.00,0.0044
1662.00,0.0045
1661.00,0.0046
1660.00,0.0047
1659.00,0.0048
1658.00,0.0048
1657.00,0.0049
1656.00,0.0049
1655.00,0.0050
1654.00,0.0050
1653.00,0.0051
1652.00,0.0052
1651.00,0.0053
1650.00,0.0053
1649.00,0.0054
1648.00,0.0053
1647.00,0.0053
1646.00,0.0053
1645.00,0.0053
1644.00,0.0054
1643.00,0.0055
1642.00,0.0055
1641.00,0.0055
1640.00,0.0055
1639.00,0.0055
1638.00,0.0055
1637.00,0.0056
1636.00,0.0057
1635.00,0.0057
1634.00,0.0057
1633.00,0.0057
1632.00,0.0058
1631.00,0.0058
1630.00,0.0059
1629.00,0.0059
1628.00,0.0059
1627.00,0.0058
1626.00,0.0058
1625.00,0.0057
1624.00,0.0057
1623.00,0.0056
1622.00,0.0056
1621.00,0.0056
1620.00,0.0056
1619.00,0.0055
1618.00,0.0055
1617.00,0.0054
1616.00,0.0054
1615.00,0.0053
1614.00,0.0053
1613.00,0.0053
1612.00,0.0053
1611.00,0.0053
1610.00,0.0053
1609.00,0.0053
1608.00,0.0053
1607.00,0.0053
1606.00,0.0053
1605.00,0.0054
1604.00,0.0054
1603.00,0.0054
1602.00,0.0054
1601.00,0.0054
1600.00,0.0054
1599.00,0.0055
1598.00,0.0055
1597.00,0.0056
1596.00,0.0057
1595.00,0.0057
1594.00,0.0057
1593.00,0.0059
1592.00,0.0060
1591.00,0.0061
1590.00,0.0063
1589.00,0.0065
1588.00,0.0068
1587.00,0.0071
1586.00,0.0075
1585.00,0.0079
1584.00,0.0085
1583.00,0.0091
1582.00,0.0098
1581.00,0.0106
1580.00,0.0112
1579.00,0.0118
1578.00,0.0122
1577.00,0.0123
1576.00,0.0122
1575.00,0.0118
1574.00,0.0114
1573.00,0.0110
1572.00,0.0106
1571.00,0.0101
1570.00,0.0095
1569.00,0.0088
1568.00,0.0084
1567.00,0.0081
1566.00,0.0079
1565.00,0.0077
1564.00,0.0075
1563.00,0.0074
1562.00,0.0074
1561.00,0.0075
1560.00,0.0076
1559.00,0.0075
1558.00,0.0074
1557.00,0.0075
1556.00,0.0076
1555.00,0.0077
1554.00,0.0078
1553.00,0.0081
1552.00,0.0083
1551.00,0.0086
1550.00,0.0090
1549.00,0.0094
1548.00,0.0099
1547.00,0.0104
1546.00,0.0110
1545.00,0.0118
1544.00,0.0125
1543.00,0.0132
1542.00,0.0138
1541.00,0.0142
1540.00,0.0140
1539.00,0.0134
1538.00,0.0127
1537.00,0.0121
1536.00,0.0114
1535.00,0.0107
1534.00,0.0098
1533.00,0.0090
1532.00,0.0084
1531.00,0.0080
1530.00,0.0077
1529.00,0.0075
1528.00,0.0074
1527.00,0.0073
1526.00,0.0071
1525.00,0.0070
1524.00,0.0069
1523.00,0.0068
1522.00,0.0068
1521.00,0.0068
1520.00,0.0068
1519.00,0.0068
1518.00,0.0067
1517.00,0.0067
1516.00,0.0068
1515.00,0.0068
1514.00,0.0068
1513.00,0.0069
1512.00,0.0071
1511.00,0.0071
1510.00,0.0072
1509.00,0.0073
1508.00,0.0074
1507.00,0.0074
1506.00,0.0073
1505.00,0.0075
1504.00,0.0077
1503.00,0.0079
1502.00,0.0080
1501.00,0.0082
1500.00,0.0084
1499.00,0.0087
1498.00,0.0089
1497.00,0.0093
1496.00,0.0097
1495.00,0.0100
1494.00,0.0102
1493.00,0.0105
1492.00,0.0110
1491.00,0.0114
1490.00,0.0118
1489.00,0.0124
1488.00,0.0131
1487.00,0.0138
1486.00,0.0146
1485.00,0.0155
1484.00,0.0166
1483.00,0.0177
1482.00,0.0191
1481.00,0.0206
1480.00,0.0223
1479.00,0.0238
1478.00,0.0255
1477.00,0.0275
1476.00,0.0298
1475.00,0.0323
1474.00,0.0358
1473.00,0.0408
1472.00,0.0470
1471.00,0.0533
1470.00,0.0594
1469.00,0.0660
1468.00,0.0731
1467.00,0.0810
1466.00,0.0901
1465.00,0.0999
1464.00,0.1086
1463.00,0.1149
1462.00,0.1191
1461.00,0.1221
1460.00,0.1243
1459.00,0.1258
1458.00,0.1269
1457.00,0.1277
1456.00,0.1277
1455.00,0.1271
1454.00,0.1259
1453.00,0.1242
1452.00,0.1214
1451.00,0.1173
1450.00,0.1117
1449.00,0.1040
1448.00,0.0943
1447.00,0.0840
1446.00,0.0749
1445.00,0.0672
1444.00,0.0608
1443.00,0.0556
1442.00,0.0519
1441.00,0.0495
1440.00,0.0482
1439.00,0.0480
1438.00,0.0486
1437.00,0.0492
1436.00,0.0484
1435.00,0.0458
1434.00,0.0418
1433.00,0.0369
1432.00,0.0318
1431.00,0.0274
1430.00,0.0241
1429.00,0.0217
1428.00,0.0201
1427.00,0.0191
1426.00,0.0185
1425.00,0.0180
1424.00,0.0174
1423.00,0.0171
1422.00,0.0169
1421.00,0.0167
1420.00,0.0164
1419.00,0.0161
1418.00,0.0157
1417.00,0.0153
1416.00,0.0149
1415.00,0.0146
1414.00,0.0144
1413.00,0.0141
1412.00,0.0139
1411.00,0.0137
1410.00,0.0136
1409.00,0.0133
1408.00,0.0131
1407.00,0.0129
1406.00,0.0128
1405.00,0.0127
1404.00,0.0125
1403.00,0.0124
1402.00,0.0125
1401.00,0.0125
1400.00,0.0124
1399.00,0.0125
1398.00,0.0126
1397.00,0.0127
1396.00,0.0128
1395.00,0.0132
1394.00,0.0136
1393.00,0.0142
1392.00,0.0148
1391.00,0.0157
1390.00,0.0169
1389.00,0.0186
1388.00,0.0212
1387.00,0.0250
1386.00,0.0301
1385.00,0.0367
1384.00,0.0453
1383.00,0.0569
1382.00,0.0724
1381.00,0.0924
1380.00,0.1176
1379.00,0.1471
1378.00,0.1769
1377.00,0.2004
1376.00,0.2108
1375.00,0.2031
1374.00,0.1793
1373.00,0.1486
1372.00,0.1196
1371.00,0.0952
1370.00,0.0758
1369.00,0.0610
1368.00,0.0509
1367.00,0.0447
1366.00,0.0414
1365.00,0.0402
1364.00,0.0405
1363.00,0.0421
1362.00,0.0446
1361.00,0.0472
1360.00,0.0493
1359.00,0.0499
1358.00,0.0486
1357.00,0.0456
1356.00,0.0414
1355.00,0.0365
1354.00,0.0319
1353.00,0.0279
1352.00,0.0247
1351.00,0.0223
1350.00,0.0203
1349.00,0.0187
1348.00,0.0174
1347.00,0.0163
1346.00,0.0155
1345.00,0.0148
1344.00,0.0143
1343.00,0.0140
1342.00,0.0137
1341.00,0.0135
1340.00,0.0132
1339.00,0.0129
1338.00,0.0127
1337.00,0.0127
1336.00,0.0127
1335.00,0.0129
1334.00,0.0133
1333.00,0.0138
1332.00,0.0143
1331.00,0.0147
1330.00,0.0149
1329.00,0.0147
1328.00,0.0143
1327.00,0.0137
1326.00,0.0130
1325.00,0.0123
1324.00,0.0116
1323.00,0.0111
1322.00,0.0107
1321.00,0.0104
1320.00,0.0102
1319.00,0.0100
1318.00,0.0097
1317.00,0.0095
1316.00,0.0092
1315.00,0.0090
1314.00,0.0089
1313.00,0.0089
1312.00,0.0090
1311.00,0.0092
1310.00,0.0096
1309.00,0.0101
1308.00,0.0109
1307.00,0.0118
1306.00,0.0128
1305.00,0.0135
1304.00,0.0138
1303.00,0.0137
1302.00,0.0134
1301.00,0.0132
1300.00,0.0131
1299.00,0.0133
1298.00,0.0134
1297.00,0.0135
1296.00,0.0135
1295.00,0.0132
1294.00,0.0128
1293.00,0.0123
1292.00,0.0117
1291.00,0.0111
1290.00,0.0106
1289.00,0.0101
1288.00,0.0097
1287.00,0.0094
1286.00,0.0091
1285.00,0.0089
1284.00,0.0086
1283.00,0.0084
1282.00,0.0083
1281.00,0.0081
1280.00,0.0080
1279.00,0.0079
1278.00,0.0079
1277.00,0.0078
1276.00,0.0077
1275.00,0.0076
1274.00,0.0075
1273.00,0.0074
1272.00,0.0074
1271.00,0.0074
1270.00,0.0075
1269.00,0.0075
1268.00,0.0076
1267.00,0.0077
1266.00,0.0079
1265.00,0.0081
1264.00,0.0083
1263.00,0.0085
1262.00,0.0088
1261.00,0.0092
1260.00,0.0097
1259.00,0.0103
1258.00,0.0109
1257.00,0.0113
1256.00,0.0116
1255.00,0.0114
1254.00,0.0109
1253.00,0.0102
1252.00,0.0095
1251.00,0.0091
1250.00,0.0087
1249.00,0.0085
1248.00,0.0083
1247.00,0.0082
1246.00,0.0081
1245.00,0.0081
1244.00,0.0081
1243.00,0.0081
1242.00,0.0081
1241.00,0.0080
1240.00,0.0080
1239.00,0.0080
1238.00,0.0080
1237.00,0.0080
1236.00,0.0081
1235.00,0.0082
1234.00,0.0083
1233.00,0.0083
1232.00,0.0084
1231.00,0.0085
1230.00,0.0086
1229.00,0.0087
1228.00,0.0090
1227.00,0.0093
1226.00,0.0096
1225.00,0.0100
1224.00,0.0104
1223.00,0.0108
1222.00,0.0112
1221.00,0.0115
1220.00,0.0118
1219.00,0.0119
1218.00,0.0120
1217.00,0.0118
1216.00,0.0115
1215.00,0.0112
1214.00,0.0108
1213.00,0.0104
1212.00,0.0100
1211.00,0.0098
1210.00,0.0096
1209.00,0.0095
1208.00,0.0093
1207.00,0.0092
1206.00,0.0091
1205.00,0.0090
1204.00,0.0089
1203.00,0.0088
1202.00,0.0088
1201.00,0.0089
1200.00,0.0089
1199.00,0.0088
1198.00,0.0088
1197.00,0.0088
1196.00,0.0088
1195.00,0.0088
1194.00,0.0087
1193.00,0.0087
1192.00,0.0086
1191.00,0.0085
1190.00,0.0085
1189.00,0.0084
1188.00,0.0083
1187.00,0.0082
1186.00,0.0082
1185.00,0.0081
1184.00,0.0081
1183.00,0.0081
1182.00,0.0082
1181.00,0.0084
1180.00,0.0086
1179.00,0.0090
1178.00,0.0095
1177.00,0.0101
1176.00,0.0110
1175.00,0.0123
1174.00,0.0140
1173.00,0.0161
1172.00,0.0186
1171.00,0.0213
1170.00,0.0239
1169.00,0.0260
1168.00,0.0273
1167.00,0.0276
1166.00,0.0270
1165.00,0.0258
1164.00,0.0244
1163.00,0.0230
1162.00,0.0217
1161.00,0.0207
1160.00,0.0198
1159.00,0.0191
1158.00,0.0186
1157.00,0.0183
1156.00,0.0181
1155.00,0.0180
1154.00,0.0178
1153.00,0.0175
1152.00,0.0171
1151.00,0.0165
1150.00,0.0158
1149.00,0.0149
1148.00,0.0140
1147.00,0.0131
1146.00,0.0123
1145.00,0.0116
1144.00,0.0109
1143.00,0.0104
1142.00,0.0098
1141.00,0.0093
1140.00,0.0088
1139.00,0.0085
1138.00,0.0082
1137.00,0.0080
1136.00,0.0078
1135.00,0.0077
1134.00,0.0076
1133.00,0.0075
1132.00,0.0074
1131.00,0.0073
1130.00,0.0074
1129.00,0.0076
1128.00,0.0078
1127.00,0.0081
1126.00,0.0083
1125.00,0.0084
1124.00,0.0084
1123.00,0.0083
1122.00,0.0082
1121.00,0.0081
1120.00,0.0081
1119.00,0.0082
1118.00,0.0084
1117.00,0.0086
1116.00,0.0088
1115.00,0.0090
1114.00,0.0093
1113.00,0.0095
1112.00,0.0097
1111.00,0.0100
1110.00,0.0102
1109.00,0.0106
1108.00,0.0111
1107.00,0.0118
1106.00,0.0125
1105.00,0.0132
1104.00,0.0138
1103.00,0.0141
1102.00,0.0141
1101.00,0.0138
1100.00,0.0133
1099.00,0.0126
1098.00,0.0119
1097.00,0.0111
1096.00,0.0104
1095.00,0.0099
1094.00,0.0095
1093.00,0.0092
1092.00,0.0089
1091.00,0.0087
1090.00,0.0084
1089.00,0.0081
1088.00,0.0078
1087.00,0.0077
1086.00,0.0075
1085.00,0.0074
1084.00,0.0073
1083.00,0.0073
1082.00,0.0072
1081.00,0.0071
1080.00,0.0069
1079.00,0.0067
1078.00,0.0066
1077.00,0.0064
1076.00,0.0064
1075.00,0.0064
1074.00,0.0064
1073.00,0.0063
1072.00,0.0063
1071.00,0.0064
1070.00,0.0064
1069.00,0.0065
1068.00,0.0066
1067.00,0.0067
1066.00,0.0068
1065.00,0.0069
1064.00,0.0069
1063.00,0.0070
1062.00,0.0071
1061.00,0.0072
1060.00,0.0073
1059.00,0.0073
1058.00,0.0073
1057.00,0.0073
1056.00,0.0073
1055.00,0.0074
1054.00,0.0075
1053.00,0.0077
1052.00,0.0078
1051.00,0.0079
1050.00,0.0080
1049.00,0.0082
1048.00,0.0084
1047.00,0.0087
1046.00,0.0090
1045.00,0.0092
1044.00,0.0093
1043.00,0.0093
1042.00,0.0092
1041.00,0.0092
1040.00,0.0092
1039.00,0.0094
1038.00,0.0097
1037.00,0.0101
1036.00,0.0103
1035.00,0.0103
1034.00,0.0102
1033.00,0.0099
1032.00,0.0096
1031.00,0.0093
1030.00,0.0092
1029.00,0.0091
1028.00,0.0090
1027.00,0.0090
1026.00,0.0089
1025.00,0.0089
1024.00,0.0088
1023.00,0.0088
1022.00,0.0088
1021.00,0.0088
1020.00,0.0089
1019.00,0.0090
1018.00,0.0092
1017.00,0.0093
1016.00,0.0096
1015.00,0.0100
1014.00,0.0106
1013.00,0.0112
1012.00,0.0117
1011.00,0.0121
1010.00,0.0123
1009.00,0.0125
1008.00,0.0128
1007.00,0.0131
1006.00,0.0137
1005.00,0.0145
1004.00,0.0158
1003.00,0.0175
1002.00,0.0198
1001.00,0.0226
1000.00,0.0255
999.00,0.0279
998.00,0.0290
997.00,0.0283
996.00,0.0260
995.00,0.0228
994.00,0.0195
993.00,0.0166
992.00,0.0144
991.00,0.0128
990.00,0.0117
989.00,0.0109
988.00,0.0103
987.00,0.0100
986.00,0.0100
985.00,0.0102
984.00,0.0107
983.00,0.0114
982.00,0.0125
981.00,0.0139
980.00,0.0159
979.00,0.0184
978.00,0.0217
977.00,0.0254
976.00,0.0294
975.00,0.0330
974.00,0.0354
973.00,0.0361
972.00,0.0346
971.00,0.0312
970.00,0.0268
969.00,0.0224
968.00,0.0186
967.00,0.0157
966.00,0.0136
965.00,0.0120
964.00,0.0108
963.00,0.0099
962.00,0.0092
961.00,0.0087
960.00,0.0082
959.00,0.0077
958.00,0.0073
957.00,0.0070
956.00,0.0068
955.00,0.0066
954.00,0.0066
953.00,0.0066
952.00,0.0066
951.00,0.0065
950.00,0.0065
949.00,0.0064
948.00,0.0064
947.00,0.0066
946.00,0.0068
945.00,0.0071
944.00,0.0075
943.00,0.0079
942.00,0.0083
941.00,0.0084
940.00,0.0084
939.00,0.0083
938.00,0.0080
937.00,0.0077
936.00,0.0073
935.00,0.0070
934.00,0.0066
933.00,0.0063
932.00,0.0060
931.00,0.0059
930.00,0.0059
929.00,0.0060
928.00,0.0061
927.00,0.0061
926.00,0.0061
925.00,0.0061
924.00,0.0061
923.00,0.0061
922.00,0.0062
921.00,0.0064
920.00,0.0066
919.00,0.0069
918.00,0.0071
917.00,0.0072
916.00,0.0073
915.00,0.0074
914.00,0.0074
913.00,0.0075
912.00,0.0075
911.00,0.0075
910.00,0.0075
909.00,0.0075
908.00,0.0077
907.00,0.0082
906.00,0.0091
905.00,0.0103
904.00,0.0120
903.00,0.0140
902.00,0.0162
901.00,0.0183
900.00,0.0198
899.00,0.0203
898.00,0.0195
897.00,0.0177
896.00,0.0155
895.00,0.0134
894.00,0.0117
893.00,0.0105
892.00,0.0096
891.00,0.0089
890.00,0.0083
889.00,0.0078
888.00,0.0074
887.00,0.0072
886.00,0.0072
885.00,0.0072
884.00,0.0072
883.00,0.0072
882.00,0.0072
881.00,0.0071
880.00,0.0072
879.00,0.0073
878.00,0.0075
877.00,0.0076
876.00,0.0078
875.00,0.0079
874.00,0.0079
873.00,0.0079
872.00,0.0077
871.00,0.0076
870.00,0.0074
869.00,0.0073
868.00,0.0072
867.00,0.0073
866.00,0.0075
865.00,0.0077
864.00,0.0078
863.00,0.0078
862.00,0.0079
861.00,0.0080
860.00,0.0082
859.00,0.0084
858.00,0.0086
857.00,0.0088
856.00,0.0090
855.00,0.0092
854.00,0.0093
853.00,0.0094
852.00,0.0095
851.00,0.0098
850.00,0.0102
849.00,0.0108
848.00,0.0116
847.00,0.0129
846.00,0.0147
845.00,0.0174
844.00,0.0209
843.00,0.0246
842.00,0.0272
841.00,0.0277
840.00,0.0257
839.00,0.0223
838.00,0.0187
837.00,0.0160
836.00,0.0142
835.00,0.0132
834.00,0.0125
833.00,0.0120
832.00,0.0116
831.00,0.0113
830.00,0.0112
829.00,0.0110
828.00,0.0107
827.00,0.0104
826.00,0.0102
825.00,0.0100
824.00,0.0101
823.00,0.0102
822.00,0.0104
821.00,0.0106
820.00,0.0108
819.00,0.0111
818.00,0.0115
817.00,0.0121
816.00,0.0129
815.00,0.0140
814.00,0.0156
813.00,0.0174
812.00,0.0194
811.00,0.0212
810.00,0.0225
809.00,0.0231
808.00,0.0229
807.00,0.0220
806.00,0.0205
805.00,0.0188
804.00,0.0170
803.00,0.0153
802.00,0.0139
801.00,0.0128
800.00,0.0120
799.00,0.0113
798.00,0.0107
797.00,0.0103
796.00,0.0098
795.00,0.0095
794.00,0.0091
793.00,0.0089
792.00,0.0087
791.00,0.0086
790.00,0.0084
789.00,0.0082
788.00,0.0080
787.00,0.0078
786.00,0.0076
785.00,0.0074
784.00,0.0073
783.00,0.0073
782.00,0.0073
781.00,0.0072
780.00,0.0070
779.00,0.0069
778.00,0.0068
777.00,0.0068
776.00,0.0069
775.00,0.0071
774.00,0.0072
773.00,0.0074
772.00,0.0075
771.00,0.0078
770.00,0.0080
769.00,0.0082
768.00,0.0083
767.00,0.0084
766.00,0.0085
765.00,0.0084
764.00,0.0081
763.00,0.0078
762.00,0.0075
761.00,0.0072
760.00,0.0070
759.00,0.0067
758.00,0.0065
757.00,0.0062
756.00,0.0059
755.00,0.0058
754.00,0.0056
753.00,0.0055
752.00,0.0055
751.00,0.0057
750.00,0.0059
749.00,0.0060
748.00,0.0061
747.00,0.0061
746.00,0.0060
745.00,0.0059
744.00,0.0058
743.00,0.0057
742.00,0.0057
741.00,0.0057
740.00,0.0058
739.00,0.0059
738.00,0.0060
737.00,0.0062
736.00,0.0064
735.00,0.0068
734.00,0.0070
733.00,0.0072
732.00,0.0073
731.00,0.0074
730.00,0.0074
729.00,0.0073
728.00,0.0072
727.00,0.0072
726.00,0.0072
725.00,0.0071
724.00,0.0071
723.00,0.0071
722.00,0.0071
721.00,0.0071
720.00,0.0070
719.00,0.0068
718.00,0.0065
717.00,0.0063
716.00,0.0062
715.00,0.0063
714.00,0.0064
713.00,0.0065
712.00,0.0065
711.00,0.0064
710.00,0.0062
709.00,0.0060
708.00,0.0060
707.00,0.0061
706.00,0.0063
705.00,0.0063
704.00,0.0062
703.00,0.0061
702.00,0.0061
701.00,0.0062
700.00,0.0062
699.00,0.0061
698.00,0.0060
697.00,0.0057
696.00,0.0055
695.00,0.0054
694.00,0.0054
693.00,0.0055
692.00,0.0055
691.00,0.0056
690.00,0.0057
689.00,0.0059
688.00,0.0061
687.00,0.0063
686.00,0.0063
685.00,0.0063
684.00,0.0061
683.00,0.0061
682.00,0.0061
681.00,0.0061
680.00,0.0062
679.00,0.0062
678.00,0.0063
677.00,0.0063
676.00,0.0061
675.00,0.0059
674.00,0.0059
673.00,0.0059
672.00,0.0060
671.00,0.0060
670.00,0.0061
669.00,0.0062
668.00,0.0062
667.00,0.0063
666.00,0.0063
665.00,0.0061
664.00,0.0060
663.00,0.0059
662.00,0.0059
661.00,0.0060
660.00,0.0061
659.00,0.0062
658.00,0.0062
657.00,0.0061
656.00,0.0059
655.00,0.0057
654.00,0.0055
653.00,0.0054
652.00,0.0053
651.00,0.0052
650.00,0.0051
649.00,0.0052
648.00,0.0052
647.00,0.0053
646.00,0.0054
645.00,0.0054
644.00,0.0054
643.00,0.0053
642.00,0.0053
641.00,0.0053
640.00,0.0054
639.00,0.0055
638.00,0.0056
637.00,0.0057
636.00,0.0056
635.00,0.0055
634.00,0.0055
633.00,0.0055
632.00,0.0055
631.00,0.0056
630.00,0.0057
629.00,0.0059
628.00,0.0061
627.00,0.0062
626.00,0.0063
625.00,0.0061
624.00,0.0060
623.00,0.0059
622.00,0.0061
621.00,0.0063
620.00,0.0065
619.00,0.0065
618.00,0.0063
617.00,0.0062
616.00,0.0061
615.00,0.0060
614.00,0.0060
613.00,0.0061
612.00,0.0064
611.00,0.0066
610.00,0.0065
609.00,0.0063
608.00,0.0059
607.00,0.0057
606.00,0.0056
605.00,0.0057
604.00,0.0058
603.00,0.0058
602.00,0.0059
601.00,0.0059
600.00,0.0061
599.00,0.0063
598.00,0.0065
597.00,0.0067
596.00,0.0067
595.00,0.0066
594.00,0.0064
593.00,0.0063
592.00,0.0062
591.00,0.0062
590.00,0.0063
589.00,0.0066
588.00,0.0067
587.00,0.0067
586.00,0.0064
585.00,0.0061
584.00,0.0060
583.00,0.0063
582.00,0.0067
581.00,0.0069
580.00,0.0068
579.00,0.0067
578.00,0.0066
577.00,0.0066
576.00,0.0065
575.00,0.0063
574.00,0.0062
573.00,0.0061
572.00,0.0062
571.00,0.0062
570.00,0.0060
569.00,0.0059
568.00,0.0058
567.00,0.0059
566.00,0.0062
565.00,0.0063
564.00,0.0063
563.00,0.0063
562.00,0.0064
561.00,0.0065
560.00,0.0066
559.00,0.0067
558.00,0.0069
557.00,0.0070
556.00,0.0069
555.00,0.0066
554.00,0.0064
553.00,0.0066
552.00,0.0070
551.00,0.0071
550.00,0.0071
549.00,0.0069
548.00,0.0069
547.00,0.0070
546.00,0.0070
545.00,0.0069
544.00,0.0067
543.00,0.0065
542.00,0.0064
541.00,0.0066
540.00,0.0070
539.00,0.0074
538.00,0.0078
537.00,0.0079
536.00,0.0078
535.00,0.0079
534.00,0.0081
533.00,0.0084
532.00,0.0086
531.00,0.0090
530.00,0.0095
529.00,0.0098
528.00,0.0098
527.00,0.0095
526.00,0.0092
525.00,0.0091
524.00,0.0090
523.00,0.0087
522.00,0.0083
521.00,0.0079
520.00,0.0072
519.00,0.0066
518.00,0.0062
517.00,0.0062
516.00,0.0065
515.00,0.0067
514.00,0.0068
513.00,0.0068
512.00,0.0067
511.00,0.0067
510.00,0.0067
509.00,0.0069
508.00,0.0070
507.00,0.0069
506.00,0.0068
505.00,0.0070
504.00,0.0076
503.00,0.0082
502.00,0.0083
501.00,0.0080
500.00,0.0076
499.00,0.0075
498.00,0.0076
497.00,0.0078
496.00,0.0078
495.00,0.0075
494.00,0.0070
493.00,0.0064
492.00,0.0059
491.00,0.0057
490.00,0.0058
489.00,0.0063
488.00,0.0070
487.00,0.0076
486.00,0.0075
485.00,0.0066
484.00,0.0054
483.00,0.0046
482.00,0.0047
481.00,0.0053
480.00,0.0059
479.00,0.0065
478.00,0.0070
477.00,0.0071
476.00,0.0068
475.00,0.0064
474.00,0.0065
473.00,0.0076
472.00,0.0091
471.00,0.0103
470.00,0.0109
469.00,0.0111
468.00,0.0111
467.00,0.0109
466.00,0.0107
465.00,0.0110
464.00,0.0122
463.00,0.0143
462.00,0.0165
461.00,0.0175
460.00,0.0172
459.00,0.0161
458.00,0.0146
457.00,0.0145
456.00,0.0147
455.00,0.0149
454.00,0.0152
453.00,0.0152
452.00,0.0140
451.00,0.0114
450.00,0.0083
