Created as New Dataset,Sample 052 By Administrator Date Friday, September 05 2025
cm-1,A
4000.00,0.0009
3999.00,0.0008
3998.00,0.0008
3997.00,0.0008
3996.00,0.0008
3995.00,0.0008
3994.00,0.0009
3993.00,0.0009
3992.00,0.0009
3991.00,0.0009
3990.00,0.0009
3989.00,0.0009
3988.00,0.0009
3987.00,0.0009
3986.00,0.0008
3985.00,0.0008
3984.00,0.0008
3983.00,0.0008
3982.00,0.0008
3981.00,0.0007
3980.00,0.0007
3979.00,0.0007
3978.00,0.0007
3977.00,0.0007
3976.00,0.0008
3975.00,0.0008
3974.00,0.0007
3973.00,0.0007
3972.00,0.0007
3971.00,0.0007
3970.00,0.0007
3969.00,0.0007
3968.00,0.0007
3967.00,0.0007
3966.00,0.0007
3965.00,0.0007
3964.00,0.0007
3963.00,0.0007
3962.00,0.0007
3961.00,0.0007
3960.00,0.0007
3959.00,0.0007
3958.00,0.0008
3957.00,0.0008
3956.00,0.0008
3955.00,0.0007
3954.00,0.0007
3953.00,0.0007
3952.00,0.0007
3951.00,0.0007
3950.00,0.0007
3949.00,0.0007
3948.00,0.0007
3947.00,0.0007
3946.00,0.0007
3945.00,0.0007
3944.00,0.0008
3943.00,0.0008
3942.00,0.0008
3941.00,0.0008
3940.00,0.0008
3939.00,0.0008
3938.00,0.0007
3937.00,0.0007
3936.00,0.0007
3935.00,0.0007
3934.00,0.0007
3933.00,0.0007
3932.00,0.0008
3931.00,0.0008
3930.00,0.0008
3929.00,0.0008
3928.00,0.0008
3927.00,0.0008
3926.00,0.0008
3925.00,0.0008
3924.00,0.0008
3923.00,0.0008
3922.00,0.0008
3921.00,0.0008
3920.00,0.0008
3919.00,0.0008
3918.00,0.0008
3917.00,0.0008
3916.00,0.0008
3915.00,0.0008
3914.00,0.0008
3913.00,0.0008
3912.00,0.0008
3911.00,0.0008
3910.00,0.0008
3909.00,0.0008
3908.00,0.0008
3907.00,0.0008
3906.00,0.0008
3905.00,0.0008
3904.00,0.0008
3903.00,0.0008
3902.00,0.0008
3901.00,0.0008
3900.00,0.0008
3899.00,0.0008
3898.00,0.0008
3897.00,0.0008
3896.00,0.0007
3895.00,0.0007
3894.00,0.0007
3893.00,0.0007
3892.00,0.0007
3891.00,0.0007
3890.00,0.0008
3889.00,0.0008
3888.00,0.0008
3887.00,0.0008
3886.00,0.0007
3885.00,0.0007
3884.00,0.0007
3883.00,0.0007
3882.00,0.0007
3881.00,0.0007
3880.00,0.0007
3879.00,0.0007
3878.00,0.0008
3877.00,0.0008
3876.00,0.0008
3875.00,0.0007
3874.00,0.0007
3873.00,0.0007
3872.00,0.0007
3871.00,0.0007
3870.00,0.0007
3869.00,0.0007
3868.00,0.0007
3867.00,0.0006
3866.00,0.0005
3865.00,0.0005
3864.00,0.0005
3863.00,0.0005
3862.00,0.0006
3861.00,0.0006
3860.00,0.0006
3859.00,0.0007
3858.00,0.0007
3857.00,0.0008
3856.00,0.0008
3855.00,0.0008
3854.00,0.0007
3853.00,0.0007
3852.00,0.0007
3851.00,0.0006
3850.00,0.0006
3849.00,0.0006
3848.00,0.0006
3847.00,0.0006
3846.00,0.0006
3845.00,0.0007
3844.00,0.0007
3843.00,0.0007
3842.00,0.0007
3841.00,0.0007
3840.00,0.0007
3839.00,0.0007
3838.00,0.0007
3837.00,0.0007
3836.00,0.0007
3835.00,0.0006
3834.00,0.0006
3833.00,0.0006
3832.00,0.0006
3831.00,0.0006
3830.00,0.0006
3829.00,0.0006
3828.00,0.0006
3827.00,0.0006
3826.00,0.0006
3825.00,0.0007
3824.00,0.0007
3823.00,0.0007
3822.00,0.0007
3821.00,0.0007
3820.00,0.0007
3819.00,0.0007
3818.00,0.0007
3817.00,0.0007
3816.00,0.0007
3815.00,0.0007
3814.00,0.0007
3813.00,0.0007
3812.00,0.0007
3811.00,0.0007
3810.00,0.0007
3809.00,0.0007
3808.00,0.0007
3807.00,0.0007
3806.00,0.0007
3805.00,0.0007
3804.00,0.0007
3803.00,0.0007
3802.00,0.0007
3801.00,0.0007
3800.00,0.0007
3799.00,0.0007
3798.00,0.0006
3797.00,0.0006
3796.00,0.0006
3795.00,0.0006
3794.00,0.0006
3793.00,0.0006
3792.00,0.0007
3791.00,0.0007
3790.00,0.0007
3789.00,0.0007
3788.00,0.0008
3787.00,0.0008
3786.00,0.0007
3785.00,0.0007
3784.00,0.0006
3783.00,0.0006
3782.00,0.0006
3781.00,0.0006
3780.00,0.0007
3779.00,0.0007
3778.00,0.0007
3777.00,0.0007
3776.00,0.0008
3775.00,0.0008
3774.00,0.0008
3773.00,0.0008
3772.00,0.0008
3771.00,0.0008
3770.00,0.0008
3769.00,0.0008
3768.00,0.0008
3767.00,0.0008
3766.00,0.0008
3765.00,0.0008
3764.00,0.0008
3763.00,0.0008
3762.00,0.0008
3761.00,0.0008
3760.00,0.0008
3759.00,0.0008
3758.00,0.0008
3757.00,0.0008
3756.00,0.0008
3755.00,0.0007
3754.00,0.0007
3753.00,0.0007
3752.00,0.0007
3751.00,0.0007
3750.00,0.0007
3749.00,0.0007
3748.00,0.0007
3747.00,0.0007
3746.00,0.0007
3745.00,0.0007
3744.00,0.0008
3743.00,0.0008
3742.00,0.0008
3741.00,0.0008
3740.00,0.0007
3739.00,0.0007
3738.00,0.0007
3737.00,0.0006
3736.00,0.0006
3735.00,0.0006
3734.00,0.0006
3733.00,0.0006
3732.00,0.0006
3731.00,0.0006
3730.00,0.0006
3729.00,0.0006
3728.00,0.0006
3727.00,0.0006
3726.00,0.0006
3725.00,0.0006
3724.00,0.0006
3723.00,0.0006
3722.00,0.0006
3721.00,0.0006
3720.00,0.0005
3719.00,0.0005
3718.00,0.0005
3717.00,0.0006
3716.00,0.0006
3715.00,0.0006
3714.00,0.0006
3713.00,0.0006
3712.00,0.0006
3711.00,0.0006
3710.00,0.0006
3709.00,0.0006
3708.00,0.0005
3707.00,0.0005
3706.00,0.0005
3705.00,0.0005
3704.00,0.0005
3703.00,0.0005
3702.00,0.0006
3701.00,0.0006
3700.00,0.0006
3699.00,0.0006
3698.00,0.0005
3697.00,0.0005
3696.00,0.0005
3695.00,0.0005
3694.00,0.0005
3693.00,0.0005
3692.00,0.0005
3691.00,0.0004
3690.00,0.0004
3689.00,0.0004
3688.00,0.0004
3687.00,0.0005
3686.00,0.0005
3685.00,0.0004
3684.00,0.0004
3683.00,0.0004
3682.00,0.0003
3681.00,0.0003
3680.00,0.0003
3679.00,0.0004
3678.00,0.0004
3677.00,0.0004
3676.00,0.0004
3675.00,0.0004
3674.00,0.0004
3673.00,0.0003
3672.00,0.0003
3671.00,0.0003
3670.00,0.0003
3669.00,0.0003
3668.00,0.0003
3667.00,0.0003
3666.00,0.0002
3665.00,0.0002
3664.00,0.0001
3663.00,0.0002
3662.00,0.0002
3661.00,0.0003
3660.00,0.0003
3659.00,0.0003
3658.00,0.0003
3657.00,0.0003
3656.00,0.0003
3655.00,0.0003
3654.00,0.0004
3653.00,0.0004
3652.00,0.0004
3651.00,0.0005
3650.00,0.0005
3649.00,0.0004
3648.00,0.0004
3647.00,0.0004
3646.00,0.0003
3645.00,0.0002
3644.00,0.0002
3643.00,0.0002
3642.00,0.0002
3641.00,0.0002
3640.00,0.0003
3639.00,0.0003
3638.00,0.0003
3637.00,0.0003
3636.00,0.0004
3635.00,0.0004
3634.00,0.0004
3633.00,0.0005
3632.00,0.0005
3631.00,0.0005
3630.00,0.0005
3629.00,0.0006
3628.00,0.0006
3627.00,0.0006
3626.00,0.0006
3625.00,0.0005
3624.00,0.0005
3623.00,0.0005
3622.00,0.0005
3621.00,0.0004
3620.00,0.0004
3619.00,0.0004
3618.00,0.0004
3617.00,0.0005
3616.00,0.0005
3615.00,0.0005
3614.00,0.0006
3613.00,0.0006
3612.00,0.0006
3611.00,0.0006
3610.00,0.0006
3609.00,0.0005
3608.00,0.0005
3607.00,0.0005
3606.00,0.0005
3605.00,0.0005
3604.00,0.0005
3603.00,0.0004
3602.00,0.0004
3601.00,0.0004
3600.00,0.0004
3599.00,0.0004
3598.00,0.0004
3597.00,0.0005
3596.00,0.0005
3595.00,0.0005
3594.00,0.0005
3593.00,0.0005
3592.00,0.0005
3591.00,0.0005
3590.00,0.0006
3589.00,0.0006
3588.00,0.0006
3587.00,0.0006
3586.00,0.0006
3585.00,0.0006
3584.00,0.0006
3583.00,0.0006
3582.00,0.0006
3581.00,0.0006
3580.00,0.0006
3579.00,0.0006
3578.00,0.0007
3577.00,0.0007
3576.00,0.0007
3575.00,0.0008
3574.00,0.0008
3573.00,0.0008
3572.00,0.0009
3571.00,0.0009
3570.00,0.0010
3569.00,0.0010
3568.00,0.0010
3567.00,0.0010
3566.00,0.0009
3565.00,0.0009
3564.00,0.0008
3563.00,0.0008
3562.00,0.0008
3561.00,0.0009
3560.00,0.0009
3559.00,0.0009
3558.00,0.0009
3557.00,0.0009
3556.00,0.0009
3555.00,0.0009
3554.00,0.0010
3553.00,0.0010
3552.00,0.0010
3551.00,0.0010
3550.00,0.0010
3549.00,0.0010
3548.00,0.0011
3547.00,0.0011
3546.00,0.0011
3545.00,0.0012
3544.00,0.0012
3543.00,0.0011
3542.00,0.0011
3541.00,0.0011
3540.00,0.0011
3539.00,0.0011
3538.00,0.0011
3537.00,0.0011
3536.00,0.0011
3535.00,0.0011
3534.00,0.0011
3533.00,0.0012
3532.00,0.0012
3531.00,0.0013
3530.00,0.0013
3529.00,0.0013
3528.00,0.0013
3527.00,0.0013
3526.00,0.0013
3525.00,0.0013
3524.00,0.0013
3523.00,0.0013
3522.00,0.0013
3521.00,0.0014
3520.00,0.0014
3519.00,0.0014
3518.00,0.0014
3517.00,0.0014
3516.00,0.0014
3515.00,0.0014
3514.00,0.0014
3513.00,0.0014
3512.00,0.0014
3511.00,0.0014
3510.00,0.0014
3509.00,0.0013
3508.00,0.0013
3507.00,0.0013
3506.00,0.0014
3505.00,0.0014
3504.00,0.0015
3503.00,0.0015
3502.00,0.0015
3501.00,0.0015
3500.00,0.0015
3499.00,0.0015
3498.00,0.0015
3497.00,0.0015
3496.00,0.0015
3495.00,0.0015
3494.00,0.0016
3493.00,0.0016
3492.00,0.0016
3491.00,0.0016
3490.00,0.0015
3489.00,0.0015
3488.00,0.0015
3487.00,0.0016
3486.00,0.0016
3485.00,0.0016
3484.00,0.0016
3483.00,0.0016
3482.00,0.0016
3481.00,0.0017
3480.00,0.0017
3479.00,0.0017
3478.00,0.0017
3477.00,0.0017
3476.00,0.0017
3475.00,0.0016
3474.00,0.0016
3473.00,0.0017
3472.00,0.0017
3471.00,0.0017
3470.00,0.0017
3469.00,0.0017
3468.00,0.0017
3467.00,0.0017
3466.00,0.0017
3465.00,0.0017
3464.00,0.0018
3463.00,0.0018
3462.00,0.0018
3461.00,0.0018
3460.00,0.0019
3459.00,0.0019
3458.00,0.0020
3457.00,0.0020
3456.00,0.0020
3455.00,0.0020
3454.00,0.0020
3453.00,0.0020
3452.00,0.0021
3451.00,0.0021
3450.00,0.0021
3449.00,0.0020
3448.00,0.0020
3447.00,0.0020
3446.00,0.0021
3445.00,0.0021
3444.00,0.0021
3443.00,0.0021
3442.00,0.0020
3441.00,0.0020
3440.00,0.0020
3439.00,0.0020
3438.00,0.0020
3437.00,0.0021
3436.00,0.0021
3435.00,0.0021
3434.00,0.0021
3433.00,0.0021
3432.00,0.0021
3431.00,0.0021
3430.00,0.0021
3429.00,0.0021
3428.00,0.0021
3427.00,0.0021
3426.00,0.0022
3425.00,0.0022
3424.00,0.0021
3423.00,0.0022
3422.00,0.0022
3421.00,0.0022
3420.00,0.0023
3419.00,0.0023
3418.00,0.0023
3417.00,0.0023
3416.00,0.0023
3415.00,0.0023
3414.00,0.0023
3413.00,0.0023
3412.00,0.0024
3411.00,0.0024
3410.00,0.0023
3409.00,0.0023
3408.00,0.0023
3407.00,0.0023
3406.00,0.0023
3405.00,0.0023
3404.00,0.0024
3403.00,0.0024
3402.00,0.0024
3401.00,0.0023
3400.00,0.0023
3399.00,0.0024
3398.00,0.0024
3397.00,0.0024
3396.00,0.0023
3395.00,0.0023
3394.00,0.0023
3393.00,0.0023
3392.00,0.0023
3391.00,0.0023
3390.00,0.0024
3389.00,0.0024
3388.00,0.0024
3387.00,0.0024
3386.00,0.0024
3385.00,0.0024
3384.00,0.0024
3383.00,0.0024
3382.00,0.0024
3381.00,0.0024
3380.00,0.0024
3379.00,0.0025
3378.00,0.0025
3377.00,0.0025
3376.00,0.0025
3375.00,0.0025
3374.00,0.0025
3373.00,0.0025
3372.00,0.0025
3371.00,0.0025
3370.00,0.0025
3369.00,0.0025
3368.00,0.0025
3367.00,0.0025
3366.00,0.0025
3365.00,0.0025
3364.00,0.0025
3363.00,0.0025
3362.00,0.0025
3361.00,0.0025
3360.00,0.0025
3359.00,0.0025
3358.00,0.0025
3357.00,0.0025
3356.00,0.0025
3355.00,0.0025
3354.00,0.0025
3353.00,0.0025
3352.00,0.0026
3351.00,0.0026
3350.00,0.0025
3349.00,0.0025
3348.00,0.0025
3347.00,0.0025
3346.00,0.0025
3345.00,0.0026
3344.00,0.0026
3343.00,0.0026
3342.00,0.0026
3341.00,0.0025
3340.00,0.0025
3339.00,0.0025
3338.00,0.0025
3337.00,0.0025
3336.00,0.0025
3335.00,0.0025
3334.00,0.0025
3333.00,0.0025
3332.00,0.0025
3331.00,0.0025
3330.00,0.0025
3329.00,0.0025
3328.00,0.0025
3327.00,0.0025
3326.00,0.0025
3325.00,0.0025
3324.00,0.0024
3323.00,0.0024
3322.00,0.0024
3321.00,0.0023
3320.00,0.0023
3319.00,0.0024
3318.00,0.0024
3317.00,0.0024
3316.00,0.0024
3315.00,0.0024
3314.00,0.0024
3313.00,0.0024
3312.00,0.0024
3311.00,0.0025
3310.00,0.0024
3309.00,0.0024
3308.00,0.0024
3307.00,0.0024
3306.00,0.0024
3305.00,0.0024
3304.00,0.0024
3303.00,0.0024
3302.00,0.0024
3301.00,0.0025
3300.00,0.0025
3299.00,0.0025
3298.00,0.0025
3297.00,0.0025
3296.00,0.0025
3295.00,0.0025
3294.00,0.0024
3293.00,0.0024
3292.00,0.0024
3291.00,0.0024
3290.00,0.0024
3289.00,0.0024
3288.00,0.0024
3287.00,0.0024
3286.00,0.0024
3285.00,0.0024
3284.00,0.0024
3283.00,0.0024
3282.00,0.0024
3281.00,0.0023
3280.00,0.0023
3279.00,0.0023
3278.00,0.0023
3277.00,0.0023
3276.00,0.0023
3275.00,0.0024
3274.00,0.0024
3273.00,0.0023
3272.00,0.0023
3271.00,0.0023
3270.00,0.0023
3269.00,0.0023
3268.00,0.0023
3267.00,0.0023
3266.00,0.0023
3265.00,0.0023
3264.00,0.0023
3263.00,0.0023
3262.00,0.0023
3261.00,0.0023
3260.00,0.0023
3259.00,0.0023
3258.00,0.0022
3257.00,0.0022
3256.00,0.0022
3255.00,0.0022
3254.00,0.0022
3253.00,0.0022
3252.00,0.0022
3251.00,0.0022
3250.00,0.0021
3249.00,0.0021
3248.00,0.0021
3247.00,0.0022
3246.00,0.0022
3245.00,0.0022
3244.00,0.0022
3243.00,0.0022
3242.00,0.0022
3241.00,0.0022
3240.00,0.0022
3239.00,0.0022
3238.00,0.0022
3237.00,0.0023
3236.00,0.0023
3235.00,0.0023
3234.00,0.0023
3233.00,0.0023
3232.00,0.0023
3231.00,0.0023
3230.00,0.0023
3229.00,0.0023
3228.00,0.0023
3227.00,0.0024
3226.00,0.0024
3225.00,0.0024
3224.00,0.0024
3223.00,0.0025
3222.00,0.0025
3221.00,0.0025
3220.00,0.0026
3219.00,0.0026
3218.00,0.0026
3217.00,0.0026
3216.00,0.0026
3215.00,0.0026
3214.00,0.0027
3213.00,0.0027
3212.00,0.0028
3211.00,0.0029
3210.00,0.0029
3209.00,0.0029
3208.00,0.0028
3207.00,0.0028
3206.00,0.0028
3205.00,0.0028
3204.00,0.0028
3203.00,0.0028
3202.00,0.0028
3201.00,0.0029
3200.00,0.0029
3199.00,0.0029
3198.00,0.0030
3197.00,0.0029
3196.00,0.0029
3195.00,0.0029
3194.00,0.0029
3193.00,0.0029
3192.00,0.0029
3191.00,0.0029
3190.00,0.0029
3189.00,0.0029
3188.00,0.0028
3187.00,0.0028
3186.00,0.0028
3185.00,0.0028
3184.00,0.0028
3183.00,0.0027
3182.00,0.0027
3181.00,0.0026
3180.00,0.0026
3179.00,0.0026
3178.00,0.0026
3177.00,0.0026
3176.00,0.0026
3175.00,0.0027
3174.00,0.0027
3173.00,0.0027
3172.00,0.0026
3171.00,0.0026
3170.00,0.0026
3169.00,0.0026
3168.00,0.0025
3167.00,0.0025
3166.00,0.0025
3165.00,0.0025
3164.00,0.0026
3163.00,0.0026
3162.00,0.0026
3161.00,0.0026
3160.00,0.0026
3159.00,0.0026
3158.00,0.0026
3157.00,0.0026
3156.00,0.0026
3155.00,0.0026
3154.00,0.0027
3153.00,0.0027
3152.00,0.0027
3151.00,0.0027
3150.00,0.0026
3149.00,0.0026
3148.00,0.0026
3147.00,0.0026
3146.00,0.0026
3145.00,0.0026
3144.00,0.0025
3143.00,0.0025
3142.00,0.0025
3141.00,0.0026
3140.00,0.0026
3139.00,0.0026
3138.00,0.0026
3137.00,0.0026
3136.00,0.0026
3135.00,0.0025
3134.00,0.0025
3133.00,0.0025
3132.00,0.0025
3131.00,0.0025
3130.00,0.0025
3129.00,0.0024
3128.00,0.0024
3127.00,0.0023
3126.00,0.0023
3125.00,0.0023
3124.00,0.0023
3123.00,0.0023
3122.00,0.0023
3121.00,0.0023
3120.00,0.0023
3119.00,0.0023
3118.00,0.0023
3117.00,0.0023
3116.00,0.0023
3115.00,0.0023
3114.00,0.0022
3113.00,0.0022
3112.00,0.0022
3111.00,0.0022
3110.00,0.0023
3109.00,0.0023
3108.00,0.0023
3107.00,0.0023
3106.00,0.0023
3105.00,0.0023
3104.00,0.0022
3103.00,0.0022
3102.00,0.0022
3101.00,0.0022
3100.00,0.0022
3099.00,0.0022
3098.00,0.0022
3097.00,0.0022
3096.00,0.0022
3095.00,0.0022
3094.00,0.0022
3093.00,0.0022
3092.00,0.0022
3091.00,0.0021
3090.00,0.0021
3089.00,0.0021
3088.00,0.0021
3087.00,0.0022
3086.00,0.0022
3085.00,0.0022
3084.00,0.0021
3083.00,0.0021
3082.00,0.0021
3081.00,0.0021
3080.00,0.0021
3079.00,0.0021
3078.00,0.0021
3077.00,0.0021
3076.00,0.0021
3075.00,0.0021
3074.00,0.0021
3073.00,0.0021
3072.00,0.0021
3071.00,0.0022
3070.00,0.0022
3069.00,0.0023
3068.00,0.0023
3067.00,0.0023
3066.00,0.0023
3065.00,0.0024
3064.00,0.0024
3063.00,0.0024
3062.00,0.0024
3061.00,0.0024
3060.00,0.0024
3059.00,0.0024
3058.00,0.0024
3057.00,0.0024
3056.00,0.0025
3055.00,0.0026
3054.00,0.0026
3053.00,0.0026
3052.00,0.0026
3051.00,0.0026
3050.00,0.0026
3049.00,0.0026
3048.00,0.0027
3047.00,0.0027
3046.00,0.0028
3045.00,0.0028
3044.00,0.0028
3043.00,0.0028
3042.00,0.0028
3041.00,0.0029
3040.00,0.0029
3039.00,0.0029
3038.00,0.0030
3037.00,0.0030
3036.00,0.0030
3035.00,0.0031
3034.00,0.0031
3033.00,0.0031
3032.00,0.0031
3031.00,0.0032
3030.00,0.0032
3029.00,0.0033
3028.00,0.0033
3027.00,0.0034
3026.00,0.0034
3025.00,0.0035
3024.00,0.0035
3023.00,0.0036
3022.00,0.0037
3021.00,0.0038
3020.00,0.0039
3019.00,0.0040
3018.00,0.0040
3017.00,0.0041
3016.00,0.0042
3015.00,0.0043
3014.00,0.0044
3013.00,0.0045
3012.00,0.0046
3011.00,0.0047
3010.00,0.0048
3009.00,0.0049
3008.00,0.0050
3007.00,0.0052
3006.00,0.0053
3005.00,0.0055
3004.00,0.0057
3003.00,0.0058
3002.00,0.0061
3001.00,0.0063
3000.00,0.0066
2999.00,0.0069
2998.00,0.0072
2997.00,0.0075
2996.00,0.0079
2995.00,0.0083
2994.00,0.0087
2993.00,0.0092
2992.00,0.0097
2991.00,0.0103
2990.00,0.0110
2989.00,0.0118
2988.00,0.0126
2987.00,0.0136
2986.00,0.0146
2985.00,0.0156
2984.00,0.0168
2983.00,0.0182
2982.00,0.0198
2981.00,0.0217
2980.00,0.0239
2979.00,0.0264
2978.00,0.0293
2977.00,0.0325
2976.00,0.0361
2975.00,0.0403
2974.00,0.0449
2973.00,0.0502
2972.00,0.0563
2971.00,0.0631
2970.00,0.0708
2969.00,0.0793
2968.00,0.0885
2967.00,0.0985
2966.00,0.1092
2965.00,0.1203
2964.00,0.1315
2963.00,0.1424
2962.00,0.1523
2961.00,0.1609
2960.00,0.1677
2959.00,0.1729
2958.00,0.1769
2957.00,0.1801
2956.00,0.1834
2955.00,0.1871
2954.00,0.1914
2953.00,0.1962
2952.00,0.2006
2951.00,0.2037
2950.00,0.2043
2949.00,0.2015
2948.00,0.1949
2947.00,0.1847
2946.00,0.1719
2945.00,0.1578
2944.00,0.1439
2943.00,0.1315
2942.00,0.1214
2941.00,0.1139
2940.00,0.1091
2939.00,0.1068
2938.00,0.1067
2937.00,0.1085
2936.00,0.1121
2935.00,0.1173
2934.00,0.1239
2933.00,0.1317
2932.00,0.1407
2931.00,0.1505
2930.00,0.1609
2929.00,0.1714
2928.00,0.1818
2927.00,0.1919
2926.00,0.2014
2925.00,0.2105
2924.00,0.2191
2923.00,0.2276
2922.00,0.2359
2921.00,0.2437
2920.00,0.2507
2919.00,0.2562
2918.00,0.2593
2917.00,0.2594
2916.00,0.2564
2915.00,0.2505
2914.00,0.2427
2913.00,0.2339
2912.00,0.2249
2911.00,0.2164
2910.00,0.2087
2909.00,0.2018
2908.00,0.1952
2907.00,0.1889
2906.00,0.1825
2905.00,0.1759
2904.00,0.1690
2903.00,0.1618
2902.00,0.1546
2901.00,0.1475
2900.00,0.1405
2899.00,0.1339
2898.00,0.1277
2897.00,0.1221
2896.00,0.1172
2895.00,0.1131
2894.00,0.1097
2893.00,0.1070
2892.00,0.1051
2891.00,0.1038
2890.00,0.1031
2889.00,0.1029
2888.00,0.1032
2887.00,0.1038
2886.00,0.1048
2885.00,0.1062
2884.00,0.1080
2883.00,0.1102
2882.00,0.1129
2881.00,0.1157
2880.00,0.1185
2879.00,0.1208
2878.00,0.1222
2877.00,0.1226
2876.00,0.1222
2875.00,0.1213
2874.00,0.1204
2873.00,0.1200
2872.00,0.1203
2871.00,0.1215
2870.00,0.1234
2869.00,0.1252
2868.00,0.1264
2867.00,0.1260
2866.00,0.1233
2865.00,0.1179
2864.00,0.1102
2863.00,0.1010
2862.00,0.0914
2861.00,0.0824
2860.00,0.0746
2859.00,0.0683
2858.00,0.0636
2857.00,0.0602
2856.00,0.0580
2855.00,0.0568
2854.00,0.0565
2853.00,0.0570
2852.00,0.0582
2851.00,0.0601
2850.00,0.0626
2849.00,0.0657
2848.00,0.0695
2847.00,0.0740
2846.00,0.0795
2845.00,0.0858
2844.00,0.0931
2843.00,0.1010
2842.00,0.1091
2841.00,0.1169
2840.00,0.1234
2839.00,0.1276
2838.00,0.1287
2837.00,0.1262
2836.00,0.1199
2835.00,0.1107
2834.00,0.0995
2833.00,0.0878
2832.00,0.0765
2831.00,0.0665
2830.00,0.0581
2829.00,0.0512
2828.00,0.0456
2827.00,0.0411
2826.00,0.0374
2825.00,0.0344
2824.00,0.0319
2823.00,0.0298
2822.00,0.0280
2821.00,0.0264
2820.00,0.0251
2819.00,0.0239
2818.00,0.0228
2817.00,0.0219
2816.00,0.0212
2815.00,0.0205
2814.00,0.0199
2813.00,0.0193
2812.00,0.0188
2811.00,0.0182
2810.00,0.0177
2809.00,0.0171
2808.00,0.0165
2807.00,0.0159
2806.00,0.0152
2805.00,0.0145
2804.00,0.0139
2803.00,0.0133
2802.00,0.0127
2801.00,0.0123
2800.00,0.0119
2799.00,0.0116
2798.00,0.0114
2797.00,0.0112
2796.00,0.0109
2795.00,0.0107
2794.00,0.0104
2793.00,0.0101
2792.00,0.0097
2791.00,0.0094
2790.00,0.0090
2789.00,0.0087
2788.00,0.0084
2787.00,0.0080
2786.00,0.0078
2785.00,0.0075
2784.00,0.0072
2783.00,0.0070
2782.00,0.0068
2781.00,0.0066
2780.00,0.0065
2779.00,0.0063
2778.00,0.0061
2777.00,0.0060
2776.00,0.0059
2775.00,0.0058
2774.00,0.0057
2773.00,0.0056
2772.00,0.0055
2771.00,0.0055
2770.00,0.0054
2769.00,0.0054
2768.00,0.0053
2767.00,0.0053
2766.00,0.0053
2765.00,0.0053
2764.00,0.0053
2763.00,0.0052
2762.00,0.0052
2761.00,0.0051
2760.00,0.0051
2759.00,0.0051
2758.00,0.0050
2757.00,0.0050
2756.00,0.0050
2755.00,0.0050
2754.00,0.0050
2753.00,0.0050
2752.00,0.0049
2751.00,0.0050
2750.00,0.0050
2749.00,0.0050
2748.00,0.0050
2747.00,0.0051
2746.00,0.0051
2745.00,0.0051
2744.00,0.0052
2743.00,0.0053
2742.00,0.0054
2741.00,0.0055
2740.00,0.0057
2739.00,0.0058
2738.00,0.0060
2737.00,0.0061
2736.00,0.0062
2735.00,0.0064
2734.00,0.0065
2733.00,0.0067
2732.00,0.0068
2731.00,0.0070
2730.00,0.0073
2729.00,0.0076
2728.00,0.0079
2727.00,0.0082
2726.00,0.0085
2725.00,0.0087
2724.00,0.0089
2723.00,0.0089
2722.00,0.0088
2721.00,0.0086
2720.00,0.0083
2719.00,0.0080
2718.00,0.0076
2717.00,0.0072
2716.00,0.0069
2715.00,0.0066
2714.00,0.0063
2713.00,0.0061
2712.00,0.0059
2711.00,0.0057
2710.00,0.0056
2709.00,0.0054
2708.00,0.0053
2707.00,0.0051
2706.00,0.0050
2705.00,0.0049
2704.00,0.0048
2703.00,0.0047
2702.00,0.0046
2701.00,0.0046
2700.00,0.0045
2699.00,0.0045
2698.00,0.0044
2697.00,0.0044
2696.00,0.0044
2695.00,0.0044
2694.00,0.0044
2693.00,0.0044
2692.00,0.0044
2691.00,0.0044
2690.00,0.0044
2689.00,0.0044
2688.00,0.0044
2687.00,0.0044
2686.00,0.0044
2685.00,0.0044
2684.00,0.0044
2683.00,0.0044
2682.00,0.0044
2681.00,0.0044
2680.00,0.0044
2679.00,0.0044
2678.00,0.0044
2677.00,0.0044
2676.00,0.0044
2675.00,0.0044
2674.00,0.0044
2673.00,0.0044
2672.00,0.0043
2671.00,0.0043
2670.00,0.0043
2669.00,0.0043
2668.00,0.0043
2667.00,0.0043
2666.00,0.0044
2665.00,0.0044
2664.00,0.0045
2663.00,0.0045
2662.00,0.0046
2661.00,0.0046
2660.00,0.0046
2659.00,0.0047
2658.00,0.0046
2657.00,0.0046
2656.00,0.0046
2655.00,0.0045
2654.00,0.0044
2653.00,0.0044
2652.00,0.0044
2651.00,0.0044
2650.00,0.0044
2649.00,0.0043
2648.00,0.0043
2647.00,0.0042
2646.00,0.0041
2645.00,0.0041
2644.00,0.0040
2643.00,0.0040
2642.00,0.0040
2641.00,0.0040
2640.00,0.0040
2639.00,0.0039
2638.00,0.0039
2637.00,0.0038
2636.00,0.0037
2635.00,0.0037
2634.00,0.0037
2633.00,0.0037
2632.00,0.0037
2631.00,0.0037
2630.00,0.0037
2629.00,0.0038
2628.00,0.0039
2627.00,0.0039
2626.00,0.0040
2625.00,0.0040
2624.00,0.0040
2623.00,0.0040
2622.00,0.0040
2621.00,0.0040
2620.00,0.0040
2619.00,0.0040
2618.00,0.0041
2617.00,0.0040
2616.00,0.0040
2615.00,0.0040
2614.00,0.0039
2613.00,0.0039
2612.00,0.0039
2611.00,0.0038
2610.00,0.0037
2609.00,0.0036
2608.00,0.0035
2607.00,0.0035
2606.00,0.0034
2605.00,0.0034
2604.00,0.0033
2603.00,0.0032
2602.00,0.0032
2601.00,0.0032
2600.00,0.0032
2599.00,0.0031
2598.00,0.0031
2597.00,0.0031
2596.00,0.0031
2595.00,0.0032
2594.00,0.0032
2593.00,0.0032
2592.00,0.0033
2591.00,0.0033
2590.00,0.0033
2589.00,0.0034
2588.00,0.0035
2587.00,0.0036
2586.00,0.0037
2585.00,0.0038
2584.00,0.0038
2583.00,0.0038
2582.00,0.0038
2581.00,0.0038
2580.00,0.0037
2579.00,0.0037
2578.00,0.0036
2577.00,0.0035
2576.00,0.0034
2575.00,0.0033
2574.00,0.0032
2573.00,0.0031
2572.00,0.0030
2571.00,0.0029
2570.00,0.0028
2569.00,0.0028
2568.00,0.0027
2567.00,0.0026
2566.00,0.0026
2565.00,0.0025
2564.00,0.0025
2563.00,0.0024
2562.00,0.0023
2561.00,0.0023
2560.00,0.0023
2559.00,0.0023
2558.00,0.0022
2557.00,0.0022
2556.00,0.0022
2555.00,0.0022
2554.00,0.0022
2553.00,0.0022
2552.00,0.0021
2551.00,0.0021
2550.00,0.0020
2549.00,0.0019
2548.00,0.0019
2547.00,0.0018
2546.00,0.0017
2545.00,0.0017
2544.00,0.0017
2543.00,0.0017
2542.00,0.0017
2541.00,0.0017
2540.00,0.0017
2539.00,0.0017
2538.00,0.0016
2537.00,0.0015
2536.00,0.0015
2535.00,0.0015
2534.00,0.0016
2533.00,0.0016
2532.00,0.0016
2531.00,0.0016
2530.00,0.0016
2529.00,0.0016
2528.00,0.0015
2527.00,0.0015
2526.00,0.0014
2525.00,0.0013
2524.00,0.0012
2523.00,0.0012
2522.00,0.0012
2521.00,0.0012
2520.00,0.0012
2519.00,0.0012
2518.00,0.0012
2517.00,0.0012
2516.00,0.0012
2515.00,0.0012
2514.00,0.0011
2513.00,0.0011
2512.00,0.0010
2511.00,0.0010
2510.00,0.0010
2509.00,0.0009
2508.00,0.0009
2507.00,0.0009
2506.00,0.0010
2505.00,0.0010
2504.00,0.0011
2503.00,0.0010
2502.00,0.0010
2501.00,0.0009
2500.00,0.0009
2499.00,0.0009
2498.00,0.0009
2497.00,0.0010
2496.00,0.0010
2495.00,0.0010
2494.00,0.0010
2493.00,0.0010
2492.00,0.0010
2491.00,0.0010
2490.00,0.0011
2489.00,0.0011
2488.00,0.0010
2487.00,0.0010
2486.00,0.0009
2485.00,0.0008
2484.00,0.0008
2483.00,0.0008
2482.00,0.0009
2481.00,0.0009
2480.00,0.0009
2479.00,0.0009
2478.00,0.0009
2477.00,0.0009
2476.00,0.0009
2475.00,0.0009
2474.00,0.0009
2473.00,0.0009
2472.00,0.0009
2471.00,0.0009
2470.00,0.0009
2469.00,0.0008
2468.00,0.0008
2467.00,0.0009
2466.00,0.0009
2465.00,0.0009
2464.00,0.0010
2463.00,0.0010
2462.00,0.0010
2461.00,0.0010
2460.00,0.0010
2459.00,0.0011
2458.00,0.0011
2457.00,0.0011
2456.00,0.0011
2455.00,0.0011
2454.00,0.0011
2453.00,0.0011
2452.00,0.0010
2451.00,0.0010
2450.00,0.0009
2449.00,0.0009
2448.00,0.0009
2447.00,0.0009
2446.00,0.0009
2445.00,0.0009
2444.00,0.0009
2443.00,0.0010
2442.00,0.0010
2441.00,0.0010
2440.00,0.0011
2439.00,0.0011
2438.00,0.0011
2437.00,0.0010
2436.00,0.0010
2435.00,0.0010
2434.00,0.0010
2433.00,0.0011
2432.00,0.0011
2431.00,0.0012
2430.00,0.0012
2429.00,0.0012
2428.00,0.0012
2427.00,0.0011
2426.00,0.0011
2425.00,0.0011
2424.00,0.0011
2423.00,0.0011
2422.00,0.0011
2421.00,0.0011
2420.00,0.0010
2419.00,0.0010
2418.00,0.0010
2417.00,0.0010
2416.00,0.0009
2415.00,0.0009
2414.00,0.0009
2413.00,0.0009
2412.00,0.0009
2411.00,0.0009
2410.00,0.0009
2409.00,0.0009
2408.00,0.0008
2407.00,0.0008
2406.00,0.0008
2405.00,0.0008
2404.00,0.0008
2403.00,0.0008
2402.00,0.0007
2401.00,0.0007
2400.00,0.0007
2399.00,0.0007
2398.00,0.0007
2397.00,0.0007
2396.00,0.0007
2395.00,0.0007
2394.00,0.0006
2393.00,0.0006
2392.00,0.0006
2391.00,0.0006
2390.00,0.0006
2389.00,0.0007
2388.00,0.0007
2387.00,0.0006
2386.00,0.0006
2385.00,0.0005
2384.00,0.0004
2383.00,0.0004
2382.00,0.0004
2381.00,0.0003
2380.00,0.0003
2379.00,0.0003
2378.00,0.0003
2377.00,0.0003
2376.00,0.0002
2375.00,0.0002
2374.00,0.0002
2373.00,0.0003
2372.00,0.0004
2371.00,0.0003
2370.00,0.0002
2369.00,0.0001
2368.00,-0.0000
2367.00,-0.0001
2366.00,-0.0000
2365.00,0.0001
2364.00,0.0001
2363.00,0.0001
2362.00,0.0002
2361.00,0.0002
2360.00,0.0003
2359.00,0.0003
2358.00,0.0003
2357.00,0.0003
2356.00,0.0003
2355.00,0.0002
2354.00,0.0002
2353.00,0.0002
2352.00,0.0003
2351.00,0.0003
2350.00,0.0003
2349.00,0.0003
2348.00,0.0003
2347.00,0.0003
2346.00,0.0004
2345.00,0.0004
2344.00,0.0004
2343.00,0.0004
2342.00,0.0004
2341.00,0.0004
2340.00,0.0005
2339.00,0.0005
2338.00,0.0006
2337.00,0.0006
2336.00,0.0005
2335.00,0.0005
2334.00,0.0005
2333.00,0.0004
2332.00,0.0003
2331.00,0.0003
2330.00,0.0003
2329.00,0.0004
2328.00,0.0006
2327.00,0.0010
2326.00,0.0015
2325.00,0.0018
2324.00,0.0020
2323.00,0.0019
2322.00,0.0016
2321.00,0.0013
2320.00,0.0011
2319.00,0.0011
2318.00,0.0010
2317.00,0.0010
2316.00,0.0010
2315.00,0.0009
2314.00,0.0009
2313.00,0.0009
2312.00,0.0008
2311.00,0.0008
2310.00,0.0008
2309.00,0.0008
2308.00,0.0008
2307.00,0.0008
2306.00,0.0008
2305.00,0.0009
2304.00,0.0009
2303.00,0.0010
2302.00,0.0010
2301.00,0.0011
2300.00,0.0011
2299.00,0.0011
2298.00,0.0011
2297.00,0.0011
2296.00,0.0012
2295.00,0.0013
2294.00,0.0013
2293.00,0.0014
2292.00,0.0015
2291.00,0.0016
2290.00,0.0017
2289.00,0.0018
2288.00,0.0019
2287.00,0.0020
2286.00,0.0019
2285.00,0.0019
2284.00,0.0018
2283.00,0.0017
2282.00,0.0016
2281.00,0.0016
2280.00,0.0015
2279.00,0.0015
2278.00,0.0015
2277.00,0.0014
2276.00,0.0014
2275.00,0.0014
2274.00,0.0014
2273.00,0.0014
2272.00,0.0014
2271.00,0.0014
2270.00,0.0013
2269.00,0.0012
2268.00,0.0012
2267.00,0.0012
2266.00,0.0013
2265.00,0.0013
2264.00,0.0012
2263.00,0.0011
2262.00,0.0011
2261.00,0.0012
2260.00,0.0014
2259.00,0.0016
2258.00,0.0017
2257.00,0.0016
2256.00,0.0015
2255.00,0.0013
2254.00,0.0011
2253.00,0.0010
2252.00,0.0009
2251.00,0.0009
2250.00,0.0008
2249.00,0.0007
2248.00,0.0007
2247.00,0.0006
2246.00,0.0007
2245.00,0.0008
2244.00,0.0008
2243.00,0.0009
2242.00,0.0009
2241.00,0.0008
2240.00,0.0008
2239.00,0.0008
2238.00,0.0008
2237.00,0.0009
2236.00,0.0010
2235.00,0.0011
2234.00,0.0011
2233.00,0.0011
2232.00,0.0011
2231.00,0.0011
2230.00,0.0010
2229.00,0.0010
2228.00,0.0010
2227.00,0.0010
2226.00,0.0009
2225.00,0.0006
2224.00,0.0003
2223.00,0.0001
2222.00,0.0002
2221.00,0.0004
2220.00,0.0006
2219.00,0.0008
2218.00,0.0008
2217.00,0.0007
2216.00,0.0006
2215.00,0.0005
2214.00,0.0006
2213.00,0.0008
2212.00,0.0009
2211.00,0.0011
2210.00,0.0011
2209.00,0.0010
2208.00,0.0010
2207.00,0.0008
2206.00,0.0008
2205.00,0.0008
2204.00,0.0008
2203.00,0.0008
2202.00,0.0007
2201.00,0.0006
2200.00,0.0004
2199.00,0.0002
2198.00,0.0002
2197.00,0.0004
2196.00,0.0007
2195.00,0.0009
2194.00,0.0011
2193.00,0.0012
2192.00,0.0011
2191.00,0.0010
2190.00,0.0010
2189.00,0.0010
2188.00,0.0011
2187.00,0.0011
2186.00,0.0010
2185.00,0.0007
2184.00,0.0004
2183.00,0.0001
2182.00,-0.0002
2181.00,-0.0002
2180.00,-0.0000
2179.00,0.0003
2178.00,0.0005
2177.00,0.0006
2176.00,0.0004
2175.00,0.0001
2174.00,0.0000
2173.00,0.0003
2172.00,0.0007
2171.00,0.0011
2170.00,0.0014
2169.00,0.0014
2168.00,0.0014
2167.00,0.0012
2166.00,0.0012
2165.00,0.0015
2164.00,0.0021
2163.00,0.0027
2162.00,0.0029
2161.00,0.0022
2160.00,0.0006
2159.00,-0.0013
2158.00,-0.0027
2157.00,-0.0031
2156.00,-0.0028
2155.00,-0.0024
2154.00,-0.0020
2153.00,-0.0018
2152.00,-0.0016
2151.00,-0.0016
2150.00,-0.0016
2149.00,-0.0016
2148.00,-0.0015
2147.00,-0.0016
2146.00,-0.0017
2145.00,-0.0018
2144.00,-0.0018
2143.00,-0.0017
2142.00,-0.0015
2141.00,-0.0014
2140.00,-0.0013
2139.00,-0.0014
2138.00,-0.0015
2137.00,-0.0015
2136.00,-0.0017
2135.00,-0.0019
2134.00,-0.0020
2133.00,-0.0020
2132.00,-0.0019
2131.00,-0.0017
2130.00,-0.0014
2129.00,-0.0011
2128.00,-0.0009
2127.00,-0.0008
2126.00,-0.0007
2125.00,-0.0007
2124.00,-0.0006
2123.00,-0.0005
2122.00,-0.0004
2121.00,-0.0003
2120.00,-0.0002
2119.00,-0.0002
2118.00,-0.0002
2117.00,-0.0002
2116.00,-0.0003
2115.00,-0.0003
2114.00,-0.0002
2113.00,-0.0001
2112.00,0.0001
2111.00,0.0002
2110.00,0.0003
2109.00,0.0004
2108.00,0.0003
2107.00,0.0001
2106.00,-0.0001
2105.00,-0.0002
2104.00,-0.0001
2103.00,0.0000
2102.00,0.0001
2101.00,0.0003
2100.00,0.0002
2099.00,0.0001
2098.00,-0.0001
2097.00,-0.0004
2096.00,-0.0005
2095.00,-0.0007
2094.00,-0.0007
2093.00,-0.0006
2092.00,-0.0005
2091.00,-0.0003
2090.00,-0.0002
2089.00,-0.0001
2088.00,-0.0000
2087.00,0.0001
2086.00,0.0002
2085.00,0.0002
2084.00,0.0003
2083.00,0.0002
2082.00,0.0002
2081.00,0.0003
2080.00,0.0004
2079.00,0.0004
2078.00,0.0004
2077.00,0.0003
2076.00,0.0002
2075.00,0.0002
2074.00,0.0002
2073.00,0.0004
2072.00,0.0005
2071.00,0.0004
2070.00,0.0003
2069.00,0.0000
2068.00,-0.0002
2067.00,-0.0002
2066.00,-0.0002
2065.00,-0.0001
2064.00,-0.0001
2063.00,-0.0002
2062.00,-0.0004
2061.00,-0.0005
2060.00,-0.0006
2059.00,-0.0006
2058.00,-0.0005
2057.00,-0.0003
2056.00,-0.0000
2055.00,0.0002
2054.00,0.0004
2053.00,0.0008
2052.00,0.0011
2051.00,0.0012
2050.00,0.0010
2049.00,0.0005
2048.00,-0.0000
2047.00,-0.0003
2046.00,-0.0003
2045.00,-0.0002
2044.00,0.0000
2043.00,0.0001
2042.00,-0.0000
2041.00,-0.0001
2040.00,-0.0001
2039.00,0.0001
2038.00,0.0004
2037.00,0.0007
2036.00,0.0007
2035.00,0.0003
2034.00,-0.0001
2033.00,-0.0002
2032.00,-0.0002
2031.00,-0.0002
2030.00,-0.0004
2029.00,-0.0006
2028.00,-0.0008
2027.00,-0.0010
2026.00,-0.0012
2025.00,-0.0015
2024.00,-0.0017
2023.00,-0.0018
2022.00,-0.0019
2021.00,-0.0017
2020.00,-0.0015
2019.00,-0.0014
2018.00,-0.0013
2017.00,-0.0012
2016.00,-0.0011
2015.00,-0.0011
2014.00,-0.0011
2013.00,-0.0011
2012.00,-0.0010
2011.00,-0.0008
2010.00,-0.0007
2009.00,-0.0008
2008.00,-0.0012
2007.00,-0.0017
2006.00,-0.0020
2005.00,-0.0019
2004.00,-0.0016
2003.00,-0.0013
2002.00,-0.0013
2001.00,-0.0015
2000.00,-0.0017
1999.00,-0.0018
1998.00,-0.0018
1997.00,-0.0016
1996.00,-0.0016
1995.00,-0.0016
1994.00,-0.0016
1993.00,-0.0014
1992.00,-0.0011
1991.00,-0.0007
1990.00,-0.0003
1989.00,-0.0002
1988.00,-0.0002
1987.00,-0.0005
1986.00,-0.0009
1985.00,-0.0011
1984.00,-0.0009
1983.00,-0.0005
1982.00,-0.0001
1981.00,0.0004
1980.00,0.0006
1979.00,0.0004
1978.00,-0.0002
1977.00,-0.0008
1976.00,-0.0013
1975.00,-0.0015
1974.00,-0.0017
1973.00,-0.0017
1972.00,-0.0016
1971.00,-0.0015
1970.00,-0.0013
1969.00,-0.0013
1968.00,-0.0012
1967.00,-0.0013
1966.00,-0.0013
1965.00,-0.0014
1964.00,-0.0014
1963.00,-0.0014
1962.00,-0.0015
1961.00,-0.0014
1960.00,-0.0015
1959.00,-0.0016
1958.00,-0.0019
1957.00,-0.0020
1956.00,-0.0021
1955.00,-0.0021
1954.00,-0.0021
1953.00,-0.0020
1952.00,-0.0020
1951.00,-0.0019
1950.00,-0.0018
1949.00,-0.0017
1948.00,-0.0015
1947.00,-0.0015
1946.00,-0.0017
1945.00,-0.0019
1944.00,-0.0020
1943.00,-0.0021
1942.00,-0.0020
1941.00,-0.0018
1940.00,-0.0016
1939.00,-0.0015
1938.00,-0.0014
1937.00,-0.0014
1936.00,-0.0013
1935.00,-0.0013
1934.00,-0.0012
1933.00,-0.0012
1932.00,-0.0011
1931.00,-0.0011
1930.00,-0.0009
1929.00,-0.0008
1928.00,-0.0007
1927.00,-0.0007
1926.00,-0.0008
1925.00,-0.0009
1924.00,-0.0010
1923.00,-0.0010
1922.00,-0.0009
1921.00,-0.0008
1920.00,-0.0007
1919.00,-0.0005
1918.00,-0.0004
1917.00,-0.0003
1916.00,-0.0003
1915.00,-0.0004
1914.00,-0.0006
1913.00,-0.0007
1912.00,-0.0008
1911.00,-0.0008
1910.00,-0.0007
1909.00,-0.0005
1908.00,-0.0004
1907.00,-0.0003
1906.00,-0.0003
1905.00,-0.0003
1904.00,-0.0002
1903.00,-0.0002
1902.00,-0.0002
1901.00,-0.0002
1900.00,-0.0002
1899.00,-0.0003
1898.00,-0.0004
1897.00,-0.0004
1896.00,-0.0004
1895.00,-0.0004
1894.00,-0.0003
1893.00,-0.0003
1892.00,-0.0002
1891.00,-0.0001
1890.00,-0.0001
1889.00,-0.0001
1888.00,-0.0001
1887.00,-0.0002
1886.00,-0.0003
1885.00,-0.0003
1884.00,-0.0002
1883.00,-0.0002
1882.00,-0.0002
1881.00,-0.0003
1880.00,-0.0003
1879.00,-0.0003
1878.00,-0.0003
1877.00,-0.0003
1876.00,-0.0002
1875.00,-0.0001
1874.00,-0.0001
1873.00,-0.0001
1872.00,-0.0001
1871.00,-0.0001
1870.00,-0.0001
1869.00,-0.0001
1868.00,-0.0001
1867.00,-0.0001
1866.00,-0.0001
1865.00,-0.0002
1864.00,-0.0002
1863.00,-0.0002
1862.00,-0.0001
1861.00,0.0000
1860.00,0.0001
1859.00,0.0000
1858.00,-0.0001
1857.00,-0.0002
1856.00,-0.0003
1855.00,-0.0003
1854.00,-0.0003
1853.00,-0.0003
1852.00,-0.0002
1851.00,-0.0001
1850.00,-0.0001
1849.00,-0.0001
1848.00,-0.0000
1847.00,0.0000
1846.00,0.0001
1845.00,0.0001
1844.00,0.0002
1843.00,0.0001
1842.00,0.0001
1841.00,0.0001
1840.00,0.0002
1839.00,0.0002
1838.00,0.0003
1837.00,0.0003
1836.00,0.0004
1835.00,0.0004
1834.00,0.0004
1833.00,0.0004
1832.00,0.0004
1831.00,0.0003
1830.00,0.0003
1829.00,0.0003
1828.00,0.0004
1827.00,0.0004
1826.00,0.0003
1825.00,0.0003
1824.00,0.0004
1823.00,0.0004
1822.00,0.0003
1821.00,0.0003
1820.00,0.0002
1819.00,0.0000
1818.00,-0.0001
1817.00,-0.0002
1816.00,-0.0002
1815.00,-0.0001
1814.00,0.0000
1813.00,0.0001
1812.00,0.0003
1811.00,0.0004
1810.00,0.0004
1809.00,0.0004
1808.00,0.0004
1807.00,0.0003
1806.00,0.0003
1805.00,0.0004
1804.00,0.0004
1803.00,0.0004
1802.00,0.0004
1801.00,0.0004
1800.00,0.0004
1799.00,0.0004
1798.00,0.0004
1797.00,0.0004
1796.00,0.0004
1795.00,0.0004
1794.00,0.0004
1793.00,0.0004
1792.00,0.0004
1791.00,0.0004
1790.00,0.0005
1789.00,0.0005
1788.00,0.0005
1787.00,0.0006
1786.00,0.0006
1785.00,0.0005
1784.00,0.0005
1783.00,0.0005
1782.00,0.0005
1781.00,0.0006
1780.00,0.0007
1779.00,0.0007
1778.00,0.0007
1777.00,0.0007
1776.00,0.0007
1775.00,0.0007
1774.00,0.0007
1773.00,0.0007
1772.00,0.0007
1771.00,0.0007
1770.00,0.0008
1769.00,0.0008
1768.00,0.0008
1767.00,0.0007
1766.00,0.0007
1765.00,0.0007
1764.00,0.0008
1763.00,0.0008
1762.00,0.0009
1761.00,0.0009
1760.00,0.0009
1759.00,0.0009
1758.00,0.0009
1757.00,0.0009
1756.00,0.0010
1755.00,0.0011
1754.00,0.0011
1753.00,0.0012
1752.00,0.0012
1751.00,0.0013
1750.00,0.0013
1749.00,0.0014
1748.00,0.0014
1747.00,0.0014
1746.00,0.0014
1745.00,0.0015
1744.00,0.0015
1743.00,0.0015
1742.00,0.0016
1741.00,0.0016
1740.00,0.0015
1739.00,0.0015
1738.00,0.0015
1737.00,0.0014
1736.00,0.0015
1735.00,0.0015
1734.00,0.0015
1733.00,0.0015
1732.00,0.0016
1731.00,0.0016
1730.00,0.0016
1729.00,0.0016
1728.00,0.0016
1727.00,0.0016
1726.00,0.0017
1725.00,0.0017
1724.00,0.0017
1723.00,0.0017
1722.00,0.0017
1721.00,0.0017
1720.00,0.0018
1719.00,0.0018
1718.00,0.0018
1717.00,0.0018
1716.00,0.0019
1715.00,0.0019
1714.00,0.0018
1713.00,0.0018
1712.00,0.0019
1711.00,0.0019
1710.00,0.0019
1709.00,0.0019
1708.00,0.0019
1707.00,0.0019
1706.00,0.0019
1705.00,0.0020
1704.00,0.0020
1703.00,0.0021
1702.00,0.0021
1701.00,0.0021
1700.00,0.0021
1699.00,0.0021
1698.00,0.0022
1697.00,0.0022
1696.00,0.0023
1695.00,0.0024
1694.00,0.0024
1693.00,0.0024
1692.00,0.0024
1691.00,0.0024
1690.00,0.0024
1689.00,0.0024
1688.00,0.0024
1687.00,0.0024
1686.00,0.0023
1685.00,0.0023
1684.00,0.0023
1683.00,0.0024
1682.00,0.0025
1681.00,0.0025
1680.00,0.0026
1679.00,0.0027
1678.00,0.0027
1677.00,0.0028
1676.00,0.0028
1675.00,0.0028
1674.00,0.0028
1673.00,0.0028
1672.00,0.0028
1671.00,0.0029
1670.00,0.0029
1669.00,0.0029
1668.00,0.0030
1667.00,0.0030
1666.00,0.0030
1665.00,0.0030
1664.00,0.0030
1663.00,0.0030
1662.00,0.0030
1661.00,0.0031
1660.00,0.0031
1659.00,0.0031
1658.00,0.0031
1657.00,0.0032
1656.00,0.0033
1655.00,0.0033
1654.00,0.0034
1653.00,0.0034
1652.00,0.0034
1651.00,0.0035
1650.00,0.0035
1649.00,0.0035
1648.00,0.0036
1647.00,0.0035
1646.00,0.0035
1645.00,0.0036
1644.00,0.0037
1643.00,0.0037
1642.00,0.0037
1641.00,0.0037
1640.00,0.0037
1639.00,0.0037
1638.00,0.0038
1637.00,0.0038
1636.00,0.0039
1635.00,0.0039
1634.00,0.0039
1633.00,0.0039
1632.00,0.0039
1631.00,0.0039
1630.00,0.0039
1629.00,0.0040
1628.00,0.0040
1627.00,0.0040
1626.00,0.0039
1625.00,0.0039
1624.00,0.0039
1623.00,0.0039
1622.00,0.0039
1621.00,0.0039
1620.00,0.0039
1619.00,0.0039
1618.00,0.0038
1617.00,0.0037
1616.00,0.0036
1615.00,0.0036
1614.00,0.0036
1613.00,0.0037
1612.00,0.0037
1611.00,0.0037
1610.00,0.0036
1609.00,0.0036
1608.00,0.0036
1607.00,0.0036
1606.00,0.0036
1605.00,0.0036
1604.00,0.0036
1603.00,0.0036
1602.00,0.0036
1601.00,0.0036
1600.00,0.0036
1599.00,0.0036
1598.00,0.0036
1597.00,0.0036
1596.00,0.0037
1595.00,0.0037
1594.00,0.0037
1593.00,0.0038
1592.00,0.0038
1591.00,0.0039
1590.00,0.0040
1589.00,0.0041
1588.00,0.0042
1587.00,0.0043
1586.00,0.0045
1585.00,0.0046
1584.00,0.0049
1583.00,0.0051
1582.00,0.0054
1581.00,0.0057
1580.00,0.0061
1579.00,0.0063
1578.00,0.0065
1577.00,0.0065
1576.00,0.0065
1575.00,0.0063
1574.00,0.0062
1573.00,0.0061
1572.00,0.0060
1571.00,0.0058
1570.00,0.0055
1569.00,0.0052
1568.00,0.0050
1567.00,0.0049
1566.00,0.0048
1565.00,0.0048
1564.00,0.0047
1563.00,0.0047
1562.00,0.0047
1561.00,0.0047
1560.00,0.0047
1559.00,0.0047
1558.00,0.0046
1557.00,0.0047
1556.00,0.0047
1555.00,0.0047
1554.00,0.0048
1553.00,0.0048
1552.00,0.0049
1551.00,0.0051
1550.00,0.0053
1549.00,0.0055
1548.00,0.0057
1547.00,0.0059
1546.00,0.0062
1545.00,0.0066
1544.00,0.0069
1543.00,0.0073
1542.00,0.0075
1541.00,0.0077
1540.00,0.0077
1539.00,0.0074
1538.00,0.0071
1537.00,0.0069
1536.00,0.0067
1535.00,0.0064
1534.00,0.0059
1533.00,0.0055
1532.00,0.0053
1531.00,0.0051
1530.00,0.0049
1529.00,0.0049
1528.00,0.0049
1527.00,0.0048
1526.00,0.0048
1525.00,0.0047
1524.00,0.0046
1523.00,0.0046
1522.00,0.0045
1521.00,0.0046
1520.00,0.0048
1519.00,0.0048
1518.00,0.0048
1517.00,0.0049
1516.00,0.0050
1515.00,0.0050
1514.00,0.0050
1513.00,0.0050
1512.00,0.0050
1511.00,0.0051
1510.00,0.0052
1509.00,0.0053
1508.00,0.0056
1507.00,0.0057
1506.00,0.0058
1505.00,0.0058
1504.00,0.0060
1503.00,0.0061
1502.00,0.0062
1501.00,0.0064
1500.00,0.0066
1499.00,0.0067
1498.00,0.0070
1497.00,0.0073
1496.00,0.0077
1495.00,0.0079
1494.00,0.0081
1493.00,0.0083
1492.00,0.0087
1491.00,0.0091
1490.00,0.0096
1489.00,0.0101
1488.00,0.0107
1487.00,0.0111
1486.00,0.0117
1485.00,0.0124
1484.00,0.0132
1483.00,0.0141
1482.00,0.0151
1481.00,0.0163
1480.00,0.0176
1479.00,0.0190
1478.00,0.0205
1477.00,0.0224
1476.00,0.0246
1475.00,0.0271
1474.00,0.0306
1473.00,0.0356
1472.00,0.0419
1471.00,0.0481
1470.00,0.0542
1469.00,0.0607
1468.00,0.0677
1467.00,0.0755
1466.00,0.0843
1465.00,0.0939
1464.00,0.1025
1463.00,0.1088
1462.00,0.1131
1461.00,0.1164
1460.00,0.1190
1459.00,0.1210
1458.00,0.1229
1457.00,0.1247
1456.00,0.1256
1455.00,0.1257
1454.00,0.1254
1453.00,0.1244
1452.00,0.1224
1451.00,0.1189
1450.00,0.1136
1449.00,0.1060
1448.00,0.0962
1447.00,0.0856
1446.00,0.0759
1445.00,0.0676
1444.00,0.0606
1443.00,0.0550
1442.00,0.0508
1441.00,0.0479
1440.00,0.0462
1439.00,0.0454
1438.00,0.0454
1437.00,0.0453
1436.00,0.0441
1435.00,0.0412
1434.00,0.0371
1433.00,0.0324
1432.00,0.0276
1431.00,0.0234
1430.00,0.0202
1429.00,0.0179
1428.00,0.0164
1427.00,0.0154
1426.00,0.0148
1425.00,0.0142
1424.00,0.0137
1423.00,0.0134
1422.00,0.0132
1421.00,0.0129
1420.00,0.0126
1419.00,0.0124
1418.00,0.0122
1417.00,0.0119
1416.00,0.0116
1415.00,0.0114
1414.00,0.0113
1413.00,0.0111
1412.00,0.0109
1411.00,0.0109
1410.00,0.0109
1409.00,0.0108
1408.00,0.0106
1407.00,0.0106
1406.00,0.0107
1405.00,0.0106
1404.00,0.0106
1403.00,0.0106
1402.00,0.0107
1401.00,0.0108
1400.00,0.0108
1399.00,0.0110
1398.00,0.0113
1397.00,0.0115
1396.00,0.0117
1395.00,0.0121
1394.00,0.0127
1393.00,0.0132
1392.00,0.0139
1391.00,0.0149
1390.00,0.0162
1389.00,0.0180
1388.00,0.0207
1387.00,0.0246
1386.00,0.0299
1385.00,0.0365
1384.00,0.0452
1383.00,0.0568
1382.00,0.0720
1381.00,0.0910
1380.00,0.1143
1379.00,0.1407
1378.00,0.1664
1377.00,0.1857
1376.00,0.1928
1375.00,0.1843
1374.00,0.1622
1373.00,0.1347
1372.00,0.1090
1371.00,0.0874
1370.00,0.0700
1369.00,0.0567
1368.00,0.0475
1367.00,0.0418
1366.00,0.0388
1365.00,0.0376
1364.00,0.0379
1363.00,0.0394
1362.00,0.0416
1361.00,0.0440
1360.00,0.0457
1359.00,0.0461
1358.00,0.0449
1357.00,0.0421
1356.00,0.0382
1355.00,0.0337
1354.00,0.0295
1353.00,0.0258
1352.00,0.0229
1351.00,0.0206
1350.00,0.0187
1349.00,0.0172
1348.00,0.0160
1347.00,0.0151
1346.00,0.0143
1345.00,0.0137
1344.00,0.0132
1343.00,0.0129
1342.00,0.0126
1341.00,0.0124
1340.00,0.0122
1339.00,0.0119
1338.00,0.0117
1337.00,0.0117
1336.00,0.0117
1335.00,0.0119
1334.00,0.0122
1333.00,0.0126
1332.00,0.0131
1331.00,0.0134
1330.00,0.0136
1329.00,0.0135
1328.00,0.0131
1327.00,0.0126
1326.00,0.0120
1325.00,0.0113
1324.00,0.0107
1323.00,0.0102
1322.00,0.0097
1321.00,0.0094
1320.00,0.0091
1319.00,0.0089
1318.00,0.0087
1317.00,0.0085
1316.00,0.0083
1315.00,0.0081
1314.00,0.0081
1313.00,0.0081
1312.00,0.0083
1311.00,0.0087
1310.00,0.0092
1309.00,0.0100
1308.00,0.0111
1307.00,0.0124
1306.00,0.0137
1305.00,0.0146
1304.00,0.0150
1303.00,0.0147
1302.00,0.0140
1301.00,0.0134
1300.00,0.0130
1299.00,0.0129
1298.00,0.0128
1297.00,0.0128
1296.00,0.0126
1295.00,0.0123
1294.00,0.0119
1293.00,0.0114
1292.00,0.0108
1291.00,0.0102
1290.00,0.0097
1289.00,0.0093
1288.00,0.0089
1287.00,0.0086
1286.00,0.0084
1285.00,0.0081
1284.00,0.0079
1283.00,0.0077
1282.00,0.0075
1281.00,0.0074
1280.00,0.0073
1279.00,0.0073
1278.00,0.0072
1277.00,0.0071
1276.00,0.0071
1275.00,0.0070
1274.00,0.0070
1273.00,0.0070
1272.00,0.0070
1271.00,0.0070
1270.00,0.0070
1269.00,0.0071
1268.00,0.0071
1267.00,0.0072
1266.00,0.0074
1265.00,0.0076
1264.00,0.0078
1263.00,0.0082
1262.00,0.0086
1261.00,0.0091
1260.00,0.0098
1259.00,0.0107
1258.00,0.0116
1257.00,0.0125
1256.00,0.0129
1255.00,0.0127
1254.00,0.0121
1253.00,0.0111
1252.00,0.0102
1251.00,0.0094
1250.00,0.0089
1249.00,0.0086
1248.00,0.0083
1247.00,0.0081
1246.00,0.0080
1245.00,0.0080
1244.00,0.0080
1243.00,0.0079
1242.00,0.0078
1241.00,0.0077
1240.00,0.0076
1239.00,0.0075
1238.00,0.0074
1237.00,0.0074
1236.00,0.0073
1235.00,0.0073
1234.00,0.0073
1233.00,0.0074
1232.00,0.0074
1231.00,0.0074
1230.00,0.0074
1229.00,0.0074
1228.00,0.0075
1227.00,0.0077
1226.00,0.0079
1225.00,0.0082
1224.00,0.0085
1223.00,0.0088
1222.00,0.0092
1221.00,0.0095
1220.00,0.0097
1219.00,0.0098
1218.00,0.0098
1217.00,0.0096
1216.00,0.0094
1215.00,0.0091
1214.00,0.0088
1213.00,0.0084
1212.00,0.0082
1211.00,0.0080
1210.00,0.0078
1209.00,0.0076
1208.00,0.0075
1207.00,0.0074
1206.00,0.0073
1205.00,0.0072
1204.00,0.0071
1203.00,0.0070
1202.00,0.0070
1201.00,0.0070
1200.00,0.0070
1199.00,0.0070
1198.00,0.0070
1197.00,0.0070
1196.00,0.0070
1195.00,0.0071
1194.00,0.0071
1193.00,0.0070
1192.00,0.0070
1191.00,0.0070
1190.00,0.0069
1189.00,0.0069
1188.00,0.0069
1187.00,0.0069
1186.00,0.0070
1185.00,0.0071
1184.00,0.0071
1183.00,0.0073
1182.00,0.0074
1181.00,0.0077
1180.00,0.0081
1179.00,0.0086
1178.00,0.0094
1177.00,0.0104
1176.00,0.0117
1175.00,0.0135
1174.00,0.0158
1173.00,0.0188
1172.00,0.0223
1171.00,0.0263
1170.00,0.0301
1169.00,0.0332
1168.00,0.0351
1167.00,0.0356
1166.00,0.0348
1165.00,0.0330
1164.00,0.0308
1163.00,0.0285
1162.00,0.0264
1161.00,0.0246
1160.00,0.0230
1159.00,0.0218
1158.00,0.0209
1157.00,0.0203
1156.00,0.0198
1155.00,0.0195
1154.00,0.0192
1153.00,0.0188
1152.00,0.0183
1151.00,0.0176
1150.00,0.0167
1149.00,0.0157
1148.00,0.0147
1147.00,0.0137
1146.00,0.0128
1145.00,0.0120
1144.00,0.0113
1143.00,0.0106
1142.00,0.0099
1141.00,0.0093
1140.00,0.0087
1139.00,0.0083
1138.00,0.0079
1137.00,0.0076
1136.00,0.0073
1135.00,0.0070
1134.00,0.0068
1133.00,0.0066
1132.00,0.0065
1131.00,0.0065
1130.00,0.0065
1129.00,0.0066
1128.00,0.0067
1127.00,0.0068
1126.00,0.0069
1125.00,0.0070
1124.00,0.0070
1123.00,0.0070
1122.00,0.0069
1121.00,0.0069
1120.00,0.0069
1119.00,0.0070
1118.00,0.0071
1117.00,0.0072
1116.00,0.0073
1115.00,0.0074
1114.00,0.0076
1113.00,0.0078
1112.00,0.0079
1111.00,0.0082
1110.00,0.0084
1109.00,0.0088
1108.00,0.0093
1107.00,0.0100
1106.00,0.0108
1105.00,0.0115
1104.00,0.0120
1103.00,0.0122
1102.00,0.0122
1101.00,0.0119
1100.00,0.0114
1099.00,0.0109
1098.00,0.0102
1097.00,0.0096
1096.00,0.0091
1095.00,0.0086
1094.00,0.0082
1093.00,0.0079
1092.00,0.0077
1091.00,0.0075
1090.00,0.0073
1089.00,0.0071
1088.00,0.0070
1087.00,0.0069
1086.00,0.0068
1085.00,0.0066
1084.00,0.0065
1083.00,0.0064
1082.00,0.0064
1081.00,0.0063
1080.00,0.0062
1079.00,0.0061
1078.00,0.0060
1077.00,0.0059
1076.00,0.0058
1075.00,0.0059
1074.00,0.0060
1073.00,0.0060
1072.00,0.0060
1071.00,0.0059
1070.00,0.0059
1069.00,0.0058
1068.00,0.0058
1067.00,0.0059
1066.00,0.0060
1065.00,0.0061
1064.00,0.0062
1063.00,0.0063
1062.00,0.0065
1061.00,0.0066
1060.00,0.0067
1059.00,0.0067
1058.00,0.0067
1057.00,0.0067
1056.00,0.0067
1055.00,0.0068
1054.00,0.0069
1053.00,0.0070
1052.00,0.0071
1051.00,0.0073
1050.00,0.0075
1049.00,0.0078
1048.00,0.0082
1047.00,0.0086
1046.00,0.0089
1045.00,0.0091
1044.00,0.0090
1043.00,0.0088
1042.00,0.0086
1041.00,0.0084
1040.00,0.0082
1039.00,0.0081
1038.00,0.0081
1037.00,0.0082
1036.00,0.0083
1035.00,0.0083
1034.00,0.0082
1033.00,0.0081
1032.00,0.0079
1031.00,0.0079
1030.00,0.0079
1029.00,0.0078
1028.00,0.0077
1027.00,0.0076
1026.00,0.0076
1025.00,0.0076
1024.00,0.0077
1023.00,0.0077
1022.00,0.0077
1021.00,0.0078
1020.00,0.0079
1019.00,0.0081
1018.00,0.0083
1017.00,0.0085
1016.00,0.0088
1015.00,0.0092
1014.00,0.0096
1013.00,0.0100
1012.00,0.0106
1011.00,0.0111
1010.00,0.0116
1009.00,0.0121
1008.00,0.0128
1007.00,0.0135
1006.00,0.0146
1005.00,0.0159
1004.00,0.0177
1003.00,0.0203
1002.00,0.0237
1001.00,0.0278
1000.00,0.0323
999.00,0.0361
998.00,0.0382
997.00,0.0376
996.00,0.0347
995.00,0.0302
994.00,0.0254
993.00,0.0212
992.00,0.0179
991.00,0.0155
990.00,0.0138
989.00,0.0127
988.00,0.0119
987.00,0.0114
986.00,0.0112
985.00,0.0114
984.00,0.0119
983.00,0.0128
982.00,0.0142
981.00,0.0160
980.00,0.0185
979.00,0.0216
978.00,0.0256
977.00,0.0305
976.00,0.0357
975.00,0.0409
974.00,0.0449
973.00,0.0466
972.00,0.0455
971.00,0.0414
970.00,0.0356
969.00,0.0294
968.00,0.0240
967.00,0.0198
966.00,0.0168
965.00,0.0145
964.00,0.0129
963.00,0.0118
962.00,0.0109
961.00,0.0102
960.00,0.0096
959.00,0.0090
958.00,0.0085
957.00,0.0080
956.00,0.0077
955.00,0.0075
954.00,0.0074
953.00,0.0073
952.00,0.0072
951.00,0.0072
950.00,0.0071
949.00,0.0071
948.00,0.0071
947.00,0.0071
946.00,0.0073
945.00,0.0076
944.00,0.0079
943.00,0.0083
942.00,0.0086
941.00,0.0087
940.00,0.0087
939.00,0.0085
938.00,0.0082
937.00,0.0078
936.00,0.0073
935.00,0.0069
934.00,0.0066
933.00,0.0063
932.00,0.0060
931.00,0.0059
930.00,0.0059
929.00,0.0059
928.00,0.0058
927.00,0.0058
926.00,0.0058
925.00,0.0059
924.00,0.0059
923.00,0.0060
922.00,0.0060
921.00,0.0061
920.00,0.0062
919.00,0.0064
918.00,0.0066
917.00,0.0067
916.00,0.0068
915.00,0.0068
914.00,0.0069
913.00,0.0069
912.00,0.0070
911.00,0.0070
910.00,0.0071
909.00,0.0072
908.00,0.0075
907.00,0.0079
906.00,0.0087
905.00,0.0097
904.00,0.0112
903.00,0.0129
902.00,0.0149
901.00,0.0168
900.00,0.0181
899.00,0.0184
898.00,0.0176
897.00,0.0161
896.00,0.0142
895.00,0.0124
894.00,0.0108
893.00,0.0096
892.00,0.0088
891.00,0.0081
890.00,0.0076
889.00,0.0072
888.00,0.0068
887.00,0.0067
886.00,0.0067
885.00,0.0068
884.00,0.0069
883.00,0.0069
882.00,0.0069
881.00,0.0068
880.00,0.0068
879.00,0.0067
878.00,0.0066
877.00,0.0066
876.00,0.0066
875.00,0.0067
874.00,0.0068
873.00,0.0070
872.00,0.0070
871.00,0.0070
870.00,0.0070
869.00,0.0070
868.00,0.0071
867.00,0.0071
866.00,0.0072
865.00,0.0073
864.00,0.0073
863.00,0.0074
862.00,0.0074
861.00,0.0076
860.00,0.0078
859.00,0.0080
858.00,0.0082
857.00,0.0085
856.00,0.0088
855.00,0.0090
854.00,0.0093
853.00,0.0095
852.00,0.0099
851.00,0.0103
850.00,0.0110
849.00,0.0118
848.00,0.0129
847.00,0.0147
846.00,0.0173
845.00,0.0213
844.00,0.0265
843.00,0.0322
842.00,0.0366
841.00,0.0378
840.00,0.0352
839.00,0.0302
838.00,0.0246
837.00,0.0202
836.00,0.0171
835.00,0.0152
834.00,0.0140
833.00,0.0132
832.00,0.0127
831.00,0.0122
830.00,0.0118
829.00,0.0114
828.00,0.0110
827.00,0.0108
826.00,0.0106
825.00,0.0105
824.00,0.0103
823.00,0.0102
822.00,0.0101
821.00,0.0102
820.00,0.0104
819.00,0.0108
818.00,0.0113
817.00,0.0119
816.00,0.0126
815.00,0.0135
814.00,0.0148
813.00,0.0164
812.00,0.0180
811.00,0.0195
810.00,0.0206
809.00,0.0210
808.00,0.0209
807.00,0.0201
806.00,0.0188
805.00,0.0173
804.00,0.0157
803.00,0.0142
802.00,0.0130
801.00,0.0120
800.00,0.0112
799.00,0.0106
798.00,0.0100
797.00,0.0095
796.00,0.0092
795.00,0.0089
794.00,0.0087
793.00,0.0084
792.00,0.0082
791.00,0.0080
790.00,0.0078
789.00,0.0077
788.00,0.0076
787.00,0.0074
786.00,0.0072
785.00,0.0070
784.00,0.0069
783.00,0.0067
782.00,0.0065
781.00,0.0063
780.00,0.0062
779.00,0.0060
778.00,0.0060
777.00,0.0061
776.00,0.0063
775.00,0.0065
774.00,0.0067
773.00,0.0068
772.00,0.0071
771.00,0.0074
770.00,0.0077
769.00,0.0080
768.00,0.0082
767.00,0.0083
766.00,0.0082
765.00,0.0079
764.00,0.0074
763.00,0.0069
762.00,0.0065
761.00,0.0063
760.00,0.0061
759.00,0.0059
758.00,0.0057
757.00,0.0055
756.00,0.0054
755.00,0.0052
754.00,0.0051
753.00,0.0050
752.00,0.0049
751.00,0.0049
750.00,0.0050
749.00,0.0051
748.00,0.0052
747.00,0.0053
746.00,0.0052
745.00,0.0052
744.00,0.0052
743.00,0.0052
742.00,0.0053
741.00,0.0053
740.00,0.0053
739.00,0.0053
738.00,0.0054
737.00,0.0055
736.00,0.0057
735.00,0.0059
734.00,0.0060
733.00,0.0061
732.00,0.0062
731.00,0.0062
730.00,0.0061
729.00,0.0060
728.00,0.0059
727.00,0.0059
726.00,0.0059
725.00,0.0059
724.00,0.0059
723.00,0.0059
722.00,0.0059
721.00,0.0059
720.00,0.0057
719.00,0.0055
718.00,0.0053
717.00,0.0051
716.00,0.0049
715.00,0.0048
714.00,0.0048
713.00,0.0048
712.00,0.0049
711.00,0.0050
710.00,0.0050
709.00,0.0049
708.00,0.0048
707.00,0.0048
706.00,0.0051
705.00,0.0054
704.00,0.0055
703.00,0.0054
702.00,0.0053
701.00,0.0052
700.00,0.0051
699.00,0.0049
698.00,0.0047
697.00,0.0045
696.00,0.0043
695.00,0.0043
694.00,0.0043
693.00,0.0044
692.00,0.0045
691.00,0.0047
690.00,0.0047
689.00,0.0047
688.00,0.0046
687.00,0.0046
686.00,0.0046
685.00,0.0046
684.00,0.0046
683.00,0.0047
682.00,0.0047
681.00,0.0047
680.00,0.0046
679.00,0.0047
678.00,0.0049
677.00,0.0050
676.00,0.0050
675.00,0.0050
674.00,0.0049
673.00,0.0048
672.00,0.0047
671.00,0.0047
670.00,0.0045
669.00,0.0043
668.00,0.0042
667.00,0.0043
666.00,0.0047
665.00,0.0050
664.00,0.0051
663.00,0.0051
662.00,0.0051
661.00,0.0051
660.00,0.0051
659.00,0.0049
658.00,0.0048
657.00,0.0048
656.00,0.0047
655.00,0.0047
654.00,0.0047
653.00,0.0047
652.00,0.0045
651.00,0.0043
650.00,0.0041
649.00,0.0041
648.00,0.0043
647.00,0.0044
646.00,0.0045
645.00,0.0046
644.00,0.0045
643.00,0.0045
642.00,0.0046
641.00,0.0048
640.00,0.0049
639.00,0.0050
638.00,0.0050
637.00,0.0050
636.00,0.0050
635.00,0.0050
634.00,0.0050
633.00,0.0050
632.00,0.0048
631.00,0.0046
630.00,0.0046
629.00,0.0047
628.00,0.0049
627.00,0.0051
626.00,0.0051
625.00,0.0049
624.00,0.0047
623.00,0.0047
622.00,0.0049
621.00,0.0051
620.00,0.0052
619.00,0.0050
618.00,0.0049
617.00,0.0048
616.00,0.0048
615.00,0.0048
614.00,0.0047
613.00,0.0048
612.00,0.0050
611.00,0.0053
610.00,0.0054
609.00,0.0051
608.00,0.0047
607.00,0.0043
606.00,0.0042
605.00,0.0043
604.00,0.0046
603.00,0.0048
602.00,0.0050
601.00,0.0051
600.00,0.0051
599.00,0.0051
598.00,0.0052
597.00,0.0052
596.00,0.0051
595.00,0.0050
594.00,0.0048
593.00,0.0047
592.00,0.0047
591.00,0.0046
590.00,0.0046
589.00,0.0047
588.00,0.0049
587.00,0.0051
586.00,0.0053
585.00,0.0054
584.00,0.0054
583.00,0.0055
582.00,0.0055
581.00,0.0053
580.00,0.0051
579.00,0.0048
578.00,0.0048
577.00,0.0050
576.00,0.0053
575.00,0.0056
574.00,0.0057
573.00,0.0056
572.00,0.0056
571.00,0.0055
570.00,0.0054
569.00,0.0052
568.00,0.0049
567.00,0.0048
566.00,0.0048
565.00,0.0048
564.00,0.0048
563.00,0.0050
562.00,0.0051
561.00,0.0052
560.00,0.0052
559.00,0.0052
558.00,0.0053
557.00,0.0054
556.00,0.0053
555.00,0.0051
554.00,0.0049
553.00,0.0050
552.00,0.0053
551.00,0.0056
550.00,0.0058
549.00,0.0060
548.00,0.0063
547.00,0.0067
546.00,0.0068
545.00,0.0065
544.00,0.0060
543.00,0.0055
542.00,0.0053
541.00,0.0054
540.00,0.0057
539.00,0.0059
538.00,0.0062
537.00,0.0065
536.00,0.0068
535.00,0.0072
534.00,0.0076
533.00,0.0078
532.00,0.0078
531.00,0.0076
530.00,0.0075
529.00,0.0076
528.00,0.0079
527.00,0.0082
526.00,0.0085
525.00,0.0084
524.00,0.0082
523.00,0.0079
522.00,0.0076
521.00,0.0071
520.00,0.0064
519.00,0.0057
518.00,0.0057
517.00,0.0061
516.00,0.0066
515.00,0.0067
514.00,0.0065
513.00,0.0063
512.00,0.0064
511.00,0.0068
510.00,0.0071
509.00,0.0071
508.00,0.0067
507.00,0.0062
506.00,0.0058
505.00,0.0059
504.00,0.0062
503.00,0.0064
502.00,0.0064
501.00,0.0063
500.00,0.0062
499.00,0.0061
498.00,0.0059
497.00,0.0058
496.00,0.0059
495.00,0.0062
494.00,0.0065
493.00,0.0067
492.00,0.0065
491.00,0.0062
490.00,0.0061
489.00,0.0063
488.00,0.0065
487.00,0.0064
486.00,0.0059
485.00,0.0052
484.00,0.0047
483.00,0.0044
482.00,0.0043
481.00,0.0043
480.00,0.0045
479.00,0.0051
478.00,0.0057
477.00,0.0059
476.00,0.0057
475.00,0.0054
474.00,0.0054
473.00,0.0059
472.00,0.0070
471.00,0.0085
470.00,0.0098
469.00,0.0104
468.00,0.0103
467.00,0.0100
466.00,0.0104
465.00,0.0115
464.00,0.0128
463.00,0.0139
462.00,0.0144
461.00,0.0147
460.00,0.0149
459.00,0.0152
458.00,0.0154
457.00,0.0153
456.00,0.0151
455.00,0.0153
454.00,0.0160
453.00,0.0162
452.00,0.0152
451.00,0.0126
450.00,0.0096
