Created as New Dataset,Sample 051 By Administrator Date Friday, September 05 2025
cm-1,A
4000.00,0.0009
3999.00,0.0008
3998.00,0.0008
3997.00,0.0008
3996.00,0.0008
3995.00,0.0008
3994.00,0.0008
3993.00,0.0008
3992.00,0.0008
3991.00,0.0008
3990.00,0.0009
3989.00,0.0009
3988.00,0.0009
3987.00,0.0008
3986.00,0.0008
3985.00,0.0008
3984.00,0.0007
3983.00,0.0007
3982.00,0.0007
3981.00,0.0006
3980.00,0.0006
3979.00,0.0006
3978.00,0.0006
3977.00,0.0006
3976.00,0.0006
3975.00,0.0006
3974.00,0.0006
3973.00,0.0007
3972.00,0.0007
3971.00,0.0007
3970.00,0.0007
3969.00,0.0007
3968.00,0.0007
3967.00,0.0007
3966.00,0.0007
3965.00,0.0007
3964.00,0.0006
3963.00,0.0006
3962.00,0.0006
3961.00,0.0006
3960.00,0.0006
3959.00,0.0006
3958.00,0.0006
3957.00,0.0006
3956.00,0.0006
3955.00,0.0006
3954.00,0.0006
3953.00,0.0006
3952.00,0.0006
3951.00,0.0006
3950.00,0.0006
3949.00,0.0006
3948.00,0.0006
3947.00,0.0006
3946.00,0.0006
3945.00,0.0006
3944.00,0.0007
3943.00,0.0007
3942.00,0.0007
3941.00,0.0007
3940.00,0.0007
3939.00,0.0007
3938.00,0.0007
3937.00,0.0007
3936.00,0.0007
3935.00,0.0007
3934.00,0.0006
3933.00,0.0006
3932.00,0.0007
3931.00,0.0007
3930.00,0.0006
3929.00,0.0006
3928.00,0.0006
3927.00,0.0007
3926.00,0.0007
3925.00,0.0007
3924.00,0.0007
3923.00,0.0007
3922.00,0.0007
3921.00,0.0007
3920.00,0.0007
3919.00,0.0007
3918.00,0.0007
3917.00,0.0007
3916.00,0.0007
3915.00,0.0007
3914.00,0.0007
3913.00,0.0006
3912.00,0.0006
3911.00,0.0006
3910.00,0.0006
3909.00,0.0006
3908.00,0.0006
3907.00,0.0007
3906.00,0.0006
3905.00,0.0006
3904.00,0.0006
3903.00,0.0006
3902.00,0.0006
3901.00,0.0006
3900.00,0.0006
3899.00,0.0006
3898.00,0.0006
3897.00,0.0006
3896.00,0.0006
3895.00,0.0006
3894.00,0.0006
3893.00,0.0006
3892.00,0.0006
3891.00,0.0006
3890.00,0.0006
3889.00,0.0006
3888.00,0.0006
3887.00,0.0006
3886.00,0.0006
3885.00,0.0006
3884.00,0.0006
3883.00,0.0006
3882.00,0.0006
3881.00,0.0006
3880.00,0.0006
3879.00,0.0006
3878.00,0.0007
3877.00,0.0007
3876.00,0.0007
3875.00,0.0006
3874.00,0.0006
3873.00,0.0006
3872.00,0.0006
3871.00,0.0006
3870.00,0.0006
3869.00,0.0005
3868.00,0.0005
3867.00,0.0004
3866.00,0.0004
3865.00,0.0004
3864.00,0.0004
3863.00,0.0005
3862.00,0.0005
3861.00,0.0005
3860.00,0.0005
3859.00,0.0005
3858.00,0.0005
3857.00,0.0005
3856.00,0.0005
3855.00,0.0005
3854.00,0.0005
3853.00,0.0005
3852.00,0.0005
3851.00,0.0005
3850.00,0.0005
3849.00,0.0005
3848.00,0.0005
3847.00,0.0005
3846.00,0.0005
3845.00,0.0006
3844.00,0.0006
3843.00,0.0006
3842.00,0.0006
3841.00,0.0006
3840.00,0.0006
3839.00,0.0006
3838.00,0.0005
3837.00,0.0005
3836.00,0.0005
3835.00,0.0005
3834.00,0.0005
3833.00,0.0005
3832.00,0.0005
3831.00,0.0005
3830.00,0.0005
3829.00,0.0005
3828.00,0.0006
3827.00,0.0006
3826.00,0.0006
3825.00,0.0006
3824.00,0.0005
3823.00,0.0005
3822.00,0.0005
3821.00,0.0005
3820.00,0.0005
3819.00,0.0005
3818.00,0.0005
3817.00,0.0005
3816.00,0.0005
3815.00,0.0006
3814.00,0.0006
3813.00,0.0007
3812.00,0.0007
3811.00,0.0006
3810.00,0.0006
3809.00,0.0006
3808.00,0.0006
3807.00,0.0006
3806.00,0.0006
3805.00,0.0006
3804.00,0.0006
3803.00,0.0006
3802.00,0.0006
3801.00,0.0006
3800.00,0.0006
3799.00,0.0006
3798.00,0.0006
3797.00,0.0006
3796.00,0.0005
3795.00,0.0005
3794.00,0.0005
3793.00,0.0005
3792.00,0.0005
3791.00,0.0005
3790.00,0.0006
3789.00,0.0006
3788.00,0.0006
3787.00,0.0006
3786.00,0.0006
3785.00,0.0006
3784.00,0.0006
3783.00,0.0006
3782.00,0.0006
3781.00,0.0005
3780.00,0.0005
3779.00,0.0005
3778.00,0.0006
3777.00,0.0006
3776.00,0.0006
3775.00,0.0006
3774.00,0.0006
3773.00,0.0007
3772.00,0.0007
3771.00,0.0007
3770.00,0.0007
3769.00,0.0007
3768.00,0.0007
3767.00,0.0007
3766.00,0.0007
3765.00,0.0007
3764.00,0.0007
3763.00,0.0007
3762.00,0.0007
3761.00,0.0006
3760.00,0.0006
3759.00,0.0006
3758.00,0.0006
3757.00,0.0006
3756.00,0.0006
3755.00,0.0006
3754.00,0.0006
3753.00,0.0006
3752.00,0.0006
3751.00,0.0005
3750.00,0.0005
3749.00,0.0005
3748.00,0.0005
3747.00,0.0005
3746.00,0.0005
3745.00,0.0005
3744.00,0.0005
3743.00,0.0005
3742.00,0.0006
3741.00,0.0006
3740.00,0.0006
3739.00,0.0006
3738.00,0.0006
3737.00,0.0006
3736.00,0.0006
3735.00,0.0006
3734.00,0.0006
3733.00,0.0005
3732.00,0.0005
3731.00,0.0005
3730.00,0.0005
3729.00,0.0005
3728.00,0.0004
3727.00,0.0004
3726.00,0.0005
3725.00,0.0005
3724.00,0.0006
3723.00,0.0006
3722.00,0.0005
3721.00,0.0005
3720.00,0.0005
3719.00,0.0005
3718.00,0.0005
3717.00,0.0005
3716.00,0.0005
3715.00,0.0005
3714.00,0.0005
3713.00,0.0005
3712.00,0.0005
3711.00,0.0005
3710.00,0.0005
3709.00,0.0005
3708.00,0.0005
3707.00,0.0004
3706.00,0.0004
3705.00,0.0004
3704.00,0.0004
3703.00,0.0005
3702.00,0.0005
3701.00,0.0006
3700.00,0.0006
3699.00,0.0006
3698.00,0.0006
3697.00,0.0005
3696.00,0.0005
3695.00,0.0004
3694.00,0.0004
3693.00,0.0003
3692.00,0.0003
3691.00,0.0003
3690.00,0.0003
3689.00,0.0003
3688.00,0.0003
3687.00,0.0003
3686.00,0.0003
3685.00,0.0003
3684.00,0.0002
3683.00,0.0002
3682.00,0.0002
3681.00,0.0003
3680.00,0.0003
3679.00,0.0003
3678.00,0.0003
3677.00,0.0003
3676.00,0.0003
3675.00,0.0003
3674.00,0.0003
3673.00,0.0003
3672.00,0.0002
3671.00,0.0002
3670.00,0.0001
3669.00,0.0001
3668.00,0.0002
3667.00,0.0002
3666.00,0.0002
3665.00,0.0001
3664.00,0.0001
3663.00,0.0001
3662.00,0.0001
3661.00,0.0001
3660.00,0.0001
3659.00,0.0001
3658.00,0.0001
3657.00,0.0001
3656.00,0.0001
3655.00,0.0001
3654.00,0.0001
3653.00,0.0002
3652.00,0.0002
3651.00,0.0002
3650.00,0.0001
3649.00,0.0001
3648.00,0.0001
3647.00,0.0001
3646.00,0.0001
3645.00,0.0001
3644.00,0.0001
3643.00,0.0002
3642.00,0.0002
3641.00,0.0003
3640.00,0.0003
3639.00,0.0004
3638.00,0.0004
3637.00,0.0004
3636.00,0.0005
3635.00,0.0005
3634.00,0.0004
3633.00,0.0004
3632.00,0.0003
3631.00,0.0003
3630.00,0.0003
3629.00,0.0003
3628.00,0.0004
3627.00,0.0004
3626.00,0.0004
3625.00,0.0004
3624.00,0.0004
3623.00,0.0004
3622.00,0.0003
3621.00,0.0003
3620.00,0.0002
3619.00,0.0002
3618.00,0.0002
3617.00,0.0003
3616.00,0.0003
3615.00,0.0004
3614.00,0.0004
3613.00,0.0005
3612.00,0.0005
3611.00,0.0005
3610.00,0.0004
3609.00,0.0004
3608.00,0.0004
3607.00,0.0004
3606.00,0.0004
3605.00,0.0004
3604.00,0.0004
3603.00,0.0004
3602.00,0.0004
3601.00,0.0004
3600.00,0.0004
3599.00,0.0005
3598.00,0.0005
3597.00,0.0005
3596.00,0.0005
3595.00,0.0005
3594.00,0.0005
3593.00,0.0005
3592.00,0.0005
3591.00,0.0005
3590.00,0.0005
3589.00,0.0005
3588.00,0.0005
3587.00,0.0005
3586.00,0.0005
3585.00,0.0005
3584.00,0.0005
3583.00,0.0005
3582.00,0.0005
3581.00,0.0005
3580.00,0.0005
3579.00,0.0006
3578.00,0.0006
3577.00,0.0006
3576.00,0.0007
3575.00,0.0007
3574.00,0.0007
3573.00,0.0007
3572.00,0.0007
3571.00,0.0007
3570.00,0.0007
3569.00,0.0007
3568.00,0.0007
3567.00,0.0007
3566.00,0.0007
3565.00,0.0007
3564.00,0.0007
3563.00,0.0007
3562.00,0.0007
3561.00,0.0008
3560.00,0.0008
3559.00,0.0008
3558.00,0.0008
3557.00,0.0008
3556.00,0.0008
3555.00,0.0009
3554.00,0.0009
3553.00,0.0008
3552.00,0.0008
3551.00,0.0008
3550.00,0.0008
3549.00,0.0009
3548.00,0.0009
3547.00,0.0009
3546.00,0.0010
3545.00,0.0010
3544.00,0.0010
3543.00,0.0011
3542.00,0.0011
3541.00,0.0011
3540.00,0.0011
3539.00,0.0010
3538.00,0.0010
3537.00,0.0010
3536.00,0.0010
3535.00,0.0011
3534.00,0.0011
3533.00,0.0011
3532.00,0.0011
3531.00,0.0011
3530.00,0.0011
3529.00,0.0011
3528.00,0.0011
3527.00,0.0011
3526.00,0.0012
3525.00,0.0012
3524.00,0.0012
3523.00,0.0012
3522.00,0.0012
3521.00,0.0012
3520.00,0.0012
3519.00,0.0012
3518.00,0.0012
3517.00,0.0012
3516.00,0.0012
3515.00,0.0012
3514.00,0.0013
3513.00,0.0013
3512.00,0.0013
3511.00,0.0013
3510.00,0.0013
3509.00,0.0013
3508.00,0.0013
3507.00,0.0013
3506.00,0.0013
3505.00,0.0014
3504.00,0.0014
3503.00,0.0014
3502.00,0.0014
3501.00,0.0014
3500.00,0.0014
3499.00,0.0014
3498.00,0.0014
3497.00,0.0014
3496.00,0.0014
3495.00,0.0014
3494.00,0.0014
3493.00,0.0014
3492.00,0.0014
3491.00,0.0014
3490.00,0.0014
3489.00,0.0014
3488.00,0.0014
3487.00,0.0015
3486.00,0.0015
3485.00,0.0015
3484.00,0.0015
3483.00,0.0015
3482.00,0.0015
3481.00,0.0016
3480.00,0.0016
3479.00,0.0016
3478.00,0.0016
3477.00,0.0016
3476.00,0.0015
3475.00,0.0015
3474.00,0.0015
3473.00,0.0016
3472.00,0.0016
3471.00,0.0016
3470.00,0.0017
3469.00,0.0017
3468.00,0.0017
3467.00,0.0017
3466.00,0.0017
3465.00,0.0017
3464.00,0.0017
3463.00,0.0017
3462.00,0.0017
3461.00,0.0017
3460.00,0.0017
3459.00,0.0017
3458.00,0.0018
3457.00,0.0018
3456.00,0.0018
3455.00,0.0018
3454.00,0.0019
3453.00,0.0019
3452.00,0.0019
3451.00,0.0019
3450.00,0.0019
3449.00,0.0019
3448.00,0.0019
3447.00,0.0019
3446.00,0.0019
3445.00,0.0019
3444.00,0.0019
3443.00,0.0019
3442.00,0.0018
3441.00,0.0018
3440.00,0.0018
3439.00,0.0019
3438.00,0.0019
3437.00,0.0020
3436.00,0.0020
3435.00,0.0020
3434.00,0.0021
3433.00,0.0021
3432.00,0.0021
3431.00,0.0021
3430.00,0.0020
3429.00,0.0020
3428.00,0.0021
3427.00,0.0021
3426.00,0.0021
3425.00,0.0021
3424.00,0.0021
3423.00,0.0021
3422.00,0.0021
3421.00,0.0021
3420.00,0.0021
3419.00,0.0021
3418.00,0.0021
3417.00,0.0021
3416.00,0.0021
3415.00,0.0021
3414.00,0.0022
3413.00,0.0022
3412.00,0.0022
3411.00,0.0023
3410.00,0.0023
3409.00,0.0022
3408.00,0.0022
3407.00,0.0022
3406.00,0.0022
3405.00,0.0022
3404.00,0.0022
3403.00,0.0022
3402.00,0.0023
3401.00,0.0023
3400.00,0.0023
3399.00,0.0023
3398.00,0.0023
3397.00,0.0022
3396.00,0.0022
3395.00,0.0022
3394.00,0.0022
3393.00,0.0022
3392.00,0.0023
3391.00,0.0023
3390.00,0.0023
3389.00,0.0023
3388.00,0.0023
3387.00,0.0023
3386.00,0.0023
3385.00,0.0023
3384.00,0.0024
3383.00,0.0024
3382.00,0.0023
3381.00,0.0023
3380.00,0.0023
3379.00,0.0024
3378.00,0.0024
3377.00,0.0024
3376.00,0.0024
3375.00,0.0024
3374.00,0.0024
3373.00,0.0024
3372.00,0.0023
3371.00,0.0023
3370.00,0.0023
3369.00,0.0023
3368.00,0.0023
3367.00,0.0023
3366.00,0.0024
3365.00,0.0024
3364.00,0.0025
3363.00,0.0025
3362.00,0.0025
3361.00,0.0025
3360.00,0.0025
3359.00,0.0025
3358.00,0.0025
3357.00,0.0025
3356.00,0.0025
3355.00,0.0024
3354.00,0.0024
3353.00,0.0024
3352.00,0.0025
3351.00,0.0025
3350.00,0.0025
3349.00,0.0025
3348.00,0.0025
3347.00,0.0025
3346.00,0.0025
3345.00,0.0025
3344.00,0.0025
3343.00,0.0024
3342.00,0.0024
3341.00,0.0024
3340.00,0.0024
3339.00,0.0024
3338.00,0.0024
3337.00,0.0025
3336.00,0.0025
3335.00,0.0025
3334.00,0.0025
3333.00,0.0025
3332.00,0.0025
3331.00,0.0025
3330.00,0.0025
3329.00,0.0025
3328.00,0.0024
3327.00,0.0024
3326.00,0.0024
3325.00,0.0024
3324.00,0.0024
3323.00,0.0023
3322.00,0.0023
3321.00,0.0023
3320.00,0.0023
3319.00,0.0023
3318.00,0.0024
3317.00,0.0024
3316.00,0.0024
3315.00,0.0024
3314.00,0.0024
3313.00,0.0024
3312.00,0.0023
3311.00,0.0024
3310.00,0.0024
3309.00,0.0024
3308.00,0.0024
3307.00,0.0024
3306.00,0.0024
3305.00,0.0024
3304.00,0.0024
3303.00,0.0024
3302.00,0.0024
3301.00,0.0024
3300.00,0.0024
3299.00,0.0024
3298.00,0.0024
3297.00,0.0024
3296.00,0.0024
3295.00,0.0024
3294.00,0.0024
3293.00,0.0024
3292.00,0.0024
3291.00,0.0024
3290.00,0.0024
3289.00,0.0024
3288.00,0.0024
3287.00,0.0024
3286.00,0.0024
3285.00,0.0024
3284.00,0.0024
3283.00,0.0024
3282.00,0.0023
3281.00,0.0023
3280.00,0.0023
3279.00,0.0023
3278.00,0.0023
3277.00,0.0023
3276.00,0.0023
3275.00,0.0024
3274.00,0.0024
3273.00,0.0024
3272.00,0.0023
3271.00,0.0022
3270.00,0.0022
3269.00,0.0022
3268.00,0.0022
3267.00,0.0022
3266.00,0.0022
3265.00,0.0022
3264.00,0.0022
3263.00,0.0022
3262.00,0.0022
3261.00,0.0022
3260.00,0.0022
3259.00,0.0023
3258.00,0.0023
3257.00,0.0023
3256.00,0.0023
3255.00,0.0023
3254.00,0.0023
3253.00,0.0022
3252.00,0.0022
3251.00,0.0021
3250.00,0.0021
3249.00,0.0021
3248.00,0.0021
3247.00,0.0021
3246.00,0.0021
3245.00,0.0022
3244.00,0.0022
3243.00,0.0022
3242.00,0.0022
3241.00,0.0022
3240.00,0.0022
3239.00,0.0022
3238.00,0.0022
3237.00,0.0022
3236.00,0.0023
3235.00,0.0023
3234.00,0.0023
3233.00,0.0023
3232.00,0.0023
3231.00,0.0023
3230.00,0.0023
3229.00,0.0023
3228.00,0.0024
3227.00,0.0024
3226.00,0.0024
3225.00,0.0024
3224.00,0.0024
3223.00,0.0024
3222.00,0.0025
3221.00,0.0025
3220.00,0.0026
3219.00,0.0026
3218.00,0.0026
3217.00,0.0026
3216.00,0.0026
3215.00,0.0026
3214.00,0.0026
3213.00,0.0027
3212.00,0.0027
3211.00,0.0028
3210.00,0.0028
3209.00,0.0028
3208.00,0.0028
3207.00,0.0028
3206.00,0.0028
3205.00,0.0028
3204.00,0.0028
3203.00,0.0028
3202.00,0.0027
3201.00,0.0028
3200.00,0.0028
3199.00,0.0029
3198.00,0.0029
3197.00,0.0029
3196.00,0.0029
3195.00,0.0029
3194.00,0.0029
3193.00,0.0029
3192.00,0.0029
3191.00,0.0028
3190.00,0.0028
3189.00,0.0028
3188.00,0.0028
3187.00,0.0028
3186.00,0.0028
3185.00,0.0027
3184.00,0.0027
3183.00,0.0027
3182.00,0.0026
3181.00,0.0026
3180.00,0.0025
3179.00,0.0025
3178.00,0.0025
3177.00,0.0025
3176.00,0.0025
3175.00,0.0025
3174.00,0.0025
3173.00,0.0025
3172.00,0.0025
3171.00,0.0025
3170.00,0.0025
3169.00,0.0024
3168.00,0.0024
3167.00,0.0024
3166.00,0.0025
3165.00,0.0025
3164.00,0.0025
3163.00,0.0025
3162.00,0.0025
3161.00,0.0025
3160.00,0.0026
3159.00,0.0026
3158.00,0.0026
3157.00,0.0026
3156.00,0.0026
3155.00,0.0026
3154.00,0.0026
3153.00,0.0026
3152.00,0.0026
3151.00,0.0026
3150.00,0.0026
3149.00,0.0026
3148.00,0.0026
3147.00,0.0026
3146.00,0.0026
3145.00,0.0026
3144.00,0.0026
3143.00,0.0026
3142.00,0.0026
3141.00,0.0026
3140.00,0.0025
3139.00,0.0025
3138.00,0.0025
3137.00,0.0025
3136.00,0.0024
3135.00,0.0024
3134.00,0.0024
3133.00,0.0024
3132.00,0.0023
3131.00,0.0023
3130.00,0.0023
3129.00,0.0023
3128.00,0.0023
3127.00,0.0023
3126.00,0.0022
3125.00,0.0022
3124.00,0.0022
3123.00,0.0021
3122.00,0.0021
3121.00,0.0021
3120.00,0.0022
3119.00,0.0022
3118.00,0.0021
3117.00,0.0021
3116.00,0.0021
3115.00,0.0021
3114.00,0.0021
3113.00,0.0021
3112.00,0.0021
3111.00,0.0021
3110.00,0.0021
3109.00,0.0021
3108.00,0.0022
3107.00,0.0022
3106.00,0.0022
3105.00,0.0022
3104.00,0.0022
3103.00,0.0021
3102.00,0.0021
3101.00,0.0021
3100.00,0.0021
3099.00,0.0021
3098.00,0.0022
3097.00,0.0022
3096.00,0.0022
3095.00,0.0022
3094.00,0.0021
3093.00,0.0021
3092.00,0.0021
3091.00,0.0021
3090.00,0.0021
3089.00,0.0021
3088.00,0.0021
3087.00,0.0021
3086.00,0.0021
3085.00,0.0021
3084.00,0.0021
3083.00,0.0021
3082.00,0.0021
3081.00,0.0021
3080.00,0.0021
3079.00,0.0021
3078.00,0.0021
3077.00,0.0021
3076.00,0.0020
3075.00,0.0021
3074.00,0.0021
3073.00,0.0021
3072.00,0.0022
3071.00,0.0022
3070.00,0.0022
3069.00,0.0022
3068.00,0.0022
3067.00,0.0022
3066.00,0.0022
3065.00,0.0023
3064.00,0.0023
3063.00,0.0023
3062.00,0.0023
3061.00,0.0024
3060.00,0.0024
3059.00,0.0024
3058.00,0.0024
3057.00,0.0024
3056.00,0.0024
3055.00,0.0025
3054.00,0.0025
3053.00,0.0025
3052.00,0.0025
3051.00,0.0025
3050.00,0.0025
3049.00,0.0025
3048.00,0.0026
3047.00,0.0026
3046.00,0.0026
3045.00,0.0027
3044.00,0.0027
3043.00,0.0027
3042.00,0.0028
3041.00,0.0028
3040.00,0.0028
3039.00,0.0028
3038.00,0.0029
3037.00,0.0029
3036.00,0.0029
3035.00,0.0029
3034.00,0.0029
3033.00,0.0030
3032.00,0.0030
3031.00,0.0031
3030.00,0.0031
3029.00,0.0032
3028.00,0.0032
3027.00,0.0033
3026.00,0.0034
3025.00,0.0035
3024.00,0.0035
3023.00,0.0036
3022.00,0.0037
3021.00,0.0038
3020.00,0.0038
3019.00,0.0039
3018.00,0.0040
3017.00,0.0040
3016.00,0.0041
3015.00,0.0042
3014.00,0.0043
3013.00,0.0044
3012.00,0.0045
3011.00,0.0047
3010.00,0.0048
3009.00,0.0049
3008.00,0.0050
3007.00,0.0051
3006.00,0.0052
3005.00,0.0054
3004.00,0.0056
3003.00,0.0058
3002.00,0.0060
3001.00,0.0063
3000.00,0.0065
2999.00,0.0068
2998.00,0.0071
2997.00,0.0074
2996.00,0.0078
2995.00,0.0082
2994.00,0.0086
2993.00,0.0091
2992.00,0.0096
2991.00,0.0101
2990.00,0.0108
2989.00,0.0116
2988.00,0.0124
2987.00,0.0133
2986.00,0.0142
2985.00,0.0153
2984.00,0.0164
2983.00,0.0177
2982.00,0.0193
2981.00,0.0211
2980.00,0.0231
2979.00,0.0255
2978.00,0.0282
2977.00,0.0313
2976.00,0.0347
2975.00,0.0385
2974.00,0.0429
2973.00,0.0478
2972.00,0.0534
2971.00,0.0597
2970.00,0.0667
2969.00,0.0744
2968.00,0.0827
2967.00,0.0915
2966.00,0.1006
2965.00,0.1099
2964.00,0.1189
2963.00,0.1273
2962.00,0.1347
2961.00,0.1408
2960.00,0.1459
2959.00,0.1502
2958.00,0.1543
2957.00,0.1588
2956.00,0.1642
2955.00,0.1707
2954.00,0.1784
2953.00,0.1867
2952.00,0.1946
2951.00,0.2009
2950.00,0.2043
2949.00,0.2038
2948.00,0.1988
2947.00,0.1894
2946.00,0.1768
2945.00,0.1623
2944.00,0.1479
2943.00,0.1348
2942.00,0.1241
2941.00,0.1162
2940.00,0.1111
2939.00,0.1086
2938.00,0.1085
2937.00,0.1104
2936.00,0.1142
2935.00,0.1197
2934.00,0.1268
2933.00,0.1352
2932.00,0.1448
2931.00,0.1555
2930.00,0.1668
2929.00,0.1785
2928.00,0.1902
2927.00,0.2017
2926.00,0.2127
2925.00,0.2233
2924.00,0.2335
2923.00,0.2437
2922.00,0.2537
2921.00,0.2634
2920.00,0.2723
2919.00,0.2793
2918.00,0.2835
2917.00,0.2840
2916.00,0.2805
2915.00,0.2735
2914.00,0.2638
2913.00,0.2526
2912.00,0.2412
2911.00,0.2303
2910.00,0.2202
2909.00,0.2110
2908.00,0.2025
2907.00,0.1944
2906.00,0.1865
2905.00,0.1787
2904.00,0.1709
2903.00,0.1631
2902.00,0.1555
2901.00,0.1482
2900.00,0.1412
2899.00,0.1346
2898.00,0.1285
2897.00,0.1229
2896.00,0.1181
2895.00,0.1140
2894.00,0.1107
2893.00,0.1082
2892.00,0.1065
2891.00,0.1054
2890.00,0.1050
2889.00,0.1051
2888.00,0.1056
2887.00,0.1064
2886.00,0.1076
2885.00,0.1093
2884.00,0.1114
2883.00,0.1141
2882.00,0.1173
2881.00,0.1207
2880.00,0.1242
2879.00,0.1272
2878.00,0.1292
2877.00,0.1300
2876.00,0.1298
2875.00,0.1289
2874.00,0.1279
2873.00,0.1274
2872.00,0.1278
2871.00,0.1291
2870.00,0.1312
2869.00,0.1333
2868.00,0.1349
2867.00,0.1348
2866.00,0.1321
2865.00,0.1265
2864.00,0.1182
2863.00,0.1081
2862.00,0.0974
2861.00,0.0873
2860.00,0.0785
2859.00,0.0713
2858.00,0.0658
2857.00,0.0618
2856.00,0.0591
2855.00,0.0576
2854.00,0.0569
2853.00,0.0572
2852.00,0.0581
2851.00,0.0598
2850.00,0.0622
2849.00,0.0652
2848.00,0.0690
2847.00,0.0735
2846.00,0.0789
2845.00,0.0852
2844.00,0.0922
2843.00,0.1000
2842.00,0.1079
2841.00,0.1155
2840.00,0.1218
2839.00,0.1260
2838.00,0.1272
2837.00,0.1247
2836.00,0.1186
2835.00,0.1096
2834.00,0.0986
2833.00,0.0869
2832.00,0.0758
2831.00,0.0659
2830.00,0.0575
2829.00,0.0506
2828.00,0.0450
2827.00,0.0405
2826.00,0.0369
2825.00,0.0340
2824.00,0.0315
2823.00,0.0294
2822.00,0.0276
2821.00,0.0261
2820.00,0.0247
2819.00,0.0236
2818.00,0.0226
2817.00,0.0217
2816.00,0.0209
2815.00,0.0203
2814.00,0.0197
2813.00,0.0192
2812.00,0.0186
2811.00,0.0181
2810.00,0.0175
2809.00,0.0169
2808.00,0.0162
2807.00,0.0156
2806.00,0.0149
2805.00,0.0142
2804.00,0.0135
2803.00,0.0129
2802.00,0.0124
2801.00,0.0120
2800.00,0.0116
2799.00,0.0113
2798.00,0.0110
2797.00,0.0107
2796.00,0.0105
2795.00,0.0102
2794.00,0.0099
2793.00,0.0096
2792.00,0.0093
2791.00,0.0089
2790.00,0.0086
2789.00,0.0083
2788.00,0.0080
2787.00,0.0077
2786.00,0.0075
2785.00,0.0072
2784.00,0.0070
2783.00,0.0069
2782.00,0.0067
2781.00,0.0065
2780.00,0.0063
2779.00,0.0062
2778.00,0.0060
2777.00,0.0059
2776.00,0.0058
2775.00,0.0057
2774.00,0.0056
2773.00,0.0055
2772.00,0.0054
2771.00,0.0054
2770.00,0.0053
2769.00,0.0053
2768.00,0.0053
2767.00,0.0052
2766.00,0.0052
2765.00,0.0052
2764.00,0.0052
2763.00,0.0051
2762.00,0.0051
2761.00,0.0051
2760.00,0.0051
2759.00,0.0051
2758.00,0.0051
2757.00,0.0050
2756.00,0.0050
2755.00,0.0050
2754.00,0.0050
2753.00,0.0049
2752.00,0.0049
2751.00,0.0049
2750.00,0.0049
2749.00,0.0049
2748.00,0.0049
2747.00,0.0050
2746.00,0.0050
2745.00,0.0051
2744.00,0.0052
2743.00,0.0052
2742.00,0.0053
2741.00,0.0055
2740.00,0.0056
2739.00,0.0058
2738.00,0.0059
2737.00,0.0061
2736.00,0.0063
2735.00,0.0064
2734.00,0.0066
2733.00,0.0067
2732.00,0.0069
2731.00,0.0071
2730.00,0.0074
2729.00,0.0077
2728.00,0.0080
2727.00,0.0083
2726.00,0.0086
2725.00,0.0089
2724.00,0.0090
2723.00,0.0091
2722.00,0.0090
2721.00,0.0088
2720.00,0.0085
2719.00,0.0081
2718.00,0.0077
2717.00,0.0074
2716.00,0.0070
2715.00,0.0067
2714.00,0.0064
2713.00,0.0061
2712.00,0.0059
2711.00,0.0057
2710.00,0.0055
2709.00,0.0054
2708.00,0.0053
2707.00,0.0052
2706.00,0.0050
2705.00,0.0049
2704.00,0.0047
2703.00,0.0046
2702.00,0.0045
2701.00,0.0044
2700.00,0.0044
2699.00,0.0044
2698.00,0.0043
2697.00,0.0043
2696.00,0.0043
2695.00,0.0042
2694.00,0.0042
2693.00,0.0042
2692.00,0.0042
2691.00,0.0042
2690.00,0.0042
2689.00,0.0042
2688.00,0.0043
2687.00,0.0043
2686.00,0.0043
2685.00,0.0043
2684.00,0.0043
2683.00,0.0043
2682.00,0.0043
2681.00,0.0043
2680.00,0.0043
2679.00,0.0043
2678.00,0.0043
2677.00,0.0043
2676.00,0.0043
2675.00,0.0043
2674.00,0.0043
2673.00,0.0043
2672.00,0.0042
2671.00,0.0042
2670.00,0.0042
2669.00,0.0042
2668.00,0.0043
2667.00,0.0043
2666.00,0.0043
2665.00,0.0044
2664.00,0.0044
2663.00,0.0045
2662.00,0.0045
2661.00,0.0046
2660.00,0.0046
2659.00,0.0046
2658.00,0.0046
2657.00,0.0046
2656.00,0.0046
2655.00,0.0045
2654.00,0.0045
2653.00,0.0044
2652.00,0.0044
2651.00,0.0044
2650.00,0.0043
2649.00,0.0042
2648.00,0.0042
2647.00,0.0041
2646.00,0.0041
2645.00,0.0041
2644.00,0.0041
2643.00,0.0040
2642.00,0.0040
2641.00,0.0040
2640.00,0.0039
2639.00,0.0038
2638.00,0.0037
2637.00,0.0037
2636.00,0.0036
2635.00,0.0036
2634.00,0.0036
2633.00,0.0036
2632.00,0.0037
2631.00,0.0037
2630.00,0.0037
2629.00,0.0038
2628.00,0.0038
2627.00,0.0038
2626.00,0.0038
2625.00,0.0038
2624.00,0.0038
2623.00,0.0039
2622.00,0.0039
2621.00,0.0039
2620.00,0.0040
2619.00,0.0040
2618.00,0.0040
2617.00,0.0040
2616.00,0.0040
2615.00,0.0039
2614.00,0.0039
2613.00,0.0039
2612.00,0.0038
2611.00,0.0038
2610.00,0.0037
2609.00,0.0036
2608.00,0.0035
2607.00,0.0034
2606.00,0.0033
2605.00,0.0033
2604.00,0.0032
2603.00,0.0031
2602.00,0.0031
2601.00,0.0031
2600.00,0.0031
2599.00,0.0031
2598.00,0.0031
2597.00,0.0031
2596.00,0.0031
2595.00,0.0032
2594.00,0.0032
2593.00,0.0033
2592.00,0.0033
2591.00,0.0034
2590.00,0.0034
2589.00,0.0035
2588.00,0.0036
2587.00,0.0037
2586.00,0.0038
2585.00,0.0038
2584.00,0.0039
2583.00,0.0039
2582.00,0.0039
2581.00,0.0039
2580.00,0.0038
2579.00,0.0038
2578.00,0.0037
2577.00,0.0035
2576.00,0.0034
2575.00,0.0033
2574.00,0.0031
2573.00,0.0031
2572.00,0.0030
2571.00,0.0030
2570.00,0.0030
2569.00,0.0029
2568.00,0.0029
2567.00,0.0028
2566.00,0.0027
2565.00,0.0026
2564.00,0.0025
2563.00,0.0024
2562.00,0.0023
2561.00,0.0022
2560.00,0.0022
2559.00,0.0021
2558.00,0.0021
2557.00,0.0021
2556.00,0.0021
2555.00,0.0021
2554.00,0.0021
2553.00,0.0021
2552.00,0.0020
2551.00,0.0020
2550.00,0.0020
2549.00,0.0019
2548.00,0.0018
2547.00,0.0018
2546.00,0.0017
2545.00,0.0017
2544.00,0.0017
2543.00,0.0017
2542.00,0.0016
2541.00,0.0016
2540.00,0.0016
2539.00,0.0016
2538.00,0.0016
2537.00,0.0015
2536.00,0.0015
2535.00,0.0014
2534.00,0.0014
2533.00,0.0014
2532.00,0.0014
2531.00,0.0014
2530.00,0.0014
2529.00,0.0014
2528.00,0.0015
2527.00,0.0014
2526.00,0.0014
2525.00,0.0013
2524.00,0.0012
2523.00,0.0012
2522.00,0.0011
2521.00,0.0011
2520.00,0.0011
2519.00,0.0011
2518.00,0.0011
2517.00,0.0011
2516.00,0.0011
2515.00,0.0011
2514.00,0.0011
2513.00,0.0011
2512.00,0.0010
2511.00,0.0010
2510.00,0.0010
2509.00,0.0010
2508.00,0.0010
2507.00,0.0010
2506.00,0.0010
2505.00,0.0010
2504.00,0.0010
2503.00,0.0010
2502.00,0.0009
2501.00,0.0009
2500.00,0.0008
2499.00,0.0009
2498.00,0.0009
2497.00,0.0010
2496.00,0.0011
2495.00,0.0011
2494.00,0.0011
2493.00,0.0010
2492.00,0.0010
2491.00,0.0010
2490.00,0.0010
2489.00,0.0009
2488.00,0.0009
2487.00,0.0009
2486.00,0.0008
2485.00,0.0008
2484.00,0.0008
2483.00,0.0008
2482.00,0.0008
2481.00,0.0008
2480.00,0.0008
2479.00,0.0008
2478.00,0.0008
2477.00,0.0008
2476.00,0.0008
2475.00,0.0008
2474.00,0.0008
2473.00,0.0008
2472.00,0.0008
2471.00,0.0008
2470.00,0.0007
2469.00,0.0007
2468.00,0.0007
2467.00,0.0008
2466.00,0.0009
2465.00,0.0010
2464.00,0.0010
2463.00,0.0009
2462.00,0.0009
2461.00,0.0009
2460.00,0.0010
2459.00,0.0010
2458.00,0.0010
2457.00,0.0011
2456.00,0.0011
2455.00,0.0011
2454.00,0.0011
2453.00,0.0011
2452.00,0.0010
2451.00,0.0010
2450.00,0.0009
2449.00,0.0008
2448.00,0.0008
2447.00,0.0009
2446.00,0.0009
2445.00,0.0010
2444.00,0.0010
2443.00,0.0009
2442.00,0.0009
2441.00,0.0009
2440.00,0.0009
2439.00,0.0010
2438.00,0.0010
2437.00,0.0010
2436.00,0.0011
2435.00,0.0011
2434.00,0.0011
2433.00,0.0011
2432.00,0.0011
2431.00,0.0011
2430.00,0.0011
2429.00,0.0011
2428.00,0.0011
2427.00,0.0011
2426.00,0.0011
2425.00,0.0011
2424.00,0.0011
2423.00,0.0010
2422.00,0.0009
2421.00,0.0009
2420.00,0.0008
2419.00,0.0009
2418.00,0.0009
2417.00,0.0010
2416.00,0.0010
2415.00,0.0010
2414.00,0.0009
2413.00,0.0009
2412.00,0.0008
2411.00,0.0008
2410.00,0.0008
2409.00,0.0009
2408.00,0.0008
2407.00,0.0008
2406.00,0.0008
2405.00,0.0007
2404.00,0.0007
2403.00,0.0006
2402.00,0.0006
2401.00,0.0006
2400.00,0.0006
2399.00,0.0007
2398.00,0.0007
2397.00,0.0008
2396.00,0.0008
2395.00,0.0008
2394.00,0.0008
2393.00,0.0007
2392.00,0.0007
2391.00,0.0007
2390.00,0.0008
2389.00,0.0007
2388.00,0.0007
2387.00,0.0007
2386.00,0.0007
2385.00,0.0007
2384.00,0.0006
2383.00,0.0005
2382.00,0.0005
2381.00,0.0004
2380.00,0.0004
2379.00,0.0004
2378.00,0.0004
2377.00,0.0004
2376.00,0.0005
2375.00,0.0004
2374.00,0.0005
2373.00,0.0005
2372.00,0.0005
2371.00,0.0005
2370.00,0.0004
2369.00,0.0003
2368.00,0.0002
2367.00,0.0001
2366.00,0.0002
2365.00,0.0003
2364.00,0.0003
2363.00,0.0004
2362.00,0.0004
2361.00,0.0004
2360.00,0.0004
2359.00,0.0005
2358.00,0.0005
2357.00,0.0005
2356.00,0.0005
2355.00,0.0005
2354.00,0.0004
2353.00,0.0004
2352.00,0.0004
2351.00,0.0004
2350.00,0.0004
2349.00,0.0004
2348.00,0.0005
2347.00,0.0005
2346.00,0.0006
2345.00,0.0006
2344.00,0.0006
2343.00,0.0006
2342.00,0.0006
2341.00,0.0007
2340.00,0.0008
2339.00,0.0008
2338.00,0.0007
2337.00,0.0007
2336.00,0.0006
2335.00,0.0006
2334.00,0.0006
2333.00,0.0006
2332.00,0.0005
2331.00,0.0004
2330.00,0.0004
2329.00,0.0005
2328.00,0.0008
2327.00,0.0012
2326.00,0.0017
2325.00,0.0020
2324.00,0.0022
2323.00,0.0021
2322.00,0.0018
2321.00,0.0016
2320.00,0.0014
2319.00,0.0013
2318.00,0.0012
2317.00,0.0012
2316.00,0.0011
2315.00,0.0011
2314.00,0.0011
2313.00,0.0010
2312.00,0.0010
2311.00,0.0009
2310.00,0.0009
2309.00,0.0009
2308.00,0.0010
2307.00,0.0010
2306.00,0.0011
2305.00,0.0011
2304.00,0.0011
2303.00,0.0011
2302.00,0.0011
2301.00,0.0012
2300.00,0.0012
2299.00,0.0013
2298.00,0.0013
2297.00,0.0013
2296.00,0.0013
2295.00,0.0014
2294.00,0.0015
2293.00,0.0016
2292.00,0.0017
2291.00,0.0017
2290.00,0.0017
2289.00,0.0018
2288.00,0.0019
2287.00,0.0019
2286.00,0.0019
2285.00,0.0018
2284.00,0.0017
2283.00,0.0016
2282.00,0.0015
2281.00,0.0015
2280.00,0.0014
2279.00,0.0013
2278.00,0.0013
2277.00,0.0014
2276.00,0.0014
2275.00,0.0014
2274.00,0.0014
2273.00,0.0014
2272.00,0.0014
2271.00,0.0014
2270.00,0.0014
2269.00,0.0014
2268.00,0.0013
2267.00,0.0012
2266.00,0.0011
2265.00,0.0010
2264.00,0.0010
2263.00,0.0010
2262.00,0.0011
2261.00,0.0012
2260.00,0.0013
2259.00,0.0013
2258.00,0.0014
2257.00,0.0015
2256.00,0.0014
2255.00,0.0012
2254.00,0.0010
2253.00,0.0008
2252.00,0.0007
2251.00,0.0007
2250.00,0.0007
2249.00,0.0007
2248.00,0.0007
2247.00,0.0007
2246.00,0.0007
2245.00,0.0007
2244.00,0.0007
2243.00,0.0007
2242.00,0.0007
2241.00,0.0008
2240.00,0.0009
2239.00,0.0009
2238.00,0.0009
2237.00,0.0009
2236.00,0.0010
2235.00,0.0010
2234.00,0.0010
2233.00,0.0009
2232.00,0.0009
2231.00,0.0008
2230.00,0.0008
2229.00,0.0008
2228.00,0.0008
2227.00,0.0008
2226.00,0.0008
2225.00,0.0008
2224.00,0.0008
2223.00,0.0007
2222.00,0.0006
2221.00,0.0006
2220.00,0.0007
2219.00,0.0009
2218.00,0.0010
2217.00,0.0011
2216.00,0.0010
2215.00,0.0009
2214.00,0.0007
2213.00,0.0006
2212.00,0.0006
2211.00,0.0006
2210.00,0.0006
2209.00,0.0005
2208.00,0.0004
2207.00,0.0004
2206.00,0.0005
2205.00,0.0007
2204.00,0.0010
2203.00,0.0012
2202.00,0.0011
2201.00,0.0009
2200.00,0.0006
2199.00,0.0004
2198.00,0.0004
2197.00,0.0007
2196.00,0.0010
2195.00,0.0012
2194.00,0.0013
2193.00,0.0012
2192.00,0.0012
2191.00,0.0011
2190.00,0.0012
2189.00,0.0012
2188.00,0.0011
2187.00,0.0011
2186.00,0.0010
2185.00,0.0009
2184.00,0.0007
2183.00,0.0005
2182.00,0.0002
2181.00,0.0000
2180.00,-0.0000
2179.00,0.0001
2178.00,0.0004
2177.00,0.0006
2176.00,0.0006
2175.00,0.0005
2174.00,0.0003
2173.00,0.0003
2172.00,0.0003
2171.00,0.0005
2170.00,0.0007
2169.00,0.0010
2168.00,0.0011
2167.00,0.0012
2166.00,0.0011
2165.00,0.0012
2164.00,0.0015
2163.00,0.0020
2162.00,0.0024
2161.00,0.0021
2160.00,0.0009
2159.00,-0.0007
2158.00,-0.0020
2157.00,-0.0025
2156.00,-0.0024
2155.00,-0.0021
2154.00,-0.0019
2153.00,-0.0016
2152.00,-0.0014
2151.00,-0.0014
2150.00,-0.0014
2149.00,-0.0015
2148.00,-0.0017
2147.00,-0.0019
2146.00,-0.0020
2145.00,-0.0019
2144.00,-0.0017
2143.00,-0.0016
2142.00,-0.0015
2141.00,-0.0016
2140.00,-0.0016
2139.00,-0.0017
2138.00,-0.0018
2137.00,-0.0018
2136.00,-0.0019
2135.00,-0.0022
2134.00,-0.0023
2133.00,-0.0024
2132.00,-0.0022
2131.00,-0.0019
2130.00,-0.0017
2129.00,-0.0014
2128.00,-0.0011
2127.00,-0.0009
2126.00,-0.0008
2125.00,-0.0006
2124.00,-0.0005
2123.00,-0.0004
2122.00,-0.0004
2121.00,-0.0003
2120.00,-0.0002
2119.00,-0.0002
2118.00,-0.0001
2117.00,-0.0001
2116.00,-0.0000
2115.00,0.0000
2114.00,0.0000
2113.00,0.0001
2112.00,0.0001
2111.00,0.0001
2110.00,0.0001
2109.00,0.0000
2108.00,-0.0002
2107.00,-0.0003
2106.00,-0.0004
2105.00,-0.0003
2104.00,-0.0001
2103.00,0.0002
2102.00,0.0004
2101.00,0.0005
2100.00,0.0004
2099.00,0.0001
2098.00,-0.0001
2097.00,-0.0004
2096.00,-0.0005
2095.00,-0.0007
2094.00,-0.0008
2093.00,-0.0008
2092.00,-0.0007
2091.00,-0.0005
2090.00,-0.0003
2089.00,-0.0001
2088.00,0.0000
2087.00,0.0002
2086.00,0.0003
2085.00,0.0003
2084.00,0.0003
2083.00,0.0002
2082.00,0.0002
2081.00,0.0002
2080.00,0.0003
2079.00,0.0003
2078.00,0.0003
2077.00,0.0002
2076.00,0.0001
2075.00,0.0000
2074.00,0.0001
2073.00,0.0002
2072.00,0.0004
2071.00,0.0005
2070.00,0.0004
2069.00,0.0003
2068.00,0.0002
2067.00,0.0001
2066.00,-0.0000
2065.00,-0.0002
2064.00,-0.0003
2063.00,-0.0004
2062.00,-0.0004
2061.00,-0.0003
2060.00,-0.0002
2059.00,-0.0002
2058.00,-0.0001
2057.00,0.0001
2056.00,0.0001
2055.00,0.0001
2054.00,0.0001
2053.00,0.0003
2052.00,0.0007
2051.00,0.0009
2050.00,0.0009
2049.00,0.0006
2048.00,0.0003
2047.00,-0.0000
2046.00,-0.0003
2045.00,-0.0003
2044.00,-0.0002
2043.00,-0.0000
2042.00,0.0000
2041.00,0.0001
2040.00,0.0003
2039.00,0.0006
2038.00,0.0008
2037.00,0.0007
2036.00,0.0005
2035.00,0.0001
2034.00,-0.0003
2033.00,-0.0004
2032.00,-0.0004
2031.00,-0.0004
2030.00,-0.0006
2029.00,-0.0009
2028.00,-0.0012
2027.00,-0.0014
2026.00,-0.0016
2025.00,-0.0017
2024.00,-0.0016
2023.00,-0.0015
2022.00,-0.0014
2021.00,-0.0013
2020.00,-0.0011
2019.00,-0.0009
2018.00,-0.0008
2017.00,-0.0007
2016.00,-0.0006
2015.00,-0.0006
2014.00,-0.0008
2013.00,-0.0010
2012.00,-0.0011
2011.00,-0.0012
2010.00,-0.0014
2009.00,-0.0015
2008.00,-0.0018
2007.00,-0.0020
2006.00,-0.0020
2005.00,-0.0018
2004.00,-0.0014
2003.00,-0.0013
2002.00,-0.0012
2001.00,-0.0012
2000.00,-0.0013
1999.00,-0.0013
1998.00,-0.0013
1997.00,-0.0012
1996.00,-0.0012
1995.00,-0.0012
1994.00,-0.0013
1993.00,-0.0013
1992.00,-0.0012
1991.00,-0.0010
1990.00,-0.0006
1989.00,-0.0004
1988.00,-0.0004
1987.00,-0.0007
1986.00,-0.0010
1985.00,-0.0010
1984.00,-0.0007
1983.00,-0.0002
1982.00,0.0002
1981.00,0.0004
1980.00,0.0005
1979.00,0.0002
1978.00,-0.0003
1977.00,-0.0009
1976.00,-0.0014
1975.00,-0.0017
1974.00,-0.0019
1973.00,-0.0019
1972.00,-0.0017
1971.00,-0.0015
1970.00,-0.0013
1969.00,-0.0011
1968.00,-0.0010
1967.00,-0.0010
1966.00,-0.0009
1965.00,-0.0009
1964.00,-0.0009
1963.00,-0.0010
1962.00,-0.0012
1961.00,-0.0015
1960.00,-0.0018
1959.00,-0.0021
1958.00,-0.0021
1957.00,-0.0020
1956.00,-0.0019
1955.00,-0.0018
1954.00,-0.0019
1953.00,-0.0020
1952.00,-0.0020
1951.00,-0.0020
1950.00,-0.0019
1949.00,-0.0017
1948.00,-0.0016
1947.00,-0.0016
1946.00,-0.0017
1945.00,-0.0018
1944.00,-0.0020
1943.00,-0.0021
1942.00,-0.0019
1941.00,-0.0016
1940.00,-0.0012
1939.00,-0.0010
1938.00,-0.0010
1937.00,-0.0010
1936.00,-0.0010
1935.00,-0.0010
1934.00,-0.0009
1933.00,-0.0010
1932.00,-0.0010
1931.00,-0.0011
1930.00,-0.0012
1929.00,-0.0011
1928.00,-0.0010
1927.00,-0.0010
1926.00,-0.0010
1925.00,-0.0010
1924.00,-0.0010
1923.00,-0.0010
1922.00,-0.0009
1921.00,-0.0008
1920.00,-0.0007
1919.00,-0.0006
1918.00,-0.0004
1917.00,-0.0002
1916.00,-0.0002
1915.00,-0.0003
1914.00,-0.0004
1913.00,-0.0006
1912.00,-0.0008
1911.00,-0.0008
1910.00,-0.0008
1909.00,-0.0007
1908.00,-0.0006
1907.00,-0.0006
1906.00,-0.0004
1905.00,-0.0003
1904.00,-0.0002
1903.00,-0.0003
1902.00,-0.0003
1901.00,-0.0003
1900.00,-0.0003
1899.00,-0.0002
1898.00,-0.0001
1897.00,0.0000
1896.00,0.0001
1895.00,0.0001
1894.00,-0.0001
1893.00,-0.0002
1892.00,-0.0002
1891.00,-0.0002
1890.00,-0.0002
1889.00,-0.0002
1888.00,-0.0002
1887.00,-0.0003
1886.00,-0.0003
1885.00,-0.0004
1884.00,-0.0004
1883.00,-0.0004
1882.00,-0.0004
1881.00,-0.0003
1880.00,-0.0003
1879.00,-0.0003
1878.00,-0.0003
1877.00,-0.0003
1876.00,-0.0002
1875.00,-0.0003
1874.00,-0.0003
1873.00,-0.0003
1872.00,-0.0003
1871.00,-0.0003
1870.00,-0.0003
1869.00,-0.0002
1868.00,-0.0002
1867.00,-0.0003
1866.00,-0.0004
1865.00,-0.0004
1864.00,-0.0004
1863.00,-0.0004
1862.00,-0.0003
1861.00,-0.0002
1860.00,-0.0001
1859.00,-0.0001
1858.00,-0.0002
1857.00,-0.0002
1856.00,-0.0002
1855.00,-0.0001
1854.00,-0.0001
1853.00,-0.0000
1852.00,-0.0000
1851.00,-0.0001
1850.00,-0.0001
1849.00,-0.0001
1848.00,-0.0001
1847.00,-0.0001
1846.00,-0.0001
1845.00,-0.0000
1844.00,0.0000
1843.00,0.0000
1842.00,0.0000
1841.00,-0.0000
1840.00,-0.0000
1839.00,0.0000
1838.00,0.0001
1837.00,0.0002
1836.00,0.0002
1835.00,0.0002
1834.00,0.0002
1833.00,0.0002
1832.00,0.0003
1831.00,0.0003
1830.00,0.0002
1829.00,0.0002
1828.00,0.0002
1827.00,0.0001
1826.00,0.0001
1825.00,0.0001
1824.00,0.0002
1823.00,0.0002
1822.00,0.0002
1821.00,0.0003
1820.00,0.0002
1819.00,0.0001
1818.00,-0.0001
1817.00,-0.0002
1816.00,-0.0002
1815.00,-0.0001
1814.00,-0.0000
1813.00,0.0001
1812.00,0.0002
1811.00,0.0002
1810.00,0.0002
1809.00,0.0002
1808.00,0.0002
1807.00,0.0002
1806.00,0.0002
1805.00,0.0002
1804.00,0.0002
1803.00,0.0002
1802.00,0.0002
1801.00,0.0003
1800.00,0.0003
1799.00,0.0004
1798.00,0.0004
1797.00,0.0004
1796.00,0.0004
1795.00,0.0005
1794.00,0.0005
1793.00,0.0004
1792.00,0.0004
1791.00,0.0004
1790.00,0.0004
1789.00,0.0004
1788.00,0.0005
1787.00,0.0005
1786.00,0.0005
1785.00,0.0006
1784.00,0.0006
1783.00,0.0006
1782.00,0.0006
1781.00,0.0006
1780.00,0.0006
1779.00,0.0006
1778.00,0.0006
1777.00,0.0007
1776.00,0.0007
1775.00,0.0007
1774.00,0.0007
1773.00,0.0007
1772.00,0.0007
1771.00,0.0008
1770.00,0.0008
1769.00,0.0008
1768.00,0.0008
1767.00,0.0008
1766.00,0.0008
1765.00,0.0008
1764.00,0.0008
1763.00,0.0009
1762.00,0.0009
1761.00,0.0009
1760.00,0.0008
1759.00,0.0008
1758.00,0.0008
1757.00,0.0009
1756.00,0.0010
1755.00,0.0011
1754.00,0.0011
1753.00,0.0012
1752.00,0.0012
1751.00,0.0012
1750.00,0.0012
1749.00,0.0013
1748.00,0.0013
1747.00,0.0014
1746.00,0.0014
1745.00,0.0014
1744.00,0.0015
1743.00,0.0015
1742.00,0.0015
1741.00,0.0015
1740.00,0.0015
1739.00,0.0015
1738.00,0.0014
1737.00,0.0014
1736.00,0.0014
1735.00,0.0014
1734.00,0.0014
1733.00,0.0015
1732.00,0.0015
1731.00,0.0015
1730.00,0.0015
1729.00,0.0016
1728.00,0.0016
1727.00,0.0016
1726.00,0.0017
1725.00,0.0017
1724.00,0.0017
1723.00,0.0016
1722.00,0.0016
1721.00,0.0016
1720.00,0.0016
1719.00,0.0017
1718.00,0.0017
1717.00,0.0018
1716.00,0.0018
1715.00,0.0018
1714.00,0.0017
1713.00,0.0017
1712.00,0.0018
1711.00,0.0018
1710.00,0.0018
1709.00,0.0019
1708.00,0.0019
1707.00,0.0019
1706.00,0.0019
1705.00,0.0020
1704.00,0.0020
1703.00,0.0021
1702.00,0.0021
1701.00,0.0022
1700.00,0.0022
1699.00,0.0022
1698.00,0.0022
1697.00,0.0022
1696.00,0.0023
1695.00,0.0023
1694.00,0.0023
1693.00,0.0023
1692.00,0.0024
1691.00,0.0024
1690.00,0.0024
1689.00,0.0024
1688.00,0.0025
1687.00,0.0025
1686.00,0.0025
1685.00,0.0025
1684.00,0.0025
1683.00,0.0025
1682.00,0.0025
1681.00,0.0025
1680.00,0.0025
1679.00,0.0025
1678.00,0.0026
1677.00,0.0026
1676.00,0.0026
1675.00,0.0027
1674.00,0.0027
1673.00,0.0027
1672.00,0.0027
1671.00,0.0027
1670.00,0.0028
1669.00,0.0028
1668.00,0.0029
1667.00,0.0029
1666.00,0.0029
1665.00,0.0029
1664.00,0.0030
1663.00,0.0030
1662.00,0.0030
1661.00,0.0030
1660.00,0.0030
1659.00,0.0031
1658.00,0.0031
1657.00,0.0032
1656.00,0.0032
1655.00,0.0033
1654.00,0.0033
1653.00,0.0034
1652.00,0.0035
1651.00,0.0035
1650.00,0.0035
1649.00,0.0036
1648.00,0.0036
1647.00,0.0035
1646.00,0.0034
1645.00,0.0034
1644.00,0.0035
1643.00,0.0035
1642.00,0.0035
1641.00,0.0035
1640.00,0.0035
1639.00,0.0035
1638.00,0.0036
1637.00,0.0037
1636.00,0.0037
1635.00,0.0037
1634.00,0.0037
1633.00,0.0037
1632.00,0.0038
1631.00,0.0038
1630.00,0.0039
1629.00,0.0039
1628.00,0.0039
1627.00,0.0039
1626.00,0.0038
1625.00,0.0038
1624.00,0.0038
1623.00,0.0037
1622.00,0.0037
1621.00,0.0038
1620.00,0.0038
1619.00,0.0038
1618.00,0.0037
1617.00,0.0037
1616.00,0.0036
1615.00,0.0036
1614.00,0.0035
1613.00,0.0036
1612.00,0.0036
1611.00,0.0036
1610.00,0.0036
1609.00,0.0036
1608.00,0.0036
1607.00,0.0036
1606.00,0.0036
1605.00,0.0036
1604.00,0.0036
1603.00,0.0037
1602.00,0.0037
1601.00,0.0037
1600.00,0.0037
1599.00,0.0037
1598.00,0.0037
1597.00,0.0037
1596.00,0.0038
1595.00,0.0038
1594.00,0.0038
1593.00,0.0038
1592.00,0.0038
1591.00,0.0039
1590.00,0.0039
1589.00,0.0040
1588.00,0.0041
1587.00,0.0042
1586.00,0.0043
1585.00,0.0045
1584.00,0.0047
1583.00,0.0049
1582.00,0.0051
1581.00,0.0053
1580.00,0.0056
1579.00,0.0058
1578.00,0.0060
1577.00,0.0061
1576.00,0.0061
1575.00,0.0059
1574.00,0.0058
1573.00,0.0057
1572.00,0.0055
1571.00,0.0053
1570.00,0.0051
1569.00,0.0049
1568.00,0.0047
1567.00,0.0047
1566.00,0.0046
1565.00,0.0045
1564.00,0.0045
1563.00,0.0044
1562.00,0.0044
1561.00,0.0045
1560.00,0.0045
1559.00,0.0044
1558.00,0.0044
1557.00,0.0045
1556.00,0.0045
1555.00,0.0046
1554.00,0.0046
1553.00,0.0046
1552.00,0.0047
1551.00,0.0048
1550.00,0.0049
1549.00,0.0051
1548.00,0.0054
1547.00,0.0056
1546.00,0.0058
1545.00,0.0061
1544.00,0.0064
1543.00,0.0067
1542.00,0.0069
1541.00,0.0071
1540.00,0.0070
1539.00,0.0068
1538.00,0.0065
1537.00,0.0063
1536.00,0.0061
1535.00,0.0058
1534.00,0.0055
1533.00,0.0052
1532.00,0.0050
1531.00,0.0049
1530.00,0.0048
1529.00,0.0048
1528.00,0.0048
1527.00,0.0048
1526.00,0.0047
1525.00,0.0047
1524.00,0.0047
1523.00,0.0046
1522.00,0.0046
1521.00,0.0047
1520.00,0.0048
1519.00,0.0048
1518.00,0.0048
1517.00,0.0049
1516.00,0.0050
1515.00,0.0050
1514.00,0.0051
1513.00,0.0051
1512.00,0.0052
1511.00,0.0053
1510.00,0.0054
1509.00,0.0056
1508.00,0.0058
1507.00,0.0060
1506.00,0.0060
1505.00,0.0061
1504.00,0.0062
1503.00,0.0062
1502.00,0.0063
1501.00,0.0065
1500.00,0.0067
1499.00,0.0069
1498.00,0.0072
1497.00,0.0075
1496.00,0.0078
1495.00,0.0080
1494.00,0.0082
1493.00,0.0084
1492.00,0.0088
1491.00,0.0091
1490.00,0.0095
1489.00,0.0100
1488.00,0.0106
1487.00,0.0111
1486.00,0.0117
1485.00,0.0123
1484.00,0.0131
1483.00,0.0139
1482.00,0.0149
1481.00,0.0161
1480.00,0.0174
1479.00,0.0187
1478.00,0.0202
1477.00,0.0221
1476.00,0.0245
1475.00,0.0271
1474.00,0.0306
1473.00,0.0359
1472.00,0.0423
1471.00,0.0488
1470.00,0.0551
1469.00,0.0619
1468.00,0.0693
1467.00,0.0774
1466.00,0.0868
1465.00,0.0969
1464.00,0.1060
1463.00,0.1125
1462.00,0.1170
1461.00,0.1202
1460.00,0.1225
1459.00,0.1241
1458.00,0.1254
1457.00,0.1264
1456.00,0.1266
1455.00,0.1261
1454.00,0.1251
1453.00,0.1236
1452.00,0.1209
1451.00,0.1169
1450.00,0.1112
1449.00,0.1032
1448.00,0.0933
1447.00,0.0828
1446.00,0.0735
1445.00,0.0656
1444.00,0.0589
1443.00,0.0536
1442.00,0.0497
1441.00,0.0472
1440.00,0.0458
1439.00,0.0454
1438.00,0.0457
1437.00,0.0461
1436.00,0.0453
1435.00,0.0426
1434.00,0.0385
1433.00,0.0335
1432.00,0.0285
1431.00,0.0240
1430.00,0.0207
1429.00,0.0183
1428.00,0.0167
1427.00,0.0157
1426.00,0.0151
1425.00,0.0145
1424.00,0.0139
1423.00,0.0136
1422.00,0.0134
1421.00,0.0131
1420.00,0.0128
1419.00,0.0126
1418.00,0.0124
1417.00,0.0121
1416.00,0.0118
1415.00,0.0117
1414.00,0.0116
1413.00,0.0114
1412.00,0.0113
1411.00,0.0112
1410.00,0.0112
1409.00,0.0111
1408.00,0.0109
1407.00,0.0109
1406.00,0.0110
1405.00,0.0110
1404.00,0.0109
1403.00,0.0110
1402.00,0.0111
1401.00,0.0112
1400.00,0.0112
1399.00,0.0114
1398.00,0.0117
1397.00,0.0119
1396.00,0.0121
1395.00,0.0125
1394.00,0.0131
1393.00,0.0137
1392.00,0.0144
1391.00,0.0153
1390.00,0.0166
1389.00,0.0183
1388.00,0.0210
1387.00,0.0250
1386.00,0.0303
1385.00,0.0370
1384.00,0.0458
1383.00,0.0577
1382.00,0.0733
1381.00,0.0935
1380.00,0.1188
1379.00,0.1484
1378.00,0.1782
1377.00,0.2016
1376.00,0.2117
1375.00,0.2037
1374.00,0.1797
1373.00,0.1487
1372.00,0.1195
1371.00,0.0950
1370.00,0.0755
1369.00,0.0606
1368.00,0.0504
1367.00,0.0442
1366.00,0.0409
1365.00,0.0396
1364.00,0.0399
1363.00,0.0415
1362.00,0.0441
1361.00,0.0467
1360.00,0.0488
1359.00,0.0493
1358.00,0.0481
1357.00,0.0450
1356.00,0.0407
1355.00,0.0358
1354.00,0.0311
1353.00,0.0271
1352.00,0.0239
1351.00,0.0214
1350.00,0.0194
1349.00,0.0178
1348.00,0.0165
1347.00,0.0154
1346.00,0.0146
1345.00,0.0140
1344.00,0.0135
1343.00,0.0132
1342.00,0.0130
1341.00,0.0127
1340.00,0.0124
1339.00,0.0121
1338.00,0.0119
1337.00,0.0119
1336.00,0.0120
1335.00,0.0122
1334.00,0.0126
1333.00,0.0130
1332.00,0.0135
1331.00,0.0139
1330.00,0.0140
1329.00,0.0139
1328.00,0.0134
1327.00,0.0129
1326.00,0.0122
1325.00,0.0115
1324.00,0.0109
1323.00,0.0104
1322.00,0.0099
1321.00,0.0096
1320.00,0.0093
1319.00,0.0091
1318.00,0.0089
1317.00,0.0087
1316.00,0.0084
1315.00,0.0083
1314.00,0.0081
1313.00,0.0081
1312.00,0.0082
1311.00,0.0084
1310.00,0.0089
1309.00,0.0094
1308.00,0.0103
1307.00,0.0112
1306.00,0.0122
1305.00,0.0130
1304.00,0.0133
1303.00,0.0131
1302.00,0.0128
1301.00,0.0125
1300.00,0.0124
1299.00,0.0124
1298.00,0.0126
1297.00,0.0127
1296.00,0.0126
1295.00,0.0124
1294.00,0.0120
1293.00,0.0114
1292.00,0.0109
1291.00,0.0103
1290.00,0.0098
1289.00,0.0093
1288.00,0.0089
1287.00,0.0086
1286.00,0.0084
1285.00,0.0082
1284.00,0.0080
1283.00,0.0078
1282.00,0.0076
1281.00,0.0075
1280.00,0.0073
1279.00,0.0073
1278.00,0.0072
1277.00,0.0071
1276.00,0.0070
1275.00,0.0070
1274.00,0.0070
1273.00,0.0070
1272.00,0.0070
1271.00,0.0070
1270.00,0.0069
1269.00,0.0069
1268.00,0.0069
1267.00,0.0071
1266.00,0.0072
1265.00,0.0074
1264.00,0.0076
1263.00,0.0079
1262.00,0.0083
1261.00,0.0087
1260.00,0.0092
1259.00,0.0099
1258.00,0.0106
1257.00,0.0112
1256.00,0.0114
1255.00,0.0113
1254.00,0.0108
1253.00,0.0101
1252.00,0.0095
1251.00,0.0091
1250.00,0.0087
1249.00,0.0084
1248.00,0.0082
1247.00,0.0080
1246.00,0.0079
1245.00,0.0078
1244.00,0.0077
1243.00,0.0077
1242.00,0.0076
1241.00,0.0075
1240.00,0.0074
1239.00,0.0074
1238.00,0.0074
1237.00,0.0074
1236.00,0.0073
1235.00,0.0073
1234.00,0.0073
1233.00,0.0074
1232.00,0.0074
1231.00,0.0075
1230.00,0.0075
1229.00,0.0076
1228.00,0.0077
1227.00,0.0079
1226.00,0.0082
1225.00,0.0085
1224.00,0.0088
1223.00,0.0092
1222.00,0.0095
1221.00,0.0099
1220.00,0.0101
1219.00,0.0103
1218.00,0.0103
1217.00,0.0102
1216.00,0.0099
1215.00,0.0095
1214.00,0.0091
1213.00,0.0087
1212.00,0.0084
1211.00,0.0082
1210.00,0.0080
1209.00,0.0079
1208.00,0.0077
1207.00,0.0075
1206.00,0.0074
1205.00,0.0072
1204.00,0.0071
1203.00,0.0071
1202.00,0.0071
1201.00,0.0071
1200.00,0.0071
1199.00,0.0071
1198.00,0.0071
1197.00,0.0071
1196.00,0.0071
1195.00,0.0072
1194.00,0.0071
1193.00,0.0071
1192.00,0.0070
1191.00,0.0069
1190.00,0.0068
1189.00,0.0067
1188.00,0.0067
1187.00,0.0067
1186.00,0.0068
1185.00,0.0069
1184.00,0.0070
1183.00,0.0071
1182.00,0.0072
1181.00,0.0075
1180.00,0.0078
1179.00,0.0083
1178.00,0.0089
1177.00,0.0096
1176.00,0.0106
1175.00,0.0120
1174.00,0.0138
1173.00,0.0160
1172.00,0.0188
1171.00,0.0218
1170.00,0.0247
1169.00,0.0271
1168.00,0.0285
1167.00,0.0290
1166.00,0.0284
1165.00,0.0272
1164.00,0.0257
1163.00,0.0242
1162.00,0.0227
1161.00,0.0215
1160.00,0.0205
1159.00,0.0198
1158.00,0.0193
1157.00,0.0189
1156.00,0.0186
1155.00,0.0184
1154.00,0.0183
1153.00,0.0181
1152.00,0.0177
1151.00,0.0171
1150.00,0.0163
1149.00,0.0154
1148.00,0.0144
1147.00,0.0135
1146.00,0.0126
1145.00,0.0118
1144.00,0.0111
1143.00,0.0104
1142.00,0.0098
1141.00,0.0092
1140.00,0.0087
1139.00,0.0083
1138.00,0.0080
1137.00,0.0076
1136.00,0.0074
1135.00,0.0071
1134.00,0.0070
1133.00,0.0068
1132.00,0.0067
1131.00,0.0067
1130.00,0.0067
1129.00,0.0068
1128.00,0.0069
1127.00,0.0070
1126.00,0.0072
1125.00,0.0073
1124.00,0.0074
1123.00,0.0074
1122.00,0.0074
1121.00,0.0072
1120.00,0.0072
1119.00,0.0072
1118.00,0.0073
1117.00,0.0074
1116.00,0.0076
1115.00,0.0078
1114.00,0.0080
1113.00,0.0082
1112.00,0.0084
1111.00,0.0086
1110.00,0.0090
1109.00,0.0094
1108.00,0.0100
1107.00,0.0107
1106.00,0.0115
1105.00,0.0123
1104.00,0.0128
1103.00,0.0131
1102.00,0.0132
1101.00,0.0129
1100.00,0.0124
1099.00,0.0118
1098.00,0.0112
1097.00,0.0105
1096.00,0.0099
1095.00,0.0093
1094.00,0.0089
1093.00,0.0085
1092.00,0.0082
1091.00,0.0080
1090.00,0.0078
1089.00,0.0076
1088.00,0.0074
1087.00,0.0072
1086.00,0.0071
1085.00,0.0070
1084.00,0.0069
1083.00,0.0069
1082.00,0.0068
1081.00,0.0068
1080.00,0.0067
1079.00,0.0066
1078.00,0.0065
1077.00,0.0064
1076.00,0.0064
1075.00,0.0064
1074.00,0.0064
1073.00,0.0064
1072.00,0.0064
1071.00,0.0065
1070.00,0.0065
1069.00,0.0065
1068.00,0.0065
1067.00,0.0066
1066.00,0.0067
1065.00,0.0069
1064.00,0.0070
1063.00,0.0070
1062.00,0.0070
1061.00,0.0070
1060.00,0.0070
1059.00,0.0071
1058.00,0.0071
1057.00,0.0071
1056.00,0.0071
1055.00,0.0071
1054.00,0.0071
1053.00,0.0071
1052.00,0.0072
1051.00,0.0073
1050.00,0.0076
1049.00,0.0078
1048.00,0.0080
1047.00,0.0083
1046.00,0.0086
1045.00,0.0088
1044.00,0.0089
1043.00,0.0088
1042.00,0.0087
1041.00,0.0086
1040.00,0.0085
1039.00,0.0086
1038.00,0.0088
1037.00,0.0089
1036.00,0.0090
1035.00,0.0089
1034.00,0.0088
1033.00,0.0086
1032.00,0.0085
1031.00,0.0084
1030.00,0.0084
1029.00,0.0084
1028.00,0.0084
1027.00,0.0083
1026.00,0.0083
1025.00,0.0083
1024.00,0.0083
1023.00,0.0082
1022.00,0.0082
1021.00,0.0083
1020.00,0.0084
1019.00,0.0086
1018.00,0.0087
1017.00,0.0089
1016.00,0.0091
1015.00,0.0094
1014.00,0.0098
1013.00,0.0102
1012.00,0.0106
1011.00,0.0109
1010.00,0.0112
1009.00,0.0116
1008.00,0.0120
1007.00,0.0126
1006.00,0.0134
1005.00,0.0144
1004.00,0.0158
1003.00,0.0177
1002.00,0.0203
1001.00,0.0233
1000.00,0.0266
999.00,0.0292
998.00,0.0305
997.00,0.0299
996.00,0.0275
995.00,0.0240
994.00,0.0205
993.00,0.0173
992.00,0.0149
991.00,0.0132
990.00,0.0120
989.00,0.0112
988.00,0.0107
987.00,0.0104
986.00,0.0104
985.00,0.0107
984.00,0.0111
983.00,0.0119
982.00,0.0129
981.00,0.0144
980.00,0.0165
979.00,0.0192
978.00,0.0227
977.00,0.0267
976.00,0.0310
975.00,0.0349
974.00,0.0376
973.00,0.0385
972.00,0.0370
971.00,0.0335
970.00,0.0289
969.00,0.0243
968.00,0.0203
967.00,0.0173
966.00,0.0150
965.00,0.0132
964.00,0.0119
963.00,0.0110
962.00,0.0102
961.00,0.0096
960.00,0.0091
959.00,0.0086
958.00,0.0083
957.00,0.0079
956.00,0.0076
955.00,0.0075
954.00,0.0074
953.00,0.0073
952.00,0.0073
951.00,0.0073
950.00,0.0073
949.00,0.0072
948.00,0.0073
947.00,0.0074
946.00,0.0076
945.00,0.0079
944.00,0.0083
943.00,0.0086
942.00,0.0089
941.00,0.0091
940.00,0.0090
939.00,0.0088
938.00,0.0085
937.00,0.0081
936.00,0.0076
935.00,0.0072
934.00,0.0067
933.00,0.0064
932.00,0.0061
931.00,0.0060
930.00,0.0060
929.00,0.0060
928.00,0.0060
927.00,0.0060
926.00,0.0059
925.00,0.0059
924.00,0.0059
923.00,0.0059
922.00,0.0060
921.00,0.0061
920.00,0.0063
919.00,0.0065
918.00,0.0067
917.00,0.0068
916.00,0.0068
915.00,0.0069
914.00,0.0069
913.00,0.0070
912.00,0.0071
911.00,0.0072
910.00,0.0074
909.00,0.0075
908.00,0.0077
907.00,0.0081
906.00,0.0089
905.00,0.0099
904.00,0.0115
903.00,0.0135
902.00,0.0158
901.00,0.0180
900.00,0.0195
899.00,0.0200
898.00,0.0192
897.00,0.0175
896.00,0.0153
895.00,0.0132
894.00,0.0114
893.00,0.0102
892.00,0.0093
891.00,0.0086
890.00,0.0080
889.00,0.0075
888.00,0.0072
887.00,0.0070
886.00,0.0069
885.00,0.0070
884.00,0.0070
883.00,0.0070
882.00,0.0070
881.00,0.0070
880.00,0.0069
879.00,0.0068
878.00,0.0067
877.00,0.0066
876.00,0.0066
875.00,0.0066
874.00,0.0066
873.00,0.0065
872.00,0.0065
871.00,0.0065
870.00,0.0066
869.00,0.0067
868.00,0.0068
867.00,0.0069
866.00,0.0070
865.00,0.0071
864.00,0.0072
863.00,0.0073
862.00,0.0074
861.00,0.0075
860.00,0.0076
859.00,0.0079
858.00,0.0081
857.00,0.0084
856.00,0.0085
855.00,0.0087
854.00,0.0088
853.00,0.0089
852.00,0.0090
851.00,0.0093
850.00,0.0098
849.00,0.0105
848.00,0.0114
847.00,0.0127
846.00,0.0147
845.00,0.0176
844.00,0.0215
843.00,0.0255
842.00,0.0285
841.00,0.0290
840.00,0.0269
839.00,0.0233
838.00,0.0195
837.00,0.0165
836.00,0.0145
835.00,0.0132
834.00,0.0122
833.00,0.0115
832.00,0.0111
831.00,0.0109
830.00,0.0107
829.00,0.0106
828.00,0.0103
827.00,0.0101
826.00,0.0099
825.00,0.0098
824.00,0.0098
823.00,0.0099
822.00,0.0101
821.00,0.0102
820.00,0.0104
819.00,0.0107
818.00,0.0112
817.00,0.0119
816.00,0.0127
815.00,0.0138
814.00,0.0152
813.00,0.0169
812.00,0.0187
811.00,0.0204
810.00,0.0217
809.00,0.0223
808.00,0.0222
807.00,0.0212
806.00,0.0197
805.00,0.0179
804.00,0.0162
803.00,0.0146
802.00,0.0133
801.00,0.0122
800.00,0.0114
799.00,0.0108
798.00,0.0103
797.00,0.0098
796.00,0.0095
795.00,0.0091
794.00,0.0088
793.00,0.0085
792.00,0.0082
791.00,0.0080
790.00,0.0078
789.00,0.0076
788.00,0.0074
787.00,0.0072
786.00,0.0070
785.00,0.0069
784.00,0.0067
783.00,0.0065
782.00,0.0064
781.00,0.0063
780.00,0.0062
779.00,0.0061
778.00,0.0061
777.00,0.0061
776.00,0.0061
775.00,0.0062
774.00,0.0063
773.00,0.0064
772.00,0.0067
771.00,0.0069
770.00,0.0070
769.00,0.0071
768.00,0.0073
767.00,0.0074
766.00,0.0075
765.00,0.0074
764.00,0.0071
763.00,0.0067
762.00,0.0064
761.00,0.0063
760.00,0.0062
759.00,0.0060
758.00,0.0057
757.00,0.0054
756.00,0.0052
755.00,0.0051
754.00,0.0052
753.00,0.0052
752.00,0.0051
751.00,0.0051
750.00,0.0051
749.00,0.0051
748.00,0.0052
747.00,0.0052
746.00,0.0053
745.00,0.0053
744.00,0.0053
743.00,0.0052
742.00,0.0052
741.00,0.0052
740.00,0.0052
739.00,0.0053
738.00,0.0053
737.00,0.0055
736.00,0.0058
735.00,0.0060
734.00,0.0062
733.00,0.0063
732.00,0.0064
731.00,0.0063
730.00,0.0063
729.00,0.0062
728.00,0.0061
727.00,0.0060
726.00,0.0058
725.00,0.0057
724.00,0.0057
723.00,0.0058
722.00,0.0058
721.00,0.0059
720.00,0.0059
719.00,0.0058
718.00,0.0057
717.00,0.0055
716.00,0.0053
715.00,0.0052
714.00,0.0052
713.00,0.0053
712.00,0.0052
711.00,0.0052
710.00,0.0052
709.00,0.0052
708.00,0.0052
707.00,0.0053
706.00,0.0053
705.00,0.0053
704.00,0.0053
703.00,0.0052
702.00,0.0052
701.00,0.0051
700.00,0.0050
699.00,0.0049
698.00,0.0049
697.00,0.0048
696.00,0.0047
695.00,0.0046
694.00,0.0046
693.00,0.0046
692.00,0.0046
691.00,0.0047
690.00,0.0047
689.00,0.0047
688.00,0.0048
687.00,0.0048
686.00,0.0049
685.00,0.0050
684.00,0.0050
683.00,0.0051
682.00,0.0052
681.00,0.0053
680.00,0.0054
679.00,0.0054
678.00,0.0053
677.00,0.0052
676.00,0.0050
675.00,0.0048
674.00,0.0048
673.00,0.0048
672.00,0.0049
671.00,0.0050
670.00,0.0051
669.00,0.0050
668.00,0.0049
667.00,0.0049
666.00,0.0052
665.00,0.0054
664.00,0.0053
663.00,0.0050
662.00,0.0047
661.00,0.0046
660.00,0.0048
659.00,0.0050
658.00,0.0053
657.00,0.0055
656.00,0.0055
655.00,0.0055
654.00,0.0054
653.00,0.0054
652.00,0.0053
651.00,0.0051
650.00,0.0050
649.00,0.0049
648.00,0.0048
647.00,0.0048
646.00,0.0048
645.00,0.0048
644.00,0.0048
643.00,0.0049
642.00,0.0050
641.00,0.0050
640.00,0.0049
639.00,0.0049
638.00,0.0049
637.00,0.0050
636.00,0.0052
635.00,0.0053
634.00,0.0053
633.00,0.0053
632.00,0.0051
631.00,0.0051
630.00,0.0052
629.00,0.0054
628.00,0.0055
627.00,0.0055
626.00,0.0055
625.00,0.0054
624.00,0.0052
623.00,0.0051
622.00,0.0051
621.00,0.0052
620.00,0.0053
619.00,0.0054
618.00,0.0056
617.00,0.0058
616.00,0.0058
615.00,0.0057
614.00,0.0055
613.00,0.0055
612.00,0.0057
611.00,0.0059
610.00,0.0060
609.00,0.0058
608.00,0.0055
607.00,0.0054
606.00,0.0055
605.00,0.0056
604.00,0.0057
603.00,0.0056
602.00,0.0054
601.00,0.0054
600.00,0.0054
599.00,0.0055
598.00,0.0056
597.00,0.0056
596.00,0.0056
595.00,0.0056
594.00,0.0055
593.00,0.0054
592.00,0.0053
591.00,0.0052
590.00,0.0053
589.00,0.0055
588.00,0.0056
587.00,0.0058
586.00,0.0058
585.00,0.0058
584.00,0.0059
583.00,0.0059
582.00,0.0060
581.00,0.0060
580.00,0.0059
579.00,0.0059
578.00,0.0058
577.00,0.0057
576.00,0.0055
575.00,0.0054
574.00,0.0056
573.00,0.0059
572.00,0.0061
571.00,0.0061
570.00,0.0058
569.00,0.0053
568.00,0.0050
567.00,0.0050
566.00,0.0053
565.00,0.0056
564.00,0.0058
563.00,0.0058
562.00,0.0057
561.00,0.0057
560.00,0.0058
559.00,0.0061
558.00,0.0064
557.00,0.0066
556.00,0.0066
555.00,0.0063
554.00,0.0058
553.00,0.0055
552.00,0.0055
551.00,0.0057
550.00,0.0059
549.00,0.0062
548.00,0.0064
547.00,0.0064
546.00,0.0062
545.00,0.0059
544.00,0.0056
543.00,0.0056
542.00,0.0060
541.00,0.0064
540.00,0.0067
539.00,0.0068
538.00,0.0067
537.00,0.0067
536.00,0.0068
535.00,0.0071
534.00,0.0076
533.00,0.0081
532.00,0.0083
531.00,0.0084
530.00,0.0085
529.00,0.0087
528.00,0.0090
527.00,0.0093
526.00,0.0094
525.00,0.0094
524.00,0.0091
523.00,0.0086
522.00,0.0080
521.00,0.0072
520.00,0.0064
519.00,0.0058
518.00,0.0056
517.00,0.0058
516.00,0.0060
515.00,0.0061
514.00,0.0059
513.00,0.0058
512.00,0.0058
511.00,0.0061
510.00,0.0063
509.00,0.0063
508.00,0.0060
507.00,0.0058
506.00,0.0057
505.00,0.0059
504.00,0.0059
503.00,0.0059
502.00,0.0057
501.00,0.0056
500.00,0.0056
499.00,0.0056
498.00,0.0058
497.00,0.0062
496.00,0.0065
495.00,0.0066
494.00,0.0065
493.00,0.0064
492.00,0.0065
491.00,0.0066
490.00,0.0066
489.00,0.0066
488.00,0.0065
487.00,0.0064
486.00,0.0063
485.00,0.0061
484.00,0.0058
483.00,0.0055
482.00,0.0053
481.00,0.0053
480.00,0.0055
479.00,0.0059
478.00,0.0062
477.00,0.0063
476.00,0.0062
475.00,0.0059
474.00,0.0055
473.00,0.0053
472.00,0.0058
471.00,0.0068
470.00,0.0080
469.00,0.0091
468.00,0.0101
467.00,0.0107
466.00,0.0111
465.00,0.0114
464.00,0.0120
463.00,0.0131
462.00,0.0143
461.00,0.0150
460.00,0.0149
459.00,0.0144
458.00,0.0141
457.00,0.0140
456.00,0.0139
455.00,0.0139
454.00,0.0139
453.00,0.0136
452.00,0.0123
451.00,0.0100
450.00,0.0073
