Created as New Dataset,Sample 064 By Administrator Date Friday, September 05 2025
cm-1,A
4000.00,0.0009
3999.00,0.0009
3998.00,0.0009
3997.00,0.0009
3996.00,0.0009
3995.00,0.0010
3994.00,0.0010
3993.00,0.0010
3992.00,0.0010
3991.00,0.0010
3990.00,0.0009
3989.00,0.0009
3988.00,0.0009
3987.00,0.0009
3986.00,0.0009
3985.00,0.0009
3984.00,0.0009
3983.00,0.0009
3982.00,0.0008
3981.00,0.0008
3980.00,0.0008
3979.00,0.0008
3978.00,0.0008
3977.00,0.0008
3976.00,0.0008
3975.00,0.0008
3974.00,0.0008
3973.00,0.0008
3972.00,0.0008
3971.00,0.0008
3970.00,0.0008
3969.00,0.0008
3968.00,0.0008
3967.00,0.0008
3966.00,0.0008
3965.00,0.0008
3964.00,0.0008
3963.00,0.0008
3962.00,0.0008
3961.00,0.0008
3960.00,0.0008
3959.00,0.0008
3958.00,0.0008
3957.00,0.0008
3956.00,0.0008
3955.00,0.0007
3954.00,0.0007
3953.00,0.0007
3952.00,0.0007
3951.00,0.0007
3950.00,0.0007
3949.00,0.0007
3948.00,0.0007
3947.00,0.0007
3946.00,0.0007
3945.00,0.0007
3944.00,0.0008
3943.00,0.0008
3942.00,0.0008
3941.00,0.0008
3940.00,0.0008
3939.00,0.0008
3938.00,0.0008
3937.00,0.0008
3936.00,0.0007
3935.00,0.0007
3934.00,0.0007
3933.00,0.0007
3932.00,0.0008
3931.00,0.0008
3930.00,0.0008
3929.00,0.0008
3928.00,0.0009
3927.00,0.0009
3926.00,0.0009
3925.00,0.0009
3924.00,0.0009
3923.00,0.0008
3922.00,0.0008
3921.00,0.0008
3920.00,0.0008
3919.00,0.0008
3918.00,0.0008
3917.00,0.0008
3916.00,0.0008
3915.00,0.0008
3914.00,0.0008
3913.00,0.0008
3912.00,0.0008
3911.00,0.0008
3910.00,0.0008
3909.00,0.0008
3908.00,0.0008
3907.00,0.0008
3906.00,0.0008
3905.00,0.0007
3904.00,0.0007
3903.00,0.0007
3902.00,0.0006
3901.00,0.0006
3900.00,0.0007
3899.00,0.0007
3898.00,0.0007
3897.00,0.0007
3896.00,0.0007
3895.00,0.0007
3894.00,0.0007
3893.00,0.0007
3892.00,0.0007
3891.00,0.0007
3890.00,0.0007
3889.00,0.0007
3888.00,0.0007
3887.00,0.0007
3886.00,0.0007
3885.00,0.0007
3884.00,0.0007
3883.00,0.0007
3882.00,0.0007
3881.00,0.0007
3880.00,0.0007
3879.00,0.0007
3878.00,0.0008
3877.00,0.0008
3876.00,0.0008
3875.00,0.0008
3874.00,0.0007
3873.00,0.0006
3872.00,0.0006
3871.00,0.0006
3870.00,0.0005
3869.00,0.0005
3868.00,0.0005
3867.00,0.0005
3866.00,0.0006
3865.00,0.0006
3864.00,0.0006
3863.00,0.0006
3862.00,0.0006
3861.00,0.0006
3860.00,0.0006
3859.00,0.0006
3858.00,0.0006
3857.00,0.0006
3856.00,0.0006
3855.00,0.0006
3854.00,0.0006
3853.00,0.0006
3852.00,0.0006
3851.00,0.0006
3850.00,0.0006
3849.00,0.0006
3848.00,0.0006
3847.00,0.0006
3846.00,0.0006
3845.00,0.0006
3844.00,0.0007
3843.00,0.0006
3842.00,0.0006
3841.00,0.0006
3840.00,0.0006
3839.00,0.0006
3838.00,0.0006
3837.00,0.0006
3836.00,0.0005
3835.00,0.0005
3834.00,0.0005
3833.00,0.0005
3832.00,0.0005
3831.00,0.0005
3830.00,0.0005
3829.00,0.0005
3828.00,0.0006
3827.00,0.0006
3826.00,0.0006
3825.00,0.0006
3824.00,0.0006
3823.00,0.0006
3822.00,0.0006
3821.00,0.0006
3820.00,0.0006
3819.00,0.0006
3818.00,0.0005
3817.00,0.0006
3816.00,0.0006
3815.00,0.0007
3814.00,0.0007
3813.00,0.0008
3812.00,0.0007
3811.00,0.0007
3810.00,0.0007
3809.00,0.0007
3808.00,0.0007
3807.00,0.0007
3806.00,0.0007
3805.00,0.0007
3804.00,0.0007
3803.00,0.0007
3802.00,0.0007
3801.00,0.0007
3800.00,0.0007
3799.00,0.0007
3798.00,0.0007
3797.00,0.0007
3796.00,0.0007
3795.00,0.0007
3794.00,0.0007
3793.00,0.0007
3792.00,0.0007
3791.00,0.0008
3790.00,0.0008
3789.00,0.0008
3788.00,0.0008
3787.00,0.0008
3786.00,0.0008
3785.00,0.0008
3784.00,0.0007
3783.00,0.0007
3782.00,0.0007
3781.00,0.0007
3780.00,0.0008
3779.00,0.0008
3778.00,0.0008
3777.00,0.0008
3776.00,0.0008
3775.00,0.0008
3774.00,0.0008
3773.00,0.0008
3772.00,0.0008
3771.00,0.0008
3770.00,0.0008
3769.00,0.0008
3768.00,0.0008
3767.00,0.0008
3766.00,0.0008
3765.00,0.0008
3764.00,0.0008
3763.00,0.0008
3762.00,0.0008
3761.00,0.0008
3760.00,0.0008
3759.00,0.0007
3758.00,0.0007
3757.00,0.0006
3756.00,0.0005
3755.00,0.0005
3754.00,0.0005
3753.00,0.0004
3752.00,0.0004
3751.00,0.0004
3750.00,0.0004
3749.00,0.0004
3748.00,0.0004
3747.00,0.0005
3746.00,0.0005
3745.00,0.0006
3744.00,0.0006
3743.00,0.0006
3742.00,0.0005
3741.00,0.0004
3740.00,0.0004
3739.00,0.0003
3738.00,0.0003
3737.00,0.0004
3736.00,0.0004
3735.00,0.0004
3734.00,0.0004
3733.00,0.0004
3732.00,0.0004
3731.00,0.0004
3730.00,0.0004
3729.00,0.0004
3728.00,0.0004
3727.00,0.0004
3726.00,0.0004
3725.00,0.0005
3724.00,0.0005
3723.00,0.0005
3722.00,0.0005
3721.00,0.0005
3720.00,0.0005
3719.00,0.0006
3718.00,0.0006
3717.00,0.0006
3716.00,0.0006
3715.00,0.0005
3714.00,0.0005
3713.00,0.0005
3712.00,0.0005
3711.00,0.0005
3710.00,0.0005
3709.00,0.0005
3708.00,0.0005
3707.00,0.0005
3706.00,0.0005
3705.00,0.0005
3704.00,0.0005
3703.00,0.0006
3702.00,0.0006
3701.00,0.0006
3700.00,0.0006
3699.00,0.0006
3698.00,0.0005
3697.00,0.0005
3696.00,0.0005
3695.00,0.0005
3694.00,0.0005
3693.00,0.0005
3692.00,0.0005
3691.00,0.0005
3690.00,0.0005
3689.00,0.0004
3688.00,0.0004
3687.00,0.0004
3686.00,0.0003
3685.00,0.0003
3684.00,0.0003
3683.00,0.0003
3682.00,0.0003
3681.00,0.0003
3680.00,0.0002
3679.00,0.0002
3678.00,0.0002
3677.00,0.0001
3676.00,0.0001
3675.00,0.0000
3674.00,-0.0000
3673.00,-0.0001
3672.00,-0.0002
3671.00,-0.0001
3670.00,-0.0001
3669.00,-0.0000
3668.00,-0.0000
3667.00,-0.0000
3666.00,-0.0001
3665.00,-0.0001
3664.00,-0.0001
3663.00,-0.0001
3662.00,-0.0001
3661.00,-0.0001
3660.00,-0.0001
3659.00,-0.0001
3658.00,-0.0001
3657.00,-0.0001
3656.00,-0.0001
3655.00,-0.0001
3654.00,-0.0002
3653.00,-0.0002
3652.00,-0.0002
3651.00,-0.0002
3650.00,-0.0003
3649.00,-0.0003
3648.00,-0.0003
3647.00,-0.0002
3646.00,-0.0002
3645.00,-0.0002
3644.00,-0.0002
3643.00,-0.0001
3642.00,-0.0001
3641.00,-0.0000
3640.00,0.0000
3639.00,0.0001
3638.00,0.0001
3637.00,0.0002
3636.00,0.0002
3635.00,0.0003
3634.00,0.0003
3633.00,0.0003
3632.00,0.0002
3631.00,0.0002
3630.00,0.0002
3629.00,0.0003
3628.00,0.0003
3627.00,0.0003
3626.00,0.0003
3625.00,0.0004
3624.00,0.0004
3623.00,0.0004
3622.00,0.0004
3621.00,0.0004
3620.00,0.0004
3619.00,0.0004
3618.00,0.0004
3617.00,0.0004
3616.00,0.0005
3615.00,0.0005
3614.00,0.0005
3613.00,0.0005
3612.00,0.0005
3611.00,0.0005
3610.00,0.0005
3609.00,0.0005
3608.00,0.0005
3607.00,0.0005
3606.00,0.0005
3605.00,0.0005
3604.00,0.0005
3603.00,0.0005
3602.00,0.0005
3601.00,0.0006
3600.00,0.0006
3599.00,0.0006
3598.00,0.0006
3597.00,0.0006
3596.00,0.0006
3595.00,0.0006
3594.00,0.0006
3593.00,0.0006
3592.00,0.0006
3591.00,0.0006
3590.00,0.0007
3589.00,0.0007
3588.00,0.0007
3587.00,0.0007
3586.00,0.0007
3585.00,0.0007
3584.00,0.0007
3583.00,0.0007
3582.00,0.0007
3581.00,0.0007
3580.00,0.0007
3579.00,0.0008
3578.00,0.0009
3577.00,0.0009
3576.00,0.0010
3575.00,0.0010
3574.00,0.0010
3573.00,0.0010
3572.00,0.0010
3571.00,0.0010
3570.00,0.0010
3569.00,0.0010
3568.00,0.0010
3567.00,0.0010
3566.00,0.0009
3565.00,0.0009
3564.00,0.0010
3563.00,0.0010
3562.00,0.0011
3561.00,0.0011
3560.00,0.0011
3559.00,0.0011
3558.00,0.0011
3557.00,0.0011
3556.00,0.0012
3555.00,0.0012
3554.00,0.0012
3553.00,0.0012
3552.00,0.0012
3551.00,0.0012
3550.00,0.0012
3549.00,0.0012
3548.00,0.0013
3547.00,0.0013
3546.00,0.0014
3545.00,0.0014
3544.00,0.0014
3543.00,0.0014
3542.00,0.0013
3541.00,0.0013
3540.00,0.0013
3539.00,0.0013
3538.00,0.0013
3537.00,0.0013
3536.00,0.0013
3535.00,0.0013
3534.00,0.0014
3533.00,0.0014
3532.00,0.0014
3531.00,0.0014
3530.00,0.0014
3529.00,0.0014
3528.00,0.0014
3527.00,0.0014
3526.00,0.0014
3525.00,0.0015
3524.00,0.0015
3523.00,0.0015
3522.00,0.0015
3521.00,0.0015
3520.00,0.0015
3519.00,0.0015
3518.00,0.0015
3517.00,0.0015
3516.00,0.0015
3515.00,0.0015
3514.00,0.0015
3513.00,0.0015
3512.00,0.0016
3511.00,0.0016
3510.00,0.0016
3509.00,0.0016
3508.00,0.0016
3507.00,0.0016
3506.00,0.0017
3505.00,0.0017
3504.00,0.0017
3503.00,0.0017
3502.00,0.0017
3501.00,0.0017
3500.00,0.0017
3499.00,0.0017
3498.00,0.0017
3497.00,0.0017
3496.00,0.0017
3495.00,0.0017
3494.00,0.0017
3493.00,0.0017
3492.00,0.0018
3491.00,0.0018
3490.00,0.0018
3489.00,0.0018
3488.00,0.0018
3487.00,0.0018
3486.00,0.0018
3485.00,0.0018
3484.00,0.0018
3483.00,0.0018
3482.00,0.0019
3481.00,0.0019
3480.00,0.0020
3479.00,0.0019
3478.00,0.0019
3477.00,0.0019
3476.00,0.0019
3475.00,0.0019
3474.00,0.0019
3473.00,0.0020
3472.00,0.0020
3471.00,0.0020
3470.00,0.0020
3469.00,0.0020
3468.00,0.0020
3467.00,0.0020
3466.00,0.0020
3465.00,0.0019
3464.00,0.0020
3463.00,0.0020
3462.00,0.0020
3461.00,0.0020
3460.00,0.0021
3459.00,0.0021
3458.00,0.0021
3457.00,0.0021
3456.00,0.0021
3455.00,0.0021
3454.00,0.0022
3453.00,0.0022
3452.00,0.0022
3451.00,0.0022
3450.00,0.0022
3449.00,0.0022
3448.00,0.0022
3447.00,0.0022
3446.00,0.0023
3445.00,0.0023
3444.00,0.0023
3443.00,0.0023
3442.00,0.0022
3441.00,0.0022
3440.00,0.0022
3439.00,0.0023
3438.00,0.0023
3437.00,0.0024
3436.00,0.0024
3435.00,0.0024
3434.00,0.0024
3433.00,0.0024
3432.00,0.0024
3431.00,0.0024
3430.00,0.0024
3429.00,0.0024
3428.00,0.0025
3427.00,0.0025
3426.00,0.0025
3425.00,0.0025
3424.00,0.0025
3423.00,0.0025
3422.00,0.0025
3421.00,0.0026
3420.00,0.0026
3419.00,0.0026
3418.00,0.0026
3417.00,0.0026
3416.00,0.0026
3415.00,0.0026
3414.00,0.0026
3413.00,0.0026
3412.00,0.0027
3411.00,0.0027
3410.00,0.0026
3409.00,0.0026
3408.00,0.0026
3407.00,0.0026
3406.00,0.0026
3405.00,0.0026
3404.00,0.0027
3403.00,0.0027
3402.00,0.0027
3401.00,0.0026
3400.00,0.0026
3399.00,0.0026
3398.00,0.0026
3397.00,0.0026
3396.00,0.0026
3395.00,0.0026
3394.00,0.0026
3393.00,0.0026
3392.00,0.0026
3391.00,0.0026
3390.00,0.0026
3389.00,0.0027
3388.00,0.0027
3387.00,0.0027
3386.00,0.0028
3385.00,0.0028
3384.00,0.0028
3383.00,0.0028
3382.00,0.0028
3381.00,0.0028
3380.00,0.0028
3379.00,0.0028
3378.00,0.0028
3377.00,0.0028
3376.00,0.0029
3375.00,0.0029
3374.00,0.0029
3373.00,0.0029
3372.00,0.0029
3371.00,0.0029
3370.00,0.0029
3369.00,0.0029
3368.00,0.0028
3367.00,0.0028
3366.00,0.0029
3365.00,0.0029
3364.00,0.0029
3363.00,0.0029
3362.00,0.0030
3361.00,0.0030
3360.00,0.0030
3359.00,0.0030
3358.00,0.0030
3357.00,0.0029
3356.00,0.0029
3355.00,0.0029
3354.00,0.0029
3353.00,0.0030
3352.00,0.0030
3351.00,0.0030
3350.00,0.0030
3349.00,0.0030
3348.00,0.0030
3347.00,0.0030
3346.00,0.0030
3345.00,0.0031
3344.00,0.0031
3343.00,0.0031
3342.00,0.0031
3341.00,0.0031
3340.00,0.0031
3339.00,0.0031
3338.00,0.0030
3337.00,0.0030
3336.00,0.0031
3335.00,0.0031
3334.00,0.0031
3333.00,0.0031
3332.00,0.0031
3331.00,0.0031
3330.00,0.0031
3329.00,0.0031
3328.00,0.0031
3327.00,0.0031
3326.00,0.0031
3325.00,0.0031
3324.00,0.0031
3323.00,0.0031
3322.00,0.0031
3321.00,0.0031
3320.00,0.0031
3319.00,0.0030
3318.00,0.0030
3317.00,0.0030
3316.00,0.0030
3315.00,0.0030
3314.00,0.0031
3313.00,0.0031
3312.00,0.0031
3311.00,0.0031
3310.00,0.0031
3309.00,0.0031
3308.00,0.0031
3307.00,0.0031
3306.00,0.0031
3305.00,0.0031
3304.00,0.0031
3303.00,0.0031
3302.00,0.0031
3301.00,0.0031
3300.00,0.0031
3299.00,0.0031
3298.00,0.0031
3297.00,0.0031
3296.00,0.0031
3295.00,0.0031
3294.00,0.0030
3293.00,0.0030
3292.00,0.0030
3291.00,0.0030
3290.00,0.0031
3289.00,0.0031
3288.00,0.0031
3287.00,0.0031
3286.00,0.0030
3285.00,0.0030
3284.00,0.0030
3283.00,0.0030
3282.00,0.0030
3281.00,0.0030
3280.00,0.0030
3279.00,0.0030
3278.00,0.0030
3277.00,0.0030
3276.00,0.0031
3275.00,0.0031
3274.00,0.0031
3273.00,0.0031
3272.00,0.0030
3271.00,0.0030
3270.00,0.0030
3269.00,0.0030
3268.00,0.0030
3267.00,0.0029
3266.00,0.0029
3265.00,0.0029
3264.00,0.0029
3263.00,0.0029
3262.00,0.0029
3261.00,0.0029
3260.00,0.0029
3259.00,0.0029
3258.00,0.0029
3257.00,0.0029
3256.00,0.0029
3255.00,0.0029
3254.00,0.0029
3253.00,0.0029
3252.00,0.0029
3251.00,0.0028
3250.00,0.0028
3249.00,0.0028
3248.00,0.0028
3247.00,0.0028
3246.00,0.0028
3245.00,0.0028
3244.00,0.0028
3243.00,0.0028
3242.00,0.0028
3241.00,0.0028
3240.00,0.0028
3239.00,0.0028
3238.00,0.0028
3237.00,0.0028
3236.00,0.0028
3235.00,0.0029
3234.00,0.0029
3233.00,0.0029
3232.00,0.0029
3231.00,0.0029
3230.00,0.0029
3229.00,0.0029
3228.00,0.0029
3227.00,0.0029
3226.00,0.0030
3225.00,0.0030
3224.00,0.0030
3223.00,0.0030
3222.00,0.0030
3221.00,0.0031
3220.00,0.0031
3219.00,0.0032
3218.00,0.0032
3217.00,0.0032
3216.00,0.0032
3215.00,0.0032
3214.00,0.0032
3213.00,0.0033
3212.00,0.0033
3211.00,0.0033
3210.00,0.0034
3209.00,0.0034
3208.00,0.0034
3207.00,0.0034
3206.00,0.0034
3205.00,0.0034
3204.00,0.0034
3203.00,0.0034
3202.00,0.0034
3201.00,0.0035
3200.00,0.0035
3199.00,0.0035
3198.00,0.0035
3197.00,0.0035
3196.00,0.0035
3195.00,0.0035
3194.00,0.0035
3193.00,0.0035
3192.00,0.0035
3191.00,0.0034
3190.00,0.0034
3189.00,0.0034
3188.00,0.0034
3187.00,0.0034
3186.00,0.0034
3185.00,0.0033
3184.00,0.0033
3183.00,0.0033
3182.00,0.0033
3181.00,0.0032
3180.00,0.0032
3179.00,0.0032
3178.00,0.0032
3177.00,0.0032
3176.00,0.0032
3175.00,0.0031
3174.00,0.0032
3173.00,0.0032
3172.00,0.0032
3171.00,0.0032
3170.00,0.0031
3169.00,0.0031
3168.00,0.0031
3167.00,0.0031
3166.00,0.0031
3165.00,0.0031
3164.00,0.0031
3163.00,0.0031
3162.00,0.0032
3161.00,0.0032
3160.00,0.0033
3159.00,0.0033
3158.00,0.0033
3157.00,0.0032
3156.00,0.0032
3155.00,0.0032
3154.00,0.0032
3153.00,0.0032
3152.00,0.0032
3151.00,0.0032
3150.00,0.0032
3149.00,0.0032
3148.00,0.0032
3147.00,0.0032
3146.00,0.0032
3145.00,0.0032
3144.00,0.0032
3143.00,0.0032
3142.00,0.0032
3141.00,0.0032
3140.00,0.0032
3139.00,0.0032
3138.00,0.0032
3137.00,0.0032
3136.00,0.0032
3135.00,0.0031
3134.00,0.0030
3133.00,0.0030
3132.00,0.0030
3131.00,0.0030
3130.00,0.0030
3129.00,0.0030
3128.00,0.0030
3127.00,0.0029
3126.00,0.0029
3125.00,0.0029
3124.00,0.0028
3123.00,0.0028
3122.00,0.0028
3121.00,0.0027
3120.00,0.0028
3119.00,0.0027
3118.00,0.0027
3117.00,0.0027
3116.00,0.0027
3115.00,0.0027
3114.00,0.0027
3113.00,0.0027
3112.00,0.0027
3111.00,0.0027
3110.00,0.0027
3109.00,0.0027
3108.00,0.0027
3107.00,0.0027
3106.00,0.0027
3105.00,0.0027
3104.00,0.0027
3103.00,0.0027
3102.00,0.0027
3101.00,0.0026
3100.00,0.0027
3099.00,0.0027
3098.00,0.0027
3097.00,0.0027
3096.00,0.0027
3095.00,0.0027
3094.00,0.0027
3093.00,0.0027
3092.00,0.0027
3091.00,0.0027
3090.00,0.0026
3089.00,0.0026
3088.00,0.0026
3087.00,0.0026
3086.00,0.0027
3085.00,0.0027
3084.00,0.0027
3083.00,0.0027
3082.00,0.0026
3081.00,0.0026
3080.00,0.0025
3079.00,0.0025
3078.00,0.0026
3077.00,0.0026
3076.00,0.0026
3075.00,0.0027
3074.00,0.0027
3073.00,0.0027
3072.00,0.0027
3071.00,0.0027
3070.00,0.0027
3069.00,0.0027
3068.00,0.0027
3067.00,0.0028
3066.00,0.0028
3065.00,0.0028
3064.00,0.0028
3063.00,0.0028
3062.00,0.0029
3061.00,0.0029
3060.00,0.0029
3059.00,0.0029
3058.00,0.0029
3057.00,0.0030
3056.00,0.0030
3055.00,0.0030
3054.00,0.0030
3053.00,0.0030
3052.00,0.0030
3051.00,0.0030
3050.00,0.0030
3049.00,0.0030
3048.00,0.0031
3047.00,0.0031
3046.00,0.0032
3045.00,0.0032
3044.00,0.0032
3043.00,0.0032
3042.00,0.0033
3041.00,0.0033
3040.00,0.0033
3039.00,0.0033
3038.00,0.0034
3037.00,0.0034
3036.00,0.0034
3035.00,0.0034
3034.00,0.0034
3033.00,0.0035
3032.00,0.0035
3031.00,0.0035
3030.00,0.0036
3029.00,0.0036
3028.00,0.0037
3027.00,0.0037
3026.00,0.0038
3025.00,0.0039
3024.00,0.0039
3023.00,0.0040
3022.00,0.0041
3021.00,0.0041
3020.00,0.0041
3019.00,0.0042
3018.00,0.0042
3017.00,0.0042
3016.00,0.0043
3015.00,0.0044
3014.00,0.0044
3013.00,0.0045
3012.00,0.0046
3011.00,0.0046
3010.00,0.0046
3009.00,0.0046
3008.00,0.0046
3007.00,0.0046
3006.00,0.0046
3005.00,0.0046
3004.00,0.0047
3003.00,0.0047
3002.00,0.0048
3001.00,0.0049
3000.00,0.0051
2999.00,0.0052
2998.00,0.0055
2997.00,0.0057
2996.00,0.0060
2995.00,0.0064
2994.00,0.0067
2993.00,0.0071
2992.00,0.0076
2991.00,0.0081
2990.00,0.0087
2989.00,0.0093
2988.00,0.0100
2987.00,0.0108
2986.00,0.0115
2985.00,0.0123
2984.00,0.0131
2983.00,0.0140
2982.00,0.0153
2981.00,0.0171
2980.00,0.0192
2979.00,0.0218
2978.00,0.0246
2977.00,0.0278
2976.00,0.0313
2975.00,0.0352
2974.00,0.0396
2973.00,0.0444
2972.00,0.0500
2971.00,0.0563
2970.00,0.0634
2969.00,0.0713
2968.00,0.0797
2967.00,0.0886
2966.00,0.0979
2965.00,0.1073
2964.00,0.1165
2963.00,0.1251
2962.00,0.1326
2961.00,0.1389
2960.00,0.1440
2959.00,0.1482
2958.00,0.1522
2957.00,0.1565
2956.00,0.1616
2955.00,0.1679
2954.00,0.1753
2953.00,0.1832
2952.00,0.1909
2951.00,0.1971
2950.00,0.2005
2949.00,0.2000
2948.00,0.1951
2947.00,0.1860
2946.00,0.1737
2945.00,0.1597
2944.00,0.1456
2943.00,0.1329
2942.00,0.1224
2941.00,0.1147
2940.00,0.1097
2939.00,0.1073
2938.00,0.1072
2937.00,0.1092
2936.00,0.1130
2935.00,0.1184
2934.00,0.1253
2933.00,0.1336
2932.00,0.1432
2931.00,0.1538
2930.00,0.1650
2929.00,0.1767
2928.00,0.1883
2927.00,0.1997
2926.00,0.2106
2925.00,0.2211
2924.00,0.2312
2923.00,0.2412
2922.00,0.2511
2921.00,0.2607
2920.00,0.2694
2919.00,0.2762
2918.00,0.2802
2917.00,0.2805
2916.00,0.2769
2915.00,0.2697
2914.00,0.2600
2913.00,0.2490
2912.00,0.2376
2911.00,0.2268
2910.00,0.2169
2909.00,0.2078
2908.00,0.1994
2907.00,0.1914
2906.00,0.1837
2905.00,0.1761
2904.00,0.1684
2903.00,0.1608
2902.00,0.1533
2901.00,0.1460
2900.00,0.1391
2899.00,0.1325
2898.00,0.1264
2897.00,0.1209
2896.00,0.1161
2895.00,0.1120
2894.00,0.1087
2893.00,0.1062
2892.00,0.1044
2891.00,0.1033
2890.00,0.1027
2889.00,0.1028
2888.00,0.1033
2887.00,0.1041
2886.00,0.1054
2885.00,0.1070
2884.00,0.1090
2883.00,0.1116
2882.00,0.1147
2881.00,0.1182
2880.00,0.1216
2879.00,0.1246
2878.00,0.1267
2877.00,0.1276
2876.00,0.1274
2875.00,0.1266
2874.00,0.1257
2873.00,0.1253
2872.00,0.1257
2871.00,0.1270
2870.00,0.1290
2869.00,0.1312
2868.00,0.1328
2867.00,0.1328
2866.00,0.1303
2865.00,0.1250
2864.00,0.1170
2863.00,0.1072
2862.00,0.0969
2861.00,0.0871
2860.00,0.0785
2859.00,0.0716
2858.00,0.0663
2857.00,0.0626
2856.00,0.0601
2855.00,0.0587
2854.00,0.0582
2853.00,0.0586
2852.00,0.0596
2851.00,0.0613
2850.00,0.0636
2849.00,0.0665
2848.00,0.0699
2847.00,0.0741
2846.00,0.0791
2845.00,0.0850
2844.00,0.0918
2843.00,0.0993
2842.00,0.1070
2841.00,0.1144
2840.00,0.1206
2839.00,0.1247
2838.00,0.1259
2837.00,0.1235
2836.00,0.1175
2835.00,0.1085
2834.00,0.0977
2833.00,0.0862
2832.00,0.0752
2831.00,0.0654
2830.00,0.0571
2829.00,0.0503
2828.00,0.0448
2827.00,0.0403
2826.00,0.0368
2825.00,0.0338
2824.00,0.0313
2823.00,0.0293
2822.00,0.0275
2821.00,0.0260
2820.00,0.0247
2819.00,0.0235
2818.00,0.0226
2817.00,0.0217
2816.00,0.0210
2815.00,0.0203
2814.00,0.0197
2813.00,0.0192
2812.00,0.0186
2811.00,0.0181
2810.00,0.0175
2809.00,0.0169
2808.00,0.0163
2807.00,0.0156
2806.00,0.0150
2805.00,0.0144
2804.00,0.0137
2803.00,0.0131
2802.00,0.0126
2801.00,0.0121
2800.00,0.0117
2799.00,0.0113
2798.00,0.0111
2797.00,0.0108
2796.00,0.0106
2795.00,0.0103
2794.00,0.0100
2793.00,0.0097
2792.00,0.0094
2791.00,0.0091
2790.00,0.0088
2789.00,0.0085
2788.00,0.0082
2787.00,0.0079
2786.00,0.0077
2785.00,0.0075
2784.00,0.0072
2783.00,0.0070
2782.00,0.0068
2781.00,0.0067
2780.00,0.0065
2779.00,0.0064
2778.00,0.0062
2777.00,0.0061
2776.00,0.0059
2775.00,0.0058
2774.00,0.0058
2773.00,0.0057
2772.00,0.0056
2771.00,0.0055
2770.00,0.0055
2769.00,0.0054
2768.00,0.0054
2767.00,0.0054
2766.00,0.0054
2765.00,0.0054
2764.00,0.0054
2763.00,0.0053
2762.00,0.0052
2761.00,0.0052
2760.00,0.0051
2759.00,0.0051
2758.00,0.0051
2757.00,0.0051
2756.00,0.0051
2755.00,0.0051
2754.00,0.0051
2753.00,0.0051
2752.00,0.0051
2751.00,0.0051
2750.00,0.0051
2749.00,0.0051
2748.00,0.0051
2747.00,0.0051
2746.00,0.0051
2745.00,0.0052
2744.00,0.0053
2743.00,0.0054
2742.00,0.0055
2741.00,0.0056
2740.00,0.0058
2739.00,0.0059
2738.00,0.0061
2737.00,0.0062
2736.00,0.0064
2735.00,0.0065
2734.00,0.0067
2733.00,0.0069
2732.00,0.0070
2731.00,0.0072
2730.00,0.0075
2729.00,0.0078
2728.00,0.0081
2727.00,0.0084
2726.00,0.0087
2725.00,0.0090
2724.00,0.0091
2723.00,0.0092
2722.00,0.0091
2721.00,0.0089
2720.00,0.0086
2719.00,0.0082
2718.00,0.0078
2717.00,0.0074
2716.00,0.0071
2715.00,0.0067
2714.00,0.0065
2713.00,0.0062
2712.00,0.0060
2711.00,0.0058
2710.00,0.0057
2709.00,0.0056
2708.00,0.0054
2707.00,0.0053
2706.00,0.0051
2705.00,0.0050
2704.00,0.0049
2703.00,0.0048
2702.00,0.0047
2701.00,0.0046
2700.00,0.0046
2699.00,0.0045
2698.00,0.0045
2697.00,0.0045
2696.00,0.0045
2695.00,0.0045
2694.00,0.0044
2693.00,0.0044
2692.00,0.0045
2691.00,0.0045
2690.00,0.0045
2689.00,0.0045
2688.00,0.0044
2687.00,0.0044
2686.00,0.0044
2685.00,0.0044
2684.00,0.0044
2683.00,0.0045
2682.00,0.0045
2681.00,0.0045
2680.00,0.0045
2679.00,0.0045
2678.00,0.0045
2677.00,0.0045
2676.00,0.0045
2675.00,0.0045
2674.00,0.0045
2673.00,0.0045
2672.00,0.0044
2671.00,0.0044
2670.00,0.0044
2669.00,0.0044
2668.00,0.0044
2667.00,0.0045
2666.00,0.0045
2665.00,0.0045
2664.00,0.0046
2663.00,0.0046
2662.00,0.0047
2661.00,0.0047
2660.00,0.0047
2659.00,0.0047
2658.00,0.0047
2657.00,0.0047
2656.00,0.0047
2655.00,0.0046
2654.00,0.0045
2653.00,0.0044
2652.00,0.0044
2651.00,0.0044
2650.00,0.0044
2649.00,0.0044
2648.00,0.0043
2647.00,0.0042
2646.00,0.0042
2645.00,0.0041
2644.00,0.0041
2643.00,0.0042
2642.00,0.0041
2641.00,0.0041
2640.00,0.0040
2639.00,0.0039
2638.00,0.0039
2637.00,0.0038
2636.00,0.0038
2635.00,0.0038
2634.00,0.0038
2633.00,0.0038
2632.00,0.0037
2631.00,0.0037
2630.00,0.0037
2629.00,0.0038
2628.00,0.0038
2627.00,0.0039
2626.00,0.0039
2625.00,0.0039
2624.00,0.0040
2623.00,0.0040
2622.00,0.0040
2621.00,0.0040
2620.00,0.0040
2619.00,0.0041
2618.00,0.0041
2617.00,0.0041
2616.00,0.0042
2615.00,0.0041
2614.00,0.0041
2613.00,0.0041
2612.00,0.0040
2611.00,0.0039
2610.00,0.0038
2609.00,0.0036
2608.00,0.0035
2607.00,0.0035
2606.00,0.0034
2605.00,0.0034
2604.00,0.0034
2603.00,0.0033
2602.00,0.0033
2601.00,0.0033
2600.00,0.0033
2599.00,0.0033
2598.00,0.0033
2597.00,0.0033
2596.00,0.0033
2595.00,0.0033
2594.00,0.0034
2593.00,0.0034
2592.00,0.0035
2591.00,0.0036
2590.00,0.0036
2589.00,0.0037
2588.00,0.0038
2587.00,0.0039
2586.00,0.0040
2585.00,0.0041
2584.00,0.0042
2583.00,0.0042
2582.00,0.0042
2581.00,0.0042
2580.00,0.0040
2579.00,0.0039
2578.00,0.0038
2577.00,0.0037
2576.00,0.0036
2575.00,0.0035
2574.00,0.0034
2573.00,0.0033
2572.00,0.0032
2571.00,0.0031
2570.00,0.0030
2569.00,0.0030
2568.00,0.0029
2567.00,0.0028
2566.00,0.0028
2565.00,0.0027
2564.00,0.0026
2563.00,0.0026
2562.00,0.0025
2561.00,0.0025
2560.00,0.0024
2559.00,0.0024
2558.00,0.0024
2557.00,0.0024
2556.00,0.0023
2555.00,0.0023
2554.00,0.0024
2553.00,0.0024
2552.00,0.0023
2551.00,0.0023
2550.00,0.0022
2549.00,0.0022
2548.00,0.0021
2547.00,0.0020
2546.00,0.0019
2545.00,0.0018
2544.00,0.0018
2543.00,0.0019
2542.00,0.0019
2541.00,0.0019
2540.00,0.0019
2539.00,0.0018
2538.00,0.0018
2537.00,0.0017
2536.00,0.0017
2535.00,0.0017
2534.00,0.0016
2533.00,0.0016
2532.00,0.0016
2531.00,0.0016
2530.00,0.0016
2529.00,0.0016
2528.00,0.0016
2527.00,0.0016
2526.00,0.0015
2525.00,0.0015
2524.00,0.0014
2523.00,0.0014
2522.00,0.0014
2521.00,0.0014
2520.00,0.0013
2519.00,0.0013
2518.00,0.0012
2517.00,0.0012
2516.00,0.0012
2515.00,0.0012
2514.00,0.0013
2513.00,0.0013
2512.00,0.0013
2511.00,0.0012
2510.00,0.0012
2509.00,0.0012
2508.00,0.0012
2507.00,0.0011
2506.00,0.0011
2505.00,0.0012
2504.00,0.0012
2503.00,0.0013
2502.00,0.0012
2501.00,0.0012
2500.00,0.0011
2499.00,0.0011
2498.00,0.0012
2497.00,0.0012
2496.00,0.0012
2495.00,0.0012
2494.00,0.0012
2493.00,0.0012
2492.00,0.0013
2491.00,0.0013
2490.00,0.0013
2489.00,0.0013
2488.00,0.0012
2487.00,0.0012
2486.00,0.0012
2485.00,0.0011
2484.00,0.0011
2483.00,0.0011
2482.00,0.0011
2481.00,0.0011
2480.00,0.0011
2479.00,0.0011
2478.00,0.0011
2477.00,0.0011
2476.00,0.0011
2475.00,0.0011
2474.00,0.0011
2473.00,0.0011
2472.00,0.0010
2471.00,0.0010
2470.00,0.0010
2469.00,0.0010
2468.00,0.0011
2467.00,0.0011
2466.00,0.0012
2465.00,0.0012
2464.00,0.0012
2463.00,0.0011
2462.00,0.0011
2461.00,0.0011
2460.00,0.0011
2459.00,0.0012
2458.00,0.0012
2457.00,0.0012
2456.00,0.0012
2455.00,0.0012
2454.00,0.0012
2453.00,0.0012
2452.00,0.0012
2451.00,0.0011
2450.00,0.0011
2449.00,0.0011
2448.00,0.0011
2447.00,0.0011
2446.00,0.0011
2445.00,0.0011
2444.00,0.0011
2443.00,0.0011
2442.00,0.0011
2441.00,0.0012
2440.00,0.0012
2439.00,0.0012
2438.00,0.0013
2437.00,0.0013
2436.00,0.0013
2435.00,0.0013
2434.00,0.0013
2433.00,0.0013
2432.00,0.0013
2431.00,0.0013
2430.00,0.0013
2429.00,0.0013
2428.00,0.0013
2427.00,0.0013
2426.00,0.0013
2425.00,0.0013
2424.00,0.0013
2423.00,0.0013
2422.00,0.0013
2421.00,0.0013
2420.00,0.0013
2419.00,0.0013
2418.00,0.0012
2417.00,0.0012
2416.00,0.0011
2415.00,0.0011
2414.00,0.0011
2413.00,0.0011
2412.00,0.0010
2411.00,0.0010
2410.00,0.0010
2409.00,0.0010
2408.00,0.0010
2407.00,0.0010
2406.00,0.0010
2405.00,0.0009
2404.00,0.0009
2403.00,0.0009
2402.00,0.0009
2401.00,0.0008
2400.00,0.0009
2399.00,0.0009
2398.00,0.0009
2397.00,0.0009
2396.00,0.0009
2395.00,0.0009
2394.00,0.0008
2393.00,0.0008
2392.00,0.0008
2391.00,0.0008
2390.00,0.0009
2389.00,0.0009
2388.00,0.0009
2387.00,0.0008
2386.00,0.0007
2385.00,0.0006
2384.00,0.0004
2383.00,0.0004
2382.00,0.0003
2381.00,0.0003
2380.00,0.0002
2379.00,0.0001
2378.00,0.0001
2377.00,0.0001
2376.00,0.0001
2375.00,0.0001
2374.00,0.0001
2373.00,0.0001
2372.00,0.0001
2371.00,0.0000
2370.00,-0.0001
2369.00,-0.0002
2368.00,-0.0003
2367.00,-0.0003
2366.00,-0.0003
2365.00,-0.0003
2364.00,-0.0002
2363.00,-0.0002
2362.00,-0.0001
2361.00,-0.0000
2360.00,0.0000
2359.00,0.0000
2358.00,-0.0000
2357.00,-0.0000
2356.00,-0.0001
2355.00,-0.0001
2354.00,-0.0001
2353.00,-0.0000
2352.00,-0.0000
2351.00,-0.0001
2350.00,-0.0001
2349.00,-0.0000
2348.00,-0.0000
2347.00,0.0000
2346.00,0.0001
2345.00,0.0001
2344.00,0.0001
2343.00,0.0001
2342.00,0.0002
2341.00,0.0002
2340.00,0.0003
2339.00,0.0003
2338.00,0.0003
2337.00,0.0003
2336.00,0.0003
2335.00,0.0003
2334.00,0.0003
2333.00,0.0002
2332.00,0.0002
2331.00,0.0001
2330.00,0.0001
2329.00,0.0002
2328.00,0.0003
2327.00,0.0007
2326.00,0.0011
2325.00,0.0014
2324.00,0.0015
2323.00,0.0014
2322.00,0.0012
2321.00,0.0010
2320.00,0.0008
2319.00,0.0008
2318.00,0.0008
2317.00,0.0008
2316.00,0.0007
2315.00,0.0007
2314.00,0.0006
2313.00,0.0006
2312.00,0.0005
2311.00,0.0005
2310.00,0.0005
2309.00,0.0004
2308.00,0.0005
2307.00,0.0005
2306.00,0.0005
2305.00,0.0006
2304.00,0.0007
2303.00,0.0008
2302.00,0.0009
2301.00,0.0009
2300.00,0.0010
2299.00,0.0010
2298.00,0.0010
2297.00,0.0011
2296.00,0.0012
2295.00,0.0013
2294.00,0.0014
2293.00,0.0014
2292.00,0.0015
2291.00,0.0015
2290.00,0.0016
2289.00,0.0016
2288.00,0.0017
2287.00,0.0018
2286.00,0.0019
2285.00,0.0019
2284.00,0.0018
2283.00,0.0017
2282.00,0.0016
2281.00,0.0015
2280.00,0.0015
2279.00,0.0014
2278.00,0.0015
2277.00,0.0016
2276.00,0.0016
2275.00,0.0016
2274.00,0.0015
2273.00,0.0014
2272.00,0.0013
2271.00,0.0013
2270.00,0.0012
2269.00,0.0012
2268.00,0.0012
2267.00,0.0012
2266.00,0.0012
2265.00,0.0012
2264.00,0.0013
2263.00,0.0013
2262.00,0.0014
2261.00,0.0016
2260.00,0.0018
2259.00,0.0020
2258.00,0.0020
2257.00,0.0019
2256.00,0.0017
2255.00,0.0014
2254.00,0.0012
2253.00,0.0011
2252.00,0.0010
2251.00,0.0010
2250.00,0.0010
2249.00,0.0009
2248.00,0.0009
2247.00,0.0008
2246.00,0.0008
2245.00,0.0008
2244.00,0.0008
2243.00,0.0008
2242.00,0.0009
2241.00,0.0010
2240.00,0.0011
2239.00,0.0013
2238.00,0.0014
2237.00,0.0014
2236.00,0.0015
2235.00,0.0015
2234.00,0.0013
2233.00,0.0012
2232.00,0.0010
2231.00,0.0010
2230.00,0.0010
2229.00,0.0011
2228.00,0.0012
2227.00,0.0013
2226.00,0.0012
2225.00,0.0009
2224.00,0.0007
2223.00,0.0006
2222.00,0.0006
2221.00,0.0007
2220.00,0.0007
2219.00,0.0008
2218.00,0.0009
2217.00,0.0010
2216.00,0.0010
2215.00,0.0010
2214.00,0.0008
2213.00,0.0007
2212.00,0.0008
2211.00,0.0010
2210.00,0.0010
2209.00,0.0010
2208.00,0.0010
2207.00,0.0010
2206.00,0.0010
2205.00,0.0011
2204.00,0.0011
2203.00,0.0010
2202.00,0.0008
2201.00,0.0006
2200.00,0.0005
2199.00,0.0004
2198.00,0.0006
2197.00,0.0008
2196.00,0.0012
2195.00,0.0014
2194.00,0.0014
2193.00,0.0014
2192.00,0.0014
2191.00,0.0014
2190.00,0.0014
2189.00,0.0013
2188.00,0.0010
2187.00,0.0009
2186.00,0.0009
2185.00,0.0011
2184.00,0.0012
2183.00,0.0011
2182.00,0.0009
2181.00,0.0007
2180.00,0.0008
2179.00,0.0009
2178.00,0.0011
2177.00,0.0012
2176.00,0.0012
2175.00,0.0010
2174.00,0.0008
2173.00,0.0007
2172.00,0.0007
2171.00,0.0008
2170.00,0.0010
2169.00,0.0012
2168.00,0.0014
2167.00,0.0016
2166.00,0.0018
2165.00,0.0022
2164.00,0.0028
2163.00,0.0034
2162.00,0.0035
2161.00,0.0027
2160.00,0.0012
2159.00,-0.0006
2158.00,-0.0019
2157.00,-0.0024
2156.00,-0.0023
2155.00,-0.0020
2154.00,-0.0018
2153.00,-0.0016
2152.00,-0.0015
2151.00,-0.0015
2150.00,-0.0014
2149.00,-0.0015
2148.00,-0.0015
2147.00,-0.0015
2146.00,-0.0014
2145.00,-0.0014
2144.00,-0.0013
2143.00,-0.0011
2142.00,-0.0011
2141.00,-0.0011
2140.00,-0.0013
2139.00,-0.0015
2138.00,-0.0017
2137.00,-0.0018
2136.00,-0.0018
2135.00,-0.0019
2134.00,-0.0020
2133.00,-0.0019
2132.00,-0.0017
2131.00,-0.0014
2130.00,-0.0011
2129.00,-0.0009
2128.00,-0.0007
2127.00,-0.0006
2126.00,-0.0005
2125.00,-0.0005
2124.00,-0.0004
2123.00,-0.0004
2122.00,-0.0004
2121.00,-0.0004
2120.00,-0.0003
2119.00,-0.0002
2118.00,-0.0001
2117.00,0.0000
2116.00,0.0000
2115.00,-0.0001
2114.00,-0.0001
2113.00,-0.0001
2112.00,-0.0000
2111.00,0.0001
2110.00,0.0003
2109.00,0.0003
2108.00,0.0002
2107.00,0.0000
2106.00,-0.0001
2105.00,-0.0001
2104.00,0.0001
2103.00,0.0003
2102.00,0.0005
2101.00,0.0006
2100.00,0.0005
2099.00,0.0002
2098.00,-0.0001
2097.00,-0.0004
2096.00,-0.0004
2095.00,-0.0004
2094.00,-0.0003
2093.00,-0.0003
2092.00,-0.0002
2091.00,-0.0001
2090.00,-0.0000
2089.00,0.0001
2088.00,0.0003
2087.00,0.0003
2086.00,0.0004
2085.00,0.0005
2084.00,0.0005
2083.00,0.0006
2082.00,0.0006
2081.00,0.0007
2080.00,0.0008
2079.00,0.0008
2078.00,0.0006
2077.00,0.0004
2076.00,0.0003
2075.00,0.0003
2074.00,0.0004
2073.00,0.0007
2072.00,0.0009
2071.00,0.0009
2070.00,0.0007
2069.00,0.0005
2068.00,0.0003
2067.00,0.0002
2066.00,0.0000
2065.00,-0.0001
2064.00,-0.0002
2063.00,-0.0002
2062.00,-0.0002
2061.00,-0.0001
2060.00,-0.0000
2059.00,0.0000
2058.00,0.0000
2057.00,0.0001
2056.00,0.0002
2055.00,0.0003
2054.00,0.0006
2053.00,0.0010
2052.00,0.0014
2051.00,0.0015
2050.00,0.0012
2049.00,0.0006
2048.00,0.0001
2047.00,-0.0002
2046.00,-0.0003
2045.00,-0.0002
2044.00,-0.0001
2043.00,-0.0001
2042.00,-0.0001
2041.00,-0.0001
2040.00,0.0002
2039.00,0.0006
2038.00,0.0009
2037.00,0.0008
2036.00,0.0005
2035.00,-0.0000
2034.00,-0.0004
2033.00,-0.0006
2032.00,-0.0005
2031.00,-0.0003
2030.00,-0.0002
2029.00,-0.0002
2028.00,-0.0003
2027.00,-0.0006
2026.00,-0.0009
2025.00,-0.0011
2024.00,-0.0012
2023.00,-0.0013
2022.00,-0.0012
2021.00,-0.0011
2020.00,-0.0010
2019.00,-0.0008
2018.00,-0.0008
2017.00,-0.0007
2016.00,-0.0007
2015.00,-0.0007
2014.00,-0.0007
2013.00,-0.0008
2012.00,-0.0009
2011.00,-0.0008
2010.00,-0.0007
2009.00,-0.0007
2008.00,-0.0009
2007.00,-0.0013
2006.00,-0.0015
2005.00,-0.0014
2004.00,-0.0011
2003.00,-0.0009
2002.00,-0.0008
2001.00,-0.0009
2000.00,-0.0009
1999.00,-0.0009
1998.00,-0.0008
1997.00,-0.0007
1996.00,-0.0007
1995.00,-0.0009
1994.00,-0.0011
1993.00,-0.0012
1992.00,-0.0011
1991.00,-0.0008
1990.00,-0.0005
1989.00,-0.0003
1988.00,-0.0003
1987.00,-0.0005
1986.00,-0.0007
1985.00,-0.0008
1984.00,-0.0008
1983.00,-0.0006
1982.00,-0.0002
1981.00,0.0003
1980.00,0.0006
1979.00,0.0005
1978.00,0.0001
1977.00,-0.0005
1976.00,-0.0010
1975.00,-0.0014
1974.00,-0.0017
1973.00,-0.0017
1972.00,-0.0015
1971.00,-0.0012
1970.00,-0.0010
1969.00,-0.0008
1968.00,-0.0006
1967.00,-0.0005
1966.00,-0.0006
1965.00,-0.0008
1964.00,-0.0010
1963.00,-0.0011
1962.00,-0.0011
1961.00,-0.0011
1960.00,-0.0012
1959.00,-0.0014
1958.00,-0.0016
1957.00,-0.0017
1956.00,-0.0016
1955.00,-0.0015
1954.00,-0.0015
1953.00,-0.0016
1952.00,-0.0016
1951.00,-0.0015
1950.00,-0.0015
1949.00,-0.0014
1948.00,-0.0014
1947.00,-0.0014
1946.00,-0.0015
1945.00,-0.0016
1944.00,-0.0017
1943.00,-0.0017
1942.00,-0.0015
1941.00,-0.0013
1940.00,-0.0010
1939.00,-0.0009
1938.00,-0.0009
1937.00,-0.0010
1936.00,-0.0010
1935.00,-0.0010
1934.00,-0.0009
1933.00,-0.0009
1932.00,-0.0009
1931.00,-0.0010
1930.00,-0.0009
1929.00,-0.0008
1928.00,-0.0008
1927.00,-0.0008
1926.00,-0.0008
1925.00,-0.0008
1924.00,-0.0007
1923.00,-0.0006
1922.00,-0.0005
1921.00,-0.0004
1920.00,-0.0003
1919.00,-0.0003
1918.00,-0.0003
1917.00,-0.0003
1916.00,-0.0002
1915.00,-0.0002
1914.00,-0.0003
1913.00,-0.0003
1912.00,-0.0003
1911.00,-0.0003
1910.00,-0.0003
1909.00,-0.0003
1908.00,-0.0002
1907.00,-0.0001
1906.00,-0.0001
1905.00,-0.0000
1904.00,-0.0000
1903.00,-0.0000
1902.00,-0.0001
1901.00,-0.0001
1900.00,-0.0001
1899.00,-0.0001
1898.00,-0.0001
1897.00,-0.0000
1896.00,0.0001
1895.00,0.0001
1894.00,0.0001
1893.00,0.0001
1892.00,0.0001
1891.00,0.0001
1890.00,0.0001
1889.00,0.0000
1888.00,-0.0001
1887.00,-0.0002
1886.00,-0.0001
1885.00,-0.0000
1884.00,0.0001
1883.00,0.0001
1882.00,0.0001
1881.00,0.0001
1880.00,0.0000
1879.00,-0.0000
1878.00,-0.0001
1877.00,-0.0001
1876.00,-0.0001
1875.00,-0.0001
1874.00,-0.0001
1873.00,-0.0000
1872.00,0.0001
1871.00,0.0002
1870.00,0.0002
1869.00,0.0001
1868.00,0.0001
1867.00,-0.0000
1866.00,-0.0001
1865.00,-0.0001
1864.00,-0.0000
1863.00,0.0001
1862.00,0.0001
1861.00,0.0002
1860.00,0.0002
1859.00,0.0001
1858.00,-0.0000
1857.00,-0.0001
1856.00,-0.0001
1855.00,-0.0001
1854.00,-0.0000
1853.00,0.0000
1852.00,0.0000
1851.00,0.0000
1850.00,-0.0000
1849.00,0.0000
1848.00,0.0001
1847.00,0.0002
1846.00,0.0002
1845.00,0.0002
1844.00,0.0001
1843.00,0.0001
1842.00,0.0002
1841.00,0.0002
1840.00,0.0003
1839.00,0.0003
1838.00,0.0003
1837.00,0.0003
1836.00,0.0004
1835.00,0.0005
1834.00,0.0005
1833.00,0.0005
1832.00,0.0006
1831.00,0.0005
1830.00,0.0005
1829.00,0.0005
1828.00,0.0004
1827.00,0.0004
1826.00,0.0005
1825.00,0.0005
1824.00,0.0005
1823.00,0.0005
1822.00,0.0005
1821.00,0.0004
1820.00,0.0004
1819.00,0.0003
1818.00,0.0001
1817.00,0.0000
1816.00,0.0000
1815.00,0.0001
1814.00,0.0002
1813.00,0.0003
1812.00,0.0004
1811.00,0.0005
1810.00,0.0005
1809.00,0.0005
1808.00,0.0006
1807.00,0.0006
1806.00,0.0006
1805.00,0.0005
1804.00,0.0005
1803.00,0.0005
1802.00,0.0005
1801.00,0.0005
1800.00,0.0005
1799.00,0.0005
1798.00,0.0005
1797.00,0.0005
1796.00,0.0006
1795.00,0.0006
1794.00,0.0006
1793.00,0.0006
1792.00,0.0006
1791.00,0.0006
1790.00,0.0006
1789.00,0.0007
1788.00,0.0007
1787.00,0.0007
1786.00,0.0007
1785.00,0.0007
1784.00,0.0008
1783.00,0.0008
1782.00,0.0008
1781.00,0.0008
1780.00,0.0007
1779.00,0.0007
1778.00,0.0007
1777.00,0.0008
1776.00,0.0008
1775.00,0.0007
1774.00,0.0007
1773.00,0.0007
1772.00,0.0007
1771.00,0.0008
1770.00,0.0009
1769.00,0.0009
1768.00,0.0010
1767.00,0.0010
1766.00,0.0010
1765.00,0.0010
1764.00,0.0010
1763.00,0.0011
1762.00,0.0011
1761.00,0.0011
1760.00,0.0011
1759.00,0.0010
1758.00,0.0010
1757.00,0.0011
1756.00,0.0011
1755.00,0.0012
1754.00,0.0013
1753.00,0.0013
1752.00,0.0014
1751.00,0.0014
1750.00,0.0014
1749.00,0.0014
1748.00,0.0014
1747.00,0.0015
1746.00,0.0015
1745.00,0.0016
1744.00,0.0016
1743.00,0.0017
1742.00,0.0018
1741.00,0.0018
1740.00,0.0018
1739.00,0.0018
1738.00,0.0017
1737.00,0.0017
1736.00,0.0018
1735.00,0.0018
1734.00,0.0018
1733.00,0.0019
1732.00,0.0019
1731.00,0.0019
1730.00,0.0018
1729.00,0.0019
1728.00,0.0019
1727.00,0.0019
1726.00,0.0019
1725.00,0.0019
1724.00,0.0019
1723.00,0.0018
1722.00,0.0018
1721.00,0.0019
1720.00,0.0020
1719.00,0.0020
1718.00,0.0020
1717.00,0.0020
1716.00,0.0019
1715.00,0.0019
1714.00,0.0020
1713.00,0.0020
1712.00,0.0021
1711.00,0.0021
1710.00,0.0021
1709.00,0.0022
1708.00,0.0022
1707.00,0.0023
1706.00,0.0023
1705.00,0.0023
1704.00,0.0023
1703.00,0.0023
1702.00,0.0024
1701.00,0.0025
1700.00,0.0025
1699.00,0.0026
1698.00,0.0025
1697.00,0.0025
1696.00,0.0025
1695.00,0.0027
1694.00,0.0029
1693.00,0.0029
1692.00,0.0029
1691.00,0.0030
1690.00,0.0030
1689.00,0.0030
1688.00,0.0030
1687.00,0.0030
1686.00,0.0030
1685.00,0.0031
1684.00,0.0031
1683.00,0.0032
1682.00,0.0032
1681.00,0.0033
1680.00,0.0033
1679.00,0.0034
1678.00,0.0035
1677.00,0.0036
1676.00,0.0036
1675.00,0.0037
1674.00,0.0037
1673.00,0.0038
1672.00,0.0038
1671.00,0.0039
1670.00,0.0039
1669.00,0.0040
1668.00,0.0040
1667.00,0.0040
1666.00,0.0040
1665.00,0.0041
1664.00,0.0041
1663.00,0.0042
1662.00,0.0042
1661.00,0.0043
1660.00,0.0043
1659.00,0.0044
1658.00,0.0045
1657.00,0.0045
1656.00,0.0046
1655.00,0.0047
1654.00,0.0048
1653.00,0.0050
1652.00,0.0051
1651.00,0.0052
1650.00,0.0052
1649.00,0.0051
1648.00,0.0050
1647.00,0.0048
1646.00,0.0047
1645.00,0.0048
1644.00,0.0048
1643.00,0.0049
1642.00,0.0049
1641.00,0.0049
1640.00,0.0049
1639.00,0.0050
1638.00,0.0050
1637.00,0.0050
1636.00,0.0050
1635.00,0.0051
1634.00,0.0051
1633.00,0.0051
1632.00,0.0051
1631.00,0.0051
1630.00,0.0051
1629.00,0.0051
1628.00,0.0051
1627.00,0.0051
1626.00,0.0050
1625.00,0.0050
1624.00,0.0049
1623.00,0.0049
1622.00,0.0048
1621.00,0.0049
1620.00,0.0049
1619.00,0.0048
1618.00,0.0047
1617.00,0.0047
1616.00,0.0047
1615.00,0.0048
1614.00,0.0048
1613.00,0.0048
1612.00,0.0048
1611.00,0.0048
1610.00,0.0048
1609.00,0.0048
1608.00,0.0048
1607.00,0.0048
1606.00,0.0048
1605.00,0.0048
1604.00,0.0049
1603.00,0.0049
1602.00,0.0048
1601.00,0.0048
1600.00,0.0048
1599.00,0.0047
1598.00,0.0047
1597.00,0.0048
1596.00,0.0048
1595.00,0.0048
1594.00,0.0049
1593.00,0.0049
1592.00,0.0050
1591.00,0.0050
1590.00,0.0051
1589.00,0.0052
1588.00,0.0053
1587.00,0.0054
1586.00,0.0056
1585.00,0.0058
1584.00,0.0062
1583.00,0.0065
1582.00,0.0069
1581.00,0.0073
1580.00,0.0077
1579.00,0.0080
1578.00,0.0082
1577.00,0.0082
1576.00,0.0081
1575.00,0.0080
1574.00,0.0078
1573.00,0.0077
1572.00,0.0076
1571.00,0.0073
1570.00,0.0070
1569.00,0.0068
1568.00,0.0066
1567.00,0.0065
1566.00,0.0064
1565.00,0.0063
1564.00,0.0062
1563.00,0.0062
1562.00,0.0062
1561.00,0.0063
1560.00,0.0064
1559.00,0.0062
1558.00,0.0062
1557.00,0.0063
1556.00,0.0063
1555.00,0.0063
1554.00,0.0064
1553.00,0.0065
1552.00,0.0067
1551.00,0.0068
1550.00,0.0070
1549.00,0.0072
1548.00,0.0075
1547.00,0.0078
1546.00,0.0081
1545.00,0.0085
1544.00,0.0088
1543.00,0.0091
1542.00,0.0093
1541.00,0.0094
1540.00,0.0093
1539.00,0.0090
1538.00,0.0087
1537.00,0.0084
1536.00,0.0081
1535.00,0.0077
1534.00,0.0072
1533.00,0.0067
1532.00,0.0064
1531.00,0.0062
1530.00,0.0060
1529.00,0.0059
1528.00,0.0059
1527.00,0.0057
1526.00,0.0056
1525.00,0.0056
1524.00,0.0057
1523.00,0.0056
1522.00,0.0056
1521.00,0.0056
1520.00,0.0058
1519.00,0.0059
1518.00,0.0059
1517.00,0.0060
1516.00,0.0061
1515.00,0.0062
1514.00,0.0062
1513.00,0.0062
1512.00,0.0064
1511.00,0.0064
1510.00,0.0065
1509.00,0.0066
1508.00,0.0067
1507.00,0.0067
1506.00,0.0067
1505.00,0.0068
1504.00,0.0069
1503.00,0.0069
1502.00,0.0070
1501.00,0.0072
1500.00,0.0074
1499.00,0.0076
1498.00,0.0078
1497.00,0.0081
1496.00,0.0084
1495.00,0.0086
1494.00,0.0087
1493.00,0.0090
1492.00,0.0094
1491.00,0.0098
1490.00,0.0102
1489.00,0.0107
1488.00,0.0114
1487.00,0.0119
1486.00,0.0126
1485.00,0.0133
1484.00,0.0141
1483.00,0.0149
1482.00,0.0159
1481.00,0.0172
1480.00,0.0186
1479.00,0.0200
1478.00,0.0216
1477.00,0.0235
1476.00,0.0257
1475.00,0.0282
1474.00,0.0317
1473.00,0.0368
1472.00,0.0432
1471.00,0.0496
1470.00,0.0559
1469.00,0.0626
1468.00,0.0699
1467.00,0.0779
1466.00,0.0871
1465.00,0.0969
1464.00,0.1057
1463.00,0.1121
1462.00,0.1165
1461.00,0.1198
1460.00,0.1221
1459.00,0.1237
1458.00,0.1249
1457.00,0.1258
1456.00,0.1261
1455.00,0.1258
1454.00,0.1250
1453.00,0.1236
1452.00,0.1210
1451.00,0.1170
1450.00,0.1114
1449.00,0.1036
1448.00,0.0937
1447.00,0.0834
1446.00,0.0741
1445.00,0.0662
1444.00,0.0596
1443.00,0.0543
1442.00,0.0504
1441.00,0.0479
1440.00,0.0465
1439.00,0.0461
1438.00,0.0465
1437.00,0.0469
1436.00,0.0460
1435.00,0.0433
1434.00,0.0393
1433.00,0.0344
1432.00,0.0293
1431.00,0.0249
1430.00,0.0216
1429.00,0.0192
1428.00,0.0176
1427.00,0.0166
1426.00,0.0160
1425.00,0.0154
1424.00,0.0148
1423.00,0.0144
1422.00,0.0142
1421.00,0.0140
1420.00,0.0137
1419.00,0.0134
1418.00,0.0131
1417.00,0.0128
1416.00,0.0125
1415.00,0.0123
1414.00,0.0122
1413.00,0.0120
1412.00,0.0118
1411.00,0.0117
1410.00,0.0116
1409.00,0.0114
1408.00,0.0112
1407.00,0.0111
1406.00,0.0111
1405.00,0.0110
1404.00,0.0108
1403.00,0.0108
1402.00,0.0109
1401.00,0.0109
1400.00,0.0108
1399.00,0.0109
1398.00,0.0110
1397.00,0.0112
1396.00,0.0113
1395.00,0.0116
1394.00,0.0121
1393.00,0.0127
1392.00,0.0134
1391.00,0.0144
1390.00,0.0157
1389.00,0.0174
1388.00,0.0201
1387.00,0.0239
1386.00,0.0292
1385.00,0.0358
1384.00,0.0444
1383.00,0.0562
1382.00,0.0716
1381.00,0.0916
1380.00,0.1165
1379.00,0.1457
1378.00,0.1750
1377.00,0.1980
1376.00,0.2079
1375.00,0.2001
1374.00,0.1764
1373.00,0.1461
1372.00,0.1175
1371.00,0.0935
1370.00,0.0743
1369.00,0.0598
1368.00,0.0498
1367.00,0.0437
1366.00,0.0404
1365.00,0.0392
1364.00,0.0396
1363.00,0.0412
1362.00,0.0437
1361.00,0.0463
1360.00,0.0482
1359.00,0.0488
1358.00,0.0476
1357.00,0.0447
1356.00,0.0405
1355.00,0.0357
1354.00,0.0311
1353.00,0.0272
1352.00,0.0241
1351.00,0.0216
1350.00,0.0196
1349.00,0.0180
1348.00,0.0167
1347.00,0.0157
1346.00,0.0149
1345.00,0.0142
1344.00,0.0138
1343.00,0.0134
1342.00,0.0131
1341.00,0.0129
1340.00,0.0126
1339.00,0.0123
1338.00,0.0121
1337.00,0.0121
1336.00,0.0122
1335.00,0.0124
1334.00,0.0128
1333.00,0.0133
1332.00,0.0138
1331.00,0.0142
1330.00,0.0143
1329.00,0.0142
1328.00,0.0138
1327.00,0.0132
1326.00,0.0126
1325.00,0.0119
1324.00,0.0113
1323.00,0.0107
1322.00,0.0103
1321.00,0.0100
1320.00,0.0097
1319.00,0.0094
1318.00,0.0092
1317.00,0.0089
1316.00,0.0087
1315.00,0.0086
1314.00,0.0084
1313.00,0.0084
1312.00,0.0086
1311.00,0.0088
1310.00,0.0092
1309.00,0.0099
1308.00,0.0107
1307.00,0.0117
1306.00,0.0128
1305.00,0.0135
1304.00,0.0138
1303.00,0.0137
1302.00,0.0133
1301.00,0.0129
1300.00,0.0128
1299.00,0.0129
1298.00,0.0130
1297.00,0.0131
1296.00,0.0131
1295.00,0.0128
1294.00,0.0124
1293.00,0.0119
1292.00,0.0113
1291.00,0.0107
1290.00,0.0102
1289.00,0.0097
1288.00,0.0092
1287.00,0.0089
1286.00,0.0086
1285.00,0.0084
1284.00,0.0082
1283.00,0.0080
1282.00,0.0078
1281.00,0.0076
1280.00,0.0075
1279.00,0.0075
1278.00,0.0074
1277.00,0.0073
1276.00,0.0073
1275.00,0.0072
1274.00,0.0071
1273.00,0.0071
1272.00,0.0070
1271.00,0.0070
1270.00,0.0070
1269.00,0.0070
1268.00,0.0071
1267.00,0.0072
1266.00,0.0073
1265.00,0.0075
1264.00,0.0078
1263.00,0.0081
1262.00,0.0085
1261.00,0.0089
1260.00,0.0095
1259.00,0.0101
1258.00,0.0108
1257.00,0.0114
1256.00,0.0116
1255.00,0.0114
1254.00,0.0109
1253.00,0.0101
1252.00,0.0094
1251.00,0.0088
1250.00,0.0084
1249.00,0.0082
1248.00,0.0080
1247.00,0.0078
1246.00,0.0078
1245.00,0.0078
1244.00,0.0078
1243.00,0.0077
1242.00,0.0076
1241.00,0.0074
1240.00,0.0074
1239.00,0.0073
1238.00,0.0074
1237.00,0.0074
1236.00,0.0074
1235.00,0.0075
1234.00,0.0076
1233.00,0.0078
1232.00,0.0078
1231.00,0.0078
1230.00,0.0079
1229.00,0.0080
1228.00,0.0082
1227.00,0.0085
1226.00,0.0088
1225.00,0.0091
1224.00,0.0094
1223.00,0.0098
1222.00,0.0101
1221.00,0.0105
1220.00,0.0107
1219.00,0.0109
1218.00,0.0109
1217.00,0.0108
1216.00,0.0105
1215.00,0.0101
1214.00,0.0097
1213.00,0.0094
1212.00,0.0090
1211.00,0.0088
1210.00,0.0086
1209.00,0.0084
1208.00,0.0082
1207.00,0.0081
1206.00,0.0079
1205.00,0.0078
1204.00,0.0077
1203.00,0.0077
1202.00,0.0077
1201.00,0.0076
1200.00,0.0076
1199.00,0.0076
1198.00,0.0077
1197.00,0.0077
1196.00,0.0077
1195.00,0.0077
1194.00,0.0076
1193.00,0.0075
1192.00,0.0075
1191.00,0.0074
1190.00,0.0074
1189.00,0.0073
1188.00,0.0072
1187.00,0.0072
1186.00,0.0072
1185.00,0.0072
1184.00,0.0072
1183.00,0.0073
1182.00,0.0074
1181.00,0.0075
1180.00,0.0077
1179.00,0.0081
1178.00,0.0087
1177.00,0.0095
1176.00,0.0105
1175.00,0.0119
1174.00,0.0137
1173.00,0.0160
1172.00,0.0187
1171.00,0.0217
1170.00,0.0246
1169.00,0.0270
1168.00,0.0284
1167.00,0.0287
1166.00,0.0280
1165.00,0.0267
1164.00,0.0251
1163.00,0.0235
1162.00,0.0221
1161.00,0.0208
1160.00,0.0198
1159.00,0.0190
1158.00,0.0184
1157.00,0.0180
1156.00,0.0177
1155.00,0.0175
1154.00,0.0173
1153.00,0.0171
1152.00,0.0167
1151.00,0.0161
1150.00,0.0153
1149.00,0.0145
1148.00,0.0135
1147.00,0.0126
1146.00,0.0117
1145.00,0.0109
1144.00,0.0103
1143.00,0.0097
1142.00,0.0092
1141.00,0.0087
1140.00,0.0082
1139.00,0.0078
1138.00,0.0075
1137.00,0.0072
1136.00,0.0070
1135.00,0.0068
1134.00,0.0067
1133.00,0.0065
1132.00,0.0065
1131.00,0.0065
1130.00,0.0066
1129.00,0.0068
1128.00,0.0069
1127.00,0.0070
1126.00,0.0072
1125.00,0.0073
1124.00,0.0074
1123.00,0.0073
1122.00,0.0073
1121.00,0.0073
1120.00,0.0073
1119.00,0.0073
1118.00,0.0074
1117.00,0.0076
1116.00,0.0078
1115.00,0.0081
1114.00,0.0083
1113.00,0.0085
1112.00,0.0087
1111.00,0.0089
1110.00,0.0092
1109.00,0.0097
1108.00,0.0102
1107.00,0.0110
1106.00,0.0117
1105.00,0.0125
1104.00,0.0131
1103.00,0.0135
1102.00,0.0135
1101.00,0.0132
1100.00,0.0126
1099.00,0.0118
1098.00,0.0110
1097.00,0.0103
1096.00,0.0097
1095.00,0.0092
1094.00,0.0088
1093.00,0.0085
1092.00,0.0082
1091.00,0.0079
1090.00,0.0076
1089.00,0.0074
1088.00,0.0071
1087.00,0.0070
1086.00,0.0069
1085.00,0.0068
1084.00,0.0067
1083.00,0.0066
1082.00,0.0065
1081.00,0.0065
1080.00,0.0063
1079.00,0.0061
1078.00,0.0059
1077.00,0.0058
1076.00,0.0058
1075.00,0.0059
1074.00,0.0059
1073.00,0.0058
1072.00,0.0057
1071.00,0.0057
1070.00,0.0057
1069.00,0.0057
1068.00,0.0058
1067.00,0.0059
1066.00,0.0060
1065.00,0.0061
1064.00,0.0062
1063.00,0.0062
1062.00,0.0063
1061.00,0.0063
1060.00,0.0064
1059.00,0.0065
1058.00,0.0066
1057.00,0.0066
1056.00,0.0067
1055.00,0.0067
1054.00,0.0068
1053.00,0.0069
1052.00,0.0071
1051.00,0.0073
1050.00,0.0075
1049.00,0.0077
1048.00,0.0080
1047.00,0.0084
1046.00,0.0087
1045.00,0.0089
1044.00,0.0089
1043.00,0.0088
1042.00,0.0087
1041.00,0.0087
1040.00,0.0087
1039.00,0.0088
1038.00,0.0090
1037.00,0.0092
1036.00,0.0093
1035.00,0.0094
1034.00,0.0092
1033.00,0.0090
1032.00,0.0088
1031.00,0.0086
1030.00,0.0085
1029.00,0.0085
1028.00,0.0084
1027.00,0.0084
1026.00,0.0084
1025.00,0.0084
1024.00,0.0084
1023.00,0.0083
1022.00,0.0083
1021.00,0.0084
1020.00,0.0085
1019.00,0.0086
1018.00,0.0087
1017.00,0.0089
1016.00,0.0091
1015.00,0.0094
1014.00,0.0099
1013.00,0.0104
1012.00,0.0109
1011.00,0.0113
1010.00,0.0116
1009.00,0.0119
1008.00,0.0122
1007.00,0.0127
1006.00,0.0135
1005.00,0.0145
1004.00,0.0160
1003.00,0.0180
1002.00,0.0206
1001.00,0.0238
1000.00,0.0270
999.00,0.0297
998.00,0.0309
997.00,0.0302
996.00,0.0278
995.00,0.0243
994.00,0.0207
993.00,0.0175
992.00,0.0150
991.00,0.0133
990.00,0.0120
989.00,0.0111
988.00,0.0106
987.00,0.0103
986.00,0.0102
985.00,0.0104
984.00,0.0108
983.00,0.0115
982.00,0.0126
981.00,0.0140
980.00,0.0161
979.00,0.0188
978.00,0.0222
977.00,0.0263
976.00,0.0306
975.00,0.0345
974.00,0.0373
973.00,0.0380
972.00,0.0364
971.00,0.0328
970.00,0.0281
969.00,0.0233
968.00,0.0193
967.00,0.0161
966.00,0.0138
965.00,0.0120
964.00,0.0106
963.00,0.0096
962.00,0.0089
961.00,0.0083
960.00,0.0077
959.00,0.0073
958.00,0.0068
957.00,0.0065
956.00,0.0062
955.00,0.0061
954.00,0.0060
953.00,0.0060
952.00,0.0060
951.00,0.0060
950.00,0.0060
949.00,0.0060
948.00,0.0061
947.00,0.0063
946.00,0.0065
945.00,0.0068
944.00,0.0072
943.00,0.0076
942.00,0.0079
941.00,0.0082
940.00,0.0082
939.00,0.0080
938.00,0.0076
937.00,0.0072
936.00,0.0068
935.00,0.0064
934.00,0.0061
933.00,0.0059
932.00,0.0058
931.00,0.0057
930.00,0.0058
929.00,0.0058
928.00,0.0059
927.00,0.0059
926.00,0.0058
925.00,0.0058
924.00,0.0058
923.00,0.0058
922.00,0.0059
921.00,0.0061
920.00,0.0062
919.00,0.0065
918.00,0.0067
917.00,0.0069
916.00,0.0071
915.00,0.0072
914.00,0.0072
913.00,0.0073
912.00,0.0074
911.00,0.0074
910.00,0.0075
909.00,0.0075
908.00,0.0078
907.00,0.0084
906.00,0.0092
905.00,0.0104
904.00,0.0119
903.00,0.0138
902.00,0.0159
901.00,0.0179
900.00,0.0193
899.00,0.0198
898.00,0.0190
897.00,0.0173
896.00,0.0151
895.00,0.0131
894.00,0.0115
893.00,0.0102
892.00,0.0094
891.00,0.0088
890.00,0.0083
889.00,0.0079
888.00,0.0075
887.00,0.0073
886.00,0.0071
885.00,0.0071
884.00,0.0072
883.00,0.0072
882.00,0.0072
881.00,0.0071
880.00,0.0070
879.00,0.0070
878.00,0.0071
877.00,0.0071
876.00,0.0071
875.00,0.0071
874.00,0.0070
873.00,0.0070
872.00,0.0070
871.00,0.0070
870.00,0.0070
869.00,0.0070
868.00,0.0071
867.00,0.0072
866.00,0.0073
865.00,0.0074
864.00,0.0075
863.00,0.0076
862.00,0.0078
861.00,0.0080
860.00,0.0081
859.00,0.0083
858.00,0.0085
857.00,0.0087
856.00,0.0089
855.00,0.0090
854.00,0.0091
853.00,0.0092
852.00,0.0093
851.00,0.0096
850.00,0.0102
849.00,0.0109
848.00,0.0118
847.00,0.0131
846.00,0.0151
845.00,0.0181
844.00,0.0220
843.00,0.0262
842.00,0.0292
841.00,0.0298
840.00,0.0278
839.00,0.0240
838.00,0.0200
837.00,0.0169
836.00,0.0149
835.00,0.0136
834.00,0.0127
833.00,0.0120
832.00,0.0115
831.00,0.0111
830.00,0.0109
829.00,0.0107
828.00,0.0105
827.00,0.0103
826.00,0.0102
825.00,0.0102
824.00,0.0102
823.00,0.0103
822.00,0.0103
821.00,0.0103
820.00,0.0104
819.00,0.0107
818.00,0.0112
817.00,0.0118
816.00,0.0127
815.00,0.0139
814.00,0.0154
813.00,0.0171
812.00,0.0190
811.00,0.0208
810.00,0.0221
809.00,0.0228
808.00,0.0227
807.00,0.0219
806.00,0.0203
805.00,0.0184
804.00,0.0166
803.00,0.0150
802.00,0.0137
801.00,0.0127
800.00,0.0119
799.00,0.0113
798.00,0.0107
797.00,0.0102
796.00,0.0098
795.00,0.0094
794.00,0.0091
793.00,0.0088
792.00,0.0085
791.00,0.0082
790.00,0.0080
789.00,0.0078
788.00,0.0077
787.00,0.0076
786.00,0.0075
785.00,0.0073
784.00,0.0071
783.00,0.0070
782.00,0.0068
781.00,0.0067
780.00,0.0066
779.00,0.0064
778.00,0.0064
777.00,0.0065
776.00,0.0066
775.00,0.0068
774.00,0.0069
773.00,0.0070
772.00,0.0072
771.00,0.0074
770.00,0.0076
769.00,0.0077
768.00,0.0078
767.00,0.0078
766.00,0.0078
765.00,0.0076
764.00,0.0073
763.00,0.0069
762.00,0.0066
761.00,0.0065
760.00,0.0065
759.00,0.0064
758.00,0.0063
757.00,0.0060
756.00,0.0057
755.00,0.0055
754.00,0.0054
753.00,0.0054
752.00,0.0053
751.00,0.0053
750.00,0.0054
749.00,0.0054
748.00,0.0055
747.00,0.0055
746.00,0.0054
745.00,0.0054
744.00,0.0054
743.00,0.0055
742.00,0.0055
741.00,0.0056
740.00,0.0056
739.00,0.0056
738.00,0.0057
737.00,0.0058
736.00,0.0061
735.00,0.0064
734.00,0.0066
733.00,0.0067
732.00,0.0067
731.00,0.0066
730.00,0.0065
729.00,0.0065
728.00,0.0065
727.00,0.0065
726.00,0.0065
725.00,0.0064
724.00,0.0063
723.00,0.0063
722.00,0.0064
721.00,0.0064
720.00,0.0063
719.00,0.0061
718.00,0.0059
717.00,0.0057
716.00,0.0057
715.00,0.0057
714.00,0.0057
713.00,0.0056
712.00,0.0055
711.00,0.0055
710.00,0.0054
709.00,0.0054
708.00,0.0054
707.00,0.0056
706.00,0.0058
705.00,0.0059
704.00,0.0060
703.00,0.0060
702.00,0.0060
701.00,0.0059
700.00,0.0056
699.00,0.0054
698.00,0.0052
697.00,0.0051
696.00,0.0050
695.00,0.0049
694.00,0.0048
693.00,0.0049
692.00,0.0050
691.00,0.0052
690.00,0.0053
689.00,0.0054
688.00,0.0054
687.00,0.0054
686.00,0.0054
685.00,0.0053
684.00,0.0052
683.00,0.0051
682.00,0.0052
681.00,0.0054
680.00,0.0056
679.00,0.0056
678.00,0.0055
677.00,0.0055
676.00,0.0055
675.00,0.0056
674.00,0.0057
673.00,0.0057
672.00,0.0056
671.00,0.0055
670.00,0.0054
669.00,0.0052
668.00,0.0051
667.00,0.0054
666.00,0.0057
665.00,0.0058
664.00,0.0057
663.00,0.0055
662.00,0.0052
661.00,0.0050
660.00,0.0049
659.00,0.0048
658.00,0.0049
657.00,0.0049
656.00,0.0049
655.00,0.0048
654.00,0.0048
653.00,0.0049
652.00,0.0049
651.00,0.0050
650.00,0.0051
649.00,0.0052
648.00,0.0053
647.00,0.0053
646.00,0.0052
645.00,0.0051
644.00,0.0051
643.00,0.0051
642.00,0.0052
641.00,0.0054
640.00,0.0056
639.00,0.0057
638.00,0.0056
637.00,0.0055
636.00,0.0054
635.00,0.0054
634.00,0.0054
633.00,0.0054
632.00,0.0053
631.00,0.0052
630.00,0.0051
629.00,0.0052
628.00,0.0053
627.00,0.0054
626.00,0.0055
625.00,0.0056
624.00,0.0056
623.00,0.0055
622.00,0.0055
621.00,0.0056
620.00,0.0057
619.00,0.0058
618.00,0.0058
617.00,0.0058
616.00,0.0057
615.00,0.0056
614.00,0.0056
613.00,0.0056
612.00,0.0057
611.00,0.0059
610.00,0.0058
609.00,0.0055
608.00,0.0050
607.00,0.0047
606.00,0.0048
605.00,0.0051
604.00,0.0053
603.00,0.0055
602.00,0.0056
601.00,0.0056
600.00,0.0056
599.00,0.0057
598.00,0.0060
597.00,0.0062
596.00,0.0063
595.00,0.0061
594.00,0.0057
593.00,0.0054
592.00,0.0051
591.00,0.0052
590.00,0.0053
589.00,0.0054
588.00,0.0055
587.00,0.0056
586.00,0.0056
585.00,0.0055
584.00,0.0054
583.00,0.0054
582.00,0.0055
581.00,0.0057
580.00,0.0059
579.00,0.0060
578.00,0.0062
577.00,0.0064
576.00,0.0064
575.00,0.0064
574.00,0.0063
573.00,0.0062
572.00,0.0063
571.00,0.0063
570.00,0.0061
569.00,0.0058
568.00,0.0056
567.00,0.0057
566.00,0.0060
565.00,0.0061
564.00,0.0060
563.00,0.0058
562.00,0.0058
561.00,0.0059
560.00,0.0060
559.00,0.0061
558.00,0.0062
557.00,0.0063
556.00,0.0063
555.00,0.0062
554.00,0.0061
553.00,0.0061
552.00,0.0062
551.00,0.0062
550.00,0.0062
549.00,0.0063
548.00,0.0066
547.00,0.0068
546.00,0.0068
545.00,0.0066
544.00,0.0062
543.00,0.0059
542.00,0.0059
541.00,0.0062
540.00,0.0065
539.00,0.0066
538.00,0.0067
537.00,0.0069
536.00,0.0072
535.00,0.0077
534.00,0.0083
533.00,0.0086
532.00,0.0088
531.00,0.0087
530.00,0.0087
529.00,0.0088
528.00,0.0089
527.00,0.0091
526.00,0.0092
525.00,0.0091
524.00,0.0087
523.00,0.0082
522.00,0.0077
521.00,0.0071
520.00,0.0063
519.00,0.0058
518.00,0.0056
517.00,0.0061
516.00,0.0067
515.00,0.0071
514.00,0.0071
513.00,0.0070
512.00,0.0070
511.00,0.0074
510.00,0.0079
509.00,0.0081
508.00,0.0077
507.00,0.0070
506.00,0.0062
505.00,0.0059
504.00,0.0061
503.00,0.0067
502.00,0.0072
501.00,0.0073
500.00,0.0069
499.00,0.0065
498.00,0.0063
497.00,0.0061
496.00,0.0059
495.00,0.0057
494.00,0.0058
493.00,0.0061
492.00,0.0063
491.00,0.0062
490.00,0.0060
489.00,0.0059
488.00,0.0061
487.00,0.0066
486.00,0.0070
485.00,0.0072
484.00,0.0071
483.00,0.0067
482.00,0.0061
481.00,0.0053
480.00,0.0047
479.00,0.0045
478.00,0.0046
477.00,0.0048
476.00,0.0050
475.00,0.0054
474.00,0.0060
473.00,0.0069
472.00,0.0077
471.00,0.0085
470.00,0.0092
469.00,0.0098
468.00,0.0099
467.00,0.0098
466.00,0.0100
465.00,0.0107
464.00,0.0120
463.00,0.0138
462.00,0.0156
461.00,0.0167
460.00,0.0168
459.00,0.0162
458.00,0.0153
457.00,0.0142
456.00,0.0144
455.00,0.0148
454.00,0.0151
453.00,0.0149
452.00,0.0137
451.00,0.0114
450.00,0.0087
