Created as New Dataset,Sample 050 By Administrator Date Friday, September 05 2025
cm-1,A
4000.00,0.0010
3999.00,0.0010
3998.00,0.0010
3997.00,0.0009
3996.00,0.0009
3995.00,0.0009
3994.00,0.0009
3993.00,0.0009
3992.00,0.0009
3991.00,0.0010
3990.00,0.0010
3989.00,0.0009
3988.00,0.0009
3987.00,0.0009
3986.00,0.0009
3985.00,0.0009
3984.00,0.0009
3983.00,0.0009
3982.00,0.0008
3981.00,0.0008
3980.00,0.0008
3979.00,0.0008
3978.00,0.0008
3977.00,0.0008
3976.00,0.0008
3975.00,0.0008
3974.00,0.0008
3973.00,0.0008
3972.00,0.0008
3971.00,0.0008
3970.00,0.0008
3969.00,0.0008
3968.00,0.0008
3967.00,0.0007
3966.00,0.0007
3965.00,0.0007
3964.00,0.0007
3963.00,0.0007
3962.00,0.0007
3961.00,0.0007
3960.00,0.0007
3959.00,0.0008
3958.00,0.0008
3957.00,0.0008
3956.00,0.0008
3955.00,0.0008
3954.00,0.0007
3953.00,0.0007
3952.00,0.0007
3951.00,0.0007
3950.00,0.0007
3949.00,0.0007
3948.00,0.0007
3947.00,0.0007
3946.00,0.0007
3945.00,0.0008
3944.00,0.0008
3943.00,0.0008
3942.00,0.0008
3941.00,0.0008
3940.00,0.0008
3939.00,0.0008
3938.00,0.0008
3937.00,0.0007
3936.00,0.0007
3935.00,0.0007
3934.00,0.0007
3933.00,0.0008
3932.00,0.0008
3931.00,0.0008
3930.00,0.0008
3929.00,0.0008
3928.00,0.0008
3927.00,0.0008
3926.00,0.0008
3925.00,0.0008
3924.00,0.0008
3923.00,0.0008
3922.00,0.0008
3921.00,0.0008
3920.00,0.0008
3919.00,0.0008
3918.00,0.0008
3917.00,0.0008
3916.00,0.0008
3915.00,0.0008
3914.00,0.0008
3913.00,0.0008
3912.00,0.0008
3911.00,0.0008
3910.00,0.0008
3909.00,0.0008
3908.00,0.0008
3907.00,0.0008
3906.00,0.0008
3905.00,0.0008
3904.00,0.0007
3903.00,0.0007
3902.00,0.0007
3901.00,0.0007
3900.00,0.0007
3899.00,0.0007
3898.00,0.0007
3897.00,0.0007
3896.00,0.0007
3895.00,0.0007
3894.00,0.0008
3893.00,0.0008
3892.00,0.0008
3891.00,0.0008
3890.00,0.0008
3889.00,0.0008
3888.00,0.0008
3887.00,0.0008
3886.00,0.0008
3885.00,0.0007
3884.00,0.0008
3883.00,0.0008
3882.00,0.0008
3881.00,0.0008
3880.00,0.0008
3879.00,0.0008
3878.00,0.0008
3877.00,0.0008
3876.00,0.0008
3875.00,0.0007
3874.00,0.0007
3873.00,0.0007
3872.00,0.0007
3871.00,0.0007
3870.00,0.0007
3869.00,0.0006
3868.00,0.0006
3867.00,0.0006
3866.00,0.0006
3865.00,0.0006
3864.00,0.0006
3863.00,0.0007
3862.00,0.0007
3861.00,0.0007
3860.00,0.0007
3859.00,0.0007
3858.00,0.0007
3857.00,0.0006
3856.00,0.0006
3855.00,0.0006
3854.00,0.0006
3853.00,0.0005
3852.00,0.0005
3851.00,0.0005
3850.00,0.0006
3849.00,0.0006
3848.00,0.0006
3847.00,0.0006
3846.00,0.0006
3845.00,0.0006
3844.00,0.0006
3843.00,0.0006
3842.00,0.0006
3841.00,0.0006
3840.00,0.0006
3839.00,0.0006
3838.00,0.0006
3837.00,0.0006
3836.00,0.0005
3835.00,0.0006
3834.00,0.0006
3833.00,0.0006
3832.00,0.0006
3831.00,0.0006
3830.00,0.0006
3829.00,0.0006
3828.00,0.0006
3827.00,0.0007
3826.00,0.0007
3825.00,0.0007
3824.00,0.0007
3823.00,0.0007
3822.00,0.0007
3821.00,0.0007
3820.00,0.0007
3819.00,0.0006
3818.00,0.0006
3817.00,0.0006
3816.00,0.0007
3815.00,0.0007
3814.00,0.0008
3813.00,0.0008
3812.00,0.0008
3811.00,0.0008
3810.00,0.0007
3809.00,0.0007
3808.00,0.0007
3807.00,0.0007
3806.00,0.0007
3805.00,0.0007
3804.00,0.0007
3803.00,0.0007
3802.00,0.0007
3801.00,0.0007
3800.00,0.0007
3799.00,0.0007
3798.00,0.0007
3797.00,0.0007
3796.00,0.0007
3795.00,0.0007
3794.00,0.0007
3793.00,0.0007
3792.00,0.0007
3791.00,0.0007
3790.00,0.0008
3789.00,0.0008
3788.00,0.0008
3787.00,0.0008
3786.00,0.0008
3785.00,0.0008
3784.00,0.0007
3783.00,0.0007
3782.00,0.0007
3781.00,0.0007
3780.00,0.0007
3779.00,0.0007
3778.00,0.0007
3777.00,0.0007
3776.00,0.0007
3775.00,0.0008
3774.00,0.0008
3773.00,0.0008
3772.00,0.0009
3771.00,0.0009
3770.00,0.0008
3769.00,0.0008
3768.00,0.0008
3767.00,0.0008
3766.00,0.0008
3765.00,0.0008
3764.00,0.0008
3763.00,0.0008
3762.00,0.0008
3761.00,0.0008
3760.00,0.0007
3759.00,0.0007
3758.00,0.0007
3757.00,0.0007
3756.00,0.0006
3755.00,0.0006
3754.00,0.0006
3753.00,0.0005
3752.00,0.0005
3751.00,0.0005
3750.00,0.0005
3749.00,0.0005
3748.00,0.0005
3747.00,0.0005
3746.00,0.0005
3745.00,0.0005
3744.00,0.0006
3743.00,0.0006
3742.00,0.0006
3741.00,0.0006
3740.00,0.0007
3739.00,0.0007
3738.00,0.0007
3737.00,0.0007
3736.00,0.0007
3735.00,0.0007
3734.00,0.0007
3733.00,0.0006
3732.00,0.0006
3731.00,0.0006
3730.00,0.0006
3729.00,0.0005
3728.00,0.0005
3727.00,0.0005
3726.00,0.0005
3725.00,0.0005
3724.00,0.0005
3723.00,0.0006
3722.00,0.0006
3721.00,0.0006
3720.00,0.0006
3719.00,0.0006
3718.00,0.0006
3717.00,0.0006
3716.00,0.0006
3715.00,0.0006
3714.00,0.0006
3713.00,0.0006
3712.00,0.0006
3711.00,0.0007
3710.00,0.0006
3709.00,0.0006
3708.00,0.0005
3707.00,0.0005
3706.00,0.0005
3705.00,0.0005
3704.00,0.0005
3703.00,0.0006
3702.00,0.0006
3701.00,0.0006
3700.00,0.0006
3699.00,0.0006
3698.00,0.0006
3697.00,0.0006
3696.00,0.0006
3695.00,0.0005
3694.00,0.0005
3693.00,0.0005
3692.00,0.0005
3691.00,0.0004
3690.00,0.0004
3689.00,0.0004
3688.00,0.0004
3687.00,0.0004
3686.00,0.0005
3685.00,0.0005
3684.00,0.0004
3683.00,0.0004
3682.00,0.0004
3681.00,0.0004
3680.00,0.0004
3679.00,0.0004
3678.00,0.0004
3677.00,0.0004
3676.00,0.0004
3675.00,0.0003
3674.00,0.0003
3673.00,0.0002
3672.00,0.0002
3671.00,0.0002
3670.00,0.0003
3669.00,0.0003
3668.00,0.0003
3667.00,0.0003
3666.00,0.0003
3665.00,0.0003
3664.00,0.0003
3663.00,0.0003
3662.00,0.0003
3661.00,0.0004
3660.00,0.0004
3659.00,0.0004
3658.00,0.0004
3657.00,0.0003
3656.00,0.0003
3655.00,0.0003
3654.00,0.0002
3653.00,0.0003
3652.00,0.0003
3651.00,0.0003
3650.00,0.0003
3649.00,0.0003
3648.00,0.0003
3647.00,0.0003
3646.00,0.0003
3645.00,0.0003
3644.00,0.0003
3643.00,0.0003
3642.00,0.0004
3641.00,0.0004
3640.00,0.0004
3639.00,0.0005
3638.00,0.0005
3637.00,0.0005
3636.00,0.0005
3635.00,0.0005
3634.00,0.0005
3633.00,0.0005
3632.00,0.0005
3631.00,0.0005
3630.00,0.0005
3629.00,0.0005
3628.00,0.0005
3627.00,0.0005
3626.00,0.0005
3625.00,0.0005
3624.00,0.0005
3623.00,0.0005
3622.00,0.0004
3621.00,0.0004
3620.00,0.0003
3619.00,0.0003
3618.00,0.0004
3617.00,0.0004
3616.00,0.0005
3615.00,0.0005
3614.00,0.0005
3613.00,0.0006
3612.00,0.0006
3611.00,0.0006
3610.00,0.0006
3609.00,0.0006
3608.00,0.0007
3607.00,0.0007
3606.00,0.0007
3605.00,0.0006
3604.00,0.0006
3603.00,0.0006
3602.00,0.0006
3601.00,0.0006
3600.00,0.0006
3599.00,0.0005
3598.00,0.0006
3597.00,0.0006
3596.00,0.0006
3595.00,0.0006
3594.00,0.0006
3593.00,0.0006
3592.00,0.0006
3591.00,0.0006
3590.00,0.0006
3589.00,0.0006
3588.00,0.0006
3587.00,0.0006
3586.00,0.0006
3585.00,0.0006
3584.00,0.0007
3583.00,0.0007
3582.00,0.0007
3581.00,0.0007
3580.00,0.0007
3579.00,0.0007
3578.00,0.0008
3577.00,0.0008
3576.00,0.0008
3575.00,0.0009
3574.00,0.0009
3573.00,0.0009
3572.00,0.0009
3571.00,0.0009
3570.00,0.0009
3569.00,0.0010
3568.00,0.0009
3567.00,0.0009
3566.00,0.0009
3565.00,0.0008
3564.00,0.0008
3563.00,0.0009
3562.00,0.0009
3561.00,0.0010
3560.00,0.0010
3559.00,0.0010
3558.00,0.0010
3557.00,0.0010
3556.00,0.0010
3555.00,0.0010
3554.00,0.0011
3553.00,0.0011
3552.00,0.0011
3551.00,0.0011
3550.00,0.0010
3549.00,0.0010
3548.00,0.0010
3547.00,0.0011
3546.00,0.0011
3545.00,0.0011
3544.00,0.0012
3543.00,0.0012
3542.00,0.0012
3541.00,0.0012
3540.00,0.0012
3539.00,0.0012
3538.00,0.0012
3537.00,0.0012
3536.00,0.0012
3535.00,0.0012
3534.00,0.0011
3533.00,0.0011
3532.00,0.0012
3531.00,0.0012
3530.00,0.0012
3529.00,0.0013
3528.00,0.0012
3527.00,0.0012
3526.00,0.0012
3525.00,0.0012
3524.00,0.0013
3523.00,0.0013
3522.00,0.0013
3521.00,0.0013
3520.00,0.0013
3519.00,0.0013
3518.00,0.0013
3517.00,0.0013
3516.00,0.0013
3515.00,0.0013
3514.00,0.0013
3513.00,0.0013
3512.00,0.0014
3511.00,0.0014
3510.00,0.0014
3509.00,0.0014
3508.00,0.0014
3507.00,0.0014
3506.00,0.0014
3505.00,0.0014
3504.00,0.0014
3503.00,0.0014
3502.00,0.0014
3501.00,0.0014
3500.00,0.0014
3499.00,0.0014
3498.00,0.0014
3497.00,0.0014
3496.00,0.0014
3495.00,0.0014
3494.00,0.0014
3493.00,0.0014
3492.00,0.0014
3491.00,0.0014
3490.00,0.0014
3489.00,0.0014
3488.00,0.0014
3487.00,0.0015
3486.00,0.0015
3485.00,0.0015
3484.00,0.0015
3483.00,0.0015
3482.00,0.0015
3481.00,0.0015
3480.00,0.0016
3479.00,0.0016
3478.00,0.0016
3477.00,0.0016
3476.00,0.0016
3475.00,0.0016
3474.00,0.0016
3473.00,0.0016
3472.00,0.0016
3471.00,0.0017
3470.00,0.0017
3469.00,0.0017
3468.00,0.0018
3467.00,0.0018
3466.00,0.0017
3465.00,0.0017
3464.00,0.0017
3463.00,0.0017
3462.00,0.0017
3461.00,0.0017
3460.00,0.0017
3459.00,0.0017
3458.00,0.0018
3457.00,0.0018
3456.00,0.0018
3455.00,0.0018
3454.00,0.0018
3453.00,0.0018
3452.00,0.0019
3451.00,0.0019
3450.00,0.0019
3449.00,0.0019
3448.00,0.0018
3447.00,0.0018
3446.00,0.0018
3445.00,0.0019
3444.00,0.0019
3443.00,0.0019
3442.00,0.0019
3441.00,0.0018
3440.00,0.0018
3439.00,0.0018
3438.00,0.0019
3437.00,0.0019
3436.00,0.0019
3435.00,0.0020
3434.00,0.0020
3433.00,0.0020
3432.00,0.0020
3431.00,0.0020
3430.00,0.0020
3429.00,0.0020
3428.00,0.0020
3427.00,0.0021
3426.00,0.0021
3425.00,0.0021
3424.00,0.0021
3423.00,0.0021
3422.00,0.0021
3421.00,0.0021
3420.00,0.0021
3419.00,0.0021
3418.00,0.0021
3417.00,0.0021
3416.00,0.0021
3415.00,0.0021
3414.00,0.0022
3413.00,0.0022
3412.00,0.0022
3411.00,0.0022
3410.00,0.0022
3409.00,0.0022
3408.00,0.0022
3407.00,0.0021
3406.00,0.0021
3405.00,0.0021
3404.00,0.0021
3403.00,0.0022
3402.00,0.0022
3401.00,0.0022
3400.00,0.0022
3399.00,0.0021
3398.00,0.0021
3397.00,0.0021
3396.00,0.0021
3395.00,0.0021
3394.00,0.0021
3393.00,0.0021
3392.00,0.0021
3391.00,0.0021
3390.00,0.0022
3389.00,0.0022
3388.00,0.0022
3387.00,0.0022
3386.00,0.0022
3385.00,0.0022
3384.00,0.0022
3383.00,0.0022
3382.00,0.0022
3381.00,0.0022
3380.00,0.0022
3379.00,0.0022
3378.00,0.0022
3377.00,0.0022
3376.00,0.0023
3375.00,0.0023
3374.00,0.0023
3373.00,0.0023
3372.00,0.0022
3371.00,0.0022
3370.00,0.0022
3369.00,0.0022
3368.00,0.0022
3367.00,0.0022
3366.00,0.0023
3365.00,0.0023
3364.00,0.0023
3363.00,0.0023
3362.00,0.0023
3361.00,0.0023
3360.00,0.0023
3359.00,0.0023
3358.00,0.0024
3357.00,0.0024
3356.00,0.0023
3355.00,0.0023
3354.00,0.0023
3353.00,0.0023
3352.00,0.0023
3351.00,0.0023
3350.00,0.0023
3349.00,0.0023
3348.00,0.0023
3347.00,0.0023
3346.00,0.0023
3345.00,0.0023
3344.00,0.0023
3343.00,0.0023
3342.00,0.0022
3341.00,0.0022
3340.00,0.0022
3339.00,0.0023
3338.00,0.0023
3337.00,0.0023
3336.00,0.0023
3335.00,0.0023
3334.00,0.0022
3333.00,0.0022
3332.00,0.0022
3331.00,0.0022
3330.00,0.0022
3329.00,0.0022
3328.00,0.0022
3327.00,0.0022
3326.00,0.0022
3325.00,0.0022
3324.00,0.0022
3323.00,0.0022
3322.00,0.0022
3321.00,0.0022
3320.00,0.0022
3319.00,0.0022
3318.00,0.0022
3317.00,0.0022
3316.00,0.0022
3315.00,0.0022
3314.00,0.0022
3313.00,0.0022
3312.00,0.0022
3311.00,0.0022
3310.00,0.0022
3309.00,0.0022
3308.00,0.0022
3307.00,0.0022
3306.00,0.0022
3305.00,0.0022
3304.00,0.0022
3303.00,0.0022
3302.00,0.0022
3301.00,0.0022
3300.00,0.0022
3299.00,0.0022
3298.00,0.0022
3297.00,0.0022
3296.00,0.0022
3295.00,0.0022
3294.00,0.0022
3293.00,0.0021
3292.00,0.0021
3291.00,0.0021
3290.00,0.0021
3289.00,0.0021
3288.00,0.0021
3287.00,0.0021
3286.00,0.0021
3285.00,0.0021
3284.00,0.0021
3283.00,0.0022
3282.00,0.0022
3281.00,0.0021
3280.00,0.0021
3279.00,0.0021
3278.00,0.0021
3277.00,0.0021
3276.00,0.0021
3275.00,0.0022
3274.00,0.0022
3273.00,0.0022
3272.00,0.0021
3271.00,0.0021
3270.00,0.0020
3269.00,0.0020
3268.00,0.0020
3267.00,0.0020
3266.00,0.0020
3265.00,0.0020
3264.00,0.0020
3263.00,0.0020
3262.00,0.0020
3261.00,0.0020
3260.00,0.0020
3259.00,0.0020
3258.00,0.0020
3257.00,0.0020
3256.00,0.0020
3255.00,0.0020
3254.00,0.0020
3253.00,0.0020
3252.00,0.0020
3251.00,0.0020
3250.00,0.0019
3249.00,0.0019
3248.00,0.0019
3247.00,0.0020
3246.00,0.0020
3245.00,0.0020
3244.00,0.0020
3243.00,0.0020
3242.00,0.0020
3241.00,0.0020
3240.00,0.0020
3239.00,0.0020
3238.00,0.0020
3237.00,0.0020
3236.00,0.0021
3235.00,0.0021
3234.00,0.0021
3233.00,0.0021
3232.00,0.0021
3231.00,0.0021
3230.00,0.0021
3229.00,0.0021
3228.00,0.0021
3227.00,0.0022
3226.00,0.0022
3225.00,0.0022
3224.00,0.0022
3223.00,0.0022
3222.00,0.0022
3221.00,0.0023
3220.00,0.0023
3219.00,0.0023
3218.00,0.0024
3217.00,0.0024
3216.00,0.0024
3215.00,0.0024
3214.00,0.0024
3213.00,0.0025
3212.00,0.0025
3211.00,0.0025
3210.00,0.0025
3209.00,0.0025
3208.00,0.0025
3207.00,0.0025
3206.00,0.0026
3205.00,0.0026
3204.00,0.0026
3203.00,0.0026
3202.00,0.0026
3201.00,0.0026
3200.00,0.0027
3199.00,0.0027
3198.00,0.0027
3197.00,0.0027
3196.00,0.0026
3195.00,0.0027
3194.00,0.0027
3193.00,0.0027
3192.00,0.0026
3191.00,0.0026
3190.00,0.0026
3189.00,0.0026
3188.00,0.0026
3187.00,0.0027
3186.00,0.0026
3185.00,0.0026
3184.00,0.0025
3183.00,0.0025
3182.00,0.0024
3181.00,0.0024
3180.00,0.0023
3179.00,0.0023
3178.00,0.0024
3177.00,0.0024
3176.00,0.0024
3175.00,0.0024
3174.00,0.0024
3173.00,0.0023
3172.00,0.0023
3171.00,0.0023
3170.00,0.0023
3169.00,0.0023
3168.00,0.0023
3167.00,0.0023
3166.00,0.0023
3165.00,0.0023
3164.00,0.0023
3163.00,0.0023
3162.00,0.0024
3161.00,0.0024
3160.00,0.0024
3159.00,0.0024
3158.00,0.0024
3157.00,0.0024
3156.00,0.0024
3155.00,0.0024
3154.00,0.0024
3153.00,0.0024
3152.00,0.0025
3151.00,0.0025
3150.00,0.0025
3149.00,0.0024
3148.00,0.0024
3147.00,0.0024
3146.00,0.0024
3145.00,0.0024
3144.00,0.0024
3143.00,0.0024
3142.00,0.0024
3141.00,0.0023
3140.00,0.0023
3139.00,0.0024
3138.00,0.0024
3137.00,0.0024
3136.00,0.0023
3135.00,0.0023
3134.00,0.0022
3133.00,0.0022
3132.00,0.0022
3131.00,0.0022
3130.00,0.0022
3129.00,0.0022
3128.00,0.0022
3127.00,0.0022
3126.00,0.0021
3125.00,0.0021
3124.00,0.0021
3123.00,0.0020
3122.00,0.0020
3121.00,0.0020
3120.00,0.0020
3119.00,0.0021
3118.00,0.0021
3117.00,0.0020
3116.00,0.0020
3115.00,0.0020
3114.00,0.0019
3113.00,0.0019
3112.00,0.0019
3111.00,0.0020
3110.00,0.0020
3109.00,0.0020
3108.00,0.0021
3107.00,0.0021
3106.00,0.0021
3105.00,0.0021
3104.00,0.0020
3103.00,0.0020
3102.00,0.0020
3101.00,0.0020
3100.00,0.0020
3099.00,0.0020
3098.00,0.0020
3097.00,0.0020
3096.00,0.0021
3095.00,0.0021
3094.00,0.0021
3093.00,0.0020
3092.00,0.0020
3091.00,0.0020
3090.00,0.0020
3089.00,0.0020
3088.00,0.0020
3087.00,0.0020
3086.00,0.0020
3085.00,0.0020
3084.00,0.0020
3083.00,0.0020
3082.00,0.0020
3081.00,0.0019
3080.00,0.0019
3079.00,0.0019
3078.00,0.0019
3077.00,0.0019
3076.00,0.0019
3075.00,0.0020
3074.00,0.0021
3073.00,0.0021
3072.00,0.0021
3071.00,0.0021
3070.00,0.0021
3069.00,0.0022
3068.00,0.0022
3067.00,0.0022
3066.00,0.0022
3065.00,0.0022
3064.00,0.0021
3063.00,0.0021
3062.00,0.0022
3061.00,0.0022
3060.00,0.0023
3059.00,0.0023
3058.00,0.0023
3057.00,0.0023
3056.00,0.0024
3055.00,0.0024
3054.00,0.0025
3053.00,0.0025
3052.00,0.0025
3051.00,0.0025
3050.00,0.0025
3049.00,0.0025
3048.00,0.0025
3047.00,0.0025
3046.00,0.0025
3045.00,0.0026
3044.00,0.0026
3043.00,0.0026
3042.00,0.0026
3041.00,0.0027
3040.00,0.0027
3039.00,0.0027
3038.00,0.0028
3037.00,0.0028
3036.00,0.0028
3035.00,0.0029
3034.00,0.0029
3033.00,0.0029
3032.00,0.0030
3031.00,0.0030
3030.00,0.0031
3029.00,0.0031
3028.00,0.0031
3027.00,0.0032
3026.00,0.0032
3025.00,0.0033
3024.00,0.0033
3023.00,0.0034
3022.00,0.0035
3021.00,0.0036
3020.00,0.0037
3019.00,0.0038
3018.00,0.0038
3017.00,0.0039
3016.00,0.0040
3015.00,0.0041
3014.00,0.0042
3013.00,0.0043
3012.00,0.0044
3011.00,0.0045
3010.00,0.0046
3009.00,0.0047
3008.00,0.0049
3007.00,0.0050
3006.00,0.0051
3005.00,0.0053
3004.00,0.0055
3003.00,0.0057
3002.00,0.0060
3001.00,0.0062
3000.00,0.0065
2999.00,0.0068
2998.00,0.0071
2997.00,0.0075
2996.00,0.0078
2995.00,0.0082
2994.00,0.0087
2993.00,0.0091
2992.00,0.0096
2991.00,0.0101
2990.00,0.0107
2989.00,0.0114
2988.00,0.0122
2987.00,0.0131
2986.00,0.0140
2985.00,0.0150
2984.00,0.0162
2983.00,0.0175
2982.00,0.0191
2981.00,0.0209
2980.00,0.0229
2979.00,0.0251
2978.00,0.0277
2977.00,0.0306
2976.00,0.0339
2975.00,0.0376
2974.00,0.0417
2973.00,0.0464
2972.00,0.0517
2971.00,0.0576
2970.00,0.0642
2969.00,0.0713
2968.00,0.0790
2967.00,0.0871
2966.00,0.0955
2965.00,0.1038
2964.00,0.1118
2963.00,0.1192
2962.00,0.1256
2961.00,0.1311
2960.00,0.1357
2959.00,0.1400
2958.00,0.1445
2957.00,0.1496
2956.00,0.1558
2955.00,0.1634
2954.00,0.1721
2953.00,0.1814
2952.00,0.1904
2951.00,0.1977
2950.00,0.2020
2949.00,0.2023
2948.00,0.1979
2947.00,0.1890
2946.00,0.1766
2945.00,0.1623
2944.00,0.1478
2943.00,0.1347
2942.00,0.1239
2941.00,0.1160
2940.00,0.1108
2939.00,0.1083
2938.00,0.1082
2937.00,0.1101
2936.00,0.1140
2935.00,0.1196
2934.00,0.1268
2933.00,0.1354
2932.00,0.1453
2931.00,0.1562
2930.00,0.1680
2929.00,0.1802
2928.00,0.1925
2927.00,0.2046
2926.00,0.2163
2925.00,0.2276
2924.00,0.2387
2923.00,0.2497
2922.00,0.2608
2921.00,0.2717
2920.00,0.2816
2919.00,0.2897
2918.00,0.2947
2917.00,0.2956
2916.00,0.2921
2915.00,0.2844
2914.00,0.2737
2913.00,0.2613
2912.00,0.2484
2911.00,0.2360
2910.00,0.2247
2909.00,0.2143
2908.00,0.2048
2907.00,0.1958
2906.00,0.1873
2905.00,0.1789
2904.00,0.1708
2903.00,0.1628
2902.00,0.1550
2901.00,0.1476
2900.00,0.1406
2899.00,0.1340
2898.00,0.1280
2897.00,0.1225
2896.00,0.1178
2895.00,0.1138
2894.00,0.1106
2893.00,0.1082
2892.00,0.1065
2891.00,0.1055
2890.00,0.1051
2889.00,0.1052
2888.00,0.1058
2887.00,0.1067
2886.00,0.1080
2885.00,0.1097
2884.00,0.1119
2883.00,0.1146
2882.00,0.1179
2881.00,0.1216
2880.00,0.1253
2879.00,0.1285
2878.00,0.1308
2877.00,0.1318
2876.00,0.1317
2875.00,0.1308
2874.00,0.1298
2873.00,0.1293
2872.00,0.1297
2871.00,0.1311
2870.00,0.1332
2869.00,0.1356
2868.00,0.1373
2867.00,0.1374
2866.00,0.1348
2865.00,0.1292
2864.00,0.1208
2863.00,0.1105
2862.00,0.0996
2861.00,0.0892
2860.00,0.0801
2859.00,0.0727
2858.00,0.0670
2857.00,0.0630
2856.00,0.0603
2855.00,0.0588
2854.00,0.0583
2853.00,0.0587
2852.00,0.0599
2851.00,0.0618
2850.00,0.0643
2849.00,0.0673
2848.00,0.0708
2847.00,0.0750
2846.00,0.0799
2845.00,0.0857
2844.00,0.0923
2843.00,0.0996
2842.00,0.1071
2841.00,0.1143
2840.00,0.1204
2839.00,0.1244
2838.00,0.1254
2837.00,0.1230
2836.00,0.1169
2835.00,0.1079
2834.00,0.0971
2833.00,0.0856
2832.00,0.0747
2831.00,0.0649
2830.00,0.0567
2829.00,0.0499
2828.00,0.0444
2827.00,0.0400
2826.00,0.0365
2825.00,0.0336
2824.00,0.0311
2823.00,0.0291
2822.00,0.0273
2821.00,0.0258
2820.00,0.0245
2819.00,0.0234
2818.00,0.0224
2817.00,0.0216
2816.00,0.0209
2815.00,0.0203
2814.00,0.0197
2813.00,0.0191
2812.00,0.0185
2811.00,0.0179
2810.00,0.0173
2809.00,0.0167
2808.00,0.0160
2807.00,0.0154
2806.00,0.0147
2805.00,0.0140
2804.00,0.0134
2803.00,0.0128
2802.00,0.0122
2801.00,0.0118
2800.00,0.0114
2799.00,0.0111
2798.00,0.0108
2797.00,0.0105
2796.00,0.0103
2795.00,0.0100
2794.00,0.0097
2793.00,0.0094
2792.00,0.0091
2791.00,0.0088
2790.00,0.0085
2789.00,0.0082
2788.00,0.0079
2787.00,0.0077
2786.00,0.0075
2785.00,0.0072
2784.00,0.0070
2783.00,0.0068
2782.00,0.0067
2781.00,0.0065
2780.00,0.0063
2779.00,0.0062
2778.00,0.0060
2777.00,0.0059
2776.00,0.0057
2775.00,0.0056
2774.00,0.0055
2773.00,0.0055
2772.00,0.0054
2771.00,0.0054
2770.00,0.0054
2769.00,0.0053
2768.00,0.0053
2767.00,0.0053
2766.00,0.0052
2765.00,0.0052
2764.00,0.0052
2763.00,0.0051
2762.00,0.0051
2761.00,0.0050
2760.00,0.0050
2759.00,0.0050
2758.00,0.0050
2757.00,0.0050
2756.00,0.0049
2755.00,0.0049
2754.00,0.0049
2753.00,0.0049
2752.00,0.0049
2751.00,0.0049
2750.00,0.0050
2749.00,0.0050
2748.00,0.0050
2747.00,0.0050
2746.00,0.0051
2745.00,0.0051
2744.00,0.0052
2743.00,0.0052
2742.00,0.0053
2741.00,0.0055
2740.00,0.0056
2739.00,0.0058
2738.00,0.0059
2737.00,0.0061
2736.00,0.0063
2735.00,0.0064
2734.00,0.0066
2733.00,0.0067
2732.00,0.0069
2731.00,0.0071
2730.00,0.0074
2729.00,0.0077
2728.00,0.0080
2727.00,0.0083
2726.00,0.0087
2725.00,0.0089
2724.00,0.0091
2723.00,0.0091
2722.00,0.0090
2721.00,0.0088
2720.00,0.0085
2719.00,0.0082
2718.00,0.0078
2717.00,0.0074
2716.00,0.0070
2715.00,0.0067
2714.00,0.0064
2713.00,0.0061
2712.00,0.0059
2711.00,0.0057
2710.00,0.0056
2709.00,0.0054
2708.00,0.0053
2707.00,0.0052
2706.00,0.0050
2705.00,0.0048
2704.00,0.0047
2703.00,0.0046
2702.00,0.0045
2701.00,0.0044
2700.00,0.0044
2699.00,0.0043
2698.00,0.0043
2697.00,0.0043
2696.00,0.0042
2695.00,0.0042
2694.00,0.0042
2693.00,0.0042
2692.00,0.0042
2691.00,0.0042
2690.00,0.0042
2689.00,0.0042
2688.00,0.0042
2687.00,0.0042
2686.00,0.0043
2685.00,0.0043
2684.00,0.0042
2683.00,0.0042
2682.00,0.0042
2681.00,0.0043
2680.00,0.0043
2679.00,0.0043
2678.00,0.0043
2677.00,0.0043
2676.00,0.0044
2675.00,0.0044
2674.00,0.0043
2673.00,0.0043
2672.00,0.0043
2671.00,0.0042
2670.00,0.0042
2669.00,0.0043
2668.00,0.0043
2667.00,0.0043
2666.00,0.0044
2665.00,0.0044
2664.00,0.0045
2663.00,0.0046
2662.00,0.0046
2661.00,0.0047
2660.00,0.0047
2659.00,0.0047
2658.00,0.0047
2657.00,0.0047
2656.00,0.0046
2655.00,0.0045
2654.00,0.0045
2653.00,0.0044
2652.00,0.0044
2651.00,0.0043
2650.00,0.0042
2649.00,0.0042
2648.00,0.0041
2647.00,0.0041
2646.00,0.0041
2645.00,0.0040
2644.00,0.0040
2643.00,0.0040
2642.00,0.0040
2641.00,0.0040
2640.00,0.0039
2639.00,0.0039
2638.00,0.0038
2637.00,0.0038
2636.00,0.0037
2635.00,0.0036
2634.00,0.0036
2633.00,0.0036
2632.00,0.0037
2631.00,0.0037
2630.00,0.0037
2629.00,0.0038
2628.00,0.0038
2627.00,0.0038
2626.00,0.0039
2625.00,0.0039
2624.00,0.0039
2623.00,0.0039
2622.00,0.0039
2621.00,0.0039
2620.00,0.0040
2619.00,0.0040
2618.00,0.0040
2617.00,0.0040
2616.00,0.0040
2615.00,0.0040
2614.00,0.0040
2613.00,0.0040
2612.00,0.0040
2611.00,0.0039
2610.00,0.0037
2609.00,0.0036
2608.00,0.0034
2607.00,0.0034
2606.00,0.0033
2605.00,0.0033
2604.00,0.0032
2603.00,0.0031
2602.00,0.0031
2601.00,0.0031
2600.00,0.0031
2599.00,0.0031
2598.00,0.0032
2597.00,0.0032
2596.00,0.0033
2595.00,0.0033
2594.00,0.0033
2593.00,0.0034
2592.00,0.0034
2591.00,0.0034
2590.00,0.0035
2589.00,0.0036
2588.00,0.0036
2587.00,0.0037
2586.00,0.0038
2585.00,0.0040
2584.00,0.0041
2583.00,0.0041
2582.00,0.0041
2581.00,0.0040
2580.00,0.0040
2579.00,0.0039
2578.00,0.0038
2577.00,0.0037
2576.00,0.0036
2575.00,0.0034
2574.00,0.0033
2573.00,0.0032
2572.00,0.0031
2571.00,0.0030
2570.00,0.0030
2569.00,0.0029
2568.00,0.0028
2567.00,0.0027
2566.00,0.0026
2565.00,0.0025
2564.00,0.0024
2563.00,0.0024
2562.00,0.0023
2561.00,0.0022
2560.00,0.0022
2559.00,0.0021
2558.00,0.0021
2557.00,0.0021
2556.00,0.0022
2555.00,0.0022
2554.00,0.0022
2553.00,0.0022
2552.00,0.0021
2551.00,0.0020
2550.00,0.0020
2549.00,0.0019
2548.00,0.0019
2547.00,0.0018
2546.00,0.0018
2545.00,0.0017
2544.00,0.0016
2543.00,0.0016
2542.00,0.0016
2541.00,0.0017
2540.00,0.0016
2539.00,0.0016
2538.00,0.0016
2537.00,0.0016
2536.00,0.0016
2535.00,0.0016
2534.00,0.0016
2533.00,0.0015
2532.00,0.0015
2531.00,0.0015
2530.00,0.0015
2529.00,0.0015
2528.00,0.0015
2527.00,0.0015
2526.00,0.0015
2525.00,0.0014
2524.00,0.0013
2523.00,0.0012
2522.00,0.0012
2521.00,0.0011
2520.00,0.0011
2519.00,0.0011
2518.00,0.0011
2517.00,0.0011
2516.00,0.0010
2515.00,0.0010
2514.00,0.0011
2513.00,0.0011
2512.00,0.0011
2511.00,0.0011
2510.00,0.0011
2509.00,0.0011
2508.00,0.0011
2507.00,0.0010
2506.00,0.0010
2505.00,0.0010
2504.00,0.0010
2503.00,0.0010
2502.00,0.0010
2501.00,0.0009
2500.00,0.0009
2499.00,0.0009
2498.00,0.0010
2497.00,0.0011
2496.00,0.0011
2495.00,0.0011
2494.00,0.0011
2493.00,0.0010
2492.00,0.0010
2491.00,0.0010
2490.00,0.0010
2489.00,0.0010
2488.00,0.0010
2487.00,0.0010
2486.00,0.0009
2485.00,0.0009
2484.00,0.0009
2483.00,0.0009
2482.00,0.0009
2481.00,0.0009
2480.00,0.0009
2479.00,0.0010
2478.00,0.0010
2477.00,0.0009
2476.00,0.0009
2475.00,0.0008
2474.00,0.0008
2473.00,0.0007
2472.00,0.0007
2471.00,0.0007
2470.00,0.0008
2469.00,0.0008
2468.00,0.0009
2467.00,0.0010
2466.00,0.0010
2465.00,0.0011
2464.00,0.0011
2463.00,0.0010
2462.00,0.0010
2461.00,0.0010
2460.00,0.0010
2459.00,0.0010
2458.00,0.0009
2457.00,0.0010
2456.00,0.0010
2455.00,0.0010
2454.00,0.0010
2453.00,0.0010
2452.00,0.0010
2451.00,0.0010
2450.00,0.0009
2449.00,0.0009
2448.00,0.0009
2447.00,0.0009
2446.00,0.0009
2445.00,0.0010
2444.00,0.0010
2443.00,0.0011
2442.00,0.0011
2441.00,0.0011
2440.00,0.0012
2439.00,0.0012
2438.00,0.0011
2437.00,0.0011
2436.00,0.0011
2435.00,0.0011
2434.00,0.0011
2433.00,0.0011
2432.00,0.0011
2431.00,0.0012
2430.00,0.0012
2429.00,0.0012
2428.00,0.0012
2427.00,0.0011
2426.00,0.0011
2425.00,0.0010
2424.00,0.0010
2423.00,0.0010
2422.00,0.0010
2421.00,0.0010
2420.00,0.0010
2419.00,0.0010
2418.00,0.0010
2417.00,0.0010
2416.00,0.0009
2415.00,0.0009
2414.00,0.0009
2413.00,0.0009
2412.00,0.0008
2411.00,0.0008
2410.00,0.0008
2409.00,0.0008
2408.00,0.0008
2407.00,0.0007
2406.00,0.0007
2405.00,0.0007
2404.00,0.0007
2403.00,0.0007
2402.00,0.0007
2401.00,0.0007
2400.00,0.0007
2399.00,0.0008
2398.00,0.0008
2397.00,0.0008
2396.00,0.0008
2395.00,0.0007
2394.00,0.0007
2393.00,0.0007
2392.00,0.0007
2391.00,0.0007
2390.00,0.0007
2389.00,0.0007
2388.00,0.0007
2387.00,0.0006
2386.00,0.0006
2385.00,0.0006
2384.00,0.0005
2383.00,0.0005
2382.00,0.0005
2381.00,0.0004
2380.00,0.0003
2379.00,0.0002
2378.00,0.0002
2377.00,0.0002
2376.00,0.0002
2375.00,0.0002
2374.00,0.0002
2373.00,0.0003
2372.00,0.0003
2371.00,0.0002
2370.00,0.0001
2369.00,-0.0000
2368.00,-0.0001
2367.00,-0.0001
2366.00,0.0000
2365.00,0.0001
2364.00,0.0002
2363.00,0.0002
2362.00,0.0002
2361.00,0.0001
2360.00,0.0001
2359.00,0.0001
2358.00,0.0001
2357.00,0.0002
2356.00,0.0002
2355.00,0.0002
2354.00,0.0001
2353.00,0.0002
2352.00,0.0002
2351.00,0.0002
2350.00,0.0002
2349.00,0.0002
2348.00,0.0002
2347.00,0.0002
2346.00,0.0003
2345.00,0.0002
2344.00,0.0002
2343.00,0.0002
2342.00,0.0003
2341.00,0.0003
2340.00,0.0004
2339.00,0.0004
2338.00,0.0005
2337.00,0.0005
2336.00,0.0005
2335.00,0.0005
2334.00,0.0004
2333.00,0.0003
2332.00,0.0002
2331.00,0.0002
2330.00,0.0002
2329.00,0.0003
2328.00,0.0006
2327.00,0.0009
2326.00,0.0014
2325.00,0.0018
2324.00,0.0019
2323.00,0.0018
2322.00,0.0015
2321.00,0.0012
2320.00,0.0010
2319.00,0.0009
2318.00,0.0009
2317.00,0.0008
2316.00,0.0008
2315.00,0.0008
2314.00,0.0007
2313.00,0.0007
2312.00,0.0007
2311.00,0.0007
2310.00,0.0006
2309.00,0.0006
2308.00,0.0006
2307.00,0.0006
2306.00,0.0007
2305.00,0.0008
2304.00,0.0008
2303.00,0.0008
2302.00,0.0008
2301.00,0.0008
2300.00,0.0008
2299.00,0.0009
2298.00,0.0009
2297.00,0.0010
2296.00,0.0011
2295.00,0.0012
2294.00,0.0013
2293.00,0.0014
2292.00,0.0015
2291.00,0.0015
2290.00,0.0016
2289.00,0.0016
2288.00,0.0017
2287.00,0.0017
2286.00,0.0018
2285.00,0.0019
2284.00,0.0019
2283.00,0.0018
2282.00,0.0016
2281.00,0.0015
2280.00,0.0013
2279.00,0.0013
2278.00,0.0013
2277.00,0.0014
2276.00,0.0014
2275.00,0.0014
2274.00,0.0014
2273.00,0.0013
2272.00,0.0013
2271.00,0.0012
2270.00,0.0012
2269.00,0.0012
2268.00,0.0012
2267.00,0.0011
2266.00,0.0010
2265.00,0.0010
2264.00,0.0010
2263.00,0.0010
2262.00,0.0010
2261.00,0.0012
2260.00,0.0014
2259.00,0.0016
2258.00,0.0016
2257.00,0.0016
2256.00,0.0015
2255.00,0.0012
2254.00,0.0010
2253.00,0.0007
2252.00,0.0006
2251.00,0.0007
2250.00,0.0008
2249.00,0.0009
2248.00,0.0010
2247.00,0.0009
2246.00,0.0008
2245.00,0.0007
2244.00,0.0006
2243.00,0.0006
2242.00,0.0006
2241.00,0.0008
2240.00,0.0009
2239.00,0.0010
2238.00,0.0010
2237.00,0.0009
2236.00,0.0009
2235.00,0.0010
2234.00,0.0010
2233.00,0.0010
2232.00,0.0010
2231.00,0.0010
2230.00,0.0010
2229.00,0.0010
2228.00,0.0009
2227.00,0.0009
2226.00,0.0009
2225.00,0.0009
2224.00,0.0009
2223.00,0.0009
2222.00,0.0009
2221.00,0.0008
2220.00,0.0008
2219.00,0.0006
2218.00,0.0005
2217.00,0.0004
2216.00,0.0004
2215.00,0.0004
2214.00,0.0005
2213.00,0.0007
2212.00,0.0007
2211.00,0.0007
2210.00,0.0007
2209.00,0.0006
2208.00,0.0007
2207.00,0.0008
2206.00,0.0010
2205.00,0.0012
2204.00,0.0012
2203.00,0.0011
2202.00,0.0008
2201.00,0.0005
2200.00,0.0003
2199.00,0.0002
2198.00,0.0003
2197.00,0.0005
2196.00,0.0007
2195.00,0.0009
2194.00,0.0011
2193.00,0.0012
2192.00,0.0012
2191.00,0.0014
2190.00,0.0016
2189.00,0.0017
2188.00,0.0015
2187.00,0.0012
2186.00,0.0008
2185.00,0.0006
2184.00,0.0006
2183.00,0.0004
2182.00,0.0002
2181.00,0.0001
2180.00,0.0001
2179.00,0.0002
2178.00,0.0005
2177.00,0.0005
2176.00,0.0004
2175.00,0.0001
2174.00,0.0001
2173.00,0.0002
2172.00,0.0005
2171.00,0.0007
2170.00,0.0009
2169.00,0.0011
2168.00,0.0013
2167.00,0.0014
2166.00,0.0015
2165.00,0.0017
2164.00,0.0021
2163.00,0.0024
2162.00,0.0024
2161.00,0.0016
2160.00,-0.0001
2159.00,-0.0020
2158.00,-0.0031
2157.00,-0.0032
2156.00,-0.0028
2155.00,-0.0023
2154.00,-0.0019
2153.00,-0.0016
2152.00,-0.0014
2151.00,-0.0013
2150.00,-0.0013
2149.00,-0.0014
2148.00,-0.0015
2147.00,-0.0016
2146.00,-0.0017
2145.00,-0.0017
2144.00,-0.0016
2143.00,-0.0016
2142.00,-0.0016
2141.00,-0.0015
2140.00,-0.0014
2139.00,-0.0014
2138.00,-0.0016
2137.00,-0.0018
2136.00,-0.0021
2135.00,-0.0025
2134.00,-0.0027
2133.00,-0.0027
2132.00,-0.0024
2131.00,-0.0020
2130.00,-0.0016
2129.00,-0.0013
2128.00,-0.0011
2127.00,-0.0010
2126.00,-0.0009
2125.00,-0.0008
2124.00,-0.0006
2123.00,-0.0005
2122.00,-0.0003
2121.00,-0.0002
2120.00,-0.0001
2119.00,-0.0001
2118.00,-0.0001
2117.00,-0.0001
2116.00,-0.0000
2115.00,0.0000
2114.00,0.0000
2113.00,0.0000
2112.00,0.0001
2111.00,0.0002
2110.00,0.0003
2109.00,0.0003
2108.00,0.0001
2107.00,-0.0001
2106.00,-0.0003
2105.00,-0.0003
2104.00,-0.0002
2103.00,0.0000
2102.00,0.0002
2101.00,0.0004
2100.00,0.0004
2099.00,0.0003
2098.00,0.0001
2097.00,-0.0001
2096.00,-0.0003
2095.00,-0.0005
2094.00,-0.0007
2093.00,-0.0008
2092.00,-0.0007
2091.00,-0.0006
2090.00,-0.0004
2089.00,-0.0003
2088.00,-0.0002
2087.00,-0.0001
2086.00,0.0001
2085.00,0.0002
2084.00,0.0003
2083.00,0.0003
2082.00,0.0002
2081.00,0.0003
2080.00,0.0004
2079.00,0.0004
2078.00,0.0004
2077.00,0.0003
2076.00,0.0002
2075.00,0.0001
2074.00,0.0001
2073.00,0.0002
2072.00,0.0003
2071.00,0.0003
2070.00,0.0002
2069.00,0.0001
2068.00,-0.0001
2067.00,-0.0002
2066.00,-0.0003
2065.00,-0.0004
2064.00,-0.0004
2063.00,-0.0005
2062.00,-0.0005
2061.00,-0.0005
2060.00,-0.0004
2059.00,-0.0004
2058.00,-0.0002
2057.00,-0.0001
2056.00,-0.0001
2055.00,-0.0001
2054.00,0.0000
2053.00,0.0004
2052.00,0.0009
2051.00,0.0012
2050.00,0.0010
2049.00,0.0005
2048.00,-0.0000
2047.00,-0.0003
2046.00,-0.0005
2045.00,-0.0004
2044.00,-0.0005
2043.00,-0.0005
2042.00,-0.0005
2041.00,-0.0004
2040.00,-0.0000
2039.00,0.0003
2038.00,0.0005
2037.00,0.0003
2036.00,-0.0000
2035.00,-0.0005
2034.00,-0.0008
2033.00,-0.0009
2032.00,-0.0008
2031.00,-0.0006
2030.00,-0.0005
2029.00,-0.0005
2028.00,-0.0005
2027.00,-0.0007
2026.00,-0.0010
2025.00,-0.0013
2024.00,-0.0015
2023.00,-0.0016
2022.00,-0.0015
2021.00,-0.0013
2020.00,-0.0010
2019.00,-0.0009
2018.00,-0.0008
2017.00,-0.0009
2016.00,-0.0009
2015.00,-0.0010
2014.00,-0.0012
2013.00,-0.0013
2012.00,-0.0014
2011.00,-0.0013
2010.00,-0.0012
2009.00,-0.0014
2008.00,-0.0017
2007.00,-0.0021
2006.00,-0.0023
2005.00,-0.0022
2004.00,-0.0019
2003.00,-0.0015
2002.00,-0.0014
2001.00,-0.0014
2000.00,-0.0016
1999.00,-0.0017
1998.00,-0.0016
1997.00,-0.0014
1996.00,-0.0012
1995.00,-0.0011
1994.00,-0.0010
1993.00,-0.0009
1992.00,-0.0008
1991.00,-0.0008
1990.00,-0.0006
1989.00,-0.0003
1988.00,-0.0003
1987.00,-0.0007
1986.00,-0.0012
1985.00,-0.0014
1984.00,-0.0011
1983.00,-0.0007
1982.00,-0.0002
1981.00,0.0003
1980.00,0.0006
1979.00,0.0004
1978.00,-0.0003
1977.00,-0.0011
1976.00,-0.0017
1975.00,-0.0019
1974.00,-0.0019
1973.00,-0.0017
1972.00,-0.0016
1971.00,-0.0015
1970.00,-0.0015
1969.00,-0.0015
1968.00,-0.0014
1967.00,-0.0014
1966.00,-0.0014
1965.00,-0.0014
1964.00,-0.0013
1963.00,-0.0013
1962.00,-0.0014
1961.00,-0.0016
1960.00,-0.0018
1959.00,-0.0021
1958.00,-0.0023
1957.00,-0.0024
1956.00,-0.0023
1955.00,-0.0021
1954.00,-0.0020
1953.00,-0.0020
1952.00,-0.0019
1951.00,-0.0017
1950.00,-0.0015
1949.00,-0.0014
1948.00,-0.0014
1947.00,-0.0016
1946.00,-0.0018
1945.00,-0.0020
1944.00,-0.0022
1943.00,-0.0023
1942.00,-0.0022
1941.00,-0.0018
1940.00,-0.0015
1939.00,-0.0012
1938.00,-0.0012
1937.00,-0.0012
1936.00,-0.0013
1935.00,-0.0013
1934.00,-0.0013
1933.00,-0.0013
1932.00,-0.0013
1931.00,-0.0013
1930.00,-0.0012
1929.00,-0.0011
1928.00,-0.0010
1927.00,-0.0009
1926.00,-0.0009
1925.00,-0.0009
1924.00,-0.0009
1923.00,-0.0010
1922.00,-0.0010
1921.00,-0.0009
1920.00,-0.0009
1919.00,-0.0008
1918.00,-0.0007
1917.00,-0.0005
1916.00,-0.0004
1915.00,-0.0004
1914.00,-0.0006
1913.00,-0.0007
1912.00,-0.0008
1911.00,-0.0009
1910.00,-0.0008
1909.00,-0.0006
1908.00,-0.0005
1907.00,-0.0004
1906.00,-0.0003
1905.00,-0.0003
1904.00,-0.0002
1903.00,-0.0002
1902.00,-0.0003
1901.00,-0.0002
1900.00,-0.0002
1899.00,-0.0002
1898.00,-0.0002
1897.00,-0.0001
1896.00,-0.0001
1895.00,-0.0001
1894.00,-0.0001
1893.00,-0.0001
1892.00,-0.0001
1891.00,-0.0001
1890.00,-0.0001
1889.00,-0.0002
1888.00,-0.0002
1887.00,-0.0002
1886.00,-0.0002
1885.00,-0.0003
1884.00,-0.0003
1883.00,-0.0003
1882.00,-0.0003
1881.00,-0.0003
1880.00,-0.0003
1879.00,-0.0003
1878.00,-0.0002
1877.00,-0.0002
1876.00,-0.0001
1875.00,-0.0002
1874.00,-0.0002
1873.00,-0.0003
1872.00,-0.0003
1871.00,-0.0002
1870.00,-0.0001
1869.00,-0.0000
1868.00,0.0000
1867.00,-0.0001
1866.00,-0.0002
1865.00,-0.0003
1864.00,-0.0004
1863.00,-0.0004
1862.00,-0.0003
1861.00,-0.0002
1860.00,-0.0001
1859.00,-0.0001
1858.00,-0.0002
1857.00,-0.0003
1856.00,-0.0003
1855.00,-0.0003
1854.00,-0.0002
1853.00,-0.0002
1852.00,-0.0002
1851.00,-0.0002
1850.00,-0.0002
1849.00,-0.0001
1848.00,-0.0000
1847.00,0.0000
1846.00,0.0000
1845.00,0.0001
1844.00,0.0001
1843.00,0.0001
1842.00,0.0000
1841.00,-0.0000
1840.00,-0.0001
1839.00,-0.0000
1838.00,0.0000
1837.00,0.0001
1836.00,0.0002
1835.00,0.0003
1834.00,0.0003
1833.00,0.0003
1832.00,0.0002
1831.00,0.0002
1830.00,0.0001
1829.00,0.0001
1828.00,0.0002
1827.00,0.0002
1826.00,0.0002
1825.00,0.0003
1824.00,0.0003
1823.00,0.0003
1822.00,0.0003
1821.00,0.0002
1820.00,0.0001
1819.00,-0.0000
1818.00,-0.0002
1817.00,-0.0003
1816.00,-0.0003
1815.00,-0.0002
1814.00,-0.0001
1813.00,0.0000
1812.00,0.0002
1811.00,0.0002
1810.00,0.0003
1809.00,0.0003
1808.00,0.0002
1807.00,0.0002
1806.00,0.0002
1805.00,0.0003
1804.00,0.0003
1803.00,0.0003
1802.00,0.0003
1801.00,0.0003
1800.00,0.0003
1799.00,0.0003
1798.00,0.0003
1797.00,0.0003
1796.00,0.0004
1795.00,0.0004
1794.00,0.0004
1793.00,0.0004
1792.00,0.0004
1791.00,0.0004
1790.00,0.0004
1789.00,0.0004
1788.00,0.0005
1787.00,0.0005
1786.00,0.0006
1785.00,0.0006
1784.00,0.0007
1783.00,0.0007
1782.00,0.0007
1781.00,0.0007
1780.00,0.0006
1779.00,0.0006
1778.00,0.0005
1777.00,0.0005
1776.00,0.0005
1775.00,0.0006
1774.00,0.0006
1773.00,0.0006
1772.00,0.0007
1771.00,0.0007
1770.00,0.0008
1769.00,0.0008
1768.00,0.0008
1767.00,0.0008
1766.00,0.0008
1765.00,0.0008
1764.00,0.0008
1763.00,0.0008
1762.00,0.0008
1761.00,0.0008
1760.00,0.0008
1759.00,0.0008
1758.00,0.0008
1757.00,0.0008
1756.00,0.0009
1755.00,0.0010
1754.00,0.0011
1753.00,0.0011
1752.00,0.0011
1751.00,0.0011
1750.00,0.0011
1749.00,0.0012
1748.00,0.0013
1747.00,0.0013
1746.00,0.0014
1745.00,0.0014
1744.00,0.0014
1743.00,0.0015
1742.00,0.0015
1741.00,0.0015
1740.00,0.0016
1739.00,0.0016
1738.00,0.0016
1737.00,0.0016
1736.00,0.0016
1735.00,0.0016
1734.00,0.0016
1733.00,0.0015
1732.00,0.0015
1731.00,0.0015
1730.00,0.0015
1729.00,0.0015
1728.00,0.0015
1727.00,0.0016
1726.00,0.0016
1725.00,0.0016
1724.00,0.0016
1723.00,0.0015
1722.00,0.0016
1721.00,0.0016
1720.00,0.0016
1719.00,0.0017
1718.00,0.0017
1717.00,0.0018
1716.00,0.0018
1715.00,0.0018
1714.00,0.0019
1713.00,0.0019
1712.00,0.0019
1711.00,0.0019
1710.00,0.0019
1709.00,0.0019
1708.00,0.0019
1707.00,0.0019
1706.00,0.0019
1705.00,0.0020
1704.00,0.0021
1703.00,0.0021
1702.00,0.0021
1701.00,0.0021
1700.00,0.0022
1699.00,0.0022
1698.00,0.0022
1697.00,0.0022
1696.00,0.0023
1695.00,0.0023
1694.00,0.0023
1693.00,0.0023
1692.00,0.0023
1691.00,0.0023
1690.00,0.0023
1689.00,0.0024
1688.00,0.0024
1687.00,0.0024
1686.00,0.0024
1685.00,0.0024
1684.00,0.0025
1683.00,0.0025
1682.00,0.0025
1681.00,0.0025
1680.00,0.0025
1679.00,0.0025
1678.00,0.0026
1677.00,0.0026
1676.00,0.0026
1675.00,0.0026
1674.00,0.0026
1673.00,0.0026
1672.00,0.0026
1671.00,0.0027
1670.00,0.0027
1669.00,0.0027
1668.00,0.0027
1667.00,0.0027
1666.00,0.0027
1665.00,0.0028
1664.00,0.0028
1663.00,0.0029
1662.00,0.0029
1661.00,0.0029
1660.00,0.0030
1659.00,0.0030
1658.00,0.0030
1657.00,0.0031
1656.00,0.0031
1655.00,0.0031
1654.00,0.0031
1653.00,0.0032
1652.00,0.0034
1651.00,0.0034
1650.00,0.0034
1649.00,0.0035
1648.00,0.0034
1647.00,0.0034
1646.00,0.0033
1645.00,0.0034
1644.00,0.0034
1643.00,0.0035
1642.00,0.0035
1641.00,0.0035
1640.00,0.0035
1639.00,0.0036
1638.00,0.0036
1637.00,0.0037
1636.00,0.0038
1635.00,0.0038
1634.00,0.0038
1633.00,0.0038
1632.00,0.0038
1631.00,0.0039
1630.00,0.0039
1629.00,0.0040
1628.00,0.0040
1627.00,0.0039
1626.00,0.0039
1625.00,0.0039
1624.00,0.0038
1623.00,0.0038
1622.00,0.0038
1621.00,0.0039
1620.00,0.0039
1619.00,0.0038
1618.00,0.0038
1617.00,0.0037
1616.00,0.0037
1615.00,0.0037
1614.00,0.0037
1613.00,0.0037
1612.00,0.0037
1611.00,0.0037
1610.00,0.0037
1609.00,0.0037
1608.00,0.0037
1607.00,0.0037
1606.00,0.0037
1605.00,0.0037
1604.00,0.0037
1603.00,0.0038
1602.00,0.0038
1601.00,0.0038
1600.00,0.0038
1599.00,0.0038
1598.00,0.0038
1597.00,0.0038
1596.00,0.0038
1595.00,0.0039
1594.00,0.0039
1593.00,0.0040
1592.00,0.0041
1591.00,0.0042
1590.00,0.0043
1589.00,0.0044
1588.00,0.0046
1587.00,0.0048
1586.00,0.0050
1585.00,0.0054
1584.00,0.0057
1583.00,0.0062
1582.00,0.0066
1581.00,0.0071
1580.00,0.0075
1579.00,0.0079
1578.00,0.0082
1577.00,0.0083
1576.00,0.0082
1575.00,0.0080
1574.00,0.0078
1573.00,0.0077
1572.00,0.0074
1571.00,0.0071
1570.00,0.0066
1569.00,0.0061
1568.00,0.0058
1567.00,0.0056
1566.00,0.0055
1565.00,0.0053
1564.00,0.0053
1563.00,0.0052
1562.00,0.0051
1561.00,0.0051
1560.00,0.0051
1559.00,0.0051
1558.00,0.0050
1557.00,0.0051
1556.00,0.0051
1555.00,0.0052
1554.00,0.0052
1553.00,0.0053
1552.00,0.0054
1551.00,0.0056
1550.00,0.0058
1549.00,0.0061
1548.00,0.0064
1547.00,0.0068
1546.00,0.0072
1545.00,0.0076
1544.00,0.0082
1543.00,0.0087
1542.00,0.0091
1541.00,0.0094
1540.00,0.0093
1539.00,0.0090
1538.00,0.0086
1537.00,0.0083
1536.00,0.0080
1535.00,0.0076
1534.00,0.0070
1533.00,0.0064
1532.00,0.0060
1531.00,0.0058
1530.00,0.0056
1529.00,0.0055
1528.00,0.0054
1527.00,0.0054
1526.00,0.0053
1525.00,0.0053
1524.00,0.0053
1523.00,0.0052
1522.00,0.0051
1521.00,0.0052
1520.00,0.0052
1519.00,0.0053
1518.00,0.0053
1517.00,0.0054
1516.00,0.0054
1515.00,0.0055
1514.00,0.0055
1513.00,0.0055
1512.00,0.0056
1511.00,0.0056
1510.00,0.0057
1509.00,0.0058
1508.00,0.0060
1507.00,0.0061
1506.00,0.0062
1505.00,0.0063
1504.00,0.0065
1503.00,0.0066
1502.00,0.0067
1501.00,0.0069
1500.00,0.0071
1499.00,0.0074
1498.00,0.0076
1497.00,0.0080
1496.00,0.0083
1495.00,0.0085
1494.00,0.0087
1493.00,0.0090
1492.00,0.0093
1491.00,0.0097
1490.00,0.0101
1489.00,0.0107
1488.00,0.0114
1487.00,0.0120
1486.00,0.0127
1485.00,0.0134
1484.00,0.0143
1483.00,0.0152
1482.00,0.0163
1481.00,0.0177
1480.00,0.0192
1479.00,0.0206
1478.00,0.0222
1477.00,0.0242
1476.00,0.0266
1475.00,0.0293
1474.00,0.0329
1473.00,0.0382
1472.00,0.0446
1471.00,0.0510
1470.00,0.0573
1469.00,0.0640
1468.00,0.0714
1467.00,0.0797
1466.00,0.0892
1465.00,0.0994
1464.00,0.1086
1463.00,0.1151
1462.00,0.1195
1461.00,0.1226
1460.00,0.1248
1459.00,0.1262
1458.00,0.1273
1457.00,0.1279
1456.00,0.1277
1455.00,0.1268
1454.00,0.1255
1453.00,0.1237
1452.00,0.1207
1451.00,0.1165
1450.00,0.1107
1449.00,0.1028
1448.00,0.0929
1447.00,0.0825
1446.00,0.0733
1445.00,0.0656
1444.00,0.0592
1443.00,0.0541
1442.00,0.0505
1441.00,0.0481
1440.00,0.0468
1439.00,0.0466
1438.00,0.0471
1437.00,0.0478
1436.00,0.0470
1435.00,0.0445
1434.00,0.0404
1433.00,0.0354
1432.00,0.0303
1431.00,0.0258
1430.00,0.0224
1429.00,0.0199
1428.00,0.0182
1427.00,0.0172
1426.00,0.0166
1425.00,0.0160
1424.00,0.0155
1423.00,0.0151
1422.00,0.0150
1421.00,0.0147
1420.00,0.0143
1419.00,0.0140
1418.00,0.0138
1417.00,0.0135
1416.00,0.0132
1415.00,0.0130
1414.00,0.0128
1413.00,0.0126
1412.00,0.0124
1411.00,0.0123
1410.00,0.0122
1409.00,0.0121
1408.00,0.0120
1407.00,0.0119
1406.00,0.0119
1405.00,0.0118
1404.00,0.0116
1403.00,0.0116
1402.00,0.0117
1401.00,0.0118
1400.00,0.0118
1399.00,0.0119
1398.00,0.0122
1397.00,0.0123
1396.00,0.0125
1395.00,0.0129
1394.00,0.0135
1393.00,0.0141
1392.00,0.0148
1391.00,0.0157
1390.00,0.0170
1389.00,0.0188
1388.00,0.0215
1387.00,0.0254
1386.00,0.0306
1385.00,0.0373
1384.00,0.0460
1383.00,0.0578
1382.00,0.0736
1381.00,0.0940
1380.00,0.1199
1379.00,0.1505
1378.00,0.1818
1377.00,0.2069
1376.00,0.2184
1375.00,0.2110
1374.00,0.1864
1373.00,0.1543
1372.00,0.1238
1371.00,0.0982
1370.00,0.0777
1369.00,0.0623
1368.00,0.0516
1367.00,0.0452
1366.00,0.0417
1365.00,0.0404
1364.00,0.0407
1363.00,0.0424
1362.00,0.0450
1361.00,0.0477
1360.00,0.0498
1359.00,0.0504
1358.00,0.0491
1357.00,0.0460
1356.00,0.0415
1355.00,0.0364
1354.00,0.0316
1353.00,0.0275
1352.00,0.0242
1351.00,0.0216
1350.00,0.0196
1349.00,0.0179
1348.00,0.0166
1347.00,0.0155
1346.00,0.0146
1345.00,0.0140
1344.00,0.0135
1343.00,0.0131
1342.00,0.0128
1341.00,0.0124
1340.00,0.0121
1339.00,0.0119
1338.00,0.0117
1337.00,0.0117
1336.00,0.0119
1335.00,0.0122
1334.00,0.0125
1333.00,0.0130
1332.00,0.0135
1331.00,0.0139
1330.00,0.0140
1329.00,0.0138
1328.00,0.0134
1327.00,0.0127
1326.00,0.0121
1325.00,0.0114
1324.00,0.0107
1323.00,0.0102
1322.00,0.0097
1321.00,0.0094
1320.00,0.0092
1319.00,0.0089
1318.00,0.0086
1317.00,0.0084
1316.00,0.0081
1315.00,0.0079
1314.00,0.0078
1313.00,0.0078
1312.00,0.0079
1311.00,0.0082
1310.00,0.0085
1309.00,0.0090
1308.00,0.0097
1307.00,0.0106
1306.00,0.0114
1305.00,0.0121
1304.00,0.0124
1303.00,0.0124
1302.00,0.0122
1301.00,0.0121
1300.00,0.0121
1299.00,0.0123
1298.00,0.0126
1297.00,0.0127
1296.00,0.0127
1295.00,0.0125
1294.00,0.0121
1293.00,0.0115
1292.00,0.0109
1291.00,0.0102
1290.00,0.0097
1289.00,0.0092
1288.00,0.0089
1287.00,0.0086
1286.00,0.0083
1285.00,0.0081
1284.00,0.0079
1283.00,0.0077
1282.00,0.0075
1281.00,0.0073
1280.00,0.0072
1279.00,0.0072
1278.00,0.0071
1277.00,0.0071
1276.00,0.0070
1275.00,0.0070
1274.00,0.0069
1273.00,0.0069
1272.00,0.0069
1271.00,0.0069
1270.00,0.0069
1269.00,0.0069
1268.00,0.0070
1267.00,0.0071
1266.00,0.0072
1265.00,0.0074
1264.00,0.0076
1263.00,0.0079
1262.00,0.0081
1261.00,0.0085
1260.00,0.0089
1259.00,0.0094
1258.00,0.0100
1257.00,0.0105
1256.00,0.0108
1255.00,0.0107
1254.00,0.0103
1253.00,0.0096
1252.00,0.0090
1251.00,0.0085
1250.00,0.0082
1249.00,0.0079
1248.00,0.0078
1247.00,0.0076
1246.00,0.0076
1245.00,0.0076
1244.00,0.0076
1243.00,0.0075
1242.00,0.0075
1241.00,0.0074
1240.00,0.0074
1239.00,0.0074
1238.00,0.0074
1237.00,0.0074
1236.00,0.0073
1235.00,0.0073
1234.00,0.0074
1233.00,0.0075
1232.00,0.0075
1231.00,0.0075
1230.00,0.0074
1229.00,0.0075
1228.00,0.0076
1227.00,0.0079
1226.00,0.0082
1225.00,0.0085
1224.00,0.0089
1223.00,0.0093
1222.00,0.0096
1221.00,0.0099
1220.00,0.0102
1219.00,0.0103
1218.00,0.0103
1217.00,0.0101
1216.00,0.0098
1215.00,0.0095
1214.00,0.0091
1213.00,0.0087
1212.00,0.0084
1211.00,0.0081
1210.00,0.0079
1209.00,0.0077
1208.00,0.0076
1207.00,0.0075
1206.00,0.0074
1205.00,0.0073
1204.00,0.0072
1203.00,0.0071
1202.00,0.0070
1201.00,0.0070
1200.00,0.0070
1199.00,0.0070
1198.00,0.0070
1197.00,0.0070
1196.00,0.0070
1195.00,0.0070
1194.00,0.0070
1193.00,0.0070
1192.00,0.0069
1191.00,0.0069
1190.00,0.0069
1189.00,0.0069
1188.00,0.0069
1187.00,0.0068
1186.00,0.0068
1185.00,0.0069
1184.00,0.0070
1183.00,0.0071
1182.00,0.0072
1181.00,0.0074
1180.00,0.0076
1179.00,0.0080
1178.00,0.0085
1177.00,0.0093
1176.00,0.0102
1175.00,0.0115
1174.00,0.0130
1173.00,0.0150
1172.00,0.0173
1171.00,0.0198
1170.00,0.0222
1169.00,0.0242
1168.00,0.0255
1167.00,0.0259
1166.00,0.0255
1165.00,0.0245
1164.00,0.0233
1163.00,0.0221
1162.00,0.0211
1161.00,0.0202
1160.00,0.0194
1159.00,0.0189
1158.00,0.0184
1157.00,0.0181
1156.00,0.0180
1155.00,0.0179
1154.00,0.0179
1153.00,0.0177
1152.00,0.0173
1151.00,0.0167
1150.00,0.0158
1149.00,0.0149
1148.00,0.0139
1147.00,0.0130
1146.00,0.0121
1145.00,0.0114
1144.00,0.0108
1143.00,0.0102
1142.00,0.0096
1141.00,0.0090
1140.00,0.0085
1139.00,0.0081
1138.00,0.0078
1137.00,0.0075
1136.00,0.0073
1135.00,0.0071
1134.00,0.0070
1133.00,0.0069
1132.00,0.0068
1131.00,0.0067
1130.00,0.0067
1129.00,0.0068
1128.00,0.0068
1127.00,0.0069
1126.00,0.0070
1125.00,0.0070
1124.00,0.0071
1123.00,0.0071
1122.00,0.0071
1121.00,0.0070
1120.00,0.0069
1119.00,0.0070
1118.00,0.0072
1117.00,0.0073
1116.00,0.0075
1115.00,0.0077
1114.00,0.0079
1113.00,0.0081
1112.00,0.0083
1111.00,0.0085
1110.00,0.0089
1109.00,0.0094
1108.00,0.0100
1107.00,0.0107
1106.00,0.0115
1105.00,0.0122
1104.00,0.0128
1103.00,0.0131
1102.00,0.0131
1101.00,0.0129
1100.00,0.0123
1099.00,0.0116
1098.00,0.0109
1097.00,0.0102
1096.00,0.0096
1095.00,0.0091
1094.00,0.0087
1093.00,0.0084
1092.00,0.0082
1091.00,0.0079
1090.00,0.0077
1089.00,0.0074
1088.00,0.0072
1087.00,0.0071
1086.00,0.0070
1085.00,0.0069
1084.00,0.0069
1083.00,0.0068
1082.00,0.0067
1081.00,0.0066
1080.00,0.0065
1079.00,0.0064
1078.00,0.0063
1077.00,0.0062
1076.00,0.0062
1075.00,0.0062
1074.00,0.0062
1073.00,0.0062
1072.00,0.0062
1071.00,0.0062
1070.00,0.0062
1069.00,0.0063
1068.00,0.0062
1067.00,0.0063
1066.00,0.0063
1065.00,0.0064
1064.00,0.0065
1063.00,0.0066
1062.00,0.0067
1061.00,0.0068
1060.00,0.0068
1059.00,0.0068
1058.00,0.0067
1057.00,0.0067
1056.00,0.0067
1055.00,0.0067
1054.00,0.0068
1053.00,0.0068
1052.00,0.0069
1051.00,0.0070
1050.00,0.0072
1049.00,0.0073
1048.00,0.0075
1047.00,0.0077
1046.00,0.0080
1045.00,0.0083
1044.00,0.0084
1043.00,0.0084
1042.00,0.0083
1041.00,0.0082
1040.00,0.0082
1039.00,0.0083
1038.00,0.0084
1037.00,0.0086
1036.00,0.0086
1035.00,0.0086
1034.00,0.0084
1033.00,0.0082
1032.00,0.0079
1031.00,0.0078
1030.00,0.0077
1029.00,0.0077
1028.00,0.0076
1027.00,0.0076
1026.00,0.0076
1025.00,0.0077
1024.00,0.0077
1023.00,0.0077
1022.00,0.0077
1021.00,0.0077
1020.00,0.0077
1019.00,0.0078
1018.00,0.0079
1017.00,0.0081
1016.00,0.0083
1015.00,0.0087
1014.00,0.0091
1013.00,0.0095
1012.00,0.0098
1011.00,0.0101
1010.00,0.0104
1009.00,0.0106
1008.00,0.0109
1007.00,0.0113
1006.00,0.0120
1005.00,0.0129
1004.00,0.0141
1003.00,0.0158
1002.00,0.0180
1001.00,0.0205
1000.00,0.0231
999.00,0.0253
998.00,0.0263
997.00,0.0258
996.00,0.0238
995.00,0.0209
994.00,0.0178
993.00,0.0152
992.00,0.0131
991.00,0.0116
990.00,0.0106
989.00,0.0099
988.00,0.0095
987.00,0.0093
986.00,0.0093
985.00,0.0095
984.00,0.0099
983.00,0.0105
982.00,0.0115
981.00,0.0129
980.00,0.0149
979.00,0.0174
978.00,0.0206
977.00,0.0243
976.00,0.0281
975.00,0.0314
974.00,0.0336
973.00,0.0341
972.00,0.0326
971.00,0.0295
970.00,0.0255
969.00,0.0215
968.00,0.0182
967.00,0.0156
966.00,0.0137
965.00,0.0122
964.00,0.0111
963.00,0.0102
962.00,0.0095
961.00,0.0089
960.00,0.0085
959.00,0.0081
958.00,0.0077
957.00,0.0075
956.00,0.0072
955.00,0.0070
954.00,0.0069
953.00,0.0069
952.00,0.0069
951.00,0.0069
950.00,0.0069
949.00,0.0069
948.00,0.0070
947.00,0.0071
946.00,0.0073
945.00,0.0076
944.00,0.0079
943.00,0.0084
942.00,0.0087
941.00,0.0088
940.00,0.0088
939.00,0.0086
938.00,0.0082
937.00,0.0078
936.00,0.0073
935.00,0.0069
934.00,0.0064
933.00,0.0061
932.00,0.0058
931.00,0.0057
930.00,0.0056
929.00,0.0056
928.00,0.0056
927.00,0.0056
926.00,0.0056
925.00,0.0056
924.00,0.0056
923.00,0.0057
922.00,0.0058
921.00,0.0058
920.00,0.0059
919.00,0.0061
918.00,0.0063
917.00,0.0065
916.00,0.0066
915.00,0.0067
914.00,0.0068
913.00,0.0069
912.00,0.0069
911.00,0.0070
910.00,0.0071
909.00,0.0073
908.00,0.0075
907.00,0.0079
906.00,0.0086
905.00,0.0098
904.00,0.0115
903.00,0.0136
902.00,0.0160
901.00,0.0183
900.00,0.0198
899.00,0.0201
898.00,0.0192
897.00,0.0172
896.00,0.0150
895.00,0.0129
894.00,0.0112
893.00,0.0099
892.00,0.0089
891.00,0.0082
890.00,0.0077
889.00,0.0073
888.00,0.0069
887.00,0.0068
886.00,0.0067
885.00,0.0067
884.00,0.0067
883.00,0.0068
882.00,0.0069
881.00,0.0069
880.00,0.0069
879.00,0.0069
878.00,0.0068
877.00,0.0068
876.00,0.0068
875.00,0.0068
874.00,0.0068
873.00,0.0068
872.00,0.0067
871.00,0.0066
870.00,0.0066
869.00,0.0066
868.00,0.0066
867.00,0.0066
866.00,0.0067
865.00,0.0068
864.00,0.0068
863.00,0.0069
862.00,0.0071
861.00,0.0073
860.00,0.0075
859.00,0.0077
858.00,0.0079
857.00,0.0081
856.00,0.0082
855.00,0.0084
854.00,0.0086
853.00,0.0087
852.00,0.0089
851.00,0.0091
850.00,0.0095
849.00,0.0101
848.00,0.0108
847.00,0.0119
846.00,0.0136
845.00,0.0160
844.00,0.0191
843.00,0.0223
842.00,0.0246
841.00,0.0249
840.00,0.0231
839.00,0.0200
838.00,0.0169
837.00,0.0145
836.00,0.0130
835.00,0.0121
834.00,0.0115
833.00,0.0110
832.00,0.0106
831.00,0.0103
830.00,0.0101
829.00,0.0100
828.00,0.0099
827.00,0.0098
826.00,0.0097
825.00,0.0097
824.00,0.0096
823.00,0.0095
822.00,0.0096
821.00,0.0097
820.00,0.0101
819.00,0.0105
818.00,0.0110
817.00,0.0117
816.00,0.0126
815.00,0.0138
814.00,0.0153
813.00,0.0171
812.00,0.0190
811.00,0.0209
810.00,0.0223
809.00,0.0230
808.00,0.0229
807.00,0.0219
806.00,0.0202
805.00,0.0183
804.00,0.0164
803.00,0.0148
802.00,0.0133
801.00,0.0122
800.00,0.0113
799.00,0.0107
798.00,0.0102
797.00,0.0098
796.00,0.0094
795.00,0.0090
794.00,0.0086
793.00,0.0084
792.00,0.0081
791.00,0.0079
790.00,0.0077
789.00,0.0075
788.00,0.0073
787.00,0.0071
786.00,0.0068
785.00,0.0066
784.00,0.0064
783.00,0.0063
782.00,0.0062
781.00,0.0061
780.00,0.0059
779.00,0.0057
778.00,0.0057
777.00,0.0058
776.00,0.0059
775.00,0.0061
774.00,0.0062
773.00,0.0063
772.00,0.0065
771.00,0.0067
770.00,0.0069
769.00,0.0071
768.00,0.0072
767.00,0.0072
766.00,0.0071
765.00,0.0069
764.00,0.0066
763.00,0.0063
762.00,0.0060
761.00,0.0060
760.00,0.0060
759.00,0.0059
758.00,0.0056
757.00,0.0053
756.00,0.0050
755.00,0.0048
754.00,0.0047
753.00,0.0047
752.00,0.0048
751.00,0.0048
750.00,0.0049
749.00,0.0050
748.00,0.0051
747.00,0.0052
746.00,0.0051
745.00,0.0050
744.00,0.0049
743.00,0.0048
742.00,0.0047
741.00,0.0048
740.00,0.0048
739.00,0.0049
738.00,0.0050
737.00,0.0052
736.00,0.0053
735.00,0.0055
734.00,0.0057
733.00,0.0058
732.00,0.0059
731.00,0.0059
730.00,0.0058
729.00,0.0057
728.00,0.0057
727.00,0.0056
726.00,0.0056
725.00,0.0055
724.00,0.0055
723.00,0.0055
722.00,0.0056
721.00,0.0057
720.00,0.0057
719.00,0.0057
718.00,0.0056
717.00,0.0054
716.00,0.0052
715.00,0.0050
714.00,0.0050
713.00,0.0050
712.00,0.0051
711.00,0.0051
710.00,0.0052
709.00,0.0052
708.00,0.0051
707.00,0.0051
706.00,0.0052
705.00,0.0052
704.00,0.0051
703.00,0.0050
702.00,0.0049
701.00,0.0048
700.00,0.0046
699.00,0.0045
698.00,0.0044
697.00,0.0044
696.00,0.0043
695.00,0.0042
694.00,0.0041
693.00,0.0040
692.00,0.0041
691.00,0.0043
690.00,0.0045
689.00,0.0047
688.00,0.0048
687.00,0.0048
686.00,0.0047
685.00,0.0047
684.00,0.0047
683.00,0.0048
682.00,0.0048
681.00,0.0047
680.00,0.0046
679.00,0.0046
678.00,0.0047
677.00,0.0048
676.00,0.0048
675.00,0.0047
674.00,0.0047
673.00,0.0048
672.00,0.0051
671.00,0.0053
670.00,0.0055
669.00,0.0053
668.00,0.0050
667.00,0.0048
666.00,0.0049
665.00,0.0050
664.00,0.0050
663.00,0.0049
662.00,0.0049
661.00,0.0048
660.00,0.0048
659.00,0.0047
658.00,0.0048
657.00,0.0049
656.00,0.0051
655.00,0.0050
654.00,0.0048
653.00,0.0046
652.00,0.0044
651.00,0.0043
650.00,0.0043
649.00,0.0043
648.00,0.0043
647.00,0.0043
646.00,0.0043
645.00,0.0043
644.00,0.0044
643.00,0.0044
642.00,0.0045
641.00,0.0046
640.00,0.0047
639.00,0.0046
638.00,0.0045
637.00,0.0046
636.00,0.0047
635.00,0.0048
634.00,0.0048
633.00,0.0047
632.00,0.0046
631.00,0.0046
630.00,0.0047
629.00,0.0049
628.00,0.0051
627.00,0.0054
626.00,0.0056
625.00,0.0056
624.00,0.0054
623.00,0.0052
622.00,0.0050
621.00,0.0050
620.00,0.0050
619.00,0.0049
618.00,0.0049
617.00,0.0051
616.00,0.0053
615.00,0.0055
614.00,0.0055
613.00,0.0056
612.00,0.0057
611.00,0.0057
610.00,0.0056
609.00,0.0053
608.00,0.0048
607.00,0.0044
606.00,0.0042
605.00,0.0042
604.00,0.0043
603.00,0.0045
602.00,0.0047
601.00,0.0048
600.00,0.0049
599.00,0.0051
598.00,0.0053
597.00,0.0055
596.00,0.0055
595.00,0.0054
594.00,0.0052
593.00,0.0050
592.00,0.0048
591.00,0.0046
590.00,0.0046
589.00,0.0048
588.00,0.0050
587.00,0.0052
586.00,0.0053
585.00,0.0053
584.00,0.0052
583.00,0.0051
582.00,0.0051
581.00,0.0052
580.00,0.0053
579.00,0.0054
578.00,0.0054
577.00,0.0055
576.00,0.0057
575.00,0.0058
574.00,0.0058
573.00,0.0058
572.00,0.0057
571.00,0.0057
570.00,0.0056
569.00,0.0055
568.00,0.0054
567.00,0.0054
566.00,0.0056
565.00,0.0059
564.00,0.0061
563.00,0.0060
562.00,0.0057
561.00,0.0053
560.00,0.0050
559.00,0.0050
558.00,0.0051
557.00,0.0052
556.00,0.0053
555.00,0.0053
554.00,0.0054
553.00,0.0057
552.00,0.0058
551.00,0.0059
550.00,0.0059
549.00,0.0059
548.00,0.0059
547.00,0.0059
546.00,0.0060
545.00,0.0058
544.00,0.0055
543.00,0.0052
542.00,0.0051
541.00,0.0055
540.00,0.0060
539.00,0.0063
538.00,0.0064
537.00,0.0065
536.00,0.0067
535.00,0.0072
534.00,0.0077
533.00,0.0081
532.00,0.0082
531.00,0.0082
530.00,0.0080
529.00,0.0078
528.00,0.0078
527.00,0.0080
526.00,0.0083
525.00,0.0085
524.00,0.0084
523.00,0.0080
522.00,0.0075
521.00,0.0070
520.00,0.0067
519.00,0.0068
518.00,0.0073
517.00,0.0077
516.00,0.0078
515.00,0.0074
514.00,0.0068
513.00,0.0064
512.00,0.0064
511.00,0.0065
510.00,0.0067
509.00,0.0068
508.00,0.0068
507.00,0.0065
506.00,0.0060
505.00,0.0057
504.00,0.0057
503.00,0.0060
502.00,0.0065
501.00,0.0069
500.00,0.0070
499.00,0.0068
498.00,0.0064
497.00,0.0061
496.00,0.0061
495.00,0.0062
494.00,0.0062
493.00,0.0059
492.00,0.0056
491.00,0.0054
490.00,0.0053
489.00,0.0053
488.00,0.0054
487.00,0.0055
486.00,0.0055
485.00,0.0054
484.00,0.0055
483.00,0.0056
482.00,0.0059
481.00,0.0061
480.00,0.0062
479.00,0.0061
478.00,0.0057
477.00,0.0051
476.00,0.0046
475.00,0.0044
474.00,0.0044
473.00,0.0049
472.00,0.0058
471.00,0.0068
470.00,0.0079
469.00,0.0087
468.00,0.0096
467.00,0.0107
466.00,0.0119
465.00,0.0129
464.00,0.0137
463.00,0.0142
462.00,0.0147
461.00,0.0152
460.00,0.0157
459.00,0.0161
458.00,0.0163
457.00,0.0159
456.00,0.0148
455.00,0.0138
454.00,0.0134
453.00,0.0132
452.00,0.0125
451.00,0.0104
450.00,0.0076
