Created as New Dataset,Sample 074 By Administrator Date Friday, September 05 2025
cm-1,A
4000.00,0.0014
3999.00,0.0014
3998.00,0.0014
3997.00,0.0014
3996.00,0.0014
3995.00,0.0014
3994.00,0.0014
3993.00,0.0014
3992.00,0.0014
3991.00,0.0015
3990.00,0.0015
3989.00,0.0015
3988.00,0.0015
3987.00,0.0015
3986.00,0.0014
3985.00,0.0014
3984.00,0.0014
3983.00,0.0013
3982.00,0.0013
3981.00,0.0013
3980.00,0.0013
3979.00,0.0012
3978.00,0.0012
3977.00,0.0013
3976.00,0.0013
3975.00,0.0013
3974.00,0.0013
3973.00,0.0013
3972.00,0.0013
3971.00,0.0013
3970.00,0.0013
3969.00,0.0013
3968.00,0.0013
3967.00,0.0013
3966.00,0.0013
3965.00,0.0013
3964.00,0.0013
3963.00,0.0012
3962.00,0.0012
3961.00,0.0012
3960.00,0.0013
3959.00,0.0013
3958.00,0.0013
3957.00,0.0013
3956.00,0.0013
3955.00,0.0012
3954.00,0.0012
3953.00,0.0012
3952.00,0.0012
3951.00,0.0012
3950.00,0.0012
3949.00,0.0012
3948.00,0.0012
3947.00,0.0012
3946.00,0.0012
3945.00,0.0013
3944.00,0.0013
3943.00,0.0013
3942.00,0.0013
3941.00,0.0012
3940.00,0.0012
3939.00,0.0012
3938.00,0.0012
3937.00,0.0012
3936.00,0.0012
3935.00,0.0012
3934.00,0.0012
3933.00,0.0012
3932.00,0.0012
3931.00,0.0012
3930.00,0.0012
3929.00,0.0012
3928.00,0.0013
3927.00,0.0013
3926.00,0.0013
3925.00,0.0013
3924.00,0.0013
3923.00,0.0013
3922.00,0.0013
3921.00,0.0013
3920.00,0.0013
3919.00,0.0013
3918.00,0.0012
3917.00,0.0013
3916.00,0.0013
3915.00,0.0013
3914.00,0.0013
3913.00,0.0013
3912.00,0.0013
3911.00,0.0013
3910.00,0.0013
3909.00,0.0013
3908.00,0.0013
3907.00,0.0013
3906.00,0.0013
3905.00,0.0012
3904.00,0.0012
3903.00,0.0011
3902.00,0.0011
3901.00,0.0011
3900.00,0.0011
3899.00,0.0011
3898.00,0.0012
3897.00,0.0012
3896.00,0.0012
3895.00,0.0012
3894.00,0.0012
3893.00,0.0012
3892.00,0.0012
3891.00,0.0013
3890.00,0.0013
3889.00,0.0012
3888.00,0.0012
3887.00,0.0011
3886.00,0.0011
3885.00,0.0011
3884.00,0.0012
3883.00,0.0012
3882.00,0.0012
3881.00,0.0011
3880.00,0.0011
3879.00,0.0012
3878.00,0.0012
3877.00,0.0012
3876.00,0.0012
3875.00,0.0012
3874.00,0.0012
3873.00,0.0012
3872.00,0.0012
3871.00,0.0011
3870.00,0.0011
3869.00,0.0011
3868.00,0.0011
3867.00,0.0011
3866.00,0.0011
3865.00,0.0011
3864.00,0.0011
3863.00,0.0011
3862.00,0.0010
3861.00,0.0010
3860.00,0.0010
3859.00,0.0011
3858.00,0.0011
3857.00,0.0012
3856.00,0.0012
3855.00,0.0011
3854.00,0.0011
3853.00,0.0011
3852.00,0.0011
3851.00,0.0011
3850.00,0.0011
3849.00,0.0010
3848.00,0.0011
3847.00,0.0011
3846.00,0.0011
3845.00,0.0011
3844.00,0.0011
3843.00,0.0011
3842.00,0.0011
3841.00,0.0011
3840.00,0.0011
3839.00,0.0011
3838.00,0.0011
3837.00,0.0011
3836.00,0.0011
3835.00,0.0011
3834.00,0.0011
3833.00,0.0011
3832.00,0.0011
3831.00,0.0011
3830.00,0.0011
3829.00,0.0011
3828.00,0.0011
3827.00,0.0011
3826.00,0.0011
3825.00,0.0011
3824.00,0.0011
3823.00,0.0011
3822.00,0.0011
3821.00,0.0011
3820.00,0.0011
3819.00,0.0011
3818.00,0.0011
3817.00,0.0011
3816.00,0.0011
3815.00,0.0012
3814.00,0.0013
3813.00,0.0012
3812.00,0.0012
3811.00,0.0012
3810.00,0.0012
3809.00,0.0011
3808.00,0.0011
3807.00,0.0011
3806.00,0.0012
3805.00,0.0012
3804.00,0.0011
3803.00,0.0011
3802.00,0.0012
3801.00,0.0012
3800.00,0.0012
3799.00,0.0012
3798.00,0.0011
3797.00,0.0011
3796.00,0.0011
3795.00,0.0011
3794.00,0.0011
3793.00,0.0011
3792.00,0.0011
3791.00,0.0012
3790.00,0.0012
3789.00,0.0012
3788.00,0.0013
3787.00,0.0013
3786.00,0.0013
3785.00,0.0013
3784.00,0.0012
3783.00,0.0012
3782.00,0.0012
3781.00,0.0012
3780.00,0.0012
3779.00,0.0012
3778.00,0.0012
3777.00,0.0012
3776.00,0.0012
3775.00,0.0012
3774.00,0.0013
3773.00,0.0013
3772.00,0.0012
3771.00,0.0012
3770.00,0.0012
3769.00,0.0012
3768.00,0.0012
3767.00,0.0012
3766.00,0.0012
3765.00,0.0012
3764.00,0.0013
3763.00,0.0013
3762.00,0.0013
3761.00,0.0013
3760.00,0.0013
3759.00,0.0013
3758.00,0.0012
3757.00,0.0012
3756.00,0.0012
3755.00,0.0012
3754.00,0.0012
3753.00,0.0012
3752.00,0.0012
3751.00,0.0010
3750.00,0.0009
3749.00,0.0009
3748.00,0.0010
3747.00,0.0010
3746.00,0.0010
3745.00,0.0009
3744.00,0.0010
3743.00,0.0010
3742.00,0.0010
3741.00,0.0010
3740.00,0.0010
3739.00,0.0009
3738.00,0.0010
3737.00,0.0010
3736.00,0.0011
3735.00,0.0011
3734.00,0.0010
3733.00,0.0010
3732.00,0.0010
3731.00,0.0010
3730.00,0.0011
3729.00,0.0011
3728.00,0.0010
3727.00,0.0010
3726.00,0.0011
3725.00,0.0011
3724.00,0.0011
3723.00,0.0011
3722.00,0.0011
3721.00,0.0011
3720.00,0.0011
3719.00,0.0011
3718.00,0.0011
3717.00,0.0011
3716.00,0.0012
3715.00,0.0011
3714.00,0.0011
3713.00,0.0011
3712.00,0.0011
3711.00,0.0011
3710.00,0.0011
3709.00,0.0010
3708.00,0.0010
3707.00,0.0010
3706.00,0.0010
3705.00,0.0010
3704.00,0.0011
3703.00,0.0011
3702.00,0.0011
3701.00,0.0012
3700.00,0.0012
3699.00,0.0012
3698.00,0.0011
3697.00,0.0011
3696.00,0.0011
3695.00,0.0011
3694.00,0.0011
3693.00,0.0011
3692.00,0.0011
3691.00,0.0011
3690.00,0.0011
3689.00,0.0010
3688.00,0.0010
3687.00,0.0010
3686.00,0.0009
3685.00,0.0009
3684.00,0.0008
3683.00,0.0008
3682.00,0.0008
3681.00,0.0008
3680.00,0.0008
3679.00,0.0008
3678.00,0.0007
3677.00,0.0007
3676.00,0.0006
3675.00,0.0006
3674.00,0.0006
3673.00,0.0005
3672.00,0.0004
3671.00,0.0004
3670.00,0.0004
3669.00,0.0004
3668.00,0.0004
3667.00,0.0004
3666.00,0.0003
3665.00,0.0003
3664.00,0.0003
3663.00,0.0003
3662.00,0.0003
3661.00,0.0003
3660.00,0.0003
3659.00,0.0004
3658.00,0.0004
3657.00,0.0004
3656.00,0.0004
3655.00,0.0004
3654.00,0.0005
3653.00,0.0004
3652.00,0.0004
3651.00,0.0004
3650.00,0.0004
3649.00,0.0004
3648.00,0.0005
3647.00,0.0005
3646.00,0.0006
3645.00,0.0006
3644.00,0.0006
3643.00,0.0007
3642.00,0.0007
3641.00,0.0008
3640.00,0.0008
3639.00,0.0009
3638.00,0.0009
3637.00,0.0010
3636.00,0.0011
3635.00,0.0012
3634.00,0.0013
3633.00,0.0013
3632.00,0.0013
3631.00,0.0012
3630.00,0.0012
3629.00,0.0013
3628.00,0.0013
3627.00,0.0014
3626.00,0.0015
3625.00,0.0015
3624.00,0.0015
3623.00,0.0016
3622.00,0.0016
3621.00,0.0016
3620.00,0.0016
3619.00,0.0016
3618.00,0.0017
3617.00,0.0017
3616.00,0.0018
3615.00,0.0018
3614.00,0.0018
3613.00,0.0019
3612.00,0.0019
3611.00,0.0019
3610.00,0.0019
3609.00,0.0020
3608.00,0.0021
3607.00,0.0021
3606.00,0.0022
3605.00,0.0022
3604.00,0.0022
3603.00,0.0022
3602.00,0.0022
3601.00,0.0023
3600.00,0.0023
3599.00,0.0024
3598.00,0.0024
3597.00,0.0024
3596.00,0.0024
3595.00,0.0024
3594.00,0.0024
3593.00,0.0024
3592.00,0.0025
3591.00,0.0025
3590.00,0.0025
3589.00,0.0025
3588.00,0.0026
3587.00,0.0027
3586.00,0.0027
3585.00,0.0028
3584.00,0.0028
3583.00,0.0029
3582.00,0.0029
3581.00,0.0029
3580.00,0.0029
3579.00,0.0030
3578.00,0.0031
3577.00,0.0031
3576.00,0.0032
3575.00,0.0032
3574.00,0.0033
3573.00,0.0033
3572.00,0.0033
3571.00,0.0033
3570.00,0.0033
3569.00,0.0033
3568.00,0.0033
3567.00,0.0033
3566.00,0.0033
3565.00,0.0034
3564.00,0.0034
3563.00,0.0034
3562.00,0.0035
3561.00,0.0035
3560.00,0.0036
3559.00,0.0036
3558.00,0.0036
3557.00,0.0036
3556.00,0.0036
3555.00,0.0036
3554.00,0.0037
3553.00,0.0037
3552.00,0.0037
3551.00,0.0037
3550.00,0.0037
3549.00,0.0037
3548.00,0.0037
3547.00,0.0037
3546.00,0.0038
3545.00,0.0039
3544.00,0.0039
3543.00,0.0039
3542.00,0.0040
3541.00,0.0040
3540.00,0.0040
3539.00,0.0040
3538.00,0.0040
3537.00,0.0040
3536.00,0.0040
3535.00,0.0040
3534.00,0.0040
3533.00,0.0041
3532.00,0.0041
3531.00,0.0041
3530.00,0.0041
3529.00,0.0040
3528.00,0.0040
3527.00,0.0040
3526.00,0.0040
3525.00,0.0041
3524.00,0.0041
3523.00,0.0041
3522.00,0.0042
3521.00,0.0042
3520.00,0.0042
3519.00,0.0041
3518.00,0.0041
3517.00,0.0041
3516.00,0.0041
3515.00,0.0042
3514.00,0.0042
3513.00,0.0043
3512.00,0.0043
3511.00,0.0044
3510.00,0.0043
3509.00,0.0043
3508.00,0.0043
3507.00,0.0043
3506.00,0.0044
3505.00,0.0045
3504.00,0.0045
3503.00,0.0045
3502.00,0.0045
3501.00,0.0045
3500.00,0.0045
3499.00,0.0045
3498.00,0.0045
3497.00,0.0046
3496.00,0.0046
3495.00,0.0046
3494.00,0.0046
3493.00,0.0046
3492.00,0.0046
3491.00,0.0046
3490.00,0.0046
3489.00,0.0046
3488.00,0.0047
3487.00,0.0047
3486.00,0.0048
3485.00,0.0048
3484.00,0.0048
3483.00,0.0048
3482.00,0.0048
3481.00,0.0048
3480.00,0.0048
3479.00,0.0048
3478.00,0.0048
3477.00,0.0048
3476.00,0.0049
3475.00,0.0049
3474.00,0.0049
3473.00,0.0050
3472.00,0.0050
3471.00,0.0050
3470.00,0.0050
3469.00,0.0050
3468.00,0.0050
3467.00,0.0050
3466.00,0.0050
3465.00,0.0050
3464.00,0.0050
3463.00,0.0050
3462.00,0.0050
3461.00,0.0051
3460.00,0.0051
3459.00,0.0052
3458.00,0.0053
3457.00,0.0053
3456.00,0.0053
3455.00,0.0053
3454.00,0.0053
3453.00,0.0054
3452.00,0.0054
3451.00,0.0054
3450.00,0.0054
3449.00,0.0054
3448.00,0.0054
3447.00,0.0055
3446.00,0.0055
3445.00,0.0055
3444.00,0.0055
3443.00,0.0055
3442.00,0.0055
3441.00,0.0054
3440.00,0.0055
3439.00,0.0055
3438.00,0.0056
3437.00,0.0056
3436.00,0.0057
3435.00,0.0057
3434.00,0.0057
3433.00,0.0057
3432.00,0.0058
3431.00,0.0057
3430.00,0.0057
3429.00,0.0057
3428.00,0.0057
3427.00,0.0058
3426.00,0.0058
3425.00,0.0059
3424.00,0.0059
3423.00,0.0059
3422.00,0.0059
3421.00,0.0059
3420.00,0.0059
3419.00,0.0059
3418.00,0.0059
3417.00,0.0059
3416.00,0.0059
3415.00,0.0060
3414.00,0.0060
3413.00,0.0061
3412.00,0.0061
3411.00,0.0061
3410.00,0.0061
3409.00,0.0061
3408.00,0.0060
3407.00,0.0060
3406.00,0.0060
3405.00,0.0061
3404.00,0.0061
3403.00,0.0061
3402.00,0.0062
3401.00,0.0062
3400.00,0.0062
3399.00,0.0062
3398.00,0.0062
3397.00,0.0062
3396.00,0.0061
3395.00,0.0061
3394.00,0.0061
3393.00,0.0062
3392.00,0.0062
3391.00,0.0062
3390.00,0.0062
3389.00,0.0063
3388.00,0.0063
3387.00,0.0063
3386.00,0.0064
3385.00,0.0064
3384.00,0.0064
3383.00,0.0064
3382.00,0.0064
3381.00,0.0064
3380.00,0.0065
3379.00,0.0065
3378.00,0.0064
3377.00,0.0064
3376.00,0.0064
3375.00,0.0064
3374.00,0.0064
3373.00,0.0064
3372.00,0.0064
3371.00,0.0064
3370.00,0.0064
3369.00,0.0064
3368.00,0.0065
3367.00,0.0065
3366.00,0.0065
3365.00,0.0065
3364.00,0.0065
3363.00,0.0065
3362.00,0.0065
3361.00,0.0066
3360.00,0.0066
3359.00,0.0066
3358.00,0.0066
3357.00,0.0066
3356.00,0.0066
3355.00,0.0066
3354.00,0.0066
3353.00,0.0066
3352.00,0.0066
3351.00,0.0066
3350.00,0.0066
3349.00,0.0066
3348.00,0.0066
3347.00,0.0066
3346.00,0.0066
3345.00,0.0066
3344.00,0.0066
3343.00,0.0066
3342.00,0.0066
3341.00,0.0066
3340.00,0.0066
3339.00,0.0066
3338.00,0.0066
3337.00,0.0066
3336.00,0.0066
3335.00,0.0067
3334.00,0.0067
3333.00,0.0066
3332.00,0.0066
3331.00,0.0066
3330.00,0.0066
3329.00,0.0066
3328.00,0.0066
3327.00,0.0065
3326.00,0.0065
3325.00,0.0065
3324.00,0.0065
3323.00,0.0065
3322.00,0.0065
3321.00,0.0065
3320.00,0.0065
3319.00,0.0064
3318.00,0.0064
3317.00,0.0065
3316.00,0.0065
3315.00,0.0065
3314.00,0.0065
3313.00,0.0065
3312.00,0.0065
3311.00,0.0065
3310.00,0.0065
3309.00,0.0064
3308.00,0.0064
3307.00,0.0064
3306.00,0.0064
3305.00,0.0064
3304.00,0.0064
3303.00,0.0064
3302.00,0.0064
3301.00,0.0064
3300.00,0.0064
3299.00,0.0065
3298.00,0.0064
3297.00,0.0064
3296.00,0.0064
3295.00,0.0064
3294.00,0.0063
3293.00,0.0063
3292.00,0.0063
3291.00,0.0063
3290.00,0.0063
3289.00,0.0063
3288.00,0.0063
3287.00,0.0063
3286.00,0.0063
3285.00,0.0063
3284.00,0.0063
3283.00,0.0063
3282.00,0.0063
3281.00,0.0062
3280.00,0.0062
3279.00,0.0061
3278.00,0.0061
3277.00,0.0061
3276.00,0.0061
3275.00,0.0061
3274.00,0.0060
3273.00,0.0060
3272.00,0.0059
3271.00,0.0059
3270.00,0.0059
3269.00,0.0059
3268.00,0.0059
3267.00,0.0059
3266.00,0.0059
3265.00,0.0058
3264.00,0.0058
3263.00,0.0057
3262.00,0.0057
3261.00,0.0057
3260.00,0.0056
3259.00,0.0056
3258.00,0.0056
3257.00,0.0055
3256.00,0.0055
3255.00,0.0055
3254.00,0.0056
3253.00,0.0056
3252.00,0.0056
3251.00,0.0055
3250.00,0.0055
3249.00,0.0055
3248.00,0.0054
3247.00,0.0054
3246.00,0.0054
3245.00,0.0054
3244.00,0.0053
3243.00,0.0053
3242.00,0.0053
3241.00,0.0054
3240.00,0.0053
3239.00,0.0053
3238.00,0.0053
3237.00,0.0053
3236.00,0.0053
3235.00,0.0053
3234.00,0.0053
3233.00,0.0053
3232.00,0.0053
3231.00,0.0053
3230.00,0.0054
3229.00,0.0054
3228.00,0.0054
3227.00,0.0054
3226.00,0.0054
3225.00,0.0054
3224.00,0.0054
3223.00,0.0054
3222.00,0.0054
3221.00,0.0054
3220.00,0.0055
3219.00,0.0055
3218.00,0.0055
3217.00,0.0055
3216.00,0.0055
3215.00,0.0055
3214.00,0.0055
3213.00,0.0055
3212.00,0.0055
3211.00,0.0055
3210.00,0.0055
3209.00,0.0055
3208.00,0.0055
3207.00,0.0055
3206.00,0.0055
3205.00,0.0055
3204.00,0.0055
3203.00,0.0055
3202.00,0.0055
3201.00,0.0055
3200.00,0.0055
3199.00,0.0055
3198.00,0.0055
3197.00,0.0055
3196.00,0.0055
3195.00,0.0055
3194.00,0.0055
3193.00,0.0055
3192.00,0.0054
3191.00,0.0054
3190.00,0.0054
3189.00,0.0054
3188.00,0.0054
3187.00,0.0054
3186.00,0.0053
3185.00,0.0053
3184.00,0.0053
3183.00,0.0052
3182.00,0.0052
3181.00,0.0051
3180.00,0.0050
3179.00,0.0050
3178.00,0.0050
3177.00,0.0050
3176.00,0.0050
3175.00,0.0050
3174.00,0.0050
3173.00,0.0050
3172.00,0.0050
3171.00,0.0050
3170.00,0.0049
3169.00,0.0049
3168.00,0.0049
3167.00,0.0049
3166.00,0.0049
3165.00,0.0050
3164.00,0.0050
3163.00,0.0050
3162.00,0.0050
3161.00,0.0050
3160.00,0.0050
3159.00,0.0050
3158.00,0.0049
3157.00,0.0049
3156.00,0.0048
3155.00,0.0048
3154.00,0.0048
3153.00,0.0048
3152.00,0.0048
3151.00,0.0048
3150.00,0.0048
3149.00,0.0048
3148.00,0.0048
3147.00,0.0048
3146.00,0.0048
3145.00,0.0048
3144.00,0.0048
3143.00,0.0047
3142.00,0.0047
3141.00,0.0046
3140.00,0.0046
3139.00,0.0045
3138.00,0.0045
3137.00,0.0045
3136.00,0.0045
3135.00,0.0045
3134.00,0.0044
3133.00,0.0044
3132.00,0.0044
3131.00,0.0044
3130.00,0.0044
3129.00,0.0044
3128.00,0.0043
3127.00,0.0043
3126.00,0.0042
3125.00,0.0042
3124.00,0.0042
3123.00,0.0041
3122.00,0.0041
3121.00,0.0041
3120.00,0.0041
3119.00,0.0041
3118.00,0.0040
3117.00,0.0040
3116.00,0.0040
3115.00,0.0040
3114.00,0.0040
3113.00,0.0040
3112.00,0.0040
3111.00,0.0040
3110.00,0.0040
3109.00,0.0041
3108.00,0.0041
3107.00,0.0041
3106.00,0.0041
3105.00,0.0041
3104.00,0.0041
3103.00,0.0040
3102.00,0.0040
3101.00,0.0040
3100.00,0.0040
3099.00,0.0040
3098.00,0.0040
3097.00,0.0041
3096.00,0.0041
3095.00,0.0041
3094.00,0.0041
3093.00,0.0040
3092.00,0.0040
3091.00,0.0040
3090.00,0.0040
3089.00,0.0041
3088.00,0.0041
3087.00,0.0041
3086.00,0.0041
3085.00,0.0040
3084.00,0.0040
3083.00,0.0040
3082.00,0.0040
3081.00,0.0040
3080.00,0.0039
3079.00,0.0039
3078.00,0.0039
3077.00,0.0040
3076.00,0.0040
3075.00,0.0040
3074.00,0.0041
3073.00,0.0041
3072.00,0.0041
3071.00,0.0041
3070.00,0.0041
3069.00,0.0041
3068.00,0.0041
3067.00,0.0041
3066.00,0.0041
3065.00,0.0041
3064.00,0.0042
3063.00,0.0042
3062.00,0.0042
3061.00,0.0042
3060.00,0.0042
3059.00,0.0043
3058.00,0.0043
3057.00,0.0043
3056.00,0.0044
3055.00,0.0044
3054.00,0.0044
3053.00,0.0044
3052.00,0.0044
3051.00,0.0044
3050.00,0.0044
3049.00,0.0044
3048.00,0.0044
3047.00,0.0044
3046.00,0.0045
3045.00,0.0045
3044.00,0.0045
3043.00,0.0046
3042.00,0.0046
3041.00,0.0046
3040.00,0.0046
3039.00,0.0046
3038.00,0.0046
3037.00,0.0046
3036.00,0.0046
3035.00,0.0046
3034.00,0.0047
3033.00,0.0047
3032.00,0.0048
3031.00,0.0049
3030.00,0.0049
3029.00,0.0049
3028.00,0.0050
3027.00,0.0050
3026.00,0.0050
3025.00,0.0051
3024.00,0.0051
3023.00,0.0052
3022.00,0.0052
3021.00,0.0052
3020.00,0.0053
3019.00,0.0053
3018.00,0.0053
3017.00,0.0052
3016.00,0.0052
3015.00,0.0053
3014.00,0.0053
3013.00,0.0053
3012.00,0.0053
3011.00,0.0053
3010.00,0.0052
3009.00,0.0052
3008.00,0.0051
3007.00,0.0050
3006.00,0.0050
3005.00,0.0049
3004.00,0.0048
3003.00,0.0048
3002.00,0.0048
3001.00,0.0049
3000.00,0.0050
2999.00,0.0050
2998.00,0.0051
2997.00,0.0053
2996.00,0.0055
2995.00,0.0057
2994.00,0.0060
2993.00,0.0063
2992.00,0.0066
2991.00,0.0071
2990.00,0.0076
2989.00,0.0082
2988.00,0.0088
2987.00,0.0094
2986.00,0.0100
2985.00,0.0104
2984.00,0.0109
2983.00,0.0115
2982.00,0.0125
2981.00,0.0139
2980.00,0.0160
2979.00,0.0184
2978.00,0.0211
2977.00,0.0241
2976.00,0.0273
2975.00,0.0307
2974.00,0.0345
2973.00,0.0386
2972.00,0.0434
2971.00,0.0489
2970.00,0.0550
2969.00,0.0618
2968.00,0.0689
2967.00,0.0763
2966.00,0.0839
2965.00,0.0914
2964.00,0.0987
2963.00,0.1055
2962.00,0.1115
2961.00,0.1167
2960.00,0.1212
2959.00,0.1254
2958.00,0.1297
2957.00,0.1344
2956.00,0.1400
2955.00,0.1466
2954.00,0.1540
2953.00,0.1618
2952.00,0.1693
2951.00,0.1756
2950.00,0.1794
2949.00,0.1800
2948.00,0.1767
2947.00,0.1697
2946.00,0.1597
2945.00,0.1480
2944.00,0.1362
2943.00,0.1254
2942.00,0.1166
2941.00,0.1102
2940.00,0.1062
2939.00,0.1046
2938.00,0.1051
2937.00,0.1075
2936.00,0.1116
2935.00,0.1171
2934.00,0.1241
2933.00,0.1324
2932.00,0.1419
2931.00,0.1523
2930.00,0.1635
2929.00,0.1753
2928.00,0.1874
2927.00,0.1995
2926.00,0.2114
2925.00,0.2233
2924.00,0.2351
2923.00,0.2471
2922.00,0.2592
2921.00,0.2712
2920.00,0.2823
2919.00,0.2914
2918.00,0.2973
2917.00,0.2986
2916.00,0.2948
2915.00,0.2861
2914.00,0.2738
2913.00,0.2596
2912.00,0.2451
2911.00,0.2314
2910.00,0.2190
2909.00,0.2079
2908.00,0.1979
2907.00,0.1888
2906.00,0.1802
2905.00,0.1720
2904.00,0.1641
2903.00,0.1565
2902.00,0.1491
2901.00,0.1421
2900.00,0.1354
2899.00,0.1292
2898.00,0.1234
2897.00,0.1182
2896.00,0.1136
2895.00,0.1097
2894.00,0.1064
2893.00,0.1038
2892.00,0.1019
2891.00,0.1006
2890.00,0.0998
2889.00,0.0996
2888.00,0.0998
2887.00,0.1003
2886.00,0.1013
2885.00,0.1026
2884.00,0.1044
2883.00,0.1068
2882.00,0.1098
2881.00,0.1133
2880.00,0.1167
2879.00,0.1198
2878.00,0.1222
2877.00,0.1234
2876.00,0.1237
2875.00,0.1233
2874.00,0.1226
2873.00,0.1223
2872.00,0.1226
2871.00,0.1238
2870.00,0.1255
2869.00,0.1275
2868.00,0.1291
2867.00,0.1294
2866.00,0.1276
2865.00,0.1232
2864.00,0.1165
2863.00,0.1082
2862.00,0.0993
2861.00,0.0909
2860.00,0.0838
2859.00,0.0782
2858.00,0.0742
2857.00,0.0719
2856.00,0.0710
2855.00,0.0714
2854.00,0.0731
2853.00,0.0757
2852.00,0.0788
2851.00,0.0819
2850.00,0.0843
2849.00,0.0858
2848.00,0.0865
2847.00,0.0870
2846.00,0.0881
2845.00,0.0901
2844.00,0.0935
2843.00,0.0979
2842.00,0.1030
2841.00,0.1082
2840.00,0.1126
2839.00,0.1156
2838.00,0.1161
2837.00,0.1138
2836.00,0.1084
2835.00,0.1004
2834.00,0.0908
2833.00,0.0805
2832.00,0.0705
2831.00,0.0617
2830.00,0.0541
2829.00,0.0479
2828.00,0.0428
2827.00,0.0387
2826.00,0.0354
2825.00,0.0327
2824.00,0.0304
2823.00,0.0285
2822.00,0.0269
2821.00,0.0255
2820.00,0.0242
2819.00,0.0232
2818.00,0.0223
2817.00,0.0215
2816.00,0.0208
2815.00,0.0202
2814.00,0.0196
2813.00,0.0191
2812.00,0.0185
2811.00,0.0179
2810.00,0.0174
2809.00,0.0168
2808.00,0.0162
2807.00,0.0155
2806.00,0.0149
2805.00,0.0143
2804.00,0.0137
2803.00,0.0131
2802.00,0.0126
2801.00,0.0122
2800.00,0.0118
2799.00,0.0115
2798.00,0.0113
2797.00,0.0110
2796.00,0.0107
2795.00,0.0105
2794.00,0.0102
2793.00,0.0099
2792.00,0.0096
2791.00,0.0093
2790.00,0.0091
2789.00,0.0088
2788.00,0.0086
2787.00,0.0084
2786.00,0.0081
2785.00,0.0079
2784.00,0.0077
2783.00,0.0075
2782.00,0.0073
2781.00,0.0072
2780.00,0.0070
2779.00,0.0068
2778.00,0.0067
2777.00,0.0066
2776.00,0.0065
2775.00,0.0064
2774.00,0.0063
2773.00,0.0063
2772.00,0.0062
2771.00,0.0061
2770.00,0.0061
2769.00,0.0060
2768.00,0.0060
2767.00,0.0060
2766.00,0.0059
2765.00,0.0059
2764.00,0.0059
2763.00,0.0059
2762.00,0.0059
2761.00,0.0058
2760.00,0.0058
2759.00,0.0058
2758.00,0.0057
2757.00,0.0057
2756.00,0.0057
2755.00,0.0056
2754.00,0.0056
2753.00,0.0056
2752.00,0.0056
2751.00,0.0056
2750.00,0.0056
2749.00,0.0056
2748.00,0.0057
2747.00,0.0057
2746.00,0.0058
2745.00,0.0058
2744.00,0.0059
2743.00,0.0059
2742.00,0.0060
2741.00,0.0061
2740.00,0.0062
2739.00,0.0064
2738.00,0.0065
2737.00,0.0067
2736.00,0.0068
2735.00,0.0070
2734.00,0.0071
2733.00,0.0073
2732.00,0.0074
2731.00,0.0076
2730.00,0.0078
2729.00,0.0081
2728.00,0.0084
2727.00,0.0087
2726.00,0.0089
2725.00,0.0092
2724.00,0.0093
2723.00,0.0093
2722.00,0.0092
2721.00,0.0090
2720.00,0.0087
2719.00,0.0084
2718.00,0.0080
2717.00,0.0077
2716.00,0.0074
2715.00,0.0071
2714.00,0.0068
2713.00,0.0066
2712.00,0.0064
2711.00,0.0062
2710.00,0.0061
2709.00,0.0059
2708.00,0.0058
2707.00,0.0057
2706.00,0.0055
2705.00,0.0054
2704.00,0.0053
2703.00,0.0052
2702.00,0.0051
2701.00,0.0051
2700.00,0.0050
2699.00,0.0050
2698.00,0.0049
2697.00,0.0049
2696.00,0.0048
2695.00,0.0048
2694.00,0.0048
2693.00,0.0048
2692.00,0.0049
2691.00,0.0049
2690.00,0.0049
2689.00,0.0048
2688.00,0.0048
2687.00,0.0048
2686.00,0.0048
2685.00,0.0048
2684.00,0.0048
2683.00,0.0048
2682.00,0.0048
2681.00,0.0048
2680.00,0.0048
2679.00,0.0049
2678.00,0.0049
2677.00,0.0049
2676.00,0.0049
2675.00,0.0049
2674.00,0.0049
2673.00,0.0049
2672.00,0.0048
2671.00,0.0048
2670.00,0.0048
2669.00,0.0048
2668.00,0.0048
2667.00,0.0048
2666.00,0.0048
2665.00,0.0049
2664.00,0.0050
2663.00,0.0050
2662.00,0.0051
2661.00,0.0051
2660.00,0.0051
2659.00,0.0052
2658.00,0.0052
2657.00,0.0052
2656.00,0.0051
2655.00,0.0050
2654.00,0.0050
2653.00,0.0049
2652.00,0.0048
2651.00,0.0048
2650.00,0.0048
2649.00,0.0047
2648.00,0.0047
2647.00,0.0046
2646.00,0.0045
2645.00,0.0045
2644.00,0.0045
2643.00,0.0045
2642.00,0.0045
2641.00,0.0045
2640.00,0.0045
2639.00,0.0044
2638.00,0.0043
2637.00,0.0043
2636.00,0.0042
2635.00,0.0042
2634.00,0.0041
2633.00,0.0041
2632.00,0.0042
2631.00,0.0042
2630.00,0.0042
2629.00,0.0042
2628.00,0.0043
2627.00,0.0043
2626.00,0.0044
2625.00,0.0044
2624.00,0.0044
2623.00,0.0044
2622.00,0.0044
2621.00,0.0044
2620.00,0.0044
2619.00,0.0044
2618.00,0.0044
2617.00,0.0044
2616.00,0.0044
2615.00,0.0044
2614.00,0.0044
2613.00,0.0044
2612.00,0.0044
2611.00,0.0043
2610.00,0.0042
2609.00,0.0041
2608.00,0.0040
2607.00,0.0039
2606.00,0.0038
2605.00,0.0037
2604.00,0.0037
2603.00,0.0037
2602.00,0.0037
2601.00,0.0037
2600.00,0.0036
2599.00,0.0036
2598.00,0.0036
2597.00,0.0036
2596.00,0.0037
2595.00,0.0037
2594.00,0.0037
2593.00,0.0038
2592.00,0.0038
2591.00,0.0039
2590.00,0.0039
2589.00,0.0040
2588.00,0.0041
2587.00,0.0042
2586.00,0.0042
2585.00,0.0043
2584.00,0.0044
2583.00,0.0044
2582.00,0.0044
2581.00,0.0044
2580.00,0.0043
2579.00,0.0042
2578.00,0.0042
2577.00,0.0041
2576.00,0.0040
2575.00,0.0039
2574.00,0.0037
2573.00,0.0035
2572.00,0.0034
2571.00,0.0034
2570.00,0.0034
2569.00,0.0034
2568.00,0.0033
2567.00,0.0032
2566.00,0.0031
2565.00,0.0030
2564.00,0.0029
2563.00,0.0029
2562.00,0.0028
2561.00,0.0028
2560.00,0.0027
2559.00,0.0027
2558.00,0.0028
2557.00,0.0028
2556.00,0.0028
2555.00,0.0028
2554.00,0.0028
2553.00,0.0027
2552.00,0.0027
2551.00,0.0026
2550.00,0.0026
2549.00,0.0025
2548.00,0.0025
2547.00,0.0024
2546.00,0.0024
2545.00,0.0023
2544.00,0.0023
2543.00,0.0023
2542.00,0.0023
2541.00,0.0023
2540.00,0.0023
2539.00,0.0022
2538.00,0.0021
2537.00,0.0021
2536.00,0.0020
2535.00,0.0021
2534.00,0.0021
2533.00,0.0022
2532.00,0.0022
2531.00,0.0022
2530.00,0.0021
2529.00,0.0020
2528.00,0.0020
2527.00,0.0019
2526.00,0.0019
2525.00,0.0018
2524.00,0.0018
2523.00,0.0018
2522.00,0.0017
2521.00,0.0017
2520.00,0.0018
2519.00,0.0018
2518.00,0.0018
2517.00,0.0018
2516.00,0.0018
2515.00,0.0018
2514.00,0.0018
2513.00,0.0018
2512.00,0.0017
2511.00,0.0017
2510.00,0.0016
2509.00,0.0016
2508.00,0.0016
2507.00,0.0016
2506.00,0.0016
2505.00,0.0016
2504.00,0.0016
2503.00,0.0016
2502.00,0.0016
2501.00,0.0015
2500.00,0.0015
2499.00,0.0015
2498.00,0.0015
2497.00,0.0016
2496.00,0.0016
2495.00,0.0017
2494.00,0.0016
2493.00,0.0016
2492.00,0.0016
2491.00,0.0016
2490.00,0.0016
2489.00,0.0016
2488.00,0.0017
2487.00,0.0017
2486.00,0.0017
2485.00,0.0016
2484.00,0.0016
2483.00,0.0015
2482.00,0.0015
2481.00,0.0015
2480.00,0.0015
2479.00,0.0016
2478.00,0.0016
2477.00,0.0016
2476.00,0.0016
2475.00,0.0015
2474.00,0.0015
2473.00,0.0014
2472.00,0.0014
2471.00,0.0014
2470.00,0.0014
2469.00,0.0014
2468.00,0.0014
2467.00,0.0015
2466.00,0.0015
2465.00,0.0015
2464.00,0.0015
2463.00,0.0015
2462.00,0.0015
2461.00,0.0016
2460.00,0.0017
2459.00,0.0017
2458.00,0.0017
2457.00,0.0017
2456.00,0.0017
2455.00,0.0017
2454.00,0.0017
2453.00,0.0017
2452.00,0.0017
2451.00,0.0016
2450.00,0.0016
2449.00,0.0016
2448.00,0.0016
2447.00,0.0016
2446.00,0.0016
2445.00,0.0016
2444.00,0.0016
2443.00,0.0016
2442.00,0.0015
2441.00,0.0015
2440.00,0.0016
2439.00,0.0016
2438.00,0.0016
2437.00,0.0016
2436.00,0.0016
2435.00,0.0016
2434.00,0.0016
2433.00,0.0016
2432.00,0.0016
2431.00,0.0016
2430.00,0.0015
2429.00,0.0016
2428.00,0.0016
2427.00,0.0017
2426.00,0.0018
2425.00,0.0018
2424.00,0.0018
2423.00,0.0018
2422.00,0.0017
2421.00,0.0017
2420.00,0.0016
2419.00,0.0016
2418.00,0.0016
2417.00,0.0016
2416.00,0.0016
2415.00,0.0016
2414.00,0.0015
2413.00,0.0015
2412.00,0.0015
2411.00,0.0015
2410.00,0.0014
2409.00,0.0014
2408.00,0.0014
2407.00,0.0013
2406.00,0.0013
2405.00,0.0013
2404.00,0.0013
2403.00,0.0013
2402.00,0.0013
2401.00,0.0013
2400.00,0.0013
2399.00,0.0013
2398.00,0.0013
2397.00,0.0013
2396.00,0.0013
2395.00,0.0013
2394.00,0.0013
2393.00,0.0013
2392.00,0.0013
2391.00,0.0013
2390.00,0.0014
2389.00,0.0013
2388.00,0.0013
2387.00,0.0012
2386.00,0.0012
2385.00,0.0011
2384.00,0.0010
2383.00,0.0009
2382.00,0.0008
2381.00,0.0008
2380.00,0.0007
2379.00,0.0007
2378.00,0.0006
2377.00,0.0006
2376.00,0.0006
2375.00,0.0007
2374.00,0.0007
2373.00,0.0008
2372.00,0.0008
2371.00,0.0008
2370.00,0.0007
2369.00,0.0007
2368.00,0.0006
2367.00,0.0006
2366.00,0.0006
2365.00,0.0006
2364.00,0.0007
2363.00,0.0007
2362.00,0.0007
2361.00,0.0007
2360.00,0.0008
2359.00,0.0008
2358.00,0.0008
2357.00,0.0009
2356.00,0.0008
2355.00,0.0008
2354.00,0.0008
2353.00,0.0008
2352.00,0.0008
2351.00,0.0008
2350.00,0.0008
2349.00,0.0008
2348.00,0.0008
2347.00,0.0007
2346.00,0.0007
2345.00,0.0008
2344.00,0.0009
2343.00,0.0010
2342.00,0.0010
2341.00,0.0011
2340.00,0.0011
2339.00,0.0011
2338.00,0.0011
2337.00,0.0011
2336.00,0.0011
2335.00,0.0011
2334.00,0.0011
2333.00,0.0010
2332.00,0.0009
2331.00,0.0009
2330.00,0.0009
2329.00,0.0011
2328.00,0.0013
2327.00,0.0017
2326.00,0.0020
2325.00,0.0023
2324.00,0.0024
2323.00,0.0023
2322.00,0.0021
2321.00,0.0018
2320.00,0.0017
2319.00,0.0017
2318.00,0.0016
2317.00,0.0016
2316.00,0.0016
2315.00,0.0015
2314.00,0.0015
2313.00,0.0015
2312.00,0.0014
2311.00,0.0014
2310.00,0.0014
2309.00,0.0014
2308.00,0.0014
2307.00,0.0015
2306.00,0.0015
2305.00,0.0016
2304.00,0.0016
2303.00,0.0017
2302.00,0.0017
2301.00,0.0018
2300.00,0.0018
2299.00,0.0018
2298.00,0.0019
2297.00,0.0019
2296.00,0.0019
2295.00,0.0020
2294.00,0.0021
2293.00,0.0022
2292.00,0.0022
2291.00,0.0022
2290.00,0.0022
2289.00,0.0022
2288.00,0.0022
2287.00,0.0023
2286.00,0.0023
2285.00,0.0023
2284.00,0.0022
2283.00,0.0022
2282.00,0.0020
2281.00,0.0020
2280.00,0.0019
2279.00,0.0019
2278.00,0.0019
2277.00,0.0020
2276.00,0.0020
2275.00,0.0020
2274.00,0.0020
2273.00,0.0019
2272.00,0.0019
2271.00,0.0018
2270.00,0.0018
2269.00,0.0018
2268.00,0.0017
2267.00,0.0016
2266.00,0.0015
2265.00,0.0014
2264.00,0.0014
2263.00,0.0013
2262.00,0.0013
2261.00,0.0014
2260.00,0.0016
2259.00,0.0018
2258.00,0.0019
2257.00,0.0019
2256.00,0.0017
2255.00,0.0015
2254.00,0.0013
2253.00,0.0012
2252.00,0.0013
2251.00,0.0014
2250.00,0.0015
2249.00,0.0015
2248.00,0.0014
2247.00,0.0013
2246.00,0.0012
2245.00,0.0012
2244.00,0.0011
2243.00,0.0011
2242.00,0.0011
2241.00,0.0012
2240.00,0.0013
2239.00,0.0014
2238.00,0.0015
2237.00,0.0016
2236.00,0.0018
2235.00,0.0018
2234.00,0.0017
2233.00,0.0016
2232.00,0.0014
2231.00,0.0013
2230.00,0.0013
2229.00,0.0014
2228.00,0.0015
2227.00,0.0014
2226.00,0.0013
2225.00,0.0011
2224.00,0.0009
2223.00,0.0007
2222.00,0.0008
2221.00,0.0010
2220.00,0.0013
2219.00,0.0014
2218.00,0.0014
2217.00,0.0012
2216.00,0.0010
2215.00,0.0008
2214.00,0.0008
2213.00,0.0009
2212.00,0.0011
2211.00,0.0013
2210.00,0.0014
2209.00,0.0014
2208.00,0.0014
2207.00,0.0014
2206.00,0.0014
2205.00,0.0014
2204.00,0.0013
2203.00,0.0012
2202.00,0.0011
2201.00,0.0011
2200.00,0.0010
2199.00,0.0009
2198.00,0.0010
2197.00,0.0010
2196.00,0.0012
2195.00,0.0013
2194.00,0.0014
2193.00,0.0016
2192.00,0.0017
2191.00,0.0018
2190.00,0.0019
2189.00,0.0018
2188.00,0.0017
2187.00,0.0017
2186.00,0.0016
2185.00,0.0017
2184.00,0.0016
2183.00,0.0015
2182.00,0.0013
2181.00,0.0011
2180.00,0.0011
2179.00,0.0013
2178.00,0.0016
2177.00,0.0017
2176.00,0.0015
2175.00,0.0011
2174.00,0.0009
2173.00,0.0009
2172.00,0.0012
2171.00,0.0016
2170.00,0.0018
2169.00,0.0018
2168.00,0.0017
2167.00,0.0015
2166.00,0.0013
2165.00,0.0014
2164.00,0.0020
2163.00,0.0026
2162.00,0.0028
2161.00,0.0022
2160.00,0.0009
2159.00,-0.0007
2158.00,-0.0018
2157.00,-0.0021
2156.00,-0.0020
2155.00,-0.0016
2154.00,-0.0012
2153.00,-0.0008
2152.00,-0.0006
2151.00,-0.0005
2150.00,-0.0006
2149.00,-0.0007
2148.00,-0.0007
2147.00,-0.0007
2146.00,-0.0007
2145.00,-0.0006
2144.00,-0.0006
2143.00,-0.0005
2142.00,-0.0004
2141.00,-0.0005
2140.00,-0.0005
2139.00,-0.0007
2138.00,-0.0008
2137.00,-0.0010
2136.00,-0.0012
2135.00,-0.0014
2134.00,-0.0016
2133.00,-0.0015
2132.00,-0.0013
2131.00,-0.0010
2130.00,-0.0006
2129.00,-0.0004
2128.00,-0.0002
2127.00,-0.0002
2126.00,-0.0002
2125.00,-0.0001
2124.00,-0.0000
2123.00,0.0001
2122.00,0.0002
2121.00,0.0004
2120.00,0.0005
2119.00,0.0005
2118.00,0.0004
2117.00,0.0003
2116.00,0.0003
2115.00,0.0003
2114.00,0.0004
2113.00,0.0005
2112.00,0.0006
2111.00,0.0006
2110.00,0.0006
2109.00,0.0006
2108.00,0.0005
2107.00,0.0003
2106.00,0.0002
2105.00,0.0002
2104.00,0.0003
2103.00,0.0004
2102.00,0.0007
2101.00,0.0009
2100.00,0.0009
2099.00,0.0008
2098.00,0.0006
2097.00,0.0004
2096.00,0.0002
2095.00,0.0001
2094.00,0.0002
2093.00,0.0003
2092.00,0.0004
2091.00,0.0004
2090.00,0.0004
2089.00,0.0004
2088.00,0.0004
2087.00,0.0005
2086.00,0.0006
2085.00,0.0007
2084.00,0.0008
2083.00,0.0008
2082.00,0.0009
2081.00,0.0009
2080.00,0.0010
2079.00,0.0011
2078.00,0.0011
2077.00,0.0010
2076.00,0.0010
2075.00,0.0009
2074.00,0.0009
2073.00,0.0009
2072.00,0.0009
2071.00,0.0008
2070.00,0.0007
2069.00,0.0006
2068.00,0.0005
2067.00,0.0005
2066.00,0.0004
2065.00,0.0003
2064.00,0.0002
2063.00,0.0001
2062.00,0.0001
2061.00,0.0002
2060.00,0.0002
2059.00,0.0002
2058.00,0.0002
2057.00,0.0004
2056.00,0.0005
2055.00,0.0007
2054.00,0.0010
2053.00,0.0014
2052.00,0.0017
2051.00,0.0017
2050.00,0.0014
2049.00,0.0009
2048.00,0.0006
2047.00,0.0004
2046.00,0.0003
2045.00,0.0004
2044.00,0.0006
2043.00,0.0008
2042.00,0.0009
2041.00,0.0010
2040.00,0.0010
2039.00,0.0012
2038.00,0.0013
2037.00,0.0014
2036.00,0.0012
2035.00,0.0008
2034.00,0.0003
2033.00,-0.0001
2032.00,-0.0003
2031.00,-0.0003
2030.00,-0.0002
2029.00,-0.0000
2028.00,0.0001
2027.00,0.0001
2026.00,-0.0000
2025.00,-0.0002
2024.00,-0.0005
2023.00,-0.0008
2022.00,-0.0009
2021.00,-0.0007
2020.00,-0.0004
2019.00,-0.0002
2018.00,-0.0001
2017.00,-0.0000
2016.00,0.0000
2015.00,0.0000
2014.00,-0.0001
2013.00,-0.0004
2012.00,-0.0006
2011.00,-0.0007
2010.00,-0.0006
2009.00,-0.0006
2008.00,-0.0007
2007.00,-0.0010
2006.00,-0.0011
2005.00,-0.0010
2004.00,-0.0008
2003.00,-0.0006
2002.00,-0.0006
2001.00,-0.0006
2000.00,-0.0006
1999.00,-0.0006
1998.00,-0.0005
1997.00,-0.0004
1996.00,-0.0004
1995.00,-0.0005
1994.00,-0.0006
1993.00,-0.0006
1992.00,-0.0004
1991.00,-0.0001
1990.00,0.0003
1989.00,0.0006
1988.00,0.0009
1987.00,0.0008
1986.00,0.0005
1985.00,0.0003
1984.00,0.0004
1983.00,0.0007
1982.00,0.0011
1981.00,0.0016
1980.00,0.0019
1979.00,0.0018
1978.00,0.0011
1977.00,0.0003
1976.00,-0.0004
1975.00,-0.0007
1974.00,-0.0008
1973.00,-0.0008
1972.00,-0.0007
1971.00,-0.0005
1970.00,-0.0003
1969.00,-0.0003
1968.00,-0.0003
1967.00,-0.0005
1966.00,-0.0008
1965.00,-0.0009
1964.00,-0.0010
1963.00,-0.0010
1962.00,-0.0009
1961.00,-0.0009
1960.00,-0.0010
1959.00,-0.0012
1958.00,-0.0014
1957.00,-0.0014
1956.00,-0.0012
1955.00,-0.0010
1954.00,-0.0008
1953.00,-0.0008
1952.00,-0.0008
1951.00,-0.0009
1950.00,-0.0010
1949.00,-0.0009
1948.00,-0.0009
1947.00,-0.0008
1946.00,-0.0007
1945.00,-0.0006
1944.00,-0.0006
1943.00,-0.0007
1942.00,-0.0007
1941.00,-0.0007
1940.00,-0.0006
1939.00,-0.0004
1938.00,-0.0004
1937.00,-0.0003
1936.00,-0.0003
1935.00,-0.0004
1934.00,-0.0003
1933.00,-0.0003
1932.00,-0.0002
1931.00,-0.0002
1930.00,-0.0002
1929.00,-0.0003
1928.00,-0.0004
1927.00,-0.0004
1926.00,-0.0004
1925.00,-0.0004
1924.00,-0.0003
1923.00,-0.0001
1922.00,-0.0000
1921.00,0.0001
1920.00,0.0001
1919.00,0.0001
1918.00,0.0001
1917.00,0.0003
1916.00,0.0004
1915.00,0.0004
1914.00,0.0003
1913.00,0.0002
1912.00,0.0001
1911.00,0.0000
1910.00,0.0001
1909.00,0.0002
1908.00,0.0003
1907.00,0.0003
1906.00,0.0004
1905.00,0.0004
1904.00,0.0005
1903.00,0.0005
1902.00,0.0006
1901.00,0.0006
1900.00,0.0006
1899.00,0.0005
1898.00,0.0005
1897.00,0.0005
1896.00,0.0006
1895.00,0.0005
1894.00,0.0005
1893.00,0.0004
1892.00,0.0005
1891.00,0.0006
1890.00,0.0007
1889.00,0.0007
1888.00,0.0007
1887.00,0.0007
1886.00,0.0006
1885.00,0.0005
1884.00,0.0004
1883.00,0.0004
1882.00,0.0003
1881.00,0.0003
1880.00,0.0003
1879.00,0.0003
1878.00,0.0003
1877.00,0.0004
1876.00,0.0005
1875.00,0.0006
1874.00,0.0006
1873.00,0.0006
1872.00,0.0006
1871.00,0.0006
1870.00,0.0006
1869.00,0.0005
1868.00,0.0005
1867.00,0.0004
1866.00,0.0004
1865.00,0.0003
1864.00,0.0004
1863.00,0.0004
1862.00,0.0005
1861.00,0.0005
1860.00,0.0005
1859.00,0.0005
1858.00,0.0005
1857.00,0.0004
1856.00,0.0004
1855.00,0.0004
1854.00,0.0004
1853.00,0.0005
1852.00,0.0005
1851.00,0.0006
1850.00,0.0006
1849.00,0.0007
1848.00,0.0007
1847.00,0.0007
1846.00,0.0007
1845.00,0.0007
1844.00,0.0007
1843.00,0.0006
1842.00,0.0006
1841.00,0.0007
1840.00,0.0007
1839.00,0.0008
1838.00,0.0008
1837.00,0.0009
1836.00,0.0009
1835.00,0.0009
1834.00,0.0009
1833.00,0.0009
1832.00,0.0009
1831.00,0.0009
1830.00,0.0009
1829.00,0.0009
1828.00,0.0009
1827.00,0.0010
1826.00,0.0010
1825.00,0.0010
1824.00,0.0011
1823.00,0.0010
1822.00,0.0009
1821.00,0.0008
1820.00,0.0007
1819.00,0.0006
1818.00,0.0005
1817.00,0.0004
1816.00,0.0005
1815.00,0.0005
1814.00,0.0006
1813.00,0.0007
1812.00,0.0008
1811.00,0.0009
1810.00,0.0010
1809.00,0.0010
1808.00,0.0010
1807.00,0.0010
1806.00,0.0011
1805.00,0.0011
1804.00,0.0011
1803.00,0.0012
1802.00,0.0011
1801.00,0.0011
1800.00,0.0011
1799.00,0.0011
1798.00,0.0011
1797.00,0.0011
1796.00,0.0011
1795.00,0.0011
1794.00,0.0011
1793.00,0.0012
1792.00,0.0012
1791.00,0.0012
1790.00,0.0012
1789.00,0.0012
1788.00,0.0013
1787.00,0.0013
1786.00,0.0013
1785.00,0.0013
1784.00,0.0014
1783.00,0.0014
1782.00,0.0014
1781.00,0.0015
1780.00,0.0015
1779.00,0.0015
1778.00,0.0014
1777.00,0.0014
1776.00,0.0014
1775.00,0.0014
1774.00,0.0013
1773.00,0.0013
1772.00,0.0014
1771.00,0.0014
1770.00,0.0015
1769.00,0.0016
1768.00,0.0016
1767.00,0.0016
1766.00,0.0016
1765.00,0.0016
1764.00,0.0017
1763.00,0.0017
1762.00,0.0018
1761.00,0.0019
1760.00,0.0019
1759.00,0.0019
1758.00,0.0019
1757.00,0.0020
1756.00,0.0021
1755.00,0.0021
1754.00,0.0022
1753.00,0.0023
1752.00,0.0023
1751.00,0.0024
1750.00,0.0025
1749.00,0.0027
1748.00,0.0028
1747.00,0.0029
1746.00,0.0030
1745.00,0.0031
1744.00,0.0032
1743.00,0.0033
1742.00,0.0034
1741.00,0.0035
1740.00,0.0035
1739.00,0.0035
1738.00,0.0034
1737.00,0.0034
1736.00,0.0033
1735.00,0.0032
1734.00,0.0032
1733.00,0.0032
1732.00,0.0033
1731.00,0.0033
1730.00,0.0033
1729.00,0.0033
1728.00,0.0033
1727.00,0.0033
1726.00,0.0033
1725.00,0.0033
1724.00,0.0032
1723.00,0.0032
1722.00,0.0031
1721.00,0.0031
1720.00,0.0032
1719.00,0.0032
1718.00,0.0032
1717.00,0.0032
1716.00,0.0032
1715.00,0.0032
1714.00,0.0033
1713.00,0.0033
1712.00,0.0034
1711.00,0.0034
1710.00,0.0034
1709.00,0.0034
1708.00,0.0035
1707.00,0.0035
1706.00,0.0036
1705.00,0.0036
1704.00,0.0037
1703.00,0.0037
1702.00,0.0038
1701.00,0.0039
1700.00,0.0041
1699.00,0.0041
1698.00,0.0041
1697.00,0.0041
1696.00,0.0043
1695.00,0.0045
1694.00,0.0046
1693.00,0.0047
1692.00,0.0049
1691.00,0.0049
1690.00,0.0050
1689.00,0.0051
1688.00,0.0052
1687.00,0.0053
1686.00,0.0053
1685.00,0.0054
1684.00,0.0056
1683.00,0.0057
1682.00,0.0058
1681.00,0.0060
1680.00,0.0061
1679.00,0.0063
1678.00,0.0064
1677.00,0.0065
1676.00,0.0066
1675.00,0.0067
1674.00,0.0068
1673.00,0.0069
1672.00,0.0069
1671.00,0.0070
1670.00,0.0071
1669.00,0.0072
1668.00,0.0073
1667.00,0.0074
1666.00,0.0075
1665.00,0.0076
1664.00,0.0077
1663.00,0.0079
1662.00,0.0080
1661.00,0.0081
1660.00,0.0082
1659.00,0.0083
1658.00,0.0084
1657.00,0.0086
1656.00,0.0087
1655.00,0.0088
1654.00,0.0090
1653.00,0.0092
1652.00,0.0093
1651.00,0.0093
1650.00,0.0093
1649.00,0.0093
1648.00,0.0094
1647.00,0.0094
1646.00,0.0095
1645.00,0.0095
1644.00,0.0096
1643.00,0.0096
1642.00,0.0096
1641.00,0.0096
1640.00,0.0097
1639.00,0.0098
1638.00,0.0099
1637.00,0.0100
1636.00,0.0102
1635.00,0.0103
1634.00,0.0104
1633.00,0.0104
1632.00,0.0104
1631.00,0.0104
1630.00,0.0105
1629.00,0.0106
1628.00,0.0106
1627.00,0.0106
1626.00,0.0105
1625.00,0.0105
1624.00,0.0105
1623.00,0.0104
1622.00,0.0104
1621.00,0.0104
1620.00,0.0103
1619.00,0.0102
1618.00,0.0100
1617.00,0.0099
1616.00,0.0099
1615.00,0.0099
1614.00,0.0098
1613.00,0.0098
1612.00,0.0097
1611.00,0.0096
1610.00,0.0096
1609.00,0.0096
1608.00,0.0097
1607.00,0.0097
1606.00,0.0097
1605.00,0.0098
1604.00,0.0099
1603.00,0.0099
1602.00,0.0100
1601.00,0.0101
1600.00,0.0102
1599.00,0.0103
1598.00,0.0105
1597.00,0.0107
1596.00,0.0109
1595.00,0.0112
1594.00,0.0114
1593.00,0.0118
1592.00,0.0122
1591.00,0.0127
1590.00,0.0133
1589.00,0.0142
1588.00,0.0151
1587.00,0.0162
1586.00,0.0174
1585.00,0.0189
1584.00,0.0206
1583.00,0.0225
1582.00,0.0245
1581.00,0.0265
1580.00,0.0282
1579.00,0.0294
1578.00,0.0302
1577.00,0.0304
1576.00,0.0300
1575.00,0.0290
1574.00,0.0278
1573.00,0.0265
1572.00,0.0252
1571.00,0.0236
1570.00,0.0218
1569.00,0.0201
1568.00,0.0188
1567.00,0.0179
1566.00,0.0171
1565.00,0.0165
1564.00,0.0160
1563.00,0.0157
1562.00,0.0155
1561.00,0.0154
1560.00,0.0155
1559.00,0.0155
1558.00,0.0156
1557.00,0.0157
1556.00,0.0159
1555.00,0.0162
1554.00,0.0167
1553.00,0.0172
1552.00,0.0179
1551.00,0.0188
1550.00,0.0201
1549.00,0.0215
1548.00,0.0230
1547.00,0.0246
1546.00,0.0265
1545.00,0.0288
1544.00,0.0310
1543.00,0.0328
1542.00,0.0342
1541.00,0.0348
1540.00,0.0341
1539.00,0.0323
1538.00,0.0302
1537.00,0.0282
1536.00,0.0262
1535.00,0.0240
1534.00,0.0215
1533.00,0.0192
1532.00,0.0176
1531.00,0.0164
1530.00,0.0154
1529.00,0.0147
1528.00,0.0141
1527.00,0.0136
1526.00,0.0131
1525.00,0.0127
1524.00,0.0124
1523.00,0.0122
1522.00,0.0119
1521.00,0.0118
1520.00,0.0118
1519.00,0.0118
1518.00,0.0116
1517.00,0.0116
1516.00,0.0115
1515.00,0.0114
1514.00,0.0113
1513.00,0.0113
1512.00,0.0114
1511.00,0.0114
1510.00,0.0114
1509.00,0.0115
1508.00,0.0116
1507.00,0.0116
1506.00,0.0115
1505.00,0.0115
1504.00,0.0116
1503.00,0.0117
1502.00,0.0118
1501.00,0.0120
1500.00,0.0123
1499.00,0.0125
1498.00,0.0128
1497.00,0.0132
1496.00,0.0136
1495.00,0.0139
1494.00,0.0142
1493.00,0.0146
1492.00,0.0151
1491.00,0.0157
1490.00,0.0164
1489.00,0.0174
1488.00,0.0185
1487.00,0.0196
1486.00,0.0207
1485.00,0.0222
1484.00,0.0238
1483.00,0.0257
1482.00,0.0279
1481.00,0.0305
1480.00,0.0330
1479.00,0.0353
1478.00,0.0377
1477.00,0.0404
1476.00,0.0431
1475.00,0.0460
1474.00,0.0495
1473.00,0.0545
1472.00,0.0603
1471.00,0.0659
1470.00,0.0713
1469.00,0.0772
1468.00,0.0837
1467.00,0.0909
1466.00,0.0993
1465.00,0.1082
1464.00,0.1160
1463.00,0.1213
1462.00,0.1247
1461.00,0.1270
1460.00,0.1286
1459.00,0.1295
1458.00,0.1299
1457.00,0.1299
1456.00,0.1293
1455.00,0.1282
1454.00,0.1268
1453.00,0.1248
1452.00,0.1218
1451.00,0.1175
1450.00,0.1119
1449.00,0.1043
1448.00,0.0951
1447.00,0.0854
1446.00,0.0769
1445.00,0.0698
1444.00,0.0639
1443.00,0.0593
1442.00,0.0561
1441.00,0.0541
1440.00,0.0532
1439.00,0.0533
1438.00,0.0543
1437.00,0.0553
1436.00,0.0550
1435.00,0.0527
1434.00,0.0488
1433.00,0.0440
1432.00,0.0390
1431.00,0.0346
1430.00,0.0311
1429.00,0.0287
1428.00,0.0270
1427.00,0.0261
1426.00,0.0256
1425.00,0.0252
1424.00,0.0249
1423.00,0.0247
1422.00,0.0246
1421.00,0.0244
1420.00,0.0240
1419.00,0.0235
1418.00,0.0230
1417.00,0.0223
1416.00,0.0216
1415.00,0.0210
1414.00,0.0205
1413.00,0.0200
1412.00,0.0195
1411.00,0.0191
1410.00,0.0187
1409.00,0.0183
1408.00,0.0178
1407.00,0.0174
1406.00,0.0170
1405.00,0.0166
1404.00,0.0161
1403.00,0.0158
1402.00,0.0156
1401.00,0.0154
1400.00,0.0151
1399.00,0.0149
1398.00,0.0149
1397.00,0.0148
1396.00,0.0148
1395.00,0.0149
1394.00,0.0153
1393.00,0.0157
1392.00,0.0162
1391.00,0.0170
1390.00,0.0181
1389.00,0.0197
1388.00,0.0221
1387.00,0.0257
1386.00,0.0305
1385.00,0.0367
1384.00,0.0449
1383.00,0.0561
1382.00,0.0710
1381.00,0.0904
1380.00,0.1150
1379.00,0.1440
1378.00,0.1734
1377.00,0.1969
1376.00,0.2078
1375.00,0.2010
1374.00,0.1783
1373.00,0.1484
1372.00,0.1198
1371.00,0.0958
1370.00,0.0765
1369.00,0.0619
1368.00,0.0518
1367.00,0.0457
1366.00,0.0425
1365.00,0.0413
1364.00,0.0417
1363.00,0.0433
1362.00,0.0458
1361.00,0.0484
1360.00,0.0504
1359.00,0.0510
1358.00,0.0498
1357.00,0.0469
1356.00,0.0428
1355.00,0.0382
1354.00,0.0337
1353.00,0.0299
1352.00,0.0269
1351.00,0.0244
1350.00,0.0225
1349.00,0.0209
1348.00,0.0195
1347.00,0.0184
1346.00,0.0176
1345.00,0.0169
1344.00,0.0164
1343.00,0.0161
1342.00,0.0159
1341.00,0.0157
1340.00,0.0155
1339.00,0.0153
1338.00,0.0151
1337.00,0.0150
1336.00,0.0150
1335.00,0.0152
1334.00,0.0155
1333.00,0.0159
1332.00,0.0163
1331.00,0.0166
1330.00,0.0167
1329.00,0.0166
1328.00,0.0161
1327.00,0.0155
1326.00,0.0149
1325.00,0.0143
1324.00,0.0138
1323.00,0.0133
1322.00,0.0130
1321.00,0.0128
1320.00,0.0126
1319.00,0.0124
1318.00,0.0121
1317.00,0.0118
1316.00,0.0115
1315.00,0.0112
1314.00,0.0110
1313.00,0.0109
1312.00,0.0110
1311.00,0.0111
1310.00,0.0114
1309.00,0.0119
1308.00,0.0126
1307.00,0.0134
1306.00,0.0142
1305.00,0.0149
1304.00,0.0152
1303.00,0.0153
1302.00,0.0151
1301.00,0.0150
1300.00,0.0151
1299.00,0.0152
1298.00,0.0154
1297.00,0.0155
1296.00,0.0154
1295.00,0.0152
1294.00,0.0148
1293.00,0.0142
1292.00,0.0136
1291.00,0.0131
1290.00,0.0125
1289.00,0.0121
1288.00,0.0117
1287.00,0.0113
1286.00,0.0110
1285.00,0.0108
1284.00,0.0105
1283.00,0.0103
1282.00,0.0102
1281.00,0.0100
1280.00,0.0100
1279.00,0.0099
1278.00,0.0098
1277.00,0.0097
1276.00,0.0096
1275.00,0.0094
1274.00,0.0093
1273.00,0.0091
1272.00,0.0090
1271.00,0.0089
1270.00,0.0089
1269.00,0.0090
1268.00,0.0090
1267.00,0.0091
1266.00,0.0093
1265.00,0.0095
1264.00,0.0097
1263.00,0.0100
1262.00,0.0103
1261.00,0.0106
1260.00,0.0111
1259.00,0.0116
1258.00,0.0121
1257.00,0.0125
1256.00,0.0126
1255.00,0.0125
1254.00,0.0120
1253.00,0.0115
1252.00,0.0110
1251.00,0.0107
1250.00,0.0105
1249.00,0.0104
1248.00,0.0104
1247.00,0.0104
1246.00,0.0104
1245.00,0.0104
1244.00,0.0104
1243.00,0.0104
1242.00,0.0104
1241.00,0.0104
1240.00,0.0105
1239.00,0.0106
1238.00,0.0108
1237.00,0.0109
1236.00,0.0111
1235.00,0.0112
1234.00,0.0114
1233.00,0.0117
1232.00,0.0118
1231.00,0.0120
1230.00,0.0121
1229.00,0.0123
1228.00,0.0126
1227.00,0.0129
1226.00,0.0133
1225.00,0.0136
1224.00,0.0140
1223.00,0.0143
1222.00,0.0147
1221.00,0.0151
1220.00,0.0153
1219.00,0.0155
1218.00,0.0155
1217.00,0.0154
1216.00,0.0151
1215.00,0.0148
1214.00,0.0145
1213.00,0.0141
1212.00,0.0138
1211.00,0.0135
1210.00,0.0133
1209.00,0.0131
1208.00,0.0129
1207.00,0.0127
1206.00,0.0126
1205.00,0.0125
1204.00,0.0124
1203.00,0.0124
1202.00,0.0124
1201.00,0.0124
1200.00,0.0125
1199.00,0.0126
1198.00,0.0127
1197.00,0.0128
1196.00,0.0128
1195.00,0.0128
1194.00,0.0128
1193.00,0.0127
1192.00,0.0126
1191.00,0.0126
1190.00,0.0125
1189.00,0.0124
1188.00,0.0123
1187.00,0.0121
1186.00,0.0120
1185.00,0.0119
1184.00,0.0119
1183.00,0.0118
1182.00,0.0118
1181.00,0.0118
1180.00,0.0119
1179.00,0.0121
1178.00,0.0124
1177.00,0.0129
1176.00,0.0136
1175.00,0.0145
1174.00,0.0158
1173.00,0.0174
1172.00,0.0193
1171.00,0.0214
1170.00,0.0234
1169.00,0.0250
1168.00,0.0260
1167.00,0.0262
1166.00,0.0258
1165.00,0.0248
1164.00,0.0237
1163.00,0.0226
1162.00,0.0216
1161.00,0.0207
1160.00,0.0200
1159.00,0.0194
1158.00,0.0189
1157.00,0.0186
1156.00,0.0184
1155.00,0.0183
1154.00,0.0182
1153.00,0.0181
1152.00,0.0178
1151.00,0.0172
1150.00,0.0165
1149.00,0.0157
1148.00,0.0149
1147.00,0.0141
1146.00,0.0134
1145.00,0.0127
1144.00,0.0122
1143.00,0.0118
1142.00,0.0114
1141.00,0.0111
1140.00,0.0108
1139.00,0.0106
1138.00,0.0105
1137.00,0.0104
1136.00,0.0103
1135.00,0.0103
1134.00,0.0104
1133.00,0.0104
1132.00,0.0105
1131.00,0.0106
1130.00,0.0107
1129.00,0.0109
1128.00,0.0112
1127.00,0.0114
1126.00,0.0115
1125.00,0.0115
1124.00,0.0115
1123.00,0.0114
1122.00,0.0113
1121.00,0.0112
1120.00,0.0112
1119.00,0.0113
1118.00,0.0115
1117.00,0.0118
1116.00,0.0122
1115.00,0.0125
1114.00,0.0128
1113.00,0.0130
1112.00,0.0132
1111.00,0.0134
1110.00,0.0136
1109.00,0.0139
1108.00,0.0143
1107.00,0.0149
1106.00,0.0156
1105.00,0.0162
1104.00,0.0166
1103.00,0.0168
1102.00,0.0167
1101.00,0.0164
1100.00,0.0158
1099.00,0.0150
1098.00,0.0143
1097.00,0.0136
1096.00,0.0129
1095.00,0.0123
1094.00,0.0118
1093.00,0.0113
1092.00,0.0109
1091.00,0.0106
1090.00,0.0103
1089.00,0.0099
1088.00,0.0096
1087.00,0.0094
1086.00,0.0093
1085.00,0.0092
1084.00,0.0091
1083.00,0.0090
1082.00,0.0089
1081.00,0.0088
1080.00,0.0087
1079.00,0.0085
1078.00,0.0082
1077.00,0.0081
1076.00,0.0080
1075.00,0.0080
1074.00,0.0080
1073.00,0.0080
1072.00,0.0080
1071.00,0.0079
1070.00,0.0079
1069.00,0.0079
1068.00,0.0080
1067.00,0.0081
1066.00,0.0083
1065.00,0.0084
1064.00,0.0086
1063.00,0.0086
1062.00,0.0087
1061.00,0.0089
1060.00,0.0090
1059.00,0.0092
1058.00,0.0093
1057.00,0.0093
1056.00,0.0094
1055.00,0.0095
1054.00,0.0096
1053.00,0.0099
1052.00,0.0101
1051.00,0.0104
1050.00,0.0106
1049.00,0.0109
1048.00,0.0112
1047.00,0.0115
1046.00,0.0118
1045.00,0.0120
1044.00,0.0121
1043.00,0.0122
1042.00,0.0122
1041.00,0.0122
1040.00,0.0123
1039.00,0.0126
1038.00,0.0130
1037.00,0.0132
1036.00,0.0133
1035.00,0.0133
1034.00,0.0130
1033.00,0.0126
1032.00,0.0121
1031.00,0.0118
1030.00,0.0115
1029.00,0.0113
1028.00,0.0111
1027.00,0.0109
1026.00,0.0108
1025.00,0.0107
1024.00,0.0107
1023.00,0.0107
1022.00,0.0107
1021.00,0.0107
1020.00,0.0108
1019.00,0.0110
1018.00,0.0113
1017.00,0.0117
1016.00,0.0121
1015.00,0.0127
1014.00,0.0133
1013.00,0.0139
1012.00,0.0144
1011.00,0.0147
1010.00,0.0148
1009.00,0.0147
1008.00,0.0146
1007.00,0.0147
1006.00,0.0149
1005.00,0.0154
1004.00,0.0163
1003.00,0.0175
1002.00,0.0192
1001.00,0.0214
1000.00,0.0236
999.00,0.0255
998.00,0.0263
997.00,0.0257
996.00,0.0239
995.00,0.0212
994.00,0.0185
993.00,0.0161
992.00,0.0142
991.00,0.0129
990.00,0.0119
989.00,0.0112
988.00,0.0108
987.00,0.0105
986.00,0.0104
985.00,0.0105
984.00,0.0109
983.00,0.0115
982.00,0.0124
981.00,0.0137
980.00,0.0155
979.00,0.0178
978.00,0.0206
977.00,0.0238
976.00,0.0271
975.00,0.0299
974.00,0.0317
973.00,0.0319
972.00,0.0304
971.00,0.0273
970.00,0.0235
969.00,0.0198
968.00,0.0166
967.00,0.0141
966.00,0.0123
965.00,0.0109
964.00,0.0099
963.00,0.0092
962.00,0.0086
961.00,0.0082
960.00,0.0079
959.00,0.0075
958.00,0.0072
957.00,0.0068
956.00,0.0066
955.00,0.0064
954.00,0.0063
953.00,0.0062
952.00,0.0062
951.00,0.0063
950.00,0.0063
949.00,0.0064
948.00,0.0065
947.00,0.0066
946.00,0.0069
945.00,0.0072
944.00,0.0076
943.00,0.0080
942.00,0.0084
941.00,0.0086
940.00,0.0087
939.00,0.0085
938.00,0.0083
937.00,0.0080
936.00,0.0076
935.00,0.0073
934.00,0.0070
933.00,0.0067
932.00,0.0066
931.00,0.0065
930.00,0.0065
929.00,0.0066
928.00,0.0066
927.00,0.0065
926.00,0.0065
925.00,0.0065
924.00,0.0065
923.00,0.0066
922.00,0.0067
921.00,0.0068
920.00,0.0069
919.00,0.0072
918.00,0.0074
917.00,0.0077
916.00,0.0078
915.00,0.0079
914.00,0.0080
913.00,0.0080
912.00,0.0081
911.00,0.0083
910.00,0.0084
909.00,0.0086
908.00,0.0088
907.00,0.0094
906.00,0.0102
905.00,0.0114
904.00,0.0129
903.00,0.0148
902.00,0.0170
901.00,0.0190
900.00,0.0206
899.00,0.0210
898.00,0.0202
897.00,0.0185
896.00,0.0163
895.00,0.0141
894.00,0.0124
893.00,0.0111
892.00,0.0103
891.00,0.0096
890.00,0.0091
889.00,0.0087
888.00,0.0083
887.00,0.0081
886.00,0.0081
885.00,0.0082
884.00,0.0084
883.00,0.0086
882.00,0.0088
881.00,0.0089
880.00,0.0090
879.00,0.0091
878.00,0.0091
877.00,0.0091
876.00,0.0090
875.00,0.0089
874.00,0.0089
873.00,0.0087
872.00,0.0085
871.00,0.0083
870.00,0.0082
869.00,0.0082
868.00,0.0082
867.00,0.0082
866.00,0.0082
865.00,0.0083
864.00,0.0084
863.00,0.0085
862.00,0.0086
861.00,0.0088
860.00,0.0090
859.00,0.0092
858.00,0.0093
857.00,0.0095
856.00,0.0096
855.00,0.0098
854.00,0.0099
853.00,0.0100
852.00,0.0101
851.00,0.0104
850.00,0.0108
849.00,0.0113
848.00,0.0120
847.00,0.0130
846.00,0.0145
845.00,0.0167
844.00,0.0194
843.00,0.0223
842.00,0.0242
841.00,0.0245
840.00,0.0229
839.00,0.0203
838.00,0.0176
837.00,0.0156
836.00,0.0142
835.00,0.0133
834.00,0.0127
833.00,0.0123
832.00,0.0120
831.00,0.0118
830.00,0.0116
829.00,0.0114
828.00,0.0113
827.00,0.0111
826.00,0.0110
825.00,0.0109
824.00,0.0109
823.00,0.0110
822.00,0.0111
821.00,0.0113
820.00,0.0115
819.00,0.0118
818.00,0.0122
817.00,0.0127
816.00,0.0135
815.00,0.0147
814.00,0.0163
813.00,0.0182
812.00,0.0200
811.00,0.0218
810.00,0.0231
809.00,0.0239
808.00,0.0237
807.00,0.0228
806.00,0.0212
805.00,0.0195
804.00,0.0177
803.00,0.0162
802.00,0.0149
801.00,0.0138
800.00,0.0130
799.00,0.0123
798.00,0.0117
797.00,0.0113
796.00,0.0111
795.00,0.0109
794.00,0.0107
793.00,0.0104
792.00,0.0101
791.00,0.0099
790.00,0.0097
789.00,0.0097
788.00,0.0096
787.00,0.0095
786.00,0.0093
785.00,0.0090
784.00,0.0088
783.00,0.0086
782.00,0.0085
781.00,0.0085
780.00,0.0084
779.00,0.0085
778.00,0.0086
777.00,0.0087
776.00,0.0088
775.00,0.0089
774.00,0.0090
773.00,0.0092
772.00,0.0093
771.00,0.0095
770.00,0.0097
769.00,0.0099
768.00,0.0101
767.00,0.0102
766.00,0.0102
765.00,0.0100
764.00,0.0097
763.00,0.0094
762.00,0.0090
761.00,0.0087
760.00,0.0086
759.00,0.0086
758.00,0.0085
757.00,0.0084
756.00,0.0081
755.00,0.0079
754.00,0.0078
753.00,0.0078
752.00,0.0079
751.00,0.0080
750.00,0.0081
749.00,0.0082
748.00,0.0082
747.00,0.0083
746.00,0.0083
745.00,0.0083
744.00,0.0082
743.00,0.0082
742.00,0.0082
741.00,0.0082
740.00,0.0083
739.00,0.0085
738.00,0.0087
737.00,0.0089
736.00,0.0091
735.00,0.0093
734.00,0.0096
733.00,0.0099
732.00,0.0103
731.00,0.0107
730.00,0.0110
729.00,0.0112
728.00,0.0111
727.00,0.0111
726.00,0.0110
725.00,0.0111
724.00,0.0112
723.00,0.0114
722.00,0.0116
721.00,0.0116
720.00,0.0115
719.00,0.0111
718.00,0.0106
717.00,0.0100
716.00,0.0095
715.00,0.0093
714.00,0.0093
713.00,0.0093
712.00,0.0093
711.00,0.0093
710.00,0.0093
709.00,0.0093
708.00,0.0094
707.00,0.0094
706.00,0.0096
705.00,0.0096
704.00,0.0096
703.00,0.0096
702.00,0.0095
701.00,0.0095
700.00,0.0094
699.00,0.0093
698.00,0.0091
697.00,0.0090
696.00,0.0089
695.00,0.0089
694.00,0.0090
693.00,0.0091
692.00,0.0092
691.00,0.0094
690.00,0.0096
689.00,0.0098
688.00,0.0099
687.00,0.0100
686.00,0.0100
685.00,0.0100
684.00,0.0099
683.00,0.0098
682.00,0.0098
681.00,0.0100
680.00,0.0102
679.00,0.0103
678.00,0.0104
677.00,0.0104
676.00,0.0104
675.00,0.0105
674.00,0.0106
673.00,0.0107
672.00,0.0107
671.00,0.0106
670.00,0.0103
669.00,0.0100
668.00,0.0098
667.00,0.0099
666.00,0.0101
665.00,0.0100
664.00,0.0099
663.00,0.0097
662.00,0.0095
661.00,0.0093
660.00,0.0091
659.00,0.0089
658.00,0.0089
657.00,0.0089
656.00,0.0089
655.00,0.0088
654.00,0.0089
653.00,0.0088
652.00,0.0087
651.00,0.0084
650.00,0.0082
649.00,0.0080
648.00,0.0080
647.00,0.0080
646.00,0.0081
645.00,0.0082
644.00,0.0083
643.00,0.0084
642.00,0.0086
641.00,0.0088
640.00,0.0090
639.00,0.0091
638.00,0.0092
637.00,0.0092
636.00,0.0092
635.00,0.0092
634.00,0.0092
633.00,0.0093
632.00,0.0092
631.00,0.0092
630.00,0.0092
629.00,0.0094
628.00,0.0095
627.00,0.0097
626.00,0.0098
625.00,0.0098
624.00,0.0096
623.00,0.0093
622.00,0.0093
621.00,0.0093
620.00,0.0093
619.00,0.0093
618.00,0.0093
617.00,0.0095
616.00,0.0097
615.00,0.0098
614.00,0.0099
613.00,0.0101
612.00,0.0103
611.00,0.0105
610.00,0.0105
609.00,0.0101
608.00,0.0096
607.00,0.0092
606.00,0.0089
605.00,0.0089
604.00,0.0089
603.00,0.0090
602.00,0.0089
601.00,0.0089
600.00,0.0089
599.00,0.0091
598.00,0.0092
597.00,0.0092
596.00,0.0092
595.00,0.0091
594.00,0.0090
593.00,0.0089
592.00,0.0088
591.00,0.0089
590.00,0.0091
589.00,0.0095
588.00,0.0098
587.00,0.0100
586.00,0.0100
585.00,0.0100
584.00,0.0101
583.00,0.0102
582.00,0.0103
581.00,0.0103
580.00,0.0101
579.00,0.0099
578.00,0.0098
577.00,0.0098
576.00,0.0098
575.00,0.0098
574.00,0.0097
573.00,0.0095
572.00,0.0094
571.00,0.0093
570.00,0.0092
569.00,0.0090
568.00,0.0088
567.00,0.0088
566.00,0.0090
565.00,0.0094
564.00,0.0097
563.00,0.0099
562.00,0.0099
561.00,0.0099
560.00,0.0099
559.00,0.0099
558.00,0.0098
557.00,0.0098
556.00,0.0096
555.00,0.0094
554.00,0.0093
553.00,0.0092
552.00,0.0094
551.00,0.0097
550.00,0.0100
549.00,0.0103
548.00,0.0102
547.00,0.0100
546.00,0.0096
545.00,0.0093
544.00,0.0090
543.00,0.0090
542.00,0.0091
541.00,0.0094
540.00,0.0096
539.00,0.0097
538.00,0.0097
537.00,0.0097
536.00,0.0099
535.00,0.0105
534.00,0.0111
533.00,0.0114
532.00,0.0114
531.00,0.0115
530.00,0.0117
529.00,0.0121
528.00,0.0125
527.00,0.0128
526.00,0.0130
525.00,0.0129
524.00,0.0123
523.00,0.0114
522.00,0.0106
521.00,0.0101
520.00,0.0098
519.00,0.0097
518.00,0.0096
517.00,0.0097
516.00,0.0097
515.00,0.0095
514.00,0.0092
513.00,0.0090
512.00,0.0089
511.00,0.0091
510.00,0.0093
509.00,0.0095
508.00,0.0094
507.00,0.0089
506.00,0.0083
505.00,0.0082
504.00,0.0087
503.00,0.0097
502.00,0.0104
501.00,0.0106
500.00,0.0104
499.00,0.0103
498.00,0.0105
497.00,0.0108
496.00,0.0109
495.00,0.0110
494.00,0.0109
493.00,0.0106
492.00,0.0102
491.00,0.0099
490.00,0.0098
489.00,0.0101
488.00,0.0105
487.00,0.0105
486.00,0.0101
485.00,0.0093
484.00,0.0084
483.00,0.0077
482.00,0.0071
481.00,0.0069
480.00,0.0071
479.00,0.0076
478.00,0.0082
477.00,0.0085
476.00,0.0084
475.00,0.0080
474.00,0.0075
473.00,0.0074
472.00,0.0080
471.00,0.0091
470.00,0.0101
469.00,0.0105
468.00,0.0105
467.00,0.0107
466.00,0.0113
465.00,0.0121
464.00,0.0130
463.00,0.0142
462.00,0.0158
461.00,0.0171
460.00,0.0175
459.00,0.0164
458.00,0.0156
457.00,0.0153
456.00,0.0154
455.00,0.0157
454.00,0.0159
453.00,0.0158
452.00,0.0148
451.00,0.0129
450.00,0.0109
