Created as New Dataset,Sample 059 By Administrator Date Friday, September 05 2025
cm-1,A
4000.00,0.0010
3999.00,0.0010
3998.00,0.0010
3997.00,0.0010
3996.00,0.0010
3995.00,0.0009
3994.00,0.0009
3993.00,0.0009
3992.00,0.0009
3991.00,0.0010
3990.00,0.0010
3989.00,0.0010
3988.00,0.0010
3987.00,0.0010
3986.00,0.0010
3985.00,0.0010
3984.00,0.0009
3983.00,0.0009
3982.00,0.0009
3981.00,0.0009
3980.00,0.0009
3979.00,0.0009
3978.00,0.0008
3977.00,0.0008
3976.00,0.0008
3975.00,0.0008
3974.00,0.0008
3973.00,0.0008
3972.00,0.0008
3971.00,0.0008
3970.00,0.0008
3969.00,0.0008
3968.00,0.0008
3967.00,0.0008
3966.00,0.0009
3965.00,0.0009
3964.00,0.0008
3963.00,0.0008
3962.00,0.0008
3961.00,0.0007
3960.00,0.0007
3959.00,0.0007
3958.00,0.0007
3957.00,0.0008
3956.00,0.0008
3955.00,0.0008
3954.00,0.0007
3953.00,0.0007
3952.00,0.0007
3951.00,0.0007
3950.00,0.0007
3949.00,0.0007
3948.00,0.0007
3947.00,0.0007
3946.00,0.0007
3945.00,0.0007
3944.00,0.0007
3943.00,0.0008
3942.00,0.0008
3941.00,0.0008
3940.00,0.0008
3939.00,0.0008
3938.00,0.0008
3937.00,0.0008
3936.00,0.0007
3935.00,0.0007
3934.00,0.0007
3933.00,0.0007
3932.00,0.0008
3931.00,0.0008
3930.00,0.0008
3929.00,0.0008
3928.00,0.0008
3927.00,0.0008
3926.00,0.0008
3925.00,0.0008
3924.00,0.0008
3923.00,0.0008
3922.00,0.0008
3921.00,0.0007
3920.00,0.0007
3919.00,0.0007
3918.00,0.0007
3917.00,0.0008
3916.00,0.0008
3915.00,0.0008
3914.00,0.0009
3913.00,0.0009
3912.00,0.0009
3911.00,0.0008
3910.00,0.0008
3909.00,0.0008
3908.00,0.0008
3907.00,0.0007
3906.00,0.0007
3905.00,0.0006
3904.00,0.0006
3903.00,0.0005
3902.00,0.0005
3901.00,0.0005
3900.00,0.0006
3899.00,0.0007
3898.00,0.0007
3897.00,0.0007
3896.00,0.0007
3895.00,0.0008
3894.00,0.0008
3893.00,0.0008
3892.00,0.0008
3891.00,0.0008
3890.00,0.0007
3889.00,0.0007
3888.00,0.0007
3887.00,0.0006
3886.00,0.0006
3885.00,0.0006
3884.00,0.0006
3883.00,0.0006
3882.00,0.0006
3881.00,0.0007
3880.00,0.0007
3879.00,0.0007
3878.00,0.0007
3877.00,0.0007
3876.00,0.0007
3875.00,0.0007
3874.00,0.0006
3873.00,0.0006
3872.00,0.0006
3871.00,0.0006
3870.00,0.0006
3869.00,0.0006
3868.00,0.0006
3867.00,0.0006
3866.00,0.0006
3865.00,0.0006
3864.00,0.0006
3863.00,0.0006
3862.00,0.0006
3861.00,0.0006
3860.00,0.0006
3859.00,0.0006
3858.00,0.0006
3857.00,0.0006
3856.00,0.0006
3855.00,0.0005
3854.00,0.0005
3853.00,0.0005
3852.00,0.0005
3851.00,0.0005
3850.00,0.0005
3849.00,0.0006
3848.00,0.0006
3847.00,0.0006
3846.00,0.0006
3845.00,0.0006
3844.00,0.0006
3843.00,0.0006
3842.00,0.0006
3841.00,0.0006
3840.00,0.0006
3839.00,0.0006
3838.00,0.0006
3837.00,0.0006
3836.00,0.0006
3835.00,0.0006
3834.00,0.0006
3833.00,0.0006
3832.00,0.0006
3831.00,0.0006
3830.00,0.0006
3829.00,0.0006
3828.00,0.0006
3827.00,0.0006
3826.00,0.0007
3825.00,0.0006
3824.00,0.0006
3823.00,0.0006
3822.00,0.0006
3821.00,0.0006
3820.00,0.0006
3819.00,0.0006
3818.00,0.0006
3817.00,0.0006
3816.00,0.0006
3815.00,0.0006
3814.00,0.0007
3813.00,0.0007
3812.00,0.0007
3811.00,0.0007
3810.00,0.0007
3809.00,0.0007
3808.00,0.0007
3807.00,0.0007
3806.00,0.0006
3805.00,0.0006
3804.00,0.0006
3803.00,0.0006
3802.00,0.0007
3801.00,0.0007
3800.00,0.0007
3799.00,0.0006
3798.00,0.0006
3797.00,0.0006
3796.00,0.0006
3795.00,0.0006
3794.00,0.0007
3793.00,0.0007
3792.00,0.0007
3791.00,0.0008
3790.00,0.0008
3789.00,0.0008
3788.00,0.0008
3787.00,0.0008
3786.00,0.0008
3785.00,0.0008
3784.00,0.0008
3783.00,0.0007
3782.00,0.0007
3781.00,0.0007
3780.00,0.0007
3779.00,0.0008
3778.00,0.0008
3777.00,0.0008
3776.00,0.0008
3775.00,0.0008
3774.00,0.0009
3773.00,0.0009
3772.00,0.0009
3771.00,0.0009
3770.00,0.0009
3769.00,0.0008
3768.00,0.0008
3767.00,0.0007
3766.00,0.0007
3765.00,0.0007
3764.00,0.0007
3763.00,0.0008
3762.00,0.0008
3761.00,0.0008
3760.00,0.0007
3759.00,0.0007
3758.00,0.0007
3757.00,0.0007
3756.00,0.0006
3755.00,0.0006
3754.00,0.0006
3753.00,0.0005
3752.00,0.0005
3751.00,0.0004
3750.00,0.0003
3749.00,0.0003
3748.00,0.0003
3747.00,0.0003
3746.00,0.0004
3745.00,0.0004
3744.00,0.0004
3743.00,0.0004
3742.00,0.0004
3741.00,0.0004
3740.00,0.0004
3739.00,0.0004
3738.00,0.0004
3737.00,0.0004
3736.00,0.0004
3735.00,0.0004
3734.00,0.0004
3733.00,0.0004
3732.00,0.0004
3731.00,0.0004
3730.00,0.0005
3729.00,0.0005
3728.00,0.0004
3727.00,0.0004
3726.00,0.0005
3725.00,0.0005
3724.00,0.0005
3723.00,0.0006
3722.00,0.0006
3721.00,0.0006
3720.00,0.0005
3719.00,0.0005
3718.00,0.0005
3717.00,0.0005
3716.00,0.0005
3715.00,0.0004
3714.00,0.0004
3713.00,0.0004
3712.00,0.0004
3711.00,0.0005
3710.00,0.0005
3709.00,0.0006
3708.00,0.0006
3707.00,0.0006
3706.00,0.0006
3705.00,0.0006
3704.00,0.0006
3703.00,0.0006
3702.00,0.0006
3701.00,0.0006
3700.00,0.0006
3699.00,0.0006
3698.00,0.0006
3697.00,0.0006
3696.00,0.0006
3695.00,0.0005
3694.00,0.0005
3693.00,0.0005
3692.00,0.0005
3691.00,0.0005
3690.00,0.0004
3689.00,0.0004
3688.00,0.0004
3687.00,0.0004
3686.00,0.0004
3685.00,0.0004
3684.00,0.0004
3683.00,0.0003
3682.00,0.0003
3681.00,0.0003
3680.00,0.0002
3679.00,0.0002
3678.00,0.0001
3677.00,0.0001
3676.00,0.0001
3675.00,0.0001
3674.00,0.0000
3673.00,-0.0000
3672.00,-0.0000
3671.00,-0.0001
3670.00,-0.0000
3669.00,-0.0000
3668.00,0.0000
3667.00,0.0000
3666.00,0.0000
3665.00,0.0001
3664.00,0.0001
3663.00,0.0001
3662.00,0.0001
3661.00,0.0001
3660.00,0.0001
3659.00,0.0001
3658.00,0.0000
3657.00,-0.0000
3656.00,-0.0001
3655.00,-0.0001
3654.00,-0.0001
3653.00,-0.0001
3652.00,-0.0001
3651.00,-0.0000
3650.00,0.0000
3649.00,0.0000
3648.00,0.0001
3647.00,0.0001
3646.00,0.0001
3645.00,0.0001
3644.00,0.0001
3643.00,0.0001
3642.00,0.0002
3641.00,0.0003
3640.00,0.0003
3639.00,0.0004
3638.00,0.0004
3637.00,0.0004
3636.00,0.0004
3635.00,0.0004
3634.00,0.0004
3633.00,0.0004
3632.00,0.0003
3631.00,0.0002
3630.00,0.0002
3629.00,0.0003
3628.00,0.0004
3627.00,0.0005
3626.00,0.0006
3625.00,0.0006
3624.00,0.0006
3623.00,0.0005
3622.00,0.0005
3621.00,0.0005
3620.00,0.0005
3619.00,0.0005
3618.00,0.0005
3617.00,0.0005
3616.00,0.0005
3615.00,0.0006
3614.00,0.0006
3613.00,0.0007
3612.00,0.0007
3611.00,0.0007
3610.00,0.0007
3609.00,0.0007
3608.00,0.0007
3607.00,0.0008
3606.00,0.0008
3605.00,0.0008
3604.00,0.0008
3603.00,0.0008
3602.00,0.0008
3601.00,0.0008
3600.00,0.0009
3599.00,0.0009
3598.00,0.0009
3597.00,0.0009
3596.00,0.0009
3595.00,0.0009
3594.00,0.0009
3593.00,0.0009
3592.00,0.0009
3591.00,0.0009
3590.00,0.0009
3589.00,0.0009
3588.00,0.0009
3587.00,0.0009
3586.00,0.0010
3585.00,0.0010
3584.00,0.0010
3583.00,0.0010
3582.00,0.0010
3581.00,0.0011
3580.00,0.0011
3579.00,0.0012
3578.00,0.0012
3577.00,0.0012
3576.00,0.0013
3575.00,0.0013
3574.00,0.0013
3573.00,0.0014
3572.00,0.0014
3571.00,0.0013
3570.00,0.0013
3569.00,0.0012
3568.00,0.0012
3567.00,0.0012
3566.00,0.0012
3565.00,0.0013
3564.00,0.0013
3563.00,0.0013
3562.00,0.0014
3561.00,0.0015
3560.00,0.0015
3559.00,0.0016
3558.00,0.0016
3557.00,0.0016
3556.00,0.0016
3555.00,0.0017
3554.00,0.0017
3553.00,0.0017
3552.00,0.0016
3551.00,0.0016
3550.00,0.0016
3549.00,0.0016
3548.00,0.0016
3547.00,0.0016
3546.00,0.0016
3545.00,0.0017
3544.00,0.0017
3543.00,0.0017
3542.00,0.0018
3541.00,0.0018
3540.00,0.0018
3539.00,0.0018
3538.00,0.0018
3537.00,0.0018
3536.00,0.0018
3535.00,0.0018
3534.00,0.0018
3533.00,0.0018
3532.00,0.0019
3531.00,0.0019
3530.00,0.0019
3529.00,0.0019
3528.00,0.0019
3527.00,0.0019
3526.00,0.0019
3525.00,0.0019
3524.00,0.0019
3523.00,0.0019
3522.00,0.0019
3521.00,0.0020
3520.00,0.0020
3519.00,0.0020
3518.00,0.0020
3517.00,0.0020
3516.00,0.0020
3515.00,0.0020
3514.00,0.0020
3513.00,0.0020
3512.00,0.0020
3511.00,0.0020
3510.00,0.0020
3509.00,0.0020
3508.00,0.0020
3507.00,0.0020
3506.00,0.0021
3505.00,0.0021
3504.00,0.0021
3503.00,0.0021
3502.00,0.0021
3501.00,0.0021
3500.00,0.0021
3499.00,0.0021
3498.00,0.0021
3497.00,0.0021
3496.00,0.0021
3495.00,0.0021
3494.00,0.0021
3493.00,0.0021
3492.00,0.0022
3491.00,0.0022
3490.00,0.0022
3489.00,0.0022
3488.00,0.0022
3487.00,0.0022
3486.00,0.0022
3485.00,0.0022
3484.00,0.0022
3483.00,0.0022
3482.00,0.0022
3481.00,0.0023
3480.00,0.0023
3479.00,0.0024
3478.00,0.0024
3477.00,0.0024
3476.00,0.0024
3475.00,0.0024
3474.00,0.0024
3473.00,0.0024
3472.00,0.0024
3471.00,0.0024
3470.00,0.0024
3469.00,0.0024
3468.00,0.0024
3467.00,0.0024
3466.00,0.0024
3465.00,0.0024
3464.00,0.0024
3463.00,0.0025
3462.00,0.0025
3461.00,0.0025
3460.00,0.0026
3459.00,0.0026
3458.00,0.0026
3457.00,0.0026
3456.00,0.0026
3455.00,0.0026
3454.00,0.0026
3453.00,0.0027
3452.00,0.0027
3451.00,0.0027
3450.00,0.0027
3449.00,0.0027
3448.00,0.0027
3447.00,0.0027
3446.00,0.0027
3445.00,0.0028
3444.00,0.0028
3443.00,0.0028
3442.00,0.0027
3441.00,0.0027
3440.00,0.0027
3439.00,0.0027
3438.00,0.0027
3437.00,0.0028
3436.00,0.0028
3435.00,0.0028
3434.00,0.0028
3433.00,0.0028
3432.00,0.0028
3431.00,0.0028
3430.00,0.0029
3429.00,0.0029
3428.00,0.0029
3427.00,0.0029
3426.00,0.0029
3425.00,0.0029
3424.00,0.0029
3423.00,0.0029
3422.00,0.0029
3421.00,0.0029
3420.00,0.0030
3419.00,0.0030
3418.00,0.0031
3417.00,0.0031
3416.00,0.0031
3415.00,0.0031
3414.00,0.0031
3413.00,0.0032
3412.00,0.0032
3411.00,0.0031
3410.00,0.0031
3409.00,0.0031
3408.00,0.0030
3407.00,0.0030
3406.00,0.0030
3405.00,0.0031
3404.00,0.0031
3403.00,0.0031
3402.00,0.0031
3401.00,0.0031
3400.00,0.0031
3399.00,0.0031
3398.00,0.0031
3397.00,0.0031
3396.00,0.0031
3395.00,0.0031
3394.00,0.0031
3393.00,0.0031
3392.00,0.0031
3391.00,0.0031
3390.00,0.0032
3389.00,0.0032
3388.00,0.0032
3387.00,0.0033
3386.00,0.0033
3385.00,0.0033
3384.00,0.0033
3383.00,0.0033
3382.00,0.0033
3381.00,0.0033
3380.00,0.0033
3379.00,0.0033
3378.00,0.0033
3377.00,0.0033
3376.00,0.0033
3375.00,0.0033
3374.00,0.0033
3373.00,0.0033
3372.00,0.0033
3371.00,0.0033
3370.00,0.0033
3369.00,0.0033
3368.00,0.0033
3367.00,0.0033
3366.00,0.0033
3365.00,0.0033
3364.00,0.0033
3363.00,0.0034
3362.00,0.0034
3361.00,0.0034
3360.00,0.0034
3359.00,0.0034
3358.00,0.0034
3357.00,0.0034
3356.00,0.0034
3355.00,0.0034
3354.00,0.0034
3353.00,0.0034
3352.00,0.0034
3351.00,0.0035
3350.00,0.0035
3349.00,0.0035
3348.00,0.0035
3347.00,0.0035
3346.00,0.0034
3345.00,0.0034
3344.00,0.0034
3343.00,0.0034
3342.00,0.0034
3341.00,0.0034
3340.00,0.0034
3339.00,0.0034
3338.00,0.0034
3337.00,0.0034
3336.00,0.0034
3335.00,0.0035
3334.00,0.0035
3333.00,0.0034
3332.00,0.0034
3331.00,0.0034
3330.00,0.0034
3329.00,0.0034
3328.00,0.0034
3327.00,0.0034
3326.00,0.0034
3325.00,0.0033
3324.00,0.0033
3323.00,0.0033
3322.00,0.0033
3321.00,0.0033
3320.00,0.0033
3319.00,0.0033
3318.00,0.0033
3317.00,0.0033
3316.00,0.0033
3315.00,0.0033
3314.00,0.0033
3313.00,0.0033
3312.00,0.0033
3311.00,0.0033
3310.00,0.0033
3309.00,0.0033
3308.00,0.0033
3307.00,0.0033
3306.00,0.0033
3305.00,0.0033
3304.00,0.0033
3303.00,0.0034
3302.00,0.0034
3301.00,0.0034
3300.00,0.0033
3299.00,0.0033
3298.00,0.0033
3297.00,0.0033
3296.00,0.0033
3295.00,0.0033
3294.00,0.0033
3293.00,0.0033
3292.00,0.0033
3291.00,0.0033
3290.00,0.0033
3289.00,0.0033
3288.00,0.0033
3287.00,0.0033
3286.00,0.0033
3285.00,0.0033
3284.00,0.0032
3283.00,0.0032
3282.00,0.0032
3281.00,0.0032
3280.00,0.0031
3279.00,0.0031
3278.00,0.0031
3277.00,0.0031
3276.00,0.0032
3275.00,0.0032
3274.00,0.0032
3273.00,0.0032
3272.00,0.0032
3271.00,0.0031
3270.00,0.0031
3269.00,0.0030
3268.00,0.0031
3267.00,0.0031
3266.00,0.0031
3265.00,0.0031
3264.00,0.0031
3263.00,0.0030
3262.00,0.0030
3261.00,0.0030
3260.00,0.0030
3259.00,0.0030
3258.00,0.0029
3257.00,0.0029
3256.00,0.0029
3255.00,0.0029
3254.00,0.0029
3253.00,0.0029
3252.00,0.0029
3251.00,0.0029
3250.00,0.0029
3249.00,0.0029
3248.00,0.0028
3247.00,0.0028
3246.00,0.0028
3245.00,0.0028
3244.00,0.0028
3243.00,0.0028
3242.00,0.0028
3241.00,0.0028
3240.00,0.0028
3239.00,0.0029
3238.00,0.0029
3237.00,0.0029
3236.00,0.0029
3235.00,0.0030
3234.00,0.0030
3233.00,0.0030
3232.00,0.0030
3231.00,0.0030
3230.00,0.0030
3229.00,0.0030
3228.00,0.0030
3227.00,0.0031
3226.00,0.0031
3225.00,0.0031
3224.00,0.0030
3223.00,0.0030
3222.00,0.0031
3221.00,0.0031
3220.00,0.0031
3219.00,0.0032
3218.00,0.0032
3217.00,0.0032
3216.00,0.0032
3215.00,0.0032
3214.00,0.0032
3213.00,0.0032
3212.00,0.0033
3211.00,0.0034
3210.00,0.0034
3209.00,0.0034
3208.00,0.0034
3207.00,0.0034
3206.00,0.0034
3205.00,0.0035
3204.00,0.0035
3203.00,0.0035
3202.00,0.0035
3201.00,0.0035
3200.00,0.0036
3199.00,0.0036
3198.00,0.0036
3197.00,0.0036
3196.00,0.0036
3195.00,0.0036
3194.00,0.0036
3193.00,0.0036
3192.00,0.0036
3191.00,0.0035
3190.00,0.0035
3189.00,0.0035
3188.00,0.0034
3187.00,0.0034
3186.00,0.0034
3185.00,0.0034
3184.00,0.0034
3183.00,0.0033
3182.00,0.0033
3181.00,0.0033
3180.00,0.0032
3179.00,0.0032
3178.00,0.0032
3177.00,0.0032
3176.00,0.0032
3175.00,0.0032
3174.00,0.0032
3173.00,0.0032
3172.00,0.0032
3171.00,0.0032
3170.00,0.0032
3169.00,0.0032
3168.00,0.0032
3167.00,0.0032
3166.00,0.0032
3165.00,0.0032
3164.00,0.0032
3163.00,0.0032
3162.00,0.0032
3161.00,0.0032
3160.00,0.0032
3159.00,0.0032
3158.00,0.0032
3157.00,0.0033
3156.00,0.0033
3155.00,0.0033
3154.00,0.0033
3153.00,0.0032
3152.00,0.0032
3151.00,0.0032
3150.00,0.0032
3149.00,0.0032
3148.00,0.0032
3147.00,0.0032
3146.00,0.0032
3145.00,0.0032
3144.00,0.0031
3143.00,0.0031
3142.00,0.0031
3141.00,0.0031
3140.00,0.0031
3139.00,0.0031
3138.00,0.0031
3137.00,0.0031
3136.00,0.0031
3135.00,0.0030
3134.00,0.0030
3133.00,0.0030
3132.00,0.0030
3131.00,0.0030
3130.00,0.0029
3129.00,0.0029
3128.00,0.0029
3127.00,0.0029
3126.00,0.0029
3125.00,0.0028
3124.00,0.0028
3123.00,0.0028
3122.00,0.0027
3121.00,0.0027
3120.00,0.0027
3119.00,0.0027
3118.00,0.0027
3117.00,0.0027
3116.00,0.0027
3115.00,0.0027
3114.00,0.0027
3113.00,0.0027
3112.00,0.0027
3111.00,0.0027
3110.00,0.0026
3109.00,0.0026
3108.00,0.0026
3107.00,0.0027
3106.00,0.0027
3105.00,0.0027
3104.00,0.0027
3103.00,0.0027
3102.00,0.0027
3101.00,0.0026
3100.00,0.0026
3099.00,0.0026
3098.00,0.0026
3097.00,0.0027
3096.00,0.0027
3095.00,0.0027
3094.00,0.0026
3093.00,0.0026
3092.00,0.0026
3091.00,0.0026
3090.00,0.0026
3089.00,0.0026
3088.00,0.0026
3087.00,0.0026
3086.00,0.0026
3085.00,0.0026
3084.00,0.0026
3083.00,0.0026
3082.00,0.0026
3081.00,0.0026
3080.00,0.0025
3079.00,0.0025
3078.00,0.0026
3077.00,0.0026
3076.00,0.0026
3075.00,0.0027
3074.00,0.0027
3073.00,0.0027
3072.00,0.0027
3071.00,0.0027
3070.00,0.0027
3069.00,0.0027
3068.00,0.0028
3067.00,0.0028
3066.00,0.0028
3065.00,0.0028
3064.00,0.0028
3063.00,0.0028
3062.00,0.0028
3061.00,0.0029
3060.00,0.0029
3059.00,0.0029
3058.00,0.0029
3057.00,0.0029
3056.00,0.0030
3055.00,0.0030
3054.00,0.0031
3053.00,0.0031
3052.00,0.0031
3051.00,0.0031
3050.00,0.0031
3049.00,0.0031
3048.00,0.0032
3047.00,0.0032
3046.00,0.0033
3045.00,0.0033
3044.00,0.0033
3043.00,0.0033
3042.00,0.0033
3041.00,0.0033
3040.00,0.0034
3039.00,0.0034
3038.00,0.0034
3037.00,0.0035
3036.00,0.0035
3035.00,0.0035
3034.00,0.0035
3033.00,0.0036
3032.00,0.0036
3031.00,0.0036
3030.00,0.0037
3029.00,0.0037
3028.00,0.0037
3027.00,0.0038
3026.00,0.0038
3025.00,0.0039
3024.00,0.0040
3023.00,0.0041
3022.00,0.0042
3021.00,0.0043
3020.00,0.0043
3019.00,0.0043
3018.00,0.0043
3017.00,0.0044
3016.00,0.0044
3015.00,0.0045
3014.00,0.0046
3013.00,0.0047
3012.00,0.0047
3011.00,0.0048
3010.00,0.0048
3009.00,0.0048
3008.00,0.0049
3007.00,0.0050
3006.00,0.0051
3005.00,0.0052
3004.00,0.0053
3003.00,0.0054
3002.00,0.0055
3001.00,0.0057
3000.00,0.0059
2999.00,0.0061
2998.00,0.0063
2997.00,0.0066
2996.00,0.0069
2995.00,0.0073
2994.00,0.0077
2993.00,0.0081
2992.00,0.0086
2991.00,0.0092
2990.00,0.0098
2989.00,0.0106
2988.00,0.0113
2987.00,0.0122
2986.00,0.0130
2985.00,0.0139
2984.00,0.0149
2983.00,0.0160
2982.00,0.0175
2981.00,0.0193
2980.00,0.0215
2979.00,0.0241
2978.00,0.0270
2977.00,0.0303
2976.00,0.0340
2975.00,0.0381
2974.00,0.0427
2973.00,0.0478
2972.00,0.0537
2971.00,0.0605
2970.00,0.0681
2969.00,0.0766
2968.00,0.0858
2967.00,0.0957
2966.00,0.1063
2965.00,0.1174
2964.00,0.1288
2963.00,0.1399
2962.00,0.1503
2961.00,0.1593
2960.00,0.1667
2959.00,0.1722
2958.00,0.1763
2957.00,0.1793
2956.00,0.1819
2955.00,0.1848
2954.00,0.1881
2953.00,0.1917
2952.00,0.1951
2951.00,0.1972
2950.00,0.1971
2949.00,0.1941
2948.00,0.1876
2947.00,0.1779
2946.00,0.1658
2945.00,0.1526
2944.00,0.1396
2943.00,0.1281
2942.00,0.1186
2941.00,0.1117
2940.00,0.1074
2939.00,0.1053
2938.00,0.1054
2937.00,0.1074
2936.00,0.1110
2935.00,0.1161
2934.00,0.1226
2933.00,0.1303
2932.00,0.1390
2931.00,0.1485
2930.00,0.1585
2929.00,0.1688
2928.00,0.1791
2927.00,0.1890
2926.00,0.1984
2925.00,0.2075
2924.00,0.2162
2923.00,0.2247
2922.00,0.2330
2921.00,0.2409
2920.00,0.2480
2919.00,0.2535
2918.00,0.2566
2917.00,0.2567
2916.00,0.2535
2915.00,0.2474
2914.00,0.2392
2913.00,0.2300
2912.00,0.2208
2911.00,0.2123
2910.00,0.2046
2909.00,0.1977
2908.00,0.1913
2907.00,0.1851
2906.00,0.1789
2905.00,0.1725
2904.00,0.1659
2903.00,0.1590
2902.00,0.1520
2901.00,0.1450
2900.00,0.1382
2899.00,0.1317
2898.00,0.1257
2897.00,0.1202
2896.00,0.1153
2895.00,0.1111
2894.00,0.1077
2893.00,0.1050
2892.00,0.1030
2891.00,0.1016
2890.00,0.1008
2889.00,0.1005
2888.00,0.1006
2887.00,0.1011
2886.00,0.1019
2885.00,0.1031
2884.00,0.1047
2883.00,0.1068
2882.00,0.1093
2881.00,0.1119
2880.00,0.1145
2879.00,0.1167
2878.00,0.1181
2877.00,0.1186
2876.00,0.1183
2875.00,0.1175
2874.00,0.1167
2873.00,0.1163
2872.00,0.1167
2871.00,0.1178
2870.00,0.1195
2869.00,0.1212
2868.00,0.1224
2867.00,0.1221
2866.00,0.1196
2865.00,0.1148
2864.00,0.1078
2863.00,0.0994
2862.00,0.0906
2861.00,0.0823
2860.00,0.0752
2859.00,0.0695
2858.00,0.0653
2857.00,0.0625
2856.00,0.0608
2855.00,0.0602
2854.00,0.0606
2853.00,0.0617
2852.00,0.0635
2851.00,0.0658
2850.00,0.0683
2849.00,0.0710
2848.00,0.0739
2847.00,0.0774
2846.00,0.0817
2845.00,0.0870
2844.00,0.0933
2843.00,0.1003
2842.00,0.1077
2841.00,0.1149
2840.00,0.1209
2839.00,0.1249
2838.00,0.1258
2837.00,0.1233
2836.00,0.1172
2835.00,0.1082
2834.00,0.0974
2833.00,0.0860
2832.00,0.0751
2831.00,0.0654
2830.00,0.0572
2829.00,0.0504
2828.00,0.0450
2827.00,0.0406
2826.00,0.0370
2825.00,0.0341
2824.00,0.0316
2823.00,0.0295
2822.00,0.0277
2821.00,0.0262
2820.00,0.0248
2819.00,0.0236
2818.00,0.0226
2817.00,0.0217
2816.00,0.0210
2815.00,0.0203
2814.00,0.0197
2813.00,0.0192
2812.00,0.0186
2811.00,0.0181
2810.00,0.0176
2809.00,0.0170
2808.00,0.0164
2807.00,0.0158
2806.00,0.0152
2805.00,0.0145
2804.00,0.0139
2803.00,0.0134
2802.00,0.0128
2801.00,0.0123
2800.00,0.0119
2799.00,0.0116
2798.00,0.0114
2797.00,0.0112
2796.00,0.0110
2795.00,0.0107
2794.00,0.0105
2793.00,0.0102
2792.00,0.0098
2791.00,0.0094
2790.00,0.0091
2789.00,0.0087
2788.00,0.0084
2787.00,0.0081
2786.00,0.0078
2785.00,0.0076
2784.00,0.0074
2783.00,0.0072
2782.00,0.0070
2781.00,0.0068
2780.00,0.0066
2779.00,0.0064
2778.00,0.0062
2777.00,0.0061
2776.00,0.0060
2775.00,0.0059
2774.00,0.0058
2773.00,0.0057
2772.00,0.0056
2771.00,0.0056
2770.00,0.0055
2769.00,0.0055
2768.00,0.0054
2767.00,0.0054
2766.00,0.0054
2765.00,0.0054
2764.00,0.0054
2763.00,0.0053
2762.00,0.0053
2761.00,0.0052
2760.00,0.0052
2759.00,0.0052
2758.00,0.0052
2757.00,0.0051
2756.00,0.0051
2755.00,0.0051
2754.00,0.0051
2753.00,0.0051
2752.00,0.0051
2751.00,0.0051
2750.00,0.0050
2749.00,0.0050
2748.00,0.0051
2747.00,0.0051
2746.00,0.0052
2745.00,0.0052
2744.00,0.0053
2743.00,0.0054
2742.00,0.0055
2741.00,0.0056
2740.00,0.0057
2739.00,0.0059
2738.00,0.0060
2737.00,0.0062
2736.00,0.0063
2735.00,0.0064
2734.00,0.0066
2733.00,0.0067
2732.00,0.0069
2731.00,0.0071
2730.00,0.0073
2729.00,0.0075
2728.00,0.0078
2727.00,0.0081
2726.00,0.0084
2725.00,0.0086
2724.00,0.0088
2723.00,0.0088
2722.00,0.0087
2721.00,0.0085
2720.00,0.0082
2719.00,0.0079
2718.00,0.0075
2717.00,0.0072
2716.00,0.0069
2715.00,0.0066
2714.00,0.0064
2713.00,0.0062
2712.00,0.0060
2711.00,0.0058
2710.00,0.0057
2709.00,0.0056
2708.00,0.0054
2707.00,0.0053
2706.00,0.0051
2705.00,0.0050
2704.00,0.0049
2703.00,0.0048
2702.00,0.0047
2701.00,0.0046
2700.00,0.0046
2699.00,0.0046
2698.00,0.0045
2697.00,0.0045
2696.00,0.0045
2695.00,0.0045
2694.00,0.0045
2693.00,0.0045
2692.00,0.0045
2691.00,0.0045
2690.00,0.0045
2689.00,0.0045
2688.00,0.0045
2687.00,0.0045
2686.00,0.0045
2685.00,0.0045
2684.00,0.0045
2683.00,0.0045
2682.00,0.0045
2681.00,0.0045
2680.00,0.0045
2679.00,0.0045
2678.00,0.0045
2677.00,0.0045
2676.00,0.0044
2675.00,0.0044
2674.00,0.0044
2673.00,0.0043
2672.00,0.0043
2671.00,0.0043
2670.00,0.0043
2669.00,0.0044
2668.00,0.0044
2667.00,0.0044
2666.00,0.0045
2665.00,0.0045
2664.00,0.0045
2663.00,0.0046
2662.00,0.0046
2661.00,0.0047
2660.00,0.0047
2659.00,0.0047
2658.00,0.0047
2657.00,0.0047
2656.00,0.0047
2655.00,0.0046
2654.00,0.0045
2653.00,0.0044
2652.00,0.0044
2651.00,0.0043
2650.00,0.0043
2649.00,0.0043
2648.00,0.0042
2647.00,0.0042
2646.00,0.0042
2645.00,0.0042
2644.00,0.0042
2643.00,0.0042
2642.00,0.0041
2641.00,0.0041
2640.00,0.0040
2639.00,0.0039
2638.00,0.0038
2637.00,0.0038
2636.00,0.0038
2635.00,0.0038
2634.00,0.0038
2633.00,0.0038
2632.00,0.0038
2631.00,0.0038
2630.00,0.0038
2629.00,0.0039
2628.00,0.0039
2627.00,0.0040
2626.00,0.0040
2625.00,0.0040
2624.00,0.0040
2623.00,0.0040
2622.00,0.0041
2621.00,0.0041
2620.00,0.0041
2619.00,0.0041
2618.00,0.0041
2617.00,0.0040
2616.00,0.0040
2615.00,0.0040
2614.00,0.0040
2613.00,0.0040
2612.00,0.0039
2611.00,0.0039
2610.00,0.0037
2609.00,0.0036
2608.00,0.0035
2607.00,0.0034
2606.00,0.0033
2605.00,0.0032
2604.00,0.0032
2603.00,0.0032
2602.00,0.0031
2601.00,0.0031
2600.00,0.0031
2599.00,0.0031
2598.00,0.0031
2597.00,0.0031
2596.00,0.0032
2595.00,0.0032
2594.00,0.0032
2593.00,0.0033
2592.00,0.0034
2591.00,0.0034
2590.00,0.0035
2589.00,0.0036
2588.00,0.0036
2587.00,0.0037
2586.00,0.0038
2585.00,0.0038
2584.00,0.0039
2583.00,0.0039
2582.00,0.0039
2581.00,0.0038
2580.00,0.0038
2579.00,0.0038
2578.00,0.0037
2577.00,0.0036
2576.00,0.0035
2575.00,0.0034
2574.00,0.0033
2573.00,0.0031
2572.00,0.0030
2571.00,0.0030
2570.00,0.0029
2569.00,0.0029
2568.00,0.0029
2567.00,0.0028
2566.00,0.0027
2565.00,0.0026
2564.00,0.0025
2563.00,0.0025
2562.00,0.0024
2561.00,0.0024
2560.00,0.0023
2559.00,0.0023
2558.00,0.0023
2557.00,0.0023
2556.00,0.0023
2555.00,0.0023
2554.00,0.0023
2553.00,0.0023
2552.00,0.0022
2551.00,0.0021
2550.00,0.0020
2549.00,0.0020
2548.00,0.0019
2547.00,0.0019
2546.00,0.0019
2545.00,0.0019
2544.00,0.0018
2543.00,0.0018
2542.00,0.0018
2541.00,0.0018
2540.00,0.0018
2539.00,0.0017
2538.00,0.0017
2537.00,0.0017
2536.00,0.0016
2535.00,0.0016
2534.00,0.0016
2533.00,0.0016
2532.00,0.0016
2531.00,0.0016
2530.00,0.0016
2529.00,0.0016
2528.00,0.0016
2527.00,0.0016
2526.00,0.0015
2525.00,0.0014
2524.00,0.0014
2523.00,0.0013
2522.00,0.0013
2521.00,0.0013
2520.00,0.0013
2519.00,0.0013
2518.00,0.0013
2517.00,0.0013
2516.00,0.0013
2515.00,0.0013
2514.00,0.0013
2513.00,0.0013
2512.00,0.0013
2511.00,0.0013
2510.00,0.0012
2509.00,0.0011
2508.00,0.0011
2507.00,0.0011
2506.00,0.0011
2505.00,0.0012
2504.00,0.0012
2503.00,0.0012
2502.00,0.0012
2501.00,0.0012
2500.00,0.0011
2499.00,0.0011
2498.00,0.0011
2497.00,0.0012
2496.00,0.0012
2495.00,0.0012
2494.00,0.0012
2493.00,0.0012
2492.00,0.0012
2491.00,0.0012
2490.00,0.0012
2489.00,0.0012
2488.00,0.0013
2487.00,0.0012
2486.00,0.0012
2485.00,0.0012
2484.00,0.0012
2483.00,0.0012
2482.00,0.0012
2481.00,0.0011
2480.00,0.0011
2479.00,0.0010
2478.00,0.0010
2477.00,0.0010
2476.00,0.0010
2475.00,0.0010
2474.00,0.0010
2473.00,0.0010
2472.00,0.0010
2471.00,0.0010
2470.00,0.0010
2469.00,0.0010
2468.00,0.0010
2467.00,0.0011
2466.00,0.0011
2465.00,0.0011
2464.00,0.0011
2463.00,0.0011
2462.00,0.0011
2461.00,0.0012
2460.00,0.0012
2459.00,0.0012
2458.00,0.0012
2457.00,0.0012
2456.00,0.0012
2455.00,0.0012
2454.00,0.0011
2453.00,0.0011
2452.00,0.0012
2451.00,0.0011
2450.00,0.0011
2449.00,0.0011
2448.00,0.0011
2447.00,0.0011
2446.00,0.0011
2445.00,0.0011
2444.00,0.0012
2443.00,0.0012
2442.00,0.0012
2441.00,0.0012
2440.00,0.0012
2439.00,0.0012
2438.00,0.0012
2437.00,0.0012
2436.00,0.0012
2435.00,0.0011
2434.00,0.0011
2433.00,0.0012
2432.00,0.0012
2431.00,0.0012
2430.00,0.0013
2429.00,0.0013
2428.00,0.0013
2427.00,0.0013
2426.00,0.0013
2425.00,0.0013
2424.00,0.0013
2423.00,0.0012
2422.00,0.0012
2421.00,0.0012
2420.00,0.0012
2419.00,0.0012
2418.00,0.0011
2417.00,0.0011
2416.00,0.0011
2415.00,0.0011
2414.00,0.0010
2413.00,0.0010
2412.00,0.0010
2411.00,0.0011
2410.00,0.0011
2409.00,0.0010
2408.00,0.0010
2407.00,0.0009
2406.00,0.0009
2405.00,0.0009
2404.00,0.0009
2403.00,0.0008
2402.00,0.0008
2401.00,0.0008
2400.00,0.0008
2399.00,0.0009
2398.00,0.0009
2397.00,0.0010
2396.00,0.0010
2395.00,0.0010
2394.00,0.0009
2393.00,0.0008
2392.00,0.0008
2391.00,0.0008
2390.00,0.0008
2389.00,0.0008
2388.00,0.0008
2387.00,0.0007
2386.00,0.0006
2385.00,0.0005
2384.00,0.0005
2383.00,0.0004
2382.00,0.0003
2381.00,0.0003
2380.00,0.0003
2379.00,0.0002
2378.00,0.0002
2377.00,0.0002
2376.00,0.0002
2375.00,0.0002
2374.00,0.0002
2373.00,0.0002
2372.00,0.0002
2371.00,0.0002
2370.00,0.0001
2369.00,-0.0000
2368.00,-0.0001
2367.00,-0.0002
2366.00,-0.0002
2365.00,-0.0002
2364.00,-0.0001
2363.00,0.0001
2362.00,0.0002
2361.00,0.0002
2360.00,0.0002
2359.00,0.0002
2358.00,0.0002
2357.00,0.0001
2356.00,0.0001
2355.00,0.0000
2354.00,-0.0000
2353.00,0.0001
2352.00,0.0001
2351.00,0.0001
2350.00,0.0001
2349.00,0.0001
2348.00,0.0002
2347.00,0.0003
2346.00,0.0003
2345.00,0.0003
2344.00,0.0004
2343.00,0.0004
2342.00,0.0004
2341.00,0.0004
2340.00,0.0004
2339.00,0.0004
2338.00,0.0003
2337.00,0.0003
2336.00,0.0003
2335.00,0.0003
2334.00,0.0004
2333.00,0.0004
2332.00,0.0003
2331.00,0.0002
2330.00,0.0001
2329.00,0.0002
2328.00,0.0003
2327.00,0.0007
2326.00,0.0011
2325.00,0.0015
2324.00,0.0017
2323.00,0.0016
2322.00,0.0013
2321.00,0.0011
2320.00,0.0009
2319.00,0.0009
2318.00,0.0009
2317.00,0.0009
2316.00,0.0008
2315.00,0.0008
2314.00,0.0008
2313.00,0.0007
2312.00,0.0006
2311.00,0.0006
2310.00,0.0006
2309.00,0.0006
2308.00,0.0006
2307.00,0.0007
2306.00,0.0007
2305.00,0.0008
2304.00,0.0009
2303.00,0.0009
2302.00,0.0009
2301.00,0.0009
2300.00,0.0010
2299.00,0.0010
2298.00,0.0011
2297.00,0.0012
2296.00,0.0013
2295.00,0.0014
2294.00,0.0015
2293.00,0.0016
2292.00,0.0016
2291.00,0.0016
2290.00,0.0016
2289.00,0.0017
2288.00,0.0018
2287.00,0.0018
2286.00,0.0019
2285.00,0.0019
2284.00,0.0018
2283.00,0.0017
2282.00,0.0016
2281.00,0.0015
2280.00,0.0015
2279.00,0.0016
2278.00,0.0017
2277.00,0.0017
2276.00,0.0016
2275.00,0.0015
2274.00,0.0014
2273.00,0.0013
2272.00,0.0012
2271.00,0.0012
2270.00,0.0012
2269.00,0.0013
2268.00,0.0012
2267.00,0.0012
2266.00,0.0011
2265.00,0.0010
2264.00,0.0010
2263.00,0.0010
2262.00,0.0011
2261.00,0.0012
2260.00,0.0013
2259.00,0.0014
2258.00,0.0015
2257.00,0.0015
2256.00,0.0015
2255.00,0.0013
2254.00,0.0010
2253.00,0.0009
2252.00,0.0008
2251.00,0.0009
2250.00,0.0009
2249.00,0.0009
2248.00,0.0008
2247.00,0.0009
2246.00,0.0009
2245.00,0.0010
2244.00,0.0009
2243.00,0.0008
2242.00,0.0008
2241.00,0.0007
2240.00,0.0007
2239.00,0.0008
2238.00,0.0008
2237.00,0.0009
2236.00,0.0011
2235.00,0.0011
2234.00,0.0011
2233.00,0.0011
2232.00,0.0011
2231.00,0.0011
2230.00,0.0010
2229.00,0.0010
2228.00,0.0010
2227.00,0.0010
2226.00,0.0010
2225.00,0.0009
2224.00,0.0008
2223.00,0.0007
2222.00,0.0007
2221.00,0.0007
2220.00,0.0009
2219.00,0.0010
2218.00,0.0010
2217.00,0.0010
2216.00,0.0009
2215.00,0.0007
2214.00,0.0006
2213.00,0.0006
2212.00,0.0007
2211.00,0.0009
2210.00,0.0011
2209.00,0.0011
2208.00,0.0010
2207.00,0.0009
2206.00,0.0008
2205.00,0.0009
2204.00,0.0009
2203.00,0.0010
2202.00,0.0010
2201.00,0.0009
2200.00,0.0007
2199.00,0.0005
2198.00,0.0005
2197.00,0.0007
2196.00,0.0010
2195.00,0.0012
2194.00,0.0014
2193.00,0.0015
2192.00,0.0016
2191.00,0.0017
2190.00,0.0018
2189.00,0.0017
2188.00,0.0016
2187.00,0.0014
2186.00,0.0013
2185.00,0.0012
2184.00,0.0010
2183.00,0.0007
2182.00,0.0004
2181.00,0.0003
2180.00,0.0004
2179.00,0.0006
2178.00,0.0008
2177.00,0.0008
2176.00,0.0007
2175.00,0.0005
2174.00,0.0004
2173.00,0.0004
2172.00,0.0006
2171.00,0.0008
2170.00,0.0010
2169.00,0.0011
2168.00,0.0011
2167.00,0.0011
2166.00,0.0012
2165.00,0.0014
2164.00,0.0019
2163.00,0.0023
2162.00,0.0024
2161.00,0.0019
2160.00,0.0005
2159.00,-0.0011
2158.00,-0.0023
2157.00,-0.0026
2156.00,-0.0024
2155.00,-0.0019
2154.00,-0.0015
2153.00,-0.0011
2152.00,-0.0010
2151.00,-0.0011
2150.00,-0.0013
2149.00,-0.0014
2148.00,-0.0014
2147.00,-0.0013
2146.00,-0.0013
2145.00,-0.0012
2144.00,-0.0012
2143.00,-0.0011
2142.00,-0.0011
2141.00,-0.0011
2140.00,-0.0011
2139.00,-0.0013
2138.00,-0.0014
2137.00,-0.0016
2136.00,-0.0017
2135.00,-0.0020
2134.00,-0.0021
2133.00,-0.0022
2132.00,-0.0020
2131.00,-0.0017
2130.00,-0.0013
2129.00,-0.0009
2128.00,-0.0007
2127.00,-0.0006
2126.00,-0.0006
2125.00,-0.0005
2124.00,-0.0005
2123.00,-0.0003
2122.00,-0.0001
2121.00,0.0000
2120.00,0.0001
2119.00,0.0001
2118.00,0.0001
2117.00,0.0002
2116.00,0.0003
2115.00,0.0004
2114.00,0.0004
2113.00,0.0004
2112.00,0.0003
2111.00,0.0003
2110.00,0.0002
2109.00,0.0002
2108.00,0.0001
2107.00,-0.0000
2106.00,-0.0001
2105.00,-0.0000
2104.00,0.0002
2103.00,0.0004
2102.00,0.0005
2101.00,0.0006
2100.00,0.0005
2099.00,0.0004
2098.00,0.0002
2097.00,-0.0001
2096.00,-0.0003
2095.00,-0.0005
2094.00,-0.0005
2093.00,-0.0004
2092.00,-0.0002
2091.00,-0.0000
2090.00,0.0000
2089.00,0.0001
2088.00,0.0001
2087.00,0.0002
2086.00,0.0003
2085.00,0.0005
2084.00,0.0005
2083.00,0.0005
2082.00,0.0004
2081.00,0.0004
2080.00,0.0004
2079.00,0.0004
2078.00,0.0004
2077.00,0.0004
2076.00,0.0004
2075.00,0.0004
2074.00,0.0005
2073.00,0.0006
2072.00,0.0006
2071.00,0.0004
2070.00,0.0002
2069.00,0.0000
2068.00,-0.0001
2067.00,-0.0001
2066.00,-0.0001
2065.00,-0.0001
2064.00,-0.0002
2063.00,-0.0002
2062.00,-0.0002
2061.00,-0.0003
2060.00,-0.0004
2059.00,-0.0005
2058.00,-0.0005
2057.00,-0.0004
2056.00,-0.0002
2055.00,-0.0000
2054.00,0.0002
2053.00,0.0006
2052.00,0.0010
2051.00,0.0012
2050.00,0.0011
2049.00,0.0008
2048.00,0.0004
2047.00,0.0001
2046.00,-0.0001
2045.00,-0.0002
2044.00,-0.0002
2043.00,-0.0002
2042.00,-0.0002
2041.00,-0.0003
2040.00,-0.0002
2039.00,-0.0001
2038.00,0.0002
2037.00,0.0004
2036.00,0.0003
2035.00,0.0001
2034.00,-0.0002
2033.00,-0.0002
2032.00,-0.0001
2031.00,-0.0001
2030.00,-0.0001
2029.00,-0.0003
2028.00,-0.0004
2027.00,-0.0006
2026.00,-0.0008
2025.00,-0.0009
2024.00,-0.0012
2023.00,-0.0014
2022.00,-0.0014
2021.00,-0.0013
2020.00,-0.0011
2019.00,-0.0008
2018.00,-0.0007
2017.00,-0.0007
2016.00,-0.0006
2015.00,-0.0007
2014.00,-0.0009
2013.00,-0.0011
2012.00,-0.0012
2011.00,-0.0012
2010.00,-0.0010
2009.00,-0.0008
2008.00,-0.0009
2007.00,-0.0011
2006.00,-0.0014
2005.00,-0.0015
2004.00,-0.0014
2003.00,-0.0012
2002.00,-0.0011
2001.00,-0.0010
2000.00,-0.0011
1999.00,-0.0011
1998.00,-0.0010
1997.00,-0.0009
1996.00,-0.0008
1995.00,-0.0008
1994.00,-0.0010
1993.00,-0.0010
1992.00,-0.0009
1991.00,-0.0005
1990.00,0.0000
1989.00,0.0004
1988.00,0.0004
1987.00,-0.0000
1986.00,-0.0005
1985.00,-0.0006
1984.00,-0.0005
1983.00,-0.0002
1982.00,0.0002
1981.00,0.0005
1980.00,0.0007
1979.00,0.0005
1978.00,-0.0002
1977.00,-0.0010
1976.00,-0.0015
1975.00,-0.0017
1974.00,-0.0017
1973.00,-0.0015
1972.00,-0.0014
1971.00,-0.0012
1970.00,-0.0012
1969.00,-0.0012
1968.00,-0.0011
1967.00,-0.0011
1966.00,-0.0011
1965.00,-0.0012
1964.00,-0.0013
1963.00,-0.0014
1962.00,-0.0015
1961.00,-0.0016
1960.00,-0.0016
1959.00,-0.0016
1958.00,-0.0016
1957.00,-0.0015
1956.00,-0.0016
1955.00,-0.0017
1954.00,-0.0019
1953.00,-0.0020
1952.00,-0.0020
1951.00,-0.0019
1950.00,-0.0019
1949.00,-0.0018
1948.00,-0.0017
1947.00,-0.0017
1946.00,-0.0018
1945.00,-0.0019
1944.00,-0.0020
1943.00,-0.0019
1942.00,-0.0018
1941.00,-0.0015
1940.00,-0.0013
1939.00,-0.0013
1938.00,-0.0013
1937.00,-0.0013
1936.00,-0.0012
1935.00,-0.0011
1934.00,-0.0010
1933.00,-0.0009
1932.00,-0.0009
1931.00,-0.0008
1930.00,-0.0007
1929.00,-0.0007
1928.00,-0.0007
1927.00,-0.0008
1926.00,-0.0009
1925.00,-0.0009
1924.00,-0.0008
1923.00,-0.0007
1922.00,-0.0006
1921.00,-0.0005
1920.00,-0.0004
1919.00,-0.0003
1918.00,-0.0002
1917.00,-0.0001
1916.00,-0.0002
1915.00,-0.0003
1914.00,-0.0004
1913.00,-0.0005
1912.00,-0.0005
1911.00,-0.0005
1910.00,-0.0005
1909.00,-0.0004
1908.00,-0.0003
1907.00,-0.0003
1906.00,-0.0002
1905.00,-0.0001
1904.00,-0.0001
1903.00,-0.0001
1902.00,-0.0002
1901.00,-0.0002
1900.00,-0.0002
1899.00,-0.0002
1898.00,-0.0002
1897.00,-0.0001
1896.00,-0.0000
1895.00,-0.0001
1894.00,-0.0001
1893.00,-0.0001
1892.00,-0.0000
1891.00,0.0001
1890.00,0.0001
1889.00,0.0001
1888.00,0.0000
1887.00,-0.0000
1886.00,-0.0001
1885.00,0.0000
1884.00,0.0001
1883.00,0.0001
1882.00,-0.0000
1881.00,-0.0001
1880.00,-0.0002
1879.00,-0.0002
1878.00,-0.0002
1877.00,-0.0001
1876.00,-0.0000
1875.00,-0.0000
1874.00,-0.0000
1873.00,-0.0000
1872.00,0.0001
1871.00,0.0001
1870.00,0.0002
1869.00,0.0002
1868.00,0.0001
1867.00,-0.0000
1866.00,-0.0002
1865.00,-0.0003
1864.00,-0.0003
1863.00,-0.0003
1862.00,-0.0001
1861.00,0.0001
1860.00,0.0002
1859.00,0.0002
1858.00,0.0002
1857.00,0.0001
1856.00,0.0000
1855.00,0.0000
1854.00,0.0001
1853.00,0.0002
1852.00,0.0002
1851.00,0.0002
1850.00,0.0002
1849.00,0.0001
1848.00,0.0002
1847.00,0.0002
1846.00,0.0003
1845.00,0.0004
1844.00,0.0004
1843.00,0.0004
1842.00,0.0003
1841.00,0.0003
1840.00,0.0002
1839.00,0.0002
1838.00,0.0003
1837.00,0.0004
1836.00,0.0005
1835.00,0.0005
1834.00,0.0004
1833.00,0.0004
1832.00,0.0003
1831.00,0.0003
1830.00,0.0003
1829.00,0.0003
1828.00,0.0003
1827.00,0.0003
1826.00,0.0004
1825.00,0.0004
1824.00,0.0005
1823.00,0.0004
1822.00,0.0004
1821.00,0.0003
1820.00,0.0003
1819.00,0.0002
1818.00,0.0000
1817.00,-0.0000
1816.00,0.0000
1815.00,0.0001
1814.00,0.0001
1813.00,0.0002
1812.00,0.0003
1811.00,0.0004
1810.00,0.0004
1809.00,0.0005
1808.00,0.0005
1807.00,0.0005
1806.00,0.0005
1805.00,0.0005
1804.00,0.0005
1803.00,0.0005
1802.00,0.0005
1801.00,0.0006
1800.00,0.0006
1799.00,0.0006
1798.00,0.0006
1797.00,0.0006
1796.00,0.0006
1795.00,0.0006
1794.00,0.0006
1793.00,0.0006
1792.00,0.0007
1791.00,0.0007
1790.00,0.0008
1789.00,0.0008
1788.00,0.0008
1787.00,0.0008
1786.00,0.0008
1785.00,0.0008
1784.00,0.0009
1783.00,0.0009
1782.00,0.0009
1781.00,0.0009
1780.00,0.0008
1779.00,0.0008
1778.00,0.0008
1777.00,0.0008
1776.00,0.0009
1775.00,0.0009
1774.00,0.0009
1773.00,0.0008
1772.00,0.0009
1771.00,0.0009
1770.00,0.0009
1769.00,0.0010
1768.00,0.0010
1767.00,0.0010
1766.00,0.0010
1765.00,0.0010
1764.00,0.0010
1763.00,0.0011
1762.00,0.0011
1761.00,0.0011
1760.00,0.0011
1759.00,0.0011
1758.00,0.0011
1757.00,0.0012
1756.00,0.0012
1755.00,0.0013
1754.00,0.0014
1753.00,0.0015
1752.00,0.0015
1751.00,0.0015
1750.00,0.0015
1749.00,0.0015
1748.00,0.0016
1747.00,0.0017
1746.00,0.0017
1745.00,0.0018
1744.00,0.0019
1743.00,0.0019
1742.00,0.0020
1741.00,0.0020
1740.00,0.0020
1739.00,0.0020
1738.00,0.0020
1737.00,0.0020
1736.00,0.0020
1735.00,0.0020
1734.00,0.0019
1733.00,0.0019
1732.00,0.0019
1731.00,0.0020
1730.00,0.0020
1729.00,0.0020
1728.00,0.0020
1727.00,0.0020
1726.00,0.0020
1725.00,0.0020
1724.00,0.0019
1723.00,0.0019
1722.00,0.0019
1721.00,0.0019
1720.00,0.0019
1719.00,0.0020
1718.00,0.0020
1717.00,0.0021
1716.00,0.0021
1715.00,0.0021
1714.00,0.0021
1713.00,0.0021
1712.00,0.0021
1711.00,0.0021
1710.00,0.0021
1709.00,0.0022
1708.00,0.0023
1707.00,0.0023
1706.00,0.0023
1705.00,0.0023
1704.00,0.0024
1703.00,0.0024
1702.00,0.0024
1701.00,0.0024
1700.00,0.0025
1699.00,0.0025
1698.00,0.0025
1697.00,0.0026
1696.00,0.0027
1695.00,0.0028
1694.00,0.0029
1693.00,0.0029
1692.00,0.0029
1691.00,0.0029
1690.00,0.0029
1689.00,0.0029
1688.00,0.0030
1687.00,0.0030
1686.00,0.0029
1685.00,0.0029
1684.00,0.0030
1683.00,0.0032
1682.00,0.0032
1681.00,0.0033
1680.00,0.0033
1679.00,0.0034
1678.00,0.0035
1677.00,0.0036
1676.00,0.0037
1675.00,0.0037
1674.00,0.0036
1673.00,0.0036
1672.00,0.0037
1671.00,0.0037
1670.00,0.0037
1669.00,0.0038
1668.00,0.0039
1667.00,0.0039
1666.00,0.0039
1665.00,0.0039
1664.00,0.0039
1663.00,0.0040
1662.00,0.0040
1661.00,0.0041
1660.00,0.0041
1659.00,0.0042
1658.00,0.0043
1657.00,0.0044
1656.00,0.0045
1655.00,0.0046
1654.00,0.0047
1653.00,0.0048
1652.00,0.0048
1651.00,0.0048
1650.00,0.0048
1649.00,0.0049
1648.00,0.0049
1647.00,0.0049
1646.00,0.0049
1645.00,0.0049
1644.00,0.0049
1643.00,0.0049
1642.00,0.0049
1641.00,0.0049
1640.00,0.0050
1639.00,0.0051
1638.00,0.0051
1637.00,0.0052
1636.00,0.0053
1635.00,0.0054
1634.00,0.0055
1633.00,0.0054
1632.00,0.0054
1631.00,0.0054
1630.00,0.0054
1629.00,0.0055
1628.00,0.0055
1627.00,0.0055
1626.00,0.0055
1625.00,0.0054
1624.00,0.0054
1623.00,0.0054
1622.00,0.0054
1621.00,0.0054
1620.00,0.0054
1619.00,0.0054
1618.00,0.0053
1617.00,0.0052
1616.00,0.0052
1615.00,0.0051
1614.00,0.0051
1613.00,0.0051
1612.00,0.0051
1611.00,0.0051
1610.00,0.0050
1609.00,0.0050
1608.00,0.0050
1607.00,0.0050
1606.00,0.0051
1605.00,0.0051
1604.00,0.0052
1603.00,0.0052
1602.00,0.0052
1601.00,0.0053
1600.00,0.0053
1599.00,0.0053
1598.00,0.0053
1597.00,0.0054
1596.00,0.0054
1595.00,0.0054
1594.00,0.0055
1593.00,0.0057
1592.00,0.0058
1591.00,0.0060
1590.00,0.0062
1589.00,0.0065
1588.00,0.0068
1587.00,0.0072
1586.00,0.0076
1585.00,0.0081
1584.00,0.0087
1583.00,0.0095
1582.00,0.0102
1581.00,0.0110
1580.00,0.0118
1579.00,0.0124
1578.00,0.0128
1577.00,0.0130
1576.00,0.0128
1575.00,0.0124
1574.00,0.0120
1573.00,0.0115
1572.00,0.0110
1571.00,0.0103
1570.00,0.0096
1569.00,0.0089
1568.00,0.0085
1567.00,0.0082
1566.00,0.0079
1565.00,0.0077
1564.00,0.0075
1563.00,0.0074
1562.00,0.0074
1561.00,0.0074
1560.00,0.0074
1559.00,0.0073
1558.00,0.0073
1557.00,0.0074
1556.00,0.0074
1555.00,0.0075
1554.00,0.0076
1553.00,0.0078
1552.00,0.0080
1551.00,0.0083
1550.00,0.0088
1549.00,0.0093
1548.00,0.0099
1547.00,0.0105
1546.00,0.0111
1545.00,0.0120
1544.00,0.0129
1543.00,0.0136
1542.00,0.0143
1541.00,0.0146
1540.00,0.0144
1539.00,0.0138
1538.00,0.0130
1537.00,0.0123
1536.00,0.0116
1535.00,0.0107
1534.00,0.0097
1533.00,0.0087
1532.00,0.0081
1531.00,0.0076
1530.00,0.0072
1529.00,0.0070
1528.00,0.0068
1527.00,0.0066
1526.00,0.0064
1525.00,0.0063
1524.00,0.0063
1523.00,0.0062
1522.00,0.0061
1521.00,0.0062
1520.00,0.0062
1519.00,0.0062
1518.00,0.0062
1517.00,0.0062
1516.00,0.0063
1515.00,0.0062
1514.00,0.0062
1513.00,0.0062
1512.00,0.0062
1511.00,0.0063
1510.00,0.0064
1509.00,0.0065
1508.00,0.0067
1507.00,0.0069
1506.00,0.0069
1505.00,0.0069
1504.00,0.0070
1503.00,0.0071
1502.00,0.0072
1501.00,0.0074
1500.00,0.0077
1499.00,0.0079
1498.00,0.0082
1497.00,0.0085
1496.00,0.0090
1495.00,0.0092
1494.00,0.0094
1493.00,0.0098
1492.00,0.0102
1491.00,0.0107
1490.00,0.0112
1489.00,0.0118
1488.00,0.0125
1487.00,0.0132
1486.00,0.0140
1485.00,0.0148
1484.00,0.0159
1483.00,0.0170
1482.00,0.0184
1481.00,0.0200
1480.00,0.0217
1479.00,0.0232
1478.00,0.0249
1477.00,0.0269
1476.00,0.0292
1475.00,0.0317
1474.00,0.0350
1473.00,0.0398
1472.00,0.0458
1471.00,0.0517
1470.00,0.0575
1469.00,0.0636
1468.00,0.0704
1467.00,0.0778
1466.00,0.0863
1465.00,0.0954
1464.00,0.1035
1463.00,0.1094
1462.00,0.1134
1461.00,0.1164
1460.00,0.1188
1459.00,0.1208
1458.00,0.1227
1457.00,0.1245
1456.00,0.1256
1455.00,0.1257
1454.00,0.1253
1453.00,0.1243
1452.00,0.1223
1451.00,0.1190
1450.00,0.1140
1449.00,0.1066
1448.00,0.0970
1447.00,0.0866
1446.00,0.0771
1445.00,0.0689
1444.00,0.0619
1443.00,0.0563
1442.00,0.0521
1441.00,0.0493
1440.00,0.0476
1439.00,0.0469
1438.00,0.0469
1437.00,0.0469
1436.00,0.0457
1435.00,0.0429
1434.00,0.0389
1433.00,0.0343
1432.00,0.0296
1431.00,0.0254
1430.00,0.0223
1429.00,0.0200
1428.00,0.0184
1427.00,0.0175
1426.00,0.0169
1425.00,0.0164
1424.00,0.0159
1423.00,0.0157
1422.00,0.0155
1421.00,0.0153
1420.00,0.0150
1419.00,0.0147
1418.00,0.0144
1417.00,0.0140
1416.00,0.0136
1415.00,0.0133
1414.00,0.0131
1413.00,0.0128
1412.00,0.0126
1411.00,0.0124
1410.00,0.0123
1409.00,0.0121
1408.00,0.0119
1407.00,0.0118
1406.00,0.0117
1405.00,0.0116
1404.00,0.0115
1403.00,0.0114
1402.00,0.0114
1401.00,0.0114
1400.00,0.0113
1399.00,0.0114
1398.00,0.0116
1397.00,0.0118
1396.00,0.0119
1395.00,0.0123
1394.00,0.0127
1393.00,0.0132
1392.00,0.0139
1391.00,0.0148
1390.00,0.0161
1389.00,0.0179
1388.00,0.0205
1387.00,0.0243
1386.00,0.0295
1385.00,0.0360
1384.00,0.0445
1383.00,0.0559
1382.00,0.0706
1381.00,0.0890
1380.00,0.1114
1379.00,0.1366
1378.00,0.1611
1377.00,0.1792
1376.00,0.1858
1375.00,0.1775
1374.00,0.1565
1373.00,0.1303
1372.00,0.1057
1371.00,0.0851
1370.00,0.0685
1369.00,0.0557
1368.00,0.0469
1367.00,0.0414
1366.00,0.0385
1365.00,0.0373
1364.00,0.0376
1363.00,0.0390
1362.00,0.0411
1361.00,0.0434
1360.00,0.0451
1359.00,0.0456
1358.00,0.0444
1357.00,0.0418
1356.00,0.0380
1355.00,0.0338
1354.00,0.0297
1353.00,0.0262
1352.00,0.0234
1351.00,0.0212
1350.00,0.0194
1349.00,0.0179
1348.00,0.0167
1347.00,0.0157
1346.00,0.0149
1345.00,0.0143
1344.00,0.0139
1343.00,0.0136
1342.00,0.0134
1341.00,0.0132
1340.00,0.0129
1339.00,0.0127
1338.00,0.0125
1337.00,0.0124
1336.00,0.0125
1335.00,0.0126
1334.00,0.0129
1333.00,0.0133
1332.00,0.0137
1331.00,0.0141
1330.00,0.0142
1329.00,0.0141
1328.00,0.0137
1327.00,0.0132
1326.00,0.0126
1325.00,0.0120
1324.00,0.0115
1323.00,0.0110
1322.00,0.0106
1321.00,0.0103
1320.00,0.0101
1319.00,0.0099
1318.00,0.0096
1317.00,0.0094
1316.00,0.0092
1315.00,0.0090
1314.00,0.0089
1313.00,0.0090
1312.00,0.0091
1311.00,0.0095
1310.00,0.0100
1309.00,0.0108
1308.00,0.0120
1307.00,0.0133
1306.00,0.0147
1305.00,0.0156
1304.00,0.0160
1303.00,0.0156
1302.00,0.0149
1301.00,0.0142
1300.00,0.0137
1299.00,0.0135
1298.00,0.0134
1297.00,0.0134
1296.00,0.0132
1295.00,0.0130
1294.00,0.0126
1293.00,0.0121
1292.00,0.0115
1291.00,0.0109
1290.00,0.0104
1289.00,0.0100
1288.00,0.0096
1287.00,0.0093
1286.00,0.0090
1285.00,0.0088
1284.00,0.0085
1283.00,0.0083
1282.00,0.0082
1281.00,0.0080
1280.00,0.0079
1279.00,0.0079
1278.00,0.0078
1277.00,0.0077
1276.00,0.0076
1275.00,0.0076
1274.00,0.0076
1273.00,0.0075
1272.00,0.0075
1271.00,0.0075
1270.00,0.0076
1269.00,0.0076
1268.00,0.0077
1267.00,0.0078
1266.00,0.0080
1265.00,0.0082
1264.00,0.0085
1263.00,0.0088
1262.00,0.0092
1261.00,0.0098
1260.00,0.0106
1259.00,0.0115
1258.00,0.0124
1257.00,0.0132
1256.00,0.0135
1255.00,0.0133
1254.00,0.0126
1253.00,0.0116
1252.00,0.0107
1251.00,0.0099
1250.00,0.0094
1249.00,0.0091
1248.00,0.0089
1247.00,0.0087
1246.00,0.0087
1245.00,0.0086
1244.00,0.0086
1243.00,0.0085
1242.00,0.0084
1241.00,0.0083
1240.00,0.0083
1239.00,0.0082
1238.00,0.0083
1237.00,0.0083
1236.00,0.0083
1235.00,0.0084
1234.00,0.0085
1233.00,0.0086
1232.00,0.0087
1231.00,0.0088
1230.00,0.0089
1229.00,0.0090
1228.00,0.0092
1227.00,0.0094
1226.00,0.0097
1225.00,0.0100
1224.00,0.0104
1223.00,0.0108
1222.00,0.0112
1221.00,0.0115
1220.00,0.0117
1219.00,0.0118
1218.00,0.0119
1217.00,0.0118
1216.00,0.0116
1215.00,0.0112
1214.00,0.0109
1213.00,0.0105
1212.00,0.0102
1211.00,0.0100
1210.00,0.0098
1209.00,0.0096
1208.00,0.0094
1207.00,0.0093
1206.00,0.0092
1205.00,0.0092
1204.00,0.0091
1203.00,0.0091
1202.00,0.0091
1201.00,0.0091
1200.00,0.0092
1199.00,0.0092
1198.00,0.0093
1197.00,0.0093
1196.00,0.0093
1195.00,0.0092
1194.00,0.0091
1193.00,0.0090
1192.00,0.0090
1191.00,0.0089
1190.00,0.0089
1189.00,0.0089
1188.00,0.0088
1187.00,0.0088
1186.00,0.0088
1185.00,0.0089
1184.00,0.0090
1183.00,0.0091
1182.00,0.0092
1181.00,0.0094
1180.00,0.0097
1179.00,0.0102
1178.00,0.0109
1177.00,0.0119
1176.00,0.0132
1175.00,0.0149
1174.00,0.0172
1173.00,0.0202
1172.00,0.0237
1171.00,0.0276
1170.00,0.0314
1169.00,0.0345
1168.00,0.0365
1167.00,0.0369
1166.00,0.0360
1165.00,0.0341
1164.00,0.0317
1163.00,0.0293
1162.00,0.0271
1161.00,0.0252
1160.00,0.0236
1159.00,0.0223
1158.00,0.0213
1157.00,0.0206
1156.00,0.0200
1155.00,0.0196
1154.00,0.0193
1153.00,0.0189
1152.00,0.0184
1151.00,0.0177
1150.00,0.0169
1149.00,0.0159
1148.00,0.0149
1147.00,0.0139
1146.00,0.0130
1145.00,0.0122
1144.00,0.0115
1143.00,0.0109
1142.00,0.0103
1141.00,0.0097
1140.00,0.0092
1139.00,0.0087
1138.00,0.0084
1137.00,0.0081
1136.00,0.0079
1135.00,0.0078
1134.00,0.0076
1133.00,0.0075
1132.00,0.0074
1131.00,0.0074
1130.00,0.0076
1129.00,0.0078
1128.00,0.0081
1127.00,0.0083
1126.00,0.0086
1125.00,0.0087
1124.00,0.0087
1123.00,0.0086
1122.00,0.0086
1121.00,0.0085
1120.00,0.0084
1119.00,0.0084
1118.00,0.0084
1117.00,0.0085
1116.00,0.0087
1115.00,0.0089
1114.00,0.0091
1113.00,0.0093
1112.00,0.0095
1111.00,0.0097
1110.00,0.0099
1109.00,0.0102
1108.00,0.0107
1107.00,0.0113
1106.00,0.0120
1105.00,0.0127
1104.00,0.0132
1103.00,0.0136
1102.00,0.0136
1101.00,0.0133
1100.00,0.0128
1099.00,0.0121
1098.00,0.0115
1097.00,0.0108
1096.00,0.0102
1095.00,0.0097
1094.00,0.0093
1093.00,0.0090
1092.00,0.0087
1091.00,0.0085
1090.00,0.0082
1089.00,0.0079
1088.00,0.0077
1087.00,0.0074
1086.00,0.0073
1085.00,0.0072
1084.00,0.0071
1083.00,0.0071
1082.00,0.0071
1081.00,0.0070
1080.00,0.0069
1079.00,0.0067
1078.00,0.0065
1077.00,0.0064
1076.00,0.0064
1075.00,0.0064
1074.00,0.0064
1073.00,0.0065
1072.00,0.0064
1071.00,0.0064
1070.00,0.0063
1069.00,0.0063
1068.00,0.0064
1067.00,0.0065
1066.00,0.0066
1065.00,0.0066
1064.00,0.0067
1063.00,0.0067
1062.00,0.0068
1061.00,0.0069
1060.00,0.0070
1059.00,0.0071
1058.00,0.0072
1057.00,0.0072
1056.00,0.0072
1055.00,0.0073
1054.00,0.0074
1053.00,0.0076
1052.00,0.0078
1051.00,0.0079
1050.00,0.0081
1049.00,0.0084
1048.00,0.0088
1047.00,0.0094
1046.00,0.0099
1045.00,0.0102
1044.00,0.0103
1043.00,0.0102
1042.00,0.0100
1041.00,0.0099
1040.00,0.0098
1039.00,0.0100
1038.00,0.0102
1037.00,0.0105
1036.00,0.0107
1035.00,0.0107
1034.00,0.0105
1033.00,0.0102
1032.00,0.0099
1031.00,0.0096
1030.00,0.0094
1029.00,0.0092
1028.00,0.0091
1027.00,0.0090
1026.00,0.0090
1025.00,0.0090
1024.00,0.0090
1023.00,0.0090
1022.00,0.0091
1021.00,0.0091
1020.00,0.0092
1019.00,0.0094
1018.00,0.0096
1017.00,0.0099
1016.00,0.0103
1015.00,0.0108
1014.00,0.0115
1013.00,0.0123
1012.00,0.0129
1011.00,0.0134
1010.00,0.0138
1009.00,0.0141
1008.00,0.0146
1007.00,0.0152
1006.00,0.0160
1005.00,0.0173
1004.00,0.0191
1003.00,0.0216
1002.00,0.0250
1001.00,0.0291
1000.00,0.0337
999.00,0.0377
998.00,0.0399
997.00,0.0394
996.00,0.0363
995.00,0.0317
994.00,0.0266
993.00,0.0222
992.00,0.0188
991.00,0.0163
990.00,0.0145
989.00,0.0133
988.00,0.0126
987.00,0.0121
986.00,0.0120
985.00,0.0122
984.00,0.0126
983.00,0.0134
982.00,0.0147
981.00,0.0164
980.00,0.0188
979.00,0.0219
978.00,0.0260
977.00,0.0308
976.00,0.0362
975.00,0.0416
974.00,0.0458
973.00,0.0477
972.00,0.0465
971.00,0.0423
970.00,0.0363
969.00,0.0299
968.00,0.0244
967.00,0.0200
966.00,0.0169
965.00,0.0146
964.00,0.0129
963.00,0.0116
962.00,0.0106
961.00,0.0098
960.00,0.0092
959.00,0.0086
958.00,0.0081
957.00,0.0077
956.00,0.0074
955.00,0.0072
954.00,0.0071
953.00,0.0070
952.00,0.0069
951.00,0.0069
950.00,0.0068
949.00,0.0067
948.00,0.0067
947.00,0.0068
946.00,0.0070
945.00,0.0073
944.00,0.0076
943.00,0.0079
942.00,0.0081
941.00,0.0083
940.00,0.0084
939.00,0.0083
938.00,0.0080
937.00,0.0076
936.00,0.0072
935.00,0.0068
934.00,0.0064
933.00,0.0061
932.00,0.0059
931.00,0.0058
930.00,0.0058
929.00,0.0059
928.00,0.0060
927.00,0.0061
926.00,0.0062
925.00,0.0062
924.00,0.0062
923.00,0.0062
922.00,0.0063
921.00,0.0063
920.00,0.0064
919.00,0.0066
918.00,0.0068
917.00,0.0069
916.00,0.0070
915.00,0.0071
914.00,0.0073
913.00,0.0073
912.00,0.0074
911.00,0.0073
910.00,0.0073
909.00,0.0073
908.00,0.0075
907.00,0.0080
906.00,0.0087
905.00,0.0098
904.00,0.0113
903.00,0.0130
902.00,0.0150
901.00,0.0167
900.00,0.0179
899.00,0.0182
898.00,0.0176
897.00,0.0161
896.00,0.0143
895.00,0.0126
894.00,0.0111
893.00,0.0101
892.00,0.0093
891.00,0.0087
890.00,0.0082
889.00,0.0077
888.00,0.0073
887.00,0.0071
886.00,0.0070
885.00,0.0070
884.00,0.0072
883.00,0.0073
882.00,0.0074
881.00,0.0073
880.00,0.0073
879.00,0.0072
878.00,0.0072
877.00,0.0073
876.00,0.0073
875.00,0.0073
874.00,0.0073
873.00,0.0072
872.00,0.0071
871.00,0.0071
870.00,0.0071
869.00,0.0072
868.00,0.0074
867.00,0.0075
866.00,0.0077
865.00,0.0078
864.00,0.0078
863.00,0.0079
862.00,0.0079
861.00,0.0080
860.00,0.0082
859.00,0.0084
858.00,0.0087
857.00,0.0090
856.00,0.0093
855.00,0.0096
854.00,0.0099
853.00,0.0100
852.00,0.0103
851.00,0.0107
850.00,0.0114
849.00,0.0122
848.00,0.0134
847.00,0.0152
846.00,0.0178
845.00,0.0219
844.00,0.0274
843.00,0.0335
842.00,0.0383
841.00,0.0398
840.00,0.0373
839.00,0.0321
838.00,0.0263
837.00,0.0215
836.00,0.0182
835.00,0.0162
834.00,0.0148
833.00,0.0139
832.00,0.0133
831.00,0.0128
830.00,0.0124
829.00,0.0121
828.00,0.0117
827.00,0.0114
826.00,0.0112
825.00,0.0111
824.00,0.0110
823.00,0.0110
822.00,0.0109
821.00,0.0110
820.00,0.0110
819.00,0.0113
818.00,0.0116
817.00,0.0121
816.00,0.0128
815.00,0.0137
814.00,0.0149
813.00,0.0164
812.00,0.0180
811.00,0.0195
810.00,0.0207
809.00,0.0213
808.00,0.0213
807.00,0.0206
806.00,0.0193
805.00,0.0176
804.00,0.0160
803.00,0.0146
802.00,0.0134
801.00,0.0126
800.00,0.0118
799.00,0.0113
798.00,0.0108
797.00,0.0104
796.00,0.0100
795.00,0.0096
794.00,0.0093
793.00,0.0090
792.00,0.0088
791.00,0.0086
790.00,0.0084
789.00,0.0082
788.00,0.0080
787.00,0.0079
786.00,0.0077
785.00,0.0075
784.00,0.0073
783.00,0.0071
782.00,0.0070
781.00,0.0069
780.00,0.0068
779.00,0.0067
778.00,0.0067
777.00,0.0068
776.00,0.0070
775.00,0.0072
774.00,0.0074
773.00,0.0075
772.00,0.0077
771.00,0.0079
770.00,0.0082
769.00,0.0085
768.00,0.0087
767.00,0.0088
766.00,0.0088
765.00,0.0086
764.00,0.0081
763.00,0.0077
762.00,0.0073
761.00,0.0072
760.00,0.0070
759.00,0.0068
758.00,0.0065
757.00,0.0062
756.00,0.0059
755.00,0.0057
754.00,0.0056
753.00,0.0056
752.00,0.0056
751.00,0.0056
750.00,0.0057
749.00,0.0058
748.00,0.0059
747.00,0.0060
746.00,0.0061
745.00,0.0061
744.00,0.0060
743.00,0.0059
742.00,0.0058
741.00,0.0058
740.00,0.0059
739.00,0.0060
738.00,0.0062
737.00,0.0065
736.00,0.0067
735.00,0.0070
734.00,0.0071
733.00,0.0072
732.00,0.0072
731.00,0.0072
730.00,0.0072
729.00,0.0072
728.00,0.0072
727.00,0.0072
726.00,0.0072
725.00,0.0072
724.00,0.0072
723.00,0.0073
722.00,0.0074
721.00,0.0074
720.00,0.0071
719.00,0.0068
718.00,0.0064
717.00,0.0061
716.00,0.0060
715.00,0.0059
714.00,0.0059
713.00,0.0059
712.00,0.0059
711.00,0.0058
710.00,0.0058
709.00,0.0059
708.00,0.0060
707.00,0.0061
706.00,0.0062
705.00,0.0062
704.00,0.0061
703.00,0.0061
702.00,0.0061
701.00,0.0061
700.00,0.0061
699.00,0.0060
698.00,0.0058
697.00,0.0055
696.00,0.0053
695.00,0.0051
694.00,0.0051
693.00,0.0052
692.00,0.0054
691.00,0.0056
690.00,0.0058
689.00,0.0060
688.00,0.0062
687.00,0.0063
686.00,0.0064
685.00,0.0064
684.00,0.0063
683.00,0.0062
682.00,0.0061
681.00,0.0061
680.00,0.0062
679.00,0.0064
678.00,0.0066
677.00,0.0066
676.00,0.0066
675.00,0.0065
674.00,0.0064
673.00,0.0064
672.00,0.0063
671.00,0.0063
670.00,0.0062
669.00,0.0061
668.00,0.0061
667.00,0.0062
666.00,0.0064
665.00,0.0064
664.00,0.0061
663.00,0.0058
662.00,0.0056
661.00,0.0057
660.00,0.0059
659.00,0.0061
658.00,0.0063
657.00,0.0063
656.00,0.0062
655.00,0.0061
654.00,0.0061
653.00,0.0061
652.00,0.0061
651.00,0.0060
650.00,0.0058
649.00,0.0056
648.00,0.0054
647.00,0.0053
646.00,0.0053
645.00,0.0054
644.00,0.0055
643.00,0.0056
642.00,0.0057
641.00,0.0057
640.00,0.0057
639.00,0.0057
638.00,0.0058
637.00,0.0057
636.00,0.0056
635.00,0.0054
634.00,0.0053
633.00,0.0053
632.00,0.0055
631.00,0.0057
630.00,0.0059
629.00,0.0060
628.00,0.0061
627.00,0.0061
626.00,0.0061
625.00,0.0060
624.00,0.0057
623.00,0.0057
622.00,0.0058
621.00,0.0061
620.00,0.0063
619.00,0.0064
618.00,0.0063
617.00,0.0063
616.00,0.0064
615.00,0.0063
614.00,0.0062
613.00,0.0061
612.00,0.0062
611.00,0.0064
610.00,0.0064
609.00,0.0064
608.00,0.0062
607.00,0.0061
606.00,0.0061
605.00,0.0060
604.00,0.0060
603.00,0.0059
602.00,0.0058
601.00,0.0057
600.00,0.0057
599.00,0.0058
598.00,0.0061
597.00,0.0062
596.00,0.0063
595.00,0.0061
594.00,0.0060
593.00,0.0060
592.00,0.0061
591.00,0.0062
590.00,0.0062
589.00,0.0062
588.00,0.0062
587.00,0.0062
586.00,0.0061
585.00,0.0061
584.00,0.0060
583.00,0.0060
582.00,0.0063
581.00,0.0066
580.00,0.0069
579.00,0.0069
578.00,0.0067
577.00,0.0064
576.00,0.0063
575.00,0.0064
574.00,0.0067
573.00,0.0069
572.00,0.0069
571.00,0.0067
570.00,0.0063
569.00,0.0058
568.00,0.0055
567.00,0.0056
566.00,0.0059
565.00,0.0063
564.00,0.0064
563.00,0.0065
562.00,0.0064
561.00,0.0062
560.00,0.0062
559.00,0.0063
558.00,0.0066
557.00,0.0068
556.00,0.0070
555.00,0.0070
554.00,0.0069
553.00,0.0069
552.00,0.0070
551.00,0.0071
550.00,0.0072
549.00,0.0073
548.00,0.0072
547.00,0.0071
546.00,0.0069
545.00,0.0065
544.00,0.0062
543.00,0.0059
542.00,0.0060
541.00,0.0063
540.00,0.0068
539.00,0.0072
538.00,0.0073
537.00,0.0072
536.00,0.0072
535.00,0.0074
534.00,0.0077
533.00,0.0082
532.00,0.0085
531.00,0.0086
530.00,0.0087
529.00,0.0087
528.00,0.0086
527.00,0.0086
526.00,0.0088
525.00,0.0089
524.00,0.0088
523.00,0.0084
522.00,0.0078
521.00,0.0071
520.00,0.0063
519.00,0.0057
518.00,0.0057
517.00,0.0062
516.00,0.0067
515.00,0.0067
514.00,0.0066
513.00,0.0066
512.00,0.0069
511.00,0.0074
510.00,0.0076
509.00,0.0075
508.00,0.0070
507.00,0.0062
506.00,0.0054
505.00,0.0051
504.00,0.0055
503.00,0.0063
502.00,0.0070
501.00,0.0071
500.00,0.0068
499.00,0.0063
498.00,0.0061
497.00,0.0061
496.00,0.0063
495.00,0.0062
494.00,0.0057
493.00,0.0051
492.00,0.0047
491.00,0.0050
490.00,0.0056
489.00,0.0061
488.00,0.0064
487.00,0.0065
486.00,0.0064
485.00,0.0063
484.00,0.0063
483.00,0.0067
482.00,0.0072
481.00,0.0076
480.00,0.0077
479.00,0.0074
478.00,0.0068
477.00,0.0060
476.00,0.0054
475.00,0.0055
474.00,0.0059
473.00,0.0064
472.00,0.0069
471.00,0.0076
470.00,0.0083
469.00,0.0088
468.00,0.0089
467.00,0.0090
466.00,0.0096
465.00,0.0104
464.00,0.0113
463.00,0.0124
462.00,0.0133
461.00,0.0138
460.00,0.0137
459.00,0.0130
458.00,0.0134
457.00,0.0146
456.00,0.0160
455.00,0.0169
454.00,0.0171
453.00,0.0163
452.00,0.0138
451.00,0.0099
450.00,0.0061
