Created as New Dataset,Sample 072 By Administrator Date Friday, September 05 2025
cm-1,A
4000.00,0.0015
3999.00,0.0015
3998.00,0.0015
3997.00,0.0015
3996.00,0.0015
3995.00,0.0014
3994.00,0.0014
3993.00,0.0014
3992.00,0.0014
3991.00,0.0014
3990.00,0.0015
3989.00,0.0015
3988.00,0.0015
3987.00,0.0014
3986.00,0.0014
3985.00,0.0014
3984.00,0.0013
3983.00,0.0013
3982.00,0.0013
3981.00,0.0013
3980.00,0.0013
3979.00,0.0013
3978.00,0.0013
3977.00,0.0013
3976.00,0.0013
3975.00,0.0013
3974.00,0.0013
3973.00,0.0013
3972.00,0.0013
3971.00,0.0013
3970.00,0.0013
3969.00,0.0013
3968.00,0.0013
3967.00,0.0013
3966.00,0.0013
3965.00,0.0013
3964.00,0.0013
3963.00,0.0013
3962.00,0.0012
3961.00,0.0012
3960.00,0.0012
3959.00,0.0013
3958.00,0.0013
3957.00,0.0013
3956.00,0.0013
3955.00,0.0013
3954.00,0.0013
3953.00,0.0013
3952.00,0.0012
3951.00,0.0012
3950.00,0.0013
3949.00,0.0012
3948.00,0.0012
3947.00,0.0013
3946.00,0.0013
3945.00,0.0013
3944.00,0.0013
3943.00,0.0014
3942.00,0.0014
3941.00,0.0013
3940.00,0.0013
3939.00,0.0013
3938.00,0.0013
3937.00,0.0013
3936.00,0.0012
3935.00,0.0012
3934.00,0.0012
3933.00,0.0012
3932.00,0.0012
3931.00,0.0012
3930.00,0.0013
3929.00,0.0013
3928.00,0.0013
3927.00,0.0013
3926.00,0.0013
3925.00,0.0013
3924.00,0.0013
3923.00,0.0013
3922.00,0.0013
3921.00,0.0013
3920.00,0.0013
3919.00,0.0013
3918.00,0.0013
3917.00,0.0013
3916.00,0.0013
3915.00,0.0013
3914.00,0.0013
3913.00,0.0013
3912.00,0.0013
3911.00,0.0013
3910.00,0.0013
3909.00,0.0013
3908.00,0.0013
3907.00,0.0013
3906.00,0.0013
3905.00,0.0013
3904.00,0.0012
3903.00,0.0012
3902.00,0.0012
3901.00,0.0011
3900.00,0.0011
3899.00,0.0012
3898.00,0.0012
3897.00,0.0012
3896.00,0.0012
3895.00,0.0013
3894.00,0.0013
3893.00,0.0013
3892.00,0.0013
3891.00,0.0013
3890.00,0.0013
3889.00,0.0013
3888.00,0.0012
3887.00,0.0012
3886.00,0.0012
3885.00,0.0013
3884.00,0.0013
3883.00,0.0013
3882.00,0.0013
3881.00,0.0012
3880.00,0.0013
3879.00,0.0013
3878.00,0.0013
3877.00,0.0013
3876.00,0.0013
3875.00,0.0013
3874.00,0.0013
3873.00,0.0013
3872.00,0.0012
3871.00,0.0012
3870.00,0.0011
3869.00,0.0011
3868.00,0.0011
3867.00,0.0010
3866.00,0.0010
3865.00,0.0010
3864.00,0.0010
3863.00,0.0010
3862.00,0.0011
3861.00,0.0011
3860.00,0.0012
3859.00,0.0012
3858.00,0.0012
3857.00,0.0013
3856.00,0.0012
3855.00,0.0012
3854.00,0.0011
3853.00,0.0011
3852.00,0.0011
3851.00,0.0011
3850.00,0.0011
3849.00,0.0010
3848.00,0.0011
3847.00,0.0011
3846.00,0.0011
3845.00,0.0011
3844.00,0.0012
3843.00,0.0012
3842.00,0.0012
3841.00,0.0012
3840.00,0.0012
3839.00,0.0012
3838.00,0.0012
3837.00,0.0012
3836.00,0.0011
3835.00,0.0011
3834.00,0.0011
3833.00,0.0011
3832.00,0.0010
3831.00,0.0010
3830.00,0.0010
3829.00,0.0010
3828.00,0.0010
3827.00,0.0011
3826.00,0.0011
3825.00,0.0012
3824.00,0.0012
3823.00,0.0012
3822.00,0.0012
3821.00,0.0012
3820.00,0.0012
3819.00,0.0012
3818.00,0.0011
3817.00,0.0011
3816.00,0.0011
3815.00,0.0011
3814.00,0.0012
3813.00,0.0011
3812.00,0.0012
3811.00,0.0012
3810.00,0.0012
3809.00,0.0012
3808.00,0.0012
3807.00,0.0012
3806.00,0.0012
3805.00,0.0012
3804.00,0.0012
3803.00,0.0012
3802.00,0.0012
3801.00,0.0012
3800.00,0.0012
3799.00,0.0012
3798.00,0.0011
3797.00,0.0011
3796.00,0.0011
3795.00,0.0011
3794.00,0.0011
3793.00,0.0011
3792.00,0.0011
3791.00,0.0012
3790.00,0.0012
3789.00,0.0013
3788.00,0.0013
3787.00,0.0013
3786.00,0.0013
3785.00,0.0013
3784.00,0.0013
3783.00,0.0012
3782.00,0.0011
3781.00,0.0011
3780.00,0.0011
3779.00,0.0011
3778.00,0.0011
3777.00,0.0012
3776.00,0.0012
3775.00,0.0013
3774.00,0.0013
3773.00,0.0013
3772.00,0.0013
3771.00,0.0013
3770.00,0.0012
3769.00,0.0012
3768.00,0.0011
3767.00,0.0011
3766.00,0.0011
3765.00,0.0012
3764.00,0.0012
3763.00,0.0012
3762.00,0.0012
3761.00,0.0012
3760.00,0.0012
3759.00,0.0012
3758.00,0.0012
3757.00,0.0012
3756.00,0.0012
3755.00,0.0012
3754.00,0.0012
3753.00,0.0012
3752.00,0.0012
3751.00,0.0011
3750.00,0.0010
3749.00,0.0010
3748.00,0.0010
3747.00,0.0011
3746.00,0.0010
3745.00,0.0011
3744.00,0.0011
3743.00,0.0011
3742.00,0.0011
3741.00,0.0011
3740.00,0.0011
3739.00,0.0011
3738.00,0.0011
3737.00,0.0011
3736.00,0.0011
3735.00,0.0011
3734.00,0.0010
3733.00,0.0010
3732.00,0.0009
3731.00,0.0009
3730.00,0.0010
3729.00,0.0009
3728.00,0.0009
3727.00,0.0009
3726.00,0.0009
3725.00,0.0010
3724.00,0.0010
3723.00,0.0010
3722.00,0.0010
3721.00,0.0010
3720.00,0.0010
3719.00,0.0010
3718.00,0.0011
3717.00,0.0011
3716.00,0.0011
3715.00,0.0011
3714.00,0.0010
3713.00,0.0010
3712.00,0.0010
3711.00,0.0010
3710.00,0.0010
3709.00,0.0010
3708.00,0.0010
3707.00,0.0010
3706.00,0.0010
3705.00,0.0010
3704.00,0.0010
3703.00,0.0011
3702.00,0.0011
3701.00,0.0012
3700.00,0.0012
3699.00,0.0011
3698.00,0.0011
3697.00,0.0011
3696.00,0.0011
3695.00,0.0011
3694.00,0.0011
3693.00,0.0011
3692.00,0.0011
3691.00,0.0011
3690.00,0.0011
3689.00,0.0010
3688.00,0.0010
3687.00,0.0010
3686.00,0.0009
3685.00,0.0009
3684.00,0.0009
3683.00,0.0008
3682.00,0.0008
3681.00,0.0008
3680.00,0.0007
3679.00,0.0007
3678.00,0.0006
3677.00,0.0006
3676.00,0.0006
3675.00,0.0006
3674.00,0.0006
3673.00,0.0005
3672.00,0.0004
3671.00,0.0003
3670.00,0.0003
3669.00,0.0004
3668.00,0.0004
3667.00,0.0005
3666.00,0.0004
3665.00,0.0004
3664.00,0.0004
3663.00,0.0004
3662.00,0.0005
3661.00,0.0005
3660.00,0.0005
3659.00,0.0005
3658.00,0.0004
3657.00,0.0004
3656.00,0.0004
3655.00,0.0004
3654.00,0.0004
3653.00,0.0004
3652.00,0.0004
3651.00,0.0004
3650.00,0.0004
3649.00,0.0005
3648.00,0.0005
3647.00,0.0005
3646.00,0.0006
3645.00,0.0006
3644.00,0.0006
3643.00,0.0006
3642.00,0.0006
3641.00,0.0007
3640.00,0.0008
3639.00,0.0009
3638.00,0.0010
3637.00,0.0010
3636.00,0.0011
3635.00,0.0011
3634.00,0.0012
3633.00,0.0012
3632.00,0.0012
3631.00,0.0011
3630.00,0.0012
3629.00,0.0013
3628.00,0.0014
3627.00,0.0015
3626.00,0.0015
3625.00,0.0015
3624.00,0.0015
3623.00,0.0015
3622.00,0.0015
3621.00,0.0015
3620.00,0.0015
3619.00,0.0016
3618.00,0.0016
3617.00,0.0017
3616.00,0.0017
3615.00,0.0017
3614.00,0.0018
3613.00,0.0018
3612.00,0.0019
3611.00,0.0019
3610.00,0.0019
3609.00,0.0020
3608.00,0.0020
3607.00,0.0021
3606.00,0.0021
3605.00,0.0021
3604.00,0.0021
3603.00,0.0021
3602.00,0.0021
3601.00,0.0021
3600.00,0.0022
3599.00,0.0022
3598.00,0.0023
3597.00,0.0023
3596.00,0.0024
3595.00,0.0024
3594.00,0.0024
3593.00,0.0024
3592.00,0.0024
3591.00,0.0024
3590.00,0.0025
3589.00,0.0026
3588.00,0.0026
3587.00,0.0027
3586.00,0.0027
3585.00,0.0027
3584.00,0.0027
3583.00,0.0028
3582.00,0.0028
3581.00,0.0029
3580.00,0.0029
3579.00,0.0029
3578.00,0.0030
3577.00,0.0031
3576.00,0.0031
3575.00,0.0032
3574.00,0.0032
3573.00,0.0033
3572.00,0.0033
3571.00,0.0033
3570.00,0.0033
3569.00,0.0033
3568.00,0.0033
3567.00,0.0033
3566.00,0.0033
3565.00,0.0034
3564.00,0.0034
3563.00,0.0034
3562.00,0.0035
3561.00,0.0035
3560.00,0.0035
3559.00,0.0035
3558.00,0.0035
3557.00,0.0036
3556.00,0.0036
3555.00,0.0037
3554.00,0.0038
3553.00,0.0038
3552.00,0.0038
3551.00,0.0038
3550.00,0.0038
3549.00,0.0038
3548.00,0.0038
3547.00,0.0038
3546.00,0.0039
3545.00,0.0039
3544.00,0.0039
3543.00,0.0039
3542.00,0.0039
3541.00,0.0039
3540.00,0.0039
3539.00,0.0039
3538.00,0.0040
3537.00,0.0040
3536.00,0.0040
3535.00,0.0041
3534.00,0.0041
3533.00,0.0041
3532.00,0.0042
3531.00,0.0042
3530.00,0.0042
3529.00,0.0042
3528.00,0.0042
3527.00,0.0041
3526.00,0.0041
3525.00,0.0041
3524.00,0.0041
3523.00,0.0041
3522.00,0.0042
3521.00,0.0042
3520.00,0.0042
3519.00,0.0042
3518.00,0.0042
3517.00,0.0042
3516.00,0.0042
3515.00,0.0042
3514.00,0.0043
3513.00,0.0043
3512.00,0.0043
3511.00,0.0044
3510.00,0.0044
3509.00,0.0044
3508.00,0.0044
3507.00,0.0044
3506.00,0.0044
3505.00,0.0045
3504.00,0.0045
3503.00,0.0045
3502.00,0.0045
3501.00,0.0046
3500.00,0.0046
3499.00,0.0046
3498.00,0.0046
3497.00,0.0046
3496.00,0.0046
3495.00,0.0046
3494.00,0.0046
3493.00,0.0046
3492.00,0.0046
3491.00,0.0046
3490.00,0.0046
3489.00,0.0046
3488.00,0.0047
3487.00,0.0047
3486.00,0.0048
3485.00,0.0048
3484.00,0.0048
3483.00,0.0048
3482.00,0.0048
3481.00,0.0049
3480.00,0.0049
3479.00,0.0049
3478.00,0.0049
3477.00,0.0049
3476.00,0.0049
3475.00,0.0049
3474.00,0.0049
3473.00,0.0049
3472.00,0.0050
3471.00,0.0050
3470.00,0.0050
3469.00,0.0051
3468.00,0.0051
3467.00,0.0051
3466.00,0.0051
3465.00,0.0051
3464.00,0.0051
3463.00,0.0052
3462.00,0.0052
3461.00,0.0053
3460.00,0.0054
3459.00,0.0054
3458.00,0.0054
3457.00,0.0054
3456.00,0.0054
3455.00,0.0054
3454.00,0.0054
3453.00,0.0054
3452.00,0.0055
3451.00,0.0055
3450.00,0.0055
3449.00,0.0055
3448.00,0.0055
3447.00,0.0055
3446.00,0.0055
3445.00,0.0056
3444.00,0.0056
3443.00,0.0056
3442.00,0.0056
3441.00,0.0056
3440.00,0.0056
3439.00,0.0056
3438.00,0.0056
3437.00,0.0057
3436.00,0.0057
3435.00,0.0058
3434.00,0.0058
3433.00,0.0058
3432.00,0.0058
3431.00,0.0058
3430.00,0.0058
3429.00,0.0058
3428.00,0.0058
3427.00,0.0059
3426.00,0.0059
3425.00,0.0060
3424.00,0.0060
3423.00,0.0060
3422.00,0.0060
3421.00,0.0061
3420.00,0.0061
3419.00,0.0061
3418.00,0.0061
3417.00,0.0061
3416.00,0.0061
3415.00,0.0061
3414.00,0.0062
3413.00,0.0062
3412.00,0.0062
3411.00,0.0062
3410.00,0.0062
3409.00,0.0062
3408.00,0.0062
3407.00,0.0062
3406.00,0.0063
3405.00,0.0063
3404.00,0.0063
3403.00,0.0063
3402.00,0.0063
3401.00,0.0063
3400.00,0.0063
3399.00,0.0063
3398.00,0.0063
3397.00,0.0063
3396.00,0.0063
3395.00,0.0063
3394.00,0.0063
3393.00,0.0063
3392.00,0.0064
3391.00,0.0064
3390.00,0.0064
3389.00,0.0065
3388.00,0.0065
3387.00,0.0065
3386.00,0.0065
3385.00,0.0065
3384.00,0.0065
3383.00,0.0065
3382.00,0.0065
3381.00,0.0065
3380.00,0.0065
3379.00,0.0065
3378.00,0.0065
3377.00,0.0065
3376.00,0.0065
3375.00,0.0065
3374.00,0.0066
3373.00,0.0066
3372.00,0.0066
3371.00,0.0066
3370.00,0.0066
3369.00,0.0066
3368.00,0.0066
3367.00,0.0065
3366.00,0.0065
3365.00,0.0066
3364.00,0.0066
3363.00,0.0066
3362.00,0.0066
3361.00,0.0066
3360.00,0.0067
3359.00,0.0067
3358.00,0.0067
3357.00,0.0067
3356.00,0.0067
3355.00,0.0067
3354.00,0.0067
3353.00,0.0067
3352.00,0.0068
3351.00,0.0068
3350.00,0.0068
3349.00,0.0068
3348.00,0.0068
3347.00,0.0068
3346.00,0.0067
3345.00,0.0067
3344.00,0.0067
3343.00,0.0067
3342.00,0.0067
3341.00,0.0067
3340.00,0.0067
3339.00,0.0067
3338.00,0.0067
3337.00,0.0067
3336.00,0.0068
3335.00,0.0068
3334.00,0.0068
3333.00,0.0068
3332.00,0.0068
3331.00,0.0068
3330.00,0.0068
3329.00,0.0068
3328.00,0.0068
3327.00,0.0067
3326.00,0.0066
3325.00,0.0066
3324.00,0.0066
3323.00,0.0066
3322.00,0.0066
3321.00,0.0066
3320.00,0.0066
3319.00,0.0066
3318.00,0.0067
3317.00,0.0067
3316.00,0.0067
3315.00,0.0066
3314.00,0.0066
3313.00,0.0066
3312.00,0.0066
3311.00,0.0066
3310.00,0.0066
3309.00,0.0066
3308.00,0.0065
3307.00,0.0065
3306.00,0.0065
3305.00,0.0065
3304.00,0.0065
3303.00,0.0065
3302.00,0.0066
3301.00,0.0066
3300.00,0.0067
3299.00,0.0067
3298.00,0.0067
3297.00,0.0067
3296.00,0.0066
3295.00,0.0066
3294.00,0.0065
3293.00,0.0065
3292.00,0.0064
3291.00,0.0064
3290.00,0.0064
3289.00,0.0065
3288.00,0.0065
3287.00,0.0065
3286.00,0.0065
3285.00,0.0065
3284.00,0.0065
3283.00,0.0064
3282.00,0.0064
3281.00,0.0064
3280.00,0.0063
3279.00,0.0063
3278.00,0.0063
3277.00,0.0062
3276.00,0.0062
3275.00,0.0062
3274.00,0.0062
3273.00,0.0062
3272.00,0.0061
3271.00,0.0061
3270.00,0.0061
3269.00,0.0061
3268.00,0.0061
3267.00,0.0061
3266.00,0.0061
3265.00,0.0061
3264.00,0.0060
3263.00,0.0060
3262.00,0.0060
3261.00,0.0059
3260.00,0.0059
3259.00,0.0059
3258.00,0.0059
3257.00,0.0059
3256.00,0.0058
3255.00,0.0058
3254.00,0.0058
3253.00,0.0057
3252.00,0.0057
3251.00,0.0057
3250.00,0.0056
3249.00,0.0056
3248.00,0.0056
3247.00,0.0056
3246.00,0.0056
3245.00,0.0055
3244.00,0.0055
3243.00,0.0055
3242.00,0.0055
3241.00,0.0055
3240.00,0.0055
3239.00,0.0055
3238.00,0.0055
3237.00,0.0055
3236.00,0.0055
3235.00,0.0055
3234.00,0.0055
3233.00,0.0055
3232.00,0.0055
3231.00,0.0055
3230.00,0.0055
3229.00,0.0055
3228.00,0.0055
3227.00,0.0055
3226.00,0.0055
3225.00,0.0055
3224.00,0.0055
3223.00,0.0055
3222.00,0.0055
3221.00,0.0055
3220.00,0.0056
3219.00,0.0057
3218.00,0.0057
3217.00,0.0057
3216.00,0.0057
3215.00,0.0057
3214.00,0.0057
3213.00,0.0057
3212.00,0.0057
3211.00,0.0058
3210.00,0.0058
3209.00,0.0058
3208.00,0.0058
3207.00,0.0058
3206.00,0.0058
3205.00,0.0058
3204.00,0.0058
3203.00,0.0058
3202.00,0.0057
3201.00,0.0058
3200.00,0.0058
3199.00,0.0058
3198.00,0.0058
3197.00,0.0057
3196.00,0.0057
3195.00,0.0057
3194.00,0.0057
3193.00,0.0057
3192.00,0.0057
3191.00,0.0057
3190.00,0.0057
3189.00,0.0057
3188.00,0.0056
3187.00,0.0056
3186.00,0.0056
3185.00,0.0056
3184.00,0.0055
3183.00,0.0055
3182.00,0.0054
3181.00,0.0053
3180.00,0.0053
3179.00,0.0053
3178.00,0.0053
3177.00,0.0053
3176.00,0.0053
3175.00,0.0053
3174.00,0.0053
3173.00,0.0053
3172.00,0.0053
3171.00,0.0053
3170.00,0.0052
3169.00,0.0052
3168.00,0.0052
3167.00,0.0052
3166.00,0.0052
3165.00,0.0052
3164.00,0.0052
3163.00,0.0052
3162.00,0.0052
3161.00,0.0052
3160.00,0.0052
3159.00,0.0052
3158.00,0.0052
3157.00,0.0052
3156.00,0.0052
3155.00,0.0052
3154.00,0.0051
3153.00,0.0051
3152.00,0.0051
3151.00,0.0051
3150.00,0.0051
3149.00,0.0050
3148.00,0.0050
3147.00,0.0050
3146.00,0.0051
3145.00,0.0051
3144.00,0.0050
3143.00,0.0050
3142.00,0.0049
3141.00,0.0049
3140.00,0.0048
3139.00,0.0048
3138.00,0.0049
3137.00,0.0049
3136.00,0.0049
3135.00,0.0048
3134.00,0.0048
3133.00,0.0047
3132.00,0.0047
3131.00,0.0046
3130.00,0.0046
3129.00,0.0046
3128.00,0.0046
3127.00,0.0045
3126.00,0.0045
3125.00,0.0044
3124.00,0.0044
3123.00,0.0043
3122.00,0.0043
3121.00,0.0044
3120.00,0.0044
3119.00,0.0044
3118.00,0.0043
3117.00,0.0043
3116.00,0.0042
3115.00,0.0042
3114.00,0.0042
3113.00,0.0042
3112.00,0.0042
3111.00,0.0042
3110.00,0.0042
3109.00,0.0042
3108.00,0.0042
3107.00,0.0043
3106.00,0.0043
3105.00,0.0043
3104.00,0.0043
3103.00,0.0042
3102.00,0.0042
3101.00,0.0041
3100.00,0.0041
3099.00,0.0041
3098.00,0.0042
3097.00,0.0042
3096.00,0.0043
3095.00,0.0043
3094.00,0.0043
3093.00,0.0043
3092.00,0.0043
3091.00,0.0043
3090.00,0.0042
3089.00,0.0042
3088.00,0.0042
3087.00,0.0042
3086.00,0.0042
3085.00,0.0041
3084.00,0.0041
3083.00,0.0041
3082.00,0.0041
3081.00,0.0041
3080.00,0.0041
3079.00,0.0041
3078.00,0.0041
3077.00,0.0042
3076.00,0.0042
3075.00,0.0043
3074.00,0.0043
3073.00,0.0043
3072.00,0.0043
3071.00,0.0043
3070.00,0.0043
3069.00,0.0043
3068.00,0.0043
3067.00,0.0043
3066.00,0.0043
3065.00,0.0044
3064.00,0.0044
3063.00,0.0044
3062.00,0.0044
3061.00,0.0044
3060.00,0.0044
3059.00,0.0044
3058.00,0.0044
3057.00,0.0044
3056.00,0.0044
3055.00,0.0045
3054.00,0.0045
3053.00,0.0045
3052.00,0.0045
3051.00,0.0045
3050.00,0.0045
3049.00,0.0046
3048.00,0.0046
3047.00,0.0047
3046.00,0.0047
3045.00,0.0047
3044.00,0.0047
3043.00,0.0047
3042.00,0.0047
3041.00,0.0047
3040.00,0.0047
3039.00,0.0048
3038.00,0.0048
3037.00,0.0048
3036.00,0.0049
3035.00,0.0049
3034.00,0.0049
3033.00,0.0049
3032.00,0.0050
3031.00,0.0050
3030.00,0.0050
3029.00,0.0051
3028.00,0.0051
3027.00,0.0051
3026.00,0.0052
3025.00,0.0052
3024.00,0.0053
3023.00,0.0053
3022.00,0.0054
3021.00,0.0054
3020.00,0.0055
3019.00,0.0055
3018.00,0.0055
3017.00,0.0055
3016.00,0.0055
3015.00,0.0055
3014.00,0.0055
3013.00,0.0055
3012.00,0.0055
3011.00,0.0055
3010.00,0.0055
3009.00,0.0055
3008.00,0.0054
3007.00,0.0054
3006.00,0.0053
3005.00,0.0053
3004.00,0.0053
3003.00,0.0053
3002.00,0.0053
3001.00,0.0054
3000.00,0.0054
2999.00,0.0055
2998.00,0.0057
2997.00,0.0059
2996.00,0.0061
2995.00,0.0064
2994.00,0.0067
2993.00,0.0071
2992.00,0.0075
2991.00,0.0080
2990.00,0.0085
2989.00,0.0092
2988.00,0.0098
2987.00,0.0105
2986.00,0.0111
2985.00,0.0117
2984.00,0.0123
2983.00,0.0131
2982.00,0.0142
2981.00,0.0159
2980.00,0.0181
2979.00,0.0208
2978.00,0.0237
2977.00,0.0269
2976.00,0.0305
2975.00,0.0343
2974.00,0.0385
2973.00,0.0433
2972.00,0.0487
2971.00,0.0550
2970.00,0.0622
2969.00,0.0701
2968.00,0.0788
2967.00,0.0881
2966.00,0.0981
2965.00,0.1085
2964.00,0.1192
2963.00,0.1298
2962.00,0.1398
2961.00,0.1486
2960.00,0.1561
2959.00,0.1619
2958.00,0.1663
2957.00,0.1696
2956.00,0.1722
2955.00,0.1747
2954.00,0.1774
2953.00,0.1802
2952.00,0.1826
2951.00,0.1840
2950.00,0.1835
2949.00,0.1804
2948.00,0.1744
2947.00,0.1657
2946.00,0.1550
2945.00,0.1434
2944.00,0.1320
2943.00,0.1219
2942.00,0.1138
2941.00,0.1079
2940.00,0.1043
2939.00,0.1029
2938.00,0.1034
2937.00,0.1057
2936.00,0.1095
2935.00,0.1146
2934.00,0.1210
2933.00,0.1285
2932.00,0.1369
2931.00,0.1461
2930.00,0.1559
2929.00,0.1660
2928.00,0.1762
2927.00,0.1862
2926.00,0.1959
2925.00,0.2052
2924.00,0.2143
2923.00,0.2233
2922.00,0.2322
2921.00,0.2408
2920.00,0.2485
2919.00,0.2545
2918.00,0.2580
2917.00,0.2580
2916.00,0.2544
2915.00,0.2474
2914.00,0.2380
2913.00,0.2276
2912.00,0.2173
2911.00,0.2077
2910.00,0.1993
2909.00,0.1919
2908.00,0.1853
2907.00,0.1791
2906.00,0.1731
2905.00,0.1670
2904.00,0.1606
2903.00,0.1541
2902.00,0.1475
2901.00,0.1408
2900.00,0.1344
2899.00,0.1281
2898.00,0.1223
2897.00,0.1170
2896.00,0.1123
2895.00,0.1082
2894.00,0.1048
2893.00,0.1020
2892.00,0.0999
2891.00,0.0984
2890.00,0.0974
2889.00,0.0969
2888.00,0.0968
2887.00,0.0970
2886.00,0.0976
2885.00,0.0985
2884.00,0.0999
2883.00,0.1017
2882.00,0.1039
2881.00,0.1064
2880.00,0.1088
2879.00,0.1109
2878.00,0.1123
2877.00,0.1129
2876.00,0.1128
2875.00,0.1122
2874.00,0.1116
2873.00,0.1113
2872.00,0.1116
2871.00,0.1125
2870.00,0.1139
2869.00,0.1154
2868.00,0.1164
2867.00,0.1162
2866.00,0.1142
2865.00,0.1101
2864.00,0.1041
2863.00,0.0970
2862.00,0.0896
2861.00,0.0827
2860.00,0.0768
2859.00,0.0723
2858.00,0.0692
2857.00,0.0674
2856.00,0.0669
2855.00,0.0675
2854.00,0.0691
2853.00,0.0716
2852.00,0.0747
2851.00,0.0778
2850.00,0.0805
2849.00,0.0824
2848.00,0.0838
2847.00,0.0851
2846.00,0.0870
2845.00,0.0899
2844.00,0.0939
2843.00,0.0990
2842.00,0.1048
2841.00,0.1106
2840.00,0.1156
2839.00,0.1188
2838.00,0.1195
2837.00,0.1171
2836.00,0.1115
2835.00,0.1032
2834.00,0.0932
2833.00,0.0826
2832.00,0.0725
2831.00,0.0634
2830.00,0.0557
2829.00,0.0493
2828.00,0.0442
2827.00,0.0400
2826.00,0.0365
2825.00,0.0337
2824.00,0.0313
2823.00,0.0293
2822.00,0.0276
2821.00,0.0261
2820.00,0.0248
2819.00,0.0237
2818.00,0.0227
2817.00,0.0219
2816.00,0.0211
2815.00,0.0205
2814.00,0.0199
2813.00,0.0194
2812.00,0.0189
2811.00,0.0184
2810.00,0.0179
2809.00,0.0173
2808.00,0.0168
2807.00,0.0162
2806.00,0.0156
2805.00,0.0150
2804.00,0.0144
2803.00,0.0138
2802.00,0.0133
2801.00,0.0128
2800.00,0.0125
2799.00,0.0122
2798.00,0.0119
2797.00,0.0117
2796.00,0.0115
2795.00,0.0112
2794.00,0.0109
2793.00,0.0106
2792.00,0.0103
2791.00,0.0100
2790.00,0.0096
2789.00,0.0093
2788.00,0.0090
2787.00,0.0087
2786.00,0.0084
2785.00,0.0082
2784.00,0.0080
2783.00,0.0078
2782.00,0.0076
2781.00,0.0074
2780.00,0.0072
2779.00,0.0071
2778.00,0.0069
2777.00,0.0068
2776.00,0.0067
2775.00,0.0065
2774.00,0.0064
2773.00,0.0063
2772.00,0.0063
2771.00,0.0062
2770.00,0.0062
2769.00,0.0061
2768.00,0.0061
2767.00,0.0060
2766.00,0.0060
2765.00,0.0061
2764.00,0.0060
2763.00,0.0060
2762.00,0.0059
2761.00,0.0059
2760.00,0.0059
2759.00,0.0058
2758.00,0.0058
2757.00,0.0058
2756.00,0.0057
2755.00,0.0057
2754.00,0.0057
2753.00,0.0057
2752.00,0.0057
2751.00,0.0057
2750.00,0.0057
2749.00,0.0057
2748.00,0.0057
2747.00,0.0057
2746.00,0.0058
2745.00,0.0058
2744.00,0.0059
2743.00,0.0060
2742.00,0.0060
2741.00,0.0061
2740.00,0.0063
2739.00,0.0064
2738.00,0.0066
2737.00,0.0067
2736.00,0.0069
2735.00,0.0070
2734.00,0.0071
2733.00,0.0072
2732.00,0.0073
2731.00,0.0075
2730.00,0.0077
2729.00,0.0079
2728.00,0.0082
2727.00,0.0084
2726.00,0.0087
2725.00,0.0089
2724.00,0.0090
2723.00,0.0090
2722.00,0.0089
2721.00,0.0088
2720.00,0.0085
2719.00,0.0082
2718.00,0.0079
2717.00,0.0076
2716.00,0.0073
2715.00,0.0070
2714.00,0.0068
2713.00,0.0066
2712.00,0.0064
2711.00,0.0063
2710.00,0.0061
2709.00,0.0060
2708.00,0.0059
2707.00,0.0058
2706.00,0.0057
2705.00,0.0056
2704.00,0.0055
2703.00,0.0053
2702.00,0.0053
2701.00,0.0052
2700.00,0.0051
2699.00,0.0051
2698.00,0.0051
2697.00,0.0050
2696.00,0.0050
2695.00,0.0050
2694.00,0.0050
2693.00,0.0050
2692.00,0.0050
2691.00,0.0050
2690.00,0.0050
2689.00,0.0050
2688.00,0.0050
2687.00,0.0050
2686.00,0.0050
2685.00,0.0050
2684.00,0.0050
2683.00,0.0050
2682.00,0.0050
2681.00,0.0050
2680.00,0.0050
2679.00,0.0050
2678.00,0.0050
2677.00,0.0050
2676.00,0.0050
2675.00,0.0050
2674.00,0.0050
2673.00,0.0049
2672.00,0.0049
2671.00,0.0049
2670.00,0.0049
2669.00,0.0049
2668.00,0.0049
2667.00,0.0049
2666.00,0.0049
2665.00,0.0049
2664.00,0.0050
2663.00,0.0051
2662.00,0.0051
2661.00,0.0052
2660.00,0.0052
2659.00,0.0052
2658.00,0.0052
2657.00,0.0052
2656.00,0.0052
2655.00,0.0051
2654.00,0.0050
2653.00,0.0049
2652.00,0.0049
2651.00,0.0049
2650.00,0.0049
2649.00,0.0048
2648.00,0.0048
2647.00,0.0047
2646.00,0.0047
2645.00,0.0047
2644.00,0.0047
2643.00,0.0047
2642.00,0.0047
2641.00,0.0046
2640.00,0.0046
2639.00,0.0045
2638.00,0.0044
2637.00,0.0044
2636.00,0.0043
2635.00,0.0043
2634.00,0.0042
2633.00,0.0043
2632.00,0.0043
2631.00,0.0044
2630.00,0.0044
2629.00,0.0044
2628.00,0.0044
2627.00,0.0045
2626.00,0.0045
2625.00,0.0045
2624.00,0.0045
2623.00,0.0046
2622.00,0.0046
2621.00,0.0046
2620.00,0.0046
2619.00,0.0046
2618.00,0.0046
2617.00,0.0045
2616.00,0.0045
2615.00,0.0045
2614.00,0.0045
2613.00,0.0044
2612.00,0.0044
2611.00,0.0043
2610.00,0.0041
2609.00,0.0040
2608.00,0.0040
2607.00,0.0039
2606.00,0.0039
2605.00,0.0039
2604.00,0.0039
2603.00,0.0039
2602.00,0.0038
2601.00,0.0038
2600.00,0.0038
2599.00,0.0037
2598.00,0.0037
2597.00,0.0037
2596.00,0.0037
2595.00,0.0037
2594.00,0.0038
2593.00,0.0038
2592.00,0.0038
2591.00,0.0038
2590.00,0.0038
2589.00,0.0039
2588.00,0.0039
2587.00,0.0040
2586.00,0.0041
2585.00,0.0042
2584.00,0.0043
2583.00,0.0043
2582.00,0.0042
2581.00,0.0042
2580.00,0.0042
2579.00,0.0041
2578.00,0.0040
2577.00,0.0040
2576.00,0.0039
2575.00,0.0038
2574.00,0.0037
2573.00,0.0036
2572.00,0.0036
2571.00,0.0035
2570.00,0.0035
2569.00,0.0034
2568.00,0.0033
2567.00,0.0031
2566.00,0.0031
2565.00,0.0030
2564.00,0.0030
2563.00,0.0030
2562.00,0.0029
2561.00,0.0029
2560.00,0.0029
2559.00,0.0029
2558.00,0.0029
2557.00,0.0029
2556.00,0.0029
2555.00,0.0029
2554.00,0.0029
2553.00,0.0029
2552.00,0.0028
2551.00,0.0027
2550.00,0.0026
2549.00,0.0025
2548.00,0.0025
2547.00,0.0025
2546.00,0.0025
2545.00,0.0024
2544.00,0.0023
2543.00,0.0023
2542.00,0.0022
2541.00,0.0023
2540.00,0.0023
2539.00,0.0023
2538.00,0.0022
2537.00,0.0022
2536.00,0.0021
2535.00,0.0021
2534.00,0.0021
2533.00,0.0022
2532.00,0.0022
2531.00,0.0022
2530.00,0.0022
2529.00,0.0022
2528.00,0.0022
2527.00,0.0021
2526.00,0.0021
2525.00,0.0020
2524.00,0.0020
2523.00,0.0019
2522.00,0.0018
2521.00,0.0018
2520.00,0.0018
2519.00,0.0018
2518.00,0.0018
2517.00,0.0018
2516.00,0.0019
2515.00,0.0019
2514.00,0.0019
2513.00,0.0019
2512.00,0.0018
2511.00,0.0018
2510.00,0.0018
2509.00,0.0017
2508.00,0.0017
2507.00,0.0017
2506.00,0.0017
2505.00,0.0018
2504.00,0.0018
2503.00,0.0018
2502.00,0.0017
2501.00,0.0017
2500.00,0.0016
2499.00,0.0016
2498.00,0.0016
2497.00,0.0016
2496.00,0.0017
2495.00,0.0017
2494.00,0.0017
2493.00,0.0016
2492.00,0.0017
2491.00,0.0017
2490.00,0.0017
2489.00,0.0017
2488.00,0.0017
2487.00,0.0017
2486.00,0.0017
2485.00,0.0017
2484.00,0.0017
2483.00,0.0016
2482.00,0.0016
2481.00,0.0016
2480.00,0.0016
2479.00,0.0016
2478.00,0.0015
2477.00,0.0015
2476.00,0.0015
2475.00,0.0015
2474.00,0.0015
2473.00,0.0015
2472.00,0.0014
2471.00,0.0014
2470.00,0.0014
2469.00,0.0014
2468.00,0.0015
2467.00,0.0016
2466.00,0.0016
2465.00,0.0016
2464.00,0.0016
2463.00,0.0016
2462.00,0.0016
2461.00,0.0016
2460.00,0.0017
2459.00,0.0017
2458.00,0.0017
2457.00,0.0017
2456.00,0.0017
2455.00,0.0017
2454.00,0.0017
2453.00,0.0017
2452.00,0.0017
2451.00,0.0016
2450.00,0.0016
2449.00,0.0015
2448.00,0.0015
2447.00,0.0015
2446.00,0.0016
2445.00,0.0016
2444.00,0.0016
2443.00,0.0016
2442.00,0.0016
2441.00,0.0016
2440.00,0.0017
2439.00,0.0017
2438.00,0.0018
2437.00,0.0018
2436.00,0.0018
2435.00,0.0018
2434.00,0.0018
2433.00,0.0018
2432.00,0.0018
2431.00,0.0018
2430.00,0.0018
2429.00,0.0018
2428.00,0.0018
2427.00,0.0018
2426.00,0.0017
2425.00,0.0017
2424.00,0.0017
2423.00,0.0017
2422.00,0.0017
2421.00,0.0017
2420.00,0.0017
2419.00,0.0017
2418.00,0.0016
2417.00,0.0017
2416.00,0.0017
2415.00,0.0017
2414.00,0.0017
2413.00,0.0016
2412.00,0.0016
2411.00,0.0015
2410.00,0.0015
2409.00,0.0015
2408.00,0.0014
2407.00,0.0014
2406.00,0.0013
2405.00,0.0013
2404.00,0.0013
2403.00,0.0013
2402.00,0.0013
2401.00,0.0013
2400.00,0.0013
2399.00,0.0014
2398.00,0.0015
2397.00,0.0015
2396.00,0.0015
2395.00,0.0014
2394.00,0.0014
2393.00,0.0013
2392.00,0.0013
2391.00,0.0013
2390.00,0.0014
2389.00,0.0014
2388.00,0.0014
2387.00,0.0013
2386.00,0.0013
2385.00,0.0012
2384.00,0.0011
2383.00,0.0010
2382.00,0.0010
2381.00,0.0009
2380.00,0.0009
2379.00,0.0008
2378.00,0.0008
2377.00,0.0009
2376.00,0.0009
2375.00,0.0008
2374.00,0.0008
2373.00,0.0009
2372.00,0.0009
2371.00,0.0009
2370.00,0.0008
2369.00,0.0007
2368.00,0.0006
2367.00,0.0006
2366.00,0.0006
2365.00,0.0006
2364.00,0.0006
2363.00,0.0007
2362.00,0.0007
2361.00,0.0007
2360.00,0.0008
2359.00,0.0008
2358.00,0.0009
2357.00,0.0009
2356.00,0.0009
2355.00,0.0008
2354.00,0.0008
2353.00,0.0008
2352.00,0.0008
2351.00,0.0009
2350.00,0.0009
2349.00,0.0009
2348.00,0.0008
2347.00,0.0008
2346.00,0.0008
2345.00,0.0008
2344.00,0.0008
2343.00,0.0009
2342.00,0.0010
2341.00,0.0010
2340.00,0.0011
2339.00,0.0011
2338.00,0.0011
2337.00,0.0011
2336.00,0.0011
2335.00,0.0011
2334.00,0.0010
2333.00,0.0010
2332.00,0.0009
2331.00,0.0008
2330.00,0.0008
2329.00,0.0010
2328.00,0.0012
2327.00,0.0016
2326.00,0.0021
2325.00,0.0024
2324.00,0.0025
2323.00,0.0023
2322.00,0.0021
2321.00,0.0019
2320.00,0.0017
2319.00,0.0017
2318.00,0.0017
2317.00,0.0017
2316.00,0.0017
2315.00,0.0016
2314.00,0.0016
2313.00,0.0015
2312.00,0.0015
2311.00,0.0014
2310.00,0.0014
2309.00,0.0014
2308.00,0.0014
2307.00,0.0014
2306.00,0.0014
2305.00,0.0015
2304.00,0.0016
2303.00,0.0016
2302.00,0.0017
2301.00,0.0017
2300.00,0.0017
2299.00,0.0017
2298.00,0.0017
2297.00,0.0018
2296.00,0.0018
2295.00,0.0019
2294.00,0.0020
2293.00,0.0021
2292.00,0.0021
2291.00,0.0022
2290.00,0.0022
2289.00,0.0023
2288.00,0.0023
2287.00,0.0023
2286.00,0.0024
2285.00,0.0024
2284.00,0.0023
2283.00,0.0022
2282.00,0.0021
2281.00,0.0020
2280.00,0.0020
2279.00,0.0021
2278.00,0.0021
2277.00,0.0021
2276.00,0.0021
2275.00,0.0020
2274.00,0.0019
2273.00,0.0019
2272.00,0.0019
2271.00,0.0019
2270.00,0.0019
2269.00,0.0018
2268.00,0.0018
2267.00,0.0017
2266.00,0.0016
2265.00,0.0016
2264.00,0.0016
2263.00,0.0016
2262.00,0.0017
2261.00,0.0018
2260.00,0.0020
2259.00,0.0021
2258.00,0.0021
2257.00,0.0021
2256.00,0.0021
2255.00,0.0019
2254.00,0.0017
2253.00,0.0016
2252.00,0.0015
2251.00,0.0015
2250.00,0.0015
2249.00,0.0015
2248.00,0.0015
2247.00,0.0015
2246.00,0.0015
2245.00,0.0016
2244.00,0.0016
2243.00,0.0016
2242.00,0.0016
2241.00,0.0015
2240.00,0.0015
2239.00,0.0015
2238.00,0.0015
2237.00,0.0016
2236.00,0.0016
2235.00,0.0017
2234.00,0.0018
2233.00,0.0017
2232.00,0.0016
2231.00,0.0014
2230.00,0.0012
2229.00,0.0013
2228.00,0.0013
2227.00,0.0014
2226.00,0.0014
2225.00,0.0013
2224.00,0.0012
2223.00,0.0013
2222.00,0.0014
2221.00,0.0017
2220.00,0.0018
2219.00,0.0019
2218.00,0.0018
2217.00,0.0017
2216.00,0.0016
2215.00,0.0014
2214.00,0.0014
2213.00,0.0014
2212.00,0.0015
2211.00,0.0015
2210.00,0.0014
2209.00,0.0014
2208.00,0.0014
2207.00,0.0015
2206.00,0.0015
2205.00,0.0016
2204.00,0.0016
2203.00,0.0015
2202.00,0.0014
2201.00,0.0013
2200.00,0.0012
2199.00,0.0010
2198.00,0.0010
2197.00,0.0011
2196.00,0.0013
2195.00,0.0016
2194.00,0.0018
2193.00,0.0019
2192.00,0.0019
2191.00,0.0019
2190.00,0.0018
2189.00,0.0018
2188.00,0.0017
2187.00,0.0017
2186.00,0.0016
2185.00,0.0016
2184.00,0.0014
2183.00,0.0012
2182.00,0.0008
2181.00,0.0005
2180.00,0.0006
2179.00,0.0008
2178.00,0.0013
2177.00,0.0016
2176.00,0.0017
2175.00,0.0016
2174.00,0.0014
2173.00,0.0013
2172.00,0.0015
2171.00,0.0016
2170.00,0.0018
2169.00,0.0019
2168.00,0.0019
2167.00,0.0020
2166.00,0.0021
2165.00,0.0025
2164.00,0.0031
2163.00,0.0035
2162.00,0.0035
2161.00,0.0027
2160.00,0.0013
2159.00,-0.0003
2158.00,-0.0014
2157.00,-0.0017
2156.00,-0.0015
2155.00,-0.0012
2154.00,-0.0009
2153.00,-0.0006
2152.00,-0.0004
2151.00,-0.0003
2150.00,-0.0002
2149.00,-0.0003
2148.00,-0.0005
2147.00,-0.0006
2146.00,-0.0006
2145.00,-0.0005
2144.00,-0.0005
2143.00,-0.0005
2142.00,-0.0005
2141.00,-0.0006
2140.00,-0.0007
2139.00,-0.0008
2138.00,-0.0008
2137.00,-0.0009
2136.00,-0.0010
2135.00,-0.0012
2134.00,-0.0014
2133.00,-0.0014
2132.00,-0.0012
2131.00,-0.0009
2130.00,-0.0004
2129.00,-0.0001
2128.00,0.0001
2127.00,0.0001
2126.00,0.0001
2125.00,0.0002
2124.00,0.0003
2123.00,0.0003
2122.00,0.0004
2121.00,0.0004
2120.00,0.0005
2119.00,0.0005
2118.00,0.0004
2117.00,0.0004
2116.00,0.0005
2115.00,0.0005
2114.00,0.0006
2113.00,0.0006
2112.00,0.0006
2111.00,0.0007
2110.00,0.0007
2109.00,0.0007
2108.00,0.0006
2107.00,0.0004
2106.00,0.0003
2105.00,0.0003
2104.00,0.0005
2103.00,0.0008
2102.00,0.0009
2101.00,0.0010
2100.00,0.0009
2099.00,0.0007
2098.00,0.0005
2097.00,0.0003
2096.00,0.0002
2095.00,0.0001
2094.00,0.0000
2093.00,0.0000
2092.00,0.0002
2091.00,0.0004
2090.00,0.0006
2089.00,0.0007
2088.00,0.0009
2087.00,0.0009
2086.00,0.0009
2085.00,0.0009
2084.00,0.0009
2083.00,0.0009
2082.00,0.0009
2081.00,0.0009
2080.00,0.0010
2079.00,0.0011
2078.00,0.0011
2077.00,0.0011
2076.00,0.0010
2075.00,0.0009
2074.00,0.0009
2073.00,0.0010
2072.00,0.0011
2071.00,0.0010
2070.00,0.0009
2069.00,0.0007
2068.00,0.0006
2067.00,0.0006
2066.00,0.0006
2065.00,0.0006
2064.00,0.0006
2063.00,0.0005
2062.00,0.0004
2061.00,0.0004
2060.00,0.0004
2059.00,0.0004
2058.00,0.0004
2057.00,0.0004
2056.00,0.0005
2055.00,0.0006
2054.00,0.0008
2053.00,0.0011
2052.00,0.0014
2051.00,0.0015
2050.00,0.0013
2049.00,0.0010
2048.00,0.0006
2047.00,0.0004
2046.00,0.0003
2045.00,0.0004
2044.00,0.0005
2043.00,0.0006
2042.00,0.0005
2041.00,0.0006
2040.00,0.0007
2039.00,0.0009
2038.00,0.0011
2037.00,0.0010
2036.00,0.0008
2035.00,0.0004
2034.00,0.0001
2033.00,0.0000
2032.00,0.0001
2031.00,0.0002
2030.00,0.0001
2029.00,-0.0002
2028.00,-0.0004
2027.00,-0.0006
2026.00,-0.0007
2025.00,-0.0008
2024.00,-0.0009
2023.00,-0.0009
2022.00,-0.0008
2021.00,-0.0006
2020.00,-0.0003
2019.00,-0.0001
2018.00,-0.0000
2017.00,0.0000
2016.00,0.0001
2015.00,0.0000
2014.00,-0.0001
2013.00,-0.0004
2012.00,-0.0005
2011.00,-0.0005
2010.00,-0.0004
2009.00,-0.0003
2008.00,-0.0004
2007.00,-0.0007
2006.00,-0.0009
2005.00,-0.0009
2004.00,-0.0009
2003.00,-0.0009
2002.00,-0.0010
2001.00,-0.0011
2000.00,-0.0010
1999.00,-0.0008
1998.00,-0.0005
1997.00,-0.0003
1996.00,-0.0002
1995.00,-0.0003
1994.00,-0.0005
1993.00,-0.0006
1992.00,-0.0006
1991.00,-0.0004
1990.00,-0.0001
1989.00,0.0002
1988.00,0.0003
1987.00,0.0000
1986.00,-0.0003
1985.00,-0.0004
1984.00,-0.0004
1983.00,-0.0002
1982.00,0.0001
1981.00,0.0004
1980.00,0.0006
1979.00,0.0004
1978.00,-0.0001
1977.00,-0.0008
1976.00,-0.0012
1975.00,-0.0014
1974.00,-0.0014
1973.00,-0.0013
1972.00,-0.0010
1971.00,-0.0007
1970.00,-0.0004
1969.00,-0.0002
1968.00,-0.0001
1967.00,-0.0002
1966.00,-0.0004
1965.00,-0.0006
1964.00,-0.0008
1963.00,-0.0010
1962.00,-0.0011
1961.00,-0.0012
1960.00,-0.0012
1959.00,-0.0013
1958.00,-0.0014
1957.00,-0.0015
1956.00,-0.0015
1955.00,-0.0014
1954.00,-0.0013
1953.00,-0.0013
1952.00,-0.0012
1951.00,-0.0012
1950.00,-0.0011
1949.00,-0.0009
1948.00,-0.0008
1947.00,-0.0007
1946.00,-0.0007
1945.00,-0.0008
1944.00,-0.0009
1943.00,-0.0010
1942.00,-0.0009
1941.00,-0.0006
1940.00,-0.0004
1939.00,-0.0003
1938.00,-0.0003
1937.00,-0.0005
1936.00,-0.0007
1935.00,-0.0007
1934.00,-0.0006
1933.00,-0.0005
1932.00,-0.0004
1931.00,-0.0003
1930.00,-0.0003
1929.00,-0.0002
1928.00,-0.0002
1927.00,-0.0003
1926.00,-0.0004
1925.00,-0.0005
1924.00,-0.0004
1923.00,-0.0002
1922.00,-0.0001
1921.00,0.0001
1920.00,0.0002
1919.00,0.0003
1918.00,0.0002
1917.00,0.0001
1916.00,0.0001
1915.00,0.0001
1914.00,0.0000
1913.00,-0.0000
1912.00,-0.0001
1911.00,-0.0001
1910.00,-0.0000
1909.00,0.0000
1908.00,0.0002
1907.00,0.0003
1906.00,0.0003
1905.00,0.0004
1904.00,0.0003
1903.00,0.0002
1902.00,0.0000
1901.00,-0.0000
1900.00,0.0001
1899.00,0.0002
1898.00,0.0003
1897.00,0.0004
1896.00,0.0004
1895.00,0.0003
1894.00,0.0003
1893.00,0.0004
1892.00,0.0005
1891.00,0.0005
1890.00,0.0006
1889.00,0.0005
1888.00,0.0005
1887.00,0.0004
1886.00,0.0004
1885.00,0.0004
1884.00,0.0004
1883.00,0.0003
1882.00,0.0003
1881.00,0.0003
1880.00,0.0004
1879.00,0.0004
1878.00,0.0004
1877.00,0.0005
1876.00,0.0005
1875.00,0.0005
1874.00,0.0004
1873.00,0.0004
1872.00,0.0005
1871.00,0.0005
1870.00,0.0006
1869.00,0.0006
1868.00,0.0006
1867.00,0.0005
1866.00,0.0004
1865.00,0.0003
1864.00,0.0004
1863.00,0.0005
1862.00,0.0006
1861.00,0.0007
1860.00,0.0007
1859.00,0.0006
1858.00,0.0004
1857.00,0.0004
1856.00,0.0004
1855.00,0.0005
1854.00,0.0005
1853.00,0.0006
1852.00,0.0006
1851.00,0.0006
1850.00,0.0006
1849.00,0.0007
1848.00,0.0007
1847.00,0.0007
1846.00,0.0007
1845.00,0.0007
1844.00,0.0007
1843.00,0.0007
1842.00,0.0007
1841.00,0.0007
1840.00,0.0007
1839.00,0.0008
1838.00,0.0008
1837.00,0.0009
1836.00,0.0009
1835.00,0.0009
1834.00,0.0009
1833.00,0.0009
1832.00,0.0009
1831.00,0.0009
1830.00,0.0009
1829.00,0.0009
1828.00,0.0009
1827.00,0.0010
1826.00,0.0010
1825.00,0.0011
1824.00,0.0012
1823.00,0.0012
1822.00,0.0011
1821.00,0.0010
1820.00,0.0009
1819.00,0.0008
1818.00,0.0006
1817.00,0.0005
1816.00,0.0005
1815.00,0.0006
1814.00,0.0008
1813.00,0.0009
1812.00,0.0010
1811.00,0.0010
1810.00,0.0010
1809.00,0.0010
1808.00,0.0010
1807.00,0.0010
1806.00,0.0010
1805.00,0.0011
1804.00,0.0012
1803.00,0.0012
1802.00,0.0012
1801.00,0.0012
1800.00,0.0011
1799.00,0.0011
1798.00,0.0010
1797.00,0.0010
1796.00,0.0011
1795.00,0.0011
1794.00,0.0011
1793.00,0.0012
1792.00,0.0012
1791.00,0.0013
1790.00,0.0013
1789.00,0.0013
1788.00,0.0013
1787.00,0.0013
1786.00,0.0014
1785.00,0.0014
1784.00,0.0015
1783.00,0.0015
1782.00,0.0015
1781.00,0.0015
1780.00,0.0015
1779.00,0.0014
1778.00,0.0014
1777.00,0.0014
1776.00,0.0014
1775.00,0.0014
1774.00,0.0014
1773.00,0.0014
1772.00,0.0014
1771.00,0.0015
1770.00,0.0016
1769.00,0.0016
1768.00,0.0016
1767.00,0.0016
1766.00,0.0016
1765.00,0.0016
1764.00,0.0017
1763.00,0.0017
1762.00,0.0018
1761.00,0.0019
1760.00,0.0020
1759.00,0.0020
1758.00,0.0020
1757.00,0.0021
1756.00,0.0022
1755.00,0.0023
1754.00,0.0024
1753.00,0.0025
1752.00,0.0026
1751.00,0.0027
1750.00,0.0028
1749.00,0.0029
1748.00,0.0030
1747.00,0.0031
1746.00,0.0032
1745.00,0.0033
1744.00,0.0034
1743.00,0.0035
1742.00,0.0036
1741.00,0.0036
1740.00,0.0036
1739.00,0.0036
1738.00,0.0036
1737.00,0.0035
1736.00,0.0035
1735.00,0.0035
1734.00,0.0035
1733.00,0.0035
1732.00,0.0035
1731.00,0.0035
1730.00,0.0035
1729.00,0.0035
1728.00,0.0035
1727.00,0.0035
1726.00,0.0034
1725.00,0.0034
1724.00,0.0033
1723.00,0.0032
1722.00,0.0032
1721.00,0.0032
1720.00,0.0033
1719.00,0.0034
1718.00,0.0033
1717.00,0.0033
1716.00,0.0033
1715.00,0.0032
1714.00,0.0032
1713.00,0.0032
1712.00,0.0033
1711.00,0.0033
1710.00,0.0034
1709.00,0.0034
1708.00,0.0035
1707.00,0.0035
1706.00,0.0036
1705.00,0.0037
1704.00,0.0038
1703.00,0.0039
1702.00,0.0040
1701.00,0.0040
1700.00,0.0041
1699.00,0.0042
1698.00,0.0042
1697.00,0.0043
1696.00,0.0045
1695.00,0.0046
1694.00,0.0047
1693.00,0.0048
1692.00,0.0048
1691.00,0.0049
1690.00,0.0049
1689.00,0.0051
1688.00,0.0052
1687.00,0.0052
1686.00,0.0052
1685.00,0.0053
1684.00,0.0055
1683.00,0.0058
1682.00,0.0060
1681.00,0.0060
1680.00,0.0061
1679.00,0.0062
1678.00,0.0064
1677.00,0.0065
1676.00,0.0067
1675.00,0.0068
1674.00,0.0069
1673.00,0.0069
1672.00,0.0070
1671.00,0.0071
1670.00,0.0072
1669.00,0.0074
1668.00,0.0076
1667.00,0.0077
1666.00,0.0077
1665.00,0.0078
1664.00,0.0079
1663.00,0.0080
1662.00,0.0081
1661.00,0.0082
1660.00,0.0083
1659.00,0.0084
1658.00,0.0085
1657.00,0.0086
1656.00,0.0088
1655.00,0.0089
1654.00,0.0091
1653.00,0.0093
1652.00,0.0095
1651.00,0.0096
1650.00,0.0096
1649.00,0.0096
1648.00,0.0096
1647.00,0.0096
1646.00,0.0096
1645.00,0.0097
1644.00,0.0097
1643.00,0.0097
1642.00,0.0097
1641.00,0.0097
1640.00,0.0098
1639.00,0.0098
1638.00,0.0099
1637.00,0.0100
1636.00,0.0101
1635.00,0.0103
1634.00,0.0103
1633.00,0.0104
1632.00,0.0104
1631.00,0.0104
1630.00,0.0104
1629.00,0.0104
1628.00,0.0104
1627.00,0.0104
1626.00,0.0104
1625.00,0.0103
1624.00,0.0103
1623.00,0.0103
1622.00,0.0103
1621.00,0.0103
1620.00,0.0102
1619.00,0.0101
1618.00,0.0099
1617.00,0.0097
1616.00,0.0097
1615.00,0.0097
1614.00,0.0097
1613.00,0.0096
1612.00,0.0096
1611.00,0.0095
1610.00,0.0095
1609.00,0.0094
1608.00,0.0094
1607.00,0.0094
1606.00,0.0095
1605.00,0.0096
1604.00,0.0097
1603.00,0.0098
1602.00,0.0099
1601.00,0.0100
1600.00,0.0100
1599.00,0.0100
1598.00,0.0101
1597.00,0.0103
1596.00,0.0105
1595.00,0.0107
1594.00,0.0109
1593.00,0.0112
1592.00,0.0116
1591.00,0.0120
1590.00,0.0125
1589.00,0.0132
1588.00,0.0140
1587.00,0.0149
1586.00,0.0160
1585.00,0.0173
1584.00,0.0188
1583.00,0.0205
1582.00,0.0223
1581.00,0.0240
1580.00,0.0256
1579.00,0.0268
1578.00,0.0275
1577.00,0.0277
1576.00,0.0273
1575.00,0.0265
1574.00,0.0255
1573.00,0.0245
1572.00,0.0234
1571.00,0.0220
1570.00,0.0203
1569.00,0.0188
1568.00,0.0177
1567.00,0.0168
1566.00,0.0161
1565.00,0.0155
1564.00,0.0150
1563.00,0.0148
1562.00,0.0147
1561.00,0.0147
1560.00,0.0147
1559.00,0.0146
1558.00,0.0147
1557.00,0.0148
1556.00,0.0150
1555.00,0.0153
1554.00,0.0157
1553.00,0.0162
1552.00,0.0169
1551.00,0.0177
1550.00,0.0187
1549.00,0.0200
1548.00,0.0213
1547.00,0.0227
1546.00,0.0244
1545.00,0.0264
1544.00,0.0284
1543.00,0.0301
1542.00,0.0314
1541.00,0.0319
1540.00,0.0313
1539.00,0.0297
1538.00,0.0279
1537.00,0.0263
1536.00,0.0246
1535.00,0.0227
1534.00,0.0204
1533.00,0.0183
1532.00,0.0168
1531.00,0.0157
1530.00,0.0149
1529.00,0.0142
1528.00,0.0137
1527.00,0.0132
1526.00,0.0127
1525.00,0.0123
1524.00,0.0121
1523.00,0.0119
1522.00,0.0117
1521.00,0.0117
1520.00,0.0117
1519.00,0.0117
1518.00,0.0117
1517.00,0.0116
1516.00,0.0117
1515.00,0.0116
1514.00,0.0115
1513.00,0.0115
1512.00,0.0115
1511.00,0.0115
1510.00,0.0115
1509.00,0.0115
1508.00,0.0116
1507.00,0.0116
1506.00,0.0116
1505.00,0.0116
1504.00,0.0117
1503.00,0.0117
1502.00,0.0118
1501.00,0.0121
1500.00,0.0124
1499.00,0.0126
1498.00,0.0129
1497.00,0.0132
1496.00,0.0137
1495.00,0.0140
1494.00,0.0143
1493.00,0.0147
1492.00,0.0152
1491.00,0.0158
1490.00,0.0164
1489.00,0.0173
1488.00,0.0183
1487.00,0.0193
1486.00,0.0204
1485.00,0.0217
1484.00,0.0231
1483.00,0.0248
1482.00,0.0268
1481.00,0.0291
1480.00,0.0315
1479.00,0.0337
1478.00,0.0359
1477.00,0.0383
1476.00,0.0409
1475.00,0.0436
1474.00,0.0469
1473.00,0.0516
1472.00,0.0571
1471.00,0.0625
1470.00,0.0677
1469.00,0.0733
1468.00,0.0794
1467.00,0.0862
1466.00,0.0938
1465.00,0.1021
1464.00,0.1092
1463.00,0.1143
1462.00,0.1178
1461.00,0.1203
1460.00,0.1222
1459.00,0.1237
1458.00,0.1253
1457.00,0.1270
1456.00,0.1279
1455.00,0.1280
1454.00,0.1276
1453.00,0.1266
1452.00,0.1246
1451.00,0.1213
1450.00,0.1165
1449.00,0.1094
1448.00,0.1002
1447.00,0.0904
1446.00,0.0813
1445.00,0.0735
1444.00,0.0669
1443.00,0.0617
1442.00,0.0579
1441.00,0.0553
1440.00,0.0538
1439.00,0.0533
1438.00,0.0535
1437.00,0.0536
1436.00,0.0526
1435.00,0.0501
1434.00,0.0464
1433.00,0.0419
1432.00,0.0373
1431.00,0.0332
1430.00,0.0301
1429.00,0.0278
1428.00,0.0263
1427.00,0.0255
1426.00,0.0250
1425.00,0.0246
1424.00,0.0242
1423.00,0.0240
1422.00,0.0240
1421.00,0.0238
1420.00,0.0234
1419.00,0.0229
1418.00,0.0224
1417.00,0.0217
1416.00,0.0211
1415.00,0.0206
1414.00,0.0201
1413.00,0.0197
1412.00,0.0192
1411.00,0.0189
1410.00,0.0185
1409.00,0.0182
1408.00,0.0177
1407.00,0.0174
1406.00,0.0172
1405.00,0.0167
1404.00,0.0163
1403.00,0.0159
1402.00,0.0157
1401.00,0.0156
1400.00,0.0154
1399.00,0.0153
1398.00,0.0153
1397.00,0.0152
1396.00,0.0152
1395.00,0.0154
1394.00,0.0157
1393.00,0.0161
1392.00,0.0166
1391.00,0.0174
1390.00,0.0186
1389.00,0.0202
1388.00,0.0225
1387.00,0.0261
1386.00,0.0310
1385.00,0.0371
1384.00,0.0452
1383.00,0.0560
1382.00,0.0701
1381.00,0.0877
1380.00,0.1091
1379.00,0.1329
1378.00,0.1557
1377.00,0.1722
1376.00,0.1779
1375.00,0.1698
1374.00,0.1500
1373.00,0.1255
1372.00,0.1025
1371.00,0.0832
1370.00,0.0677
1369.00,0.0558
1368.00,0.0476
1367.00,0.0424
1366.00,0.0397
1365.00,0.0386
1364.00,0.0389
1363.00,0.0402
1362.00,0.0422
1361.00,0.0442
1360.00,0.0457
1359.00,0.0462
1358.00,0.0451
1357.00,0.0426
1356.00,0.0392
1355.00,0.0353
1354.00,0.0315
1353.00,0.0283
1352.00,0.0257
1351.00,0.0236
1350.00,0.0219
1349.00,0.0204
1348.00,0.0192
1347.00,0.0182
1346.00,0.0174
1345.00,0.0168
1344.00,0.0164
1343.00,0.0161
1342.00,0.0159
1341.00,0.0157
1340.00,0.0155
1339.00,0.0153
1338.00,0.0151
1337.00,0.0151
1336.00,0.0151
1335.00,0.0152
1334.00,0.0154
1333.00,0.0157
1332.00,0.0161
1331.00,0.0164
1330.00,0.0164
1329.00,0.0163
1328.00,0.0159
1327.00,0.0155
1326.00,0.0150
1325.00,0.0145
1324.00,0.0140
1323.00,0.0136
1322.00,0.0133
1321.00,0.0131
1320.00,0.0129
1319.00,0.0127
1318.00,0.0124
1317.00,0.0121
1316.00,0.0119
1315.00,0.0117
1314.00,0.0116
1313.00,0.0115
1312.00,0.0116
1311.00,0.0119
1310.00,0.0124
1309.00,0.0132
1308.00,0.0143
1307.00,0.0157
1306.00,0.0170
1305.00,0.0180
1304.00,0.0184
1303.00,0.0181
1302.00,0.0175
1301.00,0.0168
1300.00,0.0163
1299.00,0.0161
1298.00,0.0159
1297.00,0.0157
1296.00,0.0155
1295.00,0.0151
1294.00,0.0147
1293.00,0.0142
1292.00,0.0137
1291.00,0.0132
1290.00,0.0127
1289.00,0.0123
1288.00,0.0118
1287.00,0.0115
1286.00,0.0112
1285.00,0.0110
1284.00,0.0108
1283.00,0.0106
1282.00,0.0105
1281.00,0.0103
1280.00,0.0102
1279.00,0.0102
1278.00,0.0101
1277.00,0.0100
1276.00,0.0099
1275.00,0.0097
1274.00,0.0096
1273.00,0.0095
1272.00,0.0094
1271.00,0.0094
1270.00,0.0094
1269.00,0.0094
1268.00,0.0095
1267.00,0.0096
1266.00,0.0098
1265.00,0.0101
1264.00,0.0103
1263.00,0.0106
1262.00,0.0111
1261.00,0.0117
1260.00,0.0124
1259.00,0.0133
1258.00,0.0143
1257.00,0.0151
1256.00,0.0154
1255.00,0.0152
1254.00,0.0145
1253.00,0.0136
1252.00,0.0127
1251.00,0.0120
1250.00,0.0116
1249.00,0.0113
1248.00,0.0111
1247.00,0.0110
1246.00,0.0110
1245.00,0.0110
1244.00,0.0111
1243.00,0.0111
1242.00,0.0111
1241.00,0.0110
1240.00,0.0110
1239.00,0.0111
1238.00,0.0112
1237.00,0.0113
1236.00,0.0114
1235.00,0.0116
1234.00,0.0117
1233.00,0.0119
1232.00,0.0121
1231.00,0.0122
1230.00,0.0124
1229.00,0.0125
1228.00,0.0127
1227.00,0.0129
1226.00,0.0132
1225.00,0.0136
1224.00,0.0139
1223.00,0.0142
1222.00,0.0146
1221.00,0.0148
1220.00,0.0151
1219.00,0.0153
1218.00,0.0153
1217.00,0.0153
1216.00,0.0151
1215.00,0.0148
1214.00,0.0145
1213.00,0.0142
1212.00,0.0139
1211.00,0.0136
1210.00,0.0134
1209.00,0.0133
1208.00,0.0131
1207.00,0.0130
1206.00,0.0129
1205.00,0.0128
1204.00,0.0128
1203.00,0.0129
1202.00,0.0129
1201.00,0.0129
1200.00,0.0129
1199.00,0.0129
1198.00,0.0130
1197.00,0.0131
1196.00,0.0132
1195.00,0.0133
1194.00,0.0133
1193.00,0.0132
1192.00,0.0132
1191.00,0.0131
1190.00,0.0131
1189.00,0.0130
1188.00,0.0130
1187.00,0.0129
1186.00,0.0128
1185.00,0.0127
1184.00,0.0127
1183.00,0.0127
1182.00,0.0128
1181.00,0.0129
1180.00,0.0132
1179.00,0.0136
1178.00,0.0142
1177.00,0.0151
1176.00,0.0163
1175.00,0.0180
1174.00,0.0201
1173.00,0.0230
1172.00,0.0264
1171.00,0.0301
1170.00,0.0337
1169.00,0.0367
1168.00,0.0384
1167.00,0.0388
1166.00,0.0378
1165.00,0.0358
1164.00,0.0335
1163.00,0.0311
1162.00,0.0290
1161.00,0.0271
1160.00,0.0255
1159.00,0.0242
1158.00,0.0232
1157.00,0.0224
1156.00,0.0218
1155.00,0.0213
1154.00,0.0209
1153.00,0.0205
1152.00,0.0199
1151.00,0.0192
1150.00,0.0184
1149.00,0.0176
1148.00,0.0167
1147.00,0.0158
1146.00,0.0150
1145.00,0.0143
1144.00,0.0137
1143.00,0.0131
1142.00,0.0126
1141.00,0.0121
1140.00,0.0118
1139.00,0.0115
1138.00,0.0113
1137.00,0.0111
1136.00,0.0109
1135.00,0.0109
1134.00,0.0110
1133.00,0.0110
1132.00,0.0110
1131.00,0.0111
1130.00,0.0113
1129.00,0.0115
1128.00,0.0117
1127.00,0.0119
1126.00,0.0121
1125.00,0.0121
1124.00,0.0121
1123.00,0.0120
1122.00,0.0119
1121.00,0.0118
1120.00,0.0118
1119.00,0.0118
1118.00,0.0120
1117.00,0.0122
1116.00,0.0124
1115.00,0.0127
1114.00,0.0130
1113.00,0.0132
1112.00,0.0134
1111.00,0.0136
1110.00,0.0138
1109.00,0.0140
1108.00,0.0144
1107.00,0.0148
1106.00,0.0154
1105.00,0.0159
1104.00,0.0163
1103.00,0.0165
1102.00,0.0165
1101.00,0.0162
1100.00,0.0157
1099.00,0.0150
1098.00,0.0143
1097.00,0.0136
1096.00,0.0130
1095.00,0.0125
1094.00,0.0120
1093.00,0.0117
1092.00,0.0113
1091.00,0.0110
1090.00,0.0107
1089.00,0.0103
1088.00,0.0101
1087.00,0.0099
1086.00,0.0097
1085.00,0.0096
1084.00,0.0094
1083.00,0.0093
1082.00,0.0092
1081.00,0.0091
1080.00,0.0090
1079.00,0.0088
1078.00,0.0087
1077.00,0.0085
1076.00,0.0084
1075.00,0.0084
1074.00,0.0084
1073.00,0.0083
1072.00,0.0083
1071.00,0.0083
1070.00,0.0083
1069.00,0.0083
1068.00,0.0084
1067.00,0.0085
1066.00,0.0087
1065.00,0.0088
1064.00,0.0088
1063.00,0.0089
1062.00,0.0091
1061.00,0.0092
1060.00,0.0093
1059.00,0.0094
1058.00,0.0096
1057.00,0.0097
1056.00,0.0098
1055.00,0.0099
1054.00,0.0101
1053.00,0.0103
1052.00,0.0106
1051.00,0.0109
1050.00,0.0112
1049.00,0.0115
1048.00,0.0119
1047.00,0.0125
1046.00,0.0129
1045.00,0.0133
1044.00,0.0134
1043.00,0.0133
1042.00,0.0131
1041.00,0.0130
1040.00,0.0131
1039.00,0.0133
1038.00,0.0136
1037.00,0.0139
1036.00,0.0141
1035.00,0.0140
1034.00,0.0137
1033.00,0.0133
1032.00,0.0127
1031.00,0.0123
1030.00,0.0120
1029.00,0.0118
1028.00,0.0116
1027.00,0.0116
1026.00,0.0115
1025.00,0.0114
1024.00,0.0114
1023.00,0.0114
1022.00,0.0114
1021.00,0.0115
1020.00,0.0116
1019.00,0.0118
1018.00,0.0121
1017.00,0.0124
1016.00,0.0129
1015.00,0.0137
1014.00,0.0146
1013.00,0.0155
1012.00,0.0163
1011.00,0.0168
1010.00,0.0170
1009.00,0.0171
1008.00,0.0173
1007.00,0.0176
1006.00,0.0182
1005.00,0.0193
1004.00,0.0210
1003.00,0.0235
1002.00,0.0267
1001.00,0.0308
1000.00,0.0352
999.00,0.0390
998.00,0.0411
997.00,0.0408
996.00,0.0379
995.00,0.0334
994.00,0.0284
993.00,0.0240
992.00,0.0205
991.00,0.0181
990.00,0.0164
989.00,0.0152
988.00,0.0143
987.00,0.0137
986.00,0.0134
985.00,0.0135
984.00,0.0138
983.00,0.0146
982.00,0.0158
981.00,0.0175
980.00,0.0198
979.00,0.0228
978.00,0.0266
977.00,0.0313
976.00,0.0366
975.00,0.0418
974.00,0.0459
973.00,0.0477
972.00,0.0465
971.00,0.0424
970.00,0.0365
969.00,0.0303
968.00,0.0247
967.00,0.0204
966.00,0.0172
965.00,0.0149
964.00,0.0132
963.00,0.0120
962.00,0.0110
961.00,0.0102
960.00,0.0096
959.00,0.0090
958.00,0.0085
957.00,0.0080
956.00,0.0078
955.00,0.0076
954.00,0.0074
953.00,0.0073
952.00,0.0072
951.00,0.0072
950.00,0.0072
949.00,0.0072
948.00,0.0072
947.00,0.0072
946.00,0.0074
945.00,0.0076
944.00,0.0078
943.00,0.0081
942.00,0.0085
941.00,0.0087
940.00,0.0087
939.00,0.0086
938.00,0.0085
937.00,0.0082
936.00,0.0080
935.00,0.0077
934.00,0.0073
933.00,0.0070
932.00,0.0068
931.00,0.0067
930.00,0.0068
929.00,0.0068
928.00,0.0069
927.00,0.0070
926.00,0.0071
925.00,0.0072
924.00,0.0073
923.00,0.0072
922.00,0.0072
921.00,0.0072
920.00,0.0073
919.00,0.0076
918.00,0.0079
917.00,0.0081
916.00,0.0083
915.00,0.0084
914.00,0.0084
913.00,0.0084
912.00,0.0084
911.00,0.0084
910.00,0.0085
909.00,0.0086
908.00,0.0088
907.00,0.0092
906.00,0.0099
905.00,0.0109
904.00,0.0122
903.00,0.0139
902.00,0.0157
901.00,0.0174
900.00,0.0186
899.00,0.0190
898.00,0.0184
897.00,0.0170
896.00,0.0153
895.00,0.0136
894.00,0.0122
893.00,0.0111
892.00,0.0103
891.00,0.0097
890.00,0.0093
889.00,0.0089
888.00,0.0086
887.00,0.0085
886.00,0.0085
885.00,0.0086
884.00,0.0088
883.00,0.0091
882.00,0.0093
881.00,0.0094
880.00,0.0096
879.00,0.0096
878.00,0.0096
877.00,0.0096
876.00,0.0096
875.00,0.0095
874.00,0.0095
873.00,0.0093
872.00,0.0091
871.00,0.0089
870.00,0.0088
869.00,0.0087
868.00,0.0087
867.00,0.0088
866.00,0.0090
865.00,0.0091
864.00,0.0092
863.00,0.0093
862.00,0.0093
861.00,0.0094
860.00,0.0095
859.00,0.0096
858.00,0.0098
857.00,0.0101
856.00,0.0103
855.00,0.0107
854.00,0.0110
853.00,0.0114
852.00,0.0117
851.00,0.0122
850.00,0.0128
849.00,0.0137
848.00,0.0150
847.00,0.0167
846.00,0.0194
845.00,0.0233
844.00,0.0287
843.00,0.0347
842.00,0.0394
841.00,0.0409
840.00,0.0384
839.00,0.0333
838.00,0.0277
837.00,0.0231
836.00,0.0200
835.00,0.0180
834.00,0.0167
833.00,0.0158
832.00,0.0151
831.00,0.0146
830.00,0.0141
829.00,0.0137
828.00,0.0133
827.00,0.0130
826.00,0.0128
825.00,0.0126
824.00,0.0124
823.00,0.0123
822.00,0.0122
821.00,0.0123
820.00,0.0124
819.00,0.0126
818.00,0.0129
817.00,0.0132
816.00,0.0138
815.00,0.0146
814.00,0.0158
813.00,0.0173
812.00,0.0189
811.00,0.0203
810.00,0.0215
809.00,0.0220
808.00,0.0218
807.00,0.0210
806.00,0.0197
805.00,0.0183
804.00,0.0169
803.00,0.0157
802.00,0.0146
801.00,0.0137
800.00,0.0130
799.00,0.0125
798.00,0.0121
797.00,0.0116
796.00,0.0112
795.00,0.0108
794.00,0.0106
793.00,0.0104
792.00,0.0103
791.00,0.0101
790.00,0.0099
789.00,0.0097
788.00,0.0096
787.00,0.0095
786.00,0.0094
785.00,0.0093
784.00,0.0092
783.00,0.0091
782.00,0.0091
781.00,0.0090
780.00,0.0089
779.00,0.0088
778.00,0.0087
777.00,0.0088
776.00,0.0090
775.00,0.0092
774.00,0.0095
773.00,0.0097
772.00,0.0100
771.00,0.0103
770.00,0.0105
769.00,0.0107
768.00,0.0109
767.00,0.0110
766.00,0.0110
765.00,0.0108
764.00,0.0105
763.00,0.0101
762.00,0.0098
761.00,0.0096
760.00,0.0095
759.00,0.0093
758.00,0.0090
757.00,0.0087
756.00,0.0084
755.00,0.0082
754.00,0.0081
753.00,0.0080
752.00,0.0079
751.00,0.0078
750.00,0.0079
749.00,0.0081
748.00,0.0083
747.00,0.0085
746.00,0.0087
745.00,0.0087
744.00,0.0086
743.00,0.0085
742.00,0.0085
741.00,0.0085
740.00,0.0086
739.00,0.0087
738.00,0.0089
737.00,0.0091
736.00,0.0094
735.00,0.0098
734.00,0.0101
733.00,0.0104
732.00,0.0106
731.00,0.0107
730.00,0.0108
729.00,0.0109
728.00,0.0109
727.00,0.0110
726.00,0.0111
725.00,0.0112
724.00,0.0114
723.00,0.0115
722.00,0.0117
721.00,0.0117
720.00,0.0115
719.00,0.0111
718.00,0.0106
717.00,0.0101
716.00,0.0097
715.00,0.0095
714.00,0.0094
713.00,0.0094
712.00,0.0093
711.00,0.0091
710.00,0.0089
709.00,0.0088
708.00,0.0088
707.00,0.0090
706.00,0.0094
705.00,0.0098
704.00,0.0099
703.00,0.0099
702.00,0.0097
701.00,0.0095
700.00,0.0093
699.00,0.0092
698.00,0.0091
697.00,0.0090
696.00,0.0089
695.00,0.0090
694.00,0.0091
693.00,0.0092
692.00,0.0093
691.00,0.0095
690.00,0.0096
689.00,0.0096
688.00,0.0097
687.00,0.0099
686.00,0.0100
685.00,0.0101
684.00,0.0101
683.00,0.0100
682.00,0.0101
681.00,0.0102
680.00,0.0104
679.00,0.0106
678.00,0.0107
677.00,0.0106
676.00,0.0105
675.00,0.0104
674.00,0.0104
673.00,0.0104
672.00,0.0105
671.00,0.0107
670.00,0.0107
669.00,0.0106
668.00,0.0104
667.00,0.0105
666.00,0.0105
665.00,0.0104
664.00,0.0101
663.00,0.0098
662.00,0.0095
661.00,0.0093
660.00,0.0092
659.00,0.0091
658.00,0.0091
657.00,0.0089
656.00,0.0087
655.00,0.0086
654.00,0.0086
653.00,0.0088
652.00,0.0089
651.00,0.0088
650.00,0.0087
649.00,0.0085
648.00,0.0083
647.00,0.0081
646.00,0.0082
645.00,0.0082
644.00,0.0082
643.00,0.0081
642.00,0.0082
641.00,0.0085
640.00,0.0088
639.00,0.0090
638.00,0.0090
637.00,0.0090
636.00,0.0090
635.00,0.0091
634.00,0.0091
633.00,0.0091
632.00,0.0091
631.00,0.0091
630.00,0.0092
629.00,0.0094
628.00,0.0097
627.00,0.0100
626.00,0.0102
625.00,0.0102
624.00,0.0099
623.00,0.0096
622.00,0.0094
621.00,0.0093
620.00,0.0094
619.00,0.0094
618.00,0.0094
617.00,0.0095
616.00,0.0095
615.00,0.0094
614.00,0.0094
613.00,0.0095
612.00,0.0098
611.00,0.0099
610.00,0.0099
609.00,0.0098
608.00,0.0097
607.00,0.0097
606.00,0.0097
605.00,0.0097
604.00,0.0097
603.00,0.0097
602.00,0.0096
601.00,0.0096
600.00,0.0096
599.00,0.0096
598.00,0.0098
597.00,0.0099
596.00,0.0099
595.00,0.0097
594.00,0.0096
593.00,0.0095
592.00,0.0096
591.00,0.0095
590.00,0.0095
589.00,0.0094
588.00,0.0095
587.00,0.0097
586.00,0.0101
585.00,0.0103
584.00,0.0104
583.00,0.0103
582.00,0.0102
581.00,0.0102
580.00,0.0103
579.00,0.0103
578.00,0.0102
577.00,0.0099
576.00,0.0097
575.00,0.0096
574.00,0.0097
573.00,0.0099
572.00,0.0099
571.00,0.0098
570.00,0.0095
569.00,0.0092
568.00,0.0091
567.00,0.0093
566.00,0.0096
565.00,0.0097
564.00,0.0097
563.00,0.0096
562.00,0.0097
561.00,0.0098
560.00,0.0101
559.00,0.0103
558.00,0.0103
557.00,0.0101
556.00,0.0098
555.00,0.0095
554.00,0.0095
553.00,0.0096
552.00,0.0096
551.00,0.0095
550.00,0.0094
549.00,0.0094
548.00,0.0095
547.00,0.0097
546.00,0.0096
545.00,0.0094
544.00,0.0092
543.00,0.0092
542.00,0.0093
541.00,0.0096
540.00,0.0099
539.00,0.0103
538.00,0.0107
537.00,0.0110
536.00,0.0111
535.00,0.0112
534.00,0.0114
533.00,0.0117
532.00,0.0118
531.00,0.0118
530.00,0.0119
529.00,0.0120
528.00,0.0120
527.00,0.0120
526.00,0.0120
525.00,0.0119
524.00,0.0117
523.00,0.0114
522.00,0.0111
521.00,0.0108
520.00,0.0106
519.00,0.0105
518.00,0.0104
517.00,0.0102
516.00,0.0099
515.00,0.0095
514.00,0.0093
513.00,0.0093
512.00,0.0096
511.00,0.0100
510.00,0.0102
509.00,0.0102
508.00,0.0098
507.00,0.0093
506.00,0.0090
505.00,0.0091
504.00,0.0095
503.00,0.0099
502.00,0.0100
501.00,0.0097
500.00,0.0094
499.00,0.0094
498.00,0.0096
497.00,0.0099
496.00,0.0099
495.00,0.0098
494.00,0.0096
493.00,0.0096
492.00,0.0097
491.00,0.0097
490.00,0.0096
489.00,0.0095
488.00,0.0095
487.00,0.0098
486.00,0.0101
485.00,0.0101
484.00,0.0098
483.00,0.0096
482.00,0.0099
481.00,0.0105
480.00,0.0110
479.00,0.0110
478.00,0.0105
477.00,0.0097
476.00,0.0089
475.00,0.0085
474.00,0.0084
473.00,0.0086
472.00,0.0089
471.00,0.0094
470.00,0.0102
469.00,0.0109
468.00,0.0116
467.00,0.0122
466.00,0.0127
465.00,0.0130
464.00,0.0133
463.00,0.0141
462.00,0.0153
461.00,0.0164
460.00,0.0164
459.00,0.0162
458.00,0.0158
457.00,0.0157
456.00,0.0157
455.00,0.0158
454.00,0.0159
453.00,0.0158
452.00,0.0146
451.00,0.0122
450.00,0.0094
