Created as New Dataset,Sample 065 By Administrator Date Friday, September 05 2025
cm-1,A
4000.00,0.0011
3999.00,0.0011
3998.00,0.0011
3997.00,0.0011
3996.00,0.0011
3995.00,0.0011
3994.00,0.0011
3993.00,0.0011
3992.00,0.0011
3991.00,0.0011
3990.00,0.0011
3989.00,0.0011
3988.00,0.0011
3987.00,0.0011
3986.00,0.0011
3985.00,0.0010
3984.00,0.0010
3983.00,0.0009
3982.00,0.0009
3981.00,0.0009
3980.00,0.0009
3979.00,0.0009
3978.00,0.0009
3977.00,0.0009
3976.00,0.0009
3975.00,0.0009
3974.00,0.0009
3973.00,0.0009
3972.00,0.0009
3971.00,0.0009
3970.00,0.0009
3969.00,0.0009
3968.00,0.0010
3967.00,0.0010
3966.00,0.0010
3965.00,0.0010
3964.00,0.0010
3963.00,0.0010
3962.00,0.0009
3961.00,0.0009
3960.00,0.0009
3959.00,0.0009
3958.00,0.0009
3957.00,0.0009
3956.00,0.0009
3955.00,0.0009
3954.00,0.0009
3953.00,0.0008
3952.00,0.0008
3951.00,0.0008
3950.00,0.0008
3949.00,0.0008
3948.00,0.0009
3947.00,0.0009
3946.00,0.0009
3945.00,0.0009
3944.00,0.0009
3943.00,0.0009
3942.00,0.0009
3941.00,0.0010
3940.00,0.0010
3939.00,0.0010
3938.00,0.0009
3937.00,0.0009
3936.00,0.0009
3935.00,0.0009
3934.00,0.0008
3933.00,0.0008
3932.00,0.0008
3931.00,0.0009
3930.00,0.0009
3929.00,0.0009
3928.00,0.0009
3927.00,0.0009
3926.00,0.0010
3925.00,0.0010
3924.00,0.0010
3923.00,0.0010
3922.00,0.0010
3921.00,0.0009
3920.00,0.0009
3919.00,0.0009
3918.00,0.0009
3917.00,0.0009
3916.00,0.0009
3915.00,0.0009
3914.00,0.0010
3913.00,0.0010
3912.00,0.0009
3911.00,0.0009
3910.00,0.0009
3909.00,0.0009
3908.00,0.0009
3907.00,0.0009
3906.00,0.0009
3905.00,0.0009
3904.00,0.0008
3903.00,0.0008
3902.00,0.0008
3901.00,0.0009
3900.00,0.0009
3899.00,0.0009
3898.00,0.0009
3897.00,0.0009
3896.00,0.0008
3895.00,0.0008
3894.00,0.0008
3893.00,0.0008
3892.00,0.0008
3891.00,0.0008
3890.00,0.0009
3889.00,0.0009
3888.00,0.0008
3887.00,0.0008
3886.00,0.0008
3885.00,0.0008
3884.00,0.0008
3883.00,0.0008
3882.00,0.0008
3881.00,0.0009
3880.00,0.0009
3879.00,0.0009
3878.00,0.0009
3877.00,0.0009
3876.00,0.0009
3875.00,0.0009
3874.00,0.0009
3873.00,0.0008
3872.00,0.0008
3871.00,0.0007
3870.00,0.0007
3869.00,0.0008
3868.00,0.0008
3867.00,0.0008
3866.00,0.0008
3865.00,0.0008
3864.00,0.0008
3863.00,0.0007
3862.00,0.0007
3861.00,0.0007
3860.00,0.0007
3859.00,0.0007
3858.00,0.0007
3857.00,0.0007
3856.00,0.0007
3855.00,0.0006
3854.00,0.0006
3853.00,0.0006
3852.00,0.0006
3851.00,0.0006
3850.00,0.0007
3849.00,0.0007
3848.00,0.0007
3847.00,0.0007
3846.00,0.0007
3845.00,0.0008
3844.00,0.0008
3843.00,0.0007
3842.00,0.0007
3841.00,0.0007
3840.00,0.0008
3839.00,0.0008
3838.00,0.0007
3837.00,0.0007
3836.00,0.0007
3835.00,0.0007
3834.00,0.0007
3833.00,0.0007
3832.00,0.0007
3831.00,0.0006
3830.00,0.0006
3829.00,0.0006
3828.00,0.0007
3827.00,0.0007
3826.00,0.0007
3825.00,0.0007
3824.00,0.0007
3823.00,0.0007
3822.00,0.0007
3821.00,0.0007
3820.00,0.0007
3819.00,0.0007
3818.00,0.0007
3817.00,0.0007
3816.00,0.0008
3815.00,0.0008
3814.00,0.0008
3813.00,0.0008
3812.00,0.0008
3811.00,0.0008
3810.00,0.0008
3809.00,0.0008
3808.00,0.0008
3807.00,0.0008
3806.00,0.0008
3805.00,0.0008
3804.00,0.0007
3803.00,0.0007
3802.00,0.0008
3801.00,0.0008
3800.00,0.0008
3799.00,0.0008
3798.00,0.0007
3797.00,0.0007
3796.00,0.0006
3795.00,0.0006
3794.00,0.0007
3793.00,0.0007
3792.00,0.0007
3791.00,0.0008
3790.00,0.0008
3789.00,0.0009
3788.00,0.0009
3787.00,0.0009
3786.00,0.0009
3785.00,0.0009
3784.00,0.0009
3783.00,0.0009
3782.00,0.0008
3781.00,0.0008
3780.00,0.0008
3779.00,0.0008
3778.00,0.0008
3777.00,0.0009
3776.00,0.0009
3775.00,0.0009
3774.00,0.0009
3773.00,0.0009
3772.00,0.0009
3771.00,0.0009
3770.00,0.0009
3769.00,0.0009
3768.00,0.0009
3767.00,0.0009
3766.00,0.0009
3765.00,0.0009
3764.00,0.0010
3763.00,0.0009
3762.00,0.0009
3761.00,0.0009
3760.00,0.0009
3759.00,0.0009
3758.00,0.0009
3757.00,0.0009
3756.00,0.0008
3755.00,0.0008
3754.00,0.0008
3753.00,0.0007
3752.00,0.0007
3751.00,0.0006
3750.00,0.0006
3749.00,0.0006
3748.00,0.0006
3747.00,0.0006
3746.00,0.0006
3745.00,0.0006
3744.00,0.0007
3743.00,0.0007
3742.00,0.0007
3741.00,0.0006
3740.00,0.0005
3739.00,0.0005
3738.00,0.0005
3737.00,0.0006
3736.00,0.0006
3735.00,0.0006
3734.00,0.0005
3733.00,0.0005
3732.00,0.0005
3731.00,0.0006
3730.00,0.0006
3729.00,0.0006
3728.00,0.0006
3727.00,0.0006
3726.00,0.0007
3725.00,0.0007
3724.00,0.0007
3723.00,0.0007
3722.00,0.0007
3721.00,0.0007
3720.00,0.0007
3719.00,0.0007
3718.00,0.0007
3717.00,0.0007
3716.00,0.0007
3715.00,0.0006
3714.00,0.0006
3713.00,0.0006
3712.00,0.0007
3711.00,0.0007
3710.00,0.0007
3709.00,0.0006
3708.00,0.0006
3707.00,0.0006
3706.00,0.0006
3705.00,0.0007
3704.00,0.0007
3703.00,0.0008
3702.00,0.0008
3701.00,0.0008
3700.00,0.0008
3699.00,0.0007
3698.00,0.0007
3697.00,0.0006
3696.00,0.0006
3695.00,0.0006
3694.00,0.0005
3693.00,0.0005
3692.00,0.0005
3691.00,0.0005
3690.00,0.0005
3689.00,0.0005
3688.00,0.0005
3687.00,0.0005
3686.00,0.0005
3685.00,0.0005
3684.00,0.0004
3683.00,0.0004
3682.00,0.0004
3681.00,0.0004
3680.00,0.0003
3679.00,0.0003
3678.00,0.0002
3677.00,0.0002
3676.00,0.0002
3675.00,0.0001
3674.00,0.0001
3673.00,-0.0000
3672.00,-0.0000
3671.00,-0.0000
3670.00,0.0000
3669.00,0.0001
3668.00,0.0001
3667.00,0.0001
3666.00,0.0000
3665.00,-0.0000
3664.00,-0.0000
3663.00,-0.0000
3662.00,-0.0000
3661.00,-0.0000
3660.00,0.0000
3659.00,0.0000
3658.00,-0.0000
3657.00,-0.0000
3656.00,-0.0000
3655.00,-0.0000
3654.00,-0.0000
3653.00,0.0000
3652.00,0.0000
3651.00,0.0001
3650.00,0.0001
3649.00,0.0001
3648.00,0.0001
3647.00,0.0001
3646.00,0.0001
3645.00,0.0001
3644.00,0.0000
3643.00,0.0000
3642.00,0.0001
3641.00,0.0001
3640.00,0.0002
3639.00,0.0002
3638.00,0.0003
3637.00,0.0003
3636.00,0.0003
3635.00,0.0004
3634.00,0.0004
3633.00,0.0004
3632.00,0.0004
3631.00,0.0003
3630.00,0.0004
3629.00,0.0004
3628.00,0.0005
3627.00,0.0005
3626.00,0.0005
3625.00,0.0005
3624.00,0.0006
3623.00,0.0005
3622.00,0.0005
3621.00,0.0005
3620.00,0.0005
3619.00,0.0005
3618.00,0.0005
3617.00,0.0006
3616.00,0.0006
3615.00,0.0007
3614.00,0.0007
3613.00,0.0007
3612.00,0.0007
3611.00,0.0007
3610.00,0.0006
3609.00,0.0006
3608.00,0.0006
3607.00,0.0006
3606.00,0.0007
3605.00,0.0007
3604.00,0.0007
3603.00,0.0007
3602.00,0.0007
3601.00,0.0007
3600.00,0.0007
3599.00,0.0007
3598.00,0.0008
3597.00,0.0008
3596.00,0.0008
3595.00,0.0008
3594.00,0.0008
3593.00,0.0008
3592.00,0.0008
3591.00,0.0008
3590.00,0.0009
3589.00,0.0009
3588.00,0.0009
3587.00,0.0009
3586.00,0.0009
3585.00,0.0008
3584.00,0.0008
3583.00,0.0008
3582.00,0.0008
3581.00,0.0008
3580.00,0.0008
3579.00,0.0008
3578.00,0.0009
3577.00,0.0009
3576.00,0.0010
3575.00,0.0011
3574.00,0.0012
3573.00,0.0012
3572.00,0.0012
3571.00,0.0012
3570.00,0.0012
3569.00,0.0012
3568.00,0.0011
3567.00,0.0011
3566.00,0.0011
3565.00,0.0010
3564.00,0.0011
3563.00,0.0011
3562.00,0.0012
3561.00,0.0012
3560.00,0.0012
3559.00,0.0012
3558.00,0.0012
3557.00,0.0011
3556.00,0.0012
3555.00,0.0012
3554.00,0.0012
3553.00,0.0013
3552.00,0.0013
3551.00,0.0013
3550.00,0.0013
3549.00,0.0014
3548.00,0.0014
3547.00,0.0014
3546.00,0.0014
3545.00,0.0014
3544.00,0.0015
3543.00,0.0015
3542.00,0.0015
3541.00,0.0014
3540.00,0.0014
3539.00,0.0014
3538.00,0.0015
3537.00,0.0015
3536.00,0.0015
3535.00,0.0015
3534.00,0.0015
3533.00,0.0015
3532.00,0.0015
3531.00,0.0015
3530.00,0.0015
3529.00,0.0015
3528.00,0.0015
3527.00,0.0016
3526.00,0.0016
3525.00,0.0016
3524.00,0.0016
3523.00,0.0016
3522.00,0.0017
3521.00,0.0017
3520.00,0.0017
3519.00,0.0017
3518.00,0.0016
3517.00,0.0016
3516.00,0.0016
3515.00,0.0016
3514.00,0.0016
3513.00,0.0017
3512.00,0.0018
3511.00,0.0018
3510.00,0.0018
3509.00,0.0018
3508.00,0.0018
3507.00,0.0018
3506.00,0.0018
3505.00,0.0018
3504.00,0.0018
3503.00,0.0018
3502.00,0.0018
3501.00,0.0018
3500.00,0.0018
3499.00,0.0019
3498.00,0.0018
3497.00,0.0018
3496.00,0.0018
3495.00,0.0018
3494.00,0.0018
3493.00,0.0019
3492.00,0.0019
3491.00,0.0019
3490.00,0.0019
3489.00,0.0019
3488.00,0.0020
3487.00,0.0020
3486.00,0.0020
3485.00,0.0020
3484.00,0.0019
3483.00,0.0019
3482.00,0.0019
3481.00,0.0019
3480.00,0.0020
3479.00,0.0020
3478.00,0.0020
3477.00,0.0021
3476.00,0.0021
3475.00,0.0021
3474.00,0.0021
3473.00,0.0022
3472.00,0.0022
3471.00,0.0022
3470.00,0.0021
3469.00,0.0021
3468.00,0.0021
3467.00,0.0021
3466.00,0.0021
3465.00,0.0022
3464.00,0.0022
3463.00,0.0022
3462.00,0.0023
3461.00,0.0023
3460.00,0.0023
3459.00,0.0023
3458.00,0.0023
3457.00,0.0023
3456.00,0.0023
3455.00,0.0023
3454.00,0.0023
3453.00,0.0023
3452.00,0.0024
3451.00,0.0024
3450.00,0.0024
3449.00,0.0024
3448.00,0.0024
3447.00,0.0023
3446.00,0.0023
3445.00,0.0024
3444.00,0.0024
3443.00,0.0024
3442.00,0.0024
3441.00,0.0024
3440.00,0.0024
3439.00,0.0024
3438.00,0.0025
3437.00,0.0025
3436.00,0.0025
3435.00,0.0026
3434.00,0.0026
3433.00,0.0026
3432.00,0.0026
3431.00,0.0026
3430.00,0.0025
3429.00,0.0026
3428.00,0.0026
3427.00,0.0026
3426.00,0.0026
3425.00,0.0026
3424.00,0.0026
3423.00,0.0026
3422.00,0.0026
3421.00,0.0027
3420.00,0.0027
3419.00,0.0028
3418.00,0.0028
3417.00,0.0027
3416.00,0.0027
3415.00,0.0028
3414.00,0.0028
3413.00,0.0028
3412.00,0.0028
3411.00,0.0028
3410.00,0.0028
3409.00,0.0028
3408.00,0.0028
3407.00,0.0028
3406.00,0.0027
3405.00,0.0028
3404.00,0.0028
3403.00,0.0028
3402.00,0.0028
3401.00,0.0028
3400.00,0.0028
3399.00,0.0028
3398.00,0.0028
3397.00,0.0028
3396.00,0.0028
3395.00,0.0028
3394.00,0.0028
3393.00,0.0028
3392.00,0.0028
3391.00,0.0029
3390.00,0.0029
3389.00,0.0029
3388.00,0.0030
3387.00,0.0030
3386.00,0.0031
3385.00,0.0031
3384.00,0.0030
3383.00,0.0030
3382.00,0.0030
3381.00,0.0030
3380.00,0.0030
3379.00,0.0030
3378.00,0.0031
3377.00,0.0031
3376.00,0.0031
3375.00,0.0031
3374.00,0.0030
3373.00,0.0030
3372.00,0.0030
3371.00,0.0030
3370.00,0.0031
3369.00,0.0031
3368.00,0.0031
3367.00,0.0031
3366.00,0.0031
3365.00,0.0031
3364.00,0.0031
3363.00,0.0032
3362.00,0.0032
3361.00,0.0032
3360.00,0.0032
3359.00,0.0032
3358.00,0.0032
3357.00,0.0032
3356.00,0.0032
3355.00,0.0031
3354.00,0.0031
3353.00,0.0032
3352.00,0.0032
3351.00,0.0033
3350.00,0.0033
3349.00,0.0033
3348.00,0.0033
3347.00,0.0032
3346.00,0.0032
3345.00,0.0032
3344.00,0.0032
3343.00,0.0032
3342.00,0.0032
3341.00,0.0032
3340.00,0.0032
3339.00,0.0031
3338.00,0.0032
3337.00,0.0032
3336.00,0.0032
3335.00,0.0032
3334.00,0.0032
3333.00,0.0032
3332.00,0.0032
3331.00,0.0032
3330.00,0.0032
3329.00,0.0033
3328.00,0.0033
3327.00,0.0032
3326.00,0.0032
3325.00,0.0032
3324.00,0.0032
3323.00,0.0032
3322.00,0.0032
3321.00,0.0032
3320.00,0.0032
3319.00,0.0032
3318.00,0.0032
3317.00,0.0032
3316.00,0.0032
3315.00,0.0032
3314.00,0.0032
3313.00,0.0032
3312.00,0.0032
3311.00,0.0032
3310.00,0.0032
3309.00,0.0032
3308.00,0.0032
3307.00,0.0032
3306.00,0.0032
3305.00,0.0032
3304.00,0.0032
3303.00,0.0032
3302.00,0.0032
3301.00,0.0033
3300.00,0.0033
3299.00,0.0033
3298.00,0.0033
3297.00,0.0033
3296.00,0.0033
3295.00,0.0032
3294.00,0.0032
3293.00,0.0032
3292.00,0.0033
3291.00,0.0033
3290.00,0.0033
3289.00,0.0033
3288.00,0.0032
3287.00,0.0032
3286.00,0.0032
3285.00,0.0032
3284.00,0.0032
3283.00,0.0032
3282.00,0.0032
3281.00,0.0032
3280.00,0.0032
3279.00,0.0031
3278.00,0.0031
3277.00,0.0031
3276.00,0.0032
3275.00,0.0032
3274.00,0.0031
3273.00,0.0031
3272.00,0.0030
3271.00,0.0030
3270.00,0.0030
3269.00,0.0030
3268.00,0.0031
3267.00,0.0031
3266.00,0.0031
3265.00,0.0031
3264.00,0.0031
3263.00,0.0031
3262.00,0.0031
3261.00,0.0031
3260.00,0.0031
3259.00,0.0030
3258.00,0.0030
3257.00,0.0030
3256.00,0.0030
3255.00,0.0030
3254.00,0.0030
3253.00,0.0030
3252.00,0.0030
3251.00,0.0030
3250.00,0.0029
3249.00,0.0029
3248.00,0.0029
3247.00,0.0029
3246.00,0.0029
3245.00,0.0029
3244.00,0.0029
3243.00,0.0028
3242.00,0.0028
3241.00,0.0029
3240.00,0.0029
3239.00,0.0029
3238.00,0.0029
3237.00,0.0029
3236.00,0.0029
3235.00,0.0030
3234.00,0.0030
3233.00,0.0030
3232.00,0.0030
3231.00,0.0030
3230.00,0.0030
3229.00,0.0030
3228.00,0.0031
3227.00,0.0031
3226.00,0.0031
3225.00,0.0031
3224.00,0.0031
3223.00,0.0031
3222.00,0.0031
3221.00,0.0031
3220.00,0.0032
3219.00,0.0032
3218.00,0.0032
3217.00,0.0032
3216.00,0.0032
3215.00,0.0033
3214.00,0.0033
3213.00,0.0034
3212.00,0.0034
3211.00,0.0035
3210.00,0.0035
3209.00,0.0035
3208.00,0.0035
3207.00,0.0035
3206.00,0.0035
3205.00,0.0035
3204.00,0.0035
3203.00,0.0035
3202.00,0.0035
3201.00,0.0035
3200.00,0.0036
3199.00,0.0036
3198.00,0.0036
3197.00,0.0036
3196.00,0.0036
3195.00,0.0036
3194.00,0.0036
3193.00,0.0036
3192.00,0.0036
3191.00,0.0036
3190.00,0.0036
3189.00,0.0036
3188.00,0.0035
3187.00,0.0035
3186.00,0.0035
3185.00,0.0034
3184.00,0.0034
3183.00,0.0034
3182.00,0.0034
3181.00,0.0034
3180.00,0.0033
3179.00,0.0033
3178.00,0.0033
3177.00,0.0033
3176.00,0.0033
3175.00,0.0032
3174.00,0.0032
3173.00,0.0032
3172.00,0.0033
3171.00,0.0033
3170.00,0.0032
3169.00,0.0032
3168.00,0.0032
3167.00,0.0032
3166.00,0.0032
3165.00,0.0032
3164.00,0.0032
3163.00,0.0033
3162.00,0.0033
3161.00,0.0033
3160.00,0.0032
3159.00,0.0032
3158.00,0.0032
3157.00,0.0033
3156.00,0.0033
3155.00,0.0033
3154.00,0.0033
3153.00,0.0033
3152.00,0.0033
3151.00,0.0033
3150.00,0.0033
3149.00,0.0033
3148.00,0.0033
3147.00,0.0032
3146.00,0.0032
3145.00,0.0032
3144.00,0.0032
3143.00,0.0032
3142.00,0.0032
3141.00,0.0032
3140.00,0.0032
3139.00,0.0032
3138.00,0.0032
3137.00,0.0032
3136.00,0.0032
3135.00,0.0031
3134.00,0.0031
3133.00,0.0031
3132.00,0.0031
3131.00,0.0031
3130.00,0.0030
3129.00,0.0030
3128.00,0.0029
3127.00,0.0029
3126.00,0.0029
3125.00,0.0029
3124.00,0.0028
3123.00,0.0028
3122.00,0.0028
3121.00,0.0028
3120.00,0.0028
3119.00,0.0028
3118.00,0.0028
3117.00,0.0028
3116.00,0.0028
3115.00,0.0028
3114.00,0.0028
3113.00,0.0028
3112.00,0.0028
3111.00,0.0028
3110.00,0.0027
3109.00,0.0027
3108.00,0.0028
3107.00,0.0028
3106.00,0.0028
3105.00,0.0028
3104.00,0.0028
3103.00,0.0028
3102.00,0.0027
3101.00,0.0027
3100.00,0.0027
3099.00,0.0027
3098.00,0.0028
3097.00,0.0028
3096.00,0.0028
3095.00,0.0028
3094.00,0.0028
3093.00,0.0028
3092.00,0.0027
3091.00,0.0027
3090.00,0.0027
3089.00,0.0026
3088.00,0.0026
3087.00,0.0027
3086.00,0.0027
3085.00,0.0027
3084.00,0.0027
3083.00,0.0027
3082.00,0.0027
3081.00,0.0027
3080.00,0.0027
3079.00,0.0027
3078.00,0.0027
3077.00,0.0027
3076.00,0.0027
3075.00,0.0027
3074.00,0.0027
3073.00,0.0027
3072.00,0.0027
3071.00,0.0028
3070.00,0.0028
3069.00,0.0028
3068.00,0.0028
3067.00,0.0028
3066.00,0.0028
3065.00,0.0028
3064.00,0.0028
3063.00,0.0029
3062.00,0.0029
3061.00,0.0029
3060.00,0.0030
3059.00,0.0030
3058.00,0.0030
3057.00,0.0030
3056.00,0.0030
3055.00,0.0030
3054.00,0.0030
3053.00,0.0030
3052.00,0.0030
3051.00,0.0031
3050.00,0.0031
3049.00,0.0031
3048.00,0.0032
3047.00,0.0032
3046.00,0.0032
3045.00,0.0032
3044.00,0.0033
3043.00,0.0033
3042.00,0.0033
3041.00,0.0033
3040.00,0.0033
3039.00,0.0034
3038.00,0.0034
3037.00,0.0034
3036.00,0.0035
3035.00,0.0035
3034.00,0.0035
3033.00,0.0035
3032.00,0.0036
3031.00,0.0036
3030.00,0.0036
3029.00,0.0037
3028.00,0.0037
3027.00,0.0038
3026.00,0.0039
3025.00,0.0039
3024.00,0.0040
3023.00,0.0041
3022.00,0.0042
3021.00,0.0042
3020.00,0.0043
3019.00,0.0043
3018.00,0.0043
3017.00,0.0044
3016.00,0.0044
3015.00,0.0044
3014.00,0.0045
3013.00,0.0045
3012.00,0.0046
3011.00,0.0046
3010.00,0.0046
3009.00,0.0046
3008.00,0.0046
3007.00,0.0046
3006.00,0.0046
3005.00,0.0046
3004.00,0.0047
3003.00,0.0047
3002.00,0.0049
3001.00,0.0050
3000.00,0.0052
2999.00,0.0053
2998.00,0.0055
2997.00,0.0057
2996.00,0.0060
2995.00,0.0063
2994.00,0.0067
2993.00,0.0071
2992.00,0.0076
2991.00,0.0081
2990.00,0.0088
2989.00,0.0095
2988.00,0.0102
2987.00,0.0110
2986.00,0.0117
2985.00,0.0125
2984.00,0.0133
2983.00,0.0143
2982.00,0.0156
2981.00,0.0174
2980.00,0.0196
2979.00,0.0222
2978.00,0.0252
2977.00,0.0286
2976.00,0.0323
2975.00,0.0363
2974.00,0.0408
2973.00,0.0459
2972.00,0.0517
2971.00,0.0583
2970.00,0.0659
2969.00,0.0742
2968.00,0.0833
2967.00,0.0930
2966.00,0.1031
2965.00,0.1136
2964.00,0.1241
2963.00,0.1341
2962.00,0.1432
2961.00,0.1510
2960.00,0.1573
2959.00,0.1622
2958.00,0.1662
2957.00,0.1697
2956.00,0.1735
2955.00,0.1779
2954.00,0.1831
2953.00,0.1888
2952.00,0.1941
2951.00,0.1980
2950.00,0.1995
2949.00,0.1975
2948.00,0.1916
2947.00,0.1820
2946.00,0.1697
2945.00,0.1560
2944.00,0.1425
2943.00,0.1303
2942.00,0.1203
2941.00,0.1129
2940.00,0.1082
2939.00,0.1060
2938.00,0.1060
2937.00,0.1080
2936.00,0.1116
2935.00,0.1168
2934.00,0.1235
2933.00,0.1315
2932.00,0.1406
2931.00,0.1505
2930.00,0.1610
2929.00,0.1718
2928.00,0.1824
2927.00,0.1927
2926.00,0.2025
2925.00,0.2118
2924.00,0.2208
2923.00,0.2295
2922.00,0.2381
2921.00,0.2463
2920.00,0.2536
2919.00,0.2592
2918.00,0.2624
2917.00,0.2625
2916.00,0.2593
2915.00,0.2532
2914.00,0.2450
2913.00,0.2357
2912.00,0.2262
2911.00,0.2172
2910.00,0.2089
2909.00,0.2013
2908.00,0.1943
2907.00,0.1875
2906.00,0.1808
2905.00,0.1739
2904.00,0.1669
2903.00,0.1597
2902.00,0.1525
2901.00,0.1454
2900.00,0.1385
2899.00,0.1320
2898.00,0.1259
2897.00,0.1204
2896.00,0.1155
2895.00,0.1114
2894.00,0.1080
2893.00,0.1053
2892.00,0.1034
2891.00,0.1021
2890.00,0.1015
2889.00,0.1014
2888.00,0.1018
2887.00,0.1025
2886.00,0.1035
2885.00,0.1049
2884.00,0.1067
2883.00,0.1091
2882.00,0.1119
2881.00,0.1150
2880.00,0.1180
2879.00,0.1206
2878.00,0.1223
2877.00,0.1230
2876.00,0.1227
2875.00,0.1218
2874.00,0.1210
2873.00,0.1206
2872.00,0.1210
2871.00,0.1222
2870.00,0.1240
2869.00,0.1259
2868.00,0.1271
2867.00,0.1268
2866.00,0.1242
2865.00,0.1189
2864.00,0.1113
2863.00,0.1022
2862.00,0.0926
2861.00,0.0835
2860.00,0.0756
2859.00,0.0692
2858.00,0.0644
2857.00,0.0610
2856.00,0.0588
2855.00,0.0576
2854.00,0.0573
2853.00,0.0578
2852.00,0.0590
2851.00,0.0608
2850.00,0.0631
2849.00,0.0660
2848.00,0.0695
2847.00,0.0737
2846.00,0.0788
2845.00,0.0848
2844.00,0.0917
2843.00,0.0993
2842.00,0.1072
2841.00,0.1147
2840.00,0.1211
2839.00,0.1254
2838.00,0.1266
2837.00,0.1243
2836.00,0.1183
2835.00,0.1093
2834.00,0.0984
2833.00,0.0868
2832.00,0.0758
2831.00,0.0659
2830.00,0.0576
2829.00,0.0507
2828.00,0.0452
2827.00,0.0408
2826.00,0.0371
2825.00,0.0341
2824.00,0.0316
2823.00,0.0295
2822.00,0.0277
2821.00,0.0261
2820.00,0.0248
2819.00,0.0237
2818.00,0.0226
2817.00,0.0218
2816.00,0.0210
2815.00,0.0204
2814.00,0.0198
2813.00,0.0192
2812.00,0.0187
2811.00,0.0181
2810.00,0.0176
2809.00,0.0170
2808.00,0.0164
2807.00,0.0158
2806.00,0.0152
2805.00,0.0146
2804.00,0.0139
2803.00,0.0133
2802.00,0.0128
2801.00,0.0123
2800.00,0.0119
2799.00,0.0116
2798.00,0.0114
2797.00,0.0111
2796.00,0.0109
2795.00,0.0106
2794.00,0.0103
2793.00,0.0100
2792.00,0.0097
2791.00,0.0093
2790.00,0.0090
2789.00,0.0086
2788.00,0.0083
2787.00,0.0080
2786.00,0.0078
2785.00,0.0076
2784.00,0.0073
2783.00,0.0072
2782.00,0.0070
2781.00,0.0068
2780.00,0.0066
2779.00,0.0065
2778.00,0.0063
2777.00,0.0061
2776.00,0.0060
2775.00,0.0059
2774.00,0.0058
2773.00,0.0057
2772.00,0.0056
2771.00,0.0056
2770.00,0.0055
2769.00,0.0055
2768.00,0.0055
2767.00,0.0055
2766.00,0.0054
2765.00,0.0054
2764.00,0.0054
2763.00,0.0054
2762.00,0.0054
2761.00,0.0053
2760.00,0.0053
2759.00,0.0053
2758.00,0.0052
2757.00,0.0052
2756.00,0.0052
2755.00,0.0051
2754.00,0.0051
2753.00,0.0051
2752.00,0.0051
2751.00,0.0051
2750.00,0.0051
2749.00,0.0051
2748.00,0.0052
2747.00,0.0052
2746.00,0.0053
2745.00,0.0053
2744.00,0.0054
2743.00,0.0055
2742.00,0.0056
2741.00,0.0057
2740.00,0.0058
2739.00,0.0060
2738.00,0.0061
2737.00,0.0063
2736.00,0.0065
2735.00,0.0066
2734.00,0.0067
2733.00,0.0069
2732.00,0.0070
2731.00,0.0072
2730.00,0.0074
2729.00,0.0077
2728.00,0.0080
2727.00,0.0083
2726.00,0.0086
2725.00,0.0088
2724.00,0.0090
2723.00,0.0090
2722.00,0.0090
2721.00,0.0088
2720.00,0.0085
2719.00,0.0082
2718.00,0.0078
2717.00,0.0074
2716.00,0.0071
2715.00,0.0068
2714.00,0.0065
2713.00,0.0063
2712.00,0.0061
2711.00,0.0060
2710.00,0.0058
2709.00,0.0057
2708.00,0.0056
2707.00,0.0054
2706.00,0.0053
2705.00,0.0051
2704.00,0.0050
2703.00,0.0049
2702.00,0.0048
2701.00,0.0048
2700.00,0.0047
2699.00,0.0047
2698.00,0.0046
2697.00,0.0046
2696.00,0.0046
2695.00,0.0046
2694.00,0.0045
2693.00,0.0045
2692.00,0.0045
2691.00,0.0045
2690.00,0.0045
2689.00,0.0045
2688.00,0.0045
2687.00,0.0045
2686.00,0.0045
2685.00,0.0045
2684.00,0.0045
2683.00,0.0045
2682.00,0.0045
2681.00,0.0046
2680.00,0.0046
2679.00,0.0046
2678.00,0.0046
2677.00,0.0045
2676.00,0.0045
2675.00,0.0045
2674.00,0.0045
2673.00,0.0045
2672.00,0.0044
2671.00,0.0044
2670.00,0.0044
2669.00,0.0044
2668.00,0.0044
2667.00,0.0045
2666.00,0.0045
2665.00,0.0045
2664.00,0.0046
2663.00,0.0046
2662.00,0.0047
2661.00,0.0048
2660.00,0.0048
2659.00,0.0048
2658.00,0.0048
2657.00,0.0047
2656.00,0.0047
2655.00,0.0046
2654.00,0.0046
2653.00,0.0045
2652.00,0.0045
2651.00,0.0045
2650.00,0.0044
2649.00,0.0044
2648.00,0.0043
2647.00,0.0043
2646.00,0.0042
2645.00,0.0042
2644.00,0.0041
2643.00,0.0041
2642.00,0.0041
2641.00,0.0041
2640.00,0.0041
2639.00,0.0040
2638.00,0.0040
2637.00,0.0039
2636.00,0.0038
2635.00,0.0038
2634.00,0.0038
2633.00,0.0038
2632.00,0.0038
2631.00,0.0039
2630.00,0.0039
2629.00,0.0040
2628.00,0.0040
2627.00,0.0040
2626.00,0.0040
2625.00,0.0040
2624.00,0.0040
2623.00,0.0040
2622.00,0.0041
2621.00,0.0041
2620.00,0.0041
2619.00,0.0041
2618.00,0.0041
2617.00,0.0041
2616.00,0.0041
2615.00,0.0041
2614.00,0.0041
2613.00,0.0041
2612.00,0.0040
2611.00,0.0040
2610.00,0.0038
2609.00,0.0037
2608.00,0.0036
2607.00,0.0035
2606.00,0.0035
2605.00,0.0034
2604.00,0.0034
2603.00,0.0034
2602.00,0.0034
2601.00,0.0034
2600.00,0.0034
2599.00,0.0033
2598.00,0.0033
2597.00,0.0033
2596.00,0.0033
2595.00,0.0033
2594.00,0.0033
2593.00,0.0034
2592.00,0.0034
2591.00,0.0035
2590.00,0.0035
2589.00,0.0036
2588.00,0.0037
2587.00,0.0038
2586.00,0.0039
2585.00,0.0040
2584.00,0.0040
2583.00,0.0041
2582.00,0.0041
2581.00,0.0040
2580.00,0.0040
2579.00,0.0039
2578.00,0.0039
2577.00,0.0038
2576.00,0.0038
2575.00,0.0037
2574.00,0.0035
2573.00,0.0034
2572.00,0.0033
2571.00,0.0031
2570.00,0.0031
2569.00,0.0030
2568.00,0.0030
2567.00,0.0029
2566.00,0.0028
2565.00,0.0028
2564.00,0.0027
2563.00,0.0026
2562.00,0.0025
2561.00,0.0024
2560.00,0.0024
2559.00,0.0023
2558.00,0.0023
2557.00,0.0023
2556.00,0.0023
2555.00,0.0023
2554.00,0.0023
2553.00,0.0023
2552.00,0.0022
2551.00,0.0022
2550.00,0.0022
2549.00,0.0022
2548.00,0.0021
2547.00,0.0021
2546.00,0.0020
2545.00,0.0019
2544.00,0.0019
2543.00,0.0020
2542.00,0.0020
2541.00,0.0020
2540.00,0.0020
2539.00,0.0020
2538.00,0.0019
2537.00,0.0019
2536.00,0.0018
2535.00,0.0018
2534.00,0.0017
2533.00,0.0017
2532.00,0.0016
2531.00,0.0016
2530.00,0.0016
2529.00,0.0016
2528.00,0.0016
2527.00,0.0016
2526.00,0.0015
2525.00,0.0015
2524.00,0.0015
2523.00,0.0014
2522.00,0.0014
2521.00,0.0013
2520.00,0.0013
2519.00,0.0014
2518.00,0.0014
2517.00,0.0014
2516.00,0.0014
2515.00,0.0013
2514.00,0.0013
2513.00,0.0013
2512.00,0.0013
2511.00,0.0013
2510.00,0.0012
2509.00,0.0012
2508.00,0.0012
2507.00,0.0012
2506.00,0.0012
2505.00,0.0012
2504.00,0.0012
2503.00,0.0013
2502.00,0.0013
2501.00,0.0012
2500.00,0.0012
2499.00,0.0012
2498.00,0.0012
2497.00,0.0013
2496.00,0.0013
2495.00,0.0013
2494.00,0.0012
2493.00,0.0012
2492.00,0.0012
2491.00,0.0012
2490.00,0.0011
2489.00,0.0011
2488.00,0.0011
2487.00,0.0011
2486.00,0.0011
2485.00,0.0011
2484.00,0.0011
2483.00,0.0011
2482.00,0.0011
2481.00,0.0011
2480.00,0.0010
2479.00,0.0010
2478.00,0.0011
2477.00,0.0011
2476.00,0.0011
2475.00,0.0011
2474.00,0.0011
2473.00,0.0010
2472.00,0.0010
2471.00,0.0010
2470.00,0.0010
2469.00,0.0010
2468.00,0.0011
2467.00,0.0011
2466.00,0.0012
2465.00,0.0012
2464.00,0.0011
2463.00,0.0011
2462.00,0.0010
2461.00,0.0011
2460.00,0.0012
2459.00,0.0012
2458.00,0.0013
2457.00,0.0013
2456.00,0.0013
2455.00,0.0013
2454.00,0.0013
2453.00,0.0013
2452.00,0.0013
2451.00,0.0012
2450.00,0.0011
2449.00,0.0011
2448.00,0.0011
2447.00,0.0011
2446.00,0.0012
2445.00,0.0012
2444.00,0.0013
2443.00,0.0013
2442.00,0.0013
2441.00,0.0013
2440.00,0.0013
2439.00,0.0012
2438.00,0.0012
2437.00,0.0013
2436.00,0.0013
2435.00,0.0013
2434.00,0.0012
2433.00,0.0013
2432.00,0.0013
2431.00,0.0013
2430.00,0.0013
2429.00,0.0014
2428.00,0.0014
2427.00,0.0014
2426.00,0.0014
2425.00,0.0014
2424.00,0.0014
2423.00,0.0013
2422.00,0.0013
2421.00,0.0013
2420.00,0.0013
2419.00,0.0012
2418.00,0.0012
2417.00,0.0012
2416.00,0.0012
2415.00,0.0012
2414.00,0.0012
2413.00,0.0012
2412.00,0.0012
2411.00,0.0011
2410.00,0.0011
2409.00,0.0011
2408.00,0.0010
2407.00,0.0010
2406.00,0.0009
2405.00,0.0009
2404.00,0.0009
2403.00,0.0009
2402.00,0.0009
2401.00,0.0009
2400.00,0.0009
2399.00,0.0009
2398.00,0.0009
2397.00,0.0009
2396.00,0.0010
2395.00,0.0010
2394.00,0.0009
2393.00,0.0009
2392.00,0.0009
2391.00,0.0010
2390.00,0.0010
2389.00,0.0010
2388.00,0.0009
2387.00,0.0008
2386.00,0.0008
2385.00,0.0007
2384.00,0.0006
2383.00,0.0005
2382.00,0.0005
2381.00,0.0004
2380.00,0.0004
2379.00,0.0003
2378.00,0.0003
2377.00,0.0003
2376.00,0.0004
2375.00,0.0004
2374.00,0.0004
2373.00,0.0004
2372.00,0.0004
2371.00,0.0003
2370.00,0.0002
2369.00,0.0001
2368.00,0.0000
2367.00,0.0000
2366.00,0.0000
2365.00,0.0001
2364.00,0.0002
2363.00,0.0002
2362.00,0.0002
2361.00,0.0002
2360.00,0.0002
2359.00,0.0002
2358.00,0.0002
2357.00,0.0003
2356.00,0.0003
2355.00,0.0003
2354.00,0.0002
2353.00,0.0003
2352.00,0.0003
2351.00,0.0002
2350.00,0.0002
2349.00,0.0002
2348.00,0.0002
2347.00,0.0003
2346.00,0.0003
2345.00,0.0004
2344.00,0.0004
2343.00,0.0004
2342.00,0.0004
2341.00,0.0004
2340.00,0.0005
2339.00,0.0005
2338.00,0.0005
2337.00,0.0005
2336.00,0.0005
2335.00,0.0005
2334.00,0.0005
2333.00,0.0004
2332.00,0.0004
2331.00,0.0003
2330.00,0.0003
2329.00,0.0004
2328.00,0.0006
2327.00,0.0009
2326.00,0.0014
2325.00,0.0017
2324.00,0.0018
2323.00,0.0017
2322.00,0.0014
2321.00,0.0012
2320.00,0.0010
2319.00,0.0010
2318.00,0.0010
2317.00,0.0010
2316.00,0.0010
2315.00,0.0010
2314.00,0.0010
2313.00,0.0009
2312.00,0.0008
2311.00,0.0008
2310.00,0.0008
2309.00,0.0008
2308.00,0.0009
2307.00,0.0009
2306.00,0.0009
2305.00,0.0010
2304.00,0.0010
2303.00,0.0010
2302.00,0.0010
2301.00,0.0010
2300.00,0.0010
2299.00,0.0010
2298.00,0.0011
2297.00,0.0012
2296.00,0.0013
2295.00,0.0015
2294.00,0.0016
2293.00,0.0016
2292.00,0.0017
2291.00,0.0017
2290.00,0.0018
2289.00,0.0019
2288.00,0.0019
2287.00,0.0020
2286.00,0.0020
2285.00,0.0019
2284.00,0.0019
2283.00,0.0018
2282.00,0.0017
2281.00,0.0017
2280.00,0.0017
2279.00,0.0017
2278.00,0.0018
2277.00,0.0017
2276.00,0.0016
2275.00,0.0015
2274.00,0.0014
2273.00,0.0014
2272.00,0.0014
2271.00,0.0015
2270.00,0.0015
2269.00,0.0014
2268.00,0.0013
2267.00,0.0012
2266.00,0.0012
2265.00,0.0012
2264.00,0.0013
2263.00,0.0014
2262.00,0.0015
2261.00,0.0015
2260.00,0.0016
2259.00,0.0017
2258.00,0.0018
2257.00,0.0017
2256.00,0.0016
2255.00,0.0014
2254.00,0.0011
2253.00,0.0010
2252.00,0.0010
2251.00,0.0011
2250.00,0.0011
2249.00,0.0011
2248.00,0.0010
2247.00,0.0009
2246.00,0.0008
2245.00,0.0009
2244.00,0.0010
2243.00,0.0010
2242.00,0.0010
2241.00,0.0010
2240.00,0.0011
2239.00,0.0011
2238.00,0.0012
2237.00,0.0012
2236.00,0.0013
2235.00,0.0013
2234.00,0.0013
2233.00,0.0012
2232.00,0.0011
2231.00,0.0011
2230.00,0.0011
2229.00,0.0012
2228.00,0.0013
2227.00,0.0013
2226.00,0.0012
2225.00,0.0010
2224.00,0.0008
2223.00,0.0006
2222.00,0.0006
2221.00,0.0006
2220.00,0.0008
2219.00,0.0009
2218.00,0.0009
2217.00,0.0008
2216.00,0.0007
2215.00,0.0006
2214.00,0.0006
2213.00,0.0007
2212.00,0.0009
2211.00,0.0009
2210.00,0.0009
2209.00,0.0008
2208.00,0.0009
2207.00,0.0010
2206.00,0.0012
2205.00,0.0014
2204.00,0.0013
2203.00,0.0012
2202.00,0.0009
2201.00,0.0007
2200.00,0.0004
2199.00,0.0002
2198.00,0.0003
2197.00,0.0006
2196.00,0.0010
2195.00,0.0015
2194.00,0.0018
2193.00,0.0020
2192.00,0.0020
2191.00,0.0019
2190.00,0.0018
2189.00,0.0017
2188.00,0.0017
2187.00,0.0016
2186.00,0.0015
2185.00,0.0015
2184.00,0.0014
2183.00,0.0011
2182.00,0.0007
2181.00,0.0004
2180.00,0.0003
2179.00,0.0005
2178.00,0.0008
2177.00,0.0010
2176.00,0.0010
2175.00,0.0008
2174.00,0.0008
2173.00,0.0009
2172.00,0.0012
2171.00,0.0015
2170.00,0.0017
2169.00,0.0018
2168.00,0.0017
2167.00,0.0016
2166.00,0.0015
2165.00,0.0017
2164.00,0.0021
2163.00,0.0025
2162.00,0.0026
2161.00,0.0020
2160.00,0.0006
2159.00,-0.0010
2158.00,-0.0021
2157.00,-0.0025
2156.00,-0.0023
2155.00,-0.0020
2154.00,-0.0018
2153.00,-0.0017
2152.00,-0.0016
2151.00,-0.0013
2150.00,-0.0011
2149.00,-0.0009
2148.00,-0.0010
2147.00,-0.0012
2146.00,-0.0014
2145.00,-0.0015
2144.00,-0.0014
2143.00,-0.0013
2142.00,-0.0011
2141.00,-0.0009
2140.00,-0.0009
2139.00,-0.0009
2138.00,-0.0010
2137.00,-0.0011
2136.00,-0.0013
2135.00,-0.0016
2134.00,-0.0019
2133.00,-0.0019
2132.00,-0.0017
2131.00,-0.0014
2130.00,-0.0011
2129.00,-0.0008
2128.00,-0.0007
2127.00,-0.0006
2126.00,-0.0006
2125.00,-0.0006
2124.00,-0.0005
2123.00,-0.0004
2122.00,-0.0004
2121.00,-0.0003
2120.00,-0.0002
2119.00,-0.0001
2118.00,-0.0001
2117.00,-0.0000
2116.00,0.0001
2115.00,0.0002
2114.00,0.0002
2113.00,0.0002
2112.00,0.0002
2111.00,0.0003
2110.00,0.0003
2109.00,0.0003
2108.00,0.0001
2107.00,0.0000
2106.00,-0.0001
2105.00,-0.0001
2104.00,0.0001
2103.00,0.0003
2102.00,0.0004
2101.00,0.0005
2100.00,0.0004
2099.00,0.0003
2098.00,0.0001
2097.00,-0.0000
2096.00,-0.0002
2095.00,-0.0003
2094.00,-0.0004
2093.00,-0.0004
2092.00,-0.0003
2091.00,-0.0001
2090.00,-0.0000
2089.00,0.0001
2088.00,0.0002
2087.00,0.0002
2086.00,0.0002
2085.00,0.0002
2084.00,0.0002
2083.00,0.0002
2082.00,0.0002
2081.00,0.0003
2080.00,0.0004
2079.00,0.0005
2078.00,0.0005
2077.00,0.0005
2076.00,0.0006
2075.00,0.0006
2074.00,0.0007
2073.00,0.0007
2072.00,0.0007
2071.00,0.0006
2070.00,0.0004
2069.00,0.0004
2068.00,0.0004
2067.00,0.0005
2066.00,0.0005
2065.00,0.0004
2064.00,0.0003
2063.00,0.0001
2062.00,0.0001
2061.00,0.0001
2060.00,0.0002
2059.00,0.0002
2058.00,0.0002
2057.00,0.0002
2056.00,0.0002
2055.00,0.0002
2054.00,0.0003
2053.00,0.0006
2052.00,0.0010
2051.00,0.0013
2050.00,0.0011
2049.00,0.0008
2048.00,0.0004
2047.00,0.0002
2046.00,0.0000
2045.00,-0.0000
2044.00,-0.0000
2043.00,-0.0000
2042.00,-0.0000
2041.00,-0.0000
2040.00,0.0001
2039.00,0.0003
2038.00,0.0004
2037.00,0.0005
2036.00,0.0004
2035.00,0.0001
2034.00,-0.0003
2033.00,-0.0005
2032.00,-0.0005
2031.00,-0.0003
2030.00,-0.0002
2029.00,-0.0001
2028.00,-0.0000
2027.00,-0.0000
2026.00,-0.0002
2025.00,-0.0005
2024.00,-0.0008
2023.00,-0.0010
2022.00,-0.0010
2021.00,-0.0008
2020.00,-0.0006
2019.00,-0.0004
2018.00,-0.0004
2017.00,-0.0004
2016.00,-0.0003
2015.00,-0.0003
2014.00,-0.0005
2013.00,-0.0007
2012.00,-0.0009
2011.00,-0.0010
2010.00,-0.0009
2009.00,-0.0008
2008.00,-0.0008
2007.00,-0.0010
2006.00,-0.0014
2005.00,-0.0015
2004.00,-0.0014
2003.00,-0.0012
2002.00,-0.0012
2001.00,-0.0013
2000.00,-0.0015
1999.00,-0.0016
1998.00,-0.0016
1997.00,-0.0015
1996.00,-0.0014
1995.00,-0.0013
1994.00,-0.0013
1993.00,-0.0011
1992.00,-0.0009
1991.00,-0.0006
1990.00,-0.0002
1989.00,0.0000
1988.00,0.0001
1987.00,-0.0002
1986.00,-0.0005
1985.00,-0.0007
1984.00,-0.0006
1983.00,-0.0004
1982.00,-0.0000
1981.00,0.0004
1980.00,0.0008
1979.00,0.0007
1978.00,0.0001
1977.00,-0.0007
1976.00,-0.0013
1975.00,-0.0016
1974.00,-0.0016
1973.00,-0.0014
1972.00,-0.0012
1971.00,-0.0010
1970.00,-0.0010
1969.00,-0.0009
1968.00,-0.0010
1967.00,-0.0011
1966.00,-0.0014
1965.00,-0.0015
1964.00,-0.0014
1963.00,-0.0012
1962.00,-0.0010
1961.00,-0.0011
1960.00,-0.0013
1959.00,-0.0015
1958.00,-0.0016
1957.00,-0.0016
1956.00,-0.0016
1955.00,-0.0016
1954.00,-0.0016
1953.00,-0.0015
1952.00,-0.0014
1951.00,-0.0014
1950.00,-0.0014
1949.00,-0.0014
1948.00,-0.0014
1947.00,-0.0014
1946.00,-0.0015
1945.00,-0.0015
1944.00,-0.0016
1943.00,-0.0016
1942.00,-0.0016
1941.00,-0.0014
1940.00,-0.0011
1939.00,-0.0010
1938.00,-0.0009
1937.00,-0.0009
1936.00,-0.0010
1935.00,-0.0010
1934.00,-0.0009
1933.00,-0.0008
1932.00,-0.0007
1931.00,-0.0007
1930.00,-0.0007
1929.00,-0.0007
1928.00,-0.0006
1927.00,-0.0005
1926.00,-0.0005
1925.00,-0.0005
1924.00,-0.0004
1923.00,-0.0004
1922.00,-0.0005
1921.00,-0.0005
1920.00,-0.0004
1919.00,-0.0003
1918.00,-0.0002
1917.00,-0.0002
1916.00,-0.0002
1915.00,-0.0002
1914.00,-0.0004
1913.00,-0.0004
1912.00,-0.0005
1911.00,-0.0005
1910.00,-0.0005
1909.00,-0.0004
1908.00,-0.0004
1907.00,-0.0003
1906.00,-0.0002
1905.00,-0.0001
1904.00,-0.0000
1903.00,-0.0001
1902.00,-0.0002
1901.00,-0.0002
1900.00,-0.0001
1899.00,0.0000
1898.00,0.0000
1897.00,0.0000
1896.00,0.0000
1895.00,0.0000
1894.00,0.0000
1893.00,0.0001
1892.00,0.0002
1891.00,0.0003
1890.00,0.0003
1889.00,0.0002
1888.00,0.0002
1887.00,0.0001
1886.00,0.0000
1885.00,-0.0000
1884.00,-0.0001
1883.00,-0.0001
1882.00,-0.0002
1881.00,-0.0002
1880.00,-0.0002
1879.00,-0.0001
1878.00,-0.0001
1877.00,-0.0001
1876.00,-0.0001
1875.00,-0.0000
1874.00,-0.0000
1873.00,0.0000
1872.00,0.0001
1871.00,0.0001
1870.00,0.0000
1869.00,-0.0000
1868.00,-0.0000
1867.00,-0.0001
1866.00,-0.0001
1865.00,-0.0001
1864.00,-0.0002
1863.00,-0.0002
1862.00,-0.0001
1861.00,-0.0000
1860.00,0.0000
1859.00,0.0000
1858.00,-0.0000
1857.00,-0.0000
1856.00,0.0000
1855.00,0.0001
1854.00,0.0002
1853.00,0.0002
1852.00,0.0002
1851.00,0.0002
1850.00,0.0002
1849.00,0.0002
1848.00,0.0002
1847.00,0.0002
1846.00,0.0002
1845.00,0.0002
1844.00,0.0003
1843.00,0.0003
1842.00,0.0003
1841.00,0.0003
1840.00,0.0003
1839.00,0.0003
1838.00,0.0004
1837.00,0.0005
1836.00,0.0006
1835.00,0.0007
1834.00,0.0006
1833.00,0.0006
1832.00,0.0005
1831.00,0.0005
1830.00,0.0005
1829.00,0.0005
1828.00,0.0005
1827.00,0.0005
1826.00,0.0005
1825.00,0.0005
1824.00,0.0005
1823.00,0.0005
1822.00,0.0005
1821.00,0.0005
1820.00,0.0004
1819.00,0.0003
1818.00,0.0001
1817.00,0.0000
1816.00,0.0001
1815.00,0.0002
1814.00,0.0003
1813.00,0.0004
1812.00,0.0005
1811.00,0.0006
1810.00,0.0006
1809.00,0.0006
1808.00,0.0005
1807.00,0.0005
1806.00,0.0005
1805.00,0.0006
1804.00,0.0006
1803.00,0.0006
1802.00,0.0006
1801.00,0.0006
1800.00,0.0006
1799.00,0.0006
1798.00,0.0006
1797.00,0.0007
1796.00,0.0007
1795.00,0.0008
1794.00,0.0008
1793.00,0.0007
1792.00,0.0007
1791.00,0.0007
1790.00,0.0007
1789.00,0.0008
1788.00,0.0008
1787.00,0.0009
1786.00,0.0009
1785.00,0.0010
1784.00,0.0010
1783.00,0.0009
1782.00,0.0009
1781.00,0.0009
1780.00,0.0010
1779.00,0.0010
1778.00,0.0010
1777.00,0.0010
1776.00,0.0010
1775.00,0.0009
1774.00,0.0009
1773.00,0.0009
1772.00,0.0009
1771.00,0.0009
1770.00,0.0010
1769.00,0.0010
1768.00,0.0010
1767.00,0.0010
1766.00,0.0010
1765.00,0.0011
1764.00,0.0011
1763.00,0.0012
1762.00,0.0012
1761.00,0.0013
1760.00,0.0013
1759.00,0.0013
1758.00,0.0013
1757.00,0.0014
1756.00,0.0015
1755.00,0.0016
1754.00,0.0017
1753.00,0.0018
1752.00,0.0019
1751.00,0.0020
1750.00,0.0020
1749.00,0.0021
1748.00,0.0021
1747.00,0.0021
1746.00,0.0021
1745.00,0.0021
1744.00,0.0022
1743.00,0.0023
1742.00,0.0023
1741.00,0.0024
1740.00,0.0024
1739.00,0.0023
1738.00,0.0022
1737.00,0.0021
1736.00,0.0021
1735.00,0.0022
1734.00,0.0022
1733.00,0.0021
1732.00,0.0021
1731.00,0.0021
1730.00,0.0021
1729.00,0.0022
1728.00,0.0022
1727.00,0.0022
1726.00,0.0022
1725.00,0.0022
1724.00,0.0022
1723.00,0.0021
1722.00,0.0021
1721.00,0.0021
1720.00,0.0021
1719.00,0.0022
1718.00,0.0022
1717.00,0.0022
1716.00,0.0023
1715.00,0.0022
1714.00,0.0022
1713.00,0.0023
1712.00,0.0023
1711.00,0.0024
1710.00,0.0024
1709.00,0.0024
1708.00,0.0024
1707.00,0.0025
1706.00,0.0025
1705.00,0.0025
1704.00,0.0026
1703.00,0.0026
1702.00,0.0026
1701.00,0.0026
1700.00,0.0026
1699.00,0.0026
1698.00,0.0026
1697.00,0.0026
1696.00,0.0028
1695.00,0.0030
1694.00,0.0030
1693.00,0.0031
1692.00,0.0031
1691.00,0.0031
1690.00,0.0031
1689.00,0.0031
1688.00,0.0032
1687.00,0.0032
1686.00,0.0032
1685.00,0.0033
1684.00,0.0034
1683.00,0.0035
1682.00,0.0035
1681.00,0.0035
1680.00,0.0035
1679.00,0.0036
1678.00,0.0036
1677.00,0.0037
1676.00,0.0037
1675.00,0.0038
1674.00,0.0038
1673.00,0.0038
1672.00,0.0039
1671.00,0.0039
1670.00,0.0040
1669.00,0.0041
1668.00,0.0041
1667.00,0.0042
1666.00,0.0042
1665.00,0.0042
1664.00,0.0042
1663.00,0.0042
1662.00,0.0042
1661.00,0.0043
1660.00,0.0043
1659.00,0.0044
1658.00,0.0045
1657.00,0.0046
1656.00,0.0046
1655.00,0.0047
1654.00,0.0047
1653.00,0.0048
1652.00,0.0048
1651.00,0.0049
1650.00,0.0049
1649.00,0.0049
1648.00,0.0049
1647.00,0.0049
1646.00,0.0049
1645.00,0.0049
1644.00,0.0050
1643.00,0.0050
1642.00,0.0050
1641.00,0.0051
1640.00,0.0051
1639.00,0.0051
1638.00,0.0051
1637.00,0.0051
1636.00,0.0051
1635.00,0.0051
1634.00,0.0052
1633.00,0.0052
1632.00,0.0052
1631.00,0.0052
1630.00,0.0052
1629.00,0.0052
1628.00,0.0052
1627.00,0.0052
1626.00,0.0051
1625.00,0.0051
1624.00,0.0051
1623.00,0.0050
1622.00,0.0050
1621.00,0.0050
1620.00,0.0050
1619.00,0.0049
1618.00,0.0048
1617.00,0.0047
1616.00,0.0047
1615.00,0.0047
1614.00,0.0048
1613.00,0.0048
1612.00,0.0048
1611.00,0.0048
1610.00,0.0048
1609.00,0.0048
1608.00,0.0048
1607.00,0.0048
1606.00,0.0048
1605.00,0.0048
1604.00,0.0048
1603.00,0.0048
1602.00,0.0048
1601.00,0.0048
1600.00,0.0048
1599.00,0.0048
1598.00,0.0048
1597.00,0.0049
1596.00,0.0049
1595.00,0.0049
1594.00,0.0049
1593.00,0.0049
1592.00,0.0050
1591.00,0.0050
1590.00,0.0051
1589.00,0.0052
1588.00,0.0053
1587.00,0.0055
1586.00,0.0056
1585.00,0.0058
1584.00,0.0061
1583.00,0.0064
1582.00,0.0067
1581.00,0.0071
1580.00,0.0074
1579.00,0.0077
1578.00,0.0079
1577.00,0.0080
1576.00,0.0079
1575.00,0.0078
1574.00,0.0076
1573.00,0.0075
1572.00,0.0073
1571.00,0.0071
1570.00,0.0068
1569.00,0.0065
1568.00,0.0063
1567.00,0.0061
1566.00,0.0060
1565.00,0.0060
1564.00,0.0060
1563.00,0.0059
1562.00,0.0060
1561.00,0.0061
1560.00,0.0063
1559.00,0.0062
1558.00,0.0061
1557.00,0.0061
1556.00,0.0061
1555.00,0.0062
1554.00,0.0062
1553.00,0.0064
1552.00,0.0066
1551.00,0.0067
1550.00,0.0069
1549.00,0.0072
1548.00,0.0074
1547.00,0.0076
1546.00,0.0080
1545.00,0.0084
1544.00,0.0087
1543.00,0.0091
1542.00,0.0093
1541.00,0.0094
1540.00,0.0093
1539.00,0.0089
1538.00,0.0085
1537.00,0.0082
1536.00,0.0079
1535.00,0.0076
1534.00,0.0071
1533.00,0.0067
1532.00,0.0065
1531.00,0.0063
1530.00,0.0061
1529.00,0.0060
1528.00,0.0060
1527.00,0.0059
1526.00,0.0058
1525.00,0.0057
1524.00,0.0057
1523.00,0.0056
1522.00,0.0056
1521.00,0.0056
1520.00,0.0058
1519.00,0.0058
1518.00,0.0058
1517.00,0.0059
1516.00,0.0060
1515.00,0.0060
1514.00,0.0060
1513.00,0.0061
1512.00,0.0062
1511.00,0.0063
1510.00,0.0063
1509.00,0.0064
1508.00,0.0065
1507.00,0.0065
1506.00,0.0064
1505.00,0.0065
1504.00,0.0066
1503.00,0.0067
1502.00,0.0068
1501.00,0.0070
1500.00,0.0072
1499.00,0.0074
1498.00,0.0076
1497.00,0.0079
1496.00,0.0081
1495.00,0.0083
1494.00,0.0085
1493.00,0.0088
1492.00,0.0092
1491.00,0.0096
1490.00,0.0100
1489.00,0.0105
1488.00,0.0111
1487.00,0.0116
1486.00,0.0121
1485.00,0.0128
1484.00,0.0136
1483.00,0.0144
1482.00,0.0154
1481.00,0.0167
1480.00,0.0181
1479.00,0.0195
1478.00,0.0210
1477.00,0.0230
1476.00,0.0252
1475.00,0.0276
1474.00,0.0310
1473.00,0.0360
1472.00,0.0423
1471.00,0.0485
1470.00,0.0546
1469.00,0.0611
1468.00,0.0682
1467.00,0.0760
1466.00,0.0849
1465.00,0.0945
1464.00,0.1031
1463.00,0.1094
1462.00,0.1138
1461.00,0.1171
1460.00,0.1196
1459.00,0.1215
1458.00,0.1232
1457.00,0.1247
1456.00,0.1254
1455.00,0.1254
1454.00,0.1248
1453.00,0.1236
1452.00,0.1213
1451.00,0.1176
1450.00,0.1121
1449.00,0.1045
1448.00,0.0947
1447.00,0.0843
1446.00,0.0749
1445.00,0.0668
1444.00,0.0601
1443.00,0.0546
1442.00,0.0506
1441.00,0.0479
1440.00,0.0463
1439.00,0.0457
1438.00,0.0458
1437.00,0.0459
1436.00,0.0447
1435.00,0.0420
1434.00,0.0380
1433.00,0.0332
1432.00,0.0284
1431.00,0.0241
1430.00,0.0209
1429.00,0.0185
1428.00,0.0169
1427.00,0.0160
1426.00,0.0153
1425.00,0.0148
1424.00,0.0142
1423.00,0.0139
1422.00,0.0138
1421.00,0.0136
1420.00,0.0133
1419.00,0.0130
1418.00,0.0128
1417.00,0.0125
1416.00,0.0121
1415.00,0.0120
1414.00,0.0118
1413.00,0.0116
1412.00,0.0114
1411.00,0.0113
1410.00,0.0112
1409.00,0.0110
1408.00,0.0109
1407.00,0.0109
1406.00,0.0109
1405.00,0.0108
1404.00,0.0106
1403.00,0.0106
1402.00,0.0106
1401.00,0.0106
1400.00,0.0106
1399.00,0.0107
1398.00,0.0108
1397.00,0.0110
1396.00,0.0111
1395.00,0.0115
1394.00,0.0120
1393.00,0.0126
1392.00,0.0132
1391.00,0.0141
1390.00,0.0154
1389.00,0.0172
1388.00,0.0198
1387.00,0.0237
1386.00,0.0290
1385.00,0.0355
1384.00,0.0442
1383.00,0.0558
1382.00,0.0711
1381.00,0.0904
1380.00,0.1142
1379.00,0.1414
1378.00,0.1681
1377.00,0.1882
1376.00,0.1959
1375.00,0.1874
1374.00,0.1650
1373.00,0.1369
1372.00,0.1105
1371.00,0.0884
1370.00,0.0707
1369.00,0.0572
1368.00,0.0479
1367.00,0.0421
1366.00,0.0391
1365.00,0.0380
1364.00,0.0383
1363.00,0.0398
1362.00,0.0421
1361.00,0.0445
1360.00,0.0462
1359.00,0.0467
1358.00,0.0456
1357.00,0.0428
1356.00,0.0388
1355.00,0.0344
1354.00,0.0301
1353.00,0.0264
1352.00,0.0235
1351.00,0.0212
1350.00,0.0193
1349.00,0.0178
1348.00,0.0165
1347.00,0.0155
1346.00,0.0147
1345.00,0.0141
1344.00,0.0137
1343.00,0.0134
1342.00,0.0131
1341.00,0.0129
1340.00,0.0127
1339.00,0.0124
1338.00,0.0122
1337.00,0.0122
1336.00,0.0122
1335.00,0.0124
1334.00,0.0127
1333.00,0.0132
1332.00,0.0136
1331.00,0.0140
1330.00,0.0142
1329.00,0.0140
1328.00,0.0136
1327.00,0.0131
1326.00,0.0125
1325.00,0.0119
1324.00,0.0113
1323.00,0.0108
1322.00,0.0104
1321.00,0.0101
1320.00,0.0098
1319.00,0.0096
1318.00,0.0093
1317.00,0.0091
1316.00,0.0089
1315.00,0.0088
1314.00,0.0087
1313.00,0.0087
1312.00,0.0088
1311.00,0.0092
1310.00,0.0097
1309.00,0.0104
1308.00,0.0114
1307.00,0.0126
1306.00,0.0138
1305.00,0.0147
1304.00,0.0150
1303.00,0.0147
1302.00,0.0141
1301.00,0.0136
1300.00,0.0133
1299.00,0.0132
1298.00,0.0132
1297.00,0.0132
1296.00,0.0131
1295.00,0.0128
1294.00,0.0124
1293.00,0.0119
1292.00,0.0113
1291.00,0.0108
1290.00,0.0103
1289.00,0.0098
1288.00,0.0095
1287.00,0.0092
1286.00,0.0089
1285.00,0.0087
1284.00,0.0084
1283.00,0.0082
1282.00,0.0080
1281.00,0.0079
1280.00,0.0078
1279.00,0.0077
1278.00,0.0076
1277.00,0.0075
1276.00,0.0074
1275.00,0.0073
1274.00,0.0073
1273.00,0.0073
1272.00,0.0073
1271.00,0.0073
1270.00,0.0073
1269.00,0.0073
1268.00,0.0073
1267.00,0.0074
1266.00,0.0076
1265.00,0.0078
1264.00,0.0081
1263.00,0.0083
1262.00,0.0087
1261.00,0.0092
1260.00,0.0098
1259.00,0.0106
1258.00,0.0115
1257.00,0.0122
1256.00,0.0125
1255.00,0.0123
1254.00,0.0117
1253.00,0.0108
1252.00,0.0100
1251.00,0.0093
1250.00,0.0089
1249.00,0.0085
1248.00,0.0083
1247.00,0.0081
1246.00,0.0081
1245.00,0.0080
1244.00,0.0080
1243.00,0.0080
1242.00,0.0079
1241.00,0.0078
1240.00,0.0077
1239.00,0.0076
1238.00,0.0076
1237.00,0.0076
1236.00,0.0075
1235.00,0.0076
1234.00,0.0076
1233.00,0.0078
1232.00,0.0079
1231.00,0.0080
1230.00,0.0081
1229.00,0.0082
1228.00,0.0083
1227.00,0.0085
1226.00,0.0088
1225.00,0.0090
1224.00,0.0093
1223.00,0.0097
1222.00,0.0100
1221.00,0.0104
1220.00,0.0106
1219.00,0.0108
1218.00,0.0109
1217.00,0.0108
1216.00,0.0105
1215.00,0.0102
1214.00,0.0098
1213.00,0.0095
1212.00,0.0092
1211.00,0.0089
1210.00,0.0087
1209.00,0.0086
1208.00,0.0084
1207.00,0.0083
1206.00,0.0082
1205.00,0.0081
1204.00,0.0081
1203.00,0.0080
1202.00,0.0080
1201.00,0.0080
1200.00,0.0080
1199.00,0.0079
1198.00,0.0079
1197.00,0.0080
1196.00,0.0080
1195.00,0.0079
1194.00,0.0078
1193.00,0.0077
1192.00,0.0077
1191.00,0.0076
1190.00,0.0076
1189.00,0.0076
1188.00,0.0075
1187.00,0.0075
1186.00,0.0075
1185.00,0.0075
1184.00,0.0075
1183.00,0.0076
1182.00,0.0078
1181.00,0.0081
1180.00,0.0084
1179.00,0.0089
1178.00,0.0095
1177.00,0.0104
1176.00,0.0116
1175.00,0.0133
1174.00,0.0154
1173.00,0.0182
1172.00,0.0214
1171.00,0.0249
1170.00,0.0283
1169.00,0.0310
1168.00,0.0327
1167.00,0.0331
1166.00,0.0322
1165.00,0.0305
1164.00,0.0284
1163.00,0.0264
1162.00,0.0246
1161.00,0.0231
1160.00,0.0218
1159.00,0.0208
1158.00,0.0200
1157.00,0.0193
1156.00,0.0189
1155.00,0.0186
1154.00,0.0184
1153.00,0.0181
1152.00,0.0176
1151.00,0.0170
1150.00,0.0161
1149.00,0.0151
1148.00,0.0140
1147.00,0.0131
1146.00,0.0122
1145.00,0.0115
1144.00,0.0108
1143.00,0.0102
1142.00,0.0096
1141.00,0.0091
1140.00,0.0087
1139.00,0.0083
1138.00,0.0080
1137.00,0.0077
1136.00,0.0074
1135.00,0.0072
1134.00,0.0070
1133.00,0.0068
1132.00,0.0067
1131.00,0.0067
1130.00,0.0067
1129.00,0.0068
1128.00,0.0070
1127.00,0.0072
1126.00,0.0074
1125.00,0.0076
1124.00,0.0077
1123.00,0.0077
1122.00,0.0077
1121.00,0.0076
1120.00,0.0075
1119.00,0.0076
1118.00,0.0077
1117.00,0.0078
1116.00,0.0080
1115.00,0.0082
1114.00,0.0084
1113.00,0.0087
1112.00,0.0089
1111.00,0.0092
1110.00,0.0095
1109.00,0.0099
1108.00,0.0104
1107.00,0.0111
1106.00,0.0118
1105.00,0.0125
1104.00,0.0131
1103.00,0.0134
1102.00,0.0133
1101.00,0.0130
1100.00,0.0124
1099.00,0.0118
1098.00,0.0111
1097.00,0.0104
1096.00,0.0098
1095.00,0.0093
1094.00,0.0088
1093.00,0.0085
1092.00,0.0082
1091.00,0.0079
1090.00,0.0076
1089.00,0.0073
1088.00,0.0071
1087.00,0.0070
1086.00,0.0070
1085.00,0.0069
1084.00,0.0068
1083.00,0.0067
1082.00,0.0066
1081.00,0.0064
1080.00,0.0063
1079.00,0.0062
1078.00,0.0062
1077.00,0.0061
1076.00,0.0061
1075.00,0.0062
1074.00,0.0062
1073.00,0.0062
1072.00,0.0061
1071.00,0.0061
1070.00,0.0060
1069.00,0.0060
1068.00,0.0061
1067.00,0.0063
1066.00,0.0064
1065.00,0.0066
1064.00,0.0067
1063.00,0.0067
1062.00,0.0067
1061.00,0.0068
1060.00,0.0068
1059.00,0.0070
1058.00,0.0071
1057.00,0.0071
1056.00,0.0071
1055.00,0.0072
1054.00,0.0073
1053.00,0.0075
1052.00,0.0076
1051.00,0.0079
1050.00,0.0081
1049.00,0.0084
1048.00,0.0087
1047.00,0.0091
1046.00,0.0094
1045.00,0.0096
1044.00,0.0096
1043.00,0.0096
1042.00,0.0094
1041.00,0.0093
1040.00,0.0092
1039.00,0.0092
1038.00,0.0094
1037.00,0.0095
1036.00,0.0097
1035.00,0.0097
1034.00,0.0096
1033.00,0.0094
1032.00,0.0092
1031.00,0.0091
1030.00,0.0090
1029.00,0.0090
1028.00,0.0090
1027.00,0.0090
1026.00,0.0090
1025.00,0.0090
1024.00,0.0090
1023.00,0.0090
1022.00,0.0090
1021.00,0.0090
1020.00,0.0091
1019.00,0.0093
1018.00,0.0095
1017.00,0.0097
1016.00,0.0099
1015.00,0.0102
1014.00,0.0107
1013.00,0.0112
1012.00,0.0117
1011.00,0.0121
1010.00,0.0126
1009.00,0.0130
1008.00,0.0135
1007.00,0.0141
1006.00,0.0151
1005.00,0.0163
1004.00,0.0180
1003.00,0.0203
1002.00,0.0234
1001.00,0.0271
1000.00,0.0311
999.00,0.0345
998.00,0.0362
997.00,0.0356
996.00,0.0329
995.00,0.0287
994.00,0.0244
993.00,0.0205
992.00,0.0176
991.00,0.0154
990.00,0.0138
989.00,0.0128
988.00,0.0121
987.00,0.0116
986.00,0.0115
985.00,0.0116
984.00,0.0120
983.00,0.0127
982.00,0.0139
981.00,0.0156
980.00,0.0179
979.00,0.0209
978.00,0.0246
977.00,0.0291
976.00,0.0340
975.00,0.0387
974.00,0.0422
973.00,0.0435
972.00,0.0421
971.00,0.0381
970.00,0.0326
969.00,0.0269
968.00,0.0219
967.00,0.0181
966.00,0.0153
965.00,0.0133
964.00,0.0118
963.00,0.0106
962.00,0.0097
961.00,0.0090
960.00,0.0084
959.00,0.0079
958.00,0.0074
957.00,0.0070
956.00,0.0066
955.00,0.0064
954.00,0.0064
953.00,0.0064
952.00,0.0064
951.00,0.0064
950.00,0.0063
949.00,0.0062
948.00,0.0062
947.00,0.0063
946.00,0.0065
945.00,0.0067
944.00,0.0070
943.00,0.0074
942.00,0.0078
941.00,0.0080
940.00,0.0080
939.00,0.0078
938.00,0.0076
937.00,0.0072
936.00,0.0069
935.00,0.0065
934.00,0.0062
933.00,0.0059
932.00,0.0058
931.00,0.0057
930.00,0.0057
929.00,0.0058
928.00,0.0059
927.00,0.0060
926.00,0.0061
925.00,0.0061
924.00,0.0061
923.00,0.0061
922.00,0.0062
921.00,0.0063
920.00,0.0065
919.00,0.0066
918.00,0.0068
917.00,0.0069
916.00,0.0070
915.00,0.0071
914.00,0.0072
913.00,0.0072
912.00,0.0073
911.00,0.0073
910.00,0.0074
909.00,0.0076
908.00,0.0079
907.00,0.0084
906.00,0.0091
905.00,0.0102
904.00,0.0117
903.00,0.0135
902.00,0.0156
901.00,0.0175
900.00,0.0189
899.00,0.0193
898.00,0.0185
897.00,0.0170
896.00,0.0150
895.00,0.0131
894.00,0.0114
893.00,0.0102
892.00,0.0093
891.00,0.0087
890.00,0.0081
889.00,0.0077
888.00,0.0074
887.00,0.0073
886.00,0.0072
885.00,0.0072
884.00,0.0072
883.00,0.0072
882.00,0.0072
881.00,0.0072
880.00,0.0072
879.00,0.0072
878.00,0.0072
877.00,0.0071
876.00,0.0071
875.00,0.0071
874.00,0.0071
873.00,0.0071
872.00,0.0071
871.00,0.0071
870.00,0.0072
869.00,0.0073
868.00,0.0075
867.00,0.0077
866.00,0.0078
865.00,0.0079
864.00,0.0079
863.00,0.0080
862.00,0.0081
861.00,0.0082
860.00,0.0083
859.00,0.0085
858.00,0.0087
857.00,0.0089
856.00,0.0092
855.00,0.0094
854.00,0.0095
853.00,0.0097
852.00,0.0099
851.00,0.0103
850.00,0.0110
849.00,0.0118
848.00,0.0130
847.00,0.0146
846.00,0.0169
845.00,0.0204
844.00,0.0252
843.00,0.0304
842.00,0.0344
841.00,0.0354
840.00,0.0330
839.00,0.0283
838.00,0.0233
837.00,0.0192
836.00,0.0165
835.00,0.0149
834.00,0.0138
833.00,0.0130
832.00,0.0124
831.00,0.0119
830.00,0.0115
829.00,0.0112
828.00,0.0110
827.00,0.0108
826.00,0.0107
825.00,0.0106
824.00,0.0104
823.00,0.0103
822.00,0.0104
821.00,0.0105
820.00,0.0108
819.00,0.0111
818.00,0.0114
817.00,0.0119
816.00,0.0126
815.00,0.0136
814.00,0.0150
813.00,0.0167
812.00,0.0185
811.00,0.0201
810.00,0.0213
809.00,0.0218
808.00,0.0217
807.00,0.0209
806.00,0.0196
805.00,0.0179
804.00,0.0162
803.00,0.0147
802.00,0.0136
801.00,0.0127
800.00,0.0120
799.00,0.0114
798.00,0.0108
797.00,0.0102
796.00,0.0098
795.00,0.0095
794.00,0.0092
793.00,0.0089
792.00,0.0086
791.00,0.0083
790.00,0.0081
789.00,0.0079
788.00,0.0077
787.00,0.0076
786.00,0.0075
785.00,0.0074
784.00,0.0073
783.00,0.0071
782.00,0.0070
781.00,0.0068
780.00,0.0066
779.00,0.0064
778.00,0.0063
777.00,0.0065
776.00,0.0067
775.00,0.0069
774.00,0.0072
773.00,0.0074
772.00,0.0075
771.00,0.0077
770.00,0.0078
769.00,0.0080
768.00,0.0083
767.00,0.0084
766.00,0.0085
765.00,0.0083
764.00,0.0080
763.00,0.0077
762.00,0.0074
761.00,0.0072
760.00,0.0070
759.00,0.0067
758.00,0.0064
757.00,0.0061
756.00,0.0058
755.00,0.0057
754.00,0.0056
753.00,0.0055
752.00,0.0053
751.00,0.0052
750.00,0.0053
749.00,0.0054
748.00,0.0056
747.00,0.0058
746.00,0.0059
745.00,0.0059
744.00,0.0059
743.00,0.0059
742.00,0.0059
741.00,0.0059
740.00,0.0059
739.00,0.0060
738.00,0.0061
737.00,0.0062
736.00,0.0063
735.00,0.0065
734.00,0.0066
733.00,0.0068
732.00,0.0069
731.00,0.0069
730.00,0.0068
729.00,0.0067
728.00,0.0065
727.00,0.0064
726.00,0.0064
725.00,0.0064
724.00,0.0065
723.00,0.0065
722.00,0.0065
721.00,0.0064
720.00,0.0063
719.00,0.0061
718.00,0.0060
717.00,0.0059
716.00,0.0057
715.00,0.0057
714.00,0.0057
713.00,0.0057
712.00,0.0057
711.00,0.0057
710.00,0.0057
709.00,0.0058
708.00,0.0059
707.00,0.0060
706.00,0.0060
705.00,0.0060
704.00,0.0059
703.00,0.0059
702.00,0.0058
701.00,0.0057
700.00,0.0057
699.00,0.0056
698.00,0.0056
697.00,0.0057
696.00,0.0056
695.00,0.0054
694.00,0.0052
693.00,0.0051
692.00,0.0051
691.00,0.0051
690.00,0.0052
689.00,0.0052
688.00,0.0052
687.00,0.0053
686.00,0.0054
685.00,0.0055
684.00,0.0055
683.00,0.0056
682.00,0.0056
681.00,0.0056
680.00,0.0055
679.00,0.0055
678.00,0.0056
677.00,0.0058
676.00,0.0059
675.00,0.0058
674.00,0.0057
673.00,0.0057
672.00,0.0056
671.00,0.0056
670.00,0.0056
669.00,0.0057
668.00,0.0057
667.00,0.0059
666.00,0.0060
665.00,0.0059
664.00,0.0056
663.00,0.0054
662.00,0.0053
661.00,0.0052
660.00,0.0052
659.00,0.0052
658.00,0.0053
657.00,0.0054
656.00,0.0054
655.00,0.0054
654.00,0.0055
653.00,0.0055
652.00,0.0055
651.00,0.0055
650.00,0.0053
649.00,0.0052
648.00,0.0051
647.00,0.0051
646.00,0.0053
645.00,0.0054
644.00,0.0055
643.00,0.0055
642.00,0.0055
641.00,0.0055
640.00,0.0055
639.00,0.0055
638.00,0.0056
637.00,0.0057
636.00,0.0059
635.00,0.0061
634.00,0.0061
633.00,0.0059
632.00,0.0056
631.00,0.0053
630.00,0.0053
629.00,0.0055
628.00,0.0058
627.00,0.0059
626.00,0.0060
625.00,0.0059
624.00,0.0058
623.00,0.0058
622.00,0.0058
621.00,0.0059
620.00,0.0058
619.00,0.0056
618.00,0.0054
617.00,0.0054
616.00,0.0056
615.00,0.0058
614.00,0.0060
613.00,0.0062
612.00,0.0065
611.00,0.0065
610.00,0.0062
609.00,0.0057
608.00,0.0053
607.00,0.0052
606.00,0.0053
605.00,0.0054
604.00,0.0055
603.00,0.0055
602.00,0.0054
601.00,0.0053
600.00,0.0054
599.00,0.0055
598.00,0.0057
597.00,0.0059
596.00,0.0061
595.00,0.0060
594.00,0.0058
593.00,0.0056
592.00,0.0055
591.00,0.0057
590.00,0.0060
589.00,0.0062
588.00,0.0064
587.00,0.0065
586.00,0.0065
585.00,0.0066
584.00,0.0067
583.00,0.0069
582.00,0.0070
581.00,0.0068
580.00,0.0065
579.00,0.0062
578.00,0.0061
577.00,0.0060
576.00,0.0060
575.00,0.0061
574.00,0.0062
573.00,0.0062
572.00,0.0061
571.00,0.0059
570.00,0.0057
569.00,0.0054
568.00,0.0052
567.00,0.0054
566.00,0.0058
565.00,0.0062
564.00,0.0064
563.00,0.0064
562.00,0.0062
561.00,0.0061
560.00,0.0062
559.00,0.0064
558.00,0.0066
557.00,0.0067
556.00,0.0066
555.00,0.0065
554.00,0.0064
553.00,0.0063
552.00,0.0061
551.00,0.0060
550.00,0.0060
549.00,0.0061
548.00,0.0063
547.00,0.0066
546.00,0.0069
545.00,0.0070
544.00,0.0070
543.00,0.0070
542.00,0.0070
541.00,0.0070
540.00,0.0069
539.00,0.0069
538.00,0.0070
537.00,0.0071
536.00,0.0071
535.00,0.0073
534.00,0.0077
533.00,0.0082
532.00,0.0084
531.00,0.0086
530.00,0.0087
529.00,0.0088
528.00,0.0088
527.00,0.0087
526.00,0.0088
525.00,0.0089
524.00,0.0088
523.00,0.0083
522.00,0.0075
521.00,0.0067
520.00,0.0063
519.00,0.0064
518.00,0.0067
517.00,0.0070
516.00,0.0070
515.00,0.0067
514.00,0.0063
513.00,0.0062
512.00,0.0065
511.00,0.0070
510.00,0.0072
509.00,0.0071
508.00,0.0066
507.00,0.0060
506.00,0.0056
505.00,0.0058
504.00,0.0064
503.00,0.0070
502.00,0.0071
501.00,0.0066
500.00,0.0061
499.00,0.0059
498.00,0.0061
497.00,0.0065
496.00,0.0068
495.00,0.0071
494.00,0.0070
493.00,0.0066
492.00,0.0063
491.00,0.0063
490.00,0.0068
489.00,0.0072
488.00,0.0073
487.00,0.0069
486.00,0.0062
485.00,0.0053
484.00,0.0047
483.00,0.0048
482.00,0.0054
481.00,0.0061
480.00,0.0063
479.00,0.0061
478.00,0.0060
477.00,0.0061
476.00,0.0064
475.00,0.0065
474.00,0.0065
473.00,0.0068
472.00,0.0079
471.00,0.0095
470.00,0.0107
469.00,0.0109
468.00,0.0103
467.00,0.0094
466.00,0.0090
465.00,0.0092
464.00,0.0103
463.00,0.0118
462.00,0.0135
461.00,0.0145
460.00,0.0151
459.00,0.0153
458.00,0.0147
457.00,0.0149
456.00,0.0149
455.00,0.0150
454.00,0.0152
453.00,0.0151
452.00,0.0141
451.00,0.0122
450.00,0.0098
