Created as New Dataset,Sample 003 By Administrator Date Friday, September 05 2025
cm-1,A
4000.00,0.0007
3999.00,0.0008
3998.00,0.0008
3997.00,0.0009
3996.00,0.0009
3995.00,0.0009
3994.00,0.0009
3993.00,0.0009
3992.00,0.0009
3991.00,0.0008
3990.00,0.0008
3989.00,0.0008
3988.00,0.0008
3987.00,0.0008
3986.00,0.0008
3985.00,0.0008
3984.00,0.0008
3983.00,0.0008
3982.00,0.0007
3981.00,0.0007
3980.00,0.0007
3979.00,0.0007
3978.00,0.0007
3977.00,0.0007
3976.00,0.0007
3975.00,0.0007
3974.00,0.0007
3973.00,0.0007
3972.00,0.0007
3971.00,0.0007
3970.00,0.0006
3969.00,0.0006
3968.00,0.0007
3967.00,0.0007
3966.00,0.0007
3965.00,0.0007
3964.00,0.0007
3963.00,0.0007
3962.00,0.0007
3961.00,0.0007
3960.00,0.0007
3959.00,0.0007
3958.00,0.0007
3957.00,0.0007
3956.00,0.0007
3955.00,0.0006
3954.00,0.0006
3953.00,0.0006
3952.00,0.0006
3951.00,0.0006
3950.00,0.0006
3949.00,0.0006
3948.00,0.0006
3947.00,0.0006
3946.00,0.0006
3945.00,0.0006
3944.00,0.0006
3943.00,0.0006
3942.00,0.0007
3941.00,0.0007
3940.00,0.0007
3939.00,0.0007
3938.00,0.0006
3937.00,0.0006
3936.00,0.0006
3935.00,0.0006
3934.00,0.0006
3933.00,0.0006
3932.00,0.0006
3931.00,0.0006
3930.00,0.0006
3929.00,0.0006
3928.00,0.0006
3927.00,0.0005
3926.00,0.0005
3925.00,0.0006
3924.00,0.0006
3923.00,0.0006
3922.00,0.0006
3921.00,0.0006
3920.00,0.0006
3919.00,0.0006
3918.00,0.0006
3917.00,0.0006
3916.00,0.0006
3915.00,0.0006
3914.00,0.0006
3913.00,0.0005
3912.00,0.0005
3911.00,0.0005
3910.00,0.0005
3909.00,0.0006
3908.00,0.0006
3907.00,0.0006
3906.00,0.0006
3905.00,0.0006
3904.00,0.0006
3903.00,0.0006
3902.00,0.0006
3901.00,0.0005
3900.00,0.0005
3899.00,0.0005
3898.00,0.0005
3897.00,0.0006
3896.00,0.0006
3895.00,0.0006
3894.00,0.0006
3893.00,0.0006
3892.00,0.0007
3891.00,0.0007
3890.00,0.0007
3889.00,0.0007
3888.00,0.0007
3887.00,0.0007
3886.00,0.0006
3885.00,0.0006
3884.00,0.0006
3883.00,0.0006
3882.00,0.0006
3881.00,0.0006
3880.00,0.0006
3879.00,0.0006
3878.00,0.0006
3877.00,0.0005
3876.00,0.0005
3875.00,0.0004
3874.00,0.0004
3873.00,0.0004
3872.00,0.0004
3871.00,0.0004
3870.00,0.0005
3869.00,0.0005
3868.00,0.0006
3867.00,0.0006
3866.00,0.0005
3865.00,0.0005
3864.00,0.0005
3863.00,0.0005
3862.00,0.0006
3861.00,0.0006
3860.00,0.0006
3859.00,0.0006
3858.00,0.0006
3857.00,0.0006
3856.00,0.0006
3855.00,0.0006
3854.00,0.0005
3853.00,0.0005
3852.00,0.0005
3851.00,0.0005
3850.00,0.0005
3849.00,0.0005
3848.00,0.0006
3847.00,0.0006
3846.00,0.0006
3845.00,0.0006
3844.00,0.0006
3843.00,0.0006
3842.00,0.0006
3841.00,0.0005
3840.00,0.0005
3839.00,0.0005
3838.00,0.0005
3837.00,0.0005
3836.00,0.0005
3835.00,0.0005
3834.00,0.0005
3833.00,0.0005
3832.00,0.0005
3831.00,0.0005
3830.00,0.0005
3829.00,0.0005
3828.00,0.0005
3827.00,0.0005
3826.00,0.0005
3825.00,0.0006
3824.00,0.0006
3823.00,0.0005
3822.00,0.0005
3821.00,0.0005
3820.00,0.0005
3819.00,0.0005
3818.00,0.0005
3817.00,0.0006
3816.00,0.0006
3815.00,0.0006
3814.00,0.0006
3813.00,0.0006
3812.00,0.0006
3811.00,0.0006
3810.00,0.0006
3809.00,0.0006
3808.00,0.0006
3807.00,0.0006
3806.00,0.0007
3805.00,0.0007
3804.00,0.0007
3803.00,0.0007
3802.00,0.0007
3801.00,0.0007
3800.00,0.0007
3799.00,0.0006
3798.00,0.0006
3797.00,0.0006
3796.00,0.0006
3795.00,0.0006
3794.00,0.0007
3793.00,0.0007
3792.00,0.0007
3791.00,0.0006
3790.00,0.0006
3789.00,0.0006
3788.00,0.0006
3787.00,0.0006
3786.00,0.0006
3785.00,0.0006
3784.00,0.0006
3783.00,0.0006
3782.00,0.0005
3781.00,0.0005
3780.00,0.0006
3779.00,0.0006
3778.00,0.0007
3777.00,0.0007
3776.00,0.0007
3775.00,0.0007
3774.00,0.0007
3773.00,0.0006
3772.00,0.0006
3771.00,0.0006
3770.00,0.0007
3769.00,0.0007
3768.00,0.0007
3767.00,0.0007
3766.00,0.0006
3765.00,0.0006
3764.00,0.0006
3763.00,0.0006
3762.00,0.0006
3761.00,0.0006
3760.00,0.0007
3759.00,0.0007
3758.00,0.0007
3757.00,0.0007
3756.00,0.0006
3755.00,0.0006
3754.00,0.0006
3753.00,0.0005
3752.00,0.0005
3751.00,0.0005
3750.00,0.0006
3749.00,0.0006
3748.00,0.0006
3747.00,0.0006
3746.00,0.0006
3745.00,0.0006
3744.00,0.0005
3743.00,0.0005
3742.00,0.0005
3741.00,0.0005
3740.00,0.0004
3739.00,0.0004
3738.00,0.0004
3737.00,0.0004
3736.00,0.0005
3735.00,0.0005
3734.00,0.0005
3733.00,0.0005
3732.00,0.0005
3731.00,0.0005
3730.00,0.0005
3729.00,0.0005
3728.00,0.0005
3727.00,0.0005
3726.00,0.0005
3725.00,0.0005
3724.00,0.0005
3723.00,0.0005
3722.00,0.0005
3721.00,0.0005
3720.00,0.0005
3719.00,0.0005
3718.00,0.0005
3717.00,0.0005
3716.00,0.0005
3715.00,0.0004
3714.00,0.0003
3713.00,0.0003
3712.00,0.0003
3711.00,0.0003
3710.00,0.0004
3709.00,0.0004
3708.00,0.0004
3707.00,0.0004
3706.00,0.0005
3705.00,0.0005
3704.00,0.0005
3703.00,0.0005
3702.00,0.0005
3701.00,0.0004
3700.00,0.0004
3699.00,0.0004
3698.00,0.0004
3697.00,0.0004
3696.00,0.0004
3695.00,0.0005
3694.00,0.0005
3693.00,0.0005
3692.00,0.0004
3691.00,0.0004
3690.00,0.0004
3689.00,0.0004
3688.00,0.0004
3687.00,0.0004
3686.00,0.0004
3685.00,0.0004
3684.00,0.0004
3683.00,0.0003
3682.00,0.0003
3681.00,0.0003
3680.00,0.0003
3679.00,0.0003
3678.00,0.0003
3677.00,0.0003
3676.00,0.0003
3675.00,0.0002
3674.00,0.0002
3673.00,0.0003
3672.00,0.0003
3671.00,0.0003
3670.00,0.0004
3669.00,0.0004
3668.00,0.0004
3667.00,0.0003
3666.00,0.0003
3665.00,0.0003
3664.00,0.0003
3663.00,0.0003
3662.00,0.0003
3661.00,0.0003
3660.00,0.0003
3659.00,0.0003
3658.00,0.0003
3657.00,0.0003
3656.00,0.0003
3655.00,0.0003
3654.00,0.0003
3653.00,0.0003
3652.00,0.0003
3651.00,0.0003
3650.00,0.0003
3649.00,0.0003
3648.00,0.0003
3647.00,0.0003
3646.00,0.0003
3645.00,0.0003
3644.00,0.0003
3643.00,0.0003
3642.00,0.0003
3641.00,0.0004
3640.00,0.0004
3639.00,0.0003
3638.00,0.0003
3637.00,0.0003
3636.00,0.0003
3635.00,0.0003
3634.00,0.0004
3633.00,0.0004
3632.00,0.0004
3631.00,0.0004
3630.00,0.0004
3629.00,0.0003
3628.00,0.0003
3627.00,0.0003
3626.00,0.0003
3625.00,0.0003
3624.00,0.0003
3623.00,0.0003
3622.00,0.0003
3621.00,0.0003
3620.00,0.0003
3619.00,0.0003
3618.00,0.0003
3617.00,0.0003
3616.00,0.0003
3615.00,0.0003
3614.00,0.0003
3613.00,0.0003
3612.00,0.0003
3611.00,0.0003
3610.00,0.0003
3609.00,0.0003
3608.00,0.0003
3607.00,0.0003
3606.00,0.0004
3605.00,0.0004
3604.00,0.0004
3603.00,0.0004
3602.00,0.0004
3601.00,0.0004
3600.00,0.0004
3599.00,0.0004
3598.00,0.0005
3597.00,0.0005
3596.00,0.0005
3595.00,0.0004
3594.00,0.0004
3593.00,0.0004
3592.00,0.0004
3591.00,0.0004
3590.00,0.0004
3589.00,0.0003
3588.00,0.0003
3587.00,0.0003
3586.00,0.0004
3585.00,0.0005
3584.00,0.0005
3583.00,0.0005
3582.00,0.0005
3581.00,0.0005
3580.00,0.0005
3579.00,0.0006
3578.00,0.0006
3577.00,0.0006
3576.00,0.0006
3575.00,0.0006
3574.00,0.0005
3573.00,0.0005
3572.00,0.0005
3571.00,0.0006
3570.00,0.0006
3569.00,0.0007
3568.00,0.0007
3567.00,0.0007
3566.00,0.0007
3565.00,0.0007
3564.00,0.0007
3563.00,0.0007
3562.00,0.0007
3561.00,0.0007
3560.00,0.0007
3559.00,0.0007
3558.00,0.0007
3557.00,0.0008
3556.00,0.0008
3555.00,0.0008
3554.00,0.0008
3553.00,0.0008
3552.00,0.0008
3551.00,0.0008
3550.00,0.0008
3549.00,0.0008
3548.00,0.0008
3547.00,0.0008
3546.00,0.0008
3545.00,0.0009
3544.00,0.0009
3543.00,0.0009
3542.00,0.0009
3541.00,0.0009
3540.00,0.0008
3539.00,0.0008
3538.00,0.0008
3537.00,0.0008
3536.00,0.0008
3535.00,0.0009
3534.00,0.0009
3533.00,0.0009
3532.00,0.0009
3531.00,0.0009
3530.00,0.0009
3529.00,0.0009
3528.00,0.0009
3527.00,0.0009
3526.00,0.0010
3525.00,0.0010
3524.00,0.0010
3523.00,0.0010
3522.00,0.0010
3521.00,0.0010
3520.00,0.0010
3519.00,0.0010
3518.00,0.0010
3517.00,0.0010
3516.00,0.0010
3515.00,0.0010
3514.00,0.0010
3513.00,0.0010
3512.00,0.0010
3511.00,0.0010
3510.00,0.0011
3509.00,0.0011
3508.00,0.0011
3507.00,0.0011
3506.00,0.0011
3505.00,0.0011
3504.00,0.0011
3503.00,0.0011
3502.00,0.0011
3501.00,0.0011
3500.00,0.0011
3499.00,0.0012
3498.00,0.0012
3497.00,0.0012
3496.00,0.0012
3495.00,0.0012
3494.00,0.0012
3493.00,0.0012
3492.00,0.0012
3491.00,0.0012
3490.00,0.0012
3489.00,0.0013
3488.00,0.0013
3487.00,0.0013
3486.00,0.0013
3485.00,0.0013
3484.00,0.0013
3483.00,0.0013
3482.00,0.0013
3481.00,0.0013
3480.00,0.0013
3479.00,0.0013
3478.00,0.0013
3477.00,0.0013
3476.00,0.0013
3475.00,0.0013
3474.00,0.0012
3473.00,0.0012
3472.00,0.0013
3471.00,0.0013
3470.00,0.0014
3469.00,0.0014
3468.00,0.0014
3467.00,0.0014
3466.00,0.0015
3465.00,0.0015
3464.00,0.0015
3463.00,0.0015
3462.00,0.0014
3461.00,0.0014
3460.00,0.0013
3459.00,0.0013
3458.00,0.0014
3457.00,0.0014
3456.00,0.0015
3455.00,0.0015
3454.00,0.0015
3453.00,0.0014
3452.00,0.0014
3451.00,0.0014
3450.00,0.0014
3449.00,0.0015
3448.00,0.0015
3447.00,0.0016
3446.00,0.0016
3445.00,0.0016
3444.00,0.0015
3443.00,0.0015
3442.00,0.0015
3441.00,0.0015
3440.00,0.0015
3439.00,0.0015
3438.00,0.0016
3437.00,0.0016
3436.00,0.0016
3435.00,0.0016
3434.00,0.0016
3433.00,0.0017
3432.00,0.0017
3431.00,0.0017
3430.00,0.0017
3429.00,0.0017
3428.00,0.0016
3427.00,0.0017
3426.00,0.0017
3425.00,0.0017
3424.00,0.0017
3423.00,0.0017
3422.00,0.0018
3421.00,0.0018
3420.00,0.0018
3419.00,0.0018
3418.00,0.0018
3417.00,0.0018
3416.00,0.0018
3415.00,0.0018
3414.00,0.0018
3413.00,0.0018
3412.00,0.0018
3411.00,0.0019
3410.00,0.0019
3409.00,0.0019
3408.00,0.0018
3407.00,0.0018
3406.00,0.0018
3405.00,0.0018
3404.00,0.0018
3403.00,0.0018
3402.00,0.0018
3401.00,0.0017
3400.00,0.0018
3399.00,0.0018
3398.00,0.0018
3397.00,0.0019
3396.00,0.0019
3395.00,0.0019
3394.00,0.0019
3393.00,0.0019
3392.00,0.0019
3391.00,0.0019
3390.00,0.0019
3389.00,0.0019
3388.00,0.0019
3387.00,0.0019
3386.00,0.0019
3385.00,0.0019
3384.00,0.0019
3383.00,0.0019
3382.00,0.0019
3381.00,0.0019
3380.00,0.0019
3379.00,0.0019
3378.00,0.0019
3377.00,0.0019
3376.00,0.0019
3375.00,0.0019
3374.00,0.0019
3373.00,0.0019
3372.00,0.0019
3371.00,0.0019
3370.00,0.0019
3369.00,0.0020
3368.00,0.0020
3367.00,0.0020
3366.00,0.0020
3365.00,0.0019
3364.00,0.0019
3363.00,0.0019
3362.00,0.0019
3361.00,0.0020
3360.00,0.0020
3359.00,0.0021
3358.00,0.0021
3357.00,0.0021
3356.00,0.0021
3355.00,0.0021
3354.00,0.0020
3353.00,0.0020
3352.00,0.0020
3351.00,0.0020
3350.00,0.0020
3349.00,0.0020
3348.00,0.0020
3347.00,0.0020
3346.00,0.0020
3345.00,0.0020
3344.00,0.0020
3343.00,0.0020
3342.00,0.0020
3341.00,0.0020
3340.00,0.0020
3339.00,0.0020
3338.00,0.0020
3337.00,0.0020
3336.00,0.0020
3335.00,0.0020
3334.00,0.0020
3333.00,0.0020
3332.00,0.0020
3331.00,0.0019
3330.00,0.0019
3329.00,0.0019
3328.00,0.0019
3327.00,0.0019
3326.00,0.0019
3325.00,0.0019
3324.00,0.0019
3323.00,0.0018
3322.00,0.0019
3321.00,0.0019
3320.00,0.0019
3319.00,0.0019
3318.00,0.0019
3317.00,0.0019
3316.00,0.0019
3315.00,0.0019
3314.00,0.0019
3313.00,0.0019
3312.00,0.0019
3311.00,0.0019
3310.00,0.0019
3309.00,0.0019
3308.00,0.0019
3307.00,0.0019
3306.00,0.0018
3305.00,0.0018
3304.00,0.0018
3303.00,0.0019
3302.00,0.0019
3301.00,0.0019
3300.00,0.0020
3299.00,0.0020
3298.00,0.0019
3297.00,0.0019
3296.00,0.0019
3295.00,0.0019
3294.00,0.0019
3293.00,0.0019
3292.00,0.0020
3291.00,0.0020
3290.00,0.0020
3289.00,0.0020
3288.00,0.0019
3287.00,0.0019
3286.00,0.0019
3285.00,0.0018
3284.00,0.0018
3283.00,0.0018
3282.00,0.0018
3281.00,0.0018
3280.00,0.0018
3279.00,0.0018
3278.00,0.0018
3277.00,0.0018
3276.00,0.0018
3275.00,0.0018
3274.00,0.0018
3273.00,0.0018
3272.00,0.0018
3271.00,0.0018
3270.00,0.0018
3269.00,0.0018
3268.00,0.0018
3267.00,0.0018
3266.00,0.0018
3265.00,0.0018
3264.00,0.0018
3263.00,0.0018
3262.00,0.0018
3261.00,0.0018
3260.00,0.0018
3259.00,0.0018
3258.00,0.0018
3257.00,0.0018
3256.00,0.0018
3255.00,0.0018
3254.00,0.0018
3253.00,0.0018
3252.00,0.0018
3251.00,0.0018
3250.00,0.0018
3249.00,0.0018
3248.00,0.0018
3247.00,0.0018
3246.00,0.0018
3245.00,0.0018
3244.00,0.0018
3243.00,0.0018
3242.00,0.0018
3241.00,0.0018
3240.00,0.0018
3239.00,0.0018
3238.00,0.0018
3237.00,0.0018
3236.00,0.0018
3235.00,0.0018
3234.00,0.0018
3233.00,0.0018
3232.00,0.0018
3231.00,0.0019
3230.00,0.0019
3229.00,0.0019
3228.00,0.0019
3227.00,0.0020
3226.00,0.0020
3225.00,0.0020
3224.00,0.0020
3223.00,0.0020
3222.00,0.0020
3221.00,0.0021
3220.00,0.0021
3219.00,0.0022
3218.00,0.0022
3217.00,0.0022
3216.00,0.0023
3215.00,0.0023
3214.00,0.0023
3213.00,0.0023
3212.00,0.0023
3211.00,0.0023
3210.00,0.0023
3209.00,0.0023
3208.00,0.0023
3207.00,0.0024
3206.00,0.0024
3205.00,0.0024
3204.00,0.0025
3203.00,0.0025
3202.00,0.0025
3201.00,0.0025
3200.00,0.0025
3199.00,0.0025
3198.00,0.0025
3197.00,0.0025
3196.00,0.0025
3195.00,0.0026
3194.00,0.0025
3193.00,0.0025
3192.00,0.0025
3191.00,0.0025
3190.00,0.0025
3189.00,0.0026
3188.00,0.0026
3187.00,0.0026
3186.00,0.0026
3185.00,0.0025
3184.00,0.0025
3183.00,0.0025
3182.00,0.0024
3181.00,0.0024
3180.00,0.0024
3179.00,0.0024
3178.00,0.0024
3177.00,0.0024
3176.00,0.0024
3175.00,0.0023
3174.00,0.0023
3173.00,0.0023
3172.00,0.0023
3171.00,0.0023
3170.00,0.0023
3169.00,0.0023
3168.00,0.0023
3167.00,0.0022
3166.00,0.0022
3165.00,0.0022
3164.00,0.0022
3163.00,0.0022
3162.00,0.0023
3161.00,0.0023
3160.00,0.0023
3159.00,0.0023
3158.00,0.0023
3157.00,0.0023
3156.00,0.0022
3155.00,0.0022
3154.00,0.0022
3153.00,0.0023
3152.00,0.0023
3151.00,0.0023
3150.00,0.0024
3149.00,0.0024
3148.00,0.0024
3147.00,0.0024
3146.00,0.0024
3145.00,0.0024
3144.00,0.0024
3143.00,0.0024
3142.00,0.0023
3141.00,0.0022
3140.00,0.0022
3139.00,0.0022
3138.00,0.0022
3137.00,0.0022
3136.00,0.0022
3135.00,0.0022
3134.00,0.0022
3133.00,0.0022
3132.00,0.0022
3131.00,0.0022
3130.00,0.0022
3129.00,0.0022
3128.00,0.0022
3127.00,0.0021
3126.00,0.0021
3125.00,0.0021
3124.00,0.0021
3123.00,0.0021
3122.00,0.0021
3121.00,0.0021
3120.00,0.0021
3119.00,0.0021
3118.00,0.0020
3117.00,0.0020
3116.00,0.0019
3115.00,0.0019
3114.00,0.0019
3113.00,0.0018
3112.00,0.0019
3111.00,0.0019
3110.00,0.0019
3109.00,0.0019
3108.00,0.0020
3107.00,0.0020
3106.00,0.0020
3105.00,0.0019
3104.00,0.0019
3103.00,0.0019
3102.00,0.0019
3101.00,0.0019
3100.00,0.0019
3099.00,0.0019
3098.00,0.0019
3097.00,0.0020
3096.00,0.0019
3095.00,0.0019
3094.00,0.0019
3093.00,0.0019
3092.00,0.0019
3091.00,0.0019
3090.00,0.0019
3089.00,0.0019
3088.00,0.0019
3087.00,0.0019
3086.00,0.0019
3085.00,0.0019
3084.00,0.0019
3083.00,0.0019
3082.00,0.0019
3081.00,0.0019
3080.00,0.0020
3079.00,0.0020
3078.00,0.0019
3077.00,0.0019
3076.00,0.0018
3075.00,0.0018
3074.00,0.0019
3073.00,0.0019
3072.00,0.0020
3071.00,0.0020
3070.00,0.0020
3069.00,0.0020
3068.00,0.0021
3067.00,0.0021
3066.00,0.0021
3065.00,0.0021
3064.00,0.0021
3063.00,0.0021
3062.00,0.0021
3061.00,0.0022
3060.00,0.0022
3059.00,0.0022
3058.00,0.0022
3057.00,0.0023
3056.00,0.0023
3055.00,0.0023
3054.00,0.0023
3053.00,0.0024
3052.00,0.0024
3051.00,0.0024
3050.00,0.0024
3049.00,0.0024
3048.00,0.0024
3047.00,0.0024
3046.00,0.0024
3045.00,0.0024
3044.00,0.0024
3043.00,0.0024
3042.00,0.0025
3041.00,0.0025
3040.00,0.0026
3039.00,0.0026
3038.00,0.0026
3037.00,0.0027
3036.00,0.0027
3035.00,0.0027
3034.00,0.0028
3033.00,0.0028
3032.00,0.0029
3031.00,0.0029
3030.00,0.0030
3029.00,0.0030
3028.00,0.0031
3027.00,0.0031
3026.00,0.0031
3025.00,0.0032
3024.00,0.0033
3023.00,0.0033
3022.00,0.0034
3021.00,0.0035
3020.00,0.0036
3019.00,0.0037
3018.00,0.0037
3017.00,0.0038
3016.00,0.0039
3015.00,0.0040
3014.00,0.0041
3013.00,0.0043
3012.00,0.0044
3011.00,0.0045
3010.00,0.0047
3009.00,0.0048
3008.00,0.0050
3007.00,0.0051
3006.00,0.0053
3005.00,0.0054
3004.00,0.0056
3003.00,0.0058
3002.00,0.0061
3001.00,0.0063
3000.00,0.0066
2999.00,0.0068
2998.00,0.0071
2997.00,0.0075
2996.00,0.0079
2995.00,0.0083
2994.00,0.0088
2993.00,0.0093
2992.00,0.0098
2991.00,0.0104
2990.00,0.0111
2989.00,0.0118
2988.00,0.0126
2987.00,0.0135
2986.00,0.0145
2985.00,0.0155
2984.00,0.0168
2983.00,0.0182
2982.00,0.0198
2981.00,0.0217
2980.00,0.0238
2979.00,0.0262
2978.00,0.0288
2977.00,0.0319
2976.00,0.0353
2975.00,0.0392
2974.00,0.0437
2973.00,0.0488
2972.00,0.0545
2971.00,0.0610
2970.00,0.0682
2969.00,0.0761
2968.00,0.0848
2967.00,0.0941
2966.00,0.1039
2965.00,0.1139
2964.00,0.1238
2963.00,0.1330
2962.00,0.1412
2961.00,0.1479
2960.00,0.1531
2959.00,0.1571
2958.00,0.1604
2957.00,0.1638
2956.00,0.1679
2955.00,0.1732
2954.00,0.1796
2953.00,0.1865
2952.00,0.1931
2951.00,0.1983
2950.00,0.2006
2949.00,0.1992
2948.00,0.1935
2947.00,0.1839
2946.00,0.1713
2945.00,0.1572
2944.00,0.1431
2943.00,0.1304
2942.00,0.1201
2941.00,0.1124
2940.00,0.1076
2939.00,0.1052
2938.00,0.1050
2937.00,0.1068
2936.00,0.1103
2935.00,0.1155
2934.00,0.1221
2933.00,0.1301
2932.00,0.1393
2931.00,0.1494
2930.00,0.1603
2929.00,0.1715
2928.00,0.1828
2927.00,0.1937
2926.00,0.2042
2925.00,0.2142
2924.00,0.2240
2923.00,0.2336
2922.00,0.2431
2921.00,0.2522
2920.00,0.2603
2919.00,0.2666
2918.00,0.2701
2917.00,0.2700
2916.00,0.2662
2915.00,0.2591
2914.00,0.2498
2913.00,0.2394
2912.00,0.2290
2911.00,0.2191
2910.00,0.2102
2909.00,0.2022
2908.00,0.1947
2907.00,0.1876
2906.00,0.1805
2905.00,0.1734
2904.00,0.1661
2903.00,0.1588
2902.00,0.1516
2901.00,0.1444
2900.00,0.1375
2899.00,0.1310
2898.00,0.1250
2897.00,0.1196
2896.00,0.1149
2895.00,0.1109
2894.00,0.1077
2893.00,0.1052
2892.00,0.1034
2891.00,0.1023
2890.00,0.1017
2889.00,0.1017
2888.00,0.1020
2887.00,0.1028
2886.00,0.1039
2885.00,0.1054
2884.00,0.1073
2883.00,0.1097
2882.00,0.1125
2881.00,0.1155
2880.00,0.1184
2879.00,0.1208
2878.00,0.1223
2877.00,0.1227
2876.00,0.1222
2875.00,0.1213
2874.00,0.1205
2873.00,0.1202
2872.00,0.1207
2871.00,0.1221
2870.00,0.1241
2869.00,0.1262
2868.00,0.1276
2867.00,0.1275
2866.00,0.1249
2865.00,0.1196
2864.00,0.1118
2863.00,0.1023
2862.00,0.0923
2861.00,0.0829
2860.00,0.0747
2859.00,0.0681
2858.00,0.0631
2857.00,0.0596
2856.00,0.0573
2855.00,0.0561
2854.00,0.0559
2853.00,0.0565
2852.00,0.0578
2851.00,0.0598
2850.00,0.0624
2849.00,0.0655
2848.00,0.0691
2847.00,0.0734
2846.00,0.0785
2845.00,0.0846
2844.00,0.0915
2843.00,0.0990
2842.00,0.1067
2841.00,0.1140
2840.00,0.1200
2839.00,0.1238
2838.00,0.1245
2837.00,0.1217
2836.00,0.1154
2835.00,0.1062
2834.00,0.0954
2833.00,0.0840
2832.00,0.0732
2831.00,0.0637
2830.00,0.0556
2829.00,0.0490
2828.00,0.0436
2827.00,0.0393
2826.00,0.0358
2825.00,0.0330
2824.00,0.0306
2823.00,0.0286
2822.00,0.0269
2821.00,0.0254
2820.00,0.0241
2819.00,0.0230
2818.00,0.0220
2817.00,0.0212
2816.00,0.0204
2815.00,0.0197
2814.00,0.0191
2813.00,0.0186
2812.00,0.0181
2811.00,0.0176
2810.00,0.0171
2809.00,0.0165
2808.00,0.0160
2807.00,0.0153
2806.00,0.0147
2805.00,0.0140
2804.00,0.0134
2803.00,0.0128
2802.00,0.0122
2801.00,0.0117
2800.00,0.0113
2799.00,0.0110
2798.00,0.0108
2797.00,0.0105
2796.00,0.0103
2795.00,0.0101
2794.00,0.0098
2793.00,0.0095
2792.00,0.0092
2791.00,0.0089
2790.00,0.0086
2789.00,0.0082
2788.00,0.0079
2787.00,0.0076
2786.00,0.0074
2785.00,0.0071
2784.00,0.0069
2783.00,0.0067
2782.00,0.0065
2781.00,0.0063
2780.00,0.0062
2779.00,0.0060
2778.00,0.0058
2777.00,0.0057
2776.00,0.0056
2775.00,0.0055
2774.00,0.0054
2773.00,0.0054
2772.00,0.0054
2771.00,0.0053
2770.00,0.0053
2769.00,0.0052
2768.00,0.0051
2767.00,0.0051
2766.00,0.0050
2765.00,0.0050
2764.00,0.0050
2763.00,0.0050
2762.00,0.0050
2761.00,0.0049
2760.00,0.0049
2759.00,0.0049
2758.00,0.0048
2757.00,0.0048
2756.00,0.0048
2755.00,0.0048
2754.00,0.0048
2753.00,0.0048
2752.00,0.0047
2751.00,0.0047
2750.00,0.0047
2749.00,0.0047
2748.00,0.0047
2747.00,0.0048
2746.00,0.0048
2745.00,0.0049
2744.00,0.0049
2743.00,0.0050
2742.00,0.0051
2741.00,0.0052
2740.00,0.0054
2739.00,0.0055
2738.00,0.0057
2737.00,0.0058
2736.00,0.0060
2735.00,0.0061
2734.00,0.0063
2733.00,0.0064
2732.00,0.0066
2731.00,0.0069
2730.00,0.0071
2729.00,0.0073
2728.00,0.0076
2727.00,0.0079
2726.00,0.0082
2725.00,0.0085
2724.00,0.0086
2723.00,0.0087
2722.00,0.0086
2721.00,0.0084
2720.00,0.0081
2719.00,0.0077
2718.00,0.0074
2717.00,0.0071
2716.00,0.0068
2715.00,0.0065
2714.00,0.0063
2713.00,0.0061
2712.00,0.0059
2711.00,0.0057
2710.00,0.0055
2709.00,0.0053
2708.00,0.0051
2707.00,0.0050
2706.00,0.0049
2705.00,0.0048
2704.00,0.0047
2703.00,0.0046
2702.00,0.0045
2701.00,0.0044
2700.00,0.0044
2699.00,0.0043
2698.00,0.0043
2697.00,0.0042
2696.00,0.0042
2695.00,0.0041
2694.00,0.0041
2693.00,0.0041
2692.00,0.0042
2691.00,0.0042
2690.00,0.0042
2689.00,0.0042
2688.00,0.0041
2687.00,0.0041
2686.00,0.0041
2685.00,0.0041
2684.00,0.0041
2683.00,0.0042
2682.00,0.0042
2681.00,0.0043
2680.00,0.0043
2679.00,0.0043
2678.00,0.0043
2677.00,0.0042
2676.00,0.0042
2675.00,0.0042
2674.00,0.0042
2673.00,0.0042
2672.00,0.0042
2671.00,0.0042
2670.00,0.0042
2669.00,0.0042
2668.00,0.0042
2667.00,0.0042
2666.00,0.0043
2665.00,0.0043
2664.00,0.0044
2663.00,0.0044
2662.00,0.0044
2661.00,0.0045
2660.00,0.0044
2659.00,0.0044
2658.00,0.0044
2657.00,0.0044
2656.00,0.0043
2655.00,0.0043
2654.00,0.0043
2653.00,0.0042
2652.00,0.0042
2651.00,0.0041
2650.00,0.0041
2649.00,0.0040
2648.00,0.0040
2647.00,0.0040
2646.00,0.0039
2645.00,0.0039
2644.00,0.0038
2643.00,0.0037
2642.00,0.0037
2641.00,0.0036
2640.00,0.0035
2639.00,0.0035
2638.00,0.0035
2637.00,0.0035
2636.00,0.0035
2635.00,0.0035
2634.00,0.0035
2633.00,0.0035
2632.00,0.0035
2631.00,0.0036
2630.00,0.0036
2629.00,0.0036
2628.00,0.0036
2627.00,0.0036
2626.00,0.0036
2625.00,0.0037
2624.00,0.0037
2623.00,0.0037
2622.00,0.0037
2621.00,0.0037
2620.00,0.0038
2619.00,0.0038
2618.00,0.0038
2617.00,0.0038
2616.00,0.0038
2615.00,0.0037
2614.00,0.0037
2613.00,0.0036
2612.00,0.0036
2611.00,0.0035
2610.00,0.0035
2609.00,0.0034
2608.00,0.0034
2607.00,0.0033
2606.00,0.0033
2605.00,0.0033
2604.00,0.0032
2603.00,0.0031
2602.00,0.0031
2601.00,0.0031
2600.00,0.0031
2599.00,0.0031
2598.00,0.0031
2597.00,0.0031
2596.00,0.0031
2595.00,0.0031
2594.00,0.0031
2593.00,0.0031
2592.00,0.0031
2591.00,0.0032
2590.00,0.0032
2589.00,0.0033
2588.00,0.0034
2587.00,0.0036
2586.00,0.0037
2585.00,0.0038
2584.00,0.0038
2583.00,0.0039
2582.00,0.0038
2581.00,0.0038
2580.00,0.0038
2579.00,0.0037
2578.00,0.0036
2577.00,0.0035
2576.00,0.0034
2575.00,0.0033
2574.00,0.0032
2573.00,0.0031
2572.00,0.0029
2571.00,0.0028
2570.00,0.0027
2569.00,0.0026
2568.00,0.0025
2567.00,0.0025
2566.00,0.0025
2565.00,0.0025
2564.00,0.0024
2563.00,0.0024
2562.00,0.0023
2561.00,0.0023
2560.00,0.0022
2559.00,0.0022
2558.00,0.0021
2557.00,0.0021
2556.00,0.0020
2555.00,0.0020
2554.00,0.0020
2553.00,0.0020
2552.00,0.0020
2551.00,0.0020
2550.00,0.0019
2549.00,0.0019
2548.00,0.0018
2547.00,0.0018
2546.00,0.0017
2545.00,0.0016
2544.00,0.0016
2543.00,0.0016
2542.00,0.0016
2541.00,0.0016
2540.00,0.0016
2539.00,0.0015
2538.00,0.0015
2537.00,0.0015
2536.00,0.0014
2535.00,0.0014
2534.00,0.0014
2533.00,0.0014
2532.00,0.0014
2531.00,0.0014
2530.00,0.0014
2529.00,0.0013
2528.00,0.0013
2527.00,0.0013
2526.00,0.0013
2525.00,0.0013
2524.00,0.0012
2523.00,0.0012
2522.00,0.0011
2521.00,0.0011
2520.00,0.0010
2519.00,0.0010
2518.00,0.0010
2517.00,0.0009
2516.00,0.0009
2515.00,0.0010
2514.00,0.0010
2513.00,0.0010
2512.00,0.0010
2511.00,0.0009
2510.00,0.0009
2509.00,0.0008
2508.00,0.0008
2507.00,0.0008
2506.00,0.0008
2505.00,0.0007
2504.00,0.0007
2503.00,0.0008
2502.00,0.0008
2501.00,0.0009
2500.00,0.0009
2499.00,0.0009
2498.00,0.0009
2497.00,0.0008
2496.00,0.0008
2495.00,0.0008
2494.00,0.0008
2493.00,0.0008
2492.00,0.0008
2491.00,0.0009
2490.00,0.0009
2489.00,0.0010
2488.00,0.0009
2487.00,0.0008
2486.00,0.0008
2485.00,0.0008
2484.00,0.0009
2483.00,0.0010
2482.00,0.0010
2481.00,0.0010
2480.00,0.0009
2479.00,0.0009
2478.00,0.0008
2477.00,0.0008
2476.00,0.0008
2475.00,0.0008
2474.00,0.0009
2473.00,0.0009
2472.00,0.0009
2471.00,0.0008
2470.00,0.0008
2469.00,0.0007
2468.00,0.0007
2467.00,0.0007
2466.00,0.0007
2465.00,0.0008
2464.00,0.0008
2463.00,0.0008
2462.00,0.0008
2461.00,0.0009
2460.00,0.0009
2459.00,0.0009
2458.00,0.0010
2457.00,0.0010
2456.00,0.0010
2455.00,0.0010
2454.00,0.0010
2453.00,0.0010
2452.00,0.0010
2451.00,0.0010
2450.00,0.0010
2449.00,0.0010
2448.00,0.0010
2447.00,0.0010
2446.00,0.0009
2445.00,0.0009
2444.00,0.0009
2443.00,0.0009
2442.00,0.0008
2441.00,0.0008
2440.00,0.0008
2439.00,0.0008
2438.00,0.0009
2437.00,0.0010
2436.00,0.0010
2435.00,0.0011
2434.00,0.0011
2433.00,0.0011
2432.00,0.0011
2431.00,0.0011
2430.00,0.0011
2429.00,0.0011
2428.00,0.0011
2427.00,0.0011
2426.00,0.0011
2425.00,0.0011
2424.00,0.0011
2423.00,0.0011
2422.00,0.0011
2421.00,0.0011
2420.00,0.0011
2419.00,0.0011
2418.00,0.0010
2417.00,0.0009
2416.00,0.0009
2415.00,0.0008
2414.00,0.0008
2413.00,0.0008
2412.00,0.0008
2411.00,0.0008
2410.00,0.0009
2409.00,0.0009
2408.00,0.0009
2407.00,0.0009
2406.00,0.0008
2405.00,0.0008
2404.00,0.0008
2403.00,0.0008
2402.00,0.0008
2401.00,0.0008
2400.00,0.0008
2399.00,0.0008
2398.00,0.0008
2397.00,0.0008
2396.00,0.0008
2395.00,0.0008
2394.00,0.0008
2393.00,0.0008
2392.00,0.0008
2391.00,0.0008
2390.00,0.0007
2389.00,0.0007
2388.00,0.0007
2387.00,0.0007
2386.00,0.0007
2385.00,0.0006
2384.00,0.0005
2383.00,0.0004
2382.00,0.0004
2381.00,0.0003
2380.00,0.0002
2379.00,0.0002
2378.00,0.0001
2377.00,0.0001
2376.00,0.0001
2375.00,0.0001
2374.00,0.0001
2373.00,0.0002
2372.00,0.0002
2371.00,0.0003
2370.00,0.0003
2369.00,0.0004
2368.00,0.0004
2367.00,0.0003
2366.00,0.0003
2365.00,0.0003
2364.00,0.0003
2363.00,0.0003
2362.00,0.0003
2361.00,0.0003
2360.00,0.0003
2359.00,0.0003
2358.00,0.0003
2357.00,0.0003
2356.00,0.0004
2355.00,0.0004
2354.00,0.0004
2353.00,0.0004
2352.00,0.0004
2351.00,0.0004
2350.00,0.0004
2349.00,0.0004
2348.00,0.0003
2347.00,0.0002
2346.00,0.0002
2345.00,0.0004
2344.00,0.0005
2343.00,0.0006
2342.00,0.0006
2341.00,0.0005
2340.00,0.0004
2339.00,0.0004
2338.00,0.0005
2337.00,0.0006
2336.00,0.0007
2335.00,0.0007
2334.00,0.0006
2333.00,0.0005
2332.00,0.0005
2331.00,0.0005
2330.00,0.0006
2329.00,0.0007
2328.00,0.0008
2327.00,0.0011
2326.00,0.0014
2325.00,0.0017
2324.00,0.0018
2323.00,0.0017
2322.00,0.0015
2321.00,0.0013
2320.00,0.0012
2319.00,0.0012
2318.00,0.0011
2317.00,0.0011
2316.00,0.0011
2315.00,0.0011
2314.00,0.0011
2313.00,0.0011
2312.00,0.0010
2311.00,0.0010
2310.00,0.0009
2309.00,0.0009
2308.00,0.0009
2307.00,0.0009
2306.00,0.0009
2305.00,0.0010
2304.00,0.0011
2303.00,0.0011
2302.00,0.0012
2301.00,0.0012
2300.00,0.0013
2299.00,0.0013
2298.00,0.0013
2297.00,0.0013
2296.00,0.0014
2295.00,0.0014
2294.00,0.0015
2293.00,0.0016
2292.00,0.0016
2291.00,0.0016
2290.00,0.0016
2289.00,0.0016
2288.00,0.0017
2287.00,0.0017
2286.00,0.0017
2285.00,0.0017
2284.00,0.0016
2283.00,0.0016
2282.00,0.0015
2281.00,0.0014
2280.00,0.0014
2279.00,0.0013
2278.00,0.0013
2277.00,0.0012
2276.00,0.0012
2275.00,0.0012
2274.00,0.0013
2273.00,0.0014
2272.00,0.0014
2271.00,0.0014
2270.00,0.0013
2269.00,0.0012
2268.00,0.0011
2267.00,0.0011
2266.00,0.0011
2265.00,0.0012
2264.00,0.0011
2263.00,0.0011
2262.00,0.0010
2261.00,0.0010
2260.00,0.0010
2259.00,0.0011
2258.00,0.0012
2257.00,0.0013
2256.00,0.0013
2255.00,0.0012
2254.00,0.0010
2253.00,0.0009
2252.00,0.0008
2251.00,0.0007
2250.00,0.0006
2249.00,0.0006
2248.00,0.0007
2247.00,0.0007
2246.00,0.0008
2245.00,0.0008
2244.00,0.0008
2243.00,0.0007
2242.00,0.0007
2241.00,0.0007
2240.00,0.0008
2239.00,0.0008
2238.00,0.0008
2237.00,0.0008
2236.00,0.0007
2235.00,0.0006
2234.00,0.0006
2233.00,0.0007
2232.00,0.0008
2231.00,0.0008
2230.00,0.0008
2229.00,0.0009
2228.00,0.0009
2227.00,0.0009
2226.00,0.0008
2225.00,0.0007
2224.00,0.0006
2223.00,0.0006
2222.00,0.0006
2221.00,0.0006
2220.00,0.0006
2219.00,0.0006
2218.00,0.0006
2217.00,0.0004
2216.00,0.0003
2215.00,0.0000
2214.00,-0.0001
2213.00,-0.0000
2212.00,0.0002
2211.00,0.0003
2210.00,0.0005
2209.00,0.0005
2208.00,0.0006
2207.00,0.0005
2206.00,0.0004
2205.00,0.0003
2204.00,0.0003
2203.00,0.0004
2202.00,0.0005
2201.00,0.0006
2200.00,0.0006
2199.00,0.0006
2198.00,0.0007
2197.00,0.0009
2196.00,0.0010
2195.00,0.0010
2194.00,0.0010
2193.00,0.0009
2192.00,0.0008
2191.00,0.0007
2190.00,0.0007
2189.00,0.0007
2188.00,0.0008
2187.00,0.0009
2186.00,0.0009
2185.00,0.0009
2184.00,0.0007
2183.00,0.0005
2182.00,0.0001
2181.00,-0.0001
2180.00,-0.0001
2179.00,0.0000
2178.00,0.0001
2177.00,-0.0000
2176.00,-0.0003
2175.00,-0.0006
2174.00,-0.0006
2173.00,-0.0004
2172.00,-0.0000
2171.00,0.0004
2170.00,0.0009
2169.00,0.0013
2168.00,0.0017
2167.00,0.0018
2166.00,0.0018
2165.00,0.0017
2164.00,0.0016
2163.00,0.0017
2162.00,0.0017
2161.00,0.0013
2160.00,0.0000
2159.00,-0.0016
2158.00,-0.0030
2157.00,-0.0035
2156.00,-0.0033
2155.00,-0.0030
2154.00,-0.0026
2153.00,-0.0024
2152.00,-0.0021
2151.00,-0.0019
2150.00,-0.0017
2149.00,-0.0017
2148.00,-0.0017
2147.00,-0.0019
2146.00,-0.0020
2145.00,-0.0019
2144.00,-0.0017
2143.00,-0.0016
2142.00,-0.0016
2141.00,-0.0016
2140.00,-0.0016
2139.00,-0.0015
2138.00,-0.0015
2137.00,-0.0014
2136.00,-0.0015
2135.00,-0.0016
2134.00,-0.0017
2133.00,-0.0017
2132.00,-0.0016
2131.00,-0.0015
2130.00,-0.0014
2129.00,-0.0014
2128.00,-0.0013
2127.00,-0.0012
2126.00,-0.0011
2125.00,-0.0009
2124.00,-0.0006
2123.00,-0.0004
2122.00,-0.0002
2121.00,-0.0002
2120.00,-0.0003
2119.00,-0.0005
2118.00,-0.0006
2117.00,-0.0005
2116.00,-0.0003
2115.00,-0.0001
2114.00,0.0000
2113.00,0.0001
2112.00,0.0002
2111.00,0.0002
2110.00,0.0003
2109.00,0.0004
2108.00,0.0005
2107.00,0.0005
2106.00,0.0004
2105.00,0.0003
2104.00,0.0002
2103.00,0.0001
2102.00,-0.0001
2101.00,-0.0002
2100.00,-0.0003
2099.00,-0.0004
2098.00,-0.0004
2097.00,-0.0005
2096.00,-0.0006
2095.00,-0.0006
2094.00,-0.0006
2093.00,-0.0005
2092.00,-0.0005
2091.00,-0.0006
2090.00,-0.0006
2089.00,-0.0006
2088.00,-0.0005
2087.00,-0.0004
2086.00,-0.0003
2085.00,-0.0002
2084.00,-0.0000
2083.00,0.0000
2082.00,0.0000
2081.00,0.0000
2080.00,-0.0000
2079.00,-0.0000
2078.00,-0.0000
2077.00,-0.0000
2076.00,0.0000
2075.00,0.0001
2074.00,0.0002
2073.00,0.0002
2072.00,0.0002
2071.00,0.0002
2070.00,0.0002
2069.00,0.0002
2068.00,0.0002
2067.00,0.0001
2066.00,0.0000
2065.00,0.0000
2064.00,0.0001
2063.00,0.0002
2062.00,0.0002
2061.00,0.0002
2060.00,0.0002
2059.00,0.0001
2058.00,0.0000
2057.00,-0.0001
2056.00,-0.0002
2055.00,-0.0003
2054.00,-0.0002
2053.00,0.0003
2052.00,0.0008
2051.00,0.0012
2050.00,0.0012
2049.00,0.0009
2048.00,0.0005
2047.00,0.0003
2046.00,0.0000
2045.00,-0.0003
2044.00,-0.0006
2043.00,-0.0008
2042.00,-0.0009
2041.00,-0.0008
2040.00,-0.0005
2039.00,-0.0002
2038.00,0.0001
2037.00,0.0000
2036.00,-0.0002
2035.00,-0.0004
2034.00,-0.0005
2033.00,-0.0004
2032.00,-0.0003
2031.00,-0.0005
2030.00,-0.0008
2029.00,-0.0011
2028.00,-0.0012
2027.00,-0.0011
2026.00,-0.0008
2025.00,-0.0006
2024.00,-0.0004
2023.00,-0.0005
2022.00,-0.0007
2021.00,-0.0010
2020.00,-0.0012
2019.00,-0.0013
2018.00,-0.0013
2017.00,-0.0013
2016.00,-0.0014
2015.00,-0.0014
2014.00,-0.0014
2013.00,-0.0012
2012.00,-0.0010
2011.00,-0.0009
2010.00,-0.0008
2009.00,-0.0009
2008.00,-0.0012
2007.00,-0.0015
2006.00,-0.0017
2005.00,-0.0017
2004.00,-0.0016
2003.00,-0.0016
2002.00,-0.0017
2001.00,-0.0019
2000.00,-0.0019
1999.00,-0.0018
1998.00,-0.0015
1997.00,-0.0014
1996.00,-0.0013
1995.00,-0.0013
1994.00,-0.0014
1993.00,-0.0013
1992.00,-0.0010
1991.00,-0.0007
1990.00,-0.0004
1989.00,-0.0002
1988.00,-0.0003
1987.00,-0.0004
1986.00,-0.0005
1985.00,-0.0004
1984.00,-0.0002
1983.00,0.0002
1982.00,0.0006
1981.00,0.0008
1980.00,0.0006
1979.00,-0.0001
1978.00,-0.0008
1977.00,-0.0013
1976.00,-0.0013
1975.00,-0.0012
1974.00,-0.0011
1973.00,-0.0011
1972.00,-0.0011
1971.00,-0.0012
1970.00,-0.0014
1969.00,-0.0015
1968.00,-0.0015
1967.00,-0.0016
1966.00,-0.0016
1965.00,-0.0016
1964.00,-0.0016
1963.00,-0.0018
1962.00,-0.0020
1961.00,-0.0020
1960.00,-0.0019
1959.00,-0.0018
1958.00,-0.0018
1957.00,-0.0018
1956.00,-0.0018
1955.00,-0.0019
1954.00,-0.0019
1953.00,-0.0019
1952.00,-0.0019
1951.00,-0.0019
1950.00,-0.0019
1949.00,-0.0020
1948.00,-0.0020
1947.00,-0.0021
1946.00,-0.0021
1945.00,-0.0022
1944.00,-0.0021
1943.00,-0.0020
1942.00,-0.0018
1941.00,-0.0015
1940.00,-0.0013
1939.00,-0.0013
1938.00,-0.0013
1937.00,-0.0013
1936.00,-0.0013
1935.00,-0.0013
1934.00,-0.0013
1933.00,-0.0014
1932.00,-0.0014
1931.00,-0.0013
1930.00,-0.0012
1929.00,-0.0011
1928.00,-0.0010
1927.00,-0.0009
1926.00,-0.0009
1925.00,-0.0009
1924.00,-0.0009
1923.00,-0.0008
1922.00,-0.0007
1921.00,-0.0005
1920.00,-0.0003
1919.00,-0.0003
1918.00,-0.0003
1917.00,-0.0003
1916.00,-0.0004
1915.00,-0.0005
1914.00,-0.0005
1913.00,-0.0005
1912.00,-0.0005
1911.00,-0.0005
1910.00,-0.0005
1909.00,-0.0004
1908.00,-0.0003
1907.00,-0.0003
1906.00,-0.0003
1905.00,-0.0003
1904.00,-0.0003
1903.00,-0.0004
1902.00,-0.0004
1901.00,-0.0004
1900.00,-0.0004
1899.00,-0.0004
1898.00,-0.0005
1897.00,-0.0005
1896.00,-0.0004
1895.00,-0.0003
1894.00,-0.0002
1893.00,-0.0002
1892.00,-0.0003
1891.00,-0.0003
1890.00,-0.0003
1889.00,-0.0003
1888.00,-0.0003
1887.00,-0.0004
1886.00,-0.0004
1885.00,-0.0004
1884.00,-0.0003
1883.00,-0.0003
1882.00,-0.0002
1881.00,-0.0003
1880.00,-0.0003
1879.00,-0.0003
1878.00,-0.0003
1877.00,-0.0003
1876.00,-0.0003
1875.00,-0.0002
1874.00,-0.0002
1873.00,-0.0001
1872.00,-0.0001
1871.00,-0.0001
1870.00,-0.0001
1869.00,-0.0000
1868.00,0.0000
1867.00,0.0000
1866.00,-0.0000
1865.00,-0.0001
1864.00,-0.0001
1863.00,-0.0002
1862.00,-0.0002
1861.00,-0.0003
1860.00,-0.0003
1859.00,-0.0003
1858.00,-0.0002
1857.00,-0.0002
1856.00,-0.0001
1855.00,-0.0001
1854.00,-0.0000
1853.00,-0.0001
1852.00,-0.0001
1851.00,-0.0001
1850.00,-0.0001
1849.00,-0.0001
1848.00,-0.0001
1847.00,-0.0001
1846.00,-0.0000
1845.00,-0.0001
1844.00,-0.0001
1843.00,-0.0001
1842.00,-0.0001
1841.00,0.0000
1840.00,0.0001
1839.00,0.0002
1838.00,0.0002
1837.00,0.0002
1836.00,0.0002
1835.00,0.0002
1834.00,0.0001
1833.00,0.0001
1832.00,0.0000
1831.00,-0.0000
1830.00,-0.0000
1829.00,0.0000
1828.00,0.0001
1827.00,0.0001
1826.00,0.0002
1825.00,0.0002
1824.00,0.0002
1823.00,0.0001
1822.00,0.0001
1821.00,0.0001
1820.00,0.0001
1819.00,0.0000
1818.00,-0.0001
1817.00,-0.0001
1816.00,-0.0001
1815.00,-0.0001
1814.00,-0.0000
1813.00,0.0000
1812.00,0.0001
1811.00,0.0001
1810.00,0.0001
1809.00,0.0001
1808.00,0.0001
1807.00,0.0001
1806.00,0.0001
1805.00,0.0002
1804.00,0.0002
1803.00,0.0002
1802.00,0.0003
1801.00,0.0003
1800.00,0.0003
1799.00,0.0003
1798.00,0.0003
1797.00,0.0003
1796.00,0.0003
1795.00,0.0004
1794.00,0.0004
1793.00,0.0005
1792.00,0.0005
1791.00,0.0005
1790.00,0.0005
1789.00,0.0005
1788.00,0.0005
1787.00,0.0005
1786.00,0.0005
1785.00,0.0005
1784.00,0.0005
1783.00,0.0005
1782.00,0.0005
1781.00,0.0005
1780.00,0.0005
1779.00,0.0005
1778.00,0.0004
1777.00,0.0004
1776.00,0.0004
1775.00,0.0005
1774.00,0.0005
1773.00,0.0006
1772.00,0.0006
1771.00,0.0006
1770.00,0.0006
1769.00,0.0006
1768.00,0.0007
1767.00,0.0007
1766.00,0.0008
1765.00,0.0008
1764.00,0.0008
1763.00,0.0008
1762.00,0.0009
1761.00,0.0009
1760.00,0.0009
1759.00,0.0009
1758.00,0.0008
1757.00,0.0008
1756.00,0.0009
1755.00,0.0009
1754.00,0.0010
1753.00,0.0010
1752.00,0.0011
1751.00,0.0012
1750.00,0.0012
1749.00,0.0011
1748.00,0.0011
1747.00,0.0010
1746.00,0.0010
1745.00,0.0010
1744.00,0.0011
1743.00,0.0011
1742.00,0.0012
1741.00,0.0013
1740.00,0.0013
1739.00,0.0014
1738.00,0.0014
1737.00,0.0015
1736.00,0.0015
1735.00,0.0014
1734.00,0.0013
1733.00,0.0014
1732.00,0.0014
1731.00,0.0014
1730.00,0.0014
1729.00,0.0014
1728.00,0.0014
1727.00,0.0014
1726.00,0.0014
1725.00,0.0015
1724.00,0.0015
1723.00,0.0016
1722.00,0.0015
1721.00,0.0015
1720.00,0.0015
1719.00,0.0015
1718.00,0.0015
1717.00,0.0015
1716.00,0.0016
1715.00,0.0016
1714.00,0.0016
1713.00,0.0016
1712.00,0.0017
1711.00,0.0017
1710.00,0.0017
1709.00,0.0018
1708.00,0.0018
1707.00,0.0018
1706.00,0.0018
1705.00,0.0018
1704.00,0.0018
1703.00,0.0018
1702.00,0.0018
1701.00,0.0019
1700.00,0.0019
1699.00,0.0019
1698.00,0.0019
1697.00,0.0020
1696.00,0.0021
1695.00,0.0022
1694.00,0.0022
1693.00,0.0022
1692.00,0.0022
1691.00,0.0022
1690.00,0.0022
1689.00,0.0023
1688.00,0.0023
1687.00,0.0022
1686.00,0.0022
1685.00,0.0022
1684.00,0.0022
1683.00,0.0022
1682.00,0.0022
1681.00,0.0023
1680.00,0.0023
1679.00,0.0023
1678.00,0.0023
1677.00,0.0023
1676.00,0.0024
1675.00,0.0024
1674.00,0.0024
1673.00,0.0025
1672.00,0.0025
1671.00,0.0026
1670.00,0.0026
1669.00,0.0027
1668.00,0.0027
1667.00,0.0026
1666.00,0.0025
1665.00,0.0025
1664.00,0.0025
1663.00,0.0026
1662.00,0.0026
1661.00,0.0027
1660.00,0.0027
1659.00,0.0027
1658.00,0.0027
1657.00,0.0028
1656.00,0.0029
1655.00,0.0029
1654.00,0.0030
1653.00,0.0030
1652.00,0.0030
1651.00,0.0031
1650.00,0.0031
1649.00,0.0031
1648.00,0.0032
1647.00,0.0032
1646.00,0.0033
1645.00,0.0033
1644.00,0.0033
1643.00,0.0033
1642.00,0.0033
1641.00,0.0033
1640.00,0.0033
1639.00,0.0033
1638.00,0.0033
1637.00,0.0034
1636.00,0.0034
1635.00,0.0034
1634.00,0.0034
1633.00,0.0034
1632.00,0.0035
1631.00,0.0035
1630.00,0.0034
1629.00,0.0034
1628.00,0.0035
1627.00,0.0035
1626.00,0.0035
1625.00,0.0036
1624.00,0.0036
1623.00,0.0036
1622.00,0.0036
1621.00,0.0035
1620.00,0.0035
1619.00,0.0035
1618.00,0.0035
1617.00,0.0035
1616.00,0.0035
1615.00,0.0034
1614.00,0.0034
1613.00,0.0034
1612.00,0.0034
1611.00,0.0034
1610.00,0.0034
1609.00,0.0034
1608.00,0.0034
1607.00,0.0034
1606.00,0.0034
1605.00,0.0035
1604.00,0.0035
1603.00,0.0035
1602.00,0.0035
1601.00,0.0034
1600.00,0.0034
1599.00,0.0034
1598.00,0.0035
1597.00,0.0035
1596.00,0.0036
1595.00,0.0036
1594.00,0.0036
1593.00,0.0036
1592.00,0.0037
1591.00,0.0038
1590.00,0.0039
1589.00,0.0040
1588.00,0.0042
1587.00,0.0043
1586.00,0.0046
1585.00,0.0049
1584.00,0.0052
1583.00,0.0055
1582.00,0.0059
1581.00,0.0063
1580.00,0.0067
1579.00,0.0071
1578.00,0.0073
1577.00,0.0074
1576.00,0.0074
1575.00,0.0073
1574.00,0.0070
1573.00,0.0068
1572.00,0.0066
1571.00,0.0063
1570.00,0.0059
1569.00,0.0055
1568.00,0.0052
1567.00,0.0050
1566.00,0.0049
1565.00,0.0047
1564.00,0.0046
1563.00,0.0046
1562.00,0.0046
1561.00,0.0046
1560.00,0.0046
1559.00,0.0046
1558.00,0.0046
1557.00,0.0046
1556.00,0.0046
1555.00,0.0046
1554.00,0.0047
1553.00,0.0048
1552.00,0.0049
1551.00,0.0051
1550.00,0.0054
1549.00,0.0056
1548.00,0.0059
1547.00,0.0061
1546.00,0.0064
1545.00,0.0067
1544.00,0.0072
1543.00,0.0077
1542.00,0.0082
1541.00,0.0086
1540.00,0.0086
1539.00,0.0083
1538.00,0.0079
1537.00,0.0075
1536.00,0.0071
1535.00,0.0066
1534.00,0.0060
1533.00,0.0055
1532.00,0.0052
1531.00,0.0050
1530.00,0.0048
1529.00,0.0047
1528.00,0.0046
1527.00,0.0045
1526.00,0.0045
1525.00,0.0045
1524.00,0.0046
1523.00,0.0046
1522.00,0.0046
1521.00,0.0046
1520.00,0.0046
1519.00,0.0047
1518.00,0.0047
1517.00,0.0047
1516.00,0.0048
1515.00,0.0048
1514.00,0.0048
1513.00,0.0049
1512.00,0.0050
1511.00,0.0050
1510.00,0.0051
1509.00,0.0053
1508.00,0.0056
1507.00,0.0056
1506.00,0.0056
1505.00,0.0057
1504.00,0.0058
1503.00,0.0059
1502.00,0.0061
1501.00,0.0063
1500.00,0.0066
1499.00,0.0068
1498.00,0.0070
1497.00,0.0073
1496.00,0.0076
1495.00,0.0078
1494.00,0.0079
1493.00,0.0082
1492.00,0.0085
1491.00,0.0089
1490.00,0.0093
1489.00,0.0098
1488.00,0.0105
1487.00,0.0111
1486.00,0.0117
1485.00,0.0124
1484.00,0.0133
1483.00,0.0142
1482.00,0.0153
1481.00,0.0166
1480.00,0.0180
1479.00,0.0194
1478.00,0.0210
1477.00,0.0229
1476.00,0.0252
1475.00,0.0277
1474.00,0.0311
1473.00,0.0361
1472.00,0.0422
1471.00,0.0483
1470.00,0.0544
1469.00,0.0608
1468.00,0.0679
1467.00,0.0757
1466.00,0.0846
1465.00,0.0943
1464.00,0.1030
1463.00,0.1093
1462.00,0.1136
1461.00,0.1166
1460.00,0.1188
1459.00,0.1205
1458.00,0.1220
1457.00,0.1235
1456.00,0.1241
1455.00,0.1238
1454.00,0.1230
1453.00,0.1217
1452.00,0.1193
1451.00,0.1156
1450.00,0.1102
1449.00,0.1026
1448.00,0.0929
1447.00,0.0827
1446.00,0.0735
1445.00,0.0655
1444.00,0.0588
1443.00,0.0534
1442.00,0.0494
1441.00,0.0468
1440.00,0.0453
1439.00,0.0447
1438.00,0.0449
1437.00,0.0452
1436.00,0.0442
1435.00,0.0415
1434.00,0.0375
1433.00,0.0327
1432.00,0.0278
1431.00,0.0236
1430.00,0.0204
1429.00,0.0181
1428.00,0.0165
1427.00,0.0155
1426.00,0.0149
1425.00,0.0144
1424.00,0.0139
1423.00,0.0136
1422.00,0.0134
1421.00,0.0132
1420.00,0.0129
1419.00,0.0126
1418.00,0.0124
1417.00,0.0120
1416.00,0.0117
1415.00,0.0115
1414.00,0.0114
1413.00,0.0112
1412.00,0.0110
1411.00,0.0109
1410.00,0.0109
1409.00,0.0108
1408.00,0.0107
1407.00,0.0106
1406.00,0.0106
1405.00,0.0105
1404.00,0.0104
1403.00,0.0105
1402.00,0.0107
1401.00,0.0108
1400.00,0.0109
1399.00,0.0111
1398.00,0.0113
1397.00,0.0115
1396.00,0.0117
1395.00,0.0121
1394.00,0.0127
1393.00,0.0133
1392.00,0.0139
1391.00,0.0148
1390.00,0.0161
1389.00,0.0178
1388.00,0.0204
1387.00,0.0243
1386.00,0.0295
1385.00,0.0360
1384.00,0.0446
1383.00,0.0560
1382.00,0.0710
1381.00,0.0901
1380.00,0.1139
1379.00,0.1414
1378.00,0.1688
1377.00,0.1901
1376.00,0.1989
1375.00,0.1911
1374.00,0.1686
1373.00,0.1400
1372.00,0.1128
1371.00,0.0900
1370.00,0.0717
1369.00,0.0578
1368.00,0.0482
1367.00,0.0423
1366.00,0.0391
1365.00,0.0378
1364.00,0.0381
1363.00,0.0396
1362.00,0.0420
1361.00,0.0445
1360.00,0.0464
1359.00,0.0469
1358.00,0.0457
1357.00,0.0428
1356.00,0.0387
1355.00,0.0342
1354.00,0.0298
1353.00,0.0261
1352.00,0.0230
1351.00,0.0206
1350.00,0.0186
1349.00,0.0171
1348.00,0.0159
1347.00,0.0149
1346.00,0.0141
1345.00,0.0135
1344.00,0.0130
1343.00,0.0125
1342.00,0.0122
1341.00,0.0119
1340.00,0.0117
1339.00,0.0116
1338.00,0.0115
1337.00,0.0115
1336.00,0.0115
1335.00,0.0117
1334.00,0.0120
1333.00,0.0125
1332.00,0.0129
1331.00,0.0133
1330.00,0.0134
1329.00,0.0132
1328.00,0.0128
1327.00,0.0123
1326.00,0.0116
1325.00,0.0109
1324.00,0.0104
1323.00,0.0099
1322.00,0.0095
1321.00,0.0092
1320.00,0.0089
1319.00,0.0086
1318.00,0.0084
1317.00,0.0082
1316.00,0.0080
1315.00,0.0079
1314.00,0.0078
1313.00,0.0078
1312.00,0.0079
1311.00,0.0081
1310.00,0.0086
1309.00,0.0093
1308.00,0.0103
1307.00,0.0115
1306.00,0.0126
1305.00,0.0133
1304.00,0.0136
1303.00,0.0134
1302.00,0.0130
1301.00,0.0126
1300.00,0.0124
1299.00,0.0123
1298.00,0.0123
1297.00,0.0123
1296.00,0.0122
1295.00,0.0119
1294.00,0.0115
1293.00,0.0109
1292.00,0.0103
1291.00,0.0098
1290.00,0.0093
1289.00,0.0090
1288.00,0.0086
1287.00,0.0083
1286.00,0.0080
1285.00,0.0078
1284.00,0.0077
1283.00,0.0076
1282.00,0.0074
1281.00,0.0073
1280.00,0.0072
1279.00,0.0071
1278.00,0.0071
1277.00,0.0070
1276.00,0.0070
1275.00,0.0070
1274.00,0.0070
1273.00,0.0070
1272.00,0.0070
1271.00,0.0071
1270.00,0.0071
1269.00,0.0072
1268.00,0.0073
1267.00,0.0074
1266.00,0.0076
1265.00,0.0079
1264.00,0.0081
1263.00,0.0084
1262.00,0.0088
1261.00,0.0092
1260.00,0.0098
1259.00,0.0105
1258.00,0.0113
1257.00,0.0119
1256.00,0.0121
1255.00,0.0119
1254.00,0.0113
1253.00,0.0104
1252.00,0.0096
1251.00,0.0089
1250.00,0.0084
1249.00,0.0081
1248.00,0.0079
1247.00,0.0077
1246.00,0.0076
1245.00,0.0076
1244.00,0.0075
1243.00,0.0075
1242.00,0.0075
1241.00,0.0075
1240.00,0.0074
1239.00,0.0073
1238.00,0.0072
1237.00,0.0072
1236.00,0.0072
1235.00,0.0072
1234.00,0.0071
1233.00,0.0071
1232.00,0.0070
1231.00,0.0071
1230.00,0.0072
1229.00,0.0073
1228.00,0.0074
1227.00,0.0075
1226.00,0.0077
1225.00,0.0080
1224.00,0.0083
1223.00,0.0087
1222.00,0.0090
1221.00,0.0093
1220.00,0.0095
1219.00,0.0096
1218.00,0.0096
1217.00,0.0095
1216.00,0.0092
1215.00,0.0089
1214.00,0.0086
1213.00,0.0082
1212.00,0.0079
1211.00,0.0077
1210.00,0.0076
1209.00,0.0074
1208.00,0.0072
1207.00,0.0071
1206.00,0.0070
1205.00,0.0069
1204.00,0.0069
1203.00,0.0069
1202.00,0.0069
1201.00,0.0069
1200.00,0.0069
1199.00,0.0068
1198.00,0.0068
1197.00,0.0068
1196.00,0.0068
1195.00,0.0068
1194.00,0.0068
1193.00,0.0068
1192.00,0.0068
1191.00,0.0068
1190.00,0.0067
1189.00,0.0066
1188.00,0.0065
1187.00,0.0066
1186.00,0.0068
1185.00,0.0070
1184.00,0.0071
1183.00,0.0072
1182.00,0.0073
1181.00,0.0075
1180.00,0.0078
1179.00,0.0083
1178.00,0.0090
1177.00,0.0098
1176.00,0.0110
1175.00,0.0125
1174.00,0.0145
1173.00,0.0171
1172.00,0.0203
1171.00,0.0237
1170.00,0.0270
1169.00,0.0297
1168.00,0.0312
1167.00,0.0316
1166.00,0.0308
1165.00,0.0293
1164.00,0.0274
1163.00,0.0255
1162.00,0.0238
1161.00,0.0224
1160.00,0.0212
1159.00,0.0203
1158.00,0.0196
1157.00,0.0191
1156.00,0.0188
1155.00,0.0186
1154.00,0.0184
1153.00,0.0181
1152.00,0.0176
1151.00,0.0169
1150.00,0.0161
1149.00,0.0152
1148.00,0.0142
1147.00,0.0133
1146.00,0.0125
1145.00,0.0116
1144.00,0.0109
1143.00,0.0102
1142.00,0.0096
1141.00,0.0091
1140.00,0.0086
1139.00,0.0083
1138.00,0.0080
1137.00,0.0076
1136.00,0.0074
1135.00,0.0071
1134.00,0.0069
1133.00,0.0067
1132.00,0.0066
1131.00,0.0066
1130.00,0.0066
1129.00,0.0067
1128.00,0.0067
1127.00,0.0067
1126.00,0.0068
1125.00,0.0068
1124.00,0.0068
1123.00,0.0068
1122.00,0.0067
1121.00,0.0067
1120.00,0.0067
1119.00,0.0067
1118.00,0.0069
1117.00,0.0071
1116.00,0.0074
1115.00,0.0076
1114.00,0.0078
1113.00,0.0079
1112.00,0.0080
1111.00,0.0082
1110.00,0.0086
1109.00,0.0090
1108.00,0.0096
1107.00,0.0103
1106.00,0.0111
1105.00,0.0118
1104.00,0.0125
1103.00,0.0129
1102.00,0.0130
1101.00,0.0127
1100.00,0.0122
1099.00,0.0115
1098.00,0.0107
1097.00,0.0100
1096.00,0.0094
1095.00,0.0089
1094.00,0.0086
1093.00,0.0083
1092.00,0.0081
1091.00,0.0079
1090.00,0.0076
1089.00,0.0074
1088.00,0.0071
1087.00,0.0070
1086.00,0.0069
1085.00,0.0069
1084.00,0.0068
1083.00,0.0068
1082.00,0.0067
1081.00,0.0066
1080.00,0.0064
1079.00,0.0062
1078.00,0.0062
1077.00,0.0061
1076.00,0.0061
1075.00,0.0060
1074.00,0.0059
1073.00,0.0059
1072.00,0.0059
1071.00,0.0060
1070.00,0.0061
1069.00,0.0062
1068.00,0.0062
1067.00,0.0061
1066.00,0.0061
1065.00,0.0061
1064.00,0.0062
1063.00,0.0063
1062.00,0.0064
1061.00,0.0064
1060.00,0.0064
1059.00,0.0064
1058.00,0.0064
1057.00,0.0064
1056.00,0.0065
1055.00,0.0065
1054.00,0.0066
1053.00,0.0067
1052.00,0.0069
1051.00,0.0070
1050.00,0.0072
1049.00,0.0075
1048.00,0.0079
1047.00,0.0083
1046.00,0.0086
1045.00,0.0088
1044.00,0.0087
1043.00,0.0085
1042.00,0.0083
1041.00,0.0081
1040.00,0.0081
1039.00,0.0082
1038.00,0.0083
1037.00,0.0084
1036.00,0.0085
1035.00,0.0085
1034.00,0.0084
1033.00,0.0083
1032.00,0.0082
1031.00,0.0081
1030.00,0.0080
1029.00,0.0079
1028.00,0.0079
1027.00,0.0079
1026.00,0.0080
1025.00,0.0079
1024.00,0.0079
1023.00,0.0078
1022.00,0.0078
1021.00,0.0079
1020.00,0.0080
1019.00,0.0082
1018.00,0.0084
1017.00,0.0086
1016.00,0.0089
1015.00,0.0092
1014.00,0.0096
1013.00,0.0100
1012.00,0.0103
1011.00,0.0106
1010.00,0.0109
1009.00,0.0112
1008.00,0.0117
1007.00,0.0123
1006.00,0.0133
1005.00,0.0145
1004.00,0.0162
1003.00,0.0184
1002.00,0.0214
1001.00,0.0249
1000.00,0.0288
999.00,0.0320
998.00,0.0337
997.00,0.0331
996.00,0.0304
995.00,0.0265
994.00,0.0223
993.00,0.0187
992.00,0.0158
991.00,0.0138
990.00,0.0124
989.00,0.0114
988.00,0.0107
987.00,0.0103
986.00,0.0102
985.00,0.0104
984.00,0.0109
983.00,0.0117
982.00,0.0130
981.00,0.0147
980.00,0.0169
979.00,0.0199
978.00,0.0236
977.00,0.0279
976.00,0.0326
975.00,0.0370
974.00,0.0404
973.00,0.0416
972.00,0.0403
971.00,0.0366
970.00,0.0315
969.00,0.0262
968.00,0.0216
967.00,0.0180
966.00,0.0154
965.00,0.0134
964.00,0.0121
963.00,0.0110
962.00,0.0102
961.00,0.0095
960.00,0.0090
959.00,0.0085
958.00,0.0081
957.00,0.0078
956.00,0.0076
955.00,0.0074
954.00,0.0073
953.00,0.0072
952.00,0.0071
951.00,0.0070
950.00,0.0070
949.00,0.0069
948.00,0.0070
947.00,0.0070
946.00,0.0072
945.00,0.0074
944.00,0.0078
943.00,0.0082
942.00,0.0086
941.00,0.0088
940.00,0.0088
939.00,0.0084
938.00,0.0079
937.00,0.0074
936.00,0.0070
935.00,0.0067
934.00,0.0065
933.00,0.0062
932.00,0.0061
931.00,0.0060
930.00,0.0059
929.00,0.0058
928.00,0.0057
927.00,0.0057
926.00,0.0056
925.00,0.0057
924.00,0.0057
923.00,0.0058
922.00,0.0059
921.00,0.0060
920.00,0.0060
919.00,0.0061
918.00,0.0062
917.00,0.0063
916.00,0.0064
915.00,0.0065
914.00,0.0066
913.00,0.0067
912.00,0.0067
911.00,0.0068
910.00,0.0070
909.00,0.0072
908.00,0.0074
907.00,0.0079
906.00,0.0086
905.00,0.0098
904.00,0.0113
903.00,0.0132
902.00,0.0153
901.00,0.0172
900.00,0.0184
899.00,0.0187
898.00,0.0180
897.00,0.0164
896.00,0.0143
895.00,0.0123
894.00,0.0106
893.00,0.0093
892.00,0.0084
891.00,0.0078
890.00,0.0073
889.00,0.0069
888.00,0.0067
887.00,0.0067
886.00,0.0068
885.00,0.0067
884.00,0.0066
883.00,0.0064
882.00,0.0064
881.00,0.0064
880.00,0.0064
879.00,0.0063
878.00,0.0063
877.00,0.0064
876.00,0.0065
875.00,0.0067
874.00,0.0067
873.00,0.0067
872.00,0.0066
871.00,0.0066
870.00,0.0067
869.00,0.0068
868.00,0.0069
867.00,0.0070
866.00,0.0070
865.00,0.0069
864.00,0.0069
863.00,0.0070
862.00,0.0073
861.00,0.0075
860.00,0.0078
859.00,0.0081
858.00,0.0083
857.00,0.0084
856.00,0.0084
855.00,0.0084
854.00,0.0085
853.00,0.0088
852.00,0.0092
851.00,0.0096
850.00,0.0102
849.00,0.0110
848.00,0.0121
847.00,0.0135
846.00,0.0157
845.00,0.0189
844.00,0.0234
843.00,0.0283
842.00,0.0321
841.00,0.0331
840.00,0.0308
839.00,0.0264
838.00,0.0217
837.00,0.0179
836.00,0.0155
835.00,0.0140
834.00,0.0131
833.00,0.0125
832.00,0.0120
831.00,0.0116
830.00,0.0113
829.00,0.0110
828.00,0.0107
827.00,0.0106
826.00,0.0105
825.00,0.0105
824.00,0.0104
823.00,0.0103
822.00,0.0103
821.00,0.0104
820.00,0.0106
819.00,0.0108
818.00,0.0112
817.00,0.0117
816.00,0.0125
815.00,0.0136
814.00,0.0150
813.00,0.0168
812.00,0.0186
811.00,0.0203
810.00,0.0215
809.00,0.0220
808.00,0.0217
807.00,0.0206
806.00,0.0190
805.00,0.0172
804.00,0.0157
803.00,0.0143
802.00,0.0133
801.00,0.0123
800.00,0.0114
799.00,0.0105
798.00,0.0099
797.00,0.0094
796.00,0.0089
795.00,0.0084
794.00,0.0081
793.00,0.0078
792.00,0.0077
791.00,0.0077
790.00,0.0076
789.00,0.0074
788.00,0.0072
787.00,0.0069
786.00,0.0067
785.00,0.0066
784.00,0.0065
783.00,0.0063
782.00,0.0061
781.00,0.0059
780.00,0.0057
779.00,0.0056
778.00,0.0055
777.00,0.0056
776.00,0.0056
775.00,0.0058
774.00,0.0059
773.00,0.0062
772.00,0.0065
771.00,0.0069
770.00,0.0072
769.00,0.0074
768.00,0.0074
767.00,0.0074
766.00,0.0073
765.00,0.0072
764.00,0.0070
763.00,0.0068
762.00,0.0064
761.00,0.0060
760.00,0.0056
759.00,0.0053
758.00,0.0051
757.00,0.0050
756.00,0.0049
755.00,0.0048
754.00,0.0048
753.00,0.0048
752.00,0.0048
751.00,0.0049
750.00,0.0050
749.00,0.0049
748.00,0.0049
747.00,0.0049
746.00,0.0048
745.00,0.0048
744.00,0.0047
743.00,0.0047
742.00,0.0048
741.00,0.0048
740.00,0.0049
739.00,0.0050
738.00,0.0051
737.00,0.0053
736.00,0.0054
735.00,0.0055
734.00,0.0055
733.00,0.0055
732.00,0.0054
731.00,0.0055
730.00,0.0056
729.00,0.0057
728.00,0.0057
727.00,0.0057
726.00,0.0057
725.00,0.0056
724.00,0.0056
723.00,0.0055
722.00,0.0055
721.00,0.0055
720.00,0.0056
719.00,0.0056
718.00,0.0054
717.00,0.0052
716.00,0.0049
715.00,0.0048
714.00,0.0046
713.00,0.0045
712.00,0.0044
711.00,0.0045
710.00,0.0047
709.00,0.0048
708.00,0.0049
707.00,0.0049
706.00,0.0049
705.00,0.0050
704.00,0.0051
703.00,0.0051
702.00,0.0050
701.00,0.0048
700.00,0.0046
699.00,0.0046
698.00,0.0048
697.00,0.0050
696.00,0.0051
695.00,0.0051
694.00,0.0050
693.00,0.0050
692.00,0.0050
691.00,0.0051
690.00,0.0052
689.00,0.0053
688.00,0.0051
687.00,0.0049
686.00,0.0047
685.00,0.0045
684.00,0.0044
683.00,0.0043
682.00,0.0043
681.00,0.0043
680.00,0.0044
679.00,0.0044
678.00,0.0044
677.00,0.0044
676.00,0.0045
675.00,0.0045
674.00,0.0046
673.00,0.0047
672.00,0.0048
671.00,0.0048
670.00,0.0048
669.00,0.0047
668.00,0.0048
667.00,0.0051
666.00,0.0054
665.00,0.0054
664.00,0.0052
663.00,0.0051
662.00,0.0050
661.00,0.0049
660.00,0.0048
659.00,0.0048
658.00,0.0047
657.00,0.0047
656.00,0.0045
655.00,0.0044
654.00,0.0044
653.00,0.0044
652.00,0.0044
651.00,0.0043
650.00,0.0043
649.00,0.0045
648.00,0.0048
647.00,0.0051
646.00,0.0052
645.00,0.0052
644.00,0.0051
643.00,0.0049
642.00,0.0047
641.00,0.0044
640.00,0.0042
639.00,0.0042
638.00,0.0043
637.00,0.0044
636.00,0.0046
635.00,0.0047
634.00,0.0049
633.00,0.0050
632.00,0.0048
631.00,0.0044
630.00,0.0043
629.00,0.0045
628.00,0.0050
627.00,0.0053
626.00,0.0052
625.00,0.0048
624.00,0.0045
623.00,0.0044
622.00,0.0045
621.00,0.0047
620.00,0.0049
619.00,0.0049
618.00,0.0048
617.00,0.0047
616.00,0.0049
615.00,0.0050
614.00,0.0051
613.00,0.0051
612.00,0.0050
611.00,0.0051
610.00,0.0050
609.00,0.0049
608.00,0.0048
607.00,0.0047
606.00,0.0047
605.00,0.0049
604.00,0.0050
603.00,0.0052
602.00,0.0053
601.00,0.0053
600.00,0.0051
599.00,0.0050
598.00,0.0048
597.00,0.0047
596.00,0.0047
595.00,0.0049
594.00,0.0051
593.00,0.0053
592.00,0.0054
591.00,0.0053
590.00,0.0051
589.00,0.0049
588.00,0.0046
587.00,0.0044
586.00,0.0043
585.00,0.0045
584.00,0.0047
583.00,0.0050
582.00,0.0052
581.00,0.0052
580.00,0.0052
579.00,0.0055
578.00,0.0059
577.00,0.0061
576.00,0.0059
575.00,0.0056
574.00,0.0054
573.00,0.0052
572.00,0.0051
571.00,0.0048
570.00,0.0046
569.00,0.0046
568.00,0.0048
567.00,0.0048
566.00,0.0046
565.00,0.0043
564.00,0.0042
563.00,0.0043
562.00,0.0047
561.00,0.0050
560.00,0.0050
559.00,0.0050
558.00,0.0050
557.00,0.0053
556.00,0.0058
555.00,0.0063
554.00,0.0062
553.00,0.0057
552.00,0.0052
551.00,0.0049
550.00,0.0050
549.00,0.0054
548.00,0.0058
547.00,0.0060
546.00,0.0059
545.00,0.0056
544.00,0.0053
543.00,0.0054
542.00,0.0058
541.00,0.0062
540.00,0.0063
539.00,0.0062
538.00,0.0062
537.00,0.0061
536.00,0.0061
535.00,0.0059
534.00,0.0057
533.00,0.0059
532.00,0.0065
531.00,0.0074
530.00,0.0080
529.00,0.0082
528.00,0.0083
527.00,0.0083
526.00,0.0082
525.00,0.0079
524.00,0.0073
523.00,0.0069
522.00,0.0067
521.00,0.0065
520.00,0.0063
519.00,0.0062
518.00,0.0063
517.00,0.0064
516.00,0.0064
515.00,0.0064
514.00,0.0063
513.00,0.0062
512.00,0.0062
511.00,0.0062
510.00,0.0061
509.00,0.0058
508.00,0.0053
507.00,0.0049
506.00,0.0051
505.00,0.0057
504.00,0.0064
503.00,0.0068
502.00,0.0067
501.00,0.0061
500.00,0.0055
499.00,0.0050
498.00,0.0048
497.00,0.0045
496.00,0.0043
495.00,0.0042
494.00,0.0044
493.00,0.0047
492.00,0.0048
491.00,0.0050
490.00,0.0053
489.00,0.0056
488.00,0.0055
487.00,0.0051
486.00,0.0047
485.00,0.0047
484.00,0.0053
483.00,0.0061
482.00,0.0067
481.00,0.0067
480.00,0.0060
479.00,0.0050
478.00,0.0044
477.00,0.0046
476.00,0.0057
475.00,0.0068
474.00,0.0071
473.00,0.0066
472.00,0.0061
471.00,0.0063
470.00,0.0070
469.00,0.0072
468.00,0.0070
467.00,0.0070
466.00,0.0076
465.00,0.0085
464.00,0.0091
463.00,0.0098
462.00,0.0108
461.00,0.0118
460.00,0.0127
459.00,0.0134
458.00,0.0138
457.00,0.0135
456.00,0.0125
455.00,0.0116
454.00,0.0116
453.00,0.0123
452.00,0.0125
451.00,0.0116
450.00,0.0098
