Created as New Dataset,Sample 012 By Administrator Date Friday, September 05 2025
cm-1,A
4000.00,0.0008
3999.00,0.0008
3998.00,0.0009
3997.00,0.0009
3996.00,0.0009
3995.00,0.0009
3994.00,0.0009
3993.00,0.0009
3992.00,0.0009
3991.00,0.0009
3990.00,0.0009
3989.00,0.0008
3988.00,0.0008
3987.00,0.0008
3986.00,0.0008
3985.00,0.0008
3984.00,0.0008
3983.00,0.0008
3982.00,0.0008
3981.00,0.0007
3980.00,0.0007
3979.00,0.0007
3978.00,0.0007
3977.00,0.0006
3976.00,0.0006
3975.00,0.0006
3974.00,0.0007
3973.00,0.0007
3972.00,0.0007
3971.00,0.0007
3970.00,0.0007
3969.00,0.0007
3968.00,0.0007
3967.00,0.0008
3966.00,0.0007
3965.00,0.0007
3964.00,0.0007
3963.00,0.0007
3962.00,0.0007
3961.00,0.0007
3960.00,0.0007
3959.00,0.0007
3958.00,0.0007
3957.00,0.0007
3956.00,0.0007
3955.00,0.0007
3954.00,0.0006
3953.00,0.0006
3952.00,0.0006
3951.00,0.0006
3950.00,0.0006
3949.00,0.0006
3948.00,0.0006
3947.00,0.0006
3946.00,0.0006
3945.00,0.0006
3944.00,0.0007
3943.00,0.0007
3942.00,0.0007
3941.00,0.0007
3940.00,0.0007
3939.00,0.0007
3938.00,0.0007
3937.00,0.0007
3936.00,0.0006
3935.00,0.0006
3934.00,0.0006
3933.00,0.0006
3932.00,0.0006
3931.00,0.0006
3930.00,0.0006
3929.00,0.0006
3928.00,0.0006
3927.00,0.0006
3926.00,0.0006
3925.00,0.0006
3924.00,0.0006
3923.00,0.0006
3922.00,0.0006
3921.00,0.0006
3920.00,0.0006
3919.00,0.0006
3918.00,0.0006
3917.00,0.0006
3916.00,0.0006
3915.00,0.0006
3914.00,0.0006
3913.00,0.0006
3912.00,0.0006
3911.00,0.0006
3910.00,0.0006
3909.00,0.0006
3908.00,0.0007
3907.00,0.0007
3906.00,0.0007
3905.00,0.0007
3904.00,0.0006
3903.00,0.0006
3902.00,0.0006
3901.00,0.0006
3900.00,0.0006
3899.00,0.0006
3898.00,0.0006
3897.00,0.0007
3896.00,0.0007
3895.00,0.0007
3894.00,0.0007
3893.00,0.0007
3892.00,0.0007
3891.00,0.0007
3890.00,0.0007
3889.00,0.0006
3888.00,0.0006
3887.00,0.0006
3886.00,0.0006
3885.00,0.0006
3884.00,0.0006
3883.00,0.0006
3882.00,0.0006
3881.00,0.0006
3880.00,0.0006
3879.00,0.0006
3878.00,0.0006
3877.00,0.0006
3876.00,0.0006
3875.00,0.0006
3874.00,0.0006
3873.00,0.0005
3872.00,0.0005
3871.00,0.0005
3870.00,0.0005
3869.00,0.0005
3868.00,0.0005
3867.00,0.0005
3866.00,0.0005
3865.00,0.0005
3864.00,0.0005
3863.00,0.0005
3862.00,0.0006
3861.00,0.0006
3860.00,0.0006
3859.00,0.0006
3858.00,0.0006
3857.00,0.0006
3856.00,0.0005
3855.00,0.0004
3854.00,0.0004
3853.00,0.0003
3852.00,0.0003
3851.00,0.0003
3850.00,0.0004
3849.00,0.0005
3848.00,0.0005
3847.00,0.0006
3846.00,0.0006
3845.00,0.0006
3844.00,0.0007
3843.00,0.0007
3842.00,0.0006
3841.00,0.0006
3840.00,0.0006
3839.00,0.0006
3838.00,0.0005
3837.00,0.0005
3836.00,0.0005
3835.00,0.0005
3834.00,0.0005
3833.00,0.0006
3832.00,0.0006
3831.00,0.0006
3830.00,0.0005
3829.00,0.0005
3828.00,0.0005
3827.00,0.0006
3826.00,0.0006
3825.00,0.0006
3824.00,0.0006
3823.00,0.0006
3822.00,0.0006
3821.00,0.0006
3820.00,0.0006
3819.00,0.0006
3818.00,0.0006
3817.00,0.0007
3816.00,0.0007
3815.00,0.0007
3814.00,0.0007
3813.00,0.0007
3812.00,0.0007
3811.00,0.0007
3810.00,0.0007
3809.00,0.0007
3808.00,0.0007
3807.00,0.0007
3806.00,0.0006
3805.00,0.0006
3804.00,0.0006
3803.00,0.0006
3802.00,0.0007
3801.00,0.0006
3800.00,0.0006
3799.00,0.0006
3798.00,0.0006
3797.00,0.0006
3796.00,0.0007
3795.00,0.0007
3794.00,0.0007
3793.00,0.0007
3792.00,0.0007
3791.00,0.0007
3790.00,0.0007
3789.00,0.0007
3788.00,0.0006
3787.00,0.0006
3786.00,0.0007
3785.00,0.0007
3784.00,0.0007
3783.00,0.0007
3782.00,0.0007
3781.00,0.0007
3780.00,0.0007
3779.00,0.0007
3778.00,0.0007
3777.00,0.0007
3776.00,0.0007
3775.00,0.0007
3774.00,0.0007
3773.00,0.0007
3772.00,0.0007
3771.00,0.0007
3770.00,0.0007
3769.00,0.0007
3768.00,0.0007
3767.00,0.0007
3766.00,0.0007
3765.00,0.0007
3764.00,0.0006
3763.00,0.0006
3762.00,0.0006
3761.00,0.0007
3760.00,0.0007
3759.00,0.0007
3758.00,0.0007
3757.00,0.0007
3756.00,0.0007
3755.00,0.0007
3754.00,0.0006
3753.00,0.0006
3752.00,0.0006
3751.00,0.0005
3750.00,0.0004
3749.00,0.0004
3748.00,0.0004
3747.00,0.0004
3746.00,0.0005
3745.00,0.0005
3744.00,0.0004
3743.00,0.0003
3742.00,0.0003
3741.00,0.0003
3740.00,0.0003
3739.00,0.0003
3738.00,0.0003
3737.00,0.0003
3736.00,0.0004
3735.00,0.0004
3734.00,0.0005
3733.00,0.0005
3732.00,0.0005
3731.00,0.0004
3730.00,0.0004
3729.00,0.0003
3728.00,0.0003
3727.00,0.0003
3726.00,0.0004
3725.00,0.0004
3724.00,0.0005
3723.00,0.0005
3722.00,0.0005
3721.00,0.0005
3720.00,0.0005
3719.00,0.0005
3718.00,0.0006
3717.00,0.0006
3716.00,0.0006
3715.00,0.0005
3714.00,0.0005
3713.00,0.0004
3712.00,0.0004
3711.00,0.0004
3710.00,0.0004
3709.00,0.0004
3708.00,0.0004
3707.00,0.0004
3706.00,0.0004
3705.00,0.0005
3704.00,0.0005
3703.00,0.0005
3702.00,0.0005
3701.00,0.0005
3700.00,0.0005
3699.00,0.0004
3698.00,0.0004
3697.00,0.0004
3696.00,0.0004
3695.00,0.0004
3694.00,0.0004
3693.00,0.0004
3692.00,0.0004
3691.00,0.0005
3690.00,0.0005
3689.00,0.0005
3688.00,0.0004
3687.00,0.0004
3686.00,0.0004
3685.00,0.0004
3684.00,0.0004
3683.00,0.0004
3682.00,0.0003
3681.00,0.0004
3680.00,0.0004
3679.00,0.0003
3678.00,0.0003
3677.00,0.0002
3676.00,0.0002
3675.00,0.0002
3674.00,0.0001
3673.00,0.0002
3672.00,0.0002
3671.00,0.0003
3670.00,0.0004
3669.00,0.0003
3668.00,0.0003
3667.00,0.0002
3666.00,0.0002
3665.00,0.0002
3664.00,0.0002
3663.00,0.0002
3662.00,0.0002
3661.00,0.0002
3660.00,0.0002
3659.00,0.0002
3658.00,0.0003
3657.00,0.0003
3656.00,0.0002
3655.00,0.0002
3654.00,0.0002
3653.00,0.0002
3652.00,0.0002
3651.00,0.0002
3650.00,0.0002
3649.00,0.0003
3648.00,0.0003
3647.00,0.0003
3646.00,0.0003
3645.00,0.0003
3644.00,0.0003
3643.00,0.0004
3642.00,0.0004
3641.00,0.0004
3640.00,0.0004
3639.00,0.0005
3638.00,0.0005
3637.00,0.0005
3636.00,0.0005
3635.00,0.0005
3634.00,0.0005
3633.00,0.0005
3632.00,0.0004
3631.00,0.0004
3630.00,0.0004
3629.00,0.0004
3628.00,0.0004
3627.00,0.0004
3626.00,0.0005
3625.00,0.0005
3624.00,0.0005
3623.00,0.0005
3622.00,0.0006
3621.00,0.0006
3620.00,0.0006
3619.00,0.0007
3618.00,0.0006
3617.00,0.0006
3616.00,0.0006
3615.00,0.0006
3614.00,0.0007
3613.00,0.0007
3612.00,0.0007
3611.00,0.0007
3610.00,0.0007
3609.00,0.0008
3608.00,0.0008
3607.00,0.0009
3606.00,0.0008
3605.00,0.0008
3604.00,0.0008
3603.00,0.0009
3602.00,0.0009
3601.00,0.0009
3600.00,0.0009
3599.00,0.0009
3598.00,0.0009
3597.00,0.0010
3596.00,0.0010
3595.00,0.0010
3594.00,0.0010
3593.00,0.0011
3592.00,0.0011
3591.00,0.0011
3590.00,0.0010
3589.00,0.0010
3588.00,0.0010
3587.00,0.0010
3586.00,0.0011
3585.00,0.0011
3584.00,0.0012
3583.00,0.0012
3582.00,0.0013
3581.00,0.0013
3580.00,0.0013
3579.00,0.0013
3578.00,0.0014
3577.00,0.0014
3576.00,0.0014
3575.00,0.0014
3574.00,0.0014
3573.00,0.0014
3572.00,0.0014
3571.00,0.0015
3570.00,0.0015
3569.00,0.0015
3568.00,0.0015
3567.00,0.0015
3566.00,0.0015
3565.00,0.0015
3564.00,0.0015
3563.00,0.0015
3562.00,0.0016
3561.00,0.0016
3560.00,0.0017
3559.00,0.0018
3558.00,0.0018
3557.00,0.0018
3556.00,0.0018
3555.00,0.0017
3554.00,0.0017
3553.00,0.0017
3552.00,0.0017
3551.00,0.0018
3550.00,0.0017
3549.00,0.0017
3548.00,0.0017
3547.00,0.0017
3546.00,0.0018
3545.00,0.0018
3544.00,0.0019
3543.00,0.0019
3542.00,0.0019
3541.00,0.0019
3540.00,0.0019
3539.00,0.0019
3538.00,0.0019
3537.00,0.0019
3536.00,0.0020
3535.00,0.0020
3534.00,0.0020
3533.00,0.0020
3532.00,0.0019
3531.00,0.0019
3530.00,0.0019
3529.00,0.0020
3528.00,0.0020
3527.00,0.0020
3526.00,0.0020
3525.00,0.0020
3524.00,0.0021
3523.00,0.0021
3522.00,0.0021
3521.00,0.0022
3520.00,0.0022
3519.00,0.0022
3518.00,0.0022
3517.00,0.0022
3516.00,0.0022
3515.00,0.0022
3514.00,0.0023
3513.00,0.0023
3512.00,0.0023
3511.00,0.0023
3510.00,0.0023
3509.00,0.0023
3508.00,0.0023
3507.00,0.0023
3506.00,0.0023
3505.00,0.0023
3504.00,0.0023
3503.00,0.0023
3502.00,0.0024
3501.00,0.0024
3500.00,0.0025
3499.00,0.0025
3498.00,0.0025
3497.00,0.0025
3496.00,0.0025
3495.00,0.0025
3494.00,0.0025
3493.00,0.0025
3492.00,0.0025
3491.00,0.0025
3490.00,0.0026
3489.00,0.0026
3488.00,0.0026
3487.00,0.0027
3486.00,0.0027
3485.00,0.0027
3484.00,0.0027
3483.00,0.0027
3482.00,0.0027
3481.00,0.0027
3480.00,0.0027
3479.00,0.0028
3478.00,0.0028
3477.00,0.0028
3476.00,0.0028
3475.00,0.0028
3474.00,0.0027
3473.00,0.0027
3472.00,0.0028
3471.00,0.0028
3470.00,0.0028
3469.00,0.0029
3468.00,0.0029
3467.00,0.0029
3466.00,0.0029
3465.00,0.0029
3464.00,0.0029
3463.00,0.0029
3462.00,0.0029
3461.00,0.0029
3460.00,0.0028
3459.00,0.0028
3458.00,0.0029
3457.00,0.0029
3456.00,0.0029
3455.00,0.0030
3454.00,0.0030
3453.00,0.0031
3452.00,0.0031
3451.00,0.0031
3450.00,0.0031
3449.00,0.0031
3448.00,0.0031
3447.00,0.0031
3446.00,0.0031
3445.00,0.0032
3444.00,0.0032
3443.00,0.0032
3442.00,0.0032
3441.00,0.0032
3440.00,0.0032
3439.00,0.0032
3438.00,0.0032
3437.00,0.0032
3436.00,0.0032
3435.00,0.0032
3434.00,0.0033
3433.00,0.0033
3432.00,0.0034
3431.00,0.0034
3430.00,0.0034
3429.00,0.0034
3428.00,0.0034
3427.00,0.0034
3426.00,0.0034
3425.00,0.0035
3424.00,0.0035
3423.00,0.0035
3422.00,0.0035
3421.00,0.0035
3420.00,0.0036
3419.00,0.0036
3418.00,0.0036
3417.00,0.0037
3416.00,0.0037
3415.00,0.0037
3414.00,0.0037
3413.00,0.0037
3412.00,0.0037
3411.00,0.0038
3410.00,0.0038
3409.00,0.0039
3408.00,0.0039
3407.00,0.0039
3406.00,0.0039
3405.00,0.0039
3404.00,0.0039
3403.00,0.0039
3402.00,0.0039
3401.00,0.0039
3400.00,0.0039
3399.00,0.0040
3398.00,0.0041
3397.00,0.0042
3396.00,0.0042
3395.00,0.0042
3394.00,0.0042
3393.00,0.0041
3392.00,0.0041
3391.00,0.0041
3390.00,0.0041
3389.00,0.0041
3388.00,0.0041
3387.00,0.0041
3386.00,0.0041
3385.00,0.0040
3384.00,0.0040
3383.00,0.0039
3382.00,0.0039
3381.00,0.0039
3380.00,0.0039
3379.00,0.0039
3378.00,0.0039
3377.00,0.0040
3376.00,0.0040
3375.00,0.0039
3374.00,0.0039
3373.00,0.0039
3372.00,0.0040
3371.00,0.0040
3370.00,0.0040
3369.00,0.0040
3368.00,0.0040
3367.00,0.0040
3366.00,0.0040
3365.00,0.0040
3364.00,0.0040
3363.00,0.0040
3362.00,0.0040
3361.00,0.0041
3360.00,0.0041
3359.00,0.0041
3358.00,0.0041
3357.00,0.0041
3356.00,0.0041
3355.00,0.0041
3354.00,0.0041
3353.00,0.0041
3352.00,0.0041
3351.00,0.0041
3350.00,0.0041
3349.00,0.0041
3348.00,0.0040
3347.00,0.0040
3346.00,0.0040
3345.00,0.0040
3344.00,0.0040
3343.00,0.0040
3342.00,0.0040
3341.00,0.0040
3340.00,0.0040
3339.00,0.0040
3338.00,0.0040
3337.00,0.0040
3336.00,0.0040
3335.00,0.0039
3334.00,0.0039
3333.00,0.0039
3332.00,0.0039
3331.00,0.0039
3330.00,0.0039
3329.00,0.0039
3328.00,0.0039
3327.00,0.0039
3326.00,0.0039
3325.00,0.0038
3324.00,0.0038
3323.00,0.0038
3322.00,0.0039
3321.00,0.0039
3320.00,0.0039
3319.00,0.0039
3318.00,0.0039
3317.00,0.0039
3316.00,0.0039
3315.00,0.0038
3314.00,0.0038
3313.00,0.0038
3312.00,0.0039
3311.00,0.0039
3310.00,0.0039
3309.00,0.0039
3308.00,0.0039
3307.00,0.0039
3306.00,0.0039
3305.00,0.0038
3304.00,0.0038
3303.00,0.0039
3302.00,0.0039
3301.00,0.0039
3300.00,0.0039
3299.00,0.0039
3298.00,0.0039
3297.00,0.0039
3296.00,0.0038
3295.00,0.0038
3294.00,0.0038
3293.00,0.0038
3292.00,0.0038
3291.00,0.0038
3290.00,0.0038
3289.00,0.0038
3288.00,0.0038
3287.00,0.0038
3286.00,0.0037
3285.00,0.0037
3284.00,0.0037
3283.00,0.0037
3282.00,0.0037
3281.00,0.0037
3280.00,0.0037
3279.00,0.0037
3278.00,0.0036
3277.00,0.0036
3276.00,0.0036
3275.00,0.0036
3274.00,0.0036
3273.00,0.0036
3272.00,0.0036
3271.00,0.0036
3270.00,0.0036
3269.00,0.0036
3268.00,0.0036
3267.00,0.0036
3266.00,0.0036
3265.00,0.0036
3264.00,0.0036
3263.00,0.0036
3262.00,0.0035
3261.00,0.0035
3260.00,0.0035
3259.00,0.0034
3258.00,0.0034
3257.00,0.0034
3256.00,0.0034
3255.00,0.0034
3254.00,0.0034
3253.00,0.0034
3252.00,0.0034
3251.00,0.0034
3250.00,0.0034
3249.00,0.0034
3248.00,0.0034
3247.00,0.0034
3246.00,0.0034
3245.00,0.0034
3244.00,0.0034
3243.00,0.0034
3242.00,0.0034
3241.00,0.0034
3240.00,0.0034
3239.00,0.0034
3238.00,0.0034
3237.00,0.0034
3236.00,0.0034
3235.00,0.0034
3234.00,0.0034
3233.00,0.0034
3232.00,0.0034
3231.00,0.0034
3230.00,0.0035
3229.00,0.0035
3228.00,0.0035
3227.00,0.0035
3226.00,0.0035
3225.00,0.0035
3224.00,0.0035
3223.00,0.0035
3222.00,0.0036
3221.00,0.0036
3220.00,0.0036
3219.00,0.0036
3218.00,0.0036
3217.00,0.0037
3216.00,0.0037
3215.00,0.0037
3214.00,0.0037
3213.00,0.0037
3212.00,0.0037
3211.00,0.0038
3210.00,0.0038
3209.00,0.0038
3208.00,0.0038
3207.00,0.0039
3206.00,0.0039
3205.00,0.0039
3204.00,0.0040
3203.00,0.0040
3202.00,0.0041
3201.00,0.0041
3200.00,0.0041
3199.00,0.0041
3198.00,0.0040
3197.00,0.0040
3196.00,0.0040
3195.00,0.0040
3194.00,0.0040
3193.00,0.0040
3192.00,0.0041
3191.00,0.0041
3190.00,0.0041
3189.00,0.0041
3188.00,0.0041
3187.00,0.0041
3186.00,0.0041
3185.00,0.0040
3184.00,0.0040
3183.00,0.0040
3182.00,0.0040
3181.00,0.0039
3180.00,0.0039
3179.00,0.0039
3178.00,0.0039
3177.00,0.0038
3176.00,0.0038
3175.00,0.0038
3174.00,0.0038
3173.00,0.0038
3172.00,0.0039
3171.00,0.0039
3170.00,0.0038
3169.00,0.0037
3168.00,0.0037
3167.00,0.0036
3166.00,0.0036
3165.00,0.0036
3164.00,0.0036
3163.00,0.0036
3162.00,0.0036
3161.00,0.0036
3160.00,0.0036
3159.00,0.0036
3158.00,0.0035
3157.00,0.0035
3156.00,0.0035
3155.00,0.0035
3154.00,0.0035
3153.00,0.0035
3152.00,0.0035
3151.00,0.0035
3150.00,0.0035
3149.00,0.0035
3148.00,0.0035
3147.00,0.0035
3146.00,0.0035
3145.00,0.0035
3144.00,0.0035
3143.00,0.0035
3142.00,0.0034
3141.00,0.0034
3140.00,0.0034
3139.00,0.0033
3138.00,0.0033
3137.00,0.0033
3136.00,0.0033
3135.00,0.0033
3134.00,0.0033
3133.00,0.0032
3132.00,0.0032
3131.00,0.0032
3130.00,0.0032
3129.00,0.0032
3128.00,0.0032
3127.00,0.0032
3126.00,0.0032
3125.00,0.0032
3124.00,0.0031
3123.00,0.0031
3122.00,0.0030
3121.00,0.0030
3120.00,0.0029
3119.00,0.0029
3118.00,0.0029
3117.00,0.0029
3116.00,0.0029
3115.00,0.0028
3114.00,0.0028
3113.00,0.0029
3112.00,0.0029
3111.00,0.0029
3110.00,0.0029
3109.00,0.0029
3108.00,0.0029
3107.00,0.0029
3106.00,0.0029
3105.00,0.0029
3104.00,0.0029
3103.00,0.0029
3102.00,0.0029
3101.00,0.0028
3100.00,0.0028
3099.00,0.0028
3098.00,0.0028
3097.00,0.0028
3096.00,0.0028
3095.00,0.0028
3094.00,0.0027
3093.00,0.0027
3092.00,0.0028
3091.00,0.0028
3090.00,0.0028
3089.00,0.0028
3088.00,0.0028
3087.00,0.0028
3086.00,0.0027
3085.00,0.0027
3084.00,0.0027
3083.00,0.0027
3082.00,0.0027
3081.00,0.0027
3080.00,0.0027
3079.00,0.0027
3078.00,0.0027
3077.00,0.0027
3076.00,0.0027
3075.00,0.0027
3074.00,0.0028
3073.00,0.0028
3072.00,0.0029
3071.00,0.0029
3070.00,0.0029
3069.00,0.0029
3068.00,0.0029
3067.00,0.0029
3066.00,0.0030
3065.00,0.0030
3064.00,0.0031
3063.00,0.0031
3062.00,0.0031
3061.00,0.0031
3060.00,0.0031
3059.00,0.0031
3058.00,0.0031
3057.00,0.0031
3056.00,0.0031
3055.00,0.0031
3054.00,0.0031
3053.00,0.0031
3052.00,0.0031
3051.00,0.0031
3050.00,0.0032
3049.00,0.0032
3048.00,0.0032
3047.00,0.0032
3046.00,0.0032
3045.00,0.0032
3044.00,0.0032
3043.00,0.0033
3042.00,0.0033
3041.00,0.0033
3040.00,0.0034
3039.00,0.0034
3038.00,0.0035
3037.00,0.0035
3036.00,0.0036
3035.00,0.0036
3034.00,0.0036
3033.00,0.0036
3032.00,0.0036
3031.00,0.0037
3030.00,0.0038
3029.00,0.0039
3028.00,0.0039
3027.00,0.0040
3026.00,0.0040
3025.00,0.0040
3024.00,0.0041
3023.00,0.0041
3022.00,0.0042
3021.00,0.0043
3020.00,0.0044
3019.00,0.0045
3018.00,0.0045
3017.00,0.0046
3016.00,0.0047
3015.00,0.0047
3014.00,0.0048
3013.00,0.0049
3012.00,0.0050
3011.00,0.0051
3010.00,0.0052
3009.00,0.0054
3008.00,0.0055
3007.00,0.0056
3006.00,0.0057
3005.00,0.0059
3004.00,0.0060
3003.00,0.0061
3002.00,0.0063
3001.00,0.0065
3000.00,0.0067
2999.00,0.0070
2998.00,0.0072
2997.00,0.0075
2996.00,0.0078
2995.00,0.0082
2994.00,0.0087
2993.00,0.0092
2992.00,0.0098
2991.00,0.0104
2990.00,0.0111
2989.00,0.0118
2988.00,0.0125
2987.00,0.0134
2986.00,0.0143
2985.00,0.0153
2984.00,0.0164
2983.00,0.0177
2982.00,0.0193
2981.00,0.0211
2980.00,0.0233
2979.00,0.0258
2978.00,0.0286
2977.00,0.0318
2976.00,0.0354
2975.00,0.0394
2974.00,0.0439
2973.00,0.0490
2972.00,0.0548
2971.00,0.0614
2970.00,0.0688
2969.00,0.0771
2968.00,0.0862
2967.00,0.0962
2966.00,0.1068
2965.00,0.1180
2964.00,0.1294
2963.00,0.1407
2962.00,0.1513
2961.00,0.1607
2960.00,0.1684
2959.00,0.1745
2958.00,0.1789
2957.00,0.1820
2956.00,0.1846
2955.00,0.1871
2954.00,0.1898
2953.00,0.1925
2952.00,0.1949
2951.00,0.1961
2950.00,0.1952
2949.00,0.1916
2948.00,0.1848
2947.00,0.1751
2946.00,0.1634
2945.00,0.1506
2944.00,0.1381
2943.00,0.1270
2942.00,0.1180
2941.00,0.1115
2940.00,0.1074
2939.00,0.1056
2938.00,0.1058
2937.00,0.1079
2936.00,0.1115
2935.00,0.1166
2934.00,0.1230
2933.00,0.1305
2932.00,0.1391
2931.00,0.1485
2930.00,0.1585
2929.00,0.1687
2928.00,0.1788
2927.00,0.1886
2926.00,0.1980
2925.00,0.2070
2924.00,0.2157
2923.00,0.2242
2922.00,0.2325
2921.00,0.2403
2920.00,0.2472
2919.00,0.2525
2918.00,0.2553
2917.00,0.2551
2916.00,0.2517
2915.00,0.2454
2914.00,0.2372
2913.00,0.2280
2912.00,0.2189
2911.00,0.2104
2910.00,0.2028
2909.00,0.1960
2908.00,0.1899
2907.00,0.1840
2906.00,0.1780
2905.00,0.1719
2904.00,0.1654
2903.00,0.1587
2902.00,0.1518
2901.00,0.1449
2900.00,0.1382
2899.00,0.1318
2898.00,0.1258
2897.00,0.1203
2896.00,0.1155
2895.00,0.1113
2894.00,0.1079
2893.00,0.1052
2892.00,0.1031
2891.00,0.1016
2890.00,0.1007
2889.00,0.1003
2888.00,0.1003
2887.00,0.1007
2886.00,0.1014
2885.00,0.1025
2884.00,0.1040
2883.00,0.1059
2882.00,0.1082
2881.00,0.1107
2880.00,0.1131
2879.00,0.1151
2878.00,0.1164
2877.00,0.1168
2876.00,0.1164
2875.00,0.1157
2874.00,0.1150
2873.00,0.1147
2872.00,0.1151
2871.00,0.1161
2870.00,0.1177
2869.00,0.1193
2868.00,0.1203
2867.00,0.1199
2866.00,0.1176
2865.00,0.1130
2864.00,0.1063
2863.00,0.0984
2862.00,0.0900
2861.00,0.0823
2860.00,0.0756
2859.00,0.0703
2858.00,0.0665
2857.00,0.0641
2856.00,0.0628
2855.00,0.0626
2854.00,0.0633
2853.00,0.0648
2852.00,0.0669
2851.00,0.0694
2850.00,0.0720
2849.00,0.0745
2848.00,0.0771
2847.00,0.0799
2846.00,0.0835
2845.00,0.0881
2844.00,0.0938
2843.00,0.1004
2842.00,0.1074
2841.00,0.1142
2840.00,0.1200
2839.00,0.1239
2838.00,0.1249
2837.00,0.1224
2836.00,0.1165
2835.00,0.1076
2834.00,0.0970
2833.00,0.0857
2832.00,0.0749
2831.00,0.0653
2830.00,0.0571
2829.00,0.0504
2828.00,0.0450
2827.00,0.0406
2826.00,0.0370
2825.00,0.0341
2824.00,0.0316
2823.00,0.0296
2822.00,0.0278
2821.00,0.0262
2820.00,0.0248
2819.00,0.0236
2818.00,0.0226
2817.00,0.0217
2816.00,0.0210
2815.00,0.0203
2814.00,0.0196
2813.00,0.0191
2812.00,0.0186
2811.00,0.0181
2810.00,0.0176
2809.00,0.0171
2808.00,0.0165
2807.00,0.0159
2806.00,0.0153
2805.00,0.0147
2804.00,0.0140
2803.00,0.0134
2802.00,0.0129
2801.00,0.0124
2800.00,0.0120
2799.00,0.0117
2798.00,0.0114
2797.00,0.0112
2796.00,0.0109
2795.00,0.0107
2794.00,0.0104
2793.00,0.0101
2792.00,0.0098
2791.00,0.0094
2790.00,0.0090
2789.00,0.0087
2788.00,0.0084
2787.00,0.0081
2786.00,0.0079
2785.00,0.0076
2784.00,0.0074
2783.00,0.0072
2782.00,0.0070
2781.00,0.0068
2780.00,0.0066
2779.00,0.0064
2778.00,0.0062
2777.00,0.0061
2776.00,0.0059
2775.00,0.0058
2774.00,0.0057
2773.00,0.0057
2772.00,0.0056
2771.00,0.0056
2770.00,0.0056
2769.00,0.0055
2768.00,0.0055
2767.00,0.0054
2766.00,0.0054
2765.00,0.0053
2764.00,0.0053
2763.00,0.0053
2762.00,0.0052
2761.00,0.0052
2760.00,0.0052
2759.00,0.0051
2758.00,0.0051
2757.00,0.0051
2756.00,0.0050
2755.00,0.0050
2754.00,0.0050
2753.00,0.0050
2752.00,0.0050
2751.00,0.0050
2750.00,0.0050
2749.00,0.0050
2748.00,0.0050
2747.00,0.0050
2746.00,0.0051
2745.00,0.0052
2744.00,0.0052
2743.00,0.0053
2742.00,0.0054
2741.00,0.0055
2740.00,0.0056
2739.00,0.0058
2738.00,0.0059
2737.00,0.0060
2736.00,0.0062
2735.00,0.0063
2734.00,0.0064
2733.00,0.0066
2732.00,0.0068
2731.00,0.0070
2730.00,0.0072
2729.00,0.0074
2728.00,0.0077
2727.00,0.0080
2726.00,0.0082
2725.00,0.0084
2724.00,0.0086
2723.00,0.0086
2722.00,0.0086
2721.00,0.0084
2720.00,0.0081
2719.00,0.0078
2718.00,0.0075
2717.00,0.0072
2716.00,0.0069
2715.00,0.0067
2714.00,0.0065
2713.00,0.0063
2712.00,0.0061
2711.00,0.0059
2710.00,0.0057
2709.00,0.0055
2708.00,0.0054
2707.00,0.0052
2706.00,0.0051
2705.00,0.0050
2704.00,0.0049
2703.00,0.0048
2702.00,0.0047
2701.00,0.0047
2700.00,0.0046
2699.00,0.0045
2698.00,0.0045
2697.00,0.0044
2696.00,0.0044
2695.00,0.0044
2694.00,0.0044
2693.00,0.0044
2692.00,0.0044
2691.00,0.0045
2690.00,0.0045
2689.00,0.0045
2688.00,0.0044
2687.00,0.0044
2686.00,0.0043
2685.00,0.0043
2684.00,0.0043
2683.00,0.0044
2682.00,0.0044
2681.00,0.0045
2680.00,0.0045
2679.00,0.0045
2678.00,0.0045
2677.00,0.0044
2676.00,0.0044
2675.00,0.0044
2674.00,0.0043
2673.00,0.0043
2672.00,0.0043
2671.00,0.0043
2670.00,0.0043
2669.00,0.0043
2668.00,0.0043
2667.00,0.0044
2666.00,0.0044
2665.00,0.0044
2664.00,0.0045
2663.00,0.0045
2662.00,0.0046
2661.00,0.0046
2660.00,0.0046
2659.00,0.0047
2658.00,0.0046
2657.00,0.0046
2656.00,0.0046
2655.00,0.0045
2654.00,0.0045
2653.00,0.0044
2652.00,0.0044
2651.00,0.0043
2650.00,0.0043
2649.00,0.0043
2648.00,0.0043
2647.00,0.0042
2646.00,0.0042
2645.00,0.0042
2644.00,0.0041
2643.00,0.0040
2642.00,0.0040
2641.00,0.0039
2640.00,0.0038
2639.00,0.0038
2638.00,0.0038
2637.00,0.0037
2636.00,0.0037
2635.00,0.0037
2634.00,0.0037
2633.00,0.0037
2632.00,0.0037
2631.00,0.0038
2630.00,0.0038
2629.00,0.0038
2628.00,0.0038
2627.00,0.0038
2626.00,0.0038
2625.00,0.0038
2624.00,0.0038
2623.00,0.0039
2622.00,0.0039
2621.00,0.0039
2620.00,0.0039
2619.00,0.0039
2618.00,0.0040
2617.00,0.0040
2616.00,0.0040
2615.00,0.0040
2614.00,0.0039
2613.00,0.0038
2612.00,0.0037
2611.00,0.0036
2610.00,0.0036
2609.00,0.0036
2608.00,0.0035
2607.00,0.0035
2606.00,0.0035
2605.00,0.0034
2604.00,0.0033
2603.00,0.0032
2602.00,0.0032
2601.00,0.0031
2600.00,0.0031
2599.00,0.0031
2598.00,0.0031
2597.00,0.0031
2596.00,0.0030
2595.00,0.0030
2594.00,0.0030
2593.00,0.0030
2592.00,0.0030
2591.00,0.0030
2590.00,0.0031
2589.00,0.0033
2588.00,0.0034
2587.00,0.0036
2586.00,0.0037
2585.00,0.0038
2584.00,0.0038
2583.00,0.0038
2582.00,0.0038
2581.00,0.0038
2580.00,0.0038
2579.00,0.0037
2578.00,0.0036
2577.00,0.0035
2576.00,0.0033
2575.00,0.0032
2574.00,0.0031
2573.00,0.0031
2572.00,0.0030
2571.00,0.0028
2570.00,0.0027
2569.00,0.0026
2568.00,0.0025
2567.00,0.0025
2566.00,0.0025
2565.00,0.0025
2564.00,0.0025
2563.00,0.0024
2562.00,0.0024
2561.00,0.0023
2560.00,0.0023
2559.00,0.0022
2558.00,0.0022
2557.00,0.0022
2556.00,0.0021
2555.00,0.0021
2554.00,0.0020
2553.00,0.0020
2552.00,0.0020
2551.00,0.0020
2550.00,0.0021
2549.00,0.0020
2548.00,0.0020
2547.00,0.0019
2546.00,0.0018
2545.00,0.0018
2544.00,0.0018
2543.00,0.0018
2542.00,0.0018
2541.00,0.0018
2540.00,0.0017
2539.00,0.0017
2538.00,0.0016
2537.00,0.0015
2536.00,0.0014
2535.00,0.0014
2534.00,0.0013
2533.00,0.0014
2532.00,0.0014
2531.00,0.0015
2530.00,0.0015
2529.00,0.0015
2528.00,0.0015
2527.00,0.0015
2526.00,0.0014
2525.00,0.0014
2524.00,0.0014
2523.00,0.0013
2522.00,0.0013
2521.00,0.0012
2520.00,0.0012
2519.00,0.0011
2518.00,0.0011
2517.00,0.0010
2516.00,0.0010
2515.00,0.0010
2514.00,0.0011
2513.00,0.0011
2512.00,0.0011
2511.00,0.0011
2510.00,0.0011
2509.00,0.0010
2508.00,0.0010
2507.00,0.0010
2506.00,0.0010
2505.00,0.0010
2504.00,0.0010
2503.00,0.0010
2502.00,0.0010
2501.00,0.0010
2500.00,0.0009
2499.00,0.0009
2498.00,0.0009
2497.00,0.0008
2496.00,0.0008
2495.00,0.0008
2494.00,0.0008
2493.00,0.0009
2492.00,0.0009
2491.00,0.0010
2490.00,0.0011
2489.00,0.0011
2488.00,0.0011
2487.00,0.0010
2486.00,0.0009
2485.00,0.0009
2484.00,0.0009
2483.00,0.0010
2482.00,0.0010
2481.00,0.0010
2480.00,0.0010
2479.00,0.0009
2478.00,0.0009
2477.00,0.0008
2476.00,0.0009
2475.00,0.0009
2474.00,0.0009
2473.00,0.0009
2472.00,0.0009
2471.00,0.0008
2470.00,0.0008
2469.00,0.0008
2468.00,0.0008
2467.00,0.0009
2466.00,0.0009
2465.00,0.0009
2464.00,0.0009
2463.00,0.0009
2462.00,0.0009
2461.00,0.0009
2460.00,0.0009
2459.00,0.0009
2458.00,0.0010
2457.00,0.0010
2456.00,0.0010
2455.00,0.0010
2454.00,0.0010
2453.00,0.0010
2452.00,0.0011
2451.00,0.0011
2450.00,0.0011
2449.00,0.0010
2448.00,0.0010
2447.00,0.0010
2446.00,0.0010
2445.00,0.0010
2444.00,0.0010
2443.00,0.0010
2442.00,0.0010
2441.00,0.0010
2440.00,0.0010
2439.00,0.0011
2438.00,0.0011
2437.00,0.0011
2436.00,0.0011
2435.00,0.0011
2434.00,0.0012
2433.00,0.0012
2432.00,0.0013
2431.00,0.0013
2430.00,0.0012
2429.00,0.0011
2428.00,0.0011
2427.00,0.0011
2426.00,0.0011
2425.00,0.0011
2424.00,0.0011
2423.00,0.0011
2422.00,0.0011
2421.00,0.0010
2420.00,0.0010
2419.00,0.0010
2418.00,0.0009
2417.00,0.0009
2416.00,0.0008
2415.00,0.0008
2414.00,0.0008
2413.00,0.0008
2412.00,0.0008
2411.00,0.0009
2410.00,0.0009
2409.00,0.0009
2408.00,0.0009
2407.00,0.0008
2406.00,0.0008
2405.00,0.0008
2404.00,0.0008
2403.00,0.0009
2402.00,0.0009
2401.00,0.0009
2400.00,0.0009
2399.00,0.0009
2398.00,0.0009
2397.00,0.0009
2396.00,0.0009
2395.00,0.0009
2394.00,0.0008
2393.00,0.0008
2392.00,0.0008
2391.00,0.0008
2390.00,0.0008
2389.00,0.0007
2388.00,0.0007
2387.00,0.0007
2386.00,0.0006
2385.00,0.0006
2384.00,0.0005
2383.00,0.0004
2382.00,0.0003
2381.00,0.0003
2380.00,0.0002
2379.00,0.0002
2378.00,0.0001
2377.00,0.0001
2376.00,0.0001
2375.00,0.0002
2374.00,0.0003
2373.00,0.0003
2372.00,0.0003
2371.00,0.0003
2370.00,0.0003
2369.00,0.0003
2368.00,0.0003
2367.00,0.0002
2366.00,0.0001
2365.00,0.0001
2364.00,0.0002
2363.00,0.0002
2362.00,0.0002
2361.00,0.0002
2360.00,0.0002
2359.00,0.0002
2358.00,0.0002
2357.00,0.0003
2356.00,0.0003
2355.00,0.0003
2354.00,0.0002
2353.00,0.0002
2352.00,0.0002
2351.00,0.0002
2350.00,0.0003
2349.00,0.0003
2348.00,0.0003
2347.00,0.0003
2346.00,0.0003
2345.00,0.0004
2344.00,0.0005
2343.00,0.0005
2342.00,0.0004
2341.00,0.0004
2340.00,0.0003
2339.00,0.0003
2338.00,0.0004
2337.00,0.0005
2336.00,0.0006
2335.00,0.0006
2334.00,0.0005
2333.00,0.0004
2332.00,0.0003
2331.00,0.0003
2330.00,0.0003
2329.00,0.0004
2328.00,0.0007
2327.00,0.0010
2326.00,0.0014
2325.00,0.0017
2324.00,0.0018
2323.00,0.0017
2322.00,0.0016
2321.00,0.0014
2320.00,0.0013
2319.00,0.0012
2318.00,0.0011
2317.00,0.0011
2316.00,0.0010
2315.00,0.0010
2314.00,0.0010
2313.00,0.0010
2312.00,0.0010
2311.00,0.0010
2310.00,0.0009
2309.00,0.0009
2308.00,0.0009
2307.00,0.0009
2306.00,0.0009
2305.00,0.0009
2304.00,0.0010
2303.00,0.0010
2302.00,0.0011
2301.00,0.0011
2300.00,0.0012
2299.00,0.0012
2298.00,0.0012
2297.00,0.0013
2296.00,0.0013
2295.00,0.0015
2294.00,0.0016
2293.00,0.0017
2292.00,0.0018
2291.00,0.0018
2290.00,0.0018
2289.00,0.0018
2288.00,0.0018
2287.00,0.0018
2286.00,0.0018
2285.00,0.0019
2284.00,0.0018
2283.00,0.0017
2282.00,0.0016
2281.00,0.0015
2280.00,0.0015
2279.00,0.0014
2278.00,0.0014
2277.00,0.0013
2276.00,0.0013
2275.00,0.0013
2274.00,0.0014
2273.00,0.0014
2272.00,0.0014
2271.00,0.0013
2270.00,0.0013
2269.00,0.0013
2268.00,0.0013
2267.00,0.0013
2266.00,0.0012
2265.00,0.0011
2264.00,0.0009
2263.00,0.0008
2262.00,0.0008
2261.00,0.0010
2260.00,0.0011
2259.00,0.0011
2258.00,0.0011
2257.00,0.0010
2256.00,0.0009
2255.00,0.0008
2254.00,0.0008
2253.00,0.0008
2252.00,0.0008
2251.00,0.0008
2250.00,0.0008
2249.00,0.0008
2248.00,0.0007
2247.00,0.0007
2246.00,0.0006
2245.00,0.0006
2244.00,0.0006
2243.00,0.0007
2242.00,0.0007
2241.00,0.0008
2240.00,0.0008
2239.00,0.0008
2238.00,0.0008
2237.00,0.0007
2236.00,0.0007
2235.00,0.0007
2234.00,0.0007
2233.00,0.0008
2232.00,0.0008
2231.00,0.0008
2230.00,0.0009
2229.00,0.0010
2228.00,0.0010
2227.00,0.0011
2226.00,0.0011
2225.00,0.0010
2224.00,0.0009
2223.00,0.0008
2222.00,0.0006
2221.00,0.0004
2220.00,0.0004
2219.00,0.0003
2218.00,0.0004
2217.00,0.0004
2216.00,0.0004
2215.00,0.0003
2214.00,0.0003
2213.00,0.0003
2212.00,0.0004
2211.00,0.0005
2210.00,0.0006
2209.00,0.0007
2208.00,0.0008
2207.00,0.0008
2206.00,0.0007
2205.00,0.0006
2204.00,0.0004
2203.00,0.0004
2202.00,0.0004
2201.00,0.0005
2200.00,0.0005
2199.00,0.0005
2198.00,0.0004
2197.00,0.0005
2196.00,0.0007
2195.00,0.0008
2194.00,0.0010
2193.00,0.0012
2192.00,0.0014
2191.00,0.0014
2190.00,0.0014
2189.00,0.0014
2188.00,0.0012
2187.00,0.0010
2186.00,0.0008
2185.00,0.0007
2184.00,0.0007
2183.00,0.0005
2182.00,0.0002
2181.00,0.0000
2180.00,0.0000
2179.00,0.0001
2178.00,0.0003
2177.00,0.0002
2176.00,0.0000
2175.00,-0.0001
2174.00,0.0000
2173.00,0.0002
2172.00,0.0004
2171.00,0.0006
2170.00,0.0008
2169.00,0.0011
2168.00,0.0014
2167.00,0.0016
2166.00,0.0016
2165.00,0.0015
2164.00,0.0015
2163.00,0.0016
2162.00,0.0015
2161.00,0.0010
2160.00,-0.0002
2159.00,-0.0019
2158.00,-0.0032
2157.00,-0.0036
2156.00,-0.0032
2155.00,-0.0027
2154.00,-0.0021
2153.00,-0.0016
2152.00,-0.0013
2151.00,-0.0011
2150.00,-0.0011
2149.00,-0.0013
2148.00,-0.0014
2147.00,-0.0016
2146.00,-0.0017
2145.00,-0.0017
2144.00,-0.0016
2143.00,-0.0015
2142.00,-0.0015
2141.00,-0.0015
2140.00,-0.0015
2139.00,-0.0014
2138.00,-0.0013
2137.00,-0.0013
2136.00,-0.0014
2135.00,-0.0016
2134.00,-0.0018
2133.00,-0.0019
2132.00,-0.0018
2131.00,-0.0017
2130.00,-0.0015
2129.00,-0.0014
2128.00,-0.0013
2127.00,-0.0012
2126.00,-0.0010
2125.00,-0.0008
2124.00,-0.0007
2123.00,-0.0006
2122.00,-0.0006
2121.00,-0.0007
2120.00,-0.0007
2119.00,-0.0006
2118.00,-0.0004
2117.00,-0.0002
2116.00,0.0000
2115.00,0.0001
2114.00,0.0001
2113.00,0.0000
2112.00,0.0000
2111.00,0.0001
2110.00,0.0002
2109.00,0.0003
2108.00,0.0003
2107.00,0.0003
2106.00,0.0002
2105.00,0.0002
2104.00,0.0003
2103.00,0.0003
2102.00,0.0003
2101.00,0.0002
2100.00,0.0001
2099.00,-0.0001
2098.00,-0.0002
2097.00,-0.0003
2096.00,-0.0004
2095.00,-0.0004
2094.00,-0.0004
2093.00,-0.0004
2092.00,-0.0004
2091.00,-0.0004
2090.00,-0.0004
2089.00,-0.0004
2088.00,-0.0002
2087.00,-0.0000
2086.00,0.0001
2085.00,0.0002
2084.00,0.0002
2083.00,0.0002
2082.00,0.0001
2081.00,0.0000
2080.00,0.0000
2079.00,0.0000
2078.00,0.0001
2077.00,0.0003
2076.00,0.0004
2075.00,0.0005
2074.00,0.0005
2073.00,0.0005
2072.00,0.0004
2071.00,0.0003
2070.00,0.0001
2069.00,0.0000
2068.00,-0.0000
2067.00,-0.0001
2066.00,-0.0002
2065.00,-0.0002
2064.00,-0.0001
2063.00,0.0001
2062.00,0.0001
2061.00,0.0000
2060.00,-0.0001
2059.00,-0.0003
2058.00,-0.0004
2057.00,-0.0003
2056.00,-0.0003
2055.00,-0.0002
2054.00,0.0001
2053.00,0.0006
2052.00,0.0012
2051.00,0.0016
2050.00,0.0015
2049.00,0.0011
2048.00,0.0007
2047.00,0.0004
2046.00,0.0002
2045.00,0.0001
2044.00,0.0001
2043.00,0.0002
2042.00,0.0001
2041.00,-0.0000
2040.00,-0.0002
2039.00,-0.0002
2038.00,-0.0003
2037.00,-0.0004
2036.00,-0.0007
2035.00,-0.0009
2034.00,-0.0011
2033.00,-0.0010
2032.00,-0.0009
2031.00,-0.0008
2030.00,-0.0008
2029.00,-0.0009
2028.00,-0.0009
2027.00,-0.0008
2026.00,-0.0008
2025.00,-0.0008
2024.00,-0.0008
2023.00,-0.0009
2022.00,-0.0010
2021.00,-0.0011
2020.00,-0.0011
2019.00,-0.0010
2018.00,-0.0009
2017.00,-0.0008
2016.00,-0.0009
2015.00,-0.0011
2014.00,-0.0014
2013.00,-0.0014
2012.00,-0.0012
2011.00,-0.0011
2010.00,-0.0012
2009.00,-0.0014
2008.00,-0.0017
2007.00,-0.0020
2006.00,-0.0021
2005.00,-0.0021
2004.00,-0.0020
2003.00,-0.0019
2002.00,-0.0017
2001.00,-0.0015
2000.00,-0.0014
1999.00,-0.0013
1998.00,-0.0012
1997.00,-0.0011
1996.00,-0.0008
1995.00,-0.0007
1994.00,-0.0007
1993.00,-0.0007
1992.00,-0.0007
1991.00,-0.0006
1990.00,-0.0004
1989.00,-0.0003
1988.00,-0.0002
1987.00,-0.0002
1986.00,-0.0003
1985.00,-0.0002
1984.00,-0.0000
1983.00,0.0002
1982.00,0.0005
1981.00,0.0007
1980.00,0.0006
1979.00,0.0002
1978.00,-0.0005
1977.00,-0.0011
1976.00,-0.0014
1975.00,-0.0016
1974.00,-0.0017
1973.00,-0.0015
1972.00,-0.0013
1971.00,-0.0012
1970.00,-0.0011
1969.00,-0.0011
1968.00,-0.0012
1967.00,-0.0012
1966.00,-0.0012
1965.00,-0.0011
1964.00,-0.0012
1963.00,-0.0015
1962.00,-0.0020
1961.00,-0.0023
1960.00,-0.0024
1959.00,-0.0022
1958.00,-0.0020
1957.00,-0.0019
1956.00,-0.0018
1955.00,-0.0018
1954.00,-0.0018
1953.00,-0.0016
1952.00,-0.0014
1951.00,-0.0013
1950.00,-0.0013
1949.00,-0.0014
1948.00,-0.0016
1947.00,-0.0017
1946.00,-0.0019
1945.00,-0.0020
1944.00,-0.0020
1943.00,-0.0020
1942.00,-0.0019
1941.00,-0.0017
1940.00,-0.0016
1939.00,-0.0014
1938.00,-0.0013
1937.00,-0.0011
1936.00,-0.0010
1935.00,-0.0010
1934.00,-0.0012
1933.00,-0.0013
1932.00,-0.0013
1931.00,-0.0012
1930.00,-0.0011
1929.00,-0.0009
1928.00,-0.0008
1927.00,-0.0008
1926.00,-0.0009
1925.00,-0.0009
1924.00,-0.0009
1923.00,-0.0008
1922.00,-0.0007
1921.00,-0.0006
1920.00,-0.0005
1919.00,-0.0004
1918.00,-0.0003
1917.00,-0.0004
1916.00,-0.0004
1915.00,-0.0005
1914.00,-0.0006
1913.00,-0.0006
1912.00,-0.0006
1911.00,-0.0006
1910.00,-0.0006
1909.00,-0.0004
1908.00,-0.0003
1907.00,-0.0003
1906.00,-0.0002
1905.00,-0.0002
1904.00,-0.0002
1903.00,-0.0003
1902.00,-0.0004
1901.00,-0.0005
1900.00,-0.0005
1899.00,-0.0005
1898.00,-0.0005
1897.00,-0.0004
1896.00,-0.0002
1895.00,-0.0001
1894.00,-0.0000
1893.00,-0.0001
1892.00,-0.0002
1891.00,-0.0003
1890.00,-0.0003
1889.00,-0.0003
1888.00,-0.0003
1887.00,-0.0003
1886.00,-0.0004
1885.00,-0.0003
1884.00,-0.0002
1883.00,-0.0001
1882.00,-0.0001
1881.00,-0.0002
1880.00,-0.0002
1879.00,-0.0003
1878.00,-0.0002
1877.00,-0.0002
1876.00,-0.0001
1875.00,-0.0001
1874.00,-0.0002
1873.00,-0.0002
1872.00,-0.0002
1871.00,-0.0003
1870.00,-0.0002
1869.00,-0.0001
1868.00,-0.0000
1867.00,0.0001
1866.00,0.0001
1865.00,0.0000
1864.00,-0.0000
1863.00,-0.0001
1862.00,-0.0002
1861.00,-0.0003
1860.00,-0.0002
1859.00,-0.0002
1858.00,-0.0002
1857.00,-0.0002
1856.00,-0.0001
1855.00,-0.0000
1854.00,0.0000
1853.00,0.0001
1852.00,0.0001
1851.00,0.0000
1850.00,0.0000
1849.00,0.0000
1848.00,0.0000
1847.00,0.0001
1846.00,0.0001
1845.00,0.0001
1844.00,0.0001
1843.00,0.0002
1842.00,0.0002
1841.00,0.0003
1840.00,0.0003
1839.00,0.0004
1838.00,0.0004
1837.00,0.0004
1836.00,0.0003
1835.00,0.0003
1834.00,0.0002
1833.00,0.0002
1832.00,0.0003
1831.00,0.0003
1830.00,0.0003
1829.00,0.0004
1828.00,0.0004
1827.00,0.0004
1826.00,0.0004
1825.00,0.0003
1824.00,0.0003
1823.00,0.0003
1822.00,0.0002
1821.00,0.0002
1820.00,0.0002
1819.00,0.0001
1818.00,0.0000
1817.00,-0.0000
1816.00,0.0000
1815.00,0.0001
1814.00,0.0001
1813.00,0.0001
1812.00,0.0002
1811.00,0.0002
1810.00,0.0002
1809.00,0.0002
1808.00,0.0002
1807.00,0.0002
1806.00,0.0002
1805.00,0.0002
1804.00,0.0003
1803.00,0.0004
1802.00,0.0004
1801.00,0.0004
1800.00,0.0004
1799.00,0.0004
1798.00,0.0004
1797.00,0.0004
1796.00,0.0004
1795.00,0.0005
1794.00,0.0005
1793.00,0.0005
1792.00,0.0005
1791.00,0.0006
1790.00,0.0005
1789.00,0.0006
1788.00,0.0006
1787.00,0.0007
1786.00,0.0008
1785.00,0.0008
1784.00,0.0008
1783.00,0.0007
1782.00,0.0007
1781.00,0.0006
1780.00,0.0007
1779.00,0.0007
1778.00,0.0006
1777.00,0.0006
1776.00,0.0006
1775.00,0.0006
1774.00,0.0007
1773.00,0.0007
1772.00,0.0008
1771.00,0.0008
1770.00,0.0009
1769.00,0.0009
1768.00,0.0010
1767.00,0.0010
1766.00,0.0011
1765.00,0.0011
1764.00,0.0012
1763.00,0.0012
1762.00,0.0011
1761.00,0.0012
1760.00,0.0012
1759.00,0.0013
1758.00,0.0013
1757.00,0.0014
1756.00,0.0014
1755.00,0.0014
1754.00,0.0015
1753.00,0.0015
1752.00,0.0015
1751.00,0.0016
1750.00,0.0017
1749.00,0.0017
1748.00,0.0018
1747.00,0.0019
1746.00,0.0019
1745.00,0.0020
1744.00,0.0020
1743.00,0.0021
1742.00,0.0022
1741.00,0.0022
1740.00,0.0022
1739.00,0.0023
1738.00,0.0023
1737.00,0.0024
1736.00,0.0024
1735.00,0.0023
1734.00,0.0022
1733.00,0.0022
1732.00,0.0021
1731.00,0.0021
1730.00,0.0022
1729.00,0.0022
1728.00,0.0022
1727.00,0.0022
1726.00,0.0021
1725.00,0.0021
1724.00,0.0021
1723.00,0.0021
1722.00,0.0021
1721.00,0.0021
1720.00,0.0022
1719.00,0.0022
1718.00,0.0021
1717.00,0.0021
1716.00,0.0021
1715.00,0.0021
1714.00,0.0021
1713.00,0.0021
1712.00,0.0022
1711.00,0.0022
1710.00,0.0022
1709.00,0.0022
1708.00,0.0023
1707.00,0.0022
1706.00,0.0022
1705.00,0.0023
1704.00,0.0024
1703.00,0.0025
1702.00,0.0026
1701.00,0.0027
1700.00,0.0027
1699.00,0.0027
1698.00,0.0028
1697.00,0.0029
1696.00,0.0030
1695.00,0.0030
1694.00,0.0030
1693.00,0.0030
1692.00,0.0030
1691.00,0.0030
1690.00,0.0031
1689.00,0.0031
1688.00,0.0031
1687.00,0.0031
1686.00,0.0031
1685.00,0.0031
1684.00,0.0032
1683.00,0.0033
1682.00,0.0034
1681.00,0.0034
1680.00,0.0035
1679.00,0.0036
1678.00,0.0037
1677.00,0.0038
1676.00,0.0039
1675.00,0.0040
1674.00,0.0040
1673.00,0.0041
1672.00,0.0041
1671.00,0.0041
1670.00,0.0042
1669.00,0.0043
1668.00,0.0043
1667.00,0.0043
1666.00,0.0044
1665.00,0.0044
1664.00,0.0045
1663.00,0.0046
1662.00,0.0047
1661.00,0.0047
1660.00,0.0047
1659.00,0.0047
1658.00,0.0048
1657.00,0.0049
1656.00,0.0051
1655.00,0.0053
1654.00,0.0055
1653.00,0.0057
1652.00,0.0058
1651.00,0.0058
1650.00,0.0059
1649.00,0.0061
1648.00,0.0064
1647.00,0.0066
1646.00,0.0067
1645.00,0.0067
1644.00,0.0066
1643.00,0.0064
1642.00,0.0063
1641.00,0.0062
1640.00,0.0061
1639.00,0.0061
1638.00,0.0061
1637.00,0.0062
1636.00,0.0063
1635.00,0.0063
1634.00,0.0064
1633.00,0.0064
1632.00,0.0064
1631.00,0.0064
1630.00,0.0064
1629.00,0.0064
1628.00,0.0064
1627.00,0.0064
1626.00,0.0064
1625.00,0.0064
1624.00,0.0064
1623.00,0.0064
1622.00,0.0063
1621.00,0.0063
1620.00,0.0063
1619.00,0.0062
1618.00,0.0061
1617.00,0.0061
1616.00,0.0061
1615.00,0.0060
1614.00,0.0060
1613.00,0.0060
1612.00,0.0060
1611.00,0.0059
1610.00,0.0058
1609.00,0.0058
1608.00,0.0058
1607.00,0.0059
1606.00,0.0059
1605.00,0.0060
1604.00,0.0060
1603.00,0.0060
1602.00,0.0060
1601.00,0.0060
1600.00,0.0061
1599.00,0.0061
1598.00,0.0062
1597.00,0.0063
1596.00,0.0064
1595.00,0.0065
1594.00,0.0066
1593.00,0.0068
1592.00,0.0070
1591.00,0.0072
1590.00,0.0075
1589.00,0.0079
1588.00,0.0083
1587.00,0.0088
1586.00,0.0093
1585.00,0.0100
1584.00,0.0108
1583.00,0.0117
1582.00,0.0126
1581.00,0.0135
1580.00,0.0144
1579.00,0.0150
1578.00,0.0154
1577.00,0.0154
1576.00,0.0151
1575.00,0.0146
1574.00,0.0140
1573.00,0.0135
1572.00,0.0129
1571.00,0.0122
1570.00,0.0113
1569.00,0.0105
1568.00,0.0099
1567.00,0.0095
1566.00,0.0091
1565.00,0.0089
1564.00,0.0087
1563.00,0.0086
1562.00,0.0087
1561.00,0.0087
1560.00,0.0087
1559.00,0.0087
1558.00,0.0087
1557.00,0.0088
1556.00,0.0088
1555.00,0.0090
1554.00,0.0092
1553.00,0.0094
1552.00,0.0098
1551.00,0.0103
1550.00,0.0109
1549.00,0.0116
1548.00,0.0123
1547.00,0.0131
1546.00,0.0139
1545.00,0.0149
1544.00,0.0160
1543.00,0.0169
1542.00,0.0175
1541.00,0.0177
1540.00,0.0173
1539.00,0.0163
1538.00,0.0153
1537.00,0.0143
1536.00,0.0135
1535.00,0.0125
1534.00,0.0113
1533.00,0.0103
1532.00,0.0096
1531.00,0.0090
1530.00,0.0086
1529.00,0.0083
1528.00,0.0080
1527.00,0.0078
1526.00,0.0075
1525.00,0.0074
1524.00,0.0073
1523.00,0.0073
1522.00,0.0072
1521.00,0.0073
1520.00,0.0073
1519.00,0.0073
1518.00,0.0072
1517.00,0.0073
1516.00,0.0073
1515.00,0.0073
1514.00,0.0072
1513.00,0.0073
1512.00,0.0073
1511.00,0.0074
1510.00,0.0075
1509.00,0.0077
1508.00,0.0079
1507.00,0.0079
1506.00,0.0079
1505.00,0.0079
1504.00,0.0080
1503.00,0.0081
1502.00,0.0082
1501.00,0.0085
1500.00,0.0088
1499.00,0.0090
1498.00,0.0092
1497.00,0.0096
1496.00,0.0100
1495.00,0.0103
1494.00,0.0105
1493.00,0.0109
1492.00,0.0114
1491.00,0.0119
1490.00,0.0124
1489.00,0.0130
1488.00,0.0138
1487.00,0.0145
1486.00,0.0152
1485.00,0.0162
1484.00,0.0173
1483.00,0.0185
1482.00,0.0200
1481.00,0.0217
1480.00,0.0235
1479.00,0.0252
1478.00,0.0271
1477.00,0.0293
1476.00,0.0317
1475.00,0.0344
1474.00,0.0378
1473.00,0.0427
1472.00,0.0487
1471.00,0.0545
1470.00,0.0602
1469.00,0.0662
1468.00,0.0728
1467.00,0.0800
1466.00,0.0882
1465.00,0.0971
1464.00,0.1050
1463.00,0.1107
1462.00,0.1146
1461.00,0.1175
1460.00,0.1198
1459.00,0.1216
1458.00,0.1235
1457.00,0.1254
1456.00,0.1265
1455.00,0.1267
1454.00,0.1264
1453.00,0.1255
1452.00,0.1237
1451.00,0.1204
1450.00,0.1154
1449.00,0.1080
1448.00,0.0984
1447.00,0.0882
1446.00,0.0788
1445.00,0.0707
1444.00,0.0638
1443.00,0.0582
1442.00,0.0541
1441.00,0.0513
1440.00,0.0497
1439.00,0.0490
1438.00,0.0489
1437.00,0.0488
1436.00,0.0475
1435.00,0.0447
1434.00,0.0408
1433.00,0.0363
1432.00,0.0316
1431.00,0.0275
1430.00,0.0244
1429.00,0.0221
1428.00,0.0206
1427.00,0.0197
1426.00,0.0191
1425.00,0.0186
1424.00,0.0182
1423.00,0.0180
1422.00,0.0179
1421.00,0.0177
1420.00,0.0173
1419.00,0.0169
1418.00,0.0165
1417.00,0.0160
1416.00,0.0156
1415.00,0.0152
1414.00,0.0150
1413.00,0.0147
1412.00,0.0144
1411.00,0.0142
1410.00,0.0140
1409.00,0.0138
1408.00,0.0135
1407.00,0.0133
1406.00,0.0132
1405.00,0.0130
1404.00,0.0128
1403.00,0.0127
1402.00,0.0128
1401.00,0.0128
1400.00,0.0127
1399.00,0.0128
1398.00,0.0130
1397.00,0.0131
1396.00,0.0134
1395.00,0.0138
1394.00,0.0143
1393.00,0.0147
1392.00,0.0153
1391.00,0.0161
1390.00,0.0173
1389.00,0.0191
1388.00,0.0217
1387.00,0.0255
1386.00,0.0306
1385.00,0.0371
1384.00,0.0455
1383.00,0.0567
1382.00,0.0713
1381.00,0.0895
1380.00,0.1114
1379.00,0.1359
1378.00,0.1592
1377.00,0.1762
1376.00,0.1819
1375.00,0.1735
1374.00,0.1530
1373.00,0.1277
1372.00,0.1040
1371.00,0.0840
1370.00,0.0679
1369.00,0.0556
1368.00,0.0470
1367.00,0.0417
1366.00,0.0388
1365.00,0.0377
1364.00,0.0378
1363.00,0.0391
1362.00,0.0412
1361.00,0.0433
1360.00,0.0449
1359.00,0.0453
1358.00,0.0442
1357.00,0.0416
1356.00,0.0380
1355.00,0.0339
1354.00,0.0299
1353.00,0.0265
1352.00,0.0238
1351.00,0.0216
1350.00,0.0198
1349.00,0.0183
1348.00,0.0171
1347.00,0.0161
1346.00,0.0154
1345.00,0.0148
1344.00,0.0144
1343.00,0.0140
1342.00,0.0138
1341.00,0.0135
1340.00,0.0133
1339.00,0.0132
1338.00,0.0131
1337.00,0.0131
1336.00,0.0131
1335.00,0.0133
1334.00,0.0135
1333.00,0.0139
1332.00,0.0143
1331.00,0.0146
1330.00,0.0147
1329.00,0.0145
1328.00,0.0141
1327.00,0.0136
1326.00,0.0130
1325.00,0.0124
1324.00,0.0119
1323.00,0.0115
1322.00,0.0111
1321.00,0.0107
1320.00,0.0104
1319.00,0.0101
1318.00,0.0099
1317.00,0.0098
1316.00,0.0096
1315.00,0.0095
1314.00,0.0094
1313.00,0.0095
1312.00,0.0096
1311.00,0.0098
1310.00,0.0103
1309.00,0.0112
1308.00,0.0123
1307.00,0.0138
1306.00,0.0152
1305.00,0.0162
1304.00,0.0166
1303.00,0.0163
1302.00,0.0157
1301.00,0.0149
1300.00,0.0144
1299.00,0.0141
1298.00,0.0139
1297.00,0.0138
1296.00,0.0136
1295.00,0.0132
1294.00,0.0128
1293.00,0.0122
1292.00,0.0117
1291.00,0.0112
1290.00,0.0107
1289.00,0.0103
1288.00,0.0100
1287.00,0.0096
1286.00,0.0094
1285.00,0.0091
1284.00,0.0090
1283.00,0.0088
1282.00,0.0088
1281.00,0.0087
1280.00,0.0085
1279.00,0.0084
1278.00,0.0084
1277.00,0.0083
1276.00,0.0082
1275.00,0.0081
1274.00,0.0081
1273.00,0.0081
1272.00,0.0082
1271.00,0.0082
1270.00,0.0082
1269.00,0.0082
1268.00,0.0084
1267.00,0.0086
1266.00,0.0089
1265.00,0.0092
1264.00,0.0095
1263.00,0.0098
1262.00,0.0103
1261.00,0.0108
1260.00,0.0116
1259.00,0.0125
1258.00,0.0134
1257.00,0.0142
1256.00,0.0146
1255.00,0.0144
1254.00,0.0136
1253.00,0.0126
1252.00,0.0116
1251.00,0.0108
1250.00,0.0102
1249.00,0.0098
1248.00,0.0095
1247.00,0.0094
1246.00,0.0093
1245.00,0.0092
1244.00,0.0092
1243.00,0.0092
1242.00,0.0092
1241.00,0.0092
1240.00,0.0091
1239.00,0.0090
1238.00,0.0090
1237.00,0.0090
1236.00,0.0091
1235.00,0.0091
1234.00,0.0091
1233.00,0.0092
1232.00,0.0092
1231.00,0.0092
1230.00,0.0093
1229.00,0.0094
1228.00,0.0096
1227.00,0.0098
1226.00,0.0100
1225.00,0.0103
1224.00,0.0106
1223.00,0.0110
1222.00,0.0113
1221.00,0.0116
1220.00,0.0118
1219.00,0.0119
1218.00,0.0119
1217.00,0.0118
1216.00,0.0116
1215.00,0.0113
1214.00,0.0110
1213.00,0.0107
1212.00,0.0104
1211.00,0.0102
1210.00,0.0101
1209.00,0.0099
1208.00,0.0097
1207.00,0.0095
1206.00,0.0094
1205.00,0.0094
1204.00,0.0094
1203.00,0.0094
1202.00,0.0095
1201.00,0.0095
1200.00,0.0095
1199.00,0.0095
1198.00,0.0095
1197.00,0.0095
1196.00,0.0095
1195.00,0.0095
1194.00,0.0095
1193.00,0.0095
1192.00,0.0095
1191.00,0.0095
1190.00,0.0094
1189.00,0.0093
1188.00,0.0093
1187.00,0.0094
1186.00,0.0095
1185.00,0.0097
1184.00,0.0098
1183.00,0.0099
1182.00,0.0100
1181.00,0.0102
1180.00,0.0105
1179.00,0.0110
1178.00,0.0117
1177.00,0.0126
1176.00,0.0140
1175.00,0.0159
1174.00,0.0183
1173.00,0.0214
1172.00,0.0251
1171.00,0.0292
1170.00,0.0332
1169.00,0.0364
1168.00,0.0383
1167.00,0.0387
1166.00,0.0377
1165.00,0.0357
1164.00,0.0333
1163.00,0.0309
1162.00,0.0286
1161.00,0.0267
1160.00,0.0251
1159.00,0.0238
1158.00,0.0227
1157.00,0.0219
1156.00,0.0213
1155.00,0.0209
1154.00,0.0205
1153.00,0.0201
1152.00,0.0195
1151.00,0.0188
1150.00,0.0180
1149.00,0.0170
1148.00,0.0161
1147.00,0.0152
1146.00,0.0143
1145.00,0.0135
1144.00,0.0127
1143.00,0.0120
1142.00,0.0114
1141.00,0.0108
1140.00,0.0103
1139.00,0.0100
1138.00,0.0096
1137.00,0.0094
1136.00,0.0091
1135.00,0.0089
1134.00,0.0087
1133.00,0.0086
1132.00,0.0086
1131.00,0.0087
1130.00,0.0089
1129.00,0.0090
1128.00,0.0092
1127.00,0.0093
1126.00,0.0093
1125.00,0.0093
1124.00,0.0092
1123.00,0.0091
1122.00,0.0091
1121.00,0.0090
1120.00,0.0090
1119.00,0.0091
1118.00,0.0092
1117.00,0.0094
1116.00,0.0097
1115.00,0.0099
1114.00,0.0101
1113.00,0.0102
1112.00,0.0104
1111.00,0.0106
1110.00,0.0109
1109.00,0.0112
1108.00,0.0116
1107.00,0.0122
1106.00,0.0128
1105.00,0.0134
1104.00,0.0139
1103.00,0.0143
1102.00,0.0144
1101.00,0.0142
1100.00,0.0138
1099.00,0.0131
1098.00,0.0124
1097.00,0.0116
1096.00,0.0109
1095.00,0.0104
1094.00,0.0101
1093.00,0.0098
1092.00,0.0095
1091.00,0.0093
1090.00,0.0091
1089.00,0.0088
1088.00,0.0086
1087.00,0.0085
1086.00,0.0083
1085.00,0.0082
1084.00,0.0081
1083.00,0.0080
1082.00,0.0080
1081.00,0.0079
1080.00,0.0077
1079.00,0.0076
1078.00,0.0075
1077.00,0.0074
1076.00,0.0073
1075.00,0.0072
1074.00,0.0071
1073.00,0.0071
1072.00,0.0071
1071.00,0.0072
1070.00,0.0073
1069.00,0.0073
1068.00,0.0073
1067.00,0.0072
1066.00,0.0072
1065.00,0.0072
1064.00,0.0073
1063.00,0.0073
1062.00,0.0075
1061.00,0.0077
1060.00,0.0078
1059.00,0.0080
1058.00,0.0080
1057.00,0.0080
1056.00,0.0080
1055.00,0.0082
1054.00,0.0084
1053.00,0.0087
1052.00,0.0089
1051.00,0.0091
1050.00,0.0093
1049.00,0.0096
1048.00,0.0100
1047.00,0.0104
1046.00,0.0107
1045.00,0.0109
1044.00,0.0109
1043.00,0.0108
1042.00,0.0106
1041.00,0.0104
1040.00,0.0104
1039.00,0.0105
1038.00,0.0107
1037.00,0.0109
1036.00,0.0110
1035.00,0.0109
1034.00,0.0107
1033.00,0.0104
1032.00,0.0099
1031.00,0.0096
1030.00,0.0093
1029.00,0.0092
1028.00,0.0091
1027.00,0.0092
1026.00,0.0093
1025.00,0.0093
1024.00,0.0094
1023.00,0.0094
1022.00,0.0094
1021.00,0.0095
1020.00,0.0096
1019.00,0.0097
1018.00,0.0100
1017.00,0.0103
1016.00,0.0108
1015.00,0.0114
1014.00,0.0120
1013.00,0.0126
1012.00,0.0131
1011.00,0.0136
1010.00,0.0139
1009.00,0.0141
1008.00,0.0145
1007.00,0.0152
1006.00,0.0162
1005.00,0.0176
1004.00,0.0195
1003.00,0.0221
1002.00,0.0255
1001.00,0.0299
1000.00,0.0346
999.00,0.0387
998.00,0.0410
997.00,0.0406
996.00,0.0377
995.00,0.0330
994.00,0.0280
993.00,0.0234
992.00,0.0197
991.00,0.0170
990.00,0.0150
989.00,0.0138
988.00,0.0129
987.00,0.0125
986.00,0.0124
985.00,0.0126
984.00,0.0130
983.00,0.0139
982.00,0.0151
981.00,0.0170
980.00,0.0194
979.00,0.0226
978.00,0.0268
977.00,0.0318
976.00,0.0374
975.00,0.0429
974.00,0.0472
973.00,0.0492
972.00,0.0481
971.00,0.0440
970.00,0.0379
969.00,0.0314
968.00,0.0256
967.00,0.0211
966.00,0.0177
965.00,0.0153
964.00,0.0136
963.00,0.0123
962.00,0.0114
961.00,0.0106
960.00,0.0099
959.00,0.0094
958.00,0.0089
957.00,0.0085
956.00,0.0082
955.00,0.0080
954.00,0.0078
953.00,0.0076
952.00,0.0074
951.00,0.0073
950.00,0.0073
949.00,0.0073
948.00,0.0073
947.00,0.0074
946.00,0.0075
945.00,0.0077
944.00,0.0080
943.00,0.0084
942.00,0.0088
941.00,0.0090
940.00,0.0090
939.00,0.0087
938.00,0.0084
937.00,0.0079
936.00,0.0076
935.00,0.0073
934.00,0.0070
933.00,0.0067
932.00,0.0065
931.00,0.0063
930.00,0.0062
929.00,0.0061
928.00,0.0061
927.00,0.0060
926.00,0.0061
925.00,0.0061
924.00,0.0062
923.00,0.0063
922.00,0.0064
921.00,0.0065
920.00,0.0066
919.00,0.0068
918.00,0.0069
917.00,0.0070
916.00,0.0071
915.00,0.0072
914.00,0.0072
913.00,0.0072
912.00,0.0072
911.00,0.0072
910.00,0.0073
909.00,0.0074
908.00,0.0077
907.00,0.0081
906.00,0.0088
905.00,0.0099
904.00,0.0113
903.00,0.0131
902.00,0.0150
901.00,0.0168
900.00,0.0180
899.00,0.0183
898.00,0.0177
897.00,0.0162
896.00,0.0143
895.00,0.0124
894.00,0.0109
893.00,0.0098
892.00,0.0090
891.00,0.0085
890.00,0.0081
889.00,0.0078
888.00,0.0075
887.00,0.0074
886.00,0.0074
885.00,0.0074
884.00,0.0075
883.00,0.0075
882.00,0.0076
881.00,0.0077
880.00,0.0077
879.00,0.0077
878.00,0.0077
877.00,0.0077
876.00,0.0078
875.00,0.0078
874.00,0.0078
873.00,0.0078
872.00,0.0077
871.00,0.0077
870.00,0.0076
869.00,0.0076
868.00,0.0076
867.00,0.0077
866.00,0.0078
865.00,0.0078
864.00,0.0079
863.00,0.0081
862.00,0.0083
861.00,0.0086
860.00,0.0088
859.00,0.0089
858.00,0.0090
857.00,0.0091
856.00,0.0091
855.00,0.0092
854.00,0.0095
853.00,0.0099
852.00,0.0104
851.00,0.0111
850.00,0.0119
849.00,0.0129
848.00,0.0141
847.00,0.0158
846.00,0.0186
845.00,0.0228
844.00,0.0285
843.00,0.0348
842.00,0.0397
841.00,0.0411
840.00,0.0385
839.00,0.0331
838.00,0.0271
837.00,0.0222
836.00,0.0190
835.00,0.0171
834.00,0.0159
833.00,0.0151
832.00,0.0143
831.00,0.0136
830.00,0.0130
829.00,0.0125
828.00,0.0121
827.00,0.0119
826.00,0.0118
825.00,0.0117
824.00,0.0117
823.00,0.0117
822.00,0.0116
821.00,0.0116
820.00,0.0116
819.00,0.0118
818.00,0.0121
817.00,0.0127
816.00,0.0134
815.00,0.0144
814.00,0.0156
813.00,0.0170
812.00,0.0185
811.00,0.0198
810.00,0.0209
809.00,0.0213
808.00,0.0211
807.00,0.0203
806.00,0.0190
805.00,0.0175
804.00,0.0161
803.00,0.0149
802.00,0.0139
801.00,0.0131
800.00,0.0123
799.00,0.0116
798.00,0.0110
797.00,0.0104
796.00,0.0098
795.00,0.0093
794.00,0.0090
793.00,0.0088
792.00,0.0088
791.00,0.0088
790.00,0.0087
789.00,0.0084
788.00,0.0082
787.00,0.0079
786.00,0.0077
785.00,0.0075
784.00,0.0074
783.00,0.0073
782.00,0.0072
781.00,0.0072
780.00,0.0071
779.00,0.0069
778.00,0.0068
777.00,0.0069
776.00,0.0070
775.00,0.0073
774.00,0.0075
773.00,0.0077
772.00,0.0080
771.00,0.0083
770.00,0.0087
769.00,0.0090
768.00,0.0093
767.00,0.0094
766.00,0.0092
765.00,0.0090
764.00,0.0085
763.00,0.0081
762.00,0.0076
761.00,0.0073
760.00,0.0070
759.00,0.0067
758.00,0.0065
757.00,0.0063
756.00,0.0062
755.00,0.0060
754.00,0.0059
753.00,0.0058
752.00,0.0059
751.00,0.0061
750.00,0.0063
749.00,0.0063
748.00,0.0062
747.00,0.0061
746.00,0.0060
745.00,0.0059
744.00,0.0059
743.00,0.0060
742.00,0.0062
741.00,0.0063
740.00,0.0064
739.00,0.0065
738.00,0.0066
737.00,0.0067
736.00,0.0068
735.00,0.0069
734.00,0.0071
733.00,0.0072
732.00,0.0073
731.00,0.0074
730.00,0.0074
729.00,0.0075
728.00,0.0076
727.00,0.0077
726.00,0.0078
725.00,0.0079
724.00,0.0081
723.00,0.0082
722.00,0.0083
721.00,0.0082
720.00,0.0081
719.00,0.0078
718.00,0.0075
717.00,0.0071
716.00,0.0068
715.00,0.0065
714.00,0.0063
713.00,0.0062
712.00,0.0062
711.00,0.0063
710.00,0.0065
709.00,0.0066
708.00,0.0067
707.00,0.0067
706.00,0.0066
705.00,0.0065
704.00,0.0065
703.00,0.0066
702.00,0.0066
701.00,0.0066
700.00,0.0066
699.00,0.0065
698.00,0.0065
697.00,0.0066
696.00,0.0066
695.00,0.0066
694.00,0.0066
693.00,0.0065
692.00,0.0065
691.00,0.0065
690.00,0.0066
689.00,0.0067
688.00,0.0067
687.00,0.0066
686.00,0.0065
685.00,0.0065
684.00,0.0064
683.00,0.0064
682.00,0.0064
681.00,0.0066
680.00,0.0067
679.00,0.0069
678.00,0.0070
677.00,0.0071
676.00,0.0071
675.00,0.0070
674.00,0.0069
673.00,0.0070
672.00,0.0072
671.00,0.0074
670.00,0.0075
669.00,0.0075
668.00,0.0074
667.00,0.0073
666.00,0.0073
665.00,0.0072
664.00,0.0072
663.00,0.0071
662.00,0.0070
661.00,0.0069
660.00,0.0067
659.00,0.0066
658.00,0.0065
657.00,0.0065
656.00,0.0065
655.00,0.0065
654.00,0.0066
653.00,0.0066
652.00,0.0064
651.00,0.0062
650.00,0.0059
649.00,0.0059
648.00,0.0061
647.00,0.0063
646.00,0.0065
645.00,0.0067
644.00,0.0069
643.00,0.0069
642.00,0.0067
641.00,0.0065
640.00,0.0064
639.00,0.0065
638.00,0.0067
637.00,0.0069
636.00,0.0070
635.00,0.0069
634.00,0.0068
633.00,0.0066
632.00,0.0064
631.00,0.0062
630.00,0.0061
629.00,0.0062
628.00,0.0065
627.00,0.0069
626.00,0.0070
625.00,0.0070
624.00,0.0069
623.00,0.0068
622.00,0.0068
621.00,0.0067
620.00,0.0067
619.00,0.0067
618.00,0.0067
617.00,0.0067
616.00,0.0067
615.00,0.0066
614.00,0.0065
613.00,0.0064
612.00,0.0064
611.00,0.0066
610.00,0.0068
609.00,0.0069
608.00,0.0069
607.00,0.0069
606.00,0.0069
605.00,0.0069
604.00,0.0069
603.00,0.0069
602.00,0.0070
601.00,0.0071
600.00,0.0071
599.00,0.0070
598.00,0.0068
597.00,0.0065
596.00,0.0063
595.00,0.0063
594.00,0.0064
593.00,0.0067
592.00,0.0068
591.00,0.0068
590.00,0.0067
589.00,0.0066
588.00,0.0065
587.00,0.0064
586.00,0.0063
585.00,0.0063
584.00,0.0066
583.00,0.0070
582.00,0.0073
581.00,0.0074
580.00,0.0074
579.00,0.0074
578.00,0.0075
577.00,0.0074
576.00,0.0070
575.00,0.0066
574.00,0.0065
573.00,0.0065
572.00,0.0065
571.00,0.0063
570.00,0.0061
569.00,0.0059
568.00,0.0057
567.00,0.0057
566.00,0.0059
565.00,0.0061
564.00,0.0064
563.00,0.0068
562.00,0.0070
561.00,0.0070
560.00,0.0069
559.00,0.0067
558.00,0.0068
557.00,0.0071
556.00,0.0074
555.00,0.0077
554.00,0.0077
553.00,0.0072
552.00,0.0066
551.00,0.0062
550.00,0.0060
549.00,0.0060
548.00,0.0062
547.00,0.0066
546.00,0.0070
545.00,0.0072
544.00,0.0072
543.00,0.0072
542.00,0.0072
541.00,0.0072
540.00,0.0069
539.00,0.0066
538.00,0.0064
537.00,0.0063
536.00,0.0064
535.00,0.0068
534.00,0.0074
533.00,0.0081
532.00,0.0085
531.00,0.0085
530.00,0.0083
529.00,0.0082
528.00,0.0082
527.00,0.0084
526.00,0.0084
525.00,0.0081
524.00,0.0077
523.00,0.0075
522.00,0.0075
521.00,0.0074
520.00,0.0073
519.00,0.0074
518.00,0.0080
517.00,0.0086
516.00,0.0088
515.00,0.0084
514.00,0.0077
513.00,0.0070
512.00,0.0067
511.00,0.0067
510.00,0.0070
509.00,0.0071
508.00,0.0072
507.00,0.0071
506.00,0.0070
505.00,0.0072
504.00,0.0075
503.00,0.0076
502.00,0.0072
501.00,0.0068
500.00,0.0066
499.00,0.0068
498.00,0.0068
497.00,0.0065
496.00,0.0060
495.00,0.0059
494.00,0.0063
493.00,0.0066
492.00,0.0065
491.00,0.0062
490.00,0.0060
489.00,0.0059
488.00,0.0060
487.00,0.0063
486.00,0.0065
485.00,0.0066
484.00,0.0063
483.00,0.0062
482.00,0.0065
481.00,0.0069
480.00,0.0072
479.00,0.0071
478.00,0.0067
477.00,0.0064
476.00,0.0062
475.00,0.0063
474.00,0.0063
473.00,0.0061
472.00,0.0062
471.00,0.0069
470.00,0.0081
469.00,0.0090
468.00,0.0092
467.00,0.0091
466.00,0.0090
465.00,0.0095
464.00,0.0106
463.00,0.0122
462.00,0.0134
461.00,0.0135
460.00,0.0131
459.00,0.0133
458.00,0.0145
457.00,0.0152
456.00,0.0144
455.00,0.0128
454.00,0.0117
453.00,0.0119
452.00,0.0126
451.00,0.0128
450.00,0.0122
