Created as New Dataset,Sample 077 By Administrator Date Friday, September 05 2025
cm-1,A
4000.00,0.0003
3999.00,0.0003
3998.00,0.0003
3997.00,0.0003
3996.00,0.0003
3995.00,0.0003
3994.00,0.0003
3993.00,0.0003
3992.00,0.0003
3991.00,0.0003
3990.00,0.0002
3989.00,0.0002
3988.00,0.0002
3987.00,0.0002
3986.00,0.0002
3985.00,0.0003
3984.00,0.0003
3983.00,0.0003
3982.00,0.0002
3981.00,0.0002
3980.00,0.0002
3979.00,0.0002
3978.00,0.0002
3977.00,0.0002
3976.00,0.0002
3975.00,0.0002
3974.00,0.0002
3973.00,0.0002
3972.00,0.0002
3971.00,0.0002
3970.00,0.0002
3969.00,0.0002
3968.00,0.0002
3967.00,0.0002
3966.00,0.0002
3965.00,0.0002
3964.00,0.0002
3963.00,0.0002
3962.00,0.0002
3961.00,0.0002
3960.00,0.0002
3959.00,0.0002
3958.00,0.0002
3957.00,0.0002
3956.00,0.0002
3955.00,0.0002
3954.00,0.0002
3953.00,0.0002
3952.00,0.0001
3951.00,0.0001
3950.00,0.0001
3949.00,0.0001
3948.00,0.0001
3947.00,0.0002
3946.00,0.0002
3945.00,0.0002
3944.00,0.0002
3943.00,0.0002
3942.00,0.0002
3941.00,0.0002
3940.00,0.0002
3939.00,0.0002
3938.00,0.0002
3937.00,0.0003
3936.00,0.0003
3935.00,0.0003
3934.00,0.0003
3933.00,0.0002
3932.00,0.0002
3931.00,0.0002
3930.00,0.0002
3929.00,0.0002
3928.00,0.0002
3927.00,0.0002
3926.00,0.0002
3925.00,0.0002
3924.00,0.0002
3923.00,0.0002
3922.00,0.0002
3921.00,0.0002
3920.00,0.0002
3919.00,0.0002
3918.00,0.0002
3917.00,0.0002
3916.00,0.0002
3915.00,0.0002
3914.00,0.0001
3913.00,0.0001
3912.00,0.0001
3911.00,0.0001
3910.00,0.0001
3909.00,0.0001
3908.00,0.0002
3907.00,0.0002
3906.00,0.0003
3905.00,0.0003
3904.00,0.0003
3903.00,0.0003
3902.00,0.0002
3901.00,0.0002
3900.00,0.0001
3899.00,0.0001
3898.00,0.0002
3897.00,0.0002
3896.00,0.0002
3895.00,0.0002
3894.00,0.0002
3893.00,0.0002
3892.00,0.0002
3891.00,0.0002
3890.00,0.0002
3889.00,0.0002
3888.00,0.0002
3887.00,0.0002
3886.00,0.0002
3885.00,0.0002
3884.00,0.0002
3883.00,0.0002
3882.00,0.0002
3881.00,0.0002
3880.00,0.0002
3879.00,0.0002
3878.00,0.0002
3877.00,0.0002
3876.00,0.0002
3875.00,0.0002
3874.00,0.0002
3873.00,0.0002
3872.00,0.0002
3871.00,0.0002
3870.00,0.0003
3869.00,0.0003
3868.00,0.0003
3867.00,0.0003
3866.00,0.0003
3865.00,0.0003
3864.00,0.0003
3863.00,0.0002
3862.00,0.0002
3861.00,0.0002
3860.00,0.0002
3859.00,0.0002
3858.00,0.0002
3857.00,0.0002
3856.00,0.0002
3855.00,0.0002
3854.00,0.0002
3853.00,0.0002
3852.00,0.0002
3851.00,0.0002
3850.00,0.0002
3849.00,0.0002
3848.00,0.0002
3847.00,0.0001
3846.00,0.0001
3845.00,0.0002
3844.00,0.0001
3843.00,0.0001
3842.00,0.0001
3841.00,0.0001
3840.00,0.0001
3839.00,0.0001
3838.00,0.0002
3837.00,0.0002
3836.00,0.0001
3835.00,0.0001
3834.00,0.0001
3833.00,0.0001
3832.00,0.0001
3831.00,0.0001
3830.00,0.0002
3829.00,0.0002
3828.00,0.0002
3827.00,0.0002
3826.00,0.0001
3825.00,0.0001
3824.00,0.0001
3823.00,0.0001
3822.00,0.0001
3821.00,0.0001
3820.00,0.0001
3819.00,0.0002
3818.00,0.0002
3817.00,0.0003
3816.00,0.0003
3815.00,0.0002
3814.00,0.0002
3813.00,0.0002
3812.00,0.0002
3811.00,0.0002
3810.00,0.0002
3809.00,0.0002
3808.00,0.0002
3807.00,0.0003
3806.00,0.0003
3805.00,0.0003
3804.00,0.0003
3803.00,0.0003
3802.00,0.0003
3801.00,0.0003
3800.00,0.0002
3799.00,0.0002
3798.00,0.0002
3797.00,0.0002
3796.00,0.0002
3795.00,0.0002
3794.00,0.0002
3793.00,0.0002
3792.00,0.0002
3791.00,0.0002
3790.00,0.0002
3789.00,0.0002
3788.00,0.0002
3787.00,0.0002
3786.00,0.0002
3785.00,0.0002
3784.00,0.0002
3783.00,0.0002
3782.00,0.0002
3781.00,0.0002
3780.00,0.0002
3779.00,0.0002
3778.00,0.0002
3777.00,0.0002
3776.00,0.0002
3775.00,0.0003
3774.00,0.0003
3773.00,0.0003
3772.00,0.0003
3771.00,0.0002
3770.00,0.0002
3769.00,0.0002
3768.00,0.0002
3767.00,0.0002
3766.00,0.0002
3765.00,0.0002
3764.00,0.0002
3763.00,0.0001
3762.00,0.0001
3761.00,0.0001
3760.00,0.0002
3759.00,0.0002
3758.00,0.0002
3757.00,0.0003
3756.00,0.0003
3755.00,0.0003
3754.00,0.0003
3753.00,0.0004
3752.00,0.0004
3751.00,0.0004
3750.00,0.0003
3749.00,0.0003
3748.00,0.0003
3747.00,0.0003
3746.00,0.0003
3745.00,0.0004
3744.00,0.0003
3743.00,0.0003
3742.00,0.0002
3741.00,0.0002
3740.00,0.0002
3739.00,0.0001
3738.00,0.0001
3737.00,0.0001
3736.00,0.0000
3735.00,0.0001
3734.00,0.0002
3733.00,0.0002
3732.00,0.0003
3731.00,0.0002
3730.00,0.0002
3729.00,0.0001
3728.00,0.0001
3727.00,0.0001
3726.00,0.0001
3725.00,0.0001
3724.00,0.0001
3723.00,0.0001
3722.00,0.0001
3721.00,0.0002
3720.00,0.0002
3719.00,0.0002
3718.00,0.0002
3717.00,0.0001
3716.00,0.0001
3715.00,0.0001
3714.00,0.0001
3713.00,0.0001
3712.00,0.0001
3711.00,0.0001
3710.00,0.0001
3709.00,0.0001
3708.00,0.0001
3707.00,0.0001
3706.00,0.0001
3705.00,0.0001
3704.00,0.0000
3703.00,-0.0000
3702.00,-0.0000
3701.00,-0.0000
3700.00,0.0000
3699.00,0.0000
3698.00,0.0000
3697.00,0.0001
3696.00,0.0001
3695.00,0.0001
3694.00,0.0001
3693.00,0.0001
3692.00,0.0001
3691.00,0.0001
3690.00,-0.0000
3689.00,-0.0000
3688.00,-0.0001
3687.00,-0.0000
3686.00,-0.0000
3685.00,0.0000
3684.00,0.0000
3683.00,0.0000
3682.00,0.0000
3681.00,-0.0000
3680.00,-0.0001
3679.00,-0.0001
3678.00,-0.0001
3677.00,-0.0001
3676.00,-0.0001
3675.00,-0.0001
3674.00,-0.0000
3673.00,0.0000
3672.00,0.0001
3671.00,0.0001
3670.00,0.0001
3669.00,0.0001
3668.00,0.0001
3667.00,0.0001
3666.00,0.0000
3665.00,-0.0000
3664.00,-0.0000
3663.00,-0.0001
3662.00,-0.0001
3661.00,-0.0001
3660.00,-0.0001
3659.00,-0.0001
3658.00,-0.0001
3657.00,-0.0001
3656.00,-0.0001
3655.00,-0.0001
3654.00,-0.0002
3653.00,-0.0002
3652.00,-0.0002
3651.00,-0.0002
3650.00,-0.0002
3649.00,-0.0002
3648.00,-0.0002
3647.00,-0.0001
3646.00,-0.0001
3645.00,-0.0001
3644.00,-0.0001
3643.00,-0.0001
3642.00,-0.0001
3641.00,-0.0001
3640.00,-0.0001
3639.00,-0.0001
3638.00,-0.0001
3637.00,-0.0002
3636.00,-0.0002
3635.00,-0.0002
3634.00,-0.0001
3633.00,-0.0000
3632.00,0.0001
3631.00,0.0001
3630.00,0.0001
3629.00,0.0001
3628.00,0.0001
3627.00,0.0001
3626.00,0.0000
3625.00,0.0000
3624.00,-0.0000
3623.00,-0.0001
3622.00,-0.0001
3621.00,-0.0001
3620.00,-0.0001
3619.00,-0.0001
3618.00,-0.0001
3617.00,-0.0001
3616.00,-0.0001
3615.00,-0.0000
3614.00,0.0000
3613.00,0.0001
3612.00,0.0001
3611.00,0.0001
3610.00,0.0001
3609.00,0.0000
3608.00,-0.0000
3607.00,-0.0000
3606.00,-0.0000
3605.00,-0.0000
3604.00,-0.0000
3603.00,-0.0000
3602.00,-0.0000
3601.00,-0.0000
3600.00,-0.0000
3599.00,-0.0000
3598.00,0.0000
3597.00,0.0000
3596.00,0.0001
3595.00,0.0001
3594.00,0.0000
3593.00,-0.0000
3592.00,-0.0000
3591.00,-0.0000
3590.00,-0.0000
3589.00,0.0000
3588.00,0.0000
3587.00,0.0000
3586.00,0.0000
3585.00,-0.0000
3584.00,-0.0000
3583.00,0.0000
3582.00,0.0000
3581.00,0.0001
3580.00,0.0001
3579.00,0.0001
3578.00,0.0000
3577.00,0.0000
3576.00,-0.0000
3575.00,-0.0001
3574.00,-0.0001
3573.00,-0.0001
3572.00,-0.0001
3571.00,-0.0001
3570.00,-0.0000
3569.00,-0.0000
3568.00,0.0000
3567.00,0.0000
3566.00,0.0001
3565.00,0.0001
3564.00,0.0001
3563.00,0.0001
3562.00,0.0001
3561.00,0.0001
3560.00,0.0001
3559.00,0.0001
3558.00,0.0001
3557.00,0.0001
3556.00,0.0001
3555.00,0.0001
3554.00,0.0001
3553.00,0.0001
3552.00,0.0001
3551.00,0.0001
3550.00,0.0001
3549.00,0.0001
3548.00,0.0001
3547.00,0.0001
3546.00,0.0001
3545.00,0.0002
3544.00,0.0002
3543.00,0.0003
3542.00,0.0003
3541.00,0.0003
3540.00,0.0003
3539.00,0.0003
3538.00,0.0003
3537.00,0.0003
3536.00,0.0003
3535.00,0.0003
3534.00,0.0002
3533.00,0.0002
3532.00,0.0002
3531.00,0.0002
3530.00,0.0002
3529.00,0.0002
3528.00,0.0002
3527.00,0.0003
3526.00,0.0003
3525.00,0.0003
3524.00,0.0003
3523.00,0.0003
3522.00,0.0003
3521.00,0.0003
3520.00,0.0003
3519.00,0.0003
3518.00,0.0003
3517.00,0.0003
3516.00,0.0002
3515.00,0.0003
3514.00,0.0003
3513.00,0.0003
3512.00,0.0003
3511.00,0.0004
3510.00,0.0004
3509.00,0.0003
3508.00,0.0003
3507.00,0.0003
3506.00,0.0002
3505.00,0.0002
3504.00,0.0003
3503.00,0.0003
3502.00,0.0003
3501.00,0.0004
3500.00,0.0004
3499.00,0.0003
3498.00,0.0003
3497.00,0.0003
3496.00,0.0003
3495.00,0.0003
3494.00,0.0003
3493.00,0.0004
3492.00,0.0004
3491.00,0.0004
3490.00,0.0004
3489.00,0.0004
3488.00,0.0004
3487.00,0.0004
3486.00,0.0004
3485.00,0.0004
3484.00,0.0004
3483.00,0.0004
3482.00,0.0004
3481.00,0.0004
3480.00,0.0004
3479.00,0.0005
3478.00,0.0005
3477.00,0.0005
3476.00,0.0005
3475.00,0.0005
3474.00,0.0005
3473.00,0.0004
3472.00,0.0004
3471.00,0.0004
3470.00,0.0005
3469.00,0.0005
3468.00,0.0005
3467.00,0.0005
3466.00,0.0005
3465.00,0.0004
3464.00,0.0004
3463.00,0.0004
3462.00,0.0005
3461.00,0.0005
3460.00,0.0005
3459.00,0.0006
3458.00,0.0006
3457.00,0.0006
3456.00,0.0006
3455.00,0.0006
3454.00,0.0006
3453.00,0.0006
3452.00,0.0006
3451.00,0.0006
3450.00,0.0006
3449.00,0.0006
3448.00,0.0006
3447.00,0.0006
3446.00,0.0005
3445.00,0.0005
3444.00,0.0005
3443.00,0.0005
3442.00,0.0005
3441.00,0.0006
3440.00,0.0006
3439.00,0.0006
3438.00,0.0006
3437.00,0.0006
3436.00,0.0006
3435.00,0.0005
3434.00,0.0005
3433.00,0.0005
3432.00,0.0005
3431.00,0.0005
3430.00,0.0005
3429.00,0.0005
3428.00,0.0006
3427.00,0.0006
3426.00,0.0006
3425.00,0.0006
3424.00,0.0006
3423.00,0.0006
3422.00,0.0007
3421.00,0.0007
3420.00,0.0007
3419.00,0.0007
3418.00,0.0007
3417.00,0.0007
3416.00,0.0007
3415.00,0.0007
3414.00,0.0007
3413.00,0.0007
3412.00,0.0006
3411.00,0.0006
3410.00,0.0006
3409.00,0.0007
3408.00,0.0007
3407.00,0.0007
3406.00,0.0006
3405.00,0.0006
3404.00,0.0006
3403.00,0.0006
3402.00,0.0006
3401.00,0.0006
3400.00,0.0006
3399.00,0.0006
3398.00,0.0007
3397.00,0.0007
3396.00,0.0007
3395.00,0.0007
3394.00,0.0007
3393.00,0.0007
3392.00,0.0007
3391.00,0.0007
3390.00,0.0007
3389.00,0.0007
3388.00,0.0007
3387.00,0.0008
3386.00,0.0008
3385.00,0.0008
3384.00,0.0008
3383.00,0.0008
3382.00,0.0008
3381.00,0.0008
3380.00,0.0008
3379.00,0.0008
3378.00,0.0008
3377.00,0.0008
3376.00,0.0008
3375.00,0.0008
3374.00,0.0008
3373.00,0.0007
3372.00,0.0007
3371.00,0.0007
3370.00,0.0007
3369.00,0.0007
3368.00,0.0007
3367.00,0.0007
3366.00,0.0007
3365.00,0.0007
3364.00,0.0007
3363.00,0.0007
3362.00,0.0008
3361.00,0.0008
3360.00,0.0008
3359.00,0.0008
3358.00,0.0008
3357.00,0.0008
3356.00,0.0008
3355.00,0.0008
3354.00,0.0008
3353.00,0.0008
3352.00,0.0008
3351.00,0.0009
3350.00,0.0009
3349.00,0.0009
3348.00,0.0009
3347.00,0.0009
3346.00,0.0009
3345.00,0.0009
3344.00,0.0008
3343.00,0.0008
3342.00,0.0009
3341.00,0.0009
3340.00,0.0009
3339.00,0.0009
3338.00,0.0008
3337.00,0.0008
3336.00,0.0008
3335.00,0.0008
3334.00,0.0008
3333.00,0.0008
3332.00,0.0008
3331.00,0.0008
3330.00,0.0008
3329.00,0.0008
3328.00,0.0008
3327.00,0.0008
3326.00,0.0008
3325.00,0.0008
3324.00,0.0008
3323.00,0.0008
3322.00,0.0008
3321.00,0.0008
3320.00,0.0008
3319.00,0.0008
3318.00,0.0008
3317.00,0.0008
3316.00,0.0008
3315.00,0.0008
3314.00,0.0008
3313.00,0.0008
3312.00,0.0008
3311.00,0.0008
3310.00,0.0008
3309.00,0.0008
3308.00,0.0008
3307.00,0.0008
3306.00,0.0007
3305.00,0.0007
3304.00,0.0008
3303.00,0.0008
3302.00,0.0008
3301.00,0.0008
3300.00,0.0008
3299.00,0.0008
3298.00,0.0008
3297.00,0.0008
3296.00,0.0008
3295.00,0.0007
3294.00,0.0007
3293.00,0.0007
3292.00,0.0007
3291.00,0.0007
3290.00,0.0007
3289.00,0.0007
3288.00,0.0007
3287.00,0.0008
3286.00,0.0008
3285.00,0.0008
3284.00,0.0008
3283.00,0.0009
3282.00,0.0009
3281.00,0.0009
3280.00,0.0009
3279.00,0.0008
3278.00,0.0008
3277.00,0.0008
3276.00,0.0008
3275.00,0.0008
3274.00,0.0008
3273.00,0.0007
3272.00,0.0007
3271.00,0.0007
3270.00,0.0007
3269.00,0.0007
3268.00,0.0007
3267.00,0.0008
3266.00,0.0008
3265.00,0.0008
3264.00,0.0008
3263.00,0.0008
3262.00,0.0007
3261.00,0.0007
3260.00,0.0007
3259.00,0.0007
3258.00,0.0007
3257.00,0.0007
3256.00,0.0008
3255.00,0.0008
3254.00,0.0008
3253.00,0.0008
3252.00,0.0008
3251.00,0.0007
3250.00,0.0007
3249.00,0.0006
3248.00,0.0006
3247.00,0.0006
3246.00,0.0007
3245.00,0.0007
3244.00,0.0007
3243.00,0.0007
3242.00,0.0007
3241.00,0.0007
3240.00,0.0007
3239.00,0.0007
3238.00,0.0007
3237.00,0.0007
3236.00,0.0007
3235.00,0.0007
3234.00,0.0008
3233.00,0.0008
3232.00,0.0008
3231.00,0.0008
3230.00,0.0008
3229.00,0.0008
3228.00,0.0008
3227.00,0.0008
3226.00,0.0008
3225.00,0.0009
3224.00,0.0009
3223.00,0.0009
3222.00,0.0009
3221.00,0.0009
3220.00,0.0008
3219.00,0.0008
3218.00,0.0008
3217.00,0.0008
3216.00,0.0008
3215.00,0.0009
3214.00,0.0009
3213.00,0.0009
3212.00,0.0009
3211.00,0.0009
3210.00,0.0010
3209.00,0.0010
3208.00,0.0010
3207.00,0.0010
3206.00,0.0010
3205.00,0.0010
3204.00,0.0010
3203.00,0.0010
3202.00,0.0010
3201.00,0.0010
3200.00,0.0010
3199.00,0.0010
3198.00,0.0010
3197.00,0.0010
3196.00,0.0010
3195.00,0.0010
3194.00,0.0010
3193.00,0.0010
3192.00,0.0010
3191.00,0.0010
3190.00,0.0010
3189.00,0.0010
3188.00,0.0010
3187.00,0.0010
3186.00,0.0011
3185.00,0.0011
3184.00,0.0011
3183.00,0.0011
3182.00,0.0010
3181.00,0.0010
3180.00,0.0009
3179.00,0.0009
3178.00,0.0009
3177.00,0.0009
3176.00,0.0009
3175.00,0.0009
3174.00,0.0009
3173.00,0.0008
3172.00,0.0009
3171.00,0.0009
3170.00,0.0009
3169.00,0.0010
3168.00,0.0010
3167.00,0.0010
3166.00,0.0010
3165.00,0.0010
3164.00,0.0010
3163.00,0.0010
3162.00,0.0009
3161.00,0.0009
3160.00,0.0009
3159.00,0.0009
3158.00,0.0009
3157.00,0.0010
3156.00,0.0010
3155.00,0.0010
3154.00,0.0010
3153.00,0.0009
3152.00,0.0009
3151.00,0.0009
3150.00,0.0009
3149.00,0.0009
3148.00,0.0009
3147.00,0.0009
3146.00,0.0009
3145.00,0.0009
3144.00,0.0009
3143.00,0.0009
3142.00,0.0009
3141.00,0.0009
3140.00,0.0009
3139.00,0.0009
3138.00,0.0009
3137.00,0.0009
3136.00,0.0009
3135.00,0.0008
3134.00,0.0008
3133.00,0.0008
3132.00,0.0008
3131.00,0.0008
3130.00,0.0009
3129.00,0.0009
3128.00,0.0009
3127.00,0.0009
3126.00,0.0009
3125.00,0.0009
3124.00,0.0008
3123.00,0.0008
3122.00,0.0008
3121.00,0.0008
3120.00,0.0008
3119.00,0.0008
3118.00,0.0007
3117.00,0.0007
3116.00,0.0007
3115.00,0.0007
3114.00,0.0006
3113.00,0.0007
3112.00,0.0007
3111.00,0.0007
3110.00,0.0008
3109.00,0.0008
3108.00,0.0008
3107.00,0.0008
3106.00,0.0007
3105.00,0.0007
3104.00,0.0007
3103.00,0.0007
3102.00,0.0007
3101.00,0.0007
3100.00,0.0007
3099.00,0.0006
3098.00,0.0006
3097.00,0.0006
3096.00,0.0007
3095.00,0.0007
3094.00,0.0007
3093.00,0.0006
3092.00,0.0007
3091.00,0.0007
3090.00,0.0007
3089.00,0.0007
3088.00,0.0007
3087.00,0.0007
3086.00,0.0007
3085.00,0.0007
3084.00,0.0007
3083.00,0.0007
3082.00,0.0006
3081.00,0.0007
3080.00,0.0007
3079.00,0.0007
3078.00,0.0007
3077.00,0.0007
3076.00,0.0008
3075.00,0.0008
3074.00,0.0008
3073.00,0.0008
3072.00,0.0008
3071.00,0.0008
3070.00,0.0008
3069.00,0.0008
3068.00,0.0008
3067.00,0.0008
3066.00,0.0008
3065.00,0.0008
3064.00,0.0008
3063.00,0.0009
3062.00,0.0009
3061.00,0.0009
3060.00,0.0009
3059.00,0.0009
3058.00,0.0009
3057.00,0.0008
3056.00,0.0008
3055.00,0.0008
3054.00,0.0009
3053.00,0.0009
3052.00,0.0009
3051.00,0.0009
3050.00,0.0009
3049.00,0.0010
3048.00,0.0010
3047.00,0.0010
3046.00,0.0010
3045.00,0.0010
3044.00,0.0010
3043.00,0.0010
3042.00,0.0010
3041.00,0.0010
3040.00,0.0010
3039.00,0.0011
3038.00,0.0011
3037.00,0.0011
3036.00,0.0011
3035.00,0.0011
3034.00,0.0011
3033.00,0.0011
3032.00,0.0012
3031.00,0.0012
3030.00,0.0013
3029.00,0.0013
3028.00,0.0013
3027.00,0.0014
3026.00,0.0014
3025.00,0.0014
3024.00,0.0014
3023.00,0.0014
3022.00,0.0015
3021.00,0.0015
3020.00,0.0016
3019.00,0.0016
3018.00,0.0016
3017.00,0.0016
3016.00,0.0017
3015.00,0.0017
3014.00,0.0017
3013.00,0.0018
3012.00,0.0018
3011.00,0.0019
3010.00,0.0020
3009.00,0.0021
3008.00,0.0021
3007.00,0.0022
3006.00,0.0022
3005.00,0.0023
3004.00,0.0024
3003.00,0.0024
3002.00,0.0025
3001.00,0.0027
3000.00,0.0028
2999.00,0.0029
2998.00,0.0031
2997.00,0.0033
2996.00,0.0034
2995.00,0.0036
2994.00,0.0038
2993.00,0.0041
2992.00,0.0043
2991.00,0.0046
2990.00,0.0049
2989.00,0.0053
2988.00,0.0056
2987.00,0.0061
2986.00,0.0065
2985.00,0.0071
2984.00,0.0076
2983.00,0.0083
2982.00,0.0090
2981.00,0.0098
2980.00,0.0108
2979.00,0.0120
2978.00,0.0132
2977.00,0.0146
2976.00,0.0163
2975.00,0.0181
2974.00,0.0202
2973.00,0.0226
2972.00,0.0252
2971.00,0.0282
2970.00,0.0315
2969.00,0.0352
2968.00,0.0391
2967.00,0.0433
2966.00,0.0476
2965.00,0.0521
2964.00,0.0564
2963.00,0.0605
2962.00,0.0640
2961.00,0.0669
2960.00,0.0692
2959.00,0.0709
2958.00,0.0723
2957.00,0.0736
2956.00,0.0751
2955.00,0.0770
2954.00,0.0792
2953.00,0.0816
2952.00,0.0839
2951.00,0.0856
2950.00,0.0862
2949.00,0.0855
2948.00,0.0831
2947.00,0.0793
2946.00,0.0743
2945.00,0.0686
2944.00,0.0629
2943.00,0.0577
2942.00,0.0535
2941.00,0.0503
2940.00,0.0483
2939.00,0.0474
2938.00,0.0474
2937.00,0.0482
2936.00,0.0498
2935.00,0.0520
2934.00,0.0549
2933.00,0.0582
2932.00,0.0620
2931.00,0.0662
2930.00,0.0705
2929.00,0.0748
2928.00,0.0790
2927.00,0.0830
2926.00,0.0868
2925.00,0.0904
2924.00,0.0937
2923.00,0.0970
2922.00,0.1001
2921.00,0.1029
2920.00,0.1054
2919.00,0.1072
2918.00,0.1081
2917.00,0.1079
2916.00,0.1065
2915.00,0.1043
2914.00,0.1013
2913.00,0.0979
2912.00,0.0945
2911.00,0.0911
2910.00,0.0880
2909.00,0.0852
2908.00,0.0825
2907.00,0.0799
2906.00,0.0773
2905.00,0.0746
2904.00,0.0718
2903.00,0.0690
2902.00,0.0661
2901.00,0.0632
2900.00,0.0604
2899.00,0.0578
2898.00,0.0553
2897.00,0.0530
2896.00,0.0510
2895.00,0.0493
2894.00,0.0479
2893.00,0.0469
2892.00,0.0461
2891.00,0.0457
2890.00,0.0455
2889.00,0.0455
2888.00,0.0457
2887.00,0.0461
2886.00,0.0466
2885.00,0.0472
2884.00,0.0481
2883.00,0.0491
2882.00,0.0502
2881.00,0.0515
2880.00,0.0527
2879.00,0.0537
2878.00,0.0544
2877.00,0.0546
2876.00,0.0544
2875.00,0.0540
2874.00,0.0536
2873.00,0.0535
2872.00,0.0537
2871.00,0.0542
2870.00,0.0550
2869.00,0.0559
2868.00,0.0564
2867.00,0.0562
2866.00,0.0550
2865.00,0.0527
2864.00,0.0494
2863.00,0.0453
2862.00,0.0410
2861.00,0.0369
2860.00,0.0333
2859.00,0.0304
2858.00,0.0282
2857.00,0.0267
2856.00,0.0256
2855.00,0.0250
2854.00,0.0247
2853.00,0.0247
2852.00,0.0251
2851.00,0.0258
2850.00,0.0269
2849.00,0.0283
2848.00,0.0300
2847.00,0.0322
2846.00,0.0348
2845.00,0.0377
2844.00,0.0410
2843.00,0.0444
2842.00,0.0479
2841.00,0.0511
2840.00,0.0538
2839.00,0.0555
2838.00,0.0559
2837.00,0.0548
2836.00,0.0522
2835.00,0.0483
2834.00,0.0435
2833.00,0.0385
2832.00,0.0336
2831.00,0.0293
2830.00,0.0257
2829.00,0.0226
2828.00,0.0202
2827.00,0.0182
2826.00,0.0165
2825.00,0.0152
2824.00,0.0141
2823.00,0.0131
2822.00,0.0124
2821.00,0.0117
2820.00,0.0111
2819.00,0.0106
2818.00,0.0102
2817.00,0.0098
2816.00,0.0095
2815.00,0.0092
2814.00,0.0089
2813.00,0.0086
2812.00,0.0083
2811.00,0.0081
2810.00,0.0078
2809.00,0.0076
2808.00,0.0073
2807.00,0.0071
2806.00,0.0068
2805.00,0.0065
2804.00,0.0062
2803.00,0.0059
2802.00,0.0057
2801.00,0.0055
2800.00,0.0053
2799.00,0.0051
2798.00,0.0049
2797.00,0.0048
2796.00,0.0047
2795.00,0.0046
2794.00,0.0046
2793.00,0.0044
2792.00,0.0043
2791.00,0.0041
2790.00,0.0040
2789.00,0.0038
2788.00,0.0036
2787.00,0.0035
2786.00,0.0034
2785.00,0.0032
2784.00,0.0031
2783.00,0.0030
2782.00,0.0030
2781.00,0.0029
2780.00,0.0028
2779.00,0.0028
2778.00,0.0027
2777.00,0.0026
2776.00,0.0025
2775.00,0.0025
2774.00,0.0025
2773.00,0.0025
2772.00,0.0025
2771.00,0.0024
2770.00,0.0024
2769.00,0.0023
2768.00,0.0023
2767.00,0.0023
2766.00,0.0024
2765.00,0.0023
2764.00,0.0023
2763.00,0.0023
2762.00,0.0023
2761.00,0.0023
2760.00,0.0022
2759.00,0.0022
2758.00,0.0022
2757.00,0.0022
2756.00,0.0022
2755.00,0.0022
2754.00,0.0023
2753.00,0.0023
2752.00,0.0022
2751.00,0.0022
2750.00,0.0022
2749.00,0.0022
2748.00,0.0022
2747.00,0.0022
2746.00,0.0023
2745.00,0.0023
2744.00,0.0023
2743.00,0.0023
2742.00,0.0024
2741.00,0.0025
2740.00,0.0025
2739.00,0.0026
2738.00,0.0027
2737.00,0.0028
2736.00,0.0028
2735.00,0.0029
2734.00,0.0029
2733.00,0.0030
2732.00,0.0031
2731.00,0.0032
2730.00,0.0033
2729.00,0.0034
2728.00,0.0035
2727.00,0.0036
2726.00,0.0038
2725.00,0.0039
2724.00,0.0040
2723.00,0.0040
2722.00,0.0039
2721.00,0.0038
2720.00,0.0037
2719.00,0.0035
2718.00,0.0034
2717.00,0.0033
2716.00,0.0032
2715.00,0.0030
2714.00,0.0029
2713.00,0.0028
2712.00,0.0027
2711.00,0.0026
2710.00,0.0025
2709.00,0.0024
2708.00,0.0023
2707.00,0.0023
2706.00,0.0022
2705.00,0.0022
2704.00,0.0021
2703.00,0.0021
2702.00,0.0021
2701.00,0.0020
2700.00,0.0020
2699.00,0.0019
2698.00,0.0019
2697.00,0.0019
2696.00,0.0019
2695.00,0.0018
2694.00,0.0018
2693.00,0.0018
2692.00,0.0018
2691.00,0.0018
2690.00,0.0018
2689.00,0.0019
2688.00,0.0019
2687.00,0.0019
2686.00,0.0019
2685.00,0.0019
2684.00,0.0019
2683.00,0.0020
2682.00,0.0020
2681.00,0.0020
2680.00,0.0020
2679.00,0.0020
2678.00,0.0019
2677.00,0.0019
2676.00,0.0019
2675.00,0.0019
2674.00,0.0019
2673.00,0.0019
2672.00,0.0019
2671.00,0.0019
2670.00,0.0019
2669.00,0.0019
2668.00,0.0019
2667.00,0.0019
2666.00,0.0019
2665.00,0.0019
2664.00,0.0020
2663.00,0.0021
2662.00,0.0021
2661.00,0.0022
2660.00,0.0022
2659.00,0.0022
2658.00,0.0022
2657.00,0.0022
2656.00,0.0022
2655.00,0.0022
2654.00,0.0021
2653.00,0.0021
2652.00,0.0021
2651.00,0.0021
2650.00,0.0021
2649.00,0.0021
2648.00,0.0021
2647.00,0.0020
2646.00,0.0020
2645.00,0.0020
2644.00,0.0020
2643.00,0.0020
2642.00,0.0020
2641.00,0.0019
2640.00,0.0019
2639.00,0.0018
2638.00,0.0018
2637.00,0.0018
2636.00,0.0017
2635.00,0.0017
2634.00,0.0018
2633.00,0.0018
2632.00,0.0018
2631.00,0.0018
2630.00,0.0018
2629.00,0.0018
2628.00,0.0018
2627.00,0.0018
2626.00,0.0018
2625.00,0.0018
2624.00,0.0018
2623.00,0.0018
2622.00,0.0018
2621.00,0.0018
2620.00,0.0018
2619.00,0.0018
2618.00,0.0018
2617.00,0.0018
2616.00,0.0018
2615.00,0.0018
2614.00,0.0018
2613.00,0.0018
2612.00,0.0018
2611.00,0.0018
2610.00,0.0017
2609.00,0.0016
2608.00,0.0016
2607.00,0.0015
2606.00,0.0015
2605.00,0.0015
2604.00,0.0014
2603.00,0.0014
2602.00,0.0014
2601.00,0.0014
2600.00,0.0013
2599.00,0.0013
2598.00,0.0013
2597.00,0.0013
2596.00,0.0013
2595.00,0.0013
2594.00,0.0014
2593.00,0.0014
2592.00,0.0014
2591.00,0.0014
2590.00,0.0014
2589.00,0.0015
2588.00,0.0015
2587.00,0.0016
2586.00,0.0017
2585.00,0.0017
2584.00,0.0017
2583.00,0.0018
2582.00,0.0017
2581.00,0.0017
2580.00,0.0016
2579.00,0.0015
2578.00,0.0015
2577.00,0.0014
2576.00,0.0014
2575.00,0.0013
2574.00,0.0013
2573.00,0.0012
2572.00,0.0012
2571.00,0.0012
2570.00,0.0012
2569.00,0.0012
2568.00,0.0012
2567.00,0.0011
2566.00,0.0011
2565.00,0.0010
2564.00,0.0010
2563.00,0.0009
2562.00,0.0009
2561.00,0.0009
2560.00,0.0009
2559.00,0.0009
2558.00,0.0008
2557.00,0.0008
2556.00,0.0008
2555.00,0.0008
2554.00,0.0008
2553.00,0.0008
2552.00,0.0007
2551.00,0.0007
2550.00,0.0007
2549.00,0.0007
2548.00,0.0008
2547.00,0.0008
2546.00,0.0008
2545.00,0.0007
2544.00,0.0007
2543.00,0.0006
2542.00,0.0006
2541.00,0.0006
2540.00,0.0006
2539.00,0.0006
2538.00,0.0006
2537.00,0.0006
2536.00,0.0006
2535.00,0.0006
2534.00,0.0005
2533.00,0.0004
2532.00,0.0004
2531.00,0.0004
2530.00,0.0004
2529.00,0.0005
2528.00,0.0006
2527.00,0.0006
2526.00,0.0006
2525.00,0.0006
2524.00,0.0005
2523.00,0.0004
2522.00,0.0003
2521.00,0.0003
2520.00,0.0003
2519.00,0.0003
2518.00,0.0003
2517.00,0.0003
2516.00,0.0002
2515.00,0.0002
2514.00,0.0002
2513.00,0.0001
2512.00,0.0001
2511.00,0.0002
2510.00,0.0002
2509.00,0.0002
2508.00,0.0002
2507.00,0.0002
2506.00,0.0002
2505.00,0.0002
2504.00,0.0002
2503.00,0.0002
2502.00,0.0002
2501.00,0.0002
2500.00,0.0002
2499.00,0.0002
2498.00,0.0002
2497.00,0.0002
2496.00,0.0002
2495.00,0.0003
2494.00,0.0002
2493.00,0.0002
2492.00,0.0002
2491.00,0.0002
2490.00,0.0002
2489.00,0.0002
2488.00,0.0002
2487.00,0.0002
2486.00,0.0002
2485.00,0.0002
2484.00,0.0002
2483.00,0.0002
2482.00,0.0002
2481.00,0.0002
2480.00,0.0002
2479.00,0.0002
2478.00,0.0002
2477.00,0.0002
2476.00,0.0002
2475.00,0.0003
2474.00,0.0003
2473.00,0.0003
2472.00,0.0003
2471.00,0.0002
2470.00,0.0002
2469.00,0.0001
2468.00,0.0000
2467.00,0.0000
2466.00,0.0001
2465.00,0.0001
2464.00,0.0001
2463.00,0.0001
2462.00,0.0001
2461.00,0.0001
2460.00,0.0002
2459.00,0.0002
2458.00,0.0002
2457.00,0.0003
2456.00,0.0003
2455.00,0.0003
2454.00,0.0004
2453.00,0.0004
2452.00,0.0004
2451.00,0.0004
2450.00,0.0003
2449.00,0.0002
2448.00,0.0002
2447.00,0.0003
2446.00,0.0003
2445.00,0.0004
2444.00,0.0004
2443.00,0.0004
2442.00,0.0003
2441.00,0.0003
2440.00,0.0003
2439.00,0.0003
2438.00,0.0003
2437.00,0.0004
2436.00,0.0004
2435.00,0.0003
2434.00,0.0002
2433.00,0.0002
2432.00,0.0003
2431.00,0.0003
2430.00,0.0004
2429.00,0.0004
2428.00,0.0004
2427.00,0.0004
2426.00,0.0003
2425.00,0.0003
2424.00,0.0003
2423.00,0.0003
2422.00,0.0003
2421.00,0.0003
2420.00,0.0003
2419.00,0.0003
2418.00,0.0002
2417.00,0.0002
2416.00,0.0002
2415.00,0.0002
2414.00,0.0002
2413.00,0.0002
2412.00,0.0002
2411.00,0.0002
2410.00,0.0001
2409.00,0.0000
2408.00,-0.0000
2407.00,-0.0001
2406.00,-0.0001
2405.00,-0.0001
2404.00,-0.0001
2403.00,-0.0000
2402.00,-0.0000
2401.00,-0.0001
2400.00,-0.0001
2399.00,-0.0001
2398.00,-0.0001
2397.00,-0.0001
2396.00,-0.0001
2395.00,-0.0000
2394.00,0.0000
2393.00,0.0000
2392.00,0.0000
2391.00,0.0000
2390.00,0.0000
2389.00,0.0000
2388.00,0.0000
2387.00,-0.0000
2386.00,-0.0001
2385.00,-0.0001
2384.00,-0.0002
2383.00,-0.0002
2382.00,-0.0002
2381.00,-0.0003
2380.00,-0.0003
2379.00,-0.0003
2378.00,-0.0003
2377.00,-0.0002
2376.00,-0.0002
2375.00,-0.0001
2374.00,-0.0001
2373.00,-0.0001
2372.00,-0.0001
2371.00,-0.0001
2370.00,-0.0001
2369.00,-0.0001
2368.00,-0.0001
2367.00,-0.0000
2366.00,-0.0000
2365.00,-0.0000
2364.00,-0.0001
2363.00,-0.0001
2362.00,-0.0001
2361.00,-0.0001
2360.00,-0.0000
2359.00,0.0001
2358.00,0.0002
2357.00,0.0003
2356.00,0.0004
2355.00,0.0004
2354.00,0.0003
2353.00,0.0002
2352.00,0.0001
2351.00,0.0001
2350.00,0.0001
2349.00,0.0001
2348.00,0.0001
2347.00,0.0001
2346.00,0.0001
2345.00,0.0001
2344.00,0.0002
2343.00,0.0003
2342.00,0.0003
2341.00,0.0004
2340.00,0.0004
2339.00,0.0004
2338.00,0.0004
2337.00,0.0003
2336.00,0.0003
2335.00,0.0002
2334.00,0.0002
2333.00,0.0002
2332.00,0.0002
2331.00,0.0002
2330.00,0.0003
2329.00,0.0003
2328.00,0.0005
2327.00,0.0008
2326.00,0.0011
2325.00,0.0014
2324.00,0.0015
2323.00,0.0015
2322.00,0.0013
2321.00,0.0011
2320.00,0.0010
2319.00,0.0009
2318.00,0.0008
2317.00,0.0007
2316.00,0.0007
2315.00,0.0007
2314.00,0.0007
2313.00,0.0006
2312.00,0.0005
2311.00,0.0004
2310.00,0.0003
2309.00,0.0003
2308.00,0.0003
2307.00,0.0003
2306.00,0.0003
2305.00,0.0003
2304.00,0.0003
2303.00,0.0003
2302.00,0.0004
2301.00,0.0004
2300.00,0.0005
2299.00,0.0005
2298.00,0.0005
2297.00,0.0006
2296.00,0.0006
2295.00,0.0007
2294.00,0.0008
2293.00,0.0008
2292.00,0.0009
2291.00,0.0009
2290.00,0.0009
2289.00,0.0010
2288.00,0.0010
2287.00,0.0011
2286.00,0.0012
2285.00,0.0012
2284.00,0.0011
2283.00,0.0010
2282.00,0.0010
2281.00,0.0009
2280.00,0.0009
2279.00,0.0008
2278.00,0.0008
2277.00,0.0008
2276.00,0.0008
2275.00,0.0007
2274.00,0.0006
2273.00,0.0006
2272.00,0.0006
2271.00,0.0006
2270.00,0.0007
2269.00,0.0007
2268.00,0.0007
2267.00,0.0007
2266.00,0.0006
2265.00,0.0006
2264.00,0.0005
2263.00,0.0005
2262.00,0.0005
2261.00,0.0005
2260.00,0.0006
2259.00,0.0006
2258.00,0.0005
2257.00,0.0004
2256.00,0.0003
2255.00,0.0002
2254.00,0.0000
2253.00,-0.0001
2252.00,-0.0000
2251.00,0.0002
2250.00,0.0005
2249.00,0.0007
2248.00,0.0007
2247.00,0.0007
2246.00,0.0006
2245.00,0.0004
2244.00,0.0003
2243.00,0.0003
2242.00,0.0002
2241.00,0.0003
2240.00,0.0003
2239.00,0.0004
2238.00,0.0004
2237.00,0.0005
2236.00,0.0005
2235.00,0.0005
2234.00,0.0005
2233.00,0.0004
2232.00,0.0004
2231.00,0.0003
2230.00,0.0003
2229.00,0.0003
2228.00,0.0002
2227.00,0.0001
2226.00,-0.0000
2225.00,-0.0002
2224.00,-0.0002
2223.00,-0.0003
2222.00,-0.0003
2221.00,-0.0003
2220.00,-0.0003
2219.00,-0.0003
2218.00,-0.0001
2217.00,0.0002
2216.00,0.0004
2215.00,0.0004
2214.00,0.0004
2213.00,0.0002
2212.00,0.0000
2211.00,-0.0001
2210.00,-0.0001
2209.00,-0.0001
2208.00,-0.0001
2207.00,-0.0001
2206.00,-0.0001
2205.00,0.0001
2204.00,0.0002
2203.00,0.0003
2202.00,0.0005
2201.00,0.0008
2200.00,0.0010
2199.00,0.0011
2198.00,0.0010
2197.00,0.0008
2196.00,0.0005
2195.00,0.0002
2194.00,0.0001
2193.00,0.0002
2192.00,0.0005
2191.00,0.0007
2190.00,0.0008
2189.00,0.0007
2188.00,0.0005
2187.00,0.0003
2186.00,0.0003
2185.00,0.0003
2184.00,0.0003
2183.00,0.0003
2182.00,0.0003
2181.00,0.0003
2180.00,0.0004
2179.00,0.0003
2178.00,0.0001
2177.00,-0.0001
2176.00,-0.0002
2175.00,-0.0002
2174.00,-0.0002
2173.00,-0.0001
2172.00,0.0001
2171.00,0.0003
2170.00,0.0004
2169.00,0.0007
2168.00,0.0010
2167.00,0.0014
2166.00,0.0018
2165.00,0.0020
2164.00,0.0020
2163.00,0.0021
2162.00,0.0019
2161.00,0.0014
2160.00,0.0002
2159.00,-0.0013
2158.00,-0.0026
2157.00,-0.0034
2156.00,-0.0035
2155.00,-0.0033
2154.00,-0.0028
2153.00,-0.0022
2152.00,-0.0017
2151.00,-0.0014
2150.00,-0.0014
2149.00,-0.0016
2148.00,-0.0018
2147.00,-0.0019
2146.00,-0.0018
2145.00,-0.0016
2144.00,-0.0016
2143.00,-0.0015
2142.00,-0.0015
2141.00,-0.0015
2140.00,-0.0015
2139.00,-0.0014
2138.00,-0.0013
2137.00,-0.0013
2136.00,-0.0015
2135.00,-0.0018
2134.00,-0.0022
2133.00,-0.0023
2132.00,-0.0021
2131.00,-0.0018
2130.00,-0.0016
2129.00,-0.0015
2128.00,-0.0014
2127.00,-0.0013
2126.00,-0.0012
2125.00,-0.0010
2124.00,-0.0009
2123.00,-0.0007
2122.00,-0.0007
2121.00,-0.0006
2120.00,-0.0006
2119.00,-0.0005
2118.00,-0.0004
2117.00,-0.0004
2116.00,-0.0003
2115.00,-0.0003
2114.00,-0.0002
2113.00,-0.0001
2112.00,-0.0001
2111.00,-0.0001
2110.00,-0.0002
2109.00,-0.0003
2108.00,-0.0003
2107.00,-0.0003
2106.00,-0.0002
2105.00,-0.0002
2104.00,-0.0002
2103.00,-0.0002
2102.00,-0.0003
2101.00,-0.0003
2100.00,-0.0002
2099.00,-0.0003
2098.00,-0.0003
2097.00,-0.0004
2096.00,-0.0005
2095.00,-0.0006
2094.00,-0.0007
2093.00,-0.0007
2092.00,-0.0006
2091.00,-0.0006
2090.00,-0.0005
2089.00,-0.0005
2088.00,-0.0004
2087.00,-0.0003
2086.00,-0.0002
2085.00,-0.0000
2084.00,0.0000
2083.00,0.0000
2082.00,-0.0000
2081.00,-0.0001
2080.00,-0.0001
2079.00,-0.0001
2078.00,-0.0001
2077.00,-0.0001
2076.00,-0.0002
2075.00,-0.0003
2074.00,-0.0004
2073.00,-0.0004
2072.00,-0.0003
2071.00,-0.0003
2070.00,-0.0004
2069.00,-0.0004
2068.00,-0.0005
2067.00,-0.0005
2066.00,-0.0005
2065.00,-0.0005
2064.00,-0.0005
2063.00,-0.0006
2062.00,-0.0006
2061.00,-0.0005
2060.00,-0.0004
2059.00,-0.0002
2058.00,0.0000
2057.00,0.0002
2056.00,0.0004
2055.00,0.0004
2054.00,0.0003
2053.00,0.0004
2052.00,0.0005
2051.00,0.0005
2050.00,0.0003
2049.00,0.0000
2048.00,-0.0001
2047.00,-0.0001
2046.00,-0.0001
2045.00,-0.0002
2044.00,-0.0003
2043.00,-0.0003
2042.00,-0.0002
2041.00,0.0000
2040.00,0.0002
2039.00,0.0003
2038.00,0.0002
2037.00,0.0001
2036.00,-0.0001
2035.00,-0.0003
2034.00,-0.0006
2033.00,-0.0008
2032.00,-0.0009
2031.00,-0.0008
2030.00,-0.0008
2029.00,-0.0009
2028.00,-0.0010
2027.00,-0.0011
2026.00,-0.0012
2025.00,-0.0014
2024.00,-0.0014
2023.00,-0.0015
2022.00,-0.0015
2021.00,-0.0016
2020.00,-0.0015
2019.00,-0.0014
2018.00,-0.0013
2017.00,-0.0012
2016.00,-0.0010
2015.00,-0.0008
2014.00,-0.0006
2013.00,-0.0005
2012.00,-0.0006
2011.00,-0.0008
2010.00,-0.0009
2009.00,-0.0010
2008.00,-0.0011
2007.00,-0.0012
2006.00,-0.0014
2005.00,-0.0014
2004.00,-0.0013
2003.00,-0.0012
2002.00,-0.0011
2001.00,-0.0010
2000.00,-0.0010
1999.00,-0.0011
1998.00,-0.0011
1997.00,-0.0011
1996.00,-0.0011
1995.00,-0.0010
1994.00,-0.0010
1993.00,-0.0009
1992.00,-0.0008
1991.00,-0.0007
1990.00,-0.0006
1989.00,-0.0005
1988.00,-0.0006
1987.00,-0.0006
1986.00,-0.0006
1985.00,-0.0006
1984.00,-0.0004
1983.00,-0.0001
1982.00,0.0003
1981.00,0.0006
1980.00,0.0007
1979.00,0.0002
1978.00,-0.0006
1977.00,-0.0015
1976.00,-0.0020
1975.00,-0.0022
1974.00,-0.0020
1973.00,-0.0019
1972.00,-0.0019
1971.00,-0.0020
1970.00,-0.0021
1969.00,-0.0020
1968.00,-0.0016
1967.00,-0.0013
1966.00,-0.0011
1965.00,-0.0012
1964.00,-0.0014
1963.00,-0.0016
1962.00,-0.0017
1961.00,-0.0017
1960.00,-0.0018
1959.00,-0.0018
1958.00,-0.0020
1957.00,-0.0021
1956.00,-0.0023
1955.00,-0.0022
1954.00,-0.0021
1953.00,-0.0018
1952.00,-0.0016
1951.00,-0.0014
1950.00,-0.0013
1949.00,-0.0014
1948.00,-0.0015
1947.00,-0.0016
1946.00,-0.0016
1945.00,-0.0016
1944.00,-0.0015
1943.00,-0.0015
1942.00,-0.0015
1941.00,-0.0015
1940.00,-0.0013
1939.00,-0.0013
1938.00,-0.0013
1937.00,-0.0014
1936.00,-0.0015
1935.00,-0.0015
1934.00,-0.0014
1933.00,-0.0013
1932.00,-0.0012
1931.00,-0.0011
1930.00,-0.0011
1929.00,-0.0011
1928.00,-0.0011
1927.00,-0.0012
1926.00,-0.0013
1925.00,-0.0012
1924.00,-0.0010
1923.00,-0.0009
1922.00,-0.0008
1921.00,-0.0008
1920.00,-0.0008
1919.00,-0.0008
1918.00,-0.0007
1917.00,-0.0006
1916.00,-0.0005
1915.00,-0.0004
1914.00,-0.0004
1913.00,-0.0005
1912.00,-0.0007
1911.00,-0.0010
1910.00,-0.0011
1909.00,-0.0012
1908.00,-0.0011
1907.00,-0.0009
1906.00,-0.0007
1905.00,-0.0005
1904.00,-0.0005
1903.00,-0.0005
1902.00,-0.0005
1901.00,-0.0005
1900.00,-0.0005
1899.00,-0.0006
1898.00,-0.0008
1897.00,-0.0009
1896.00,-0.0009
1895.00,-0.0008
1894.00,-0.0007
1893.00,-0.0006
1892.00,-0.0006
1891.00,-0.0006
1890.00,-0.0006
1889.00,-0.0006
1888.00,-0.0007
1887.00,-0.0008
1886.00,-0.0009
1885.00,-0.0009
1884.00,-0.0009
1883.00,-0.0009
1882.00,-0.0009
1881.00,-0.0008
1880.00,-0.0007
1879.00,-0.0006
1878.00,-0.0005
1877.00,-0.0004
1876.00,-0.0004
1875.00,-0.0004
1874.00,-0.0005
1873.00,-0.0005
1872.00,-0.0006
1871.00,-0.0007
1870.00,-0.0006
1869.00,-0.0005
1868.00,-0.0004
1867.00,-0.0004
1866.00,-0.0005
1865.00,-0.0005
1864.00,-0.0006
1863.00,-0.0006
1862.00,-0.0005
1861.00,-0.0005
1860.00,-0.0005
1859.00,-0.0005
1858.00,-0.0005
1857.00,-0.0005
1856.00,-0.0005
1855.00,-0.0005
1854.00,-0.0005
1853.00,-0.0005
1852.00,-0.0005
1851.00,-0.0004
1850.00,-0.0004
1849.00,-0.0004
1848.00,-0.0004
1847.00,-0.0004
1846.00,-0.0004
1845.00,-0.0004
1844.00,-0.0004
1843.00,-0.0004
1842.00,-0.0004
1841.00,-0.0004
1840.00,-0.0003
1839.00,-0.0002
1838.00,-0.0002
1837.00,-0.0002
1836.00,-0.0002
1835.00,-0.0002
1834.00,-0.0002
1833.00,-0.0002
1832.00,-0.0002
1831.00,-0.0002
1830.00,-0.0003
1829.00,-0.0003
1828.00,-0.0003
1827.00,-0.0004
1826.00,-0.0004
1825.00,-0.0004
1824.00,-0.0003
1823.00,-0.0003
1822.00,-0.0003
1821.00,-0.0003
1820.00,-0.0003
1819.00,-0.0004
1818.00,-0.0005
1817.00,-0.0006
1816.00,-0.0006
1815.00,-0.0005
1814.00,-0.0004
1813.00,-0.0003
1812.00,-0.0003
1811.00,-0.0002
1810.00,-0.0001
1809.00,-0.0000
1808.00,0.0000
1807.00,0.0000
1806.00,-0.0000
1805.00,-0.0000
1804.00,-0.0001
1803.00,-0.0001
1802.00,-0.0001
1801.00,-0.0001
1800.00,-0.0000
1799.00,0.0000
1798.00,0.0000
1797.00,0.0000
1796.00,-0.0000
1795.00,0.0000
1794.00,0.0001
1793.00,0.0001
1792.00,0.0001
1791.00,0.0001
1790.00,0.0001
1789.00,0.0001
1788.00,0.0001
1787.00,0.0001
1786.00,0.0001
1785.00,0.0001
1784.00,0.0001
1783.00,0.0001
1782.00,0.0001
1781.00,0.0001
1780.00,0.0001
1779.00,0.0001
1778.00,0.0000
1777.00,0.0000
1776.00,0.0001
1775.00,0.0001
1774.00,0.0002
1773.00,0.0002
1772.00,0.0002
1771.00,0.0002
1770.00,0.0002
1769.00,0.0002
1768.00,0.0002
1767.00,0.0002
1766.00,0.0001
1765.00,0.0001
1764.00,0.0001
1763.00,0.0002
1762.00,0.0002
1761.00,0.0002
1760.00,0.0003
1759.00,0.0003
1758.00,0.0003
1757.00,0.0004
1756.00,0.0004
1755.00,0.0004
1754.00,0.0004
1753.00,0.0004
1752.00,0.0004
1751.00,0.0004
1750.00,0.0004
1749.00,0.0004
1748.00,0.0005
1747.00,0.0005
1746.00,0.0005
1745.00,0.0004
1744.00,0.0004
1743.00,0.0004
1742.00,0.0004
1741.00,0.0004
1740.00,0.0005
1739.00,0.0005
1738.00,0.0006
1737.00,0.0006
1736.00,0.0006
1735.00,0.0006
1734.00,0.0006
1733.00,0.0006
1732.00,0.0006
1731.00,0.0006
1730.00,0.0005
1729.00,0.0006
1728.00,0.0006
1727.00,0.0006
1726.00,0.0006
1725.00,0.0006
1724.00,0.0006
1723.00,0.0006
1722.00,0.0006
1721.00,0.0006
1720.00,0.0006
1719.00,0.0006
1718.00,0.0006
1717.00,0.0006
1716.00,0.0007
1715.00,0.0008
1714.00,0.0008
1713.00,0.0009
1712.00,0.0009
1711.00,0.0008
1710.00,0.0008
1709.00,0.0008
1708.00,0.0008
1707.00,0.0008
1706.00,0.0008
1705.00,0.0008
1704.00,0.0009
1703.00,0.0009
1702.00,0.0009
1701.00,0.0009
1700.00,0.0009
1699.00,0.0008
1698.00,0.0008
1697.00,0.0008
1696.00,0.0008
1695.00,0.0009
1694.00,0.0009
1693.00,0.0009
1692.00,0.0009
1691.00,0.0009
1690.00,0.0009
1689.00,0.0009
1688.00,0.0009
1687.00,0.0009
1686.00,0.0008
1685.00,0.0008
1684.00,0.0008
1683.00,0.0009
1682.00,0.0010
1681.00,0.0010
1680.00,0.0011
1679.00,0.0011
1678.00,0.0011
1677.00,0.0011
1676.00,0.0011
1675.00,0.0011
1674.00,0.0012
1673.00,0.0012
1672.00,0.0012
1671.00,0.0011
1670.00,0.0011
1669.00,0.0011
1668.00,0.0011
1667.00,0.0012
1666.00,0.0012
1665.00,0.0012
1664.00,0.0012
1663.00,0.0012
1662.00,0.0013
1661.00,0.0013
1660.00,0.0013
1659.00,0.0013
1658.00,0.0013
1657.00,0.0013
1656.00,0.0013
1655.00,0.0014
1654.00,0.0014
1653.00,0.0014
1652.00,0.0014
1651.00,0.0013
1650.00,0.0013
1649.00,0.0013
1648.00,0.0014
1647.00,0.0014
1646.00,0.0014
1645.00,0.0015
1644.00,0.0015
1643.00,0.0015
1642.00,0.0015
1641.00,0.0015
1640.00,0.0015
1639.00,0.0015
1638.00,0.0015
1637.00,0.0015
1636.00,0.0015
1635.00,0.0014
1634.00,0.0015
1633.00,0.0015
1632.00,0.0016
1631.00,0.0016
1630.00,0.0016
1629.00,0.0016
1628.00,0.0016
1627.00,0.0016
1626.00,0.0016
1625.00,0.0016
1624.00,0.0016
1623.00,0.0015
1622.00,0.0015
1621.00,0.0016
1620.00,0.0016
1619.00,0.0016
1618.00,0.0016
1617.00,0.0015
1616.00,0.0015
1615.00,0.0015
1614.00,0.0015
1613.00,0.0015
1612.00,0.0016
1611.00,0.0016
1610.00,0.0016
1609.00,0.0015
1608.00,0.0016
1607.00,0.0016
1606.00,0.0016
1605.00,0.0016
1604.00,0.0017
1603.00,0.0017
1602.00,0.0016
1601.00,0.0016
1600.00,0.0016
1599.00,0.0016
1598.00,0.0016
1597.00,0.0016
1596.00,0.0016
1595.00,0.0015
1594.00,0.0015
1593.00,0.0015
1592.00,0.0015
1591.00,0.0015
1590.00,0.0016
1589.00,0.0017
1588.00,0.0017
1587.00,0.0017
1586.00,0.0017
1585.00,0.0018
1584.00,0.0018
1583.00,0.0018
1582.00,0.0019
1581.00,0.0019
1580.00,0.0020
1579.00,0.0020
1578.00,0.0020
1577.00,0.0020
1576.00,0.0020
1575.00,0.0020
1574.00,0.0020
1573.00,0.0020
1572.00,0.0020
1571.00,0.0019
1570.00,0.0019
1569.00,0.0018
1568.00,0.0018
1567.00,0.0018
1566.00,0.0018
1565.00,0.0019
1564.00,0.0019
1563.00,0.0019
1562.00,0.0020
1561.00,0.0020
1560.00,0.0020
1559.00,0.0019
1558.00,0.0018
1557.00,0.0019
1556.00,0.0019
1555.00,0.0019
1554.00,0.0019
1553.00,0.0020
1552.00,0.0020
1551.00,0.0020
1550.00,0.0021
1549.00,0.0021
1548.00,0.0022
1547.00,0.0023
1546.00,0.0023
1545.00,0.0023
1544.00,0.0023
1543.00,0.0024
1542.00,0.0024
1541.00,0.0025
1540.00,0.0025
1539.00,0.0024
1538.00,0.0024
1537.00,0.0024
1536.00,0.0024
1535.00,0.0024
1534.00,0.0023
1533.00,0.0023
1532.00,0.0022
1531.00,0.0021
1530.00,0.0021
1529.00,0.0021
1528.00,0.0021
1527.00,0.0021
1526.00,0.0021
1525.00,0.0021
1524.00,0.0021
1523.00,0.0021
1522.00,0.0021
1521.00,0.0021
1520.00,0.0021
1519.00,0.0021
1518.00,0.0021
1517.00,0.0021
1516.00,0.0022
1515.00,0.0022
1514.00,0.0023
1513.00,0.0024
1512.00,0.0024
1511.00,0.0024
1510.00,0.0024
1509.00,0.0024
1508.00,0.0024
1507.00,0.0025
1506.00,0.0026
1505.00,0.0027
1504.00,0.0029
1503.00,0.0029
1502.00,0.0030
1501.00,0.0032
1500.00,0.0033
1499.00,0.0034
1498.00,0.0035
1497.00,0.0036
1496.00,0.0037
1495.00,0.0038
1494.00,0.0039
1493.00,0.0041
1492.00,0.0043
1491.00,0.0044
1490.00,0.0046
1489.00,0.0048
1488.00,0.0050
1487.00,0.0053
1486.00,0.0055
1485.00,0.0059
1484.00,0.0062
1483.00,0.0066
1482.00,0.0070
1481.00,0.0075
1480.00,0.0081
1479.00,0.0087
1478.00,0.0093
1477.00,0.0103
1476.00,0.0114
1475.00,0.0126
1474.00,0.0143
1473.00,0.0167
1472.00,0.0198
1471.00,0.0229
1470.00,0.0259
1469.00,0.0290
1468.00,0.0324
1467.00,0.0360
1466.00,0.0403
1465.00,0.0448
1464.00,0.0489
1463.00,0.0518
1462.00,0.0538
1461.00,0.0552
1460.00,0.0562
1459.00,0.0569
1458.00,0.0577
1457.00,0.0584
1456.00,0.0589
1455.00,0.0589
1454.00,0.0587
1453.00,0.0582
1452.00,0.0572
1451.00,0.0555
1450.00,0.0530
1449.00,0.0495
1448.00,0.0450
1447.00,0.0402
1446.00,0.0358
1445.00,0.0321
1444.00,0.0289
1443.00,0.0263
1442.00,0.0244
1441.00,0.0231
1440.00,0.0223
1439.00,0.0220
1438.00,0.0220
1437.00,0.0220
1436.00,0.0215
1435.00,0.0201
1434.00,0.0182
1433.00,0.0159
1432.00,0.0136
1431.00,0.0116
1430.00,0.0101
1429.00,0.0090
1428.00,0.0082
1427.00,0.0077
1426.00,0.0073
1425.00,0.0070
1424.00,0.0067
1423.00,0.0065
1422.00,0.0065
1421.00,0.0064
1420.00,0.0062
1419.00,0.0061
1418.00,0.0060
1417.00,0.0059
1416.00,0.0058
1415.00,0.0057
1414.00,0.0057
1413.00,0.0056
1412.00,0.0055
1411.00,0.0055
1410.00,0.0056
1409.00,0.0056
1408.00,0.0056
1407.00,0.0056
1406.00,0.0056
1405.00,0.0056
1404.00,0.0055
1403.00,0.0055
1402.00,0.0055
1401.00,0.0055
1400.00,0.0055
1399.00,0.0056
1398.00,0.0058
1397.00,0.0060
1396.00,0.0061
1395.00,0.0064
1394.00,0.0067
1393.00,0.0070
1392.00,0.0073
1391.00,0.0077
1390.00,0.0083
1389.00,0.0092
1388.00,0.0105
1387.00,0.0124
1386.00,0.0150
1385.00,0.0183
1384.00,0.0225
1383.00,0.0281
1382.00,0.0354
1381.00,0.0445
1380.00,0.0556
1379.00,0.0680
1378.00,0.0798
1377.00,0.0883
1376.00,0.0915
1375.00,0.0877
1374.00,0.0779
1373.00,0.0654
1372.00,0.0533
1371.00,0.0429
1370.00,0.0345
1369.00,0.0281
1368.00,0.0236
1367.00,0.0209
1366.00,0.0194
1365.00,0.0189
1364.00,0.0191
1363.00,0.0199
1362.00,0.0210
1361.00,0.0222
1360.00,0.0231
1359.00,0.0233
1358.00,0.0227
1357.00,0.0213
1356.00,0.0193
1355.00,0.0171
1354.00,0.0149
1353.00,0.0131
1352.00,0.0116
1351.00,0.0105
1350.00,0.0096
1349.00,0.0089
1348.00,0.0084
1347.00,0.0079
1346.00,0.0075
1345.00,0.0071
1344.00,0.0069
1343.00,0.0067
1342.00,0.0065
1341.00,0.0064
1340.00,0.0063
1339.00,0.0062
1338.00,0.0061
1337.00,0.0061
1336.00,0.0061
1335.00,0.0062
1334.00,0.0063
1333.00,0.0065
1332.00,0.0068
1331.00,0.0070
1330.00,0.0071
1329.00,0.0071
1328.00,0.0069
1327.00,0.0066
1326.00,0.0063
1325.00,0.0059
1324.00,0.0056
1323.00,0.0053
1322.00,0.0051
1321.00,0.0049
1320.00,0.0048
1319.00,0.0047
1318.00,0.0046
1317.00,0.0046
1316.00,0.0045
1315.00,0.0044
1314.00,0.0044
1313.00,0.0044
1312.00,0.0044
1311.00,0.0046
1310.00,0.0049
1309.00,0.0052
1308.00,0.0057
1307.00,0.0063
1306.00,0.0069
1305.00,0.0073
1304.00,0.0075
1303.00,0.0074
1302.00,0.0071
1301.00,0.0069
1300.00,0.0067
1299.00,0.0066
1298.00,0.0066
1297.00,0.0066
1296.00,0.0066
1295.00,0.0064
1294.00,0.0062
1293.00,0.0060
1292.00,0.0057
1291.00,0.0054
1290.00,0.0052
1289.00,0.0049
1288.00,0.0048
1287.00,0.0046
1286.00,0.0044
1285.00,0.0043
1284.00,0.0042
1283.00,0.0042
1282.00,0.0041
1281.00,0.0041
1280.00,0.0040
1279.00,0.0040
1278.00,0.0040
1277.00,0.0039
1276.00,0.0039
1275.00,0.0039
1274.00,0.0038
1273.00,0.0039
1272.00,0.0039
1271.00,0.0039
1270.00,0.0039
1269.00,0.0039
1268.00,0.0039
1267.00,0.0040
1266.00,0.0041
1265.00,0.0041
1264.00,0.0042
1263.00,0.0044
1262.00,0.0046
1261.00,0.0048
1260.00,0.0052
1259.00,0.0056
1258.00,0.0060
1257.00,0.0064
1256.00,0.0066
1255.00,0.0065
1254.00,0.0062
1253.00,0.0058
1252.00,0.0054
1251.00,0.0050
1250.00,0.0047
1249.00,0.0046
1248.00,0.0045
1247.00,0.0044
1246.00,0.0043
1245.00,0.0042
1244.00,0.0042
1243.00,0.0042
1242.00,0.0041
1241.00,0.0041
1240.00,0.0041
1239.00,0.0040
1238.00,0.0040
1237.00,0.0040
1236.00,0.0040
1235.00,0.0040
1234.00,0.0040
1233.00,0.0040
1232.00,0.0040
1231.00,0.0040
1230.00,0.0040
1229.00,0.0040
1228.00,0.0041
1227.00,0.0043
1226.00,0.0044
1225.00,0.0045
1224.00,0.0047
1223.00,0.0049
1222.00,0.0051
1221.00,0.0052
1220.00,0.0053
1219.00,0.0054
1218.00,0.0054
1217.00,0.0053
1216.00,0.0052
1215.00,0.0050
1214.00,0.0048
1213.00,0.0047
1212.00,0.0045
1211.00,0.0044
1210.00,0.0044
1209.00,0.0043
1208.00,0.0043
1207.00,0.0042
1206.00,0.0041
1205.00,0.0040
1204.00,0.0039
1203.00,0.0039
1202.00,0.0039
1201.00,0.0039
1200.00,0.0039
1199.00,0.0039
1198.00,0.0039
1197.00,0.0039
1196.00,0.0039
1195.00,0.0039
1194.00,0.0039
1193.00,0.0039
1192.00,0.0039
1191.00,0.0039
1190.00,0.0040
1189.00,0.0040
1188.00,0.0040
1187.00,0.0040
1186.00,0.0040
1185.00,0.0040
1184.00,0.0040
1183.00,0.0041
1182.00,0.0041
1181.00,0.0042
1180.00,0.0044
1179.00,0.0047
1178.00,0.0050
1177.00,0.0055
1176.00,0.0061
1175.00,0.0069
1174.00,0.0081
1173.00,0.0095
1172.00,0.0112
1171.00,0.0130
1170.00,0.0147
1169.00,0.0160
1168.00,0.0169
1167.00,0.0170
1166.00,0.0166
1165.00,0.0158
1164.00,0.0149
1163.00,0.0139
1162.00,0.0130
1161.00,0.0122
1160.00,0.0116
1159.00,0.0111
1158.00,0.0107
1157.00,0.0104
1156.00,0.0102
1155.00,0.0100
1154.00,0.0099
1153.00,0.0097
1152.00,0.0095
1151.00,0.0091
1150.00,0.0087
1149.00,0.0082
1148.00,0.0076
1147.00,0.0072
1146.00,0.0067
1145.00,0.0064
1144.00,0.0060
1143.00,0.0057
1142.00,0.0054
1141.00,0.0051
1140.00,0.0048
1139.00,0.0046
1138.00,0.0044
1137.00,0.0043
1136.00,0.0042
1135.00,0.0041
1134.00,0.0040
1133.00,0.0039
1132.00,0.0037
1131.00,0.0036
1130.00,0.0036
1129.00,0.0037
1128.00,0.0038
1127.00,0.0039
1126.00,0.0040
1125.00,0.0040
1124.00,0.0040
1123.00,0.0040
1122.00,0.0040
1121.00,0.0039
1120.00,0.0039
1119.00,0.0039
1118.00,0.0040
1117.00,0.0041
1116.00,0.0042
1115.00,0.0043
1114.00,0.0043
1113.00,0.0043
1112.00,0.0044
1111.00,0.0046
1110.00,0.0048
1109.00,0.0051
1108.00,0.0054
1107.00,0.0058
1106.00,0.0062
1105.00,0.0065
1104.00,0.0067
1103.00,0.0069
1102.00,0.0069
1101.00,0.0068
1100.00,0.0065
1099.00,0.0062
1098.00,0.0058
1097.00,0.0055
1096.00,0.0052
1095.00,0.0050
1094.00,0.0049
1093.00,0.0048
1092.00,0.0046
1091.00,0.0044
1090.00,0.0042
1089.00,0.0041
1088.00,0.0040
1087.00,0.0039
1086.00,0.0039
1085.00,0.0039
1084.00,0.0039
1083.00,0.0039
1082.00,0.0039
1081.00,0.0038
1080.00,0.0038
1079.00,0.0037
1078.00,0.0037
1077.00,0.0037
1076.00,0.0037
1075.00,0.0038
1074.00,0.0038
1073.00,0.0038
1072.00,0.0037
1071.00,0.0037
1070.00,0.0036
1069.00,0.0037
1068.00,0.0037
1067.00,0.0038
1066.00,0.0038
1065.00,0.0038
1064.00,0.0038
1063.00,0.0038
1062.00,0.0038
1061.00,0.0038
1060.00,0.0038
1059.00,0.0039
1058.00,0.0039
1057.00,0.0039
1056.00,0.0038
1055.00,0.0039
1054.00,0.0039
1053.00,0.0040
1052.00,0.0040
1051.00,0.0041
1050.00,0.0043
1049.00,0.0045
1048.00,0.0047
1047.00,0.0050
1046.00,0.0051
1045.00,0.0052
1044.00,0.0053
1043.00,0.0052
1042.00,0.0051
1041.00,0.0050
1040.00,0.0048
1039.00,0.0048
1038.00,0.0047
1037.00,0.0047
1036.00,0.0047
1035.00,0.0047
1034.00,0.0047
1033.00,0.0046
1032.00,0.0046
1031.00,0.0046
1030.00,0.0045
1029.00,0.0045
1028.00,0.0044
1027.00,0.0044
1026.00,0.0044
1025.00,0.0044
1024.00,0.0045
1023.00,0.0045
1022.00,0.0046
1021.00,0.0046
1020.00,0.0047
1019.00,0.0048
1018.00,0.0049
1017.00,0.0050
1016.00,0.0051
1015.00,0.0052
1014.00,0.0054
1013.00,0.0057
1012.00,0.0059
1011.00,0.0061
1010.00,0.0062
1009.00,0.0065
1008.00,0.0068
1007.00,0.0073
1006.00,0.0079
1005.00,0.0086
1004.00,0.0094
1003.00,0.0106
1002.00,0.0122
1001.00,0.0143
1000.00,0.0164
999.00,0.0181
998.00,0.0190
997.00,0.0186
996.00,0.0172
995.00,0.0151
994.00,0.0128
993.00,0.0108
992.00,0.0093
991.00,0.0082
990.00,0.0075
989.00,0.0070
988.00,0.0066
987.00,0.0064
986.00,0.0064
985.00,0.0064
984.00,0.0066
983.00,0.0070
982.00,0.0075
981.00,0.0084
980.00,0.0096
979.00,0.0113
978.00,0.0133
977.00,0.0156
976.00,0.0181
975.00,0.0206
974.00,0.0225
973.00,0.0233
972.00,0.0226
971.00,0.0206
970.00,0.0178
969.00,0.0149
968.00,0.0124
967.00,0.0104
966.00,0.0090
965.00,0.0079
964.00,0.0071
963.00,0.0065
962.00,0.0061
961.00,0.0058
960.00,0.0055
959.00,0.0053
958.00,0.0050
957.00,0.0049
956.00,0.0048
955.00,0.0047
954.00,0.0047
953.00,0.0046
952.00,0.0045
951.00,0.0044
950.00,0.0044
949.00,0.0044
948.00,0.0044
947.00,0.0045
946.00,0.0046
945.00,0.0047
944.00,0.0049
943.00,0.0051
942.00,0.0052
941.00,0.0054
940.00,0.0054
939.00,0.0053
938.00,0.0050
937.00,0.0047
936.00,0.0044
935.00,0.0042
934.00,0.0041
933.00,0.0039
932.00,0.0038
931.00,0.0038
930.00,0.0037
929.00,0.0037
928.00,0.0037
927.00,0.0037
926.00,0.0037
925.00,0.0037
924.00,0.0038
923.00,0.0038
922.00,0.0039
921.00,0.0040
920.00,0.0041
919.00,0.0041
918.00,0.0041
917.00,0.0041
916.00,0.0040
915.00,0.0040
914.00,0.0040
913.00,0.0041
912.00,0.0042
911.00,0.0044
910.00,0.0046
909.00,0.0047
908.00,0.0048
907.00,0.0049
906.00,0.0052
905.00,0.0058
904.00,0.0067
903.00,0.0077
902.00,0.0087
901.00,0.0096
900.00,0.0103
899.00,0.0104
898.00,0.0101
897.00,0.0093
896.00,0.0082
895.00,0.0072
894.00,0.0064
893.00,0.0058
892.00,0.0053
891.00,0.0050
890.00,0.0047
889.00,0.0045
888.00,0.0044
887.00,0.0044
886.00,0.0044
885.00,0.0043
884.00,0.0043
883.00,0.0043
882.00,0.0043
881.00,0.0044
880.00,0.0044
879.00,0.0045
878.00,0.0046
877.00,0.0046
876.00,0.0044
875.00,0.0043
874.00,0.0042
873.00,0.0043
872.00,0.0044
871.00,0.0045
870.00,0.0046
869.00,0.0046
868.00,0.0045
867.00,0.0045
866.00,0.0046
865.00,0.0047
864.00,0.0048
863.00,0.0048
862.00,0.0048
861.00,0.0048
860.00,0.0049
859.00,0.0050
858.00,0.0052
857.00,0.0054
856.00,0.0056
855.00,0.0057
854.00,0.0058
853.00,0.0059
852.00,0.0059
851.00,0.0060
850.00,0.0062
849.00,0.0064
848.00,0.0069
847.00,0.0078
846.00,0.0093
845.00,0.0114
844.00,0.0141
843.00,0.0169
842.00,0.0189
841.00,0.0193
840.00,0.0180
839.00,0.0156
838.00,0.0130
837.00,0.0110
836.00,0.0095
835.00,0.0086
834.00,0.0080
833.00,0.0076
832.00,0.0073
831.00,0.0072
830.00,0.0071
829.00,0.0071
828.00,0.0071
827.00,0.0070
826.00,0.0069
825.00,0.0067
824.00,0.0066
823.00,0.0066
822.00,0.0065
821.00,0.0064
820.00,0.0064
819.00,0.0065
818.00,0.0066
817.00,0.0069
816.00,0.0073
815.00,0.0078
814.00,0.0086
813.00,0.0096
812.00,0.0106
811.00,0.0116
810.00,0.0122
809.00,0.0125
808.00,0.0123
807.00,0.0117
806.00,0.0108
805.00,0.0098
804.00,0.0088
803.00,0.0081
802.00,0.0077
801.00,0.0074
800.00,0.0070
799.00,0.0065
798.00,0.0061
797.00,0.0058
796.00,0.0056
795.00,0.0054
794.00,0.0052
793.00,0.0051
792.00,0.0050
791.00,0.0050
790.00,0.0051
789.00,0.0051
788.00,0.0050
787.00,0.0049
786.00,0.0047
785.00,0.0045
784.00,0.0043
783.00,0.0041
782.00,0.0039
781.00,0.0039
780.00,0.0039
779.00,0.0039
778.00,0.0038
777.00,0.0038
776.00,0.0039
775.00,0.0040
774.00,0.0042
773.00,0.0044
772.00,0.0045
771.00,0.0047
770.00,0.0048
769.00,0.0048
768.00,0.0048
767.00,0.0048
766.00,0.0047
765.00,0.0047
764.00,0.0045
763.00,0.0042
762.00,0.0040
761.00,0.0038
760.00,0.0037
759.00,0.0036
758.00,0.0036
757.00,0.0035
756.00,0.0034
755.00,0.0034
754.00,0.0033
753.00,0.0033
752.00,0.0034
751.00,0.0035
750.00,0.0036
749.00,0.0037
748.00,0.0037
747.00,0.0036
746.00,0.0036
745.00,0.0036
744.00,0.0037
743.00,0.0037
742.00,0.0037
741.00,0.0038
740.00,0.0038
739.00,0.0037
738.00,0.0037
737.00,0.0036
736.00,0.0037
735.00,0.0037
734.00,0.0036
733.00,0.0036
732.00,0.0037
731.00,0.0038
730.00,0.0039
729.00,0.0038
728.00,0.0037
727.00,0.0036
726.00,0.0035
725.00,0.0036
724.00,0.0038
723.00,0.0038
722.00,0.0037
721.00,0.0036
720.00,0.0034
719.00,0.0034
718.00,0.0035
717.00,0.0035
716.00,0.0035
715.00,0.0034
714.00,0.0033
713.00,0.0033
712.00,0.0033
711.00,0.0034
710.00,0.0035
709.00,0.0036
708.00,0.0037
707.00,0.0037
706.00,0.0037
705.00,0.0036
704.00,0.0035
703.00,0.0034
702.00,0.0034
701.00,0.0034
700.00,0.0033
699.00,0.0032
698.00,0.0030
697.00,0.0029
696.00,0.0030
695.00,0.0031
694.00,0.0032
693.00,0.0033
692.00,0.0034
691.00,0.0035
690.00,0.0035
689.00,0.0033
688.00,0.0032
687.00,0.0032
686.00,0.0033
685.00,0.0033
684.00,0.0033
683.00,0.0034
682.00,0.0035
681.00,0.0035
680.00,0.0033
679.00,0.0032
678.00,0.0031
677.00,0.0031
676.00,0.0030
675.00,0.0029
674.00,0.0029
673.00,0.0030
672.00,0.0031
671.00,0.0034
670.00,0.0036
669.00,0.0036
668.00,0.0035
667.00,0.0032
666.00,0.0031
665.00,0.0030
664.00,0.0031
663.00,0.0031
662.00,0.0030
661.00,0.0030
660.00,0.0030
659.00,0.0030
658.00,0.0030
657.00,0.0030
656.00,0.0030
655.00,0.0030
654.00,0.0031
653.00,0.0032
652.00,0.0034
651.00,0.0035
650.00,0.0036
649.00,0.0036
648.00,0.0037
647.00,0.0036
646.00,0.0035
645.00,0.0034
644.00,0.0033
643.00,0.0032
642.00,0.0032
641.00,0.0032
640.00,0.0031
639.00,0.0031
638.00,0.0032
637.00,0.0033
636.00,0.0034
635.00,0.0034
634.00,0.0033
633.00,0.0034
632.00,0.0036
631.00,0.0039
630.00,0.0041
629.00,0.0042
628.00,0.0041
627.00,0.0039
626.00,0.0038
625.00,0.0037
624.00,0.0039
623.00,0.0041
622.00,0.0042
621.00,0.0041
620.00,0.0040
619.00,0.0039
618.00,0.0039
617.00,0.0039
616.00,0.0037
615.00,0.0036
614.00,0.0035
613.00,0.0035
612.00,0.0034
611.00,0.0032
610.00,0.0032
609.00,0.0032
608.00,0.0033
607.00,0.0033
606.00,0.0034
605.00,0.0034
604.00,0.0035
603.00,0.0035
602.00,0.0036
601.00,0.0036
600.00,0.0036
599.00,0.0037
598.00,0.0038
597.00,0.0039
596.00,0.0039
595.00,0.0038
594.00,0.0036
593.00,0.0033
592.00,0.0030
591.00,0.0028
590.00,0.0027
589.00,0.0027
588.00,0.0029
587.00,0.0032
586.00,0.0035
585.00,0.0038
584.00,0.0039
583.00,0.0038
582.00,0.0039
581.00,0.0042
580.00,0.0044
579.00,0.0046
578.00,0.0044
577.00,0.0042
576.00,0.0038
575.00,0.0035
574.00,0.0034
573.00,0.0035
572.00,0.0039
571.00,0.0042
570.00,0.0045
569.00,0.0045
568.00,0.0044
567.00,0.0042
566.00,0.0042
565.00,0.0043
564.00,0.0042
563.00,0.0041
562.00,0.0038
561.00,0.0037
560.00,0.0036
559.00,0.0036
558.00,0.0036
557.00,0.0036
556.00,0.0037
555.00,0.0038
554.00,0.0040
553.00,0.0041
552.00,0.0039
551.00,0.0038
550.00,0.0038
549.00,0.0042
548.00,0.0047
547.00,0.0048
546.00,0.0045
545.00,0.0040
544.00,0.0036
543.00,0.0034
542.00,0.0035
541.00,0.0036
540.00,0.0038
539.00,0.0041
538.00,0.0044
537.00,0.0046
536.00,0.0048
535.00,0.0052
534.00,0.0057
533.00,0.0061
532.00,0.0061
531.00,0.0057
530.00,0.0052
529.00,0.0049
528.00,0.0048
527.00,0.0049
526.00,0.0050
525.00,0.0049
524.00,0.0047
523.00,0.0045
522.00,0.0045
521.00,0.0049
520.00,0.0057
519.00,0.0064
518.00,0.0068
517.00,0.0064
516.00,0.0054
515.00,0.0042
514.00,0.0034
513.00,0.0029
512.00,0.0028
511.00,0.0030
510.00,0.0035
509.00,0.0040
508.00,0.0043
507.00,0.0043
506.00,0.0044
505.00,0.0047
504.00,0.0049
503.00,0.0047
502.00,0.0043
501.00,0.0040
500.00,0.0039
499.00,0.0037
498.00,0.0035
497.00,0.0033
496.00,0.0032
495.00,0.0031
494.00,0.0031
493.00,0.0033
492.00,0.0039
491.00,0.0045
490.00,0.0052
489.00,0.0058
488.00,0.0062
487.00,0.0065
486.00,0.0066
485.00,0.0065
484.00,0.0059
483.00,0.0050
482.00,0.0042
481.00,0.0039
480.00,0.0039
479.00,0.0041
478.00,0.0046
477.00,0.0052
476.00,0.0058
475.00,0.0061
474.00,0.0062
473.00,0.0066
472.00,0.0073
471.00,0.0076
470.00,0.0074
469.00,0.0070
468.00,0.0070
467.00,0.0073
466.00,0.0076
465.00,0.0078
464.00,0.0084
463.00,0.0096
462.00,0.0109
461.00,0.0117
460.00,0.0118
459.00,0.0117
458.00,0.0116
457.00,0.0112
456.00,0.0101
455.00,0.0086
454.00,0.0072
453.00,0.0062
452.00,0.0057
451.00,0.0053
450.00,0.0052
