Created as New Dataset,Sample 078 By Administrator Date Friday, September 05 2025
cm-1,A
4000.00,0.0007
3999.00,0.0008
3998.00,0.0008
3997.00,0.0008
3996.00,0.0008
3995.00,0.0008
3994.00,0.0008
3993.00,0.0008
3992.00,0.0008
3991.00,0.0008
3990.00,0.0008
3989.00,0.0008
3988.00,0.0008
3987.00,0.0008
3986.00,0.0008
3985.00,0.0008
3984.00,0.0008
3983.00,0.0008
3982.00,0.0008
3981.00,0.0007
3980.00,0.0007
3979.00,0.0007
3978.00,0.0007
3977.00,0.0007
3976.00,0.0007
3975.00,0.0007
3974.00,0.0007
3973.00,0.0008
3972.00,0.0008
3971.00,0.0008
3970.00,0.0008
3969.00,0.0008
3968.00,0.0008
3967.00,0.0008
3966.00,0.0008
3965.00,0.0007
3964.00,0.0007
3963.00,0.0007
3962.00,0.0006
3961.00,0.0007
3960.00,0.0007
3959.00,0.0007
3958.00,0.0007
3957.00,0.0007
3956.00,0.0007
3955.00,0.0007
3954.00,0.0007
3953.00,0.0006
3952.00,0.0006
3951.00,0.0006
3950.00,0.0007
3949.00,0.0007
3948.00,0.0007
3947.00,0.0007
3946.00,0.0007
3945.00,0.0007
3944.00,0.0007
3943.00,0.0007
3942.00,0.0007
3941.00,0.0007
3940.00,0.0007
3939.00,0.0007
3938.00,0.0007
3937.00,0.0007
3936.00,0.0008
3935.00,0.0008
3934.00,0.0008
3933.00,0.0007
3932.00,0.0007
3931.00,0.0007
3930.00,0.0007
3929.00,0.0007
3928.00,0.0007
3927.00,0.0008
3926.00,0.0008
3925.00,0.0007
3924.00,0.0007
3923.00,0.0007
3922.00,0.0007
3921.00,0.0007
3920.00,0.0007
3919.00,0.0007
3918.00,0.0007
3917.00,0.0008
3916.00,0.0008
3915.00,0.0007
3914.00,0.0007
3913.00,0.0007
3912.00,0.0006
3911.00,0.0006
3910.00,0.0006
3909.00,0.0007
3908.00,0.0007
3907.00,0.0007
3906.00,0.0007
3905.00,0.0007
3904.00,0.0007
3903.00,0.0007
3902.00,0.0007
3901.00,0.0007
3900.00,0.0007
3899.00,0.0007
3898.00,0.0007
3897.00,0.0007
3896.00,0.0007
3895.00,0.0007
3894.00,0.0007
3893.00,0.0007
3892.00,0.0007
3891.00,0.0007
3890.00,0.0008
3889.00,0.0008
3888.00,0.0008
3887.00,0.0008
3886.00,0.0007
3885.00,0.0007
3884.00,0.0007
3883.00,0.0008
3882.00,0.0008
3881.00,0.0008
3880.00,0.0008
3879.00,0.0008
3878.00,0.0008
3877.00,0.0007
3876.00,0.0007
3875.00,0.0007
3874.00,0.0007
3873.00,0.0007
3872.00,0.0007
3871.00,0.0007
3870.00,0.0007
3869.00,0.0007
3868.00,0.0007
3867.00,0.0007
3866.00,0.0007
3865.00,0.0007
3864.00,0.0006
3863.00,0.0006
3862.00,0.0006
3861.00,0.0007
3860.00,0.0007
3859.00,0.0007
3858.00,0.0007
3857.00,0.0007
3856.00,0.0007
3855.00,0.0007
3854.00,0.0007
3853.00,0.0007
3852.00,0.0007
3851.00,0.0007
3850.00,0.0007
3849.00,0.0006
3848.00,0.0006
3847.00,0.0006
3846.00,0.0006
3845.00,0.0006
3844.00,0.0006
3843.00,0.0005
3842.00,0.0005
3841.00,0.0005
3840.00,0.0006
3839.00,0.0006
3838.00,0.0007
3837.00,0.0007
3836.00,0.0007
3835.00,0.0006
3834.00,0.0006
3833.00,0.0006
3832.00,0.0006
3831.00,0.0006
3830.00,0.0006
3829.00,0.0006
3828.00,0.0006
3827.00,0.0006
3826.00,0.0006
3825.00,0.0006
3824.00,0.0006
3823.00,0.0007
3822.00,0.0007
3821.00,0.0007
3820.00,0.0007
3819.00,0.0007
3818.00,0.0007
3817.00,0.0007
3816.00,0.0007
3815.00,0.0007
3814.00,0.0007
3813.00,0.0007
3812.00,0.0007
3811.00,0.0007
3810.00,0.0007
3809.00,0.0007
3808.00,0.0007
3807.00,0.0006
3806.00,0.0006
3805.00,0.0006
3804.00,0.0006
3803.00,0.0007
3802.00,0.0007
3801.00,0.0007
3800.00,0.0007
3799.00,0.0007
3798.00,0.0006
3797.00,0.0006
3796.00,0.0006
3795.00,0.0006
3794.00,0.0006
3793.00,0.0006
3792.00,0.0006
3791.00,0.0007
3790.00,0.0007
3789.00,0.0007
3788.00,0.0007
3787.00,0.0007
3786.00,0.0007
3785.00,0.0006
3784.00,0.0006
3783.00,0.0007
3782.00,0.0007
3781.00,0.0007
3780.00,0.0007
3779.00,0.0008
3778.00,0.0008
3777.00,0.0008
3776.00,0.0007
3775.00,0.0007
3774.00,0.0007
3773.00,0.0007
3772.00,0.0007
3771.00,0.0007
3770.00,0.0007
3769.00,0.0007
3768.00,0.0007
3767.00,0.0007
3766.00,0.0008
3765.00,0.0008
3764.00,0.0008
3763.00,0.0008
3762.00,0.0008
3761.00,0.0007
3760.00,0.0007
3759.00,0.0007
3758.00,0.0007
3757.00,0.0007
3756.00,0.0007
3755.00,0.0007
3754.00,0.0007
3753.00,0.0007
3752.00,0.0007
3751.00,0.0007
3750.00,0.0007
3749.00,0.0007
3748.00,0.0007
3747.00,0.0008
3746.00,0.0008
3745.00,0.0008
3744.00,0.0008
3743.00,0.0007
3742.00,0.0006
3741.00,0.0006
3740.00,0.0005
3739.00,0.0005
3738.00,0.0005
3737.00,0.0004
3736.00,0.0005
3735.00,0.0005
3734.00,0.0006
3733.00,0.0006
3732.00,0.0006
3731.00,0.0006
3730.00,0.0006
3729.00,0.0006
3728.00,0.0005
3727.00,0.0005
3726.00,0.0005
3725.00,0.0005
3724.00,0.0006
3723.00,0.0006
3722.00,0.0006
3721.00,0.0006
3720.00,0.0006
3719.00,0.0006
3718.00,0.0006
3717.00,0.0006
3716.00,0.0006
3715.00,0.0006
3714.00,0.0006
3713.00,0.0005
3712.00,0.0005
3711.00,0.0005
3710.00,0.0005
3709.00,0.0005
3708.00,0.0005
3707.00,0.0005
3706.00,0.0005
3705.00,0.0004
3704.00,0.0004
3703.00,0.0004
3702.00,0.0004
3701.00,0.0004
3700.00,0.0004
3699.00,0.0004
3698.00,0.0004
3697.00,0.0004
3696.00,0.0004
3695.00,0.0004
3694.00,0.0005
3693.00,0.0005
3692.00,0.0005
3691.00,0.0005
3690.00,0.0005
3689.00,0.0004
3688.00,0.0004
3687.00,0.0004
3686.00,0.0004
3685.00,0.0004
3684.00,0.0004
3683.00,0.0004
3682.00,0.0004
3681.00,0.0004
3680.00,0.0004
3679.00,0.0004
3678.00,0.0004
3677.00,0.0005
3676.00,0.0005
3675.00,0.0005
3674.00,0.0005
3673.00,0.0005
3672.00,0.0006
3671.00,0.0006
3670.00,0.0006
3669.00,0.0006
3668.00,0.0005
3667.00,0.0004
3666.00,0.0004
3665.00,0.0003
3664.00,0.0002
3663.00,0.0001
3662.00,0.0001
3661.00,0.0001
3660.00,0.0001
3659.00,0.0002
3658.00,0.0002
3657.00,0.0002
3656.00,0.0002
3655.00,0.0002
3654.00,0.0002
3653.00,0.0002
3652.00,0.0002
3651.00,0.0002
3650.00,0.0002
3649.00,0.0002
3648.00,0.0002
3647.00,0.0003
3646.00,0.0003
3645.00,0.0003
3644.00,0.0003
3643.00,0.0003
3642.00,0.0003
3641.00,0.0003
3640.00,0.0003
3639.00,0.0003
3638.00,0.0002
3637.00,0.0002
3636.00,0.0002
3635.00,0.0002
3634.00,0.0002
3633.00,0.0003
3632.00,0.0003
3631.00,0.0004
3630.00,0.0004
3629.00,0.0004
3628.00,0.0003
3627.00,0.0003
3626.00,0.0003
3625.00,0.0003
3624.00,0.0003
3623.00,0.0003
3622.00,0.0003
3621.00,0.0003
3620.00,0.0003
3619.00,0.0002
3618.00,0.0002
3617.00,0.0002
3616.00,0.0002
3615.00,0.0002
3614.00,0.0003
3613.00,0.0003
3612.00,0.0003
3611.00,0.0004
3610.00,0.0004
3609.00,0.0004
3608.00,0.0003
3607.00,0.0003
3606.00,0.0003
3605.00,0.0003
3604.00,0.0003
3603.00,0.0003
3602.00,0.0003
3601.00,0.0003
3600.00,0.0003
3599.00,0.0003
3598.00,0.0003
3597.00,0.0003
3596.00,0.0003
3595.00,0.0003
3594.00,0.0003
3593.00,0.0003
3592.00,0.0003
3591.00,0.0003
3590.00,0.0003
3589.00,0.0003
3588.00,0.0003
3587.00,0.0003
3586.00,0.0003
3585.00,0.0003
3584.00,0.0003
3583.00,0.0004
3582.00,0.0004
3581.00,0.0004
3580.00,0.0004
3579.00,0.0004
3578.00,0.0004
3577.00,0.0004
3576.00,0.0004
3575.00,0.0003
3574.00,0.0003
3573.00,0.0004
3572.00,0.0004
3571.00,0.0004
3570.00,0.0004
3569.00,0.0004
3568.00,0.0004
3567.00,0.0005
3566.00,0.0005
3565.00,0.0005
3564.00,0.0006
3563.00,0.0005
3562.00,0.0005
3561.00,0.0005
3560.00,0.0005
3559.00,0.0005
3558.00,0.0005
3557.00,0.0005
3556.00,0.0005
3555.00,0.0005
3554.00,0.0005
3553.00,0.0005
3552.00,0.0006
3551.00,0.0006
3550.00,0.0006
3549.00,0.0006
3548.00,0.0006
3547.00,0.0007
3546.00,0.0007
3545.00,0.0007
3544.00,0.0007
3543.00,0.0007
3542.00,0.0007
3541.00,0.0007
3540.00,0.0008
3539.00,0.0008
3538.00,0.0008
3537.00,0.0008
3536.00,0.0008
3535.00,0.0007
3534.00,0.0007
3533.00,0.0007
3532.00,0.0006
3531.00,0.0007
3530.00,0.0007
3529.00,0.0007
3528.00,0.0007
3527.00,0.0008
3526.00,0.0008
3525.00,0.0008
3524.00,0.0008
3523.00,0.0008
3522.00,0.0008
3521.00,0.0009
3520.00,0.0009
3519.00,0.0009
3518.00,0.0009
3517.00,0.0009
3516.00,0.0009
3515.00,0.0009
3514.00,0.0009
3513.00,0.0009
3512.00,0.0010
3511.00,0.0010
3510.00,0.0010
3509.00,0.0010
3508.00,0.0010
3507.00,0.0010
3506.00,0.0010
3505.00,0.0010
3504.00,0.0010
3503.00,0.0010
3502.00,0.0011
3501.00,0.0010
3500.00,0.0010
3499.00,0.0010
3498.00,0.0010
3497.00,0.0010
3496.00,0.0011
3495.00,0.0011
3494.00,0.0011
3493.00,0.0011
3492.00,0.0011
3491.00,0.0011
3490.00,0.0011
3489.00,0.0010
3488.00,0.0010
3487.00,0.0010
3486.00,0.0010
3485.00,0.0010
3484.00,0.0010
3483.00,0.0010
3482.00,0.0011
3481.00,0.0011
3480.00,0.0011
3479.00,0.0011
3478.00,0.0011
3477.00,0.0011
3476.00,0.0011
3475.00,0.0011
3474.00,0.0011
3473.00,0.0011
3472.00,0.0011
3471.00,0.0012
3470.00,0.0012
3469.00,0.0012
3468.00,0.0012
3467.00,0.0012
3466.00,0.0012
3465.00,0.0012
3464.00,0.0013
3463.00,0.0013
3462.00,0.0014
3461.00,0.0014
3460.00,0.0014
3459.00,0.0014
3458.00,0.0014
3457.00,0.0014
3456.00,0.0014
3455.00,0.0014
3454.00,0.0014
3453.00,0.0014
3452.00,0.0014
3451.00,0.0014
3450.00,0.0014
3449.00,0.0014
3448.00,0.0014
3447.00,0.0014
3446.00,0.0014
3445.00,0.0014
3444.00,0.0015
3443.00,0.0015
3442.00,0.0015
3441.00,0.0015
3440.00,0.0015
3439.00,0.0015
3438.00,0.0015
3437.00,0.0015
3436.00,0.0015
3435.00,0.0015
3434.00,0.0015
3433.00,0.0015
3432.00,0.0015
3431.00,0.0015
3430.00,0.0015
3429.00,0.0015
3428.00,0.0015
3427.00,0.0015
3426.00,0.0015
3425.00,0.0016
3424.00,0.0016
3423.00,0.0016
3422.00,0.0017
3421.00,0.0017
3420.00,0.0016
3419.00,0.0016
3418.00,0.0016
3417.00,0.0016
3416.00,0.0017
3415.00,0.0017
3414.00,0.0017
3413.00,0.0017
3412.00,0.0017
3411.00,0.0017
3410.00,0.0017
3409.00,0.0017
3408.00,0.0017
3407.00,0.0017
3406.00,0.0017
3405.00,0.0016
3404.00,0.0016
3403.00,0.0016
3402.00,0.0016
3401.00,0.0016
3400.00,0.0016
3399.00,0.0016
3398.00,0.0016
3397.00,0.0017
3396.00,0.0017
3395.00,0.0017
3394.00,0.0017
3393.00,0.0017
3392.00,0.0017
3391.00,0.0017
3390.00,0.0017
3389.00,0.0017
3388.00,0.0017
3387.00,0.0018
3386.00,0.0018
3385.00,0.0017
3384.00,0.0017
3383.00,0.0017
3382.00,0.0017
3381.00,0.0017
3380.00,0.0017
3379.00,0.0017
3378.00,0.0018
3377.00,0.0018
3376.00,0.0018
3375.00,0.0018
3374.00,0.0019
3373.00,0.0018
3372.00,0.0018
3371.00,0.0018
3370.00,0.0018
3369.00,0.0018
3368.00,0.0018
3367.00,0.0018
3366.00,0.0019
3365.00,0.0019
3364.00,0.0019
3363.00,0.0018
3362.00,0.0019
3361.00,0.0019
3360.00,0.0019
3359.00,0.0019
3358.00,0.0019
3357.00,0.0019
3356.00,0.0019
3355.00,0.0019
3354.00,0.0020
3353.00,0.0020
3352.00,0.0020
3351.00,0.0020
3350.00,0.0020
3349.00,0.0020
3348.00,0.0020
3347.00,0.0020
3346.00,0.0020
3345.00,0.0019
3344.00,0.0019
3343.00,0.0019
3342.00,0.0020
3341.00,0.0019
3340.00,0.0019
3339.00,0.0019
3338.00,0.0019
3337.00,0.0019
3336.00,0.0019
3335.00,0.0019
3334.00,0.0018
3333.00,0.0018
3332.00,0.0018
3331.00,0.0018
3330.00,0.0018
3329.00,0.0018
3328.00,0.0018
3327.00,0.0018
3326.00,0.0018
3325.00,0.0018
3324.00,0.0017
3323.00,0.0017
3322.00,0.0017
3321.00,0.0017
3320.00,0.0017
3319.00,0.0018
3318.00,0.0018
3317.00,0.0018
3316.00,0.0018
3315.00,0.0018
3314.00,0.0018
3313.00,0.0018
3312.00,0.0018
3311.00,0.0018
3310.00,0.0018
3309.00,0.0018
3308.00,0.0018
3307.00,0.0018
3306.00,0.0018
3305.00,0.0018
3304.00,0.0018
3303.00,0.0018
3302.00,0.0018
3301.00,0.0018
3300.00,0.0018
3299.00,0.0018
3298.00,0.0018
3297.00,0.0018
3296.00,0.0018
3295.00,0.0018
3294.00,0.0018
3293.00,0.0018
3292.00,0.0018
3291.00,0.0018
3290.00,0.0018
3289.00,0.0018
3288.00,0.0018
3287.00,0.0018
3286.00,0.0018
3285.00,0.0018
3284.00,0.0018
3283.00,0.0018
3282.00,0.0018
3281.00,0.0018
3280.00,0.0018
3279.00,0.0018
3278.00,0.0018
3277.00,0.0018
3276.00,0.0018
3275.00,0.0017
3274.00,0.0017
3273.00,0.0017
3272.00,0.0018
3271.00,0.0018
3270.00,0.0018
3269.00,0.0018
3268.00,0.0018
3267.00,0.0018
3266.00,0.0018
3265.00,0.0018
3264.00,0.0017
3263.00,0.0017
3262.00,0.0017
3261.00,0.0017
3260.00,0.0017
3259.00,0.0017
3258.00,0.0017
3257.00,0.0017
3256.00,0.0018
3255.00,0.0018
3254.00,0.0018
3253.00,0.0018
3252.00,0.0017
3251.00,0.0017
3250.00,0.0017
3249.00,0.0017
3248.00,0.0017
3247.00,0.0016
3246.00,0.0016
3245.00,0.0015
3244.00,0.0015
3243.00,0.0015
3242.00,0.0016
3241.00,0.0016
3240.00,0.0017
3239.00,0.0017
3238.00,0.0017
3237.00,0.0018
3236.00,0.0018
3235.00,0.0018
3234.00,0.0018
3233.00,0.0019
3232.00,0.0019
3231.00,0.0019
3230.00,0.0019
3229.00,0.0019
3228.00,0.0019
3227.00,0.0019
3226.00,0.0020
3225.00,0.0020
3224.00,0.0020
3223.00,0.0020
3222.00,0.0020
3221.00,0.0021
3220.00,0.0021
3219.00,0.0021
3218.00,0.0021
3217.00,0.0022
3216.00,0.0022
3215.00,0.0022
3214.00,0.0023
3213.00,0.0023
3212.00,0.0023
3211.00,0.0023
3210.00,0.0024
3209.00,0.0024
3208.00,0.0024
3207.00,0.0024
3206.00,0.0024
3205.00,0.0024
3204.00,0.0024
3203.00,0.0025
3202.00,0.0025
3201.00,0.0025
3200.00,0.0025
3199.00,0.0025
3198.00,0.0025
3197.00,0.0025
3196.00,0.0025
3195.00,0.0025
3194.00,0.0024
3193.00,0.0024
3192.00,0.0024
3191.00,0.0025
3190.00,0.0025
3189.00,0.0025
3188.00,0.0024
3187.00,0.0024
3186.00,0.0024
3185.00,0.0024
3184.00,0.0024
3183.00,0.0024
3182.00,0.0024
3181.00,0.0024
3180.00,0.0023
3179.00,0.0023
3178.00,0.0023
3177.00,0.0023
3176.00,0.0023
3175.00,0.0023
3174.00,0.0022
3173.00,0.0022
3172.00,0.0022
3171.00,0.0022
3170.00,0.0023
3169.00,0.0023
3168.00,0.0023
3167.00,0.0023
3166.00,0.0023
3165.00,0.0023
3164.00,0.0023
3163.00,0.0023
3162.00,0.0023
3161.00,0.0023
3160.00,0.0023
3159.00,0.0022
3158.00,0.0023
3157.00,0.0023
3156.00,0.0024
3155.00,0.0024
3154.00,0.0024
3153.00,0.0024
3152.00,0.0024
3151.00,0.0024
3150.00,0.0024
3149.00,0.0024
3148.00,0.0024
3147.00,0.0023
3146.00,0.0023
3145.00,0.0023
3144.00,0.0023
3143.00,0.0023
3142.00,0.0023
3141.00,0.0023
3140.00,0.0023
3139.00,0.0023
3138.00,0.0023
3137.00,0.0022
3136.00,0.0022
3135.00,0.0022
3134.00,0.0022
3133.00,0.0022
3132.00,0.0022
3131.00,0.0022
3130.00,0.0023
3129.00,0.0023
3128.00,0.0022
3127.00,0.0022
3126.00,0.0022
3125.00,0.0021
3124.00,0.0021
3123.00,0.0021
3122.00,0.0020
3121.00,0.0020
3120.00,0.0020
3119.00,0.0020
3118.00,0.0019
3117.00,0.0019
3116.00,0.0019
3115.00,0.0019
3114.00,0.0019
3113.00,0.0019
3112.00,0.0019
3111.00,0.0020
3110.00,0.0020
3109.00,0.0020
3108.00,0.0020
3107.00,0.0019
3106.00,0.0019
3105.00,0.0019
3104.00,0.0019
3103.00,0.0019
3102.00,0.0019
3101.00,0.0019
3100.00,0.0019
3099.00,0.0019
3098.00,0.0019
3097.00,0.0019
3096.00,0.0019
3095.00,0.0018
3094.00,0.0018
3093.00,0.0018
3092.00,0.0018
3091.00,0.0018
3090.00,0.0019
3089.00,0.0019
3088.00,0.0019
3087.00,0.0019
3086.00,0.0019
3085.00,0.0019
3084.00,0.0019
3083.00,0.0019
3082.00,0.0018
3081.00,0.0018
3080.00,0.0018
3079.00,0.0018
3078.00,0.0019
3077.00,0.0019
3076.00,0.0019
3075.00,0.0019
3074.00,0.0019
3073.00,0.0019
3072.00,0.0019
3071.00,0.0019
3070.00,0.0020
3069.00,0.0020
3068.00,0.0020
3067.00,0.0021
3066.00,0.0021
3065.00,0.0021
3064.00,0.0021
3063.00,0.0022
3062.00,0.0022
3061.00,0.0022
3060.00,0.0022
3059.00,0.0022
3058.00,0.0022
3057.00,0.0022
3056.00,0.0022
3055.00,0.0022
3054.00,0.0022
3053.00,0.0022
3052.00,0.0023
3051.00,0.0023
3050.00,0.0023
3049.00,0.0024
3048.00,0.0024
3047.00,0.0024
3046.00,0.0024
3045.00,0.0024
3044.00,0.0025
3043.00,0.0025
3042.00,0.0025
3041.00,0.0026
3040.00,0.0026
3039.00,0.0026
3038.00,0.0027
3037.00,0.0027
3036.00,0.0027
3035.00,0.0028
3034.00,0.0028
3033.00,0.0028
3032.00,0.0029
3031.00,0.0029
3030.00,0.0030
3029.00,0.0031
3028.00,0.0031
3027.00,0.0032
3026.00,0.0033
3025.00,0.0033
3024.00,0.0034
3023.00,0.0035
3022.00,0.0035
3021.00,0.0036
3020.00,0.0036
3019.00,0.0037
3018.00,0.0038
3017.00,0.0039
3016.00,0.0040
3015.00,0.0041
3014.00,0.0042
3013.00,0.0043
3012.00,0.0044
3011.00,0.0046
3010.00,0.0047
3009.00,0.0049
3008.00,0.0050
3007.00,0.0052
3006.00,0.0053
3005.00,0.0055
3004.00,0.0057
3003.00,0.0059
3002.00,0.0061
3001.00,0.0064
3000.00,0.0066
2999.00,0.0069
2998.00,0.0073
2997.00,0.0077
2996.00,0.0081
2995.00,0.0085
2994.00,0.0090
2993.00,0.0095
2992.00,0.0101
2991.00,0.0107
2990.00,0.0114
2989.00,0.0122
2988.00,0.0131
2987.00,0.0141
2986.00,0.0152
2985.00,0.0164
2984.00,0.0177
2983.00,0.0191
2982.00,0.0209
2981.00,0.0229
2980.00,0.0252
2979.00,0.0277
2978.00,0.0307
2977.00,0.0340
2976.00,0.0377
2975.00,0.0420
2974.00,0.0469
2973.00,0.0525
2972.00,0.0588
2971.00,0.0660
2970.00,0.0741
2969.00,0.0831
2968.00,0.0930
2967.00,0.1037
2966.00,0.1153
2965.00,0.1275
2964.00,0.1401
2963.00,0.1524
2962.00,0.1640
2961.00,0.1743
2960.00,0.1827
2959.00,0.1891
2958.00,0.1936
2957.00,0.1966
2956.00,0.1988
2955.00,0.2008
2954.00,0.2031
2953.00,0.2056
2952.00,0.2077
2951.00,0.2085
2950.00,0.2072
2949.00,0.2029
2948.00,0.1953
2947.00,0.1844
2946.00,0.1713
2945.00,0.1571
2944.00,0.1433
2943.00,0.1309
2942.00,0.1209
2941.00,0.1134
2940.00,0.1085
2939.00,0.1061
2938.00,0.1058
2937.00,0.1076
2936.00,0.1110
2935.00,0.1159
2934.00,0.1221
2933.00,0.1296
2932.00,0.1381
2931.00,0.1473
2930.00,0.1569
2929.00,0.1667
2928.00,0.1763
2927.00,0.1854
2926.00,0.1939
2925.00,0.2019
2924.00,0.2095
2923.00,0.2168
2922.00,0.2239
2921.00,0.2306
2920.00,0.2366
2919.00,0.2413
2918.00,0.2440
2917.00,0.2442
2916.00,0.2419
2915.00,0.2373
2914.00,0.2311
2913.00,0.2241
2912.00,0.2169
2911.00,0.2102
2910.00,0.2040
2909.00,0.1983
2908.00,0.1929
2907.00,0.1875
2906.00,0.1818
2905.00,0.1757
2904.00,0.1692
2903.00,0.1623
2902.00,0.1552
2901.00,0.1480
2900.00,0.1410
2899.00,0.1344
2898.00,0.1281
2897.00,0.1225
2896.00,0.1175
2895.00,0.1132
2894.00,0.1097
2893.00,0.1070
2892.00,0.1050
2891.00,0.1036
2890.00,0.1029
2889.00,0.1027
2888.00,0.1029
2887.00,0.1034
2886.00,0.1044
2885.00,0.1057
2884.00,0.1074
2883.00,0.1094
2882.00,0.1118
2881.00,0.1143
2880.00,0.1167
2879.00,0.1186
2878.00,0.1197
2877.00,0.1200
2876.00,0.1194
2875.00,0.1184
2874.00,0.1175
2873.00,0.1171
2872.00,0.1175
2871.00,0.1187
2870.00,0.1204
2869.00,0.1221
2868.00,0.1231
2867.00,0.1225
2866.00,0.1198
2865.00,0.1145
2864.00,0.1069
2863.00,0.0980
2862.00,0.0886
2861.00,0.0798
2860.00,0.0721
2859.00,0.0659
2858.00,0.0612
2857.00,0.0577
2856.00,0.0555
2855.00,0.0541
2854.00,0.0536
2853.00,0.0539
2852.00,0.0549
2851.00,0.0567
2850.00,0.0592
2849.00,0.0626
2848.00,0.0668
2847.00,0.0720
2846.00,0.0781
2845.00,0.0852
2844.00,0.0932
2843.00,0.1017
2842.00,0.1104
2841.00,0.1186
2840.00,0.1255
2839.00,0.1301
2838.00,0.1313
2837.00,0.1288
2836.00,0.1224
2835.00,0.1129
2834.00,0.1014
2833.00,0.0893
2832.00,0.0779
2831.00,0.0677
2830.00,0.0591
2829.00,0.0520
2828.00,0.0463
2827.00,0.0416
2826.00,0.0379
2825.00,0.0348
2824.00,0.0322
2823.00,0.0300
2822.00,0.0282
2821.00,0.0266
2820.00,0.0252
2819.00,0.0240
2818.00,0.0230
2817.00,0.0220
2816.00,0.0212
2815.00,0.0205
2814.00,0.0199
2813.00,0.0193
2812.00,0.0188
2811.00,0.0182
2810.00,0.0177
2809.00,0.0172
2808.00,0.0166
2807.00,0.0160
2806.00,0.0154
2805.00,0.0147
2804.00,0.0141
2803.00,0.0134
2802.00,0.0129
2801.00,0.0124
2800.00,0.0120
2799.00,0.0117
2798.00,0.0114
2797.00,0.0112
2796.00,0.0109
2795.00,0.0107
2794.00,0.0105
2793.00,0.0102
2792.00,0.0098
2791.00,0.0095
2790.00,0.0091
2789.00,0.0087
2788.00,0.0084
2787.00,0.0080
2786.00,0.0077
2785.00,0.0074
2784.00,0.0072
2783.00,0.0069
2782.00,0.0067
2781.00,0.0065
2780.00,0.0063
2779.00,0.0062
2778.00,0.0060
2777.00,0.0059
2776.00,0.0057
2775.00,0.0056
2774.00,0.0055
2773.00,0.0055
2772.00,0.0054
2771.00,0.0053
2770.00,0.0053
2769.00,0.0052
2768.00,0.0052
2767.00,0.0052
2766.00,0.0052
2765.00,0.0052
2764.00,0.0052
2763.00,0.0051
2762.00,0.0051
2761.00,0.0051
2760.00,0.0050
2759.00,0.0050
2758.00,0.0049
2757.00,0.0049
2756.00,0.0049
2755.00,0.0048
2754.00,0.0049
2753.00,0.0049
2752.00,0.0049
2751.00,0.0048
2750.00,0.0048
2749.00,0.0048
2748.00,0.0048
2747.00,0.0049
2746.00,0.0050
2745.00,0.0050
2744.00,0.0051
2743.00,0.0052
2742.00,0.0053
2741.00,0.0054
2740.00,0.0056
2739.00,0.0057
2738.00,0.0059
2737.00,0.0060
2736.00,0.0062
2735.00,0.0063
2734.00,0.0065
2733.00,0.0066
2732.00,0.0068
2731.00,0.0069
2730.00,0.0071
2729.00,0.0074
2728.00,0.0077
2727.00,0.0080
2726.00,0.0083
2725.00,0.0086
2724.00,0.0088
2723.00,0.0088
2722.00,0.0087
2721.00,0.0084
2720.00,0.0081
2719.00,0.0078
2718.00,0.0074
2717.00,0.0071
2716.00,0.0068
2715.00,0.0066
2714.00,0.0063
2713.00,0.0061
2712.00,0.0059
2711.00,0.0057
2710.00,0.0055
2709.00,0.0053
2708.00,0.0052
2707.00,0.0051
2706.00,0.0050
2705.00,0.0049
2704.00,0.0048
2703.00,0.0047
2702.00,0.0046
2701.00,0.0045
2700.00,0.0044
2699.00,0.0043
2698.00,0.0043
2697.00,0.0043
2696.00,0.0043
2695.00,0.0043
2694.00,0.0043
2693.00,0.0043
2692.00,0.0043
2691.00,0.0043
2690.00,0.0043
2689.00,0.0043
2688.00,0.0043
2687.00,0.0043
2686.00,0.0043
2685.00,0.0043
2684.00,0.0043
2683.00,0.0043
2682.00,0.0043
2681.00,0.0044
2680.00,0.0044
2679.00,0.0044
2678.00,0.0044
2677.00,0.0044
2676.00,0.0043
2675.00,0.0043
2674.00,0.0043
2673.00,0.0043
2672.00,0.0043
2671.00,0.0043
2670.00,0.0043
2669.00,0.0043
2668.00,0.0043
2667.00,0.0043
2666.00,0.0043
2665.00,0.0043
2664.00,0.0044
2663.00,0.0045
2662.00,0.0045
2661.00,0.0046
2660.00,0.0046
2659.00,0.0046
2658.00,0.0046
2657.00,0.0046
2656.00,0.0045
2655.00,0.0045
2654.00,0.0044
2653.00,0.0043
2652.00,0.0043
2651.00,0.0042
2650.00,0.0042
2649.00,0.0041
2648.00,0.0041
2647.00,0.0041
2646.00,0.0040
2645.00,0.0040
2644.00,0.0040
2643.00,0.0040
2642.00,0.0039
2641.00,0.0039
2640.00,0.0038
2639.00,0.0038
2638.00,0.0037
2637.00,0.0036
2636.00,0.0036
2635.00,0.0036
2634.00,0.0036
2633.00,0.0036
2632.00,0.0037
2631.00,0.0037
2630.00,0.0037
2629.00,0.0037
2628.00,0.0037
2627.00,0.0038
2626.00,0.0038
2625.00,0.0039
2624.00,0.0039
2623.00,0.0038
2622.00,0.0038
2621.00,0.0038
2620.00,0.0039
2619.00,0.0039
2618.00,0.0039
2617.00,0.0040
2616.00,0.0040
2615.00,0.0040
2614.00,0.0040
2613.00,0.0040
2612.00,0.0039
2611.00,0.0038
2610.00,0.0037
2609.00,0.0035
2608.00,0.0034
2607.00,0.0033
2606.00,0.0032
2605.00,0.0031
2604.00,0.0031
2603.00,0.0030
2602.00,0.0030
2601.00,0.0030
2600.00,0.0029
2599.00,0.0029
2598.00,0.0029
2597.00,0.0029
2596.00,0.0030
2595.00,0.0030
2594.00,0.0031
2593.00,0.0032
2592.00,0.0032
2591.00,0.0033
2590.00,0.0033
2589.00,0.0034
2588.00,0.0034
2587.00,0.0035
2586.00,0.0036
2585.00,0.0037
2584.00,0.0038
2583.00,0.0038
2582.00,0.0038
2581.00,0.0037
2580.00,0.0036
2579.00,0.0035
2578.00,0.0034
2577.00,0.0034
2576.00,0.0033
2575.00,0.0032
2574.00,0.0031
2573.00,0.0030
2572.00,0.0029
2571.00,0.0029
2570.00,0.0028
2569.00,0.0027
2568.00,0.0026
2567.00,0.0025
2566.00,0.0025
2565.00,0.0024
2564.00,0.0024
2563.00,0.0024
2562.00,0.0023
2561.00,0.0023
2560.00,0.0023
2559.00,0.0023
2558.00,0.0022
2557.00,0.0022
2556.00,0.0022
2555.00,0.0021
2554.00,0.0021
2553.00,0.0020
2552.00,0.0020
2551.00,0.0020
2550.00,0.0019
2549.00,0.0019
2548.00,0.0019
2547.00,0.0019
2546.00,0.0019
2545.00,0.0019
2544.00,0.0018
2543.00,0.0018
2542.00,0.0017
2541.00,0.0017
2540.00,0.0016
2539.00,0.0016
2538.00,0.0016
2537.00,0.0016
2536.00,0.0015
2535.00,0.0014
2534.00,0.0013
2533.00,0.0013
2532.00,0.0013
2531.00,0.0013
2530.00,0.0013
2529.00,0.0013
2528.00,0.0014
2527.00,0.0014
2526.00,0.0014
2525.00,0.0013
2524.00,0.0013
2523.00,0.0012
2522.00,0.0012
2521.00,0.0012
2520.00,0.0012
2519.00,0.0011
2518.00,0.0011
2517.00,0.0010
2516.00,0.0010
2515.00,0.0009
2514.00,0.0009
2513.00,0.0009
2512.00,0.0008
2511.00,0.0009
2510.00,0.0009
2509.00,0.0010
2508.00,0.0009
2507.00,0.0009
2506.00,0.0008
2505.00,0.0008
2504.00,0.0008
2503.00,0.0009
2502.00,0.0009
2501.00,0.0008
2500.00,0.0008
2499.00,0.0009
2498.00,0.0009
2497.00,0.0009
2496.00,0.0009
2495.00,0.0009
2494.00,0.0009
2493.00,0.0009
2492.00,0.0009
2491.00,0.0009
2490.00,0.0008
2489.00,0.0008
2488.00,0.0008
2487.00,0.0008
2486.00,0.0009
2485.00,0.0009
2484.00,0.0009
2483.00,0.0009
2482.00,0.0009
2481.00,0.0008
2480.00,0.0008
2479.00,0.0008
2478.00,0.0008
2477.00,0.0009
2476.00,0.0009
2475.00,0.0009
2474.00,0.0009
2473.00,0.0009
2472.00,0.0008
2471.00,0.0008
2470.00,0.0007
2469.00,0.0007
2468.00,0.0007
2467.00,0.0008
2466.00,0.0008
2465.00,0.0008
2464.00,0.0009
2463.00,0.0008
2462.00,0.0008
2461.00,0.0008
2460.00,0.0009
2459.00,0.0009
2458.00,0.0010
2457.00,0.0010
2456.00,0.0010
2455.00,0.0010
2454.00,0.0011
2453.00,0.0011
2452.00,0.0011
2451.00,0.0011
2450.00,0.0010
2449.00,0.0010
2448.00,0.0010
2447.00,0.0010
2446.00,0.0010
2445.00,0.0010
2444.00,0.0010
2443.00,0.0011
2442.00,0.0011
2441.00,0.0011
2440.00,0.0010
2439.00,0.0010
2438.00,0.0010
2437.00,0.0011
2436.00,0.0011
2435.00,0.0011
2434.00,0.0011
2433.00,0.0010
2432.00,0.0010
2431.00,0.0011
2430.00,0.0011
2429.00,0.0011
2428.00,0.0012
2427.00,0.0012
2426.00,0.0011
2425.00,0.0011
2424.00,0.0010
2423.00,0.0010
2422.00,0.0009
2421.00,0.0009
2420.00,0.0009
2419.00,0.0010
2418.00,0.0010
2417.00,0.0010
2416.00,0.0010
2415.00,0.0010
2414.00,0.0010
2413.00,0.0009
2412.00,0.0009
2411.00,0.0009
2410.00,0.0009
2409.00,0.0009
2408.00,0.0008
2407.00,0.0007
2406.00,0.0007
2405.00,0.0006
2404.00,0.0007
2403.00,0.0007
2402.00,0.0007
2401.00,0.0007
2400.00,0.0008
2399.00,0.0008
2398.00,0.0008
2397.00,0.0008
2396.00,0.0008
2395.00,0.0008
2394.00,0.0008
2393.00,0.0008
2392.00,0.0008
2391.00,0.0008
2390.00,0.0007
2389.00,0.0007
2388.00,0.0006
2387.00,0.0006
2386.00,0.0005
2385.00,0.0005
2384.00,0.0004
2383.00,0.0004
2382.00,0.0003
2381.00,0.0002
2380.00,0.0002
2379.00,0.0002
2378.00,0.0002
2377.00,0.0003
2376.00,0.0004
2375.00,0.0004
2374.00,0.0004
2373.00,0.0003
2372.00,0.0002
2371.00,0.0002
2370.00,0.0002
2369.00,0.0003
2368.00,0.0003
2367.00,0.0003
2366.00,0.0003
2365.00,0.0003
2364.00,0.0002
2363.00,0.0002
2362.00,0.0003
2361.00,0.0003
2360.00,0.0004
2359.00,0.0004
2358.00,0.0005
2357.00,0.0006
2356.00,0.0007
2355.00,0.0007
2354.00,0.0007
2353.00,0.0006
2352.00,0.0005
2351.00,0.0004
2350.00,0.0004
2349.00,0.0004
2348.00,0.0005
2347.00,0.0005
2346.00,0.0005
2345.00,0.0005
2344.00,0.0005
2343.00,0.0005
2342.00,0.0006
2341.00,0.0006
2340.00,0.0007
2339.00,0.0007
2338.00,0.0007
2337.00,0.0007
2336.00,0.0007
2335.00,0.0007
2334.00,0.0007
2333.00,0.0006
2332.00,0.0005
2331.00,0.0005
2330.00,0.0005
2329.00,0.0006
2328.00,0.0007
2327.00,0.0010
2326.00,0.0014
2325.00,0.0018
2324.00,0.0020
2323.00,0.0020
2322.00,0.0018
2321.00,0.0016
2320.00,0.0014
2319.00,0.0013
2318.00,0.0012
2317.00,0.0011
2316.00,0.0010
2315.00,0.0010
2314.00,0.0009
2313.00,0.0008
2312.00,0.0007
2311.00,0.0006
2310.00,0.0005
2309.00,0.0005
2308.00,0.0004
2307.00,0.0004
2306.00,0.0004
2305.00,0.0004
2304.00,0.0004
2303.00,0.0005
2302.00,0.0005
2301.00,0.0006
2300.00,0.0007
2299.00,0.0008
2298.00,0.0008
2297.00,0.0009
2296.00,0.0011
2295.00,0.0012
2294.00,0.0013
2293.00,0.0014
2292.00,0.0014
2291.00,0.0015
2290.00,0.0015
2289.00,0.0015
2288.00,0.0016
2287.00,0.0017
2286.00,0.0017
2285.00,0.0017
2284.00,0.0016
2283.00,0.0015
2282.00,0.0014
2281.00,0.0013
2280.00,0.0012
2279.00,0.0012
2278.00,0.0012
2277.00,0.0012
2276.00,0.0012
2275.00,0.0012
2274.00,0.0011
2273.00,0.0011
2272.00,0.0011
2271.00,0.0011
2270.00,0.0012
2269.00,0.0013
2268.00,0.0014
2267.00,0.0014
2266.00,0.0013
2265.00,0.0012
2264.00,0.0010
2263.00,0.0010
2262.00,0.0011
2261.00,0.0012
2260.00,0.0014
2259.00,0.0014
2258.00,0.0013
2257.00,0.0011
2256.00,0.0010
2255.00,0.0009
2254.00,0.0008
2253.00,0.0009
2252.00,0.0009
2251.00,0.0009
2250.00,0.0009
2249.00,0.0009
2248.00,0.0010
2247.00,0.0010
2246.00,0.0009
2245.00,0.0009
2244.00,0.0008
2243.00,0.0008
2242.00,0.0009
2241.00,0.0009
2240.00,0.0010
2239.00,0.0010
2238.00,0.0009
2237.00,0.0008
2236.00,0.0008
2235.00,0.0009
2234.00,0.0010
2233.00,0.0012
2232.00,0.0012
2231.00,0.0011
2230.00,0.0010
2229.00,0.0010
2228.00,0.0009
2227.00,0.0008
2226.00,0.0006
2225.00,0.0004
2224.00,0.0002
2223.00,0.0001
2222.00,0.0002
2221.00,0.0003
2220.00,0.0005
2219.00,0.0005
2218.00,0.0005
2217.00,0.0004
2216.00,0.0005
2215.00,0.0005
2214.00,0.0005
2213.00,0.0005
2212.00,0.0004
2211.00,0.0003
2210.00,0.0002
2209.00,0.0002
2208.00,0.0003
2207.00,0.0005
2206.00,0.0008
2205.00,0.0009
2204.00,0.0009
2203.00,0.0009
2202.00,0.0008
2201.00,0.0007
2200.00,0.0008
2199.00,0.0009
2198.00,0.0008
2197.00,0.0008
2196.00,0.0008
2195.00,0.0008
2194.00,0.0009
2193.00,0.0011
2192.00,0.0012
2191.00,0.0012
2190.00,0.0010
2189.00,0.0008
2188.00,0.0006
2187.00,0.0006
2186.00,0.0007
2185.00,0.0009
2184.00,0.0010
2183.00,0.0009
2182.00,0.0009
2181.00,0.0009
2180.00,0.0010
2179.00,0.0011
2178.00,0.0011
2177.00,0.0009
2176.00,0.0005
2175.00,0.0001
2174.00,-0.0001
2173.00,-0.0001
2172.00,0.0002
2171.00,0.0007
2170.00,0.0013
2169.00,0.0018
2168.00,0.0022
2167.00,0.0025
2166.00,0.0027
2165.00,0.0028
2164.00,0.0029
2163.00,0.0029
2162.00,0.0027
2161.00,0.0018
2160.00,0.0002
2159.00,-0.0018
2158.00,-0.0034
2157.00,-0.0041
2156.00,-0.0040
2155.00,-0.0036
2154.00,-0.0031
2153.00,-0.0026
2152.00,-0.0021
2151.00,-0.0018
2150.00,-0.0017
2149.00,-0.0018
2148.00,-0.0020
2147.00,-0.0021
2146.00,-0.0021
2145.00,-0.0020
2144.00,-0.0019
2143.00,-0.0017
2142.00,-0.0016
2141.00,-0.0017
2140.00,-0.0017
2139.00,-0.0017
2138.00,-0.0015
2137.00,-0.0014
2136.00,-0.0015
2135.00,-0.0019
2134.00,-0.0023
2133.00,-0.0023
2132.00,-0.0020
2131.00,-0.0016
2130.00,-0.0012
2129.00,-0.0010
2128.00,-0.0010
2127.00,-0.0010
2126.00,-0.0009
2125.00,-0.0008
2124.00,-0.0007
2123.00,-0.0006
2122.00,-0.0005
2121.00,-0.0004
2120.00,-0.0003
2119.00,-0.0003
2118.00,-0.0002
2117.00,-0.0001
2116.00,0.0000
2115.00,0.0001
2114.00,0.0002
2113.00,0.0002
2112.00,0.0002
2111.00,0.0002
2110.00,0.0001
2109.00,0.0001
2108.00,0.0000
2107.00,0.0000
2106.00,-0.0000
2105.00,0.0000
2104.00,0.0000
2103.00,-0.0000
2102.00,-0.0001
2101.00,-0.0001
2100.00,-0.0001
2099.00,-0.0000
2098.00,0.0000
2097.00,0.0000
2096.00,-0.0001
2095.00,-0.0004
2094.00,-0.0006
2093.00,-0.0006
2092.00,-0.0005
2091.00,-0.0004
2090.00,-0.0002
2089.00,-0.0000
2088.00,0.0002
2087.00,0.0002
2086.00,0.0002
2085.00,0.0002
2084.00,0.0003
2083.00,0.0003
2082.00,0.0002
2081.00,0.0002
2080.00,0.0003
2079.00,0.0003
2078.00,0.0003
2077.00,0.0003
2076.00,0.0002
2075.00,0.0001
2074.00,0.0000
2073.00,-0.0000
2072.00,-0.0001
2071.00,-0.0001
2070.00,-0.0002
2069.00,-0.0003
2068.00,-0.0005
2067.00,-0.0006
2066.00,-0.0006
2065.00,-0.0005
2064.00,-0.0004
2063.00,-0.0003
2062.00,-0.0002
2061.00,-0.0001
2060.00,-0.0001
2059.00,-0.0002
2058.00,-0.0002
2057.00,-0.0001
2056.00,-0.0000
2055.00,0.0000
2054.00,0.0002
2053.00,0.0005
2052.00,0.0008
2051.00,0.0009
2050.00,0.0005
2049.00,-0.0000
2048.00,-0.0003
2047.00,-0.0003
2046.00,-0.0002
2045.00,-0.0001
2044.00,-0.0001
2043.00,-0.0001
2042.00,-0.0001
2041.00,-0.0001
2040.00,-0.0001
2039.00,-0.0002
2038.00,-0.0001
2037.00,0.0001
2036.00,0.0002
2035.00,0.0000
2034.00,-0.0002
2033.00,-0.0004
2032.00,-0.0007
2031.00,-0.0010
2030.00,-0.0014
2029.00,-0.0016
2028.00,-0.0017
2027.00,-0.0018
2026.00,-0.0018
2025.00,-0.0016
2024.00,-0.0014
2023.00,-0.0011
2022.00,-0.0011
2021.00,-0.0011
2020.00,-0.0012
2019.00,-0.0013
2018.00,-0.0014
2017.00,-0.0015
2016.00,-0.0014
2015.00,-0.0013
2014.00,-0.0012
2013.00,-0.0011
2012.00,-0.0013
2011.00,-0.0016
2010.00,-0.0018
2009.00,-0.0019
2008.00,-0.0019
2007.00,-0.0019
2006.00,-0.0019
2005.00,-0.0018
2004.00,-0.0017
2003.00,-0.0016
2002.00,-0.0015
2001.00,-0.0014
2000.00,-0.0013
1999.00,-0.0013
1998.00,-0.0013
1997.00,-0.0012
1996.00,-0.0011
1995.00,-0.0010
1994.00,-0.0009
1993.00,-0.0009
1992.00,-0.0010
1991.00,-0.0011
1990.00,-0.0012
1989.00,-0.0011
1988.00,-0.0010
1987.00,-0.0008
1986.00,-0.0007
1985.00,-0.0006
1984.00,-0.0004
1983.00,-0.0001
1982.00,0.0002
1981.00,0.0005
1980.00,0.0007
1979.00,0.0004
1978.00,-0.0001
1977.00,-0.0008
1976.00,-0.0014
1975.00,-0.0017
1974.00,-0.0017
1973.00,-0.0017
1972.00,-0.0017
1971.00,-0.0019
1970.00,-0.0021
1969.00,-0.0022
1968.00,-0.0022
1967.00,-0.0021
1966.00,-0.0021
1965.00,-0.0021
1964.00,-0.0022
1963.00,-0.0022
1962.00,-0.0022
1961.00,-0.0022
1960.00,-0.0021
1959.00,-0.0022
1958.00,-0.0022
1957.00,-0.0022
1956.00,-0.0021
1955.00,-0.0020
1954.00,-0.0019
1953.00,-0.0018
1952.00,-0.0016
1951.00,-0.0016
1950.00,-0.0016
1949.00,-0.0017
1948.00,-0.0018
1947.00,-0.0019
1946.00,-0.0019
1945.00,-0.0018
1944.00,-0.0017
1943.00,-0.0017
1942.00,-0.0016
1941.00,-0.0015
1940.00,-0.0014
1939.00,-0.0012
1938.00,-0.0011
1937.00,-0.0011
1936.00,-0.0012
1935.00,-0.0013
1934.00,-0.0014
1933.00,-0.0014
1932.00,-0.0013
1931.00,-0.0012
1930.00,-0.0012
1929.00,-0.0012
1928.00,-0.0012
1927.00,-0.0012
1926.00,-0.0011
1925.00,-0.0010
1924.00,-0.0008
1923.00,-0.0008
1922.00,-0.0008
1921.00,-0.0008
1920.00,-0.0008
1919.00,-0.0008
1918.00,-0.0007
1917.00,-0.0006
1916.00,-0.0005
1915.00,-0.0004
1914.00,-0.0003
1913.00,-0.0003
1912.00,-0.0003
1911.00,-0.0004
1910.00,-0.0004
1909.00,-0.0004
1908.00,-0.0004
1907.00,-0.0004
1906.00,-0.0005
1905.00,-0.0005
1904.00,-0.0005
1903.00,-0.0005
1902.00,-0.0005
1901.00,-0.0004
1900.00,-0.0004
1899.00,-0.0004
1898.00,-0.0005
1897.00,-0.0005
1896.00,-0.0005
1895.00,-0.0003
1894.00,-0.0002
1893.00,-0.0002
1892.00,-0.0002
1891.00,-0.0002
1890.00,-0.0003
1889.00,-0.0003
1888.00,-0.0004
1887.00,-0.0004
1886.00,-0.0004
1885.00,-0.0005
1884.00,-0.0005
1883.00,-0.0005
1882.00,-0.0006
1881.00,-0.0006
1880.00,-0.0005
1879.00,-0.0004
1878.00,-0.0003
1877.00,-0.0002
1876.00,-0.0002
1875.00,-0.0002
1874.00,-0.0003
1873.00,-0.0004
1872.00,-0.0005
1871.00,-0.0005
1870.00,-0.0004
1869.00,-0.0003
1868.00,-0.0002
1867.00,-0.0002
1866.00,-0.0003
1865.00,-0.0003
1864.00,-0.0002
1863.00,-0.0002
1862.00,-0.0002
1861.00,-0.0002
1860.00,-0.0002
1859.00,-0.0001
1858.00,-0.0001
1857.00,-0.0001
1856.00,-0.0001
1855.00,-0.0001
1854.00,-0.0002
1853.00,-0.0002
1852.00,-0.0002
1851.00,-0.0002
1850.00,-0.0002
1849.00,-0.0001
1848.00,-0.0001
1847.00,-0.0001
1846.00,-0.0001
1845.00,-0.0002
1844.00,-0.0002
1843.00,-0.0001
1842.00,-0.0000
1841.00,0.0001
1840.00,0.0001
1839.00,0.0002
1838.00,0.0002
1837.00,0.0003
1836.00,0.0003
1835.00,0.0002
1834.00,0.0002
1833.00,0.0002
1832.00,0.0002
1831.00,0.0002
1830.00,0.0002
1829.00,0.0001
1828.00,0.0001
1827.00,0.0000
1826.00,0.0000
1825.00,0.0000
1824.00,0.0001
1823.00,0.0001
1822.00,0.0000
1821.00,-0.0000
1820.00,-0.0001
1819.00,-0.0002
1818.00,-0.0003
1817.00,-0.0004
1816.00,-0.0003
1815.00,-0.0002
1814.00,-0.0001
1813.00,0.0000
1812.00,0.0001
1811.00,0.0002
1810.00,0.0003
1809.00,0.0003
1808.00,0.0003
1807.00,0.0003
1806.00,0.0002
1805.00,0.0002
1804.00,0.0001
1803.00,0.0001
1802.00,0.0002
1801.00,0.0002
1800.00,0.0003
1799.00,0.0003
1798.00,0.0003
1797.00,0.0003
1796.00,0.0004
1795.00,0.0005
1794.00,0.0005
1793.00,0.0006
1792.00,0.0006
1791.00,0.0006
1790.00,0.0005
1789.00,0.0005
1788.00,0.0005
1787.00,0.0005
1786.00,0.0005
1785.00,0.0005
1784.00,0.0005
1783.00,0.0006
1782.00,0.0006
1781.00,0.0005
1780.00,0.0005
1779.00,0.0005
1778.00,0.0005
1777.00,0.0006
1776.00,0.0006
1775.00,0.0006
1774.00,0.0006
1773.00,0.0006
1772.00,0.0007
1771.00,0.0007
1770.00,0.0007
1769.00,0.0007
1768.00,0.0007
1767.00,0.0007
1766.00,0.0007
1765.00,0.0007
1764.00,0.0007
1763.00,0.0008
1762.00,0.0008
1761.00,0.0009
1760.00,0.0009
1759.00,0.0009
1758.00,0.0009
1757.00,0.0010
1756.00,0.0010
1755.00,0.0010
1754.00,0.0010
1753.00,0.0011
1752.00,0.0011
1751.00,0.0011
1750.00,0.0011
1749.00,0.0011
1748.00,0.0011
1747.00,0.0011
1746.00,0.0011
1745.00,0.0012
1744.00,0.0013
1743.00,0.0013
1742.00,0.0013
1741.00,0.0013
1740.00,0.0013
1739.00,0.0014
1738.00,0.0015
1737.00,0.0015
1736.00,0.0016
1735.00,0.0015
1734.00,0.0014
1733.00,0.0014
1732.00,0.0014
1731.00,0.0014
1730.00,0.0013
1729.00,0.0013
1728.00,0.0014
1727.00,0.0014
1726.00,0.0014
1725.00,0.0015
1724.00,0.0015
1723.00,0.0015
1722.00,0.0014
1721.00,0.0014
1720.00,0.0015
1719.00,0.0015
1718.00,0.0015
1717.00,0.0016
1716.00,0.0016
1715.00,0.0017
1714.00,0.0017
1713.00,0.0017
1712.00,0.0018
1711.00,0.0017
1710.00,0.0017
1709.00,0.0017
1708.00,0.0017
1707.00,0.0017
1706.00,0.0017
1705.00,0.0017
1704.00,0.0017
1703.00,0.0017
1702.00,0.0017
1701.00,0.0018
1700.00,0.0018
1699.00,0.0018
1698.00,0.0018
1697.00,0.0018
1696.00,0.0019
1695.00,0.0019
1694.00,0.0020
1693.00,0.0020
1692.00,0.0020
1691.00,0.0020
1690.00,0.0020
1689.00,0.0019
1688.00,0.0019
1687.00,0.0020
1686.00,0.0020
1685.00,0.0020
1684.00,0.0020
1683.00,0.0020
1682.00,0.0021
1681.00,0.0021
1680.00,0.0021
1679.00,0.0021
1678.00,0.0021
1677.00,0.0021
1676.00,0.0021
1675.00,0.0021
1674.00,0.0022
1673.00,0.0022
1672.00,0.0023
1671.00,0.0023
1670.00,0.0022
1669.00,0.0023
1668.00,0.0023
1667.00,0.0023
1666.00,0.0023
1665.00,0.0023
1664.00,0.0023
1663.00,0.0023
1662.00,0.0024
1661.00,0.0024
1660.00,0.0024
1659.00,0.0024
1658.00,0.0024
1657.00,0.0024
1656.00,0.0025
1655.00,0.0027
1654.00,0.0028
1653.00,0.0028
1652.00,0.0028
1651.00,0.0027
1650.00,0.0027
1649.00,0.0028
1648.00,0.0029
1647.00,0.0029
1646.00,0.0028
1645.00,0.0028
1644.00,0.0028
1643.00,0.0028
1642.00,0.0028
1641.00,0.0028
1640.00,0.0029
1639.00,0.0029
1638.00,0.0029
1637.00,0.0029
1636.00,0.0029
1635.00,0.0029
1634.00,0.0029
1633.00,0.0029
1632.00,0.0030
1631.00,0.0030
1630.00,0.0030
1629.00,0.0030
1628.00,0.0030
1627.00,0.0030
1626.00,0.0030
1625.00,0.0029
1624.00,0.0029
1623.00,0.0029
1622.00,0.0029
1621.00,0.0030
1620.00,0.0030
1619.00,0.0030
1618.00,0.0029
1617.00,0.0029
1616.00,0.0028
1615.00,0.0028
1614.00,0.0028
1613.00,0.0028
1612.00,0.0028
1611.00,0.0028
1610.00,0.0028
1609.00,0.0028
1608.00,0.0028
1607.00,0.0028
1606.00,0.0028
1605.00,0.0028
1604.00,0.0028
1603.00,0.0028
1602.00,0.0028
1601.00,0.0028
1600.00,0.0028
1599.00,0.0028
1598.00,0.0027
1597.00,0.0028
1596.00,0.0028
1595.00,0.0028
1594.00,0.0028
1593.00,0.0028
1592.00,0.0027
1591.00,0.0028
1590.00,0.0028
1589.00,0.0028
1588.00,0.0028
1587.00,0.0028
1586.00,0.0028
1585.00,0.0029
1584.00,0.0029
1583.00,0.0030
1582.00,0.0030
1581.00,0.0031
1580.00,0.0032
1579.00,0.0032
1578.00,0.0032
1577.00,0.0033
1576.00,0.0033
1575.00,0.0033
1574.00,0.0033
1573.00,0.0033
1572.00,0.0034
1571.00,0.0033
1570.00,0.0033
1569.00,0.0032
1568.00,0.0032
1567.00,0.0032
1566.00,0.0032
1565.00,0.0032
1564.00,0.0033
1563.00,0.0033
1562.00,0.0033
1561.00,0.0033
1560.00,0.0033
1559.00,0.0032
1558.00,0.0032
1557.00,0.0033
1556.00,0.0034
1555.00,0.0034
1554.00,0.0034
1553.00,0.0035
1552.00,0.0035
1551.00,0.0035
1550.00,0.0036
1549.00,0.0037
1548.00,0.0038
1547.00,0.0039
1546.00,0.0039
1545.00,0.0040
1544.00,0.0041
1543.00,0.0042
1542.00,0.0042
1541.00,0.0042
1540.00,0.0042
1539.00,0.0042
1538.00,0.0041
1537.00,0.0040
1536.00,0.0040
1535.00,0.0039
1534.00,0.0038
1533.00,0.0037
1532.00,0.0037
1531.00,0.0036
1530.00,0.0036
1529.00,0.0036
1528.00,0.0037
1527.00,0.0037
1526.00,0.0038
1525.00,0.0038
1524.00,0.0038
1523.00,0.0038
1522.00,0.0038
1521.00,0.0038
1520.00,0.0039
1519.00,0.0039
1518.00,0.0039
1517.00,0.0039
1516.00,0.0040
1515.00,0.0041
1514.00,0.0042
1513.00,0.0043
1512.00,0.0044
1511.00,0.0044
1510.00,0.0045
1509.00,0.0046
1508.00,0.0047
1507.00,0.0048
1506.00,0.0050
1505.00,0.0051
1504.00,0.0053
1503.00,0.0054
1502.00,0.0056
1501.00,0.0058
1500.00,0.0060
1499.00,0.0061
1498.00,0.0063
1497.00,0.0066
1496.00,0.0069
1495.00,0.0071
1494.00,0.0073
1493.00,0.0075
1492.00,0.0078
1491.00,0.0081
1490.00,0.0085
1489.00,0.0090
1488.00,0.0095
1487.00,0.0100
1486.00,0.0104
1485.00,0.0111
1484.00,0.0118
1483.00,0.0125
1482.00,0.0133
1481.00,0.0143
1480.00,0.0154
1479.00,0.0165
1478.00,0.0179
1477.00,0.0197
1476.00,0.0219
1475.00,0.0245
1474.00,0.0279
1473.00,0.0330
1472.00,0.0393
1471.00,0.0455
1470.00,0.0517
1469.00,0.0582
1468.00,0.0652
1467.00,0.0729
1466.00,0.0817
1465.00,0.0912
1464.00,0.0998
1463.00,0.1062
1462.00,0.1107
1461.00,0.1143
1460.00,0.1171
1459.00,0.1193
1458.00,0.1215
1457.00,0.1238
1456.00,0.1253
1455.00,0.1259
1454.00,0.1258
1453.00,0.1252
1452.00,0.1235
1451.00,0.1202
1450.00,0.1150
1449.00,0.1074
1448.00,0.0975
1447.00,0.0869
1446.00,0.0770
1445.00,0.0685
1444.00,0.0613
1443.00,0.0553
1442.00,0.0509
1441.00,0.0479
1440.00,0.0460
1439.00,0.0450
1438.00,0.0446
1437.00,0.0442
1436.00,0.0426
1435.00,0.0397
1434.00,0.0357
1433.00,0.0311
1432.00,0.0264
1431.00,0.0223
1430.00,0.0192
1429.00,0.0169
1428.00,0.0153
1427.00,0.0143
1426.00,0.0137
1425.00,0.0130
1424.00,0.0125
1423.00,0.0121
1422.00,0.0119
1421.00,0.0117
1420.00,0.0114
1419.00,0.0112
1418.00,0.0110
1417.00,0.0108
1416.00,0.0106
1415.00,0.0105
1414.00,0.0104
1413.00,0.0103
1412.00,0.0102
1411.00,0.0101
1410.00,0.0102
1409.00,0.0101
1408.00,0.0101
1407.00,0.0101
1406.00,0.0102
1405.00,0.0101
1404.00,0.0101
1403.00,0.0102
1402.00,0.0103
1401.00,0.0104
1400.00,0.0105
1399.00,0.0107
1398.00,0.0110
1397.00,0.0113
1396.00,0.0115
1395.00,0.0120
1394.00,0.0126
1393.00,0.0131
1392.00,0.0138
1391.00,0.0147
1390.00,0.0160
1389.00,0.0178
1388.00,0.0205
1387.00,0.0245
1386.00,0.0299
1385.00,0.0366
1384.00,0.0453
1383.00,0.0569
1382.00,0.0719
1381.00,0.0904
1380.00,0.1128
1379.00,0.1376
1378.00,0.1613
1377.00,0.1785
1376.00,0.1844
1375.00,0.1757
1374.00,0.1548
1373.00,0.1289
1372.00,0.1046
1371.00,0.0842
1370.00,0.0678
1369.00,0.0551
1368.00,0.0463
1367.00,0.0408
1366.00,0.0378
1365.00,0.0367
1364.00,0.0369
1363.00,0.0383
1362.00,0.0404
1361.00,0.0426
1360.00,0.0443
1359.00,0.0447
1358.00,0.0435
1357.00,0.0408
1356.00,0.0370
1355.00,0.0326
1354.00,0.0285
1353.00,0.0250
1352.00,0.0221
1351.00,0.0199
1350.00,0.0181
1349.00,0.0167
1348.00,0.0156
1347.00,0.0147
1346.00,0.0139
1345.00,0.0133
1344.00,0.0128
1343.00,0.0124
1342.00,0.0120
1341.00,0.0118
1340.00,0.0116
1339.00,0.0114
1338.00,0.0112
1337.00,0.0111
1336.00,0.0112
1335.00,0.0113
1334.00,0.0117
1333.00,0.0121
1332.00,0.0126
1331.00,0.0130
1330.00,0.0132
1329.00,0.0131
1328.00,0.0127
1327.00,0.0122
1326.00,0.0116
1325.00,0.0109
1324.00,0.0103
1323.00,0.0097
1322.00,0.0093
1321.00,0.0089
1320.00,0.0087
1319.00,0.0084
1318.00,0.0082
1317.00,0.0080
1316.00,0.0079
1315.00,0.0078
1314.00,0.0078
1313.00,0.0079
1312.00,0.0080
1311.00,0.0084
1310.00,0.0090
1309.00,0.0099
1308.00,0.0111
1307.00,0.0127
1306.00,0.0141
1305.00,0.0152
1304.00,0.0155
1303.00,0.0151
1302.00,0.0143
1301.00,0.0135
1300.00,0.0130
1299.00,0.0127
1298.00,0.0126
1297.00,0.0125
1296.00,0.0123
1295.00,0.0120
1294.00,0.0115
1293.00,0.0110
1292.00,0.0104
1291.00,0.0099
1290.00,0.0094
1289.00,0.0090
1288.00,0.0087
1287.00,0.0084
1286.00,0.0081
1285.00,0.0079
1284.00,0.0077
1283.00,0.0075
1282.00,0.0074
1281.00,0.0072
1280.00,0.0071
1279.00,0.0070
1278.00,0.0069
1277.00,0.0069
1276.00,0.0068
1275.00,0.0068
1274.00,0.0068
1273.00,0.0068
1272.00,0.0069
1271.00,0.0070
1270.00,0.0070
1269.00,0.0070
1268.00,0.0070
1267.00,0.0070
1266.00,0.0072
1265.00,0.0074
1264.00,0.0076
1263.00,0.0080
1262.00,0.0085
1261.00,0.0092
1260.00,0.0100
1259.00,0.0110
1258.00,0.0121
1257.00,0.0129
1256.00,0.0134
1255.00,0.0132
1254.00,0.0125
1253.00,0.0115
1252.00,0.0104
1251.00,0.0095
1250.00,0.0089
1249.00,0.0085
1248.00,0.0082
1247.00,0.0080
1246.00,0.0079
1245.00,0.0078
1244.00,0.0077
1243.00,0.0076
1242.00,0.0075
1241.00,0.0074
1240.00,0.0073
1239.00,0.0072
1238.00,0.0072
1237.00,0.0071
1236.00,0.0070
1235.00,0.0070
1234.00,0.0070
1233.00,0.0069
1232.00,0.0069
1231.00,0.0069
1230.00,0.0070
1229.00,0.0070
1228.00,0.0071
1227.00,0.0073
1226.00,0.0075
1225.00,0.0077
1224.00,0.0080
1223.00,0.0084
1222.00,0.0087
1221.00,0.0089
1220.00,0.0091
1219.00,0.0092
1218.00,0.0092
1217.00,0.0091
1216.00,0.0088
1215.00,0.0086
1214.00,0.0083
1213.00,0.0079
1212.00,0.0076
1211.00,0.0074
1210.00,0.0072
1209.00,0.0071
1208.00,0.0070
1207.00,0.0069
1206.00,0.0068
1205.00,0.0067
1204.00,0.0066
1203.00,0.0066
1202.00,0.0066
1201.00,0.0066
1200.00,0.0066
1199.00,0.0066
1198.00,0.0066
1197.00,0.0066
1196.00,0.0066
1195.00,0.0067
1194.00,0.0067
1193.00,0.0066
1192.00,0.0066
1191.00,0.0066
1190.00,0.0067
1189.00,0.0068
1188.00,0.0068
1187.00,0.0068
1186.00,0.0069
1185.00,0.0069
1184.00,0.0071
1183.00,0.0073
1182.00,0.0075
1181.00,0.0079
1180.00,0.0084
1179.00,0.0090
1178.00,0.0098
1177.00,0.0109
1176.00,0.0124
1175.00,0.0144
1174.00,0.0170
1173.00,0.0203
1172.00,0.0242
1171.00,0.0285
1170.00,0.0328
1169.00,0.0364
1168.00,0.0387
1167.00,0.0393
1166.00,0.0384
1165.00,0.0363
1164.00,0.0337
1163.00,0.0311
1162.00,0.0286
1161.00,0.0264
1160.00,0.0247
1159.00,0.0233
1158.00,0.0222
1157.00,0.0213
1156.00,0.0206
1155.00,0.0201
1154.00,0.0196
1153.00,0.0192
1152.00,0.0186
1151.00,0.0179
1150.00,0.0170
1149.00,0.0159
1148.00,0.0149
1147.00,0.0139
1146.00,0.0129
1145.00,0.0120
1144.00,0.0112
1143.00,0.0105
1142.00,0.0098
1141.00,0.0093
1140.00,0.0087
1139.00,0.0082
1138.00,0.0077
1137.00,0.0073
1136.00,0.0070
1135.00,0.0067
1134.00,0.0065
1133.00,0.0063
1132.00,0.0062
1131.00,0.0062
1130.00,0.0062
1129.00,0.0062
1128.00,0.0062
1127.00,0.0063
1126.00,0.0064
1125.00,0.0064
1124.00,0.0064
1123.00,0.0063
1122.00,0.0063
1121.00,0.0064
1120.00,0.0064
1119.00,0.0064
1118.00,0.0064
1117.00,0.0066
1116.00,0.0067
1115.00,0.0069
1114.00,0.0070
1113.00,0.0071
1112.00,0.0073
1111.00,0.0076
1110.00,0.0080
1109.00,0.0084
1108.00,0.0090
1107.00,0.0096
1106.00,0.0104
1105.00,0.0111
1104.00,0.0116
1103.00,0.0119
1102.00,0.0119
1101.00,0.0116
1100.00,0.0110
1099.00,0.0104
1098.00,0.0098
1097.00,0.0092
1096.00,0.0087
1095.00,0.0083
1094.00,0.0079
1093.00,0.0077
1092.00,0.0074
1091.00,0.0072
1090.00,0.0069
1089.00,0.0067
1088.00,0.0066
1087.00,0.0066
1086.00,0.0066
1085.00,0.0066
1084.00,0.0066
1083.00,0.0065
1082.00,0.0063
1081.00,0.0062
1080.00,0.0060
1079.00,0.0060
1078.00,0.0060
1077.00,0.0060
1076.00,0.0060
1075.00,0.0060
1074.00,0.0060
1073.00,0.0059
1072.00,0.0058
1071.00,0.0057
1070.00,0.0057
1069.00,0.0058
1068.00,0.0059
1067.00,0.0059
1066.00,0.0060
1065.00,0.0061
1064.00,0.0062
1063.00,0.0062
1062.00,0.0063
1061.00,0.0063
1060.00,0.0063
1059.00,0.0063
1058.00,0.0063
1057.00,0.0064
1056.00,0.0065
1055.00,0.0067
1054.00,0.0069
1053.00,0.0071
1052.00,0.0072
1051.00,0.0074
1050.00,0.0077
1049.00,0.0080
1048.00,0.0084
1047.00,0.0088
1046.00,0.0092
1045.00,0.0094
1044.00,0.0094
1043.00,0.0092
1042.00,0.0089
1041.00,0.0085
1040.00,0.0082
1039.00,0.0081
1038.00,0.0080
1037.00,0.0080
1036.00,0.0080
1035.00,0.0079
1034.00,0.0079
1033.00,0.0078
1032.00,0.0077
1031.00,0.0076
1030.00,0.0075
1029.00,0.0075
1028.00,0.0075
1027.00,0.0075
1026.00,0.0075
1025.00,0.0075
1024.00,0.0075
1023.00,0.0075
1022.00,0.0076
1021.00,0.0078
1020.00,0.0080
1019.00,0.0082
1018.00,0.0083
1017.00,0.0085
1016.00,0.0088
1015.00,0.0092
1014.00,0.0096
1013.00,0.0102
1012.00,0.0107
1011.00,0.0111
1010.00,0.0116
1009.00,0.0122
1008.00,0.0129
1007.00,0.0140
1006.00,0.0152
1005.00,0.0168
1004.00,0.0189
1003.00,0.0217
1002.00,0.0255
1001.00,0.0301
1000.00,0.0352
999.00,0.0397
998.00,0.0422
997.00,0.0419
996.00,0.0388
995.00,0.0339
994.00,0.0284
993.00,0.0236
992.00,0.0197
991.00,0.0169
990.00,0.0149
989.00,0.0136
988.00,0.0127
987.00,0.0122
986.00,0.0120
985.00,0.0121
984.00,0.0125
983.00,0.0134
982.00,0.0147
981.00,0.0166
980.00,0.0193
979.00,0.0227
978.00,0.0271
977.00,0.0323
976.00,0.0382
975.00,0.0440
974.00,0.0487
973.00,0.0510
972.00,0.0499
971.00,0.0456
970.00,0.0393
969.00,0.0325
968.00,0.0264
967.00,0.0217
966.00,0.0181
965.00,0.0156
964.00,0.0137
963.00,0.0123
962.00,0.0113
961.00,0.0105
960.00,0.0098
959.00,0.0093
958.00,0.0089
957.00,0.0085
956.00,0.0081
955.00,0.0079
954.00,0.0076
953.00,0.0075
952.00,0.0074
951.00,0.0073
950.00,0.0073
949.00,0.0072
948.00,0.0072
947.00,0.0073
946.00,0.0074
945.00,0.0077
944.00,0.0080
943.00,0.0082
942.00,0.0085
941.00,0.0086
940.00,0.0085
939.00,0.0083
938.00,0.0079
937.00,0.0075
936.00,0.0070
935.00,0.0066
934.00,0.0064
933.00,0.0062
932.00,0.0060
931.00,0.0059
930.00,0.0058
929.00,0.0057
928.00,0.0056
927.00,0.0056
926.00,0.0056
925.00,0.0057
924.00,0.0057
923.00,0.0058
922.00,0.0059
921.00,0.0060
920.00,0.0061
919.00,0.0062
918.00,0.0063
917.00,0.0063
916.00,0.0063
915.00,0.0063
914.00,0.0063
913.00,0.0064
912.00,0.0065
911.00,0.0067
910.00,0.0069
909.00,0.0070
908.00,0.0072
907.00,0.0076
906.00,0.0082
905.00,0.0093
904.00,0.0108
903.00,0.0126
902.00,0.0146
901.00,0.0164
900.00,0.0175
899.00,0.0178
898.00,0.0171
897.00,0.0156
896.00,0.0138
895.00,0.0120
894.00,0.0106
893.00,0.0095
892.00,0.0086
891.00,0.0079
890.00,0.0074
889.00,0.0071
888.00,0.0068
887.00,0.0067
886.00,0.0066
885.00,0.0066
884.00,0.0066
883.00,0.0066
882.00,0.0067
881.00,0.0068
880.00,0.0068
879.00,0.0069
878.00,0.0070
877.00,0.0070
876.00,0.0069
875.00,0.0068
874.00,0.0067
873.00,0.0067
872.00,0.0067
871.00,0.0068
870.00,0.0069
869.00,0.0070
868.00,0.0070
867.00,0.0071
866.00,0.0072
865.00,0.0072
864.00,0.0073
863.00,0.0074
862.00,0.0075
861.00,0.0077
860.00,0.0079
859.00,0.0081
858.00,0.0083
857.00,0.0085
856.00,0.0087
855.00,0.0090
854.00,0.0093
853.00,0.0095
852.00,0.0098
851.00,0.0102
850.00,0.0107
849.00,0.0115
848.00,0.0129
847.00,0.0151
846.00,0.0183
845.00,0.0229
844.00,0.0289
843.00,0.0354
842.00,0.0406
841.00,0.0423
840.00,0.0396
839.00,0.0339
838.00,0.0275
837.00,0.0224
836.00,0.0188
835.00,0.0165
834.00,0.0150
833.00,0.0140
832.00,0.0133
831.00,0.0128
830.00,0.0124
829.00,0.0120
828.00,0.0117
827.00,0.0114
826.00,0.0112
825.00,0.0109
824.00,0.0107
823.00,0.0106
822.00,0.0106
821.00,0.0106
820.00,0.0108
819.00,0.0109
818.00,0.0111
817.00,0.0116
816.00,0.0122
815.00,0.0132
814.00,0.0145
813.00,0.0160
812.00,0.0177
811.00,0.0192
810.00,0.0203
809.00,0.0207
808.00,0.0203
807.00,0.0193
806.00,0.0179
805.00,0.0163
804.00,0.0149
803.00,0.0137
802.00,0.0127
801.00,0.0119
800.00,0.0112
799.00,0.0105
798.00,0.0100
797.00,0.0095
796.00,0.0090
795.00,0.0086
794.00,0.0082
793.00,0.0080
792.00,0.0078
791.00,0.0076
790.00,0.0075
789.00,0.0074
788.00,0.0073
787.00,0.0071
786.00,0.0068
785.00,0.0065
784.00,0.0061
783.00,0.0059
782.00,0.0057
781.00,0.0057
780.00,0.0057
779.00,0.0057
778.00,0.0056
777.00,0.0056
776.00,0.0057
775.00,0.0058
774.00,0.0060
773.00,0.0062
772.00,0.0065
771.00,0.0069
770.00,0.0074
769.00,0.0076
768.00,0.0077
767.00,0.0076
766.00,0.0075
765.00,0.0073
764.00,0.0070
763.00,0.0067
762.00,0.0063
761.00,0.0059
760.00,0.0055
759.00,0.0052
758.00,0.0049
757.00,0.0048
756.00,0.0047
755.00,0.0045
754.00,0.0044
753.00,0.0044
752.00,0.0045
751.00,0.0046
750.00,0.0046
749.00,0.0046
748.00,0.0046
747.00,0.0047
746.00,0.0048
745.00,0.0048
744.00,0.0048
743.00,0.0048
742.00,0.0048
741.00,0.0049
740.00,0.0050
739.00,0.0050
738.00,0.0050
737.00,0.0050
736.00,0.0050
735.00,0.0050
734.00,0.0051
733.00,0.0052
732.00,0.0052
731.00,0.0052
730.00,0.0052
729.00,0.0051
728.00,0.0051
727.00,0.0050
726.00,0.0049
725.00,0.0048
724.00,0.0049
723.00,0.0049
722.00,0.0049
721.00,0.0047
720.00,0.0045
719.00,0.0045
718.00,0.0045
717.00,0.0046
716.00,0.0046
715.00,0.0045
714.00,0.0044
713.00,0.0043
712.00,0.0043
711.00,0.0044
710.00,0.0045
709.00,0.0046
708.00,0.0046
707.00,0.0045
706.00,0.0044
705.00,0.0044
704.00,0.0043
703.00,0.0042
702.00,0.0041
701.00,0.0039
700.00,0.0038
699.00,0.0037
698.00,0.0036
697.00,0.0036
696.00,0.0037
695.00,0.0038
694.00,0.0040
693.00,0.0041
692.00,0.0041
691.00,0.0042
690.00,0.0041
689.00,0.0041
688.00,0.0040
687.00,0.0039
686.00,0.0038
685.00,0.0039
684.00,0.0039
683.00,0.0040
682.00,0.0041
681.00,0.0040
680.00,0.0040
679.00,0.0040
678.00,0.0040
677.00,0.0041
676.00,0.0042
675.00,0.0043
674.00,0.0041
673.00,0.0039
672.00,0.0037
671.00,0.0036
670.00,0.0037
669.00,0.0040
668.00,0.0043
667.00,0.0046
666.00,0.0045
665.00,0.0043
664.00,0.0041
663.00,0.0039
662.00,0.0038
661.00,0.0037
660.00,0.0038
659.00,0.0039
658.00,0.0039
657.00,0.0038
656.00,0.0036
655.00,0.0036
654.00,0.0037
653.00,0.0038
652.00,0.0038
651.00,0.0037
650.00,0.0038
649.00,0.0040
648.00,0.0042
647.00,0.0044
646.00,0.0044
645.00,0.0045
644.00,0.0045
643.00,0.0044
642.00,0.0042
641.00,0.0041
640.00,0.0041
639.00,0.0040
638.00,0.0040
637.00,0.0040
636.00,0.0041
635.00,0.0041
634.00,0.0042
633.00,0.0042
632.00,0.0041
631.00,0.0042
630.00,0.0042
629.00,0.0042
628.00,0.0042
627.00,0.0041
626.00,0.0040
625.00,0.0039
624.00,0.0039
623.00,0.0040
622.00,0.0041
621.00,0.0041
620.00,0.0042
619.00,0.0041
618.00,0.0040
617.00,0.0040
616.00,0.0040
615.00,0.0041
614.00,0.0042
613.00,0.0042
612.00,0.0042
611.00,0.0041
610.00,0.0039
609.00,0.0038
608.00,0.0036
607.00,0.0035
606.00,0.0035
605.00,0.0035
604.00,0.0035
603.00,0.0037
602.00,0.0041
601.00,0.0044
600.00,0.0046
599.00,0.0046
598.00,0.0047
597.00,0.0047
596.00,0.0046
595.00,0.0045
594.00,0.0043
593.00,0.0041
592.00,0.0040
591.00,0.0039
590.00,0.0039
589.00,0.0039
588.00,0.0041
587.00,0.0045
586.00,0.0047
585.00,0.0048
584.00,0.0046
583.00,0.0045
582.00,0.0046
581.00,0.0049
580.00,0.0052
579.00,0.0053
578.00,0.0053
577.00,0.0052
576.00,0.0050
575.00,0.0049
574.00,0.0049
573.00,0.0049
572.00,0.0049
571.00,0.0049
570.00,0.0048
569.00,0.0047
568.00,0.0047
567.00,0.0047
566.00,0.0048
565.00,0.0049
564.00,0.0048
563.00,0.0044
562.00,0.0039
561.00,0.0035
560.00,0.0035
559.00,0.0039
558.00,0.0044
557.00,0.0049
556.00,0.0052
555.00,0.0054
554.00,0.0055
553.00,0.0054
552.00,0.0053
551.00,0.0051
550.00,0.0050
549.00,0.0051
548.00,0.0053
547.00,0.0054
546.00,0.0054
545.00,0.0052
544.00,0.0050
543.00,0.0047
542.00,0.0045
541.00,0.0045
540.00,0.0046
539.00,0.0048
538.00,0.0051
537.00,0.0054
536.00,0.0056
535.00,0.0059
534.00,0.0064
533.00,0.0070
532.00,0.0074
531.00,0.0076
530.00,0.0075
529.00,0.0073
528.00,0.0069
527.00,0.0065
526.00,0.0064
525.00,0.0067
524.00,0.0069
523.00,0.0069
522.00,0.0067
521.00,0.0066
520.00,0.0069
519.00,0.0073
518.00,0.0073
517.00,0.0066
516.00,0.0054
515.00,0.0042
514.00,0.0038
513.00,0.0040
512.00,0.0044
511.00,0.0045
510.00,0.0045
509.00,0.0046
508.00,0.0048
507.00,0.0051
506.00,0.0055
505.00,0.0059
504.00,0.0061
503.00,0.0059
502.00,0.0055
501.00,0.0051
500.00,0.0049
499.00,0.0050
498.00,0.0053
497.00,0.0058
496.00,0.0060
495.00,0.0060
494.00,0.0059
493.00,0.0061
492.00,0.0064
491.00,0.0064
490.00,0.0061
489.00,0.0058
488.00,0.0057
487.00,0.0058
486.00,0.0060
485.00,0.0064
484.00,0.0065
483.00,0.0062
482.00,0.0057
481.00,0.0055
480.00,0.0056
479.00,0.0059
478.00,0.0061
477.00,0.0063
476.00,0.0064
475.00,0.0064
474.00,0.0063
473.00,0.0065
472.00,0.0070
471.00,0.0072
470.00,0.0066
469.00,0.0060
468.00,0.0061
467.00,0.0070
466.00,0.0083
465.00,0.0093
464.00,0.0103
463.00,0.0115
462.00,0.0132
461.00,0.0150
460.00,0.0165
459.00,0.0168
458.00,0.0156
457.00,0.0133
456.00,0.0115
455.00,0.0106
454.00,0.0102
453.00,0.0098
452.00,0.0089
451.00,0.0079
450.00,0.0072
