Created as New Dataset,Sample 083 By Administrator Date Friday, September 05 2025
cm-1,A
4000.00,0.0009
3999.00,0.0009
3998.00,0.0008
3997.00,0.0008
3996.00,0.0008
3995.00,0.0009
3994.00,0.0009
3993.00,0.0009
3992.00,0.0009
3991.00,0.0009
3990.00,0.0009
3989.00,0.0009
3988.00,0.0009
3987.00,0.0009
3986.00,0.0009
3985.00,0.0008
3984.00,0.0008
3983.00,0.0008
3982.00,0.0008
3981.00,0.0008
3980.00,0.0007
3979.00,0.0007
3978.00,0.0007
3977.00,0.0007
3976.00,0.0007
3975.00,0.0008
3974.00,0.0008
3973.00,0.0008
3972.00,0.0008
3971.00,0.0007
3970.00,0.0007
3969.00,0.0008
3968.00,0.0008
3967.00,0.0008
3966.00,0.0008
3965.00,0.0007
3964.00,0.0007
3963.00,0.0007
3962.00,0.0007
3961.00,0.0007
3960.00,0.0007
3959.00,0.0007
3958.00,0.0007
3957.00,0.0007
3956.00,0.0007
3955.00,0.0007
3954.00,0.0007
3953.00,0.0007
3952.00,0.0007
3951.00,0.0007
3950.00,0.0007
3949.00,0.0007
3948.00,0.0007
3947.00,0.0007
3946.00,0.0007
3945.00,0.0007
3944.00,0.0007
3943.00,0.0007
3942.00,0.0007
3941.00,0.0007
3940.00,0.0007
3939.00,0.0007
3938.00,0.0008
3937.00,0.0008
3936.00,0.0008
3935.00,0.0008
3934.00,0.0008
3933.00,0.0007
3932.00,0.0007
3931.00,0.0007
3930.00,0.0007
3929.00,0.0007
3928.00,0.0007
3927.00,0.0007
3926.00,0.0007
3925.00,0.0007
3924.00,0.0007
3923.00,0.0007
3922.00,0.0007
3921.00,0.0007
3920.00,0.0007
3919.00,0.0007
3918.00,0.0007
3917.00,0.0008
3916.00,0.0008
3915.00,0.0007
3914.00,0.0007
3913.00,0.0007
3912.00,0.0007
3911.00,0.0007
3910.00,0.0007
3909.00,0.0007
3908.00,0.0007
3907.00,0.0008
3906.00,0.0008
3905.00,0.0008
3904.00,0.0008
3903.00,0.0008
3902.00,0.0007
3901.00,0.0007
3900.00,0.0007
3899.00,0.0007
3898.00,0.0007
3897.00,0.0007
3896.00,0.0007
3895.00,0.0007
3894.00,0.0007
3893.00,0.0007
3892.00,0.0007
3891.00,0.0007
3890.00,0.0007
3889.00,0.0007
3888.00,0.0007
3887.00,0.0007
3886.00,0.0007
3885.00,0.0007
3884.00,0.0008
3883.00,0.0008
3882.00,0.0008
3881.00,0.0008
3880.00,0.0008
3879.00,0.0008
3878.00,0.0008
3877.00,0.0008
3876.00,0.0008
3875.00,0.0007
3874.00,0.0007
3873.00,0.0008
3872.00,0.0008
3871.00,0.0008
3870.00,0.0008
3869.00,0.0008
3868.00,0.0008
3867.00,0.0008
3866.00,0.0008
3865.00,0.0008
3864.00,0.0007
3863.00,0.0007
3862.00,0.0007
3861.00,0.0007
3860.00,0.0007
3859.00,0.0007
3858.00,0.0007
3857.00,0.0008
3856.00,0.0009
3855.00,0.0009
3854.00,0.0009
3853.00,0.0009
3852.00,0.0009
3851.00,0.0009
3850.00,0.0008
3849.00,0.0007
3848.00,0.0007
3847.00,0.0007
3846.00,0.0007
3845.00,0.0007
3844.00,0.0007
3843.00,0.0006
3842.00,0.0007
3841.00,0.0007
3840.00,0.0008
3839.00,0.0008
3838.00,0.0008
3837.00,0.0009
3836.00,0.0008
3835.00,0.0008
3834.00,0.0007
3833.00,0.0007
3832.00,0.0007
3831.00,0.0007
3830.00,0.0007
3829.00,0.0007
3828.00,0.0007
3827.00,0.0006
3826.00,0.0006
3825.00,0.0007
3824.00,0.0007
3823.00,0.0008
3822.00,0.0008
3821.00,0.0008
3820.00,0.0008
3819.00,0.0008
3818.00,0.0009
3817.00,0.0008
3816.00,0.0008
3815.00,0.0008
3814.00,0.0008
3813.00,0.0008
3812.00,0.0008
3811.00,0.0007
3810.00,0.0007
3809.00,0.0007
3808.00,0.0007
3807.00,0.0007
3806.00,0.0007
3805.00,0.0008
3804.00,0.0008
3803.00,0.0009
3802.00,0.0009
3801.00,0.0009
3800.00,0.0009
3799.00,0.0009
3798.00,0.0008
3797.00,0.0007
3796.00,0.0007
3795.00,0.0007
3794.00,0.0007
3793.00,0.0007
3792.00,0.0007
3791.00,0.0007
3790.00,0.0007
3789.00,0.0007
3788.00,0.0007
3787.00,0.0007
3786.00,0.0006
3785.00,0.0006
3784.00,0.0006
3783.00,0.0007
3782.00,0.0007
3781.00,0.0008
3780.00,0.0008
3779.00,0.0008
3778.00,0.0008
3777.00,0.0008
3776.00,0.0008
3775.00,0.0007
3774.00,0.0007
3773.00,0.0007
3772.00,0.0007
3771.00,0.0007
3770.00,0.0007
3769.00,0.0007
3768.00,0.0008
3767.00,0.0008
3766.00,0.0008
3765.00,0.0007
3764.00,0.0007
3763.00,0.0007
3762.00,0.0006
3761.00,0.0006
3760.00,0.0006
3759.00,0.0007
3758.00,0.0008
3757.00,0.0008
3756.00,0.0009
3755.00,0.0009
3754.00,0.0009
3753.00,0.0009
3752.00,0.0010
3751.00,0.0009
3750.00,0.0009
3749.00,0.0008
3748.00,0.0008
3747.00,0.0008
3746.00,0.0009
3745.00,0.0009
3744.00,0.0008
3743.00,0.0008
3742.00,0.0008
3741.00,0.0007
3740.00,0.0006
3739.00,0.0005
3738.00,0.0005
3737.00,0.0004
3736.00,0.0004
3735.00,0.0005
3734.00,0.0006
3733.00,0.0006
3732.00,0.0007
3731.00,0.0006
3730.00,0.0006
3729.00,0.0006
3728.00,0.0005
3727.00,0.0005
3726.00,0.0005
3725.00,0.0006
3724.00,0.0006
3723.00,0.0006
3722.00,0.0006
3721.00,0.0006
3720.00,0.0005
3719.00,0.0005
3718.00,0.0005
3717.00,0.0005
3716.00,0.0005
3715.00,0.0006
3714.00,0.0006
3713.00,0.0006
3712.00,0.0006
3711.00,0.0006
3710.00,0.0006
3709.00,0.0006
3708.00,0.0006
3707.00,0.0006
3706.00,0.0005
3705.00,0.0005
3704.00,0.0004
3703.00,0.0004
3702.00,0.0003
3701.00,0.0003
3700.00,0.0003
3699.00,0.0004
3698.00,0.0004
3697.00,0.0004
3696.00,0.0004
3695.00,0.0005
3694.00,0.0005
3693.00,0.0006
3692.00,0.0006
3691.00,0.0006
3690.00,0.0006
3689.00,0.0006
3688.00,0.0006
3687.00,0.0006
3686.00,0.0006
3685.00,0.0005
3684.00,0.0005
3683.00,0.0005
3682.00,0.0005
3681.00,0.0005
3680.00,0.0005
3679.00,0.0005
3678.00,0.0005
3677.00,0.0004
3676.00,0.0004
3675.00,0.0005
3674.00,0.0005
3673.00,0.0006
3672.00,0.0006
3671.00,0.0006
3670.00,0.0005
3669.00,0.0005
3668.00,0.0004
3667.00,0.0004
3666.00,0.0003
3665.00,0.0002
3664.00,0.0001
3663.00,0.0001
3662.00,0.0001
3661.00,0.0001
3660.00,0.0002
3659.00,0.0002
3658.00,0.0003
3657.00,0.0003
3656.00,0.0003
3655.00,0.0003
3654.00,0.0003
3653.00,0.0003
3652.00,0.0003
3651.00,0.0002
3650.00,0.0002
3649.00,0.0002
3648.00,0.0002
3647.00,0.0002
3646.00,0.0003
3645.00,0.0003
3644.00,0.0003
3643.00,0.0003
3642.00,0.0003
3641.00,0.0003
3640.00,0.0003
3639.00,0.0003
3638.00,0.0003
3637.00,0.0003
3636.00,0.0003
3635.00,0.0003
3634.00,0.0003
3633.00,0.0004
3632.00,0.0004
3631.00,0.0005
3630.00,0.0005
3629.00,0.0005
3628.00,0.0005
3627.00,0.0005
3626.00,0.0005
3625.00,0.0005
3624.00,0.0005
3623.00,0.0005
3622.00,0.0005
3621.00,0.0005
3620.00,0.0004
3619.00,0.0004
3618.00,0.0004
3617.00,0.0004
3616.00,0.0004
3615.00,0.0004
3614.00,0.0004
3613.00,0.0004
3612.00,0.0004
3611.00,0.0005
3610.00,0.0005
3609.00,0.0005
3608.00,0.0005
3607.00,0.0005
3606.00,0.0005
3605.00,0.0005
3604.00,0.0005
3603.00,0.0005
3602.00,0.0005
3601.00,0.0005
3600.00,0.0005
3599.00,0.0005
3598.00,0.0006
3597.00,0.0006
3596.00,0.0006
3595.00,0.0006
3594.00,0.0006
3593.00,0.0006
3592.00,0.0006
3591.00,0.0007
3590.00,0.0007
3589.00,0.0006
3588.00,0.0007
3587.00,0.0007
3586.00,0.0007
3585.00,0.0007
3584.00,0.0007
3583.00,0.0007
3582.00,0.0007
3581.00,0.0007
3580.00,0.0007
3579.00,0.0007
3578.00,0.0007
3577.00,0.0007
3576.00,0.0007
3575.00,0.0007
3574.00,0.0007
3573.00,0.0007
3572.00,0.0008
3571.00,0.0008
3570.00,0.0008
3569.00,0.0008
3568.00,0.0008
3567.00,0.0008
3566.00,0.0009
3565.00,0.0009
3564.00,0.0009
3563.00,0.0009
3562.00,0.0009
3561.00,0.0009
3560.00,0.0010
3559.00,0.0010
3558.00,0.0010
3557.00,0.0010
3556.00,0.0010
3555.00,0.0010
3554.00,0.0010
3553.00,0.0011
3552.00,0.0011
3551.00,0.0011
3550.00,0.0011
3549.00,0.0011
3548.00,0.0011
3547.00,0.0011
3546.00,0.0012
3545.00,0.0012
3544.00,0.0013
3543.00,0.0013
3542.00,0.0013
3541.00,0.0013
3540.00,0.0013
3539.00,0.0013
3538.00,0.0013
3537.00,0.0013
3536.00,0.0013
3535.00,0.0013
3534.00,0.0013
3533.00,0.0013
3532.00,0.0013
3531.00,0.0012
3530.00,0.0013
3529.00,0.0013
3528.00,0.0013
3527.00,0.0014
3526.00,0.0014
3525.00,0.0014
3524.00,0.0013
3523.00,0.0013
3522.00,0.0014
3521.00,0.0014
3520.00,0.0014
3519.00,0.0014
3518.00,0.0015
3517.00,0.0015
3516.00,0.0015
3515.00,0.0015
3514.00,0.0015
3513.00,0.0016
3512.00,0.0016
3511.00,0.0016
3510.00,0.0017
3509.00,0.0017
3508.00,0.0016
3507.00,0.0016
3506.00,0.0016
3505.00,0.0016
3504.00,0.0016
3503.00,0.0016
3502.00,0.0016
3501.00,0.0017
3500.00,0.0017
3499.00,0.0017
3498.00,0.0017
3497.00,0.0017
3496.00,0.0017
3495.00,0.0017
3494.00,0.0017
3493.00,0.0017
3492.00,0.0018
3491.00,0.0018
3490.00,0.0018
3489.00,0.0018
3488.00,0.0018
3487.00,0.0018
3486.00,0.0018
3485.00,0.0018
3484.00,0.0018
3483.00,0.0018
3482.00,0.0019
3481.00,0.0019
3480.00,0.0019
3479.00,0.0019
3478.00,0.0019
3477.00,0.0019
3476.00,0.0019
3475.00,0.0019
3474.00,0.0019
3473.00,0.0019
3472.00,0.0020
3471.00,0.0020
3470.00,0.0020
3469.00,0.0020
3468.00,0.0020
3467.00,0.0020
3466.00,0.0020
3465.00,0.0021
3464.00,0.0021
3463.00,0.0021
3462.00,0.0021
3461.00,0.0022
3460.00,0.0022
3459.00,0.0022
3458.00,0.0022
3457.00,0.0022
3456.00,0.0023
3455.00,0.0023
3454.00,0.0023
3453.00,0.0023
3452.00,0.0022
3451.00,0.0022
3450.00,0.0023
3449.00,0.0023
3448.00,0.0023
3447.00,0.0023
3446.00,0.0023
3445.00,0.0023
3444.00,0.0023
3443.00,0.0023
3442.00,0.0023
3441.00,0.0024
3440.00,0.0024
3439.00,0.0024
3438.00,0.0024
3437.00,0.0024
3436.00,0.0024
3435.00,0.0024
3434.00,0.0024
3433.00,0.0024
3432.00,0.0024
3431.00,0.0024
3430.00,0.0024
3429.00,0.0024
3428.00,0.0024
3427.00,0.0024
3426.00,0.0024
3425.00,0.0025
3424.00,0.0025
3423.00,0.0025
3422.00,0.0025
3421.00,0.0025
3420.00,0.0026
3419.00,0.0026
3418.00,0.0026
3417.00,0.0027
3416.00,0.0027
3415.00,0.0026
3414.00,0.0026
3413.00,0.0026
3412.00,0.0026
3411.00,0.0027
3410.00,0.0027
3409.00,0.0027
3408.00,0.0027
3407.00,0.0027
3406.00,0.0027
3405.00,0.0027
3404.00,0.0027
3403.00,0.0027
3402.00,0.0027
3401.00,0.0027
3400.00,0.0028
3399.00,0.0028
3398.00,0.0028
3397.00,0.0028
3396.00,0.0028
3395.00,0.0028
3394.00,0.0028
3393.00,0.0028
3392.00,0.0028
3391.00,0.0028
3390.00,0.0027
3389.00,0.0028
3388.00,0.0028
3387.00,0.0028
3386.00,0.0029
3385.00,0.0029
3384.00,0.0029
3383.00,0.0029
3382.00,0.0029
3381.00,0.0029
3380.00,0.0029
3379.00,0.0029
3378.00,0.0029
3377.00,0.0028
3376.00,0.0028
3375.00,0.0028
3374.00,0.0028
3373.00,0.0028
3372.00,0.0028
3371.00,0.0028
3370.00,0.0028
3369.00,0.0028
3368.00,0.0028
3367.00,0.0028
3366.00,0.0028
3365.00,0.0029
3364.00,0.0029
3363.00,0.0029
3362.00,0.0029
3361.00,0.0029
3360.00,0.0029
3359.00,0.0029
3358.00,0.0029
3357.00,0.0029
3356.00,0.0030
3355.00,0.0030
3354.00,0.0030
3353.00,0.0030
3352.00,0.0030
3351.00,0.0030
3350.00,0.0030
3349.00,0.0031
3348.00,0.0031
3347.00,0.0031
3346.00,0.0031
3345.00,0.0031
3344.00,0.0031
3343.00,0.0031
3342.00,0.0030
3341.00,0.0030
3340.00,0.0030
3339.00,0.0030
3338.00,0.0030
3337.00,0.0030
3336.00,0.0029
3335.00,0.0029
3334.00,0.0029
3333.00,0.0029
3332.00,0.0029
3331.00,0.0029
3330.00,0.0029
3329.00,0.0029
3328.00,0.0029
3327.00,0.0029
3326.00,0.0028
3325.00,0.0028
3324.00,0.0028
3323.00,0.0028
3322.00,0.0028
3321.00,0.0028
3320.00,0.0028
3319.00,0.0028
3318.00,0.0028
3317.00,0.0029
3316.00,0.0028
3315.00,0.0028
3314.00,0.0028
3313.00,0.0028
3312.00,0.0028
3311.00,0.0028
3310.00,0.0028
3309.00,0.0028
3308.00,0.0028
3307.00,0.0028
3306.00,0.0028
3305.00,0.0028
3304.00,0.0028
3303.00,0.0028
3302.00,0.0028
3301.00,0.0028
3300.00,0.0028
3299.00,0.0028
3298.00,0.0028
3297.00,0.0028
3296.00,0.0028
3295.00,0.0028
3294.00,0.0028
3293.00,0.0028
3292.00,0.0028
3291.00,0.0027
3290.00,0.0027
3289.00,0.0027
3288.00,0.0027
3287.00,0.0027
3286.00,0.0028
3285.00,0.0028
3284.00,0.0028
3283.00,0.0028
3282.00,0.0028
3281.00,0.0027
3280.00,0.0027
3279.00,0.0027
3278.00,0.0027
3277.00,0.0027
3276.00,0.0027
3275.00,0.0027
3274.00,0.0026
3273.00,0.0026
3272.00,0.0026
3271.00,0.0026
3270.00,0.0026
3269.00,0.0026
3268.00,0.0026
3267.00,0.0027
3266.00,0.0027
3265.00,0.0027
3264.00,0.0026
3263.00,0.0026
3262.00,0.0025
3261.00,0.0025
3260.00,0.0025
3259.00,0.0025
3258.00,0.0025
3257.00,0.0025
3256.00,0.0025
3255.00,0.0026
3254.00,0.0026
3253.00,0.0026
3252.00,0.0025
3251.00,0.0025
3250.00,0.0025
3249.00,0.0024
3248.00,0.0024
3247.00,0.0024
3246.00,0.0024
3245.00,0.0024
3244.00,0.0024
3243.00,0.0024
3242.00,0.0024
3241.00,0.0024
3240.00,0.0024
3239.00,0.0024
3238.00,0.0025
3237.00,0.0025
3236.00,0.0025
3235.00,0.0026
3234.00,0.0026
3233.00,0.0026
3232.00,0.0026
3231.00,0.0026
3230.00,0.0026
3229.00,0.0026
3228.00,0.0026
3227.00,0.0027
3226.00,0.0027
3225.00,0.0027
3224.00,0.0027
3223.00,0.0028
3222.00,0.0028
3221.00,0.0027
3220.00,0.0027
3219.00,0.0027
3218.00,0.0027
3217.00,0.0028
3216.00,0.0028
3215.00,0.0029
3214.00,0.0029
3213.00,0.0030
3212.00,0.0030
3211.00,0.0030
3210.00,0.0031
3209.00,0.0031
3208.00,0.0031
3207.00,0.0031
3206.00,0.0031
3205.00,0.0031
3204.00,0.0031
3203.00,0.0031
3202.00,0.0031
3201.00,0.0031
3200.00,0.0031
3199.00,0.0032
3198.00,0.0032
3197.00,0.0032
3196.00,0.0032
3195.00,0.0032
3194.00,0.0032
3193.00,0.0031
3192.00,0.0031
3191.00,0.0031
3190.00,0.0032
3189.00,0.0032
3188.00,0.0032
3187.00,0.0032
3186.00,0.0032
3185.00,0.0032
3184.00,0.0031
3183.00,0.0031
3182.00,0.0031
3181.00,0.0031
3180.00,0.0031
3179.00,0.0030
3178.00,0.0030
3177.00,0.0030
3176.00,0.0030
3175.00,0.0029
3174.00,0.0029
3173.00,0.0029
3172.00,0.0029
3171.00,0.0029
3170.00,0.0029
3169.00,0.0029
3168.00,0.0029
3167.00,0.0029
3166.00,0.0029
3165.00,0.0029
3164.00,0.0029
3163.00,0.0029
3162.00,0.0029
3161.00,0.0028
3160.00,0.0028
3159.00,0.0028
3158.00,0.0029
3157.00,0.0029
3156.00,0.0030
3155.00,0.0030
3154.00,0.0030
3153.00,0.0030
3152.00,0.0030
3151.00,0.0030
3150.00,0.0030
3149.00,0.0030
3148.00,0.0029
3147.00,0.0029
3146.00,0.0029
3145.00,0.0029
3144.00,0.0029
3143.00,0.0029
3142.00,0.0029
3141.00,0.0029
3140.00,0.0029
3139.00,0.0029
3138.00,0.0029
3137.00,0.0028
3136.00,0.0028
3135.00,0.0027
3134.00,0.0027
3133.00,0.0027
3132.00,0.0027
3131.00,0.0027
3130.00,0.0027
3129.00,0.0027
3128.00,0.0027
3127.00,0.0027
3126.00,0.0026
3125.00,0.0026
3124.00,0.0026
3123.00,0.0025
3122.00,0.0025
3121.00,0.0025
3120.00,0.0025
3119.00,0.0024
3118.00,0.0024
3117.00,0.0024
3116.00,0.0024
3115.00,0.0024
3114.00,0.0024
3113.00,0.0024
3112.00,0.0024
3111.00,0.0025
3110.00,0.0025
3109.00,0.0025
3108.00,0.0024
3107.00,0.0024
3106.00,0.0024
3105.00,0.0024
3104.00,0.0024
3103.00,0.0024
3102.00,0.0024
3101.00,0.0024
3100.00,0.0023
3099.00,0.0023
3098.00,0.0023
3097.00,0.0023
3096.00,0.0022
3095.00,0.0022
3094.00,0.0022
3093.00,0.0022
3092.00,0.0022
3091.00,0.0022
3090.00,0.0023
3089.00,0.0023
3088.00,0.0023
3087.00,0.0023
3086.00,0.0023
3085.00,0.0022
3084.00,0.0022
3083.00,0.0022
3082.00,0.0022
3081.00,0.0022
3080.00,0.0023
3079.00,0.0023
3078.00,0.0024
3077.00,0.0024
3076.00,0.0024
3075.00,0.0024
3074.00,0.0023
3073.00,0.0023
3072.00,0.0023
3071.00,0.0023
3070.00,0.0024
3069.00,0.0024
3068.00,0.0024
3067.00,0.0024
3066.00,0.0024
3065.00,0.0025
3064.00,0.0025
3063.00,0.0026
3062.00,0.0026
3061.00,0.0026
3060.00,0.0026
3059.00,0.0025
3058.00,0.0025
3057.00,0.0025
3056.00,0.0025
3055.00,0.0025
3054.00,0.0025
3053.00,0.0025
3052.00,0.0026
3051.00,0.0026
3050.00,0.0027
3049.00,0.0027
3048.00,0.0027
3047.00,0.0027
3046.00,0.0027
3045.00,0.0028
3044.00,0.0028
3043.00,0.0029
3042.00,0.0029
3041.00,0.0029
3040.00,0.0030
3039.00,0.0030
3038.00,0.0030
3037.00,0.0030
3036.00,0.0031
3035.00,0.0031
3034.00,0.0031
3033.00,0.0032
3032.00,0.0032
3031.00,0.0033
3030.00,0.0033
3029.00,0.0034
3028.00,0.0035
3027.00,0.0035
3026.00,0.0036
3025.00,0.0036
3024.00,0.0037
3023.00,0.0037
3022.00,0.0038
3021.00,0.0039
3020.00,0.0040
3019.00,0.0040
3018.00,0.0041
3017.00,0.0042
3016.00,0.0043
3015.00,0.0043
3014.00,0.0044
3013.00,0.0045
3012.00,0.0046
3011.00,0.0048
3010.00,0.0049
3009.00,0.0051
3008.00,0.0052
3007.00,0.0053
3006.00,0.0054
3005.00,0.0055
3004.00,0.0056
3003.00,0.0058
3002.00,0.0060
3001.00,0.0062
3000.00,0.0065
2999.00,0.0068
2998.00,0.0071
2997.00,0.0074
2996.00,0.0077
2995.00,0.0081
2994.00,0.0086
2993.00,0.0091
2992.00,0.0096
2991.00,0.0103
2990.00,0.0110
2989.00,0.0117
2988.00,0.0126
2987.00,0.0135
2986.00,0.0145
2985.00,0.0156
2984.00,0.0167
2983.00,0.0181
2982.00,0.0197
2981.00,0.0217
2980.00,0.0239
2979.00,0.0266
2978.00,0.0295
2977.00,0.0328
2976.00,0.0366
2975.00,0.0409
2974.00,0.0457
2973.00,0.0512
2972.00,0.0575
2971.00,0.0645
2970.00,0.0725
2969.00,0.0814
2968.00,0.0911
2967.00,0.1018
2966.00,0.1133
2965.00,0.1256
2964.00,0.1383
2963.00,0.1509
2962.00,0.1629
2961.00,0.1736
2960.00,0.1826
2959.00,0.1894
2958.00,0.1941
2957.00,0.1971
2956.00,0.1990
2955.00,0.2005
2954.00,0.2019
2953.00,0.2034
2952.00,0.2045
2951.00,0.2044
2950.00,0.2024
2949.00,0.1978
2948.00,0.1901
2947.00,0.1795
2946.00,0.1669
2945.00,0.1533
2944.00,0.1401
2943.00,0.1284
2942.00,0.1189
2941.00,0.1118
2940.00,0.1072
2939.00,0.1050
2938.00,0.1049
2937.00,0.1067
2936.00,0.1101
2935.00,0.1149
2934.00,0.1210
2933.00,0.1283
2932.00,0.1365
2931.00,0.1455
2930.00,0.1549
2929.00,0.1644
2928.00,0.1736
2927.00,0.1825
2926.00,0.1907
2925.00,0.1985
2924.00,0.2059
2923.00,0.2131
2922.00,0.2201
2921.00,0.2266
2920.00,0.2325
2919.00,0.2370
2918.00,0.2397
2917.00,0.2400
2916.00,0.2378
2915.00,0.2333
2914.00,0.2272
2913.00,0.2202
2912.00,0.2131
2911.00,0.2064
2910.00,0.2003
2909.00,0.1948
2908.00,0.1895
2907.00,0.1843
2906.00,0.1789
2905.00,0.1730
2904.00,0.1667
2903.00,0.1601
2902.00,0.1532
2901.00,0.1462
2900.00,0.1393
2899.00,0.1327
2898.00,0.1265
2897.00,0.1209
2896.00,0.1160
2895.00,0.1118
2894.00,0.1083
2893.00,0.1056
2892.00,0.1035
2891.00,0.1021
2890.00,0.1013
2889.00,0.1009
2888.00,0.1010
2887.00,0.1014
2886.00,0.1022
2885.00,0.1034
2884.00,0.1049
2883.00,0.1069
2882.00,0.1091
2881.00,0.1114
2880.00,0.1137
2879.00,0.1155
2878.00,0.1166
2877.00,0.1168
2876.00,0.1163
2875.00,0.1154
2874.00,0.1146
2873.00,0.1143
2872.00,0.1147
2871.00,0.1158
2870.00,0.1175
2869.00,0.1191
2868.00,0.1201
2867.00,0.1196
2866.00,0.1170
2865.00,0.1120
2864.00,0.1050
2863.00,0.0966
2862.00,0.0879
2861.00,0.0796
2860.00,0.0725
2859.00,0.0667
2858.00,0.0624
2857.00,0.0593
2856.00,0.0573
2855.00,0.0563
2854.00,0.0562
2853.00,0.0568
2852.00,0.0580
2851.00,0.0599
2850.00,0.0624
2849.00,0.0655
2848.00,0.0692
2847.00,0.0738
2846.00,0.0792
2845.00,0.0857
2844.00,0.0930
2843.00,0.1010
2842.00,0.1092
2841.00,0.1171
2840.00,0.1237
2839.00,0.1280
2838.00,0.1292
2837.00,0.1267
2836.00,0.1205
2835.00,0.1112
2834.00,0.1000
2833.00,0.0882
2832.00,0.0769
2831.00,0.0669
2830.00,0.0585
2829.00,0.0515
2828.00,0.0459
2827.00,0.0414
2826.00,0.0377
2825.00,0.0346
2824.00,0.0321
2823.00,0.0299
2822.00,0.0280
2821.00,0.0264
2820.00,0.0251
2819.00,0.0239
2818.00,0.0228
2817.00,0.0219
2816.00,0.0211
2815.00,0.0204
2814.00,0.0198
2813.00,0.0192
2812.00,0.0187
2811.00,0.0182
2810.00,0.0177
2809.00,0.0172
2808.00,0.0166
2807.00,0.0160
2806.00,0.0154
2805.00,0.0147
2804.00,0.0141
2803.00,0.0135
2802.00,0.0129
2801.00,0.0125
2800.00,0.0121
2799.00,0.0118
2798.00,0.0115
2797.00,0.0113
2796.00,0.0111
2795.00,0.0108
2794.00,0.0105
2793.00,0.0102
2792.00,0.0099
2791.00,0.0096
2790.00,0.0092
2789.00,0.0089
2788.00,0.0085
2787.00,0.0082
2786.00,0.0078
2785.00,0.0075
2784.00,0.0072
2783.00,0.0070
2782.00,0.0068
2781.00,0.0066
2780.00,0.0064
2779.00,0.0062
2778.00,0.0061
2777.00,0.0059
2776.00,0.0058
2775.00,0.0057
2774.00,0.0056
2773.00,0.0056
2772.00,0.0055
2771.00,0.0054
2770.00,0.0054
2769.00,0.0053
2768.00,0.0053
2767.00,0.0053
2766.00,0.0053
2765.00,0.0053
2764.00,0.0052
2763.00,0.0052
2762.00,0.0051
2761.00,0.0051
2760.00,0.0051
2759.00,0.0050
2758.00,0.0050
2757.00,0.0050
2756.00,0.0050
2755.00,0.0050
2754.00,0.0050
2753.00,0.0050
2752.00,0.0049
2751.00,0.0049
2750.00,0.0049
2749.00,0.0049
2748.00,0.0049
2747.00,0.0050
2746.00,0.0051
2745.00,0.0051
2744.00,0.0052
2743.00,0.0053
2742.00,0.0053
2741.00,0.0054
2740.00,0.0056
2739.00,0.0057
2738.00,0.0059
2737.00,0.0060
2736.00,0.0062
2735.00,0.0063
2734.00,0.0065
2733.00,0.0066
2732.00,0.0068
2731.00,0.0070
2730.00,0.0072
2729.00,0.0074
2728.00,0.0077
2727.00,0.0079
2726.00,0.0082
2725.00,0.0084
2724.00,0.0086
2723.00,0.0086
2722.00,0.0086
2721.00,0.0084
2720.00,0.0081
2719.00,0.0077
2718.00,0.0074
2717.00,0.0071
2716.00,0.0068
2715.00,0.0065
2714.00,0.0063
2713.00,0.0061
2712.00,0.0059
2711.00,0.0057
2710.00,0.0055
2709.00,0.0054
2708.00,0.0053
2707.00,0.0052
2706.00,0.0050
2705.00,0.0049
2704.00,0.0048
2703.00,0.0047
2702.00,0.0046
2701.00,0.0045
2700.00,0.0045
2699.00,0.0044
2698.00,0.0044
2697.00,0.0043
2696.00,0.0043
2695.00,0.0044
2694.00,0.0044
2693.00,0.0044
2692.00,0.0044
2691.00,0.0043
2690.00,0.0043
2689.00,0.0043
2688.00,0.0044
2687.00,0.0044
2686.00,0.0044
2685.00,0.0044
2684.00,0.0044
2683.00,0.0044
2682.00,0.0044
2681.00,0.0044
2680.00,0.0045
2679.00,0.0045
2678.00,0.0045
2677.00,0.0045
2676.00,0.0044
2675.00,0.0044
2674.00,0.0043
2673.00,0.0043
2672.00,0.0043
2671.00,0.0043
2670.00,0.0043
2669.00,0.0043
2668.00,0.0043
2667.00,0.0043
2666.00,0.0043
2665.00,0.0043
2664.00,0.0044
2663.00,0.0045
2662.00,0.0046
2661.00,0.0046
2660.00,0.0046
2659.00,0.0046
2658.00,0.0046
2657.00,0.0046
2656.00,0.0045
2655.00,0.0044
2654.00,0.0044
2653.00,0.0043
2652.00,0.0043
2651.00,0.0042
2650.00,0.0042
2649.00,0.0042
2648.00,0.0042
2647.00,0.0042
2646.00,0.0041
2645.00,0.0041
2644.00,0.0040
2643.00,0.0040
2642.00,0.0039
2641.00,0.0038
2640.00,0.0038
2639.00,0.0037
2638.00,0.0037
2637.00,0.0036
2636.00,0.0036
2635.00,0.0037
2634.00,0.0037
2633.00,0.0037
2632.00,0.0037
2631.00,0.0037
2630.00,0.0037
2629.00,0.0037
2628.00,0.0038
2627.00,0.0038
2626.00,0.0039
2625.00,0.0039
2624.00,0.0039
2623.00,0.0039
2622.00,0.0039
2621.00,0.0038
2620.00,0.0039
2619.00,0.0039
2618.00,0.0039
2617.00,0.0039
2616.00,0.0039
2615.00,0.0039
2614.00,0.0039
2613.00,0.0039
2612.00,0.0038
2611.00,0.0038
2610.00,0.0037
2609.00,0.0036
2608.00,0.0035
2607.00,0.0034
2606.00,0.0033
2605.00,0.0032
2604.00,0.0031
2603.00,0.0031
2602.00,0.0031
2601.00,0.0030
2600.00,0.0030
2599.00,0.0030
2598.00,0.0030
2597.00,0.0030
2596.00,0.0030
2595.00,0.0030
2594.00,0.0031
2593.00,0.0031
2592.00,0.0031
2591.00,0.0031
2590.00,0.0032
2589.00,0.0034
2588.00,0.0035
2587.00,0.0036
2586.00,0.0037
2585.00,0.0038
2584.00,0.0038
2583.00,0.0038
2582.00,0.0038
2581.00,0.0038
2580.00,0.0037
2579.00,0.0036
2578.00,0.0035
2577.00,0.0034
2576.00,0.0033
2575.00,0.0032
2574.00,0.0031
2573.00,0.0030
2572.00,0.0030
2571.00,0.0029
2570.00,0.0029
2569.00,0.0028
2568.00,0.0027
2567.00,0.0026
2566.00,0.0025
2565.00,0.0025
2564.00,0.0025
2563.00,0.0024
2562.00,0.0024
2561.00,0.0024
2560.00,0.0024
2559.00,0.0023
2558.00,0.0023
2557.00,0.0022
2556.00,0.0022
2555.00,0.0021
2554.00,0.0022
2553.00,0.0022
2552.00,0.0022
2551.00,0.0021
2550.00,0.0021
2549.00,0.0021
2548.00,0.0020
2547.00,0.0020
2546.00,0.0019
2545.00,0.0019
2544.00,0.0018
2543.00,0.0018
2542.00,0.0018
2541.00,0.0018
2540.00,0.0017
2539.00,0.0017
2538.00,0.0016
2537.00,0.0016
2536.00,0.0016
2535.00,0.0015
2534.00,0.0015
2533.00,0.0014
2532.00,0.0014
2531.00,0.0014
2530.00,0.0014
2529.00,0.0015
2528.00,0.0015
2527.00,0.0015
2526.00,0.0015
2525.00,0.0014
2524.00,0.0014
2523.00,0.0013
2522.00,0.0013
2521.00,0.0013
2520.00,0.0012
2519.00,0.0012
2518.00,0.0011
2517.00,0.0011
2516.00,0.0010
2515.00,0.0010
2514.00,0.0009
2513.00,0.0009
2512.00,0.0010
2511.00,0.0010
2510.00,0.0011
2509.00,0.0011
2508.00,0.0010
2507.00,0.0009
2506.00,0.0009
2505.00,0.0009
2504.00,0.0009
2503.00,0.0010
2502.00,0.0010
2501.00,0.0009
2500.00,0.0009
2499.00,0.0009
2498.00,0.0009
2497.00,0.0009
2496.00,0.0010
2495.00,0.0010
2494.00,0.0010
2493.00,0.0010
2492.00,0.0009
2491.00,0.0009
2490.00,0.0009
2489.00,0.0008
2488.00,0.0008
2487.00,0.0008
2486.00,0.0008
2485.00,0.0008
2484.00,0.0009
2483.00,0.0009
2482.00,0.0009
2481.00,0.0009
2480.00,0.0009
2479.00,0.0009
2478.00,0.0009
2477.00,0.0009
2476.00,0.0009
2475.00,0.0009
2474.00,0.0010
2473.00,0.0010
2472.00,0.0010
2471.00,0.0009
2470.00,0.0008
2469.00,0.0007
2468.00,0.0006
2467.00,0.0006
2466.00,0.0006
2465.00,0.0007
2464.00,0.0008
2463.00,0.0009
2462.00,0.0009
2461.00,0.0010
2460.00,0.0010
2459.00,0.0010
2458.00,0.0009
2457.00,0.0009
2456.00,0.0009
2455.00,0.0009
2454.00,0.0010
2453.00,0.0010
2452.00,0.0011
2451.00,0.0011
2450.00,0.0011
2449.00,0.0010
2448.00,0.0010
2447.00,0.0010
2446.00,0.0010
2445.00,0.0011
2444.00,0.0011
2443.00,0.0011
2442.00,0.0011
2441.00,0.0010
2440.00,0.0010
2439.00,0.0011
2438.00,0.0011
2437.00,0.0011
2436.00,0.0011
2435.00,0.0010
2434.00,0.0009
2433.00,0.0009
2432.00,0.0010
2431.00,0.0011
2430.00,0.0012
2429.00,0.0012
2428.00,0.0012
2427.00,0.0012
2426.00,0.0011
2425.00,0.0011
2424.00,0.0011
2423.00,0.0010
2422.00,0.0010
2421.00,0.0010
2420.00,0.0010
2419.00,0.0009
2418.00,0.0009
2417.00,0.0010
2416.00,0.0010
2415.00,0.0010
2414.00,0.0011
2413.00,0.0010
2412.00,0.0010
2411.00,0.0010
2410.00,0.0010
2409.00,0.0009
2408.00,0.0009
2407.00,0.0008
2406.00,0.0008
2405.00,0.0007
2404.00,0.0007
2403.00,0.0008
2402.00,0.0008
2401.00,0.0008
2400.00,0.0008
2399.00,0.0008
2398.00,0.0008
2397.00,0.0008
2396.00,0.0008
2395.00,0.0008
2394.00,0.0008
2393.00,0.0008
2392.00,0.0008
2391.00,0.0007
2390.00,0.0007
2389.00,0.0007
2388.00,0.0007
2387.00,0.0007
2386.00,0.0007
2385.00,0.0006
2384.00,0.0006
2383.00,0.0005
2382.00,0.0005
2381.00,0.0004
2380.00,0.0004
2379.00,0.0004
2378.00,0.0005
2377.00,0.0005
2376.00,0.0005
2375.00,0.0005
2374.00,0.0005
2373.00,0.0005
2372.00,0.0005
2371.00,0.0005
2370.00,0.0005
2369.00,0.0005
2368.00,0.0005
2367.00,0.0005
2366.00,0.0005
2365.00,0.0005
2364.00,0.0005
2363.00,0.0005
2362.00,0.0005
2361.00,0.0005
2360.00,0.0005
2359.00,0.0006
2358.00,0.0006
2357.00,0.0007
2356.00,0.0007
2355.00,0.0008
2354.00,0.0007
2353.00,0.0006
2352.00,0.0006
2351.00,0.0006
2350.00,0.0006
2349.00,0.0006
2348.00,0.0006
2347.00,0.0005
2346.00,0.0005
2345.00,0.0005
2344.00,0.0006
2343.00,0.0007
2342.00,0.0008
2341.00,0.0008
2340.00,0.0008
2339.00,0.0009
2338.00,0.0009
2337.00,0.0009
2336.00,0.0009
2335.00,0.0009
2334.00,0.0008
2333.00,0.0008
2332.00,0.0007
2331.00,0.0007
2330.00,0.0007
2329.00,0.0008
2328.00,0.0010
2327.00,0.0014
2326.00,0.0018
2325.00,0.0020
2324.00,0.0021
2323.00,0.0021
2322.00,0.0019
2321.00,0.0017
2320.00,0.0015
2319.00,0.0014
2318.00,0.0014
2317.00,0.0013
2316.00,0.0012
2315.00,0.0012
2314.00,0.0011
2313.00,0.0010
2312.00,0.0010
2311.00,0.0009
2310.00,0.0008
2309.00,0.0008
2308.00,0.0008
2307.00,0.0008
2306.00,0.0008
2305.00,0.0008
2304.00,0.0008
2303.00,0.0008
2302.00,0.0008
2301.00,0.0009
2300.00,0.0010
2299.00,0.0011
2298.00,0.0011
2297.00,0.0011
2296.00,0.0011
2295.00,0.0012
2294.00,0.0013
2293.00,0.0014
2292.00,0.0014
2291.00,0.0015
2290.00,0.0016
2289.00,0.0017
2288.00,0.0018
2287.00,0.0019
2286.00,0.0019
2285.00,0.0019
2284.00,0.0017
2283.00,0.0016
2282.00,0.0015
2281.00,0.0014
2280.00,0.0014
2279.00,0.0014
2278.00,0.0013
2277.00,0.0013
2276.00,0.0013
2275.00,0.0012
2274.00,0.0012
2273.00,0.0012
2272.00,0.0012
2271.00,0.0013
2270.00,0.0013
2269.00,0.0013
2268.00,0.0013
2267.00,0.0013
2266.00,0.0013
2265.00,0.0012
2264.00,0.0012
2263.00,0.0012
2262.00,0.0012
2261.00,0.0012
2260.00,0.0013
2259.00,0.0012
2258.00,0.0011
2257.00,0.0010
2256.00,0.0010
2255.00,0.0009
2254.00,0.0008
2253.00,0.0007
2252.00,0.0007
2251.00,0.0008
2250.00,0.0009
2249.00,0.0010
2248.00,0.0010
2247.00,0.0009
2246.00,0.0008
2245.00,0.0007
2244.00,0.0006
2243.00,0.0006
2242.00,0.0007
2241.00,0.0008
2240.00,0.0009
2239.00,0.0010
2238.00,0.0011
2237.00,0.0011
2236.00,0.0012
2235.00,0.0012
2234.00,0.0012
2233.00,0.0012
2232.00,0.0012
2231.00,0.0011
2230.00,0.0011
2229.00,0.0011
2228.00,0.0011
2227.00,0.0011
2226.00,0.0010
2225.00,0.0009
2224.00,0.0008
2223.00,0.0006
2222.00,0.0005
2221.00,0.0005
2220.00,0.0005
2219.00,0.0006
2218.00,0.0007
2217.00,0.0009
2216.00,0.0010
2215.00,0.0010
2214.00,0.0009
2213.00,0.0006
2212.00,0.0004
2211.00,0.0004
2210.00,0.0004
2209.00,0.0006
2208.00,0.0008
2207.00,0.0009
2206.00,0.0009
2205.00,0.0009
2204.00,0.0009
2203.00,0.0009
2202.00,0.0009
2201.00,0.0010
2200.00,0.0012
2199.00,0.0014
2198.00,0.0014
2197.00,0.0013
2196.00,0.0013
2195.00,0.0013
2194.00,0.0013
2193.00,0.0013
2192.00,0.0012
2191.00,0.0011
2190.00,0.0010
2189.00,0.0008
2188.00,0.0007
2187.00,0.0007
2186.00,0.0008
2185.00,0.0009
2184.00,0.0009
2183.00,0.0009
2182.00,0.0009
2181.00,0.0009
2180.00,0.0009
2179.00,0.0008
2178.00,0.0008
2177.00,0.0008
2176.00,0.0008
2175.00,0.0007
2174.00,0.0006
2173.00,0.0005
2172.00,0.0006
2171.00,0.0009
2170.00,0.0013
2169.00,0.0017
2168.00,0.0020
2167.00,0.0022
2166.00,0.0025
2165.00,0.0026
2164.00,0.0027
2163.00,0.0027
2162.00,0.0025
2161.00,0.0016
2160.00,0.0002
2159.00,-0.0015
2158.00,-0.0029
2157.00,-0.0035
2156.00,-0.0035
2155.00,-0.0031
2154.00,-0.0027
2153.00,-0.0022
2152.00,-0.0017
2151.00,-0.0013
2150.00,-0.0011
2149.00,-0.0011
2148.00,-0.0012
2147.00,-0.0012
2146.00,-0.0011
2145.00,-0.0010
2144.00,-0.0010
2143.00,-0.0010
2142.00,-0.0010
2141.00,-0.0010
2140.00,-0.0010
2139.00,-0.0011
2138.00,-0.0011
2137.00,-0.0011
2136.00,-0.0013
2135.00,-0.0017
2134.00,-0.0020
2133.00,-0.0021
2132.00,-0.0018
2131.00,-0.0015
2130.00,-0.0012
2129.00,-0.0010
2128.00,-0.0010
2127.00,-0.0010
2126.00,-0.0010
2125.00,-0.0009
2124.00,-0.0007
2123.00,-0.0006
2122.00,-0.0005
2121.00,-0.0004
2120.00,-0.0003
2119.00,-0.0003
2118.00,-0.0003
2117.00,-0.0002
2116.00,-0.0001
2115.00,0.0000
2114.00,0.0001
2113.00,0.0002
2112.00,0.0002
2111.00,0.0003
2110.00,0.0003
2109.00,0.0003
2108.00,0.0003
2107.00,0.0003
2106.00,0.0003
2105.00,0.0003
2104.00,0.0003
2103.00,0.0003
2102.00,0.0002
2101.00,0.0001
2100.00,0.0001
2099.00,-0.0000
2098.00,-0.0001
2097.00,-0.0002
2096.00,-0.0004
2095.00,-0.0006
2094.00,-0.0007
2093.00,-0.0006
2092.00,-0.0004
2091.00,-0.0002
2090.00,-0.0001
2089.00,0.0000
2088.00,0.0002
2087.00,0.0003
2086.00,0.0003
2085.00,0.0004
2084.00,0.0004
2083.00,0.0003
2082.00,0.0003
2081.00,0.0003
2080.00,0.0003
2079.00,0.0003
2078.00,0.0002
2077.00,0.0001
2076.00,-0.0000
2075.00,-0.0001
2074.00,-0.0001
2073.00,0.0000
2072.00,0.0001
2071.00,0.0001
2070.00,0.0001
2069.00,-0.0000
2068.00,-0.0002
2067.00,-0.0003
2066.00,-0.0003
2065.00,-0.0004
2064.00,-0.0004
2063.00,-0.0004
2062.00,-0.0004
2061.00,-0.0003
2060.00,-0.0002
2059.00,-0.0001
2058.00,-0.0000
2057.00,0.0001
2056.00,0.0001
2055.00,0.0000
2054.00,0.0000
2053.00,0.0003
2052.00,0.0007
2051.00,0.0008
2050.00,0.0007
2049.00,0.0004
2048.00,0.0002
2047.00,0.0000
2046.00,-0.0002
2045.00,-0.0003
2044.00,-0.0003
2043.00,-0.0001
2042.00,0.0002
2041.00,0.0005
2040.00,0.0005
2039.00,0.0003
2038.00,0.0002
2037.00,0.0001
2036.00,0.0001
2035.00,0.0001
2034.00,-0.0000
2033.00,-0.0001
2032.00,-0.0002
2031.00,-0.0004
2030.00,-0.0005
2029.00,-0.0007
2028.00,-0.0008
2027.00,-0.0009
2026.00,-0.0011
2025.00,-0.0011
2024.00,-0.0012
2023.00,-0.0014
2022.00,-0.0017
2021.00,-0.0019
2020.00,-0.0020
2019.00,-0.0019
2018.00,-0.0018
2017.00,-0.0015
2016.00,-0.0012
2015.00,-0.0008
2014.00,-0.0005
2013.00,-0.0005
2012.00,-0.0007
2011.00,-0.0012
2010.00,-0.0016
2009.00,-0.0019
2008.00,-0.0019
2007.00,-0.0020
2006.00,-0.0020
2005.00,-0.0021
2004.00,-0.0021
2003.00,-0.0019
2002.00,-0.0015
2001.00,-0.0011
2000.00,-0.0009
1999.00,-0.0008
1998.00,-0.0007
1997.00,-0.0007
1996.00,-0.0007
1995.00,-0.0007
1994.00,-0.0007
1993.00,-0.0006
1992.00,-0.0006
1991.00,-0.0007
1990.00,-0.0009
1989.00,-0.0010
1988.00,-0.0010
1987.00,-0.0009
1986.00,-0.0007
1985.00,-0.0006
1984.00,-0.0004
1983.00,-0.0001
1982.00,0.0002
1981.00,0.0004
1980.00,0.0004
1979.00,0.0001
1978.00,-0.0004
1977.00,-0.0010
1976.00,-0.0013
1975.00,-0.0014
1974.00,-0.0012
1973.00,-0.0010
1972.00,-0.0010
1971.00,-0.0012
1970.00,-0.0015
1969.00,-0.0016
1968.00,-0.0017
1967.00,-0.0019
1966.00,-0.0020
1965.00,-0.0020
1964.00,-0.0020
1963.00,-0.0020
1962.00,-0.0020
1961.00,-0.0019
1960.00,-0.0019
1959.00,-0.0019
1958.00,-0.0019
1957.00,-0.0019
1956.00,-0.0019
1955.00,-0.0019
1954.00,-0.0019
1953.00,-0.0019
1952.00,-0.0018
1951.00,-0.0018
1950.00,-0.0017
1949.00,-0.0017
1948.00,-0.0017
1947.00,-0.0017
1946.00,-0.0018
1945.00,-0.0018
1944.00,-0.0019
1943.00,-0.0019
1942.00,-0.0018
1941.00,-0.0016
1940.00,-0.0014
1939.00,-0.0012
1938.00,-0.0012
1937.00,-0.0012
1936.00,-0.0013
1935.00,-0.0013
1934.00,-0.0014
1933.00,-0.0014
1932.00,-0.0013
1931.00,-0.0013
1930.00,-0.0013
1929.00,-0.0013
1928.00,-0.0012
1927.00,-0.0011
1926.00,-0.0010
1925.00,-0.0009
1924.00,-0.0007
1923.00,-0.0005
1922.00,-0.0005
1921.00,-0.0005
1920.00,-0.0005
1919.00,-0.0006
1918.00,-0.0006
1917.00,-0.0006
1916.00,-0.0004
1915.00,-0.0003
1914.00,-0.0003
1913.00,-0.0003
1912.00,-0.0004
1911.00,-0.0006
1910.00,-0.0007
1909.00,-0.0008
1908.00,-0.0007
1907.00,-0.0007
1906.00,-0.0006
1905.00,-0.0006
1904.00,-0.0006
1903.00,-0.0004
1902.00,-0.0003
1901.00,-0.0002
1900.00,-0.0002
1899.00,-0.0003
1898.00,-0.0004
1897.00,-0.0005
1896.00,-0.0005
1895.00,-0.0004
1894.00,-0.0003
1893.00,-0.0003
1892.00,-0.0003
1891.00,-0.0002
1890.00,-0.0002
1889.00,-0.0003
1888.00,-0.0004
1887.00,-0.0004
1886.00,-0.0004
1885.00,-0.0003
1884.00,-0.0003
1883.00,-0.0003
1882.00,-0.0003
1881.00,-0.0003
1880.00,-0.0003
1879.00,-0.0002
1878.00,-0.0002
1877.00,-0.0001
1876.00,-0.0001
1875.00,-0.0002
1874.00,-0.0002
1873.00,-0.0003
1872.00,-0.0003
1871.00,-0.0003
1870.00,-0.0003
1869.00,-0.0003
1868.00,-0.0002
1867.00,-0.0002
1866.00,-0.0002
1865.00,-0.0002
1864.00,-0.0001
1863.00,-0.0001
1862.00,-0.0001
1861.00,-0.0001
1860.00,-0.0001
1859.00,-0.0001
1858.00,-0.0001
1857.00,-0.0001
1856.00,-0.0001
1855.00,-0.0001
1854.00,-0.0001
1853.00,-0.0001
1852.00,-0.0001
1851.00,-0.0000
1850.00,0.0000
1849.00,0.0001
1848.00,0.0001
1847.00,0.0001
1846.00,0.0001
1845.00,0.0001
1844.00,0.0001
1843.00,0.0000
1842.00,0.0000
1841.00,0.0001
1840.00,0.0001
1839.00,0.0002
1838.00,0.0002
1837.00,0.0002
1836.00,0.0003
1835.00,0.0003
1834.00,0.0003
1833.00,0.0004
1832.00,0.0004
1831.00,0.0004
1830.00,0.0003
1829.00,0.0002
1828.00,0.0001
1827.00,0.0001
1826.00,0.0001
1825.00,0.0001
1824.00,0.0001
1823.00,0.0001
1822.00,0.0001
1821.00,0.0001
1820.00,0.0001
1819.00,0.0000
1818.00,-0.0001
1817.00,-0.0002
1816.00,-0.0002
1815.00,-0.0001
1814.00,-0.0001
1813.00,-0.0000
1812.00,0.0000
1811.00,0.0001
1810.00,0.0002
1809.00,0.0003
1808.00,0.0004
1807.00,0.0003
1806.00,0.0003
1805.00,0.0002
1804.00,0.0002
1803.00,0.0002
1802.00,0.0002
1801.00,0.0003
1800.00,0.0004
1799.00,0.0004
1798.00,0.0004
1797.00,0.0004
1796.00,0.0004
1795.00,0.0005
1794.00,0.0006
1793.00,0.0006
1792.00,0.0006
1791.00,0.0006
1790.00,0.0006
1789.00,0.0006
1788.00,0.0006
1787.00,0.0006
1786.00,0.0005
1785.00,0.0006
1784.00,0.0006
1783.00,0.0006
1782.00,0.0006
1781.00,0.0006
1780.00,0.0006
1779.00,0.0006
1778.00,0.0006
1777.00,0.0006
1776.00,0.0006
1775.00,0.0007
1774.00,0.0007
1773.00,0.0008
1772.00,0.0008
1771.00,0.0008
1770.00,0.0008
1769.00,0.0008
1768.00,0.0009
1767.00,0.0009
1766.00,0.0009
1765.00,0.0009
1764.00,0.0009
1763.00,0.0010
1762.00,0.0010
1761.00,0.0011
1760.00,0.0011
1759.00,0.0011
1758.00,0.0011
1757.00,0.0011
1756.00,0.0012
1755.00,0.0012
1754.00,0.0012
1753.00,0.0012
1752.00,0.0012
1751.00,0.0013
1750.00,0.0013
1749.00,0.0014
1748.00,0.0014
1747.00,0.0014
1746.00,0.0014
1745.00,0.0014
1744.00,0.0015
1743.00,0.0016
1742.00,0.0016
1741.00,0.0017
1740.00,0.0017
1739.00,0.0018
1738.00,0.0018
1737.00,0.0019
1736.00,0.0019
1735.00,0.0018
1734.00,0.0017
1733.00,0.0017
1732.00,0.0016
1731.00,0.0016
1730.00,0.0016
1729.00,0.0016
1728.00,0.0016
1727.00,0.0016
1726.00,0.0016
1725.00,0.0017
1724.00,0.0017
1723.00,0.0017
1722.00,0.0017
1721.00,0.0017
1720.00,0.0017
1719.00,0.0017
1718.00,0.0017
1717.00,0.0017
1716.00,0.0018
1715.00,0.0018
1714.00,0.0019
1713.00,0.0019
1712.00,0.0019
1711.00,0.0019
1710.00,0.0018
1709.00,0.0018
1708.00,0.0019
1707.00,0.0019
1706.00,0.0019
1705.00,0.0020
1704.00,0.0020
1703.00,0.0020
1702.00,0.0021
1701.00,0.0021
1700.00,0.0021
1699.00,0.0021
1698.00,0.0021
1697.00,0.0021
1696.00,0.0022
1695.00,0.0022
1694.00,0.0023
1693.00,0.0023
1692.00,0.0023
1691.00,0.0023
1690.00,0.0023
1689.00,0.0023
1688.00,0.0023
1687.00,0.0023
1686.00,0.0023
1685.00,0.0023
1684.00,0.0024
1683.00,0.0025
1682.00,0.0025
1681.00,0.0026
1680.00,0.0026
1679.00,0.0026
1678.00,0.0027
1677.00,0.0027
1676.00,0.0027
1675.00,0.0027
1674.00,0.0028
1673.00,0.0028
1672.00,0.0029
1671.00,0.0029
1670.00,0.0029
1669.00,0.0029
1668.00,0.0030
1667.00,0.0030
1666.00,0.0030
1665.00,0.0030
1664.00,0.0030
1663.00,0.0030
1662.00,0.0031
1661.00,0.0031
1660.00,0.0032
1659.00,0.0032
1658.00,0.0032
1657.00,0.0033
1656.00,0.0034
1655.00,0.0035
1654.00,0.0036
1653.00,0.0036
1652.00,0.0035
1651.00,0.0035
1650.00,0.0035
1649.00,0.0036
1648.00,0.0038
1647.00,0.0039
1646.00,0.0039
1645.00,0.0039
1644.00,0.0039
1643.00,0.0039
1642.00,0.0038
1641.00,0.0038
1640.00,0.0038
1639.00,0.0039
1638.00,0.0039
1637.00,0.0040
1636.00,0.0040
1635.00,0.0040
1634.00,0.0040
1633.00,0.0040
1632.00,0.0040
1631.00,0.0041
1630.00,0.0041
1629.00,0.0041
1628.00,0.0041
1627.00,0.0041
1626.00,0.0041
1625.00,0.0041
1624.00,0.0041
1623.00,0.0041
1622.00,0.0041
1621.00,0.0041
1620.00,0.0041
1619.00,0.0040
1618.00,0.0040
1617.00,0.0039
1616.00,0.0039
1615.00,0.0039
1614.00,0.0039
1613.00,0.0039
1612.00,0.0039
1611.00,0.0039
1610.00,0.0039
1609.00,0.0039
1608.00,0.0039
1607.00,0.0039
1606.00,0.0039
1605.00,0.0040
1604.00,0.0040
1603.00,0.0040
1602.00,0.0039
1601.00,0.0039
1600.00,0.0038
1599.00,0.0038
1598.00,0.0038
1597.00,0.0038
1596.00,0.0039
1595.00,0.0039
1594.00,0.0039
1593.00,0.0039
1592.00,0.0039
1591.00,0.0040
1590.00,0.0041
1589.00,0.0042
1588.00,0.0043
1587.00,0.0044
1586.00,0.0046
1585.00,0.0048
1584.00,0.0050
1583.00,0.0053
1582.00,0.0055
1581.00,0.0057
1580.00,0.0060
1579.00,0.0062
1578.00,0.0063
1577.00,0.0064
1576.00,0.0064
1575.00,0.0064
1574.00,0.0063
1573.00,0.0061
1572.00,0.0060
1571.00,0.0058
1570.00,0.0055
1569.00,0.0052
1568.00,0.0051
1567.00,0.0050
1566.00,0.0049
1565.00,0.0049
1564.00,0.0048
1563.00,0.0048
1562.00,0.0048
1561.00,0.0048
1560.00,0.0048
1559.00,0.0047
1558.00,0.0048
1557.00,0.0048
1556.00,0.0049
1555.00,0.0050
1554.00,0.0051
1553.00,0.0052
1552.00,0.0053
1551.00,0.0055
1550.00,0.0057
1549.00,0.0060
1548.00,0.0062
1547.00,0.0064
1546.00,0.0066
1545.00,0.0069
1544.00,0.0072
1543.00,0.0075
1542.00,0.0077
1541.00,0.0078
1540.00,0.0077
1539.00,0.0074
1538.00,0.0070
1537.00,0.0067
1536.00,0.0065
1535.00,0.0063
1534.00,0.0059
1533.00,0.0055
1532.00,0.0053
1531.00,0.0050
1530.00,0.0049
1529.00,0.0048
1528.00,0.0047
1527.00,0.0047
1526.00,0.0047
1525.00,0.0047
1524.00,0.0047
1523.00,0.0047
1522.00,0.0046
1521.00,0.0046
1520.00,0.0047
1519.00,0.0047
1518.00,0.0046
1517.00,0.0047
1516.00,0.0048
1515.00,0.0048
1514.00,0.0049
1513.00,0.0050
1512.00,0.0051
1511.00,0.0052
1510.00,0.0052
1509.00,0.0053
1508.00,0.0054
1507.00,0.0055
1506.00,0.0056
1505.00,0.0058
1504.00,0.0059
1503.00,0.0060
1502.00,0.0062
1501.00,0.0064
1500.00,0.0066
1499.00,0.0068
1498.00,0.0071
1497.00,0.0074
1496.00,0.0077
1495.00,0.0079
1494.00,0.0082
1493.00,0.0085
1492.00,0.0089
1491.00,0.0092
1490.00,0.0096
1489.00,0.0101
1488.00,0.0107
1487.00,0.0113
1486.00,0.0118
1485.00,0.0125
1484.00,0.0133
1483.00,0.0141
1482.00,0.0150
1481.00,0.0162
1480.00,0.0174
1479.00,0.0187
1478.00,0.0201
1477.00,0.0220
1476.00,0.0243
1475.00,0.0268
1474.00,0.0301
1473.00,0.0351
1472.00,0.0411
1471.00,0.0472
1470.00,0.0532
1469.00,0.0595
1468.00,0.0663
1467.00,0.0738
1466.00,0.0823
1465.00,0.0915
1464.00,0.0998
1463.00,0.1059
1462.00,0.1102
1461.00,0.1135
1460.00,0.1162
1459.00,0.1185
1458.00,0.1207
1457.00,0.1231
1456.00,0.1246
1455.00,0.1252
1454.00,0.1252
1453.00,0.1247
1452.00,0.1231
1451.00,0.1201
1450.00,0.1151
1449.00,0.1077
1448.00,0.0980
1447.00,0.0874
1446.00,0.0777
1445.00,0.0692
1444.00,0.0619
1443.00,0.0560
1442.00,0.0516
1441.00,0.0485
1440.00,0.0466
1439.00,0.0456
1438.00,0.0451
1437.00,0.0446
1436.00,0.0431
1435.00,0.0402
1434.00,0.0364
1433.00,0.0319
1432.00,0.0273
1431.00,0.0232
1430.00,0.0201
1429.00,0.0178
1428.00,0.0163
1427.00,0.0153
1426.00,0.0147
1425.00,0.0141
1424.00,0.0136
1423.00,0.0133
1422.00,0.0131
1421.00,0.0129
1420.00,0.0126
1419.00,0.0123
1418.00,0.0121
1417.00,0.0118
1416.00,0.0116
1415.00,0.0114
1414.00,0.0113
1413.00,0.0111
1412.00,0.0110
1411.00,0.0109
1410.00,0.0109
1409.00,0.0108
1408.00,0.0107
1407.00,0.0106
1406.00,0.0106
1405.00,0.0106
1404.00,0.0105
1403.00,0.0106
1402.00,0.0107
1401.00,0.0107
1400.00,0.0107
1399.00,0.0109
1398.00,0.0111
1397.00,0.0114
1396.00,0.0116
1395.00,0.0120
1394.00,0.0126
1393.00,0.0131
1392.00,0.0137
1391.00,0.0146
1390.00,0.0159
1389.00,0.0177
1388.00,0.0204
1387.00,0.0244
1386.00,0.0296
1385.00,0.0361
1384.00,0.0447
1383.00,0.0560
1382.00,0.0706
1381.00,0.0886
1380.00,0.1103
1379.00,0.1343
1378.00,0.1569
1377.00,0.1733
1376.00,0.1787
1375.00,0.1702
1374.00,0.1501
1373.00,0.1252
1372.00,0.1019
1371.00,0.0823
1370.00,0.0664
1369.00,0.0542
1368.00,0.0456
1367.00,0.0403
1366.00,0.0375
1365.00,0.0363
1364.00,0.0366
1363.00,0.0379
1362.00,0.0400
1361.00,0.0422
1360.00,0.0437
1359.00,0.0441
1358.00,0.0430
1357.00,0.0404
1356.00,0.0367
1355.00,0.0326
1354.00,0.0286
1353.00,0.0252
1352.00,0.0225
1351.00,0.0203
1350.00,0.0185
1349.00,0.0171
1348.00,0.0160
1347.00,0.0151
1346.00,0.0143
1345.00,0.0137
1344.00,0.0132
1343.00,0.0129
1342.00,0.0126
1341.00,0.0124
1340.00,0.0122
1339.00,0.0120
1338.00,0.0119
1337.00,0.0117
1336.00,0.0117
1335.00,0.0118
1334.00,0.0121
1333.00,0.0125
1332.00,0.0129
1331.00,0.0133
1330.00,0.0135
1329.00,0.0134
1328.00,0.0131
1327.00,0.0126
1326.00,0.0120
1325.00,0.0114
1324.00,0.0108
1323.00,0.0102
1322.00,0.0097
1321.00,0.0094
1320.00,0.0091
1319.00,0.0089
1318.00,0.0088
1317.00,0.0086
1316.00,0.0084
1315.00,0.0083
1314.00,0.0083
1313.00,0.0083
1312.00,0.0085
1311.00,0.0089
1310.00,0.0096
1309.00,0.0105
1308.00,0.0118
1307.00,0.0133
1306.00,0.0148
1305.00,0.0159
1304.00,0.0162
1303.00,0.0157
1302.00,0.0149
1301.00,0.0141
1300.00,0.0135
1299.00,0.0132
1298.00,0.0130
1297.00,0.0129
1296.00,0.0127
1295.00,0.0124
1294.00,0.0119
1293.00,0.0113
1292.00,0.0107
1291.00,0.0102
1290.00,0.0097
1289.00,0.0094
1288.00,0.0090
1287.00,0.0087
1286.00,0.0085
1285.00,0.0082
1284.00,0.0080
1283.00,0.0078
1282.00,0.0077
1281.00,0.0076
1280.00,0.0075
1279.00,0.0074
1278.00,0.0074
1277.00,0.0073
1276.00,0.0073
1275.00,0.0073
1274.00,0.0072
1273.00,0.0072
1272.00,0.0072
1271.00,0.0073
1270.00,0.0073
1269.00,0.0074
1268.00,0.0075
1267.00,0.0076
1266.00,0.0078
1265.00,0.0081
1264.00,0.0083
1263.00,0.0087
1262.00,0.0092
1261.00,0.0098
1260.00,0.0106
1259.00,0.0116
1258.00,0.0127
1257.00,0.0136
1256.00,0.0140
1255.00,0.0138
1254.00,0.0131
1253.00,0.0120
1252.00,0.0109
1251.00,0.0100
1250.00,0.0093
1249.00,0.0088
1248.00,0.0085
1247.00,0.0084
1246.00,0.0083
1245.00,0.0082
1244.00,0.0081
1243.00,0.0080
1242.00,0.0079
1241.00,0.0078
1240.00,0.0077
1239.00,0.0077
1238.00,0.0076
1237.00,0.0076
1236.00,0.0075
1235.00,0.0075
1234.00,0.0075
1233.00,0.0075
1232.00,0.0075
1231.00,0.0075
1230.00,0.0076
1229.00,0.0077
1228.00,0.0078
1227.00,0.0079
1226.00,0.0081
1225.00,0.0083
1224.00,0.0086
1223.00,0.0090
1222.00,0.0093
1221.00,0.0095
1220.00,0.0097
1219.00,0.0099
1218.00,0.0099
1217.00,0.0098
1216.00,0.0096
1215.00,0.0093
1214.00,0.0090
1213.00,0.0087
1212.00,0.0084
1211.00,0.0082
1210.00,0.0081
1209.00,0.0079
1208.00,0.0078
1207.00,0.0077
1206.00,0.0076
1205.00,0.0075
1204.00,0.0074
1203.00,0.0074
1202.00,0.0073
1201.00,0.0073
1200.00,0.0073
1199.00,0.0073
1198.00,0.0074
1197.00,0.0074
1196.00,0.0074
1195.00,0.0074
1194.00,0.0075
1193.00,0.0075
1192.00,0.0074
1191.00,0.0074
1190.00,0.0073
1189.00,0.0073
1188.00,0.0074
1187.00,0.0074
1186.00,0.0075
1185.00,0.0075
1184.00,0.0077
1183.00,0.0078
1182.00,0.0081
1181.00,0.0084
1180.00,0.0088
1179.00,0.0095
1178.00,0.0103
1177.00,0.0115
1176.00,0.0130
1175.00,0.0150
1174.00,0.0177
1173.00,0.0210
1172.00,0.0250
1171.00,0.0294
1170.00,0.0337
1169.00,0.0373
1168.00,0.0396
1167.00,0.0402
1166.00,0.0392
1165.00,0.0371
1164.00,0.0344
1163.00,0.0316
1162.00,0.0291
1161.00,0.0269
1160.00,0.0251
1159.00,0.0238
1158.00,0.0227
1157.00,0.0218
1156.00,0.0210
1155.00,0.0204
1154.00,0.0199
1153.00,0.0195
1152.00,0.0190
1151.00,0.0183
1150.00,0.0174
1149.00,0.0163
1148.00,0.0152
1147.00,0.0142
1146.00,0.0133
1145.00,0.0125
1144.00,0.0118
1143.00,0.0111
1142.00,0.0104
1141.00,0.0098
1140.00,0.0092
1139.00,0.0086
1138.00,0.0082
1137.00,0.0078
1136.00,0.0075
1135.00,0.0074
1134.00,0.0072
1133.00,0.0071
1132.00,0.0070
1131.00,0.0069
1130.00,0.0070
1129.00,0.0071
1128.00,0.0073
1127.00,0.0074
1126.00,0.0074
1125.00,0.0074
1124.00,0.0073
1123.00,0.0073
1122.00,0.0072
1121.00,0.0072
1120.00,0.0073
1119.00,0.0074
1118.00,0.0076
1117.00,0.0077
1116.00,0.0079
1115.00,0.0080
1114.00,0.0082
1113.00,0.0083
1112.00,0.0085
1111.00,0.0088
1110.00,0.0091
1109.00,0.0095
1108.00,0.0099
1107.00,0.0105
1106.00,0.0112
1105.00,0.0120
1104.00,0.0125
1103.00,0.0129
1102.00,0.0128
1101.00,0.0125
1100.00,0.0119
1099.00,0.0113
1098.00,0.0107
1097.00,0.0101
1096.00,0.0096
1095.00,0.0091
1094.00,0.0088
1093.00,0.0085
1092.00,0.0082
1091.00,0.0079
1090.00,0.0077
1089.00,0.0074
1088.00,0.0073
1087.00,0.0072
1086.00,0.0072
1085.00,0.0071
1084.00,0.0071
1083.00,0.0070
1082.00,0.0070
1081.00,0.0069
1080.00,0.0067
1079.00,0.0065
1078.00,0.0064
1077.00,0.0063
1076.00,0.0063
1075.00,0.0064
1074.00,0.0064
1073.00,0.0063
1072.00,0.0063
1071.00,0.0062
1070.00,0.0062
1069.00,0.0062
1068.00,0.0063
1067.00,0.0064
1066.00,0.0065
1065.00,0.0066
1064.00,0.0067
1063.00,0.0067
1062.00,0.0067
1061.00,0.0067
1060.00,0.0067
1059.00,0.0068
1058.00,0.0070
1057.00,0.0071
1056.00,0.0071
1055.00,0.0072
1054.00,0.0074
1053.00,0.0076
1052.00,0.0077
1051.00,0.0080
1050.00,0.0082
1049.00,0.0086
1048.00,0.0090
1047.00,0.0094
1046.00,0.0098
1045.00,0.0100
1044.00,0.0100
1043.00,0.0099
1042.00,0.0096
1041.00,0.0093
1040.00,0.0091
1039.00,0.0091
1038.00,0.0092
1037.00,0.0093
1036.00,0.0093
1035.00,0.0092
1034.00,0.0090
1033.00,0.0088
1032.00,0.0087
1031.00,0.0086
1030.00,0.0085
1029.00,0.0083
1028.00,0.0083
1027.00,0.0082
1026.00,0.0082
1025.00,0.0082
1024.00,0.0082
1023.00,0.0083
1022.00,0.0084
1021.00,0.0085
1020.00,0.0086
1019.00,0.0088
1018.00,0.0090
1017.00,0.0093
1016.00,0.0096
1015.00,0.0100
1014.00,0.0106
1013.00,0.0112
1012.00,0.0117
1011.00,0.0123
1010.00,0.0127
1009.00,0.0132
1008.00,0.0139
1007.00,0.0148
1006.00,0.0160
1005.00,0.0177
1004.00,0.0198
1003.00,0.0228
1002.00,0.0266
1001.00,0.0313
1000.00,0.0364
999.00,0.0410
998.00,0.0436
997.00,0.0433
996.00,0.0402
995.00,0.0352
994.00,0.0296
993.00,0.0245
992.00,0.0205
991.00,0.0175
990.00,0.0154
989.00,0.0140
988.00,0.0131
987.00,0.0126
986.00,0.0125
985.00,0.0128
984.00,0.0134
983.00,0.0143
982.00,0.0155
981.00,0.0173
980.00,0.0199
979.00,0.0233
978.00,0.0277
977.00,0.0330
976.00,0.0390
975.00,0.0450
974.00,0.0498
973.00,0.0522
972.00,0.0512
971.00,0.0469
970.00,0.0405
969.00,0.0334
968.00,0.0271
967.00,0.0221
966.00,0.0185
965.00,0.0158
964.00,0.0139
963.00,0.0125
962.00,0.0114
961.00,0.0106
960.00,0.0099
959.00,0.0093
958.00,0.0088
957.00,0.0083
956.00,0.0081
955.00,0.0079
954.00,0.0077
953.00,0.0075
952.00,0.0074
951.00,0.0072
950.00,0.0071
949.00,0.0070
948.00,0.0070
947.00,0.0072
946.00,0.0074
945.00,0.0076
944.00,0.0079
943.00,0.0082
942.00,0.0084
941.00,0.0086
940.00,0.0085
939.00,0.0083
938.00,0.0079
937.00,0.0075
936.00,0.0071
935.00,0.0068
934.00,0.0065
933.00,0.0063
932.00,0.0061
931.00,0.0059
930.00,0.0058
929.00,0.0057
928.00,0.0057
927.00,0.0057
926.00,0.0058
925.00,0.0058
924.00,0.0059
923.00,0.0060
922.00,0.0061
921.00,0.0062
920.00,0.0064
919.00,0.0066
918.00,0.0067
917.00,0.0067
916.00,0.0066
915.00,0.0065
914.00,0.0065
913.00,0.0066
912.00,0.0068
911.00,0.0069
910.00,0.0070
909.00,0.0072
908.00,0.0074
907.00,0.0078
906.00,0.0085
905.00,0.0096
904.00,0.0111
903.00,0.0128
902.00,0.0146
901.00,0.0163
900.00,0.0174
899.00,0.0177
898.00,0.0171
897.00,0.0157
896.00,0.0139
895.00,0.0122
894.00,0.0108
893.00,0.0097
892.00,0.0089
891.00,0.0083
890.00,0.0078
889.00,0.0074
888.00,0.0072
887.00,0.0071
886.00,0.0071
885.00,0.0071
884.00,0.0070
883.00,0.0070
882.00,0.0071
881.00,0.0071
880.00,0.0071
879.00,0.0071
878.00,0.0072
877.00,0.0073
876.00,0.0072
875.00,0.0071
874.00,0.0070
873.00,0.0070
872.00,0.0071
871.00,0.0071
870.00,0.0071
869.00,0.0072
868.00,0.0072
867.00,0.0073
866.00,0.0074
865.00,0.0075
864.00,0.0076
863.00,0.0076
862.00,0.0078
861.00,0.0080
860.00,0.0082
859.00,0.0084
858.00,0.0086
857.00,0.0089
856.00,0.0091
855.00,0.0094
854.00,0.0096
853.00,0.0099
852.00,0.0102
851.00,0.0106
850.00,0.0112
849.00,0.0121
848.00,0.0135
847.00,0.0157
846.00,0.0190
845.00,0.0236
844.00,0.0298
843.00,0.0367
842.00,0.0421
841.00,0.0439
840.00,0.0411
839.00,0.0352
838.00,0.0286
837.00,0.0232
836.00,0.0195
835.00,0.0171
834.00,0.0155
833.00,0.0144
832.00,0.0138
831.00,0.0133
830.00,0.0130
829.00,0.0127
828.00,0.0123
827.00,0.0120
826.00,0.0117
825.00,0.0116
824.00,0.0116
823.00,0.0116
822.00,0.0115
821.00,0.0113
820.00,0.0112
819.00,0.0112
818.00,0.0114
817.00,0.0119
816.00,0.0126
815.00,0.0135
814.00,0.0147
813.00,0.0161
812.00,0.0176
811.00,0.0190
810.00,0.0201
809.00,0.0207
808.00,0.0206
807.00,0.0197
806.00,0.0183
805.00,0.0167
804.00,0.0153
803.00,0.0141
802.00,0.0132
801.00,0.0123
800.00,0.0114
799.00,0.0105
798.00,0.0099
797.00,0.0095
796.00,0.0092
795.00,0.0090
794.00,0.0086
793.00,0.0083
792.00,0.0081
791.00,0.0080
790.00,0.0080
789.00,0.0080
788.00,0.0078
787.00,0.0076
786.00,0.0073
785.00,0.0070
784.00,0.0067
783.00,0.0064
782.00,0.0061
781.00,0.0059
780.00,0.0059
779.00,0.0059
778.00,0.0058
777.00,0.0058
776.00,0.0059
775.00,0.0060
774.00,0.0063
773.00,0.0066
772.00,0.0070
771.00,0.0074
770.00,0.0078
769.00,0.0081
768.00,0.0082
767.00,0.0082
766.00,0.0082
765.00,0.0080
764.00,0.0076
763.00,0.0071
762.00,0.0066
761.00,0.0063
760.00,0.0060
759.00,0.0058
758.00,0.0055
757.00,0.0053
756.00,0.0051
755.00,0.0049
754.00,0.0048
753.00,0.0048
752.00,0.0047
751.00,0.0048
750.00,0.0049
749.00,0.0050
748.00,0.0050
747.00,0.0050
746.00,0.0049
745.00,0.0048
744.00,0.0048
743.00,0.0048
742.00,0.0050
741.00,0.0052
740.00,0.0053
739.00,0.0054
738.00,0.0055
737.00,0.0057
736.00,0.0057
735.00,0.0058
734.00,0.0059
733.00,0.0061
732.00,0.0062
731.00,0.0062
730.00,0.0062
729.00,0.0062
728.00,0.0061
727.00,0.0061
726.00,0.0060
725.00,0.0058
724.00,0.0057
723.00,0.0056
722.00,0.0055
721.00,0.0053
720.00,0.0052
719.00,0.0052
718.00,0.0053
717.00,0.0054
716.00,0.0053
715.00,0.0052
714.00,0.0050
713.00,0.0048
712.00,0.0049
711.00,0.0050
710.00,0.0053
709.00,0.0055
708.00,0.0055
707.00,0.0055
706.00,0.0054
705.00,0.0054
704.00,0.0053
703.00,0.0052
702.00,0.0051
701.00,0.0050
700.00,0.0049
699.00,0.0048
698.00,0.0047
697.00,0.0046
696.00,0.0046
695.00,0.0046
694.00,0.0046
693.00,0.0046
692.00,0.0045
691.00,0.0045
690.00,0.0044
689.00,0.0044
688.00,0.0045
687.00,0.0046
686.00,0.0048
685.00,0.0049
684.00,0.0049
683.00,0.0049
682.00,0.0048
681.00,0.0047
680.00,0.0045
679.00,0.0044
678.00,0.0045
677.00,0.0046
676.00,0.0047
675.00,0.0047
674.00,0.0047
673.00,0.0046
672.00,0.0046
671.00,0.0048
670.00,0.0051
669.00,0.0054
668.00,0.0056
667.00,0.0055
666.00,0.0053
665.00,0.0050
664.00,0.0048
663.00,0.0047
662.00,0.0047
661.00,0.0047
660.00,0.0047
659.00,0.0047
658.00,0.0044
657.00,0.0041
656.00,0.0037
655.00,0.0036
654.00,0.0038
653.00,0.0041
652.00,0.0044
651.00,0.0046
650.00,0.0047
649.00,0.0048
648.00,0.0048
647.00,0.0048
646.00,0.0048
645.00,0.0048
644.00,0.0049
643.00,0.0049
642.00,0.0048
641.00,0.0047
640.00,0.0047
639.00,0.0047
638.00,0.0047
637.00,0.0048
636.00,0.0049
635.00,0.0050
634.00,0.0051
633.00,0.0052
632.00,0.0053
631.00,0.0052
630.00,0.0051
629.00,0.0049
628.00,0.0047
627.00,0.0046
626.00,0.0046
625.00,0.0046
624.00,0.0047
623.00,0.0049
622.00,0.0050
621.00,0.0050
620.00,0.0049
619.00,0.0051
618.00,0.0053
617.00,0.0054
616.00,0.0052
615.00,0.0051
614.00,0.0050
613.00,0.0050
612.00,0.0049
611.00,0.0044
610.00,0.0040
609.00,0.0038
608.00,0.0040
607.00,0.0044
606.00,0.0048
605.00,0.0050
604.00,0.0049
603.00,0.0048
602.00,0.0048
601.00,0.0049
600.00,0.0050
599.00,0.0052
598.00,0.0052
597.00,0.0051
596.00,0.0051
595.00,0.0050
594.00,0.0050
593.00,0.0051
592.00,0.0049
591.00,0.0046
590.00,0.0041
589.00,0.0038
588.00,0.0038
587.00,0.0042
586.00,0.0045
585.00,0.0045
584.00,0.0045
583.00,0.0045
582.00,0.0048
581.00,0.0052
580.00,0.0055
579.00,0.0055
578.00,0.0055
577.00,0.0054
576.00,0.0054
575.00,0.0053
574.00,0.0052
573.00,0.0050
572.00,0.0049
571.00,0.0050
570.00,0.0053
569.00,0.0056
568.00,0.0058
567.00,0.0059
566.00,0.0057
565.00,0.0053
564.00,0.0048
563.00,0.0045
562.00,0.0043
561.00,0.0041
560.00,0.0042
559.00,0.0047
558.00,0.0055
557.00,0.0061
556.00,0.0062
555.00,0.0060
554.00,0.0059
553.00,0.0059
552.00,0.0061
551.00,0.0062
550.00,0.0063
549.00,0.0064
548.00,0.0066
547.00,0.0067
546.00,0.0066
545.00,0.0060
544.00,0.0055
543.00,0.0053
542.00,0.0054
541.00,0.0054
540.00,0.0054
539.00,0.0056
538.00,0.0062
537.00,0.0066
536.00,0.0066
535.00,0.0065
534.00,0.0069
533.00,0.0076
532.00,0.0081
531.00,0.0081
530.00,0.0079
529.00,0.0078
528.00,0.0079
527.00,0.0079
526.00,0.0078
525.00,0.0075
524.00,0.0071
523.00,0.0068
522.00,0.0069
521.00,0.0075
520.00,0.0083
519.00,0.0090
518.00,0.0092
517.00,0.0087
516.00,0.0077
515.00,0.0066
514.00,0.0061
513.00,0.0061
512.00,0.0060
511.00,0.0057
510.00,0.0054
509.00,0.0056
508.00,0.0061
507.00,0.0065
506.00,0.0065
505.00,0.0064
504.00,0.0064
503.00,0.0064
502.00,0.0065
501.00,0.0066
500.00,0.0065
499.00,0.0062
498.00,0.0059
497.00,0.0057
496.00,0.0057
495.00,0.0055
494.00,0.0053
493.00,0.0052
492.00,0.0054
491.00,0.0060
490.00,0.0068
489.00,0.0074
488.00,0.0078
487.00,0.0079
486.00,0.0080
485.00,0.0081
484.00,0.0081
483.00,0.0076
482.00,0.0066
481.00,0.0057
480.00,0.0052
479.00,0.0052
478.00,0.0054
477.00,0.0059
476.00,0.0063
475.00,0.0068
474.00,0.0072
473.00,0.0075
472.00,0.0078
471.00,0.0080
470.00,0.0082
469.00,0.0087
468.00,0.0095
467.00,0.0104
466.00,0.0110
465.00,0.0111
464.00,0.0108
463.00,0.0106
462.00,0.0105
461.00,0.0107
460.00,0.0110
459.00,0.0113
458.00,0.0115
457.00,0.0117
456.00,0.0117
455.00,0.0114
454.00,0.0106
453.00,0.0096
452.00,0.0088
451.00,0.0081
450.00,0.0072
