Created as New Dataset,Sample 005 By Administrator Date Friday, September 05 2025
cm-1,A
4000.00,0.0008
3999.00,0.0008
3998.00,0.0008
3997.00,0.0008
3996.00,0.0008
3995.00,0.0008
3994.00,0.0008
3993.00,0.0008
3992.00,0.0008
3991.00,0.0008
3990.00,0.0008
3989.00,0.0008
3988.00,0.0008
3987.00,0.0008
3986.00,0.0008
3985.00,0.0008
3984.00,0.0008
3983.00,0.0008
3982.00,0.0008
3981.00,0.0008
3980.00,0.0008
3979.00,0.0007
3978.00,0.0007
3977.00,0.0006
3976.00,0.0006
3975.00,0.0006
3974.00,0.0006
3973.00,0.0006
3972.00,0.0006
3971.00,0.0006
3970.00,0.0006
3969.00,0.0006
3968.00,0.0006
3967.00,0.0006
3966.00,0.0007
3965.00,0.0006
3964.00,0.0006
3963.00,0.0006
3962.00,0.0006
3961.00,0.0006
3960.00,0.0006
3959.00,0.0006
3958.00,0.0006
3957.00,0.0006
3956.00,0.0006
3955.00,0.0006
3954.00,0.0006
3953.00,0.0006
3952.00,0.0005
3951.00,0.0005
3950.00,0.0005
3949.00,0.0005
3948.00,0.0006
3947.00,0.0006
3946.00,0.0006
3945.00,0.0006
3944.00,0.0006
3943.00,0.0006
3942.00,0.0006
3941.00,0.0006
3940.00,0.0006
3939.00,0.0006
3938.00,0.0006
3937.00,0.0006
3936.00,0.0006
3935.00,0.0006
3934.00,0.0006
3933.00,0.0006
3932.00,0.0006
3931.00,0.0006
3930.00,0.0006
3929.00,0.0006
3928.00,0.0006
3927.00,0.0005
3926.00,0.0005
3925.00,0.0005
3924.00,0.0005
3923.00,0.0005
3922.00,0.0005
3921.00,0.0005
3920.00,0.0005
3919.00,0.0005
3918.00,0.0005
3917.00,0.0005
3916.00,0.0005
3915.00,0.0005
3914.00,0.0005
3913.00,0.0005
3912.00,0.0005
3911.00,0.0005
3910.00,0.0005
3909.00,0.0005
3908.00,0.0005
3907.00,0.0005
3906.00,0.0005
3905.00,0.0006
3904.00,0.0006
3903.00,0.0006
3902.00,0.0006
3901.00,0.0006
3900.00,0.0006
3899.00,0.0005
3898.00,0.0005
3897.00,0.0005
3896.00,0.0005
3895.00,0.0006
3894.00,0.0006
3893.00,0.0006
3892.00,0.0007
3891.00,0.0007
3890.00,0.0007
3889.00,0.0007
3888.00,0.0007
3887.00,0.0006
3886.00,0.0006
3885.00,0.0006
3884.00,0.0006
3883.00,0.0006
3882.00,0.0006
3881.00,0.0005
3880.00,0.0005
3879.00,0.0005
3878.00,0.0005
3877.00,0.0005
3876.00,0.0005
3875.00,0.0005
3874.00,0.0005
3873.00,0.0005
3872.00,0.0004
3871.00,0.0004
3870.00,0.0004
3869.00,0.0005
3868.00,0.0005
3867.00,0.0005
3866.00,0.0005
3865.00,0.0005
3864.00,0.0005
3863.00,0.0005
3862.00,0.0004
3861.00,0.0004
3860.00,0.0004
3859.00,0.0004
3858.00,0.0005
3857.00,0.0005
3856.00,0.0005
3855.00,0.0005
3854.00,0.0004
3853.00,0.0004
3852.00,0.0004
3851.00,0.0004
3850.00,0.0005
3849.00,0.0005
3848.00,0.0005
3847.00,0.0006
3846.00,0.0006
3845.00,0.0006
3844.00,0.0005
3843.00,0.0005
3842.00,0.0005
3841.00,0.0005
3840.00,0.0004
3839.00,0.0004
3838.00,0.0004
3837.00,0.0004
3836.00,0.0004
3835.00,0.0004
3834.00,0.0004
3833.00,0.0005
3832.00,0.0005
3831.00,0.0005
3830.00,0.0005
3829.00,0.0005
3828.00,0.0005
3827.00,0.0005
3826.00,0.0005
3825.00,0.0005
3824.00,0.0006
3823.00,0.0005
3822.00,0.0005
3821.00,0.0004
3820.00,0.0004
3819.00,0.0005
3818.00,0.0005
3817.00,0.0005
3816.00,0.0005
3815.00,0.0005
3814.00,0.0005
3813.00,0.0005
3812.00,0.0005
3811.00,0.0005
3810.00,0.0006
3809.00,0.0006
3808.00,0.0006
3807.00,0.0006
3806.00,0.0006
3805.00,0.0007
3804.00,0.0007
3803.00,0.0007
3802.00,0.0007
3801.00,0.0006
3800.00,0.0006
3799.00,0.0006
3798.00,0.0006
3797.00,0.0006
3796.00,0.0006
3795.00,0.0006
3794.00,0.0006
3793.00,0.0006
3792.00,0.0006
3791.00,0.0006
3790.00,0.0006
3789.00,0.0006
3788.00,0.0005
3787.00,0.0006
3786.00,0.0006
3785.00,0.0006
3784.00,0.0006
3783.00,0.0006
3782.00,0.0006
3781.00,0.0006
3780.00,0.0006
3779.00,0.0007
3778.00,0.0007
3777.00,0.0007
3776.00,0.0007
3775.00,0.0007
3774.00,0.0007
3773.00,0.0006
3772.00,0.0006
3771.00,0.0006
3770.00,0.0006
3769.00,0.0006
3768.00,0.0007
3767.00,0.0007
3766.00,0.0007
3765.00,0.0006
3764.00,0.0006
3763.00,0.0006
3762.00,0.0006
3761.00,0.0005
3760.00,0.0005
3759.00,0.0005
3758.00,0.0005
3757.00,0.0006
3756.00,0.0006
3755.00,0.0006
3754.00,0.0007
3753.00,0.0006
3752.00,0.0006
3751.00,0.0006
3750.00,0.0006
3749.00,0.0006
3748.00,0.0006
3747.00,0.0006
3746.00,0.0006
3745.00,0.0006
3744.00,0.0005
3743.00,0.0004
3742.00,0.0004
3741.00,0.0003
3740.00,0.0003
3739.00,0.0003
3738.00,0.0004
3737.00,0.0004
3736.00,0.0004
3735.00,0.0004
3734.00,0.0005
3733.00,0.0005
3732.00,0.0005
3731.00,0.0004
3730.00,0.0004
3729.00,0.0003
3728.00,0.0003
3727.00,0.0003
3726.00,0.0003
3725.00,0.0003
3724.00,0.0003
3723.00,0.0004
3722.00,0.0004
3721.00,0.0004
3720.00,0.0004
3719.00,0.0004
3718.00,0.0005
3717.00,0.0005
3716.00,0.0005
3715.00,0.0005
3714.00,0.0005
3713.00,0.0004
3712.00,0.0004
3711.00,0.0004
3710.00,0.0004
3709.00,0.0004
3708.00,0.0004
3707.00,0.0004
3706.00,0.0004
3705.00,0.0004
3704.00,0.0004
3703.00,0.0004
3702.00,0.0004
3701.00,0.0004
3700.00,0.0004
3699.00,0.0004
3698.00,0.0004
3697.00,0.0004
3696.00,0.0004
3695.00,0.0004
3694.00,0.0003
3693.00,0.0003
3692.00,0.0003
3691.00,0.0002
3690.00,0.0002
3689.00,0.0003
3688.00,0.0003
3687.00,0.0004
3686.00,0.0004
3685.00,0.0004
3684.00,0.0004
3683.00,0.0003
3682.00,0.0003
3681.00,0.0003
3680.00,0.0002
3679.00,0.0002
3678.00,0.0003
3677.00,0.0003
3676.00,0.0003
3675.00,0.0003
3674.00,0.0002
3673.00,0.0002
3672.00,0.0002
3671.00,0.0002
3670.00,0.0003
3669.00,0.0003
3668.00,0.0003
3667.00,0.0003
3666.00,0.0002
3665.00,0.0002
3664.00,0.0002
3663.00,0.0002
3662.00,0.0002
3661.00,0.0002
3660.00,0.0002
3659.00,0.0003
3658.00,0.0003
3657.00,0.0003
3656.00,0.0002
3655.00,0.0002
3654.00,0.0001
3653.00,0.0001
3652.00,0.0000
3651.00,-0.0000
3650.00,-0.0000
3649.00,0.0000
3648.00,0.0001
3647.00,0.0002
3646.00,0.0002
3645.00,0.0002
3644.00,0.0002
3643.00,0.0002
3642.00,0.0002
3641.00,0.0002
3640.00,0.0002
3639.00,0.0002
3638.00,0.0002
3637.00,0.0002
3636.00,0.0002
3635.00,0.0002
3634.00,0.0002
3633.00,0.0002
3632.00,0.0002
3631.00,0.0002
3630.00,0.0001
3629.00,0.0001
3628.00,0.0001
3627.00,0.0001
3626.00,0.0001
3625.00,0.0001
3624.00,0.0001
3623.00,0.0001
3622.00,0.0002
3621.00,0.0002
3620.00,0.0002
3619.00,0.0002
3618.00,0.0002
3617.00,0.0001
3616.00,0.0001
3615.00,0.0001
3614.00,0.0001
3613.00,0.0001
3612.00,0.0001
3611.00,0.0002
3610.00,0.0002
3609.00,0.0002
3608.00,0.0002
3607.00,0.0002
3606.00,0.0002
3605.00,0.0002
3604.00,0.0002
3603.00,0.0002
3602.00,0.0002
3601.00,0.0002
3600.00,0.0002
3599.00,0.0002
3598.00,0.0002
3597.00,0.0002
3596.00,0.0002
3595.00,0.0002
3594.00,0.0002
3593.00,0.0002
3592.00,0.0002
3591.00,0.0002
3590.00,0.0002
3589.00,0.0002
3588.00,0.0002
3587.00,0.0002
3586.00,0.0002
3585.00,0.0003
3584.00,0.0003
3583.00,0.0003
3582.00,0.0003
3581.00,0.0003
3580.00,0.0003
3579.00,0.0003
3578.00,0.0004
3577.00,0.0004
3576.00,0.0004
3575.00,0.0003
3574.00,0.0003
3573.00,0.0003
3572.00,0.0004
3571.00,0.0004
3570.00,0.0004
3569.00,0.0004
3568.00,0.0004
3567.00,0.0004
3566.00,0.0005
3565.00,0.0005
3564.00,0.0004
3563.00,0.0004
3562.00,0.0004
3561.00,0.0005
3560.00,0.0005
3559.00,0.0005
3558.00,0.0005
3557.00,0.0005
3556.00,0.0005
3555.00,0.0005
3554.00,0.0006
3553.00,0.0006
3552.00,0.0006
3551.00,0.0006
3550.00,0.0006
3549.00,0.0006
3548.00,0.0006
3547.00,0.0006
3546.00,0.0006
3545.00,0.0007
3544.00,0.0007
3543.00,0.0007
3542.00,0.0007
3541.00,0.0007
3540.00,0.0006
3539.00,0.0006
3538.00,0.0006
3537.00,0.0007
3536.00,0.0007
3535.00,0.0008
3534.00,0.0008
3533.00,0.0008
3532.00,0.0007
3531.00,0.0007
3530.00,0.0007
3529.00,0.0007
3528.00,0.0007
3527.00,0.0007
3526.00,0.0007
3525.00,0.0007
3524.00,0.0007
3523.00,0.0008
3522.00,0.0008
3521.00,0.0008
3520.00,0.0008
3519.00,0.0008
3518.00,0.0008
3517.00,0.0008
3516.00,0.0008
3515.00,0.0008
3514.00,0.0009
3513.00,0.0009
3512.00,0.0009
3511.00,0.0009
3510.00,0.0009
3509.00,0.0009
3508.00,0.0010
3507.00,0.0010
3506.00,0.0010
3505.00,0.0010
3504.00,0.0010
3503.00,0.0009
3502.00,0.0010
3501.00,0.0010
3500.00,0.0011
3499.00,0.0011
3498.00,0.0012
3497.00,0.0011
3496.00,0.0011
3495.00,0.0011
3494.00,0.0011
3493.00,0.0011
3492.00,0.0011
3491.00,0.0011
3490.00,0.0011
3489.00,0.0011
3488.00,0.0011
3487.00,0.0011
3486.00,0.0011
3485.00,0.0011
3484.00,0.0011
3483.00,0.0012
3482.00,0.0012
3481.00,0.0012
3480.00,0.0013
3479.00,0.0013
3478.00,0.0013
3477.00,0.0012
3476.00,0.0012
3475.00,0.0011
3474.00,0.0011
3473.00,0.0011
3472.00,0.0012
3471.00,0.0012
3470.00,0.0012
3469.00,0.0012
3468.00,0.0012
3467.00,0.0013
3466.00,0.0013
3465.00,0.0013
3464.00,0.0013
3463.00,0.0013
3462.00,0.0012
3461.00,0.0012
3460.00,0.0013
3459.00,0.0013
3458.00,0.0013
3457.00,0.0014
3456.00,0.0014
3455.00,0.0014
3454.00,0.0014
3453.00,0.0014
3452.00,0.0014
3451.00,0.0013
3450.00,0.0013
3449.00,0.0014
3448.00,0.0014
3447.00,0.0015
3446.00,0.0015
3445.00,0.0015
3444.00,0.0015
3443.00,0.0015
3442.00,0.0015
3441.00,0.0016
3440.00,0.0016
3439.00,0.0016
3438.00,0.0016
3437.00,0.0016
3436.00,0.0015
3435.00,0.0015
3434.00,0.0016
3433.00,0.0016
3432.00,0.0016
3431.00,0.0017
3430.00,0.0017
3429.00,0.0017
3428.00,0.0017
3427.00,0.0017
3426.00,0.0016
3425.00,0.0016
3424.00,0.0016
3423.00,0.0016
3422.00,0.0017
3421.00,0.0017
3420.00,0.0017
3419.00,0.0017
3418.00,0.0017
3417.00,0.0018
3416.00,0.0018
3415.00,0.0018
3414.00,0.0018
3413.00,0.0018
3412.00,0.0019
3411.00,0.0019
3410.00,0.0019
3409.00,0.0019
3408.00,0.0019
3407.00,0.0019
3406.00,0.0019
3405.00,0.0019
3404.00,0.0018
3403.00,0.0018
3402.00,0.0018
3401.00,0.0017
3400.00,0.0017
3399.00,0.0018
3398.00,0.0018
3397.00,0.0019
3396.00,0.0019
3395.00,0.0019
3394.00,0.0018
3393.00,0.0018
3392.00,0.0018
3391.00,0.0018
3390.00,0.0018
3389.00,0.0019
3388.00,0.0019
3387.00,0.0019
3386.00,0.0019
3385.00,0.0019
3384.00,0.0019
3383.00,0.0019
3382.00,0.0019
3381.00,0.0019
3380.00,0.0019
3379.00,0.0019
3378.00,0.0019
3377.00,0.0019
3376.00,0.0018
3375.00,0.0018
3374.00,0.0018
3373.00,0.0018
3372.00,0.0018
3371.00,0.0019
3370.00,0.0019
3369.00,0.0020
3368.00,0.0020
3367.00,0.0020
3366.00,0.0020
3365.00,0.0020
3364.00,0.0020
3363.00,0.0020
3362.00,0.0020
3361.00,0.0020
3360.00,0.0020
3359.00,0.0020
3358.00,0.0020
3357.00,0.0020
3356.00,0.0020
3355.00,0.0020
3354.00,0.0020
3353.00,0.0021
3352.00,0.0021
3351.00,0.0021
3350.00,0.0021
3349.00,0.0021
3348.00,0.0021
3347.00,0.0021
3346.00,0.0020
3345.00,0.0020
3344.00,0.0020
3343.00,0.0020
3342.00,0.0020
3341.00,0.0019
3340.00,0.0019
3339.00,0.0020
3338.00,0.0020
3337.00,0.0020
3336.00,0.0020
3335.00,0.0020
3334.00,0.0020
3333.00,0.0019
3332.00,0.0019
3331.00,0.0019
3330.00,0.0019
3329.00,0.0018
3328.00,0.0018
3327.00,0.0019
3326.00,0.0019
3325.00,0.0019
3324.00,0.0019
3323.00,0.0019
3322.00,0.0019
3321.00,0.0019
3320.00,0.0019
3319.00,0.0018
3318.00,0.0018
3317.00,0.0018
3316.00,0.0018
3315.00,0.0018
3314.00,0.0019
3313.00,0.0019
3312.00,0.0019
3311.00,0.0019
3310.00,0.0019
3309.00,0.0019
3308.00,0.0019
3307.00,0.0018
3306.00,0.0018
3305.00,0.0018
3304.00,0.0018
3303.00,0.0019
3302.00,0.0019
3301.00,0.0020
3300.00,0.0020
3299.00,0.0020
3298.00,0.0019
3297.00,0.0019
3296.00,0.0019
3295.00,0.0019
3294.00,0.0019
3293.00,0.0019
3292.00,0.0019
3291.00,0.0019
3290.00,0.0019
3289.00,0.0020
3288.00,0.0020
3287.00,0.0019
3286.00,0.0018
3285.00,0.0018
3284.00,0.0018
3283.00,0.0018
3282.00,0.0018
3281.00,0.0018
3280.00,0.0018
3279.00,0.0018
3278.00,0.0018
3277.00,0.0018
3276.00,0.0018
3275.00,0.0018
3274.00,0.0018
3273.00,0.0018
3272.00,0.0018
3271.00,0.0018
3270.00,0.0018
3269.00,0.0018
3268.00,0.0018
3267.00,0.0018
3266.00,0.0019
3265.00,0.0019
3264.00,0.0019
3263.00,0.0019
3262.00,0.0019
3261.00,0.0019
3260.00,0.0018
3259.00,0.0018
3258.00,0.0018
3257.00,0.0018
3256.00,0.0018
3255.00,0.0018
3254.00,0.0018
3253.00,0.0018
3252.00,0.0018
3251.00,0.0018
3250.00,0.0018
3249.00,0.0018
3248.00,0.0018
3247.00,0.0018
3246.00,0.0018
3245.00,0.0018
3244.00,0.0018
3243.00,0.0018
3242.00,0.0018
3241.00,0.0018
3240.00,0.0018
3239.00,0.0018
3238.00,0.0018
3237.00,0.0018
3236.00,0.0019
3235.00,0.0018
3234.00,0.0018
3233.00,0.0019
3232.00,0.0019
3231.00,0.0019
3230.00,0.0019
3229.00,0.0019
3228.00,0.0020
3227.00,0.0020
3226.00,0.0020
3225.00,0.0020
3224.00,0.0020
3223.00,0.0020
3222.00,0.0020
3221.00,0.0021
3220.00,0.0021
3219.00,0.0021
3218.00,0.0022
3217.00,0.0022
3216.00,0.0022
3215.00,0.0022
3214.00,0.0022
3213.00,0.0022
3212.00,0.0022
3211.00,0.0023
3210.00,0.0023
3209.00,0.0023
3208.00,0.0024
3207.00,0.0024
3206.00,0.0024
3205.00,0.0025
3204.00,0.0025
3203.00,0.0026
3202.00,0.0026
3201.00,0.0026
3200.00,0.0027
3199.00,0.0026
3198.00,0.0026
3197.00,0.0026
3196.00,0.0026
3195.00,0.0026
3194.00,0.0026
3193.00,0.0026
3192.00,0.0026
3191.00,0.0026
3190.00,0.0026
3189.00,0.0026
3188.00,0.0026
3187.00,0.0025
3186.00,0.0025
3185.00,0.0025
3184.00,0.0025
3183.00,0.0025
3182.00,0.0024
3181.00,0.0024
3180.00,0.0024
3179.00,0.0024
3178.00,0.0024
3177.00,0.0024
3176.00,0.0024
3175.00,0.0024
3174.00,0.0024
3173.00,0.0024
3172.00,0.0024
3171.00,0.0024
3170.00,0.0024
3169.00,0.0024
3168.00,0.0024
3167.00,0.0023
3166.00,0.0023
3165.00,0.0023
3164.00,0.0023
3163.00,0.0023
3162.00,0.0023
3161.00,0.0023
3160.00,0.0023
3159.00,0.0023
3158.00,0.0023
3157.00,0.0023
3156.00,0.0023
3155.00,0.0023
3154.00,0.0023
3153.00,0.0022
3152.00,0.0023
3151.00,0.0023
3150.00,0.0023
3149.00,0.0023
3148.00,0.0023
3147.00,0.0024
3146.00,0.0024
3145.00,0.0024
3144.00,0.0024
3143.00,0.0024
3142.00,0.0024
3141.00,0.0024
3140.00,0.0023
3139.00,0.0023
3138.00,0.0023
3137.00,0.0023
3136.00,0.0023
3135.00,0.0023
3134.00,0.0023
3133.00,0.0023
3132.00,0.0023
3131.00,0.0022
3130.00,0.0022
3129.00,0.0021
3128.00,0.0021
3127.00,0.0021
3126.00,0.0021
3125.00,0.0022
3124.00,0.0022
3123.00,0.0022
3122.00,0.0022
3121.00,0.0022
3120.00,0.0021
3119.00,0.0020
3118.00,0.0020
3117.00,0.0019
3116.00,0.0019
3115.00,0.0019
3114.00,0.0019
3113.00,0.0019
3112.00,0.0019
3111.00,0.0020
3110.00,0.0020
3109.00,0.0020
3108.00,0.0020
3107.00,0.0020
3106.00,0.0020
3105.00,0.0020
3104.00,0.0020
3103.00,0.0020
3102.00,0.0020
3101.00,0.0019
3100.00,0.0019
3099.00,0.0019
3098.00,0.0019
3097.00,0.0019
3096.00,0.0019
3095.00,0.0019
3094.00,0.0019
3093.00,0.0019
3092.00,0.0019
3091.00,0.0019
3090.00,0.0019
3089.00,0.0019
3088.00,0.0019
3087.00,0.0019
3086.00,0.0019
3085.00,0.0019
3084.00,0.0019
3083.00,0.0019
3082.00,0.0019
3081.00,0.0019
3080.00,0.0019
3079.00,0.0019
3078.00,0.0019
3077.00,0.0019
3076.00,0.0019
3075.00,0.0019
3074.00,0.0020
3073.00,0.0020
3072.00,0.0021
3071.00,0.0021
3070.00,0.0021
3069.00,0.0021
3068.00,0.0020
3067.00,0.0020
3066.00,0.0021
3065.00,0.0021
3064.00,0.0021
3063.00,0.0021
3062.00,0.0021
3061.00,0.0022
3060.00,0.0022
3059.00,0.0022
3058.00,0.0022
3057.00,0.0022
3056.00,0.0022
3055.00,0.0023
3054.00,0.0023
3053.00,0.0023
3052.00,0.0024
3051.00,0.0024
3050.00,0.0024
3049.00,0.0024
3048.00,0.0024
3047.00,0.0024
3046.00,0.0024
3045.00,0.0024
3044.00,0.0024
3043.00,0.0025
3042.00,0.0025
3041.00,0.0025
3040.00,0.0026
3039.00,0.0026
3038.00,0.0026
3037.00,0.0027
3036.00,0.0027
3035.00,0.0027
3034.00,0.0028
3033.00,0.0028
3032.00,0.0029
3031.00,0.0029
3030.00,0.0030
3029.00,0.0030
3028.00,0.0031
3027.00,0.0031
3026.00,0.0032
3025.00,0.0032
3024.00,0.0033
3023.00,0.0034
3022.00,0.0034
3021.00,0.0035
3020.00,0.0036
3019.00,0.0037
3018.00,0.0038
3017.00,0.0039
3016.00,0.0040
3015.00,0.0041
3014.00,0.0042
3013.00,0.0043
3012.00,0.0044
3011.00,0.0046
3010.00,0.0047
3009.00,0.0048
3008.00,0.0050
3007.00,0.0051
3006.00,0.0053
3005.00,0.0055
3004.00,0.0057
3003.00,0.0060
3002.00,0.0062
3001.00,0.0064
3000.00,0.0067
2999.00,0.0069
2998.00,0.0072
2997.00,0.0075
2996.00,0.0079
2995.00,0.0084
2994.00,0.0089
2993.00,0.0094
2992.00,0.0101
2991.00,0.0107
2990.00,0.0114
2989.00,0.0121
2988.00,0.0130
2987.00,0.0139
2986.00,0.0149
2985.00,0.0160
2984.00,0.0173
2983.00,0.0188
2982.00,0.0205
2981.00,0.0225
2980.00,0.0247
2979.00,0.0272
2978.00,0.0300
2977.00,0.0332
2976.00,0.0369
2975.00,0.0410
2974.00,0.0458
2973.00,0.0511
2972.00,0.0572
2971.00,0.0641
2970.00,0.0718
2969.00,0.0804
2968.00,0.0898
2967.00,0.1000
2966.00,0.1108
2965.00,0.1222
2964.00,0.1336
2963.00,0.1447
2962.00,0.1549
2961.00,0.1637
2960.00,0.1707
2959.00,0.1760
2958.00,0.1800
2957.00,0.1831
2956.00,0.1862
2955.00,0.1898
2954.00,0.1939
2953.00,0.1985
2952.00,0.2027
2951.00,0.2056
2950.00,0.2061
2949.00,0.2032
2948.00,0.1965
2947.00,0.1862
2946.00,0.1732
2945.00,0.1589
2944.00,0.1448
2943.00,0.1322
2942.00,0.1219
2941.00,0.1143
2940.00,0.1095
2939.00,0.1071
2938.00,0.1070
2937.00,0.1088
2936.00,0.1123
2935.00,0.1174
2934.00,0.1239
2933.00,0.1317
2932.00,0.1406
2931.00,0.1504
2930.00,0.1607
2929.00,0.1713
2928.00,0.1817
2927.00,0.1916
2926.00,0.2010
2925.00,0.2098
2924.00,0.2182
2923.00,0.2264
2922.00,0.2344
2921.00,0.2419
2920.00,0.2486
2919.00,0.2537
2918.00,0.2566
2917.00,0.2565
2916.00,0.2536
2915.00,0.2480
2914.00,0.2406
2913.00,0.2322
2912.00,0.2237
2911.00,0.2156
2910.00,0.2082
2909.00,0.2015
2908.00,0.1951
2907.00,0.1889
2906.00,0.1827
2905.00,0.1762
2904.00,0.1693
2903.00,0.1622
2902.00,0.1550
2901.00,0.1478
2900.00,0.1407
2899.00,0.1340
2898.00,0.1278
2897.00,0.1222
2896.00,0.1173
2895.00,0.1132
2894.00,0.1098
2893.00,0.1072
2892.00,0.1052
2891.00,0.1040
2890.00,0.1033
2889.00,0.1031
2888.00,0.1034
2887.00,0.1040
2886.00,0.1050
2885.00,0.1065
2884.00,0.1083
2883.00,0.1106
2882.00,0.1133
2881.00,0.1162
2880.00,0.1189
2879.00,0.1212
2878.00,0.1226
2877.00,0.1230
2876.00,0.1225
2875.00,0.1215
2874.00,0.1206
2873.00,0.1202
2872.00,0.1207
2871.00,0.1219
2870.00,0.1237
2869.00,0.1255
2868.00,0.1267
2867.00,0.1262
2866.00,0.1234
2865.00,0.1180
2864.00,0.1103
2863.00,0.1010
2862.00,0.0912
2861.00,0.0820
2860.00,0.0740
2859.00,0.0675
2858.00,0.0626
2857.00,0.0590
2856.00,0.0567
2855.00,0.0553
2854.00,0.0548
2853.00,0.0551
2852.00,0.0561
2851.00,0.0578
2850.00,0.0603
2849.00,0.0635
2848.00,0.0676
2847.00,0.0725
2846.00,0.0783
2845.00,0.0850
2844.00,0.0926
2843.00,0.1007
2842.00,0.1091
2841.00,0.1171
2840.00,0.1238
2839.00,0.1283
2838.00,0.1296
2837.00,0.1272
2836.00,0.1210
2835.00,0.1117
2834.00,0.1004
2833.00,0.0885
2832.00,0.0772
2831.00,0.0670
2830.00,0.0584
2829.00,0.0514
2828.00,0.0457
2827.00,0.0411
2826.00,0.0374
2825.00,0.0344
2824.00,0.0319
2823.00,0.0297
2822.00,0.0279
2821.00,0.0263
2820.00,0.0249
2819.00,0.0238
2818.00,0.0227
2817.00,0.0218
2816.00,0.0210
2815.00,0.0203
2814.00,0.0196
2813.00,0.0191
2812.00,0.0185
2811.00,0.0180
2810.00,0.0175
2809.00,0.0170
2808.00,0.0165
2807.00,0.0158
2806.00,0.0152
2805.00,0.0145
2804.00,0.0138
2803.00,0.0132
2802.00,0.0126
2801.00,0.0121
2800.00,0.0117
2799.00,0.0114
2798.00,0.0112
2797.00,0.0109
2796.00,0.0107
2795.00,0.0104
2794.00,0.0101
2793.00,0.0098
2792.00,0.0095
2791.00,0.0092
2790.00,0.0088
2789.00,0.0085
2788.00,0.0082
2787.00,0.0079
2786.00,0.0076
2785.00,0.0074
2784.00,0.0071
2783.00,0.0069
2782.00,0.0067
2781.00,0.0065
2780.00,0.0063
2779.00,0.0061
2778.00,0.0059
2777.00,0.0058
2776.00,0.0057
2775.00,0.0057
2774.00,0.0056
2773.00,0.0055
2772.00,0.0054
2771.00,0.0054
2770.00,0.0053
2769.00,0.0053
2768.00,0.0052
2767.00,0.0052
2766.00,0.0051
2765.00,0.0051
2764.00,0.0050
2763.00,0.0050
2762.00,0.0050
2761.00,0.0050
2760.00,0.0050
2759.00,0.0050
2758.00,0.0049
2757.00,0.0049
2756.00,0.0049
2755.00,0.0049
2754.00,0.0048
2753.00,0.0048
2752.00,0.0048
2751.00,0.0048
2750.00,0.0047
2749.00,0.0047
2748.00,0.0048
2747.00,0.0048
2746.00,0.0049
2745.00,0.0050
2744.00,0.0050
2743.00,0.0051
2742.00,0.0052
2741.00,0.0053
2740.00,0.0054
2739.00,0.0055
2738.00,0.0057
2737.00,0.0059
2736.00,0.0061
2735.00,0.0062
2734.00,0.0064
2733.00,0.0065
2732.00,0.0067
2731.00,0.0069
2730.00,0.0072
2729.00,0.0074
2728.00,0.0077
2727.00,0.0080
2726.00,0.0083
2725.00,0.0085
2724.00,0.0087
2723.00,0.0088
2722.00,0.0087
2721.00,0.0085
2720.00,0.0082
2719.00,0.0079
2718.00,0.0075
2717.00,0.0072
2716.00,0.0069
2715.00,0.0066
2714.00,0.0064
2713.00,0.0062
2712.00,0.0060
2711.00,0.0058
2710.00,0.0056
2709.00,0.0054
2708.00,0.0052
2707.00,0.0051
2706.00,0.0049
2705.00,0.0048
2704.00,0.0048
2703.00,0.0047
2702.00,0.0046
2701.00,0.0045
2700.00,0.0044
2699.00,0.0044
2698.00,0.0043
2697.00,0.0043
2696.00,0.0043
2695.00,0.0043
2694.00,0.0043
2693.00,0.0043
2692.00,0.0043
2691.00,0.0043
2690.00,0.0043
2689.00,0.0043
2688.00,0.0042
2687.00,0.0042
2686.00,0.0041
2685.00,0.0041
2684.00,0.0042
2683.00,0.0042
2682.00,0.0042
2681.00,0.0043
2680.00,0.0043
2679.00,0.0043
2678.00,0.0043
2677.00,0.0043
2676.00,0.0042
2675.00,0.0042
2674.00,0.0042
2673.00,0.0042
2672.00,0.0042
2671.00,0.0042
2670.00,0.0042
2669.00,0.0042
2668.00,0.0042
2667.00,0.0042
2666.00,0.0042
2665.00,0.0043
2664.00,0.0043
2663.00,0.0044
2662.00,0.0044
2661.00,0.0045
2660.00,0.0045
2659.00,0.0045
2658.00,0.0045
2657.00,0.0045
2656.00,0.0044
2655.00,0.0044
2654.00,0.0043
2653.00,0.0043
2652.00,0.0042
2651.00,0.0042
2650.00,0.0042
2649.00,0.0042
2648.00,0.0041
2647.00,0.0041
2646.00,0.0041
2645.00,0.0040
2644.00,0.0040
2643.00,0.0039
2642.00,0.0038
2641.00,0.0037
2640.00,0.0037
2639.00,0.0036
2638.00,0.0036
2637.00,0.0036
2636.00,0.0036
2635.00,0.0036
2634.00,0.0036
2633.00,0.0036
2632.00,0.0036
2631.00,0.0036
2630.00,0.0037
2629.00,0.0037
2628.00,0.0037
2627.00,0.0037
2626.00,0.0037
2625.00,0.0037
2624.00,0.0037
2623.00,0.0038
2622.00,0.0038
2621.00,0.0038
2620.00,0.0038
2619.00,0.0038
2618.00,0.0038
2617.00,0.0038
2616.00,0.0038
2615.00,0.0038
2614.00,0.0037
2613.00,0.0037
2612.00,0.0037
2611.00,0.0037
2610.00,0.0036
2609.00,0.0036
2608.00,0.0036
2607.00,0.0035
2606.00,0.0034
2605.00,0.0033
2604.00,0.0032
2603.00,0.0031
2602.00,0.0030
2601.00,0.0030
2600.00,0.0030
2599.00,0.0031
2598.00,0.0031
2597.00,0.0030
2596.00,0.0030
2595.00,0.0030
2594.00,0.0030
2593.00,0.0030
2592.00,0.0030
2591.00,0.0031
2590.00,0.0031
2589.00,0.0033
2588.00,0.0035
2587.00,0.0036
2586.00,0.0037
2585.00,0.0038
2584.00,0.0038
2583.00,0.0039
2582.00,0.0039
2581.00,0.0039
2580.00,0.0038
2579.00,0.0037
2578.00,0.0036
2577.00,0.0034
2576.00,0.0033
2575.00,0.0032
2574.00,0.0031
2573.00,0.0030
2572.00,0.0029
2571.00,0.0028
2570.00,0.0026
2569.00,0.0025
2568.00,0.0025
2567.00,0.0025
2566.00,0.0025
2565.00,0.0025
2564.00,0.0024
2563.00,0.0024
2562.00,0.0023
2561.00,0.0022
2560.00,0.0022
2559.00,0.0021
2558.00,0.0021
2557.00,0.0021
2556.00,0.0021
2555.00,0.0021
2554.00,0.0020
2553.00,0.0020
2552.00,0.0020
2551.00,0.0020
2550.00,0.0020
2549.00,0.0019
2548.00,0.0019
2547.00,0.0019
2546.00,0.0019
2545.00,0.0018
2544.00,0.0018
2543.00,0.0017
2542.00,0.0016
2541.00,0.0015
2540.00,0.0015
2539.00,0.0015
2538.00,0.0015
2537.00,0.0015
2536.00,0.0015
2535.00,0.0014
2534.00,0.0014
2533.00,0.0014
2532.00,0.0014
2531.00,0.0014
2530.00,0.0014
2529.00,0.0014
2528.00,0.0013
2527.00,0.0012
2526.00,0.0012
2525.00,0.0011
2524.00,0.0012
2523.00,0.0012
2522.00,0.0012
2521.00,0.0011
2520.00,0.0011
2519.00,0.0010
2518.00,0.0010
2517.00,0.0009
2516.00,0.0009
2515.00,0.0009
2514.00,0.0009
2513.00,0.0009
2512.00,0.0009
2511.00,0.0009
2510.00,0.0008
2509.00,0.0008
2508.00,0.0008
2507.00,0.0008
2506.00,0.0008
2505.00,0.0008
2504.00,0.0008
2503.00,0.0008
2502.00,0.0008
2501.00,0.0009
2500.00,0.0009
2499.00,0.0009
2498.00,0.0009
2497.00,0.0008
2496.00,0.0008
2495.00,0.0007
2494.00,0.0007
2493.00,0.0008
2492.00,0.0008
2491.00,0.0008
2490.00,0.0008
2489.00,0.0008
2488.00,0.0008
2487.00,0.0008
2486.00,0.0008
2485.00,0.0008
2484.00,0.0009
2483.00,0.0009
2482.00,0.0009
2481.00,0.0009
2480.00,0.0008
2479.00,0.0008
2478.00,0.0008
2477.00,0.0008
2476.00,0.0008
2475.00,0.0007
2474.00,0.0008
2473.00,0.0008
2472.00,0.0008
2471.00,0.0008
2470.00,0.0008
2469.00,0.0008
2468.00,0.0008
2467.00,0.0008
2466.00,0.0008
2465.00,0.0008
2464.00,0.0007
2463.00,0.0007
2462.00,0.0007
2461.00,0.0008
2460.00,0.0008
2459.00,0.0009
2458.00,0.0009
2457.00,0.0009
2456.00,0.0009
2455.00,0.0008
2454.00,0.0008
2453.00,0.0009
2452.00,0.0009
2451.00,0.0009
2450.00,0.0009
2449.00,0.0010
2448.00,0.0010
2447.00,0.0010
2446.00,0.0010
2445.00,0.0011
2444.00,0.0011
2443.00,0.0011
2442.00,0.0010
2441.00,0.0010
2440.00,0.0009
2439.00,0.0010
2438.00,0.0010
2437.00,0.0010
2436.00,0.0010
2435.00,0.0010
2434.00,0.0010
2433.00,0.0010
2432.00,0.0010
2431.00,0.0010
2430.00,0.0010
2429.00,0.0010
2428.00,0.0011
2427.00,0.0011
2426.00,0.0012
2425.00,0.0012
2424.00,0.0011
2423.00,0.0011
2422.00,0.0010
2421.00,0.0009
2420.00,0.0009
2419.00,0.0009
2418.00,0.0009
2417.00,0.0009
2416.00,0.0008
2415.00,0.0008
2414.00,0.0007
2413.00,0.0007
2412.00,0.0008
2411.00,0.0008
2410.00,0.0009
2409.00,0.0009
2408.00,0.0009
2407.00,0.0009
2406.00,0.0008
2405.00,0.0008
2404.00,0.0008
2403.00,0.0008
2402.00,0.0008
2401.00,0.0008
2400.00,0.0008
2399.00,0.0007
2398.00,0.0007
2397.00,0.0007
2396.00,0.0007
2395.00,0.0007
2394.00,0.0007
2393.00,0.0007
2392.00,0.0007
2391.00,0.0007
2390.00,0.0007
2389.00,0.0006
2388.00,0.0006
2387.00,0.0006
2386.00,0.0006
2385.00,0.0005
2384.00,0.0005
2383.00,0.0004
2382.00,0.0004
2381.00,0.0004
2380.00,0.0004
2379.00,0.0004
2378.00,0.0004
2377.00,0.0004
2376.00,0.0004
2375.00,0.0004
2374.00,0.0005
2373.00,0.0004
2372.00,0.0004
2371.00,0.0004
2370.00,0.0004
2369.00,0.0004
2368.00,0.0004
2367.00,0.0004
2366.00,0.0004
2365.00,0.0004
2364.00,0.0005
2363.00,0.0006
2362.00,0.0006
2361.00,0.0006
2360.00,0.0005
2359.00,0.0005
2358.00,0.0005
2357.00,0.0005
2356.00,0.0006
2355.00,0.0006
2354.00,0.0007
2353.00,0.0007
2352.00,0.0006
2351.00,0.0006
2350.00,0.0006
2349.00,0.0006
2348.00,0.0006
2347.00,0.0006
2346.00,0.0006
2345.00,0.0007
2344.00,0.0007
2343.00,0.0008
2342.00,0.0008
2341.00,0.0008
2340.00,0.0009
2339.00,0.0009
2338.00,0.0009
2337.00,0.0009
2336.00,0.0009
2335.00,0.0009
2334.00,0.0008
2333.00,0.0008
2332.00,0.0008
2331.00,0.0008
2330.00,0.0008
2329.00,0.0009
2328.00,0.0010
2327.00,0.0013
2326.00,0.0016
2325.00,0.0020
2324.00,0.0022
2323.00,0.0021
2322.00,0.0019
2321.00,0.0017
2320.00,0.0016
2319.00,0.0015
2318.00,0.0014
2317.00,0.0013
2316.00,0.0013
2315.00,0.0012
2314.00,0.0012
2313.00,0.0012
2312.00,0.0011
2311.00,0.0011
2310.00,0.0010
2309.00,0.0009
2308.00,0.0009
2307.00,0.0009
2306.00,0.0009
2305.00,0.0010
2304.00,0.0010
2303.00,0.0010
2302.00,0.0011
2301.00,0.0011
2300.00,0.0011
2299.00,0.0011
2298.00,0.0011
2297.00,0.0011
2296.00,0.0012
2295.00,0.0013
2294.00,0.0014
2293.00,0.0014
2292.00,0.0015
2291.00,0.0015
2290.00,0.0015
2289.00,0.0016
2288.00,0.0016
2287.00,0.0017
2286.00,0.0018
2285.00,0.0018
2284.00,0.0018
2283.00,0.0017
2282.00,0.0016
2281.00,0.0015
2280.00,0.0014
2279.00,0.0012
2278.00,0.0012
2277.00,0.0011
2276.00,0.0011
2275.00,0.0012
2274.00,0.0012
2273.00,0.0013
2272.00,0.0013
2271.00,0.0012
2270.00,0.0011
2269.00,0.0011
2268.00,0.0010
2267.00,0.0010
2266.00,0.0010
2265.00,0.0010
2264.00,0.0010
2263.00,0.0011
2262.00,0.0011
2261.00,0.0011
2260.00,0.0011
2259.00,0.0010
2258.00,0.0010
2257.00,0.0010
2256.00,0.0009
2255.00,0.0007
2254.00,0.0007
2253.00,0.0007
2252.00,0.0007
2251.00,0.0006
2250.00,0.0006
2249.00,0.0005
2248.00,0.0005
2247.00,0.0006
2246.00,0.0007
2245.00,0.0008
2244.00,0.0009
2243.00,0.0009
2242.00,0.0008
2241.00,0.0008
2240.00,0.0008
2239.00,0.0007
2238.00,0.0007
2237.00,0.0006
2236.00,0.0005
2235.00,0.0003
2234.00,0.0003
2233.00,0.0003
2232.00,0.0004
2231.00,0.0006
2230.00,0.0007
2229.00,0.0007
2228.00,0.0007
2227.00,0.0007
2226.00,0.0007
2225.00,0.0008
2224.00,0.0008
2223.00,0.0008
2222.00,0.0008
2221.00,0.0008
2220.00,0.0007
2219.00,0.0006
2218.00,0.0005
2217.00,0.0004
2216.00,0.0003
2215.00,0.0002
2214.00,0.0002
2213.00,0.0002
2212.00,0.0002
2211.00,0.0002
2210.00,0.0002
2209.00,0.0003
2208.00,0.0004
2207.00,0.0006
2206.00,0.0006
2205.00,0.0005
2204.00,0.0003
2203.00,0.0003
2202.00,0.0004
2201.00,0.0005
2200.00,0.0005
2199.00,0.0004
2198.00,0.0004
2197.00,0.0005
2196.00,0.0006
2195.00,0.0007
2194.00,0.0008
2193.00,0.0007
2192.00,0.0007
2191.00,0.0005
2190.00,0.0005
2189.00,0.0005
2188.00,0.0006
2187.00,0.0007
2186.00,0.0009
2185.00,0.0009
2184.00,0.0008
2183.00,0.0005
2182.00,0.0002
2181.00,-0.0000
2180.00,-0.0000
2179.00,0.0001
2178.00,0.0002
2177.00,0.0002
2176.00,0.0001
2175.00,0.0000
2174.00,0.0000
2173.00,0.0001
2172.00,0.0002
2171.00,0.0004
2170.00,0.0006
2169.00,0.0009
2168.00,0.0012
2167.00,0.0015
2166.00,0.0016
2165.00,0.0016
2164.00,0.0016
2163.00,0.0016
2162.00,0.0015
2161.00,0.0009
2160.00,-0.0004
2159.00,-0.0021
2158.00,-0.0034
2157.00,-0.0038
2156.00,-0.0035
2155.00,-0.0031
2154.00,-0.0026
2153.00,-0.0023
2152.00,-0.0020
2151.00,-0.0017
2150.00,-0.0016
2149.00,-0.0015
2148.00,-0.0014
2147.00,-0.0015
2146.00,-0.0016
2145.00,-0.0017
2144.00,-0.0018
2143.00,-0.0019
2142.00,-0.0019
2141.00,-0.0018
2140.00,-0.0016
2139.00,-0.0015
2138.00,-0.0015
2137.00,-0.0015
2136.00,-0.0016
2135.00,-0.0017
2134.00,-0.0018
2133.00,-0.0019
2132.00,-0.0017
2131.00,-0.0015
2130.00,-0.0013
2129.00,-0.0011
2128.00,-0.0011
2127.00,-0.0011
2126.00,-0.0011
2125.00,-0.0010
2124.00,-0.0009
2123.00,-0.0008
2122.00,-0.0007
2121.00,-0.0007
2120.00,-0.0006
2119.00,-0.0006
2118.00,-0.0005
2117.00,-0.0004
2116.00,-0.0002
2115.00,-0.0002
2114.00,-0.0002
2113.00,-0.0002
2112.00,-0.0002
2111.00,-0.0001
2110.00,0.0001
2109.00,0.0002
2108.00,0.0002
2107.00,0.0001
2106.00,0.0000
2105.00,0.0000
2104.00,0.0000
2103.00,0.0000
2102.00,0.0001
2101.00,0.0000
2100.00,0.0000
2099.00,-0.0000
2098.00,-0.0001
2097.00,-0.0002
2096.00,-0.0003
2095.00,-0.0004
2094.00,-0.0005
2093.00,-0.0005
2092.00,-0.0005
2091.00,-0.0005
2090.00,-0.0005
2089.00,-0.0004
2088.00,-0.0003
2087.00,-0.0002
2086.00,-0.0001
2085.00,-0.0001
2084.00,-0.0000
2083.00,-0.0000
2082.00,-0.0001
2081.00,-0.0001
2080.00,-0.0001
2079.00,-0.0000
2078.00,0.0001
2077.00,0.0002
2076.00,0.0003
2075.00,0.0003
2074.00,0.0003
2073.00,0.0003
2072.00,0.0002
2071.00,0.0001
2070.00,-0.0000
2069.00,-0.0001
2068.00,-0.0000
2067.00,-0.0000
2066.00,-0.0000
2065.00,-0.0000
2064.00,-0.0000
2063.00,-0.0000
2062.00,-0.0001
2061.00,-0.0001
2060.00,0.0000
2059.00,0.0001
2058.00,0.0001
2057.00,0.0001
2056.00,-0.0000
2055.00,-0.0001
2054.00,-0.0000
2053.00,0.0004
2052.00,0.0010
2051.00,0.0013
2050.00,0.0012
2049.00,0.0009
2048.00,0.0005
2047.00,0.0004
2046.00,0.0004
2045.00,0.0003
2044.00,0.0002
2043.00,-0.0001
2042.00,-0.0005
2041.00,-0.0007
2040.00,-0.0008
2039.00,-0.0008
2038.00,-0.0007
2037.00,-0.0006
2036.00,-0.0006
2035.00,-0.0006
2034.00,-0.0006
2033.00,-0.0007
2032.00,-0.0009
2031.00,-0.0011
2030.00,-0.0014
2029.00,-0.0015
2028.00,-0.0015
2027.00,-0.0014
2026.00,-0.0013
2025.00,-0.0011
2024.00,-0.0010
2023.00,-0.0009
2022.00,-0.0007
2021.00,-0.0007
2020.00,-0.0007
2019.00,-0.0008
2018.00,-0.0010
2017.00,-0.0012
2016.00,-0.0012
2015.00,-0.0013
2014.00,-0.0012
2013.00,-0.0011
2012.00,-0.0010
2011.00,-0.0010
2010.00,-0.0011
2009.00,-0.0013
2008.00,-0.0016
2007.00,-0.0018
2006.00,-0.0019
2005.00,-0.0020
2004.00,-0.0020
2003.00,-0.0020
2002.00,-0.0020
2001.00,-0.0021
2000.00,-0.0021
1999.00,-0.0020
1998.00,-0.0017
1997.00,-0.0015
1996.00,-0.0013
1995.00,-0.0013
1994.00,-0.0013
1993.00,-0.0013
1992.00,-0.0013
1991.00,-0.0011
1990.00,-0.0010
1989.00,-0.0008
1988.00,-0.0005
1987.00,-0.0004
1986.00,-0.0003
1985.00,-0.0004
1984.00,-0.0005
1983.00,-0.0005
1982.00,-0.0002
1981.00,0.0003
1980.00,0.0004
1979.00,0.0001
1978.00,-0.0005
1977.00,-0.0012
1976.00,-0.0015
1975.00,-0.0016
1974.00,-0.0015
1973.00,-0.0013
1972.00,-0.0011
1971.00,-0.0011
1970.00,-0.0012
1969.00,-0.0014
1968.00,-0.0015
1967.00,-0.0016
1966.00,-0.0016
1965.00,-0.0015
1964.00,-0.0014
1963.00,-0.0014
1962.00,-0.0015
1961.00,-0.0016
1960.00,-0.0017
1959.00,-0.0018
1958.00,-0.0020
1957.00,-0.0021
1956.00,-0.0021
1955.00,-0.0022
1954.00,-0.0021
1953.00,-0.0019
1952.00,-0.0016
1951.00,-0.0015
1950.00,-0.0015
1949.00,-0.0015
1948.00,-0.0016
1947.00,-0.0017
1946.00,-0.0018
1945.00,-0.0019
1944.00,-0.0019
1943.00,-0.0019
1942.00,-0.0017
1941.00,-0.0016
1940.00,-0.0015
1939.00,-0.0014
1938.00,-0.0014
1937.00,-0.0013
1936.00,-0.0012
1935.00,-0.0013
1934.00,-0.0015
1933.00,-0.0016
1932.00,-0.0017
1931.00,-0.0016
1930.00,-0.0014
1929.00,-0.0012
1928.00,-0.0011
1927.00,-0.0010
1926.00,-0.0011
1925.00,-0.0011
1924.00,-0.0012
1923.00,-0.0011
1922.00,-0.0009
1921.00,-0.0007
1920.00,-0.0005
1919.00,-0.0004
1918.00,-0.0004
1917.00,-0.0004
1916.00,-0.0005
1915.00,-0.0006
1914.00,-0.0006
1913.00,-0.0006
1912.00,-0.0006
1911.00,-0.0005
1910.00,-0.0005
1909.00,-0.0004
1908.00,-0.0003
1907.00,-0.0002
1906.00,-0.0002
1905.00,-0.0002
1904.00,-0.0002
1903.00,-0.0003
1902.00,-0.0004
1901.00,-0.0004
1900.00,-0.0004
1899.00,-0.0004
1898.00,-0.0004
1897.00,-0.0005
1896.00,-0.0005
1895.00,-0.0004
1894.00,-0.0004
1893.00,-0.0003
1892.00,-0.0003
1891.00,-0.0004
1890.00,-0.0005
1889.00,-0.0005
1888.00,-0.0005
1887.00,-0.0004
1886.00,-0.0004
1885.00,-0.0004
1884.00,-0.0003
1883.00,-0.0003
1882.00,-0.0004
1881.00,-0.0005
1880.00,-0.0006
1879.00,-0.0006
1878.00,-0.0005
1877.00,-0.0004
1876.00,-0.0003
1875.00,-0.0002
1874.00,-0.0002
1873.00,-0.0003
1872.00,-0.0003
1871.00,-0.0002
1870.00,-0.0002
1869.00,-0.0001
1868.00,0.0000
1867.00,0.0001
1866.00,0.0001
1865.00,0.0000
1864.00,-0.0001
1863.00,-0.0003
1862.00,-0.0004
1861.00,-0.0005
1860.00,-0.0005
1859.00,-0.0004
1858.00,-0.0004
1857.00,-0.0003
1856.00,-0.0002
1855.00,-0.0001
1854.00,-0.0001
1853.00,-0.0001
1852.00,-0.0001
1851.00,-0.0001
1850.00,-0.0001
1849.00,-0.0001
1848.00,-0.0001
1847.00,-0.0001
1846.00,-0.0000
1845.00,-0.0000
1844.00,-0.0001
1843.00,-0.0000
1842.00,-0.0000
1841.00,0.0001
1840.00,0.0001
1839.00,0.0001
1838.00,0.0002
1837.00,0.0002
1836.00,0.0003
1835.00,0.0002
1834.00,0.0002
1833.00,0.0002
1832.00,0.0001
1831.00,0.0001
1830.00,0.0001
1829.00,0.0002
1828.00,0.0002
1827.00,0.0002
1826.00,0.0002
1825.00,0.0001
1824.00,0.0001
1823.00,0.0001
1822.00,0.0001
1821.00,0.0000
1820.00,-0.0000
1819.00,-0.0001
1818.00,-0.0002
1817.00,-0.0003
1816.00,-0.0002
1815.00,-0.0001
1814.00,-0.0000
1813.00,0.0000
1812.00,0.0001
1811.00,0.0001
1810.00,0.0001
1809.00,0.0002
1808.00,0.0002
1807.00,0.0001
1806.00,0.0001
1805.00,0.0001
1804.00,0.0002
1803.00,0.0002
1802.00,0.0003
1801.00,0.0003
1800.00,0.0003
1799.00,0.0002
1798.00,0.0002
1797.00,0.0002
1796.00,0.0002
1795.00,0.0003
1794.00,0.0003
1793.00,0.0004
1792.00,0.0004
1791.00,0.0005
1790.00,0.0005
1789.00,0.0006
1788.00,0.0006
1787.00,0.0006
1786.00,0.0006
1785.00,0.0006
1784.00,0.0006
1783.00,0.0006
1782.00,0.0006
1781.00,0.0005
1780.00,0.0005
1779.00,0.0005
1778.00,0.0004
1777.00,0.0004
1776.00,0.0005
1775.00,0.0005
1774.00,0.0005
1773.00,0.0005
1772.00,0.0005
1771.00,0.0006
1770.00,0.0006
1769.00,0.0007
1768.00,0.0008
1767.00,0.0008
1766.00,0.0008
1765.00,0.0009
1764.00,0.0009
1763.00,0.0009
1762.00,0.0009
1761.00,0.0009
1760.00,0.0009
1759.00,0.0009
1758.00,0.0009
1757.00,0.0009
1756.00,0.0009
1755.00,0.0010
1754.00,0.0010
1753.00,0.0010
1752.00,0.0010
1751.00,0.0011
1750.00,0.0011
1749.00,0.0012
1748.00,0.0012
1747.00,0.0012
1746.00,0.0012
1745.00,0.0012
1744.00,0.0012
1743.00,0.0013
1742.00,0.0013
1741.00,0.0013
1740.00,0.0014
1739.00,0.0014
1738.00,0.0015
1737.00,0.0015
1736.00,0.0015
1735.00,0.0014
1734.00,0.0013
1733.00,0.0013
1732.00,0.0013
1731.00,0.0014
1730.00,0.0014
1729.00,0.0014
1728.00,0.0014
1727.00,0.0014
1726.00,0.0014
1725.00,0.0015
1724.00,0.0015
1723.00,0.0015
1722.00,0.0015
1721.00,0.0015
1720.00,0.0016
1719.00,0.0015
1718.00,0.0015
1717.00,0.0015
1716.00,0.0016
1715.00,0.0016
1714.00,0.0016
1713.00,0.0016
1712.00,0.0016
1711.00,0.0016
1710.00,0.0016
1709.00,0.0017
1708.00,0.0017
1707.00,0.0016
1706.00,0.0016
1705.00,0.0016
1704.00,0.0017
1703.00,0.0018
1702.00,0.0018
1701.00,0.0018
1700.00,0.0017
1699.00,0.0017
1698.00,0.0017
1697.00,0.0018
1696.00,0.0019
1695.00,0.0020
1694.00,0.0020
1693.00,0.0021
1692.00,0.0021
1691.00,0.0021
1690.00,0.0021
1689.00,0.0021
1688.00,0.0020
1687.00,0.0020
1686.00,0.0018
1685.00,0.0018
1684.00,0.0019
1683.00,0.0020
1682.00,0.0022
1681.00,0.0022
1680.00,0.0022
1679.00,0.0022
1678.00,0.0022
1677.00,0.0022
1676.00,0.0022
1675.00,0.0023
1674.00,0.0023
1673.00,0.0023
1672.00,0.0024
1671.00,0.0024
1670.00,0.0025
1669.00,0.0025
1668.00,0.0025
1667.00,0.0025
1666.00,0.0024
1665.00,0.0024
1664.00,0.0024
1663.00,0.0024
1662.00,0.0025
1661.00,0.0025
1660.00,0.0025
1659.00,0.0025
1658.00,0.0025
1657.00,0.0026
1656.00,0.0027
1655.00,0.0028
1654.00,0.0028
1653.00,0.0028
1652.00,0.0028
1651.00,0.0028
1650.00,0.0028
1649.00,0.0029
1648.00,0.0029
1647.00,0.0029
1646.00,0.0030
1645.00,0.0030
1644.00,0.0031
1643.00,0.0031
1642.00,0.0030
1641.00,0.0030
1640.00,0.0030
1639.00,0.0030
1638.00,0.0030
1637.00,0.0030
1636.00,0.0030
1635.00,0.0031
1634.00,0.0031
1633.00,0.0031
1632.00,0.0031
1631.00,0.0031
1630.00,0.0031
1629.00,0.0032
1628.00,0.0032
1627.00,0.0032
1626.00,0.0032
1625.00,0.0032
1624.00,0.0032
1623.00,0.0032
1622.00,0.0032
1621.00,0.0032
1620.00,0.0032
1619.00,0.0032
1618.00,0.0031
1617.00,0.0031
1616.00,0.0031
1615.00,0.0031
1614.00,0.0031
1613.00,0.0031
1612.00,0.0031
1611.00,0.0030
1610.00,0.0030
1609.00,0.0030
1608.00,0.0030
1607.00,0.0031
1606.00,0.0031
1605.00,0.0031
1604.00,0.0031
1603.00,0.0031
1602.00,0.0030
1601.00,0.0030
1600.00,0.0030
1599.00,0.0030
1598.00,0.0030
1597.00,0.0030
1596.00,0.0030
1595.00,0.0030
1594.00,0.0030
1593.00,0.0030
1592.00,0.0030
1591.00,0.0031
1590.00,0.0031
1589.00,0.0032
1588.00,0.0032
1587.00,0.0033
1586.00,0.0033
1585.00,0.0034
1584.00,0.0035
1583.00,0.0036
1582.00,0.0038
1581.00,0.0039
1580.00,0.0041
1579.00,0.0042
1578.00,0.0042
1577.00,0.0042
1576.00,0.0042
1575.00,0.0042
1574.00,0.0042
1573.00,0.0042
1572.00,0.0041
1571.00,0.0040
1570.00,0.0039
1569.00,0.0038
1568.00,0.0037
1567.00,0.0037
1566.00,0.0036
1565.00,0.0036
1564.00,0.0037
1563.00,0.0037
1562.00,0.0037
1561.00,0.0037
1560.00,0.0037
1559.00,0.0037
1558.00,0.0037
1557.00,0.0037
1556.00,0.0037
1555.00,0.0038
1554.00,0.0038
1553.00,0.0038
1552.00,0.0039
1551.00,0.0040
1550.00,0.0041
1549.00,0.0042
1548.00,0.0044
1547.00,0.0044
1546.00,0.0045
1545.00,0.0046
1544.00,0.0047
1543.00,0.0049
1542.00,0.0050
1541.00,0.0052
1540.00,0.0052
1539.00,0.0051
1538.00,0.0049
1537.00,0.0047
1536.00,0.0046
1535.00,0.0045
1534.00,0.0043
1533.00,0.0042
1532.00,0.0041
1531.00,0.0041
1530.00,0.0040
1529.00,0.0039
1528.00,0.0039
1527.00,0.0039
1526.00,0.0039
1525.00,0.0039
1524.00,0.0040
1523.00,0.0040
1522.00,0.0040
1521.00,0.0041
1520.00,0.0042
1519.00,0.0042
1518.00,0.0043
1517.00,0.0045
1516.00,0.0046
1515.00,0.0046
1514.00,0.0046
1513.00,0.0047
1512.00,0.0047
1511.00,0.0048
1510.00,0.0049
1509.00,0.0051
1508.00,0.0053
1507.00,0.0054
1506.00,0.0054
1505.00,0.0055
1504.00,0.0056
1503.00,0.0057
1502.00,0.0058
1501.00,0.0061
1500.00,0.0063
1499.00,0.0065
1498.00,0.0067
1497.00,0.0070
1496.00,0.0073
1495.00,0.0076
1494.00,0.0078
1493.00,0.0081
1492.00,0.0084
1491.00,0.0088
1490.00,0.0092
1489.00,0.0097
1488.00,0.0103
1487.00,0.0107
1486.00,0.0112
1485.00,0.0118
1484.00,0.0125
1483.00,0.0133
1482.00,0.0141
1481.00,0.0153
1480.00,0.0165
1479.00,0.0177
1478.00,0.0192
1477.00,0.0210
1476.00,0.0232
1475.00,0.0258
1474.00,0.0292
1473.00,0.0343
1472.00,0.0406
1471.00,0.0469
1470.00,0.0531
1469.00,0.0597
1468.00,0.0668
1467.00,0.0747
1466.00,0.0836
1465.00,0.0934
1464.00,0.1022
1463.00,0.1087
1462.00,0.1132
1461.00,0.1166
1460.00,0.1192
1459.00,0.1213
1458.00,0.1231
1457.00,0.1250
1456.00,0.1260
1455.00,0.1261
1454.00,0.1257
1453.00,0.1248
1452.00,0.1228
1451.00,0.1194
1450.00,0.1141
1449.00,0.1064
1448.00,0.0965
1447.00,0.0860
1446.00,0.0763
1445.00,0.0680
1444.00,0.0610
1443.00,0.0553
1442.00,0.0511
1441.00,0.0482
1440.00,0.0465
1439.00,0.0457
1438.00,0.0456
1437.00,0.0454
1436.00,0.0441
1435.00,0.0412
1434.00,0.0372
1433.00,0.0324
1432.00,0.0276
1431.00,0.0234
1430.00,0.0203
1429.00,0.0180
1428.00,0.0164
1427.00,0.0154
1426.00,0.0148
1425.00,0.0141
1424.00,0.0136
1423.00,0.0133
1422.00,0.0131
1421.00,0.0129
1420.00,0.0126
1419.00,0.0123
1418.00,0.0122
1417.00,0.0119
1416.00,0.0116
1415.00,0.0115
1414.00,0.0113
1413.00,0.0112
1412.00,0.0110
1411.00,0.0109
1410.00,0.0108
1409.00,0.0108
1408.00,0.0107
1407.00,0.0107
1406.00,0.0107
1405.00,0.0107
1404.00,0.0107
1403.00,0.0108
1402.00,0.0109
1401.00,0.0110
1400.00,0.0110
1399.00,0.0112
1398.00,0.0114
1397.00,0.0116
1396.00,0.0119
1395.00,0.0123
1394.00,0.0129
1393.00,0.0135
1392.00,0.0141
1391.00,0.0151
1390.00,0.0163
1389.00,0.0181
1388.00,0.0208
1387.00,0.0249
1386.00,0.0302
1385.00,0.0369
1384.00,0.0457
1383.00,0.0573
1382.00,0.0725
1381.00,0.0917
1380.00,0.1151
1379.00,0.1415
1378.00,0.1672
1377.00,0.1862
1376.00,0.1931
1375.00,0.1844
1374.00,0.1624
1373.00,0.1349
1372.00,0.1091
1371.00,0.0874
1370.00,0.0700
1369.00,0.0567
1368.00,0.0475
1367.00,0.0419
1366.00,0.0388
1365.00,0.0375
1364.00,0.0377
1363.00,0.0392
1362.00,0.0414
1361.00,0.0438
1360.00,0.0456
1359.00,0.0460
1358.00,0.0448
1357.00,0.0420
1356.00,0.0381
1355.00,0.0337
1354.00,0.0295
1353.00,0.0258
1352.00,0.0228
1351.00,0.0205
1350.00,0.0186
1349.00,0.0170
1348.00,0.0158
1347.00,0.0148
1346.00,0.0140
1345.00,0.0134
1344.00,0.0129
1343.00,0.0126
1342.00,0.0123
1341.00,0.0120
1340.00,0.0118
1339.00,0.0116
1338.00,0.0115
1337.00,0.0115
1336.00,0.0116
1335.00,0.0117
1334.00,0.0120
1333.00,0.0124
1332.00,0.0129
1331.00,0.0132
1330.00,0.0134
1329.00,0.0133
1328.00,0.0129
1327.00,0.0123
1326.00,0.0117
1325.00,0.0110
1324.00,0.0104
1323.00,0.0099
1322.00,0.0095
1321.00,0.0091
1320.00,0.0088
1319.00,0.0085
1318.00,0.0083
1317.00,0.0081
1316.00,0.0080
1315.00,0.0079
1314.00,0.0079
1313.00,0.0079
1312.00,0.0080
1311.00,0.0083
1310.00,0.0088
1309.00,0.0097
1308.00,0.0108
1307.00,0.0122
1306.00,0.0135
1305.00,0.0144
1304.00,0.0147
1303.00,0.0144
1302.00,0.0138
1301.00,0.0132
1300.00,0.0127
1299.00,0.0125
1298.00,0.0124
1297.00,0.0124
1296.00,0.0123
1295.00,0.0120
1294.00,0.0116
1293.00,0.0110
1292.00,0.0104
1291.00,0.0098
1290.00,0.0094
1289.00,0.0090
1288.00,0.0087
1287.00,0.0084
1286.00,0.0081
1285.00,0.0079
1284.00,0.0077
1283.00,0.0076
1282.00,0.0074
1281.00,0.0073
1280.00,0.0071
1279.00,0.0070
1278.00,0.0070
1277.00,0.0069
1276.00,0.0069
1275.00,0.0069
1274.00,0.0069
1273.00,0.0069
1272.00,0.0069
1271.00,0.0069
1270.00,0.0069
1269.00,0.0069
1268.00,0.0070
1267.00,0.0072
1266.00,0.0074
1265.00,0.0076
1264.00,0.0079
1263.00,0.0082
1262.00,0.0086
1261.00,0.0091
1260.00,0.0099
1259.00,0.0108
1258.00,0.0118
1257.00,0.0126
1256.00,0.0129
1255.00,0.0127
1254.00,0.0120
1253.00,0.0110
1252.00,0.0100
1251.00,0.0093
1250.00,0.0087
1249.00,0.0083
1248.00,0.0081
1247.00,0.0079
1246.00,0.0077
1245.00,0.0077
1244.00,0.0077
1243.00,0.0077
1242.00,0.0076
1241.00,0.0075
1240.00,0.0073
1239.00,0.0072
1238.00,0.0071
1237.00,0.0071
1236.00,0.0070
1235.00,0.0070
1234.00,0.0070
1233.00,0.0070
1232.00,0.0071
1231.00,0.0071
1230.00,0.0071
1229.00,0.0072
1228.00,0.0073
1227.00,0.0075
1226.00,0.0077
1225.00,0.0079
1224.00,0.0082
1223.00,0.0086
1222.00,0.0090
1221.00,0.0092
1220.00,0.0094
1219.00,0.0094
1218.00,0.0094
1217.00,0.0092
1216.00,0.0089
1215.00,0.0086
1214.00,0.0083
1213.00,0.0080
1212.00,0.0078
1211.00,0.0076
1210.00,0.0075
1209.00,0.0073
1208.00,0.0071
1207.00,0.0069
1206.00,0.0068
1205.00,0.0067
1204.00,0.0067
1203.00,0.0067
1202.00,0.0068
1201.00,0.0068
1200.00,0.0068
1199.00,0.0068
1198.00,0.0067
1197.00,0.0067
1196.00,0.0066
1195.00,0.0066
1194.00,0.0066
1193.00,0.0067
1192.00,0.0067
1191.00,0.0067
1190.00,0.0066
1189.00,0.0066
1188.00,0.0066
1187.00,0.0067
1186.00,0.0068
1185.00,0.0070
1184.00,0.0072
1183.00,0.0073
1182.00,0.0075
1181.00,0.0077
1180.00,0.0081
1179.00,0.0086
1178.00,0.0093
1177.00,0.0103
1176.00,0.0116
1175.00,0.0135
1174.00,0.0159
1173.00,0.0189
1172.00,0.0225
1171.00,0.0265
1170.00,0.0304
1169.00,0.0335
1168.00,0.0354
1167.00,0.0359
1166.00,0.0349
1165.00,0.0331
1164.00,0.0308
1163.00,0.0285
1162.00,0.0264
1161.00,0.0246
1160.00,0.0232
1159.00,0.0220
1158.00,0.0211
1157.00,0.0204
1156.00,0.0199
1155.00,0.0196
1154.00,0.0193
1153.00,0.0190
1152.00,0.0184
1151.00,0.0176
1150.00,0.0167
1149.00,0.0157
1148.00,0.0147
1147.00,0.0137
1146.00,0.0128
1145.00,0.0120
1144.00,0.0112
1143.00,0.0105
1142.00,0.0099
1141.00,0.0092
1140.00,0.0087
1139.00,0.0083
1138.00,0.0080
1137.00,0.0077
1136.00,0.0074
1135.00,0.0071
1134.00,0.0068
1133.00,0.0065
1132.00,0.0064
1131.00,0.0063
1130.00,0.0064
1129.00,0.0065
1128.00,0.0065
1127.00,0.0066
1126.00,0.0067
1125.00,0.0067
1124.00,0.0067
1123.00,0.0067
1122.00,0.0066
1121.00,0.0064
1120.00,0.0064
1119.00,0.0064
1118.00,0.0065
1117.00,0.0068
1116.00,0.0070
1115.00,0.0072
1114.00,0.0074
1113.00,0.0075
1112.00,0.0076
1111.00,0.0079
1110.00,0.0082
1109.00,0.0086
1108.00,0.0092
1107.00,0.0099
1106.00,0.0106
1105.00,0.0114
1104.00,0.0120
1103.00,0.0124
1102.00,0.0125
1101.00,0.0123
1100.00,0.0118
1099.00,0.0112
1098.00,0.0105
1097.00,0.0097
1096.00,0.0091
1095.00,0.0086
1094.00,0.0083
1093.00,0.0079
1092.00,0.0076
1091.00,0.0074
1090.00,0.0072
1089.00,0.0070
1088.00,0.0068
1087.00,0.0067
1086.00,0.0066
1085.00,0.0066
1084.00,0.0066
1083.00,0.0066
1082.00,0.0065
1081.00,0.0064
1080.00,0.0062
1079.00,0.0060
1078.00,0.0060
1077.00,0.0059
1076.00,0.0059
1075.00,0.0059
1074.00,0.0058
1073.00,0.0058
1072.00,0.0059
1071.00,0.0060
1070.00,0.0061
1069.00,0.0061
1068.00,0.0060
1067.00,0.0059
1066.00,0.0059
1065.00,0.0059
1064.00,0.0060
1063.00,0.0060
1062.00,0.0061
1061.00,0.0061
1060.00,0.0062
1059.00,0.0063
1058.00,0.0064
1057.00,0.0065
1056.00,0.0066
1055.00,0.0066
1054.00,0.0067
1053.00,0.0068
1052.00,0.0070
1051.00,0.0072
1050.00,0.0074
1049.00,0.0077
1048.00,0.0081
1047.00,0.0086
1046.00,0.0089
1045.00,0.0091
1044.00,0.0090
1043.00,0.0088
1042.00,0.0085
1041.00,0.0083
1040.00,0.0081
1039.00,0.0081
1038.00,0.0082
1037.00,0.0082
1036.00,0.0082
1035.00,0.0081
1034.00,0.0080
1033.00,0.0079
1032.00,0.0079
1031.00,0.0078
1030.00,0.0077
1029.00,0.0077
1028.00,0.0077
1027.00,0.0077
1026.00,0.0077
1025.00,0.0077
1024.00,0.0077
1023.00,0.0077
1022.00,0.0078
1021.00,0.0079
1020.00,0.0080
1019.00,0.0081
1018.00,0.0083
1017.00,0.0085
1016.00,0.0088
1015.00,0.0093
1014.00,0.0097
1013.00,0.0102
1012.00,0.0106
1011.00,0.0110
1010.00,0.0114
1009.00,0.0118
1008.00,0.0124
1007.00,0.0131
1006.00,0.0142
1005.00,0.0157
1004.00,0.0177
1003.00,0.0203
1002.00,0.0238
1001.00,0.0280
1000.00,0.0326
999.00,0.0364
998.00,0.0385
997.00,0.0379
996.00,0.0349
995.00,0.0304
994.00,0.0256
993.00,0.0214
992.00,0.0181
991.00,0.0156
990.00,0.0139
989.00,0.0127
988.00,0.0119
987.00,0.0114
986.00,0.0113
985.00,0.0114
984.00,0.0119
983.00,0.0127
982.00,0.0140
981.00,0.0158
980.00,0.0183
979.00,0.0215
978.00,0.0256
977.00,0.0306
976.00,0.0360
975.00,0.0412
974.00,0.0453
973.00,0.0470
972.00,0.0458
971.00,0.0417
970.00,0.0359
969.00,0.0298
968.00,0.0243
967.00,0.0200
966.00,0.0168
965.00,0.0145
964.00,0.0128
963.00,0.0116
962.00,0.0107
961.00,0.0099
960.00,0.0093
959.00,0.0088
958.00,0.0084
957.00,0.0080
956.00,0.0078
955.00,0.0076
954.00,0.0074
953.00,0.0073
952.00,0.0072
951.00,0.0071
950.00,0.0071
949.00,0.0070
948.00,0.0071
947.00,0.0072
946.00,0.0074
945.00,0.0076
944.00,0.0079
943.00,0.0082
942.00,0.0085
941.00,0.0086
940.00,0.0086
939.00,0.0083
938.00,0.0079
937.00,0.0074
936.00,0.0070
935.00,0.0068
934.00,0.0065
933.00,0.0062
932.00,0.0060
931.00,0.0059
930.00,0.0059
929.00,0.0058
928.00,0.0057
927.00,0.0056
926.00,0.0055
925.00,0.0055
924.00,0.0056
923.00,0.0057
922.00,0.0058
921.00,0.0059
920.00,0.0060
919.00,0.0061
918.00,0.0063
917.00,0.0064
916.00,0.0065
915.00,0.0065
914.00,0.0066
913.00,0.0067
912.00,0.0068
911.00,0.0068
910.00,0.0068
909.00,0.0070
908.00,0.0072
907.00,0.0077
906.00,0.0085
905.00,0.0096
904.00,0.0112
903.00,0.0131
902.00,0.0151
901.00,0.0169
900.00,0.0180
899.00,0.0183
898.00,0.0177
897.00,0.0162
896.00,0.0144
895.00,0.0124
894.00,0.0108
893.00,0.0095
892.00,0.0085
891.00,0.0079
890.00,0.0074
889.00,0.0070
888.00,0.0068
887.00,0.0067
886.00,0.0066
885.00,0.0065
884.00,0.0064
883.00,0.0064
882.00,0.0064
881.00,0.0064
880.00,0.0065
879.00,0.0066
878.00,0.0067
877.00,0.0068
876.00,0.0069
875.00,0.0069
874.00,0.0070
873.00,0.0070
872.00,0.0070
871.00,0.0071
870.00,0.0071
869.00,0.0071
868.00,0.0071
867.00,0.0071
866.00,0.0071
865.00,0.0071
864.00,0.0071
863.00,0.0072
862.00,0.0074
861.00,0.0075
860.00,0.0077
859.00,0.0079
858.00,0.0081
857.00,0.0083
856.00,0.0085
855.00,0.0086
854.00,0.0089
853.00,0.0092
852.00,0.0096
851.00,0.0102
850.00,0.0109
849.00,0.0118
848.00,0.0130
847.00,0.0147
846.00,0.0173
845.00,0.0212
844.00,0.0266
843.00,0.0324
842.00,0.0370
841.00,0.0382
840.00,0.0357
839.00,0.0306
838.00,0.0251
837.00,0.0206
836.00,0.0175
835.00,0.0155
834.00,0.0142
833.00,0.0133
832.00,0.0126
831.00,0.0121
830.00,0.0117
829.00,0.0114
828.00,0.0112
827.00,0.0109
826.00,0.0107
825.00,0.0105
824.00,0.0105
823.00,0.0106
822.00,0.0106
821.00,0.0106
820.00,0.0106
819.00,0.0108
818.00,0.0111
817.00,0.0116
816.00,0.0123
815.00,0.0133
814.00,0.0146
813.00,0.0162
812.00,0.0179
811.00,0.0195
810.00,0.0206
809.00,0.0212
808.00,0.0209
807.00,0.0199
806.00,0.0185
805.00,0.0169
804.00,0.0154
803.00,0.0140
802.00,0.0129
801.00,0.0120
800.00,0.0113
799.00,0.0106
798.00,0.0100
797.00,0.0095
796.00,0.0090
795.00,0.0085
794.00,0.0080
793.00,0.0077
792.00,0.0075
791.00,0.0073
790.00,0.0072
789.00,0.0070
788.00,0.0068
787.00,0.0067
786.00,0.0066
785.00,0.0065
784.00,0.0063
783.00,0.0061
782.00,0.0059
781.00,0.0058
780.00,0.0058
779.00,0.0058
778.00,0.0057
777.00,0.0058
776.00,0.0059
775.00,0.0060
774.00,0.0062
773.00,0.0064
772.00,0.0067
771.00,0.0070
770.00,0.0072
769.00,0.0074
768.00,0.0075
767.00,0.0075
766.00,0.0075
765.00,0.0073
764.00,0.0071
763.00,0.0067
762.00,0.0063
761.00,0.0059
760.00,0.0056
759.00,0.0054
758.00,0.0052
757.00,0.0050
756.00,0.0048
755.00,0.0046
754.00,0.0045
753.00,0.0044
752.00,0.0044
751.00,0.0045
750.00,0.0045
749.00,0.0045
748.00,0.0045
747.00,0.0045
746.00,0.0046
745.00,0.0047
744.00,0.0048
743.00,0.0048
742.00,0.0049
741.00,0.0049
740.00,0.0049
739.00,0.0050
738.00,0.0052
737.00,0.0053
736.00,0.0055
735.00,0.0055
734.00,0.0055
733.00,0.0054
732.00,0.0052
731.00,0.0052
730.00,0.0051
729.00,0.0052
728.00,0.0053
727.00,0.0053
726.00,0.0054
725.00,0.0054
724.00,0.0054
723.00,0.0052
722.00,0.0051
721.00,0.0049
720.00,0.0049
719.00,0.0050
718.00,0.0049
717.00,0.0048
716.00,0.0047
715.00,0.0046
714.00,0.0046
713.00,0.0045
712.00,0.0044
711.00,0.0044
710.00,0.0045
709.00,0.0047
708.00,0.0050
707.00,0.0051
706.00,0.0051
705.00,0.0050
704.00,0.0049
703.00,0.0049
702.00,0.0050
701.00,0.0049
700.00,0.0049
699.00,0.0048
698.00,0.0048
697.00,0.0048
696.00,0.0047
695.00,0.0046
694.00,0.0044
693.00,0.0043
692.00,0.0043
691.00,0.0043
690.00,0.0044
689.00,0.0043
688.00,0.0042
687.00,0.0041
686.00,0.0041
685.00,0.0040
684.00,0.0039
683.00,0.0038
682.00,0.0038
681.00,0.0038
680.00,0.0040
679.00,0.0042
678.00,0.0045
677.00,0.0048
676.00,0.0050
675.00,0.0050
674.00,0.0049
673.00,0.0047
672.00,0.0046
671.00,0.0047
670.00,0.0050
669.00,0.0052
668.00,0.0052
667.00,0.0050
666.00,0.0048
665.00,0.0046
664.00,0.0045
663.00,0.0044
662.00,0.0044
661.00,0.0043
660.00,0.0042
659.00,0.0042
658.00,0.0042
657.00,0.0043
656.00,0.0043
655.00,0.0043
654.00,0.0043
653.00,0.0043
652.00,0.0042
651.00,0.0042
650.00,0.0042
649.00,0.0044
648.00,0.0046
647.00,0.0048
646.00,0.0049
645.00,0.0049
644.00,0.0048
643.00,0.0047
642.00,0.0045
641.00,0.0043
640.00,0.0042
639.00,0.0043
638.00,0.0045
637.00,0.0049
636.00,0.0051
635.00,0.0052
634.00,0.0051
633.00,0.0047
632.00,0.0042
631.00,0.0040
630.00,0.0040
629.00,0.0043
628.00,0.0047
627.00,0.0049
626.00,0.0047
625.00,0.0045
624.00,0.0044
623.00,0.0045
622.00,0.0048
621.00,0.0049
620.00,0.0049
619.00,0.0047
618.00,0.0044
617.00,0.0042
616.00,0.0042
615.00,0.0044
614.00,0.0046
613.00,0.0046
612.00,0.0046
611.00,0.0046
610.00,0.0046
609.00,0.0046
608.00,0.0045
607.00,0.0045
606.00,0.0046
605.00,0.0046
604.00,0.0045
603.00,0.0043
602.00,0.0043
601.00,0.0045
600.00,0.0048
599.00,0.0048
598.00,0.0048
597.00,0.0046
596.00,0.0046
595.00,0.0048
594.00,0.0049
593.00,0.0048
592.00,0.0046
591.00,0.0044
590.00,0.0042
589.00,0.0042
588.00,0.0043
587.00,0.0044
586.00,0.0045
585.00,0.0046
584.00,0.0048
583.00,0.0051
582.00,0.0053
581.00,0.0053
580.00,0.0052
579.00,0.0051
578.00,0.0051
577.00,0.0050
576.00,0.0050
575.00,0.0051
574.00,0.0051
573.00,0.0050
572.00,0.0047
571.00,0.0044
570.00,0.0042
569.00,0.0041
568.00,0.0041
567.00,0.0042
566.00,0.0043
565.00,0.0043
564.00,0.0042
563.00,0.0043
562.00,0.0047
561.00,0.0050
560.00,0.0050
559.00,0.0047
558.00,0.0046
557.00,0.0049
556.00,0.0053
555.00,0.0056
554.00,0.0055
553.00,0.0051
552.00,0.0047
551.00,0.0045
550.00,0.0044
549.00,0.0044
548.00,0.0046
547.00,0.0050
546.00,0.0053
545.00,0.0054
544.00,0.0053
543.00,0.0052
542.00,0.0054
541.00,0.0057
540.00,0.0058
539.00,0.0057
538.00,0.0054
537.00,0.0052
536.00,0.0051
535.00,0.0053
534.00,0.0058
533.00,0.0064
532.00,0.0069
531.00,0.0070
530.00,0.0067
529.00,0.0065
528.00,0.0067
527.00,0.0073
526.00,0.0078
525.00,0.0078
524.00,0.0074
523.00,0.0071
522.00,0.0069
521.00,0.0068
520.00,0.0067
519.00,0.0065
518.00,0.0064
517.00,0.0064
516.00,0.0064
515.00,0.0063
514.00,0.0059
513.00,0.0055
512.00,0.0054
511.00,0.0058
510.00,0.0065
509.00,0.0071
508.00,0.0072
507.00,0.0071
506.00,0.0069
505.00,0.0069
504.00,0.0070
503.00,0.0072
502.00,0.0070
501.00,0.0066
500.00,0.0063
499.00,0.0063
498.00,0.0063
497.00,0.0057
496.00,0.0051
495.00,0.0049
494.00,0.0054
493.00,0.0060
492.00,0.0060
491.00,0.0058
490.00,0.0056
489.00,0.0056
488.00,0.0055
487.00,0.0053
486.00,0.0048
485.00,0.0041
484.00,0.0038
483.00,0.0041
482.00,0.0050
481.00,0.0058
480.00,0.0061
479.00,0.0058
478.00,0.0053
477.00,0.0050
476.00,0.0050
475.00,0.0053
474.00,0.0055
473.00,0.0053
472.00,0.0051
471.00,0.0059
470.00,0.0073
469.00,0.0083
468.00,0.0085
467.00,0.0084
466.00,0.0087
465.00,0.0094
464.00,0.0099
463.00,0.0102
462.00,0.0106
461.00,0.0113
460.00,0.0123
459.00,0.0137
458.00,0.0150
457.00,0.0154
456.00,0.0143
455.00,0.0124
454.00,0.0109
453.00,0.0103
452.00,0.0101
451.00,0.0094
450.00,0.0081
