Created as New Dataset,Sample 076 By Administrator Date Friday, September 05 2025
cm-1,A
4000.00,0.0009
3999.00,0.0009
3998.00,0.0009
3997.00,0.0008
3996.00,0.0008
3995.00,0.0008
3994.00,0.0009
3993.00,0.0009
3992.00,0.0009
3991.00,0.0009
3990.00,0.0008
3989.00,0.0008
3988.00,0.0008
3987.00,0.0008
3986.00,0.0008
3985.00,0.0008
3984.00,0.0008
3983.00,0.0007
3982.00,0.0007
3981.00,0.0007
3980.00,0.0007
3979.00,0.0007
3978.00,0.0007
3977.00,0.0007
3976.00,0.0007
3975.00,0.0007
3974.00,0.0007
3973.00,0.0007
3972.00,0.0007
3971.00,0.0007
3970.00,0.0007
3969.00,0.0007
3968.00,0.0007
3967.00,0.0007
3966.00,0.0007
3965.00,0.0007
3964.00,0.0006
3963.00,0.0006
3962.00,0.0006
3961.00,0.0006
3960.00,0.0006
3959.00,0.0006
3958.00,0.0006
3957.00,0.0006
3956.00,0.0006
3955.00,0.0006
3954.00,0.0006
3953.00,0.0006
3952.00,0.0006
3951.00,0.0006
3950.00,0.0006
3949.00,0.0006
3948.00,0.0006
3947.00,0.0007
3946.00,0.0007
3945.00,0.0007
3944.00,0.0007
3943.00,0.0007
3942.00,0.0007
3941.00,0.0007
3940.00,0.0007
3939.00,0.0007
3938.00,0.0007
3937.00,0.0008
3936.00,0.0008
3935.00,0.0008
3934.00,0.0007
3933.00,0.0007
3932.00,0.0007
3931.00,0.0008
3930.00,0.0008
3929.00,0.0008
3928.00,0.0008
3927.00,0.0007
3926.00,0.0007
3925.00,0.0007
3924.00,0.0007
3923.00,0.0007
3922.00,0.0007
3921.00,0.0007
3920.00,0.0007
3919.00,0.0007
3918.00,0.0007
3917.00,0.0007
3916.00,0.0007
3915.00,0.0007
3914.00,0.0007
3913.00,0.0007
3912.00,0.0006
3911.00,0.0006
3910.00,0.0006
3909.00,0.0007
3908.00,0.0007
3907.00,0.0007
3906.00,0.0007
3905.00,0.0007
3904.00,0.0007
3903.00,0.0007
3902.00,0.0007
3901.00,0.0007
3900.00,0.0007
3899.00,0.0007
3898.00,0.0007
3897.00,0.0007
3896.00,0.0007
3895.00,0.0007
3894.00,0.0007
3893.00,0.0007
3892.00,0.0007
3891.00,0.0007
3890.00,0.0007
3889.00,0.0006
3888.00,0.0006
3887.00,0.0007
3886.00,0.0007
3885.00,0.0007
3884.00,0.0007
3883.00,0.0007
3882.00,0.0007
3881.00,0.0007
3880.00,0.0007
3879.00,0.0007
3878.00,0.0007
3877.00,0.0008
3876.00,0.0008
3875.00,0.0008
3874.00,0.0008
3873.00,0.0008
3872.00,0.0008
3871.00,0.0007
3870.00,0.0007
3869.00,0.0008
3868.00,0.0008
3867.00,0.0008
3866.00,0.0008
3865.00,0.0008
3864.00,0.0008
3863.00,0.0008
3862.00,0.0007
3861.00,0.0007
3860.00,0.0007
3859.00,0.0006
3858.00,0.0006
3857.00,0.0006
3856.00,0.0006
3855.00,0.0006
3854.00,0.0006
3853.00,0.0006
3852.00,0.0007
3851.00,0.0007
3850.00,0.0007
3849.00,0.0007
3848.00,0.0007
3847.00,0.0007
3846.00,0.0007
3845.00,0.0007
3844.00,0.0007
3843.00,0.0007
3842.00,0.0006
3841.00,0.0006
3840.00,0.0007
3839.00,0.0007
3838.00,0.0008
3837.00,0.0008
3836.00,0.0008
3835.00,0.0007
3834.00,0.0007
3833.00,0.0007
3832.00,0.0006
3831.00,0.0007
3830.00,0.0007
3829.00,0.0007
3828.00,0.0007
3827.00,0.0007
3826.00,0.0007
3825.00,0.0007
3824.00,0.0007
3823.00,0.0007
3822.00,0.0007
3821.00,0.0008
3820.00,0.0008
3819.00,0.0008
3818.00,0.0008
3817.00,0.0008
3816.00,0.0007
3815.00,0.0007
3814.00,0.0007
3813.00,0.0007
3812.00,0.0007
3811.00,0.0006
3810.00,0.0006
3809.00,0.0006
3808.00,0.0007
3807.00,0.0007
3806.00,0.0007
3805.00,0.0007
3804.00,0.0008
3803.00,0.0008
3802.00,0.0008
3801.00,0.0008
3800.00,0.0008
3799.00,0.0007
3798.00,0.0007
3797.00,0.0006
3796.00,0.0007
3795.00,0.0007
3794.00,0.0007
3793.00,0.0007
3792.00,0.0007
3791.00,0.0007
3790.00,0.0007
3789.00,0.0007
3788.00,0.0007
3787.00,0.0006
3786.00,0.0006
3785.00,0.0006
3784.00,0.0006
3783.00,0.0006
3782.00,0.0007
3781.00,0.0007
3780.00,0.0008
3779.00,0.0008
3778.00,0.0008
3777.00,0.0008
3776.00,0.0008
3775.00,0.0007
3774.00,0.0007
3773.00,0.0007
3772.00,0.0007
3771.00,0.0008
3770.00,0.0008
3769.00,0.0008
3768.00,0.0008
3767.00,0.0008
3766.00,0.0008
3765.00,0.0008
3764.00,0.0008
3763.00,0.0007
3762.00,0.0007
3761.00,0.0007
3760.00,0.0007
3759.00,0.0008
3758.00,0.0008
3757.00,0.0008
3756.00,0.0008
3755.00,0.0008
3754.00,0.0009
3753.00,0.0009
3752.00,0.0009
3751.00,0.0009
3750.00,0.0008
3749.00,0.0008
3748.00,0.0007
3747.00,0.0007
3746.00,0.0007
3745.00,0.0007
3744.00,0.0006
3743.00,0.0006
3742.00,0.0005
3741.00,0.0005
3740.00,0.0005
3739.00,0.0005
3738.00,0.0005
3737.00,0.0005
3736.00,0.0005
3735.00,0.0006
3734.00,0.0007
3733.00,0.0007
3732.00,0.0008
3731.00,0.0007
3730.00,0.0007
3729.00,0.0007
3728.00,0.0006
3727.00,0.0006
3726.00,0.0006
3725.00,0.0006
3724.00,0.0006
3723.00,0.0006
3722.00,0.0006
3721.00,0.0005
3720.00,0.0005
3719.00,0.0005
3718.00,0.0005
3717.00,0.0005
3716.00,0.0005
3715.00,0.0005
3714.00,0.0004
3713.00,0.0004
3712.00,0.0004
3711.00,0.0005
3710.00,0.0005
3709.00,0.0006
3708.00,0.0006
3707.00,0.0005
3706.00,0.0005
3705.00,0.0005
3704.00,0.0005
3703.00,0.0004
3702.00,0.0004
3701.00,0.0004
3700.00,0.0004
3699.00,0.0004
3698.00,0.0004
3697.00,0.0004
3696.00,0.0004
3695.00,0.0005
3694.00,0.0005
3693.00,0.0006
3692.00,0.0006
3691.00,0.0005
3690.00,0.0005
3689.00,0.0004
3688.00,0.0004
3687.00,0.0004
3686.00,0.0004
3685.00,0.0004
3684.00,0.0004
3683.00,0.0004
3682.00,0.0004
3681.00,0.0004
3680.00,0.0003
3679.00,0.0003
3678.00,0.0003
3677.00,0.0003
3676.00,0.0004
3675.00,0.0004
3674.00,0.0005
3673.00,0.0006
3672.00,0.0006
3671.00,0.0006
3670.00,0.0006
3669.00,0.0005
3668.00,0.0005
3667.00,0.0004
3666.00,0.0003
3665.00,0.0002
3664.00,0.0002
3663.00,0.0002
3662.00,0.0002
3661.00,0.0002
3660.00,0.0002
3659.00,0.0003
3658.00,0.0003
3657.00,0.0003
3656.00,0.0003
3655.00,0.0003
3654.00,0.0003
3653.00,0.0003
3652.00,0.0003
3651.00,0.0003
3650.00,0.0003
3649.00,0.0003
3648.00,0.0003
3647.00,0.0003
3646.00,0.0003
3645.00,0.0003
3644.00,0.0003
3643.00,0.0004
3642.00,0.0004
3641.00,0.0004
3640.00,0.0003
3639.00,0.0003
3638.00,0.0003
3637.00,0.0002
3636.00,0.0003
3635.00,0.0003
3634.00,0.0004
3633.00,0.0004
3632.00,0.0004
3631.00,0.0004
3630.00,0.0004
3629.00,0.0003
3628.00,0.0003
3627.00,0.0003
3626.00,0.0003
3625.00,0.0003
3624.00,0.0003
3623.00,0.0003
3622.00,0.0003
3621.00,0.0003
3620.00,0.0003
3619.00,0.0003
3618.00,0.0003
3617.00,0.0003
3616.00,0.0003
3615.00,0.0003
3614.00,0.0003
3613.00,0.0003
3612.00,0.0003
3611.00,0.0003
3610.00,0.0003
3609.00,0.0003
3608.00,0.0003
3607.00,0.0003
3606.00,0.0003
3605.00,0.0003
3604.00,0.0003
3603.00,0.0003
3602.00,0.0003
3601.00,0.0003
3600.00,0.0003
3599.00,0.0004
3598.00,0.0004
3597.00,0.0004
3596.00,0.0004
3595.00,0.0004
3594.00,0.0003
3593.00,0.0003
3592.00,0.0003
3591.00,0.0003
3590.00,0.0003
3589.00,0.0003
3588.00,0.0004
3587.00,0.0004
3586.00,0.0004
3585.00,0.0004
3584.00,0.0003
3583.00,0.0003
3582.00,0.0003
3581.00,0.0004
3580.00,0.0004
3579.00,0.0004
3578.00,0.0004
3577.00,0.0004
3576.00,0.0004
3575.00,0.0004
3574.00,0.0004
3573.00,0.0003
3572.00,0.0003
3571.00,0.0003
3570.00,0.0004
3569.00,0.0004
3568.00,0.0004
3567.00,0.0005
3566.00,0.0005
3565.00,0.0005
3564.00,0.0005
3563.00,0.0005
3562.00,0.0005
3561.00,0.0005
3560.00,0.0005
3559.00,0.0006
3558.00,0.0006
3557.00,0.0006
3556.00,0.0006
3555.00,0.0006
3554.00,0.0006
3553.00,0.0006
3552.00,0.0006
3551.00,0.0006
3550.00,0.0006
3549.00,0.0006
3548.00,0.0006
3547.00,0.0006
3546.00,0.0006
3545.00,0.0006
3544.00,0.0007
3543.00,0.0007
3542.00,0.0007
3541.00,0.0007
3540.00,0.0007
3539.00,0.0007
3538.00,0.0007
3537.00,0.0007
3536.00,0.0007
3535.00,0.0007
3534.00,0.0007
3533.00,0.0007
3532.00,0.0006
3531.00,0.0007
3530.00,0.0007
3529.00,0.0008
3528.00,0.0008
3527.00,0.0008
3526.00,0.0008
3525.00,0.0008
3524.00,0.0007
3523.00,0.0008
3522.00,0.0008
3521.00,0.0008
3520.00,0.0008
3519.00,0.0008
3518.00,0.0008
3517.00,0.0008
3516.00,0.0008
3515.00,0.0008
3514.00,0.0008
3513.00,0.0009
3512.00,0.0009
3511.00,0.0009
3510.00,0.0008
3509.00,0.0008
3508.00,0.0008
3507.00,0.0008
3506.00,0.0008
3505.00,0.0008
3504.00,0.0009
3503.00,0.0009
3502.00,0.0009
3501.00,0.0010
3500.00,0.0009
3499.00,0.0009
3498.00,0.0009
3497.00,0.0009
3496.00,0.0009
3495.00,0.0009
3494.00,0.0009
3493.00,0.0009
3492.00,0.0009
3491.00,0.0009
3490.00,0.0010
3489.00,0.0010
3488.00,0.0010
3487.00,0.0009
3486.00,0.0009
3485.00,0.0009
3484.00,0.0009
3483.00,0.0009
3482.00,0.0010
3481.00,0.0010
3480.00,0.0010
3479.00,0.0010
3478.00,0.0010
3477.00,0.0010
3476.00,0.0010
3475.00,0.0010
3474.00,0.0010
3473.00,0.0010
3472.00,0.0010
3471.00,0.0010
3470.00,0.0010
3469.00,0.0010
3468.00,0.0011
3467.00,0.0011
3466.00,0.0011
3465.00,0.0011
3464.00,0.0011
3463.00,0.0011
3462.00,0.0012
3461.00,0.0012
3460.00,0.0012
3459.00,0.0011
3458.00,0.0011
3457.00,0.0012
3456.00,0.0012
3455.00,0.0012
3454.00,0.0012
3453.00,0.0011
3452.00,0.0011
3451.00,0.0011
3450.00,0.0011
3449.00,0.0011
3448.00,0.0012
3447.00,0.0012
3446.00,0.0012
3445.00,0.0012
3444.00,0.0012
3443.00,0.0012
3442.00,0.0012
3441.00,0.0013
3440.00,0.0013
3439.00,0.0013
3438.00,0.0013
3437.00,0.0013
3436.00,0.0013
3435.00,0.0013
3434.00,0.0014
3433.00,0.0014
3432.00,0.0013
3431.00,0.0013
3430.00,0.0013
3429.00,0.0012
3428.00,0.0012
3427.00,0.0012
3426.00,0.0012
3425.00,0.0012
3424.00,0.0013
3423.00,0.0013
3422.00,0.0014
3421.00,0.0014
3420.00,0.0014
3419.00,0.0014
3418.00,0.0015
3417.00,0.0015
3416.00,0.0015
3415.00,0.0015
3414.00,0.0015
3413.00,0.0015
3412.00,0.0015
3411.00,0.0015
3410.00,0.0015
3409.00,0.0015
3408.00,0.0015
3407.00,0.0015
3406.00,0.0015
3405.00,0.0015
3404.00,0.0014
3403.00,0.0014
3402.00,0.0014
3401.00,0.0013
3400.00,0.0013
3399.00,0.0014
3398.00,0.0014
3397.00,0.0014
3396.00,0.0014
3395.00,0.0014
3394.00,0.0014
3393.00,0.0014
3392.00,0.0014
3391.00,0.0014
3390.00,0.0014
3389.00,0.0014
3388.00,0.0015
3387.00,0.0015
3386.00,0.0015
3385.00,0.0015
3384.00,0.0015
3383.00,0.0015
3382.00,0.0015
3381.00,0.0015
3380.00,0.0015
3379.00,0.0015
3378.00,0.0015
3377.00,0.0015
3376.00,0.0015
3375.00,0.0015
3374.00,0.0015
3373.00,0.0015
3372.00,0.0015
3371.00,0.0015
3370.00,0.0015
3369.00,0.0015
3368.00,0.0015
3367.00,0.0015
3366.00,0.0015
3365.00,0.0016
3364.00,0.0016
3363.00,0.0016
3362.00,0.0016
3361.00,0.0016
3360.00,0.0016
3359.00,0.0016
3358.00,0.0016
3357.00,0.0016
3356.00,0.0016
3355.00,0.0016
3354.00,0.0017
3353.00,0.0017
3352.00,0.0017
3351.00,0.0017
3350.00,0.0018
3349.00,0.0018
3348.00,0.0018
3347.00,0.0018
3346.00,0.0018
3345.00,0.0017
3344.00,0.0017
3343.00,0.0017
3342.00,0.0017
3341.00,0.0017
3340.00,0.0017
3339.00,0.0016
3338.00,0.0016
3337.00,0.0016
3336.00,0.0016
3335.00,0.0016
3334.00,0.0016
3333.00,0.0015
3332.00,0.0015
3331.00,0.0016
3330.00,0.0016
3329.00,0.0016
3328.00,0.0016
3327.00,0.0016
3326.00,0.0016
3325.00,0.0016
3324.00,0.0016
3323.00,0.0016
3322.00,0.0016
3321.00,0.0015
3320.00,0.0015
3319.00,0.0015
3318.00,0.0015
3317.00,0.0015
3316.00,0.0015
3315.00,0.0015
3314.00,0.0015
3313.00,0.0016
3312.00,0.0016
3311.00,0.0016
3310.00,0.0016
3309.00,0.0016
3308.00,0.0016
3307.00,0.0017
3306.00,0.0017
3305.00,0.0017
3304.00,0.0017
3303.00,0.0016
3302.00,0.0016
3301.00,0.0016
3300.00,0.0016
3299.00,0.0016
3298.00,0.0016
3297.00,0.0016
3296.00,0.0016
3295.00,0.0016
3294.00,0.0016
3293.00,0.0016
3292.00,0.0016
3291.00,0.0016
3290.00,0.0016
3289.00,0.0016
3288.00,0.0016
3287.00,0.0016
3286.00,0.0016
3285.00,0.0016
3284.00,0.0017
3283.00,0.0017
3282.00,0.0017
3281.00,0.0017
3280.00,0.0017
3279.00,0.0017
3278.00,0.0017
3277.00,0.0016
3276.00,0.0016
3275.00,0.0016
3274.00,0.0016
3273.00,0.0016
3272.00,0.0016
3271.00,0.0016
3270.00,0.0016
3269.00,0.0016
3268.00,0.0016
3267.00,0.0016
3266.00,0.0016
3265.00,0.0016
3264.00,0.0015
3263.00,0.0015
3262.00,0.0015
3261.00,0.0015
3260.00,0.0015
3259.00,0.0015
3258.00,0.0015
3257.00,0.0016
3256.00,0.0016
3255.00,0.0017
3254.00,0.0017
3253.00,0.0017
3252.00,0.0017
3251.00,0.0016
3250.00,0.0015
3249.00,0.0015
3248.00,0.0015
3247.00,0.0015
3246.00,0.0015
3245.00,0.0015
3244.00,0.0015
3243.00,0.0015
3242.00,0.0015
3241.00,0.0015
3240.00,0.0015
3239.00,0.0016
3238.00,0.0016
3237.00,0.0016
3236.00,0.0016
3235.00,0.0017
3234.00,0.0017
3233.00,0.0017
3232.00,0.0017
3231.00,0.0017
3230.00,0.0017
3229.00,0.0017
3228.00,0.0017
3227.00,0.0017
3226.00,0.0017
3225.00,0.0018
3224.00,0.0018
3223.00,0.0018
3222.00,0.0018
3221.00,0.0018
3220.00,0.0019
3219.00,0.0019
3218.00,0.0020
3217.00,0.0020
3216.00,0.0020
3215.00,0.0020
3214.00,0.0021
3213.00,0.0021
3212.00,0.0021
3211.00,0.0021
3210.00,0.0021
3209.00,0.0021
3208.00,0.0022
3207.00,0.0022
3206.00,0.0022
3205.00,0.0022
3204.00,0.0023
3203.00,0.0023
3202.00,0.0023
3201.00,0.0023
3200.00,0.0023
3199.00,0.0022
3198.00,0.0022
3197.00,0.0022
3196.00,0.0022
3195.00,0.0022
3194.00,0.0022
3193.00,0.0022
3192.00,0.0022
3191.00,0.0022
3190.00,0.0023
3189.00,0.0023
3188.00,0.0023
3187.00,0.0023
3186.00,0.0023
3185.00,0.0023
3184.00,0.0023
3183.00,0.0023
3182.00,0.0023
3181.00,0.0022
3180.00,0.0022
3179.00,0.0022
3178.00,0.0021
3177.00,0.0021
3176.00,0.0021
3175.00,0.0021
3174.00,0.0021
3173.00,0.0021
3172.00,0.0021
3171.00,0.0021
3170.00,0.0021
3169.00,0.0021
3168.00,0.0021
3167.00,0.0021
3166.00,0.0021
3165.00,0.0021
3164.00,0.0021
3163.00,0.0021
3162.00,0.0021
3161.00,0.0021
3160.00,0.0020
3159.00,0.0020
3158.00,0.0020
3157.00,0.0021
3156.00,0.0022
3155.00,0.0022
3154.00,0.0022
3153.00,0.0022
3152.00,0.0022
3151.00,0.0022
3150.00,0.0022
3149.00,0.0022
3148.00,0.0021
3147.00,0.0021
3146.00,0.0021
3145.00,0.0021
3144.00,0.0021
3143.00,0.0021
3142.00,0.0021
3141.00,0.0021
3140.00,0.0022
3139.00,0.0022
3138.00,0.0022
3137.00,0.0021
3136.00,0.0021
3135.00,0.0021
3134.00,0.0020
3133.00,0.0019
3132.00,0.0019
3131.00,0.0020
3130.00,0.0020
3129.00,0.0020
3128.00,0.0020
3127.00,0.0020
3126.00,0.0019
3125.00,0.0018
3124.00,0.0018
3123.00,0.0018
3122.00,0.0018
3121.00,0.0018
3120.00,0.0018
3119.00,0.0018
3118.00,0.0017
3117.00,0.0018
3116.00,0.0018
3115.00,0.0018
3114.00,0.0018
3113.00,0.0018
3112.00,0.0018
3111.00,0.0018
3110.00,0.0019
3109.00,0.0019
3108.00,0.0018
3107.00,0.0018
3106.00,0.0018
3105.00,0.0018
3104.00,0.0018
3103.00,0.0018
3102.00,0.0018
3101.00,0.0018
3100.00,0.0017
3099.00,0.0017
3098.00,0.0017
3097.00,0.0017
3096.00,0.0017
3095.00,0.0017
3094.00,0.0017
3093.00,0.0017
3092.00,0.0017
3091.00,0.0017
3090.00,0.0017
3089.00,0.0017
3088.00,0.0017
3087.00,0.0018
3086.00,0.0017
3085.00,0.0017
3084.00,0.0017
3083.00,0.0017
3082.00,0.0017
3081.00,0.0017
3080.00,0.0017
3079.00,0.0017
3078.00,0.0018
3077.00,0.0018
3076.00,0.0018
3075.00,0.0018
3074.00,0.0018
3073.00,0.0018
3072.00,0.0018
3071.00,0.0018
3070.00,0.0019
3069.00,0.0019
3068.00,0.0020
3067.00,0.0020
3066.00,0.0020
3065.00,0.0020
3064.00,0.0021
3063.00,0.0021
3062.00,0.0021
3061.00,0.0021
3060.00,0.0021
3059.00,0.0021
3058.00,0.0020
3057.00,0.0020
3056.00,0.0020
3055.00,0.0021
3054.00,0.0021
3053.00,0.0021
3052.00,0.0022
3051.00,0.0022
3050.00,0.0022
3049.00,0.0022
3048.00,0.0023
3047.00,0.0023
3046.00,0.0023
3045.00,0.0023
3044.00,0.0024
3043.00,0.0024
3042.00,0.0024
3041.00,0.0025
3040.00,0.0025
3039.00,0.0025
3038.00,0.0026
3037.00,0.0026
3036.00,0.0026
3035.00,0.0026
3034.00,0.0027
3033.00,0.0027
3032.00,0.0027
3031.00,0.0028
3030.00,0.0028
3029.00,0.0029
3028.00,0.0029
3027.00,0.0030
3026.00,0.0031
3025.00,0.0031
3024.00,0.0032
3023.00,0.0033
3022.00,0.0033
3021.00,0.0034
3020.00,0.0035
3019.00,0.0036
3018.00,0.0036
3017.00,0.0037
3016.00,0.0038
3015.00,0.0038
3014.00,0.0039
3013.00,0.0041
3012.00,0.0043
3011.00,0.0044
3010.00,0.0046
3009.00,0.0048
3008.00,0.0049
3007.00,0.0050
3006.00,0.0052
3005.00,0.0053
3004.00,0.0055
3003.00,0.0057
3002.00,0.0059
3001.00,0.0062
3000.00,0.0065
2999.00,0.0068
2998.00,0.0071
2997.00,0.0075
2996.00,0.0078
2995.00,0.0082
2994.00,0.0086
2993.00,0.0091
2992.00,0.0096
2991.00,0.0102
2990.00,0.0108
2989.00,0.0116
2988.00,0.0124
2987.00,0.0133
2986.00,0.0143
2985.00,0.0153
2984.00,0.0165
2983.00,0.0179
2982.00,0.0194
2981.00,0.0212
2980.00,0.0232
2979.00,0.0255
2978.00,0.0281
2977.00,0.0310
2976.00,0.0344
2975.00,0.0381
2974.00,0.0424
2973.00,0.0472
2972.00,0.0527
2971.00,0.0588
2970.00,0.0655
2969.00,0.0728
2968.00,0.0806
2967.00,0.0888
2966.00,0.0974
2965.00,0.1060
2964.00,0.1142
2963.00,0.1218
2962.00,0.1284
2961.00,0.1340
2960.00,0.1387
2959.00,0.1430
2958.00,0.1474
2957.00,0.1527
2956.00,0.1591
2955.00,0.1670
2954.00,0.1761
2953.00,0.1858
2952.00,0.1951
2951.00,0.2028
2950.00,0.2074
2949.00,0.2078
2948.00,0.2033
2947.00,0.1941
2946.00,0.1811
2945.00,0.1662
2944.00,0.1511
2943.00,0.1374
2942.00,0.1261
2941.00,0.1178
2940.00,0.1124
2939.00,0.1097
2938.00,0.1095
2937.00,0.1114
2936.00,0.1153
2935.00,0.1209
2934.00,0.1282
2933.00,0.1369
2932.00,0.1470
2931.00,0.1581
2930.00,0.1701
2929.00,0.1825
2928.00,0.1948
2927.00,0.2070
2926.00,0.2187
2925.00,0.2300
2924.00,0.2410
2923.00,0.2520
2922.00,0.2630
2921.00,0.2738
2920.00,0.2836
2919.00,0.2915
2918.00,0.2963
2917.00,0.2969
2916.00,0.2932
2915.00,0.2855
2914.00,0.2749
2913.00,0.2627
2912.00,0.2501
2911.00,0.2379
2910.00,0.2267
2909.00,0.2164
2908.00,0.2069
2907.00,0.1980
2906.00,0.1894
2905.00,0.1810
2904.00,0.1727
2903.00,0.1647
2902.00,0.1568
2901.00,0.1492
2900.00,0.1420
2899.00,0.1353
2898.00,0.1292
2897.00,0.1237
2896.00,0.1190
2895.00,0.1150
2894.00,0.1117
2893.00,0.1093
2892.00,0.1076
2891.00,0.1066
2890.00,0.1063
2889.00,0.1065
2888.00,0.1071
2887.00,0.1081
2886.00,0.1095
2885.00,0.1114
2884.00,0.1137
2883.00,0.1166
2882.00,0.1200
2881.00,0.1238
2880.00,0.1275
2879.00,0.1307
2878.00,0.1330
2877.00,0.1340
2876.00,0.1338
2875.00,0.1329
2874.00,0.1318
2873.00,0.1313
2872.00,0.1317
2871.00,0.1332
2870.00,0.1354
2869.00,0.1378
2868.00,0.1396
2867.00,0.1396
2866.00,0.1370
2865.00,0.1312
2864.00,0.1225
2863.00,0.1118
2862.00,0.1005
2861.00,0.0897
2860.00,0.0803
2859.00,0.0726
2858.00,0.0666
2857.00,0.0623
2856.00,0.0593
2855.00,0.0574
2854.00,0.0565
2853.00,0.0565
2852.00,0.0572
2851.00,0.0587
2850.00,0.0610
2849.00,0.0641
2848.00,0.0679
2847.00,0.0726
2846.00,0.0782
2845.00,0.0848
2844.00,0.0921
2843.00,0.1001
2842.00,0.1082
2841.00,0.1159
2840.00,0.1223
2839.00,0.1266
2838.00,0.1278
2837.00,0.1254
2836.00,0.1193
2835.00,0.1102
2834.00,0.0991
2833.00,0.0873
2832.00,0.0761
2831.00,0.0660
2830.00,0.0576
2829.00,0.0506
2828.00,0.0450
2827.00,0.0405
2826.00,0.0368
2825.00,0.0338
2824.00,0.0313
2823.00,0.0293
2822.00,0.0275
2821.00,0.0260
2820.00,0.0247
2819.00,0.0236
2818.00,0.0226
2817.00,0.0218
2816.00,0.0210
2815.00,0.0204
2814.00,0.0197
2813.00,0.0191
2812.00,0.0186
2811.00,0.0180
2810.00,0.0174
2809.00,0.0168
2808.00,0.0161
2807.00,0.0155
2806.00,0.0148
2805.00,0.0141
2804.00,0.0134
2803.00,0.0128
2802.00,0.0122
2801.00,0.0118
2800.00,0.0114
2799.00,0.0110
2798.00,0.0107
2797.00,0.0105
2796.00,0.0102
2795.00,0.0099
2794.00,0.0097
2793.00,0.0094
2792.00,0.0091
2791.00,0.0088
2790.00,0.0085
2789.00,0.0082
2788.00,0.0079
2787.00,0.0077
2786.00,0.0074
2785.00,0.0072
2784.00,0.0070
2783.00,0.0068
2782.00,0.0066
2781.00,0.0064
2780.00,0.0062
2779.00,0.0060
2778.00,0.0059
2777.00,0.0058
2776.00,0.0057
2775.00,0.0056
2774.00,0.0055
2773.00,0.0054
2772.00,0.0053
2771.00,0.0053
2770.00,0.0052
2769.00,0.0052
2768.00,0.0052
2767.00,0.0052
2766.00,0.0052
2765.00,0.0051
2764.00,0.0051
2763.00,0.0051
2762.00,0.0050
2761.00,0.0050
2760.00,0.0049
2759.00,0.0049
2758.00,0.0049
2757.00,0.0048
2756.00,0.0049
2755.00,0.0049
2754.00,0.0049
2753.00,0.0049
2752.00,0.0049
2751.00,0.0049
2750.00,0.0048
2749.00,0.0048
2748.00,0.0049
2747.00,0.0049
2746.00,0.0050
2745.00,0.0051
2744.00,0.0052
2743.00,0.0052
2742.00,0.0053
2741.00,0.0054
2740.00,0.0056
2739.00,0.0057
2738.00,0.0059
2737.00,0.0061
2736.00,0.0063
2735.00,0.0064
2734.00,0.0066
2733.00,0.0067
2732.00,0.0069
2731.00,0.0071
2730.00,0.0073
2729.00,0.0076
2728.00,0.0080
2727.00,0.0083
2726.00,0.0086
2725.00,0.0089
2724.00,0.0091
2723.00,0.0091
2722.00,0.0090
2721.00,0.0088
2720.00,0.0085
2719.00,0.0082
2718.00,0.0078
2717.00,0.0074
2716.00,0.0071
2715.00,0.0068
2714.00,0.0065
2713.00,0.0063
2712.00,0.0060
2711.00,0.0058
2710.00,0.0056
2709.00,0.0054
2708.00,0.0052
2707.00,0.0050
2706.00,0.0049
2705.00,0.0048
2704.00,0.0047
2703.00,0.0046
2702.00,0.0045
2701.00,0.0044
2700.00,0.0043
2699.00,0.0042
2698.00,0.0042
2697.00,0.0041
2696.00,0.0041
2695.00,0.0041
2694.00,0.0041
2693.00,0.0041
2692.00,0.0041
2691.00,0.0041
2690.00,0.0041
2689.00,0.0041
2688.00,0.0041
2687.00,0.0041
2686.00,0.0042
2685.00,0.0042
2684.00,0.0042
2683.00,0.0042
2682.00,0.0042
2681.00,0.0042
2680.00,0.0043
2679.00,0.0043
2678.00,0.0043
2677.00,0.0043
2676.00,0.0043
2675.00,0.0043
2674.00,0.0043
2673.00,0.0043
2672.00,0.0043
2671.00,0.0042
2670.00,0.0042
2669.00,0.0042
2668.00,0.0043
2667.00,0.0043
2666.00,0.0043
2665.00,0.0043
2664.00,0.0044
2663.00,0.0044
2662.00,0.0045
2661.00,0.0046
2660.00,0.0046
2659.00,0.0046
2658.00,0.0045
2657.00,0.0045
2656.00,0.0045
2655.00,0.0045
2654.00,0.0044
2653.00,0.0044
2652.00,0.0043
2651.00,0.0042
2650.00,0.0042
2649.00,0.0042
2648.00,0.0041
2647.00,0.0041
2646.00,0.0040
2645.00,0.0040
2644.00,0.0039
2643.00,0.0039
2642.00,0.0038
2641.00,0.0037
2640.00,0.0037
2639.00,0.0037
2638.00,0.0036
2637.00,0.0036
2636.00,0.0036
2635.00,0.0036
2634.00,0.0036
2633.00,0.0036
2632.00,0.0037
2631.00,0.0037
2630.00,0.0037
2629.00,0.0037
2628.00,0.0037
2627.00,0.0037
2626.00,0.0037
2625.00,0.0038
2624.00,0.0038
2623.00,0.0038
2622.00,0.0038
2621.00,0.0038
2620.00,0.0039
2619.00,0.0039
2618.00,0.0040
2617.00,0.0040
2616.00,0.0040
2615.00,0.0039
2614.00,0.0039
2613.00,0.0039
2612.00,0.0039
2611.00,0.0038
2610.00,0.0037
2609.00,0.0035
2608.00,0.0034
2607.00,0.0033
2606.00,0.0032
2605.00,0.0032
2604.00,0.0031
2603.00,0.0031
2602.00,0.0031
2601.00,0.0030
2600.00,0.0030
2599.00,0.0029
2598.00,0.0029
2597.00,0.0029
2596.00,0.0030
2595.00,0.0030
2594.00,0.0031
2593.00,0.0032
2592.00,0.0032
2591.00,0.0033
2590.00,0.0034
2589.00,0.0035
2588.00,0.0036
2587.00,0.0037
2586.00,0.0038
2585.00,0.0039
2584.00,0.0040
2583.00,0.0041
2582.00,0.0041
2581.00,0.0041
2580.00,0.0040
2579.00,0.0039
2578.00,0.0038
2577.00,0.0037
2576.00,0.0035
2575.00,0.0033
2574.00,0.0032
2573.00,0.0031
2572.00,0.0030
2571.00,0.0029
2570.00,0.0029
2569.00,0.0028
2568.00,0.0027
2567.00,0.0026
2566.00,0.0025
2565.00,0.0024
2564.00,0.0024
2563.00,0.0024
2562.00,0.0024
2561.00,0.0024
2560.00,0.0024
2559.00,0.0023
2558.00,0.0023
2557.00,0.0022
2556.00,0.0022
2555.00,0.0022
2554.00,0.0022
2553.00,0.0021
2552.00,0.0021
2551.00,0.0020
2550.00,0.0020
2549.00,0.0019
2548.00,0.0019
2547.00,0.0019
2546.00,0.0019
2545.00,0.0019
2544.00,0.0018
2543.00,0.0018
2542.00,0.0017
2541.00,0.0016
2540.00,0.0016
2539.00,0.0015
2538.00,0.0015
2537.00,0.0015
2536.00,0.0015
2535.00,0.0014
2534.00,0.0014
2533.00,0.0013
2532.00,0.0013
2531.00,0.0012
2530.00,0.0013
2529.00,0.0014
2528.00,0.0014
2527.00,0.0015
2526.00,0.0015
2525.00,0.0015
2524.00,0.0014
2523.00,0.0014
2522.00,0.0014
2521.00,0.0013
2520.00,0.0013
2519.00,0.0012
2518.00,0.0011
2517.00,0.0011
2516.00,0.0010
2515.00,0.0009
2514.00,0.0009
2513.00,0.0008
2512.00,0.0008
2511.00,0.0008
2510.00,0.0008
2509.00,0.0008
2508.00,0.0008
2507.00,0.0008
2506.00,0.0007
2505.00,0.0008
2504.00,0.0009
2503.00,0.0009
2502.00,0.0010
2501.00,0.0010
2500.00,0.0010
2499.00,0.0010
2498.00,0.0009
2497.00,0.0009
2496.00,0.0009
2495.00,0.0009
2494.00,0.0010
2493.00,0.0010
2492.00,0.0010
2491.00,0.0010
2490.00,0.0009
2489.00,0.0009
2488.00,0.0009
2487.00,0.0009
2486.00,0.0009
2485.00,0.0009
2484.00,0.0009
2483.00,0.0010
2482.00,0.0009
2481.00,0.0008
2480.00,0.0008
2479.00,0.0008
2478.00,0.0008
2477.00,0.0008
2476.00,0.0008
2475.00,0.0008
2474.00,0.0008
2473.00,0.0008
2472.00,0.0008
2471.00,0.0008
2470.00,0.0007
2469.00,0.0007
2468.00,0.0007
2467.00,0.0007
2466.00,0.0007
2465.00,0.0008
2464.00,0.0008
2463.00,0.0008
2462.00,0.0009
2461.00,0.0009
2460.00,0.0010
2459.00,0.0010
2458.00,0.0011
2457.00,0.0011
2456.00,0.0011
2455.00,0.0011
2454.00,0.0012
2453.00,0.0012
2452.00,0.0012
2451.00,0.0011
2450.00,0.0010
2449.00,0.0009
2448.00,0.0009
2447.00,0.0008
2446.00,0.0009
2445.00,0.0009
2444.00,0.0009
2443.00,0.0009
2442.00,0.0009
2441.00,0.0009
2440.00,0.0008
2439.00,0.0009
2438.00,0.0009
2437.00,0.0010
2436.00,0.0010
2435.00,0.0009
2434.00,0.0009
2433.00,0.0009
2432.00,0.0010
2431.00,0.0010
2430.00,0.0011
2429.00,0.0011
2428.00,0.0012
2427.00,0.0012
2426.00,0.0012
2425.00,0.0011
2424.00,0.0010
2423.00,0.0010
2422.00,0.0009
2421.00,0.0009
2420.00,0.0009
2419.00,0.0009
2418.00,0.0009
2417.00,0.0009
2416.00,0.0009
2415.00,0.0009
2414.00,0.0009
2413.00,0.0009
2412.00,0.0009
2411.00,0.0009
2410.00,0.0009
2409.00,0.0009
2408.00,0.0008
2407.00,0.0007
2406.00,0.0007
2405.00,0.0007
2404.00,0.0008
2403.00,0.0008
2402.00,0.0008
2401.00,0.0007
2400.00,0.0007
2399.00,0.0007
2398.00,0.0006
2397.00,0.0006
2396.00,0.0006
2395.00,0.0006
2394.00,0.0007
2393.00,0.0007
2392.00,0.0006
2391.00,0.0006
2390.00,0.0006
2389.00,0.0006
2388.00,0.0006
2387.00,0.0005
2386.00,0.0004
2385.00,0.0004
2384.00,0.0003
2383.00,0.0003
2382.00,0.0002
2381.00,0.0001
2380.00,0.0001
2379.00,0.0001
2378.00,0.0001
2377.00,0.0002
2376.00,0.0002
2375.00,0.0003
2374.00,0.0002
2373.00,0.0002
2372.00,0.0002
2371.00,0.0002
2370.00,0.0001
2369.00,0.0001
2368.00,-0.0000
2367.00,-0.0001
2366.00,-0.0001
2365.00,-0.0000
2364.00,0.0000
2363.00,0.0001
2362.00,0.0002
2361.00,0.0002
2360.00,0.0003
2359.00,0.0003
2358.00,0.0004
2357.00,0.0004
2356.00,0.0004
2355.00,0.0004
2354.00,0.0004
2353.00,0.0004
2352.00,0.0003
2351.00,0.0004
2350.00,0.0004
2349.00,0.0005
2348.00,0.0005
2347.00,0.0005
2346.00,0.0005
2345.00,0.0005
2344.00,0.0004
2343.00,0.0004
2342.00,0.0005
2341.00,0.0005
2340.00,0.0006
2339.00,0.0006
2338.00,0.0007
2337.00,0.0007
2336.00,0.0008
2335.00,0.0008
2334.00,0.0007
2333.00,0.0006
2332.00,0.0005
2331.00,0.0005
2330.00,0.0005
2329.00,0.0005
2328.00,0.0007
2327.00,0.0010
2326.00,0.0014
2325.00,0.0018
2324.00,0.0020
2323.00,0.0019
2322.00,0.0017
2321.00,0.0014
2320.00,0.0012
2319.00,0.0011
2318.00,0.0011
2317.00,0.0010
2316.00,0.0010
2315.00,0.0010
2314.00,0.0010
2313.00,0.0009
2312.00,0.0008
2311.00,0.0007
2310.00,0.0007
2309.00,0.0006
2308.00,0.0006
2307.00,0.0006
2306.00,0.0006
2305.00,0.0005
2304.00,0.0005
2303.00,0.0005
2302.00,0.0005
2301.00,0.0005
2300.00,0.0006
2299.00,0.0007
2298.00,0.0008
2297.00,0.0009
2296.00,0.0010
2295.00,0.0011
2294.00,0.0012
2293.00,0.0013
2292.00,0.0014
2291.00,0.0014
2290.00,0.0015
2289.00,0.0016
2288.00,0.0017
2287.00,0.0018
2286.00,0.0018
2285.00,0.0018
2284.00,0.0017
2283.00,0.0016
2282.00,0.0016
2281.00,0.0015
2280.00,0.0015
2279.00,0.0015
2278.00,0.0014
2277.00,0.0013
2276.00,0.0013
2275.00,0.0012
2274.00,0.0012
2273.00,0.0013
2272.00,0.0013
2271.00,0.0014
2270.00,0.0014
2269.00,0.0014
2268.00,0.0014
2267.00,0.0013
2266.00,0.0012
2265.00,0.0011
2264.00,0.0011
2263.00,0.0011
2262.00,0.0012
2261.00,0.0012
2260.00,0.0012
2259.00,0.0012
2258.00,0.0011
2257.00,0.0010
2256.00,0.0009
2255.00,0.0008
2254.00,0.0007
2253.00,0.0007
2252.00,0.0006
2251.00,0.0007
2250.00,0.0008
2249.00,0.0008
2248.00,0.0009
2247.00,0.0008
2246.00,0.0008
2245.00,0.0008
2244.00,0.0008
2243.00,0.0008
2242.00,0.0007
2241.00,0.0007
2240.00,0.0006
2239.00,0.0005
2238.00,0.0006
2237.00,0.0007
2236.00,0.0008
2235.00,0.0010
2234.00,0.0010
2233.00,0.0009
2232.00,0.0008
2231.00,0.0006
2230.00,0.0005
2229.00,0.0005
2228.00,0.0006
2227.00,0.0006
2226.00,0.0005
2225.00,0.0004
2224.00,0.0002
2223.00,0.0001
2222.00,0.0002
2221.00,0.0003
2220.00,0.0005
2219.00,0.0005
2218.00,0.0004
2217.00,0.0005
2216.00,0.0006
2215.00,0.0007
2214.00,0.0007
2213.00,0.0006
2212.00,0.0005
2211.00,0.0005
2210.00,0.0005
2209.00,0.0006
2208.00,0.0007
2207.00,0.0007
2206.00,0.0008
2205.00,0.0009
2204.00,0.0009
2203.00,0.0009
2202.00,0.0007
2201.00,0.0005
2200.00,0.0005
2199.00,0.0005
2198.00,0.0007
2197.00,0.0008
2196.00,0.0009
2195.00,0.0009
2194.00,0.0010
2193.00,0.0011
2192.00,0.0012
2191.00,0.0010
2190.00,0.0008
2189.00,0.0007
2188.00,0.0007
2187.00,0.0008
2186.00,0.0009
2185.00,0.0009
2184.00,0.0007
2183.00,0.0006
2182.00,0.0005
2181.00,0.0005
2180.00,0.0005
2179.00,0.0004
2178.00,0.0004
2177.00,0.0003
2176.00,0.0003
2175.00,0.0002
2174.00,0.0001
2173.00,0.0001
2172.00,0.0002
2171.00,0.0005
2170.00,0.0008
2169.00,0.0011
2168.00,0.0014
2167.00,0.0018
2166.00,0.0022
2165.00,0.0024
2164.00,0.0026
2163.00,0.0026
2162.00,0.0024
2161.00,0.0016
2160.00,0.0001
2159.00,-0.0015
2158.00,-0.0026
2157.00,-0.0030
2156.00,-0.0029
2155.00,-0.0028
2154.00,-0.0028
2153.00,-0.0026
2152.00,-0.0023
2151.00,-0.0020
2150.00,-0.0018
2149.00,-0.0018
2148.00,-0.0019
2147.00,-0.0019
2146.00,-0.0019
2145.00,-0.0017
2144.00,-0.0014
2143.00,-0.0013
2142.00,-0.0012
2141.00,-0.0012
2140.00,-0.0013
2139.00,-0.0012
2138.00,-0.0011
2137.00,-0.0011
2136.00,-0.0012
2135.00,-0.0016
2134.00,-0.0020
2133.00,-0.0022
2132.00,-0.0021
2131.00,-0.0018
2130.00,-0.0015
2129.00,-0.0013
2128.00,-0.0012
2127.00,-0.0011
2126.00,-0.0010
2125.00,-0.0008
2124.00,-0.0007
2123.00,-0.0007
2122.00,-0.0006
2121.00,-0.0006
2120.00,-0.0005
2119.00,-0.0005
2118.00,-0.0004
2117.00,-0.0003
2116.00,-0.0003
2115.00,-0.0001
2114.00,0.0000
2113.00,0.0002
2112.00,0.0003
2111.00,0.0003
2110.00,0.0003
2109.00,0.0001
2108.00,-0.0000
2107.00,-0.0001
2106.00,-0.0001
2105.00,-0.0000
2104.00,0.0000
2103.00,0.0000
2102.00,0.0000
2101.00,-0.0000
2100.00,-0.0000
2099.00,-0.0001
2098.00,-0.0002
2097.00,-0.0003
2096.00,-0.0005
2095.00,-0.0006
2094.00,-0.0007
2093.00,-0.0007
2092.00,-0.0007
2091.00,-0.0006
2090.00,-0.0005
2089.00,-0.0004
2088.00,-0.0003
2087.00,-0.0002
2086.00,-0.0001
2085.00,-0.0000
2084.00,0.0001
2083.00,0.0002
2082.00,0.0003
2081.00,0.0003
2080.00,0.0003
2079.00,0.0004
2078.00,0.0004
2077.00,0.0003
2076.00,0.0002
2075.00,0.0001
2074.00,0.0001
2073.00,0.0001
2072.00,0.0002
2071.00,0.0001
2070.00,-0.0000
2069.00,-0.0002
2068.00,-0.0003
2067.00,-0.0004
2066.00,-0.0004
2065.00,-0.0004
2064.00,-0.0004
2063.00,-0.0003
2062.00,-0.0002
2061.00,-0.0002
2060.00,-0.0001
2059.00,-0.0001
2058.00,-0.0000
2057.00,0.0001
2056.00,0.0001
2055.00,0.0001
2054.00,0.0002
2053.00,0.0005
2052.00,0.0009
2051.00,0.0010
2050.00,0.0007
2049.00,0.0002
2048.00,-0.0002
2047.00,-0.0004
2046.00,-0.0003
2045.00,-0.0002
2044.00,-0.0002
2043.00,-0.0003
2042.00,-0.0003
2041.00,-0.0003
2040.00,-0.0002
2039.00,-0.0002
2038.00,-0.0002
2037.00,-0.0001
2036.00,0.0000
2035.00,0.0000
2034.00,-0.0001
2033.00,-0.0002
2032.00,-0.0003
2031.00,-0.0004
2030.00,-0.0006
2029.00,-0.0009
2028.00,-0.0011
2027.00,-0.0013
2026.00,-0.0014
2025.00,-0.0014
2024.00,-0.0015
2023.00,-0.0016
2022.00,-0.0017
2021.00,-0.0017
2020.00,-0.0016
2019.00,-0.0015
2018.00,-0.0014
2017.00,-0.0013
2016.00,-0.0011
2015.00,-0.0008
2014.00,-0.0007
2013.00,-0.0008
2012.00,-0.0010
2011.00,-0.0014
2010.00,-0.0017
2009.00,-0.0019
2008.00,-0.0020
2007.00,-0.0021
2006.00,-0.0022
2005.00,-0.0023
2004.00,-0.0021
2003.00,-0.0018
2002.00,-0.0014
2001.00,-0.0012
2000.00,-0.0011
1999.00,-0.0011
1998.00,-0.0012
1997.00,-0.0012
1996.00,-0.0012
1995.00,-0.0010
1994.00,-0.0009
1993.00,-0.0006
1992.00,-0.0004
1991.00,-0.0002
1990.00,-0.0002
1989.00,-0.0001
1988.00,-0.0001
1987.00,-0.0002
1986.00,-0.0002
1985.00,-0.0001
1984.00,0.0001
1983.00,0.0005
1982.00,0.0008
1981.00,0.0010
1980.00,0.0008
1979.00,0.0001
1978.00,-0.0008
1977.00,-0.0016
1976.00,-0.0021
1975.00,-0.0020
1974.00,-0.0016
1973.00,-0.0012
1972.00,-0.0013
1971.00,-0.0015
1970.00,-0.0017
1969.00,-0.0016
1968.00,-0.0014
1967.00,-0.0013
1966.00,-0.0014
1965.00,-0.0015
1964.00,-0.0017
1963.00,-0.0018
1962.00,-0.0019
1961.00,-0.0020
1960.00,-0.0020
1959.00,-0.0020
1958.00,-0.0021
1957.00,-0.0022
1956.00,-0.0023
1955.00,-0.0023
1954.00,-0.0021
1953.00,-0.0018
1952.00,-0.0015
1951.00,-0.0015
1950.00,-0.0016
1949.00,-0.0017
1948.00,-0.0017
1947.00,-0.0016
1946.00,-0.0016
1945.00,-0.0015
1944.00,-0.0016
1943.00,-0.0017
1942.00,-0.0017
1941.00,-0.0016
1940.00,-0.0015
1939.00,-0.0014
1938.00,-0.0013
1937.00,-0.0013
1936.00,-0.0013
1935.00,-0.0014
1934.00,-0.0014
1933.00,-0.0014
1932.00,-0.0013
1931.00,-0.0012
1930.00,-0.0011
1929.00,-0.0010
1928.00,-0.0009
1927.00,-0.0009
1926.00,-0.0009
1925.00,-0.0007
1924.00,-0.0006
1923.00,-0.0004
1922.00,-0.0003
1921.00,-0.0003
1920.00,-0.0004
1919.00,-0.0006
1918.00,-0.0006
1917.00,-0.0006
1916.00,-0.0005
1915.00,-0.0004
1914.00,-0.0003
1913.00,-0.0003
1912.00,-0.0003
1911.00,-0.0004
1910.00,-0.0005
1909.00,-0.0006
1908.00,-0.0006
1907.00,-0.0006
1906.00,-0.0005
1905.00,-0.0005
1904.00,-0.0004
1903.00,-0.0004
1902.00,-0.0003
1901.00,-0.0003
1900.00,-0.0003
1899.00,-0.0004
1898.00,-0.0005
1897.00,-0.0006
1896.00,-0.0005
1895.00,-0.0005
1894.00,-0.0004
1893.00,-0.0004
1892.00,-0.0004
1891.00,-0.0005
1890.00,-0.0005
1889.00,-0.0004
1888.00,-0.0004
1887.00,-0.0004
1886.00,-0.0004
1885.00,-0.0004
1884.00,-0.0005
1883.00,-0.0005
1882.00,-0.0005
1881.00,-0.0005
1880.00,-0.0004
1879.00,-0.0003
1878.00,-0.0003
1877.00,-0.0002
1876.00,-0.0002
1875.00,-0.0002
1874.00,-0.0002
1873.00,-0.0003
1872.00,-0.0003
1871.00,-0.0004
1870.00,-0.0004
1869.00,-0.0004
1868.00,-0.0004
1867.00,-0.0003
1866.00,-0.0003
1865.00,-0.0002
1864.00,-0.0002
1863.00,-0.0002
1862.00,-0.0002
1861.00,-0.0002
1860.00,-0.0002
1859.00,-0.0002
1858.00,-0.0002
1857.00,-0.0002
1856.00,-0.0002
1855.00,-0.0002
1854.00,-0.0002
1853.00,-0.0002
1852.00,-0.0002
1851.00,-0.0001
1850.00,-0.0001
1849.00,-0.0001
1848.00,-0.0001
1847.00,-0.0001
1846.00,-0.0001
1845.00,-0.0001
1844.00,-0.0001
1843.00,-0.0000
1842.00,0.0001
1841.00,0.0001
1840.00,0.0001
1839.00,0.0001
1838.00,0.0001
1837.00,0.0001
1836.00,0.0001
1835.00,0.0001
1834.00,0.0002
1833.00,0.0002
1832.00,0.0003
1831.00,0.0002
1830.00,0.0001
1829.00,0.0000
1828.00,0.0001
1827.00,0.0001
1826.00,0.0002
1825.00,0.0002
1824.00,0.0001
1823.00,0.0001
1822.00,0.0001
1821.00,0.0001
1820.00,0.0000
1819.00,-0.0001
1818.00,-0.0003
1817.00,-0.0004
1816.00,-0.0003
1815.00,-0.0003
1814.00,-0.0002
1813.00,-0.0001
1812.00,0.0000
1811.00,0.0001
1810.00,0.0001
1809.00,0.0002
1808.00,0.0002
1807.00,0.0002
1806.00,0.0002
1805.00,0.0001
1804.00,0.0001
1803.00,0.0000
1802.00,0.0000
1801.00,0.0001
1800.00,0.0002
1799.00,0.0002
1798.00,0.0002
1797.00,0.0003
1796.00,0.0003
1795.00,0.0003
1794.00,0.0004
1793.00,0.0004
1792.00,0.0004
1791.00,0.0004
1790.00,0.0005
1789.00,0.0005
1788.00,0.0005
1787.00,0.0004
1786.00,0.0005
1785.00,0.0005
1784.00,0.0005
1783.00,0.0006
1782.00,0.0006
1781.00,0.0005
1780.00,0.0005
1779.00,0.0005
1778.00,0.0005
1777.00,0.0005
1776.00,0.0006
1775.00,0.0006
1774.00,0.0006
1773.00,0.0006
1772.00,0.0006
1771.00,0.0006
1770.00,0.0006
1769.00,0.0006
1768.00,0.0006
1767.00,0.0006
1766.00,0.0007
1765.00,0.0007
1764.00,0.0008
1763.00,0.0008
1762.00,0.0009
1761.00,0.0009
1760.00,0.0010
1759.00,0.0009
1758.00,0.0009
1757.00,0.0009
1756.00,0.0010
1755.00,0.0010
1754.00,0.0010
1753.00,0.0010
1752.00,0.0011
1751.00,0.0011
1750.00,0.0011
1749.00,0.0012
1748.00,0.0012
1747.00,0.0012
1746.00,0.0012
1745.00,0.0012
1744.00,0.0013
1743.00,0.0013
1742.00,0.0013
1741.00,0.0013
1740.00,0.0013
1739.00,0.0013
1738.00,0.0014
1737.00,0.0015
1736.00,0.0015
1735.00,0.0015
1734.00,0.0015
1733.00,0.0014
1732.00,0.0014
1731.00,0.0014
1730.00,0.0014
1729.00,0.0014
1728.00,0.0014
1727.00,0.0014
1726.00,0.0014
1725.00,0.0015
1724.00,0.0015
1723.00,0.0015
1722.00,0.0015
1721.00,0.0015
1720.00,0.0015
1719.00,0.0015
1718.00,0.0016
1717.00,0.0016
1716.00,0.0017
1715.00,0.0017
1714.00,0.0018
1713.00,0.0018
1712.00,0.0018
1711.00,0.0018
1710.00,0.0018
1709.00,0.0018
1708.00,0.0018
1707.00,0.0018
1706.00,0.0018
1705.00,0.0019
1704.00,0.0019
1703.00,0.0019
1702.00,0.0019
1701.00,0.0018
1700.00,0.0019
1699.00,0.0019
1698.00,0.0019
1697.00,0.0019
1696.00,0.0019
1695.00,0.0020
1694.00,0.0021
1693.00,0.0021
1692.00,0.0022
1691.00,0.0022
1690.00,0.0022
1689.00,0.0021
1688.00,0.0021
1687.00,0.0021
1686.00,0.0021
1685.00,0.0020
1684.00,0.0020
1683.00,0.0021
1682.00,0.0021
1681.00,0.0022
1680.00,0.0022
1679.00,0.0022
1678.00,0.0022
1677.00,0.0022
1676.00,0.0022
1675.00,0.0022
1674.00,0.0022
1673.00,0.0022
1672.00,0.0022
1671.00,0.0022
1670.00,0.0022
1669.00,0.0022
1668.00,0.0023
1667.00,0.0023
1666.00,0.0023
1665.00,0.0024
1664.00,0.0024
1663.00,0.0024
1662.00,0.0024
1661.00,0.0024
1660.00,0.0025
1659.00,0.0024
1658.00,0.0024
1657.00,0.0024
1656.00,0.0025
1655.00,0.0026
1654.00,0.0027
1653.00,0.0027
1652.00,0.0027
1651.00,0.0027
1650.00,0.0027
1649.00,0.0027
1648.00,0.0028
1647.00,0.0028
1646.00,0.0029
1645.00,0.0029
1644.00,0.0029
1643.00,0.0029
1642.00,0.0029
1641.00,0.0029
1640.00,0.0029
1639.00,0.0029
1638.00,0.0030
1637.00,0.0031
1636.00,0.0031
1635.00,0.0031
1634.00,0.0030
1633.00,0.0030
1632.00,0.0030
1631.00,0.0031
1630.00,0.0030
1629.00,0.0030
1628.00,0.0031
1627.00,0.0030
1626.00,0.0030
1625.00,0.0030
1624.00,0.0030
1623.00,0.0030
1622.00,0.0030
1621.00,0.0029
1620.00,0.0029
1619.00,0.0030
1618.00,0.0030
1617.00,0.0029
1616.00,0.0029
1615.00,0.0029
1614.00,0.0028
1613.00,0.0028
1612.00,0.0028
1611.00,0.0028
1610.00,0.0028
1609.00,0.0028
1608.00,0.0029
1607.00,0.0029
1606.00,0.0029
1605.00,0.0029
1604.00,0.0029
1603.00,0.0028
1602.00,0.0028
1601.00,0.0028
1600.00,0.0027
1599.00,0.0027
1598.00,0.0027
1597.00,0.0028
1596.00,0.0028
1595.00,0.0028
1594.00,0.0028
1593.00,0.0028
1592.00,0.0029
1591.00,0.0029
1590.00,0.0030
1589.00,0.0030
1588.00,0.0031
1587.00,0.0032
1586.00,0.0032
1585.00,0.0033
1584.00,0.0035
1583.00,0.0036
1582.00,0.0037
1581.00,0.0039
1580.00,0.0040
1579.00,0.0042
1578.00,0.0043
1577.00,0.0043
1576.00,0.0043
1575.00,0.0043
1574.00,0.0042
1573.00,0.0042
1572.00,0.0041
1571.00,0.0040
1570.00,0.0039
1569.00,0.0038
1568.00,0.0037
1567.00,0.0036
1566.00,0.0036
1565.00,0.0036
1564.00,0.0036
1563.00,0.0036
1562.00,0.0036
1561.00,0.0036
1560.00,0.0036
1559.00,0.0035
1558.00,0.0035
1557.00,0.0035
1556.00,0.0036
1555.00,0.0036
1554.00,0.0036
1553.00,0.0037
1552.00,0.0037
1551.00,0.0038
1550.00,0.0039
1549.00,0.0040
1548.00,0.0042
1547.00,0.0043
1546.00,0.0044
1545.00,0.0046
1544.00,0.0048
1543.00,0.0049
1542.00,0.0050
1541.00,0.0051
1540.00,0.0051
1539.00,0.0050
1538.00,0.0048
1537.00,0.0047
1536.00,0.0046
1535.00,0.0045
1534.00,0.0043
1533.00,0.0041
1532.00,0.0040
1531.00,0.0039
1530.00,0.0038
1529.00,0.0038
1528.00,0.0038
1527.00,0.0038
1526.00,0.0038
1525.00,0.0039
1524.00,0.0040
1523.00,0.0040
1522.00,0.0040
1521.00,0.0040
1520.00,0.0040
1519.00,0.0040
1518.00,0.0040
1517.00,0.0041
1516.00,0.0042
1515.00,0.0042
1514.00,0.0043
1513.00,0.0044
1512.00,0.0045
1511.00,0.0046
1510.00,0.0046
1509.00,0.0048
1508.00,0.0049
1507.00,0.0050
1506.00,0.0050
1505.00,0.0052
1504.00,0.0054
1503.00,0.0055
1502.00,0.0057
1501.00,0.0059
1500.00,0.0062
1499.00,0.0064
1498.00,0.0065
1497.00,0.0067
1496.00,0.0070
1495.00,0.0072
1494.00,0.0074
1493.00,0.0077
1492.00,0.0081
1491.00,0.0084
1490.00,0.0088
1489.00,0.0092
1488.00,0.0098
1487.00,0.0102
1486.00,0.0107
1485.00,0.0114
1484.00,0.0122
1483.00,0.0129
1482.00,0.0139
1481.00,0.0150
1480.00,0.0162
1479.00,0.0175
1478.00,0.0189
1477.00,0.0208
1476.00,0.0231
1475.00,0.0257
1474.00,0.0293
1473.00,0.0347
1472.00,0.0412
1471.00,0.0479
1470.00,0.0544
1469.00,0.0613
1468.00,0.0689
1467.00,0.0773
1466.00,0.0869
1465.00,0.0974
1464.00,0.1068
1463.00,0.1136
1462.00,0.1182
1461.00,0.1215
1460.00,0.1238
1459.00,0.1253
1458.00,0.1262
1457.00,0.1268
1456.00,0.1266
1455.00,0.1258
1454.00,0.1247
1453.00,0.1230
1452.00,0.1202
1451.00,0.1159
1450.00,0.1100
1449.00,0.1019
1448.00,0.0919
1447.00,0.0815
1446.00,0.0722
1445.00,0.0643
1444.00,0.0577
1443.00,0.0524
1442.00,0.0486
1441.00,0.0462
1440.00,0.0448
1439.00,0.0445
1438.00,0.0450
1437.00,0.0455
1436.00,0.0448
1435.00,0.0421
1434.00,0.0380
1433.00,0.0330
1432.00,0.0278
1431.00,0.0233
1430.00,0.0199
1429.00,0.0175
1428.00,0.0158
1427.00,0.0147
1426.00,0.0140
1425.00,0.0134
1424.00,0.0128
1423.00,0.0125
1422.00,0.0123
1421.00,0.0120
1420.00,0.0117
1419.00,0.0115
1418.00,0.0113
1417.00,0.0111
1416.00,0.0108
1415.00,0.0107
1414.00,0.0107
1413.00,0.0106
1412.00,0.0105
1411.00,0.0105
1410.00,0.0105
1409.00,0.0104
1408.00,0.0103
1407.00,0.0103
1406.00,0.0103
1405.00,0.0103
1404.00,0.0103
1403.00,0.0104
1402.00,0.0106
1401.00,0.0106
1400.00,0.0107
1399.00,0.0109
1398.00,0.0112
1397.00,0.0115
1396.00,0.0118
1395.00,0.0122
1394.00,0.0128
1393.00,0.0134
1392.00,0.0140
1391.00,0.0150
1390.00,0.0163
1389.00,0.0181
1388.00,0.0208
1387.00,0.0248
1386.00,0.0301
1385.00,0.0369
1384.00,0.0458
1383.00,0.0577
1382.00,0.0736
1381.00,0.0943
1380.00,0.1205
1379.00,0.1514
1378.00,0.1830
1377.00,0.2084
1376.00,0.2201
1375.00,0.2126
1374.00,0.1878
1373.00,0.1555
1372.00,0.1246
1371.00,0.0987
1370.00,0.0780
1369.00,0.0623
1368.00,0.0516
1367.00,0.0450
1366.00,0.0415
1365.00,0.0401
1364.00,0.0405
1363.00,0.0423
1362.00,0.0450
1361.00,0.0478
1360.00,0.0500
1359.00,0.0507
1358.00,0.0494
1357.00,0.0461
1356.00,0.0415
1355.00,0.0363
1354.00,0.0314
1353.00,0.0272
1352.00,0.0239
1351.00,0.0213
1350.00,0.0192
1349.00,0.0175
1348.00,0.0163
1347.00,0.0152
1346.00,0.0143
1345.00,0.0137
1344.00,0.0131
1343.00,0.0127
1342.00,0.0123
1341.00,0.0121
1340.00,0.0118
1339.00,0.0116
1338.00,0.0115
1337.00,0.0114
1336.00,0.0115
1335.00,0.0117
1334.00,0.0121
1333.00,0.0126
1332.00,0.0131
1331.00,0.0136
1330.00,0.0138
1329.00,0.0136
1328.00,0.0132
1327.00,0.0125
1326.00,0.0118
1325.00,0.0110
1324.00,0.0103
1323.00,0.0097
1322.00,0.0092
1321.00,0.0088
1320.00,0.0085
1319.00,0.0082
1318.00,0.0080
1317.00,0.0078
1316.00,0.0077
1315.00,0.0076
1314.00,0.0076
1313.00,0.0076
1312.00,0.0076
1311.00,0.0078
1310.00,0.0081
1309.00,0.0086
1308.00,0.0094
1307.00,0.0103
1306.00,0.0112
1305.00,0.0118
1304.00,0.0121
1303.00,0.0120
1302.00,0.0119
1301.00,0.0118
1300.00,0.0118
1299.00,0.0120
1298.00,0.0123
1297.00,0.0125
1296.00,0.0124
1295.00,0.0121
1294.00,0.0117
1293.00,0.0111
1292.00,0.0105
1291.00,0.0099
1290.00,0.0094
1289.00,0.0089
1288.00,0.0085
1287.00,0.0082
1286.00,0.0079
1285.00,0.0077
1284.00,0.0075
1283.00,0.0073
1282.00,0.0072
1281.00,0.0071
1280.00,0.0070
1279.00,0.0069
1278.00,0.0068
1277.00,0.0067
1276.00,0.0067
1275.00,0.0066
1274.00,0.0066
1273.00,0.0066
1272.00,0.0067
1271.00,0.0067
1270.00,0.0067
1269.00,0.0066
1268.00,0.0067
1267.00,0.0068
1266.00,0.0069
1265.00,0.0070
1264.00,0.0072
1263.00,0.0074
1262.00,0.0078
1261.00,0.0082
1260.00,0.0087
1259.00,0.0092
1258.00,0.0098
1257.00,0.0102
1256.00,0.0104
1255.00,0.0103
1254.00,0.0099
1253.00,0.0093
1252.00,0.0088
1251.00,0.0083
1250.00,0.0079
1249.00,0.0076
1248.00,0.0074
1247.00,0.0073
1246.00,0.0073
1245.00,0.0073
1244.00,0.0072
1243.00,0.0072
1242.00,0.0071
1241.00,0.0070
1240.00,0.0069
1239.00,0.0068
1238.00,0.0068
1237.00,0.0067
1236.00,0.0067
1235.00,0.0068
1234.00,0.0068
1233.00,0.0068
1232.00,0.0069
1231.00,0.0069
1230.00,0.0070
1229.00,0.0071
1228.00,0.0072
1227.00,0.0073
1226.00,0.0075
1225.00,0.0078
1224.00,0.0082
1223.00,0.0087
1222.00,0.0091
1221.00,0.0094
1220.00,0.0096
1219.00,0.0097
1218.00,0.0097
1217.00,0.0095
1216.00,0.0092
1215.00,0.0089
1214.00,0.0085
1213.00,0.0082
1212.00,0.0078
1211.00,0.0076
1210.00,0.0073
1209.00,0.0072
1208.00,0.0071
1207.00,0.0070
1206.00,0.0069
1205.00,0.0068
1204.00,0.0066
1203.00,0.0066
1202.00,0.0065
1201.00,0.0065
1200.00,0.0065
1199.00,0.0065
1198.00,0.0065
1197.00,0.0065
1196.00,0.0064
1195.00,0.0064
1194.00,0.0063
1193.00,0.0063
1192.00,0.0063
1191.00,0.0062
1190.00,0.0063
1189.00,0.0063
1188.00,0.0063
1187.00,0.0064
1186.00,0.0064
1185.00,0.0065
1184.00,0.0065
1183.00,0.0065
1182.00,0.0066
1181.00,0.0068
1180.00,0.0071
1179.00,0.0075
1178.00,0.0080
1177.00,0.0087
1176.00,0.0096
1175.00,0.0108
1174.00,0.0125
1173.00,0.0146
1172.00,0.0170
1171.00,0.0196
1170.00,0.0221
1169.00,0.0241
1168.00,0.0254
1167.00,0.0258
1166.00,0.0254
1165.00,0.0244
1164.00,0.0231
1163.00,0.0219
1162.00,0.0207
1161.00,0.0198
1160.00,0.0190
1159.00,0.0184
1158.00,0.0180
1157.00,0.0178
1156.00,0.0176
1155.00,0.0175
1154.00,0.0174
1153.00,0.0172
1152.00,0.0169
1151.00,0.0163
1150.00,0.0155
1149.00,0.0146
1148.00,0.0136
1147.00,0.0127
1146.00,0.0118
1145.00,0.0110
1144.00,0.0103
1143.00,0.0097
1142.00,0.0091
1141.00,0.0086
1140.00,0.0081
1139.00,0.0076
1138.00,0.0072
1137.00,0.0069
1136.00,0.0066
1135.00,0.0064
1134.00,0.0062
1133.00,0.0060
1132.00,0.0058
1131.00,0.0058
1130.00,0.0059
1129.00,0.0060
1128.00,0.0061
1127.00,0.0062
1126.00,0.0063
1125.00,0.0063
1124.00,0.0063
1123.00,0.0063
1122.00,0.0062
1121.00,0.0062
1120.00,0.0062
1119.00,0.0062
1118.00,0.0063
1117.00,0.0064
1116.00,0.0066
1115.00,0.0068
1114.00,0.0069
1113.00,0.0071
1112.00,0.0074
1111.00,0.0078
1110.00,0.0082
1109.00,0.0087
1108.00,0.0093
1107.00,0.0101
1106.00,0.0110
1105.00,0.0118
1104.00,0.0124
1103.00,0.0127
1102.00,0.0126
1101.00,0.0123
1100.00,0.0118
1099.00,0.0111
1098.00,0.0104
1097.00,0.0097
1096.00,0.0091
1095.00,0.0086
1094.00,0.0082
1093.00,0.0079
1092.00,0.0077
1091.00,0.0074
1090.00,0.0071
1089.00,0.0068
1088.00,0.0066
1087.00,0.0064
1086.00,0.0063
1085.00,0.0063
1084.00,0.0063
1083.00,0.0062
1082.00,0.0062
1081.00,0.0061
1080.00,0.0060
1079.00,0.0059
1078.00,0.0058
1077.00,0.0058
1076.00,0.0058
1075.00,0.0057
1074.00,0.0057
1073.00,0.0056
1072.00,0.0055
1071.00,0.0055
1070.00,0.0056
1069.00,0.0057
1068.00,0.0059
1067.00,0.0059
1066.00,0.0059
1065.00,0.0059
1064.00,0.0059
1063.00,0.0060
1062.00,0.0059
1061.00,0.0059
1060.00,0.0060
1059.00,0.0060
1058.00,0.0061
1057.00,0.0061
1056.00,0.0061
1055.00,0.0062
1054.00,0.0063
1053.00,0.0064
1052.00,0.0064
1051.00,0.0065
1050.00,0.0066
1049.00,0.0068
1048.00,0.0071
1047.00,0.0074
1046.00,0.0077
1045.00,0.0078
1044.00,0.0078
1043.00,0.0077
1042.00,0.0076
1041.00,0.0075
1040.00,0.0074
1039.00,0.0074
1038.00,0.0076
1037.00,0.0077
1036.00,0.0078
1035.00,0.0078
1034.00,0.0076
1033.00,0.0075
1032.00,0.0074
1031.00,0.0073
1030.00,0.0072
1029.00,0.0072
1028.00,0.0072
1027.00,0.0072
1026.00,0.0072
1025.00,0.0071
1024.00,0.0071
1023.00,0.0071
1022.00,0.0071
1021.00,0.0071
1020.00,0.0072
1019.00,0.0073
1018.00,0.0075
1017.00,0.0076
1016.00,0.0078
1015.00,0.0080
1014.00,0.0084
1013.00,0.0087
1012.00,0.0091
1011.00,0.0093
1010.00,0.0096
1009.00,0.0099
1008.00,0.0103
1007.00,0.0109
1006.00,0.0117
1005.00,0.0127
1004.00,0.0140
1003.00,0.0157
1002.00,0.0178
1001.00,0.0205
1000.00,0.0232
999.00,0.0254
998.00,0.0264
997.00,0.0257
996.00,0.0237
995.00,0.0208
994.00,0.0178
993.00,0.0152
992.00,0.0131
991.00,0.0116
990.00,0.0105
989.00,0.0098
988.00,0.0093
987.00,0.0091
986.00,0.0090
985.00,0.0092
984.00,0.0096
983.00,0.0104
982.00,0.0115
981.00,0.0130
980.00,0.0150
979.00,0.0177
978.00,0.0209
977.00,0.0246
976.00,0.0283
975.00,0.0317
974.00,0.0339
973.00,0.0345
972.00,0.0330
971.00,0.0299
970.00,0.0258
969.00,0.0217
968.00,0.0181
967.00,0.0154
966.00,0.0134
965.00,0.0119
964.00,0.0108
963.00,0.0099
962.00,0.0093
961.00,0.0087
960.00,0.0083
959.00,0.0080
958.00,0.0078
957.00,0.0076
956.00,0.0074
955.00,0.0073
954.00,0.0072
953.00,0.0070
952.00,0.0069
951.00,0.0068
950.00,0.0067
949.00,0.0068
948.00,0.0069
947.00,0.0071
946.00,0.0073
945.00,0.0076
944.00,0.0080
943.00,0.0084
942.00,0.0088
941.00,0.0090
940.00,0.0089
939.00,0.0086
938.00,0.0081
937.00,0.0076
936.00,0.0071
935.00,0.0068
934.00,0.0064
933.00,0.0062
932.00,0.0059
931.00,0.0057
930.00,0.0056
929.00,0.0056
928.00,0.0055
927.00,0.0054
926.00,0.0054
925.00,0.0054
924.00,0.0055
923.00,0.0056
922.00,0.0058
921.00,0.0060
920.00,0.0061
919.00,0.0062
918.00,0.0063
917.00,0.0063
916.00,0.0063
915.00,0.0062
914.00,0.0062
913.00,0.0064
912.00,0.0066
911.00,0.0068
910.00,0.0070
909.00,0.0073
908.00,0.0076
907.00,0.0080
906.00,0.0088
905.00,0.0099
904.00,0.0116
903.00,0.0138
902.00,0.0162
901.00,0.0184
900.00,0.0198
899.00,0.0201
898.00,0.0193
897.00,0.0174
896.00,0.0152
895.00,0.0130
894.00,0.0111
893.00,0.0098
892.00,0.0087
891.00,0.0080
890.00,0.0075
889.00,0.0071
888.00,0.0068
887.00,0.0066
886.00,0.0065
885.00,0.0064
884.00,0.0063
883.00,0.0063
882.00,0.0063
881.00,0.0063
880.00,0.0064
879.00,0.0064
878.00,0.0064
877.00,0.0065
876.00,0.0065
875.00,0.0065
874.00,0.0065
873.00,0.0066
872.00,0.0067
871.00,0.0068
870.00,0.0068
869.00,0.0067
868.00,0.0066
867.00,0.0067
866.00,0.0068
865.00,0.0069
864.00,0.0070
863.00,0.0071
862.00,0.0071
861.00,0.0072
860.00,0.0073
859.00,0.0074
858.00,0.0075
857.00,0.0077
856.00,0.0079
855.00,0.0080
854.00,0.0082
853.00,0.0084
852.00,0.0086
851.00,0.0088
850.00,0.0090
849.00,0.0094
848.00,0.0102
847.00,0.0114
846.00,0.0132
845.00,0.0158
844.00,0.0191
843.00,0.0223
842.00,0.0246
841.00,0.0249
840.00,0.0230
839.00,0.0198
838.00,0.0165
837.00,0.0141
836.00,0.0126
835.00,0.0117
834.00,0.0112
833.00,0.0109
832.00,0.0106
831.00,0.0104
830.00,0.0103
829.00,0.0102
828.00,0.0100
827.00,0.0098
826.00,0.0097
825.00,0.0096
824.00,0.0096
823.00,0.0097
822.00,0.0098
821.00,0.0099
820.00,0.0101
819.00,0.0104
818.00,0.0108
817.00,0.0114
816.00,0.0123
815.00,0.0137
814.00,0.0153
813.00,0.0172
812.00,0.0191
811.00,0.0209
810.00,0.0223
809.00,0.0230
808.00,0.0228
807.00,0.0216
806.00,0.0199
805.00,0.0180
804.00,0.0161
803.00,0.0145
802.00,0.0131
801.00,0.0120
800.00,0.0111
799.00,0.0104
798.00,0.0099
797.00,0.0096
796.00,0.0093
795.00,0.0089
794.00,0.0086
793.00,0.0082
792.00,0.0078
791.00,0.0075
790.00,0.0073
789.00,0.0071
788.00,0.0070
787.00,0.0068
786.00,0.0066
785.00,0.0063
784.00,0.0060
783.00,0.0058
782.00,0.0057
781.00,0.0057
780.00,0.0056
779.00,0.0056
778.00,0.0055
777.00,0.0053
776.00,0.0054
775.00,0.0055
774.00,0.0057
773.00,0.0059
772.00,0.0060
771.00,0.0062
770.00,0.0063
769.00,0.0065
768.00,0.0066
767.00,0.0067
766.00,0.0067
765.00,0.0066
764.00,0.0063
763.00,0.0060
762.00,0.0057
761.00,0.0055
760.00,0.0053
759.00,0.0050
758.00,0.0047
757.00,0.0045
756.00,0.0043
755.00,0.0043
754.00,0.0043
753.00,0.0044
752.00,0.0044
751.00,0.0045
750.00,0.0045
749.00,0.0046
748.00,0.0046
747.00,0.0046
746.00,0.0046
745.00,0.0046
744.00,0.0046
743.00,0.0046
742.00,0.0047
741.00,0.0048
740.00,0.0050
739.00,0.0050
738.00,0.0050
737.00,0.0049
736.00,0.0048
735.00,0.0048
734.00,0.0049
733.00,0.0050
732.00,0.0051
731.00,0.0052
730.00,0.0052
729.00,0.0052
728.00,0.0051
727.00,0.0049
726.00,0.0048
725.00,0.0048
724.00,0.0050
723.00,0.0052
722.00,0.0051
721.00,0.0048
720.00,0.0045
719.00,0.0044
718.00,0.0044
717.00,0.0045
716.00,0.0045
715.00,0.0045
714.00,0.0044
713.00,0.0044
712.00,0.0044
711.00,0.0044
710.00,0.0044
709.00,0.0044
708.00,0.0044
707.00,0.0044
706.00,0.0043
705.00,0.0042
704.00,0.0042
703.00,0.0042
702.00,0.0042
701.00,0.0041
700.00,0.0040
699.00,0.0039
698.00,0.0040
697.00,0.0041
696.00,0.0042
695.00,0.0042
694.00,0.0042
693.00,0.0042
692.00,0.0043
691.00,0.0044
690.00,0.0045
689.00,0.0046
688.00,0.0045
687.00,0.0043
686.00,0.0042
685.00,0.0041
684.00,0.0041
683.00,0.0042
682.00,0.0043
681.00,0.0042
680.00,0.0040
679.00,0.0038
678.00,0.0038
677.00,0.0038
676.00,0.0039
675.00,0.0041
674.00,0.0042
673.00,0.0041
672.00,0.0039
671.00,0.0039
670.00,0.0040
669.00,0.0043
668.00,0.0045
667.00,0.0046
666.00,0.0045
665.00,0.0043
664.00,0.0041
663.00,0.0040
662.00,0.0039
661.00,0.0039
660.00,0.0040
659.00,0.0040
658.00,0.0038
657.00,0.0035
656.00,0.0034
655.00,0.0034
654.00,0.0035
653.00,0.0036
652.00,0.0037
651.00,0.0038
650.00,0.0038
649.00,0.0038
648.00,0.0038
647.00,0.0039
646.00,0.0040
645.00,0.0041
644.00,0.0042
643.00,0.0041
642.00,0.0041
641.00,0.0040
640.00,0.0039
639.00,0.0038
638.00,0.0038
637.00,0.0038
636.00,0.0039
635.00,0.0040
634.00,0.0041
633.00,0.0040
632.00,0.0041
631.00,0.0041
630.00,0.0042
629.00,0.0043
628.00,0.0043
627.00,0.0042
626.00,0.0042
625.00,0.0041
624.00,0.0041
623.00,0.0042
622.00,0.0043
621.00,0.0043
620.00,0.0044
619.00,0.0045
618.00,0.0045
617.00,0.0044
616.00,0.0042
615.00,0.0040
614.00,0.0040
613.00,0.0041
612.00,0.0042
611.00,0.0042
610.00,0.0042
609.00,0.0042
608.00,0.0042
607.00,0.0042
606.00,0.0042
605.00,0.0041
604.00,0.0042
603.00,0.0043
602.00,0.0045
601.00,0.0047
600.00,0.0046
599.00,0.0045
598.00,0.0044
597.00,0.0044
596.00,0.0044
595.00,0.0044
594.00,0.0044
593.00,0.0044
592.00,0.0043
591.00,0.0043
590.00,0.0041
589.00,0.0040
588.00,0.0038
587.00,0.0038
586.00,0.0039
585.00,0.0041
584.00,0.0041
583.00,0.0041
582.00,0.0043
581.00,0.0047
580.00,0.0052
579.00,0.0055
578.00,0.0056
577.00,0.0055
576.00,0.0055
575.00,0.0054
574.00,0.0054
573.00,0.0053
572.00,0.0052
571.00,0.0051
570.00,0.0050
569.00,0.0050
568.00,0.0051
567.00,0.0051
566.00,0.0051
565.00,0.0049
564.00,0.0046
563.00,0.0042
562.00,0.0040
561.00,0.0040
560.00,0.0042
559.00,0.0045
558.00,0.0046
557.00,0.0045
556.00,0.0044
555.00,0.0045
554.00,0.0050
553.00,0.0054
552.00,0.0057
551.00,0.0057
550.00,0.0056
549.00,0.0055
548.00,0.0056
547.00,0.0059
546.00,0.0062
545.00,0.0063
544.00,0.0062
543.00,0.0060
542.00,0.0058
541.00,0.0056
540.00,0.0054
539.00,0.0053
538.00,0.0054
537.00,0.0055
536.00,0.0057
535.00,0.0060
534.00,0.0063
533.00,0.0065
532.00,0.0066
531.00,0.0067
530.00,0.0068
529.00,0.0069
528.00,0.0068
527.00,0.0066
526.00,0.0063
525.00,0.0061
524.00,0.0059
523.00,0.0058
522.00,0.0059
521.00,0.0062
520.00,0.0067
519.00,0.0070
518.00,0.0070
517.00,0.0066
516.00,0.0060
515.00,0.0055
514.00,0.0051
513.00,0.0048
512.00,0.0047
511.00,0.0046
510.00,0.0048
509.00,0.0050
508.00,0.0051
507.00,0.0052
506.00,0.0052
505.00,0.0050
504.00,0.0049
503.00,0.0049
502.00,0.0052
501.00,0.0055
500.00,0.0056
499.00,0.0053
498.00,0.0048
497.00,0.0045
496.00,0.0042
495.00,0.0040
494.00,0.0041
493.00,0.0048
492.00,0.0058
491.00,0.0069
490.00,0.0074
489.00,0.0076
488.00,0.0075
487.00,0.0073
486.00,0.0071
485.00,0.0069
484.00,0.0064
483.00,0.0056
482.00,0.0048
481.00,0.0045
480.00,0.0048
479.00,0.0052
478.00,0.0053
477.00,0.0052
476.00,0.0050
475.00,0.0047
474.00,0.0043
473.00,0.0044
472.00,0.0054
471.00,0.0065
470.00,0.0070
469.00,0.0069
468.00,0.0068
467.00,0.0074
466.00,0.0086
465.00,0.0100
464.00,0.0111
463.00,0.0118
462.00,0.0120
461.00,0.0124
460.00,0.0132
459.00,0.0141
458.00,0.0146
457.00,0.0143
456.00,0.0135
455.00,0.0125
454.00,0.0110
453.00,0.0089
452.00,0.0071
451.00,0.0065
450.00,0.0071
