Created as New Dataset,Sample 009 By Administrator Date Friday, September 05 2025
cm-1,A
4000.00,0.0008
3999.00,0.0008
3998.00,0.0008
3997.00,0.0008
3996.00,0.0008
3995.00,0.0008
3994.00,0.0008
3993.00,0.0008
3992.00,0.0008
3991.00,0.0008
3990.00,0.0008
3989.00,0.0008
3988.00,0.0008
3987.00,0.0008
3986.00,0.0008
3985.00,0.0008
3984.00,0.0008
3983.00,0.0008
3982.00,0.0008
3981.00,0.0008
3980.00,0.0007
3979.00,0.0007
3978.00,0.0006
3977.00,0.0006
3976.00,0.0006
3975.00,0.0006
3974.00,0.0006
3973.00,0.0006
3972.00,0.0006
3971.00,0.0006
3970.00,0.0006
3969.00,0.0006
3968.00,0.0006
3967.00,0.0006
3966.00,0.0006
3965.00,0.0006
3964.00,0.0006
3963.00,0.0006
3962.00,0.0006
3961.00,0.0006
3960.00,0.0006
3959.00,0.0006
3958.00,0.0006
3957.00,0.0006
3956.00,0.0006
3955.00,0.0006
3954.00,0.0006
3953.00,0.0006
3952.00,0.0006
3951.00,0.0006
3950.00,0.0005
3949.00,0.0005
3948.00,0.0005
3947.00,0.0005
3946.00,0.0005
3945.00,0.0005
3944.00,0.0005
3943.00,0.0006
3942.00,0.0006
3941.00,0.0006
3940.00,0.0006
3939.00,0.0005
3938.00,0.0005
3937.00,0.0006
3936.00,0.0006
3935.00,0.0006
3934.00,0.0006
3933.00,0.0006
3932.00,0.0006
3931.00,0.0006
3930.00,0.0006
3929.00,0.0006
3928.00,0.0006
3927.00,0.0006
3926.00,0.0006
3925.00,0.0006
3924.00,0.0006
3923.00,0.0006
3922.00,0.0006
3921.00,0.0006
3920.00,0.0006
3919.00,0.0006
3918.00,0.0006
3917.00,0.0006
3916.00,0.0006
3915.00,0.0006
3914.00,0.0005
3913.00,0.0005
3912.00,0.0005
3911.00,0.0006
3910.00,0.0006
3909.00,0.0006
3908.00,0.0006
3907.00,0.0006
3906.00,0.0006
3905.00,0.0005
3904.00,0.0005
3903.00,0.0005
3902.00,0.0006
3901.00,0.0005
3900.00,0.0005
3899.00,0.0005
3898.00,0.0005
3897.00,0.0005
3896.00,0.0006
3895.00,0.0006
3894.00,0.0006
3893.00,0.0006
3892.00,0.0007
3891.00,0.0007
3890.00,0.0007
3889.00,0.0006
3888.00,0.0006
3887.00,0.0006
3886.00,0.0005
3885.00,0.0006
3884.00,0.0006
3883.00,0.0006
3882.00,0.0006
3881.00,0.0006
3880.00,0.0006
3879.00,0.0006
3878.00,0.0006
3877.00,0.0006
3876.00,0.0006
3875.00,0.0006
3874.00,0.0006
3873.00,0.0005
3872.00,0.0005
3871.00,0.0004
3870.00,0.0005
3869.00,0.0005
3868.00,0.0006
3867.00,0.0006
3866.00,0.0006
3865.00,0.0005
3864.00,0.0005
3863.00,0.0005
3862.00,0.0005
3861.00,0.0005
3860.00,0.0005
3859.00,0.0005
3858.00,0.0006
3857.00,0.0006
3856.00,0.0005
3855.00,0.0005
3854.00,0.0004
3853.00,0.0003
3852.00,0.0003
3851.00,0.0004
3850.00,0.0004
3849.00,0.0004
3848.00,0.0005
3847.00,0.0005
3846.00,0.0006
3845.00,0.0006
3844.00,0.0006
3843.00,0.0006
3842.00,0.0006
3841.00,0.0006
3840.00,0.0006
3839.00,0.0006
3838.00,0.0006
3837.00,0.0006
3836.00,0.0006
3835.00,0.0005
3834.00,0.0005
3833.00,0.0005
3832.00,0.0005
3831.00,0.0005
3830.00,0.0005
3829.00,0.0005
3828.00,0.0005
3827.00,0.0005
3826.00,0.0005
3825.00,0.0006
3824.00,0.0006
3823.00,0.0005
3822.00,0.0005
3821.00,0.0006
3820.00,0.0006
3819.00,0.0006
3818.00,0.0006
3817.00,0.0006
3816.00,0.0006
3815.00,0.0006
3814.00,0.0006
3813.00,0.0006
3812.00,0.0006
3811.00,0.0006
3810.00,0.0006
3809.00,0.0006
3808.00,0.0006
3807.00,0.0006
3806.00,0.0007
3805.00,0.0007
3804.00,0.0008
3803.00,0.0008
3802.00,0.0008
3801.00,0.0007
3800.00,0.0007
3799.00,0.0006
3798.00,0.0006
3797.00,0.0006
3796.00,0.0006
3795.00,0.0006
3794.00,0.0006
3793.00,0.0007
3792.00,0.0006
3791.00,0.0006
3790.00,0.0006
3789.00,0.0006
3788.00,0.0006
3787.00,0.0006
3786.00,0.0006
3785.00,0.0006
3784.00,0.0007
3783.00,0.0007
3782.00,0.0007
3781.00,0.0007
3780.00,0.0007
3779.00,0.0007
3778.00,0.0007
3777.00,0.0007
3776.00,0.0007
3775.00,0.0007
3774.00,0.0007
3773.00,0.0007
3772.00,0.0007
3771.00,0.0007
3770.00,0.0007
3769.00,0.0007
3768.00,0.0007
3767.00,0.0007
3766.00,0.0006
3765.00,0.0006
3764.00,0.0006
3763.00,0.0006
3762.00,0.0007
3761.00,0.0007
3760.00,0.0007
3759.00,0.0006
3758.00,0.0006
3757.00,0.0006
3756.00,0.0007
3755.00,0.0007
3754.00,0.0007
3753.00,0.0006
3752.00,0.0006
3751.00,0.0005
3750.00,0.0005
3749.00,0.0005
3748.00,0.0005
3747.00,0.0005
3746.00,0.0005
3745.00,0.0004
3744.00,0.0005
3743.00,0.0005
3742.00,0.0005
3741.00,0.0004
3740.00,0.0004
3739.00,0.0004
3738.00,0.0004
3737.00,0.0004
3736.00,0.0005
3735.00,0.0005
3734.00,0.0005
3733.00,0.0005
3732.00,0.0005
3731.00,0.0004
3730.00,0.0004
3729.00,0.0003
3728.00,0.0003
3727.00,0.0003
3726.00,0.0003
3725.00,0.0004
3724.00,0.0004
3723.00,0.0004
3722.00,0.0004
3721.00,0.0004
3720.00,0.0004
3719.00,0.0005
3718.00,0.0005
3717.00,0.0005
3716.00,0.0005
3715.00,0.0004
3714.00,0.0004
3713.00,0.0004
3712.00,0.0004
3711.00,0.0004
3710.00,0.0004
3709.00,0.0004
3708.00,0.0003
3707.00,0.0003
3706.00,0.0003
3705.00,0.0003
3704.00,0.0003
3703.00,0.0003
3702.00,0.0003
3701.00,0.0003
3700.00,0.0003
3699.00,0.0003
3698.00,0.0004
3697.00,0.0004
3696.00,0.0004
3695.00,0.0004
3694.00,0.0004
3693.00,0.0004
3692.00,0.0004
3691.00,0.0004
3690.00,0.0003
3689.00,0.0003
3688.00,0.0003
3687.00,0.0004
3686.00,0.0004
3685.00,0.0004
3684.00,0.0004
3683.00,0.0003
3682.00,0.0003
3681.00,0.0003
3680.00,0.0003
3679.00,0.0004
3678.00,0.0004
3677.00,0.0004
3676.00,0.0004
3675.00,0.0004
3674.00,0.0003
3673.00,0.0003
3672.00,0.0003
3671.00,0.0003
3670.00,0.0003
3669.00,0.0004
3668.00,0.0004
3667.00,0.0003
3666.00,0.0003
3665.00,0.0002
3664.00,0.0002
3663.00,0.0002
3662.00,0.0002
3661.00,0.0002
3660.00,0.0002
3659.00,0.0002
3658.00,0.0002
3657.00,0.0002
3656.00,0.0002
3655.00,0.0002
3654.00,0.0002
3653.00,0.0002
3652.00,0.0002
3651.00,0.0002
3650.00,0.0002
3649.00,0.0002
3648.00,0.0002
3647.00,0.0002
3646.00,0.0002
3645.00,0.0003
3644.00,0.0003
3643.00,0.0003
3642.00,0.0003
3641.00,0.0003
3640.00,0.0003
3639.00,0.0003
3638.00,0.0003
3637.00,0.0003
3636.00,0.0003
3635.00,0.0004
3634.00,0.0003
3633.00,0.0003
3632.00,0.0003
3631.00,0.0002
3630.00,0.0002
3629.00,0.0003
3628.00,0.0003
3627.00,0.0003
3626.00,0.0003
3625.00,0.0003
3624.00,0.0003
3623.00,0.0003
3622.00,0.0004
3621.00,0.0004
3620.00,0.0004
3619.00,0.0004
3618.00,0.0004
3617.00,0.0004
3616.00,0.0004
3615.00,0.0003
3614.00,0.0003
3613.00,0.0003
3612.00,0.0003
3611.00,0.0003
3610.00,0.0004
3609.00,0.0004
3608.00,0.0005
3607.00,0.0005
3606.00,0.0006
3605.00,0.0006
3604.00,0.0006
3603.00,0.0006
3602.00,0.0006
3601.00,0.0007
3600.00,0.0007
3599.00,0.0007
3598.00,0.0007
3597.00,0.0007
3596.00,0.0006
3595.00,0.0006
3594.00,0.0006
3593.00,0.0006
3592.00,0.0006
3591.00,0.0006
3590.00,0.0006
3589.00,0.0006
3588.00,0.0006
3587.00,0.0006
3586.00,0.0007
3585.00,0.0007
3584.00,0.0008
3583.00,0.0008
3582.00,0.0008
3581.00,0.0008
3580.00,0.0008
3579.00,0.0008
3578.00,0.0009
3577.00,0.0009
3576.00,0.0009
3575.00,0.0008
3574.00,0.0008
3573.00,0.0008
3572.00,0.0009
3571.00,0.0009
3570.00,0.0010
3569.00,0.0010
3568.00,0.0009
3567.00,0.0009
3566.00,0.0010
3565.00,0.0010
3564.00,0.0010
3563.00,0.0011
3562.00,0.0011
3561.00,0.0011
3560.00,0.0012
3559.00,0.0012
3558.00,0.0012
3557.00,0.0012
3556.00,0.0012
3555.00,0.0012
3554.00,0.0012
3553.00,0.0012
3552.00,0.0012
3551.00,0.0012
3550.00,0.0012
3549.00,0.0012
3548.00,0.0011
3547.00,0.0011
3546.00,0.0012
3545.00,0.0012
3544.00,0.0013
3543.00,0.0013
3542.00,0.0013
3541.00,0.0013
3540.00,0.0013
3539.00,0.0013
3538.00,0.0013
3537.00,0.0013
3536.00,0.0014
3535.00,0.0014
3534.00,0.0014
3533.00,0.0014
3532.00,0.0015
3531.00,0.0015
3530.00,0.0015
3529.00,0.0015
3528.00,0.0015
3527.00,0.0015
3526.00,0.0015
3525.00,0.0015
3524.00,0.0015
3523.00,0.0015
3522.00,0.0015
3521.00,0.0015
3520.00,0.0015
3519.00,0.0015
3518.00,0.0015
3517.00,0.0016
3516.00,0.0016
3515.00,0.0016
3514.00,0.0016
3513.00,0.0016
3512.00,0.0016
3511.00,0.0016
3510.00,0.0017
3509.00,0.0017
3508.00,0.0017
3507.00,0.0018
3506.00,0.0018
3505.00,0.0018
3504.00,0.0018
3503.00,0.0018
3502.00,0.0019
3501.00,0.0019
3500.00,0.0019
3499.00,0.0019
3498.00,0.0020
3497.00,0.0019
3496.00,0.0019
3495.00,0.0019
3494.00,0.0019
3493.00,0.0019
3492.00,0.0019
3491.00,0.0019
3490.00,0.0019
3489.00,0.0019
3488.00,0.0019
3487.00,0.0019
3486.00,0.0020
3485.00,0.0020
3484.00,0.0021
3483.00,0.0022
3482.00,0.0022
3481.00,0.0022
3480.00,0.0022
3479.00,0.0022
3478.00,0.0022
3477.00,0.0022
3476.00,0.0021
3475.00,0.0021
3474.00,0.0021
3473.00,0.0021
3472.00,0.0022
3471.00,0.0022
3470.00,0.0022
3469.00,0.0022
3468.00,0.0022
3467.00,0.0022
3466.00,0.0023
3465.00,0.0023
3464.00,0.0023
3463.00,0.0023
3462.00,0.0023
3461.00,0.0023
3460.00,0.0023
3459.00,0.0023
3458.00,0.0023
3457.00,0.0024
3456.00,0.0024
3455.00,0.0025
3454.00,0.0025
3453.00,0.0024
3452.00,0.0024
3451.00,0.0024
3450.00,0.0024
3449.00,0.0025
3448.00,0.0025
3447.00,0.0026
3446.00,0.0026
3445.00,0.0026
3444.00,0.0026
3443.00,0.0026
3442.00,0.0026
3441.00,0.0026
3440.00,0.0026
3439.00,0.0026
3438.00,0.0026
3437.00,0.0026
3436.00,0.0026
3435.00,0.0026
3434.00,0.0026
3433.00,0.0027
3432.00,0.0027
3431.00,0.0027
3430.00,0.0027
3429.00,0.0027
3428.00,0.0027
3427.00,0.0027
3426.00,0.0027
3425.00,0.0027
3424.00,0.0027
3423.00,0.0028
3422.00,0.0028
3421.00,0.0028
3420.00,0.0028
3419.00,0.0028
3418.00,0.0028
3417.00,0.0028
3416.00,0.0028
3415.00,0.0028
3414.00,0.0029
3413.00,0.0029
3412.00,0.0029
3411.00,0.0030
3410.00,0.0030
3409.00,0.0030
3408.00,0.0029
3407.00,0.0029
3406.00,0.0029
3405.00,0.0029
3404.00,0.0029
3403.00,0.0029
3402.00,0.0029
3401.00,0.0029
3400.00,0.0029
3399.00,0.0030
3398.00,0.0030
3397.00,0.0030
3396.00,0.0031
3395.00,0.0031
3394.00,0.0031
3393.00,0.0031
3392.00,0.0030
3391.00,0.0030
3390.00,0.0030
3389.00,0.0031
3388.00,0.0031
3387.00,0.0031
3386.00,0.0031
3385.00,0.0031
3384.00,0.0031
3383.00,0.0030
3382.00,0.0030
3381.00,0.0030
3380.00,0.0030
3379.00,0.0030
3378.00,0.0030
3377.00,0.0030
3376.00,0.0030
3375.00,0.0030
3374.00,0.0030
3373.00,0.0030
3372.00,0.0031
3371.00,0.0031
3370.00,0.0031
3369.00,0.0031
3368.00,0.0031
3367.00,0.0031
3366.00,0.0031
3365.00,0.0031
3364.00,0.0031
3363.00,0.0031
3362.00,0.0031
3361.00,0.0031
3360.00,0.0032
3359.00,0.0032
3358.00,0.0032
3357.00,0.0032
3356.00,0.0032
3355.00,0.0032
3354.00,0.0032
3353.00,0.0032
3352.00,0.0032
3351.00,0.0032
3350.00,0.0032
3349.00,0.0032
3348.00,0.0031
3347.00,0.0031
3346.00,0.0032
3345.00,0.0032
3344.00,0.0032
3343.00,0.0032
3342.00,0.0032
3341.00,0.0032
3340.00,0.0032
3339.00,0.0032
3338.00,0.0031
3337.00,0.0031
3336.00,0.0031
3335.00,0.0031
3334.00,0.0031
3333.00,0.0031
3332.00,0.0031
3331.00,0.0031
3330.00,0.0030
3329.00,0.0030
3328.00,0.0030
3327.00,0.0030
3326.00,0.0030
3325.00,0.0030
3324.00,0.0030
3323.00,0.0030
3322.00,0.0030
3321.00,0.0031
3320.00,0.0030
3319.00,0.0030
3318.00,0.0030
3317.00,0.0030
3316.00,0.0030
3315.00,0.0030
3314.00,0.0030
3313.00,0.0030
3312.00,0.0031
3311.00,0.0031
3310.00,0.0031
3309.00,0.0030
3308.00,0.0030
3307.00,0.0030
3306.00,0.0029
3305.00,0.0029
3304.00,0.0029
3303.00,0.0029
3302.00,0.0030
3301.00,0.0030
3300.00,0.0030
3299.00,0.0030
3298.00,0.0030
3297.00,0.0030
3296.00,0.0029
3295.00,0.0029
3294.00,0.0030
3293.00,0.0030
3292.00,0.0030
3291.00,0.0030
3290.00,0.0030
3289.00,0.0030
3288.00,0.0030
3287.00,0.0030
3286.00,0.0029
3285.00,0.0029
3284.00,0.0029
3283.00,0.0028
3282.00,0.0028
3281.00,0.0028
3280.00,0.0028
3279.00,0.0028
3278.00,0.0028
3277.00,0.0028
3276.00,0.0028
3275.00,0.0028
3274.00,0.0028
3273.00,0.0028
3272.00,0.0029
3271.00,0.0029
3270.00,0.0029
3269.00,0.0029
3268.00,0.0028
3267.00,0.0028
3266.00,0.0028
3265.00,0.0028
3264.00,0.0028
3263.00,0.0028
3262.00,0.0028
3261.00,0.0028
3260.00,0.0028
3259.00,0.0028
3258.00,0.0028
3257.00,0.0027
3256.00,0.0027
3255.00,0.0027
3254.00,0.0027
3253.00,0.0027
3252.00,0.0027
3251.00,0.0027
3250.00,0.0027
3249.00,0.0027
3248.00,0.0027
3247.00,0.0027
3246.00,0.0027
3245.00,0.0027
3244.00,0.0027
3243.00,0.0027
3242.00,0.0027
3241.00,0.0026
3240.00,0.0026
3239.00,0.0026
3238.00,0.0026
3237.00,0.0026
3236.00,0.0026
3235.00,0.0026
3234.00,0.0026
3233.00,0.0026
3232.00,0.0026
3231.00,0.0027
3230.00,0.0027
3229.00,0.0028
3228.00,0.0028
3227.00,0.0028
3226.00,0.0028
3225.00,0.0028
3224.00,0.0028
3223.00,0.0028
3222.00,0.0028
3221.00,0.0028
3220.00,0.0028
3219.00,0.0028
3218.00,0.0028
3217.00,0.0028
3216.00,0.0028
3215.00,0.0028
3214.00,0.0028
3213.00,0.0028
3212.00,0.0029
3211.00,0.0029
3210.00,0.0030
3209.00,0.0030
3208.00,0.0030
3207.00,0.0030
3206.00,0.0031
3205.00,0.0031
3204.00,0.0031
3203.00,0.0032
3202.00,0.0032
3201.00,0.0032
3200.00,0.0032
3199.00,0.0032
3198.00,0.0032
3197.00,0.0032
3196.00,0.0031
3195.00,0.0031
3194.00,0.0031
3193.00,0.0031
3192.00,0.0031
3191.00,0.0031
3190.00,0.0031
3189.00,0.0031
3188.00,0.0031
3187.00,0.0031
3186.00,0.0030
3185.00,0.0030
3184.00,0.0030
3183.00,0.0030
3182.00,0.0030
3181.00,0.0030
3180.00,0.0030
3179.00,0.0030
3178.00,0.0029
3177.00,0.0029
3176.00,0.0029
3175.00,0.0029
3174.00,0.0029
3173.00,0.0029
3172.00,0.0029
3171.00,0.0029
3170.00,0.0029
3169.00,0.0029
3168.00,0.0028
3167.00,0.0028
3166.00,0.0028
3165.00,0.0027
3164.00,0.0028
3163.00,0.0028
3162.00,0.0028
3161.00,0.0028
3160.00,0.0028
3159.00,0.0028
3158.00,0.0028
3157.00,0.0028
3156.00,0.0028
3155.00,0.0028
3154.00,0.0028
3153.00,0.0028
3152.00,0.0028
3151.00,0.0028
3150.00,0.0028
3149.00,0.0028
3148.00,0.0028
3147.00,0.0028
3146.00,0.0028
3145.00,0.0028
3144.00,0.0028
3143.00,0.0028
3142.00,0.0028
3141.00,0.0028
3140.00,0.0028
3139.00,0.0027
3138.00,0.0027
3137.00,0.0026
3136.00,0.0026
3135.00,0.0026
3134.00,0.0026
3133.00,0.0026
3132.00,0.0026
3131.00,0.0026
3130.00,0.0026
3129.00,0.0026
3128.00,0.0025
3127.00,0.0025
3126.00,0.0025
3125.00,0.0025
3124.00,0.0025
3123.00,0.0025
3122.00,0.0024
3121.00,0.0024
3120.00,0.0024
3119.00,0.0023
3118.00,0.0023
3117.00,0.0023
3116.00,0.0023
3115.00,0.0023
3114.00,0.0023
3113.00,0.0023
3112.00,0.0023
3111.00,0.0023
3110.00,0.0023
3109.00,0.0023
3108.00,0.0023
3107.00,0.0023
3106.00,0.0023
3105.00,0.0023
3104.00,0.0023
3103.00,0.0023
3102.00,0.0023
3101.00,0.0022
3100.00,0.0022
3099.00,0.0022
3098.00,0.0022
3097.00,0.0023
3096.00,0.0023
3095.00,0.0023
3094.00,0.0023
3093.00,0.0023
3092.00,0.0022
3091.00,0.0022
3090.00,0.0022
3089.00,0.0022
3088.00,0.0023
3087.00,0.0022
3086.00,0.0022
3085.00,0.0022
3084.00,0.0022
3083.00,0.0022
3082.00,0.0022
3081.00,0.0022
3080.00,0.0022
3079.00,0.0022
3078.00,0.0022
3077.00,0.0022
3076.00,0.0022
3075.00,0.0022
3074.00,0.0022
3073.00,0.0023
3072.00,0.0023
3071.00,0.0023
3070.00,0.0024
3069.00,0.0024
3068.00,0.0024
3067.00,0.0024
3066.00,0.0024
3065.00,0.0025
3064.00,0.0025
3063.00,0.0025
3062.00,0.0025
3061.00,0.0025
3060.00,0.0025
3059.00,0.0025
3058.00,0.0026
3057.00,0.0026
3056.00,0.0026
3055.00,0.0026
3054.00,0.0026
3053.00,0.0026
3052.00,0.0027
3051.00,0.0027
3050.00,0.0027
3049.00,0.0027
3048.00,0.0027
3047.00,0.0027
3046.00,0.0027
3045.00,0.0028
3044.00,0.0028
3043.00,0.0028
3042.00,0.0028
3041.00,0.0029
3040.00,0.0029
3039.00,0.0030
3038.00,0.0030
3037.00,0.0030
3036.00,0.0030
3035.00,0.0030
3034.00,0.0031
3033.00,0.0031
3032.00,0.0032
3031.00,0.0032
3030.00,0.0033
3029.00,0.0034
3028.00,0.0034
3027.00,0.0035
3026.00,0.0035
3025.00,0.0036
3024.00,0.0036
3023.00,0.0037
3022.00,0.0037
3021.00,0.0038
3020.00,0.0039
3019.00,0.0040
3018.00,0.0041
3017.00,0.0042
3016.00,0.0042
3015.00,0.0043
3014.00,0.0044
3013.00,0.0045
3012.00,0.0046
3011.00,0.0047
3010.00,0.0048
3009.00,0.0049
3008.00,0.0050
3007.00,0.0051
3006.00,0.0053
3005.00,0.0054
3004.00,0.0056
3003.00,0.0058
3002.00,0.0060
3001.00,0.0062
3000.00,0.0064
2999.00,0.0067
2998.00,0.0070
2997.00,0.0073
2996.00,0.0076
2995.00,0.0080
2994.00,0.0084
2993.00,0.0089
2992.00,0.0094
2991.00,0.0100
2990.00,0.0106
2989.00,0.0112
2988.00,0.0119
2987.00,0.0127
2986.00,0.0136
2985.00,0.0146
2984.00,0.0156
2983.00,0.0169
2982.00,0.0183
2981.00,0.0200
2980.00,0.0220
2979.00,0.0242
2978.00,0.0267
2977.00,0.0296
2976.00,0.0327
2975.00,0.0363
2974.00,0.0403
2973.00,0.0449
2972.00,0.0500
2971.00,0.0557
2970.00,0.0620
2969.00,0.0689
2968.00,0.0763
2967.00,0.0840
2966.00,0.0919
2965.00,0.0998
2964.00,0.1073
2963.00,0.1142
2962.00,0.1202
2961.00,0.1254
2960.00,0.1299
2959.00,0.1342
2958.00,0.1387
2957.00,0.1441
2956.00,0.1507
2955.00,0.1587
2954.00,0.1678
2953.00,0.1775
2952.00,0.1869
2951.00,0.1947
2950.00,0.1995
2949.00,0.2004
2948.00,0.1966
2947.00,0.1882
2946.00,0.1763
2945.00,0.1623
2944.00,0.1481
2943.00,0.1352
2942.00,0.1245
2941.00,0.1166
2940.00,0.1116
2939.00,0.1092
2938.00,0.1092
2937.00,0.1113
2936.00,0.1152
2935.00,0.1209
2934.00,0.1281
2933.00,0.1368
2932.00,0.1468
2931.00,0.1578
2930.00,0.1697
2929.00,0.1821
2928.00,0.1945
2927.00,0.2067
2926.00,0.2186
2925.00,0.2302
2924.00,0.2416
2923.00,0.2530
2922.00,0.2644
2921.00,0.2756
2920.00,0.2859
2919.00,0.2944
2918.00,0.2996
2917.00,0.3007
2916.00,0.2971
2915.00,0.2892
2914.00,0.2780
2913.00,0.2651
2912.00,0.2517
2911.00,0.2388
2910.00,0.2268
2909.00,0.2159
2908.00,0.2059
2907.00,0.1965
2906.00,0.1876
2905.00,0.1790
2904.00,0.1706
2903.00,0.1625
2902.00,0.1547
2901.00,0.1473
2900.00,0.1402
2899.00,0.1337
2898.00,0.1277
2897.00,0.1223
2896.00,0.1176
2895.00,0.1136
2894.00,0.1104
2893.00,0.1079
2892.00,0.1062
2891.00,0.1052
2890.00,0.1048
2889.00,0.1049
2888.00,0.1055
2887.00,0.1064
2886.00,0.1078
2885.00,0.1095
2884.00,0.1118
2883.00,0.1147
2882.00,0.1181
2881.00,0.1219
2880.00,0.1257
2879.00,0.1291
2878.00,0.1315
2877.00,0.1326
2876.00,0.1326
2875.00,0.1318
2874.00,0.1309
2873.00,0.1305
2872.00,0.1309
2871.00,0.1324
2870.00,0.1345
2869.00,0.1369
2868.00,0.1387
2867.00,0.1389
2866.00,0.1366
2865.00,0.1312
2864.00,0.1231
2863.00,0.1130
2862.00,0.1022
2861.00,0.0919
2860.00,0.0828
2859.00,0.0755
2858.00,0.0699
2857.00,0.0659
2856.00,0.0632
2855.00,0.0618
2854.00,0.0612
2853.00,0.0615
2852.00,0.0626
2851.00,0.0642
2850.00,0.0663
2849.00,0.0689
2848.00,0.0720
2847.00,0.0756
2846.00,0.0801
2845.00,0.0854
2844.00,0.0917
2843.00,0.0987
2842.00,0.1060
2841.00,0.1130
2840.00,0.1189
2839.00,0.1229
2838.00,0.1240
2837.00,0.1217
2836.00,0.1159
2835.00,0.1071
2834.00,0.0964
2833.00,0.0851
2832.00,0.0742
2831.00,0.0645
2830.00,0.0562
2829.00,0.0495
2828.00,0.0441
2827.00,0.0397
2826.00,0.0361
2825.00,0.0332
2824.00,0.0308
2823.00,0.0287
2822.00,0.0270
2821.00,0.0256
2820.00,0.0243
2819.00,0.0233
2818.00,0.0223
2817.00,0.0215
2816.00,0.0207
2815.00,0.0201
2814.00,0.0195
2813.00,0.0189
2812.00,0.0184
2811.00,0.0178
2810.00,0.0172
2809.00,0.0166
2808.00,0.0160
2807.00,0.0154
2806.00,0.0147
2805.00,0.0140
2804.00,0.0134
2803.00,0.0128
2802.00,0.0122
2801.00,0.0117
2800.00,0.0113
2799.00,0.0109
2798.00,0.0106
2797.00,0.0103
2796.00,0.0101
2795.00,0.0098
2794.00,0.0095
2793.00,0.0092
2792.00,0.0089
2791.00,0.0086
2790.00,0.0083
2789.00,0.0080
2788.00,0.0078
2787.00,0.0076
2786.00,0.0074
2785.00,0.0072
2784.00,0.0070
2783.00,0.0068
2782.00,0.0066
2781.00,0.0064
2780.00,0.0063
2779.00,0.0062
2778.00,0.0060
2777.00,0.0059
2776.00,0.0057
2775.00,0.0056
2774.00,0.0055
2773.00,0.0055
2772.00,0.0054
2771.00,0.0053
2770.00,0.0053
2769.00,0.0052
2768.00,0.0052
2767.00,0.0051
2766.00,0.0051
2765.00,0.0051
2764.00,0.0051
2763.00,0.0050
2762.00,0.0050
2761.00,0.0050
2760.00,0.0050
2759.00,0.0050
2758.00,0.0049
2757.00,0.0049
2756.00,0.0049
2755.00,0.0049
2754.00,0.0049
2753.00,0.0049
2752.00,0.0049
2751.00,0.0048
2750.00,0.0048
2749.00,0.0048
2748.00,0.0048
2747.00,0.0048
2746.00,0.0049
2745.00,0.0050
2744.00,0.0051
2743.00,0.0052
2742.00,0.0053
2741.00,0.0054
2740.00,0.0055
2739.00,0.0056
2738.00,0.0058
2737.00,0.0060
2736.00,0.0061
2735.00,0.0063
2734.00,0.0064
2733.00,0.0066
2732.00,0.0068
2731.00,0.0071
2730.00,0.0073
2729.00,0.0076
2728.00,0.0079
2727.00,0.0082
2726.00,0.0085
2725.00,0.0088
2724.00,0.0089
2723.00,0.0090
2722.00,0.0089
2721.00,0.0087
2720.00,0.0084
2719.00,0.0080
2718.00,0.0076
2717.00,0.0073
2716.00,0.0070
2715.00,0.0067
2714.00,0.0065
2713.00,0.0062
2712.00,0.0060
2711.00,0.0058
2710.00,0.0056
2709.00,0.0054
2708.00,0.0052
2707.00,0.0050
2706.00,0.0049
2705.00,0.0048
2704.00,0.0047
2703.00,0.0046
2702.00,0.0045
2701.00,0.0044
2700.00,0.0043
2699.00,0.0042
2698.00,0.0042
2697.00,0.0042
2696.00,0.0042
2695.00,0.0042
2694.00,0.0042
2693.00,0.0041
2692.00,0.0041
2691.00,0.0041
2690.00,0.0041
2689.00,0.0041
2688.00,0.0041
2687.00,0.0040
2686.00,0.0040
2685.00,0.0040
2684.00,0.0041
2683.00,0.0041
2682.00,0.0041
2681.00,0.0042
2680.00,0.0042
2679.00,0.0043
2678.00,0.0043
2677.00,0.0043
2676.00,0.0042
2675.00,0.0042
2674.00,0.0042
2673.00,0.0042
2672.00,0.0042
2671.00,0.0042
2670.00,0.0042
2669.00,0.0042
2668.00,0.0042
2667.00,0.0042
2666.00,0.0043
2665.00,0.0043
2664.00,0.0044
2663.00,0.0044
2662.00,0.0045
2661.00,0.0045
2660.00,0.0045
2659.00,0.0045
2658.00,0.0044
2657.00,0.0044
2656.00,0.0043
2655.00,0.0043
2654.00,0.0043
2653.00,0.0043
2652.00,0.0043
2651.00,0.0042
2650.00,0.0042
2649.00,0.0041
2648.00,0.0041
2647.00,0.0041
2646.00,0.0040
2645.00,0.0040
2644.00,0.0039
2643.00,0.0038
2642.00,0.0037
2641.00,0.0036
2640.00,0.0035
2639.00,0.0035
2638.00,0.0035
2637.00,0.0034
2636.00,0.0034
2635.00,0.0034
2634.00,0.0034
2633.00,0.0034
2632.00,0.0035
2631.00,0.0035
2630.00,0.0036
2629.00,0.0036
2628.00,0.0036
2627.00,0.0036
2626.00,0.0036
2625.00,0.0036
2624.00,0.0037
2623.00,0.0037
2622.00,0.0038
2621.00,0.0038
2620.00,0.0038
2619.00,0.0038
2618.00,0.0038
2617.00,0.0038
2616.00,0.0038
2615.00,0.0038
2614.00,0.0037
2613.00,0.0036
2612.00,0.0036
2611.00,0.0035
2610.00,0.0034
2609.00,0.0034
2608.00,0.0034
2607.00,0.0034
2606.00,0.0033
2605.00,0.0032
2604.00,0.0032
2603.00,0.0031
2602.00,0.0030
2601.00,0.0030
2600.00,0.0030
2599.00,0.0031
2598.00,0.0031
2597.00,0.0031
2596.00,0.0030
2595.00,0.0030
2594.00,0.0031
2593.00,0.0031
2592.00,0.0032
2591.00,0.0032
2590.00,0.0033
2589.00,0.0034
2588.00,0.0035
2587.00,0.0036
2586.00,0.0037
2585.00,0.0038
2584.00,0.0039
2583.00,0.0040
2582.00,0.0040
2581.00,0.0040
2580.00,0.0039
2579.00,0.0038
2578.00,0.0037
2577.00,0.0036
2576.00,0.0035
2575.00,0.0034
2574.00,0.0032
2573.00,0.0031
2572.00,0.0029
2571.00,0.0028
2570.00,0.0027
2569.00,0.0026
2568.00,0.0025
2567.00,0.0024
2566.00,0.0024
2565.00,0.0024
2564.00,0.0024
2563.00,0.0023
2562.00,0.0023
2561.00,0.0023
2560.00,0.0022
2559.00,0.0022
2558.00,0.0021
2557.00,0.0021
2556.00,0.0020
2555.00,0.0020
2554.00,0.0020
2553.00,0.0020
2552.00,0.0019
2551.00,0.0019
2550.00,0.0019
2549.00,0.0019
2548.00,0.0019
2547.00,0.0019
2546.00,0.0018
2545.00,0.0017
2544.00,0.0016
2543.00,0.0015
2542.00,0.0015
2541.00,0.0015
2540.00,0.0016
2539.00,0.0016
2538.00,0.0015
2537.00,0.0015
2536.00,0.0014
2535.00,0.0013
2534.00,0.0013
2533.00,0.0014
2532.00,0.0014
2531.00,0.0014
2530.00,0.0013
2529.00,0.0013
2528.00,0.0012
2527.00,0.0012
2526.00,0.0012
2525.00,0.0012
2524.00,0.0012
2523.00,0.0012
2522.00,0.0011
2521.00,0.0011
2520.00,0.0010
2519.00,0.0010
2518.00,0.0009
2517.00,0.0009
2516.00,0.0009
2515.00,0.0009
2514.00,0.0010
2513.00,0.0009
2512.00,0.0009
2511.00,0.0008
2510.00,0.0007
2509.00,0.0007
2508.00,0.0007
2507.00,0.0008
2506.00,0.0008
2505.00,0.0008
2504.00,0.0007
2503.00,0.0007
2502.00,0.0007
2501.00,0.0008
2500.00,0.0008
2499.00,0.0008
2498.00,0.0007
2497.00,0.0007
2496.00,0.0008
2495.00,0.0008
2494.00,0.0008
2493.00,0.0008
2492.00,0.0009
2491.00,0.0009
2490.00,0.0009
2489.00,0.0009
2488.00,0.0009
2487.00,0.0008
2486.00,0.0008
2485.00,0.0008
2484.00,0.0009
2483.00,0.0009
2482.00,0.0009
2481.00,0.0009
2480.00,0.0009
2479.00,0.0008
2478.00,0.0008
2477.00,0.0007
2476.00,0.0007
2475.00,0.0007
2474.00,0.0007
2473.00,0.0008
2472.00,0.0008
2471.00,0.0008
2470.00,0.0007
2469.00,0.0007
2468.00,0.0007
2467.00,0.0008
2466.00,0.0008
2465.00,0.0008
2464.00,0.0009
2463.00,0.0008
2462.00,0.0008
2461.00,0.0008
2460.00,0.0008
2459.00,0.0008
2458.00,0.0009
2457.00,0.0010
2456.00,0.0010
2455.00,0.0010
2454.00,0.0010
2453.00,0.0010
2452.00,0.0010
2451.00,0.0010
2450.00,0.0010
2449.00,0.0010
2448.00,0.0010
2447.00,0.0010
2446.00,0.0010
2445.00,0.0011
2444.00,0.0010
2443.00,0.0009
2442.00,0.0008
2441.00,0.0008
2440.00,0.0008
2439.00,0.0009
2438.00,0.0009
2437.00,0.0010
2436.00,0.0010
2435.00,0.0010
2434.00,0.0010
2433.00,0.0010
2432.00,0.0010
2431.00,0.0011
2430.00,0.0010
2429.00,0.0010
2428.00,0.0009
2427.00,0.0009
2426.00,0.0010
2425.00,0.0010
2424.00,0.0010
2423.00,0.0010
2422.00,0.0010
2421.00,0.0010
2420.00,0.0010
2419.00,0.0009
2418.00,0.0009
2417.00,0.0009
2416.00,0.0009
2415.00,0.0008
2414.00,0.0008
2413.00,0.0008
2412.00,0.0008
2411.00,0.0008
2410.00,0.0008
2409.00,0.0009
2408.00,0.0008
2407.00,0.0008
2406.00,0.0007
2405.00,0.0007
2404.00,0.0007
2403.00,0.0007
2402.00,0.0007
2401.00,0.0008
2400.00,0.0008
2399.00,0.0008
2398.00,0.0007
2397.00,0.0007
2396.00,0.0006
2395.00,0.0006
2394.00,0.0006
2393.00,0.0007
2392.00,0.0007
2391.00,0.0007
2390.00,0.0007
2389.00,0.0006
2388.00,0.0006
2387.00,0.0005
2386.00,0.0005
2385.00,0.0005
2384.00,0.0004
2383.00,0.0003
2382.00,0.0002
2381.00,0.0001
2380.00,0.0000
2379.00,-0.0000
2378.00,-0.0000
2377.00,-0.0000
2376.00,-0.0000
2375.00,-0.0000
2374.00,0.0000
2373.00,-0.0000
2372.00,-0.0000
2371.00,0.0000
2370.00,0.0001
2369.00,0.0001
2368.00,0.0001
2367.00,0.0001
2366.00,0.0001
2365.00,0.0001
2364.00,0.0001
2363.00,0.0001
2362.00,0.0001
2361.00,0.0000
2360.00,-0.0001
2359.00,-0.0001
2358.00,-0.0000
2357.00,0.0000
2356.00,0.0001
2355.00,0.0001
2354.00,0.0002
2353.00,0.0001
2352.00,0.0001
2351.00,0.0001
2350.00,0.0002
2349.00,0.0002
2348.00,0.0002
2347.00,0.0002
2346.00,0.0002
2345.00,0.0003
2344.00,0.0004
2343.00,0.0004
2342.00,0.0004
2341.00,0.0004
2340.00,0.0003
2339.00,0.0003
2338.00,0.0004
2337.00,0.0005
2336.00,0.0005
2335.00,0.0005
2334.00,0.0005
2333.00,0.0004
2332.00,0.0003
2331.00,0.0003
2330.00,0.0003
2329.00,0.0005
2328.00,0.0007
2327.00,0.0010
2326.00,0.0013
2325.00,0.0016
2324.00,0.0017
2323.00,0.0016
2322.00,0.0015
2321.00,0.0013
2320.00,0.0013
2319.00,0.0012
2318.00,0.0011
2317.00,0.0011
2316.00,0.0010
2315.00,0.0009
2314.00,0.0008
2313.00,0.0008
2312.00,0.0007
2311.00,0.0007
2310.00,0.0006
2309.00,0.0006
2308.00,0.0006
2307.00,0.0006
2306.00,0.0007
2305.00,0.0008
2304.00,0.0008
2303.00,0.0009
2302.00,0.0010
2301.00,0.0011
2300.00,0.0011
2299.00,0.0011
2298.00,0.0011
2297.00,0.0011
2296.00,0.0011
2295.00,0.0012
2294.00,0.0013
2293.00,0.0015
2292.00,0.0016
2291.00,0.0017
2290.00,0.0017
2289.00,0.0017
2288.00,0.0017
2287.00,0.0016
2286.00,0.0016
2285.00,0.0016
2284.00,0.0016
2283.00,0.0015
2282.00,0.0015
2281.00,0.0014
2280.00,0.0013
2279.00,0.0013
2278.00,0.0013
2277.00,0.0013
2276.00,0.0013
2275.00,0.0012
2274.00,0.0012
2273.00,0.0011
2272.00,0.0011
2271.00,0.0011
2270.00,0.0011
2269.00,0.0011
2268.00,0.0011
2267.00,0.0012
2266.00,0.0011
2265.00,0.0011
2264.00,0.0011
2263.00,0.0011
2262.00,0.0011
2261.00,0.0012
2260.00,0.0011
2259.00,0.0011
2258.00,0.0010
2257.00,0.0009
2256.00,0.0008
2255.00,0.0008
2254.00,0.0007
2253.00,0.0006
2252.00,0.0005
2251.00,0.0005
2250.00,0.0005
2249.00,0.0006
2248.00,0.0006
2247.00,0.0007
2246.00,0.0008
2245.00,0.0008
2244.00,0.0008
2243.00,0.0007
2242.00,0.0007
2241.00,0.0006
2240.00,0.0007
2239.00,0.0007
2238.00,0.0007
2237.00,0.0007
2236.00,0.0007
2235.00,0.0006
2234.00,0.0006
2233.00,0.0005
2232.00,0.0006
2231.00,0.0006
2230.00,0.0007
2229.00,0.0008
2228.00,0.0008
2227.00,0.0008
2226.00,0.0007
2225.00,0.0006
2224.00,0.0005
2223.00,0.0005
2222.00,0.0005
2221.00,0.0006
2220.00,0.0006
2219.00,0.0006
2218.00,0.0005
2217.00,0.0004
2216.00,0.0002
2215.00,0.0001
2214.00,0.0000
2213.00,0.0000
2212.00,0.0002
2211.00,0.0003
2210.00,0.0004
2209.00,0.0004
2208.00,0.0005
2207.00,0.0005
2206.00,0.0004
2205.00,0.0003
2204.00,0.0003
2203.00,0.0004
2202.00,0.0007
2201.00,0.0008
2200.00,0.0008
2199.00,0.0007
2198.00,0.0005
2197.00,0.0004
2196.00,0.0005
2195.00,0.0008
2194.00,0.0010
2193.00,0.0012
2192.00,0.0011
2191.00,0.0010
2190.00,0.0009
2189.00,0.0008
2188.00,0.0009
2187.00,0.0010
2186.00,0.0010
2185.00,0.0010
2184.00,0.0009
2183.00,0.0007
2182.00,0.0004
2181.00,0.0001
2180.00,-0.0001
2179.00,-0.0002
2178.00,-0.0002
2177.00,-0.0001
2176.00,-0.0002
2175.00,-0.0002
2174.00,-0.0001
2173.00,0.0002
2172.00,0.0005
2171.00,0.0008
2170.00,0.0012
2169.00,0.0015
2168.00,0.0018
2167.00,0.0019
2166.00,0.0018
2165.00,0.0016
2164.00,0.0014
2163.00,0.0013
2162.00,0.0011
2161.00,0.0005
2160.00,-0.0007
2159.00,-0.0021
2158.00,-0.0030
2157.00,-0.0032
2156.00,-0.0030
2155.00,-0.0028
2154.00,-0.0027
2153.00,-0.0026
2152.00,-0.0023
2151.00,-0.0020
2150.00,-0.0017
2149.00,-0.0016
2148.00,-0.0017
2147.00,-0.0019
2146.00,-0.0020
2145.00,-0.0019
2144.00,-0.0018
2143.00,-0.0017
2142.00,-0.0017
2141.00,-0.0017
2140.00,-0.0016
2139.00,-0.0015
2138.00,-0.0013
2137.00,-0.0013
2136.00,-0.0014
2135.00,-0.0016
2134.00,-0.0019
2133.00,-0.0019
2132.00,-0.0018
2131.00,-0.0016
2130.00,-0.0014
2129.00,-0.0013
2128.00,-0.0012
2127.00,-0.0011
2126.00,-0.0010
2125.00,-0.0009
2124.00,-0.0007
2123.00,-0.0006
2122.00,-0.0005
2121.00,-0.0006
2120.00,-0.0006
2119.00,-0.0007
2118.00,-0.0006
2117.00,-0.0005
2116.00,-0.0003
2115.00,-0.0001
2114.00,-0.0000
2113.00,0.0001
2112.00,0.0002
2111.00,0.0003
2110.00,0.0004
2109.00,0.0005
2108.00,0.0005
2107.00,0.0004
2106.00,0.0003
2105.00,0.0003
2104.00,0.0004
2103.00,0.0005
2102.00,0.0005
2101.00,0.0004
2100.00,0.0003
2099.00,0.0002
2098.00,-0.0000
2097.00,-0.0002
2096.00,-0.0005
2095.00,-0.0006
2094.00,-0.0006
2093.00,-0.0005
2092.00,-0.0004
2091.00,-0.0003
2090.00,-0.0004
2089.00,-0.0004
2088.00,-0.0004
2087.00,-0.0002
2086.00,-0.0000
2085.00,0.0002
2084.00,0.0004
2083.00,0.0004
2082.00,0.0003
2081.00,0.0001
2080.00,-0.0000
2079.00,-0.0000
2078.00,0.0000
2077.00,0.0002
2076.00,0.0003
2075.00,0.0004
2074.00,0.0004
2073.00,0.0004
2072.00,0.0004
2071.00,0.0003
2070.00,0.0003
2069.00,0.0004
2068.00,0.0003
2067.00,0.0002
2066.00,-0.0000
2065.00,-0.0002
2064.00,-0.0002
2063.00,-0.0002
2062.00,-0.0001
2061.00,-0.0000
2060.00,0.0000
2059.00,-0.0000
2058.00,-0.0000
2057.00,-0.0000
2056.00,0.0000
2055.00,0.0001
2054.00,0.0004
2053.00,0.0008
2052.00,0.0013
2051.00,0.0015
2050.00,0.0013
2049.00,0.0009
2048.00,0.0005
2047.00,0.0002
2046.00,0.0002
2045.00,0.0001
2044.00,0.0001
2043.00,0.0000
2042.00,-0.0001
2041.00,-0.0001
2040.00,-0.0001
2039.00,0.0000
2038.00,0.0001
2037.00,-0.0001
2036.00,-0.0005
2035.00,-0.0009
2034.00,-0.0012
2033.00,-0.0012
2032.00,-0.0012
2031.00,-0.0011
2030.00,-0.0012
2029.00,-0.0013
2028.00,-0.0012
2027.00,-0.0011
2026.00,-0.0010
2025.00,-0.0009
2024.00,-0.0007
2023.00,-0.0006
2022.00,-0.0005
2021.00,-0.0005
2020.00,-0.0007
2019.00,-0.0010
2018.00,-0.0010
2017.00,-0.0010
2016.00,-0.0010
2015.00,-0.0010
2014.00,-0.0010
2013.00,-0.0010
2012.00,-0.0010
2011.00,-0.0011
2010.00,-0.0012
2009.00,-0.0015
2008.00,-0.0018
2007.00,-0.0020
2006.00,-0.0021
2005.00,-0.0019
2004.00,-0.0016
2003.00,-0.0014
2002.00,-0.0013
2001.00,-0.0014
2000.00,-0.0014
1999.00,-0.0013
1998.00,-0.0011
1997.00,-0.0008
1996.00,-0.0007
1995.00,-0.0008
1994.00,-0.0010
1993.00,-0.0012
1992.00,-0.0011
1991.00,-0.0008
1990.00,-0.0006
1989.00,-0.0005
1988.00,-0.0005
1987.00,-0.0005
1986.00,-0.0004
1985.00,-0.0002
1984.00,0.0002
1983.00,0.0006
1982.00,0.0009
1981.00,0.0011
1980.00,0.0010
1979.00,0.0007
1978.00,-0.0000
1977.00,-0.0007
1976.00,-0.0011
1975.00,-0.0013
1974.00,-0.0012
1973.00,-0.0009
1972.00,-0.0006
1971.00,-0.0006
1970.00,-0.0007
1969.00,-0.0009
1968.00,-0.0010
1967.00,-0.0010
1966.00,-0.0011
1965.00,-0.0011
1964.00,-0.0013
1963.00,-0.0015
1962.00,-0.0018
1961.00,-0.0019
1960.00,-0.0018
1959.00,-0.0017
1958.00,-0.0017
1957.00,-0.0017
1956.00,-0.0019
1955.00,-0.0020
1954.00,-0.0021
1953.00,-0.0020
1952.00,-0.0019
1951.00,-0.0017
1950.00,-0.0016
1949.00,-0.0015
1948.00,-0.0014
1947.00,-0.0015
1946.00,-0.0015
1945.00,-0.0016
1944.00,-0.0016
1943.00,-0.0015
1942.00,-0.0015
1941.00,-0.0014
1940.00,-0.0013
1939.00,-0.0012
1938.00,-0.0011
1937.00,-0.0010
1936.00,-0.0009
1935.00,-0.0009
1934.00,-0.0010
1933.00,-0.0011
1932.00,-0.0012
1931.00,-0.0012
1930.00,-0.0011
1929.00,-0.0009
1928.00,-0.0008
1927.00,-0.0007
1926.00,-0.0007
1925.00,-0.0007
1924.00,-0.0008
1923.00,-0.0008
1922.00,-0.0008
1921.00,-0.0007
1920.00,-0.0006
1919.00,-0.0005
1918.00,-0.0005
1917.00,-0.0005
1916.00,-0.0005
1915.00,-0.0005
1914.00,-0.0006
1913.00,-0.0005
1912.00,-0.0005
1911.00,-0.0006
1910.00,-0.0006
1909.00,-0.0005
1908.00,-0.0005
1907.00,-0.0005
1906.00,-0.0004
1905.00,-0.0004
1904.00,-0.0003
1903.00,-0.0003
1902.00,-0.0003
1901.00,-0.0003
1900.00,-0.0003
1899.00,-0.0003
1898.00,-0.0004
1897.00,-0.0004
1896.00,-0.0003
1895.00,-0.0002
1894.00,-0.0001
1893.00,-0.0001
1892.00,-0.0003
1891.00,-0.0004
1890.00,-0.0005
1889.00,-0.0005
1888.00,-0.0005
1887.00,-0.0004
1886.00,-0.0003
1885.00,-0.0003
1884.00,-0.0003
1883.00,-0.0003
1882.00,-0.0003
1881.00,-0.0004
1880.00,-0.0004
1879.00,-0.0004
1878.00,-0.0004
1877.00,-0.0003
1876.00,-0.0002
1875.00,-0.0001
1874.00,-0.0001
1873.00,-0.0000
1872.00,-0.0000
1871.00,-0.0001
1870.00,-0.0001
1869.00,-0.0001
1868.00,-0.0001
1867.00,0.0000
1866.00,0.0001
1865.00,0.0001
1864.00,0.0000
1863.00,-0.0001
1862.00,-0.0002
1861.00,-0.0003
1860.00,-0.0003
1859.00,-0.0002
1858.00,-0.0002
1857.00,-0.0002
1856.00,-0.0001
1855.00,-0.0001
1854.00,-0.0000
1853.00,0.0000
1852.00,0.0000
1851.00,0.0000
1850.00,-0.0000
1849.00,-0.0000
1848.00,-0.0000
1847.00,-0.0001
1846.00,-0.0001
1845.00,-0.0001
1844.00,-0.0000
1843.00,0.0000
1842.00,0.0000
1841.00,0.0001
1840.00,0.0002
1839.00,0.0002
1838.00,0.0002
1837.00,0.0002
1836.00,0.0002
1835.00,0.0002
1834.00,0.0002
1833.00,0.0003
1832.00,0.0003
1831.00,0.0003
1830.00,0.0003
1829.00,0.0003
1828.00,0.0003
1827.00,0.0002
1826.00,0.0002
1825.00,0.0002
1824.00,0.0001
1823.00,0.0001
1822.00,0.0001
1821.00,0.0001
1820.00,0.0000
1819.00,-0.0000
1818.00,-0.0001
1817.00,-0.0001
1816.00,-0.0001
1815.00,-0.0000
1814.00,0.0000
1813.00,0.0001
1812.00,0.0001
1811.00,0.0001
1810.00,0.0001
1809.00,0.0001
1808.00,0.0000
1807.00,0.0000
1806.00,0.0001
1805.00,0.0002
1804.00,0.0002
1803.00,0.0003
1802.00,0.0004
1801.00,0.0004
1800.00,0.0004
1799.00,0.0004
1798.00,0.0003
1797.00,0.0003
1796.00,0.0003
1795.00,0.0003
1794.00,0.0004
1793.00,0.0004
1792.00,0.0004
1791.00,0.0004
1790.00,0.0004
1789.00,0.0005
1788.00,0.0005
1787.00,0.0006
1786.00,0.0006
1785.00,0.0006
1784.00,0.0006
1783.00,0.0006
1782.00,0.0005
1781.00,0.0005
1780.00,0.0005
1779.00,0.0005
1778.00,0.0005
1777.00,0.0005
1776.00,0.0006
1775.00,0.0006
1774.00,0.0006
1773.00,0.0007
1772.00,0.0007
1771.00,0.0007
1770.00,0.0007
1769.00,0.0007
1768.00,0.0007
1767.00,0.0008
1766.00,0.0008
1765.00,0.0009
1764.00,0.0009
1763.00,0.0010
1762.00,0.0010
1761.00,0.0010
1760.00,0.0010
1759.00,0.0009
1758.00,0.0009
1757.00,0.0010
1756.00,0.0010
1755.00,0.0011
1754.00,0.0011
1753.00,0.0012
1752.00,0.0012
1751.00,0.0013
1750.00,0.0013
1749.00,0.0013
1748.00,0.0013
1747.00,0.0013
1746.00,0.0013
1745.00,0.0013
1744.00,0.0013
1743.00,0.0014
1742.00,0.0014
1741.00,0.0014
1740.00,0.0015
1739.00,0.0016
1738.00,0.0016
1737.00,0.0017
1736.00,0.0017
1735.00,0.0017
1734.00,0.0016
1733.00,0.0016
1732.00,0.0016
1731.00,0.0016
1730.00,0.0016
1729.00,0.0016
1728.00,0.0016
1727.00,0.0017
1726.00,0.0017
1725.00,0.0017
1724.00,0.0017
1723.00,0.0017
1722.00,0.0017
1721.00,0.0017
1720.00,0.0017
1719.00,0.0017
1718.00,0.0016
1717.00,0.0016
1716.00,0.0016
1715.00,0.0017
1714.00,0.0017
1713.00,0.0018
1712.00,0.0018
1711.00,0.0018
1710.00,0.0018
1709.00,0.0019
1708.00,0.0019
1707.00,0.0019
1706.00,0.0020
1705.00,0.0021
1704.00,0.0021
1703.00,0.0022
1702.00,0.0022
1701.00,0.0022
1700.00,0.0023
1699.00,0.0023
1698.00,0.0023
1697.00,0.0024
1696.00,0.0024
1695.00,0.0024
1694.00,0.0024
1693.00,0.0024
1692.00,0.0025
1691.00,0.0025
1690.00,0.0025
1689.00,0.0025
1688.00,0.0025
1687.00,0.0025
1686.00,0.0025
1685.00,0.0025
1684.00,0.0026
1683.00,0.0026
1682.00,0.0026
1681.00,0.0027
1680.00,0.0027
1679.00,0.0027
1678.00,0.0027
1677.00,0.0027
1676.00,0.0028
1675.00,0.0029
1674.00,0.0030
1673.00,0.0031
1672.00,0.0031
1671.00,0.0030
1670.00,0.0031
1669.00,0.0031
1668.00,0.0032
1667.00,0.0032
1666.00,0.0032
1665.00,0.0032
1664.00,0.0032
1663.00,0.0032
1662.00,0.0033
1661.00,0.0033
1660.00,0.0034
1659.00,0.0034
1658.00,0.0034
1657.00,0.0035
1656.00,0.0036
1655.00,0.0037
1654.00,0.0038
1653.00,0.0040
1652.00,0.0041
1651.00,0.0041
1650.00,0.0041
1649.00,0.0041
1648.00,0.0041
1647.00,0.0042
1646.00,0.0042
1645.00,0.0042
1644.00,0.0043
1643.00,0.0043
1642.00,0.0043
1641.00,0.0043
1640.00,0.0043
1639.00,0.0043
1638.00,0.0043
1637.00,0.0044
1636.00,0.0044
1635.00,0.0044
1634.00,0.0044
1633.00,0.0044
1632.00,0.0044
1631.00,0.0045
1630.00,0.0045
1629.00,0.0045
1628.00,0.0046
1627.00,0.0046
1626.00,0.0046
1625.00,0.0046
1624.00,0.0046
1623.00,0.0046
1622.00,0.0046
1621.00,0.0046
1620.00,0.0045
1619.00,0.0045
1618.00,0.0045
1617.00,0.0045
1616.00,0.0044
1615.00,0.0044
1614.00,0.0043
1613.00,0.0043
1612.00,0.0043
1611.00,0.0043
1610.00,0.0043
1609.00,0.0043
1608.00,0.0042
1607.00,0.0042
1606.00,0.0042
1605.00,0.0043
1604.00,0.0043
1603.00,0.0043
1602.00,0.0043
1601.00,0.0042
1600.00,0.0043
1599.00,0.0043
1598.00,0.0043
1597.00,0.0044
1596.00,0.0044
1595.00,0.0045
1594.00,0.0045
1593.00,0.0046
1592.00,0.0047
1591.00,0.0047
1590.00,0.0049
1589.00,0.0050
1588.00,0.0052
1587.00,0.0055
1586.00,0.0057
1585.00,0.0060
1584.00,0.0064
1583.00,0.0068
1582.00,0.0073
1581.00,0.0078
1580.00,0.0082
1579.00,0.0086
1578.00,0.0089
1577.00,0.0089
1576.00,0.0088
1575.00,0.0086
1574.00,0.0083
1573.00,0.0081
1572.00,0.0079
1571.00,0.0075
1570.00,0.0071
1569.00,0.0067
1568.00,0.0064
1567.00,0.0061
1566.00,0.0060
1565.00,0.0059
1564.00,0.0058
1563.00,0.0058
1562.00,0.0058
1561.00,0.0059
1560.00,0.0058
1559.00,0.0057
1558.00,0.0056
1557.00,0.0057
1556.00,0.0058
1555.00,0.0059
1554.00,0.0060
1553.00,0.0062
1552.00,0.0064
1551.00,0.0066
1550.00,0.0068
1549.00,0.0072
1548.00,0.0075
1547.00,0.0079
1546.00,0.0083
1545.00,0.0088
1544.00,0.0093
1543.00,0.0098
1542.00,0.0102
1541.00,0.0103
1540.00,0.0102
1539.00,0.0097
1538.00,0.0092
1537.00,0.0088
1536.00,0.0084
1535.00,0.0078
1534.00,0.0072
1533.00,0.0066
1532.00,0.0062
1531.00,0.0060
1530.00,0.0058
1529.00,0.0057
1528.00,0.0056
1527.00,0.0055
1526.00,0.0054
1525.00,0.0053
1524.00,0.0054
1523.00,0.0054
1522.00,0.0053
1521.00,0.0052
1520.00,0.0053
1519.00,0.0053
1518.00,0.0054
1517.00,0.0054
1516.00,0.0055
1515.00,0.0054
1514.00,0.0054
1513.00,0.0055
1512.00,0.0056
1511.00,0.0057
1510.00,0.0058
1509.00,0.0059
1508.00,0.0061
1507.00,0.0061
1506.00,0.0062
1505.00,0.0063
1504.00,0.0065
1503.00,0.0066
1502.00,0.0067
1501.00,0.0069
1500.00,0.0072
1499.00,0.0075
1498.00,0.0077
1497.00,0.0079
1496.00,0.0083
1495.00,0.0086
1494.00,0.0088
1493.00,0.0091
1492.00,0.0095
1491.00,0.0099
1490.00,0.0103
1489.00,0.0109
1488.00,0.0115
1487.00,0.0121
1486.00,0.0127
1485.00,0.0136
1484.00,0.0145
1483.00,0.0155
1482.00,0.0167
1481.00,0.0180
1480.00,0.0195
1479.00,0.0210
1478.00,0.0226
1477.00,0.0246
1476.00,0.0269
1475.00,0.0295
1474.00,0.0330
1473.00,0.0382
1472.00,0.0446
1471.00,0.0511
1470.00,0.0575
1469.00,0.0643
1468.00,0.0718
1467.00,0.0800
1466.00,0.0895
1465.00,0.0998
1464.00,0.1089
1463.00,0.1153
1462.00,0.1196
1461.00,0.1226
1460.00,0.1247
1459.00,0.1259
1458.00,0.1265
1457.00,0.1267
1456.00,0.1263
1455.00,0.1254
1454.00,0.1242
1453.00,0.1223
1452.00,0.1193
1451.00,0.1150
1450.00,0.1090
1449.00,0.1010
1448.00,0.0911
1447.00,0.0809
1446.00,0.0719
1445.00,0.0643
1444.00,0.0579
1443.00,0.0529
1442.00,0.0492
1441.00,0.0469
1440.00,0.0458
1439.00,0.0457
1438.00,0.0464
1437.00,0.0471
1436.00,0.0465
1435.00,0.0439
1434.00,0.0398
1433.00,0.0348
1432.00,0.0296
1431.00,0.0250
1430.00,0.0215
1429.00,0.0190
1428.00,0.0174
1427.00,0.0164
1426.00,0.0157
1425.00,0.0151
1424.00,0.0146
1423.00,0.0143
1422.00,0.0142
1421.00,0.0140
1420.00,0.0137
1419.00,0.0134
1418.00,0.0131
1417.00,0.0127
1416.00,0.0124
1415.00,0.0122
1414.00,0.0122
1413.00,0.0120
1412.00,0.0118
1411.00,0.0117
1410.00,0.0117
1409.00,0.0116
1408.00,0.0114
1407.00,0.0114
1406.00,0.0113
1405.00,0.0112
1404.00,0.0111
1403.00,0.0112
1402.00,0.0113
1401.00,0.0114
1400.00,0.0114
1399.00,0.0115
1398.00,0.0117
1397.00,0.0119
1396.00,0.0122
1395.00,0.0126
1394.00,0.0132
1393.00,0.0137
1392.00,0.0144
1391.00,0.0153
1390.00,0.0166
1389.00,0.0183
1388.00,0.0210
1387.00,0.0249
1386.00,0.0301
1385.00,0.0367
1384.00,0.0454
1383.00,0.0572
1382.00,0.0730
1381.00,0.0935
1380.00,0.1196
1379.00,0.1506
1378.00,0.1824
1377.00,0.2081
1376.00,0.2202
1375.00,0.2130
1374.00,0.1884
1373.00,0.1560
1372.00,0.1251
1371.00,0.0992
1370.00,0.0784
1369.00,0.0628
1368.00,0.0520
1367.00,0.0454
1366.00,0.0419
1365.00,0.0406
1364.00,0.0409
1363.00,0.0426
1362.00,0.0453
1361.00,0.0481
1360.00,0.0503
1359.00,0.0510
1358.00,0.0497
1357.00,0.0466
1356.00,0.0421
1355.00,0.0371
1354.00,0.0322
1353.00,0.0281
1352.00,0.0247
1351.00,0.0221
1350.00,0.0200
1349.00,0.0183
1348.00,0.0169
1347.00,0.0159
1346.00,0.0150
1345.00,0.0144
1344.00,0.0138
1343.00,0.0134
1342.00,0.0130
1341.00,0.0127
1340.00,0.0124
1339.00,0.0122
1338.00,0.0121
1337.00,0.0121
1336.00,0.0122
1335.00,0.0125
1334.00,0.0129
1333.00,0.0134
1332.00,0.0139
1331.00,0.0143
1330.00,0.0144
1329.00,0.0142
1328.00,0.0137
1327.00,0.0130
1326.00,0.0122
1325.00,0.0115
1324.00,0.0109
1323.00,0.0104
1322.00,0.0100
1321.00,0.0096
1320.00,0.0092
1319.00,0.0090
1318.00,0.0087
1317.00,0.0085
1316.00,0.0083
1315.00,0.0082
1314.00,0.0081
1313.00,0.0081
1312.00,0.0082
1311.00,0.0083
1310.00,0.0086
1309.00,0.0091
1308.00,0.0098
1307.00,0.0106
1306.00,0.0114
1305.00,0.0120
1304.00,0.0123
1303.00,0.0123
1302.00,0.0122
1301.00,0.0122
1300.00,0.0123
1299.00,0.0125
1298.00,0.0128
1297.00,0.0129
1296.00,0.0128
1295.00,0.0126
1294.00,0.0121
1293.00,0.0115
1292.00,0.0109
1291.00,0.0104
1290.00,0.0099
1289.00,0.0095
1288.00,0.0091
1287.00,0.0087
1286.00,0.0084
1285.00,0.0082
1284.00,0.0080
1283.00,0.0078
1282.00,0.0077
1281.00,0.0076
1280.00,0.0075
1279.00,0.0074
1278.00,0.0073
1277.00,0.0072
1276.00,0.0072
1275.00,0.0071
1274.00,0.0071
1273.00,0.0070
1272.00,0.0070
1271.00,0.0070
1270.00,0.0070
1269.00,0.0070
1268.00,0.0070
1267.00,0.0071
1266.00,0.0072
1265.00,0.0074
1264.00,0.0076
1263.00,0.0078
1262.00,0.0081
1261.00,0.0085
1260.00,0.0089
1259.00,0.0095
1258.00,0.0100
1257.00,0.0104
1256.00,0.0106
1255.00,0.0104
1254.00,0.0100
1253.00,0.0095
1252.00,0.0089
1251.00,0.0085
1250.00,0.0082
1249.00,0.0080
1248.00,0.0079
1247.00,0.0079
1246.00,0.0078
1245.00,0.0077
1244.00,0.0077
1243.00,0.0077
1242.00,0.0076
1241.00,0.0075
1240.00,0.0075
1239.00,0.0074
1238.00,0.0074
1237.00,0.0074
1236.00,0.0074
1235.00,0.0074
1234.00,0.0074
1233.00,0.0075
1232.00,0.0075
1231.00,0.0076
1230.00,0.0077
1229.00,0.0078
1228.00,0.0080
1227.00,0.0082
1226.00,0.0084
1225.00,0.0087
1224.00,0.0091
1223.00,0.0095
1222.00,0.0099
1221.00,0.0102
1220.00,0.0104
1219.00,0.0104
1218.00,0.0104
1217.00,0.0102
1216.00,0.0099
1215.00,0.0095
1214.00,0.0092
1213.00,0.0089
1212.00,0.0086
1211.00,0.0084
1210.00,0.0081
1209.00,0.0079
1208.00,0.0077
1207.00,0.0076
1206.00,0.0075
1205.00,0.0074
1204.00,0.0073
1203.00,0.0073
1202.00,0.0072
1201.00,0.0072
1200.00,0.0072
1199.00,0.0071
1198.00,0.0072
1197.00,0.0072
1196.00,0.0071
1195.00,0.0071
1194.00,0.0071
1193.00,0.0071
1192.00,0.0071
1191.00,0.0072
1190.00,0.0071
1189.00,0.0070
1188.00,0.0069
1187.00,0.0069
1186.00,0.0070
1185.00,0.0071
1184.00,0.0071
1183.00,0.0072
1182.00,0.0072
1181.00,0.0073
1180.00,0.0074
1179.00,0.0077
1178.00,0.0082
1177.00,0.0088
1176.00,0.0096
1175.00,0.0107
1174.00,0.0122
1173.00,0.0140
1172.00,0.0162
1171.00,0.0185
1170.00,0.0208
1169.00,0.0227
1168.00,0.0239
1167.00,0.0243
1166.00,0.0239
1165.00,0.0231
1164.00,0.0221
1163.00,0.0211
1162.00,0.0202
1161.00,0.0194
1160.00,0.0188
1159.00,0.0183
1158.00,0.0179
1157.00,0.0177
1156.00,0.0175
1155.00,0.0175
1154.00,0.0175
1153.00,0.0173
1152.00,0.0170
1151.00,0.0165
1150.00,0.0158
1149.00,0.0150
1148.00,0.0141
1147.00,0.0132
1146.00,0.0124
1145.00,0.0117
1144.00,0.0110
1143.00,0.0103
1142.00,0.0098
1141.00,0.0093
1140.00,0.0089
1139.00,0.0085
1138.00,0.0083
1137.00,0.0080
1136.00,0.0078
1135.00,0.0076
1134.00,0.0074
1133.00,0.0072
1132.00,0.0071
1131.00,0.0071
1130.00,0.0071
1129.00,0.0073
1128.00,0.0074
1127.00,0.0075
1126.00,0.0076
1125.00,0.0076
1124.00,0.0076
1123.00,0.0075
1122.00,0.0074
1121.00,0.0074
1120.00,0.0074
1119.00,0.0075
1118.00,0.0077
1117.00,0.0079
1116.00,0.0080
1115.00,0.0082
1114.00,0.0084
1113.00,0.0085
1112.00,0.0087
1111.00,0.0090
1110.00,0.0094
1109.00,0.0098
1108.00,0.0104
1107.00,0.0111
1106.00,0.0119
1105.00,0.0126
1104.00,0.0133
1103.00,0.0137
1102.00,0.0138
1101.00,0.0136
1100.00,0.0131
1099.00,0.0124
1098.00,0.0116
1097.00,0.0107
1096.00,0.0099
1095.00,0.0093
1094.00,0.0089
1093.00,0.0086
1092.00,0.0083
1091.00,0.0081
1090.00,0.0079
1089.00,0.0077
1088.00,0.0075
1087.00,0.0073
1086.00,0.0072
1085.00,0.0072
1084.00,0.0071
1083.00,0.0070
1082.00,0.0070
1081.00,0.0068
1080.00,0.0067
1079.00,0.0065
1078.00,0.0064
1077.00,0.0062
1076.00,0.0061
1075.00,0.0060
1074.00,0.0060
1073.00,0.0060
1072.00,0.0061
1071.00,0.0061
1070.00,0.0063
1069.00,0.0064
1068.00,0.0064
1067.00,0.0064
1066.00,0.0064
1065.00,0.0063
1064.00,0.0063
1063.00,0.0063
1062.00,0.0064
1061.00,0.0065
1060.00,0.0066
1059.00,0.0067
1058.00,0.0068
1057.00,0.0069
1056.00,0.0068
1055.00,0.0068
1054.00,0.0068
1053.00,0.0068
1052.00,0.0069
1051.00,0.0071
1050.00,0.0072
1049.00,0.0074
1048.00,0.0076
1047.00,0.0079
1046.00,0.0080
1045.00,0.0081
1044.00,0.0082
1043.00,0.0081
1042.00,0.0081
1041.00,0.0080
1040.00,0.0081
1039.00,0.0082
1038.00,0.0084
1037.00,0.0086
1036.00,0.0086
1035.00,0.0086
1034.00,0.0085
1033.00,0.0083
1032.00,0.0082
1031.00,0.0080
1030.00,0.0079
1029.00,0.0079
1028.00,0.0079
1027.00,0.0079
1026.00,0.0079
1025.00,0.0078
1024.00,0.0077
1023.00,0.0076
1022.00,0.0076
1021.00,0.0076
1020.00,0.0078
1019.00,0.0079
1018.00,0.0081
1017.00,0.0082
1016.00,0.0085
1015.00,0.0088
1014.00,0.0091
1013.00,0.0094
1012.00,0.0098
1011.00,0.0100
1010.00,0.0102
1009.00,0.0103
1008.00,0.0105
1007.00,0.0109
1006.00,0.0116
1005.00,0.0125
1004.00,0.0136
1003.00,0.0151
1002.00,0.0170
1001.00,0.0193
1000.00,0.0217
999.00,0.0237
998.00,0.0245
997.00,0.0238
996.00,0.0219
995.00,0.0193
994.00,0.0167
993.00,0.0145
992.00,0.0126
991.00,0.0113
990.00,0.0103
989.00,0.0096
988.00,0.0092
987.00,0.0090
986.00,0.0090
985.00,0.0093
984.00,0.0097
983.00,0.0104
982.00,0.0114
981.00,0.0127
980.00,0.0145
979.00,0.0169
978.00,0.0198
977.00,0.0232
976.00,0.0267
975.00,0.0298
974.00,0.0318
973.00,0.0322
972.00,0.0308
971.00,0.0278
970.00,0.0240
969.00,0.0203
968.00,0.0171
967.00,0.0146
966.00,0.0129
965.00,0.0116
964.00,0.0106
963.00,0.0098
962.00,0.0092
961.00,0.0087
960.00,0.0083
959.00,0.0080
958.00,0.0077
957.00,0.0075
956.00,0.0073
955.00,0.0072
954.00,0.0070
953.00,0.0069
952.00,0.0068
951.00,0.0067
950.00,0.0067
949.00,0.0068
948.00,0.0070
947.00,0.0072
946.00,0.0074
945.00,0.0078
944.00,0.0081
943.00,0.0084
942.00,0.0087
941.00,0.0089
940.00,0.0089
939.00,0.0087
938.00,0.0082
937.00,0.0077
936.00,0.0073
935.00,0.0069
934.00,0.0066
933.00,0.0063
932.00,0.0061
931.00,0.0060
930.00,0.0059
929.00,0.0058
928.00,0.0058
927.00,0.0057
926.00,0.0057
925.00,0.0057
924.00,0.0058
923.00,0.0059
922.00,0.0061
921.00,0.0062
920.00,0.0064
919.00,0.0066
918.00,0.0068
917.00,0.0069
916.00,0.0069
915.00,0.0069
914.00,0.0069
913.00,0.0070
912.00,0.0070
911.00,0.0071
910.00,0.0072
909.00,0.0075
908.00,0.0078
907.00,0.0084
906.00,0.0093
905.00,0.0105
904.00,0.0121
903.00,0.0143
902.00,0.0166
901.00,0.0188
900.00,0.0203
899.00,0.0207
898.00,0.0199
897.00,0.0181
896.00,0.0158
895.00,0.0135
894.00,0.0116
893.00,0.0101
892.00,0.0091
891.00,0.0083
890.00,0.0078
889.00,0.0073
888.00,0.0069
887.00,0.0067
886.00,0.0066
885.00,0.0066
884.00,0.0066
883.00,0.0067
882.00,0.0068
881.00,0.0069
880.00,0.0069
879.00,0.0069
878.00,0.0068
877.00,0.0067
876.00,0.0066
875.00,0.0067
874.00,0.0067
873.00,0.0067
872.00,0.0066
871.00,0.0067
870.00,0.0067
869.00,0.0068
868.00,0.0069
867.00,0.0069
866.00,0.0070
865.00,0.0070
864.00,0.0071
863.00,0.0072
862.00,0.0074
861.00,0.0075
860.00,0.0077
859.00,0.0078
858.00,0.0080
857.00,0.0081
856.00,0.0082
855.00,0.0082
854.00,0.0082
853.00,0.0084
852.00,0.0086
851.00,0.0089
850.00,0.0094
849.00,0.0099
848.00,0.0105
847.00,0.0114
846.00,0.0128
845.00,0.0148
844.00,0.0175
843.00,0.0204
842.00,0.0224
841.00,0.0228
840.00,0.0213
839.00,0.0187
838.00,0.0161
837.00,0.0140
836.00,0.0126
835.00,0.0117
834.00,0.0112
833.00,0.0107
832.00,0.0104
831.00,0.0102
830.00,0.0100
829.00,0.0098
828.00,0.0096
827.00,0.0094
826.00,0.0094
825.00,0.0095
824.00,0.0096
823.00,0.0097
822.00,0.0098
821.00,0.0099
820.00,0.0101
819.00,0.0104
818.00,0.0109
817.00,0.0115
816.00,0.0124
815.00,0.0138
814.00,0.0155
813.00,0.0175
812.00,0.0196
811.00,0.0215
810.00,0.0228
809.00,0.0233
808.00,0.0228
807.00,0.0215
806.00,0.0197
805.00,0.0179
804.00,0.0162
803.00,0.0148
802.00,0.0137
801.00,0.0128
800.00,0.0120
799.00,0.0112
798.00,0.0104
797.00,0.0098
796.00,0.0092
795.00,0.0087
794.00,0.0083
793.00,0.0080
792.00,0.0080
791.00,0.0080
790.00,0.0078
789.00,0.0076
788.00,0.0073
787.00,0.0071
786.00,0.0071
785.00,0.0071
784.00,0.0071
783.00,0.0069
782.00,0.0066
781.00,0.0064
780.00,0.0061
779.00,0.0060
778.00,0.0059
777.00,0.0060
776.00,0.0060
775.00,0.0061
774.00,0.0061
773.00,0.0062
772.00,0.0064
771.00,0.0067
770.00,0.0070
769.00,0.0072
768.00,0.0073
767.00,0.0073
766.00,0.0072
765.00,0.0071
764.00,0.0069
763.00,0.0067
762.00,0.0065
761.00,0.0063
760.00,0.0062
759.00,0.0060
758.00,0.0058
757.00,0.0056
756.00,0.0053
755.00,0.0050
754.00,0.0048
753.00,0.0048
752.00,0.0050
751.00,0.0052
750.00,0.0054
749.00,0.0054
748.00,0.0054
747.00,0.0053
746.00,0.0052
745.00,0.0051
744.00,0.0051
743.00,0.0052
742.00,0.0054
741.00,0.0055
740.00,0.0056
739.00,0.0057
738.00,0.0058
737.00,0.0059
736.00,0.0060
735.00,0.0061
734.00,0.0062
733.00,0.0062
732.00,0.0062
731.00,0.0062
730.00,0.0062
729.00,0.0063
728.00,0.0064
727.00,0.0066
726.00,0.0067
725.00,0.0067
724.00,0.0066
723.00,0.0066
722.00,0.0066
721.00,0.0065
720.00,0.0065
719.00,0.0063
718.00,0.0060
717.00,0.0056
716.00,0.0053
715.00,0.0051
714.00,0.0050
713.00,0.0049
712.00,0.0049
711.00,0.0050
710.00,0.0052
709.00,0.0053
708.00,0.0055
707.00,0.0057
706.00,0.0058
705.00,0.0058
704.00,0.0057
703.00,0.0056
702.00,0.0056
701.00,0.0056
700.00,0.0056
699.00,0.0055
698.00,0.0055
697.00,0.0055
696.00,0.0055
695.00,0.0055
694.00,0.0054
693.00,0.0054
692.00,0.0054
691.00,0.0055
690.00,0.0055
689.00,0.0054
688.00,0.0054
687.00,0.0053
686.00,0.0053
685.00,0.0052
684.00,0.0051
683.00,0.0050
682.00,0.0050
681.00,0.0051
680.00,0.0052
679.00,0.0053
678.00,0.0054
677.00,0.0056
676.00,0.0057
675.00,0.0057
674.00,0.0056
673.00,0.0055
672.00,0.0053
671.00,0.0053
670.00,0.0053
669.00,0.0054
668.00,0.0055
667.00,0.0057
666.00,0.0058
665.00,0.0059
664.00,0.0060
663.00,0.0059
662.00,0.0057
661.00,0.0054
660.00,0.0051
659.00,0.0050
658.00,0.0050
657.00,0.0051
656.00,0.0051
655.00,0.0051
654.00,0.0051
653.00,0.0050
652.00,0.0048
651.00,0.0047
650.00,0.0049
649.00,0.0052
648.00,0.0056
647.00,0.0058
646.00,0.0058
645.00,0.0058
644.00,0.0057
643.00,0.0057
642.00,0.0055
641.00,0.0053
640.00,0.0050
639.00,0.0050
638.00,0.0052
637.00,0.0056
636.00,0.0059
635.00,0.0060
634.00,0.0060
633.00,0.0059
632.00,0.0056
631.00,0.0052
630.00,0.0049
629.00,0.0049
628.00,0.0050
627.00,0.0053
626.00,0.0054
625.00,0.0054
624.00,0.0052
623.00,0.0051
622.00,0.0051
621.00,0.0051
620.00,0.0052
619.00,0.0052
618.00,0.0053
617.00,0.0053
616.00,0.0053
615.00,0.0053
614.00,0.0053
613.00,0.0053
612.00,0.0053
611.00,0.0053
610.00,0.0053
609.00,0.0051
608.00,0.0050
607.00,0.0048
606.00,0.0048
605.00,0.0048
604.00,0.0047
603.00,0.0048
602.00,0.0049
601.00,0.0050
600.00,0.0052
599.00,0.0054
598.00,0.0054
597.00,0.0054
596.00,0.0052
595.00,0.0051
594.00,0.0051
593.00,0.0052
592.00,0.0053
591.00,0.0054
590.00,0.0056
589.00,0.0057
588.00,0.0058
587.00,0.0059
586.00,0.0059
585.00,0.0059
584.00,0.0060
583.00,0.0063
582.00,0.0066
581.00,0.0066
580.00,0.0065
579.00,0.0064
578.00,0.0064
577.00,0.0064
576.00,0.0063
575.00,0.0060
574.00,0.0058
573.00,0.0057
572.00,0.0056
571.00,0.0057
570.00,0.0057
569.00,0.0057
568.00,0.0055
567.00,0.0052
566.00,0.0048
565.00,0.0045
564.00,0.0043
563.00,0.0044
562.00,0.0048
561.00,0.0053
560.00,0.0055
559.00,0.0055
558.00,0.0055
557.00,0.0056
556.00,0.0058
555.00,0.0060
554.00,0.0060
553.00,0.0058
552.00,0.0056
551.00,0.0055
550.00,0.0057
549.00,0.0061
548.00,0.0063
547.00,0.0064
546.00,0.0064
545.00,0.0062
544.00,0.0060
543.00,0.0058
542.00,0.0059
541.00,0.0061
540.00,0.0064
539.00,0.0066
538.00,0.0065
537.00,0.0064
536.00,0.0063
535.00,0.0063
534.00,0.0064
533.00,0.0067
532.00,0.0072
531.00,0.0077
530.00,0.0081
529.00,0.0083
528.00,0.0083
527.00,0.0083
526.00,0.0081
525.00,0.0077
524.00,0.0074
523.00,0.0073
522.00,0.0075
521.00,0.0076
520.00,0.0075
519.00,0.0074
518.00,0.0075
517.00,0.0076
516.00,0.0075
515.00,0.0071
514.00,0.0066
513.00,0.0060
512.00,0.0057
511.00,0.0058
510.00,0.0061
509.00,0.0064
508.00,0.0063
507.00,0.0060
506.00,0.0058
505.00,0.0061
504.00,0.0068
503.00,0.0074
502.00,0.0077
501.00,0.0075
500.00,0.0071
499.00,0.0068
498.00,0.0065
497.00,0.0060
496.00,0.0055
495.00,0.0053
494.00,0.0052
493.00,0.0051
492.00,0.0049
491.00,0.0050
490.00,0.0054
489.00,0.0058
488.00,0.0059
487.00,0.0058
486.00,0.0056
485.00,0.0053
484.00,0.0052
483.00,0.0056
482.00,0.0064
481.00,0.0071
480.00,0.0075
479.00,0.0074
478.00,0.0072
477.00,0.0070
476.00,0.0068
475.00,0.0064
474.00,0.0059
473.00,0.0054
472.00,0.0053
471.00,0.0058
470.00,0.0067
469.00,0.0072
468.00,0.0070
467.00,0.0068
466.00,0.0075
465.00,0.0090
464.00,0.0108
463.00,0.0120
462.00,0.0126
461.00,0.0130
460.00,0.0135
459.00,0.0142
458.00,0.0146
457.00,0.0141
456.00,0.0129
455.00,0.0118
454.00,0.0114
453.00,0.0120
452.00,0.0124
451.00,0.0117
450.00,0.0100
