Created as New Dataset,Sample 023 By Administrator Date Thursday, September 04 2025
cm-1,A
4000.00,0.0008
3999.00,0.0008
3998.00,0.0008
3997.00,0.0008
3996.00,0.0008
3995.00,0.0009
3994.00,0.0009
3993.00,0.0009
3992.00,0.0009
3991.00,0.0009
3990.00,0.0009
3989.00,0.0009
3988.00,0.0009
3987.00,0.0009
3986.00,0.0009
3985.00,0.0008
3984.00,0.0008
3983.00,0.0008
3982.00,0.0008
3981.00,0.0008
3980.00,0.0008
3979.00,0.0008
3978.00,0.0008
3977.00,0.0007
3976.00,0.0007
3975.00,0.0007
3974.00,0.0007
3973.00,0.0007
3972.00,0.0007
3971.00,0.0007
3970.00,0.0007
3969.00,0.0007
3968.00,0.0007
3967.00,0.0007
3966.00,0.0007
3965.00,0.0007
3964.00,0.0007
3963.00,0.0007
3962.00,0.0007
3961.00,0.0007
3960.00,0.0007
3959.00,0.0007
3958.00,0.0007
3957.00,0.0007
3956.00,0.0007
3955.00,0.0007
3954.00,0.0007
3953.00,0.0007
3952.00,0.0007
3951.00,0.0007
3950.00,0.0007
3949.00,0.0007
3948.00,0.0007
3947.00,0.0007
3946.00,0.0006
3945.00,0.0006
3944.00,0.0006
3943.00,0.0007
3942.00,0.0007
3941.00,0.0007
3940.00,0.0007
3939.00,0.0007
3938.00,0.0007
3937.00,0.0007
3936.00,0.0007
3935.00,0.0007
3934.00,0.0007
3933.00,0.0007
3932.00,0.0007
3931.00,0.0007
3930.00,0.0007
3929.00,0.0007
3928.00,0.0007
3927.00,0.0007
3926.00,0.0007
3925.00,0.0008
3924.00,0.0008
3923.00,0.0007
3922.00,0.0007
3921.00,0.0007
3920.00,0.0007
3919.00,0.0006
3918.00,0.0006
3917.00,0.0006
3916.00,0.0007
3915.00,0.0007
3914.00,0.0007
3913.00,0.0007
3912.00,0.0007
3911.00,0.0008
3910.00,0.0008
3909.00,0.0008
3908.00,0.0007
3907.00,0.0007
3906.00,0.0007
3905.00,0.0006
3904.00,0.0006
3903.00,0.0006
3902.00,0.0006
3901.00,0.0007
3900.00,0.0007
3899.00,0.0007
3898.00,0.0007
3897.00,0.0007
3896.00,0.0007
3895.00,0.0007
3894.00,0.0007
3893.00,0.0007
3892.00,0.0007
3891.00,0.0007
3890.00,0.0007
3889.00,0.0006
3888.00,0.0006
3887.00,0.0006
3886.00,0.0006
3885.00,0.0006
3884.00,0.0006
3883.00,0.0006
3882.00,0.0006
3881.00,0.0006
3880.00,0.0006
3879.00,0.0007
3878.00,0.0007
3877.00,0.0007
3876.00,0.0007
3875.00,0.0007
3874.00,0.0006
3873.00,0.0006
3872.00,0.0005
3871.00,0.0005
3870.00,0.0006
3869.00,0.0006
3868.00,0.0006
3867.00,0.0006
3866.00,0.0005
3865.00,0.0005
3864.00,0.0006
3863.00,0.0006
3862.00,0.0006
3861.00,0.0006
3860.00,0.0006
3859.00,0.0006
3858.00,0.0006
3857.00,0.0006
3856.00,0.0006
3855.00,0.0006
3854.00,0.0006
3853.00,0.0006
3852.00,0.0006
3851.00,0.0006
3850.00,0.0006
3849.00,0.0006
3848.00,0.0006
3847.00,0.0006
3846.00,0.0006
3845.00,0.0006
3844.00,0.0006
3843.00,0.0006
3842.00,0.0006
3841.00,0.0006
3840.00,0.0006
3839.00,0.0006
3838.00,0.0006
3837.00,0.0006
3836.00,0.0005
3835.00,0.0005
3834.00,0.0005
3833.00,0.0005
3832.00,0.0005
3831.00,0.0005
3830.00,0.0005
3829.00,0.0005
3828.00,0.0006
3827.00,0.0006
3826.00,0.0006
3825.00,0.0006
3824.00,0.0006
3823.00,0.0006
3822.00,0.0006
3821.00,0.0006
3820.00,0.0006
3819.00,0.0006
3818.00,0.0006
3817.00,0.0006
3816.00,0.0006
3815.00,0.0007
3814.00,0.0007
3813.00,0.0007
3812.00,0.0006
3811.00,0.0006
3810.00,0.0006
3809.00,0.0006
3808.00,0.0006
3807.00,0.0006
3806.00,0.0006
3805.00,0.0005
3804.00,0.0005
3803.00,0.0005
3802.00,0.0005
3801.00,0.0005
3800.00,0.0005
3799.00,0.0005
3798.00,0.0005
3797.00,0.0006
3796.00,0.0006
3795.00,0.0006
3794.00,0.0006
3793.00,0.0006
3792.00,0.0006
3791.00,0.0006
3790.00,0.0006
3789.00,0.0006
3788.00,0.0006
3787.00,0.0006
3786.00,0.0006
3785.00,0.0006
3784.00,0.0006
3783.00,0.0006
3782.00,0.0006
3781.00,0.0006
3780.00,0.0006
3779.00,0.0006
3778.00,0.0006
3777.00,0.0006
3776.00,0.0006
3775.00,0.0006
3774.00,0.0006
3773.00,0.0006
3772.00,0.0006
3771.00,0.0006
3770.00,0.0006
3769.00,0.0006
3768.00,0.0006
3767.00,0.0006
3766.00,0.0006
3765.00,0.0006
3764.00,0.0006
3763.00,0.0007
3762.00,0.0007
3761.00,0.0007
3760.00,0.0007
3759.00,0.0006
3758.00,0.0006
3757.00,0.0006
3756.00,0.0006
3755.00,0.0006
3754.00,0.0006
3753.00,0.0006
3752.00,0.0005
3751.00,0.0005
3750.00,0.0005
3749.00,0.0005
3748.00,0.0006
3747.00,0.0005
3746.00,0.0005
3745.00,0.0005
3744.00,0.0005
3743.00,0.0005
3742.00,0.0005
3741.00,0.0004
3740.00,0.0004
3739.00,0.0004
3738.00,0.0004
3737.00,0.0004
3736.00,0.0003
3735.00,0.0003
3734.00,0.0003
3733.00,0.0003
3732.00,0.0003
3731.00,0.0003
3730.00,0.0004
3729.00,0.0004
3728.00,0.0004
3727.00,0.0004
3726.00,0.0004
3725.00,0.0005
3724.00,0.0005
3723.00,0.0005
3722.00,0.0005
3721.00,0.0005
3720.00,0.0005
3719.00,0.0005
3718.00,0.0005
3717.00,0.0005
3716.00,0.0005
3715.00,0.0005
3714.00,0.0006
3713.00,0.0006
3712.00,0.0006
3711.00,0.0005
3710.00,0.0005
3709.00,0.0005
3708.00,0.0005
3707.00,0.0004
3706.00,0.0005
3705.00,0.0005
3704.00,0.0005
3703.00,0.0005
3702.00,0.0006
3701.00,0.0006
3700.00,0.0006
3699.00,0.0006
3698.00,0.0006
3697.00,0.0005
3696.00,0.0005
3695.00,0.0005
3694.00,0.0005
3693.00,0.0005
3692.00,0.0005
3691.00,0.0005
3690.00,0.0005
3689.00,0.0005
3688.00,0.0005
3687.00,0.0005
3686.00,0.0005
3685.00,0.0005
3684.00,0.0005
3683.00,0.0005
3682.00,0.0005
3681.00,0.0005
3680.00,0.0006
3679.00,0.0006
3678.00,0.0006
3677.00,0.0006
3676.00,0.0006
3675.00,0.0006
3674.00,0.0006
3673.00,0.0006
3672.00,0.0005
3671.00,0.0005
3670.00,0.0005
3669.00,0.0005
3668.00,0.0005
3667.00,0.0006
3666.00,0.0006
3665.00,0.0006
3664.00,0.0006
3663.00,0.0006
3662.00,0.0006
3661.00,0.0006
3660.00,0.0006
3659.00,0.0006
3658.00,0.0006
3657.00,0.0006
3656.00,0.0007
3655.00,0.0007
3654.00,0.0007
3653.00,0.0007
3652.00,0.0007
3651.00,0.0007
3650.00,0.0007
3649.00,0.0007
3648.00,0.0007
3647.00,0.0007
3646.00,0.0007
3645.00,0.0007
3644.00,0.0007
3643.00,0.0007
3642.00,0.0007
3641.00,0.0007
3640.00,0.0007
3639.00,0.0007
3638.00,0.0007
3637.00,0.0007
3636.00,0.0007
3635.00,0.0007
3634.00,0.0007
3633.00,0.0007
3632.00,0.0007
3631.00,0.0007
3630.00,0.0007
3629.00,0.0008
3628.00,0.0008
3627.00,0.0008
3626.00,0.0008
3625.00,0.0008
3624.00,0.0008
3623.00,0.0008
3622.00,0.0008
3621.00,0.0009
3620.00,0.0009
3619.00,0.0009
3618.00,0.0009
3617.00,0.0008
3616.00,0.0008
3615.00,0.0008
3614.00,0.0008
3613.00,0.0007
3612.00,0.0008
3611.00,0.0008
3610.00,0.0008
3609.00,0.0009
3608.00,0.0010
3607.00,0.0010
3606.00,0.0011
3605.00,0.0011
3604.00,0.0011
3603.00,0.0011
3602.00,0.0011
3601.00,0.0011
3600.00,0.0011
3599.00,0.0011
3598.00,0.0011
3597.00,0.0011
3596.00,0.0011
3595.00,0.0011
3594.00,0.0012
3593.00,0.0012
3592.00,0.0012
3591.00,0.0012
3590.00,0.0013
3589.00,0.0013
3588.00,0.0014
3587.00,0.0014
3586.00,0.0013
3585.00,0.0013
3584.00,0.0013
3583.00,0.0013
3582.00,0.0013
3581.00,0.0014
3580.00,0.0014
3579.00,0.0015
3578.00,0.0015
3577.00,0.0015
3576.00,0.0015
3575.00,0.0015
3574.00,0.0015
3573.00,0.0016
3572.00,0.0016
3571.00,0.0016
3570.00,0.0016
3569.00,0.0017
3568.00,0.0017
3567.00,0.0017
3566.00,0.0018
3565.00,0.0018
3564.00,0.0018
3563.00,0.0018
3562.00,0.0019
3561.00,0.0019
3560.00,0.0019
3559.00,0.0019
3558.00,0.0019
3557.00,0.0019
3556.00,0.0020
3555.00,0.0020
3554.00,0.0021
3553.00,0.0021
3552.00,0.0022
3551.00,0.0022
3550.00,0.0022
3549.00,0.0022
3548.00,0.0022
3547.00,0.0022
3546.00,0.0022
3545.00,0.0022
3544.00,0.0023
3543.00,0.0024
3542.00,0.0024
3541.00,0.0024
3540.00,0.0025
3539.00,0.0025
3538.00,0.0025
3537.00,0.0025
3536.00,0.0025
3535.00,0.0025
3534.00,0.0026
3533.00,0.0026
3532.00,0.0027
3531.00,0.0027
3530.00,0.0028
3529.00,0.0028
3528.00,0.0028
3527.00,0.0028
3526.00,0.0028
3525.00,0.0028
3524.00,0.0029
3523.00,0.0029
3522.00,0.0029
3521.00,0.0030
3520.00,0.0030
3519.00,0.0030
3518.00,0.0031
3517.00,0.0031
3516.00,0.0031
3515.00,0.0032
3514.00,0.0032
3513.00,0.0033
3512.00,0.0033
3511.00,0.0033
3510.00,0.0033
3509.00,0.0034
3508.00,0.0034
3507.00,0.0034
3506.00,0.0035
3505.00,0.0035
3504.00,0.0035
3503.00,0.0036
3502.00,0.0036
3501.00,0.0036
3500.00,0.0036
3499.00,0.0036
3498.00,0.0036
3497.00,0.0036
3496.00,0.0037
3495.00,0.0038
3494.00,0.0038
3493.00,0.0039
3492.00,0.0039
3491.00,0.0039
3490.00,0.0039
3489.00,0.0039
3488.00,0.0039
3487.00,0.0040
3486.00,0.0041
3485.00,0.0041
3484.00,0.0042
3483.00,0.0042
3482.00,0.0042
3481.00,0.0042
3480.00,0.0042
3479.00,0.0042
3478.00,0.0042
3477.00,0.0042
3476.00,0.0043
3475.00,0.0043
3474.00,0.0044
3473.00,0.0044
3472.00,0.0045
3471.00,0.0045
3470.00,0.0045
3469.00,0.0045
3468.00,0.0045
3467.00,0.0046
3466.00,0.0046
3465.00,0.0047
3464.00,0.0047
3463.00,0.0046
3462.00,0.0046
3461.00,0.0046
3460.00,0.0046
3459.00,0.0046
3458.00,0.0047
3457.00,0.0047
3456.00,0.0048
3455.00,0.0048
3454.00,0.0048
3453.00,0.0049
3452.00,0.0049
3451.00,0.0049
3450.00,0.0050
3449.00,0.0050
3448.00,0.0050
3447.00,0.0050
3446.00,0.0051
3445.00,0.0051
3444.00,0.0051
3443.00,0.0051
3442.00,0.0052
3441.00,0.0052
3440.00,0.0052
3439.00,0.0052
3438.00,0.0053
3437.00,0.0053
3436.00,0.0054
3435.00,0.0054
3434.00,0.0054
3433.00,0.0055
3432.00,0.0055
3431.00,0.0055
3430.00,0.0055
3429.00,0.0055
3428.00,0.0056
3427.00,0.0056
3426.00,0.0057
3425.00,0.0057
3424.00,0.0057
3423.00,0.0057
3422.00,0.0057
3421.00,0.0057
3420.00,0.0058
3419.00,0.0058
3418.00,0.0058
3417.00,0.0058
3416.00,0.0058
3415.00,0.0058
3414.00,0.0059
3413.00,0.0059
3412.00,0.0059
3411.00,0.0059
3410.00,0.0060
3409.00,0.0060
3408.00,0.0060
3407.00,0.0060
3406.00,0.0061
3405.00,0.0061
3404.00,0.0062
3403.00,0.0062
3402.00,0.0062
3401.00,0.0062
3400.00,0.0061
3399.00,0.0062
3398.00,0.0062
3397.00,0.0062
3396.00,0.0063
3395.00,0.0063
3394.00,0.0063
3393.00,0.0063
3392.00,0.0063
3391.00,0.0063
3390.00,0.0063
3389.00,0.0063
3388.00,0.0063
3387.00,0.0062
3386.00,0.0062
3385.00,0.0062
3384.00,0.0063
3383.00,0.0063
3382.00,0.0063
3381.00,0.0063
3380.00,0.0063
3379.00,0.0063
3378.00,0.0063
3377.00,0.0063
3376.00,0.0063
3375.00,0.0063
3374.00,0.0063
3373.00,0.0064
3372.00,0.0064
3371.00,0.0063
3370.00,0.0063
3369.00,0.0063
3368.00,0.0063
3367.00,0.0063
3366.00,0.0063
3365.00,0.0063
3364.00,0.0064
3363.00,0.0064
3362.00,0.0064
3361.00,0.0063
3360.00,0.0063
3359.00,0.0063
3358.00,0.0063
3357.00,0.0063
3356.00,0.0063
3355.00,0.0063
3354.00,0.0064
3353.00,0.0064
3352.00,0.0064
3351.00,0.0064
3350.00,0.0065
3349.00,0.0064
3348.00,0.0064
3347.00,0.0064
3346.00,0.0064
3345.00,0.0063
3344.00,0.0063
3343.00,0.0063
3342.00,0.0064
3341.00,0.0064
3340.00,0.0064
3339.00,0.0063
3338.00,0.0063
3337.00,0.0063
3336.00,0.0063
3335.00,0.0063
3334.00,0.0063
3333.00,0.0063
3332.00,0.0063
3331.00,0.0063
3330.00,0.0062
3329.00,0.0062
3328.00,0.0062
3327.00,0.0062
3326.00,0.0062
3325.00,0.0062
3324.00,0.0062
3323.00,0.0062
3322.00,0.0062
3321.00,0.0062
3320.00,0.0062
3319.00,0.0062
3318.00,0.0062
3317.00,0.0062
3316.00,0.0062
3315.00,0.0062
3314.00,0.0062
3313.00,0.0062
3312.00,0.0062
3311.00,0.0062
3310.00,0.0062
3309.00,0.0061
3308.00,0.0061
3307.00,0.0062
3306.00,0.0062
3305.00,0.0062
3304.00,0.0062
3303.00,0.0063
3302.00,0.0064
3301.00,0.0064
3300.00,0.0064
3299.00,0.0064
3298.00,0.0063
3297.00,0.0062
3296.00,0.0061
3295.00,0.0061
3294.00,0.0061
3293.00,0.0061
3292.00,0.0061
3291.00,0.0060
3290.00,0.0060
3289.00,0.0060
3288.00,0.0059
3287.00,0.0059
3286.00,0.0058
3285.00,0.0058
3284.00,0.0058
3283.00,0.0057
3282.00,0.0058
3281.00,0.0058
3280.00,0.0058
3279.00,0.0058
3278.00,0.0058
3277.00,0.0058
3276.00,0.0057
3275.00,0.0057
3274.00,0.0057
3273.00,0.0057
3272.00,0.0056
3271.00,0.0056
3270.00,0.0056
3269.00,0.0055
3268.00,0.0055
3267.00,0.0055
3266.00,0.0055
3265.00,0.0055
3264.00,0.0055
3263.00,0.0055
3262.00,0.0055
3261.00,0.0054
3260.00,0.0054
3259.00,0.0054
3258.00,0.0054
3257.00,0.0053
3256.00,0.0053
3255.00,0.0053
3254.00,0.0052
3253.00,0.0052
3252.00,0.0052
3251.00,0.0052
3250.00,0.0052
3249.00,0.0052
3248.00,0.0052
3247.00,0.0052
3246.00,0.0051
3245.00,0.0051
3244.00,0.0051
3243.00,0.0051
3242.00,0.0051
3241.00,0.0051
3240.00,0.0051
3239.00,0.0051
3238.00,0.0051
3237.00,0.0050
3236.00,0.0051
3235.00,0.0051
3234.00,0.0051
3233.00,0.0051
3232.00,0.0051
3231.00,0.0051
3230.00,0.0051
3229.00,0.0051
3228.00,0.0052
3227.00,0.0052
3226.00,0.0052
3225.00,0.0052
3224.00,0.0052
3223.00,0.0052
3222.00,0.0052
3221.00,0.0052
3220.00,0.0052
3219.00,0.0053
3218.00,0.0053
3217.00,0.0053
3216.00,0.0053
3215.00,0.0053
3214.00,0.0053
3213.00,0.0053
3212.00,0.0053
3211.00,0.0053
3210.00,0.0053
3209.00,0.0053
3208.00,0.0053
3207.00,0.0053
3206.00,0.0054
3205.00,0.0054
3204.00,0.0054
3203.00,0.0054
3202.00,0.0054
3201.00,0.0054
3200.00,0.0054
3199.00,0.0055
3198.00,0.0055
3197.00,0.0055
3196.00,0.0055
3195.00,0.0055
3194.00,0.0055
3193.00,0.0054
3192.00,0.0054
3191.00,0.0054
3190.00,0.0054
3189.00,0.0054
3188.00,0.0054
3187.00,0.0054
3186.00,0.0054
3185.00,0.0054
3184.00,0.0054
3183.00,0.0053
3182.00,0.0053
3181.00,0.0052
3180.00,0.0052
3179.00,0.0052
3178.00,0.0052
3177.00,0.0052
3176.00,0.0052
3175.00,0.0052
3174.00,0.0051
3173.00,0.0051
3172.00,0.0050
3171.00,0.0050
3170.00,0.0050
3169.00,0.0049
3168.00,0.0049
3167.00,0.0049
3166.00,0.0048
3165.00,0.0048
3164.00,0.0048
3163.00,0.0048
3162.00,0.0048
3161.00,0.0048
3160.00,0.0048
3159.00,0.0048
3158.00,0.0048
3157.00,0.0048
3156.00,0.0048
3155.00,0.0048
3154.00,0.0048
3153.00,0.0047
3152.00,0.0047
3151.00,0.0047
3150.00,0.0046
3149.00,0.0046
3148.00,0.0046
3147.00,0.0046
3146.00,0.0046
3145.00,0.0046
3144.00,0.0046
3143.00,0.0046
3142.00,0.0046
3141.00,0.0046
3140.00,0.0046
3139.00,0.0046
3138.00,0.0045
3137.00,0.0045
3136.00,0.0045
3135.00,0.0045
3134.00,0.0044
3133.00,0.0044
3132.00,0.0043
3131.00,0.0043
3130.00,0.0043
3129.00,0.0042
3128.00,0.0042
3127.00,0.0042
3126.00,0.0041
3125.00,0.0041
3124.00,0.0041
3123.00,0.0041
3122.00,0.0041
3121.00,0.0041
3120.00,0.0041
3119.00,0.0040
3118.00,0.0040
3117.00,0.0040
3116.00,0.0039
3115.00,0.0039
3114.00,0.0039
3113.00,0.0039
3112.00,0.0039
3111.00,0.0038
3110.00,0.0038
3109.00,0.0038
3108.00,0.0038
3107.00,0.0037
3106.00,0.0037
3105.00,0.0037
3104.00,0.0037
3103.00,0.0038
3102.00,0.0038
3101.00,0.0038
3100.00,0.0037
3099.00,0.0037
3098.00,0.0037
3097.00,0.0037
3096.00,0.0037
3095.00,0.0036
3094.00,0.0036
3093.00,0.0036
3092.00,0.0036
3091.00,0.0036
3090.00,0.0036
3089.00,0.0036
3088.00,0.0036
3087.00,0.0037
3086.00,0.0036
3085.00,0.0036
3084.00,0.0036
3083.00,0.0036
3082.00,0.0036
3081.00,0.0036
3080.00,0.0036
3079.00,0.0036
3078.00,0.0036
3077.00,0.0036
3076.00,0.0036
3075.00,0.0036
3074.00,0.0036
3073.00,0.0036
3072.00,0.0036
3071.00,0.0037
3070.00,0.0037
3069.00,0.0037
3068.00,0.0037
3067.00,0.0037
3066.00,0.0038
3065.00,0.0038
3064.00,0.0038
3063.00,0.0038
3062.00,0.0038
3061.00,0.0039
3060.00,0.0039
3059.00,0.0039
3058.00,0.0039
3057.00,0.0039
3056.00,0.0039
3055.00,0.0039
3054.00,0.0039
3053.00,0.0039
3052.00,0.0039
3051.00,0.0039
3050.00,0.0039
3049.00,0.0039
3048.00,0.0039
3047.00,0.0040
3046.00,0.0040
3045.00,0.0040
3044.00,0.0040
3043.00,0.0041
3042.00,0.0041
3041.00,0.0041
3040.00,0.0042
3039.00,0.0042
3038.00,0.0042
3037.00,0.0042
3036.00,0.0043
3035.00,0.0043
3034.00,0.0043
3033.00,0.0043
3032.00,0.0044
3031.00,0.0044
3030.00,0.0045
3029.00,0.0045
3028.00,0.0046
3027.00,0.0046
3026.00,0.0046
3025.00,0.0047
3024.00,0.0048
3023.00,0.0048
3022.00,0.0049
3021.00,0.0050
3020.00,0.0051
3019.00,0.0052
3018.00,0.0053
3017.00,0.0054
3016.00,0.0055
3015.00,0.0056
3014.00,0.0057
3013.00,0.0058
3012.00,0.0060
3011.00,0.0061
3010.00,0.0062
3009.00,0.0064
3008.00,0.0065
3007.00,0.0067
3006.00,0.0069
3005.00,0.0071
3004.00,0.0073
3003.00,0.0075
3002.00,0.0077
3001.00,0.0079
3000.00,0.0081
2999.00,0.0084
2998.00,0.0088
2997.00,0.0091
2996.00,0.0095
2995.00,0.0099
2994.00,0.0103
2993.00,0.0107
2992.00,0.0113
2991.00,0.0119
2990.00,0.0125
2989.00,0.0132
2988.00,0.0140
2987.00,0.0148
2986.00,0.0158
2985.00,0.0168
2984.00,0.0180
2983.00,0.0194
2982.00,0.0209
2981.00,0.0226
2980.00,0.0245
2979.00,0.0267
2978.00,0.0292
2977.00,0.0320
2976.00,0.0352
2975.00,0.0390
2974.00,0.0433
2973.00,0.0482
2972.00,0.0537
2971.00,0.0599
2970.00,0.0669
2969.00,0.0747
2968.00,0.0831
2967.00,0.0923
2966.00,0.1021
2965.00,0.1122
2964.00,0.1223
2963.00,0.1318
2962.00,0.1403
2961.00,0.1473
2960.00,0.1526
2959.00,0.1566
2958.00,0.1597
2957.00,0.1625
2956.00,0.1658
2955.00,0.1698
2954.00,0.1747
2953.00,0.1798
2952.00,0.1843
2951.00,0.1870
2950.00,0.1868
2949.00,0.1831
2948.00,0.1759
2947.00,0.1658
2946.00,0.1541
2945.00,0.1419
2944.00,0.1305
2943.00,0.1207
2942.00,0.1132
2941.00,0.1081
2940.00,0.1053
2939.00,0.1046
2938.00,0.1059
2937.00,0.1088
2936.00,0.1132
2935.00,0.1190
2934.00,0.1260
2933.00,0.1343
2932.00,0.1436
2931.00,0.1537
2930.00,0.1644
2929.00,0.1753
2928.00,0.1863
2927.00,0.1969
2926.00,0.2071
2925.00,0.2169
2924.00,0.2264
2923.00,0.2356
2922.00,0.2444
2921.00,0.2526
2920.00,0.2596
2919.00,0.2645
2918.00,0.2665
2917.00,0.2650
2916.00,0.2602
2915.00,0.2526
2914.00,0.2433
2913.00,0.2334
2912.00,0.2239
2911.00,0.2152
2910.00,0.2077
2909.00,0.2010
2908.00,0.1948
2907.00,0.1890
2906.00,0.1831
2905.00,0.1770
2904.00,0.1707
2903.00,0.1642
2902.00,0.1576
2901.00,0.1511
2900.00,0.1448
2899.00,0.1388
2898.00,0.1331
2897.00,0.1279
2896.00,0.1232
2895.00,0.1191
2894.00,0.1155
2893.00,0.1126
2892.00,0.1102
2891.00,0.1084
2890.00,0.1071
2889.00,0.1062
2888.00,0.1056
2887.00,0.1054
2886.00,0.1055
2885.00,0.1059
2884.00,0.1067
2883.00,0.1079
2882.00,0.1095
2881.00,0.1113
2880.00,0.1130
2879.00,0.1144
2878.00,0.1152
2877.00,0.1152
2876.00,0.1147
2875.00,0.1140
2874.00,0.1135
2873.00,0.1135
2872.00,0.1142
2871.00,0.1156
2870.00,0.1174
2869.00,0.1191
2868.00,0.1201
2867.00,0.1197
2866.00,0.1174
2865.00,0.1130
2864.00,0.1070
2863.00,0.1002
2862.00,0.0935
2861.00,0.0877
2860.00,0.0833
2859.00,0.0805
2858.00,0.0790
2857.00,0.0786
2856.00,0.0792
2855.00,0.0805
2854.00,0.0822
2853.00,0.0841
2852.00,0.0860
2851.00,0.0877
2850.00,0.0890
2849.00,0.0899
2848.00,0.0907
2847.00,0.0919
2846.00,0.0940
2845.00,0.0972
2844.00,0.1014
2843.00,0.1064
2842.00,0.1118
2841.00,0.1167
2840.00,0.1206
2839.00,0.1224
2838.00,0.1217
2837.00,0.1179
2836.00,0.1113
2835.00,0.1024
2834.00,0.0921
2833.00,0.0815
2832.00,0.0715
2831.00,0.0626
2830.00,0.0551
2829.00,0.0489
2828.00,0.0439
2827.00,0.0398
2826.00,0.0365
2825.00,0.0338
2824.00,0.0314
2823.00,0.0295
2822.00,0.0278
2821.00,0.0263
2820.00,0.0250
2819.00,0.0239
2818.00,0.0230
2817.00,0.0221
2816.00,0.0214
2815.00,0.0207
2814.00,0.0201
2813.00,0.0194
2812.00,0.0189
2811.00,0.0183
2810.00,0.0178
2809.00,0.0172
2808.00,0.0166
2807.00,0.0160
2806.00,0.0154
2805.00,0.0148
2804.00,0.0142
2803.00,0.0136
2802.00,0.0131
2801.00,0.0127
2800.00,0.0123
2799.00,0.0120
2798.00,0.0118
2797.00,0.0115
2796.00,0.0113
2795.00,0.0110
2794.00,0.0108
2793.00,0.0105
2792.00,0.0102
2791.00,0.0099
2790.00,0.0095
2789.00,0.0091
2788.00,0.0088
2787.00,0.0085
2786.00,0.0082
2785.00,0.0079
2784.00,0.0077
2783.00,0.0075
2782.00,0.0073
2781.00,0.0071
2780.00,0.0069
2779.00,0.0067
2778.00,0.0066
2777.00,0.0064
2776.00,0.0063
2775.00,0.0062
2774.00,0.0061
2773.00,0.0060
2772.00,0.0060
2771.00,0.0059
2770.00,0.0059
2769.00,0.0059
2768.00,0.0058
2767.00,0.0058
2766.00,0.0058
2765.00,0.0058
2764.00,0.0057
2763.00,0.0057
2762.00,0.0056
2761.00,0.0056
2760.00,0.0055
2759.00,0.0055
2758.00,0.0055
2757.00,0.0055
2756.00,0.0055
2755.00,0.0055
2754.00,0.0055
2753.00,0.0054
2752.00,0.0054
2751.00,0.0053
2750.00,0.0053
2749.00,0.0053
2748.00,0.0053
2747.00,0.0054
2746.00,0.0054
2745.00,0.0055
2744.00,0.0055
2743.00,0.0056
2742.00,0.0057
2741.00,0.0058
2740.00,0.0059
2739.00,0.0060
2738.00,0.0061
2737.00,0.0063
2736.00,0.0064
2735.00,0.0065
2734.00,0.0067
2733.00,0.0068
2732.00,0.0069
2731.00,0.0071
2730.00,0.0073
2729.00,0.0075
2728.00,0.0078
2727.00,0.0081
2726.00,0.0083
2725.00,0.0085
2724.00,0.0086
2723.00,0.0087
2722.00,0.0086
2721.00,0.0084
2720.00,0.0082
2719.00,0.0079
2718.00,0.0076
2717.00,0.0074
2716.00,0.0071
2715.00,0.0068
2714.00,0.0066
2713.00,0.0064
2712.00,0.0062
2711.00,0.0061
2710.00,0.0059
2709.00,0.0058
2708.00,0.0057
2707.00,0.0055
2706.00,0.0054
2705.00,0.0053
2704.00,0.0052
2703.00,0.0051
2702.00,0.0050
2701.00,0.0049
2700.00,0.0048
2699.00,0.0048
2698.00,0.0047
2697.00,0.0047
2696.00,0.0047
2695.00,0.0047
2694.00,0.0047
2693.00,0.0047
2692.00,0.0047
2691.00,0.0047
2690.00,0.0047
2689.00,0.0047
2688.00,0.0047
2687.00,0.0047
2686.00,0.0047
2685.00,0.0046
2684.00,0.0046
2683.00,0.0047
2682.00,0.0047
2681.00,0.0047
2680.00,0.0047
2679.00,0.0047
2678.00,0.0047
2677.00,0.0046
2676.00,0.0046
2675.00,0.0046
2674.00,0.0046
2673.00,0.0046
2672.00,0.0046
2671.00,0.0046
2670.00,0.0046
2669.00,0.0046
2668.00,0.0046
2667.00,0.0047
2666.00,0.0047
2665.00,0.0047
2664.00,0.0048
2663.00,0.0048
2662.00,0.0048
2661.00,0.0049
2660.00,0.0049
2659.00,0.0049
2658.00,0.0048
2657.00,0.0048
2656.00,0.0047
2655.00,0.0047
2654.00,0.0046
2653.00,0.0046
2652.00,0.0046
2651.00,0.0046
2650.00,0.0045
2649.00,0.0045
2648.00,0.0045
2647.00,0.0044
2646.00,0.0044
2645.00,0.0044
2644.00,0.0043
2643.00,0.0043
2642.00,0.0042
2641.00,0.0041
2640.00,0.0041
2639.00,0.0040
2638.00,0.0040
2637.00,0.0040
2636.00,0.0039
2635.00,0.0039
2634.00,0.0039
2633.00,0.0039
2632.00,0.0039
2631.00,0.0039
2630.00,0.0040
2629.00,0.0040
2628.00,0.0040
2627.00,0.0040
2626.00,0.0040
2625.00,0.0040
2624.00,0.0040
2623.00,0.0040
2622.00,0.0041
2621.00,0.0041
2620.00,0.0041
2619.00,0.0041
2618.00,0.0041
2617.00,0.0041
2616.00,0.0041
2615.00,0.0041
2614.00,0.0041
2613.00,0.0041
2612.00,0.0040
2611.00,0.0039
2610.00,0.0038
2609.00,0.0037
2608.00,0.0037
2607.00,0.0036
2606.00,0.0036
2605.00,0.0035
2604.00,0.0035
2603.00,0.0034
2602.00,0.0033
2601.00,0.0033
2600.00,0.0033
2599.00,0.0032
2598.00,0.0032
2597.00,0.0032
2596.00,0.0032
2595.00,0.0032
2594.00,0.0033
2593.00,0.0033
2592.00,0.0034
2591.00,0.0034
2590.00,0.0035
2589.00,0.0035
2588.00,0.0036
2587.00,0.0036
2586.00,0.0037
2585.00,0.0037
2584.00,0.0038
2583.00,0.0038
2582.00,0.0038
2581.00,0.0038
2580.00,0.0037
2579.00,0.0037
2578.00,0.0036
2577.00,0.0035
2576.00,0.0034
2575.00,0.0032
2574.00,0.0031
2573.00,0.0030
2572.00,0.0029
2571.00,0.0029
2570.00,0.0028
2569.00,0.0028
2568.00,0.0028
2567.00,0.0027
2566.00,0.0026
2565.00,0.0025
2564.00,0.0024
2563.00,0.0024
2562.00,0.0024
2561.00,0.0024
2560.00,0.0024
2559.00,0.0024
2558.00,0.0023
2557.00,0.0023
2556.00,0.0022
2555.00,0.0022
2554.00,0.0022
2553.00,0.0022
2552.00,0.0022
2551.00,0.0021
2550.00,0.0021
2549.00,0.0021
2548.00,0.0021
2547.00,0.0020
2546.00,0.0019
2545.00,0.0019
2544.00,0.0019
2543.00,0.0019
2542.00,0.0019
2541.00,0.0018
2540.00,0.0018
2539.00,0.0017
2538.00,0.0017
2537.00,0.0017
2536.00,0.0017
2535.00,0.0017
2534.00,0.0017
2533.00,0.0017
2532.00,0.0017
2531.00,0.0017
2530.00,0.0017
2529.00,0.0017
2528.00,0.0017
2527.00,0.0017
2526.00,0.0016
2525.00,0.0016
2524.00,0.0016
2523.00,0.0016
2522.00,0.0015
2521.00,0.0015
2520.00,0.0014
2519.00,0.0014
2518.00,0.0013
2517.00,0.0013
2516.00,0.0012
2515.00,0.0012
2514.00,0.0012
2513.00,0.0011
2512.00,0.0011
2511.00,0.0011
2510.00,0.0011
2509.00,0.0011
2508.00,0.0011
2507.00,0.0011
2506.00,0.0011
2505.00,0.0011
2504.00,0.0010
2503.00,0.0010
2502.00,0.0010
2501.00,0.0010
2500.00,0.0010
2499.00,0.0010
2498.00,0.0011
2497.00,0.0011
2496.00,0.0011
2495.00,0.0012
2494.00,0.0012
2493.00,0.0012
2492.00,0.0012
2491.00,0.0011
2490.00,0.0011
2489.00,0.0011
2488.00,0.0011
2487.00,0.0011
2486.00,0.0011
2485.00,0.0010
2484.00,0.0010
2483.00,0.0009
2482.00,0.0009
2481.00,0.0010
2480.00,0.0010
2479.00,0.0010
2478.00,0.0010
2477.00,0.0010
2476.00,0.0010
2475.00,0.0010
2474.00,0.0010
2473.00,0.0010
2472.00,0.0010
2471.00,0.0009
2470.00,0.0009
2469.00,0.0008
2468.00,0.0008
2467.00,0.0008
2466.00,0.0009
2465.00,0.0009
2464.00,0.0010
2463.00,0.0011
2462.00,0.0011
2461.00,0.0011
2460.00,0.0012
2459.00,0.0012
2458.00,0.0013
2457.00,0.0013
2456.00,0.0013
2455.00,0.0013
2454.00,0.0013
2453.00,0.0013
2452.00,0.0012
2451.00,0.0011
2450.00,0.0011
2449.00,0.0011
2448.00,0.0011
2447.00,0.0012
2446.00,0.0012
2445.00,0.0012
2444.00,0.0012
2443.00,0.0012
2442.00,0.0011
2441.00,0.0011
2440.00,0.0011
2439.00,0.0011
2438.00,0.0011
2437.00,0.0012
2436.00,0.0012
2435.00,0.0012
2434.00,0.0013
2433.00,0.0013
2432.00,0.0013
2431.00,0.0013
2430.00,0.0013
2429.00,0.0012
2428.00,0.0012
2427.00,0.0011
2426.00,0.0011
2425.00,0.0011
2424.00,0.0011
2423.00,0.0011
2422.00,0.0011
2421.00,0.0010
2420.00,0.0010
2419.00,0.0010
2418.00,0.0010
2417.00,0.0010
2416.00,0.0010
2415.00,0.0010
2414.00,0.0010
2413.00,0.0010
2412.00,0.0010
2411.00,0.0010
2410.00,0.0010
2409.00,0.0010
2408.00,0.0010
2407.00,0.0010
2406.00,0.0010
2405.00,0.0010
2404.00,0.0011
2403.00,0.0011
2402.00,0.0011
2401.00,0.0010
2400.00,0.0010
2399.00,0.0009
2398.00,0.0009
2397.00,0.0008
2396.00,0.0008
2395.00,0.0008
2394.00,0.0008
2393.00,0.0008
2392.00,0.0008
2391.00,0.0008
2390.00,0.0008
2389.00,0.0008
2388.00,0.0008
2387.00,0.0008
2386.00,0.0008
2385.00,0.0008
2384.00,0.0008
2383.00,0.0007
2382.00,0.0006
2381.00,0.0005
2380.00,0.0004
2379.00,0.0004
2378.00,0.0003
2377.00,0.0004
2376.00,0.0004
2375.00,0.0004
2374.00,0.0004
2373.00,0.0004
2372.00,0.0004
2371.00,0.0004
2370.00,0.0004
2369.00,0.0004
2368.00,0.0003
2367.00,0.0003
2366.00,0.0002
2365.00,0.0001
2364.00,0.0001
2363.00,0.0002
2362.00,0.0003
2361.00,0.0003
2360.00,0.0003
2359.00,0.0003
2358.00,0.0003
2357.00,0.0002
2356.00,0.0002
2355.00,0.0002
2354.00,0.0001
2353.00,0.0000
2352.00,-0.0001
2351.00,-0.0001
2350.00,0.0000
2349.00,0.0003
2348.00,0.0005
2347.00,0.0006
2346.00,0.0006
2345.00,0.0005
2344.00,0.0004
2343.00,0.0004
2342.00,0.0004
2341.00,0.0005
2340.00,0.0005
2339.00,0.0006
2338.00,0.0006
2337.00,0.0006
2336.00,0.0006
2335.00,0.0006
2334.00,0.0006
2333.00,0.0005
2332.00,0.0005
2331.00,0.0004
2330.00,0.0004
2329.00,0.0005
2328.00,0.0007
2327.00,0.0010
2326.00,0.0014
2325.00,0.0017
2324.00,0.0019
2323.00,0.0018
2322.00,0.0015
2321.00,0.0012
2320.00,0.0011
2319.00,0.0011
2318.00,0.0010
2317.00,0.0010
2316.00,0.0010
2315.00,0.0009
2314.00,0.0008
2313.00,0.0007
2312.00,0.0006
2311.00,0.0006
2310.00,0.0006
2309.00,0.0006
2308.00,0.0006
2307.00,0.0006
2306.00,0.0006
2305.00,0.0007
2304.00,0.0008
2303.00,0.0009
2302.00,0.0009
2301.00,0.0009
2300.00,0.0009
2299.00,0.0009
2298.00,0.0010
2297.00,0.0011
2296.00,0.0011
2295.00,0.0012
2294.00,0.0012
2293.00,0.0012
2292.00,0.0013
2291.00,0.0015
2290.00,0.0016
2289.00,0.0017
2288.00,0.0017
2287.00,0.0017
2286.00,0.0018
2285.00,0.0019
2284.00,0.0019
2283.00,0.0019
2282.00,0.0019
2281.00,0.0018
2280.00,0.0017
2279.00,0.0017
2278.00,0.0016
2277.00,0.0015
2276.00,0.0014
2275.00,0.0013
2274.00,0.0013
2273.00,0.0014
2272.00,0.0015
2271.00,0.0016
2270.00,0.0016
2269.00,0.0015
2268.00,0.0013
2267.00,0.0011
2266.00,0.0010
2265.00,0.0009
2264.00,0.0009
2263.00,0.0009
2262.00,0.0010
2261.00,0.0012
2260.00,0.0013
2259.00,0.0014
2258.00,0.0014
2257.00,0.0014
2256.00,0.0014
2255.00,0.0013
2254.00,0.0011
2253.00,0.0008
2252.00,0.0007
2251.00,0.0006
2250.00,0.0006
2249.00,0.0007
2248.00,0.0007
2247.00,0.0007
2246.00,0.0007
2245.00,0.0008
2244.00,0.0009
2243.00,0.0010
2242.00,0.0010
2241.00,0.0009
2240.00,0.0008
2239.00,0.0008
2238.00,0.0008
2237.00,0.0009
2236.00,0.0009
2235.00,0.0009
2234.00,0.0009
2233.00,0.0009
2232.00,0.0009
2231.00,0.0009
2230.00,0.0009
2229.00,0.0008
2228.00,0.0007
2227.00,0.0006
2226.00,0.0005
2225.00,0.0005
2224.00,0.0007
2223.00,0.0008
2222.00,0.0008
2221.00,0.0008
2220.00,0.0007
2219.00,0.0006
2218.00,0.0007
2217.00,0.0008
2216.00,0.0010
2215.00,0.0011
2214.00,0.0011
2213.00,0.0010
2212.00,0.0008
2211.00,0.0006
2210.00,0.0004
2209.00,0.0004
2208.00,0.0004
2207.00,0.0005
2206.00,0.0007
2205.00,0.0009
2204.00,0.0010
2203.00,0.0010
2202.00,0.0011
2201.00,0.0011
2200.00,0.0012
2199.00,0.0012
2198.00,0.0011
2197.00,0.0010
2196.00,0.0010
2195.00,0.0011
2194.00,0.0011
2193.00,0.0011
2192.00,0.0011
2191.00,0.0010
2190.00,0.0012
2189.00,0.0014
2188.00,0.0016
2187.00,0.0016
2186.00,0.0014
2185.00,0.0011
2184.00,0.0009
2183.00,0.0006
2182.00,0.0005
2181.00,0.0006
2180.00,0.0008
2179.00,0.0009
2178.00,0.0008
2177.00,0.0006
2176.00,0.0005
2175.00,0.0005
2174.00,0.0005
2173.00,0.0006
2172.00,0.0006
2171.00,0.0007
2170.00,0.0009
2169.00,0.0014
2168.00,0.0017
2167.00,0.0018
2166.00,0.0016
2165.00,0.0015
2164.00,0.0016
2163.00,0.0018
2162.00,0.0018
2161.00,0.0012
2160.00,0.0000
2159.00,-0.0014
2158.00,-0.0024
2157.00,-0.0028
2156.00,-0.0026
2155.00,-0.0023
2154.00,-0.0019
2153.00,-0.0017
2152.00,-0.0015
2151.00,-0.0014
2150.00,-0.0015
2149.00,-0.0016
2148.00,-0.0017
2147.00,-0.0018
2146.00,-0.0017
2145.00,-0.0015
2144.00,-0.0012
2143.00,-0.0011
2142.00,-0.0011
2141.00,-0.0011
2140.00,-0.0011
2139.00,-0.0011
2138.00,-0.0010
2137.00,-0.0009
2136.00,-0.0010
2135.00,-0.0012
2134.00,-0.0015
2133.00,-0.0017
2132.00,-0.0016
2131.00,-0.0014
2130.00,-0.0011
2129.00,-0.0008
2128.00,-0.0007
2127.00,-0.0006
2126.00,-0.0006
2125.00,-0.0005
2124.00,-0.0005
2123.00,-0.0004
2122.00,-0.0004
2121.00,-0.0003
2120.00,-0.0003
2119.00,-0.0003
2118.00,-0.0002
2117.00,-0.0001
2116.00,0.0001
2115.00,0.0003
2114.00,0.0005
2113.00,0.0006
2112.00,0.0007
2111.00,0.0006
2110.00,0.0004
2109.00,0.0002
2108.00,0.0000
2107.00,-0.0000
2106.00,-0.0000
2105.00,0.0001
2104.00,0.0002
2103.00,0.0002
2102.00,0.0002
2101.00,0.0002
2100.00,0.0001
2099.00,0.0000
2098.00,0.0000
2097.00,0.0001
2096.00,0.0001
2095.00,-0.0000
2094.00,-0.0001
2093.00,-0.0002
2092.00,-0.0001
2091.00,-0.0001
2090.00,0.0000
2089.00,0.0001
2088.00,0.0001
2087.00,0.0001
2086.00,0.0000
2085.00,0.0000
2084.00,0.0001
2083.00,0.0002
2082.00,0.0003
2081.00,0.0005
2080.00,0.0006
2079.00,0.0006
2078.00,0.0005
2077.00,0.0004
2076.00,0.0002
2075.00,0.0001
2074.00,0.0000
2073.00,0.0001
2072.00,0.0002
2071.00,0.0004
2070.00,0.0004
2069.00,0.0005
2068.00,0.0004
2067.00,0.0003
2066.00,0.0002
2065.00,0.0001
2064.00,0.0001
2063.00,0.0001
2062.00,0.0000
2061.00,0.0001
2060.00,0.0001
2059.00,0.0002
2058.00,0.0003
2057.00,0.0004
2056.00,0.0004
2055.00,0.0003
2054.00,0.0002
2053.00,0.0004
2052.00,0.0007
2051.00,0.0009
2050.00,0.0009
2049.00,0.0007
2048.00,0.0005
2047.00,0.0003
2046.00,0.0001
2045.00,0.0002
2044.00,0.0005
2043.00,0.0009
2042.00,0.0012
2041.00,0.0013
2040.00,0.0012
2039.00,0.0011
2038.00,0.0011
2037.00,0.0010
2036.00,0.0009
2035.00,0.0006
2034.00,0.0004
2033.00,0.0002
2032.00,-0.0000
2031.00,-0.0003
2030.00,-0.0005
2029.00,-0.0006
2028.00,-0.0007
2027.00,-0.0007
2026.00,-0.0007
2025.00,-0.0006
2024.00,-0.0004
2023.00,-0.0004
2022.00,-0.0004
2021.00,-0.0004
2020.00,-0.0006
2019.00,-0.0008
2018.00,-0.0009
2017.00,-0.0008
2016.00,-0.0006
2015.00,-0.0003
2014.00,-0.0002
2013.00,-0.0003
2012.00,-0.0005
2011.00,-0.0006
2010.00,-0.0007
2009.00,-0.0008
2008.00,-0.0009
2007.00,-0.0012
2006.00,-0.0014
2005.00,-0.0015
2004.00,-0.0015
2003.00,-0.0015
2002.00,-0.0014
2001.00,-0.0013
2000.00,-0.0012
1999.00,-0.0011
1998.00,-0.0012
1997.00,-0.0011
1996.00,-0.0010
1995.00,-0.0009
1994.00,-0.0007
1993.00,-0.0004
1992.00,-0.0002
1991.00,-0.0001
1990.00,-0.0001
1989.00,-0.0001
1988.00,0.0000
1987.00,0.0001
1986.00,0.0000
1985.00,0.0000
1984.00,0.0001
1983.00,0.0004
1982.00,0.0006
1981.00,0.0007
1980.00,0.0006
1979.00,-0.0000
1978.00,-0.0008
1977.00,-0.0014
1976.00,-0.0016
1975.00,-0.0014
1974.00,-0.0010
1973.00,-0.0007
1972.00,-0.0006
1971.00,-0.0008
1970.00,-0.0009
1969.00,-0.0010
1968.00,-0.0009
1967.00,-0.0009
1966.00,-0.0008
1965.00,-0.0007
1964.00,-0.0005
1963.00,-0.0005
1962.00,-0.0007
1961.00,-0.0009
1960.00,-0.0010
1959.00,-0.0010
1958.00,-0.0011
1957.00,-0.0012
1956.00,-0.0013
1955.00,-0.0014
1954.00,-0.0014
1953.00,-0.0014
1952.00,-0.0014
1951.00,-0.0014
1950.00,-0.0013
1949.00,-0.0013
1948.00,-0.0012
1947.00,-0.0012
1946.00,-0.0013
1945.00,-0.0014
1944.00,-0.0014
1943.00,-0.0014
1942.00,-0.0014
1941.00,-0.0014
1940.00,-0.0013
1939.00,-0.0012
1938.00,-0.0012
1937.00,-0.0011
1936.00,-0.0010
1935.00,-0.0009
1934.00,-0.0009
1933.00,-0.0007
1932.00,-0.0006
1931.00,-0.0005
1930.00,-0.0005
1929.00,-0.0005
1928.00,-0.0005
1927.00,-0.0004
1926.00,-0.0003
1925.00,-0.0003
1924.00,-0.0003
1923.00,-0.0003
1922.00,-0.0003
1921.00,-0.0002
1920.00,-0.0003
1919.00,-0.0003
1918.00,-0.0003
1917.00,-0.0002
1916.00,-0.0002
1915.00,-0.0002
1914.00,-0.0002
1913.00,-0.0002
1912.00,-0.0002
1911.00,-0.0002
1910.00,-0.0003
1909.00,-0.0004
1908.00,-0.0005
1907.00,-0.0005
1906.00,-0.0004
1905.00,-0.0002
1904.00,-0.0000
1903.00,0.0001
1902.00,0.0001
1901.00,0.0000
1900.00,-0.0000
1899.00,-0.0001
1898.00,-0.0001
1897.00,-0.0000
1896.00,0.0001
1895.00,0.0003
1894.00,0.0003
1893.00,0.0003
1892.00,0.0003
1891.00,0.0003
1890.00,0.0002
1889.00,0.0002
1888.00,0.0001
1887.00,0.0000
1886.00,0.0000
1885.00,0.0000
1884.00,-0.0000
1883.00,-0.0001
1882.00,-0.0001
1881.00,-0.0001
1880.00,-0.0001
1879.00,-0.0001
1878.00,-0.0001
1877.00,-0.0001
1876.00,-0.0000
1875.00,-0.0000
1874.00,0.0000
1873.00,0.0000
1872.00,0.0000
1871.00,0.0001
1870.00,0.0001
1869.00,0.0001
1868.00,0.0001
1867.00,0.0001
1866.00,-0.0000
1865.00,-0.0000
1864.00,-0.0000
1863.00,0.0001
1862.00,0.0001
1861.00,0.0002
1860.00,0.0003
1859.00,0.0003
1858.00,0.0003
1857.00,0.0002
1856.00,0.0002
1855.00,0.0002
1854.00,0.0001
1853.00,0.0002
1852.00,0.0002
1851.00,0.0002
1850.00,0.0002
1849.00,0.0003
1848.00,0.0003
1847.00,0.0004
1846.00,0.0004
1845.00,0.0003
1844.00,0.0003
1843.00,0.0003
1842.00,0.0004
1841.00,0.0004
1840.00,0.0004
1839.00,0.0004
1838.00,0.0005
1837.00,0.0005
1836.00,0.0005
1835.00,0.0005
1834.00,0.0005
1833.00,0.0005
1832.00,0.0005
1831.00,0.0005
1830.00,0.0004
1829.00,0.0003
1828.00,0.0003
1827.00,0.0003
1826.00,0.0003
1825.00,0.0004
1824.00,0.0004
1823.00,0.0004
1822.00,0.0004
1821.00,0.0005
1820.00,0.0005
1819.00,0.0004
1818.00,0.0003
1817.00,0.0001
1816.00,0.0001
1815.00,0.0002
1814.00,0.0003
1813.00,0.0004
1812.00,0.0005
1811.00,0.0005
1810.00,0.0005
1809.00,0.0005
1808.00,0.0006
1807.00,0.0006
1806.00,0.0007
1805.00,0.0007
1804.00,0.0007
1803.00,0.0007
1802.00,0.0006
1801.00,0.0006
1800.00,0.0007
1799.00,0.0007
1798.00,0.0007
1797.00,0.0007
1796.00,0.0007
1795.00,0.0007
1794.00,0.0007
1793.00,0.0006
1792.00,0.0006
1791.00,0.0006
1790.00,0.0007
1789.00,0.0008
1788.00,0.0008
1787.00,0.0008
1786.00,0.0008
1785.00,0.0008
1784.00,0.0008
1783.00,0.0009
1782.00,0.0009
1781.00,0.0009
1780.00,0.0009
1779.00,0.0009
1778.00,0.0008
1777.00,0.0008
1776.00,0.0008
1775.00,0.0008
1774.00,0.0008
1773.00,0.0008
1772.00,0.0009
1771.00,0.0009
1770.00,0.0009
1769.00,0.0009
1768.00,0.0009
1767.00,0.0010
1766.00,0.0011
1765.00,0.0012
1764.00,0.0012
1763.00,0.0012
1762.00,0.0012
1761.00,0.0012
1760.00,0.0013
1759.00,0.0013
1758.00,0.0013
1757.00,0.0013
1756.00,0.0013
1755.00,0.0013
1754.00,0.0013
1753.00,0.0013
1752.00,0.0014
1751.00,0.0014
1750.00,0.0014
1749.00,0.0015
1748.00,0.0015
1747.00,0.0016
1746.00,0.0016
1745.00,0.0017
1744.00,0.0017
1743.00,0.0017
1742.00,0.0017
1741.00,0.0017
1740.00,0.0017
1739.00,0.0017
1738.00,0.0018
1737.00,0.0018
1736.00,0.0018
1735.00,0.0019
1734.00,0.0020
1733.00,0.0021
1732.00,0.0021
1731.00,0.0021
1730.00,0.0021
1729.00,0.0022
1728.00,0.0022
1727.00,0.0022
1726.00,0.0022
1725.00,0.0023
1724.00,0.0023
1723.00,0.0023
1722.00,0.0024
1721.00,0.0024
1720.00,0.0024
1719.00,0.0024
1718.00,0.0024
1717.00,0.0023
1716.00,0.0024
1715.00,0.0024
1714.00,0.0024
1713.00,0.0025
1712.00,0.0025
1711.00,0.0025
1710.00,0.0025
1709.00,0.0025
1708.00,0.0026
1707.00,0.0026
1706.00,0.0027
1705.00,0.0027
1704.00,0.0028
1703.00,0.0028
1702.00,0.0029
1701.00,0.0030
1700.00,0.0031
1699.00,0.0030
1698.00,0.0029
1697.00,0.0030
1696.00,0.0031
1695.00,0.0033
1694.00,0.0034
1693.00,0.0035
1692.00,0.0035
1691.00,0.0036
1690.00,0.0037
1689.00,0.0038
1688.00,0.0038
1687.00,0.0038
1686.00,0.0039
1685.00,0.0040
1684.00,0.0042
1683.00,0.0044
1682.00,0.0045
1681.00,0.0046
1680.00,0.0047
1679.00,0.0047
1678.00,0.0048
1677.00,0.0050
1676.00,0.0051
1675.00,0.0053
1674.00,0.0054
1673.00,0.0054
1672.00,0.0054
1671.00,0.0054
1670.00,0.0055
1669.00,0.0056
1668.00,0.0058
1667.00,0.0058
1666.00,0.0059
1665.00,0.0059
1664.00,0.0059
1663.00,0.0060
1662.00,0.0060
1661.00,0.0061
1660.00,0.0062
1659.00,0.0062
1658.00,0.0063
1657.00,0.0063
1656.00,0.0064
1655.00,0.0065
1654.00,0.0066
1653.00,0.0068
1652.00,0.0070
1651.00,0.0071
1650.00,0.0071
1649.00,0.0071
1648.00,0.0073
1647.00,0.0075
1646.00,0.0076
1645.00,0.0077
1644.00,0.0077
1643.00,0.0077
1642.00,0.0078
1641.00,0.0078
1640.00,0.0079
1639.00,0.0080
1638.00,0.0080
1637.00,0.0079
1636.00,0.0078
1635.00,0.0078
1634.00,0.0078
1633.00,0.0078
1632.00,0.0077
1631.00,0.0077
1630.00,0.0076
1629.00,0.0076
1628.00,0.0076
1627.00,0.0075
1626.00,0.0075
1625.00,0.0075
1624.00,0.0075
1623.00,0.0074
1622.00,0.0074
1621.00,0.0073
1620.00,0.0073
1619.00,0.0073
1618.00,0.0072
1617.00,0.0072
1616.00,0.0073
1615.00,0.0073
1614.00,0.0073
1613.00,0.0073
1612.00,0.0073
1611.00,0.0073
1610.00,0.0073
1609.00,0.0073
1608.00,0.0073
1607.00,0.0073
1606.00,0.0073
1605.00,0.0073
1604.00,0.0073
1603.00,0.0073
1602.00,0.0072
1601.00,0.0072
1600.00,0.0072
1599.00,0.0072
1598.00,0.0072
1597.00,0.0072
1596.00,0.0072
1595.00,0.0071
1594.00,0.0071
1593.00,0.0071
1592.00,0.0071
1591.00,0.0071
1590.00,0.0071
1589.00,0.0071
1588.00,0.0071
1587.00,0.0070
1586.00,0.0070
1585.00,0.0069
1584.00,0.0069
1583.00,0.0069
1582.00,0.0070
1581.00,0.0070
1580.00,0.0071
1579.00,0.0071
1578.00,0.0071
1577.00,0.0070
1576.00,0.0070
1575.00,0.0070
1574.00,0.0069
1573.00,0.0069
1572.00,0.0069
1571.00,0.0069
1570.00,0.0069
1569.00,0.0069
1568.00,0.0069
1567.00,0.0069
1566.00,0.0069
1565.00,0.0069
1564.00,0.0069
1563.00,0.0068
1562.00,0.0068
1561.00,0.0069
1560.00,0.0070
1559.00,0.0070
1558.00,0.0070
1557.00,0.0070
1556.00,0.0070
1555.00,0.0070
1554.00,0.0071
1553.00,0.0072
1552.00,0.0073
1551.00,0.0073
1550.00,0.0073
1549.00,0.0073
1548.00,0.0073
1547.00,0.0073
1546.00,0.0073
1545.00,0.0073
1544.00,0.0073
1543.00,0.0073
1542.00,0.0073
1541.00,0.0072
1540.00,0.0071
1539.00,0.0069
1538.00,0.0068
1537.00,0.0067
1536.00,0.0066
1535.00,0.0065
1534.00,0.0063
1533.00,0.0062
1532.00,0.0061
1531.00,0.0060
1530.00,0.0059
1529.00,0.0059
1528.00,0.0059
1527.00,0.0059
1526.00,0.0059
1525.00,0.0059
1524.00,0.0059
1523.00,0.0059
1522.00,0.0059
1521.00,0.0059
1520.00,0.0059
1519.00,0.0059
1518.00,0.0059
1517.00,0.0060
1516.00,0.0060
1515.00,0.0060
1514.00,0.0060
1513.00,0.0061
1512.00,0.0062
1511.00,0.0062
1510.00,0.0062
1509.00,0.0063
1508.00,0.0064
1507.00,0.0064
1506.00,0.0064
1505.00,0.0066
1504.00,0.0068
1503.00,0.0069
1502.00,0.0071
1501.00,0.0074
1500.00,0.0077
1499.00,0.0079
1498.00,0.0081
1497.00,0.0084
1496.00,0.0088
1495.00,0.0091
1494.00,0.0094
1493.00,0.0098
1492.00,0.0101
1491.00,0.0105
1490.00,0.0109
1489.00,0.0114
1488.00,0.0120
1487.00,0.0124
1486.00,0.0129
1485.00,0.0135
1484.00,0.0141
1483.00,0.0148
1482.00,0.0156
1481.00,0.0166
1480.00,0.0178
1479.00,0.0190
1478.00,0.0204
1477.00,0.0225
1476.00,0.0250
1475.00,0.0280
1474.00,0.0321
1473.00,0.0378
1472.00,0.0445
1471.00,0.0509
1470.00,0.0570
1469.00,0.0634
1468.00,0.0703
1467.00,0.0777
1466.00,0.0862
1465.00,0.0952
1464.00,0.1031
1463.00,0.1086
1462.00,0.1122
1461.00,0.1146
1460.00,0.1162
1459.00,0.1173
1458.00,0.1181
1457.00,0.1188
1456.00,0.1189
1455.00,0.1184
1454.00,0.1175
1453.00,0.1160
1452.00,0.1136
1451.00,0.1101
1450.00,0.1052
1449.00,0.0982
1448.00,0.0894
1447.00,0.0800
1446.00,0.0715
1445.00,0.0641
1444.00,0.0578
1443.00,0.0525
1442.00,0.0486
1441.00,0.0458
1440.00,0.0440
1439.00,0.0430
1438.00,0.0428
1437.00,0.0426
1436.00,0.0416
1435.00,0.0393
1434.00,0.0359
1433.00,0.0318
1432.00,0.0276
1431.00,0.0238
1430.00,0.0209
1429.00,0.0187
1428.00,0.0172
1427.00,0.0162
1426.00,0.0156
1425.00,0.0150
1424.00,0.0144
1423.00,0.0141
1422.00,0.0139
1421.00,0.0137
1420.00,0.0134
1419.00,0.0132
1418.00,0.0130
1417.00,0.0127
1416.00,0.0125
1415.00,0.0124
1414.00,0.0123
1413.00,0.0122
1412.00,0.0120
1411.00,0.0119
1410.00,0.0119
1409.00,0.0119
1408.00,0.0118
1407.00,0.0118
1406.00,0.0119
1405.00,0.0118
1404.00,0.0118
1403.00,0.0119
1402.00,0.0120
1401.00,0.0121
1400.00,0.0122
1399.00,0.0124
1398.00,0.0126
1397.00,0.0127
1396.00,0.0129
1395.00,0.0133
1394.00,0.0138
1393.00,0.0142
1392.00,0.0147
1391.00,0.0155
1390.00,0.0165
1389.00,0.0179
1388.00,0.0200
1387.00,0.0231
1386.00,0.0273
1385.00,0.0328
1384.00,0.0404
1383.00,0.0510
1382.00,0.0653
1381.00,0.0837
1380.00,0.1061
1379.00,0.1313
1378.00,0.1552
1377.00,0.1723
1376.00,0.1774
1375.00,0.1678
1374.00,0.1465
1373.00,0.1211
1372.00,0.0981
1371.00,0.0792
1370.00,0.0642
1369.00,0.0528
1368.00,0.0449
1367.00,0.0400
1366.00,0.0372
1365.00,0.0361
1364.00,0.0362
1363.00,0.0374
1362.00,0.0392
1361.00,0.0413
1360.00,0.0428
1359.00,0.0433
1358.00,0.0424
1357.00,0.0401
1356.00,0.0368
1355.00,0.0331
1354.00,0.0295
1353.00,0.0264
1352.00,0.0239
1351.00,0.0219
1350.00,0.0202
1349.00,0.0189
1348.00,0.0178
1347.00,0.0169
1346.00,0.0161
1345.00,0.0154
1344.00,0.0149
1343.00,0.0143
1342.00,0.0138
1341.00,0.0134
1340.00,0.0130
1339.00,0.0128
1338.00,0.0126
1337.00,0.0126
1336.00,0.0126
1335.00,0.0128
1334.00,0.0130
1333.00,0.0134
1332.00,0.0138
1331.00,0.0141
1330.00,0.0142
1329.00,0.0141
1328.00,0.0138
1327.00,0.0133
1326.00,0.0128
1325.00,0.0122
1324.00,0.0117
1323.00,0.0112
1322.00,0.0108
1321.00,0.0105
1320.00,0.0103
1319.00,0.0102
1318.00,0.0100
1317.00,0.0099
1316.00,0.0098
1315.00,0.0097
1314.00,0.0097
1313.00,0.0097
1312.00,0.0099
1311.00,0.0101
1310.00,0.0105
1309.00,0.0112
1308.00,0.0122
1307.00,0.0134
1306.00,0.0146
1305.00,0.0154
1304.00,0.0157
1303.00,0.0153
1302.00,0.0147
1301.00,0.0141
1300.00,0.0136
1299.00,0.0135
1298.00,0.0134
1297.00,0.0133
1296.00,0.0132
1295.00,0.0130
1294.00,0.0126
1293.00,0.0122
1292.00,0.0117
1291.00,0.0112
1290.00,0.0108
1289.00,0.0104
1288.00,0.0101
1287.00,0.0099
1286.00,0.0097
1285.00,0.0095
1284.00,0.0094
1283.00,0.0092
1282.00,0.0091
1281.00,0.0090
1280.00,0.0089
1279.00,0.0088
1278.00,0.0088
1277.00,0.0087
1276.00,0.0086
1275.00,0.0086
1274.00,0.0087
1273.00,0.0088
1272.00,0.0089
1271.00,0.0091
1270.00,0.0092
1269.00,0.0094
1268.00,0.0097
1267.00,0.0101
1266.00,0.0105
1265.00,0.0110
1264.00,0.0114
1263.00,0.0118
1262.00,0.0121
1261.00,0.0125
1260.00,0.0130
1259.00,0.0136
1258.00,0.0142
1257.00,0.0147
1256.00,0.0149
1255.00,0.0146
1254.00,0.0139
1253.00,0.0129
1252.00,0.0119
1251.00,0.0111
1250.00,0.0104
1249.00,0.0100
1248.00,0.0096
1247.00,0.0094
1246.00,0.0092
1245.00,0.0090
1244.00,0.0089
1243.00,0.0087
1242.00,0.0086
1241.00,0.0085
1240.00,0.0084
1239.00,0.0083
1238.00,0.0083
1237.00,0.0082
1236.00,0.0082
1235.00,0.0082
1234.00,0.0082
1233.00,0.0082
1232.00,0.0081
1231.00,0.0081
1230.00,0.0082
1229.00,0.0082
1228.00,0.0083
1227.00,0.0084
1226.00,0.0086
1225.00,0.0089
1224.00,0.0092
1223.00,0.0096
1222.00,0.0099
1221.00,0.0102
1220.00,0.0104
1219.00,0.0104
1218.00,0.0102
1217.00,0.0100
1216.00,0.0098
1215.00,0.0095
1214.00,0.0092
1213.00,0.0089
1212.00,0.0087
1211.00,0.0084
1210.00,0.0082
1209.00,0.0081
1208.00,0.0080
1207.00,0.0080
1206.00,0.0079
1205.00,0.0078
1204.00,0.0077
1203.00,0.0077
1202.00,0.0077
1201.00,0.0077
1200.00,0.0077
1199.00,0.0077
1198.00,0.0077
1197.00,0.0077
1196.00,0.0077
1195.00,0.0078
1194.00,0.0078
1193.00,0.0079
1192.00,0.0079
1191.00,0.0079
1190.00,0.0078
1189.00,0.0078
1188.00,0.0077
1187.00,0.0077
1186.00,0.0077
1185.00,0.0079
1184.00,0.0080
1183.00,0.0082
1182.00,0.0085
1181.00,0.0089
1180.00,0.0093
1179.00,0.0098
1178.00,0.0105
1177.00,0.0114
1176.00,0.0126
1175.00,0.0142
1174.00,0.0163
1173.00,0.0190
1172.00,0.0222
1171.00,0.0258
1170.00,0.0292
1169.00,0.0321
1168.00,0.0338
1167.00,0.0342
1166.00,0.0334
1165.00,0.0317
1164.00,0.0297
1163.00,0.0278
1162.00,0.0261
1161.00,0.0248
1160.00,0.0237
1159.00,0.0230
1158.00,0.0224
1157.00,0.0220
1156.00,0.0217
1155.00,0.0215
1154.00,0.0213
1153.00,0.0210
1152.00,0.0206
1151.00,0.0199
1150.00,0.0191
1149.00,0.0183
1148.00,0.0174
1147.00,0.0165
1146.00,0.0156
1145.00,0.0148
1144.00,0.0140
1143.00,0.0133
1142.00,0.0127
1141.00,0.0122
1140.00,0.0117
1139.00,0.0113
1138.00,0.0109
1137.00,0.0107
1136.00,0.0105
1135.00,0.0104
1134.00,0.0103
1133.00,0.0102
1132.00,0.0102
1131.00,0.0102
1130.00,0.0102
1129.00,0.0102
1128.00,0.0103
1127.00,0.0105
1126.00,0.0106
1125.00,0.0107
1124.00,0.0108
1123.00,0.0110
1122.00,0.0112
1121.00,0.0114
1120.00,0.0117
1119.00,0.0118
1118.00,0.0120
1117.00,0.0121
1116.00,0.0121
1115.00,0.0122
1114.00,0.0123
1113.00,0.0124
1112.00,0.0126
1111.00,0.0129
1110.00,0.0131
1109.00,0.0134
1108.00,0.0138
1107.00,0.0142
1106.00,0.0148
1105.00,0.0153
1104.00,0.0157
1103.00,0.0159
1102.00,0.0159
1101.00,0.0155
1100.00,0.0151
1099.00,0.0146
1098.00,0.0141
1097.00,0.0137
1096.00,0.0133
1095.00,0.0128
1094.00,0.0124
1093.00,0.0121
1092.00,0.0118
1091.00,0.0117
1090.00,0.0116
1089.00,0.0115
1088.00,0.0115
1087.00,0.0114
1086.00,0.0114
1085.00,0.0114
1084.00,0.0114
1083.00,0.0114
1082.00,0.0113
1081.00,0.0112
1080.00,0.0111
1079.00,0.0109
1078.00,0.0108
1077.00,0.0107
1076.00,0.0106
1075.00,0.0106
1074.00,0.0105
1073.00,0.0104
1072.00,0.0103
1071.00,0.0102
1070.00,0.0102
1069.00,0.0102
1068.00,0.0101
1067.00,0.0100
1066.00,0.0099
1065.00,0.0100
1064.00,0.0101
1063.00,0.0102
1062.00,0.0103
1061.00,0.0103
1060.00,0.0103
1059.00,0.0103
1058.00,0.0104
1057.00,0.0104
1056.00,0.0103
1055.00,0.0102
1054.00,0.0102
1053.00,0.0102
1052.00,0.0104
1051.00,0.0106
1050.00,0.0109
1049.00,0.0112
1048.00,0.0116
1047.00,0.0120
1046.00,0.0123
1045.00,0.0125
1044.00,0.0125
1043.00,0.0123
1042.00,0.0121
1041.00,0.0118
1040.00,0.0116
1039.00,0.0114
1038.00,0.0114
1037.00,0.0114
1036.00,0.0115
1035.00,0.0116
1034.00,0.0115
1033.00,0.0114
1032.00,0.0112
1031.00,0.0110
1030.00,0.0108
1029.00,0.0107
1028.00,0.0106
1027.00,0.0106
1026.00,0.0106
1025.00,0.0106
1024.00,0.0106
1023.00,0.0107
1022.00,0.0108
1021.00,0.0108
1020.00,0.0108
1019.00,0.0108
1018.00,0.0108
1017.00,0.0109
1016.00,0.0109
1015.00,0.0111
1014.00,0.0112
1013.00,0.0114
1012.00,0.0117
1011.00,0.0120
1010.00,0.0123
1009.00,0.0126
1008.00,0.0131
1007.00,0.0137
1006.00,0.0146
1005.00,0.0159
1004.00,0.0176
1003.00,0.0201
1002.00,0.0234
1001.00,0.0276
1000.00,0.0322
999.00,0.0360
998.00,0.0380
997.00,0.0375
996.00,0.0345
995.00,0.0302
994.00,0.0256
993.00,0.0216
992.00,0.0185
991.00,0.0163
990.00,0.0148
989.00,0.0138
988.00,0.0132
987.00,0.0128
986.00,0.0127
985.00,0.0128
984.00,0.0131
983.00,0.0138
982.00,0.0149
981.00,0.0164
980.00,0.0186
979.00,0.0215
978.00,0.0252
977.00,0.0296
976.00,0.0345
975.00,0.0393
974.00,0.0430
973.00,0.0445
972.00,0.0432
971.00,0.0393
970.00,0.0338
969.00,0.0282
968.00,0.0234
967.00,0.0198
966.00,0.0171
965.00,0.0152
964.00,0.0138
963.00,0.0127
962.00,0.0119
961.00,0.0112
960.00,0.0107
959.00,0.0103
958.00,0.0101
957.00,0.0098
956.00,0.0095
955.00,0.0092
954.00,0.0090
953.00,0.0088
952.00,0.0088
951.00,0.0088
950.00,0.0087
949.00,0.0087
948.00,0.0087
947.00,0.0087
946.00,0.0089
945.00,0.0091
944.00,0.0093
943.00,0.0096
942.00,0.0099
941.00,0.0101
940.00,0.0100
939.00,0.0098
938.00,0.0094
937.00,0.0089
936.00,0.0084
935.00,0.0080
934.00,0.0077
933.00,0.0075
932.00,0.0073
931.00,0.0073
930.00,0.0072
929.00,0.0071
928.00,0.0070
927.00,0.0070
926.00,0.0069
925.00,0.0068
924.00,0.0068
923.00,0.0068
922.00,0.0068
921.00,0.0069
920.00,0.0070
919.00,0.0072
918.00,0.0072
917.00,0.0072
916.00,0.0071
915.00,0.0071
914.00,0.0072
913.00,0.0073
912.00,0.0075
911.00,0.0076
910.00,0.0079
909.00,0.0082
908.00,0.0086
907.00,0.0091
906.00,0.0096
905.00,0.0104
904.00,0.0116
903.00,0.0131
902.00,0.0149
901.00,0.0166
900.00,0.0177
899.00,0.0179
898.00,0.0173
897.00,0.0159
896.00,0.0142
895.00,0.0126
894.00,0.0113
893.00,0.0103
892.00,0.0097
891.00,0.0092
890.00,0.0088
889.00,0.0085
888.00,0.0083
887.00,0.0081
886.00,0.0080
885.00,0.0079
884.00,0.0079
883.00,0.0078
882.00,0.0078
881.00,0.0078
880.00,0.0078
879.00,0.0079
878.00,0.0080
877.00,0.0081
876.00,0.0083
875.00,0.0083
874.00,0.0084
873.00,0.0083
872.00,0.0083
871.00,0.0082
870.00,0.0082
869.00,0.0082
868.00,0.0082
867.00,0.0083
866.00,0.0084
865.00,0.0085
864.00,0.0087
863.00,0.0088
862.00,0.0089
861.00,0.0090
860.00,0.0092
859.00,0.0094
858.00,0.0096
857.00,0.0097
856.00,0.0098
855.00,0.0099
854.00,0.0101
853.00,0.0103
852.00,0.0107
851.00,0.0111
850.00,0.0116
849.00,0.0123
848.00,0.0132
847.00,0.0146
846.00,0.0169
845.00,0.0204
844.00,0.0255
843.00,0.0314
842.00,0.0363
841.00,0.0380
840.00,0.0356
839.00,0.0303
838.00,0.0243
837.00,0.0196
836.00,0.0165
835.00,0.0147
834.00,0.0136
833.00,0.0130
832.00,0.0124
831.00,0.0120
830.00,0.0117
829.00,0.0114
828.00,0.0113
827.00,0.0114
826.00,0.0115
825.00,0.0115
824.00,0.0114
823.00,0.0113
822.00,0.0112
821.00,0.0113
820.00,0.0115
819.00,0.0118
818.00,0.0121
817.00,0.0127
816.00,0.0135
815.00,0.0146
814.00,0.0161
813.00,0.0180
812.00,0.0199
811.00,0.0217
810.00,0.0230
809.00,0.0236
808.00,0.0233
807.00,0.0221
806.00,0.0204
805.00,0.0186
804.00,0.0168
803.00,0.0154
802.00,0.0144
801.00,0.0136
800.00,0.0130
799.00,0.0126
798.00,0.0122
797.00,0.0119
796.00,0.0116
795.00,0.0112
794.00,0.0108
793.00,0.0103
792.00,0.0099
791.00,0.0095
790.00,0.0092
789.00,0.0089
788.00,0.0087
787.00,0.0086
786.00,0.0085
785.00,0.0084
784.00,0.0082
783.00,0.0079
782.00,0.0076
781.00,0.0074
780.00,0.0074
779.00,0.0074
778.00,0.0073
777.00,0.0073
776.00,0.0072
775.00,0.0071
774.00,0.0071
773.00,0.0071
772.00,0.0072
771.00,0.0073
770.00,0.0074
769.00,0.0075
768.00,0.0076
767.00,0.0077
766.00,0.0076
765.00,0.0075
764.00,0.0073
763.00,0.0073
762.00,0.0074
761.00,0.0076
760.00,0.0078
759.00,0.0080
758.00,0.0081
757.00,0.0082
756.00,0.0083
755.00,0.0084
754.00,0.0083
753.00,0.0083
752.00,0.0083
751.00,0.0085
750.00,0.0087
749.00,0.0088
748.00,0.0090
747.00,0.0091
746.00,0.0092
745.00,0.0094
744.00,0.0095
743.00,0.0098
742.00,0.0101
741.00,0.0106
740.00,0.0110
739.00,0.0113
738.00,0.0116
737.00,0.0119
736.00,0.0122
735.00,0.0126
734.00,0.0132
733.00,0.0139
732.00,0.0147
731.00,0.0156
730.00,0.0162
729.00,0.0166
728.00,0.0167
727.00,0.0168
726.00,0.0169
725.00,0.0173
724.00,0.0178
723.00,0.0186
722.00,0.0193
721.00,0.0197
720.00,0.0195
719.00,0.0185
718.00,0.0171
717.00,0.0156
716.00,0.0144
715.00,0.0136
714.00,0.0130
713.00,0.0125
712.00,0.0121
711.00,0.0118
710.00,0.0117
709.00,0.0117
708.00,0.0117
707.00,0.0116
706.00,0.0115
705.00,0.0114
704.00,0.0112
703.00,0.0110
702.00,0.0107
701.00,0.0103
700.00,0.0100
699.00,0.0099
698.00,0.0099
697.00,0.0099
696.00,0.0100
695.00,0.0101
694.00,0.0102
693.00,0.0102
692.00,0.0101
691.00,0.0101
690.00,0.0100
689.00,0.0097
688.00,0.0094
687.00,0.0093
686.00,0.0094
685.00,0.0095
684.00,0.0096
683.00,0.0096
682.00,0.0098
681.00,0.0099
680.00,0.0099
679.00,0.0099
678.00,0.0099
677.00,0.0099
676.00,0.0098
675.00,0.0098
674.00,0.0098
673.00,0.0097
672.00,0.0097
671.00,0.0097
670.00,0.0098
669.00,0.0097
668.00,0.0095
667.00,0.0095
666.00,0.0097
665.00,0.0098
664.00,0.0098
663.00,0.0097
662.00,0.0097
661.00,0.0098
660.00,0.0099
659.00,0.0100
658.00,0.0099
657.00,0.0098
656.00,0.0097
655.00,0.0099
654.00,0.0101
653.00,0.0101
652.00,0.0100
651.00,0.0097
650.00,0.0096
649.00,0.0096
648.00,0.0098
647.00,0.0100
646.00,0.0102
645.00,0.0102
644.00,0.0102
643.00,0.0100
642.00,0.0099
641.00,0.0097
640.00,0.0095
639.00,0.0095
638.00,0.0096
637.00,0.0099
636.00,0.0101
635.00,0.0102
634.00,0.0102
633.00,0.0102
632.00,0.0101
631.00,0.0100
630.00,0.0099
629.00,0.0098
628.00,0.0097
627.00,0.0096
626.00,0.0096
625.00,0.0097
624.00,0.0098
623.00,0.0098
622.00,0.0098
621.00,0.0098
620.00,0.0098
619.00,0.0099
618.00,0.0099
617.00,0.0099
616.00,0.0098
615.00,0.0097
614.00,0.0096
613.00,0.0093
612.00,0.0092
611.00,0.0092
610.00,0.0093
609.00,0.0093
608.00,0.0093
607.00,0.0092
606.00,0.0092
605.00,0.0092
604.00,0.0094
603.00,0.0095
602.00,0.0095
601.00,0.0095
600.00,0.0095
599.00,0.0096
598.00,0.0100
597.00,0.0103
596.00,0.0104
595.00,0.0103
594.00,0.0101
593.00,0.0100
592.00,0.0098
591.00,0.0096
590.00,0.0095
589.00,0.0095
588.00,0.0096
587.00,0.0097
586.00,0.0098
585.00,0.0098
584.00,0.0097
583.00,0.0097
582.00,0.0097
581.00,0.0097
580.00,0.0097
579.00,0.0096
578.00,0.0095
577.00,0.0094
576.00,0.0094
575.00,0.0098
574.00,0.0103
573.00,0.0108
572.00,0.0110
571.00,0.0107
570.00,0.0103
569.00,0.0100
568.00,0.0101
567.00,0.0103
566.00,0.0104
565.00,0.0105
564.00,0.0105
563.00,0.0104
562.00,0.0102
561.00,0.0100
560.00,0.0098
559.00,0.0098
558.00,0.0100
557.00,0.0103
556.00,0.0106
555.00,0.0108
554.00,0.0108
553.00,0.0107
552.00,0.0103
551.00,0.0099
550.00,0.0096
549.00,0.0096
548.00,0.0100
547.00,0.0103
546.00,0.0104
545.00,0.0099
544.00,0.0091
543.00,0.0084
542.00,0.0083
541.00,0.0086
540.00,0.0091
539.00,0.0097
538.00,0.0103
537.00,0.0111
536.00,0.0120
535.00,0.0126
534.00,0.0127
533.00,0.0126
532.00,0.0124
531.00,0.0122
530.00,0.0119
529.00,0.0116
528.00,0.0115
527.00,0.0117
526.00,0.0120
525.00,0.0122
524.00,0.0120
523.00,0.0116
522.00,0.0110
521.00,0.0104
520.00,0.0099
519.00,0.0095
518.00,0.0093
517.00,0.0093
516.00,0.0093
515.00,0.0094
514.00,0.0094
513.00,0.0096
512.00,0.0100
511.00,0.0105
510.00,0.0110
509.00,0.0113
508.00,0.0113
507.00,0.0111
506.00,0.0106
505.00,0.0102
504.00,0.0101
503.00,0.0105
502.00,0.0107
501.00,0.0103
500.00,0.0094
499.00,0.0088
498.00,0.0086
497.00,0.0086
496.00,0.0086
495.00,0.0088
494.00,0.0093
493.00,0.0099
492.00,0.0101
491.00,0.0098
490.00,0.0092
489.00,0.0086
488.00,0.0083
487.00,0.0087
486.00,0.0100
485.00,0.0115
484.00,0.0122
483.00,0.0119
482.00,0.0110
481.00,0.0104
480.00,0.0104
479.00,0.0106
478.00,0.0108
477.00,0.0108
476.00,0.0108
475.00,0.0106
474.00,0.0102
473.00,0.0097
472.00,0.0097
471.00,0.0106
470.00,0.0119
469.00,0.0129
468.00,0.0135
467.00,0.0135
466.00,0.0132
465.00,0.0130
464.00,0.0129
463.00,0.0132
462.00,0.0135
461.00,0.0137
460.00,0.0138
459.00,0.0140
458.00,0.0143
457.00,0.0142
456.00,0.0137
455.00,0.0129
454.00,0.0124
453.00,0.0120
452.00,0.0118
451.00,0.0118
450.00,0.0118
