Created as New Dataset,Sample 189 By Administrator Date Wednesday, September 03 2025
cm-1,A
4000.00,0.0009
3999.00,0.0009
3998.00,0.0009
3997.00,0.0009
3996.00,0.0009
3995.00,0.0009
3994.00,0.0009
3993.00,0.0009
3992.00,0.0009
3991.00,0.0009
3990.00,0.0009
3989.00,0.0009
3988.00,0.0009
3987.00,0.0009
3986.00,0.0009
3985.00,0.0009
3984.00,0.0008
3983.00,0.0008
3982.00,0.0008
3981.00,0.0007
3980.00,0.0007
3979.00,0.0007
3978.00,0.0007
3977.00,0.0007
3976.00,0.0007
3975.00,0.0008
3974.00,0.0008
3973.00,0.0007
3972.00,0.0007
3971.00,0.0007
3970.00,0.0007
3969.00,0.0007
3968.00,0.0006
3967.00,0.0006
3966.00,0.0006
3965.00,0.0006
3964.00,0.0006
3963.00,0.0007
3962.00,0.0007
3961.00,0.0007
3960.00,0.0007
3959.00,0.0006
3958.00,0.0006
3957.00,0.0006
3956.00,0.0006
3955.00,0.0005
3954.00,0.0005
3953.00,0.0006
3952.00,0.0006
3951.00,0.0006
3950.00,0.0006
3949.00,0.0006
3948.00,0.0006
3947.00,0.0006
3946.00,0.0006
3945.00,0.0006
3944.00,0.0006
3943.00,0.0006
3942.00,0.0006
3941.00,0.0007
3940.00,0.0007
3939.00,0.0007
3938.00,0.0007
3937.00,0.0007
3936.00,0.0007
3935.00,0.0007
3934.00,0.0007
3933.00,0.0007
3932.00,0.0007
3931.00,0.0007
3930.00,0.0008
3929.00,0.0008
3928.00,0.0007
3927.00,0.0007
3926.00,0.0006
3925.00,0.0006
3924.00,0.0006
3923.00,0.0006
3922.00,0.0007
3921.00,0.0007
3920.00,0.0007
3919.00,0.0007
3918.00,0.0007
3917.00,0.0007
3916.00,0.0007
3915.00,0.0007
3914.00,0.0007
3913.00,0.0007
3912.00,0.0007
3911.00,0.0007
3910.00,0.0007
3909.00,0.0006
3908.00,0.0006
3907.00,0.0006
3906.00,0.0005
3905.00,0.0005
3904.00,0.0005
3903.00,0.0006
3902.00,0.0006
3901.00,0.0006
3900.00,0.0006
3899.00,0.0006
3898.00,0.0006
3897.00,0.0006
3896.00,0.0006
3895.00,0.0007
3894.00,0.0007
3893.00,0.0007
3892.00,0.0007
3891.00,0.0007
3890.00,0.0007
3889.00,0.0007
3888.00,0.0007
3887.00,0.0006
3886.00,0.0006
3885.00,0.0006
3884.00,0.0006
3883.00,0.0006
3882.00,0.0006
3881.00,0.0006
3880.00,0.0006
3879.00,0.0007
3878.00,0.0007
3877.00,0.0007
3876.00,0.0006
3875.00,0.0007
3874.00,0.0007
3873.00,0.0007
3872.00,0.0007
3871.00,0.0006
3870.00,0.0006
3869.00,0.0006
3868.00,0.0006
3867.00,0.0005
3866.00,0.0005
3865.00,0.0005
3864.00,0.0005
3863.00,0.0006
3862.00,0.0006
3861.00,0.0006
3860.00,0.0006
3859.00,0.0006
3858.00,0.0005
3857.00,0.0004
3856.00,0.0004
3855.00,0.0004
3854.00,0.0004
3853.00,0.0005
3852.00,0.0005
3851.00,0.0005
3850.00,0.0005
3849.00,0.0005
3848.00,0.0006
3847.00,0.0006
3846.00,0.0006
3845.00,0.0005
3844.00,0.0005
3843.00,0.0005
3842.00,0.0005
3841.00,0.0005
3840.00,0.0005
3839.00,0.0005
3838.00,0.0005
3837.00,0.0005
3836.00,0.0005
3835.00,0.0005
3834.00,0.0004
3833.00,0.0004
3832.00,0.0005
3831.00,0.0005
3830.00,0.0005
3829.00,0.0005
3828.00,0.0005
3827.00,0.0005
3826.00,0.0005
3825.00,0.0005
3824.00,0.0005
3823.00,0.0005
3822.00,0.0005
3821.00,0.0005
3820.00,0.0005
3819.00,0.0005
3818.00,0.0005
3817.00,0.0005
3816.00,0.0005
3815.00,0.0006
3814.00,0.0006
3813.00,0.0007
3812.00,0.0007
3811.00,0.0007
3810.00,0.0006
3809.00,0.0006
3808.00,0.0006
3807.00,0.0006
3806.00,0.0006
3805.00,0.0006
3804.00,0.0005
3803.00,0.0005
3802.00,0.0005
3801.00,0.0005
3800.00,0.0005
3799.00,0.0005
3798.00,0.0005
3797.00,0.0005
3796.00,0.0006
3795.00,0.0006
3794.00,0.0006
3793.00,0.0006
3792.00,0.0006
3791.00,0.0006
3790.00,0.0006
3789.00,0.0006
3788.00,0.0006
3787.00,0.0006
3786.00,0.0006
3785.00,0.0006
3784.00,0.0006
3783.00,0.0006
3782.00,0.0006
3781.00,0.0006
3780.00,0.0006
3779.00,0.0006
3778.00,0.0006
3777.00,0.0006
3776.00,0.0007
3775.00,0.0007
3774.00,0.0007
3773.00,0.0007
3772.00,0.0007
3771.00,0.0007
3770.00,0.0007
3769.00,0.0007
3768.00,0.0007
3767.00,0.0007
3766.00,0.0007
3765.00,0.0007
3764.00,0.0007
3763.00,0.0007
3762.00,0.0007
3761.00,0.0007
3760.00,0.0007
3759.00,0.0006
3758.00,0.0006
3757.00,0.0006
3756.00,0.0006
3755.00,0.0006
3754.00,0.0005
3753.00,0.0005
3752.00,0.0005
3751.00,0.0005
3750.00,0.0005
3749.00,0.0005
3748.00,0.0005
3747.00,0.0005
3746.00,0.0005
3745.00,0.0005
3744.00,0.0005
3743.00,0.0006
3742.00,0.0005
3741.00,0.0004
3740.00,0.0004
3739.00,0.0004
3738.00,0.0004
3737.00,0.0004
3736.00,0.0005
3735.00,0.0005
3734.00,0.0005
3733.00,0.0005
3732.00,0.0005
3731.00,0.0004
3730.00,0.0004
3729.00,0.0004
3728.00,0.0004
3727.00,0.0004
3726.00,0.0004
3725.00,0.0004
3724.00,0.0004
3723.00,0.0004
3722.00,0.0004
3721.00,0.0004
3720.00,0.0004
3719.00,0.0004
3718.00,0.0005
3717.00,0.0005
3716.00,0.0005
3715.00,0.0005
3714.00,0.0005
3713.00,0.0004
3712.00,0.0004
3711.00,0.0004
3710.00,0.0004
3709.00,0.0004
3708.00,0.0004
3707.00,0.0004
3706.00,0.0004
3705.00,0.0004
3704.00,0.0004
3703.00,0.0004
3702.00,0.0004
3701.00,0.0004
3700.00,0.0005
3699.00,0.0005
3698.00,0.0005
3697.00,0.0005
3696.00,0.0005
3695.00,0.0005
3694.00,0.0005
3693.00,0.0004
3692.00,0.0004
3691.00,0.0004
3690.00,0.0004
3689.00,0.0004
3688.00,0.0004
3687.00,0.0005
3686.00,0.0005
3685.00,0.0005
3684.00,0.0004
3683.00,0.0005
3682.00,0.0004
3681.00,0.0005
3680.00,0.0005
3679.00,0.0005
3678.00,0.0005
3677.00,0.0004
3676.00,0.0004
3675.00,0.0003
3674.00,0.0003
3673.00,0.0003
3672.00,0.0003
3671.00,0.0004
3670.00,0.0004
3669.00,0.0005
3668.00,0.0005
3667.00,0.0005
3666.00,0.0005
3665.00,0.0005
3664.00,0.0005
3663.00,0.0005
3662.00,0.0005
3661.00,0.0004
3660.00,0.0004
3659.00,0.0004
3658.00,0.0004
3657.00,0.0003
3656.00,0.0004
3655.00,0.0004
3654.00,0.0004
3653.00,0.0005
3652.00,0.0004
3651.00,0.0004
3650.00,0.0003
3649.00,0.0003
3648.00,0.0003
3647.00,0.0003
3646.00,0.0003
3645.00,0.0004
3644.00,0.0004
3643.00,0.0004
3642.00,0.0004
3641.00,0.0004
3640.00,0.0004
3639.00,0.0004
3638.00,0.0005
3637.00,0.0005
3636.00,0.0005
3635.00,0.0005
3634.00,0.0005
3633.00,0.0006
3632.00,0.0006
3631.00,0.0006
3630.00,0.0005
3629.00,0.0005
3628.00,0.0004
3627.00,0.0004
3626.00,0.0005
3625.00,0.0005
3624.00,0.0005
3623.00,0.0006
3622.00,0.0006
3621.00,0.0006
3620.00,0.0006
3619.00,0.0006
3618.00,0.0006
3617.00,0.0006
3616.00,0.0005
3615.00,0.0005
3614.00,0.0005
3613.00,0.0005
3612.00,0.0006
3611.00,0.0007
3610.00,0.0007
3609.00,0.0008
3608.00,0.0008
3607.00,0.0008
3606.00,0.0008
3605.00,0.0008
3604.00,0.0008
3603.00,0.0007
3602.00,0.0007
3601.00,0.0006
3600.00,0.0006
3599.00,0.0007
3598.00,0.0007
3597.00,0.0007
3596.00,0.0007
3595.00,0.0007
3594.00,0.0008
3593.00,0.0008
3592.00,0.0008
3591.00,0.0008
3590.00,0.0007
3589.00,0.0007
3588.00,0.0007
3587.00,0.0008
3586.00,0.0008
3585.00,0.0009
3584.00,0.0009
3583.00,0.0009
3582.00,0.0008
3581.00,0.0008
3580.00,0.0009
3579.00,0.0010
3578.00,0.0010
3577.00,0.0011
3576.00,0.0011
3575.00,0.0011
3574.00,0.0011
3573.00,0.0011
3572.00,0.0011
3571.00,0.0011
3570.00,0.0011
3569.00,0.0011
3568.00,0.0011
3567.00,0.0011
3566.00,0.0011
3565.00,0.0011
3564.00,0.0012
3563.00,0.0012
3562.00,0.0013
3561.00,0.0013
3560.00,0.0013
3559.00,0.0013
3558.00,0.0013
3557.00,0.0013
3556.00,0.0013
3555.00,0.0013
3554.00,0.0013
3553.00,0.0014
3552.00,0.0014
3551.00,0.0014
3550.00,0.0015
3549.00,0.0015
3548.00,0.0015
3547.00,0.0015
3546.00,0.0015
3545.00,0.0015
3544.00,0.0015
3543.00,0.0015
3542.00,0.0015
3541.00,0.0015
3540.00,0.0015
3539.00,0.0016
3538.00,0.0016
3537.00,0.0016
3536.00,0.0016
3535.00,0.0017
3534.00,0.0017
3533.00,0.0018
3532.00,0.0018
3531.00,0.0018
3530.00,0.0018
3529.00,0.0019
3528.00,0.0019
3527.00,0.0019
3526.00,0.0019
3525.00,0.0020
3524.00,0.0020
3523.00,0.0020
3522.00,0.0020
3521.00,0.0020
3520.00,0.0020
3519.00,0.0020
3518.00,0.0021
3517.00,0.0021
3516.00,0.0021
3515.00,0.0021
3514.00,0.0021
3513.00,0.0021
3512.00,0.0021
3511.00,0.0021
3510.00,0.0021
3509.00,0.0021
3508.00,0.0022
3507.00,0.0022
3506.00,0.0023
3505.00,0.0023
3504.00,0.0023
3503.00,0.0024
3502.00,0.0024
3501.00,0.0024
3500.00,0.0024
3499.00,0.0024
3498.00,0.0024
3497.00,0.0024
3496.00,0.0024
3495.00,0.0024
3494.00,0.0025
3493.00,0.0025
3492.00,0.0025
3491.00,0.0025
3490.00,0.0025
3489.00,0.0025
3488.00,0.0026
3487.00,0.0026
3486.00,0.0026
3485.00,0.0026
3484.00,0.0026
3483.00,0.0026
3482.00,0.0027
3481.00,0.0027
3480.00,0.0027
3479.00,0.0027
3478.00,0.0028
3477.00,0.0028
3476.00,0.0028
3475.00,0.0028
3474.00,0.0028
3473.00,0.0029
3472.00,0.0030
3471.00,0.0030
3470.00,0.0030
3469.00,0.0030
3468.00,0.0029
3467.00,0.0029
3466.00,0.0030
3465.00,0.0030
3464.00,0.0030
3463.00,0.0030
3462.00,0.0030
3461.00,0.0030
3460.00,0.0031
3459.00,0.0031
3458.00,0.0032
3457.00,0.0032
3456.00,0.0032
3455.00,0.0032
3454.00,0.0032
3453.00,0.0032
3452.00,0.0032
3451.00,0.0033
3450.00,0.0033
3449.00,0.0033
3448.00,0.0033
3447.00,0.0033
3446.00,0.0033
3445.00,0.0033
3444.00,0.0033
3443.00,0.0033
3442.00,0.0034
3441.00,0.0034
3440.00,0.0034
3439.00,0.0035
3438.00,0.0035
3437.00,0.0035
3436.00,0.0035
3435.00,0.0035
3434.00,0.0035
3433.00,0.0035
3432.00,0.0036
3431.00,0.0036
3430.00,0.0036
3429.00,0.0036
3428.00,0.0036
3427.00,0.0036
3426.00,0.0036
3425.00,0.0037
3424.00,0.0037
3423.00,0.0037
3422.00,0.0037
3421.00,0.0037
3420.00,0.0037
3419.00,0.0037
3418.00,0.0037
3417.00,0.0038
3416.00,0.0038
3415.00,0.0039
3414.00,0.0039
3413.00,0.0039
3412.00,0.0039
3411.00,0.0040
3410.00,0.0040
3409.00,0.0040
3408.00,0.0040
3407.00,0.0040
3406.00,0.0040
3405.00,0.0040
3404.00,0.0041
3403.00,0.0041
3402.00,0.0041
3401.00,0.0041
3400.00,0.0041
3399.00,0.0041
3398.00,0.0042
3397.00,0.0042
3396.00,0.0043
3395.00,0.0043
3394.00,0.0043
3393.00,0.0043
3392.00,0.0042
3391.00,0.0042
3390.00,0.0042
3389.00,0.0042
3388.00,0.0042
3387.00,0.0042
3386.00,0.0042
3385.00,0.0042
3384.00,0.0042
3383.00,0.0042
3382.00,0.0041
3381.00,0.0041
3380.00,0.0041
3379.00,0.0040
3378.00,0.0040
3377.00,0.0040
3376.00,0.0041
3375.00,0.0041
3374.00,0.0041
3373.00,0.0041
3372.00,0.0041
3371.00,0.0041
3370.00,0.0041
3369.00,0.0041
3368.00,0.0042
3367.00,0.0042
3366.00,0.0042
3365.00,0.0042
3364.00,0.0042
3363.00,0.0042
3362.00,0.0042
3361.00,0.0042
3360.00,0.0042
3359.00,0.0042
3358.00,0.0042
3357.00,0.0042
3356.00,0.0042
3355.00,0.0042
3354.00,0.0042
3353.00,0.0041
3352.00,0.0041
3351.00,0.0041
3350.00,0.0041
3349.00,0.0040
3348.00,0.0040
3347.00,0.0041
3346.00,0.0041
3345.00,0.0041
3344.00,0.0041
3343.00,0.0040
3342.00,0.0040
3341.00,0.0040
3340.00,0.0040
3339.00,0.0040
3338.00,0.0040
3337.00,0.0040
3336.00,0.0040
3335.00,0.0040
3334.00,0.0040
3333.00,0.0040
3332.00,0.0040
3331.00,0.0040
3330.00,0.0040
3329.00,0.0039
3328.00,0.0039
3327.00,0.0039
3326.00,0.0039
3325.00,0.0039
3324.00,0.0039
3323.00,0.0039
3322.00,0.0038
3321.00,0.0038
3320.00,0.0038
3319.00,0.0038
3318.00,0.0039
3317.00,0.0039
3316.00,0.0039
3315.00,0.0039
3314.00,0.0039
3313.00,0.0039
3312.00,0.0039
3311.00,0.0039
3310.00,0.0039
3309.00,0.0039
3308.00,0.0039
3307.00,0.0039
3306.00,0.0040
3305.00,0.0040
3304.00,0.0040
3303.00,0.0040
3302.00,0.0039
3301.00,0.0039
3300.00,0.0039
3299.00,0.0039
3298.00,0.0039
3297.00,0.0039
3296.00,0.0038
3295.00,0.0038
3294.00,0.0038
3293.00,0.0038
3292.00,0.0038
3291.00,0.0037
3290.00,0.0037
3289.00,0.0037
3288.00,0.0037
3287.00,0.0037
3286.00,0.0037
3285.00,0.0037
3284.00,0.0037
3283.00,0.0037
3282.00,0.0036
3281.00,0.0036
3280.00,0.0036
3279.00,0.0036
3278.00,0.0035
3277.00,0.0035
3276.00,0.0036
3275.00,0.0036
3274.00,0.0036
3273.00,0.0035
3272.00,0.0035
3271.00,0.0035
3270.00,0.0035
3269.00,0.0035
3268.00,0.0034
3267.00,0.0034
3266.00,0.0034
3265.00,0.0033
3264.00,0.0033
3263.00,0.0033
3262.00,0.0034
3261.00,0.0034
3260.00,0.0034
3259.00,0.0034
3258.00,0.0034
3257.00,0.0033
3256.00,0.0033
3255.00,0.0033
3254.00,0.0033
3253.00,0.0032
3252.00,0.0032
3251.00,0.0032
3250.00,0.0032
3249.00,0.0032
3248.00,0.0032
3247.00,0.0032
3246.00,0.0031
3245.00,0.0031
3244.00,0.0031
3243.00,0.0031
3242.00,0.0031
3241.00,0.0031
3240.00,0.0031
3239.00,0.0031
3238.00,0.0031
3237.00,0.0031
3236.00,0.0031
3235.00,0.0031
3234.00,0.0031
3233.00,0.0031
3232.00,0.0031
3231.00,0.0032
3230.00,0.0032
3229.00,0.0032
3228.00,0.0032
3227.00,0.0033
3226.00,0.0033
3225.00,0.0033
3224.00,0.0033
3223.00,0.0033
3222.00,0.0033
3221.00,0.0033
3220.00,0.0034
3219.00,0.0034
3218.00,0.0034
3217.00,0.0034
3216.00,0.0034
3215.00,0.0034
3214.00,0.0034
3213.00,0.0034
3212.00,0.0035
3211.00,0.0035
3210.00,0.0036
3209.00,0.0036
3208.00,0.0036
3207.00,0.0036
3206.00,0.0036
3205.00,0.0037
3204.00,0.0037
3203.00,0.0037
3202.00,0.0037
3201.00,0.0037
3200.00,0.0037
3199.00,0.0037
3198.00,0.0037
3197.00,0.0037
3196.00,0.0037
3195.00,0.0037
3194.00,0.0036
3193.00,0.0036
3192.00,0.0036
3191.00,0.0036
3190.00,0.0036
3189.00,0.0036
3188.00,0.0037
3187.00,0.0037
3186.00,0.0037
3185.00,0.0036
3184.00,0.0036
3183.00,0.0036
3182.00,0.0036
3181.00,0.0036
3180.00,0.0035
3179.00,0.0035
3178.00,0.0035
3177.00,0.0035
3176.00,0.0034
3175.00,0.0034
3174.00,0.0034
3173.00,0.0034
3172.00,0.0034
3171.00,0.0034
3170.00,0.0034
3169.00,0.0034
3168.00,0.0034
3167.00,0.0034
3166.00,0.0034
3165.00,0.0033
3164.00,0.0033
3163.00,0.0033
3162.00,0.0033
3161.00,0.0033
3160.00,0.0033
3159.00,0.0033
3158.00,0.0033
3157.00,0.0032
3156.00,0.0032
3155.00,0.0032
3154.00,0.0033
3153.00,0.0033
3152.00,0.0033
3151.00,0.0033
3150.00,0.0033
3149.00,0.0033
3148.00,0.0032
3147.00,0.0032
3146.00,0.0032
3145.00,0.0032
3144.00,0.0031
3143.00,0.0031
3142.00,0.0031
3141.00,0.0031
3140.00,0.0031
3139.00,0.0030
3138.00,0.0030
3137.00,0.0030
3136.00,0.0030
3135.00,0.0030
3134.00,0.0030
3133.00,0.0029
3132.00,0.0029
3131.00,0.0029
3130.00,0.0029
3129.00,0.0029
3128.00,0.0028
3127.00,0.0028
3126.00,0.0028
3125.00,0.0028
3124.00,0.0028
3123.00,0.0028
3122.00,0.0028
3121.00,0.0028
3120.00,0.0028
3119.00,0.0028
3118.00,0.0027
3117.00,0.0027
3116.00,0.0027
3115.00,0.0026
3114.00,0.0026
3113.00,0.0026
3112.00,0.0026
3111.00,0.0026
3110.00,0.0026
3109.00,0.0026
3108.00,0.0026
3107.00,0.0026
3106.00,0.0026
3105.00,0.0026
3104.00,0.0025
3103.00,0.0025
3102.00,0.0025
3101.00,0.0025
3100.00,0.0025
3099.00,0.0025
3098.00,0.0025
3097.00,0.0025
3096.00,0.0025
3095.00,0.0026
3094.00,0.0026
3093.00,0.0026
3092.00,0.0025
3091.00,0.0025
3090.00,0.0025
3089.00,0.0025
3088.00,0.0025
3087.00,0.0025
3086.00,0.0025
3085.00,0.0025
3084.00,0.0025
3083.00,0.0025
3082.00,0.0024
3081.00,0.0024
3080.00,0.0024
3079.00,0.0024
3078.00,0.0025
3077.00,0.0025
3076.00,0.0026
3075.00,0.0026
3074.00,0.0026
3073.00,0.0026
3072.00,0.0026
3071.00,0.0026
3070.00,0.0027
3069.00,0.0027
3068.00,0.0027
3067.00,0.0027
3066.00,0.0027
3065.00,0.0027
3064.00,0.0027
3063.00,0.0027
3062.00,0.0028
3061.00,0.0028
3060.00,0.0028
3059.00,0.0028
3058.00,0.0028
3057.00,0.0029
3056.00,0.0029
3055.00,0.0029
3054.00,0.0029
3053.00,0.0029
3052.00,0.0029
3051.00,0.0029
3050.00,0.0029
3049.00,0.0030
3048.00,0.0030
3047.00,0.0030
3046.00,0.0030
3045.00,0.0031
3044.00,0.0031
3043.00,0.0031
3042.00,0.0031
3041.00,0.0031
3040.00,0.0032
3039.00,0.0032
3038.00,0.0033
3037.00,0.0033
3036.00,0.0034
3035.00,0.0034
3034.00,0.0034
3033.00,0.0034
3032.00,0.0034
3031.00,0.0034
3030.00,0.0035
3029.00,0.0036
3028.00,0.0036
3027.00,0.0037
3026.00,0.0037
3025.00,0.0038
3024.00,0.0039
3023.00,0.0040
3022.00,0.0041
3021.00,0.0042
3020.00,0.0042
3019.00,0.0043
3018.00,0.0044
3017.00,0.0044
3016.00,0.0045
3015.00,0.0047
3014.00,0.0048
3013.00,0.0049
3012.00,0.0050
3011.00,0.0051
3010.00,0.0052
3009.00,0.0053
3008.00,0.0054
3007.00,0.0055
3006.00,0.0056
3005.00,0.0058
3004.00,0.0060
3003.00,0.0062
3002.00,0.0064
3001.00,0.0066
3000.00,0.0068
2999.00,0.0070
2998.00,0.0073
2997.00,0.0077
2996.00,0.0080
2995.00,0.0084
2994.00,0.0088
2993.00,0.0092
2992.00,0.0097
2991.00,0.0102
2990.00,0.0108
2989.00,0.0115
2988.00,0.0122
2987.00,0.0130
2986.00,0.0139
2985.00,0.0149
2984.00,0.0159
2983.00,0.0172
2982.00,0.0186
2981.00,0.0202
2980.00,0.0220
2979.00,0.0240
2978.00,0.0264
2977.00,0.0290
2976.00,0.0320
2975.00,0.0355
2974.00,0.0393
2973.00,0.0437
2972.00,0.0487
2971.00,0.0543
2970.00,0.0604
2969.00,0.0671
2968.00,0.0743
2967.00,0.0818
2966.00,0.0895
2965.00,0.0971
2964.00,0.1044
2963.00,0.1109
2962.00,0.1166
2961.00,0.1214
2960.00,0.1256
2959.00,0.1296
2958.00,0.1340
2957.00,0.1393
2956.00,0.1460
2955.00,0.1540
2954.00,0.1632
2953.00,0.1727
2952.00,0.1813
2951.00,0.1877
2950.00,0.1907
2949.00,0.1894
2948.00,0.1835
2947.00,0.1739
2946.00,0.1617
2945.00,0.1485
2944.00,0.1359
2943.00,0.1251
2942.00,0.1166
2941.00,0.1107
2940.00,0.1074
2939.00,0.1065
2938.00,0.1075
2937.00,0.1104
2936.00,0.1150
2935.00,0.1212
2934.00,0.1289
2933.00,0.1379
2932.00,0.1481
2931.00,0.1594
2930.00,0.1715
2929.00,0.1841
2928.00,0.1968
2927.00,0.2094
2926.00,0.2218
2925.00,0.2340
2924.00,0.2460
2923.00,0.2582
2922.00,0.2704
2921.00,0.2824
2920.00,0.2933
2919.00,0.3019
2918.00,0.3067
2917.00,0.3068
2916.00,0.3018
2915.00,0.2925
2914.00,0.2802
2913.00,0.2666
2912.00,0.2529
2911.00,0.2402
2910.00,0.2286
2909.00,0.2183
2908.00,0.2090
2907.00,0.2003
2906.00,0.1920
2905.00,0.1840
2904.00,0.1761
2903.00,0.1685
2902.00,0.1612
2901.00,0.1541
2900.00,0.1475
2899.00,0.1412
2898.00,0.1354
2897.00,0.1300
2896.00,0.1253
2895.00,0.1211
2894.00,0.1176
2893.00,0.1147
2892.00,0.1125
2891.00,0.1108
2890.00,0.1097
2889.00,0.1091
2888.00,0.1089
2887.00,0.1090
2886.00,0.1095
2885.00,0.1104
2884.00,0.1116
2883.00,0.1134
2882.00,0.1157
2881.00,0.1184
2880.00,0.1212
2879.00,0.1235
2878.00,0.1251
2877.00,0.1257
2876.00,0.1255
2875.00,0.1248
2874.00,0.1242
2873.00,0.1241
2872.00,0.1248
2871.00,0.1264
2870.00,0.1284
2869.00,0.1305
2868.00,0.1318
2867.00,0.1316
2866.00,0.1291
2865.00,0.1240
2864.00,0.1170
2863.00,0.1088
2862.00,0.1006
2861.00,0.0934
2860.00,0.0877
2859.00,0.0837
2858.00,0.0813
2857.00,0.0804
2856.00,0.0806
2855.00,0.0818
2854.00,0.0836
2853.00,0.0859
2852.00,0.0882
2851.00,0.0903
2850.00,0.0918
2849.00,0.0928
2848.00,0.0934
2847.00,0.0942
2846.00,0.0958
2845.00,0.0985
2844.00,0.1022
2843.00,0.1069
2842.00,0.1119
2841.00,0.1166
2840.00,0.1202
2839.00,0.1221
2838.00,0.1214
2837.00,0.1178
2836.00,0.1114
2835.00,0.1026
2834.00,0.0923
2833.00,0.0817
2832.00,0.0715
2831.00,0.0624
2830.00,0.0547
2829.00,0.0484
2828.00,0.0433
2827.00,0.0392
2826.00,0.0359
2825.00,0.0331
2824.00,0.0307
2823.00,0.0288
2822.00,0.0271
2821.00,0.0256
2820.00,0.0244
2819.00,0.0233
2818.00,0.0224
2817.00,0.0216
2816.00,0.0209
2815.00,0.0202
2814.00,0.0196
2813.00,0.0190
2812.00,0.0184
2811.00,0.0178
2810.00,0.0172
2809.00,0.0166
2808.00,0.0160
2807.00,0.0153
2806.00,0.0147
2805.00,0.0140
2804.00,0.0134
2803.00,0.0128
2802.00,0.0123
2801.00,0.0118
2800.00,0.0114
2799.00,0.0110
2798.00,0.0107
2797.00,0.0105
2796.00,0.0102
2795.00,0.0100
2794.00,0.0098
2793.00,0.0095
2792.00,0.0092
2791.00,0.0089
2790.00,0.0086
2789.00,0.0083
2788.00,0.0081
2787.00,0.0078
2786.00,0.0076
2785.00,0.0074
2784.00,0.0071
2783.00,0.0069
2782.00,0.0067
2781.00,0.0065
2780.00,0.0064
2779.00,0.0063
2778.00,0.0061
2777.00,0.0060
2776.00,0.0059
2775.00,0.0058
2774.00,0.0057
2773.00,0.0056
2772.00,0.0056
2771.00,0.0055
2770.00,0.0055
2769.00,0.0055
2768.00,0.0054
2767.00,0.0054
2766.00,0.0054
2765.00,0.0054
2764.00,0.0053
2763.00,0.0053
2762.00,0.0052
2761.00,0.0052
2760.00,0.0051
2759.00,0.0051
2758.00,0.0051
2757.00,0.0051
2756.00,0.0051
2755.00,0.0051
2754.00,0.0050
2753.00,0.0050
2752.00,0.0049
2751.00,0.0049
2750.00,0.0049
2749.00,0.0049
2748.00,0.0049
2747.00,0.0050
2746.00,0.0050
2745.00,0.0050
2744.00,0.0051
2743.00,0.0052
2742.00,0.0053
2741.00,0.0054
2740.00,0.0055
2739.00,0.0056
2738.00,0.0057
2737.00,0.0059
2736.00,0.0060
2735.00,0.0062
2734.00,0.0064
2733.00,0.0066
2732.00,0.0067
2731.00,0.0069
2730.00,0.0072
2729.00,0.0074
2728.00,0.0077
2727.00,0.0080
2726.00,0.0083
2725.00,0.0085
2724.00,0.0086
2723.00,0.0086
2722.00,0.0086
2721.00,0.0084
2720.00,0.0081
2719.00,0.0078
2718.00,0.0075
2717.00,0.0072
2716.00,0.0069
2715.00,0.0066
2714.00,0.0063
2713.00,0.0061
2712.00,0.0059
2711.00,0.0057
2710.00,0.0055
2709.00,0.0053
2708.00,0.0052
2707.00,0.0051
2706.00,0.0049
2705.00,0.0048
2704.00,0.0047
2703.00,0.0046
2702.00,0.0045
2701.00,0.0044
2700.00,0.0043
2699.00,0.0043
2698.00,0.0042
2697.00,0.0042
2696.00,0.0042
2695.00,0.0042
2694.00,0.0042
2693.00,0.0042
2692.00,0.0042
2691.00,0.0042
2690.00,0.0042
2689.00,0.0042
2688.00,0.0042
2687.00,0.0042
2686.00,0.0042
2685.00,0.0042
2684.00,0.0042
2683.00,0.0042
2682.00,0.0042
2681.00,0.0043
2680.00,0.0043
2679.00,0.0043
2678.00,0.0043
2677.00,0.0043
2676.00,0.0043
2675.00,0.0043
2674.00,0.0043
2673.00,0.0043
2672.00,0.0043
2671.00,0.0043
2670.00,0.0042
2669.00,0.0042
2668.00,0.0042
2667.00,0.0042
2666.00,0.0043
2665.00,0.0043
2664.00,0.0044
2663.00,0.0045
2662.00,0.0046
2661.00,0.0046
2660.00,0.0047
2659.00,0.0047
2658.00,0.0046
2657.00,0.0046
2656.00,0.0045
2655.00,0.0045
2654.00,0.0044
2653.00,0.0044
2652.00,0.0044
2651.00,0.0043
2650.00,0.0043
2649.00,0.0043
2648.00,0.0043
2647.00,0.0042
2646.00,0.0042
2645.00,0.0041
2644.00,0.0040
2643.00,0.0039
2642.00,0.0039
2641.00,0.0038
2640.00,0.0038
2639.00,0.0037
2638.00,0.0037
2637.00,0.0037
2636.00,0.0037
2635.00,0.0037
2634.00,0.0037
2633.00,0.0037
2632.00,0.0037
2631.00,0.0037
2630.00,0.0038
2629.00,0.0038
2628.00,0.0038
2627.00,0.0038
2626.00,0.0038
2625.00,0.0038
2624.00,0.0038
2623.00,0.0038
2622.00,0.0039
2621.00,0.0039
2620.00,0.0039
2619.00,0.0039
2618.00,0.0039
2617.00,0.0038
2616.00,0.0038
2615.00,0.0038
2614.00,0.0038
2613.00,0.0038
2612.00,0.0037
2611.00,0.0037
2610.00,0.0036
2609.00,0.0035
2608.00,0.0034
2607.00,0.0033
2606.00,0.0032
2605.00,0.0032
2604.00,0.0031
2603.00,0.0031
2602.00,0.0030
2601.00,0.0030
2600.00,0.0030
2599.00,0.0031
2598.00,0.0031
2597.00,0.0031
2596.00,0.0031
2595.00,0.0031
2594.00,0.0031
2593.00,0.0032
2592.00,0.0032
2591.00,0.0032
2590.00,0.0033
2589.00,0.0033
2588.00,0.0034
2587.00,0.0035
2586.00,0.0036
2585.00,0.0037
2584.00,0.0038
2583.00,0.0038
2582.00,0.0038
2581.00,0.0038
2580.00,0.0038
2579.00,0.0037
2578.00,0.0036
2577.00,0.0035
2576.00,0.0034
2575.00,0.0033
2574.00,0.0032
2573.00,0.0031
2572.00,0.0030
2571.00,0.0028
2570.00,0.0027
2569.00,0.0026
2568.00,0.0026
2567.00,0.0025
2566.00,0.0024
2565.00,0.0023
2564.00,0.0023
2563.00,0.0023
2562.00,0.0023
2561.00,0.0023
2560.00,0.0023
2559.00,0.0023
2558.00,0.0023
2557.00,0.0022
2556.00,0.0022
2555.00,0.0020
2554.00,0.0019
2553.00,0.0019
2552.00,0.0018
2551.00,0.0018
2550.00,0.0018
2549.00,0.0018
2548.00,0.0018
2547.00,0.0018
2546.00,0.0018
2545.00,0.0018
2544.00,0.0018
2543.00,0.0017
2542.00,0.0017
2541.00,0.0017
2540.00,0.0016
2539.00,0.0016
2538.00,0.0015
2537.00,0.0015
2536.00,0.0014
2535.00,0.0014
2534.00,0.0013
2533.00,0.0012
2532.00,0.0012
2531.00,0.0013
2530.00,0.0014
2529.00,0.0014
2528.00,0.0014
2527.00,0.0013
2526.00,0.0013
2525.00,0.0013
2524.00,0.0013
2523.00,0.0013
2522.00,0.0012
2521.00,0.0011
2520.00,0.0011
2519.00,0.0010
2518.00,0.0011
2517.00,0.0011
2516.00,0.0010
2515.00,0.0010
2514.00,0.0010
2513.00,0.0010
2512.00,0.0010
2511.00,0.0010
2510.00,0.0010
2509.00,0.0010
2508.00,0.0009
2507.00,0.0009
2506.00,0.0010
2505.00,0.0010
2504.00,0.0009
2503.00,0.0009
2502.00,0.0009
2501.00,0.0008
2500.00,0.0008
2499.00,0.0008
2498.00,0.0009
2497.00,0.0009
2496.00,0.0010
2495.00,0.0010
2494.00,0.0009
2493.00,0.0010
2492.00,0.0010
2491.00,0.0010
2490.00,0.0010
2489.00,0.0009
2488.00,0.0009
2487.00,0.0009
2486.00,0.0009
2485.00,0.0009
2484.00,0.0009
2483.00,0.0009
2482.00,0.0009
2481.00,0.0009
2480.00,0.0009
2479.00,0.0008
2478.00,0.0008
2477.00,0.0008
2476.00,0.0008
2475.00,0.0009
2474.00,0.0009
2473.00,0.0009
2472.00,0.0009
2471.00,0.0008
2470.00,0.0008
2469.00,0.0008
2468.00,0.0008
2467.00,0.0008
2466.00,0.0008
2465.00,0.0007
2464.00,0.0007
2463.00,0.0007
2462.00,0.0008
2461.00,0.0009
2460.00,0.0011
2459.00,0.0012
2458.00,0.0012
2457.00,0.0011
2456.00,0.0011
2455.00,0.0010
2454.00,0.0010
2453.00,0.0010
2452.00,0.0010
2451.00,0.0010
2450.00,0.0010
2449.00,0.0010
2448.00,0.0010
2447.00,0.0010
2446.00,0.0010
2445.00,0.0010
2444.00,0.0010
2443.00,0.0010
2442.00,0.0009
2441.00,0.0009
2440.00,0.0009
2439.00,0.0009
2438.00,0.0009
2437.00,0.0009
2436.00,0.0009
2435.00,0.0010
2434.00,0.0010
2433.00,0.0010
2432.00,0.0011
2431.00,0.0011
2430.00,0.0012
2429.00,0.0012
2428.00,0.0012
2427.00,0.0012
2426.00,0.0011
2425.00,0.0010
2424.00,0.0010
2423.00,0.0010
2422.00,0.0010
2421.00,0.0010
2420.00,0.0010
2419.00,0.0010
2418.00,0.0009
2417.00,0.0009
2416.00,0.0009
2415.00,0.0008
2414.00,0.0008
2413.00,0.0009
2412.00,0.0009
2411.00,0.0009
2410.00,0.0010
2409.00,0.0009
2408.00,0.0009
2407.00,0.0009
2406.00,0.0008
2405.00,0.0008
2404.00,0.0007
2403.00,0.0007
2402.00,0.0007
2401.00,0.0007
2400.00,0.0007
2399.00,0.0006
2398.00,0.0006
2397.00,0.0006
2396.00,0.0006
2395.00,0.0006
2394.00,0.0006
2393.00,0.0006
2392.00,0.0006
2391.00,0.0006
2390.00,0.0005
2389.00,0.0005
2388.00,0.0005
2387.00,0.0005
2386.00,0.0005
2385.00,0.0004
2384.00,0.0004
2383.00,0.0003
2382.00,0.0002
2381.00,0.0001
2380.00,0.0001
2379.00,0.0001
2378.00,0.0001
2377.00,0.0002
2376.00,0.0002
2375.00,0.0002
2374.00,0.0002
2373.00,0.0001
2372.00,0.0000
2371.00,-0.0001
2370.00,-0.0002
2369.00,-0.0002
2368.00,-0.0002
2367.00,-0.0002
2366.00,-0.0002
2365.00,-0.0001
2364.00,-0.0001
2363.00,-0.0000
2362.00,0.0000
2361.00,0.0001
2360.00,0.0001
2359.00,0.0001
2358.00,0.0001
2357.00,0.0001
2356.00,0.0000
2355.00,0.0000
2354.00,0.0000
2353.00,0.0000
2352.00,-0.0000
2351.00,-0.0000
2350.00,0.0001
2349.00,0.0001
2348.00,0.0002
2347.00,0.0002
2346.00,0.0002
2345.00,0.0002
2344.00,0.0002
2343.00,0.0003
2342.00,0.0004
2341.00,0.0004
2340.00,0.0005
2339.00,0.0005
2338.00,0.0004
2337.00,0.0004
2336.00,0.0004
2335.00,0.0004
2334.00,0.0004
2333.00,0.0004
2332.00,0.0004
2331.00,0.0003
2330.00,0.0003
2329.00,0.0003
2328.00,0.0005
2327.00,0.0008
2326.00,0.0013
2325.00,0.0016
2324.00,0.0018
2323.00,0.0017
2322.00,0.0015
2321.00,0.0014
2320.00,0.0013
2319.00,0.0013
2318.00,0.0013
2317.00,0.0012
2316.00,0.0011
2315.00,0.0010
2314.00,0.0009
2313.00,0.0008
2312.00,0.0008
2311.00,0.0007
2310.00,0.0006
2309.00,0.0006
2308.00,0.0006
2307.00,0.0006
2306.00,0.0007
2305.00,0.0007
2304.00,0.0007
2303.00,0.0007
2302.00,0.0008
2301.00,0.0010
2300.00,0.0010
2299.00,0.0011
2298.00,0.0011
2297.00,0.0011
2296.00,0.0012
2295.00,0.0013
2294.00,0.0014
2293.00,0.0014
2292.00,0.0015
2291.00,0.0015
2290.00,0.0016
2289.00,0.0016
2288.00,0.0016
2287.00,0.0016
2286.00,0.0017
2285.00,0.0016
2284.00,0.0016
2283.00,0.0015
2282.00,0.0015
2281.00,0.0014
2280.00,0.0013
2279.00,0.0013
2278.00,0.0012
2277.00,0.0013
2276.00,0.0013
2275.00,0.0014
2274.00,0.0014
2273.00,0.0014
2272.00,0.0013
2271.00,0.0012
2270.00,0.0012
2269.00,0.0012
2268.00,0.0012
2267.00,0.0013
2266.00,0.0013
2265.00,0.0013
2264.00,0.0013
2263.00,0.0013
2262.00,0.0013
2261.00,0.0014
2260.00,0.0014
2259.00,0.0015
2258.00,0.0015
2257.00,0.0013
2256.00,0.0012
2255.00,0.0011
2254.00,0.0010
2253.00,0.0010
2252.00,0.0009
2251.00,0.0008
2250.00,0.0008
2249.00,0.0008
2248.00,0.0008
2247.00,0.0009
2246.00,0.0010
2245.00,0.0011
2244.00,0.0011
2243.00,0.0010
2242.00,0.0010
2241.00,0.0010
2240.00,0.0011
2239.00,0.0011
2238.00,0.0011
2237.00,0.0009
2236.00,0.0008
2235.00,0.0007
2234.00,0.0007
2233.00,0.0008
2232.00,0.0009
2231.00,0.0009
2230.00,0.0009
2229.00,0.0010
2228.00,0.0009
2227.00,0.0008
2226.00,0.0007
2225.00,0.0005
2224.00,0.0005
2223.00,0.0005
2222.00,0.0005
2221.00,0.0006
2220.00,0.0006
2219.00,0.0006
2218.00,0.0006
2217.00,0.0005
2216.00,0.0005
2215.00,0.0004
2214.00,0.0005
2213.00,0.0006
2212.00,0.0007
2211.00,0.0007
2210.00,0.0006
2209.00,0.0004
2208.00,0.0003
2207.00,0.0002
2206.00,0.0002
2205.00,0.0003
2204.00,0.0005
2203.00,0.0006
2202.00,0.0007
2201.00,0.0008
2200.00,0.0009
2199.00,0.0011
2198.00,0.0013
2197.00,0.0013
2196.00,0.0012
2195.00,0.0010
2194.00,0.0009
2193.00,0.0009
2192.00,0.0010
2191.00,0.0010
2190.00,0.0010
2189.00,0.0011
2188.00,0.0012
2187.00,0.0013
2186.00,0.0013
2185.00,0.0014
2184.00,0.0013
2183.00,0.0011
2182.00,0.0009
2181.00,0.0005
2180.00,0.0001
2179.00,-0.0002
2178.00,-0.0002
2177.00,-0.0001
2176.00,0.0000
2175.00,0.0002
2174.00,0.0003
2173.00,0.0005
2172.00,0.0007
2171.00,0.0008
2170.00,0.0009
2169.00,0.0012
2168.00,0.0015
2167.00,0.0018
2166.00,0.0019
2165.00,0.0018
2164.00,0.0018
2163.00,0.0019
2162.00,0.0020
2161.00,0.0018
2160.00,0.0009
2159.00,-0.0004
2158.00,-0.0016
2157.00,-0.0021
2156.00,-0.0023
2155.00,-0.0023
2154.00,-0.0022
2153.00,-0.0020
2152.00,-0.0018
2151.00,-0.0017
2150.00,-0.0017
2149.00,-0.0017
2148.00,-0.0017
2147.00,-0.0017
2146.00,-0.0017
2145.00,-0.0016
2144.00,-0.0014
2143.00,-0.0013
2142.00,-0.0012
2141.00,-0.0013
2140.00,-0.0015
2139.00,-0.0016
2138.00,-0.0018
2137.00,-0.0018
2136.00,-0.0018
2135.00,-0.0019
2134.00,-0.0021
2133.00,-0.0022
2132.00,-0.0021
2131.00,-0.0018
2130.00,-0.0014
2129.00,-0.0010
2128.00,-0.0008
2127.00,-0.0006
2126.00,-0.0005
2125.00,-0.0005
2124.00,-0.0006
2123.00,-0.0007
2122.00,-0.0007
2121.00,-0.0006
2120.00,-0.0005
2119.00,-0.0004
2118.00,-0.0004
2117.00,-0.0004
2116.00,-0.0004
2115.00,-0.0002
2114.00,-0.0001
2113.00,0.0001
2112.00,0.0002
2111.00,0.0004
2110.00,0.0004
2109.00,0.0003
2108.00,0.0001
2107.00,0.0000
2106.00,-0.0000
2105.00,0.0000
2104.00,0.0001
2103.00,0.0002
2102.00,0.0003
2101.00,0.0004
2100.00,0.0004
2099.00,0.0003
2098.00,0.0003
2097.00,0.0002
2096.00,0.0001
2095.00,-0.0000
2094.00,-0.0001
2093.00,-0.0001
2092.00,-0.0001
2091.00,0.0001
2090.00,0.0001
2089.00,0.0001
2088.00,-0.0000
2087.00,-0.0001
2086.00,-0.0002
2085.00,-0.0002
2084.00,-0.0001
2083.00,-0.0001
2082.00,-0.0000
2081.00,0.0001
2080.00,0.0002
2079.00,0.0003
2078.00,0.0003
2077.00,0.0003
2076.00,0.0003
2075.00,0.0002
2074.00,0.0001
2073.00,0.0000
2072.00,-0.0000
2071.00,-0.0001
2070.00,-0.0001
2069.00,-0.0001
2068.00,0.0001
2067.00,0.0002
2066.00,0.0002
2065.00,0.0000
2064.00,-0.0001
2063.00,-0.0002
2062.00,-0.0001
2061.00,0.0001
2060.00,0.0002
2059.00,0.0003
2058.00,0.0002
2057.00,0.0002
2056.00,0.0002
2055.00,0.0002
2054.00,0.0003
2053.00,0.0007
2052.00,0.0012
2051.00,0.0015
2050.00,0.0014
2049.00,0.0010
2048.00,0.0006
2047.00,0.0002
2046.00,0.0001
2045.00,0.0001
2044.00,0.0003
2043.00,0.0005
2042.00,0.0006
2041.00,0.0006
2040.00,0.0006
2039.00,0.0004
2038.00,0.0002
2037.00,0.0000
2036.00,-0.0001
2035.00,-0.0001
2034.00,-0.0002
2033.00,-0.0003
2032.00,-0.0005
2031.00,-0.0007
2030.00,-0.0008
2029.00,-0.0009
2028.00,-0.0008
2027.00,-0.0007
2026.00,-0.0008
2025.00,-0.0009
2024.00,-0.0010
2023.00,-0.0011
2022.00,-0.0012
2021.00,-0.0014
2020.00,-0.0015
2019.00,-0.0015
2018.00,-0.0014
2017.00,-0.0011
2016.00,-0.0007
2015.00,-0.0003
2014.00,-0.0002
2013.00,-0.0003
2012.00,-0.0006
2011.00,-0.0010
2010.00,-0.0013
2009.00,-0.0016
2008.00,-0.0019
2007.00,-0.0022
2006.00,-0.0025
2005.00,-0.0025
2004.00,-0.0024
2003.00,-0.0021
2002.00,-0.0017
2001.00,-0.0014
2000.00,-0.0012
1999.00,-0.0011
1998.00,-0.0011
1997.00,-0.0011
1996.00,-0.0011
1995.00,-0.0009
1994.00,-0.0007
1993.00,-0.0004
1992.00,-0.0002
1991.00,-0.0001
1990.00,-0.0002
1989.00,-0.0003
1988.00,-0.0005
1987.00,-0.0006
1986.00,-0.0006
1985.00,-0.0003
1984.00,0.0001
1983.00,0.0005
1982.00,0.0009
1981.00,0.0010
1980.00,0.0008
1979.00,0.0003
1978.00,-0.0005
1977.00,-0.0012
1976.00,-0.0016
1975.00,-0.0017
1974.00,-0.0016
1973.00,-0.0016
1972.00,-0.0015
1971.00,-0.0014
1970.00,-0.0014
1969.00,-0.0014
1968.00,-0.0013
1967.00,-0.0012
1966.00,-0.0010
1965.00,-0.0008
1964.00,-0.0006
1963.00,-0.0005
1962.00,-0.0005
1961.00,-0.0006
1960.00,-0.0009
1959.00,-0.0013
1958.00,-0.0016
1957.00,-0.0018
1956.00,-0.0020
1955.00,-0.0021
1954.00,-0.0021
1953.00,-0.0020
1952.00,-0.0019
1951.00,-0.0018
1950.00,-0.0018
1949.00,-0.0018
1948.00,-0.0017
1947.00,-0.0017
1946.00,-0.0016
1945.00,-0.0015
1944.00,-0.0015
1943.00,-0.0014
1942.00,-0.0014
1941.00,-0.0013
1940.00,-0.0013
1939.00,-0.0011
1938.00,-0.0009
1937.00,-0.0007
1936.00,-0.0006
1935.00,-0.0006
1934.00,-0.0007
1933.00,-0.0008
1932.00,-0.0009
1931.00,-0.0011
1930.00,-0.0013
1929.00,-0.0013
1928.00,-0.0012
1927.00,-0.0011
1926.00,-0.0009
1925.00,-0.0008
1924.00,-0.0006
1923.00,-0.0006
1922.00,-0.0005
1921.00,-0.0005
1920.00,-0.0005
1919.00,-0.0005
1918.00,-0.0006
1917.00,-0.0005
1916.00,-0.0005
1915.00,-0.0004
1914.00,-0.0003
1913.00,-0.0003
1912.00,-0.0003
1911.00,-0.0004
1910.00,-0.0004
1909.00,-0.0004
1908.00,-0.0004
1907.00,-0.0004
1906.00,-0.0003
1905.00,-0.0003
1904.00,-0.0002
1903.00,-0.0002
1902.00,-0.0001
1901.00,-0.0001
1900.00,-0.0001
1899.00,-0.0002
1898.00,-0.0002
1897.00,-0.0002
1896.00,-0.0001
1895.00,-0.0001
1894.00,-0.0001
1893.00,-0.0001
1892.00,-0.0001
1891.00,-0.0001
1890.00,-0.0001
1889.00,-0.0000
1888.00,-0.0000
1887.00,-0.0001
1886.00,-0.0002
1885.00,-0.0003
1884.00,-0.0003
1883.00,-0.0004
1882.00,-0.0004
1881.00,-0.0004
1880.00,-0.0003
1879.00,-0.0003
1878.00,-0.0002
1877.00,-0.0002
1876.00,-0.0002
1875.00,-0.0002
1874.00,-0.0002
1873.00,-0.0003
1872.00,-0.0003
1871.00,-0.0003
1870.00,-0.0003
1869.00,-0.0002
1868.00,-0.0001
1867.00,-0.0000
1866.00,-0.0000
1865.00,0.0000
1864.00,0.0000
1863.00,-0.0000
1862.00,-0.0001
1861.00,-0.0001
1860.00,-0.0001
1859.00,0.0000
1858.00,0.0001
1857.00,0.0001
1856.00,0.0002
1855.00,0.0001
1854.00,0.0001
1853.00,0.0000
1852.00,0.0000
1851.00,0.0001
1850.00,0.0001
1849.00,0.0001
1848.00,0.0001
1847.00,0.0002
1846.00,0.0002
1845.00,0.0002
1844.00,0.0002
1843.00,0.0002
1842.00,0.0001
1841.00,-0.0000
1840.00,-0.0001
1839.00,-0.0001
1838.00,-0.0000
1837.00,0.0001
1836.00,0.0001
1835.00,0.0001
1834.00,0.0001
1833.00,0.0001
1832.00,0.0002
1831.00,0.0002
1830.00,0.0002
1829.00,0.0002
1828.00,0.0003
1827.00,0.0003
1826.00,0.0004
1825.00,0.0004
1824.00,0.0003
1823.00,0.0003
1822.00,0.0003
1821.00,0.0002
1820.00,0.0001
1819.00,0.0001
1818.00,-0.0000
1817.00,-0.0001
1816.00,-0.0001
1815.00,-0.0000
1814.00,0.0000
1813.00,0.0001
1812.00,0.0002
1811.00,0.0002
1810.00,0.0003
1809.00,0.0003
1808.00,0.0004
1807.00,0.0004
1806.00,0.0004
1805.00,0.0005
1804.00,0.0005
1803.00,0.0005
1802.00,0.0005
1801.00,0.0004
1800.00,0.0004
1799.00,0.0004
1798.00,0.0005
1797.00,0.0005
1796.00,0.0005
1795.00,0.0005
1794.00,0.0004
1793.00,0.0004
1792.00,0.0004
1791.00,0.0005
1790.00,0.0005
1789.00,0.0006
1788.00,0.0006
1787.00,0.0006
1786.00,0.0005
1785.00,0.0005
1784.00,0.0006
1783.00,0.0006
1782.00,0.0005
1781.00,0.0005
1780.00,0.0005
1779.00,0.0005
1778.00,0.0005
1777.00,0.0005
1776.00,0.0005
1775.00,0.0006
1774.00,0.0006
1773.00,0.0006
1772.00,0.0007
1771.00,0.0008
1770.00,0.0008
1769.00,0.0008
1768.00,0.0009
1767.00,0.0009
1766.00,0.0009
1765.00,0.0008
1764.00,0.0008
1763.00,0.0008
1762.00,0.0008
1761.00,0.0008
1760.00,0.0008
1759.00,0.0008
1758.00,0.0008
1757.00,0.0009
1756.00,0.0009
1755.00,0.0009
1754.00,0.0010
1753.00,0.0010
1752.00,0.0011
1751.00,0.0012
1750.00,0.0012
1749.00,0.0012
1748.00,0.0012
1747.00,0.0013
1746.00,0.0013
1745.00,0.0013
1744.00,0.0013
1743.00,0.0013
1742.00,0.0013
1741.00,0.0013
1740.00,0.0014
1739.00,0.0015
1738.00,0.0015
1737.00,0.0015
1736.00,0.0015
1735.00,0.0015
1734.00,0.0015
1733.00,0.0015
1732.00,0.0015
1731.00,0.0015
1730.00,0.0015
1729.00,0.0015
1728.00,0.0016
1727.00,0.0016
1726.00,0.0016
1725.00,0.0017
1724.00,0.0018
1723.00,0.0018
1722.00,0.0019
1721.00,0.0019
1720.00,0.0019
1719.00,0.0019
1718.00,0.0018
1717.00,0.0018
1716.00,0.0018
1715.00,0.0018
1714.00,0.0018
1713.00,0.0018
1712.00,0.0019
1711.00,0.0019
1710.00,0.0019
1709.00,0.0019
1708.00,0.0019
1707.00,0.0020
1706.00,0.0020
1705.00,0.0020
1704.00,0.0021
1703.00,0.0021
1702.00,0.0021
1701.00,0.0021
1700.00,0.0022
1699.00,0.0022
1698.00,0.0022
1697.00,0.0022
1696.00,0.0023
1695.00,0.0023
1694.00,0.0024
1693.00,0.0024
1692.00,0.0025
1691.00,0.0025
1690.00,0.0026
1689.00,0.0027
1688.00,0.0028
1687.00,0.0028
1686.00,0.0028
1685.00,0.0028
1684.00,0.0029
1683.00,0.0029
1682.00,0.0029
1681.00,0.0030
1680.00,0.0031
1679.00,0.0032
1678.00,0.0032
1677.00,0.0033
1676.00,0.0034
1675.00,0.0034
1674.00,0.0034
1673.00,0.0035
1672.00,0.0035
1671.00,0.0036
1670.00,0.0037
1669.00,0.0037
1668.00,0.0038
1667.00,0.0038
1666.00,0.0038
1665.00,0.0038
1664.00,0.0038
1663.00,0.0038
1662.00,0.0038
1661.00,0.0039
1660.00,0.0039
1659.00,0.0040
1658.00,0.0040
1657.00,0.0041
1656.00,0.0042
1655.00,0.0042
1654.00,0.0043
1653.00,0.0045
1652.00,0.0046
1651.00,0.0047
1650.00,0.0047
1649.00,0.0049
1648.00,0.0051
1647.00,0.0054
1646.00,0.0056
1645.00,0.0056
1644.00,0.0056
1643.00,0.0055
1642.00,0.0055
1641.00,0.0054
1640.00,0.0054
1639.00,0.0054
1638.00,0.0054
1637.00,0.0054
1636.00,0.0055
1635.00,0.0054
1634.00,0.0054
1633.00,0.0054
1632.00,0.0053
1631.00,0.0053
1630.00,0.0052
1629.00,0.0052
1628.00,0.0051
1627.00,0.0051
1626.00,0.0050
1625.00,0.0050
1624.00,0.0049
1623.00,0.0049
1622.00,0.0049
1621.00,0.0049
1620.00,0.0049
1619.00,0.0048
1618.00,0.0047
1617.00,0.0047
1616.00,0.0047
1615.00,0.0047
1614.00,0.0047
1613.00,0.0047
1612.00,0.0047
1611.00,0.0047
1610.00,0.0046
1609.00,0.0046
1608.00,0.0046
1607.00,0.0046
1606.00,0.0046
1605.00,0.0046
1604.00,0.0046
1603.00,0.0046
1602.00,0.0046
1601.00,0.0046
1600.00,0.0046
1599.00,0.0045
1598.00,0.0045
1597.00,0.0045
1596.00,0.0045
1595.00,0.0045
1594.00,0.0045
1593.00,0.0045
1592.00,0.0045
1591.00,0.0045
1590.00,0.0045
1589.00,0.0046
1588.00,0.0047
1587.00,0.0047
1586.00,0.0048
1585.00,0.0049
1584.00,0.0050
1583.00,0.0051
1582.00,0.0052
1581.00,0.0053
1580.00,0.0055
1579.00,0.0056
1578.00,0.0057
1577.00,0.0057
1576.00,0.0058
1575.00,0.0058
1574.00,0.0057
1573.00,0.0057
1572.00,0.0056
1571.00,0.0056
1570.00,0.0055
1569.00,0.0055
1568.00,0.0055
1567.00,0.0055
1566.00,0.0054
1565.00,0.0055
1564.00,0.0055
1563.00,0.0054
1562.00,0.0054
1561.00,0.0055
1560.00,0.0055
1559.00,0.0055
1558.00,0.0055
1557.00,0.0056
1556.00,0.0056
1555.00,0.0057
1554.00,0.0057
1553.00,0.0058
1552.00,0.0059
1551.00,0.0060
1550.00,0.0061
1549.00,0.0062
1548.00,0.0063
1547.00,0.0064
1546.00,0.0065
1545.00,0.0067
1544.00,0.0067
1543.00,0.0067
1542.00,0.0067
1541.00,0.0068
1540.00,0.0068
1539.00,0.0066
1538.00,0.0063
1537.00,0.0061
1536.00,0.0060
1535.00,0.0058
1534.00,0.0055
1533.00,0.0053
1532.00,0.0051
1531.00,0.0050
1530.00,0.0049
1529.00,0.0049
1528.00,0.0050
1527.00,0.0050
1526.00,0.0049
1525.00,0.0050
1524.00,0.0050
1523.00,0.0050
1522.00,0.0050
1521.00,0.0050
1520.00,0.0051
1519.00,0.0050
1518.00,0.0050
1517.00,0.0051
1516.00,0.0052
1515.00,0.0052
1514.00,0.0052
1513.00,0.0053
1512.00,0.0054
1511.00,0.0054
1510.00,0.0055
1509.00,0.0056
1508.00,0.0058
1507.00,0.0059
1506.00,0.0059
1505.00,0.0060
1504.00,0.0061
1503.00,0.0062
1502.00,0.0064
1501.00,0.0066
1500.00,0.0069
1499.00,0.0071
1498.00,0.0073
1497.00,0.0076
1496.00,0.0080
1495.00,0.0082
1494.00,0.0085
1493.00,0.0089
1492.00,0.0093
1491.00,0.0096
1490.00,0.0100
1489.00,0.0105
1488.00,0.0110
1487.00,0.0115
1486.00,0.0120
1485.00,0.0127
1484.00,0.0134
1483.00,0.0142
1482.00,0.0151
1481.00,0.0163
1480.00,0.0175
1479.00,0.0188
1478.00,0.0204
1477.00,0.0225
1476.00,0.0252
1475.00,0.0283
1474.00,0.0324
1473.00,0.0382
1472.00,0.0451
1471.00,0.0517
1470.00,0.0582
1469.00,0.0651
1468.00,0.0725
1467.00,0.0807
1466.00,0.0899
1465.00,0.0998
1464.00,0.1083
1463.00,0.1141
1462.00,0.1177
1461.00,0.1200
1460.00,0.1213
1459.00,0.1219
1458.00,0.1220
1457.00,0.1216
1456.00,0.1204
1455.00,0.1188
1454.00,0.1169
1453.00,0.1145
1452.00,0.1112
1451.00,0.1069
1450.00,0.1013
1449.00,0.0940
1448.00,0.0850
1447.00,0.0758
1446.00,0.0675
1445.00,0.0605
1444.00,0.0546
1443.00,0.0499
1442.00,0.0463
1441.00,0.0439
1440.00,0.0426
1439.00,0.0422
1438.00,0.0426
1437.00,0.0431
1436.00,0.0426
1435.00,0.0403
1434.00,0.0367
1433.00,0.0323
1432.00,0.0276
1431.00,0.0235
1430.00,0.0203
1429.00,0.0180
1428.00,0.0164
1427.00,0.0154
1426.00,0.0147
1425.00,0.0140
1424.00,0.0134
1423.00,0.0130
1422.00,0.0129
1421.00,0.0126
1420.00,0.0124
1419.00,0.0121
1418.00,0.0120
1417.00,0.0117
1416.00,0.0113
1415.00,0.0112
1414.00,0.0110
1413.00,0.0109
1412.00,0.0107
1411.00,0.0106
1410.00,0.0105
1409.00,0.0104
1408.00,0.0104
1407.00,0.0104
1406.00,0.0105
1405.00,0.0105
1404.00,0.0104
1403.00,0.0104
1402.00,0.0105
1401.00,0.0106
1400.00,0.0106
1399.00,0.0108
1398.00,0.0111
1397.00,0.0113
1396.00,0.0115
1395.00,0.0119
1394.00,0.0124
1393.00,0.0128
1392.00,0.0133
1391.00,0.0140
1390.00,0.0151
1389.00,0.0165
1388.00,0.0186
1387.00,0.0216
1386.00,0.0258
1385.00,0.0314
1384.00,0.0392
1383.00,0.0504
1382.00,0.0657
1381.00,0.0859
1380.00,0.1114
1379.00,0.1410
1378.00,0.1704
1377.00,0.1927
1376.00,0.2012
1375.00,0.1919
1374.00,0.1677
1373.00,0.1379
1372.00,0.1103
1371.00,0.0876
1370.00,0.0696
1369.00,0.0561
1368.00,0.0469
1367.00,0.0413
1366.00,0.0382
1365.00,0.0370
1364.00,0.0373
1363.00,0.0388
1362.00,0.0411
1361.00,0.0436
1360.00,0.0454
1359.00,0.0460
1358.00,0.0450
1357.00,0.0423
1356.00,0.0386
1355.00,0.0343
1354.00,0.0302
1353.00,0.0266
1352.00,0.0238
1351.00,0.0215
1350.00,0.0196
1349.00,0.0181
1348.00,0.0168
1347.00,0.0158
1346.00,0.0148
1345.00,0.0140
1344.00,0.0134
1343.00,0.0129
1342.00,0.0125
1341.00,0.0122
1340.00,0.0119
1339.00,0.0117
1338.00,0.0115
1337.00,0.0115
1336.00,0.0115
1335.00,0.0117
1334.00,0.0120
1333.00,0.0124
1332.00,0.0129
1331.00,0.0132
1330.00,0.0133
1329.00,0.0132
1328.00,0.0128
1327.00,0.0123
1326.00,0.0117
1325.00,0.0111
1324.00,0.0105
1323.00,0.0100
1322.00,0.0096
1321.00,0.0093
1320.00,0.0091
1319.00,0.0089
1318.00,0.0087
1317.00,0.0086
1316.00,0.0085
1315.00,0.0084
1314.00,0.0084
1313.00,0.0083
1312.00,0.0083
1311.00,0.0084
1310.00,0.0087
1309.00,0.0091
1308.00,0.0098
1307.00,0.0105
1306.00,0.0113
1305.00,0.0119
1304.00,0.0122
1303.00,0.0121
1302.00,0.0119
1301.00,0.0118
1300.00,0.0119
1299.00,0.0121
1298.00,0.0123
1297.00,0.0124
1296.00,0.0124
1295.00,0.0121
1294.00,0.0117
1293.00,0.0112
1292.00,0.0107
1291.00,0.0101
1290.00,0.0096
1289.00,0.0093
1288.00,0.0089
1287.00,0.0087
1286.00,0.0084
1285.00,0.0082
1284.00,0.0081
1283.00,0.0080
1282.00,0.0078
1281.00,0.0077
1280.00,0.0076
1279.00,0.0075
1278.00,0.0074
1277.00,0.0073
1276.00,0.0073
1275.00,0.0073
1274.00,0.0073
1273.00,0.0073
1272.00,0.0073
1271.00,0.0074
1270.00,0.0075
1269.00,0.0077
1268.00,0.0079
1267.00,0.0082
1266.00,0.0085
1265.00,0.0088
1264.00,0.0090
1263.00,0.0093
1262.00,0.0096
1261.00,0.0098
1260.00,0.0102
1259.00,0.0106
1258.00,0.0110
1257.00,0.0113
1256.00,0.0114
1255.00,0.0111
1254.00,0.0106
1253.00,0.0100
1252.00,0.0093
1251.00,0.0089
1250.00,0.0085
1249.00,0.0082
1248.00,0.0079
1247.00,0.0077
1246.00,0.0076
1245.00,0.0074
1244.00,0.0073
1243.00,0.0073
1242.00,0.0072
1241.00,0.0072
1240.00,0.0071
1239.00,0.0070
1238.00,0.0070
1237.00,0.0069
1236.00,0.0069
1235.00,0.0069
1234.00,0.0069
1233.00,0.0069
1232.00,0.0070
1231.00,0.0071
1230.00,0.0072
1229.00,0.0073
1228.00,0.0074
1227.00,0.0076
1226.00,0.0078
1225.00,0.0081
1224.00,0.0085
1223.00,0.0089
1222.00,0.0093
1221.00,0.0096
1220.00,0.0098
1219.00,0.0098
1218.00,0.0097
1217.00,0.0095
1216.00,0.0092
1215.00,0.0089
1214.00,0.0086
1213.00,0.0083
1212.00,0.0081
1211.00,0.0079
1210.00,0.0077
1209.00,0.0075
1208.00,0.0073
1207.00,0.0072
1206.00,0.0071
1205.00,0.0070
1204.00,0.0070
1203.00,0.0069
1202.00,0.0069
1201.00,0.0068
1200.00,0.0068
1199.00,0.0068
1198.00,0.0068
1197.00,0.0068
1196.00,0.0068
1195.00,0.0068
1194.00,0.0068
1193.00,0.0068
1192.00,0.0068
1191.00,0.0068
1190.00,0.0068
1189.00,0.0067
1188.00,0.0067
1187.00,0.0066
1186.00,0.0067
1185.00,0.0067
1184.00,0.0068
1183.00,0.0069
1182.00,0.0070
1181.00,0.0072
1180.00,0.0075
1179.00,0.0078
1178.00,0.0083
1177.00,0.0088
1176.00,0.0095
1175.00,0.0106
1174.00,0.0120
1173.00,0.0138
1172.00,0.0158
1171.00,0.0181
1170.00,0.0202
1169.00,0.0219
1168.00,0.0230
1167.00,0.0234
1166.00,0.0232
1165.00,0.0225
1164.00,0.0216
1163.00,0.0207
1162.00,0.0198
1161.00,0.0191
1160.00,0.0186
1159.00,0.0183
1158.00,0.0182
1157.00,0.0181
1156.00,0.0181
1155.00,0.0181
1154.00,0.0181
1153.00,0.0180
1152.00,0.0178
1151.00,0.0173
1150.00,0.0165
1149.00,0.0156
1148.00,0.0146
1147.00,0.0137
1146.00,0.0129
1145.00,0.0122
1144.00,0.0116
1143.00,0.0110
1142.00,0.0104
1141.00,0.0099
1140.00,0.0095
1139.00,0.0091
1138.00,0.0087
1137.00,0.0083
1136.00,0.0081
1135.00,0.0079
1134.00,0.0078
1133.00,0.0077
1132.00,0.0076
1131.00,0.0076
1130.00,0.0076
1129.00,0.0076
1128.00,0.0076
1127.00,0.0076
1126.00,0.0077
1125.00,0.0078
1124.00,0.0078
1123.00,0.0079
1122.00,0.0079
1121.00,0.0079
1120.00,0.0079
1119.00,0.0080
1118.00,0.0080
1117.00,0.0081
1116.00,0.0083
1115.00,0.0084
1114.00,0.0087
1113.00,0.0089
1112.00,0.0092
1111.00,0.0096
1110.00,0.0099
1109.00,0.0103
1108.00,0.0108
1107.00,0.0115
1106.00,0.0121
1105.00,0.0128
1104.00,0.0133
1103.00,0.0136
1102.00,0.0136
1101.00,0.0132
1100.00,0.0126
1099.00,0.0119
1098.00,0.0112
1097.00,0.0107
1096.00,0.0103
1095.00,0.0099
1094.00,0.0096
1093.00,0.0094
1092.00,0.0091
1091.00,0.0089
1090.00,0.0087
1089.00,0.0086
1088.00,0.0084
1087.00,0.0083
1086.00,0.0083
1085.00,0.0082
1084.00,0.0081
1083.00,0.0081
1082.00,0.0081
1081.00,0.0080
1080.00,0.0079
1079.00,0.0079
1078.00,0.0079
1077.00,0.0078
1076.00,0.0076
1075.00,0.0075
1074.00,0.0075
1073.00,0.0075
1072.00,0.0074
1071.00,0.0073
1070.00,0.0072
1069.00,0.0071
1068.00,0.0071
1067.00,0.0070
1066.00,0.0070
1065.00,0.0070
1064.00,0.0071
1063.00,0.0071
1062.00,0.0071
1061.00,0.0071
1060.00,0.0071
1059.00,0.0071
1058.00,0.0071
1057.00,0.0072
1056.00,0.0073
1055.00,0.0074
1054.00,0.0075
1053.00,0.0077
1052.00,0.0079
1051.00,0.0080
1050.00,0.0081
1049.00,0.0081
1048.00,0.0082
1047.00,0.0084
1046.00,0.0086
1045.00,0.0088
1044.00,0.0088
1043.00,0.0088
1042.00,0.0088
1041.00,0.0087
1040.00,0.0086
1039.00,0.0085
1038.00,0.0085
1037.00,0.0085
1036.00,0.0086
1035.00,0.0086
1034.00,0.0085
1033.00,0.0083
1032.00,0.0081
1031.00,0.0079
1030.00,0.0078
1029.00,0.0077
1028.00,0.0077
1027.00,0.0077
1026.00,0.0077
1025.00,0.0077
1024.00,0.0077
1023.00,0.0078
1022.00,0.0078
1021.00,0.0078
1020.00,0.0079
1019.00,0.0080
1018.00,0.0081
1017.00,0.0082
1016.00,0.0082
1015.00,0.0082
1014.00,0.0083
1013.00,0.0084
1012.00,0.0085
1011.00,0.0087
1010.00,0.0089
1009.00,0.0092
1008.00,0.0096
1007.00,0.0100
1006.00,0.0106
1005.00,0.0114
1004.00,0.0125
1003.00,0.0141
1002.00,0.0161
1001.00,0.0186
1000.00,0.0211
999.00,0.0232
998.00,0.0242
997.00,0.0235
996.00,0.0216
995.00,0.0190
994.00,0.0164
993.00,0.0141
992.00,0.0124
991.00,0.0110
990.00,0.0101
989.00,0.0095
988.00,0.0092
987.00,0.0091
986.00,0.0092
985.00,0.0095
984.00,0.0099
983.00,0.0105
982.00,0.0114
981.00,0.0126
980.00,0.0144
979.00,0.0167
978.00,0.0196
977.00,0.0230
976.00,0.0264
975.00,0.0294
974.00,0.0314
973.00,0.0317
972.00,0.0303
971.00,0.0273
970.00,0.0236
969.00,0.0200
968.00,0.0169
967.00,0.0147
966.00,0.0130
965.00,0.0118
964.00,0.0109
963.00,0.0102
962.00,0.0097
961.00,0.0092
960.00,0.0088
959.00,0.0083
958.00,0.0080
957.00,0.0078
956.00,0.0078
955.00,0.0077
954.00,0.0076
953.00,0.0076
952.00,0.0075
951.00,0.0074
950.00,0.0074
949.00,0.0073
948.00,0.0072
947.00,0.0072
946.00,0.0073
945.00,0.0076
944.00,0.0081
943.00,0.0086
942.00,0.0091
941.00,0.0093
940.00,0.0092
939.00,0.0089
938.00,0.0085
937.00,0.0080
936.00,0.0074
935.00,0.0070
934.00,0.0067
933.00,0.0065
932.00,0.0063
931.00,0.0062
930.00,0.0060
929.00,0.0059
928.00,0.0058
927.00,0.0058
926.00,0.0058
925.00,0.0058
924.00,0.0058
923.00,0.0058
922.00,0.0059
921.00,0.0059
920.00,0.0059
919.00,0.0059
918.00,0.0059
917.00,0.0060
916.00,0.0060
915.00,0.0062
914.00,0.0064
913.00,0.0067
912.00,0.0068
911.00,0.0069
910.00,0.0070
909.00,0.0071
908.00,0.0073
907.00,0.0078
906.00,0.0087
905.00,0.0099
904.00,0.0115
903.00,0.0134
902.00,0.0155
901.00,0.0174
900.00,0.0186
899.00,0.0188
898.00,0.0179
897.00,0.0163
896.00,0.0143
895.00,0.0123
894.00,0.0107
893.00,0.0095
892.00,0.0086
891.00,0.0080
890.00,0.0075
889.00,0.0072
888.00,0.0070
887.00,0.0070
886.00,0.0069
885.00,0.0069
884.00,0.0069
883.00,0.0070
882.00,0.0070
881.00,0.0070
880.00,0.0070
879.00,0.0070
878.00,0.0070
877.00,0.0070
876.00,0.0071
875.00,0.0072
874.00,0.0074
873.00,0.0075
872.00,0.0075
871.00,0.0075
870.00,0.0075
869.00,0.0074
868.00,0.0074
867.00,0.0074
866.00,0.0075
865.00,0.0076
864.00,0.0077
863.00,0.0078
862.00,0.0079
861.00,0.0079
860.00,0.0080
859.00,0.0081
858.00,0.0083
857.00,0.0084
856.00,0.0084
855.00,0.0085
854.00,0.0086
853.00,0.0087
852.00,0.0090
851.00,0.0093
850.00,0.0097
849.00,0.0100
848.00,0.0105
847.00,0.0112
846.00,0.0126
845.00,0.0147
844.00,0.0176
843.00,0.0208
842.00,0.0233
841.00,0.0239
840.00,0.0223
839.00,0.0193
838.00,0.0162
837.00,0.0138
836.00,0.0122
835.00,0.0113
834.00,0.0108
833.00,0.0104
832.00,0.0101
831.00,0.0099
830.00,0.0096
829.00,0.0094
828.00,0.0093
827.00,0.0093
826.00,0.0095
825.00,0.0096
824.00,0.0097
823.00,0.0097
822.00,0.0097
821.00,0.0099
820.00,0.0103
819.00,0.0108
818.00,0.0113
817.00,0.0119
816.00,0.0127
815.00,0.0139
814.00,0.0156
813.00,0.0176
812.00,0.0197
811.00,0.0218
810.00,0.0234
809.00,0.0241
808.00,0.0238
807.00,0.0224
806.00,0.0204
805.00,0.0183
804.00,0.0165
803.00,0.0150
802.00,0.0139
801.00,0.0130
800.00,0.0123
799.00,0.0117
798.00,0.0112
797.00,0.0108
796.00,0.0105
795.00,0.0102
794.00,0.0099
793.00,0.0096
792.00,0.0091
791.00,0.0086
790.00,0.0082
789.00,0.0079
788.00,0.0077
787.00,0.0076
786.00,0.0074
785.00,0.0072
784.00,0.0071
783.00,0.0070
782.00,0.0069
781.00,0.0068
780.00,0.0067
779.00,0.0066
778.00,0.0064
777.00,0.0063
776.00,0.0062
775.00,0.0061
774.00,0.0061
773.00,0.0062
772.00,0.0063
771.00,0.0063
770.00,0.0063
769.00,0.0064
768.00,0.0064
767.00,0.0064
766.00,0.0065
765.00,0.0064
764.00,0.0064
763.00,0.0064
762.00,0.0064
761.00,0.0065
760.00,0.0065
759.00,0.0065
758.00,0.0064
757.00,0.0063
756.00,0.0063
755.00,0.0065
754.00,0.0067
753.00,0.0070
752.00,0.0072
751.00,0.0073
750.00,0.0075
749.00,0.0077
748.00,0.0079
747.00,0.0081
746.00,0.0082
745.00,0.0084
744.00,0.0086
743.00,0.0088
742.00,0.0091
741.00,0.0094
740.00,0.0097
739.00,0.0099
738.00,0.0102
737.00,0.0106
736.00,0.0111
735.00,0.0116
734.00,0.0122
733.00,0.0128
732.00,0.0135
731.00,0.0143
730.00,0.0150
729.00,0.0154
728.00,0.0155
727.00,0.0155
726.00,0.0156
725.00,0.0159
724.00,0.0164
723.00,0.0171
722.00,0.0179
721.00,0.0186
720.00,0.0185
719.00,0.0177
718.00,0.0164
717.00,0.0150
716.00,0.0138
715.00,0.0128
714.00,0.0122
713.00,0.0117
712.00,0.0114
711.00,0.0111
710.00,0.0108
709.00,0.0105
708.00,0.0102
707.00,0.0101
706.00,0.0100
705.00,0.0099
704.00,0.0098
703.00,0.0097
702.00,0.0096
701.00,0.0096
700.00,0.0095
699.00,0.0094
698.00,0.0093
697.00,0.0091
696.00,0.0089
695.00,0.0088
694.00,0.0088
693.00,0.0089
692.00,0.0089
691.00,0.0091
690.00,0.0092
689.00,0.0092
688.00,0.0092
687.00,0.0091
686.00,0.0091
685.00,0.0092
684.00,0.0093
683.00,0.0092
682.00,0.0091
681.00,0.0091
680.00,0.0090
679.00,0.0090
678.00,0.0090
677.00,0.0088
676.00,0.0085
675.00,0.0083
674.00,0.0083
673.00,0.0084
672.00,0.0086
671.00,0.0087
670.00,0.0089
669.00,0.0092
668.00,0.0094
667.00,0.0095
666.00,0.0094
665.00,0.0092
664.00,0.0090
663.00,0.0089
662.00,0.0086
661.00,0.0081
660.00,0.0077
659.00,0.0075
658.00,0.0076
657.00,0.0078
656.00,0.0081
655.00,0.0083
654.00,0.0082
653.00,0.0081
652.00,0.0080
651.00,0.0080
650.00,0.0080
649.00,0.0081
648.00,0.0082
647.00,0.0082
646.00,0.0082
645.00,0.0082
644.00,0.0082
643.00,0.0082
642.00,0.0083
641.00,0.0084
640.00,0.0086
639.00,0.0086
638.00,0.0087
637.00,0.0087
636.00,0.0088
635.00,0.0087
634.00,0.0085
633.00,0.0082
632.00,0.0081
631.00,0.0081
630.00,0.0081
629.00,0.0081
628.00,0.0081
627.00,0.0081
626.00,0.0080
625.00,0.0080
624.00,0.0082
623.00,0.0085
622.00,0.0088
621.00,0.0089
620.00,0.0088
619.00,0.0085
618.00,0.0081
617.00,0.0078
616.00,0.0078
615.00,0.0079
614.00,0.0081
613.00,0.0082
612.00,0.0080
611.00,0.0077
610.00,0.0075
609.00,0.0075
608.00,0.0077
607.00,0.0079
606.00,0.0080
605.00,0.0080
604.00,0.0079
603.00,0.0080
602.00,0.0081
601.00,0.0082
600.00,0.0081
599.00,0.0079
598.00,0.0077
597.00,0.0077
596.00,0.0078
595.00,0.0079
594.00,0.0079
593.00,0.0077
592.00,0.0073
591.00,0.0070
590.00,0.0068
589.00,0.0069
588.00,0.0071
587.00,0.0071
586.00,0.0070
585.00,0.0069
584.00,0.0068
583.00,0.0067
582.00,0.0068
581.00,0.0070
580.00,0.0071
579.00,0.0072
578.00,0.0071
577.00,0.0071
576.00,0.0072
575.00,0.0074
574.00,0.0077
573.00,0.0080
572.00,0.0080
571.00,0.0080
570.00,0.0080
569.00,0.0082
568.00,0.0084
567.00,0.0087
566.00,0.0090
565.00,0.0090
564.00,0.0087
563.00,0.0081
562.00,0.0075
561.00,0.0071
560.00,0.0071
559.00,0.0072
558.00,0.0072
557.00,0.0071
556.00,0.0072
555.00,0.0073
554.00,0.0075
553.00,0.0078
552.00,0.0080
551.00,0.0082
550.00,0.0083
549.00,0.0082
548.00,0.0078
547.00,0.0074
546.00,0.0070
545.00,0.0067
544.00,0.0066
543.00,0.0066
542.00,0.0067
541.00,0.0068
540.00,0.0070
539.00,0.0073
538.00,0.0075
537.00,0.0078
536.00,0.0081
535.00,0.0084
534.00,0.0088
533.00,0.0092
532.00,0.0095
531.00,0.0096
530.00,0.0094
529.00,0.0091
528.00,0.0089
527.00,0.0090
526.00,0.0092
525.00,0.0094
524.00,0.0092
523.00,0.0088
522.00,0.0083
521.00,0.0080
520.00,0.0079
519.00,0.0079
518.00,0.0083
517.00,0.0090
516.00,0.0095
515.00,0.0095
514.00,0.0090
513.00,0.0084
512.00,0.0080
511.00,0.0078
510.00,0.0078
509.00,0.0079
508.00,0.0077
507.00,0.0073
506.00,0.0068
505.00,0.0067
504.00,0.0068
503.00,0.0068
502.00,0.0064
501.00,0.0059
500.00,0.0056
499.00,0.0057
498.00,0.0062
497.00,0.0070
496.00,0.0076
495.00,0.0080
494.00,0.0079
493.00,0.0075
492.00,0.0070
491.00,0.0066
490.00,0.0063
489.00,0.0062
488.00,0.0062
487.00,0.0063
486.00,0.0064
485.00,0.0065
484.00,0.0067
483.00,0.0070
482.00,0.0074
481.00,0.0076
480.00,0.0078
479.00,0.0081
478.00,0.0085
477.00,0.0089
476.00,0.0091
475.00,0.0087
474.00,0.0078
473.00,0.0065
472.00,0.0058
471.00,0.0062
470.00,0.0071
469.00,0.0081
468.00,0.0089
467.00,0.0097
466.00,0.0105
465.00,0.0114
464.00,0.0121
463.00,0.0129
462.00,0.0142
461.00,0.0156
460.00,0.0170
459.00,0.0180
458.00,0.0181
457.00,0.0174
456.00,0.0162
455.00,0.0150
454.00,0.0141
453.00,0.0134
452.00,0.0126
451.00,0.0115
450.00,0.0102
