Created as New Dataset,Sample 024 By Administrator Date Wednesday, September 03 2025
cm-1,A
4000.00,0.0013
3999.00,0.0013
3998.00,0.0013
3997.00,0.0013
3996.00,0.0012
3995.00,0.0012
3994.00,0.0012
3993.00,0.0012
3992.00,0.0012
3991.00,0.0012
3990.00,0.0012
3989.00,0.0012
3988.00,0.0012
3987.00,0.0013
3986.00,0.0013
3985.00,0.0013
3984.00,0.0012
3983.00,0.0012
3982.00,0.0012
3981.00,0.0012
3980.00,0.0012
3979.00,0.0012
3978.00,0.0012
3977.00,0.0012
3976.00,0.0012
3975.00,0.0012
3974.00,0.0011
3973.00,0.0011
3972.00,0.0011
3971.00,0.0011
3970.00,0.0011
3969.00,0.0011
3968.00,0.0012
3967.00,0.0012
3966.00,0.0012
3965.00,0.0012
3964.00,0.0012
3963.00,0.0012
3962.00,0.0012
3961.00,0.0012
3960.00,0.0012
3959.00,0.0012
3958.00,0.0012
3957.00,0.0012
3956.00,0.0012
3955.00,0.0011
3954.00,0.0011
3953.00,0.0011
3952.00,0.0011
3951.00,0.0012
3950.00,0.0012
3949.00,0.0012
3948.00,0.0012
3947.00,0.0012
3946.00,0.0012
3945.00,0.0012
3944.00,0.0012
3943.00,0.0012
3942.00,0.0012
3941.00,0.0012
3940.00,0.0012
3939.00,0.0012
3938.00,0.0012
3937.00,0.0012
3936.00,0.0012
3935.00,0.0013
3934.00,0.0013
3933.00,0.0014
3932.00,0.0013
3931.00,0.0013
3930.00,0.0013
3929.00,0.0012
3928.00,0.0012
3927.00,0.0013
3926.00,0.0013
3925.00,0.0013
3924.00,0.0013
3923.00,0.0012
3922.00,0.0012
3921.00,0.0012
3920.00,0.0011
3919.00,0.0011
3918.00,0.0011
3917.00,0.0012
3916.00,0.0012
3915.00,0.0012
3914.00,0.0012
3913.00,0.0012
3912.00,0.0012
3911.00,0.0012
3910.00,0.0012
3909.00,0.0012
3908.00,0.0011
3907.00,0.0011
3906.00,0.0011
3905.00,0.0012
3904.00,0.0012
3903.00,0.0013
3902.00,0.0013
3901.00,0.0013
3900.00,0.0012
3899.00,0.0012
3898.00,0.0012
3897.00,0.0012
3896.00,0.0012
3895.00,0.0012
3894.00,0.0011
3893.00,0.0011
3892.00,0.0011
3891.00,0.0010
3890.00,0.0010
3889.00,0.0010
3888.00,0.0010
3887.00,0.0010
3886.00,0.0011
3885.00,0.0011
3884.00,0.0011
3883.00,0.0011
3882.00,0.0011
3881.00,0.0011
3880.00,0.0012
3879.00,0.0012
3878.00,0.0011
3877.00,0.0011
3876.00,0.0011
3875.00,0.0011
3874.00,0.0011
3873.00,0.0011
3872.00,0.0011
3871.00,0.0011
3870.00,0.0011
3869.00,0.0010
3868.00,0.0010
3867.00,0.0009
3866.00,0.0010
3865.00,0.0010
3864.00,0.0010
3863.00,0.0011
3862.00,0.0011
3861.00,0.0011
3860.00,0.0010
3859.00,0.0010
3858.00,0.0010
3857.00,0.0010
3856.00,0.0010
3855.00,0.0010
3854.00,0.0010
3853.00,0.0009
3852.00,0.0009
3851.00,0.0009
3850.00,0.0009
3849.00,0.0010
3848.00,0.0010
3847.00,0.0010
3846.00,0.0010
3845.00,0.0010
3844.00,0.0010
3843.00,0.0010
3842.00,0.0010
3841.00,0.0010
3840.00,0.0010
3839.00,0.0010
3838.00,0.0010
3837.00,0.0010
3836.00,0.0010
3835.00,0.0010
3834.00,0.0010
3833.00,0.0010
3832.00,0.0010
3831.00,0.0010
3830.00,0.0011
3829.00,0.0011
3828.00,0.0011
3827.00,0.0011
3826.00,0.0011
3825.00,0.0011
3824.00,0.0010
3823.00,0.0010
3822.00,0.0009
3821.00,0.0009
3820.00,0.0009
3819.00,0.0009
3818.00,0.0009
3817.00,0.0009
3816.00,0.0009
3815.00,0.0010
3814.00,0.0010
3813.00,0.0011
3812.00,0.0011
3811.00,0.0011
3810.00,0.0011
3809.00,0.0011
3808.00,0.0011
3807.00,0.0010
3806.00,0.0010
3805.00,0.0009
3804.00,0.0009
3803.00,0.0009
3802.00,0.0009
3801.00,0.0009
3800.00,0.0009
3799.00,0.0009
3798.00,0.0009
3797.00,0.0010
3796.00,0.0010
3795.00,0.0010
3794.00,0.0010
3793.00,0.0010
3792.00,0.0010
3791.00,0.0011
3790.00,0.0011
3789.00,0.0012
3788.00,0.0012
3787.00,0.0012
3786.00,0.0012
3785.00,0.0011
3784.00,0.0011
3783.00,0.0010
3782.00,0.0010
3781.00,0.0010
3780.00,0.0010
3779.00,0.0011
3778.00,0.0011
3777.00,0.0011
3776.00,0.0011
3775.00,0.0012
3774.00,0.0012
3773.00,0.0012
3772.00,0.0012
3771.00,0.0012
3770.00,0.0012
3769.00,0.0011
3768.00,0.0011
3767.00,0.0011
3766.00,0.0011
3765.00,0.0011
3764.00,0.0011
3763.00,0.0011
3762.00,0.0011
3761.00,0.0011
3760.00,0.0011
3759.00,0.0011
3758.00,0.0011
3757.00,0.0011
3756.00,0.0011
3755.00,0.0010
3754.00,0.0009
3753.00,0.0009
3752.00,0.0008
3751.00,0.0008
3750.00,0.0008
3749.00,0.0008
3748.00,0.0008
3747.00,0.0008
3746.00,0.0008
3745.00,0.0009
3744.00,0.0009
3743.00,0.0010
3742.00,0.0010
3741.00,0.0011
3740.00,0.0011
3739.00,0.0010
3738.00,0.0010
3737.00,0.0010
3736.00,0.0009
3735.00,0.0009
3734.00,0.0009
3733.00,0.0009
3732.00,0.0009
3731.00,0.0009
3730.00,0.0010
3729.00,0.0010
3728.00,0.0010
3727.00,0.0011
3726.00,0.0012
3725.00,0.0012
3724.00,0.0012
3723.00,0.0011
3722.00,0.0011
3721.00,0.0010
3720.00,0.0009
3719.00,0.0009
3718.00,0.0009
3717.00,0.0009
3716.00,0.0009
3715.00,0.0009
3714.00,0.0009
3713.00,0.0009
3712.00,0.0009
3711.00,0.0009
3710.00,0.0008
3709.00,0.0008
3708.00,0.0009
3707.00,0.0009
3706.00,0.0010
3705.00,0.0010
3704.00,0.0010
3703.00,0.0011
3702.00,0.0011
3701.00,0.0011
3700.00,0.0011
3699.00,0.0011
3698.00,0.0011
3697.00,0.0012
3696.00,0.0012
3695.00,0.0013
3694.00,0.0012
3693.00,0.0012
3692.00,0.0012
3691.00,0.0011
3690.00,0.0011
3689.00,0.0011
3688.00,0.0012
3687.00,0.0013
3686.00,0.0014
3685.00,0.0014
3684.00,0.0015
3683.00,0.0016
3682.00,0.0017
3681.00,0.0018
3680.00,0.0019
3679.00,0.0020
3678.00,0.0020
3677.00,0.0021
3676.00,0.0021
3675.00,0.0022
3674.00,0.0022
3673.00,0.0023
3672.00,0.0023
3671.00,0.0024
3670.00,0.0024
3669.00,0.0025
3668.00,0.0025
3667.00,0.0026
3666.00,0.0027
3665.00,0.0027
3664.00,0.0028
3663.00,0.0028
3662.00,0.0028
3661.00,0.0029
3660.00,0.0029
3659.00,0.0028
3658.00,0.0028
3657.00,0.0028
3656.00,0.0029
3655.00,0.0029
3654.00,0.0029
3653.00,0.0028
3652.00,0.0028
3651.00,0.0028
3650.00,0.0027
3649.00,0.0026
3648.00,0.0025
3647.00,0.0024
3646.00,0.0024
3645.00,0.0025
3644.00,0.0025
3643.00,0.0025
3642.00,0.0025
3641.00,0.0025
3640.00,0.0025
3639.00,0.0025
3638.00,0.0026
3637.00,0.0026
3636.00,0.0025
3635.00,0.0023
3634.00,0.0021
3633.00,0.0020
3632.00,0.0019
3631.00,0.0018
3630.00,0.0018
3629.00,0.0018
3628.00,0.0017
3627.00,0.0017
3626.00,0.0017
3625.00,0.0018
3624.00,0.0018
3623.00,0.0018
3622.00,0.0018
3621.00,0.0018
3620.00,0.0018
3619.00,0.0018
3618.00,0.0018
3617.00,0.0018
3616.00,0.0017
3615.00,0.0017
3614.00,0.0017
3613.00,0.0018
3612.00,0.0018
3611.00,0.0019
3610.00,0.0019
3609.00,0.0019
3608.00,0.0019
3607.00,0.0019
3606.00,0.0019
3605.00,0.0019
3604.00,0.0019
3603.00,0.0019
3602.00,0.0020
3601.00,0.0020
3600.00,0.0021
3599.00,0.0021
3598.00,0.0021
3597.00,0.0021
3596.00,0.0021
3595.00,0.0021
3594.00,0.0020
3593.00,0.0020
3592.00,0.0020
3591.00,0.0020
3590.00,0.0020
3589.00,0.0021
3588.00,0.0022
3587.00,0.0023
3586.00,0.0023
3585.00,0.0023
3584.00,0.0023
3583.00,0.0023
3582.00,0.0024
3581.00,0.0024
3580.00,0.0024
3579.00,0.0024
3578.00,0.0025
3577.00,0.0025
3576.00,0.0025
3575.00,0.0025
3574.00,0.0026
3573.00,0.0026
3572.00,0.0026
3571.00,0.0026
3570.00,0.0027
3569.00,0.0027
3568.00,0.0028
3567.00,0.0028
3566.00,0.0028
3565.00,0.0028
3564.00,0.0028
3563.00,0.0028
3562.00,0.0028
3561.00,0.0028
3560.00,0.0029
3559.00,0.0029
3558.00,0.0029
3557.00,0.0029
3556.00,0.0030
3555.00,0.0030
3554.00,0.0031
3553.00,0.0031
3552.00,0.0032
3551.00,0.0032
3550.00,0.0031
3549.00,0.0031
3548.00,0.0031
3547.00,0.0032
3546.00,0.0032
3545.00,0.0033
3544.00,0.0033
3543.00,0.0032
3542.00,0.0032
3541.00,0.0032
3540.00,0.0033
3539.00,0.0033
3538.00,0.0033
3537.00,0.0033
3536.00,0.0033
3535.00,0.0033
3534.00,0.0033
3533.00,0.0034
3532.00,0.0034
3531.00,0.0034
3530.00,0.0035
3529.00,0.0035
3528.00,0.0035
3527.00,0.0036
3526.00,0.0036
3525.00,0.0036
3524.00,0.0037
3523.00,0.0036
3522.00,0.0036
3521.00,0.0036
3520.00,0.0036
3519.00,0.0036
3518.00,0.0036
3517.00,0.0036
3516.00,0.0036
3515.00,0.0036
3514.00,0.0037
3513.00,0.0037
3512.00,0.0037
3511.00,0.0037
3510.00,0.0038
3509.00,0.0038
3508.00,0.0038
3507.00,0.0038
3506.00,0.0038
3505.00,0.0039
3504.00,0.0039
3503.00,0.0040
3502.00,0.0040
3501.00,0.0040
3500.00,0.0040
3499.00,0.0040
3498.00,0.0041
3497.00,0.0041
3496.00,0.0041
3495.00,0.0041
3494.00,0.0040
3493.00,0.0041
3492.00,0.0041
3491.00,0.0042
3490.00,0.0042
3489.00,0.0043
3488.00,0.0043
3487.00,0.0042
3486.00,0.0043
3485.00,0.0043
3484.00,0.0043
3483.00,0.0044
3482.00,0.0044
3481.00,0.0044
3480.00,0.0044
3479.00,0.0044
3478.00,0.0044
3477.00,0.0045
3476.00,0.0045
3475.00,0.0045
3474.00,0.0045
3473.00,0.0045
3472.00,0.0045
3471.00,0.0045
3470.00,0.0045
3469.00,0.0045
3468.00,0.0046
3467.00,0.0046
3466.00,0.0046
3465.00,0.0047
3464.00,0.0047
3463.00,0.0048
3462.00,0.0048
3461.00,0.0049
3460.00,0.0049
3459.00,0.0049
3458.00,0.0049
3457.00,0.0049
3456.00,0.0049
3455.00,0.0049
3454.00,0.0049
3453.00,0.0049
3452.00,0.0050
3451.00,0.0050
3450.00,0.0050
3449.00,0.0050
3448.00,0.0050
3447.00,0.0051
3446.00,0.0051
3445.00,0.0051
3444.00,0.0051
3443.00,0.0051
3442.00,0.0051
3441.00,0.0052
3440.00,0.0052
3439.00,0.0052
3438.00,0.0053
3437.00,0.0053
3436.00,0.0053
3435.00,0.0053
3434.00,0.0053
3433.00,0.0053
3432.00,0.0053
3431.00,0.0053
3430.00,0.0053
3429.00,0.0053
3428.00,0.0053
3427.00,0.0054
3426.00,0.0054
3425.00,0.0054
3424.00,0.0054
3423.00,0.0054
3422.00,0.0055
3421.00,0.0055
3420.00,0.0055
3419.00,0.0056
3418.00,0.0056
3417.00,0.0055
3416.00,0.0055
3415.00,0.0055
3414.00,0.0055
3413.00,0.0056
3412.00,0.0056
3411.00,0.0057
3410.00,0.0057
3409.00,0.0057
3408.00,0.0057
3407.00,0.0057
3406.00,0.0057
3405.00,0.0057
3404.00,0.0057
3403.00,0.0058
3402.00,0.0058
3401.00,0.0058
3400.00,0.0058
3399.00,0.0057
3398.00,0.0057
3397.00,0.0057
3396.00,0.0058
3395.00,0.0058
3394.00,0.0058
3393.00,0.0058
3392.00,0.0058
3391.00,0.0058
3390.00,0.0059
3389.00,0.0059
3388.00,0.0058
3387.00,0.0058
3386.00,0.0058
3385.00,0.0058
3384.00,0.0058
3383.00,0.0058
3382.00,0.0058
3381.00,0.0058
3380.00,0.0058
3379.00,0.0058
3378.00,0.0059
3377.00,0.0059
3376.00,0.0059
3375.00,0.0060
3374.00,0.0060
3373.00,0.0060
3372.00,0.0060
3371.00,0.0060
3370.00,0.0060
3369.00,0.0060
3368.00,0.0060
3367.00,0.0060
3366.00,0.0060
3365.00,0.0060
3364.00,0.0060
3363.00,0.0060
3362.00,0.0060
3361.00,0.0061
3360.00,0.0061
3359.00,0.0060
3358.00,0.0060
3357.00,0.0060
3356.00,0.0060
3355.00,0.0060
3354.00,0.0060
3353.00,0.0061
3352.00,0.0061
3351.00,0.0061
3350.00,0.0061
3349.00,0.0061
3348.00,0.0061
3347.00,0.0061
3346.00,0.0061
3345.00,0.0061
3344.00,0.0061
3343.00,0.0061
3342.00,0.0061
3341.00,0.0061
3340.00,0.0061
3339.00,0.0061
3338.00,0.0061
3337.00,0.0061
3336.00,0.0061
3335.00,0.0061
3334.00,0.0060
3333.00,0.0060
3332.00,0.0060
3331.00,0.0060
3330.00,0.0060
3329.00,0.0060
3328.00,0.0060
3327.00,0.0060
3326.00,0.0060
3325.00,0.0060
3324.00,0.0060
3323.00,0.0060
3322.00,0.0060
3321.00,0.0059
3320.00,0.0059
3319.00,0.0058
3318.00,0.0058
3317.00,0.0059
3316.00,0.0059
3315.00,0.0059
3314.00,0.0060
3313.00,0.0060
3312.00,0.0059
3311.00,0.0059
3310.00,0.0058
3309.00,0.0058
3308.00,0.0058
3307.00,0.0059
3306.00,0.0059
3305.00,0.0060
3304.00,0.0060
3303.00,0.0060
3302.00,0.0060
3301.00,0.0060
3300.00,0.0060
3299.00,0.0060
3298.00,0.0060
3297.00,0.0060
3296.00,0.0060
3295.00,0.0060
3294.00,0.0060
3293.00,0.0060
3292.00,0.0059
3291.00,0.0059
3290.00,0.0059
3289.00,0.0058
3288.00,0.0058
3287.00,0.0058
3286.00,0.0058
3285.00,0.0058
3284.00,0.0057
3283.00,0.0057
3282.00,0.0057
3281.00,0.0056
3280.00,0.0056
3279.00,0.0056
3278.00,0.0056
3277.00,0.0056
3276.00,0.0056
3275.00,0.0056
3274.00,0.0055
3273.00,0.0055
3272.00,0.0055
3271.00,0.0054
3270.00,0.0054
3269.00,0.0054
3268.00,0.0054
3267.00,0.0054
3266.00,0.0053
3265.00,0.0053
3264.00,0.0053
3263.00,0.0053
3262.00,0.0053
3261.00,0.0053
3260.00,0.0053
3259.00,0.0053
3258.00,0.0053
3257.00,0.0053
3256.00,0.0052
3255.00,0.0052
3254.00,0.0052
3253.00,0.0052
3252.00,0.0052
3251.00,0.0052
3250.00,0.0052
3249.00,0.0052
3248.00,0.0052
3247.00,0.0052
3246.00,0.0052
3245.00,0.0051
3244.00,0.0050
3243.00,0.0050
3242.00,0.0050
3241.00,0.0051
3240.00,0.0051
3239.00,0.0051
3238.00,0.0051
3237.00,0.0051
3236.00,0.0051
3235.00,0.0051
3234.00,0.0051
3233.00,0.0052
3232.00,0.0052
3231.00,0.0052
3230.00,0.0052
3229.00,0.0052
3228.00,0.0052
3227.00,0.0052
3226.00,0.0052
3225.00,0.0052
3224.00,0.0052
3223.00,0.0053
3222.00,0.0053
3221.00,0.0053
3220.00,0.0053
3219.00,0.0053
3218.00,0.0053
3217.00,0.0054
3216.00,0.0054
3215.00,0.0054
3214.00,0.0055
3213.00,0.0055
3212.00,0.0055
3211.00,0.0055
3210.00,0.0055
3209.00,0.0055
3208.00,0.0055
3207.00,0.0054
3206.00,0.0054
3205.00,0.0054
3204.00,0.0054
3203.00,0.0055
3202.00,0.0055
3201.00,0.0055
3200.00,0.0056
3199.00,0.0055
3198.00,0.0055
3197.00,0.0055
3196.00,0.0055
3195.00,0.0055
3194.00,0.0054
3193.00,0.0054
3192.00,0.0053
3191.00,0.0053
3190.00,0.0052
3189.00,0.0052
3188.00,0.0052
3187.00,0.0052
3186.00,0.0052
3185.00,0.0052
3184.00,0.0052
3183.00,0.0052
3182.00,0.0052
3181.00,0.0052
3180.00,0.0051
3179.00,0.0051
3178.00,0.0051
3177.00,0.0051
3176.00,0.0050
3175.00,0.0050
3174.00,0.0050
3173.00,0.0050
3172.00,0.0050
3171.00,0.0049
3170.00,0.0049
3169.00,0.0049
3168.00,0.0048
3167.00,0.0048
3166.00,0.0048
3165.00,0.0048
3164.00,0.0048
3163.00,0.0048
3162.00,0.0048
3161.00,0.0048
3160.00,0.0048
3159.00,0.0048
3158.00,0.0048
3157.00,0.0048
3156.00,0.0047
3155.00,0.0047
3154.00,0.0047
3153.00,0.0047
3152.00,0.0047
3151.00,0.0047
3150.00,0.0047
3149.00,0.0047
3148.00,0.0047
3147.00,0.0046
3146.00,0.0046
3145.00,0.0046
3144.00,0.0046
3143.00,0.0046
3142.00,0.0046
3141.00,0.0046
3140.00,0.0046
3139.00,0.0045
3138.00,0.0045
3137.00,0.0045
3136.00,0.0045
3135.00,0.0044
3134.00,0.0044
3133.00,0.0043
3132.00,0.0043
3131.00,0.0043
3130.00,0.0043
3129.00,0.0043
3128.00,0.0043
3127.00,0.0043
3126.00,0.0043
3125.00,0.0042
3124.00,0.0042
3123.00,0.0041
3122.00,0.0041
3121.00,0.0041
3120.00,0.0041
3119.00,0.0041
3118.00,0.0041
3117.00,0.0041
3116.00,0.0041
3115.00,0.0041
3114.00,0.0040
3113.00,0.0040
3112.00,0.0040
3111.00,0.0040
3110.00,0.0040
3109.00,0.0040
3108.00,0.0040
3107.00,0.0040
3106.00,0.0040
3105.00,0.0040
3104.00,0.0039
3103.00,0.0039
3102.00,0.0039
3101.00,0.0040
3100.00,0.0040
3099.00,0.0039
3098.00,0.0039
3097.00,0.0039
3096.00,0.0039
3095.00,0.0039
3094.00,0.0039
3093.00,0.0039
3092.00,0.0039
3091.00,0.0039
3090.00,0.0039
3089.00,0.0039
3088.00,0.0039
3087.00,0.0039
3086.00,0.0039
3085.00,0.0039
3084.00,0.0039
3083.00,0.0039
3082.00,0.0040
3081.00,0.0040
3080.00,0.0040
3079.00,0.0040
3078.00,0.0040
3077.00,0.0039
3076.00,0.0039
3075.00,0.0039
3074.00,0.0039
3073.00,0.0039
3072.00,0.0039
3071.00,0.0039
3070.00,0.0039
3069.00,0.0039
3068.00,0.0039
3067.00,0.0040
3066.00,0.0040
3065.00,0.0040
3064.00,0.0040
3063.00,0.0041
3062.00,0.0041
3061.00,0.0041
3060.00,0.0041
3059.00,0.0041
3058.00,0.0041
3057.00,0.0042
3056.00,0.0042
3055.00,0.0042
3054.00,0.0042
3053.00,0.0042
3052.00,0.0043
3051.00,0.0043
3050.00,0.0043
3049.00,0.0043
3048.00,0.0043
3047.00,0.0043
3046.00,0.0043
3045.00,0.0044
3044.00,0.0044
3043.00,0.0044
3042.00,0.0044
3041.00,0.0044
3040.00,0.0044
3039.00,0.0045
3038.00,0.0045
3037.00,0.0045
3036.00,0.0046
3035.00,0.0046
3034.00,0.0047
3033.00,0.0047
3032.00,0.0047
3031.00,0.0047
3030.00,0.0048
3029.00,0.0048
3028.00,0.0049
3027.00,0.0049
3026.00,0.0050
3025.00,0.0051
3024.00,0.0052
3023.00,0.0053
3022.00,0.0055
3021.00,0.0056
3020.00,0.0058
3019.00,0.0059
3018.00,0.0061
3017.00,0.0063
3016.00,0.0065
3015.00,0.0068
3014.00,0.0071
3013.00,0.0075
3012.00,0.0079
3011.00,0.0084
3010.00,0.0088
3009.00,0.0094
3008.00,0.0100
3007.00,0.0106
3006.00,0.0113
3005.00,0.0120
3004.00,0.0126
3003.00,0.0133
3002.00,0.0140
3001.00,0.0148
3000.00,0.0155
2999.00,0.0161
2998.00,0.0168
2997.00,0.0175
2996.00,0.0181
2995.00,0.0188
2994.00,0.0195
2993.00,0.0202
2992.00,0.0209
2991.00,0.0217
2990.00,0.0225
2989.00,0.0234
2988.00,0.0244
2987.00,0.0258
2986.00,0.0275
2985.00,0.0298
2984.00,0.0325
2983.00,0.0354
2982.00,0.0378
2981.00,0.0397
2980.00,0.0411
2979.00,0.0424
2978.00,0.0438
2977.00,0.0458
2976.00,0.0483
2975.00,0.0515
2974.00,0.0556
2973.00,0.0603
2972.00,0.0655
2971.00,0.0711
2970.00,0.0769
2969.00,0.0832
2968.00,0.0900
2967.00,0.0974
2966.00,0.1053
2965.00,0.1134
2964.00,0.1212
2963.00,0.1284
2962.00,0.1346
2961.00,0.1398
2960.00,0.1439
2959.00,0.1474
2958.00,0.1508
2957.00,0.1545
2956.00,0.1590
2955.00,0.1644
2954.00,0.1707
2953.00,0.1771
2952.00,0.1828
2951.00,0.1867
2950.00,0.1878
2949.00,0.1853
2948.00,0.1791
2947.00,0.1697
2946.00,0.1582
2945.00,0.1461
2944.00,0.1345
2943.00,0.1245
2942.00,0.1168
2941.00,0.1114
2940.00,0.1084
2939.00,0.1074
2938.00,0.1084
2937.00,0.1111
2936.00,0.1154
2935.00,0.1211
2934.00,0.1282
2933.00,0.1365
2932.00,0.1458
2931.00,0.1559
2930.00,0.1665
2929.00,0.1774
2928.00,0.1884
2927.00,0.1991
2926.00,0.2096
2925.00,0.2198
2924.00,0.2297
2923.00,0.2396
2922.00,0.2494
2921.00,0.2587
2920.00,0.2670
2919.00,0.2733
2918.00,0.2764
2917.00,0.2757
2916.00,0.2709
2915.00,0.2626
2914.00,0.2522
2913.00,0.2409
2912.00,0.2298
2911.00,0.2197
2910.00,0.2108
2909.00,0.2029
2908.00,0.1958
2907.00,0.1891
2906.00,0.1826
2905.00,0.1761
2904.00,0.1696
2903.00,0.1631
2902.00,0.1566
2901.00,0.1503
2900.00,0.1443
2899.00,0.1385
2898.00,0.1332
2897.00,0.1283
2896.00,0.1239
2895.00,0.1201
2894.00,0.1169
2893.00,0.1143
2892.00,0.1123
2891.00,0.1108
2890.00,0.1097
2889.00,0.1090
2888.00,0.1086
2887.00,0.1086
2886.00,0.1089
2885.00,0.1095
2884.00,0.1106
2883.00,0.1119
2882.00,0.1137
2881.00,0.1156
2880.00,0.1175
2879.00,0.1191
2878.00,0.1201
2877.00,0.1203
2876.00,0.1199
2875.00,0.1193
2874.00,0.1187
2873.00,0.1186
2872.00,0.1192
2871.00,0.1205
2870.00,0.1221
2869.00,0.1237
2868.00,0.1246
2867.00,0.1240
2866.00,0.1214
2865.00,0.1167
2864.00,0.1102
2863.00,0.1028
2862.00,0.0954
2861.00,0.0888
2860.00,0.0836
2859.00,0.0799
2858.00,0.0777
2857.00,0.0766
2856.00,0.0767
2855.00,0.0775
2854.00,0.0790
2853.00,0.0809
2852.00,0.0830
2851.00,0.0849
2850.00,0.0864
2849.00,0.0874
2848.00,0.0881
2847.00,0.0891
2846.00,0.0909
2845.00,0.0936
2844.00,0.0974
2843.00,0.1020
2842.00,0.1069
2841.00,0.1116
2840.00,0.1153
2839.00,0.1172
2838.00,0.1167
2837.00,0.1135
2836.00,0.1075
2835.00,0.0992
2834.00,0.0895
2833.00,0.0794
2832.00,0.0698
2831.00,0.0612
2830.00,0.0540
2829.00,0.0480
2828.00,0.0431
2827.00,0.0391
2826.00,0.0359
2825.00,0.0333
2824.00,0.0311
2823.00,0.0292
2822.00,0.0276
2821.00,0.0262
2820.00,0.0250
2819.00,0.0239
2818.00,0.0230
2817.00,0.0222
2816.00,0.0214
2815.00,0.0208
2814.00,0.0202
2813.00,0.0196
2812.00,0.0191
2811.00,0.0185
2810.00,0.0180
2809.00,0.0175
2808.00,0.0169
2807.00,0.0164
2806.00,0.0157
2805.00,0.0151
2804.00,0.0145
2803.00,0.0139
2802.00,0.0134
2801.00,0.0130
2800.00,0.0126
2799.00,0.0123
2798.00,0.0120
2797.00,0.0118
2796.00,0.0115
2795.00,0.0113
2794.00,0.0111
2793.00,0.0108
2792.00,0.0105
2791.00,0.0102
2790.00,0.0099
2789.00,0.0096
2788.00,0.0093
2787.00,0.0090
2786.00,0.0087
2785.00,0.0085
2784.00,0.0082
2783.00,0.0080
2782.00,0.0078
2781.00,0.0076
2780.00,0.0075
2779.00,0.0073
2778.00,0.0072
2777.00,0.0070
2776.00,0.0069
2775.00,0.0069
2774.00,0.0068
2773.00,0.0067
2772.00,0.0066
2771.00,0.0066
2770.00,0.0065
2769.00,0.0065
2768.00,0.0065
2767.00,0.0065
2766.00,0.0065
2765.00,0.0064
2764.00,0.0064
2763.00,0.0063
2762.00,0.0063
2761.00,0.0063
2760.00,0.0062
2759.00,0.0062
2758.00,0.0061
2757.00,0.0061
2756.00,0.0061
2755.00,0.0061
2754.00,0.0061
2753.00,0.0062
2752.00,0.0061
2751.00,0.0061
2750.00,0.0060
2749.00,0.0060
2748.00,0.0060
2747.00,0.0060
2746.00,0.0060
2745.00,0.0061
2744.00,0.0062
2743.00,0.0063
2742.00,0.0064
2741.00,0.0065
2740.00,0.0066
2739.00,0.0067
2738.00,0.0068
2737.00,0.0069
2736.00,0.0070
2735.00,0.0071
2734.00,0.0073
2733.00,0.0074
2732.00,0.0076
2731.00,0.0078
2730.00,0.0080
2729.00,0.0083
2728.00,0.0085
2727.00,0.0088
2726.00,0.0090
2725.00,0.0092
2724.00,0.0094
2723.00,0.0094
2722.00,0.0093
2721.00,0.0091
2720.00,0.0088
2719.00,0.0085
2718.00,0.0082
2717.00,0.0079
2716.00,0.0077
2715.00,0.0074
2714.00,0.0072
2713.00,0.0070
2712.00,0.0068
2711.00,0.0066
2710.00,0.0064
2709.00,0.0063
2708.00,0.0062
2707.00,0.0060
2706.00,0.0059
2705.00,0.0058
2704.00,0.0057
2703.00,0.0056
2702.00,0.0055
2701.00,0.0054
2700.00,0.0054
2699.00,0.0053
2698.00,0.0053
2697.00,0.0053
2696.00,0.0053
2695.00,0.0053
2694.00,0.0053
2693.00,0.0053
2692.00,0.0052
2691.00,0.0052
2690.00,0.0052
2689.00,0.0052
2688.00,0.0052
2687.00,0.0052
2686.00,0.0052
2685.00,0.0053
2684.00,0.0053
2683.00,0.0053
2682.00,0.0053
2681.00,0.0054
2680.00,0.0054
2679.00,0.0054
2678.00,0.0054
2677.00,0.0054
2676.00,0.0053
2675.00,0.0053
2674.00,0.0053
2673.00,0.0053
2672.00,0.0053
2671.00,0.0052
2670.00,0.0053
2669.00,0.0053
2668.00,0.0053
2667.00,0.0054
2666.00,0.0054
2665.00,0.0054
2664.00,0.0055
2663.00,0.0055
2662.00,0.0056
2661.00,0.0056
2660.00,0.0057
2659.00,0.0057
2658.00,0.0057
2657.00,0.0057
2656.00,0.0056
2655.00,0.0056
2654.00,0.0055
2653.00,0.0054
2652.00,0.0054
2651.00,0.0053
2650.00,0.0053
2649.00,0.0052
2648.00,0.0052
2647.00,0.0051
2646.00,0.0051
2645.00,0.0050
2644.00,0.0049
2643.00,0.0049
2642.00,0.0048
2641.00,0.0048
2640.00,0.0048
2639.00,0.0048
2638.00,0.0048
2637.00,0.0047
2636.00,0.0047
2635.00,0.0046
2634.00,0.0046
2633.00,0.0046
2632.00,0.0046
2631.00,0.0047
2630.00,0.0047
2629.00,0.0047
2628.00,0.0047
2627.00,0.0047
2626.00,0.0047
2625.00,0.0047
2624.00,0.0048
2623.00,0.0048
2622.00,0.0048
2621.00,0.0048
2620.00,0.0048
2619.00,0.0048
2618.00,0.0048
2617.00,0.0048
2616.00,0.0048
2615.00,0.0047
2614.00,0.0047
2613.00,0.0047
2612.00,0.0047
2611.00,0.0046
2610.00,0.0045
2609.00,0.0044
2608.00,0.0043
2607.00,0.0042
2606.00,0.0041
2605.00,0.0041
2604.00,0.0041
2603.00,0.0040
2602.00,0.0040
2601.00,0.0040
2600.00,0.0039
2599.00,0.0039
2598.00,0.0038
2597.00,0.0038
2596.00,0.0037
2595.00,0.0038
2594.00,0.0038
2593.00,0.0038
2592.00,0.0038
2591.00,0.0039
2590.00,0.0039
2589.00,0.0040
2588.00,0.0040
2587.00,0.0041
2586.00,0.0042
2585.00,0.0042
2584.00,0.0043
2583.00,0.0043
2582.00,0.0043
2581.00,0.0043
2580.00,0.0043
2579.00,0.0043
2578.00,0.0042
2577.00,0.0042
2576.00,0.0040
2575.00,0.0039
2574.00,0.0037
2573.00,0.0036
2572.00,0.0035
2571.00,0.0034
2570.00,0.0034
2569.00,0.0033
2568.00,0.0032
2567.00,0.0031
2566.00,0.0030
2565.00,0.0030
2564.00,0.0030
2563.00,0.0029
2562.00,0.0029
2561.00,0.0029
2560.00,0.0029
2559.00,0.0029
2558.00,0.0030
2557.00,0.0030
2556.00,0.0030
2555.00,0.0030
2554.00,0.0030
2553.00,0.0029
2552.00,0.0029
2551.00,0.0029
2550.00,0.0028
2549.00,0.0027
2548.00,0.0027
2547.00,0.0026
2546.00,0.0026
2545.00,0.0026
2544.00,0.0025
2543.00,0.0024
2542.00,0.0023
2541.00,0.0022
2540.00,0.0022
2539.00,0.0022
2538.00,0.0023
2537.00,0.0024
2536.00,0.0024
2535.00,0.0024
2534.00,0.0024
2533.00,0.0024
2532.00,0.0024
2531.00,0.0023
2530.00,0.0023
2529.00,0.0022
2528.00,0.0021
2527.00,0.0021
2526.00,0.0020
2525.00,0.0019
2524.00,0.0019
2523.00,0.0019
2522.00,0.0020
2521.00,0.0020
2520.00,0.0019
2519.00,0.0019
2518.00,0.0019
2517.00,0.0019
2516.00,0.0018
2515.00,0.0018
2514.00,0.0017
2513.00,0.0017
2512.00,0.0018
2511.00,0.0018
2510.00,0.0018
2509.00,0.0018
2508.00,0.0017
2507.00,0.0017
2506.00,0.0016
2505.00,0.0016
2504.00,0.0016
2503.00,0.0016
2502.00,0.0016
2501.00,0.0017
2500.00,0.0017
2499.00,0.0017
2498.00,0.0017
2497.00,0.0018
2496.00,0.0018
2495.00,0.0018
2494.00,0.0018
2493.00,0.0018
2492.00,0.0018
2491.00,0.0018
2490.00,0.0018
2489.00,0.0018
2488.00,0.0017
2487.00,0.0017
2486.00,0.0017
2485.00,0.0017
2484.00,0.0017
2483.00,0.0017
2482.00,0.0016
2481.00,0.0016
2480.00,0.0016
2479.00,0.0015
2478.00,0.0015
2477.00,0.0015
2476.00,0.0015
2475.00,0.0015
2474.00,0.0015
2473.00,0.0016
2472.00,0.0016
2471.00,0.0016
2470.00,0.0016
2469.00,0.0015
2468.00,0.0015
2467.00,0.0015
2466.00,0.0016
2465.00,0.0016
2464.00,0.0015
2463.00,0.0015
2462.00,0.0015
2461.00,0.0015
2460.00,0.0015
2459.00,0.0016
2458.00,0.0016
2457.00,0.0017
2456.00,0.0017
2455.00,0.0017
2454.00,0.0016
2453.00,0.0016
2452.00,0.0015
2451.00,0.0015
2450.00,0.0015
2449.00,0.0015
2448.00,0.0015
2447.00,0.0015
2446.00,0.0015
2445.00,0.0015
2444.00,0.0015
2443.00,0.0015
2442.00,0.0015
2441.00,0.0015
2440.00,0.0015
2439.00,0.0016
2438.00,0.0016
2437.00,0.0016
2436.00,0.0017
2435.00,0.0017
2434.00,0.0018
2433.00,0.0018
2432.00,0.0018
2431.00,0.0017
2430.00,0.0017
2429.00,0.0017
2428.00,0.0016
2427.00,0.0016
2426.00,0.0016
2425.00,0.0016
2424.00,0.0017
2423.00,0.0017
2422.00,0.0017
2421.00,0.0017
2420.00,0.0017
2419.00,0.0016
2418.00,0.0016
2417.00,0.0015
2416.00,0.0015
2415.00,0.0015
2414.00,0.0015
2413.00,0.0016
2412.00,0.0016
2411.00,0.0016
2410.00,0.0016
2409.00,0.0015
2408.00,0.0015
2407.00,0.0014
2406.00,0.0015
2405.00,0.0015
2404.00,0.0015
2403.00,0.0014
2402.00,0.0014
2401.00,0.0014
2400.00,0.0014
2399.00,0.0014
2398.00,0.0014
2397.00,0.0014
2396.00,0.0014
2395.00,0.0013
2394.00,0.0013
2393.00,0.0013
2392.00,0.0013
2391.00,0.0013
2390.00,0.0014
2389.00,0.0014
2388.00,0.0014
2387.00,0.0014
2386.00,0.0013
2385.00,0.0012
2384.00,0.0011
2383.00,0.0011
2382.00,0.0010
2381.00,0.0009
2380.00,0.0008
2379.00,0.0008
2378.00,0.0008
2377.00,0.0009
2376.00,0.0010
2375.00,0.0010
2374.00,0.0010
2373.00,0.0010
2372.00,0.0010
2371.00,0.0009
2370.00,0.0010
2369.00,0.0010
2368.00,0.0010
2367.00,0.0010
2366.00,0.0009
2365.00,0.0009
2364.00,0.0009
2363.00,0.0009
2362.00,0.0010
2361.00,0.0010
2360.00,0.0011
2359.00,0.0012
2358.00,0.0012
2357.00,0.0011
2356.00,0.0010
2355.00,0.0009
2354.00,0.0009
2353.00,0.0009
2352.00,0.0009
2351.00,0.0010
2350.00,0.0011
2349.00,0.0011
2348.00,0.0011
2347.00,0.0011
2346.00,0.0012
2345.00,0.0013
2344.00,0.0013
2343.00,0.0013
2342.00,0.0012
2341.00,0.0012
2340.00,0.0012
2339.00,0.0013
2338.00,0.0014
2337.00,0.0014
2336.00,0.0013
2335.00,0.0012
2334.00,0.0012
2333.00,0.0011
2332.00,0.0012
2331.00,0.0012
2330.00,0.0013
2329.00,0.0014
2328.00,0.0016
2327.00,0.0018
2326.00,0.0021
2325.00,0.0024
2324.00,0.0026
2323.00,0.0025
2322.00,0.0024
2321.00,0.0022
2320.00,0.0020
2319.00,0.0019
2318.00,0.0019
2317.00,0.0018
2316.00,0.0017
2315.00,0.0017
2314.00,0.0017
2313.00,0.0017
2312.00,0.0017
2311.00,0.0017
2310.00,0.0016
2309.00,0.0016
2308.00,0.0016
2307.00,0.0015
2306.00,0.0016
2305.00,0.0016
2304.00,0.0016
2303.00,0.0016
2302.00,0.0017
2301.00,0.0018
2300.00,0.0018
2299.00,0.0018
2298.00,0.0019
2297.00,0.0019
2296.00,0.0020
2295.00,0.0020
2294.00,0.0020
2293.00,0.0020
2292.00,0.0021
2291.00,0.0021
2290.00,0.0021
2289.00,0.0022
2288.00,0.0022
2287.00,0.0022
2286.00,0.0023
2285.00,0.0023
2284.00,0.0023
2283.00,0.0023
2282.00,0.0022
2281.00,0.0021
2280.00,0.0021
2279.00,0.0020
2278.00,0.0020
2277.00,0.0020
2276.00,0.0019
2275.00,0.0019
2274.00,0.0019
2273.00,0.0018
2272.00,0.0017
2271.00,0.0017
2270.00,0.0017
2269.00,0.0018
2268.00,0.0018
2267.00,0.0017
2266.00,0.0016
2265.00,0.0016
2264.00,0.0016
2263.00,0.0016
2262.00,0.0016
2261.00,0.0016
2260.00,0.0017
2259.00,0.0017
2258.00,0.0017
2257.00,0.0017
2256.00,0.0016
2255.00,0.0014
2254.00,0.0012
2253.00,0.0012
2252.00,0.0013
2251.00,0.0015
2250.00,0.0017
2249.00,0.0017
2248.00,0.0016
2247.00,0.0014
2246.00,0.0013
2245.00,0.0011
2244.00,0.0011
2243.00,0.0012
2242.00,0.0012
2241.00,0.0011
2240.00,0.0010
2239.00,0.0008
2238.00,0.0008
2237.00,0.0009
2236.00,0.0011
2235.00,0.0012
2234.00,0.0012
2233.00,0.0012
2232.00,0.0012
2231.00,0.0011
2230.00,0.0012
2229.00,0.0012
2228.00,0.0012
2227.00,0.0011
2226.00,0.0010
2225.00,0.0009
2224.00,0.0010
2223.00,0.0012
2222.00,0.0013
2221.00,0.0013
2220.00,0.0012
2219.00,0.0011
2218.00,0.0009
2217.00,0.0009
2216.00,0.0009
2215.00,0.0009
2214.00,0.0010
2213.00,0.0011
2212.00,0.0012
2211.00,0.0012
2210.00,0.0012
2209.00,0.0011
2208.00,0.0010
2207.00,0.0008
2206.00,0.0008
2205.00,0.0009
2204.00,0.0011
2203.00,0.0013
2202.00,0.0014
2201.00,0.0014
2200.00,0.0014
2199.00,0.0013
2198.00,0.0012
2197.00,0.0013
2196.00,0.0014
2195.00,0.0016
2194.00,0.0017
2193.00,0.0017
2192.00,0.0015
2191.00,0.0013
2190.00,0.0013
2189.00,0.0014
2188.00,0.0015
2187.00,0.0015
2186.00,0.0013
2185.00,0.0012
2184.00,0.0011
2183.00,0.0011
2182.00,0.0010
2181.00,0.0008
2180.00,0.0007
2179.00,0.0006
2178.00,0.0007
2177.00,0.0009
2176.00,0.0010
2175.00,0.0009
2174.00,0.0007
2173.00,0.0006
2172.00,0.0008
2171.00,0.0012
2170.00,0.0017
2169.00,0.0020
2168.00,0.0022
2167.00,0.0023
2166.00,0.0022
2165.00,0.0020
2164.00,0.0018
2163.00,0.0017
2162.00,0.0017
2161.00,0.0015
2160.00,0.0007
2159.00,-0.0007
2158.00,-0.0021
2157.00,-0.0028
2156.00,-0.0028
2155.00,-0.0026
2154.00,-0.0022
2153.00,-0.0018
2152.00,-0.0014
2151.00,-0.0010
2150.00,-0.0007
2149.00,-0.0005
2148.00,-0.0003
2147.00,-0.0003
2146.00,-0.0004
2145.00,-0.0005
2144.00,-0.0005
2143.00,-0.0005
2142.00,-0.0005
2141.00,-0.0006
2140.00,-0.0006
2139.00,-0.0007
2138.00,-0.0006
2137.00,-0.0006
2136.00,-0.0006
2135.00,-0.0008
2134.00,-0.0010
2133.00,-0.0010
2132.00,-0.0009
2131.00,-0.0007
2130.00,-0.0005
2129.00,-0.0004
2128.00,-0.0004
2127.00,-0.0004
2126.00,-0.0004
2125.00,-0.0004
2124.00,-0.0003
2123.00,-0.0001
2122.00,-0.0001
2121.00,-0.0000
2120.00,0.0000
2119.00,0.0000
2118.00,0.0001
2117.00,0.0002
2116.00,0.0003
2115.00,0.0005
2114.00,0.0006
2113.00,0.0007
2112.00,0.0008
2111.00,0.0008
2110.00,0.0009
2109.00,0.0008
2108.00,0.0008
2107.00,0.0008
2106.00,0.0008
2105.00,0.0008
2104.00,0.0009
2103.00,0.0009
2102.00,0.0009
2101.00,0.0008
2100.00,0.0008
2099.00,0.0007
2098.00,0.0005
2097.00,0.0003
2096.00,0.0002
2095.00,0.0000
2094.00,-0.0000
2093.00,0.0000
2092.00,0.0002
2091.00,0.0004
2090.00,0.0005
2089.00,0.0005
2088.00,0.0006
2087.00,0.0008
2086.00,0.0010
2085.00,0.0010
2084.00,0.0010
2083.00,0.0009
2082.00,0.0009
2081.00,0.0009
2080.00,0.0009
2079.00,0.0009
2078.00,0.0008
2077.00,0.0008
2076.00,0.0008
2075.00,0.0009
2074.00,0.0009
2073.00,0.0008
2072.00,0.0007
2071.00,0.0006
2070.00,0.0007
2069.00,0.0007
2068.00,0.0007
2067.00,0.0005
2066.00,0.0002
2065.00,0.0002
2064.00,0.0003
2063.00,0.0005
2062.00,0.0007
2061.00,0.0008
2060.00,0.0009
2059.00,0.0009
2058.00,0.0008
2057.00,0.0008
2056.00,0.0007
2055.00,0.0006
2054.00,0.0007
2053.00,0.0011
2052.00,0.0017
2051.00,0.0022
2050.00,0.0022
2049.00,0.0020
2048.00,0.0016
2047.00,0.0012
2046.00,0.0009
2045.00,0.0008
2044.00,0.0007
2043.00,0.0006
2042.00,0.0004
2041.00,0.0001
2040.00,-0.0000
2039.00,0.0001
2038.00,0.0004
2037.00,0.0006
2036.00,0.0007
2035.00,0.0006
2034.00,0.0004
2033.00,0.0001
2032.00,-0.0001
2031.00,-0.0002
2030.00,-0.0002
2029.00,-0.0001
2028.00,-0.0001
2027.00,-0.0001
2026.00,-0.0002
2025.00,-0.0002
2024.00,-0.0001
2023.00,0.0000
2022.00,-0.0000
2021.00,-0.0002
2020.00,-0.0004
2019.00,-0.0005
2018.00,-0.0005
2017.00,-0.0004
2016.00,-0.0003
2015.00,-0.0004
2014.00,-0.0005
2013.00,-0.0003
2012.00,0.0001
2011.00,0.0005
2010.00,0.0006
2009.00,0.0005
2008.00,0.0003
2007.00,-0.0000
2006.00,-0.0003
2005.00,-0.0003
2004.00,-0.0002
2003.00,-0.0002
2002.00,-0.0002
2001.00,-0.0004
2000.00,-0.0007
1999.00,-0.0009
1998.00,-0.0011
1997.00,-0.0011
1996.00,-0.0009
1995.00,-0.0006
1994.00,-0.0004
1993.00,-0.0002
1992.00,-0.0001
1991.00,-0.0000
1990.00,0.0001
1989.00,0.0002
1988.00,0.0003
1987.00,0.0005
1986.00,0.0007
1985.00,0.0010
1984.00,0.0013
1983.00,0.0016
1982.00,0.0018
1981.00,0.0018
1980.00,0.0016
1979.00,0.0010
1978.00,0.0003
1977.00,-0.0001
1976.00,-0.0003
1975.00,-0.0004
1974.00,-0.0003
1973.00,-0.0002
1972.00,-0.0001
1971.00,-0.0001
1970.00,-0.0004
1969.00,-0.0007
1968.00,-0.0008
1967.00,-0.0007
1966.00,-0.0006
1965.00,-0.0004
1964.00,-0.0004
1963.00,-0.0005
1962.00,-0.0006
1961.00,-0.0007
1960.00,-0.0006
1959.00,-0.0006
1958.00,-0.0006
1957.00,-0.0006
1956.00,-0.0006
1955.00,-0.0006
1954.00,-0.0007
1953.00,-0.0008
1952.00,-0.0008
1951.00,-0.0008
1950.00,-0.0007
1949.00,-0.0006
1948.00,-0.0006
1947.00,-0.0007
1946.00,-0.0008
1945.00,-0.0007
1944.00,-0.0006
1943.00,-0.0005
1942.00,-0.0003
1941.00,-0.0002
1940.00,-0.0001
1939.00,-0.0001
1938.00,-0.0002
1937.00,-0.0004
1936.00,-0.0004
1935.00,-0.0004
1934.00,-0.0003
1933.00,-0.0002
1932.00,-0.0001
1931.00,-0.0001
1930.00,-0.0000
1929.00,0.0000
1928.00,0.0001
1927.00,0.0001
1926.00,0.0001
1925.00,-0.0000
1924.00,0.0000
1923.00,0.0001
1922.00,0.0002
1921.00,0.0003
1920.00,0.0002
1919.00,0.0002
1918.00,0.0001
1917.00,0.0002
1916.00,0.0003
1915.00,0.0003
1914.00,0.0002
1913.00,0.0002
1912.00,0.0002
1911.00,0.0002
1910.00,0.0003
1909.00,0.0004
1908.00,0.0005
1907.00,0.0005
1906.00,0.0005
1905.00,0.0005
1904.00,0.0005
1903.00,0.0004
1902.00,0.0003
1901.00,0.0002
1900.00,0.0003
1899.00,0.0004
1898.00,0.0006
1897.00,0.0007
1896.00,0.0007
1895.00,0.0006
1894.00,0.0005
1893.00,0.0005
1892.00,0.0005
1891.00,0.0005
1890.00,0.0005
1889.00,0.0006
1888.00,0.0006
1887.00,0.0006
1886.00,0.0006
1885.00,0.0006
1884.00,0.0005
1883.00,0.0004
1882.00,0.0003
1881.00,0.0003
1880.00,0.0003
1879.00,0.0003
1878.00,0.0003
1877.00,0.0004
1876.00,0.0005
1875.00,0.0004
1874.00,0.0004
1873.00,0.0003
1872.00,0.0003
1871.00,0.0004
1870.00,0.0004
1869.00,0.0005
1868.00,0.0006
1867.00,0.0006
1866.00,0.0005
1865.00,0.0006
1864.00,0.0006
1863.00,0.0006
1862.00,0.0005
1861.00,0.0005
1860.00,0.0005
1859.00,0.0006
1858.00,0.0006
1857.00,0.0006
1856.00,0.0006
1855.00,0.0007
1854.00,0.0007
1853.00,0.0008
1852.00,0.0008
1851.00,0.0008
1850.00,0.0008
1849.00,0.0008
1848.00,0.0007
1847.00,0.0007
1846.00,0.0007
1845.00,0.0008
1844.00,0.0009
1843.00,0.0010
1842.00,0.0010
1841.00,0.0009
1840.00,0.0008
1839.00,0.0007
1838.00,0.0006
1837.00,0.0006
1836.00,0.0005
1835.00,0.0006
1834.00,0.0006
1833.00,0.0007
1832.00,0.0008
1831.00,0.0008
1830.00,0.0009
1829.00,0.0010
1828.00,0.0010
1827.00,0.0010
1826.00,0.0010
1825.00,0.0010
1824.00,0.0010
1823.00,0.0010
1822.00,0.0009
1821.00,0.0009
1820.00,0.0008
1819.00,0.0008
1818.00,0.0007
1817.00,0.0006
1816.00,0.0006
1815.00,0.0006
1814.00,0.0007
1813.00,0.0008
1812.00,0.0009
1811.00,0.0010
1810.00,0.0010
1809.00,0.0010
1808.00,0.0010
1807.00,0.0011
1806.00,0.0011
1805.00,0.0011
1804.00,0.0011
1803.00,0.0011
1802.00,0.0011
1801.00,0.0011
1800.00,0.0011
1799.00,0.0011
1798.00,0.0011
1797.00,0.0011
1796.00,0.0011
1795.00,0.0012
1794.00,0.0012
1793.00,0.0012
1792.00,0.0013
1791.00,0.0014
1790.00,0.0014
1789.00,0.0014
1788.00,0.0014
1787.00,0.0015
1786.00,0.0015
1785.00,0.0016
1784.00,0.0016
1783.00,0.0016
1782.00,0.0016
1781.00,0.0016
1780.00,0.0016
1779.00,0.0016
1778.00,0.0015
1777.00,0.0016
1776.00,0.0016
1775.00,0.0016
1774.00,0.0016
1773.00,0.0017
1772.00,0.0018
1771.00,0.0019
1770.00,0.0019
1769.00,0.0020
1768.00,0.0020
1767.00,0.0020
1766.00,0.0020
1765.00,0.0019
1764.00,0.0019
1763.00,0.0020
1762.00,0.0021
1761.00,0.0022
1760.00,0.0023
1759.00,0.0023
1758.00,0.0024
1757.00,0.0026
1756.00,0.0027
1755.00,0.0028
1754.00,0.0028
1753.00,0.0029
1752.00,0.0031
1751.00,0.0032
1750.00,0.0033
1749.00,0.0034
1748.00,0.0035
1747.00,0.0035
1746.00,0.0036
1745.00,0.0037
1744.00,0.0037
1743.00,0.0038
1742.00,0.0038
1741.00,0.0038
1740.00,0.0039
1739.00,0.0040
1738.00,0.0040
1737.00,0.0040
1736.00,0.0039
1735.00,0.0039
1734.00,0.0039
1733.00,0.0038
1732.00,0.0038
1731.00,0.0038
1730.00,0.0037
1729.00,0.0037
1728.00,0.0037
1727.00,0.0037
1726.00,0.0037
1725.00,0.0038
1724.00,0.0038
1723.00,0.0038
1722.00,0.0037
1721.00,0.0037
1720.00,0.0037
1719.00,0.0037
1718.00,0.0038
1717.00,0.0038
1716.00,0.0038
1715.00,0.0038
1714.00,0.0038
1713.00,0.0037
1712.00,0.0036
1711.00,0.0035
1710.00,0.0035
1709.00,0.0034
1708.00,0.0034
1707.00,0.0034
1706.00,0.0034
1705.00,0.0034
1704.00,0.0034
1703.00,0.0035
1702.00,0.0035
1701.00,0.0037
1700.00,0.0039
1699.00,0.0040
1698.00,0.0040
1697.00,0.0040
1696.00,0.0042
1695.00,0.0044
1694.00,0.0045
1693.00,0.0046
1692.00,0.0047
1691.00,0.0049
1690.00,0.0050
1689.00,0.0052
1688.00,0.0053
1687.00,0.0054
1686.00,0.0055
1685.00,0.0057
1684.00,0.0059
1683.00,0.0060
1682.00,0.0061
1681.00,0.0062
1680.00,0.0063
1679.00,0.0063
1678.00,0.0064
1677.00,0.0065
1676.00,0.0066
1675.00,0.0068
1674.00,0.0068
1673.00,0.0069
1672.00,0.0069
1671.00,0.0069
1670.00,0.0070
1669.00,0.0071
1668.00,0.0072
1667.00,0.0073
1666.00,0.0073
1665.00,0.0074
1664.00,0.0075
1663.00,0.0076
1662.00,0.0077
1661.00,0.0077
1660.00,0.0077
1659.00,0.0078
1658.00,0.0079
1657.00,0.0081
1656.00,0.0082
1655.00,0.0082
1654.00,0.0082
1653.00,0.0082
1652.00,0.0082
1651.00,0.0083
1650.00,0.0083
1649.00,0.0083
1648.00,0.0084
1647.00,0.0086
1646.00,0.0087
1645.00,0.0087
1644.00,0.0087
1643.00,0.0087
1642.00,0.0088
1641.00,0.0089
1640.00,0.0090
1639.00,0.0091
1638.00,0.0092
1637.00,0.0093
1636.00,0.0093
1635.00,0.0093
1634.00,0.0092
1633.00,0.0092
1632.00,0.0091
1631.00,0.0090
1630.00,0.0090
1629.00,0.0090
1628.00,0.0090
1627.00,0.0090
1626.00,0.0090
1625.00,0.0090
1624.00,0.0090
1623.00,0.0089
1622.00,0.0089
1621.00,0.0088
1620.00,0.0088
1619.00,0.0087
1618.00,0.0087
1617.00,0.0088
1616.00,0.0088
1615.00,0.0088
1614.00,0.0087
1613.00,0.0087
1612.00,0.0087
1611.00,0.0087
1610.00,0.0087
1609.00,0.0087
1608.00,0.0088
1607.00,0.0088
1606.00,0.0088
1605.00,0.0088
1604.00,0.0088
1603.00,0.0089
1602.00,0.0089
1601.00,0.0089
1600.00,0.0090
1599.00,0.0090
1598.00,0.0090
1597.00,0.0091
1596.00,0.0092
1595.00,0.0092
1594.00,0.0093
1593.00,0.0094
1592.00,0.0095
1591.00,0.0096
1590.00,0.0098
1589.00,0.0100
1588.00,0.0102
1587.00,0.0106
1586.00,0.0109
1585.00,0.0114
1584.00,0.0120
1583.00,0.0126
1582.00,0.0132
1581.00,0.0139
1580.00,0.0145
1579.00,0.0149
1578.00,0.0152
1577.00,0.0153
1576.00,0.0151
1575.00,0.0148
1574.00,0.0143
1573.00,0.0139
1572.00,0.0136
1571.00,0.0131
1570.00,0.0125
1569.00,0.0119
1568.00,0.0114
1567.00,0.0111
1566.00,0.0109
1565.00,0.0107
1564.00,0.0105
1563.00,0.0104
1562.00,0.0103
1561.00,0.0103
1560.00,0.0103
1559.00,0.0102
1558.00,0.0101
1557.00,0.0101
1556.00,0.0102
1555.00,0.0103
1554.00,0.0105
1553.00,0.0106
1552.00,0.0108
1551.00,0.0111
1550.00,0.0115
1549.00,0.0119
1548.00,0.0124
1547.00,0.0129
1546.00,0.0136
1545.00,0.0144
1544.00,0.0152
1543.00,0.0159
1542.00,0.0163
1541.00,0.0164
1540.00,0.0161
1539.00,0.0153
1538.00,0.0146
1537.00,0.0139
1536.00,0.0133
1535.00,0.0125
1534.00,0.0116
1533.00,0.0108
1532.00,0.0102
1531.00,0.0097
1530.00,0.0094
1529.00,0.0092
1528.00,0.0091
1527.00,0.0089
1526.00,0.0087
1525.00,0.0086
1524.00,0.0085
1523.00,0.0085
1522.00,0.0084
1521.00,0.0084
1520.00,0.0084
1519.00,0.0084
1518.00,0.0083
1517.00,0.0084
1516.00,0.0084
1515.00,0.0084
1514.00,0.0083
1513.00,0.0084
1512.00,0.0085
1511.00,0.0085
1510.00,0.0085
1509.00,0.0086
1508.00,0.0088
1507.00,0.0089
1506.00,0.0089
1505.00,0.0089
1504.00,0.0090
1503.00,0.0091
1502.00,0.0093
1501.00,0.0095
1500.00,0.0098
1499.00,0.0101
1498.00,0.0103
1497.00,0.0107
1496.00,0.0111
1495.00,0.0115
1494.00,0.0117
1493.00,0.0121
1492.00,0.0126
1491.00,0.0131
1490.00,0.0138
1489.00,0.0145
1488.00,0.0152
1487.00,0.0159
1486.00,0.0165
1485.00,0.0174
1484.00,0.0183
1483.00,0.0193
1482.00,0.0206
1481.00,0.0222
1480.00,0.0238
1479.00,0.0254
1478.00,0.0271
1477.00,0.0294
1476.00,0.0322
1475.00,0.0353
1474.00,0.0394
1473.00,0.0449
1472.00,0.0510
1471.00,0.0568
1470.00,0.0623
1469.00,0.0684
1468.00,0.0751
1467.00,0.0826
1466.00,0.0913
1465.00,0.1008
1464.00,0.1091
1463.00,0.1147
1462.00,0.1181
1461.00,0.1204
1460.00,0.1218
1459.00,0.1226
1458.00,0.1233
1457.00,0.1236
1456.00,0.1232
1455.00,0.1221
1454.00,0.1205
1453.00,0.1184
1452.00,0.1154
1451.00,0.1114
1450.00,0.1061
1449.00,0.0991
1448.00,0.0902
1447.00,0.0810
1446.00,0.0728
1445.00,0.0658
1444.00,0.0599
1443.00,0.0550
1442.00,0.0514
1441.00,0.0490
1440.00,0.0476
1439.00,0.0470
1438.00,0.0473
1437.00,0.0477
1436.00,0.0469
1435.00,0.0446
1434.00,0.0411
1433.00,0.0369
1432.00,0.0325
1431.00,0.0286
1430.00,0.0255
1429.00,0.0232
1428.00,0.0217
1427.00,0.0209
1426.00,0.0204
1425.00,0.0199
1424.00,0.0195
1423.00,0.0192
1422.00,0.0191
1421.00,0.0189
1420.00,0.0186
1419.00,0.0184
1418.00,0.0182
1417.00,0.0180
1416.00,0.0177
1415.00,0.0176
1414.00,0.0174
1413.00,0.0173
1412.00,0.0172
1411.00,0.0172
1410.00,0.0173
1409.00,0.0173
1408.00,0.0173
1407.00,0.0174
1406.00,0.0176
1405.00,0.0177
1404.00,0.0179
1403.00,0.0182
1402.00,0.0185
1401.00,0.0189
1400.00,0.0193
1399.00,0.0198
1398.00,0.0204
1397.00,0.0209
1396.00,0.0214
1395.00,0.0220
1394.00,0.0227
1393.00,0.0232
1392.00,0.0237
1391.00,0.0244
1390.00,0.0254
1389.00,0.0269
1388.00,0.0290
1387.00,0.0321
1386.00,0.0363
1385.00,0.0418
1384.00,0.0494
1383.00,0.0602
1382.00,0.0748
1381.00,0.0938
1380.00,0.1173
1379.00,0.1440
1378.00,0.1697
1377.00,0.1884
1376.00,0.1945
1375.00,0.1848
1374.00,0.1623
1373.00,0.1352
1372.00,0.1103
1371.00,0.0898
1370.00,0.0734
1369.00,0.0609
1368.00,0.0523
1367.00,0.0469
1366.00,0.0439
1365.00,0.0425
1364.00,0.0426
1363.00,0.0438
1362.00,0.0457
1361.00,0.0478
1360.00,0.0493
1359.00,0.0497
1358.00,0.0485
1357.00,0.0459
1356.00,0.0423
1355.00,0.0383
1354.00,0.0344
1353.00,0.0310
1352.00,0.0283
1351.00,0.0261
1350.00,0.0243
1349.00,0.0228
1348.00,0.0216
1347.00,0.0205
1346.00,0.0195
1345.00,0.0187
1344.00,0.0181
1343.00,0.0176
1342.00,0.0171
1341.00,0.0168
1340.00,0.0165
1339.00,0.0163
1338.00,0.0162
1337.00,0.0161
1336.00,0.0161
1335.00,0.0162
1334.00,0.0164
1333.00,0.0167
1332.00,0.0170
1331.00,0.0173
1330.00,0.0174
1329.00,0.0171
1328.00,0.0167
1327.00,0.0161
1326.00,0.0155
1325.00,0.0149
1324.00,0.0143
1323.00,0.0138
1322.00,0.0134
1321.00,0.0130
1320.00,0.0128
1319.00,0.0126
1318.00,0.0124
1317.00,0.0121
1316.00,0.0119
1315.00,0.0117
1314.00,0.0117
1313.00,0.0116
1312.00,0.0117
1311.00,0.0118
1310.00,0.0121
1309.00,0.0126
1308.00,0.0134
1307.00,0.0144
1306.00,0.0154
1305.00,0.0161
1304.00,0.0163
1303.00,0.0161
1302.00,0.0157
1301.00,0.0154
1300.00,0.0153
1299.00,0.0153
1298.00,0.0154
1297.00,0.0154
1296.00,0.0153
1295.00,0.0151
1294.00,0.0147
1293.00,0.0143
1292.00,0.0138
1291.00,0.0133
1290.00,0.0129
1289.00,0.0125
1288.00,0.0122
1287.00,0.0120
1286.00,0.0119
1285.00,0.0117
1284.00,0.0115
1283.00,0.0114
1282.00,0.0113
1281.00,0.0113
1280.00,0.0113
1279.00,0.0113
1278.00,0.0113
1277.00,0.0113
1276.00,0.0114
1275.00,0.0116
1274.00,0.0118
1273.00,0.0120
1272.00,0.0122
1271.00,0.0124
1270.00,0.0127
1269.00,0.0130
1268.00,0.0133
1267.00,0.0136
1266.00,0.0140
1265.00,0.0144
1264.00,0.0148
1263.00,0.0152
1262.00,0.0156
1261.00,0.0160
1260.00,0.0165
1259.00,0.0171
1258.00,0.0178
1257.00,0.0184
1256.00,0.0187
1255.00,0.0186
1254.00,0.0182
1253.00,0.0175
1252.00,0.0168
1251.00,0.0162
1250.00,0.0156
1249.00,0.0152
1248.00,0.0148
1247.00,0.0145
1246.00,0.0143
1245.00,0.0141
1244.00,0.0139
1243.00,0.0138
1242.00,0.0137
1241.00,0.0136
1240.00,0.0135
1239.00,0.0134
1238.00,0.0133
1237.00,0.0132
1236.00,0.0131
1235.00,0.0130
1234.00,0.0130
1233.00,0.0130
1232.00,0.0130
1231.00,0.0130
1230.00,0.0130
1229.00,0.0131
1228.00,0.0131
1227.00,0.0133
1226.00,0.0135
1225.00,0.0136
1224.00,0.0138
1223.00,0.0140
1222.00,0.0142
1221.00,0.0144
1220.00,0.0145
1219.00,0.0145
1218.00,0.0144
1217.00,0.0142
1216.00,0.0139
1215.00,0.0136
1214.00,0.0132
1213.00,0.0129
1212.00,0.0126
1211.00,0.0123
1210.00,0.0121
1209.00,0.0120
1208.00,0.0118
1207.00,0.0118
1206.00,0.0117
1205.00,0.0117
1204.00,0.0117
1203.00,0.0117
1202.00,0.0118
1201.00,0.0118
1200.00,0.0118
1199.00,0.0119
1198.00,0.0120
1197.00,0.0122
1196.00,0.0123
1195.00,0.0124
1194.00,0.0125
1193.00,0.0125
1192.00,0.0126
1191.00,0.0126
1190.00,0.0128
1189.00,0.0129
1188.00,0.0130
1187.00,0.0131
1186.00,0.0133
1185.00,0.0135
1184.00,0.0137
1183.00,0.0140
1182.00,0.0143
1181.00,0.0146
1180.00,0.0151
1179.00,0.0156
1178.00,0.0163
1177.00,0.0172
1176.00,0.0183
1175.00,0.0198
1174.00,0.0217
1173.00,0.0240
1172.00,0.0268
1171.00,0.0298
1170.00,0.0327
1169.00,0.0349
1168.00,0.0363
1167.00,0.0365
1166.00,0.0359
1165.00,0.0347
1164.00,0.0334
1163.00,0.0321
1162.00,0.0310
1161.00,0.0301
1160.00,0.0295
1159.00,0.0290
1158.00,0.0287
1157.00,0.0285
1156.00,0.0283
1155.00,0.0282
1154.00,0.0280
1153.00,0.0278
1152.00,0.0275
1151.00,0.0269
1150.00,0.0261
1149.00,0.0251
1148.00,0.0241
1147.00,0.0232
1146.00,0.0222
1145.00,0.0213
1144.00,0.0204
1143.00,0.0196
1142.00,0.0189
1141.00,0.0183
1140.00,0.0178
1139.00,0.0173
1138.00,0.0169
1137.00,0.0165
1136.00,0.0162
1135.00,0.0159
1134.00,0.0156
1133.00,0.0155
1132.00,0.0154
1131.00,0.0154
1130.00,0.0154
1129.00,0.0154
1128.00,0.0154
1127.00,0.0153
1126.00,0.0153
1125.00,0.0152
1124.00,0.0152
1123.00,0.0151
1122.00,0.0150
1121.00,0.0149
1120.00,0.0148
1119.00,0.0148
1118.00,0.0148
1117.00,0.0149
1116.00,0.0149
1115.00,0.0150
1114.00,0.0151
1113.00,0.0153
1112.00,0.0154
1111.00,0.0156
1110.00,0.0158
1109.00,0.0161
1108.00,0.0165
1107.00,0.0170
1106.00,0.0175
1105.00,0.0181
1104.00,0.0186
1103.00,0.0188
1102.00,0.0188
1101.00,0.0186
1100.00,0.0181
1099.00,0.0176
1098.00,0.0172
1097.00,0.0168
1096.00,0.0165
1095.00,0.0163
1094.00,0.0161
1093.00,0.0160
1092.00,0.0159
1091.00,0.0158
1090.00,0.0159
1089.00,0.0159
1088.00,0.0160
1087.00,0.0159
1086.00,0.0159
1085.00,0.0159
1084.00,0.0159
1083.00,0.0159
1082.00,0.0158
1081.00,0.0158
1080.00,0.0157
1079.00,0.0156
1078.00,0.0155
1077.00,0.0154
1076.00,0.0153
1075.00,0.0153
1074.00,0.0153
1073.00,0.0153
1072.00,0.0152
1071.00,0.0150
1070.00,0.0149
1069.00,0.0147
1068.00,0.0146
1067.00,0.0144
1066.00,0.0142
1065.00,0.0141
1064.00,0.0139
1063.00,0.0139
1062.00,0.0140
1061.00,0.0141
1060.00,0.0141
1059.00,0.0141
1058.00,0.0142
1057.00,0.0142
1056.00,0.0142
1055.00,0.0142
1054.00,0.0143
1053.00,0.0144
1052.00,0.0145
1051.00,0.0147
1050.00,0.0149
1049.00,0.0152
1048.00,0.0154
1047.00,0.0157
1046.00,0.0160
1045.00,0.0162
1044.00,0.0164
1043.00,0.0163
1042.00,0.0162
1041.00,0.0160
1040.00,0.0159
1039.00,0.0159
1038.00,0.0160
1037.00,0.0161
1036.00,0.0162
1035.00,0.0161
1034.00,0.0159
1033.00,0.0156
1032.00,0.0153
1031.00,0.0150
1030.00,0.0149
1029.00,0.0148
1028.00,0.0147
1027.00,0.0148
1026.00,0.0149
1025.00,0.0151
1024.00,0.0153
1023.00,0.0155
1022.00,0.0157
1021.00,0.0159
1020.00,0.0160
1019.00,0.0161
1018.00,0.0162
1017.00,0.0162
1016.00,0.0163
1015.00,0.0164
1014.00,0.0165
1013.00,0.0168
1012.00,0.0169
1011.00,0.0170
1010.00,0.0169
1009.00,0.0168
1008.00,0.0167
1007.00,0.0169
1006.00,0.0173
1005.00,0.0180
1004.00,0.0192
1003.00,0.0211
1002.00,0.0237
1001.00,0.0269
1000.00,0.0302
999.00,0.0330
998.00,0.0343
997.00,0.0335
996.00,0.0310
995.00,0.0275
994.00,0.0239
993.00,0.0208
992.00,0.0182
991.00,0.0164
990.00,0.0152
989.00,0.0145
988.00,0.0140
987.00,0.0138
986.00,0.0138
985.00,0.0140
984.00,0.0144
983.00,0.0151
982.00,0.0163
981.00,0.0179
980.00,0.0201
979.00,0.0231
978.00,0.0267
977.00,0.0310
976.00,0.0355
975.00,0.0396
974.00,0.0426
973.00,0.0436
972.00,0.0423
971.00,0.0391
970.00,0.0347
969.00,0.0303
968.00,0.0265
967.00,0.0236
966.00,0.0214
965.00,0.0198
964.00,0.0187
963.00,0.0178
962.00,0.0171
961.00,0.0166
960.00,0.0163
959.00,0.0162
958.00,0.0161
957.00,0.0160
956.00,0.0158
955.00,0.0157
954.00,0.0155
953.00,0.0153
952.00,0.0151
951.00,0.0148
950.00,0.0147
949.00,0.0147
948.00,0.0146
947.00,0.0146
946.00,0.0145
945.00,0.0146
944.00,0.0147
943.00,0.0150
942.00,0.0152
941.00,0.0154
940.00,0.0152
939.00,0.0149
938.00,0.0142
937.00,0.0135
936.00,0.0127
935.00,0.0120
934.00,0.0113
933.00,0.0108
932.00,0.0104
931.00,0.0100
930.00,0.0098
929.00,0.0095
928.00,0.0093
927.00,0.0090
926.00,0.0088
925.00,0.0086
924.00,0.0084
923.00,0.0082
922.00,0.0081
921.00,0.0081
920.00,0.0080
919.00,0.0080
918.00,0.0079
917.00,0.0079
916.00,0.0079
915.00,0.0080
914.00,0.0081
913.00,0.0082
912.00,0.0082
911.00,0.0083
910.00,0.0084
909.00,0.0087
908.00,0.0090
907.00,0.0094
906.00,0.0101
905.00,0.0111
904.00,0.0126
903.00,0.0143
902.00,0.0162
901.00,0.0178
900.00,0.0188
899.00,0.0190
898.00,0.0183
897.00,0.0169
896.00,0.0150
895.00,0.0133
894.00,0.0118
893.00,0.0106
892.00,0.0097
891.00,0.0092
890.00,0.0088
889.00,0.0087
888.00,0.0086
887.00,0.0085
886.00,0.0084
885.00,0.0082
884.00,0.0082
883.00,0.0083
882.00,0.0084
881.00,0.0085
880.00,0.0085
879.00,0.0083
878.00,0.0083
877.00,0.0083
876.00,0.0085
875.00,0.0087
874.00,0.0088
873.00,0.0088
872.00,0.0088
871.00,0.0087
870.00,0.0086
869.00,0.0085
868.00,0.0086
867.00,0.0087
866.00,0.0088
865.00,0.0089
864.00,0.0090
863.00,0.0090
862.00,0.0090
861.00,0.0092
860.00,0.0093
859.00,0.0095
858.00,0.0096
857.00,0.0097
856.00,0.0098
855.00,0.0099
854.00,0.0101
853.00,0.0104
852.00,0.0106
851.00,0.0110
850.00,0.0114
849.00,0.0120
848.00,0.0128
847.00,0.0140
846.00,0.0159
845.00,0.0188
844.00,0.0228
843.00,0.0273
842.00,0.0308
841.00,0.0317
840.00,0.0296
839.00,0.0255
838.00,0.0213
837.00,0.0179
836.00,0.0157
835.00,0.0144
834.00,0.0136
833.00,0.0132
832.00,0.0130
831.00,0.0128
830.00,0.0127
829.00,0.0126
828.00,0.0124
827.00,0.0122
826.00,0.0120
825.00,0.0120
824.00,0.0120
823.00,0.0120
822.00,0.0120
821.00,0.0121
820.00,0.0123
819.00,0.0125
818.00,0.0130
817.00,0.0136
816.00,0.0144
815.00,0.0156
814.00,0.0171
813.00,0.0189
812.00,0.0209
811.00,0.0226
810.00,0.0238
809.00,0.0242
808.00,0.0237
807.00,0.0225
806.00,0.0209
805.00,0.0192
804.00,0.0177
803.00,0.0164
802.00,0.0153
801.00,0.0145
800.00,0.0137
799.00,0.0131
798.00,0.0125
797.00,0.0121
796.00,0.0118
795.00,0.0115
794.00,0.0112
793.00,0.0109
792.00,0.0105
791.00,0.0101
790.00,0.0098
789.00,0.0094
788.00,0.0091
787.00,0.0088
786.00,0.0087
785.00,0.0085
784.00,0.0084
783.00,0.0082
782.00,0.0081
781.00,0.0080
780.00,0.0079
779.00,0.0079
778.00,0.0079
777.00,0.0080
776.00,0.0081
775.00,0.0081
774.00,0.0080
773.00,0.0080
772.00,0.0079
771.00,0.0078
770.00,0.0079
769.00,0.0080
768.00,0.0081
767.00,0.0083
766.00,0.0084
765.00,0.0085
764.00,0.0087
763.00,0.0087
762.00,0.0086
761.00,0.0084
760.00,0.0083
759.00,0.0083
758.00,0.0084
757.00,0.0086
756.00,0.0087
755.00,0.0089
754.00,0.0090
753.00,0.0092
752.00,0.0093
751.00,0.0093
750.00,0.0093
749.00,0.0092
748.00,0.0092
747.00,0.0093
746.00,0.0095
745.00,0.0097
744.00,0.0098
743.00,0.0099
742.00,0.0102
741.00,0.0106
740.00,0.0111
739.00,0.0116
738.00,0.0120
737.00,0.0123
736.00,0.0125
735.00,0.0127
734.00,0.0131
733.00,0.0137
732.00,0.0144
731.00,0.0151
730.00,0.0157
729.00,0.0160
728.00,0.0161
727.00,0.0161
726.00,0.0162
725.00,0.0164
724.00,0.0167
723.00,0.0171
722.00,0.0174
721.00,0.0176
720.00,0.0174
719.00,0.0167
718.00,0.0158
717.00,0.0148
716.00,0.0139
715.00,0.0132
714.00,0.0127
713.00,0.0124
712.00,0.0122
711.00,0.0120
710.00,0.0119
709.00,0.0119
708.00,0.0118
707.00,0.0117
706.00,0.0116
705.00,0.0116
704.00,0.0115
703.00,0.0115
702.00,0.0115
701.00,0.0115
700.00,0.0115
699.00,0.0114
698.00,0.0113
697.00,0.0112
696.00,0.0111
695.00,0.0110
694.00,0.0111
693.00,0.0113
692.00,0.0115
691.00,0.0116
690.00,0.0117
689.00,0.0118
688.00,0.0117
687.00,0.0116
686.00,0.0115
685.00,0.0115
684.00,0.0116
683.00,0.0118
682.00,0.0119
681.00,0.0119
680.00,0.0119
679.00,0.0118
678.00,0.0118
677.00,0.0119
676.00,0.0121
675.00,0.0124
674.00,0.0127
673.00,0.0129
672.00,0.0131
671.00,0.0131
670.00,0.0128
669.00,0.0125
668.00,0.0122
667.00,0.0122
666.00,0.0122
665.00,0.0120
664.00,0.0117
663.00,0.0115
662.00,0.0113
661.00,0.0113
660.00,0.0112
659.00,0.0112
658.00,0.0112
657.00,0.0113
656.00,0.0113
655.00,0.0113
654.00,0.0112
653.00,0.0111
652.00,0.0109
651.00,0.0108
650.00,0.0106
649.00,0.0105
648.00,0.0106
647.00,0.0108
646.00,0.0109
645.00,0.0108
644.00,0.0105
643.00,0.0102
642.00,0.0101
641.00,0.0100
640.00,0.0100
639.00,0.0100
638.00,0.0102
637.00,0.0103
636.00,0.0103
635.00,0.0102
634.00,0.0099
633.00,0.0097
632.00,0.0097
631.00,0.0100
630.00,0.0104
629.00,0.0105
628.00,0.0105
627.00,0.0104
626.00,0.0105
625.00,0.0105
624.00,0.0103
623.00,0.0101
622.00,0.0098
621.00,0.0097
620.00,0.0098
619.00,0.0100
618.00,0.0103
617.00,0.0105
616.00,0.0107
615.00,0.0106
614.00,0.0104
613.00,0.0102
612.00,0.0100
611.00,0.0100
610.00,0.0101
609.00,0.0103
608.00,0.0103
607.00,0.0103
606.00,0.0104
605.00,0.0106
604.00,0.0108
603.00,0.0109
602.00,0.0108
601.00,0.0106
600.00,0.0104
599.00,0.0103
598.00,0.0103
597.00,0.0104
596.00,0.0104
595.00,0.0102
594.00,0.0100
593.00,0.0099
592.00,0.0098
591.00,0.0098
590.00,0.0099
589.00,0.0100
588.00,0.0100
587.00,0.0099
586.00,0.0099
585.00,0.0101
584.00,0.0103
583.00,0.0106
582.00,0.0109
581.00,0.0111
580.00,0.0112
579.00,0.0110
578.00,0.0106
577.00,0.0104
576.00,0.0102
575.00,0.0101
574.00,0.0100
573.00,0.0099
572.00,0.0100
571.00,0.0101
570.00,0.0104
569.00,0.0107
568.00,0.0107
567.00,0.0105
566.00,0.0103
565.00,0.0102
564.00,0.0101
563.00,0.0099
562.00,0.0096
561.00,0.0095
560.00,0.0098
559.00,0.0101
558.00,0.0103
557.00,0.0103
556.00,0.0102
555.00,0.0102
554.00,0.0104
553.00,0.0105
552.00,0.0107
551.00,0.0107
550.00,0.0105
549.00,0.0105
548.00,0.0105
547.00,0.0104
546.00,0.0102
545.00,0.0100
544.00,0.0100
543.00,0.0105
542.00,0.0110
541.00,0.0114
540.00,0.0116
539.00,0.0118
538.00,0.0121
537.00,0.0124
536.00,0.0128
535.00,0.0132
534.00,0.0135
533.00,0.0137
532.00,0.0137
531.00,0.0133
530.00,0.0126
529.00,0.0121
528.00,0.0121
527.00,0.0126
526.00,0.0129
525.00,0.0127
524.00,0.0124
523.00,0.0122
522.00,0.0124
521.00,0.0125
520.00,0.0120
519.00,0.0112
518.00,0.0107
517.00,0.0107
516.00,0.0110
515.00,0.0111
514.00,0.0108
513.00,0.0103
512.00,0.0101
511.00,0.0103
510.00,0.0109
509.00,0.0115
508.00,0.0117
507.00,0.0114
506.00,0.0107
505.00,0.0097
504.00,0.0090
503.00,0.0086
502.00,0.0088
501.00,0.0092
500.00,0.0097
499.00,0.0101
498.00,0.0103
497.00,0.0104
496.00,0.0105
495.00,0.0107
494.00,0.0111
493.00,0.0116
492.00,0.0119
491.00,0.0116
490.00,0.0109
489.00,0.0101
488.00,0.0098
487.00,0.0104
486.00,0.0117
485.00,0.0129
484.00,0.0132
483.00,0.0127
482.00,0.0121
481.00,0.0120
480.00,0.0122
479.00,0.0124
478.00,0.0126
477.00,0.0135
476.00,0.0151
475.00,0.0168
474.00,0.0178
473.00,0.0178
472.00,0.0173
471.00,0.0169
470.00,0.0167
469.00,0.0168
468.00,0.0174
467.00,0.0188
466.00,0.0206
465.00,0.0220
464.00,0.0224
463.00,0.0221
462.00,0.0216
461.00,0.0217
460.00,0.0226
459.00,0.0241
458.00,0.0255
457.00,0.0256
456.00,0.0244
455.00,0.0228
454.00,0.0215
453.00,0.0206
452.00,0.0194
451.00,0.0178
450.00,0.0162
