Created as New Dataset,Sample 015 By Administrator Date Wednesday, September 03 2025
cm-1,A
4000.00,0.0011
3999.00,0.0011
3998.00,0.0011
3997.00,0.0011
3996.00,0.0010
3995.00,0.0010
3994.00,0.0010
3993.00,0.0010
3992.00,0.0010
3991.00,0.0010
3990.00,0.0010
3989.00,0.0010
3988.00,0.0010
3987.00,0.0010
3986.00,0.0010
3985.00,0.0010
3984.00,0.0011
3983.00,0.0011
3982.00,0.0010
3981.00,0.0010
3980.00,0.0010
3979.00,0.0010
3978.00,0.0010
3977.00,0.0010
3976.00,0.0010
3975.00,0.0010
3974.00,0.0009
3973.00,0.0009
3972.00,0.0009
3971.00,0.0009
3970.00,0.0009
3969.00,0.0009
3968.00,0.0009
3967.00,0.0009
3966.00,0.0009
3965.00,0.0010
3964.00,0.0010
3963.00,0.0010
3962.00,0.0010
3961.00,0.0009
3960.00,0.0009
3959.00,0.0009
3958.00,0.0009
3957.00,0.0009
3956.00,0.0009
3955.00,0.0008
3954.00,0.0008
3953.00,0.0008
3952.00,0.0008
3951.00,0.0009
3950.00,0.0009
3949.00,0.0009
3948.00,0.0009
3947.00,0.0009
3946.00,0.0008
3945.00,0.0009
3944.00,0.0009
3943.00,0.0009
3942.00,0.0009
3941.00,0.0009
3940.00,0.0009
3939.00,0.0009
3938.00,0.0009
3937.00,0.0009
3936.00,0.0009
3935.00,0.0010
3934.00,0.0010
3933.00,0.0010
3932.00,0.0010
3931.00,0.0010
3930.00,0.0009
3929.00,0.0009
3928.00,0.0009
3927.00,0.0009
3926.00,0.0009
3925.00,0.0010
3924.00,0.0010
3923.00,0.0009
3922.00,0.0009
3921.00,0.0009
3920.00,0.0009
3919.00,0.0009
3918.00,0.0009
3917.00,0.0009
3916.00,0.0009
3915.00,0.0009
3914.00,0.0009
3913.00,0.0010
3912.00,0.0010
3911.00,0.0010
3910.00,0.0010
3909.00,0.0009
3908.00,0.0009
3907.00,0.0009
3906.00,0.0009
3905.00,0.0010
3904.00,0.0010
3903.00,0.0010
3902.00,0.0010
3901.00,0.0009
3900.00,0.0009
3899.00,0.0009
3898.00,0.0009
3897.00,0.0009
3896.00,0.0009
3895.00,0.0009
3894.00,0.0009
3893.00,0.0009
3892.00,0.0009
3891.00,0.0009
3890.00,0.0009
3889.00,0.0008
3888.00,0.0008
3887.00,0.0008
3886.00,0.0008
3885.00,0.0008
3884.00,0.0008
3883.00,0.0008
3882.00,0.0008
3881.00,0.0008
3880.00,0.0009
3879.00,0.0009
3878.00,0.0009
3877.00,0.0009
3876.00,0.0009
3875.00,0.0009
3874.00,0.0009
3873.00,0.0008
3872.00,0.0008
3871.00,0.0008
3870.00,0.0008
3869.00,0.0008
3868.00,0.0007
3867.00,0.0007
3866.00,0.0008
3865.00,0.0008
3864.00,0.0008
3863.00,0.0008
3862.00,0.0008
3861.00,0.0008
3860.00,0.0008
3859.00,0.0008
3858.00,0.0008
3857.00,0.0007
3856.00,0.0007
3855.00,0.0007
3854.00,0.0007
3853.00,0.0006
3852.00,0.0006
3851.00,0.0006
3850.00,0.0007
3849.00,0.0007
3848.00,0.0007
3847.00,0.0007
3846.00,0.0007
3845.00,0.0008
3844.00,0.0008
3843.00,0.0009
3842.00,0.0008
3841.00,0.0008
3840.00,0.0008
3839.00,0.0007
3838.00,0.0007
3837.00,0.0007
3836.00,0.0007
3835.00,0.0007
3834.00,0.0007
3833.00,0.0008
3832.00,0.0008
3831.00,0.0009
3830.00,0.0009
3829.00,0.0009
3828.00,0.0009
3827.00,0.0009
3826.00,0.0009
3825.00,0.0009
3824.00,0.0008
3823.00,0.0007
3822.00,0.0007
3821.00,0.0007
3820.00,0.0007
3819.00,0.0006
3818.00,0.0006
3817.00,0.0006
3816.00,0.0007
3815.00,0.0008
3814.00,0.0008
3813.00,0.0009
3812.00,0.0010
3811.00,0.0010
3810.00,0.0010
3809.00,0.0009
3808.00,0.0009
3807.00,0.0009
3806.00,0.0008
3805.00,0.0007
3804.00,0.0006
3803.00,0.0006
3802.00,0.0007
3801.00,0.0007
3800.00,0.0007
3799.00,0.0007
3798.00,0.0007
3797.00,0.0007
3796.00,0.0008
3795.00,0.0008
3794.00,0.0008
3793.00,0.0009
3792.00,0.0009
3791.00,0.0009
3790.00,0.0010
3789.00,0.0010
3788.00,0.0010
3787.00,0.0009
3786.00,0.0009
3785.00,0.0009
3784.00,0.0009
3783.00,0.0009
3782.00,0.0009
3781.00,0.0009
3780.00,0.0009
3779.00,0.0009
3778.00,0.0009
3777.00,0.0009
3776.00,0.0009
3775.00,0.0010
3774.00,0.0010
3773.00,0.0010
3772.00,0.0009
3771.00,0.0009
3770.00,0.0008
3769.00,0.0008
3768.00,0.0008
3767.00,0.0009
3766.00,0.0009
3765.00,0.0010
3764.00,0.0010
3763.00,0.0009
3762.00,0.0009
3761.00,0.0008
3760.00,0.0008
3759.00,0.0008
3758.00,0.0008
3757.00,0.0008
3756.00,0.0007
3755.00,0.0007
3754.00,0.0007
3753.00,0.0006
3752.00,0.0006
3751.00,0.0005
3750.00,0.0005
3749.00,0.0005
3748.00,0.0004
3747.00,0.0004
3746.00,0.0004
3745.00,0.0005
3744.00,0.0005
3743.00,0.0006
3742.00,0.0006
3741.00,0.0007
3740.00,0.0007
3739.00,0.0007
3738.00,0.0007
3737.00,0.0006
3736.00,0.0006
3735.00,0.0005
3734.00,0.0005
3733.00,0.0005
3732.00,0.0006
3731.00,0.0007
3730.00,0.0007
3729.00,0.0007
3728.00,0.0007
3727.00,0.0008
3726.00,0.0009
3725.00,0.0009
3724.00,0.0009
3723.00,0.0009
3722.00,0.0009
3721.00,0.0008
3720.00,0.0008
3719.00,0.0007
3718.00,0.0007
3717.00,0.0007
3716.00,0.0006
3715.00,0.0006
3714.00,0.0006
3713.00,0.0006
3712.00,0.0006
3711.00,0.0005
3710.00,0.0006
3709.00,0.0006
3708.00,0.0007
3707.00,0.0007
3706.00,0.0008
3705.00,0.0008
3704.00,0.0008
3703.00,0.0008
3702.00,0.0008
3701.00,0.0008
3700.00,0.0009
3699.00,0.0009
3698.00,0.0009
3697.00,0.0009
3696.00,0.0009
3695.00,0.0010
3694.00,0.0010
3693.00,0.0010
3692.00,0.0010
3691.00,0.0010
3690.00,0.0010
3689.00,0.0010
3688.00,0.0011
3687.00,0.0012
3686.00,0.0013
3685.00,0.0015
3684.00,0.0016
3683.00,0.0017
3682.00,0.0018
3681.00,0.0020
3680.00,0.0021
3679.00,0.0022
3678.00,0.0022
3677.00,0.0023
3676.00,0.0024
3675.00,0.0026
3674.00,0.0026
3673.00,0.0027
3672.00,0.0027
3671.00,0.0029
3670.00,0.0030
3669.00,0.0030
3668.00,0.0030
3667.00,0.0031
3666.00,0.0032
3665.00,0.0033
3664.00,0.0033
3663.00,0.0034
3662.00,0.0035
3661.00,0.0036
3660.00,0.0036
3659.00,0.0036
3658.00,0.0036
3657.00,0.0036
3656.00,0.0036
3655.00,0.0035
3654.00,0.0035
3653.00,0.0034
3652.00,0.0034
3651.00,0.0034
3650.00,0.0033
3649.00,0.0032
3648.00,0.0031
3647.00,0.0031
3646.00,0.0031
3645.00,0.0030
3644.00,0.0030
3643.00,0.0029
3642.00,0.0029
3641.00,0.0029
3640.00,0.0029
3639.00,0.0029
3638.00,0.0029
3637.00,0.0029
3636.00,0.0027
3635.00,0.0025
3634.00,0.0022
3633.00,0.0020
3632.00,0.0019
3631.00,0.0018
3630.00,0.0018
3629.00,0.0018
3628.00,0.0017
3627.00,0.0016
3626.00,0.0016
3625.00,0.0017
3624.00,0.0017
3623.00,0.0018
3622.00,0.0017
3621.00,0.0017
3620.00,0.0017
3619.00,0.0017
3618.00,0.0016
3617.00,0.0016
3616.00,0.0015
3615.00,0.0015
3614.00,0.0015
3613.00,0.0015
3612.00,0.0015
3611.00,0.0015
3610.00,0.0015
3609.00,0.0016
3608.00,0.0016
3607.00,0.0016
3606.00,0.0016
3605.00,0.0016
3604.00,0.0016
3603.00,0.0016
3602.00,0.0017
3601.00,0.0017
3600.00,0.0017
3599.00,0.0018
3598.00,0.0018
3597.00,0.0018
3596.00,0.0018
3595.00,0.0018
3594.00,0.0018
3593.00,0.0017
3592.00,0.0017
3591.00,0.0017
3590.00,0.0018
3589.00,0.0019
3588.00,0.0020
3587.00,0.0020
3586.00,0.0020
3585.00,0.0020
3584.00,0.0020
3583.00,0.0021
3582.00,0.0021
3581.00,0.0022
3580.00,0.0022
3579.00,0.0022
3578.00,0.0022
3577.00,0.0022
3576.00,0.0022
3575.00,0.0023
3574.00,0.0023
3573.00,0.0024
3572.00,0.0024
3571.00,0.0024
3570.00,0.0024
3569.00,0.0025
3568.00,0.0025
3567.00,0.0026
3566.00,0.0026
3565.00,0.0026
3564.00,0.0026
3563.00,0.0026
3562.00,0.0027
3561.00,0.0027
3560.00,0.0027
3559.00,0.0027
3558.00,0.0027
3557.00,0.0027
3556.00,0.0027
3555.00,0.0027
3554.00,0.0028
3553.00,0.0028
3552.00,0.0028
3551.00,0.0029
3550.00,0.0029
3549.00,0.0029
3548.00,0.0030
3547.00,0.0030
3546.00,0.0030
3545.00,0.0030
3544.00,0.0030
3543.00,0.0030
3542.00,0.0030
3541.00,0.0030
3540.00,0.0030
3539.00,0.0030
3538.00,0.0030
3537.00,0.0031
3536.00,0.0031
3535.00,0.0031
3534.00,0.0031
3533.00,0.0031
3532.00,0.0031
3531.00,0.0031
3530.00,0.0031
3529.00,0.0031
3528.00,0.0031
3527.00,0.0032
3526.00,0.0032
3525.00,0.0033
3524.00,0.0033
3523.00,0.0033
3522.00,0.0034
3521.00,0.0034
3520.00,0.0034
3519.00,0.0035
3518.00,0.0035
3517.00,0.0035
3516.00,0.0035
3515.00,0.0035
3514.00,0.0035
3513.00,0.0035
3512.00,0.0036
3511.00,0.0036
3510.00,0.0036
3509.00,0.0036
3508.00,0.0035
3507.00,0.0036
3506.00,0.0036
3505.00,0.0037
3504.00,0.0037
3503.00,0.0038
3502.00,0.0038
3501.00,0.0038
3500.00,0.0038
3499.00,0.0038
3498.00,0.0039
3497.00,0.0039
3496.00,0.0039
3495.00,0.0039
3494.00,0.0039
3493.00,0.0039
3492.00,0.0040
3491.00,0.0041
3490.00,0.0041
3489.00,0.0042
3488.00,0.0042
3487.00,0.0042
3486.00,0.0042
3485.00,0.0041
3484.00,0.0041
3483.00,0.0042
3482.00,0.0042
3481.00,0.0042
3480.00,0.0043
3479.00,0.0043
3478.00,0.0043
3477.00,0.0043
3476.00,0.0043
3475.00,0.0043
3474.00,0.0043
3473.00,0.0043
3472.00,0.0043
3471.00,0.0044
3470.00,0.0044
3469.00,0.0045
3468.00,0.0045
3467.00,0.0046
3466.00,0.0046
3465.00,0.0046
3464.00,0.0046
3463.00,0.0046
3462.00,0.0046
3461.00,0.0047
3460.00,0.0047
3459.00,0.0047
3458.00,0.0046
3457.00,0.0046
3456.00,0.0047
3455.00,0.0047
3454.00,0.0047
3453.00,0.0047
3452.00,0.0047
3451.00,0.0047
3450.00,0.0048
3449.00,0.0048
3448.00,0.0049
3447.00,0.0049
3446.00,0.0050
3445.00,0.0050
3444.00,0.0050
3443.00,0.0049
3442.00,0.0049
3441.00,0.0049
3440.00,0.0050
3439.00,0.0050
3438.00,0.0050
3437.00,0.0050
3436.00,0.0051
3435.00,0.0051
3434.00,0.0051
3433.00,0.0052
3432.00,0.0052
3431.00,0.0051
3430.00,0.0051
3429.00,0.0051
3428.00,0.0051
3427.00,0.0052
3426.00,0.0052
3425.00,0.0052
3424.00,0.0052
3423.00,0.0052
3422.00,0.0052
3421.00,0.0052
3420.00,0.0052
3419.00,0.0053
3418.00,0.0053
3417.00,0.0053
3416.00,0.0053
3415.00,0.0053
3414.00,0.0053
3413.00,0.0053
3412.00,0.0054
3411.00,0.0054
3410.00,0.0054
3409.00,0.0054
3408.00,0.0054
3407.00,0.0053
3406.00,0.0053
3405.00,0.0054
3404.00,0.0054
3403.00,0.0054
3402.00,0.0054
3401.00,0.0054
3400.00,0.0054
3399.00,0.0054
3398.00,0.0054
3397.00,0.0054
3396.00,0.0054
3395.00,0.0054
3394.00,0.0054
3393.00,0.0054
3392.00,0.0053
3391.00,0.0053
3390.00,0.0054
3389.00,0.0054
3388.00,0.0054
3387.00,0.0055
3386.00,0.0055
3385.00,0.0055
3384.00,0.0054
3383.00,0.0054
3382.00,0.0054
3381.00,0.0054
3380.00,0.0054
3379.00,0.0054
3378.00,0.0054
3377.00,0.0054
3376.00,0.0054
3375.00,0.0055
3374.00,0.0055
3373.00,0.0055
3372.00,0.0055
3371.00,0.0055
3370.00,0.0056
3369.00,0.0056
3368.00,0.0056
3367.00,0.0056
3366.00,0.0056
3365.00,0.0055
3364.00,0.0055
3363.00,0.0055
3362.00,0.0056
3361.00,0.0056
3360.00,0.0055
3359.00,0.0055
3358.00,0.0055
3357.00,0.0055
3356.00,0.0055
3355.00,0.0055
3354.00,0.0055
3353.00,0.0055
3352.00,0.0055
3351.00,0.0055
3350.00,0.0056
3349.00,0.0056
3348.00,0.0057
3347.00,0.0057
3346.00,0.0057
3345.00,0.0057
3344.00,0.0056
3343.00,0.0056
3342.00,0.0055
3341.00,0.0055
3340.00,0.0055
3339.00,0.0056
3338.00,0.0056
3337.00,0.0056
3336.00,0.0056
3335.00,0.0055
3334.00,0.0055
3333.00,0.0054
3332.00,0.0054
3331.00,0.0055
3330.00,0.0054
3329.00,0.0054
3328.00,0.0054
3327.00,0.0054
3326.00,0.0054
3325.00,0.0054
3324.00,0.0054
3323.00,0.0054
3322.00,0.0053
3321.00,0.0053
3320.00,0.0053
3319.00,0.0053
3318.00,0.0053
3317.00,0.0053
3316.00,0.0054
3315.00,0.0054
3314.00,0.0054
3313.00,0.0054
3312.00,0.0053
3311.00,0.0053
3310.00,0.0053
3309.00,0.0053
3308.00,0.0053
3307.00,0.0053
3306.00,0.0053
3305.00,0.0053
3304.00,0.0053
3303.00,0.0053
3302.00,0.0053
3301.00,0.0054
3300.00,0.0054
3299.00,0.0054
3298.00,0.0054
3297.00,0.0053
3296.00,0.0053
3295.00,0.0053
3294.00,0.0053
3293.00,0.0053
3292.00,0.0053
3291.00,0.0053
3290.00,0.0053
3289.00,0.0052
3288.00,0.0052
3287.00,0.0052
3286.00,0.0052
3285.00,0.0052
3284.00,0.0052
3283.00,0.0051
3282.00,0.0051
3281.00,0.0051
3280.00,0.0051
3279.00,0.0051
3278.00,0.0051
3277.00,0.0051
3276.00,0.0051
3275.00,0.0051
3274.00,0.0050
3273.00,0.0050
3272.00,0.0050
3271.00,0.0050
3270.00,0.0050
3269.00,0.0049
3268.00,0.0049
3267.00,0.0049
3266.00,0.0049
3265.00,0.0049
3264.00,0.0049
3263.00,0.0049
3262.00,0.0049
3261.00,0.0049
3260.00,0.0049
3259.00,0.0049
3258.00,0.0048
3257.00,0.0048
3256.00,0.0048
3255.00,0.0048
3254.00,0.0048
3253.00,0.0048
3252.00,0.0048
3251.00,0.0048
3250.00,0.0048
3249.00,0.0048
3248.00,0.0048
3247.00,0.0048
3246.00,0.0047
3245.00,0.0047
3244.00,0.0046
3243.00,0.0046
3242.00,0.0046
3241.00,0.0046
3240.00,0.0046
3239.00,0.0047
3238.00,0.0047
3237.00,0.0047
3236.00,0.0047
3235.00,0.0047
3234.00,0.0047
3233.00,0.0047
3232.00,0.0047
3231.00,0.0047
3230.00,0.0047
3229.00,0.0047
3228.00,0.0048
3227.00,0.0048
3226.00,0.0048
3225.00,0.0048
3224.00,0.0048
3223.00,0.0048
3222.00,0.0048
3221.00,0.0048
3220.00,0.0048
3219.00,0.0048
3218.00,0.0049
3217.00,0.0049
3216.00,0.0049
3215.00,0.0049
3214.00,0.0050
3213.00,0.0050
3212.00,0.0050
3211.00,0.0050
3210.00,0.0050
3209.00,0.0050
3208.00,0.0050
3207.00,0.0050
3206.00,0.0050
3205.00,0.0050
3204.00,0.0050
3203.00,0.0050
3202.00,0.0050
3201.00,0.0050
3200.00,0.0050
3199.00,0.0050
3198.00,0.0050
3197.00,0.0050
3196.00,0.0050
3195.00,0.0050
3194.00,0.0049
3193.00,0.0049
3192.00,0.0049
3191.00,0.0048
3190.00,0.0048
3189.00,0.0048
3188.00,0.0047
3187.00,0.0047
3186.00,0.0047
3185.00,0.0047
3184.00,0.0047
3183.00,0.0046
3182.00,0.0046
3181.00,0.0046
3180.00,0.0046
3179.00,0.0046
3178.00,0.0046
3177.00,0.0046
3176.00,0.0046
3175.00,0.0046
3174.00,0.0045
3173.00,0.0045
3172.00,0.0045
3171.00,0.0045
3170.00,0.0044
3169.00,0.0044
3168.00,0.0044
3167.00,0.0043
3166.00,0.0043
3165.00,0.0043
3164.00,0.0043
3163.00,0.0043
3162.00,0.0043
3161.00,0.0043
3160.00,0.0043
3159.00,0.0042
3158.00,0.0042
3157.00,0.0042
3156.00,0.0042
3155.00,0.0042
3154.00,0.0042
3153.00,0.0042
3152.00,0.0042
3151.00,0.0042
3150.00,0.0042
3149.00,0.0042
3148.00,0.0042
3147.00,0.0042
3146.00,0.0042
3145.00,0.0042
3144.00,0.0042
3143.00,0.0041
3142.00,0.0041
3141.00,0.0040
3140.00,0.0040
3139.00,0.0040
3138.00,0.0040
3137.00,0.0041
3136.00,0.0040
3135.00,0.0040
3134.00,0.0039
3133.00,0.0039
3132.00,0.0038
3131.00,0.0038
3130.00,0.0038
3129.00,0.0038
3128.00,0.0038
3127.00,0.0037
3126.00,0.0037
3125.00,0.0037
3124.00,0.0037
3123.00,0.0037
3122.00,0.0037
3121.00,0.0037
3120.00,0.0036
3119.00,0.0036
3118.00,0.0036
3117.00,0.0036
3116.00,0.0036
3115.00,0.0036
3114.00,0.0036
3113.00,0.0035
3112.00,0.0035
3111.00,0.0035
3110.00,0.0035
3109.00,0.0035
3108.00,0.0035
3107.00,0.0035
3106.00,0.0035
3105.00,0.0034
3104.00,0.0034
3103.00,0.0034
3102.00,0.0034
3101.00,0.0035
3100.00,0.0035
3099.00,0.0035
3098.00,0.0034
3097.00,0.0034
3096.00,0.0034
3095.00,0.0034
3094.00,0.0035
3093.00,0.0034
3092.00,0.0034
3091.00,0.0034
3090.00,0.0035
3089.00,0.0035
3088.00,0.0035
3087.00,0.0035
3086.00,0.0035
3085.00,0.0035
3084.00,0.0035
3083.00,0.0035
3082.00,0.0035
3081.00,0.0035
3080.00,0.0035
3079.00,0.0035
3078.00,0.0036
3077.00,0.0036
3076.00,0.0036
3075.00,0.0036
3074.00,0.0036
3073.00,0.0036
3072.00,0.0036
3071.00,0.0036
3070.00,0.0035
3069.00,0.0035
3068.00,0.0035
3067.00,0.0036
3066.00,0.0036
3065.00,0.0036
3064.00,0.0037
3063.00,0.0037
3062.00,0.0037
3061.00,0.0037
3060.00,0.0037
3059.00,0.0037
3058.00,0.0037
3057.00,0.0037
3056.00,0.0037
3055.00,0.0037
3054.00,0.0038
3053.00,0.0038
3052.00,0.0038
3051.00,0.0039
3050.00,0.0039
3049.00,0.0039
3048.00,0.0040
3047.00,0.0040
3046.00,0.0039
3045.00,0.0039
3044.00,0.0039
3043.00,0.0040
3042.00,0.0040
3041.00,0.0040
3040.00,0.0041
3039.00,0.0041
3038.00,0.0042
3037.00,0.0042
3036.00,0.0043
3035.00,0.0043
3034.00,0.0043
3033.00,0.0043
3032.00,0.0043
3031.00,0.0044
3030.00,0.0044
3029.00,0.0045
3028.00,0.0046
3027.00,0.0047
3026.00,0.0048
3025.00,0.0049
3024.00,0.0050
3023.00,0.0051
3022.00,0.0053
3021.00,0.0055
3020.00,0.0056
3019.00,0.0058
3018.00,0.0061
3017.00,0.0063
3016.00,0.0067
3015.00,0.0071
3014.00,0.0075
3013.00,0.0080
3012.00,0.0086
3011.00,0.0092
3010.00,0.0099
3009.00,0.0106
3008.00,0.0114
3007.00,0.0123
3006.00,0.0132
3005.00,0.0142
3004.00,0.0152
3003.00,0.0161
3002.00,0.0171
3001.00,0.0181
3000.00,0.0190
2999.00,0.0200
2998.00,0.0208
2997.00,0.0217
2996.00,0.0225
2995.00,0.0232
2994.00,0.0240
2993.00,0.0249
2992.00,0.0258
2991.00,0.0266
2990.00,0.0276
2989.00,0.0286
2988.00,0.0298
2987.00,0.0314
2986.00,0.0335
2985.00,0.0365
2984.00,0.0400
2983.00,0.0436
2982.00,0.0465
2981.00,0.0485
2980.00,0.0495
2979.00,0.0502
2978.00,0.0510
2977.00,0.0524
2976.00,0.0545
2975.00,0.0576
2974.00,0.0615
2973.00,0.0661
2972.00,0.0711
2971.00,0.0762
2970.00,0.0813
2969.00,0.0867
2968.00,0.0927
2967.00,0.0992
2966.00,0.1061
2965.00,0.1131
2964.00,0.1198
2963.00,0.1259
2962.00,0.1311
2961.00,0.1356
2960.00,0.1394
2959.00,0.1429
2958.00,0.1466
2957.00,0.1510
2956.00,0.1564
2955.00,0.1629
2954.00,0.1702
2953.00,0.1777
2952.00,0.1844
2951.00,0.1892
2950.00,0.1910
2949.00,0.1891
2948.00,0.1832
2947.00,0.1739
2946.00,0.1623
2945.00,0.1499
2944.00,0.1379
2943.00,0.1277
2942.00,0.1197
2941.00,0.1141
2940.00,0.1109
2939.00,0.1099
2938.00,0.1109
2937.00,0.1136
2936.00,0.1180
2935.00,0.1238
2934.00,0.1311
2933.00,0.1396
2932.00,0.1492
2931.00,0.1596
2930.00,0.1705
2929.00,0.1818
2928.00,0.1931
2927.00,0.2041
2926.00,0.2150
2925.00,0.2255
2924.00,0.2360
2923.00,0.2464
2922.00,0.2569
2921.00,0.2670
2920.00,0.2762
2919.00,0.2832
2918.00,0.2871
2917.00,0.2867
2916.00,0.2820
2915.00,0.2735
2914.00,0.2624
2913.00,0.2503
2912.00,0.2383
2911.00,0.2272
2910.00,0.2173
2909.00,0.2085
2908.00,0.2005
2907.00,0.1931
2906.00,0.1859
2905.00,0.1789
2904.00,0.1720
2903.00,0.1652
2902.00,0.1586
2901.00,0.1522
2900.00,0.1461
2899.00,0.1404
2898.00,0.1351
2897.00,0.1302
2896.00,0.1260
2895.00,0.1223
2894.00,0.1192
2893.00,0.1168
2892.00,0.1149
2891.00,0.1135
2890.00,0.1126
2889.00,0.1120
2888.00,0.1117
2887.00,0.1117
2886.00,0.1122
2885.00,0.1129
2884.00,0.1141
2883.00,0.1157
2882.00,0.1176
2881.00,0.1197
2880.00,0.1218
2879.00,0.1236
2878.00,0.1249
2877.00,0.1252
2876.00,0.1249
2875.00,0.1241
2874.00,0.1234
2873.00,0.1232
2872.00,0.1237
2871.00,0.1249
2870.00,0.1266
2869.00,0.1283
2868.00,0.1292
2867.00,0.1288
2866.00,0.1262
2865.00,0.1213
2864.00,0.1145
2863.00,0.1066
2862.00,0.0988
2861.00,0.0917
2860.00,0.0860
2859.00,0.0819
2858.00,0.0793
2857.00,0.0780
2856.00,0.0777
2855.00,0.0783
2854.00,0.0795
2853.00,0.0812
2852.00,0.0831
2851.00,0.0848
2850.00,0.0861
2849.00,0.0870
2848.00,0.0877
2847.00,0.0887
2846.00,0.0903
2845.00,0.0930
2844.00,0.0967
2843.00,0.1013
2842.00,0.1062
2841.00,0.1109
2840.00,0.1146
2839.00,0.1166
2838.00,0.1163
2837.00,0.1131
2836.00,0.1072
2835.00,0.0990
2834.00,0.0893
2833.00,0.0792
2832.00,0.0696
2831.00,0.0610
2830.00,0.0537
2829.00,0.0477
2828.00,0.0428
2827.00,0.0388
2826.00,0.0356
2825.00,0.0330
2824.00,0.0308
2823.00,0.0290
2822.00,0.0273
2821.00,0.0260
2820.00,0.0248
2819.00,0.0237
2818.00,0.0228
2817.00,0.0220
2816.00,0.0213
2815.00,0.0206
2814.00,0.0200
2813.00,0.0194
2812.00,0.0189
2811.00,0.0183
2810.00,0.0177
2809.00,0.0172
2808.00,0.0166
2807.00,0.0160
2806.00,0.0154
2805.00,0.0148
2804.00,0.0142
2803.00,0.0136
2802.00,0.0131
2801.00,0.0127
2800.00,0.0123
2799.00,0.0120
2798.00,0.0117
2797.00,0.0114
2796.00,0.0112
2795.00,0.0109
2794.00,0.0107
2793.00,0.0104
2792.00,0.0101
2791.00,0.0098
2790.00,0.0095
2789.00,0.0092
2788.00,0.0090
2787.00,0.0088
2786.00,0.0085
2785.00,0.0083
2784.00,0.0080
2783.00,0.0078
2782.00,0.0076
2781.00,0.0075
2780.00,0.0073
2779.00,0.0071
2778.00,0.0070
2777.00,0.0069
2776.00,0.0068
2775.00,0.0067
2774.00,0.0066
2773.00,0.0066
2772.00,0.0065
2771.00,0.0065
2770.00,0.0065
2769.00,0.0064
2768.00,0.0064
2767.00,0.0064
2766.00,0.0063
2765.00,0.0062
2764.00,0.0062
2763.00,0.0061
2762.00,0.0061
2761.00,0.0060
2760.00,0.0060
2759.00,0.0060
2758.00,0.0059
2757.00,0.0059
2756.00,0.0059
2755.00,0.0059
2754.00,0.0059
2753.00,0.0059
2752.00,0.0059
2751.00,0.0058
2750.00,0.0058
2749.00,0.0058
2748.00,0.0058
2747.00,0.0058
2746.00,0.0058
2745.00,0.0058
2744.00,0.0059
2743.00,0.0060
2742.00,0.0061
2741.00,0.0062
2740.00,0.0064
2739.00,0.0065
2738.00,0.0066
2737.00,0.0067
2736.00,0.0069
2735.00,0.0070
2734.00,0.0072
2733.00,0.0073
2732.00,0.0075
2731.00,0.0077
2730.00,0.0079
2729.00,0.0081
2728.00,0.0084
2727.00,0.0086
2726.00,0.0089
2725.00,0.0091
2724.00,0.0092
2723.00,0.0092
2722.00,0.0091
2721.00,0.0089
2720.00,0.0087
2719.00,0.0084
2718.00,0.0081
2717.00,0.0078
2716.00,0.0075
2715.00,0.0073
2714.00,0.0070
2713.00,0.0068
2712.00,0.0066
2711.00,0.0064
2710.00,0.0062
2709.00,0.0060
2708.00,0.0059
2707.00,0.0058
2706.00,0.0056
2705.00,0.0055
2704.00,0.0054
2703.00,0.0053
2702.00,0.0052
2701.00,0.0051
2700.00,0.0050
2699.00,0.0050
2698.00,0.0050
2697.00,0.0050
2696.00,0.0050
2695.00,0.0050
2694.00,0.0050
2693.00,0.0050
2692.00,0.0049
2691.00,0.0049
2690.00,0.0049
2689.00,0.0050
2688.00,0.0050
2687.00,0.0050
2686.00,0.0050
2685.00,0.0050
2684.00,0.0050
2683.00,0.0051
2682.00,0.0051
2681.00,0.0051
2680.00,0.0051
2679.00,0.0051
2678.00,0.0051
2677.00,0.0051
2676.00,0.0051
2675.00,0.0051
2674.00,0.0051
2673.00,0.0051
2672.00,0.0051
2671.00,0.0051
2670.00,0.0051
2669.00,0.0051
2668.00,0.0051
2667.00,0.0052
2666.00,0.0053
2665.00,0.0053
2664.00,0.0053
2663.00,0.0054
2662.00,0.0054
2661.00,0.0055
2660.00,0.0055
2659.00,0.0056
2658.00,0.0056
2657.00,0.0055
2656.00,0.0055
2655.00,0.0054
2654.00,0.0053
2653.00,0.0052
2652.00,0.0051
2651.00,0.0051
2650.00,0.0050
2649.00,0.0050
2648.00,0.0049
2647.00,0.0049
2646.00,0.0049
2645.00,0.0048
2644.00,0.0048
2643.00,0.0047
2642.00,0.0047
2641.00,0.0046
2640.00,0.0046
2639.00,0.0045
2638.00,0.0044
2637.00,0.0044
2636.00,0.0044
2635.00,0.0044
2634.00,0.0044
2633.00,0.0044
2632.00,0.0044
2631.00,0.0044
2630.00,0.0044
2629.00,0.0044
2628.00,0.0043
2627.00,0.0043
2626.00,0.0043
2625.00,0.0044
2624.00,0.0044
2623.00,0.0045
2622.00,0.0045
2621.00,0.0045
2620.00,0.0045
2619.00,0.0045
2618.00,0.0045
2617.00,0.0045
2616.00,0.0044
2615.00,0.0044
2614.00,0.0043
2613.00,0.0043
2612.00,0.0043
2611.00,0.0042
2610.00,0.0042
2609.00,0.0041
2608.00,0.0040
2607.00,0.0040
2606.00,0.0039
2605.00,0.0038
2604.00,0.0038
2603.00,0.0038
2602.00,0.0037
2601.00,0.0037
2600.00,0.0036
2599.00,0.0035
2598.00,0.0034
2597.00,0.0034
2596.00,0.0034
2595.00,0.0034
2594.00,0.0035
2593.00,0.0035
2592.00,0.0036
2591.00,0.0037
2590.00,0.0038
2589.00,0.0039
2588.00,0.0040
2587.00,0.0041
2586.00,0.0041
2585.00,0.0042
2584.00,0.0042
2583.00,0.0042
2582.00,0.0042
2581.00,0.0042
2580.00,0.0041
2579.00,0.0041
2578.00,0.0040
2577.00,0.0039
2576.00,0.0037
2575.00,0.0036
2574.00,0.0035
2573.00,0.0034
2572.00,0.0034
2571.00,0.0033
2570.00,0.0032
2569.00,0.0031
2568.00,0.0030
2567.00,0.0029
2566.00,0.0028
2565.00,0.0028
2564.00,0.0028
2563.00,0.0027
2562.00,0.0027
2561.00,0.0027
2560.00,0.0026
2559.00,0.0026
2558.00,0.0026
2557.00,0.0027
2556.00,0.0027
2555.00,0.0026
2554.00,0.0026
2553.00,0.0025
2552.00,0.0025
2551.00,0.0024
2550.00,0.0024
2549.00,0.0023
2548.00,0.0022
2547.00,0.0022
2546.00,0.0023
2545.00,0.0023
2544.00,0.0022
2543.00,0.0022
2542.00,0.0021
2541.00,0.0021
2540.00,0.0021
2539.00,0.0021
2538.00,0.0021
2537.00,0.0021
2536.00,0.0021
2535.00,0.0021
2534.00,0.0021
2533.00,0.0020
2532.00,0.0020
2531.00,0.0019
2530.00,0.0019
2529.00,0.0019
2528.00,0.0019
2527.00,0.0019
2526.00,0.0019
2525.00,0.0018
2524.00,0.0018
2523.00,0.0017
2522.00,0.0017
2521.00,0.0017
2520.00,0.0016
2519.00,0.0016
2518.00,0.0016
2517.00,0.0015
2516.00,0.0015
2515.00,0.0014
2514.00,0.0014
2513.00,0.0014
2512.00,0.0015
2511.00,0.0015
2510.00,0.0016
2509.00,0.0016
2508.00,0.0016
2507.00,0.0016
2506.00,0.0015
2505.00,0.0014
2504.00,0.0014
2503.00,0.0014
2502.00,0.0014
2501.00,0.0014
2500.00,0.0014
2499.00,0.0015
2498.00,0.0015
2497.00,0.0015
2496.00,0.0015
2495.00,0.0014
2494.00,0.0015
2493.00,0.0015
2492.00,0.0015
2491.00,0.0015
2490.00,0.0014
2489.00,0.0013
2488.00,0.0013
2487.00,0.0013
2486.00,0.0013
2485.00,0.0013
2484.00,0.0014
2483.00,0.0014
2482.00,0.0014
2481.00,0.0014
2480.00,0.0014
2479.00,0.0014
2478.00,0.0013
2477.00,0.0013
2476.00,0.0013
2475.00,0.0012
2474.00,0.0012
2473.00,0.0012
2472.00,0.0012
2471.00,0.0012
2470.00,0.0012
2469.00,0.0012
2468.00,0.0012
2467.00,0.0012
2466.00,0.0012
2465.00,0.0012
2464.00,0.0012
2463.00,0.0013
2462.00,0.0013
2461.00,0.0013
2460.00,0.0013
2459.00,0.0014
2458.00,0.0014
2457.00,0.0014
2456.00,0.0014
2455.00,0.0014
2454.00,0.0014
2453.00,0.0014
2452.00,0.0014
2451.00,0.0013
2450.00,0.0013
2449.00,0.0013
2448.00,0.0012
2447.00,0.0012
2446.00,0.0012
2445.00,0.0011
2444.00,0.0011
2443.00,0.0011
2442.00,0.0012
2441.00,0.0013
2440.00,0.0013
2439.00,0.0013
2438.00,0.0013
2437.00,0.0013
2436.00,0.0013
2435.00,0.0014
2434.00,0.0015
2433.00,0.0015
2432.00,0.0015
2431.00,0.0015
2430.00,0.0014
2429.00,0.0014
2428.00,0.0013
2427.00,0.0013
2426.00,0.0013
2425.00,0.0014
2424.00,0.0014
2423.00,0.0014
2422.00,0.0014
2421.00,0.0014
2420.00,0.0014
2419.00,0.0014
2418.00,0.0013
2417.00,0.0013
2416.00,0.0012
2415.00,0.0012
2414.00,0.0012
2413.00,0.0012
2412.00,0.0013
2411.00,0.0012
2410.00,0.0012
2409.00,0.0012
2408.00,0.0012
2407.00,0.0011
2406.00,0.0011
2405.00,0.0011
2404.00,0.0012
2403.00,0.0012
2402.00,0.0012
2401.00,0.0011
2400.00,0.0011
2399.00,0.0011
2398.00,0.0010
2397.00,0.0010
2396.00,0.0010
2395.00,0.0010
2394.00,0.0011
2393.00,0.0011
2392.00,0.0011
2391.00,0.0011
2390.00,0.0011
2389.00,0.0011
2388.00,0.0011
2387.00,0.0010
2386.00,0.0010
2385.00,0.0009
2384.00,0.0008
2383.00,0.0008
2382.00,0.0007
2381.00,0.0007
2380.00,0.0006
2379.00,0.0005
2378.00,0.0005
2377.00,0.0006
2376.00,0.0006
2375.00,0.0006
2374.00,0.0006
2373.00,0.0005
2372.00,0.0005
2371.00,0.0005
2370.00,0.0006
2369.00,0.0007
2368.00,0.0008
2367.00,0.0008
2366.00,0.0008
2365.00,0.0007
2364.00,0.0007
2363.00,0.0006
2362.00,0.0006
2361.00,0.0007
2360.00,0.0008
2359.00,0.0008
2358.00,0.0008
2357.00,0.0007
2356.00,0.0006
2355.00,0.0005
2354.00,0.0004
2353.00,0.0004
2352.00,0.0005
2351.00,0.0007
2350.00,0.0008
2349.00,0.0009
2348.00,0.0009
2347.00,0.0009
2346.00,0.0009
2345.00,0.0010
2344.00,0.0010
2343.00,0.0010
2342.00,0.0009
2341.00,0.0009
2340.00,0.0009
2339.00,0.0010
2338.00,0.0011
2337.00,0.0011
2336.00,0.0011
2335.00,0.0010
2334.00,0.0010
2333.00,0.0009
2332.00,0.0009
2331.00,0.0010
2330.00,0.0010
2329.00,0.0011
2328.00,0.0013
2327.00,0.0015
2326.00,0.0018
2325.00,0.0021
2324.00,0.0022
2323.00,0.0021
2322.00,0.0019
2321.00,0.0017
2320.00,0.0016
2319.00,0.0016
2318.00,0.0016
2317.00,0.0015
2316.00,0.0015
2315.00,0.0014
2314.00,0.0014
2313.00,0.0013
2312.00,0.0013
2311.00,0.0013
2310.00,0.0012
2309.00,0.0012
2308.00,0.0012
2307.00,0.0013
2306.00,0.0013
2305.00,0.0014
2304.00,0.0015
2303.00,0.0015
2302.00,0.0015
2301.00,0.0014
2300.00,0.0014
2299.00,0.0015
2298.00,0.0015
2297.00,0.0016
2296.00,0.0017
2295.00,0.0018
2294.00,0.0018
2293.00,0.0018
2292.00,0.0018
2291.00,0.0018
2290.00,0.0018
2289.00,0.0019
2288.00,0.0019
2287.00,0.0020
2286.00,0.0020
2285.00,0.0021
2284.00,0.0021
2283.00,0.0021
2282.00,0.0020
2281.00,0.0019
2280.00,0.0018
2279.00,0.0017
2278.00,0.0016
2277.00,0.0015
2276.00,0.0014
2275.00,0.0014
2274.00,0.0015
2273.00,0.0015
2272.00,0.0015
2271.00,0.0015
2270.00,0.0015
2269.00,0.0015
2268.00,0.0014
2267.00,0.0013
2266.00,0.0013
2265.00,0.0012
2264.00,0.0012
2263.00,0.0011
2262.00,0.0011
2261.00,0.0011
2260.00,0.0012
2259.00,0.0013
2258.00,0.0013
2257.00,0.0013
2256.00,0.0012
2255.00,0.0011
2254.00,0.0010
2253.00,0.0010
2252.00,0.0011
2251.00,0.0011
2250.00,0.0012
2249.00,0.0011
2248.00,0.0011
2247.00,0.0010
2246.00,0.0009
2245.00,0.0008
2244.00,0.0008
2243.00,0.0009
2242.00,0.0009
2241.00,0.0008
2240.00,0.0007
2239.00,0.0005
2238.00,0.0004
2237.00,0.0005
2236.00,0.0007
2235.00,0.0010
2234.00,0.0011
2233.00,0.0011
2232.00,0.0010
2231.00,0.0009
2230.00,0.0008
2229.00,0.0009
2228.00,0.0010
2227.00,0.0011
2226.00,0.0011
2225.00,0.0010
2224.00,0.0010
2223.00,0.0010
2222.00,0.0010
2221.00,0.0011
2220.00,0.0011
2219.00,0.0011
2218.00,0.0009
2217.00,0.0008
2216.00,0.0008
2215.00,0.0007
2214.00,0.0007
2213.00,0.0006
2212.00,0.0005
2211.00,0.0004
2210.00,0.0004
2209.00,0.0005
2208.00,0.0005
2207.00,0.0006
2206.00,0.0007
2205.00,0.0009
2204.00,0.0009
2203.00,0.0008
2202.00,0.0008
2201.00,0.0008
2200.00,0.0009
2199.00,0.0009
2198.00,0.0010
2197.00,0.0011
2196.00,0.0013
2195.00,0.0013
2194.00,0.0012
2193.00,0.0010
2192.00,0.0008
2191.00,0.0006
2190.00,0.0006
2189.00,0.0007
2188.00,0.0009
2187.00,0.0009
2186.00,0.0009
2185.00,0.0010
2184.00,0.0011
2183.00,0.0011
2182.00,0.0007
2181.00,0.0003
2180.00,-0.0000
2179.00,-0.0000
2178.00,0.0002
2177.00,0.0005
2176.00,0.0006
2175.00,0.0004
2174.00,0.0002
2173.00,0.0001
2172.00,0.0003
2171.00,0.0007
2170.00,0.0012
2169.00,0.0014
2168.00,0.0016
2167.00,0.0016
2166.00,0.0016
2165.00,0.0016
2164.00,0.0016
2163.00,0.0019
2162.00,0.0021
2161.00,0.0019
2160.00,0.0008
2159.00,-0.0010
2158.00,-0.0026
2157.00,-0.0033
2156.00,-0.0033
2155.00,-0.0028
2154.00,-0.0023
2153.00,-0.0019
2152.00,-0.0018
2151.00,-0.0018
2150.00,-0.0017
2149.00,-0.0016
2148.00,-0.0014
2147.00,-0.0013
2146.00,-0.0012
2145.00,-0.0011
2144.00,-0.0010
2143.00,-0.0009
2142.00,-0.0008
2141.00,-0.0007
2140.00,-0.0007
2139.00,-0.0007
2138.00,-0.0008
2137.00,-0.0009
2136.00,-0.0011
2135.00,-0.0014
2134.00,-0.0017
2133.00,-0.0017
2132.00,-0.0016
2131.00,-0.0014
2130.00,-0.0012
2129.00,-0.0010
2128.00,-0.0009
2127.00,-0.0009
2126.00,-0.0008
2125.00,-0.0007
2124.00,-0.0006
2123.00,-0.0005
2122.00,-0.0005
2121.00,-0.0005
2120.00,-0.0005
2119.00,-0.0004
2118.00,-0.0003
2117.00,-0.0001
2116.00,0.0002
2115.00,0.0004
2114.00,0.0005
2113.00,0.0006
2112.00,0.0006
2111.00,0.0006
2110.00,0.0006
2109.00,0.0006
2108.00,0.0006
2107.00,0.0005
2106.00,0.0005
2105.00,0.0006
2104.00,0.0006
2103.00,0.0007
2102.00,0.0007
2101.00,0.0007
2100.00,0.0007
2099.00,0.0006
2098.00,0.0005
2097.00,0.0002
2096.00,0.0000
2095.00,-0.0002
2094.00,-0.0002
2093.00,-0.0002
2092.00,-0.0000
2091.00,0.0001
2090.00,0.0001
2089.00,0.0002
2088.00,0.0003
2087.00,0.0004
2086.00,0.0006
2085.00,0.0008
2084.00,0.0007
2083.00,0.0006
2082.00,0.0004
2081.00,0.0004
2080.00,0.0004
2079.00,0.0005
2078.00,0.0006
2077.00,0.0007
2076.00,0.0007
2075.00,0.0007
2074.00,0.0006
2073.00,0.0005
2072.00,0.0005
2071.00,0.0004
2070.00,0.0004
2069.00,0.0003
2068.00,0.0001
2067.00,-0.0000
2066.00,-0.0001
2065.00,-0.0000
2064.00,0.0001
2063.00,0.0002
2062.00,0.0002
2061.00,0.0002
2060.00,0.0002
2059.00,0.0003
2058.00,0.0004
2057.00,0.0005
2056.00,0.0005
2055.00,0.0004
2054.00,0.0004
2053.00,0.0007
2052.00,0.0012
2051.00,0.0017
2050.00,0.0018
2049.00,0.0016
2048.00,0.0012
2047.00,0.0008
2046.00,0.0003
2045.00,0.0001
2044.00,-0.0000
2043.00,-0.0001
2042.00,-0.0001
2041.00,-0.0002
2040.00,-0.0001
2039.00,0.0001
2038.00,0.0004
2037.00,0.0007
2036.00,0.0008
2035.00,0.0007
2034.00,0.0006
2033.00,0.0004
2032.00,0.0002
2031.00,0.0000
2030.00,-0.0001
2029.00,-0.0002
2028.00,-0.0001
2027.00,-0.0000
2026.00,0.0001
2025.00,0.0001
2024.00,-0.0002
2023.00,-0.0007
2022.00,-0.0013
2021.00,-0.0017
2020.00,-0.0019
2019.00,-0.0018
2018.00,-0.0015
2017.00,-0.0010
2016.00,-0.0007
2015.00,-0.0005
2014.00,-0.0005
2013.00,-0.0004
2012.00,-0.0002
2011.00,0.0000
2010.00,0.0003
2009.00,0.0003
2008.00,0.0000
2007.00,-0.0004
2006.00,-0.0009
2005.00,-0.0011
2004.00,-0.0011
2003.00,-0.0010
2002.00,-0.0010
2001.00,-0.0010
2000.00,-0.0010
1999.00,-0.0012
1998.00,-0.0012
1997.00,-0.0011
1996.00,-0.0011
1995.00,-0.0010
1994.00,-0.0009
1993.00,-0.0006
1992.00,-0.0003
1991.00,-0.0001
1990.00,0.0001
1989.00,0.0002
1988.00,0.0004
1987.00,0.0005
1986.00,0.0008
1985.00,0.0010
1984.00,0.0012
1983.00,0.0014
1982.00,0.0015
1981.00,0.0014
1980.00,0.0009
1979.00,0.0001
1978.00,-0.0007
1977.00,-0.0012
1976.00,-0.0014
1975.00,-0.0013
1974.00,-0.0012
1973.00,-0.0011
1972.00,-0.0011
1971.00,-0.0011
1970.00,-0.0010
1969.00,-0.0008
1968.00,-0.0005
1967.00,-0.0005
1966.00,-0.0007
1965.00,-0.0009
1964.00,-0.0011
1963.00,-0.0011
1962.00,-0.0011
1961.00,-0.0010
1960.00,-0.0010
1959.00,-0.0012
1958.00,-0.0013
1957.00,-0.0013
1956.00,-0.0011
1955.00,-0.0010
1954.00,-0.0009
1953.00,-0.0008
1952.00,-0.0008
1951.00,-0.0008
1950.00,-0.0008
1949.00,-0.0008
1948.00,-0.0009
1947.00,-0.0011
1946.00,-0.0012
1945.00,-0.0012
1944.00,-0.0011
1943.00,-0.0010
1942.00,-0.0010
1941.00,-0.0009
1940.00,-0.0009
1939.00,-0.0009
1938.00,-0.0009
1937.00,-0.0008
1936.00,-0.0007
1935.00,-0.0007
1934.00,-0.0006
1933.00,-0.0007
1932.00,-0.0007
1931.00,-0.0008
1930.00,-0.0008
1929.00,-0.0007
1928.00,-0.0006
1927.00,-0.0004
1926.00,-0.0004
1925.00,-0.0004
1924.00,-0.0004
1923.00,-0.0003
1922.00,-0.0001
1921.00,-0.0000
1920.00,0.0000
1919.00,-0.0000
1918.00,-0.0001
1917.00,-0.0001
1916.00,-0.0001
1915.00,-0.0001
1914.00,-0.0000
1913.00,-0.0001
1912.00,-0.0001
1911.00,-0.0000
1910.00,-0.0000
1909.00,0.0000
1908.00,0.0000
1907.00,0.0000
1906.00,0.0000
1905.00,0.0000
1904.00,-0.0000
1903.00,-0.0001
1902.00,-0.0002
1901.00,-0.0002
1900.00,-0.0000
1899.00,0.0002
1898.00,0.0003
1897.00,0.0004
1896.00,0.0003
1895.00,0.0002
1894.00,0.0001
1893.00,0.0001
1892.00,0.0001
1891.00,0.0001
1890.00,0.0001
1889.00,0.0001
1888.00,0.0001
1887.00,0.0002
1886.00,0.0002
1885.00,0.0002
1884.00,0.0002
1883.00,0.0001
1882.00,0.0000
1881.00,-0.0000
1880.00,-0.0000
1879.00,0.0000
1878.00,0.0001
1877.00,0.0002
1876.00,0.0003
1875.00,0.0003
1874.00,0.0002
1873.00,0.0001
1872.00,-0.0000
1871.00,-0.0001
1870.00,-0.0001
1869.00,-0.0000
1868.00,0.0001
1867.00,0.0001
1866.00,0.0002
1865.00,0.0002
1864.00,0.0003
1863.00,0.0002
1862.00,0.0002
1861.00,0.0001
1860.00,0.0002
1859.00,0.0003
1858.00,0.0004
1857.00,0.0005
1856.00,0.0005
1855.00,0.0006
1854.00,0.0006
1853.00,0.0006
1852.00,0.0005
1851.00,0.0004
1850.00,0.0004
1849.00,0.0004
1848.00,0.0004
1847.00,0.0005
1846.00,0.0005
1845.00,0.0006
1844.00,0.0007
1843.00,0.0006
1842.00,0.0005
1841.00,0.0005
1840.00,0.0004
1839.00,0.0004
1838.00,0.0003
1837.00,0.0003
1836.00,0.0004
1835.00,0.0005
1834.00,0.0006
1833.00,0.0006
1832.00,0.0006
1831.00,0.0006
1830.00,0.0006
1829.00,0.0006
1828.00,0.0006
1827.00,0.0006
1826.00,0.0006
1825.00,0.0006
1824.00,0.0007
1823.00,0.0007
1822.00,0.0007
1821.00,0.0006
1820.00,0.0006
1819.00,0.0006
1818.00,0.0005
1817.00,0.0004
1816.00,0.0004
1815.00,0.0004
1814.00,0.0005
1813.00,0.0005
1812.00,0.0006
1811.00,0.0006
1810.00,0.0006
1809.00,0.0006
1808.00,0.0006
1807.00,0.0007
1806.00,0.0007
1805.00,0.0008
1804.00,0.0008
1803.00,0.0008
1802.00,0.0008
1801.00,0.0008
1800.00,0.0008
1799.00,0.0008
1798.00,0.0008
1797.00,0.0009
1796.00,0.0009
1795.00,0.0010
1794.00,0.0010
1793.00,0.0010
1792.00,0.0010
1791.00,0.0010
1790.00,0.0011
1789.00,0.0012
1788.00,0.0012
1787.00,0.0013
1786.00,0.0013
1785.00,0.0013
1784.00,0.0013
1783.00,0.0013
1782.00,0.0013
1781.00,0.0013
1780.00,0.0014
1779.00,0.0013
1778.00,0.0013
1777.00,0.0014
1776.00,0.0015
1775.00,0.0015
1774.00,0.0016
1773.00,0.0016
1772.00,0.0016
1771.00,0.0016
1770.00,0.0017
1769.00,0.0017
1768.00,0.0018
1767.00,0.0018
1766.00,0.0018
1765.00,0.0018
1764.00,0.0018
1763.00,0.0019
1762.00,0.0020
1761.00,0.0022
1760.00,0.0023
1759.00,0.0024
1758.00,0.0025
1757.00,0.0027
1756.00,0.0028
1755.00,0.0029
1754.00,0.0030
1753.00,0.0031
1752.00,0.0033
1751.00,0.0035
1750.00,0.0036
1749.00,0.0037
1748.00,0.0037
1747.00,0.0037
1746.00,0.0037
1745.00,0.0037
1744.00,0.0037
1743.00,0.0038
1742.00,0.0038
1741.00,0.0038
1740.00,0.0038
1739.00,0.0038
1738.00,0.0038
1737.00,0.0038
1736.00,0.0037
1735.00,0.0036
1734.00,0.0035
1733.00,0.0035
1732.00,0.0034
1731.00,0.0034
1730.00,0.0033
1729.00,0.0033
1728.00,0.0033
1727.00,0.0033
1726.00,0.0033
1725.00,0.0033
1724.00,0.0034
1723.00,0.0034
1722.00,0.0034
1721.00,0.0034
1720.00,0.0033
1719.00,0.0032
1718.00,0.0032
1717.00,0.0031
1716.00,0.0032
1715.00,0.0032
1714.00,0.0032
1713.00,0.0031
1712.00,0.0031
1711.00,0.0030
1710.00,0.0030
1709.00,0.0030
1708.00,0.0030
1707.00,0.0029
1706.00,0.0029
1705.00,0.0029
1704.00,0.0029
1703.00,0.0030
1702.00,0.0030
1701.00,0.0031
1700.00,0.0031
1699.00,0.0032
1698.00,0.0031
1697.00,0.0032
1696.00,0.0034
1695.00,0.0036
1694.00,0.0037
1693.00,0.0038
1692.00,0.0039
1691.00,0.0041
1690.00,0.0042
1689.00,0.0044
1688.00,0.0046
1687.00,0.0046
1686.00,0.0047
1685.00,0.0047
1684.00,0.0048
1683.00,0.0049
1682.00,0.0050
1681.00,0.0050
1680.00,0.0052
1679.00,0.0053
1678.00,0.0054
1677.00,0.0055
1676.00,0.0056
1675.00,0.0057
1674.00,0.0057
1673.00,0.0057
1672.00,0.0057
1671.00,0.0057
1670.00,0.0057
1669.00,0.0058
1668.00,0.0059
1667.00,0.0059
1666.00,0.0059
1665.00,0.0060
1664.00,0.0060
1663.00,0.0060
1662.00,0.0060
1661.00,0.0061
1660.00,0.0062
1659.00,0.0063
1658.00,0.0064
1657.00,0.0065
1656.00,0.0066
1655.00,0.0066
1654.00,0.0066
1653.00,0.0067
1652.00,0.0067
1651.00,0.0068
1650.00,0.0068
1649.00,0.0069
1648.00,0.0069
1647.00,0.0070
1646.00,0.0071
1645.00,0.0071
1644.00,0.0072
1643.00,0.0072
1642.00,0.0073
1641.00,0.0074
1640.00,0.0076
1639.00,0.0077
1638.00,0.0078
1637.00,0.0079
1636.00,0.0079
1635.00,0.0078
1634.00,0.0078
1633.00,0.0078
1632.00,0.0078
1631.00,0.0078
1630.00,0.0078
1629.00,0.0077
1628.00,0.0077
1627.00,0.0077
1626.00,0.0078
1625.00,0.0078
1624.00,0.0079
1623.00,0.0079
1622.00,0.0078
1621.00,0.0078
1620.00,0.0078
1619.00,0.0077
1618.00,0.0077
1617.00,0.0076
1616.00,0.0077
1615.00,0.0077
1614.00,0.0077
1613.00,0.0077
1612.00,0.0077
1611.00,0.0078
1610.00,0.0078
1609.00,0.0078
1608.00,0.0079
1607.00,0.0079
1606.00,0.0079
1605.00,0.0079
1604.00,0.0079
1603.00,0.0079
1602.00,0.0079
1601.00,0.0079
1600.00,0.0079
1599.00,0.0080
1598.00,0.0080
1597.00,0.0081
1596.00,0.0082
1595.00,0.0082
1594.00,0.0082
1593.00,0.0083
1592.00,0.0084
1591.00,0.0085
1590.00,0.0086
1589.00,0.0087
1588.00,0.0089
1587.00,0.0091
1586.00,0.0094
1585.00,0.0098
1584.00,0.0103
1583.00,0.0109
1582.00,0.0115
1581.00,0.0120
1580.00,0.0126
1579.00,0.0130
1578.00,0.0132
1577.00,0.0133
1576.00,0.0133
1575.00,0.0130
1574.00,0.0127
1573.00,0.0123
1572.00,0.0120
1571.00,0.0115
1570.00,0.0109
1569.00,0.0104
1568.00,0.0100
1567.00,0.0097
1566.00,0.0095
1565.00,0.0093
1564.00,0.0092
1563.00,0.0091
1562.00,0.0090
1561.00,0.0090
1560.00,0.0089
1559.00,0.0086
1558.00,0.0085
1557.00,0.0085
1556.00,0.0085
1555.00,0.0086
1554.00,0.0086
1553.00,0.0087
1552.00,0.0088
1551.00,0.0090
1550.00,0.0093
1549.00,0.0097
1548.00,0.0102
1547.00,0.0106
1546.00,0.0111
1545.00,0.0119
1544.00,0.0126
1543.00,0.0133
1542.00,0.0139
1541.00,0.0141
1540.00,0.0137
1539.00,0.0130
1538.00,0.0123
1537.00,0.0117
1536.00,0.0112
1535.00,0.0105
1534.00,0.0097
1533.00,0.0090
1532.00,0.0085
1531.00,0.0081
1530.00,0.0079
1529.00,0.0078
1528.00,0.0076
1527.00,0.0075
1526.00,0.0073
1525.00,0.0073
1524.00,0.0073
1523.00,0.0072
1522.00,0.0071
1521.00,0.0072
1520.00,0.0072
1519.00,0.0072
1518.00,0.0071
1517.00,0.0071
1516.00,0.0072
1515.00,0.0072
1514.00,0.0073
1513.00,0.0074
1512.00,0.0075
1511.00,0.0075
1510.00,0.0075
1509.00,0.0076
1508.00,0.0077
1507.00,0.0078
1506.00,0.0077
1505.00,0.0078
1504.00,0.0080
1503.00,0.0082
1502.00,0.0084
1501.00,0.0086
1500.00,0.0089
1499.00,0.0092
1498.00,0.0094
1497.00,0.0099
1496.00,0.0103
1495.00,0.0107
1494.00,0.0110
1493.00,0.0115
1492.00,0.0120
1491.00,0.0125
1490.00,0.0131
1489.00,0.0138
1488.00,0.0145
1487.00,0.0151
1486.00,0.0158
1485.00,0.0166
1484.00,0.0176
1483.00,0.0186
1482.00,0.0199
1481.00,0.0214
1480.00,0.0230
1479.00,0.0245
1478.00,0.0263
1477.00,0.0286
1476.00,0.0313
1475.00,0.0346
1474.00,0.0387
1473.00,0.0442
1472.00,0.0503
1471.00,0.0561
1470.00,0.0618
1469.00,0.0679
1468.00,0.0747
1467.00,0.0824
1466.00,0.0915
1465.00,0.1014
1464.00,0.1101
1463.00,0.1159
1462.00,0.1194
1461.00,0.1215
1460.00,0.1229
1459.00,0.1234
1458.00,0.1236
1457.00,0.1235
1456.00,0.1226
1455.00,0.1212
1454.00,0.1194
1453.00,0.1169
1452.00,0.1137
1451.00,0.1094
1450.00,0.1040
1449.00,0.0967
1448.00,0.0878
1447.00,0.0786
1446.00,0.0705
1445.00,0.0637
1444.00,0.0579
1443.00,0.0532
1442.00,0.0497
1441.00,0.0474
1440.00,0.0461
1439.00,0.0457
1438.00,0.0461
1437.00,0.0467
1436.00,0.0460
1435.00,0.0438
1434.00,0.0403
1433.00,0.0359
1432.00,0.0314
1431.00,0.0274
1430.00,0.0243
1429.00,0.0220
1428.00,0.0205
1427.00,0.0196
1426.00,0.0190
1425.00,0.0185
1424.00,0.0180
1423.00,0.0178
1422.00,0.0177
1421.00,0.0176
1420.00,0.0173
1419.00,0.0172
1418.00,0.0170
1417.00,0.0168
1416.00,0.0167
1415.00,0.0167
1414.00,0.0167
1413.00,0.0167
1412.00,0.0167
1411.00,0.0167
1410.00,0.0169
1409.00,0.0170
1408.00,0.0171
1407.00,0.0173
1406.00,0.0176
1405.00,0.0180
1404.00,0.0184
1403.00,0.0189
1402.00,0.0194
1401.00,0.0198
1400.00,0.0204
1399.00,0.0211
1398.00,0.0219
1397.00,0.0225
1396.00,0.0231
1395.00,0.0239
1394.00,0.0248
1393.00,0.0254
1392.00,0.0260
1391.00,0.0267
1390.00,0.0278
1389.00,0.0292
1388.00,0.0312
1387.00,0.0344
1386.00,0.0387
1385.00,0.0443
1384.00,0.0520
1383.00,0.0630
1382.00,0.0780
1381.00,0.0974
1380.00,0.1218
1379.00,0.1497
1378.00,0.1770
1377.00,0.1972
1376.00,0.2042
1375.00,0.1946
1374.00,0.1710
1373.00,0.1424
1372.00,0.1161
1371.00,0.0942
1370.00,0.0768
1369.00,0.0636
1368.00,0.0544
1367.00,0.0487
1366.00,0.0455
1365.00,0.0440
1364.00,0.0440
1363.00,0.0451
1362.00,0.0472
1361.00,0.0493
1360.00,0.0509
1359.00,0.0513
1358.00,0.0501
1357.00,0.0474
1356.00,0.0436
1355.00,0.0394
1354.00,0.0353
1353.00,0.0317
1352.00,0.0289
1351.00,0.0265
1350.00,0.0246
1349.00,0.0230
1348.00,0.0217
1347.00,0.0205
1346.00,0.0196
1345.00,0.0188
1344.00,0.0182
1343.00,0.0176
1342.00,0.0171
1341.00,0.0166
1340.00,0.0163
1339.00,0.0161
1338.00,0.0159
1337.00,0.0159
1336.00,0.0160
1335.00,0.0161
1334.00,0.0163
1333.00,0.0166
1332.00,0.0169
1331.00,0.0172
1330.00,0.0173
1329.00,0.0171
1328.00,0.0167
1327.00,0.0160
1326.00,0.0153
1325.00,0.0147
1324.00,0.0140
1323.00,0.0135
1322.00,0.0130
1321.00,0.0126
1320.00,0.0123
1319.00,0.0121
1318.00,0.0119
1317.00,0.0117
1316.00,0.0115
1315.00,0.0114
1314.00,0.0112
1313.00,0.0111
1312.00,0.0111
1311.00,0.0112
1310.00,0.0114
1309.00,0.0119
1308.00,0.0126
1307.00,0.0134
1306.00,0.0143
1305.00,0.0149
1304.00,0.0151
1303.00,0.0150
1302.00,0.0147
1301.00,0.0145
1300.00,0.0145
1299.00,0.0146
1298.00,0.0148
1297.00,0.0149
1296.00,0.0149
1295.00,0.0147
1294.00,0.0144
1293.00,0.0139
1292.00,0.0134
1291.00,0.0130
1290.00,0.0126
1289.00,0.0122
1288.00,0.0120
1287.00,0.0117
1286.00,0.0116
1285.00,0.0114
1284.00,0.0113
1283.00,0.0112
1282.00,0.0112
1281.00,0.0112
1280.00,0.0112
1279.00,0.0113
1278.00,0.0114
1277.00,0.0115
1276.00,0.0116
1275.00,0.0118
1274.00,0.0120
1273.00,0.0122
1272.00,0.0125
1271.00,0.0127
1270.00,0.0131
1269.00,0.0134
1268.00,0.0139
1267.00,0.0143
1266.00,0.0147
1265.00,0.0152
1264.00,0.0156
1263.00,0.0159
1262.00,0.0163
1261.00,0.0166
1260.00,0.0171
1259.00,0.0176
1258.00,0.0183
1257.00,0.0188
1256.00,0.0192
1255.00,0.0193
1254.00,0.0190
1253.00,0.0186
1252.00,0.0181
1251.00,0.0175
1250.00,0.0170
1249.00,0.0165
1248.00,0.0160
1247.00,0.0156
1246.00,0.0153
1245.00,0.0151
1244.00,0.0150
1243.00,0.0149
1242.00,0.0148
1241.00,0.0148
1240.00,0.0147
1239.00,0.0146
1238.00,0.0145
1237.00,0.0143
1236.00,0.0142
1235.00,0.0140
1234.00,0.0139
1233.00,0.0138
1232.00,0.0137
1231.00,0.0136
1230.00,0.0136
1229.00,0.0136
1228.00,0.0136
1227.00,0.0136
1226.00,0.0137
1225.00,0.0138
1224.00,0.0139
1223.00,0.0141
1222.00,0.0143
1221.00,0.0145
1220.00,0.0146
1219.00,0.0146
1218.00,0.0145
1217.00,0.0142
1216.00,0.0139
1215.00,0.0135
1214.00,0.0131
1213.00,0.0127
1212.00,0.0123
1211.00,0.0120
1210.00,0.0118
1209.00,0.0116
1208.00,0.0115
1207.00,0.0113
1206.00,0.0112
1205.00,0.0112
1204.00,0.0112
1203.00,0.0112
1202.00,0.0113
1201.00,0.0114
1200.00,0.0115
1199.00,0.0116
1198.00,0.0118
1197.00,0.0119
1196.00,0.0120
1195.00,0.0120
1194.00,0.0121
1193.00,0.0121
1192.00,0.0122
1191.00,0.0124
1190.00,0.0125
1189.00,0.0127
1188.00,0.0130
1187.00,0.0132
1186.00,0.0135
1185.00,0.0138
1184.00,0.0141
1183.00,0.0144
1182.00,0.0148
1181.00,0.0153
1180.00,0.0158
1179.00,0.0165
1178.00,0.0172
1177.00,0.0179
1176.00,0.0188
1175.00,0.0201
1174.00,0.0218
1173.00,0.0239
1172.00,0.0264
1171.00,0.0290
1170.00,0.0316
1169.00,0.0336
1168.00,0.0348
1167.00,0.0352
1166.00,0.0348
1165.00,0.0341
1164.00,0.0333
1163.00,0.0324
1162.00,0.0317
1161.00,0.0311
1160.00,0.0308
1159.00,0.0306
1158.00,0.0305
1157.00,0.0304
1156.00,0.0304
1155.00,0.0304
1154.00,0.0304
1153.00,0.0302
1152.00,0.0298
1151.00,0.0292
1150.00,0.0284
1149.00,0.0274
1148.00,0.0263
1147.00,0.0253
1146.00,0.0243
1145.00,0.0234
1144.00,0.0225
1143.00,0.0217
1142.00,0.0210
1141.00,0.0203
1140.00,0.0197
1139.00,0.0191
1138.00,0.0185
1137.00,0.0180
1136.00,0.0175
1135.00,0.0171
1134.00,0.0168
1133.00,0.0167
1132.00,0.0166
1131.00,0.0165
1130.00,0.0165
1129.00,0.0164
1128.00,0.0163
1127.00,0.0163
1126.00,0.0162
1125.00,0.0161
1124.00,0.0159
1123.00,0.0158
1122.00,0.0156
1121.00,0.0155
1120.00,0.0154
1119.00,0.0154
1118.00,0.0153
1117.00,0.0152
1116.00,0.0151
1115.00,0.0151
1114.00,0.0152
1113.00,0.0154
1112.00,0.0156
1111.00,0.0157
1110.00,0.0160
1109.00,0.0162
1108.00,0.0166
1107.00,0.0171
1106.00,0.0178
1105.00,0.0184
1104.00,0.0190
1103.00,0.0192
1102.00,0.0192
1101.00,0.0189
1100.00,0.0184
1099.00,0.0180
1098.00,0.0175
1097.00,0.0172
1096.00,0.0170
1095.00,0.0169
1094.00,0.0168
1093.00,0.0168
1092.00,0.0168
1091.00,0.0169
1090.00,0.0170
1089.00,0.0171
1088.00,0.0171
1087.00,0.0171
1086.00,0.0170
1085.00,0.0170
1084.00,0.0171
1083.00,0.0171
1082.00,0.0171
1081.00,0.0171
1080.00,0.0171
1079.00,0.0170
1078.00,0.0168
1077.00,0.0168
1076.00,0.0168
1075.00,0.0168
1074.00,0.0169
1073.00,0.0168
1072.00,0.0167
1071.00,0.0166
1070.00,0.0164
1069.00,0.0162
1068.00,0.0160
1067.00,0.0157
1066.00,0.0155
1065.00,0.0153
1064.00,0.0151
1063.00,0.0150
1062.00,0.0150
1061.00,0.0150
1060.00,0.0150
1059.00,0.0149
1058.00,0.0148
1057.00,0.0147
1056.00,0.0147
1055.00,0.0146
1054.00,0.0145
1053.00,0.0145
1052.00,0.0145
1051.00,0.0144
1050.00,0.0144
1049.00,0.0145
1048.00,0.0147
1047.00,0.0149
1046.00,0.0151
1045.00,0.0152
1044.00,0.0151
1043.00,0.0151
1042.00,0.0150
1041.00,0.0148
1040.00,0.0147
1039.00,0.0148
1038.00,0.0149
1037.00,0.0150
1036.00,0.0151
1035.00,0.0150
1034.00,0.0148
1033.00,0.0145
1032.00,0.0141
1031.00,0.0139
1030.00,0.0137
1029.00,0.0135
1028.00,0.0135
1027.00,0.0134
1026.00,0.0135
1025.00,0.0136
1024.00,0.0139
1023.00,0.0142
1022.00,0.0145
1021.00,0.0147
1020.00,0.0148
1019.00,0.0149
1018.00,0.0150
1017.00,0.0151
1016.00,0.0152
1015.00,0.0154
1014.00,0.0155
1013.00,0.0156
1012.00,0.0157
1011.00,0.0157
1010.00,0.0157
1009.00,0.0156
1008.00,0.0155
1007.00,0.0157
1006.00,0.0160
1005.00,0.0166
1004.00,0.0177
1003.00,0.0192
1002.00,0.0212
1001.00,0.0237
1000.00,0.0264
999.00,0.0285
998.00,0.0294
997.00,0.0287
996.00,0.0266
995.00,0.0237
994.00,0.0207
993.00,0.0182
992.00,0.0162
991.00,0.0148
990.00,0.0138
989.00,0.0132
988.00,0.0128
987.00,0.0126
986.00,0.0126
985.00,0.0128
984.00,0.0133
983.00,0.0141
982.00,0.0152
981.00,0.0169
980.00,0.0191
979.00,0.0219
978.00,0.0254
977.00,0.0294
976.00,0.0334
975.00,0.0371
974.00,0.0397
973.00,0.0405
972.00,0.0395
971.00,0.0369
970.00,0.0334
969.00,0.0299
968.00,0.0268
967.00,0.0244
966.00,0.0225
965.00,0.0212
964.00,0.0201
963.00,0.0193
962.00,0.0188
961.00,0.0184
960.00,0.0183
959.00,0.0184
958.00,0.0184
957.00,0.0184
956.00,0.0183
955.00,0.0182
954.00,0.0181
953.00,0.0180
952.00,0.0178
951.00,0.0175
950.00,0.0172
949.00,0.0170
948.00,0.0168
947.00,0.0167
946.00,0.0167
945.00,0.0167
944.00,0.0168
943.00,0.0171
942.00,0.0172
941.00,0.0172
940.00,0.0170
939.00,0.0165
938.00,0.0158
937.00,0.0150
936.00,0.0141
935.00,0.0133
934.00,0.0126
933.00,0.0119
932.00,0.0113
931.00,0.0108
930.00,0.0103
929.00,0.0098
928.00,0.0094
927.00,0.0091
926.00,0.0089
925.00,0.0087
924.00,0.0084
923.00,0.0083
922.00,0.0081
921.00,0.0080
920.00,0.0080
919.00,0.0079
918.00,0.0078
917.00,0.0077
916.00,0.0077
915.00,0.0077
914.00,0.0077
913.00,0.0078
912.00,0.0079
911.00,0.0081
910.00,0.0083
909.00,0.0085
908.00,0.0087
907.00,0.0092
906.00,0.0100
905.00,0.0111
904.00,0.0127
903.00,0.0146
902.00,0.0165
901.00,0.0183
900.00,0.0193
899.00,0.0195
898.00,0.0186
897.00,0.0170
896.00,0.0151
895.00,0.0132
894.00,0.0116
893.00,0.0104
892.00,0.0095
891.00,0.0089
890.00,0.0085
889.00,0.0083
888.00,0.0082
887.00,0.0081
886.00,0.0080
885.00,0.0079
884.00,0.0078
883.00,0.0078
882.00,0.0078
881.00,0.0078
880.00,0.0076
879.00,0.0075
878.00,0.0074
877.00,0.0075
876.00,0.0076
875.00,0.0078
874.00,0.0080
873.00,0.0081
872.00,0.0081
871.00,0.0081
870.00,0.0081
869.00,0.0080
868.00,0.0080
867.00,0.0081
866.00,0.0082
865.00,0.0083
864.00,0.0086
863.00,0.0087
862.00,0.0089
861.00,0.0090
860.00,0.0090
859.00,0.0091
858.00,0.0091
857.00,0.0091
856.00,0.0091
855.00,0.0092
854.00,0.0094
853.00,0.0095
852.00,0.0097
851.00,0.0100
850.00,0.0105
849.00,0.0110
848.00,0.0116
847.00,0.0126
846.00,0.0142
845.00,0.0165
844.00,0.0198
843.00,0.0234
842.00,0.0262
841.00,0.0270
840.00,0.0253
839.00,0.0221
838.00,0.0188
837.00,0.0163
836.00,0.0146
835.00,0.0136
834.00,0.0130
833.00,0.0127
832.00,0.0126
831.00,0.0124
830.00,0.0121
829.00,0.0119
828.00,0.0118
827.00,0.0117
826.00,0.0116
825.00,0.0116
824.00,0.0116
823.00,0.0117
822.00,0.0118
821.00,0.0119
820.00,0.0120
819.00,0.0124
818.00,0.0129
817.00,0.0135
816.00,0.0144
815.00,0.0157
814.00,0.0173
813.00,0.0192
812.00,0.0213
811.00,0.0231
810.00,0.0244
809.00,0.0249
808.00,0.0244
807.00,0.0231
806.00,0.0213
805.00,0.0193
804.00,0.0175
803.00,0.0161
802.00,0.0150
801.00,0.0142
800.00,0.0135
799.00,0.0129
798.00,0.0123
797.00,0.0119
796.00,0.0116
795.00,0.0112
794.00,0.0109
793.00,0.0104
792.00,0.0100
791.00,0.0096
790.00,0.0092
789.00,0.0088
788.00,0.0084
787.00,0.0080
786.00,0.0077
785.00,0.0076
784.00,0.0075
783.00,0.0075
782.00,0.0075
781.00,0.0074
780.00,0.0075
779.00,0.0076
778.00,0.0077
777.00,0.0078
776.00,0.0078
775.00,0.0077
774.00,0.0076
773.00,0.0074
772.00,0.0073
771.00,0.0073
770.00,0.0073
769.00,0.0074
768.00,0.0074
767.00,0.0075
766.00,0.0075
765.00,0.0077
764.00,0.0079
763.00,0.0081
762.00,0.0081
761.00,0.0080
760.00,0.0079
759.00,0.0079
758.00,0.0078
757.00,0.0078
756.00,0.0079
755.00,0.0080
754.00,0.0082
753.00,0.0084
752.00,0.0084
751.00,0.0084
750.00,0.0084
749.00,0.0085
748.00,0.0086
747.00,0.0087
746.00,0.0087
745.00,0.0089
744.00,0.0091
743.00,0.0095
742.00,0.0099
741.00,0.0104
740.00,0.0108
739.00,0.0112
738.00,0.0115
737.00,0.0118
736.00,0.0121
735.00,0.0124
734.00,0.0128
733.00,0.0133
732.00,0.0138
731.00,0.0144
730.00,0.0149
729.00,0.0152
728.00,0.0153
727.00,0.0153
726.00,0.0153
725.00,0.0154
724.00,0.0157
723.00,0.0161
722.00,0.0164
721.00,0.0166
720.00,0.0165
719.00,0.0160
718.00,0.0152
717.00,0.0143
716.00,0.0134
715.00,0.0127
714.00,0.0121
713.00,0.0117
712.00,0.0116
711.00,0.0116
710.00,0.0116
709.00,0.0116
708.00,0.0115
707.00,0.0115
706.00,0.0115
705.00,0.0116
704.00,0.0115
703.00,0.0114
702.00,0.0112
701.00,0.0111
700.00,0.0110
699.00,0.0109
698.00,0.0106
697.00,0.0104
696.00,0.0104
695.00,0.0106
694.00,0.0109
693.00,0.0110
692.00,0.0110
691.00,0.0110
690.00,0.0110
689.00,0.0110
688.00,0.0110
687.00,0.0110
686.00,0.0111
685.00,0.0113
684.00,0.0114
683.00,0.0115
682.00,0.0115
681.00,0.0114
680.00,0.0112
679.00,0.0110
678.00,0.0111
677.00,0.0112
676.00,0.0115
675.00,0.0118
674.00,0.0120
673.00,0.0122
672.00,0.0122
671.00,0.0121
670.00,0.0118
669.00,0.0113
668.00,0.0111
667.00,0.0113
666.00,0.0115
665.00,0.0115
664.00,0.0114
663.00,0.0112
662.00,0.0111
661.00,0.0109
660.00,0.0107
659.00,0.0106
658.00,0.0105
657.00,0.0105
656.00,0.0103
655.00,0.0101
654.00,0.0100
653.00,0.0100
652.00,0.0100
651.00,0.0100
650.00,0.0101
649.00,0.0102
648.00,0.0104
647.00,0.0105
646.00,0.0104
645.00,0.0101
644.00,0.0097
643.00,0.0093
642.00,0.0092
641.00,0.0092
640.00,0.0093
639.00,0.0096
638.00,0.0099
637.00,0.0102
636.00,0.0102
635.00,0.0100
634.00,0.0097
633.00,0.0094
632.00,0.0093
631.00,0.0094
630.00,0.0097
629.00,0.0098
628.00,0.0098
627.00,0.0097
626.00,0.0098
625.00,0.0099
624.00,0.0098
623.00,0.0096
622.00,0.0095
621.00,0.0094
620.00,0.0095
619.00,0.0096
618.00,0.0098
617.00,0.0100
616.00,0.0101
615.00,0.0100
614.00,0.0098
613.00,0.0096
612.00,0.0094
611.00,0.0095
610.00,0.0096
609.00,0.0097
608.00,0.0096
607.00,0.0094
606.00,0.0092
605.00,0.0092
604.00,0.0093
603.00,0.0095
602.00,0.0096
601.00,0.0094
600.00,0.0091
599.00,0.0088
598.00,0.0089
597.00,0.0092
596.00,0.0095
595.00,0.0096
594.00,0.0095
593.00,0.0092
592.00,0.0090
591.00,0.0088
590.00,0.0087
589.00,0.0087
588.00,0.0087
587.00,0.0088
586.00,0.0090
585.00,0.0093
584.00,0.0096
583.00,0.0098
582.00,0.0099
581.00,0.0100
580.00,0.0101
579.00,0.0101
578.00,0.0100
577.00,0.0099
576.00,0.0096
575.00,0.0095
574.00,0.0095
573.00,0.0097
572.00,0.0099
571.00,0.0100
570.00,0.0100
569.00,0.0098
568.00,0.0095
567.00,0.0093
566.00,0.0093
565.00,0.0095
564.00,0.0099
563.00,0.0100
562.00,0.0098
561.00,0.0096
560.00,0.0095
559.00,0.0096
558.00,0.0097
557.00,0.0097
556.00,0.0096
555.00,0.0094
554.00,0.0094
553.00,0.0095
552.00,0.0098
551.00,0.0103
550.00,0.0109
549.00,0.0113
548.00,0.0113
547.00,0.0110
546.00,0.0104
545.00,0.0098
544.00,0.0094
543.00,0.0094
542.00,0.0096
541.00,0.0099
540.00,0.0101
539.00,0.0103
538.00,0.0105
537.00,0.0110
536.00,0.0115
535.00,0.0121
534.00,0.0125
533.00,0.0127
532.00,0.0125
531.00,0.0120
530.00,0.0116
529.00,0.0112
528.00,0.0111
527.00,0.0112
526.00,0.0112
525.00,0.0112
524.00,0.0109
523.00,0.0108
522.00,0.0107
521.00,0.0107
520.00,0.0106
519.00,0.0104
518.00,0.0105
517.00,0.0106
516.00,0.0106
515.00,0.0101
514.00,0.0094
513.00,0.0089
512.00,0.0087
511.00,0.0090
510.00,0.0095
509.00,0.0098
508.00,0.0099
507.00,0.0097
506.00,0.0093
505.00,0.0089
504.00,0.0085
503.00,0.0082
502.00,0.0082
501.00,0.0086
500.00,0.0093
499.00,0.0099
498.00,0.0099
497.00,0.0095
496.00,0.0091
495.00,0.0091
494.00,0.0093
493.00,0.0096
492.00,0.0098
491.00,0.0098
490.00,0.0097
489.00,0.0096
488.00,0.0099
487.00,0.0106
486.00,0.0115
485.00,0.0121
484.00,0.0123
483.00,0.0123
482.00,0.0124
481.00,0.0128
480.00,0.0130
479.00,0.0129
478.00,0.0128
477.00,0.0131
476.00,0.0139
475.00,0.0149
474.00,0.0155
473.00,0.0157
472.00,0.0158
471.00,0.0160
470.00,0.0164
469.00,0.0169
468.00,0.0178
467.00,0.0192
466.00,0.0205
465.00,0.0212
464.00,0.0209
463.00,0.0202
462.00,0.0194
461.00,0.0192
460.00,0.0199
459.00,0.0216
458.00,0.0235
457.00,0.0245
456.00,0.0241
455.00,0.0228
454.00,0.0216
453.00,0.0206
452.00,0.0196
451.00,0.0184
450.00,0.0171
