Created as New Dataset,Sample 196 By Administrator Date Wednesday, September 03 2025
cm-1,A
4000.00,0.0010
3999.00,0.0010
3998.00,0.0010
3997.00,0.0010
3996.00,0.0010
3995.00,0.0010
3994.00,0.0010
3993.00,0.0010
3992.00,0.0010
3991.00,0.0010
3990.00,0.0010
3989.00,0.0010
3988.00,0.0009
3987.00,0.0009
3986.00,0.0009
3985.00,0.0010
3984.00,0.0010
3983.00,0.0009
3982.00,0.0009
3981.00,0.0009
3980.00,0.0009
3979.00,0.0009
3978.00,0.0009
3977.00,0.0009
3976.00,0.0010
3975.00,0.0010
3974.00,0.0010
3973.00,0.0009
3972.00,0.0009
3971.00,0.0009
3970.00,0.0009
3969.00,0.0008
3968.00,0.0008
3967.00,0.0008
3966.00,0.0008
3965.00,0.0007
3964.00,0.0008
3963.00,0.0008
3962.00,0.0008
3961.00,0.0008
3960.00,0.0008
3959.00,0.0008
3958.00,0.0007
3957.00,0.0007
3956.00,0.0007
3955.00,0.0007
3954.00,0.0007
3953.00,0.0008
3952.00,0.0008
3951.00,0.0008
3950.00,0.0008
3949.00,0.0008
3948.00,0.0008
3947.00,0.0008
3946.00,0.0008
3945.00,0.0008
3944.00,0.0008
3943.00,0.0008
3942.00,0.0009
3941.00,0.0009
3940.00,0.0009
3939.00,0.0009
3938.00,0.0008
3937.00,0.0008
3936.00,0.0008
3935.00,0.0008
3934.00,0.0008
3933.00,0.0008
3932.00,0.0009
3931.00,0.0009
3930.00,0.0009
3929.00,0.0009
3928.00,0.0008
3927.00,0.0008
3926.00,0.0007
3925.00,0.0007
3924.00,0.0008
3923.00,0.0008
3922.00,0.0008
3921.00,0.0008
3920.00,0.0008
3919.00,0.0008
3918.00,0.0008
3917.00,0.0008
3916.00,0.0008
3915.00,0.0008
3914.00,0.0008
3913.00,0.0008
3912.00,0.0008
3911.00,0.0008
3910.00,0.0008
3909.00,0.0008
3908.00,0.0008
3907.00,0.0008
3906.00,0.0008
3905.00,0.0008
3904.00,0.0008
3903.00,0.0009
3902.00,0.0008
3901.00,0.0008
3900.00,0.0008
3899.00,0.0008
3898.00,0.0008
3897.00,0.0008
3896.00,0.0008
3895.00,0.0008
3894.00,0.0008
3893.00,0.0008
3892.00,0.0008
3891.00,0.0009
3890.00,0.0009
3889.00,0.0009
3888.00,0.0009
3887.00,0.0008
3886.00,0.0008
3885.00,0.0009
3884.00,0.0009
3883.00,0.0009
3882.00,0.0008
3881.00,0.0008
3880.00,0.0008
3879.00,0.0008
3878.00,0.0009
3877.00,0.0009
3876.00,0.0009
3875.00,0.0009
3874.00,0.0009
3873.00,0.0010
3872.00,0.0009
3871.00,0.0009
3870.00,0.0009
3869.00,0.0009
3868.00,0.0009
3867.00,0.0008
3866.00,0.0008
3865.00,0.0008
3864.00,0.0008
3863.00,0.0009
3862.00,0.0009
3861.00,0.0009
3860.00,0.0009
3859.00,0.0009
3858.00,0.0008
3857.00,0.0008
3856.00,0.0008
3855.00,0.0008
3854.00,0.0008
3853.00,0.0008
3852.00,0.0008
3851.00,0.0008
3850.00,0.0008
3849.00,0.0008
3848.00,0.0008
3847.00,0.0008
3846.00,0.0007
3845.00,0.0007
3844.00,0.0007
3843.00,0.0008
3842.00,0.0008
3841.00,0.0009
3840.00,0.0009
3839.00,0.0009
3838.00,0.0008
3837.00,0.0008
3836.00,0.0008
3835.00,0.0007
3834.00,0.0007
3833.00,0.0007
3832.00,0.0007
3831.00,0.0007
3830.00,0.0008
3829.00,0.0008
3828.00,0.0008
3827.00,0.0007
3826.00,0.0008
3825.00,0.0008
3824.00,0.0008
3823.00,0.0008
3822.00,0.0008
3821.00,0.0009
3820.00,0.0009
3819.00,0.0008
3818.00,0.0008
3817.00,0.0007
3816.00,0.0007
3815.00,0.0008
3814.00,0.0008
3813.00,0.0008
3812.00,0.0008
3811.00,0.0008
3810.00,0.0008
3809.00,0.0008
3808.00,0.0007
3807.00,0.0008
3806.00,0.0008
3805.00,0.0008
3804.00,0.0008
3803.00,0.0008
3802.00,0.0008
3801.00,0.0008
3800.00,0.0009
3799.00,0.0008
3798.00,0.0008
3797.00,0.0008
3796.00,0.0008
3795.00,0.0008
3794.00,0.0008
3793.00,0.0007
3792.00,0.0007
3791.00,0.0007
3790.00,0.0007
3789.00,0.0008
3788.00,0.0008
3787.00,0.0007
3786.00,0.0007
3785.00,0.0007
3784.00,0.0008
3783.00,0.0008
3782.00,0.0008
3781.00,0.0008
3780.00,0.0008
3779.00,0.0008
3778.00,0.0008
3777.00,0.0008
3776.00,0.0008
3775.00,0.0008
3774.00,0.0008
3773.00,0.0008
3772.00,0.0008
3771.00,0.0008
3770.00,0.0008
3769.00,0.0009
3768.00,0.0009
3767.00,0.0009
3766.00,0.0008
3765.00,0.0008
3764.00,0.0008
3763.00,0.0008
3762.00,0.0008
3761.00,0.0008
3760.00,0.0008
3759.00,0.0008
3758.00,0.0008
3757.00,0.0008
3756.00,0.0009
3755.00,0.0009
3754.00,0.0009
3753.00,0.0009
3752.00,0.0009
3751.00,0.0009
3750.00,0.0009
3749.00,0.0009
3748.00,0.0009
3747.00,0.0009
3746.00,0.0008
3745.00,0.0008
3744.00,0.0008
3743.00,0.0008
3742.00,0.0007
3741.00,0.0007
3740.00,0.0007
3739.00,0.0007
3738.00,0.0007
3737.00,0.0008
3736.00,0.0009
3735.00,0.0010
3734.00,0.0010
3733.00,0.0009
3732.00,0.0008
3731.00,0.0007
3730.00,0.0007
3729.00,0.0006
3728.00,0.0006
3727.00,0.0006
3726.00,0.0006
3725.00,0.0006
3724.00,0.0006
3723.00,0.0006
3722.00,0.0006
3721.00,0.0007
3720.00,0.0007
3719.00,0.0008
3718.00,0.0008
3717.00,0.0008
3716.00,0.0008
3715.00,0.0008
3714.00,0.0008
3713.00,0.0008
3712.00,0.0008
3711.00,0.0008
3710.00,0.0007
3709.00,0.0007
3708.00,0.0007
3707.00,0.0007
3706.00,0.0007
3705.00,0.0007
3704.00,0.0007
3703.00,0.0007
3702.00,0.0007
3701.00,0.0007
3700.00,0.0007
3699.00,0.0007
3698.00,0.0007
3697.00,0.0007
3696.00,0.0007
3695.00,0.0008
3694.00,0.0008
3693.00,0.0007
3692.00,0.0007
3691.00,0.0007
3690.00,0.0007
3689.00,0.0008
3688.00,0.0008
3687.00,0.0008
3686.00,0.0008
3685.00,0.0007
3684.00,0.0007
3683.00,0.0007
3682.00,0.0008
3681.00,0.0008
3680.00,0.0008
3679.00,0.0009
3678.00,0.0009
3677.00,0.0008
3676.00,0.0008
3675.00,0.0008
3674.00,0.0008
3673.00,0.0007
3672.00,0.0007
3671.00,0.0006
3670.00,0.0006
3669.00,0.0006
3668.00,0.0006
3667.00,0.0006
3666.00,0.0006
3665.00,0.0007
3664.00,0.0007
3663.00,0.0007
3662.00,0.0007
3661.00,0.0007
3660.00,0.0007
3659.00,0.0007
3658.00,0.0007
3657.00,0.0007
3656.00,0.0007
3655.00,0.0008
3654.00,0.0008
3653.00,0.0008
3652.00,0.0008
3651.00,0.0008
3650.00,0.0008
3649.00,0.0008
3648.00,0.0008
3647.00,0.0007
3646.00,0.0007
3645.00,0.0007
3644.00,0.0007
3643.00,0.0006
3642.00,0.0006
3641.00,0.0007
3640.00,0.0007
3639.00,0.0007
3638.00,0.0007
3637.00,0.0007
3636.00,0.0007
3635.00,0.0007
3634.00,0.0008
3633.00,0.0008
3632.00,0.0008
3631.00,0.0008
3630.00,0.0007
3629.00,0.0008
3628.00,0.0008
3627.00,0.0008
3626.00,0.0008
3625.00,0.0008
3624.00,0.0009
3623.00,0.0009
3622.00,0.0010
3621.00,0.0010
3620.00,0.0010
3619.00,0.0010
3618.00,0.0010
3617.00,0.0010
3616.00,0.0010
3615.00,0.0010
3614.00,0.0010
3613.00,0.0011
3612.00,0.0011
3611.00,0.0011
3610.00,0.0011
3609.00,0.0011
3608.00,0.0011
3607.00,0.0011
3606.00,0.0011
3605.00,0.0011
3604.00,0.0011
3603.00,0.0011
3602.00,0.0010
3601.00,0.0010
3600.00,0.0011
3599.00,0.0011
3598.00,0.0011
3597.00,0.0011
3596.00,0.0012
3595.00,0.0012
3594.00,0.0012
3593.00,0.0012
3592.00,0.0012
3591.00,0.0011
3590.00,0.0011
3589.00,0.0010
3588.00,0.0010
3587.00,0.0011
3586.00,0.0011
3585.00,0.0012
3584.00,0.0012
3583.00,0.0012
3582.00,0.0012
3581.00,0.0013
3580.00,0.0013
3579.00,0.0013
3578.00,0.0014
3577.00,0.0014
3576.00,0.0014
3575.00,0.0014
3574.00,0.0014
3573.00,0.0014
3572.00,0.0014
3571.00,0.0014
3570.00,0.0015
3569.00,0.0015
3568.00,0.0015
3567.00,0.0015
3566.00,0.0015
3565.00,0.0015
3564.00,0.0016
3563.00,0.0016
3562.00,0.0016
3561.00,0.0016
3560.00,0.0016
3559.00,0.0017
3558.00,0.0017
3557.00,0.0017
3556.00,0.0018
3555.00,0.0018
3554.00,0.0018
3553.00,0.0018
3552.00,0.0018
3551.00,0.0019
3550.00,0.0019
3549.00,0.0019
3548.00,0.0019
3547.00,0.0019
3546.00,0.0019
3545.00,0.0019
3544.00,0.0019
3543.00,0.0019
3542.00,0.0020
3541.00,0.0020
3540.00,0.0021
3539.00,0.0021
3538.00,0.0021
3537.00,0.0021
3536.00,0.0022
3535.00,0.0022
3534.00,0.0022
3533.00,0.0022
3532.00,0.0022
3531.00,0.0022
3530.00,0.0022
3529.00,0.0023
3528.00,0.0023
3527.00,0.0024
3526.00,0.0024
3525.00,0.0024
3524.00,0.0025
3523.00,0.0025
3522.00,0.0025
3521.00,0.0025
3520.00,0.0025
3519.00,0.0025
3518.00,0.0025
3517.00,0.0026
3516.00,0.0026
3515.00,0.0025
3514.00,0.0025
3513.00,0.0026
3512.00,0.0026
3511.00,0.0026
3510.00,0.0027
3509.00,0.0027
3508.00,0.0027
3507.00,0.0027
3506.00,0.0028
3505.00,0.0028
3504.00,0.0029
3503.00,0.0029
3502.00,0.0029
3501.00,0.0030
3500.00,0.0030
3499.00,0.0030
3498.00,0.0030
3497.00,0.0030
3496.00,0.0030
3495.00,0.0031
3494.00,0.0030
3493.00,0.0030
3492.00,0.0030
3491.00,0.0030
3490.00,0.0031
3489.00,0.0031
3488.00,0.0032
3487.00,0.0033
3486.00,0.0033
3485.00,0.0033
3484.00,0.0033
3483.00,0.0033
3482.00,0.0033
3481.00,0.0033
3480.00,0.0034
3479.00,0.0034
3478.00,0.0034
3477.00,0.0035
3476.00,0.0035
3475.00,0.0035
3474.00,0.0035
3473.00,0.0035
3472.00,0.0036
3471.00,0.0036
3470.00,0.0036
3469.00,0.0036
3468.00,0.0036
3467.00,0.0036
3466.00,0.0036
3465.00,0.0037
3464.00,0.0037
3463.00,0.0037
3462.00,0.0037
3461.00,0.0037
3460.00,0.0038
3459.00,0.0038
3458.00,0.0039
3457.00,0.0039
3456.00,0.0039
3455.00,0.0039
3454.00,0.0039
3453.00,0.0039
3452.00,0.0039
3451.00,0.0039
3450.00,0.0040
3449.00,0.0040
3448.00,0.0040
3447.00,0.0040
3446.00,0.0040
3445.00,0.0040
3444.00,0.0040
3443.00,0.0041
3442.00,0.0041
3441.00,0.0041
3440.00,0.0041
3439.00,0.0042
3438.00,0.0042
3437.00,0.0042
3436.00,0.0042
3435.00,0.0042
3434.00,0.0042
3433.00,0.0043
3432.00,0.0043
3431.00,0.0043
3430.00,0.0043
3429.00,0.0044
3428.00,0.0044
3427.00,0.0044
3426.00,0.0045
3425.00,0.0045
3424.00,0.0045
3423.00,0.0045
3422.00,0.0045
3421.00,0.0045
3420.00,0.0045
3419.00,0.0045
3418.00,0.0045
3417.00,0.0045
3416.00,0.0045
3415.00,0.0046
3414.00,0.0046
3413.00,0.0047
3412.00,0.0047
3411.00,0.0047
3410.00,0.0047
3409.00,0.0047
3408.00,0.0047
3407.00,0.0047
3406.00,0.0047
3405.00,0.0048
3404.00,0.0048
3403.00,0.0048
3402.00,0.0048
3401.00,0.0048
3400.00,0.0049
3399.00,0.0049
3398.00,0.0049
3397.00,0.0050
3396.00,0.0050
3395.00,0.0050
3394.00,0.0050
3393.00,0.0049
3392.00,0.0049
3391.00,0.0049
3390.00,0.0049
3389.00,0.0049
3388.00,0.0049
3387.00,0.0049
3386.00,0.0049
3385.00,0.0049
3384.00,0.0049
3383.00,0.0049
3382.00,0.0049
3381.00,0.0049
3380.00,0.0049
3379.00,0.0049
3378.00,0.0049
3377.00,0.0050
3376.00,0.0050
3375.00,0.0050
3374.00,0.0050
3373.00,0.0050
3372.00,0.0050
3371.00,0.0050
3370.00,0.0050
3369.00,0.0050
3368.00,0.0050
3367.00,0.0050
3366.00,0.0050
3365.00,0.0050
3364.00,0.0050
3363.00,0.0050
3362.00,0.0050
3361.00,0.0050
3360.00,0.0050
3359.00,0.0050
3358.00,0.0050
3357.00,0.0050
3356.00,0.0050
3355.00,0.0050
3354.00,0.0051
3353.00,0.0051
3352.00,0.0051
3351.00,0.0051
3350.00,0.0051
3349.00,0.0050
3348.00,0.0050
3347.00,0.0050
3346.00,0.0050
3345.00,0.0050
3344.00,0.0050
3343.00,0.0050
3342.00,0.0050
3341.00,0.0049
3340.00,0.0049
3339.00,0.0049
3338.00,0.0049
3337.00,0.0049
3336.00,0.0049
3335.00,0.0049
3334.00,0.0049
3333.00,0.0049
3332.00,0.0050
3331.00,0.0049
3330.00,0.0049
3329.00,0.0049
3328.00,0.0049
3327.00,0.0049
3326.00,0.0049
3325.00,0.0049
3324.00,0.0048
3323.00,0.0048
3322.00,0.0048
3321.00,0.0049
3320.00,0.0049
3319.00,0.0048
3318.00,0.0048
3317.00,0.0048
3316.00,0.0048
3315.00,0.0048
3314.00,0.0048
3313.00,0.0048
3312.00,0.0048
3311.00,0.0048
3310.00,0.0047
3309.00,0.0047
3308.00,0.0048
3307.00,0.0048
3306.00,0.0049
3305.00,0.0049
3304.00,0.0049
3303.00,0.0050
3302.00,0.0050
3301.00,0.0049
3300.00,0.0049
3299.00,0.0049
3298.00,0.0048
3297.00,0.0048
3296.00,0.0047
3295.00,0.0047
3294.00,0.0047
3293.00,0.0047
3292.00,0.0047
3291.00,0.0046
3290.00,0.0046
3289.00,0.0046
3288.00,0.0046
3287.00,0.0046
3286.00,0.0046
3285.00,0.0046
3284.00,0.0045
3283.00,0.0045
3282.00,0.0045
3281.00,0.0046
3280.00,0.0046
3279.00,0.0045
3278.00,0.0045
3277.00,0.0044
3276.00,0.0044
3275.00,0.0044
3274.00,0.0044
3273.00,0.0044
3272.00,0.0044
3271.00,0.0043
3270.00,0.0043
3269.00,0.0043
3268.00,0.0042
3267.00,0.0042
3266.00,0.0042
3265.00,0.0042
3264.00,0.0042
3263.00,0.0042
3262.00,0.0042
3261.00,0.0042
3260.00,0.0042
3259.00,0.0042
3258.00,0.0041
3257.00,0.0041
3256.00,0.0041
3255.00,0.0041
3254.00,0.0040
3253.00,0.0040
3252.00,0.0040
3251.00,0.0040
3250.00,0.0040
3249.00,0.0040
3248.00,0.0039
3247.00,0.0039
3246.00,0.0039
3245.00,0.0039
3244.00,0.0039
3243.00,0.0039
3242.00,0.0039
3241.00,0.0039
3240.00,0.0039
3239.00,0.0039
3238.00,0.0039
3237.00,0.0038
3236.00,0.0038
3235.00,0.0038
3234.00,0.0039
3233.00,0.0039
3232.00,0.0039
3231.00,0.0039
3230.00,0.0039
3229.00,0.0039
3228.00,0.0039
3227.00,0.0039
3226.00,0.0040
3225.00,0.0040
3224.00,0.0040
3223.00,0.0041
3222.00,0.0041
3221.00,0.0041
3220.00,0.0041
3219.00,0.0041
3218.00,0.0041
3217.00,0.0041
3216.00,0.0041
3215.00,0.0041
3214.00,0.0041
3213.00,0.0041
3212.00,0.0041
3211.00,0.0042
3210.00,0.0042
3209.00,0.0042
3208.00,0.0043
3207.00,0.0043
3206.00,0.0043
3205.00,0.0043
3204.00,0.0043
3203.00,0.0043
3202.00,0.0043
3201.00,0.0043
3200.00,0.0043
3199.00,0.0043
3198.00,0.0043
3197.00,0.0043
3196.00,0.0043
3195.00,0.0043
3194.00,0.0043
3193.00,0.0043
3192.00,0.0043
3191.00,0.0043
3190.00,0.0043
3189.00,0.0043
3188.00,0.0043
3187.00,0.0043
3186.00,0.0042
3185.00,0.0042
3184.00,0.0042
3183.00,0.0042
3182.00,0.0042
3181.00,0.0042
3180.00,0.0042
3179.00,0.0041
3178.00,0.0041
3177.00,0.0041
3176.00,0.0041
3175.00,0.0041
3174.00,0.0041
3173.00,0.0040
3172.00,0.0040
3171.00,0.0040
3170.00,0.0040
3169.00,0.0040
3168.00,0.0040
3167.00,0.0039
3166.00,0.0039
3165.00,0.0039
3164.00,0.0038
3163.00,0.0038
3162.00,0.0038
3161.00,0.0039
3160.00,0.0039
3159.00,0.0039
3158.00,0.0038
3157.00,0.0038
3156.00,0.0038
3155.00,0.0038
3154.00,0.0038
3153.00,0.0038
3152.00,0.0038
3151.00,0.0039
3150.00,0.0039
3149.00,0.0039
3148.00,0.0038
3147.00,0.0038
3146.00,0.0037
3145.00,0.0037
3144.00,0.0037
3143.00,0.0037
3142.00,0.0036
3141.00,0.0036
3140.00,0.0036
3139.00,0.0035
3138.00,0.0035
3137.00,0.0035
3136.00,0.0036
3135.00,0.0036
3134.00,0.0036
3133.00,0.0035
3132.00,0.0035
3131.00,0.0035
3130.00,0.0035
3129.00,0.0035
3128.00,0.0035
3127.00,0.0034
3126.00,0.0034
3125.00,0.0034
3124.00,0.0033
3123.00,0.0033
3122.00,0.0033
3121.00,0.0033
3120.00,0.0033
3119.00,0.0033
3118.00,0.0033
3117.00,0.0032
3116.00,0.0032
3115.00,0.0032
3114.00,0.0032
3113.00,0.0032
3112.00,0.0031
3111.00,0.0031
3110.00,0.0031
3109.00,0.0031
3108.00,0.0030
3107.00,0.0030
3106.00,0.0030
3105.00,0.0030
3104.00,0.0030
3103.00,0.0030
3102.00,0.0030
3101.00,0.0030
3100.00,0.0030
3099.00,0.0030
3098.00,0.0030
3097.00,0.0030
3096.00,0.0030
3095.00,0.0030
3094.00,0.0030
3093.00,0.0030
3092.00,0.0030
3091.00,0.0030
3090.00,0.0030
3089.00,0.0030
3088.00,0.0030
3087.00,0.0030
3086.00,0.0030
3085.00,0.0031
3084.00,0.0030
3083.00,0.0030
3082.00,0.0030
3081.00,0.0029
3080.00,0.0029
3079.00,0.0029
3078.00,0.0029
3077.00,0.0029
3076.00,0.0029
3075.00,0.0029
3074.00,0.0029
3073.00,0.0030
3072.00,0.0030
3071.00,0.0030
3070.00,0.0030
3069.00,0.0030
3068.00,0.0030
3067.00,0.0030
3066.00,0.0031
3065.00,0.0031
3064.00,0.0031
3063.00,0.0031
3062.00,0.0031
3061.00,0.0032
3060.00,0.0032
3059.00,0.0032
3058.00,0.0033
3057.00,0.0033
3056.00,0.0033
3055.00,0.0033
3054.00,0.0033
3053.00,0.0033
3052.00,0.0032
3051.00,0.0032
3050.00,0.0033
3049.00,0.0033
3048.00,0.0033
3047.00,0.0033
3046.00,0.0033
3045.00,0.0033
3044.00,0.0034
3043.00,0.0034
3042.00,0.0034
3041.00,0.0035
3040.00,0.0035
3039.00,0.0035
3038.00,0.0036
3037.00,0.0036
3036.00,0.0036
3035.00,0.0037
3034.00,0.0037
3033.00,0.0037
3032.00,0.0037
3031.00,0.0038
3030.00,0.0039
3029.00,0.0039
3028.00,0.0040
3027.00,0.0041
3026.00,0.0041
3025.00,0.0042
3024.00,0.0042
3023.00,0.0043
3022.00,0.0044
3021.00,0.0045
3020.00,0.0045
3019.00,0.0046
3018.00,0.0047
3017.00,0.0047
3016.00,0.0048
3015.00,0.0050
3014.00,0.0051
3013.00,0.0052
3012.00,0.0053
3011.00,0.0054
3010.00,0.0055
3009.00,0.0056
3008.00,0.0057
3007.00,0.0058
3006.00,0.0059
3005.00,0.0060
3004.00,0.0062
3003.00,0.0064
3002.00,0.0066
3001.00,0.0068
3000.00,0.0070
2999.00,0.0072
2998.00,0.0075
2997.00,0.0078
2996.00,0.0081
2995.00,0.0085
2994.00,0.0089
2993.00,0.0093
2992.00,0.0098
2991.00,0.0103
2990.00,0.0109
2989.00,0.0115
2988.00,0.0122
2987.00,0.0130
2986.00,0.0138
2985.00,0.0148
2984.00,0.0158
2983.00,0.0170
2982.00,0.0184
2981.00,0.0201
2980.00,0.0219
2979.00,0.0240
2978.00,0.0264
2977.00,0.0291
2976.00,0.0322
2975.00,0.0357
2974.00,0.0397
2973.00,0.0442
2972.00,0.0494
2971.00,0.0552
2970.00,0.0617
2969.00,0.0688
2968.00,0.0765
2967.00,0.0846
2966.00,0.0930
2965.00,0.1015
2964.00,0.1098
2963.00,0.1173
2962.00,0.1239
2961.00,0.1292
2960.00,0.1336
2959.00,0.1374
2958.00,0.1411
2957.00,0.1454
2956.00,0.1507
2955.00,0.1573
2954.00,0.1649
2953.00,0.1728
2952.00,0.1800
2951.00,0.1851
2950.00,0.1871
2949.00,0.1851
2948.00,0.1790
2947.00,0.1694
2946.00,0.1576
2945.00,0.1450
2944.00,0.1330
2943.00,0.1227
2942.00,0.1147
2941.00,0.1092
2940.00,0.1062
2939.00,0.1054
2938.00,0.1066
2937.00,0.1096
2936.00,0.1142
2935.00,0.1203
2934.00,0.1278
2933.00,0.1366
2932.00,0.1465
2931.00,0.1574
2930.00,0.1690
2929.00,0.1810
2928.00,0.1931
2927.00,0.2050
2926.00,0.2166
2925.00,0.2278
2924.00,0.2387
2923.00,0.2496
2922.00,0.2604
2921.00,0.2708
2920.00,0.2800
2919.00,0.2871
2918.00,0.2907
2917.00,0.2900
2916.00,0.2850
2915.00,0.2764
2914.00,0.2653
2913.00,0.2531
2912.00,0.2411
2911.00,0.2299
2910.00,0.2198
2909.00,0.2109
2908.00,0.2027
2907.00,0.1950
2906.00,0.1876
2905.00,0.1803
2904.00,0.1730
2903.00,0.1658
2902.00,0.1587
2901.00,0.1519
2900.00,0.1454
2899.00,0.1392
2898.00,0.1335
2897.00,0.1283
2896.00,0.1236
2895.00,0.1194
2894.00,0.1159
2893.00,0.1130
2892.00,0.1107
2891.00,0.1090
2890.00,0.1078
2889.00,0.1071
2888.00,0.1067
2887.00,0.1067
2886.00,0.1070
2885.00,0.1077
2884.00,0.1088
2883.00,0.1104
2882.00,0.1125
2881.00,0.1150
2880.00,0.1174
2879.00,0.1196
2878.00,0.1210
2877.00,0.1215
2876.00,0.1213
2875.00,0.1206
2874.00,0.1200
2873.00,0.1199
2872.00,0.1206
2871.00,0.1220
2870.00,0.1239
2869.00,0.1258
2868.00,0.1269
2867.00,0.1266
2866.00,0.1241
2865.00,0.1194
2864.00,0.1128
2863.00,0.1052
2862.00,0.0977
2861.00,0.0912
2860.00,0.0860
2859.00,0.0826
2858.00,0.0806
2857.00,0.0801
2856.00,0.0805
2855.00,0.0818
2854.00,0.0836
2853.00,0.0858
2852.00,0.0880
2851.00,0.0898
2850.00,0.0910
2849.00,0.0917
2848.00,0.0922
2847.00,0.0929
2846.00,0.0945
2845.00,0.0971
2844.00,0.1010
2843.00,0.1057
2842.00,0.1107
2841.00,0.1156
2840.00,0.1193
2839.00,0.1214
2838.00,0.1209
2837.00,0.1175
2836.00,0.1111
2835.00,0.1024
2834.00,0.0922
2833.00,0.0816
2832.00,0.0714
2831.00,0.0623
2830.00,0.0547
2829.00,0.0484
2828.00,0.0433
2827.00,0.0392
2826.00,0.0358
2825.00,0.0330
2824.00,0.0307
2823.00,0.0287
2822.00,0.0270
2821.00,0.0255
2820.00,0.0243
2819.00,0.0232
2818.00,0.0223
2817.00,0.0215
2816.00,0.0207
2815.00,0.0201
2814.00,0.0195
2813.00,0.0189
2812.00,0.0184
2811.00,0.0178
2810.00,0.0173
2809.00,0.0167
2808.00,0.0161
2807.00,0.0155
2806.00,0.0149
2805.00,0.0142
2804.00,0.0136
2803.00,0.0130
2802.00,0.0125
2801.00,0.0120
2800.00,0.0116
2799.00,0.0113
2798.00,0.0110
2797.00,0.0107
2796.00,0.0105
2795.00,0.0102
2794.00,0.0100
2793.00,0.0097
2792.00,0.0094
2791.00,0.0091
2790.00,0.0088
2789.00,0.0086
2788.00,0.0083
2787.00,0.0080
2786.00,0.0078
2785.00,0.0075
2784.00,0.0073
2783.00,0.0071
2782.00,0.0069
2781.00,0.0067
2780.00,0.0066
2779.00,0.0064
2778.00,0.0062
2777.00,0.0061
2776.00,0.0060
2775.00,0.0059
2774.00,0.0058
2773.00,0.0057
2772.00,0.0057
2771.00,0.0057
2770.00,0.0056
2769.00,0.0056
2768.00,0.0055
2767.00,0.0055
2766.00,0.0055
2765.00,0.0054
2764.00,0.0054
2763.00,0.0053
2762.00,0.0053
2761.00,0.0053
2760.00,0.0052
2759.00,0.0052
2758.00,0.0052
2757.00,0.0052
2756.00,0.0052
2755.00,0.0052
2754.00,0.0052
2753.00,0.0051
2752.00,0.0051
2751.00,0.0050
2750.00,0.0049
2749.00,0.0049
2748.00,0.0050
2747.00,0.0050
2746.00,0.0050
2745.00,0.0051
2744.00,0.0052
2743.00,0.0053
2742.00,0.0054
2741.00,0.0055
2740.00,0.0056
2739.00,0.0058
2738.00,0.0059
2737.00,0.0060
2736.00,0.0061
2735.00,0.0063
2734.00,0.0065
2733.00,0.0066
2732.00,0.0068
2731.00,0.0070
2730.00,0.0072
2729.00,0.0074
2728.00,0.0077
2727.00,0.0080
2726.00,0.0082
2725.00,0.0085
2724.00,0.0086
2723.00,0.0086
2722.00,0.0085
2721.00,0.0083
2720.00,0.0081
2719.00,0.0078
2718.00,0.0075
2717.00,0.0072
2716.00,0.0069
2715.00,0.0066
2714.00,0.0064
2713.00,0.0061
2712.00,0.0059
2711.00,0.0057
2710.00,0.0056
2709.00,0.0054
2708.00,0.0053
2707.00,0.0052
2706.00,0.0050
2705.00,0.0049
2704.00,0.0048
2703.00,0.0047
2702.00,0.0046
2701.00,0.0045
2700.00,0.0044
2699.00,0.0044
2698.00,0.0044
2697.00,0.0044
2696.00,0.0044
2695.00,0.0044
2694.00,0.0044
2693.00,0.0044
2692.00,0.0044
2691.00,0.0044
2690.00,0.0044
2689.00,0.0044
2688.00,0.0044
2687.00,0.0044
2686.00,0.0043
2685.00,0.0043
2684.00,0.0043
2683.00,0.0043
2682.00,0.0043
2681.00,0.0044
2680.00,0.0044
2679.00,0.0044
2678.00,0.0044
2677.00,0.0044
2676.00,0.0044
2675.00,0.0044
2674.00,0.0043
2673.00,0.0043
2672.00,0.0043
2671.00,0.0043
2670.00,0.0043
2669.00,0.0043
2668.00,0.0043
2667.00,0.0043
2666.00,0.0044
2665.00,0.0044
2664.00,0.0045
2663.00,0.0046
2662.00,0.0046
2661.00,0.0047
2660.00,0.0047
2659.00,0.0046
2658.00,0.0046
2657.00,0.0045
2656.00,0.0045
2655.00,0.0045
2654.00,0.0044
2653.00,0.0044
2652.00,0.0044
2651.00,0.0043
2650.00,0.0043
2649.00,0.0043
2648.00,0.0042
2647.00,0.0042
2646.00,0.0041
2645.00,0.0041
2644.00,0.0040
2643.00,0.0039
2642.00,0.0039
2641.00,0.0038
2640.00,0.0038
2639.00,0.0038
2638.00,0.0038
2637.00,0.0038
2636.00,0.0038
2635.00,0.0039
2634.00,0.0038
2633.00,0.0038
2632.00,0.0038
2631.00,0.0037
2630.00,0.0037
2629.00,0.0037
2628.00,0.0037
2627.00,0.0037
2626.00,0.0037
2625.00,0.0037
2624.00,0.0038
2623.00,0.0038
2622.00,0.0038
2621.00,0.0039
2620.00,0.0039
2619.00,0.0039
2618.00,0.0039
2617.00,0.0039
2616.00,0.0039
2615.00,0.0039
2614.00,0.0039
2613.00,0.0039
2612.00,0.0038
2611.00,0.0037
2610.00,0.0036
2609.00,0.0035
2608.00,0.0034
2607.00,0.0034
2606.00,0.0033
2605.00,0.0033
2604.00,0.0032
2603.00,0.0031
2602.00,0.0030
2601.00,0.0030
2600.00,0.0030
2599.00,0.0030
2598.00,0.0031
2597.00,0.0031
2596.00,0.0031
2595.00,0.0031
2594.00,0.0032
2593.00,0.0033
2592.00,0.0034
2591.00,0.0034
2590.00,0.0034
2589.00,0.0034
2588.00,0.0035
2587.00,0.0036
2586.00,0.0037
2585.00,0.0038
2584.00,0.0038
2583.00,0.0039
2582.00,0.0039
2581.00,0.0038
2580.00,0.0038
2579.00,0.0038
2578.00,0.0037
2577.00,0.0035
2576.00,0.0034
2575.00,0.0032
2574.00,0.0031
2573.00,0.0030
2572.00,0.0029
2571.00,0.0028
2570.00,0.0027
2569.00,0.0026
2568.00,0.0025
2567.00,0.0025
2566.00,0.0024
2565.00,0.0024
2564.00,0.0023
2563.00,0.0023
2562.00,0.0023
2561.00,0.0023
2560.00,0.0024
2559.00,0.0024
2558.00,0.0024
2557.00,0.0023
2556.00,0.0023
2555.00,0.0022
2554.00,0.0020
2553.00,0.0020
2552.00,0.0019
2551.00,0.0019
2550.00,0.0019
2549.00,0.0019
2548.00,0.0019
2547.00,0.0019
2546.00,0.0019
2545.00,0.0019
2544.00,0.0019
2543.00,0.0019
2542.00,0.0019
2541.00,0.0018
2540.00,0.0017
2539.00,0.0017
2538.00,0.0016
2537.00,0.0016
2536.00,0.0016
2535.00,0.0016
2534.00,0.0015
2533.00,0.0015
2532.00,0.0015
2531.00,0.0016
2530.00,0.0016
2529.00,0.0015
2528.00,0.0015
2527.00,0.0014
2526.00,0.0014
2525.00,0.0014
2524.00,0.0014
2523.00,0.0014
2522.00,0.0014
2521.00,0.0013
2520.00,0.0012
2519.00,0.0011
2518.00,0.0011
2517.00,0.0011
2516.00,0.0011
2515.00,0.0010
2514.00,0.0010
2513.00,0.0010
2512.00,0.0011
2511.00,0.0011
2510.00,0.0011
2509.00,0.0011
2508.00,0.0010
2507.00,0.0011
2506.00,0.0011
2505.00,0.0011
2504.00,0.0011
2503.00,0.0011
2502.00,0.0012
2501.00,0.0012
2500.00,0.0012
2499.00,0.0012
2498.00,0.0011
2497.00,0.0011
2496.00,0.0010
2495.00,0.0010
2494.00,0.0010
2493.00,0.0011
2492.00,0.0011
2491.00,0.0012
2490.00,0.0012
2489.00,0.0011
2488.00,0.0010
2487.00,0.0010
2486.00,0.0010
2485.00,0.0010
2484.00,0.0010
2483.00,0.0009
2482.00,0.0009
2481.00,0.0009
2480.00,0.0009
2479.00,0.0009
2478.00,0.0009
2477.00,0.0009
2476.00,0.0009
2475.00,0.0010
2474.00,0.0010
2473.00,0.0010
2472.00,0.0009
2471.00,0.0009
2470.00,0.0010
2469.00,0.0010
2468.00,0.0011
2467.00,0.0011
2466.00,0.0010
2465.00,0.0010
2464.00,0.0010
2463.00,0.0010
2462.00,0.0010
2461.00,0.0011
2460.00,0.0011
2459.00,0.0012
2458.00,0.0012
2457.00,0.0012
2456.00,0.0011
2455.00,0.0011
2454.00,0.0011
2453.00,0.0012
2452.00,0.0012
2451.00,0.0012
2450.00,0.0012
2449.00,0.0012
2448.00,0.0012
2447.00,0.0012
2446.00,0.0012
2445.00,0.0012
2444.00,0.0012
2443.00,0.0012
2442.00,0.0012
2441.00,0.0012
2440.00,0.0011
2439.00,0.0010
2438.00,0.0010
2437.00,0.0010
2436.00,0.0010
2435.00,0.0011
2434.00,0.0011
2433.00,0.0011
2432.00,0.0012
2431.00,0.0013
2430.00,0.0013
2429.00,0.0013
2428.00,0.0013
2427.00,0.0013
2426.00,0.0012
2425.00,0.0011
2424.00,0.0010
2423.00,0.0010
2422.00,0.0010
2421.00,0.0010
2420.00,0.0010
2419.00,0.0009
2418.00,0.0009
2417.00,0.0008
2416.00,0.0008
2415.00,0.0008
2414.00,0.0008
2413.00,0.0008
2412.00,0.0009
2411.00,0.0010
2410.00,0.0010
2409.00,0.0010
2408.00,0.0009
2407.00,0.0009
2406.00,0.0009
2405.00,0.0008
2404.00,0.0008
2403.00,0.0009
2402.00,0.0009
2401.00,0.0009
2400.00,0.0009
2399.00,0.0009
2398.00,0.0009
2397.00,0.0009
2396.00,0.0009
2395.00,0.0008
2394.00,0.0008
2393.00,0.0008
2392.00,0.0008
2391.00,0.0008
2390.00,0.0008
2389.00,0.0007
2388.00,0.0007
2387.00,0.0008
2386.00,0.0008
2385.00,0.0008
2384.00,0.0007
2383.00,0.0007
2382.00,0.0006
2381.00,0.0005
2380.00,0.0005
2379.00,0.0005
2378.00,0.0005
2377.00,0.0005
2376.00,0.0005
2375.00,0.0005
2374.00,0.0005
2373.00,0.0005
2372.00,0.0004
2371.00,0.0004
2370.00,0.0003
2369.00,0.0003
2368.00,0.0003
2367.00,0.0003
2366.00,0.0003
2365.00,0.0003
2364.00,0.0004
2363.00,0.0005
2362.00,0.0005
2361.00,0.0006
2360.00,0.0006
2359.00,0.0005
2358.00,0.0005
2357.00,0.0005
2356.00,0.0005
2355.00,0.0005
2354.00,0.0005
2353.00,0.0005
2352.00,0.0005
2351.00,0.0005
2350.00,0.0005
2349.00,0.0005
2348.00,0.0005
2347.00,0.0004
2346.00,0.0004
2345.00,0.0005
2344.00,0.0007
2343.00,0.0008
2342.00,0.0008
2341.00,0.0009
2340.00,0.0009
2339.00,0.0009
2338.00,0.0008
2337.00,0.0008
2336.00,0.0008
2335.00,0.0008
2334.00,0.0008
2333.00,0.0007
2332.00,0.0007
2331.00,0.0007
2330.00,0.0007
2329.00,0.0008
2328.00,0.0010
2327.00,0.0013
2326.00,0.0017
2325.00,0.0020
2324.00,0.0022
2323.00,0.0021
2322.00,0.0019
2321.00,0.0017
2320.00,0.0016
2319.00,0.0015
2318.00,0.0014
2317.00,0.0014
2316.00,0.0013
2315.00,0.0013
2314.00,0.0012
2313.00,0.0012
2312.00,0.0012
2311.00,0.0011
2310.00,0.0011
2309.00,0.0011
2308.00,0.0011
2307.00,0.0011
2306.00,0.0010
2305.00,0.0010
2304.00,0.0011
2303.00,0.0012
2302.00,0.0013
2301.00,0.0013
2300.00,0.0013
2299.00,0.0013
2298.00,0.0013
2297.00,0.0013
2296.00,0.0014
2295.00,0.0015
2294.00,0.0015
2293.00,0.0016
2292.00,0.0016
2291.00,0.0016
2290.00,0.0017
2289.00,0.0017
2288.00,0.0018
2287.00,0.0019
2286.00,0.0019
2285.00,0.0018
2284.00,0.0017
2283.00,0.0016
2282.00,0.0015
2281.00,0.0015
2280.00,0.0015
2279.00,0.0015
2278.00,0.0015
2277.00,0.0015
2276.00,0.0014
2275.00,0.0014
2274.00,0.0013
2273.00,0.0012
2272.00,0.0011
2271.00,0.0010
2270.00,0.0010
2269.00,0.0010
2268.00,0.0010
2267.00,0.0011
2266.00,0.0011
2265.00,0.0010
2264.00,0.0010
2263.00,0.0009
2262.00,0.0010
2261.00,0.0011
2260.00,0.0012
2259.00,0.0013
2258.00,0.0013
2257.00,0.0013
2256.00,0.0013
2255.00,0.0013
2254.00,0.0012
2253.00,0.0012
2252.00,0.0011
2251.00,0.0010
2250.00,0.0009
2249.00,0.0009
2248.00,0.0009
2247.00,0.0010
2246.00,0.0010
2245.00,0.0009
2244.00,0.0009
2243.00,0.0009
2242.00,0.0008
2241.00,0.0008
2240.00,0.0009
2239.00,0.0010
2238.00,0.0010
2237.00,0.0010
2236.00,0.0009
2235.00,0.0009
2234.00,0.0009
2233.00,0.0011
2232.00,0.0012
2231.00,0.0013
2230.00,0.0013
2229.00,0.0012
2228.00,0.0011
2227.00,0.0009
2226.00,0.0008
2225.00,0.0008
2224.00,0.0007
2223.00,0.0007
2222.00,0.0006
2221.00,0.0006
2220.00,0.0006
2219.00,0.0006
2218.00,0.0005
2217.00,0.0004
2216.00,0.0004
2215.00,0.0004
2214.00,0.0004
2213.00,0.0006
2212.00,0.0008
2211.00,0.0009
2210.00,0.0008
2209.00,0.0006
2208.00,0.0004
2207.00,0.0003
2206.00,0.0004
2205.00,0.0005
2204.00,0.0007
2203.00,0.0007
2202.00,0.0008
2201.00,0.0008
2200.00,0.0009
2199.00,0.0010
2198.00,0.0010
2197.00,0.0010
2196.00,0.0010
2195.00,0.0010
2194.00,0.0010
2193.00,0.0010
2192.00,0.0009
2191.00,0.0009
2190.00,0.0010
2189.00,0.0012
2188.00,0.0014
2187.00,0.0014
2186.00,0.0014
2185.00,0.0013
2184.00,0.0012
2183.00,0.0010
2182.00,0.0007
2181.00,0.0004
2180.00,0.0002
2179.00,0.0002
2178.00,0.0002
2177.00,0.0003
2176.00,0.0002
2175.00,0.0002
2174.00,0.0003
2173.00,0.0006
2172.00,0.0009
2171.00,0.0012
2170.00,0.0015
2169.00,0.0017
2168.00,0.0019
2167.00,0.0021
2166.00,0.0021
2165.00,0.0021
2164.00,0.0021
2163.00,0.0022
2162.00,0.0022
2161.00,0.0019
2160.00,0.0011
2159.00,-0.0001
2158.00,-0.0011
2157.00,-0.0016
2156.00,-0.0018
2155.00,-0.0017
2154.00,-0.0016
2153.00,-0.0014
2152.00,-0.0011
2151.00,-0.0008
2150.00,-0.0007
2149.00,-0.0006
2148.00,-0.0008
2147.00,-0.0010
2146.00,-0.0012
2145.00,-0.0012
2144.00,-0.0010
2143.00,-0.0008
2142.00,-0.0008
2141.00,-0.0009
2140.00,-0.0011
2139.00,-0.0013
2138.00,-0.0014
2137.00,-0.0014
2136.00,-0.0014
2135.00,-0.0016
2134.00,-0.0018
2133.00,-0.0019
2132.00,-0.0018
2131.00,-0.0015
2130.00,-0.0012
2129.00,-0.0008
2128.00,-0.0007
2127.00,-0.0005
2126.00,-0.0005
2125.00,-0.0004
2124.00,-0.0005
2123.00,-0.0006
2122.00,-0.0008
2121.00,-0.0008
2120.00,-0.0006
2119.00,-0.0005
2118.00,-0.0004
2117.00,-0.0003
2116.00,-0.0002
2115.00,-0.0001
2114.00,0.0000
2113.00,0.0002
2112.00,0.0003
2111.00,0.0005
2110.00,0.0006
2109.00,0.0006
2108.00,0.0006
2107.00,0.0005
2106.00,0.0004
2105.00,0.0004
2104.00,0.0004
2103.00,0.0004
2102.00,0.0004
2101.00,0.0005
2100.00,0.0005
2099.00,0.0005
2098.00,0.0004
2097.00,0.0002
2096.00,-0.0000
2095.00,-0.0001
2094.00,-0.0002
2093.00,-0.0001
2092.00,0.0000
2091.00,0.0002
2090.00,0.0002
2089.00,0.0003
2088.00,0.0003
2087.00,0.0002
2086.00,0.0001
2085.00,0.0001
2084.00,0.0001
2083.00,0.0001
2082.00,0.0002
2081.00,0.0003
2080.00,0.0003
2079.00,0.0003
2078.00,0.0003
2077.00,0.0003
2076.00,0.0004
2075.00,0.0004
2074.00,0.0003
2073.00,0.0002
2072.00,0.0002
2071.00,0.0002
2070.00,0.0002
2069.00,0.0003
2068.00,0.0004
2067.00,0.0004
2066.00,0.0003
2065.00,0.0002
2064.00,0.0000
2063.00,-0.0000
2062.00,0.0000
2061.00,0.0002
2060.00,0.0003
2059.00,0.0004
2058.00,0.0005
2057.00,0.0004
2056.00,0.0004
2055.00,0.0003
2054.00,0.0004
2053.00,0.0008
2052.00,0.0013
2051.00,0.0016
2050.00,0.0016
2049.00,0.0012
2048.00,0.0008
2047.00,0.0003
2046.00,-0.0000
2045.00,-0.0002
2044.00,-0.0002
2043.00,-0.0001
2042.00,0.0000
2041.00,0.0001
2040.00,0.0000
2039.00,-0.0002
2038.00,-0.0004
2037.00,-0.0006
2036.00,-0.0007
2035.00,-0.0007
2034.00,-0.0007
2033.00,-0.0006
2032.00,-0.0005
2031.00,-0.0004
2030.00,-0.0005
2029.00,-0.0005
2028.00,-0.0007
2027.00,-0.0010
2026.00,-0.0014
2025.00,-0.0016
2024.00,-0.0016
2023.00,-0.0015
2022.00,-0.0014
2021.00,-0.0014
2020.00,-0.0015
2019.00,-0.0017
2018.00,-0.0018
2017.00,-0.0015
2016.00,-0.0010
2015.00,-0.0005
2014.00,-0.0003
2013.00,-0.0002
2012.00,-0.0004
2011.00,-0.0006
2010.00,-0.0009
2009.00,-0.0012
2008.00,-0.0016
2007.00,-0.0019
2006.00,-0.0022
2005.00,-0.0022
2004.00,-0.0020
2003.00,-0.0019
2002.00,-0.0017
2001.00,-0.0016
2000.00,-0.0013
1999.00,-0.0011
1998.00,-0.0010
1997.00,-0.0009
1996.00,-0.0010
1995.00,-0.0010
1994.00,-0.0010
1993.00,-0.0009
1992.00,-0.0008
1991.00,-0.0007
1990.00,-0.0005
1989.00,-0.0005
1988.00,-0.0006
1987.00,-0.0007
1986.00,-0.0007
1985.00,-0.0005
1984.00,-0.0001
1983.00,0.0002
1982.00,0.0006
1981.00,0.0009
1980.00,0.0007
1979.00,0.0000
1978.00,-0.0009
1977.00,-0.0015
1976.00,-0.0016
1975.00,-0.0014
1974.00,-0.0012
1973.00,-0.0010
1972.00,-0.0009
1971.00,-0.0009
1970.00,-0.0010
1969.00,-0.0011
1968.00,-0.0012
1967.00,-0.0012
1966.00,-0.0011
1965.00,-0.0009
1964.00,-0.0008
1963.00,-0.0008
1962.00,-0.0007
1961.00,-0.0007
1960.00,-0.0008
1959.00,-0.0010
1958.00,-0.0013
1957.00,-0.0015
1956.00,-0.0016
1955.00,-0.0016
1954.00,-0.0015
1953.00,-0.0014
1952.00,-0.0012
1951.00,-0.0012
1950.00,-0.0014
1949.00,-0.0016
1948.00,-0.0018
1947.00,-0.0018
1946.00,-0.0019
1945.00,-0.0018
1944.00,-0.0017
1943.00,-0.0016
1942.00,-0.0014
1941.00,-0.0012
1940.00,-0.0010
1939.00,-0.0007
1938.00,-0.0004
1937.00,-0.0003
1936.00,-0.0003
1935.00,-0.0005
1934.00,-0.0006
1933.00,-0.0007
1932.00,-0.0007
1931.00,-0.0007
1930.00,-0.0007
1929.00,-0.0007
1928.00,-0.0008
1927.00,-0.0008
1926.00,-0.0008
1925.00,-0.0007
1924.00,-0.0005
1923.00,-0.0004
1922.00,-0.0003
1921.00,-0.0003
1920.00,-0.0003
1919.00,-0.0003
1918.00,-0.0003
1917.00,-0.0002
1916.00,-0.0002
1915.00,-0.0002
1914.00,-0.0002
1913.00,-0.0002
1912.00,-0.0002
1911.00,-0.0003
1910.00,-0.0004
1909.00,-0.0005
1908.00,-0.0005
1907.00,-0.0005
1906.00,-0.0004
1905.00,-0.0003
1904.00,-0.0001
1903.00,0.0000
1902.00,0.0001
1901.00,-0.0000
1900.00,-0.0001
1899.00,-0.0002
1898.00,-0.0002
1897.00,-0.0002
1896.00,-0.0001
1895.00,-0.0001
1894.00,-0.0001
1893.00,-0.0001
1892.00,-0.0001
1891.00,-0.0001
1890.00,-0.0000
1889.00,-0.0000
1888.00,-0.0000
1887.00,-0.0001
1886.00,-0.0001
1885.00,-0.0002
1884.00,-0.0002
1883.00,-0.0002
1882.00,-0.0002
1881.00,-0.0002
1880.00,-0.0002
1879.00,-0.0001
1878.00,-0.0001
1877.00,-0.0000
1876.00,0.0000
1875.00,0.0000
1874.00,0.0000
1873.00,-0.0000
1872.00,-0.0001
1871.00,-0.0001
1870.00,-0.0001
1869.00,0.0000
1868.00,0.0001
1867.00,0.0002
1866.00,0.0002
1865.00,0.0002
1864.00,0.0002
1863.00,0.0001
1862.00,-0.0000
1861.00,-0.0001
1860.00,-0.0001
1859.00,-0.0000
1858.00,0.0000
1857.00,0.0001
1856.00,0.0002
1855.00,0.0002
1854.00,0.0002
1853.00,0.0001
1852.00,0.0001
1851.00,0.0001
1850.00,0.0001
1849.00,0.0001
1848.00,0.0001
1847.00,0.0001
1846.00,0.0001
1845.00,0.0000
1844.00,0.0001
1843.00,0.0001
1842.00,0.0001
1841.00,0.0001
1840.00,0.0001
1839.00,0.0001
1838.00,0.0001
1837.00,0.0001
1836.00,0.0002
1835.00,0.0002
1834.00,0.0002
1833.00,0.0002
1832.00,0.0002
1831.00,0.0003
1830.00,0.0003
1829.00,0.0004
1828.00,0.0005
1827.00,0.0005
1826.00,0.0005
1825.00,0.0004
1824.00,0.0004
1823.00,0.0004
1822.00,0.0003
1821.00,0.0003
1820.00,0.0002
1819.00,0.0002
1818.00,0.0001
1817.00,0.0001
1816.00,0.0001
1815.00,0.0002
1814.00,0.0002
1813.00,0.0002
1812.00,0.0003
1811.00,0.0003
1810.00,0.0004
1809.00,0.0004
1808.00,0.0004
1807.00,0.0004
1806.00,0.0004
1805.00,0.0004
1804.00,0.0004
1803.00,0.0004
1802.00,0.0005
1801.00,0.0005
1800.00,0.0005
1799.00,0.0005
1798.00,0.0005
1797.00,0.0005
1796.00,0.0005
1795.00,0.0005
1794.00,0.0005
1793.00,0.0004
1792.00,0.0005
1791.00,0.0005
1790.00,0.0006
1789.00,0.0006
1788.00,0.0006
1787.00,0.0006
1786.00,0.0006
1785.00,0.0007
1784.00,0.0007
1783.00,0.0007
1782.00,0.0007
1781.00,0.0007
1780.00,0.0007
1779.00,0.0007
1778.00,0.0006
1777.00,0.0006
1776.00,0.0006
1775.00,0.0006
1774.00,0.0006
1773.00,0.0007
1772.00,0.0008
1771.00,0.0008
1770.00,0.0009
1769.00,0.0009
1768.00,0.0009
1767.00,0.0008
1766.00,0.0008
1765.00,0.0009
1764.00,0.0009
1763.00,0.0009
1762.00,0.0009
1761.00,0.0009
1760.00,0.0010
1759.00,0.0010
1758.00,0.0011
1757.00,0.0011
1756.00,0.0011
1755.00,0.0011
1754.00,0.0011
1753.00,0.0012
1752.00,0.0013
1751.00,0.0013
1750.00,0.0013
1749.00,0.0013
1748.00,0.0012
1747.00,0.0012
1746.00,0.0013
1745.00,0.0014
1744.00,0.0014
1743.00,0.0014
1742.00,0.0014
1741.00,0.0014
1740.00,0.0015
1739.00,0.0015
1738.00,0.0016
1737.00,0.0016
1736.00,0.0016
1735.00,0.0016
1734.00,0.0016
1733.00,0.0016
1732.00,0.0016
1731.00,0.0016
1730.00,0.0016
1729.00,0.0017
1728.00,0.0018
1727.00,0.0018
1726.00,0.0019
1725.00,0.0019
1724.00,0.0020
1723.00,0.0020
1722.00,0.0020
1721.00,0.0021
1720.00,0.0021
1719.00,0.0021
1718.00,0.0020
1717.00,0.0020
1716.00,0.0020
1715.00,0.0020
1714.00,0.0021
1713.00,0.0021
1712.00,0.0020
1711.00,0.0020
1710.00,0.0020
1709.00,0.0020
1708.00,0.0020
1707.00,0.0021
1706.00,0.0021
1705.00,0.0021
1704.00,0.0021
1703.00,0.0022
1702.00,0.0022
1701.00,0.0022
1700.00,0.0022
1699.00,0.0022
1698.00,0.0023
1697.00,0.0024
1696.00,0.0025
1695.00,0.0026
1694.00,0.0027
1693.00,0.0027
1692.00,0.0027
1691.00,0.0028
1690.00,0.0029
1689.00,0.0030
1688.00,0.0031
1687.00,0.0031
1686.00,0.0031
1685.00,0.0032
1684.00,0.0033
1683.00,0.0035
1682.00,0.0036
1681.00,0.0037
1680.00,0.0037
1679.00,0.0038
1678.00,0.0038
1677.00,0.0039
1676.00,0.0040
1675.00,0.0041
1674.00,0.0041
1673.00,0.0042
1672.00,0.0043
1671.00,0.0044
1670.00,0.0044
1669.00,0.0045
1668.00,0.0045
1667.00,0.0045
1666.00,0.0046
1665.00,0.0046
1664.00,0.0046
1663.00,0.0046
1662.00,0.0047
1661.00,0.0047
1660.00,0.0048
1659.00,0.0048
1658.00,0.0049
1657.00,0.0049
1656.00,0.0049
1655.00,0.0050
1654.00,0.0050
1653.00,0.0052
1652.00,0.0053
1651.00,0.0053
1650.00,0.0053
1649.00,0.0054
1648.00,0.0056
1647.00,0.0058
1646.00,0.0060
1645.00,0.0061
1644.00,0.0061
1643.00,0.0061
1642.00,0.0060
1641.00,0.0061
1640.00,0.0061
1639.00,0.0062
1638.00,0.0062
1637.00,0.0063
1636.00,0.0064
1635.00,0.0063
1634.00,0.0062
1633.00,0.0062
1632.00,0.0061
1631.00,0.0061
1630.00,0.0060
1629.00,0.0060
1628.00,0.0059
1627.00,0.0059
1626.00,0.0058
1625.00,0.0057
1624.00,0.0057
1623.00,0.0057
1622.00,0.0057
1621.00,0.0057
1620.00,0.0057
1619.00,0.0056
1618.00,0.0056
1617.00,0.0055
1616.00,0.0055
1615.00,0.0055
1614.00,0.0055
1613.00,0.0055
1612.00,0.0055
1611.00,0.0055
1610.00,0.0055
1609.00,0.0055
1608.00,0.0055
1607.00,0.0055
1606.00,0.0054
1605.00,0.0054
1604.00,0.0054
1603.00,0.0054
1602.00,0.0054
1601.00,0.0054
1600.00,0.0054
1599.00,0.0054
1598.00,0.0053
1597.00,0.0053
1596.00,0.0053
1595.00,0.0053
1594.00,0.0052
1593.00,0.0052
1592.00,0.0052
1591.00,0.0053
1590.00,0.0053
1589.00,0.0053
1588.00,0.0053
1587.00,0.0053
1586.00,0.0053
1585.00,0.0054
1584.00,0.0054
1583.00,0.0054
1582.00,0.0055
1581.00,0.0055
1580.00,0.0055
1579.00,0.0056
1578.00,0.0056
1577.00,0.0056
1576.00,0.0056
1575.00,0.0056
1574.00,0.0056
1573.00,0.0056
1572.00,0.0057
1571.00,0.0057
1570.00,0.0058
1569.00,0.0059
1568.00,0.0059
1567.00,0.0060
1566.00,0.0059
1565.00,0.0059
1564.00,0.0059
1563.00,0.0059
1562.00,0.0060
1561.00,0.0060
1560.00,0.0061
1559.00,0.0061
1558.00,0.0061
1557.00,0.0062
1556.00,0.0063
1555.00,0.0063
1554.00,0.0064
1553.00,0.0065
1552.00,0.0066
1551.00,0.0067
1550.00,0.0068
1549.00,0.0068
1548.00,0.0069
1547.00,0.0069
1546.00,0.0070
1545.00,0.0070
1544.00,0.0071
1543.00,0.0070
1542.00,0.0069
1541.00,0.0068
1540.00,0.0066
1539.00,0.0065
1538.00,0.0063
1537.00,0.0062
1536.00,0.0061
1535.00,0.0059
1534.00,0.0057
1533.00,0.0056
1532.00,0.0055
1531.00,0.0054
1530.00,0.0053
1529.00,0.0053
1528.00,0.0054
1527.00,0.0054
1526.00,0.0054
1525.00,0.0054
1524.00,0.0054
1523.00,0.0053
1522.00,0.0053
1521.00,0.0054
1520.00,0.0054
1519.00,0.0055
1518.00,0.0054
1517.00,0.0055
1516.00,0.0055
1515.00,0.0056
1514.00,0.0056
1513.00,0.0057
1512.00,0.0058
1511.00,0.0058
1510.00,0.0058
1509.00,0.0059
1508.00,0.0060
1507.00,0.0062
1506.00,0.0063
1505.00,0.0065
1504.00,0.0068
1503.00,0.0069
1502.00,0.0071
1501.00,0.0073
1500.00,0.0075
1499.00,0.0077
1498.00,0.0079
1497.00,0.0082
1496.00,0.0086
1495.00,0.0088
1494.00,0.0091
1493.00,0.0094
1492.00,0.0098
1491.00,0.0102
1490.00,0.0106
1489.00,0.0111
1488.00,0.0116
1487.00,0.0120
1486.00,0.0125
1485.00,0.0132
1484.00,0.0138
1483.00,0.0145
1482.00,0.0153
1481.00,0.0163
1480.00,0.0175
1479.00,0.0187
1478.00,0.0202
1477.00,0.0223
1476.00,0.0250
1475.00,0.0281
1474.00,0.0322
1473.00,0.0380
1472.00,0.0447
1471.00,0.0512
1470.00,0.0576
1469.00,0.0642
1468.00,0.0715
1467.00,0.0794
1466.00,0.0883
1465.00,0.0979
1464.00,0.1063
1463.00,0.1121
1462.00,0.1156
1461.00,0.1179
1460.00,0.1192
1459.00,0.1200
1458.00,0.1204
1457.00,0.1205
1456.00,0.1199
1455.00,0.1187
1454.00,0.1171
1453.00,0.1149
1452.00,0.1119
1451.00,0.1078
1450.00,0.1025
1449.00,0.0953
1448.00,0.0865
1447.00,0.0772
1446.00,0.0689
1445.00,0.0619
1444.00,0.0560
1443.00,0.0511
1442.00,0.0475
1441.00,0.0450
1440.00,0.0435
1439.00,0.0430
1438.00,0.0433
1437.00,0.0436
1436.00,0.0428
1435.00,0.0405
1434.00,0.0369
1433.00,0.0326
1432.00,0.0282
1431.00,0.0242
1430.00,0.0211
1429.00,0.0188
1428.00,0.0172
1427.00,0.0162
1426.00,0.0155
1425.00,0.0149
1424.00,0.0143
1423.00,0.0139
1422.00,0.0137
1421.00,0.0134
1420.00,0.0131
1419.00,0.0129
1418.00,0.0127
1417.00,0.0125
1416.00,0.0122
1415.00,0.0121
1414.00,0.0119
1413.00,0.0117
1412.00,0.0115
1411.00,0.0114
1410.00,0.0114
1409.00,0.0113
1408.00,0.0112
1407.00,0.0112
1406.00,0.0113
1405.00,0.0112
1404.00,0.0112
1403.00,0.0112
1402.00,0.0112
1401.00,0.0113
1400.00,0.0113
1399.00,0.0114
1398.00,0.0117
1397.00,0.0119
1396.00,0.0121
1395.00,0.0124
1394.00,0.0128
1393.00,0.0133
1392.00,0.0137
1391.00,0.0144
1390.00,0.0154
1389.00,0.0168
1388.00,0.0188
1387.00,0.0219
1386.00,0.0261
1385.00,0.0316
1384.00,0.0394
1383.00,0.0504
1382.00,0.0655
1381.00,0.0853
1380.00,0.1099
1379.00,0.1381
1378.00,0.1656
1377.00,0.1857
1376.00,0.1923
1375.00,0.1823
1374.00,0.1588
1373.00,0.1304
1372.00,0.1046
1371.00,0.0834
1370.00,0.0668
1369.00,0.0543
1368.00,0.0457
1367.00,0.0404
1366.00,0.0375
1365.00,0.0363
1364.00,0.0366
1363.00,0.0379
1362.00,0.0400
1361.00,0.0423
1360.00,0.0440
1359.00,0.0446
1358.00,0.0436
1357.00,0.0411
1356.00,0.0375
1355.00,0.0335
1354.00,0.0296
1353.00,0.0263
1352.00,0.0236
1351.00,0.0214
1350.00,0.0196
1349.00,0.0182
1348.00,0.0169
1347.00,0.0159
1346.00,0.0150
1345.00,0.0143
1344.00,0.0137
1343.00,0.0132
1342.00,0.0128
1341.00,0.0124
1340.00,0.0121
1339.00,0.0119
1338.00,0.0117
1337.00,0.0117
1336.00,0.0118
1335.00,0.0119
1334.00,0.0122
1333.00,0.0126
1332.00,0.0130
1331.00,0.0134
1330.00,0.0135
1329.00,0.0134
1328.00,0.0130
1327.00,0.0126
1326.00,0.0120
1325.00,0.0114
1324.00,0.0108
1323.00,0.0103
1322.00,0.0100
1321.00,0.0097
1320.00,0.0095
1319.00,0.0093
1318.00,0.0091
1317.00,0.0089
1316.00,0.0088
1315.00,0.0088
1314.00,0.0087
1313.00,0.0087
1312.00,0.0087
1311.00,0.0089
1310.00,0.0092
1309.00,0.0097
1308.00,0.0105
1307.00,0.0114
1306.00,0.0123
1305.00,0.0130
1304.00,0.0132
1303.00,0.0130
1302.00,0.0126
1301.00,0.0124
1300.00,0.0123
1299.00,0.0124
1298.00,0.0126
1297.00,0.0128
1296.00,0.0127
1295.00,0.0124
1294.00,0.0120
1293.00,0.0115
1292.00,0.0109
1291.00,0.0104
1290.00,0.0099
1289.00,0.0095
1288.00,0.0093
1287.00,0.0090
1286.00,0.0088
1285.00,0.0086
1284.00,0.0085
1283.00,0.0083
1282.00,0.0082
1281.00,0.0081
1280.00,0.0080
1279.00,0.0079
1278.00,0.0078
1277.00,0.0077
1276.00,0.0077
1275.00,0.0077
1274.00,0.0077
1273.00,0.0077
1272.00,0.0077
1271.00,0.0078
1270.00,0.0079
1269.00,0.0081
1268.00,0.0083
1267.00,0.0086
1266.00,0.0088
1265.00,0.0091
1264.00,0.0094
1263.00,0.0098
1262.00,0.0101
1261.00,0.0105
1260.00,0.0109
1259.00,0.0114
1258.00,0.0119
1257.00,0.0123
1256.00,0.0124
1255.00,0.0121
1254.00,0.0115
1253.00,0.0108
1252.00,0.0100
1251.00,0.0094
1250.00,0.0090
1249.00,0.0086
1248.00,0.0083
1247.00,0.0081
1246.00,0.0079
1245.00,0.0077
1244.00,0.0076
1243.00,0.0075
1242.00,0.0074
1241.00,0.0073
1240.00,0.0073
1239.00,0.0072
1238.00,0.0071
1237.00,0.0071
1236.00,0.0071
1235.00,0.0071
1234.00,0.0072
1233.00,0.0072
1232.00,0.0072
1231.00,0.0073
1230.00,0.0074
1229.00,0.0075
1228.00,0.0076
1227.00,0.0077
1226.00,0.0080
1225.00,0.0083
1224.00,0.0086
1223.00,0.0090
1222.00,0.0094
1221.00,0.0097
1220.00,0.0099
1219.00,0.0099
1218.00,0.0099
1217.00,0.0097
1216.00,0.0095
1215.00,0.0091
1214.00,0.0088
1213.00,0.0085
1212.00,0.0083
1211.00,0.0081
1210.00,0.0079
1209.00,0.0078
1208.00,0.0076
1207.00,0.0075
1206.00,0.0074
1205.00,0.0073
1204.00,0.0073
1203.00,0.0072
1202.00,0.0071
1201.00,0.0071
1200.00,0.0070
1199.00,0.0070
1198.00,0.0070
1197.00,0.0071
1196.00,0.0071
1195.00,0.0072
1194.00,0.0072
1193.00,0.0072
1192.00,0.0072
1191.00,0.0071
1190.00,0.0071
1189.00,0.0071
1188.00,0.0070
1187.00,0.0070
1186.00,0.0070
1185.00,0.0071
1184.00,0.0072
1183.00,0.0073
1182.00,0.0075
1181.00,0.0078
1180.00,0.0081
1179.00,0.0085
1178.00,0.0090
1177.00,0.0096
1176.00,0.0106
1175.00,0.0118
1174.00,0.0134
1173.00,0.0154
1172.00,0.0179
1171.00,0.0206
1170.00,0.0231
1169.00,0.0253
1168.00,0.0266
1167.00,0.0269
1166.00,0.0265
1165.00,0.0254
1164.00,0.0241
1163.00,0.0228
1162.00,0.0216
1161.00,0.0207
1160.00,0.0200
1159.00,0.0195
1158.00,0.0192
1157.00,0.0189
1156.00,0.0188
1155.00,0.0188
1154.00,0.0188
1153.00,0.0186
1152.00,0.0183
1151.00,0.0177
1150.00,0.0170
1149.00,0.0161
1148.00,0.0153
1147.00,0.0144
1146.00,0.0136
1145.00,0.0128
1144.00,0.0122
1143.00,0.0117
1142.00,0.0112
1141.00,0.0107
1140.00,0.0103
1139.00,0.0098
1138.00,0.0094
1137.00,0.0090
1136.00,0.0088
1135.00,0.0086
1134.00,0.0085
1133.00,0.0084
1132.00,0.0083
1131.00,0.0082
1130.00,0.0081
1129.00,0.0082
1128.00,0.0082
1127.00,0.0084
1126.00,0.0086
1125.00,0.0087
1124.00,0.0089
1123.00,0.0089
1122.00,0.0089
1121.00,0.0089
1120.00,0.0090
1119.00,0.0090
1118.00,0.0092
1117.00,0.0093
1116.00,0.0094
1115.00,0.0096
1114.00,0.0097
1113.00,0.0099
1112.00,0.0102
1111.00,0.0104
1110.00,0.0108
1109.00,0.0112
1108.00,0.0117
1107.00,0.0124
1106.00,0.0131
1105.00,0.0138
1104.00,0.0143
1103.00,0.0145
1102.00,0.0144
1101.00,0.0140
1100.00,0.0134
1099.00,0.0128
1098.00,0.0122
1097.00,0.0116
1096.00,0.0112
1095.00,0.0108
1094.00,0.0106
1093.00,0.0103
1092.00,0.0101
1091.00,0.0099
1090.00,0.0097
1089.00,0.0095
1088.00,0.0093
1087.00,0.0092
1086.00,0.0091
1085.00,0.0090
1084.00,0.0089
1083.00,0.0088
1082.00,0.0088
1081.00,0.0088
1080.00,0.0087
1079.00,0.0087
1078.00,0.0086
1077.00,0.0086
1076.00,0.0085
1075.00,0.0084
1074.00,0.0083
1073.00,0.0082
1072.00,0.0081
1071.00,0.0080
1070.00,0.0079
1069.00,0.0078
1068.00,0.0077
1067.00,0.0077
1066.00,0.0076
1065.00,0.0076
1064.00,0.0076
1063.00,0.0077
1062.00,0.0078
1061.00,0.0079
1060.00,0.0080
1059.00,0.0080
1058.00,0.0081
1057.00,0.0081
1056.00,0.0082
1055.00,0.0083
1054.00,0.0084
1053.00,0.0084
1052.00,0.0086
1051.00,0.0088
1050.00,0.0089
1049.00,0.0091
1048.00,0.0094
1047.00,0.0096
1046.00,0.0098
1045.00,0.0100
1044.00,0.0100
1043.00,0.0099
1042.00,0.0097
1041.00,0.0095
1040.00,0.0094
1039.00,0.0093
1038.00,0.0094
1037.00,0.0094
1036.00,0.0095
1035.00,0.0094
1034.00,0.0094
1033.00,0.0092
1032.00,0.0091
1031.00,0.0089
1030.00,0.0088
1029.00,0.0086
1028.00,0.0085
1027.00,0.0085
1026.00,0.0085
1025.00,0.0086
1024.00,0.0086
1023.00,0.0086
1022.00,0.0087
1021.00,0.0087
1020.00,0.0088
1019.00,0.0088
1018.00,0.0089
1017.00,0.0089
1016.00,0.0089
1015.00,0.0089
1014.00,0.0091
1013.00,0.0093
1012.00,0.0095
1011.00,0.0097
1010.00,0.0100
1009.00,0.0102
1008.00,0.0106
1007.00,0.0111
1006.00,0.0118
1005.00,0.0129
1004.00,0.0143
1003.00,0.0162
1002.00,0.0187
1001.00,0.0217
1000.00,0.0249
999.00,0.0275
998.00,0.0287
997.00,0.0280
996.00,0.0258
995.00,0.0226
994.00,0.0194
993.00,0.0165
992.00,0.0143
991.00,0.0126
990.00,0.0114
989.00,0.0107
988.00,0.0102
987.00,0.0101
986.00,0.0101
985.00,0.0103
984.00,0.0107
983.00,0.0113
982.00,0.0123
981.00,0.0137
980.00,0.0155
979.00,0.0180
978.00,0.0212
977.00,0.0250
976.00,0.0289
975.00,0.0325
974.00,0.0349
973.00,0.0356
972.00,0.0341
971.00,0.0309
970.00,0.0266
969.00,0.0223
968.00,0.0187
967.00,0.0160
966.00,0.0140
965.00,0.0126
964.00,0.0115
963.00,0.0107
962.00,0.0101
961.00,0.0096
960.00,0.0091
959.00,0.0088
958.00,0.0085
957.00,0.0082
956.00,0.0080
955.00,0.0079
954.00,0.0077
953.00,0.0076
952.00,0.0075
951.00,0.0074
950.00,0.0073
949.00,0.0072
948.00,0.0071
947.00,0.0071
946.00,0.0073
945.00,0.0076
944.00,0.0080
943.00,0.0086
942.00,0.0090
941.00,0.0093
940.00,0.0092
939.00,0.0090
938.00,0.0086
937.00,0.0081
936.00,0.0076
935.00,0.0071
934.00,0.0068
933.00,0.0066
932.00,0.0064
931.00,0.0063
930.00,0.0062
929.00,0.0061
928.00,0.0061
927.00,0.0061
926.00,0.0061
925.00,0.0060
924.00,0.0059
923.00,0.0059
922.00,0.0059
921.00,0.0059
920.00,0.0060
919.00,0.0061
918.00,0.0061
917.00,0.0062
916.00,0.0062
915.00,0.0063
914.00,0.0064
913.00,0.0066
912.00,0.0069
911.00,0.0070
910.00,0.0072
909.00,0.0074
908.00,0.0078
907.00,0.0083
906.00,0.0090
905.00,0.0100
904.00,0.0113
903.00,0.0131
902.00,0.0151
901.00,0.0169
900.00,0.0181
899.00,0.0184
898.00,0.0176
897.00,0.0161
896.00,0.0142
895.00,0.0123
894.00,0.0108
893.00,0.0096
892.00,0.0088
891.00,0.0083
890.00,0.0079
889.00,0.0077
888.00,0.0075
887.00,0.0073
886.00,0.0072
885.00,0.0072
884.00,0.0072
883.00,0.0073
882.00,0.0074
881.00,0.0075
880.00,0.0076
879.00,0.0077
878.00,0.0078
877.00,0.0079
876.00,0.0080
875.00,0.0081
874.00,0.0082
873.00,0.0081
872.00,0.0080
871.00,0.0078
870.00,0.0076
869.00,0.0076
868.00,0.0076
867.00,0.0077
866.00,0.0078
865.00,0.0078
864.00,0.0078
863.00,0.0079
862.00,0.0081
861.00,0.0083
860.00,0.0084
859.00,0.0085
858.00,0.0086
857.00,0.0087
856.00,0.0087
855.00,0.0088
854.00,0.0089
853.00,0.0091
852.00,0.0094
851.00,0.0097
850.00,0.0101
849.00,0.0106
848.00,0.0113
847.00,0.0123
846.00,0.0140
845.00,0.0167
844.00,0.0205
843.00,0.0247
842.00,0.0281
841.00,0.0289
840.00,0.0269
839.00,0.0231
838.00,0.0190
837.00,0.0158
836.00,0.0137
835.00,0.0124
834.00,0.0115
833.00,0.0109
832.00,0.0106
831.00,0.0103
830.00,0.0100
829.00,0.0099
828.00,0.0098
827.00,0.0098
826.00,0.0098
825.00,0.0099
824.00,0.0099
823.00,0.0100
822.00,0.0101
821.00,0.0102
820.00,0.0104
819.00,0.0108
818.00,0.0112
817.00,0.0118
816.00,0.0126
815.00,0.0138
814.00,0.0154
813.00,0.0174
812.00,0.0195
811.00,0.0215
810.00,0.0229
809.00,0.0236
808.00,0.0233
807.00,0.0221
806.00,0.0202
805.00,0.0182
804.00,0.0164
803.00,0.0150
802.00,0.0140
801.00,0.0132
800.00,0.0125
799.00,0.0119
798.00,0.0115
797.00,0.0113
796.00,0.0111
795.00,0.0108
794.00,0.0104
793.00,0.0100
792.00,0.0094
791.00,0.0089
790.00,0.0084
789.00,0.0080
788.00,0.0077
787.00,0.0076
786.00,0.0075
785.00,0.0074
784.00,0.0073
783.00,0.0072
782.00,0.0070
781.00,0.0069
780.00,0.0067
779.00,0.0066
778.00,0.0066
777.00,0.0066
776.00,0.0066
775.00,0.0065
774.00,0.0064
773.00,0.0065
772.00,0.0067
771.00,0.0068
770.00,0.0068
769.00,0.0067
768.00,0.0067
767.00,0.0067
766.00,0.0068
765.00,0.0069
764.00,0.0068
763.00,0.0067
762.00,0.0066
761.00,0.0066
760.00,0.0066
759.00,0.0067
758.00,0.0067
757.00,0.0066
756.00,0.0066
755.00,0.0067
754.00,0.0069
753.00,0.0072
752.00,0.0075
751.00,0.0077
750.00,0.0079
749.00,0.0080
748.00,0.0080
747.00,0.0080
746.00,0.0080
745.00,0.0082
744.00,0.0085
743.00,0.0089
742.00,0.0093
741.00,0.0097
740.00,0.0101
739.00,0.0104
738.00,0.0107
737.00,0.0109
736.00,0.0113
735.00,0.0118
734.00,0.0124
733.00,0.0132
732.00,0.0139
731.00,0.0147
730.00,0.0153
729.00,0.0157
728.00,0.0157
727.00,0.0156
726.00,0.0158
725.00,0.0162
724.00,0.0169
723.00,0.0176
722.00,0.0182
721.00,0.0186
720.00,0.0184
719.00,0.0175
718.00,0.0162
717.00,0.0150
716.00,0.0140
715.00,0.0132
714.00,0.0126
713.00,0.0122
712.00,0.0117
711.00,0.0114
710.00,0.0111
709.00,0.0109
708.00,0.0108
707.00,0.0106
706.00,0.0104
705.00,0.0102
704.00,0.0100
703.00,0.0098
702.00,0.0097
701.00,0.0096
700.00,0.0094
699.00,0.0093
698.00,0.0092
697.00,0.0091
696.00,0.0090
695.00,0.0090
694.00,0.0091
693.00,0.0092
692.00,0.0094
691.00,0.0095
690.00,0.0095
689.00,0.0093
688.00,0.0091
687.00,0.0091
686.00,0.0093
685.00,0.0096
684.00,0.0098
683.00,0.0096
682.00,0.0093
681.00,0.0090
680.00,0.0088
679.00,0.0089
678.00,0.0090
677.00,0.0090
676.00,0.0090
675.00,0.0089
674.00,0.0088
673.00,0.0087
672.00,0.0087
671.00,0.0088
670.00,0.0089
669.00,0.0092
668.00,0.0096
667.00,0.0099
666.00,0.0098
665.00,0.0095
664.00,0.0093
663.00,0.0092
662.00,0.0090
661.00,0.0088
660.00,0.0087
659.00,0.0086
658.00,0.0086
657.00,0.0087
656.00,0.0090
655.00,0.0092
654.00,0.0092
653.00,0.0090
652.00,0.0087
651.00,0.0084
650.00,0.0083
649.00,0.0083
648.00,0.0085
647.00,0.0087
646.00,0.0089
645.00,0.0089
644.00,0.0088
643.00,0.0087
642.00,0.0086
641.00,0.0087
640.00,0.0088
639.00,0.0090
638.00,0.0090
637.00,0.0089
636.00,0.0088
635.00,0.0088
634.00,0.0088
633.00,0.0088
632.00,0.0088
631.00,0.0089
630.00,0.0089
629.00,0.0088
628.00,0.0086
627.00,0.0085
626.00,0.0086
625.00,0.0087
624.00,0.0089
623.00,0.0090
622.00,0.0089
621.00,0.0088
620.00,0.0087
619.00,0.0087
618.00,0.0088
617.00,0.0087
616.00,0.0086
615.00,0.0087
614.00,0.0087
613.00,0.0087
612.00,0.0085
611.00,0.0084
610.00,0.0084
609.00,0.0085
608.00,0.0085
607.00,0.0084
606.00,0.0083
605.00,0.0083
604.00,0.0084
603.00,0.0085
602.00,0.0086
601.00,0.0085
600.00,0.0085
599.00,0.0084
598.00,0.0085
597.00,0.0086
596.00,0.0086
595.00,0.0087
594.00,0.0086
593.00,0.0082
592.00,0.0078
591.00,0.0075
590.00,0.0075
589.00,0.0075
588.00,0.0075
587.00,0.0075
586.00,0.0077
585.00,0.0079
584.00,0.0079
583.00,0.0079
582.00,0.0080
581.00,0.0080
580.00,0.0079
579.00,0.0078
578.00,0.0078
577.00,0.0080
576.00,0.0082
575.00,0.0084
574.00,0.0084
573.00,0.0084
572.00,0.0083
571.00,0.0080
570.00,0.0077
569.00,0.0077
568.00,0.0079
567.00,0.0082
566.00,0.0085
565.00,0.0089
564.00,0.0089
563.00,0.0088
562.00,0.0085
561.00,0.0085
560.00,0.0086
559.00,0.0086
558.00,0.0085
557.00,0.0082
556.00,0.0080
555.00,0.0079
554.00,0.0079
553.00,0.0081
552.00,0.0084
551.00,0.0087
550.00,0.0087
549.00,0.0084
548.00,0.0080
547.00,0.0078
546.00,0.0078
545.00,0.0078
544.00,0.0078
543.00,0.0078
542.00,0.0078
541.00,0.0079
540.00,0.0080
539.00,0.0081
538.00,0.0083
537.00,0.0086
536.00,0.0088
535.00,0.0091
534.00,0.0095
533.00,0.0099
532.00,0.0102
531.00,0.0102
530.00,0.0101
529.00,0.0099
528.00,0.0099
527.00,0.0100
526.00,0.0102
525.00,0.0103
524.00,0.0102
523.00,0.0099
522.00,0.0096
521.00,0.0092
520.00,0.0086
519.00,0.0083
518.00,0.0085
517.00,0.0090
516.00,0.0094
515.00,0.0093
514.00,0.0091
513.00,0.0089
512.00,0.0087
511.00,0.0084
510.00,0.0081
509.00,0.0082
508.00,0.0085
507.00,0.0088
506.00,0.0088
505.00,0.0087
504.00,0.0088
503.00,0.0088
502.00,0.0085
501.00,0.0079
500.00,0.0071
499.00,0.0066
498.00,0.0063
497.00,0.0063
496.00,0.0065
495.00,0.0069
494.00,0.0073
493.00,0.0074
492.00,0.0072
491.00,0.0070
490.00,0.0068
489.00,0.0067
488.00,0.0070
487.00,0.0074
486.00,0.0078
485.00,0.0081
484.00,0.0083
483.00,0.0084
482.00,0.0088
481.00,0.0093
480.00,0.0097
479.00,0.0098
478.00,0.0095
477.00,0.0091
476.00,0.0085
475.00,0.0079
474.00,0.0073
473.00,0.0071
472.00,0.0072
471.00,0.0074
470.00,0.0075
469.00,0.0078
468.00,0.0090
467.00,0.0109
466.00,0.0128
465.00,0.0141
464.00,0.0147
463.00,0.0149
462.00,0.0151
461.00,0.0157
460.00,0.0170
459.00,0.0185
458.00,0.0193
457.00,0.0188
456.00,0.0173
455.00,0.0160
454.00,0.0150
453.00,0.0143
452.00,0.0133
451.00,0.0122
450.00,0.0113
