Created as New Dataset,Sample 217 By Administrator Date Wednesday, September 03 2025
cm-1,A
4000.00,0.0010
3999.00,0.0010
3998.00,0.0010
3997.00,0.0010
3996.00,0.0010
3995.00,0.0010
3994.00,0.0009
3993.00,0.0009
3992.00,0.0009
3991.00,0.0009
3990.00,0.0009
3989.00,0.0009
3988.00,0.0009
3987.00,0.0009
3986.00,0.0009
3985.00,0.0009
3984.00,0.0009
3983.00,0.0009
3982.00,0.0008
3981.00,0.0008
3980.00,0.0008
3979.00,0.0008
3978.00,0.0008
3977.00,0.0008
3976.00,0.0008
3975.00,0.0008
3974.00,0.0008
3973.00,0.0008
3972.00,0.0008
3971.00,0.0008
3970.00,0.0008
3969.00,0.0008
3968.00,0.0008
3967.00,0.0008
3966.00,0.0008
3965.00,0.0008
3964.00,0.0008
3963.00,0.0008
3962.00,0.0008
3961.00,0.0008
3960.00,0.0008
3959.00,0.0007
3958.00,0.0007
3957.00,0.0007
3956.00,0.0007
3955.00,0.0008
3954.00,0.0008
3953.00,0.0008
3952.00,0.0008
3951.00,0.0008
3950.00,0.0007
3949.00,0.0007
3948.00,0.0008
3947.00,0.0008
3946.00,0.0008
3945.00,0.0008
3944.00,0.0007
3943.00,0.0007
3942.00,0.0007
3941.00,0.0007
3940.00,0.0007
3939.00,0.0007
3938.00,0.0007
3937.00,0.0007
3936.00,0.0008
3935.00,0.0008
3934.00,0.0009
3933.00,0.0009
3932.00,0.0009
3931.00,0.0009
3930.00,0.0009
3929.00,0.0010
3928.00,0.0010
3927.00,0.0009
3926.00,0.0009
3925.00,0.0009
3924.00,0.0008
3923.00,0.0008
3922.00,0.0008
3921.00,0.0008
3920.00,0.0008
3919.00,0.0008
3918.00,0.0008
3917.00,0.0008
3916.00,0.0008
3915.00,0.0008
3914.00,0.0009
3913.00,0.0008
3912.00,0.0008
3911.00,0.0008
3910.00,0.0008
3909.00,0.0008
3908.00,0.0008
3907.00,0.0008
3906.00,0.0008
3905.00,0.0008
3904.00,0.0008
3903.00,0.0009
3902.00,0.0009
3901.00,0.0009
3900.00,0.0009
3899.00,0.0008
3898.00,0.0008
3897.00,0.0008
3896.00,0.0008
3895.00,0.0008
3894.00,0.0008
3893.00,0.0008
3892.00,0.0008
3891.00,0.0008
3890.00,0.0008
3889.00,0.0008
3888.00,0.0008
3887.00,0.0008
3886.00,0.0008
3885.00,0.0008
3884.00,0.0008
3883.00,0.0008
3882.00,0.0008
3881.00,0.0007
3880.00,0.0007
3879.00,0.0007
3878.00,0.0008
3877.00,0.0008
3876.00,0.0007
3875.00,0.0007
3874.00,0.0007
3873.00,0.0008
3872.00,0.0008
3871.00,0.0008
3870.00,0.0008
3869.00,0.0008
3868.00,0.0008
3867.00,0.0008
3866.00,0.0008
3865.00,0.0008
3864.00,0.0008
3863.00,0.0008
3862.00,0.0008
3861.00,0.0008
3860.00,0.0008
3859.00,0.0008
3858.00,0.0008
3857.00,0.0008
3856.00,0.0008
3855.00,0.0008
3854.00,0.0008
3853.00,0.0008
3852.00,0.0008
3851.00,0.0008
3850.00,0.0008
3849.00,0.0008
3848.00,0.0008
3847.00,0.0008
3846.00,0.0008
3845.00,0.0008
3844.00,0.0008
3843.00,0.0008
3842.00,0.0009
3841.00,0.0009
3840.00,0.0008
3839.00,0.0008
3838.00,0.0008
3837.00,0.0008
3836.00,0.0008
3835.00,0.0007
3834.00,0.0007
3833.00,0.0007
3832.00,0.0007
3831.00,0.0007
3830.00,0.0007
3829.00,0.0007
3828.00,0.0007
3827.00,0.0008
3826.00,0.0008
3825.00,0.0009
3824.00,0.0009
3823.00,0.0009
3822.00,0.0009
3821.00,0.0008
3820.00,0.0009
3819.00,0.0009
3818.00,0.0009
3817.00,0.0008
3816.00,0.0008
3815.00,0.0008
3814.00,0.0008
3813.00,0.0008
3812.00,0.0008
3811.00,0.0008
3810.00,0.0008
3809.00,0.0008
3808.00,0.0008
3807.00,0.0008
3806.00,0.0009
3805.00,0.0008
3804.00,0.0008
3803.00,0.0008
3802.00,0.0007
3801.00,0.0008
3800.00,0.0008
3799.00,0.0007
3798.00,0.0007
3797.00,0.0006
3796.00,0.0006
3795.00,0.0006
3794.00,0.0006
3793.00,0.0006
3792.00,0.0006
3791.00,0.0007
3790.00,0.0007
3789.00,0.0007
3788.00,0.0008
3787.00,0.0008
3786.00,0.0008
3785.00,0.0007
3784.00,0.0007
3783.00,0.0006
3782.00,0.0006
3781.00,0.0006
3780.00,0.0007
3779.00,0.0007
3778.00,0.0007
3777.00,0.0007
3776.00,0.0007
3775.00,0.0008
3774.00,0.0008
3773.00,0.0008
3772.00,0.0008
3771.00,0.0008
3770.00,0.0008
3769.00,0.0008
3768.00,0.0008
3767.00,0.0008
3766.00,0.0008
3765.00,0.0008
3764.00,0.0008
3763.00,0.0008
3762.00,0.0008
3761.00,0.0008
3760.00,0.0008
3759.00,0.0008
3758.00,0.0008
3757.00,0.0009
3756.00,0.0009
3755.00,0.0009
3754.00,0.0009
3753.00,0.0009
3752.00,0.0010
3751.00,0.0010
3750.00,0.0009
3749.00,0.0009
3748.00,0.0009
3747.00,0.0009
3746.00,0.0008
3745.00,0.0008
3744.00,0.0007
3743.00,0.0008
3742.00,0.0008
3741.00,0.0008
3740.00,0.0009
3739.00,0.0009
3738.00,0.0009
3737.00,0.0009
3736.00,0.0008
3735.00,0.0008
3734.00,0.0007
3733.00,0.0007
3732.00,0.0007
3731.00,0.0007
3730.00,0.0008
3729.00,0.0008
3728.00,0.0008
3727.00,0.0008
3726.00,0.0008
3725.00,0.0007
3724.00,0.0006
3723.00,0.0006
3722.00,0.0006
3721.00,0.0006
3720.00,0.0006
3719.00,0.0006
3718.00,0.0006
3717.00,0.0006
3716.00,0.0007
3715.00,0.0007
3714.00,0.0007
3713.00,0.0007
3712.00,0.0007
3711.00,0.0007
3710.00,0.0007
3709.00,0.0007
3708.00,0.0007
3707.00,0.0007
3706.00,0.0007
3705.00,0.0006
3704.00,0.0006
3703.00,0.0006
3702.00,0.0006
3701.00,0.0006
3700.00,0.0006
3699.00,0.0007
3698.00,0.0007
3697.00,0.0007
3696.00,0.0007
3695.00,0.0007
3694.00,0.0007
3693.00,0.0007
3692.00,0.0007
3691.00,0.0007
3690.00,0.0007
3689.00,0.0007
3688.00,0.0007
3687.00,0.0007
3686.00,0.0006
3685.00,0.0006
3684.00,0.0006
3683.00,0.0007
3682.00,0.0007
3681.00,0.0007
3680.00,0.0007
3679.00,0.0007
3678.00,0.0008
3677.00,0.0008
3676.00,0.0007
3675.00,0.0007
3674.00,0.0008
3673.00,0.0008
3672.00,0.0008
3671.00,0.0008
3670.00,0.0007
3669.00,0.0006
3668.00,0.0006
3667.00,0.0006
3666.00,0.0006
3665.00,0.0006
3664.00,0.0006
3663.00,0.0007
3662.00,0.0007
3661.00,0.0007
3660.00,0.0007
3659.00,0.0007
3658.00,0.0007
3657.00,0.0007
3656.00,0.0008
3655.00,0.0008
3654.00,0.0008
3653.00,0.0008
3652.00,0.0008
3651.00,0.0007
3650.00,0.0008
3649.00,0.0008
3648.00,0.0008
3647.00,0.0008
3646.00,0.0008
3645.00,0.0007
3644.00,0.0007
3643.00,0.0007
3642.00,0.0007
3641.00,0.0007
3640.00,0.0007
3639.00,0.0007
3638.00,0.0007
3637.00,0.0007
3636.00,0.0007
3635.00,0.0007
3634.00,0.0007
3633.00,0.0008
3632.00,0.0008
3631.00,0.0008
3630.00,0.0008
3629.00,0.0007
3628.00,0.0007
3627.00,0.0007
3626.00,0.0007
3625.00,0.0008
3624.00,0.0008
3623.00,0.0009
3622.00,0.0009
3621.00,0.0009
3620.00,0.0009
3619.00,0.0010
3618.00,0.0010
3617.00,0.0009
3616.00,0.0009
3615.00,0.0009
3614.00,0.0010
3613.00,0.0010
3612.00,0.0011
3611.00,0.0011
3610.00,0.0011
3609.00,0.0011
3608.00,0.0010
3607.00,0.0010
3606.00,0.0010
3605.00,0.0010
3604.00,0.0010
3603.00,0.0010
3602.00,0.0010
3601.00,0.0010
3600.00,0.0010
3599.00,0.0010
3598.00,0.0010
3597.00,0.0011
3596.00,0.0011
3595.00,0.0011
3594.00,0.0012
3593.00,0.0012
3592.00,0.0012
3591.00,0.0012
3590.00,0.0012
3589.00,0.0012
3588.00,0.0012
3587.00,0.0011
3586.00,0.0012
3585.00,0.0012
3584.00,0.0013
3583.00,0.0013
3582.00,0.0012
3581.00,0.0012
3580.00,0.0012
3579.00,0.0012
3578.00,0.0013
3577.00,0.0014
3576.00,0.0014
3575.00,0.0015
3574.00,0.0015
3573.00,0.0015
3572.00,0.0014
3571.00,0.0014
3570.00,0.0014
3569.00,0.0014
3568.00,0.0014
3567.00,0.0015
3566.00,0.0015
3565.00,0.0015
3564.00,0.0015
3563.00,0.0016
3562.00,0.0016
3561.00,0.0015
3560.00,0.0015
3559.00,0.0015
3558.00,0.0016
3557.00,0.0016
3556.00,0.0017
3555.00,0.0017
3554.00,0.0018
3553.00,0.0019
3552.00,0.0019
3551.00,0.0019
3550.00,0.0020
3549.00,0.0020
3548.00,0.0021
3547.00,0.0021
3546.00,0.0020
3545.00,0.0020
3544.00,0.0020
3543.00,0.0020
3542.00,0.0020
3541.00,0.0020
3540.00,0.0020
3539.00,0.0020
3538.00,0.0020
3537.00,0.0020
3536.00,0.0021
3535.00,0.0021
3534.00,0.0022
3533.00,0.0022
3532.00,0.0022
3531.00,0.0023
3530.00,0.0023
3529.00,0.0023
3528.00,0.0024
3527.00,0.0024
3526.00,0.0025
3525.00,0.0025
3524.00,0.0025
3523.00,0.0025
3522.00,0.0024
3521.00,0.0024
3520.00,0.0024
3519.00,0.0024
3518.00,0.0025
3517.00,0.0025
3516.00,0.0025
3515.00,0.0025
3514.00,0.0026
3513.00,0.0026
3512.00,0.0027
3511.00,0.0027
3510.00,0.0026
3509.00,0.0026
3508.00,0.0027
3507.00,0.0027
3506.00,0.0027
3505.00,0.0028
3504.00,0.0028
3503.00,0.0028
3502.00,0.0028
3501.00,0.0028
3500.00,0.0028
3499.00,0.0029
3498.00,0.0029
3497.00,0.0029
3496.00,0.0029
3495.00,0.0030
3494.00,0.0030
3493.00,0.0029
3492.00,0.0029
3491.00,0.0030
3490.00,0.0030
3489.00,0.0031
3488.00,0.0031
3487.00,0.0031
3486.00,0.0031
3485.00,0.0031
3484.00,0.0032
3483.00,0.0032
3482.00,0.0033
3481.00,0.0033
3480.00,0.0033
3479.00,0.0033
3478.00,0.0033
3477.00,0.0033
3476.00,0.0033
3475.00,0.0033
3474.00,0.0033
3473.00,0.0034
3472.00,0.0034
3471.00,0.0035
3470.00,0.0035
3469.00,0.0035
3468.00,0.0035
3467.00,0.0035
3466.00,0.0035
3465.00,0.0036
3464.00,0.0036
3463.00,0.0036
3462.00,0.0037
3461.00,0.0037
3460.00,0.0037
3459.00,0.0037
3458.00,0.0037
3457.00,0.0037
3456.00,0.0036
3455.00,0.0036
3454.00,0.0037
3453.00,0.0037
3452.00,0.0037
3451.00,0.0037
3450.00,0.0038
3449.00,0.0038
3448.00,0.0038
3447.00,0.0039
3446.00,0.0039
3445.00,0.0040
3444.00,0.0040
3443.00,0.0040
3442.00,0.0040
3441.00,0.0041
3440.00,0.0041
3439.00,0.0041
3438.00,0.0041
3437.00,0.0041
3436.00,0.0041
3435.00,0.0041
3434.00,0.0041
3433.00,0.0041
3432.00,0.0042
3431.00,0.0042
3430.00,0.0042
3429.00,0.0041
3428.00,0.0041
3427.00,0.0042
3426.00,0.0042
3425.00,0.0042
3424.00,0.0043
3423.00,0.0043
3422.00,0.0043
3421.00,0.0043
3420.00,0.0043
3419.00,0.0043
3418.00,0.0043
3417.00,0.0044
3416.00,0.0044
3415.00,0.0044
3414.00,0.0044
3413.00,0.0044
3412.00,0.0044
3411.00,0.0044
3410.00,0.0044
3409.00,0.0045
3408.00,0.0045
3407.00,0.0045
3406.00,0.0045
3405.00,0.0045
3404.00,0.0045
3403.00,0.0045
3402.00,0.0045
3401.00,0.0045
3400.00,0.0045
3399.00,0.0046
3398.00,0.0046
3397.00,0.0045
3396.00,0.0045
3395.00,0.0045
3394.00,0.0045
3393.00,0.0045
3392.00,0.0045
3391.00,0.0045
3390.00,0.0045
3389.00,0.0046
3388.00,0.0046
3387.00,0.0046
3386.00,0.0046
3385.00,0.0046
3384.00,0.0046
3383.00,0.0046
3382.00,0.0045
3381.00,0.0045
3380.00,0.0046
3379.00,0.0046
3378.00,0.0046
3377.00,0.0046
3376.00,0.0046
3375.00,0.0046
3374.00,0.0046
3373.00,0.0046
3372.00,0.0046
3371.00,0.0046
3370.00,0.0046
3369.00,0.0046
3368.00,0.0046
3367.00,0.0046
3366.00,0.0046
3365.00,0.0046
3364.00,0.0047
3363.00,0.0047
3362.00,0.0047
3361.00,0.0047
3360.00,0.0047
3359.00,0.0048
3358.00,0.0047
3357.00,0.0047
3356.00,0.0047
3355.00,0.0047
3354.00,0.0047
3353.00,0.0047
3352.00,0.0047
3351.00,0.0047
3350.00,0.0046
3349.00,0.0046
3348.00,0.0046
3347.00,0.0046
3346.00,0.0046
3345.00,0.0046
3344.00,0.0046
3343.00,0.0046
3342.00,0.0047
3341.00,0.0047
3340.00,0.0047
3339.00,0.0046
3338.00,0.0046
3337.00,0.0046
3336.00,0.0046
3335.00,0.0046
3334.00,0.0046
3333.00,0.0046
3332.00,0.0045
3331.00,0.0045
3330.00,0.0044
3329.00,0.0044
3328.00,0.0044
3327.00,0.0044
3326.00,0.0045
3325.00,0.0045
3324.00,0.0045
3323.00,0.0044
3322.00,0.0044
3321.00,0.0044
3320.00,0.0044
3319.00,0.0044
3318.00,0.0044
3317.00,0.0044
3316.00,0.0044
3315.00,0.0044
3314.00,0.0044
3313.00,0.0044
3312.00,0.0044
3311.00,0.0044
3310.00,0.0045
3309.00,0.0045
3308.00,0.0045
3307.00,0.0045
3306.00,0.0045
3305.00,0.0046
3304.00,0.0046
3303.00,0.0046
3302.00,0.0046
3301.00,0.0046
3300.00,0.0045
3299.00,0.0045
3298.00,0.0045
3297.00,0.0044
3296.00,0.0044
3295.00,0.0043
3294.00,0.0043
3293.00,0.0043
3292.00,0.0043
3291.00,0.0043
3290.00,0.0043
3289.00,0.0042
3288.00,0.0042
3287.00,0.0042
3286.00,0.0042
3285.00,0.0041
3284.00,0.0041
3283.00,0.0041
3282.00,0.0041
3281.00,0.0041
3280.00,0.0041
3279.00,0.0041
3278.00,0.0041
3277.00,0.0040
3276.00,0.0040
3275.00,0.0039
3274.00,0.0039
3273.00,0.0038
3272.00,0.0038
3271.00,0.0039
3270.00,0.0039
3269.00,0.0039
3268.00,0.0040
3267.00,0.0040
3266.00,0.0039
3265.00,0.0039
3264.00,0.0039
3263.00,0.0039
3262.00,0.0039
3261.00,0.0038
3260.00,0.0038
3259.00,0.0037
3258.00,0.0037
3257.00,0.0037
3256.00,0.0037
3255.00,0.0036
3254.00,0.0036
3253.00,0.0036
3252.00,0.0036
3251.00,0.0036
3250.00,0.0036
3249.00,0.0036
3248.00,0.0036
3247.00,0.0036
3246.00,0.0036
3245.00,0.0036
3244.00,0.0035
3243.00,0.0035
3242.00,0.0035
3241.00,0.0035
3240.00,0.0035
3239.00,0.0035
3238.00,0.0035
3237.00,0.0035
3236.00,0.0035
3235.00,0.0035
3234.00,0.0035
3233.00,0.0036
3232.00,0.0036
3231.00,0.0036
3230.00,0.0036
3229.00,0.0036
3228.00,0.0036
3227.00,0.0036
3226.00,0.0036
3225.00,0.0037
3224.00,0.0037
3223.00,0.0037
3222.00,0.0037
3221.00,0.0037
3220.00,0.0038
3219.00,0.0038
3218.00,0.0038
3217.00,0.0038
3216.00,0.0038
3215.00,0.0038
3214.00,0.0038
3213.00,0.0039
3212.00,0.0039
3211.00,0.0039
3210.00,0.0039
3209.00,0.0039
3208.00,0.0039
3207.00,0.0039
3206.00,0.0039
3205.00,0.0039
3204.00,0.0039
3203.00,0.0039
3202.00,0.0040
3201.00,0.0040
3200.00,0.0040
3199.00,0.0039
3198.00,0.0039
3197.00,0.0039
3196.00,0.0039
3195.00,0.0039
3194.00,0.0039
3193.00,0.0039
3192.00,0.0039
3191.00,0.0039
3190.00,0.0039
3189.00,0.0039
3188.00,0.0039
3187.00,0.0039
3186.00,0.0039
3185.00,0.0039
3184.00,0.0039
3183.00,0.0039
3182.00,0.0039
3181.00,0.0038
3180.00,0.0038
3179.00,0.0037
3178.00,0.0037
3177.00,0.0037
3176.00,0.0037
3175.00,0.0036
3174.00,0.0036
3173.00,0.0036
3172.00,0.0037
3171.00,0.0037
3170.00,0.0036
3169.00,0.0036
3168.00,0.0036
3167.00,0.0035
3166.00,0.0035
3165.00,0.0035
3164.00,0.0035
3163.00,0.0035
3162.00,0.0035
3161.00,0.0035
3160.00,0.0035
3159.00,0.0035
3158.00,0.0035
3157.00,0.0035
3156.00,0.0035
3155.00,0.0035
3154.00,0.0035
3153.00,0.0035
3152.00,0.0035
3151.00,0.0035
3150.00,0.0035
3149.00,0.0035
3148.00,0.0035
3147.00,0.0036
3146.00,0.0036
3145.00,0.0035
3144.00,0.0035
3143.00,0.0035
3142.00,0.0034
3141.00,0.0034
3140.00,0.0034
3139.00,0.0035
3138.00,0.0035
3137.00,0.0034
3136.00,0.0034
3135.00,0.0034
3134.00,0.0033
3133.00,0.0033
3132.00,0.0033
3131.00,0.0033
3130.00,0.0033
3129.00,0.0032
3128.00,0.0032
3127.00,0.0032
3126.00,0.0031
3125.00,0.0031
3124.00,0.0031
3123.00,0.0031
3122.00,0.0031
3121.00,0.0031
3120.00,0.0031
3119.00,0.0031
3118.00,0.0030
3117.00,0.0030
3116.00,0.0030
3115.00,0.0030
3114.00,0.0030
3113.00,0.0029
3112.00,0.0029
3111.00,0.0029
3110.00,0.0028
3109.00,0.0028
3108.00,0.0028
3107.00,0.0029
3106.00,0.0029
3105.00,0.0029
3104.00,0.0029
3103.00,0.0029
3102.00,0.0029
3101.00,0.0029
3100.00,0.0029
3099.00,0.0029
3098.00,0.0029
3097.00,0.0029
3096.00,0.0029
3095.00,0.0029
3094.00,0.0029
3093.00,0.0028
3092.00,0.0028
3091.00,0.0028
3090.00,0.0027
3089.00,0.0027
3088.00,0.0027
3087.00,0.0027
3086.00,0.0027
3085.00,0.0028
3084.00,0.0028
3083.00,0.0027
3082.00,0.0027
3081.00,0.0027
3080.00,0.0028
3079.00,0.0028
3078.00,0.0028
3077.00,0.0029
3076.00,0.0029
3075.00,0.0029
3074.00,0.0029
3073.00,0.0028
3072.00,0.0028
3071.00,0.0028
3070.00,0.0028
3069.00,0.0028
3068.00,0.0028
3067.00,0.0028
3066.00,0.0028
3065.00,0.0028
3064.00,0.0029
3063.00,0.0029
3062.00,0.0030
3061.00,0.0030
3060.00,0.0030
3059.00,0.0030
3058.00,0.0029
3057.00,0.0029
3056.00,0.0030
3055.00,0.0030
3054.00,0.0031
3053.00,0.0031
3052.00,0.0031
3051.00,0.0031
3050.00,0.0031
3049.00,0.0031
3048.00,0.0031
3047.00,0.0031
3046.00,0.0031
3045.00,0.0031
3044.00,0.0032
3043.00,0.0032
3042.00,0.0033
3041.00,0.0034
3040.00,0.0034
3039.00,0.0034
3038.00,0.0035
3037.00,0.0035
3036.00,0.0036
3035.00,0.0036
3034.00,0.0036
3033.00,0.0036
3032.00,0.0036
3031.00,0.0037
3030.00,0.0037
3029.00,0.0037
3028.00,0.0038
3027.00,0.0038
3026.00,0.0039
3025.00,0.0039
3024.00,0.0040
3023.00,0.0041
3022.00,0.0042
3021.00,0.0043
3020.00,0.0044
3019.00,0.0044
3018.00,0.0045
3017.00,0.0046
3016.00,0.0047
3015.00,0.0048
3014.00,0.0048
3013.00,0.0049
3012.00,0.0050
3011.00,0.0051
3010.00,0.0052
3009.00,0.0054
3008.00,0.0055
3007.00,0.0057
3006.00,0.0058
3005.00,0.0060
3004.00,0.0062
3003.00,0.0064
3002.00,0.0066
3001.00,0.0068
3000.00,0.0070
2999.00,0.0073
2998.00,0.0076
2997.00,0.0079
2996.00,0.0083
2995.00,0.0087
2994.00,0.0091
2993.00,0.0096
2992.00,0.0101
2991.00,0.0106
2990.00,0.0113
2989.00,0.0120
2988.00,0.0128
2987.00,0.0136
2986.00,0.0146
2985.00,0.0156
2984.00,0.0168
2983.00,0.0181
2982.00,0.0195
2981.00,0.0213
2980.00,0.0232
2979.00,0.0255
2978.00,0.0281
2977.00,0.0310
2976.00,0.0343
2975.00,0.0380
2974.00,0.0423
2973.00,0.0472
2972.00,0.0527
2971.00,0.0590
2970.00,0.0660
2969.00,0.0738
2968.00,0.0822
2967.00,0.0913
2966.00,0.1009
2965.00,0.1107
2964.00,0.1204
2963.00,0.1295
2962.00,0.1377
2961.00,0.1445
2960.00,0.1498
2959.00,0.1539
2958.00,0.1573
2957.00,0.1605
2956.00,0.1643
2955.00,0.1688
2954.00,0.1741
2953.00,0.1795
2952.00,0.1844
2951.00,0.1874
2950.00,0.1877
2949.00,0.1844
2948.00,0.1776
2947.00,0.1677
2946.00,0.1560
2945.00,0.1436
2944.00,0.1319
2943.00,0.1220
2942.00,0.1142
2941.00,0.1090
2940.00,0.1061
2939.00,0.1054
2938.00,0.1066
2937.00,0.1096
2936.00,0.1141
2935.00,0.1201
2934.00,0.1275
2933.00,0.1360
2932.00,0.1456
2931.00,0.1559
2930.00,0.1669
2929.00,0.1780
2928.00,0.1892
2927.00,0.2000
2926.00,0.2104
2925.00,0.2204
2924.00,0.2300
2923.00,0.2393
2922.00,0.2485
2921.00,0.2571
2920.00,0.2646
2919.00,0.2702
2918.00,0.2728
2917.00,0.2718
2916.00,0.2673
2915.00,0.2598
2914.00,0.2504
2913.00,0.2402
2912.00,0.2302
2911.00,0.2209
2910.00,0.2127
2909.00,0.2053
2908.00,0.1986
2907.00,0.1922
2906.00,0.1859
2905.00,0.1795
2904.00,0.1729
2903.00,0.1661
2902.00,0.1594
2901.00,0.1527
2900.00,0.1462
2899.00,0.1400
2898.00,0.1343
2897.00,0.1290
2896.00,0.1242
2895.00,0.1200
2894.00,0.1164
2893.00,0.1133
2892.00,0.1109
2891.00,0.1091
2890.00,0.1078
2889.00,0.1069
2888.00,0.1063
2887.00,0.1062
2886.00,0.1063
2885.00,0.1068
2884.00,0.1077
2883.00,0.1091
2882.00,0.1110
2881.00,0.1131
2880.00,0.1151
2879.00,0.1168
2878.00,0.1179
2877.00,0.1181
2876.00,0.1176
2875.00,0.1169
2874.00,0.1163
2873.00,0.1162
2872.00,0.1169
2871.00,0.1183
2870.00,0.1200
2869.00,0.1216
2868.00,0.1224
2867.00,0.1218
2866.00,0.1192
2865.00,0.1146
2864.00,0.1082
2863.00,0.1011
2862.00,0.0941
2861.00,0.0880
2860.00,0.0833
2859.00,0.0803
2858.00,0.0786
2857.00,0.0783
2856.00,0.0789
2855.00,0.0802
2854.00,0.0821
2853.00,0.0842
2852.00,0.0863
2851.00,0.0881
2850.00,0.0895
2849.00,0.0905
2848.00,0.0912
2847.00,0.0924
2846.00,0.0943
2845.00,0.0974
2844.00,0.1015
2843.00,0.1065
2842.00,0.1119
2841.00,0.1170
2840.00,0.1210
2839.00,0.1232
2838.00,0.1227
2837.00,0.1192
2836.00,0.1127
2835.00,0.1038
2834.00,0.0934
2833.00,0.0826
2832.00,0.0723
2831.00,0.0631
2830.00,0.0554
2829.00,0.0490
2828.00,0.0439
2827.00,0.0397
2826.00,0.0363
2825.00,0.0335
2824.00,0.0311
2823.00,0.0291
2822.00,0.0274
2821.00,0.0259
2820.00,0.0246
2819.00,0.0234
2818.00,0.0225
2817.00,0.0216
2816.00,0.0209
2815.00,0.0202
2814.00,0.0196
2813.00,0.0190
2812.00,0.0184
2811.00,0.0179
2810.00,0.0173
2809.00,0.0168
2808.00,0.0162
2807.00,0.0157
2806.00,0.0150
2805.00,0.0144
2804.00,0.0137
2803.00,0.0131
2802.00,0.0126
2801.00,0.0121
2800.00,0.0118
2799.00,0.0114
2798.00,0.0112
2797.00,0.0110
2796.00,0.0107
2795.00,0.0105
2794.00,0.0102
2793.00,0.0099
2792.00,0.0096
2791.00,0.0093
2790.00,0.0090
2789.00,0.0087
2788.00,0.0083
2787.00,0.0080
2786.00,0.0077
2785.00,0.0075
2784.00,0.0072
2783.00,0.0070
2782.00,0.0068
2781.00,0.0066
2780.00,0.0064
2779.00,0.0063
2778.00,0.0062
2777.00,0.0061
2776.00,0.0060
2775.00,0.0059
2774.00,0.0058
2773.00,0.0057
2772.00,0.0057
2771.00,0.0056
2770.00,0.0056
2769.00,0.0055
2768.00,0.0055
2767.00,0.0055
2766.00,0.0054
2765.00,0.0054
2764.00,0.0053
2763.00,0.0052
2762.00,0.0052
2761.00,0.0051
2760.00,0.0051
2759.00,0.0051
2758.00,0.0051
2757.00,0.0051
2756.00,0.0051
2755.00,0.0051
2754.00,0.0051
2753.00,0.0051
2752.00,0.0051
2751.00,0.0051
2750.00,0.0050
2749.00,0.0050
2748.00,0.0050
2747.00,0.0050
2746.00,0.0051
2745.00,0.0051
2744.00,0.0052
2743.00,0.0052
2742.00,0.0053
2741.00,0.0054
2740.00,0.0055
2739.00,0.0057
2738.00,0.0058
2737.00,0.0059
2736.00,0.0061
2735.00,0.0062
2734.00,0.0064
2733.00,0.0065
2732.00,0.0067
2731.00,0.0068
2730.00,0.0070
2729.00,0.0073
2728.00,0.0075
2727.00,0.0078
2726.00,0.0081
2725.00,0.0083
2724.00,0.0085
2723.00,0.0085
2722.00,0.0084
2721.00,0.0082
2720.00,0.0080
2719.00,0.0077
2718.00,0.0074
2717.00,0.0071
2716.00,0.0068
2715.00,0.0065
2714.00,0.0063
2713.00,0.0061
2712.00,0.0059
2711.00,0.0057
2710.00,0.0055
2709.00,0.0054
2708.00,0.0053
2707.00,0.0052
2706.00,0.0051
2705.00,0.0050
2704.00,0.0049
2703.00,0.0048
2702.00,0.0047
2701.00,0.0046
2700.00,0.0045
2699.00,0.0045
2698.00,0.0044
2697.00,0.0044
2696.00,0.0044
2695.00,0.0044
2694.00,0.0044
2693.00,0.0044
2692.00,0.0044
2691.00,0.0044
2690.00,0.0044
2689.00,0.0044
2688.00,0.0044
2687.00,0.0044
2686.00,0.0044
2685.00,0.0044
2684.00,0.0044
2683.00,0.0044
2682.00,0.0044
2681.00,0.0045
2680.00,0.0045
2679.00,0.0045
2678.00,0.0045
2677.00,0.0045
2676.00,0.0044
2675.00,0.0044
2674.00,0.0044
2673.00,0.0044
2672.00,0.0044
2671.00,0.0044
2670.00,0.0044
2669.00,0.0044
2668.00,0.0044
2667.00,0.0044
2666.00,0.0044
2665.00,0.0044
2664.00,0.0044
2663.00,0.0045
2662.00,0.0046
2661.00,0.0047
2660.00,0.0047
2659.00,0.0048
2658.00,0.0048
2657.00,0.0048
2656.00,0.0047
2655.00,0.0046
2654.00,0.0045
2653.00,0.0044
2652.00,0.0044
2651.00,0.0043
2650.00,0.0043
2649.00,0.0043
2648.00,0.0042
2647.00,0.0042
2646.00,0.0042
2645.00,0.0041
2644.00,0.0041
2643.00,0.0040
2642.00,0.0039
2641.00,0.0039
2640.00,0.0039
2639.00,0.0038
2638.00,0.0038
2637.00,0.0038
2636.00,0.0038
2635.00,0.0038
2634.00,0.0038
2633.00,0.0038
2632.00,0.0038
2631.00,0.0038
2630.00,0.0038
2629.00,0.0038
2628.00,0.0038
2627.00,0.0039
2626.00,0.0039
2625.00,0.0039
2624.00,0.0039
2623.00,0.0040
2622.00,0.0040
2621.00,0.0040
2620.00,0.0040
2619.00,0.0040
2618.00,0.0040
2617.00,0.0040
2616.00,0.0040
2615.00,0.0039
2614.00,0.0039
2613.00,0.0038
2612.00,0.0038
2611.00,0.0037
2610.00,0.0036
2609.00,0.0035
2608.00,0.0034
2607.00,0.0034
2606.00,0.0033
2605.00,0.0033
2604.00,0.0032
2603.00,0.0032
2602.00,0.0031
2601.00,0.0031
2600.00,0.0031
2599.00,0.0031
2598.00,0.0030
2597.00,0.0030
2596.00,0.0031
2595.00,0.0031
2594.00,0.0032
2593.00,0.0032
2592.00,0.0032
2591.00,0.0032
2590.00,0.0032
2589.00,0.0033
2588.00,0.0034
2587.00,0.0035
2586.00,0.0036
2585.00,0.0037
2584.00,0.0038
2583.00,0.0038
2582.00,0.0038
2581.00,0.0038
2580.00,0.0037
2579.00,0.0036
2578.00,0.0035
2577.00,0.0033
2576.00,0.0032
2575.00,0.0031
2574.00,0.0030
2573.00,0.0029
2572.00,0.0029
2571.00,0.0028
2570.00,0.0027
2569.00,0.0026
2568.00,0.0025
2567.00,0.0024
2566.00,0.0024
2565.00,0.0024
2564.00,0.0024
2563.00,0.0023
2562.00,0.0023
2561.00,0.0023
2560.00,0.0022
2559.00,0.0022
2558.00,0.0021
2557.00,0.0021
2556.00,0.0021
2555.00,0.0021
2554.00,0.0021
2553.00,0.0021
2552.00,0.0021
2551.00,0.0020
2550.00,0.0019
2549.00,0.0018
2548.00,0.0017
2547.00,0.0017
2546.00,0.0017
2545.00,0.0017
2544.00,0.0017
2543.00,0.0017
2542.00,0.0017
2541.00,0.0016
2540.00,0.0016
2539.00,0.0016
2538.00,0.0015
2537.00,0.0015
2536.00,0.0015
2535.00,0.0015
2534.00,0.0014
2533.00,0.0014
2532.00,0.0013
2531.00,0.0013
2530.00,0.0013
2529.00,0.0013
2528.00,0.0013
2527.00,0.0014
2526.00,0.0014
2525.00,0.0014
2524.00,0.0013
2523.00,0.0013
2522.00,0.0013
2521.00,0.0013
2520.00,0.0013
2519.00,0.0012
2518.00,0.0012
2517.00,0.0011
2516.00,0.0010
2515.00,0.0010
2514.00,0.0009
2513.00,0.0009
2512.00,0.0009
2511.00,0.0010
2510.00,0.0010
2509.00,0.0010
2508.00,0.0010
2507.00,0.0011
2506.00,0.0011
2505.00,0.0011
2504.00,0.0011
2503.00,0.0011
2502.00,0.0010
2501.00,0.0010
2500.00,0.0010
2499.00,0.0010
2498.00,0.0010
2497.00,0.0010
2496.00,0.0010
2495.00,0.0009
2494.00,0.0009
2493.00,0.0009
2492.00,0.0009
2491.00,0.0009
2490.00,0.0009
2489.00,0.0009
2488.00,0.0009
2487.00,0.0008
2486.00,0.0008
2485.00,0.0009
2484.00,0.0009
2483.00,0.0010
2482.00,0.0010
2481.00,0.0010
2480.00,0.0010
2479.00,0.0009
2478.00,0.0009
2477.00,0.0009
2476.00,0.0009
2475.00,0.0009
2474.00,0.0010
2473.00,0.0009
2472.00,0.0009
2471.00,0.0009
2470.00,0.0009
2469.00,0.0009
2468.00,0.0009
2467.00,0.0009
2466.00,0.0009
2465.00,0.0009
2464.00,0.0009
2463.00,0.0009
2462.00,0.0009
2461.00,0.0009
2460.00,0.0009
2459.00,0.0010
2458.00,0.0010
2457.00,0.0011
2456.00,0.0011
2455.00,0.0011
2454.00,0.0011
2453.00,0.0011
2452.00,0.0011
2451.00,0.0011
2450.00,0.0011
2449.00,0.0011
2448.00,0.0011
2447.00,0.0011
2446.00,0.0010
2445.00,0.0010
2444.00,0.0010
2443.00,0.0009
2442.00,0.0009
2441.00,0.0009
2440.00,0.0010
2439.00,0.0010
2438.00,0.0011
2437.00,0.0011
2436.00,0.0012
2435.00,0.0012
2434.00,0.0012
2433.00,0.0012
2432.00,0.0011
2431.00,0.0010
2430.00,0.0010
2429.00,0.0010
2428.00,0.0010
2427.00,0.0010
2426.00,0.0010
2425.00,0.0009
2424.00,0.0009
2423.00,0.0009
2422.00,0.0009
2421.00,0.0010
2420.00,0.0010
2419.00,0.0010
2418.00,0.0010
2417.00,0.0009
2416.00,0.0009
2415.00,0.0009
2414.00,0.0009
2413.00,0.0010
2412.00,0.0010
2411.00,0.0009
2410.00,0.0009
2409.00,0.0009
2408.00,0.0009
2407.00,0.0009
2406.00,0.0009
2405.00,0.0009
2404.00,0.0008
2403.00,0.0008
2402.00,0.0008
2401.00,0.0008
2400.00,0.0008
2399.00,0.0008
2398.00,0.0008
2397.00,0.0007
2396.00,0.0007
2395.00,0.0007
2394.00,0.0007
2393.00,0.0007
2392.00,0.0007
2391.00,0.0007
2390.00,0.0007
2389.00,0.0007
2388.00,0.0007
2387.00,0.0006
2386.00,0.0006
2385.00,0.0006
2384.00,0.0006
2383.00,0.0005
2382.00,0.0005
2381.00,0.0004
2380.00,0.0003
2379.00,0.0003
2378.00,0.0002
2377.00,0.0002
2376.00,0.0002
2375.00,0.0003
2374.00,0.0003
2373.00,0.0004
2372.00,0.0005
2371.00,0.0005
2370.00,0.0005
2369.00,0.0004
2368.00,0.0004
2367.00,0.0004
2366.00,0.0004
2365.00,0.0005
2364.00,0.0005
2363.00,0.0005
2362.00,0.0005
2361.00,0.0004
2360.00,0.0004
2359.00,0.0005
2358.00,0.0006
2357.00,0.0007
2356.00,0.0007
2355.00,0.0006
2354.00,0.0006
2353.00,0.0005
2352.00,0.0005
2351.00,0.0006
2350.00,0.0006
2349.00,0.0007
2348.00,0.0007
2347.00,0.0007
2346.00,0.0007
2345.00,0.0008
2344.00,0.0009
2343.00,0.0009
2342.00,0.0009
2341.00,0.0009
2340.00,0.0009
2339.00,0.0009
2338.00,0.0009
2337.00,0.0009
2336.00,0.0010
2335.00,0.0009
2334.00,0.0009
2333.00,0.0008
2332.00,0.0007
2331.00,0.0006
2330.00,0.0007
2329.00,0.0008
2328.00,0.0011
2327.00,0.0014
2326.00,0.0017
2325.00,0.0020
2324.00,0.0022
2323.00,0.0021
2322.00,0.0020
2321.00,0.0018
2320.00,0.0016
2319.00,0.0016
2318.00,0.0015
2317.00,0.0014
2316.00,0.0013
2315.00,0.0012
2314.00,0.0011
2313.00,0.0011
2312.00,0.0011
2311.00,0.0011
2310.00,0.0010
2309.00,0.0010
2308.00,0.0010
2307.00,0.0011
2306.00,0.0011
2305.00,0.0011
2304.00,0.0011
2303.00,0.0011
2302.00,0.0012
2301.00,0.0012
2300.00,0.0012
2299.00,0.0013
2298.00,0.0013
2297.00,0.0013
2296.00,0.0013
2295.00,0.0014
2294.00,0.0015
2293.00,0.0016
2292.00,0.0017
2291.00,0.0017
2290.00,0.0017
2289.00,0.0017
2288.00,0.0018
2287.00,0.0018
2286.00,0.0018
2285.00,0.0019
2284.00,0.0018
2283.00,0.0018
2282.00,0.0017
2281.00,0.0016
2280.00,0.0015
2279.00,0.0014
2278.00,0.0013
2277.00,0.0014
2276.00,0.0014
2275.00,0.0014
2274.00,0.0013
2273.00,0.0012
2272.00,0.0011
2271.00,0.0010
2270.00,0.0010
2269.00,0.0010
2268.00,0.0010
2267.00,0.0011
2266.00,0.0011
2265.00,0.0012
2264.00,0.0012
2263.00,0.0013
2262.00,0.0014
2261.00,0.0014
2260.00,0.0015
2259.00,0.0014
2258.00,0.0013
2257.00,0.0012
2256.00,0.0011
2255.00,0.0009
2254.00,0.0008
2253.00,0.0008
2252.00,0.0008
2251.00,0.0008
2250.00,0.0008
2249.00,0.0008
2248.00,0.0008
2247.00,0.0007
2246.00,0.0007
2245.00,0.0007
2244.00,0.0008
2243.00,0.0009
2242.00,0.0008
2241.00,0.0007
2240.00,0.0007
2239.00,0.0007
2238.00,0.0007
2237.00,0.0007
2236.00,0.0007
2235.00,0.0007
2234.00,0.0007
2233.00,0.0007
2232.00,0.0006
2231.00,0.0005
2230.00,0.0004
2229.00,0.0005
2228.00,0.0006
2227.00,0.0008
2226.00,0.0010
2225.00,0.0011
2224.00,0.0012
2223.00,0.0011
2222.00,0.0009
2221.00,0.0007
2220.00,0.0006
2219.00,0.0006
2218.00,0.0007
2217.00,0.0007
2216.00,0.0008
2215.00,0.0007
2214.00,0.0006
2213.00,0.0005
2212.00,0.0004
2211.00,0.0003
2210.00,0.0001
2209.00,0.0000
2208.00,0.0000
2207.00,0.0002
2206.00,0.0005
2205.00,0.0008
2204.00,0.0010
2203.00,0.0009
2202.00,0.0007
2201.00,0.0006
2200.00,0.0006
2199.00,0.0006
2198.00,0.0006
2197.00,0.0006
2196.00,0.0006
2195.00,0.0007
2194.00,0.0008
2193.00,0.0009
2192.00,0.0009
2191.00,0.0009
2190.00,0.0009
2189.00,0.0009
2188.00,0.0009
2187.00,0.0008
2186.00,0.0008
2185.00,0.0009
2184.00,0.0009
2183.00,0.0007
2182.00,0.0006
2181.00,0.0005
2180.00,0.0005
2179.00,0.0007
2178.00,0.0008
2177.00,0.0009
2176.00,0.0007
2175.00,0.0004
2174.00,0.0001
2173.00,0.0000
2172.00,0.0002
2171.00,0.0004
2170.00,0.0008
2169.00,0.0011
2168.00,0.0014
2167.00,0.0016
2166.00,0.0016
2165.00,0.0015
2164.00,0.0014
2163.00,0.0013
2162.00,0.0012
2161.00,0.0008
2160.00,-0.0001
2159.00,-0.0015
2158.00,-0.0027
2157.00,-0.0032
2156.00,-0.0032
2155.00,-0.0029
2154.00,-0.0024
2153.00,-0.0020
2152.00,-0.0017
2151.00,-0.0017
2150.00,-0.0018
2149.00,-0.0019
2148.00,-0.0018
2147.00,-0.0017
2146.00,-0.0015
2145.00,-0.0013
2144.00,-0.0012
2143.00,-0.0011
2142.00,-0.0012
2141.00,-0.0013
2140.00,-0.0013
2139.00,-0.0013
2138.00,-0.0012
2137.00,-0.0011
2136.00,-0.0011
2135.00,-0.0013
2134.00,-0.0015
2133.00,-0.0016
2132.00,-0.0016
2131.00,-0.0016
2130.00,-0.0014
2129.00,-0.0013
2128.00,-0.0010
2127.00,-0.0009
2126.00,-0.0007
2125.00,-0.0007
2124.00,-0.0007
2123.00,-0.0007
2122.00,-0.0007
2121.00,-0.0006
2120.00,-0.0005
2119.00,-0.0004
2118.00,-0.0002
2117.00,-0.0001
2116.00,0.0001
2115.00,0.0001
2114.00,0.0002
2113.00,0.0002
2112.00,0.0003
2111.00,0.0003
2110.00,0.0002
2109.00,0.0002
2108.00,0.0002
2107.00,0.0001
2106.00,0.0001
2105.00,0.0002
2104.00,0.0003
2103.00,0.0004
2102.00,0.0004
2101.00,0.0003
2100.00,0.0002
2099.00,0.0001
2098.00,0.0000
2097.00,-0.0001
2096.00,-0.0003
2095.00,-0.0005
2094.00,-0.0006
2093.00,-0.0005
2092.00,-0.0004
2091.00,-0.0003
2090.00,-0.0002
2089.00,-0.0002
2088.00,-0.0001
2087.00,-0.0000
2086.00,0.0001
2085.00,0.0002
2084.00,0.0003
2083.00,0.0004
2082.00,0.0004
2081.00,0.0004
2080.00,0.0004
2079.00,0.0004
2078.00,0.0005
2077.00,0.0004
2076.00,0.0003
2075.00,0.0002
2074.00,0.0002
2073.00,0.0002
2072.00,0.0002
2071.00,0.0002
2070.00,0.0001
2069.00,-0.0000
2068.00,-0.0000
2067.00,-0.0000
2066.00,-0.0000
2065.00,-0.0000
2064.00,-0.0001
2063.00,-0.0002
2062.00,-0.0003
2061.00,-0.0005
2060.00,-0.0005
2059.00,-0.0006
2058.00,-0.0005
2057.00,-0.0003
2056.00,-0.0002
2055.00,-0.0000
2054.00,0.0002
2053.00,0.0007
2052.00,0.0012
2051.00,0.0015
2050.00,0.0014
2049.00,0.0009
2048.00,0.0004
2047.00,0.0001
2046.00,-0.0001
2045.00,-0.0002
2044.00,-0.0002
2043.00,-0.0001
2042.00,0.0000
2041.00,0.0002
2040.00,0.0005
2039.00,0.0006
2038.00,0.0006
2037.00,0.0004
2036.00,0.0001
2035.00,-0.0001
2034.00,-0.0002
2033.00,-0.0002
2032.00,-0.0002
2031.00,-0.0002
2030.00,-0.0002
2029.00,-0.0002
2028.00,-0.0004
2027.00,-0.0007
2026.00,-0.0009
2025.00,-0.0009
2024.00,-0.0006
2023.00,-0.0004
2022.00,-0.0004
2021.00,-0.0003
2020.00,-0.0002
2019.00,-0.0000
2018.00,0.0001
2017.00,-0.0000
2016.00,-0.0003
2015.00,-0.0006
2014.00,-0.0010
2013.00,-0.0011
2012.00,-0.0011
2011.00,-0.0010
2010.00,-0.0011
2009.00,-0.0013
2008.00,-0.0016
2007.00,-0.0020
2006.00,-0.0021
2005.00,-0.0020
2004.00,-0.0017
2003.00,-0.0015
2002.00,-0.0014
2001.00,-0.0013
2000.00,-0.0014
1999.00,-0.0014
1998.00,-0.0015
1997.00,-0.0016
1996.00,-0.0017
1995.00,-0.0016
1994.00,-0.0015
1993.00,-0.0013
1992.00,-0.0010
1991.00,-0.0006
1990.00,-0.0003
1989.00,-0.0002
1988.00,-0.0003
1987.00,-0.0004
1986.00,-0.0004
1985.00,-0.0002
1984.00,-0.0000
1983.00,0.0003
1982.00,0.0007
1981.00,0.0011
1980.00,0.0012
1979.00,0.0009
1978.00,0.0003
1977.00,-0.0005
1976.00,-0.0012
1975.00,-0.0018
1974.00,-0.0022
1973.00,-0.0024
1972.00,-0.0025
1971.00,-0.0025
1970.00,-0.0025
1969.00,-0.0024
1968.00,-0.0022
1967.00,-0.0021
1966.00,-0.0019
1965.00,-0.0015
1964.00,-0.0011
1963.00,-0.0009
1962.00,-0.0008
1961.00,-0.0010
1960.00,-0.0013
1959.00,-0.0017
1958.00,-0.0020
1957.00,-0.0021
1956.00,-0.0020
1955.00,-0.0018
1954.00,-0.0016
1953.00,-0.0013
1952.00,-0.0012
1951.00,-0.0012
1950.00,-0.0012
1949.00,-0.0012
1948.00,-0.0013
1947.00,-0.0014
1946.00,-0.0016
1945.00,-0.0016
1944.00,-0.0015
1943.00,-0.0014
1942.00,-0.0013
1941.00,-0.0012
1940.00,-0.0012
1939.00,-0.0011
1938.00,-0.0011
1937.00,-0.0011
1936.00,-0.0011
1935.00,-0.0011
1934.00,-0.0011
1933.00,-0.0010
1932.00,-0.0009
1931.00,-0.0007
1930.00,-0.0007
1929.00,-0.0006
1928.00,-0.0006
1927.00,-0.0008
1926.00,-0.0009
1925.00,-0.0010
1924.00,-0.0011
1923.00,-0.0010
1922.00,-0.0009
1921.00,-0.0007
1920.00,-0.0005
1919.00,-0.0005
1918.00,-0.0005
1917.00,-0.0005
1916.00,-0.0004
1915.00,-0.0003
1914.00,-0.0002
1913.00,-0.0002
1912.00,-0.0002
1911.00,-0.0002
1910.00,-0.0002
1909.00,-0.0002
1908.00,-0.0001
1907.00,-0.0001
1906.00,-0.0001
1905.00,-0.0001
1904.00,-0.0000
1903.00,-0.0000
1902.00,-0.0001
1901.00,-0.0003
1900.00,-0.0004
1899.00,-0.0004
1898.00,-0.0004
1897.00,-0.0004
1896.00,-0.0003
1895.00,-0.0002
1894.00,-0.0002
1893.00,-0.0002
1892.00,-0.0002
1891.00,-0.0003
1890.00,-0.0003
1889.00,-0.0003
1888.00,-0.0004
1887.00,-0.0004
1886.00,-0.0005
1885.00,-0.0004
1884.00,-0.0004
1883.00,-0.0003
1882.00,-0.0002
1881.00,-0.0001
1880.00,-0.0000
1879.00,-0.0000
1878.00,-0.0001
1877.00,-0.0002
1876.00,-0.0002
1875.00,-0.0002
1874.00,-0.0001
1873.00,-0.0001
1872.00,-0.0001
1871.00,-0.0002
1870.00,-0.0003
1869.00,-0.0003
1868.00,-0.0003
1867.00,-0.0002
1866.00,-0.0001
1865.00,-0.0001
1864.00,-0.0001
1863.00,-0.0002
1862.00,-0.0002
1861.00,-0.0001
1860.00,-0.0001
1859.00,-0.0001
1858.00,-0.0001
1857.00,-0.0001
1856.00,0.0000
1855.00,0.0001
1854.00,0.0000
1853.00,-0.0000
1852.00,-0.0001
1851.00,-0.0001
1850.00,-0.0001
1849.00,-0.0000
1848.00,0.0001
1847.00,0.0001
1846.00,0.0001
1845.00,0.0001
1844.00,0.0001
1843.00,0.0001
1842.00,0.0001
1841.00,0.0001
1840.00,0.0001
1839.00,0.0001
1838.00,0.0001
1837.00,0.0002
1836.00,0.0002
1835.00,0.0003
1834.00,0.0003
1833.00,0.0004
1832.00,0.0003
1831.00,0.0003
1830.00,0.0002
1829.00,0.0002
1828.00,0.0001
1827.00,0.0000
1826.00,-0.0000
1825.00,-0.0000
1824.00,0.0001
1823.00,0.0001
1822.00,0.0002
1821.00,0.0002
1820.00,0.0002
1819.00,0.0001
1818.00,0.0000
1817.00,-0.0000
1816.00,0.0000
1815.00,0.0001
1814.00,0.0001
1813.00,0.0002
1812.00,0.0003
1811.00,0.0003
1810.00,0.0004
1809.00,0.0004
1808.00,0.0003
1807.00,0.0003
1806.00,0.0002
1805.00,0.0003
1804.00,0.0003
1803.00,0.0003
1802.00,0.0003
1801.00,0.0004
1800.00,0.0004
1799.00,0.0004
1798.00,0.0004
1797.00,0.0005
1796.00,0.0005
1795.00,0.0005
1794.00,0.0005
1793.00,0.0006
1792.00,0.0006
1791.00,0.0007
1790.00,0.0007
1789.00,0.0007
1788.00,0.0007
1787.00,0.0007
1786.00,0.0007
1785.00,0.0007
1784.00,0.0007
1783.00,0.0007
1782.00,0.0007
1781.00,0.0007
1780.00,0.0007
1779.00,0.0007
1778.00,0.0007
1777.00,0.0006
1776.00,0.0006
1775.00,0.0006
1774.00,0.0006
1773.00,0.0006
1772.00,0.0006
1771.00,0.0006
1770.00,0.0007
1769.00,0.0007
1768.00,0.0008
1767.00,0.0009
1766.00,0.0009
1765.00,0.0009
1764.00,0.0008
1763.00,0.0008
1762.00,0.0008
1761.00,0.0009
1760.00,0.0009
1759.00,0.0009
1758.00,0.0010
1757.00,0.0010
1756.00,0.0011
1755.00,0.0011
1754.00,0.0011
1753.00,0.0011
1752.00,0.0011
1751.00,0.0011
1750.00,0.0011
1749.00,0.0012
1748.00,0.0013
1747.00,0.0014
1746.00,0.0014
1745.00,0.0014
1744.00,0.0014
1743.00,0.0014
1742.00,0.0014
1741.00,0.0014
1740.00,0.0014
1739.00,0.0014
1738.00,0.0014
1737.00,0.0015
1736.00,0.0015
1735.00,0.0016
1734.00,0.0016
1733.00,0.0017
1732.00,0.0017
1731.00,0.0017
1730.00,0.0017
1729.00,0.0018
1728.00,0.0018
1727.00,0.0019
1726.00,0.0019
1725.00,0.0020
1724.00,0.0021
1723.00,0.0021
1722.00,0.0021
1721.00,0.0020
1720.00,0.0020
1719.00,0.0020
1718.00,0.0020
1717.00,0.0021
1716.00,0.0020
1715.00,0.0020
1714.00,0.0020
1713.00,0.0021
1712.00,0.0021
1711.00,0.0021
1710.00,0.0022
1709.00,0.0022
1708.00,0.0022
1707.00,0.0022
1706.00,0.0021
1705.00,0.0021
1704.00,0.0021
1703.00,0.0022
1702.00,0.0023
1701.00,0.0023
1700.00,0.0024
1699.00,0.0024
1698.00,0.0024
1697.00,0.0024
1696.00,0.0024
1695.00,0.0024
1694.00,0.0025
1693.00,0.0025
1692.00,0.0026
1691.00,0.0027
1690.00,0.0028
1689.00,0.0029
1688.00,0.0029
1687.00,0.0029
1686.00,0.0029
1685.00,0.0029
1684.00,0.0029
1683.00,0.0030
1682.00,0.0030
1681.00,0.0031
1680.00,0.0032
1679.00,0.0033
1678.00,0.0034
1677.00,0.0034
1676.00,0.0035
1675.00,0.0036
1674.00,0.0036
1673.00,0.0036
1672.00,0.0036
1671.00,0.0036
1670.00,0.0037
1669.00,0.0037
1668.00,0.0038
1667.00,0.0039
1666.00,0.0039
1665.00,0.0039
1664.00,0.0040
1663.00,0.0040
1662.00,0.0040
1661.00,0.0041
1660.00,0.0041
1659.00,0.0042
1658.00,0.0042
1657.00,0.0042
1656.00,0.0043
1655.00,0.0043
1654.00,0.0043
1653.00,0.0045
1652.00,0.0045
1651.00,0.0046
1650.00,0.0046
1649.00,0.0047
1648.00,0.0048
1647.00,0.0049
1646.00,0.0050
1645.00,0.0051
1644.00,0.0051
1643.00,0.0051
1642.00,0.0052
1641.00,0.0053
1640.00,0.0054
1639.00,0.0055
1638.00,0.0056
1637.00,0.0057
1636.00,0.0056
1635.00,0.0056
1634.00,0.0055
1633.00,0.0055
1632.00,0.0055
1631.00,0.0055
1630.00,0.0055
1629.00,0.0054
1628.00,0.0054
1627.00,0.0053
1626.00,0.0053
1625.00,0.0052
1624.00,0.0052
1623.00,0.0052
1622.00,0.0051
1621.00,0.0051
1620.00,0.0051
1619.00,0.0051
1618.00,0.0051
1617.00,0.0051
1616.00,0.0051
1615.00,0.0050
1614.00,0.0049
1613.00,0.0049
1612.00,0.0050
1611.00,0.0050
1610.00,0.0050
1609.00,0.0050
1608.00,0.0050
1607.00,0.0050
1606.00,0.0050
1605.00,0.0050
1604.00,0.0050
1603.00,0.0050
1602.00,0.0050
1601.00,0.0050
1600.00,0.0050
1599.00,0.0049
1598.00,0.0049
1597.00,0.0048
1596.00,0.0048
1595.00,0.0048
1594.00,0.0048
1593.00,0.0049
1592.00,0.0049
1591.00,0.0049
1590.00,0.0049
1589.00,0.0049
1588.00,0.0049
1587.00,0.0050
1586.00,0.0051
1585.00,0.0052
1584.00,0.0053
1583.00,0.0053
1582.00,0.0054
1581.00,0.0055
1580.00,0.0056
1579.00,0.0057
1578.00,0.0057
1577.00,0.0058
1576.00,0.0058
1575.00,0.0058
1574.00,0.0057
1573.00,0.0057
1572.00,0.0058
1571.00,0.0058
1570.00,0.0057
1569.00,0.0057
1568.00,0.0057
1567.00,0.0057
1566.00,0.0057
1565.00,0.0057
1564.00,0.0057
1563.00,0.0057
1562.00,0.0057
1561.00,0.0057
1560.00,0.0058
1559.00,0.0059
1558.00,0.0058
1557.00,0.0059
1556.00,0.0060
1555.00,0.0060
1554.00,0.0060
1553.00,0.0061
1552.00,0.0062
1551.00,0.0063
1550.00,0.0064
1549.00,0.0065
1548.00,0.0066
1547.00,0.0067
1546.00,0.0067
1545.00,0.0068
1544.00,0.0070
1543.00,0.0070
1542.00,0.0070
1541.00,0.0070
1540.00,0.0068
1539.00,0.0065
1538.00,0.0063
1537.00,0.0062
1536.00,0.0061
1535.00,0.0059
1534.00,0.0057
1533.00,0.0055
1532.00,0.0054
1531.00,0.0054
1530.00,0.0053
1529.00,0.0053
1528.00,0.0052
1527.00,0.0052
1526.00,0.0051
1525.00,0.0051
1524.00,0.0052
1523.00,0.0052
1522.00,0.0052
1521.00,0.0052
1520.00,0.0053
1519.00,0.0053
1518.00,0.0053
1517.00,0.0054
1516.00,0.0054
1515.00,0.0055
1514.00,0.0055
1513.00,0.0056
1512.00,0.0057
1511.00,0.0057
1510.00,0.0058
1509.00,0.0058
1508.00,0.0060
1507.00,0.0060
1506.00,0.0060
1505.00,0.0062
1504.00,0.0064
1503.00,0.0066
1502.00,0.0068
1501.00,0.0070
1500.00,0.0072
1499.00,0.0074
1498.00,0.0077
1497.00,0.0080
1496.00,0.0084
1495.00,0.0086
1494.00,0.0088
1493.00,0.0091
1492.00,0.0095
1491.00,0.0098
1490.00,0.0102
1489.00,0.0107
1488.00,0.0113
1487.00,0.0118
1486.00,0.0124
1485.00,0.0130
1484.00,0.0137
1483.00,0.0144
1482.00,0.0153
1481.00,0.0164
1480.00,0.0176
1479.00,0.0188
1478.00,0.0203
1477.00,0.0224
1476.00,0.0249
1475.00,0.0280
1474.00,0.0320
1473.00,0.0378
1472.00,0.0445
1471.00,0.0510
1470.00,0.0572
1469.00,0.0638
1468.00,0.0709
1467.00,0.0785
1466.00,0.0872
1465.00,0.0964
1464.00,0.1045
1463.00,0.1102
1462.00,0.1139
1461.00,0.1164
1460.00,0.1181
1459.00,0.1191
1458.00,0.1199
1457.00,0.1203
1456.00,0.1200
1455.00,0.1191
1454.00,0.1179
1453.00,0.1162
1452.00,0.1135
1451.00,0.1096
1450.00,0.1044
1449.00,0.0973
1448.00,0.0884
1447.00,0.0790
1446.00,0.0706
1445.00,0.0634
1444.00,0.0572
1443.00,0.0520
1442.00,0.0481
1441.00,0.0454
1440.00,0.0438
1439.00,0.0430
1438.00,0.0430
1437.00,0.0430
1436.00,0.0420
1435.00,0.0396
1434.00,0.0361
1433.00,0.0320
1432.00,0.0277
1431.00,0.0238
1430.00,0.0208
1429.00,0.0185
1428.00,0.0169
1427.00,0.0159
1426.00,0.0151
1425.00,0.0145
1424.00,0.0139
1423.00,0.0136
1422.00,0.0134
1421.00,0.0131
1420.00,0.0128
1419.00,0.0125
1418.00,0.0123
1417.00,0.0120
1416.00,0.0118
1415.00,0.0116
1414.00,0.0116
1413.00,0.0114
1412.00,0.0113
1411.00,0.0112
1410.00,0.0111
1409.00,0.0110
1408.00,0.0109
1407.00,0.0109
1406.00,0.0109
1405.00,0.0109
1404.00,0.0108
1403.00,0.0109
1402.00,0.0109
1401.00,0.0110
1400.00,0.0110
1399.00,0.0112
1398.00,0.0114
1397.00,0.0116
1396.00,0.0118
1395.00,0.0122
1394.00,0.0128
1393.00,0.0132
1392.00,0.0137
1391.00,0.0145
1390.00,0.0155
1389.00,0.0169
1388.00,0.0190
1387.00,0.0221
1386.00,0.0264
1385.00,0.0320
1384.00,0.0399
1383.00,0.0509
1382.00,0.0659
1381.00,0.0850
1380.00,0.1085
1379.00,0.1347
1378.00,0.1593
1377.00,0.1767
1376.00,0.1815
1375.00,0.1713
1374.00,0.1490
1373.00,0.1228
1372.00,0.0989
1371.00,0.0795
1370.00,0.0640
1369.00,0.0524
1368.00,0.0443
1367.00,0.0394
1366.00,0.0366
1365.00,0.0355
1364.00,0.0356
1363.00,0.0368
1362.00,0.0387
1361.00,0.0408
1360.00,0.0424
1359.00,0.0429
1358.00,0.0420
1357.00,0.0397
1356.00,0.0363
1355.00,0.0325
1354.00,0.0289
1353.00,0.0258
1352.00,0.0232
1351.00,0.0211
1350.00,0.0194
1349.00,0.0180
1348.00,0.0168
1347.00,0.0158
1346.00,0.0149
1345.00,0.0142
1344.00,0.0136
1343.00,0.0131
1342.00,0.0126
1341.00,0.0123
1340.00,0.0120
1339.00,0.0118
1338.00,0.0117
1337.00,0.0116
1336.00,0.0117
1335.00,0.0118
1334.00,0.0121
1333.00,0.0125
1332.00,0.0129
1331.00,0.0132
1330.00,0.0133
1329.00,0.0131
1328.00,0.0129
1327.00,0.0124
1326.00,0.0120
1325.00,0.0114
1324.00,0.0109
1323.00,0.0104
1322.00,0.0100
1321.00,0.0097
1320.00,0.0095
1319.00,0.0093
1318.00,0.0091
1317.00,0.0090
1316.00,0.0089
1315.00,0.0088
1314.00,0.0088
1313.00,0.0088
1312.00,0.0089
1311.00,0.0091
1310.00,0.0095
1309.00,0.0102
1308.00,0.0111
1307.00,0.0122
1306.00,0.0133
1305.00,0.0141
1304.00,0.0143
1303.00,0.0140
1302.00,0.0135
1301.00,0.0131
1300.00,0.0128
1299.00,0.0127
1298.00,0.0126
1297.00,0.0126
1296.00,0.0124
1295.00,0.0122
1294.00,0.0118
1293.00,0.0113
1292.00,0.0109
1291.00,0.0105
1290.00,0.0101
1289.00,0.0097
1288.00,0.0094
1287.00,0.0091
1286.00,0.0089
1285.00,0.0087
1284.00,0.0086
1283.00,0.0084
1282.00,0.0083
1281.00,0.0081
1280.00,0.0080
1279.00,0.0080
1278.00,0.0079
1277.00,0.0079
1276.00,0.0079
1275.00,0.0079
1274.00,0.0079
1273.00,0.0079
1272.00,0.0079
1271.00,0.0079
1270.00,0.0080
1269.00,0.0083
1268.00,0.0086
1267.00,0.0089
1266.00,0.0093
1265.00,0.0097
1264.00,0.0101
1263.00,0.0105
1262.00,0.0109
1261.00,0.0113
1260.00,0.0119
1259.00,0.0125
1258.00,0.0131
1257.00,0.0135
1256.00,0.0136
1255.00,0.0132
1254.00,0.0125
1253.00,0.0116
1252.00,0.0108
1251.00,0.0100
1250.00,0.0094
1249.00,0.0090
1248.00,0.0086
1247.00,0.0084
1246.00,0.0082
1245.00,0.0080
1244.00,0.0078
1243.00,0.0077
1242.00,0.0077
1241.00,0.0076
1240.00,0.0075
1239.00,0.0075
1238.00,0.0074
1237.00,0.0074
1236.00,0.0074
1235.00,0.0074
1234.00,0.0075
1233.00,0.0075
1232.00,0.0075
1231.00,0.0076
1230.00,0.0077
1229.00,0.0078
1228.00,0.0080
1227.00,0.0082
1226.00,0.0085
1225.00,0.0087
1224.00,0.0090
1223.00,0.0093
1222.00,0.0096
1221.00,0.0098
1220.00,0.0099
1219.00,0.0100
1218.00,0.0099
1217.00,0.0097
1216.00,0.0095
1215.00,0.0093
1214.00,0.0091
1213.00,0.0089
1212.00,0.0086
1211.00,0.0084
1210.00,0.0083
1209.00,0.0081
1208.00,0.0080
1207.00,0.0079
1206.00,0.0077
1205.00,0.0077
1204.00,0.0076
1203.00,0.0076
1202.00,0.0077
1201.00,0.0076
1200.00,0.0076
1199.00,0.0076
1198.00,0.0076
1197.00,0.0076
1196.00,0.0077
1195.00,0.0077
1194.00,0.0077
1193.00,0.0077
1192.00,0.0077
1191.00,0.0077
1190.00,0.0077
1189.00,0.0076
1188.00,0.0076
1187.00,0.0076
1186.00,0.0077
1185.00,0.0078
1184.00,0.0079
1183.00,0.0081
1182.00,0.0083
1181.00,0.0085
1180.00,0.0089
1179.00,0.0093
1178.00,0.0100
1177.00,0.0108
1176.00,0.0119
1175.00,0.0134
1174.00,0.0154
1173.00,0.0178
1172.00,0.0208
1171.00,0.0240
1170.00,0.0271
1169.00,0.0296
1168.00,0.0311
1167.00,0.0314
1166.00,0.0307
1165.00,0.0292
1164.00,0.0275
1163.00,0.0257
1162.00,0.0242
1161.00,0.0230
1160.00,0.0220
1159.00,0.0214
1158.00,0.0209
1157.00,0.0205
1156.00,0.0203
1155.00,0.0202
1154.00,0.0200
1153.00,0.0196
1152.00,0.0191
1151.00,0.0185
1150.00,0.0177
1149.00,0.0168
1148.00,0.0159
1147.00,0.0150
1146.00,0.0142
1145.00,0.0133
1144.00,0.0126
1143.00,0.0119
1142.00,0.0114
1141.00,0.0108
1140.00,0.0104
1139.00,0.0099
1138.00,0.0096
1137.00,0.0093
1136.00,0.0091
1135.00,0.0089
1134.00,0.0087
1133.00,0.0086
1132.00,0.0085
1131.00,0.0084
1130.00,0.0084
1129.00,0.0084
1128.00,0.0084
1127.00,0.0085
1126.00,0.0086
1125.00,0.0087
1124.00,0.0088
1123.00,0.0090
1122.00,0.0091
1121.00,0.0091
1120.00,0.0092
1119.00,0.0093
1118.00,0.0094
1117.00,0.0095
1116.00,0.0096
1115.00,0.0098
1114.00,0.0099
1113.00,0.0101
1112.00,0.0103
1111.00,0.0106
1110.00,0.0109
1109.00,0.0113
1108.00,0.0117
1107.00,0.0122
1106.00,0.0128
1105.00,0.0134
1104.00,0.0139
1103.00,0.0142
1102.00,0.0142
1101.00,0.0139
1100.00,0.0133
1099.00,0.0126
1098.00,0.0120
1097.00,0.0113
1096.00,0.0109
1095.00,0.0106
1094.00,0.0105
1093.00,0.0103
1092.00,0.0101
1091.00,0.0099
1090.00,0.0097
1089.00,0.0095
1088.00,0.0093
1087.00,0.0092
1086.00,0.0091
1085.00,0.0090
1084.00,0.0090
1083.00,0.0089
1082.00,0.0089
1081.00,0.0088
1080.00,0.0087
1079.00,0.0085
1078.00,0.0084
1077.00,0.0083
1076.00,0.0082
1075.00,0.0082
1074.00,0.0082
1073.00,0.0082
1072.00,0.0081
1071.00,0.0081
1070.00,0.0080
1069.00,0.0080
1068.00,0.0079
1067.00,0.0079
1066.00,0.0079
1065.00,0.0078
1064.00,0.0078
1063.00,0.0078
1062.00,0.0078
1061.00,0.0079
1060.00,0.0079
1059.00,0.0081
1058.00,0.0081
1057.00,0.0082
1056.00,0.0081
1055.00,0.0081
1054.00,0.0081
1053.00,0.0082
1052.00,0.0085
1051.00,0.0088
1050.00,0.0091
1049.00,0.0094
1048.00,0.0096
1047.00,0.0099
1046.00,0.0102
1045.00,0.0103
1044.00,0.0104
1043.00,0.0103
1042.00,0.0100
1041.00,0.0098
1040.00,0.0096
1039.00,0.0096
1038.00,0.0096
1037.00,0.0097
1036.00,0.0098
1035.00,0.0097
1034.00,0.0096
1033.00,0.0094
1032.00,0.0091
1031.00,0.0090
1030.00,0.0089
1029.00,0.0087
1028.00,0.0086
1027.00,0.0086
1026.00,0.0086
1025.00,0.0086
1024.00,0.0087
1023.00,0.0087
1022.00,0.0087
1021.00,0.0088
1020.00,0.0089
1019.00,0.0090
1018.00,0.0091
1017.00,0.0092
1016.00,0.0093
1015.00,0.0095
1014.00,0.0096
1013.00,0.0098
1012.00,0.0101
1011.00,0.0103
1010.00,0.0106
1009.00,0.0108
1008.00,0.0112
1007.00,0.0119
1006.00,0.0128
1005.00,0.0140
1004.00,0.0157
1003.00,0.0182
1002.00,0.0213
1001.00,0.0252
1000.00,0.0292
999.00,0.0326
998.00,0.0343
997.00,0.0337
996.00,0.0310
995.00,0.0271
994.00,0.0229
993.00,0.0192
992.00,0.0164
991.00,0.0143
990.00,0.0129
989.00,0.0120
988.00,0.0113
987.00,0.0110
986.00,0.0109
985.00,0.0111
984.00,0.0115
983.00,0.0123
982.00,0.0134
981.00,0.0149
980.00,0.0171
979.00,0.0199
978.00,0.0236
977.00,0.0280
976.00,0.0328
975.00,0.0372
974.00,0.0406
973.00,0.0417
972.00,0.0401
971.00,0.0362
970.00,0.0309
969.00,0.0256
968.00,0.0211
967.00,0.0177
966.00,0.0152
965.00,0.0135
964.00,0.0123
963.00,0.0113
962.00,0.0106
961.00,0.0101
960.00,0.0096
959.00,0.0092
958.00,0.0089
957.00,0.0086
956.00,0.0084
955.00,0.0081
954.00,0.0079
953.00,0.0076
952.00,0.0075
951.00,0.0074
950.00,0.0073
949.00,0.0073
948.00,0.0073
947.00,0.0074
946.00,0.0076
945.00,0.0080
944.00,0.0083
943.00,0.0087
942.00,0.0090
941.00,0.0093
940.00,0.0093
939.00,0.0091
938.00,0.0087
937.00,0.0082
936.00,0.0076
935.00,0.0071
934.00,0.0067
933.00,0.0066
932.00,0.0065
931.00,0.0065
930.00,0.0064
929.00,0.0063
928.00,0.0061
927.00,0.0059
926.00,0.0059
925.00,0.0060
924.00,0.0062
923.00,0.0062
922.00,0.0062
921.00,0.0061
920.00,0.0061
919.00,0.0061
918.00,0.0061
917.00,0.0062
916.00,0.0062
915.00,0.0063
914.00,0.0064
913.00,0.0065
912.00,0.0066
911.00,0.0067
910.00,0.0069
909.00,0.0072
908.00,0.0076
907.00,0.0081
906.00,0.0088
905.00,0.0098
904.00,0.0110
903.00,0.0127
902.00,0.0145
901.00,0.0163
900.00,0.0175
899.00,0.0177
898.00,0.0170
897.00,0.0154
896.00,0.0136
895.00,0.0118
894.00,0.0104
893.00,0.0093
892.00,0.0086
891.00,0.0081
890.00,0.0078
889.00,0.0076
888.00,0.0075
887.00,0.0073
886.00,0.0072
885.00,0.0072
884.00,0.0071
883.00,0.0072
882.00,0.0072
881.00,0.0072
880.00,0.0073
879.00,0.0073
878.00,0.0074
877.00,0.0075
876.00,0.0075
875.00,0.0076
874.00,0.0077
873.00,0.0078
872.00,0.0079
871.00,0.0079
870.00,0.0079
869.00,0.0077
868.00,0.0076
867.00,0.0076
866.00,0.0078
865.00,0.0079
864.00,0.0079
863.00,0.0079
862.00,0.0080
861.00,0.0081
860.00,0.0083
859.00,0.0085
858.00,0.0087
857.00,0.0089
856.00,0.0090
855.00,0.0091
854.00,0.0093
853.00,0.0096
852.00,0.0099
851.00,0.0103
850.00,0.0108
849.00,0.0115
848.00,0.0124
847.00,0.0137
846.00,0.0157
845.00,0.0190
844.00,0.0238
843.00,0.0293
842.00,0.0338
841.00,0.0352
840.00,0.0328
839.00,0.0279
838.00,0.0224
837.00,0.0181
836.00,0.0152
835.00,0.0134
834.00,0.0123
833.00,0.0117
832.00,0.0114
831.00,0.0112
830.00,0.0110
829.00,0.0109
828.00,0.0107
827.00,0.0105
826.00,0.0104
825.00,0.0103
824.00,0.0102
823.00,0.0101
822.00,0.0101
821.00,0.0103
820.00,0.0107
819.00,0.0111
818.00,0.0117
817.00,0.0122
816.00,0.0130
815.00,0.0140
814.00,0.0155
813.00,0.0173
812.00,0.0192
811.00,0.0210
810.00,0.0222
809.00,0.0228
808.00,0.0224
807.00,0.0212
806.00,0.0196
805.00,0.0179
804.00,0.0163
803.00,0.0150
802.00,0.0140
801.00,0.0132
800.00,0.0126
799.00,0.0122
798.00,0.0119
797.00,0.0115
796.00,0.0110
795.00,0.0106
794.00,0.0102
793.00,0.0099
792.00,0.0096
791.00,0.0092
790.00,0.0089
789.00,0.0086
788.00,0.0082
787.00,0.0078
786.00,0.0075
785.00,0.0073
784.00,0.0071
783.00,0.0068
782.00,0.0066
781.00,0.0066
780.00,0.0067
779.00,0.0068
778.00,0.0067
777.00,0.0066
776.00,0.0066
775.00,0.0066
774.00,0.0066
773.00,0.0065
772.00,0.0065
771.00,0.0065
770.00,0.0066
769.00,0.0066
768.00,0.0066
767.00,0.0065
766.00,0.0063
765.00,0.0062
764.00,0.0062
763.00,0.0062
762.00,0.0064
761.00,0.0067
760.00,0.0069
759.00,0.0070
758.00,0.0069
757.00,0.0068
756.00,0.0067
755.00,0.0069
754.00,0.0072
753.00,0.0075
752.00,0.0077
751.00,0.0078
750.00,0.0078
749.00,0.0079
748.00,0.0081
747.00,0.0084
746.00,0.0087
745.00,0.0089
744.00,0.0089
743.00,0.0090
742.00,0.0092
741.00,0.0094
740.00,0.0097
739.00,0.0101
738.00,0.0105
737.00,0.0110
736.00,0.0115
735.00,0.0119
734.00,0.0122
733.00,0.0127
732.00,0.0133
731.00,0.0142
730.00,0.0150
729.00,0.0154
728.00,0.0156
727.00,0.0154
726.00,0.0153
725.00,0.0155
724.00,0.0160
723.00,0.0167
722.00,0.0175
721.00,0.0180
720.00,0.0179
719.00,0.0171
718.00,0.0159
717.00,0.0146
716.00,0.0136
715.00,0.0128
714.00,0.0122
713.00,0.0118
712.00,0.0114
711.00,0.0111
710.00,0.0108
709.00,0.0106
708.00,0.0105
707.00,0.0103
706.00,0.0101
705.00,0.0099
704.00,0.0097
703.00,0.0095
702.00,0.0094
701.00,0.0093
700.00,0.0091
699.00,0.0091
698.00,0.0090
697.00,0.0091
696.00,0.0091
695.00,0.0091
694.00,0.0089
693.00,0.0088
692.00,0.0087
691.00,0.0088
690.00,0.0090
689.00,0.0091
688.00,0.0091
687.00,0.0090
686.00,0.0090
685.00,0.0091
684.00,0.0093
683.00,0.0094
682.00,0.0095
681.00,0.0095
680.00,0.0094
679.00,0.0093
678.00,0.0092
677.00,0.0091
676.00,0.0090
675.00,0.0090
674.00,0.0089
673.00,0.0088
672.00,0.0089
671.00,0.0090
670.00,0.0091
669.00,0.0090
668.00,0.0087
667.00,0.0085
666.00,0.0086
665.00,0.0086
664.00,0.0087
663.00,0.0086
662.00,0.0086
661.00,0.0086
660.00,0.0086
659.00,0.0085
658.00,0.0084
657.00,0.0082
656.00,0.0080
655.00,0.0078
654.00,0.0078
653.00,0.0079
652.00,0.0080
651.00,0.0081
650.00,0.0081
649.00,0.0081
648.00,0.0082
647.00,0.0084
646.00,0.0086
645.00,0.0087
644.00,0.0088
643.00,0.0087
642.00,0.0086
641.00,0.0084
640.00,0.0083
639.00,0.0082
638.00,0.0081
637.00,0.0082
636.00,0.0082
635.00,0.0081
634.00,0.0081
633.00,0.0081
632.00,0.0082
631.00,0.0084
630.00,0.0085
629.00,0.0086
628.00,0.0086
627.00,0.0086
626.00,0.0087
625.00,0.0086
624.00,0.0085
623.00,0.0083
622.00,0.0082
621.00,0.0080
620.00,0.0079
619.00,0.0079
618.00,0.0080
617.00,0.0082
616.00,0.0084
615.00,0.0085
614.00,0.0085
613.00,0.0085
612.00,0.0086
611.00,0.0084
610.00,0.0081
609.00,0.0078
608.00,0.0076
607.00,0.0078
606.00,0.0082
605.00,0.0087
604.00,0.0090
603.00,0.0089
602.00,0.0086
601.00,0.0083
600.00,0.0080
599.00,0.0077
598.00,0.0074
597.00,0.0074
596.00,0.0075
595.00,0.0077
594.00,0.0080
593.00,0.0083
592.00,0.0084
591.00,0.0084
590.00,0.0084
589.00,0.0084
588.00,0.0085
587.00,0.0086
586.00,0.0086
585.00,0.0085
584.00,0.0084
583.00,0.0083
582.00,0.0084
581.00,0.0085
580.00,0.0085
579.00,0.0086
578.00,0.0086
577.00,0.0088
576.00,0.0089
575.00,0.0090
574.00,0.0089
573.00,0.0086
572.00,0.0083
571.00,0.0080
570.00,0.0078
569.00,0.0077
568.00,0.0077
567.00,0.0078
566.00,0.0079
565.00,0.0081
564.00,0.0086
563.00,0.0091
562.00,0.0093
561.00,0.0090
560.00,0.0084
559.00,0.0078
558.00,0.0076
557.00,0.0080
556.00,0.0085
555.00,0.0086
554.00,0.0083
553.00,0.0079
552.00,0.0076
551.00,0.0076
550.00,0.0077
549.00,0.0078
548.00,0.0079
547.00,0.0081
546.00,0.0082
545.00,0.0081
544.00,0.0079
543.00,0.0079
542.00,0.0081
541.00,0.0084
540.00,0.0087
539.00,0.0088
538.00,0.0090
537.00,0.0091
536.00,0.0090
535.00,0.0090
534.00,0.0092
533.00,0.0094
532.00,0.0097
531.00,0.0096
530.00,0.0095
529.00,0.0096
528.00,0.0100
527.00,0.0102
526.00,0.0100
525.00,0.0092
524.00,0.0085
523.00,0.0081
522.00,0.0082
521.00,0.0085
520.00,0.0088
519.00,0.0089
518.00,0.0087
517.00,0.0081
516.00,0.0075
515.00,0.0071
514.00,0.0071
513.00,0.0073
512.00,0.0076
511.00,0.0077
510.00,0.0076
509.00,0.0076
508.00,0.0077
507.00,0.0077
506.00,0.0075
505.00,0.0072
504.00,0.0068
503.00,0.0067
502.00,0.0069
501.00,0.0072
500.00,0.0073
499.00,0.0072
498.00,0.0071
497.00,0.0070
496.00,0.0071
495.00,0.0071
494.00,0.0070
493.00,0.0065
492.00,0.0061
491.00,0.0059
490.00,0.0062
489.00,0.0066
488.00,0.0069
487.00,0.0068
486.00,0.0065
485.00,0.0065
484.00,0.0069
483.00,0.0076
482.00,0.0084
481.00,0.0089
480.00,0.0091
479.00,0.0088
478.00,0.0082
477.00,0.0077
476.00,0.0076
475.00,0.0079
474.00,0.0084
473.00,0.0087
472.00,0.0085
471.00,0.0084
470.00,0.0086
469.00,0.0093
468.00,0.0101
467.00,0.0107
466.00,0.0110
465.00,0.0111
464.00,0.0116
463.00,0.0126
462.00,0.0137
461.00,0.0144
460.00,0.0147
459.00,0.0150
458.00,0.0158
457.00,0.0166
456.00,0.0169
455.00,0.0167
454.00,0.0155
453.00,0.0143
452.00,0.0135
451.00,0.0132
450.00,0.0131
