Created as New Dataset,Sample 012 By Administrator Date Thursday, September 04 2025
cm-1,A
4000.00,0.0010
3999.00,0.0010
3998.00,0.0010
3997.00,0.0010
3996.00,0.0010
3995.00,0.0010
3994.00,0.0010
3993.00,0.0010
3992.00,0.0010
3991.00,0.0010
3990.00,0.0010
3989.00,0.0009
3988.00,0.0009
3987.00,0.0009
3986.00,0.0009
3985.00,0.0009
3984.00,0.0009
3983.00,0.0009
3982.00,0.0009
3981.00,0.0009
3980.00,0.0008
3979.00,0.0008
3978.00,0.0008
3977.00,0.0008
3976.00,0.0008
3975.00,0.0009
3974.00,0.0009
3973.00,0.0009
3972.00,0.0009
3971.00,0.0008
3970.00,0.0008
3969.00,0.0008
3968.00,0.0008
3967.00,0.0008
3966.00,0.0008
3965.00,0.0008
3964.00,0.0008
3963.00,0.0008
3962.00,0.0008
3961.00,0.0008
3960.00,0.0008
3959.00,0.0008
3958.00,0.0007
3957.00,0.0008
3956.00,0.0008
3955.00,0.0008
3954.00,0.0008
3953.00,0.0008
3952.00,0.0008
3951.00,0.0007
3950.00,0.0007
3949.00,0.0007
3948.00,0.0007
3947.00,0.0007
3946.00,0.0006
3945.00,0.0007
3944.00,0.0007
3943.00,0.0007
3942.00,0.0007
3941.00,0.0007
3940.00,0.0007
3939.00,0.0007
3938.00,0.0008
3937.00,0.0008
3936.00,0.0008
3935.00,0.0008
3934.00,0.0008
3933.00,0.0008
3932.00,0.0008
3931.00,0.0007
3930.00,0.0007
3929.00,0.0007
3928.00,0.0008
3927.00,0.0008
3926.00,0.0008
3925.00,0.0008
3924.00,0.0008
3923.00,0.0008
3922.00,0.0008
3921.00,0.0008
3920.00,0.0008
3919.00,0.0008
3918.00,0.0008
3917.00,0.0009
3916.00,0.0009
3915.00,0.0009
3914.00,0.0009
3913.00,0.0008
3912.00,0.0008
3911.00,0.0008
3910.00,0.0008
3909.00,0.0008
3908.00,0.0008
3907.00,0.0008
3906.00,0.0008
3905.00,0.0008
3904.00,0.0008
3903.00,0.0008
3902.00,0.0007
3901.00,0.0007
3900.00,0.0007
3899.00,0.0007
3898.00,0.0007
3897.00,0.0007
3896.00,0.0007
3895.00,0.0007
3894.00,0.0007
3893.00,0.0007
3892.00,0.0007
3891.00,0.0008
3890.00,0.0007
3889.00,0.0007
3888.00,0.0007
3887.00,0.0007
3886.00,0.0007
3885.00,0.0007
3884.00,0.0007
3883.00,0.0006
3882.00,0.0006
3881.00,0.0007
3880.00,0.0007
3879.00,0.0007
3878.00,0.0006
3877.00,0.0006
3876.00,0.0006
3875.00,0.0006
3874.00,0.0007
3873.00,0.0007
3872.00,0.0006
3871.00,0.0006
3870.00,0.0006
3869.00,0.0006
3868.00,0.0006
3867.00,0.0006
3866.00,0.0006
3865.00,0.0007
3864.00,0.0007
3863.00,0.0007
3862.00,0.0007
3861.00,0.0007
3860.00,0.0007
3859.00,0.0007
3858.00,0.0007
3857.00,0.0007
3856.00,0.0007
3855.00,0.0008
3854.00,0.0008
3853.00,0.0008
3852.00,0.0007
3851.00,0.0006
3850.00,0.0006
3849.00,0.0006
3848.00,0.0006
3847.00,0.0006
3846.00,0.0006
3845.00,0.0006
3844.00,0.0006
3843.00,0.0005
3842.00,0.0005
3841.00,0.0005
3840.00,0.0005
3839.00,0.0005
3838.00,0.0005
3837.00,0.0006
3836.00,0.0006
3835.00,0.0006
3834.00,0.0006
3833.00,0.0007
3832.00,0.0007
3831.00,0.0007
3830.00,0.0007
3829.00,0.0006
3828.00,0.0006
3827.00,0.0006
3826.00,0.0006
3825.00,0.0006
3824.00,0.0006
3823.00,0.0006
3822.00,0.0006
3821.00,0.0006
3820.00,0.0006
3819.00,0.0006
3818.00,0.0006
3817.00,0.0006
3816.00,0.0007
3815.00,0.0007
3814.00,0.0007
3813.00,0.0007
3812.00,0.0007
3811.00,0.0007
3810.00,0.0007
3809.00,0.0007
3808.00,0.0007
3807.00,0.0007
3806.00,0.0007
3805.00,0.0006
3804.00,0.0006
3803.00,0.0006
3802.00,0.0006
3801.00,0.0006
3800.00,0.0006
3799.00,0.0006
3798.00,0.0007
3797.00,0.0007
3796.00,0.0007
3795.00,0.0007
3794.00,0.0007
3793.00,0.0007
3792.00,0.0007
3791.00,0.0007
3790.00,0.0007
3789.00,0.0007
3788.00,0.0007
3787.00,0.0007
3786.00,0.0007
3785.00,0.0007
3784.00,0.0007
3783.00,0.0006
3782.00,0.0006
3781.00,0.0006
3780.00,0.0007
3779.00,0.0007
3778.00,0.0008
3777.00,0.0008
3776.00,0.0008
3775.00,0.0007
3774.00,0.0007
3773.00,0.0007
3772.00,0.0007
3771.00,0.0006
3770.00,0.0007
3769.00,0.0007
3768.00,0.0007
3767.00,0.0007
3766.00,0.0007
3765.00,0.0008
3764.00,0.0008
3763.00,0.0007
3762.00,0.0007
3761.00,0.0007
3760.00,0.0007
3759.00,0.0007
3758.00,0.0007
3757.00,0.0007
3756.00,0.0007
3755.00,0.0007
3754.00,0.0007
3753.00,0.0006
3752.00,0.0006
3751.00,0.0006
3750.00,0.0006
3749.00,0.0006
3748.00,0.0006
3747.00,0.0006
3746.00,0.0006
3745.00,0.0006
3744.00,0.0005
3743.00,0.0005
3742.00,0.0005
3741.00,0.0005
3740.00,0.0005
3739.00,0.0005
3738.00,0.0004
3737.00,0.0004
3736.00,0.0004
3735.00,0.0004
3734.00,0.0005
3733.00,0.0005
3732.00,0.0006
3731.00,0.0005
3730.00,0.0005
3729.00,0.0005
3728.00,0.0005
3727.00,0.0005
3726.00,0.0005
3725.00,0.0005
3724.00,0.0005
3723.00,0.0005
3722.00,0.0005
3721.00,0.0005
3720.00,0.0005
3719.00,0.0005
3718.00,0.0005
3717.00,0.0006
3716.00,0.0006
3715.00,0.0006
3714.00,0.0006
3713.00,0.0006
3712.00,0.0006
3711.00,0.0006
3710.00,0.0005
3709.00,0.0005
3708.00,0.0005
3707.00,0.0005
3706.00,0.0005
3705.00,0.0005
3704.00,0.0005
3703.00,0.0005
3702.00,0.0005
3701.00,0.0006
3700.00,0.0006
3699.00,0.0006
3698.00,0.0005
3697.00,0.0005
3696.00,0.0005
3695.00,0.0005
3694.00,0.0005
3693.00,0.0005
3692.00,0.0005
3691.00,0.0005
3690.00,0.0005
3689.00,0.0005
3688.00,0.0005
3687.00,0.0006
3686.00,0.0006
3685.00,0.0007
3684.00,0.0007
3683.00,0.0008
3682.00,0.0008
3681.00,0.0008
3680.00,0.0009
3679.00,0.0010
3678.00,0.0010
3677.00,0.0010
3676.00,0.0010
3675.00,0.0010
3674.00,0.0010
3673.00,0.0010
3672.00,0.0011
3671.00,0.0011
3670.00,0.0012
3669.00,0.0011
3668.00,0.0011
3667.00,0.0011
3666.00,0.0011
3665.00,0.0011
3664.00,0.0012
3663.00,0.0012
3662.00,0.0013
3661.00,0.0014
3660.00,0.0014
3659.00,0.0014
3658.00,0.0014
3657.00,0.0014
3656.00,0.0014
3655.00,0.0014
3654.00,0.0013
3653.00,0.0013
3652.00,0.0013
3651.00,0.0012
3650.00,0.0012
3649.00,0.0012
3648.00,0.0011
3647.00,0.0011
3646.00,0.0010
3645.00,0.0010
3644.00,0.0010
3643.00,0.0010
3642.00,0.0011
3641.00,0.0011
3640.00,0.0011
3639.00,0.0011
3638.00,0.0011
3637.00,0.0011
3636.00,0.0010
3635.00,0.0010
3634.00,0.0009
3633.00,0.0009
3632.00,0.0009
3631.00,0.0009
3630.00,0.0009
3629.00,0.0009
3628.00,0.0009
3627.00,0.0008
3626.00,0.0008
3625.00,0.0007
3624.00,0.0007
3623.00,0.0007
3622.00,0.0006
3621.00,0.0006
3620.00,0.0006
3619.00,0.0006
3618.00,0.0006
3617.00,0.0006
3616.00,0.0006
3615.00,0.0006
3614.00,0.0006
3613.00,0.0007
3612.00,0.0007
3611.00,0.0007
3610.00,0.0007
3609.00,0.0007
3608.00,0.0007
3607.00,0.0007
3606.00,0.0007
3605.00,0.0007
3604.00,0.0007
3603.00,0.0008
3602.00,0.0008
3601.00,0.0007
3600.00,0.0007
3599.00,0.0007
3598.00,0.0007
3597.00,0.0007
3596.00,0.0007
3595.00,0.0007
3594.00,0.0007
3593.00,0.0008
3592.00,0.0008
3591.00,0.0008
3590.00,0.0008
3589.00,0.0008
3588.00,0.0009
3587.00,0.0009
3586.00,0.0009
3585.00,0.0009
3584.00,0.0009
3583.00,0.0009
3582.00,0.0009
3581.00,0.0009
3580.00,0.0009
3579.00,0.0009
3578.00,0.0010
3577.00,0.0010
3576.00,0.0010
3575.00,0.0010
3574.00,0.0010
3573.00,0.0011
3572.00,0.0011
3571.00,0.0011
3570.00,0.0010
3569.00,0.0010
3568.00,0.0010
3567.00,0.0011
3566.00,0.0011
3565.00,0.0011
3564.00,0.0012
3563.00,0.0012
3562.00,0.0012
3561.00,0.0012
3560.00,0.0012
3559.00,0.0012
3558.00,0.0012
3557.00,0.0012
3556.00,0.0013
3555.00,0.0013
3554.00,0.0013
3553.00,0.0013
3552.00,0.0013
3551.00,0.0014
3550.00,0.0014
3549.00,0.0014
3548.00,0.0014
3547.00,0.0015
3546.00,0.0015
3545.00,0.0015
3544.00,0.0015
3543.00,0.0016
3542.00,0.0016
3541.00,0.0016
3540.00,0.0016
3539.00,0.0016
3538.00,0.0016
3537.00,0.0016
3536.00,0.0016
3535.00,0.0017
3534.00,0.0017
3533.00,0.0017
3532.00,0.0017
3531.00,0.0017
3530.00,0.0017
3529.00,0.0017
3528.00,0.0017
3527.00,0.0018
3526.00,0.0018
3525.00,0.0018
3524.00,0.0019
3523.00,0.0019
3522.00,0.0019
3521.00,0.0019
3520.00,0.0019
3519.00,0.0020
3518.00,0.0020
3517.00,0.0020
3516.00,0.0020
3515.00,0.0020
3514.00,0.0020
3513.00,0.0020
3512.00,0.0020
3511.00,0.0020
3510.00,0.0021
3509.00,0.0021
3508.00,0.0021
3507.00,0.0021
3506.00,0.0022
3505.00,0.0022
3504.00,0.0022
3503.00,0.0022
3502.00,0.0022
3501.00,0.0022
3500.00,0.0023
3499.00,0.0023
3498.00,0.0023
3497.00,0.0023
3496.00,0.0023
3495.00,0.0023
3494.00,0.0024
3493.00,0.0024
3492.00,0.0024
3491.00,0.0024
3490.00,0.0024
3489.00,0.0024
3488.00,0.0024
3487.00,0.0024
3486.00,0.0025
3485.00,0.0025
3484.00,0.0025
3483.00,0.0025
3482.00,0.0025
3481.00,0.0025
3480.00,0.0025
3479.00,0.0025
3478.00,0.0025
3477.00,0.0025
3476.00,0.0026
3475.00,0.0026
3474.00,0.0026
3473.00,0.0026
3472.00,0.0026
3471.00,0.0026
3470.00,0.0026
3469.00,0.0027
3468.00,0.0027
3467.00,0.0028
3466.00,0.0028
3465.00,0.0029
3464.00,0.0029
3463.00,0.0030
3462.00,0.0030
3461.00,0.0030
3460.00,0.0030
3459.00,0.0029
3458.00,0.0029
3457.00,0.0030
3456.00,0.0030
3455.00,0.0030
3454.00,0.0030
3453.00,0.0030
3452.00,0.0030
3451.00,0.0030
3450.00,0.0030
3449.00,0.0030
3448.00,0.0030
3447.00,0.0030
3446.00,0.0030
3445.00,0.0031
3444.00,0.0032
3443.00,0.0032
3442.00,0.0032
3441.00,0.0032
3440.00,0.0032
3439.00,0.0032
3438.00,0.0032
3437.00,0.0033
3436.00,0.0033
3435.00,0.0033
3434.00,0.0033
3433.00,0.0033
3432.00,0.0033
3431.00,0.0033
3430.00,0.0033
3429.00,0.0033
3428.00,0.0033
3427.00,0.0033
3426.00,0.0034
3425.00,0.0034
3424.00,0.0034
3423.00,0.0034
3422.00,0.0034
3421.00,0.0034
3420.00,0.0034
3419.00,0.0034
3418.00,0.0034
3417.00,0.0035
3416.00,0.0035
3415.00,0.0036
3414.00,0.0037
3413.00,0.0037
3412.00,0.0037
3411.00,0.0037
3410.00,0.0038
3409.00,0.0038
3408.00,0.0038
3407.00,0.0037
3406.00,0.0037
3405.00,0.0037
3404.00,0.0037
3403.00,0.0038
3402.00,0.0038
3401.00,0.0039
3400.00,0.0039
3399.00,0.0039
3398.00,0.0039
3397.00,0.0039
3396.00,0.0039
3395.00,0.0039
3394.00,0.0038
3393.00,0.0038
3392.00,0.0038
3391.00,0.0038
3390.00,0.0038
3389.00,0.0038
3388.00,0.0038
3387.00,0.0038
3386.00,0.0038
3385.00,0.0038
3384.00,0.0038
3383.00,0.0038
3382.00,0.0038
3381.00,0.0039
3380.00,0.0039
3379.00,0.0039
3378.00,0.0039
3377.00,0.0039
3376.00,0.0039
3375.00,0.0039
3374.00,0.0039
3373.00,0.0039
3372.00,0.0039
3371.00,0.0038
3370.00,0.0038
3369.00,0.0038
3368.00,0.0038
3367.00,0.0039
3366.00,0.0039
3365.00,0.0039
3364.00,0.0039
3363.00,0.0039
3362.00,0.0039
3361.00,0.0039
3360.00,0.0039
3359.00,0.0039
3358.00,0.0039
3357.00,0.0039
3356.00,0.0039
3355.00,0.0039
3354.00,0.0040
3353.00,0.0040
3352.00,0.0040
3351.00,0.0040
3350.00,0.0039
3349.00,0.0039
3348.00,0.0040
3347.00,0.0040
3346.00,0.0039
3345.00,0.0039
3344.00,0.0039
3343.00,0.0039
3342.00,0.0039
3341.00,0.0039
3340.00,0.0039
3339.00,0.0039
3338.00,0.0039
3337.00,0.0039
3336.00,0.0038
3335.00,0.0038
3334.00,0.0038
3333.00,0.0038
3332.00,0.0038
3331.00,0.0038
3330.00,0.0038
3329.00,0.0038
3328.00,0.0038
3327.00,0.0038
3326.00,0.0038
3325.00,0.0038
3324.00,0.0038
3323.00,0.0038
3322.00,0.0038
3321.00,0.0038
3320.00,0.0037
3319.00,0.0037
3318.00,0.0037
3317.00,0.0037
3316.00,0.0037
3315.00,0.0037
3314.00,0.0037
3313.00,0.0037
3312.00,0.0038
3311.00,0.0038
3310.00,0.0038
3309.00,0.0039
3308.00,0.0039
3307.00,0.0039
3306.00,0.0040
3305.00,0.0040
3304.00,0.0040
3303.00,0.0040
3302.00,0.0040
3301.00,0.0039
3300.00,0.0039
3299.00,0.0039
3298.00,0.0038
3297.00,0.0038
3296.00,0.0038
3295.00,0.0038
3294.00,0.0038
3293.00,0.0038
3292.00,0.0037
3291.00,0.0037
3290.00,0.0037
3289.00,0.0037
3288.00,0.0036
3287.00,0.0036
3286.00,0.0035
3285.00,0.0035
3284.00,0.0035
3283.00,0.0035
3282.00,0.0034
3281.00,0.0034
3280.00,0.0034
3279.00,0.0034
3278.00,0.0034
3277.00,0.0034
3276.00,0.0034
3275.00,0.0034
3274.00,0.0034
3273.00,0.0034
3272.00,0.0034
3271.00,0.0033
3270.00,0.0034
3269.00,0.0034
3268.00,0.0034
3267.00,0.0034
3266.00,0.0034
3265.00,0.0034
3264.00,0.0034
3263.00,0.0034
3262.00,0.0033
3261.00,0.0033
3260.00,0.0032
3259.00,0.0032
3258.00,0.0032
3257.00,0.0032
3256.00,0.0032
3255.00,0.0032
3254.00,0.0032
3253.00,0.0032
3252.00,0.0032
3251.00,0.0032
3250.00,0.0032
3249.00,0.0032
3248.00,0.0031
3247.00,0.0031
3246.00,0.0031
3245.00,0.0031
3244.00,0.0031
3243.00,0.0031
3242.00,0.0031
3241.00,0.0031
3240.00,0.0031
3239.00,0.0031
3238.00,0.0031
3237.00,0.0031
3236.00,0.0031
3235.00,0.0031
3234.00,0.0031
3233.00,0.0031
3232.00,0.0031
3231.00,0.0032
3230.00,0.0032
3229.00,0.0032
3228.00,0.0032
3227.00,0.0032
3226.00,0.0032
3225.00,0.0032
3224.00,0.0032
3223.00,0.0033
3222.00,0.0033
3221.00,0.0033
3220.00,0.0034
3219.00,0.0034
3218.00,0.0034
3217.00,0.0035
3216.00,0.0035
3215.00,0.0035
3214.00,0.0036
3213.00,0.0036
3212.00,0.0036
3211.00,0.0036
3210.00,0.0036
3209.00,0.0036
3208.00,0.0036
3207.00,0.0036
3206.00,0.0037
3205.00,0.0037
3204.00,0.0037
3203.00,0.0037
3202.00,0.0037
3201.00,0.0037
3200.00,0.0037
3199.00,0.0037
3198.00,0.0037
3197.00,0.0038
3196.00,0.0038
3195.00,0.0038
3194.00,0.0038
3193.00,0.0038
3192.00,0.0038
3191.00,0.0038
3190.00,0.0038
3189.00,0.0038
3188.00,0.0038
3187.00,0.0038
3186.00,0.0037
3185.00,0.0037
3184.00,0.0036
3183.00,0.0036
3182.00,0.0036
3181.00,0.0036
3180.00,0.0036
3179.00,0.0036
3178.00,0.0035
3177.00,0.0035
3176.00,0.0034
3175.00,0.0034
3174.00,0.0035
3173.00,0.0035
3172.00,0.0034
3171.00,0.0034
3170.00,0.0034
3169.00,0.0033
3168.00,0.0033
3167.00,0.0033
3166.00,0.0032
3165.00,0.0032
3164.00,0.0032
3163.00,0.0032
3162.00,0.0032
3161.00,0.0032
3160.00,0.0033
3159.00,0.0033
3158.00,0.0032
3157.00,0.0032
3156.00,0.0033
3155.00,0.0033
3154.00,0.0033
3153.00,0.0033
3152.00,0.0033
3151.00,0.0033
3150.00,0.0033
3149.00,0.0032
3148.00,0.0032
3147.00,0.0031
3146.00,0.0031
3145.00,0.0031
3144.00,0.0031
3143.00,0.0031
3142.00,0.0032
3141.00,0.0032
3140.00,0.0032
3139.00,0.0032
3138.00,0.0032
3137.00,0.0032
3136.00,0.0032
3135.00,0.0031
3134.00,0.0031
3133.00,0.0030
3132.00,0.0030
3131.00,0.0030
3130.00,0.0030
3129.00,0.0030
3128.00,0.0030
3127.00,0.0030
3126.00,0.0029
3125.00,0.0028
3124.00,0.0028
3123.00,0.0028
3122.00,0.0028
3121.00,0.0028
3120.00,0.0028
3119.00,0.0028
3118.00,0.0027
3117.00,0.0027
3116.00,0.0027
3115.00,0.0027
3114.00,0.0027
3113.00,0.0027
3112.00,0.0027
3111.00,0.0027
3110.00,0.0026
3109.00,0.0026
3108.00,0.0026
3107.00,0.0026
3106.00,0.0026
3105.00,0.0026
3104.00,0.0025
3103.00,0.0025
3102.00,0.0025
3101.00,0.0025
3100.00,0.0025
3099.00,0.0025
3098.00,0.0026
3097.00,0.0026
3096.00,0.0026
3095.00,0.0026
3094.00,0.0026
3093.00,0.0025
3092.00,0.0025
3091.00,0.0025
3090.00,0.0025
3089.00,0.0025
3088.00,0.0025
3087.00,0.0024
3086.00,0.0024
3085.00,0.0025
3084.00,0.0025
3083.00,0.0025
3082.00,0.0025
3081.00,0.0025
3080.00,0.0025
3079.00,0.0026
3078.00,0.0026
3077.00,0.0026
3076.00,0.0025
3075.00,0.0025
3074.00,0.0025
3073.00,0.0026
3072.00,0.0026
3071.00,0.0026
3070.00,0.0026
3069.00,0.0026
3068.00,0.0026
3067.00,0.0026
3066.00,0.0026
3065.00,0.0026
3064.00,0.0026
3063.00,0.0026
3062.00,0.0027
3061.00,0.0027
3060.00,0.0027
3059.00,0.0028
3058.00,0.0028
3057.00,0.0028
3056.00,0.0029
3055.00,0.0029
3054.00,0.0029
3053.00,0.0029
3052.00,0.0029
3051.00,0.0029
3050.00,0.0029
3049.00,0.0029
3048.00,0.0029
3047.00,0.0030
3046.00,0.0030
3045.00,0.0030
3044.00,0.0030
3043.00,0.0030
3042.00,0.0030
3041.00,0.0031
3040.00,0.0031
3039.00,0.0032
3038.00,0.0032
3037.00,0.0033
3036.00,0.0033
3035.00,0.0033
3034.00,0.0033
3033.00,0.0034
3032.00,0.0034
3031.00,0.0034
3030.00,0.0035
3029.00,0.0036
3028.00,0.0036
3027.00,0.0037
3026.00,0.0037
3025.00,0.0038
3024.00,0.0038
3023.00,0.0039
3022.00,0.0040
3021.00,0.0041
3020.00,0.0043
3019.00,0.0044
3018.00,0.0046
3017.00,0.0047
3016.00,0.0049
3015.00,0.0051
3014.00,0.0053
3013.00,0.0056
3012.00,0.0059
3011.00,0.0061
3010.00,0.0064
3009.00,0.0067
3008.00,0.0070
3007.00,0.0073
3006.00,0.0077
3005.00,0.0082
3004.00,0.0086
3003.00,0.0091
3002.00,0.0095
3001.00,0.0100
3000.00,0.0104
2999.00,0.0109
2998.00,0.0113
2997.00,0.0118
2996.00,0.0123
2995.00,0.0127
2994.00,0.0133
2993.00,0.0138
2992.00,0.0144
2991.00,0.0150
2990.00,0.0158
2989.00,0.0166
2988.00,0.0175
2987.00,0.0185
2986.00,0.0198
2985.00,0.0214
2984.00,0.0232
2983.00,0.0252
2982.00,0.0271
2981.00,0.0289
2980.00,0.0305
2979.00,0.0323
2978.00,0.0343
2977.00,0.0367
2976.00,0.0396
2975.00,0.0432
2974.00,0.0474
2973.00,0.0521
2972.00,0.0575
2971.00,0.0634
2970.00,0.0698
2969.00,0.0768
2968.00,0.0845
2967.00,0.0928
2966.00,0.1016
2965.00,0.1106
2964.00,0.1194
2963.00,0.1277
2962.00,0.1351
2961.00,0.1413
2960.00,0.1464
2959.00,0.1507
2958.00,0.1546
2957.00,0.1587
2956.00,0.1635
2955.00,0.1691
2954.00,0.1755
2953.00,0.1821
2952.00,0.1880
2951.00,0.1921
2950.00,0.1933
2949.00,0.1907
2948.00,0.1843
2947.00,0.1744
2946.00,0.1623
2945.00,0.1494
2944.00,0.1371
2943.00,0.1265
2942.00,0.1182
2941.00,0.1126
2940.00,0.1094
2939.00,0.1086
2938.00,0.1098
2937.00,0.1128
2936.00,0.1175
2935.00,0.1238
2934.00,0.1314
2933.00,0.1403
2932.00,0.1503
2931.00,0.1612
2930.00,0.1727
2929.00,0.1845
2928.00,0.1962
2927.00,0.2077
2926.00,0.2187
2925.00,0.2293
2924.00,0.2395
2923.00,0.2495
2922.00,0.2594
2921.00,0.2688
2920.00,0.2772
2919.00,0.2837
2918.00,0.2872
2917.00,0.2870
2916.00,0.2830
2915.00,0.2755
2914.00,0.2656
2913.00,0.2544
2912.00,0.2431
2911.00,0.2324
2910.00,0.2227
2909.00,0.2140
2908.00,0.2060
2907.00,0.1985
2906.00,0.1913
2905.00,0.1841
2904.00,0.1770
2903.00,0.1699
2902.00,0.1628
2901.00,0.1560
2900.00,0.1494
2899.00,0.1431
2898.00,0.1373
2897.00,0.1319
2896.00,0.1271
2895.00,0.1229
2894.00,0.1193
2893.00,0.1164
2892.00,0.1141
2891.00,0.1123
2890.00,0.1111
2889.00,0.1104
2888.00,0.1100
2887.00,0.1100
2886.00,0.1103
2885.00,0.1111
2884.00,0.1123
2883.00,0.1139
2882.00,0.1161
2881.00,0.1186
2880.00,0.1211
2879.00,0.1234
2878.00,0.1251
2877.00,0.1258
2876.00,0.1255
2875.00,0.1248
2874.00,0.1240
2873.00,0.1236
2872.00,0.1239
2871.00,0.1251
2870.00,0.1267
2869.00,0.1283
2868.00,0.1293
2867.00,0.1288
2866.00,0.1263
2865.00,0.1214
2864.00,0.1147
2863.00,0.1069
2862.00,0.0992
2861.00,0.0923
2860.00,0.0870
2859.00,0.0833
2858.00,0.0811
2857.00,0.0803
2856.00,0.0805
2855.00,0.0816
2854.00,0.0832
2853.00,0.0851
2852.00,0.0870
2851.00,0.0886
2850.00,0.0897
2849.00,0.0904
2848.00,0.0909
2847.00,0.0919
2846.00,0.0937
2845.00,0.0968
2844.00,0.1010
2843.00,0.1062
2842.00,0.1119
2841.00,0.1176
2840.00,0.1224
2839.00,0.1254
2838.00,0.1258
2837.00,0.1231
2836.00,0.1172
2835.00,0.1084
2834.00,0.0979
2833.00,0.0866
2832.00,0.0758
2831.00,0.0660
2830.00,0.0577
2829.00,0.0509
2828.00,0.0454
2827.00,0.0409
2826.00,0.0373
2825.00,0.0343
2824.00,0.0319
2823.00,0.0298
2822.00,0.0281
2821.00,0.0265
2820.00,0.0252
2819.00,0.0241
2818.00,0.0231
2817.00,0.0222
2816.00,0.0214
2815.00,0.0207
2814.00,0.0201
2813.00,0.0195
2812.00,0.0190
2811.00,0.0184
2810.00,0.0178
2809.00,0.0173
2808.00,0.0167
2807.00,0.0160
2806.00,0.0154
2805.00,0.0147
2804.00,0.0141
2803.00,0.0135
2802.00,0.0129
2801.00,0.0124
2800.00,0.0120
2799.00,0.0116
2798.00,0.0113
2797.00,0.0111
2796.00,0.0108
2795.00,0.0106
2794.00,0.0103
2793.00,0.0100
2792.00,0.0097
2791.00,0.0094
2790.00,0.0091
2789.00,0.0088
2788.00,0.0086
2787.00,0.0083
2786.00,0.0080
2785.00,0.0077
2784.00,0.0075
2783.00,0.0072
2782.00,0.0070
2781.00,0.0068
2780.00,0.0067
2779.00,0.0065
2778.00,0.0063
2777.00,0.0062
2776.00,0.0060
2775.00,0.0059
2774.00,0.0058
2773.00,0.0057
2772.00,0.0057
2771.00,0.0058
2770.00,0.0058
2769.00,0.0058
2768.00,0.0057
2767.00,0.0056
2766.00,0.0055
2765.00,0.0055
2764.00,0.0054
2763.00,0.0054
2762.00,0.0054
2761.00,0.0053
2760.00,0.0053
2759.00,0.0053
2758.00,0.0052
2757.00,0.0052
2756.00,0.0052
2755.00,0.0052
2754.00,0.0052
2753.00,0.0052
2752.00,0.0051
2751.00,0.0051
2750.00,0.0051
2749.00,0.0051
2748.00,0.0051
2747.00,0.0051
2746.00,0.0052
2745.00,0.0052
2744.00,0.0053
2743.00,0.0054
2742.00,0.0055
2741.00,0.0056
2740.00,0.0057
2739.00,0.0058
2738.00,0.0059
2737.00,0.0061
2736.00,0.0062
2735.00,0.0064
2734.00,0.0065
2733.00,0.0067
2732.00,0.0069
2731.00,0.0071
2730.00,0.0073
2729.00,0.0075
2728.00,0.0078
2727.00,0.0081
2726.00,0.0084
2725.00,0.0087
2724.00,0.0089
2723.00,0.0089
2722.00,0.0088
2721.00,0.0086
2720.00,0.0083
2719.00,0.0080
2718.00,0.0077
2717.00,0.0073
2716.00,0.0071
2715.00,0.0068
2714.00,0.0066
2713.00,0.0063
2712.00,0.0061
2711.00,0.0059
2710.00,0.0057
2709.00,0.0056
2708.00,0.0054
2707.00,0.0053
2706.00,0.0052
2705.00,0.0050
2704.00,0.0049
2703.00,0.0048
2702.00,0.0047
2701.00,0.0046
2700.00,0.0046
2699.00,0.0045
2698.00,0.0045
2697.00,0.0045
2696.00,0.0044
2695.00,0.0044
2694.00,0.0044
2693.00,0.0044
2692.00,0.0044
2691.00,0.0044
2690.00,0.0044
2689.00,0.0044
2688.00,0.0045
2687.00,0.0045
2686.00,0.0045
2685.00,0.0045
2684.00,0.0045
2683.00,0.0045
2682.00,0.0046
2681.00,0.0046
2680.00,0.0046
2679.00,0.0046
2678.00,0.0046
2677.00,0.0046
2676.00,0.0046
2675.00,0.0046
2674.00,0.0046
2673.00,0.0046
2672.00,0.0045
2671.00,0.0045
2670.00,0.0045
2669.00,0.0045
2668.00,0.0045
2667.00,0.0045
2666.00,0.0046
2665.00,0.0046
2664.00,0.0047
2663.00,0.0047
2662.00,0.0048
2661.00,0.0049
2660.00,0.0049
2659.00,0.0049
2658.00,0.0049
2657.00,0.0049
2656.00,0.0048
2655.00,0.0048
2654.00,0.0047
2653.00,0.0046
2652.00,0.0046
2651.00,0.0046
2650.00,0.0045
2649.00,0.0045
2648.00,0.0044
2647.00,0.0044
2646.00,0.0043
2645.00,0.0043
2644.00,0.0042
2643.00,0.0042
2642.00,0.0041
2641.00,0.0041
2640.00,0.0040
2639.00,0.0040
2638.00,0.0039
2637.00,0.0039
2636.00,0.0039
2635.00,0.0038
2634.00,0.0039
2633.00,0.0039
2632.00,0.0039
2631.00,0.0040
2630.00,0.0040
2629.00,0.0040
2628.00,0.0040
2627.00,0.0039
2626.00,0.0039
2625.00,0.0039
2624.00,0.0040
2623.00,0.0040
2622.00,0.0041
2621.00,0.0041
2620.00,0.0041
2619.00,0.0041
2618.00,0.0041
2617.00,0.0041
2616.00,0.0041
2615.00,0.0041
2614.00,0.0040
2613.00,0.0039
2612.00,0.0038
2611.00,0.0037
2610.00,0.0036
2609.00,0.0036
2608.00,0.0035
2607.00,0.0035
2606.00,0.0034
2605.00,0.0034
2604.00,0.0034
2603.00,0.0034
2602.00,0.0033
2601.00,0.0033
2600.00,0.0032
2599.00,0.0032
2598.00,0.0032
2597.00,0.0032
2596.00,0.0032
2595.00,0.0031
2594.00,0.0031
2593.00,0.0032
2592.00,0.0032
2591.00,0.0033
2590.00,0.0034
2589.00,0.0035
2588.00,0.0036
2587.00,0.0037
2586.00,0.0038
2585.00,0.0039
2584.00,0.0039
2583.00,0.0039
2582.00,0.0039
2581.00,0.0039
2580.00,0.0039
2579.00,0.0039
2578.00,0.0038
2577.00,0.0037
2576.00,0.0035
2575.00,0.0034
2574.00,0.0032
2573.00,0.0030
2572.00,0.0028
2571.00,0.0027
2570.00,0.0026
2569.00,0.0026
2568.00,0.0025
2567.00,0.0025
2566.00,0.0025
2565.00,0.0024
2564.00,0.0024
2563.00,0.0024
2562.00,0.0023
2561.00,0.0023
2560.00,0.0023
2559.00,0.0023
2558.00,0.0023
2557.00,0.0023
2556.00,0.0022
2555.00,0.0022
2554.00,0.0021
2553.00,0.0021
2552.00,0.0021
2551.00,0.0021
2550.00,0.0021
2549.00,0.0021
2548.00,0.0020
2547.00,0.0020
2546.00,0.0019
2545.00,0.0018
2544.00,0.0018
2543.00,0.0017
2542.00,0.0017
2541.00,0.0017
2540.00,0.0017
2539.00,0.0017
2538.00,0.0017
2537.00,0.0018
2536.00,0.0018
2535.00,0.0017
2534.00,0.0016
2533.00,0.0016
2532.00,0.0015
2531.00,0.0015
2530.00,0.0015
2529.00,0.0015
2528.00,0.0015
2527.00,0.0014
2526.00,0.0014
2525.00,0.0013
2524.00,0.0013
2523.00,0.0013
2522.00,0.0013
2521.00,0.0013
2520.00,0.0012
2519.00,0.0012
2518.00,0.0011
2517.00,0.0011
2516.00,0.0012
2515.00,0.0012
2514.00,0.0013
2513.00,0.0013
2512.00,0.0013
2511.00,0.0012
2510.00,0.0011
2509.00,0.0010
2508.00,0.0010
2507.00,0.0009
2506.00,0.0010
2505.00,0.0010
2504.00,0.0011
2503.00,0.0011
2502.00,0.0010
2501.00,0.0010
2500.00,0.0010
2499.00,0.0010
2498.00,0.0010
2497.00,0.0010
2496.00,0.0010
2495.00,0.0010
2494.00,0.0009
2493.00,0.0010
2492.00,0.0010
2491.00,0.0010
2490.00,0.0011
2489.00,0.0011
2488.00,0.0011
2487.00,0.0010
2486.00,0.0010
2485.00,0.0009
2484.00,0.0009
2483.00,0.0009
2482.00,0.0010
2481.00,0.0010
2480.00,0.0010
2479.00,0.0010
2478.00,0.0010
2477.00,0.0011
2476.00,0.0011
2475.00,0.0010
2474.00,0.0010
2473.00,0.0009
2472.00,0.0009
2471.00,0.0009
2470.00,0.0008
2469.00,0.0008
2468.00,0.0008
2467.00,0.0008
2466.00,0.0008
2465.00,0.0008
2464.00,0.0008
2463.00,0.0009
2462.00,0.0009
2461.00,0.0009
2460.00,0.0009
2459.00,0.0009
2458.00,0.0009
2457.00,0.0010
2456.00,0.0010
2455.00,0.0011
2454.00,0.0011
2453.00,0.0011
2452.00,0.0011
2451.00,0.0011
2450.00,0.0011
2449.00,0.0011
2448.00,0.0012
2447.00,0.0012
2446.00,0.0011
2445.00,0.0011
2444.00,0.0011
2443.00,0.0011
2442.00,0.0011
2441.00,0.0011
2440.00,0.0011
2439.00,0.0011
2438.00,0.0010
2437.00,0.0010
2436.00,0.0010
2435.00,0.0011
2434.00,0.0011
2433.00,0.0011
2432.00,0.0010
2431.00,0.0010
2430.00,0.0010
2429.00,0.0011
2428.00,0.0011
2427.00,0.0011
2426.00,0.0011
2425.00,0.0011
2424.00,0.0010
2423.00,0.0010
2422.00,0.0010
2421.00,0.0010
2420.00,0.0010
2419.00,0.0010
2418.00,0.0009
2417.00,0.0009
2416.00,0.0009
2415.00,0.0009
2414.00,0.0009
2413.00,0.0009
2412.00,0.0009
2411.00,0.0009
2410.00,0.0009
2409.00,0.0009
2408.00,0.0008
2407.00,0.0008
2406.00,0.0007
2405.00,0.0007
2404.00,0.0007
2403.00,0.0007
2402.00,0.0007
2401.00,0.0006
2400.00,0.0006
2399.00,0.0006
2398.00,0.0006
2397.00,0.0007
2396.00,0.0007
2395.00,0.0008
2394.00,0.0008
2393.00,0.0007
2392.00,0.0007
2391.00,0.0007
2390.00,0.0006
2389.00,0.0006
2388.00,0.0006
2387.00,0.0006
2386.00,0.0006
2385.00,0.0006
2384.00,0.0006
2383.00,0.0006
2382.00,0.0005
2381.00,0.0005
2380.00,0.0006
2379.00,0.0006
2378.00,0.0006
2377.00,0.0007
2376.00,0.0006
2375.00,0.0006
2374.00,0.0005
2373.00,0.0004
2372.00,0.0004
2371.00,0.0005
2370.00,0.0005
2369.00,0.0006
2368.00,0.0006
2367.00,0.0005
2366.00,0.0005
2365.00,0.0005
2364.00,0.0005
2363.00,0.0006
2362.00,0.0006
2361.00,0.0007
2360.00,0.0006
2359.00,0.0007
2358.00,0.0007
2357.00,0.0008
2356.00,0.0008
2355.00,0.0008
2354.00,0.0007
2353.00,0.0007
2352.00,0.0007
2351.00,0.0007
2350.00,0.0008
2349.00,0.0008
2348.00,0.0008
2347.00,0.0008
2346.00,0.0008
2345.00,0.0009
2344.00,0.0010
2343.00,0.0010
2342.00,0.0011
2341.00,0.0011
2340.00,0.0011
2339.00,0.0011
2338.00,0.0011
2337.00,0.0011
2336.00,0.0010
2335.00,0.0010
2334.00,0.0010
2333.00,0.0009
2332.00,0.0009
2331.00,0.0009
2330.00,0.0009
2329.00,0.0010
2328.00,0.0012
2327.00,0.0016
2326.00,0.0020
2325.00,0.0024
2324.00,0.0025
2323.00,0.0024
2322.00,0.0022
2321.00,0.0019
2320.00,0.0017
2319.00,0.0016
2318.00,0.0015
2317.00,0.0014
2316.00,0.0014
2315.00,0.0013
2314.00,0.0012
2313.00,0.0011
2312.00,0.0011
2311.00,0.0011
2310.00,0.0011
2309.00,0.0011
2308.00,0.0011
2307.00,0.0010
2306.00,0.0010
2305.00,0.0010
2304.00,0.0010
2303.00,0.0010
2302.00,0.0010
2301.00,0.0011
2300.00,0.0011
2299.00,0.0011
2298.00,0.0011
2297.00,0.0012
2296.00,0.0013
2295.00,0.0014
2294.00,0.0015
2293.00,0.0015
2292.00,0.0015
2291.00,0.0015
2290.00,0.0015
2289.00,0.0015
2288.00,0.0016
2287.00,0.0016
2286.00,0.0016
2285.00,0.0016
2284.00,0.0016
2283.00,0.0016
2282.00,0.0015
2281.00,0.0014
2280.00,0.0014
2279.00,0.0013
2278.00,0.0013
2277.00,0.0013
2276.00,0.0013
2275.00,0.0013
2274.00,0.0013
2273.00,0.0014
2272.00,0.0014
2271.00,0.0014
2270.00,0.0014
2269.00,0.0015
2268.00,0.0015
2267.00,0.0015
2266.00,0.0014
2265.00,0.0012
2264.00,0.0012
2263.00,0.0012
2262.00,0.0012
2261.00,0.0012
2260.00,0.0011
2259.00,0.0011
2258.00,0.0010
2257.00,0.0009
2256.00,0.0009
2255.00,0.0009
2254.00,0.0010
2253.00,0.0011
2252.00,0.0011
2251.00,0.0010
2250.00,0.0009
2249.00,0.0008
2248.00,0.0007
2247.00,0.0005
2246.00,0.0004
2245.00,0.0004
2244.00,0.0005
2243.00,0.0006
2242.00,0.0006
2241.00,0.0007
2240.00,0.0007
2239.00,0.0007
2238.00,0.0007
2237.00,0.0007
2236.00,0.0007
2235.00,0.0008
2234.00,0.0008
2233.00,0.0007
2232.00,0.0008
2231.00,0.0008
2230.00,0.0008
2229.00,0.0007
2228.00,0.0006
2227.00,0.0006
2226.00,0.0006
2225.00,0.0006
2224.00,0.0006
2223.00,0.0006
2222.00,0.0006
2221.00,0.0006
2220.00,0.0006
2219.00,0.0006
2218.00,0.0006
2217.00,0.0005
2216.00,0.0004
2215.00,0.0004
2214.00,0.0003
2213.00,0.0003
2212.00,0.0004
2211.00,0.0004
2210.00,0.0005
2209.00,0.0006
2208.00,0.0007
2207.00,0.0008
2206.00,0.0007
2205.00,0.0007
2204.00,0.0007
2203.00,0.0008
2202.00,0.0008
2201.00,0.0009
2200.00,0.0009
2199.00,0.0009
2198.00,0.0009
2197.00,0.0008
2196.00,0.0008
2195.00,0.0008
2194.00,0.0010
2193.00,0.0011
2192.00,0.0011
2191.00,0.0009
2190.00,0.0008
2189.00,0.0008
2188.00,0.0010
2187.00,0.0010
2186.00,0.0009
2185.00,0.0007
2184.00,0.0006
2183.00,0.0006
2182.00,0.0006
2181.00,0.0006
2180.00,0.0006
2179.00,0.0006
2178.00,0.0006
2177.00,0.0005
2176.00,0.0004
2175.00,0.0003
2174.00,0.0003
2173.00,0.0003
2172.00,0.0003
2171.00,0.0004
2170.00,0.0006
2169.00,0.0009
2168.00,0.0011
2167.00,0.0012
2166.00,0.0012
2165.00,0.0013
2164.00,0.0014
2163.00,0.0016
2162.00,0.0016
2161.00,0.0011
2160.00,0.0000
2159.00,-0.0015
2158.00,-0.0027
2157.00,-0.0033
2156.00,-0.0031
2155.00,-0.0026
2154.00,-0.0021
2153.00,-0.0016
2152.00,-0.0014
2151.00,-0.0012
2150.00,-0.0012
2149.00,-0.0012
2148.00,-0.0012
2147.00,-0.0013
2146.00,-0.0014
2145.00,-0.0015
2144.00,-0.0015
2143.00,-0.0014
2142.00,-0.0014
2141.00,-0.0015
2140.00,-0.0015
2139.00,-0.0016
2138.00,-0.0016
2137.00,-0.0015
2136.00,-0.0015
2135.00,-0.0016
2134.00,-0.0016
2133.00,-0.0016
2132.00,-0.0015
2131.00,-0.0014
2130.00,-0.0012
2129.00,-0.0010
2128.00,-0.0009
2127.00,-0.0008
2126.00,-0.0007
2125.00,-0.0006
2124.00,-0.0005
2123.00,-0.0005
2122.00,-0.0004
2121.00,-0.0004
2120.00,-0.0003
2119.00,-0.0002
2118.00,-0.0001
2117.00,0.0000
2116.00,0.0001
2115.00,0.0002
2114.00,0.0003
2113.00,0.0003
2112.00,0.0002
2111.00,0.0001
2110.00,0.0000
2109.00,0.0000
2108.00,0.0000
2107.00,0.0000
2106.00,-0.0000
2105.00,-0.0000
2104.00,-0.0000
2103.00,-0.0000
2102.00,-0.0001
2101.00,-0.0001
2100.00,-0.0000
2099.00,-0.0000
2098.00,-0.0001
2097.00,-0.0002
2096.00,-0.0004
2095.00,-0.0006
2094.00,-0.0007
2093.00,-0.0006
2092.00,-0.0004
2091.00,-0.0003
2090.00,-0.0001
2089.00,-0.0000
2088.00,0.0002
2087.00,0.0002
2086.00,0.0002
2085.00,0.0001
2084.00,-0.0000
2083.00,-0.0001
2082.00,-0.0002
2081.00,-0.0002
2080.00,-0.0000
2079.00,0.0002
2078.00,0.0003
2077.00,0.0005
2076.00,0.0005
2075.00,0.0004
2074.00,0.0003
2073.00,0.0001
2072.00,0.0000
2071.00,-0.0001
2070.00,-0.0001
2069.00,-0.0001
2068.00,-0.0000
2067.00,-0.0000
2066.00,-0.0001
2065.00,-0.0002
2064.00,-0.0003
2063.00,-0.0004
2062.00,-0.0004
2061.00,-0.0003
2060.00,-0.0002
2059.00,-0.0000
2058.00,0.0001
2057.00,0.0003
2056.00,0.0004
2055.00,0.0006
2054.00,0.0007
2053.00,0.0009
2052.00,0.0011
2051.00,0.0012
2050.00,0.0012
2049.00,0.0010
2048.00,0.0009
2047.00,0.0008
2046.00,0.0005
2045.00,0.0002
2044.00,-0.0001
2043.00,-0.0002
2042.00,-0.0001
2041.00,0.0002
2040.00,0.0004
2039.00,0.0006
2038.00,0.0006
2037.00,0.0006
2036.00,0.0003
2035.00,-0.0000
2034.00,-0.0004
2033.00,-0.0007
2032.00,-0.0010
2031.00,-0.0012
2030.00,-0.0014
2029.00,-0.0014
2028.00,-0.0013
2027.00,-0.0011
2026.00,-0.0010
2025.00,-0.0008
2024.00,-0.0008
2023.00,-0.0007
2022.00,-0.0008
2021.00,-0.0009
2020.00,-0.0012
2019.00,-0.0015
2018.00,-0.0018
2017.00,-0.0020
2016.00,-0.0019
2015.00,-0.0018
2014.00,-0.0015
2013.00,-0.0011
2012.00,-0.0007
2011.00,-0.0005
2010.00,-0.0006
2009.00,-0.0008
2008.00,-0.0012
2007.00,-0.0015
2006.00,-0.0017
2005.00,-0.0016
2004.00,-0.0014
2003.00,-0.0012
2002.00,-0.0011
2001.00,-0.0011
2000.00,-0.0011
1999.00,-0.0012
1998.00,-0.0011
1997.00,-0.0011
1996.00,-0.0011
1995.00,-0.0010
1994.00,-0.0007
1993.00,-0.0005
1992.00,-0.0004
1991.00,-0.0005
1990.00,-0.0007
1989.00,-0.0007
1988.00,-0.0007
1987.00,-0.0007
1986.00,-0.0007
1985.00,-0.0005
1984.00,-0.0002
1983.00,0.0001
1982.00,0.0004
1981.00,0.0005
1980.00,0.0004
1979.00,0.0001
1978.00,-0.0003
1977.00,-0.0006
1976.00,-0.0008
1975.00,-0.0009
1974.00,-0.0010
1973.00,-0.0010
1972.00,-0.0010
1971.00,-0.0010
1970.00,-0.0010
1969.00,-0.0012
1968.00,-0.0014
1967.00,-0.0016
1966.00,-0.0016
1965.00,-0.0016
1964.00,-0.0015
1963.00,-0.0015
1962.00,-0.0016
1961.00,-0.0018
1960.00,-0.0019
1959.00,-0.0021
1958.00,-0.0023
1957.00,-0.0023
1956.00,-0.0022
1955.00,-0.0020
1954.00,-0.0018
1953.00,-0.0017
1952.00,-0.0017
1951.00,-0.0017
1950.00,-0.0016
1949.00,-0.0015
1948.00,-0.0013
1947.00,-0.0012
1946.00,-0.0012
1945.00,-0.0013
1944.00,-0.0014
1943.00,-0.0015
1942.00,-0.0015
1941.00,-0.0014
1940.00,-0.0012
1939.00,-0.0011
1938.00,-0.0010
1937.00,-0.0010
1936.00,-0.0009
1935.00,-0.0008
1934.00,-0.0007
1933.00,-0.0007
1932.00,-0.0007
1931.00,-0.0007
1930.00,-0.0008
1929.00,-0.0007
1928.00,-0.0006
1927.00,-0.0006
1926.00,-0.0006
1925.00,-0.0007
1924.00,-0.0007
1923.00,-0.0007
1922.00,-0.0006
1921.00,-0.0005
1920.00,-0.0004
1919.00,-0.0003
1918.00,-0.0002
1917.00,-0.0002
1916.00,-0.0003
1915.00,-0.0003
1914.00,-0.0003
1913.00,-0.0003
1912.00,-0.0002
1911.00,-0.0001
1910.00,-0.0001
1909.00,-0.0001
1908.00,-0.0002
1907.00,-0.0002
1906.00,-0.0002
1905.00,-0.0002
1904.00,-0.0002
1903.00,-0.0003
1902.00,-0.0003
1901.00,-0.0003
1900.00,-0.0003
1899.00,-0.0004
1898.00,-0.0004
1897.00,-0.0003
1896.00,-0.0002
1895.00,-0.0001
1894.00,-0.0001
1893.00,-0.0001
1892.00,-0.0000
1891.00,-0.0000
1890.00,0.0000
1889.00,0.0001
1888.00,0.0002
1887.00,0.0002
1886.00,0.0002
1885.00,0.0001
1884.00,0.0002
1883.00,0.0002
1882.00,0.0001
1881.00,0.0001
1880.00,-0.0000
1879.00,-0.0001
1878.00,-0.0001
1877.00,-0.0001
1876.00,-0.0001
1875.00,-0.0000
1874.00,-0.0001
1873.00,-0.0002
1872.00,-0.0002
1871.00,-0.0002
1870.00,-0.0001
1869.00,-0.0000
1868.00,0.0000
1867.00,0.0000
1866.00,-0.0000
1865.00,-0.0000
1864.00,-0.0000
1863.00,0.0000
1862.00,0.0001
1861.00,0.0001
1860.00,0.0001
1859.00,0.0001
1858.00,0.0001
1857.00,0.0001
1856.00,0.0001
1855.00,0.0001
1854.00,0.0000
1853.00,0.0000
1852.00,0.0000
1851.00,0.0001
1850.00,0.0002
1849.00,0.0003
1848.00,0.0003
1847.00,0.0003
1846.00,0.0003
1845.00,0.0003
1844.00,0.0002
1843.00,0.0002
1842.00,0.0002
1841.00,0.0002
1840.00,0.0002
1839.00,0.0002
1838.00,0.0002
1837.00,0.0002
1836.00,0.0002
1835.00,0.0002
1834.00,0.0002
1833.00,0.0002
1832.00,0.0002
1831.00,0.0002
1830.00,0.0002
1829.00,0.0003
1828.00,0.0004
1827.00,0.0004
1826.00,0.0005
1825.00,0.0005
1824.00,0.0005
1823.00,0.0004
1822.00,0.0004
1821.00,0.0003
1820.00,0.0003
1819.00,0.0002
1818.00,0.0001
1817.00,0.0000
1816.00,0.0001
1815.00,0.0001
1814.00,0.0002
1813.00,0.0002
1812.00,0.0002
1811.00,0.0002
1810.00,0.0002
1809.00,0.0001
1808.00,0.0001
1807.00,0.0002
1806.00,0.0002
1805.00,0.0003
1804.00,0.0004
1803.00,0.0004
1802.00,0.0005
1801.00,0.0005
1800.00,0.0006
1799.00,0.0006
1798.00,0.0006
1797.00,0.0006
1796.00,0.0006
1795.00,0.0005
1794.00,0.0005
1793.00,0.0005
1792.00,0.0005
1791.00,0.0006
1790.00,0.0007
1789.00,0.0008
1788.00,0.0008
1787.00,0.0009
1786.00,0.0009
1785.00,0.0009
1784.00,0.0008
1783.00,0.0008
1782.00,0.0008
1781.00,0.0008
1780.00,0.0008
1779.00,0.0008
1778.00,0.0008
1777.00,0.0008
1776.00,0.0009
1775.00,0.0009
1774.00,0.0009
1773.00,0.0010
1772.00,0.0010
1771.00,0.0010
1770.00,0.0011
1769.00,0.0011
1768.00,0.0011
1767.00,0.0010
1766.00,0.0009
1765.00,0.0009
1764.00,0.0009
1763.00,0.0010
1762.00,0.0011
1761.00,0.0011
1760.00,0.0012
1759.00,0.0012
1758.00,0.0013
1757.00,0.0013
1756.00,0.0013
1755.00,0.0013
1754.00,0.0014
1753.00,0.0014
1752.00,0.0015
1751.00,0.0016
1750.00,0.0017
1749.00,0.0017
1748.00,0.0018
1747.00,0.0019
1746.00,0.0019
1745.00,0.0019
1744.00,0.0019
1743.00,0.0019
1742.00,0.0019
1741.00,0.0019
1740.00,0.0020
1739.00,0.0020
1738.00,0.0020
1737.00,0.0020
1736.00,0.0020
1735.00,0.0020
1734.00,0.0020
1733.00,0.0020
1732.00,0.0020
1731.00,0.0020
1730.00,0.0020
1729.00,0.0021
1728.00,0.0021
1727.00,0.0022
1726.00,0.0022
1725.00,0.0022
1724.00,0.0023
1723.00,0.0023
1722.00,0.0024
1721.00,0.0024
1720.00,0.0023
1719.00,0.0022
1718.00,0.0021
1717.00,0.0021
1716.00,0.0021
1715.00,0.0021
1714.00,0.0021
1713.00,0.0021
1712.00,0.0021
1711.00,0.0021
1710.00,0.0021
1709.00,0.0021
1708.00,0.0022
1707.00,0.0022
1706.00,0.0022
1705.00,0.0022
1704.00,0.0022
1703.00,0.0023
1702.00,0.0023
1701.00,0.0023
1700.00,0.0023
1699.00,0.0023
1698.00,0.0024
1697.00,0.0024
1696.00,0.0025
1695.00,0.0026
1694.00,0.0026
1693.00,0.0026
1692.00,0.0026
1691.00,0.0026
1690.00,0.0027
1689.00,0.0028
1688.00,0.0028
1687.00,0.0029
1686.00,0.0029
1685.00,0.0028
1684.00,0.0029
1683.00,0.0030
1682.00,0.0031
1681.00,0.0032
1680.00,0.0032
1679.00,0.0033
1678.00,0.0033
1677.00,0.0034
1676.00,0.0034
1675.00,0.0034
1674.00,0.0034
1673.00,0.0034
1672.00,0.0035
1671.00,0.0035
1670.00,0.0035
1669.00,0.0036
1668.00,0.0036
1667.00,0.0037
1666.00,0.0037
1665.00,0.0037
1664.00,0.0038
1663.00,0.0038
1662.00,0.0039
1661.00,0.0039
1660.00,0.0040
1659.00,0.0041
1658.00,0.0041
1657.00,0.0041
1656.00,0.0042
1655.00,0.0043
1654.00,0.0045
1653.00,0.0046
1652.00,0.0046
1651.00,0.0046
1650.00,0.0047
1649.00,0.0048
1648.00,0.0051
1647.00,0.0053
1646.00,0.0054
1645.00,0.0054
1644.00,0.0053
1643.00,0.0053
1642.00,0.0053
1641.00,0.0053
1640.00,0.0054
1639.00,0.0055
1638.00,0.0055
1637.00,0.0055
1636.00,0.0055
1635.00,0.0053
1634.00,0.0052
1633.00,0.0052
1632.00,0.0052
1631.00,0.0052
1630.00,0.0052
1629.00,0.0052
1628.00,0.0051
1627.00,0.0050
1626.00,0.0050
1625.00,0.0049
1624.00,0.0048
1623.00,0.0048
1622.00,0.0048
1621.00,0.0047
1620.00,0.0047
1619.00,0.0047
1618.00,0.0046
1617.00,0.0046
1616.00,0.0046
1615.00,0.0046
1614.00,0.0046
1613.00,0.0047
1612.00,0.0047
1611.00,0.0047
1610.00,0.0046
1609.00,0.0046
1608.00,0.0046
1607.00,0.0046
1606.00,0.0045
1605.00,0.0045
1604.00,0.0046
1603.00,0.0046
1602.00,0.0045
1601.00,0.0045
1600.00,0.0045
1599.00,0.0045
1598.00,0.0045
1597.00,0.0045
1596.00,0.0045
1595.00,0.0045
1594.00,0.0044
1593.00,0.0044
1592.00,0.0045
1591.00,0.0045
1590.00,0.0044
1589.00,0.0044
1588.00,0.0044
1587.00,0.0044
1586.00,0.0044
1585.00,0.0045
1584.00,0.0045
1583.00,0.0046
1582.00,0.0047
1581.00,0.0049
1580.00,0.0050
1579.00,0.0051
1578.00,0.0051
1577.00,0.0051
1576.00,0.0052
1575.00,0.0051
1574.00,0.0052
1573.00,0.0052
1572.00,0.0052
1571.00,0.0052
1570.00,0.0052
1569.00,0.0051
1568.00,0.0051
1567.00,0.0052
1566.00,0.0052
1565.00,0.0052
1564.00,0.0052
1563.00,0.0052
1562.00,0.0052
1561.00,0.0052
1560.00,0.0052
1559.00,0.0052
1558.00,0.0053
1557.00,0.0054
1556.00,0.0055
1555.00,0.0056
1554.00,0.0056
1553.00,0.0056
1552.00,0.0056
1551.00,0.0057
1550.00,0.0057
1549.00,0.0057
1548.00,0.0058
1547.00,0.0058
1546.00,0.0059
1545.00,0.0060
1544.00,0.0061
1543.00,0.0061
1542.00,0.0060
1541.00,0.0059
1540.00,0.0058
1539.00,0.0057
1538.00,0.0055
1537.00,0.0055
1536.00,0.0054
1535.00,0.0053
1534.00,0.0052
1533.00,0.0051
1532.00,0.0050
1531.00,0.0049
1530.00,0.0048
1529.00,0.0048
1528.00,0.0048
1527.00,0.0048
1526.00,0.0047
1525.00,0.0047
1524.00,0.0048
1523.00,0.0048
1522.00,0.0048
1521.00,0.0048
1520.00,0.0048
1519.00,0.0048
1518.00,0.0049
1517.00,0.0050
1516.00,0.0051
1515.00,0.0052
1514.00,0.0052
1513.00,0.0053
1512.00,0.0054
1511.00,0.0054
1510.00,0.0055
1509.00,0.0056
1508.00,0.0058
1507.00,0.0058
1506.00,0.0058
1505.00,0.0059
1504.00,0.0061
1503.00,0.0062
1502.00,0.0064
1501.00,0.0066
1500.00,0.0068
1499.00,0.0070
1498.00,0.0072
1497.00,0.0075
1496.00,0.0078
1495.00,0.0081
1494.00,0.0083
1493.00,0.0086
1492.00,0.0090
1491.00,0.0094
1490.00,0.0098
1489.00,0.0103
1488.00,0.0107
1487.00,0.0112
1486.00,0.0116
1485.00,0.0122
1484.00,0.0130
1483.00,0.0137
1482.00,0.0145
1481.00,0.0156
1480.00,0.0168
1479.00,0.0181
1478.00,0.0196
1477.00,0.0218
1476.00,0.0245
1475.00,0.0277
1474.00,0.0319
1473.00,0.0378
1472.00,0.0446
1471.00,0.0511
1470.00,0.0574
1469.00,0.0640
1468.00,0.0712
1467.00,0.0792
1466.00,0.0884
1465.00,0.0983
1464.00,0.1069
1463.00,0.1127
1462.00,0.1162
1461.00,0.1185
1460.00,0.1199
1459.00,0.1207
1458.00,0.1211
1457.00,0.1213
1456.00,0.1209
1455.00,0.1200
1454.00,0.1187
1453.00,0.1169
1452.00,0.1140
1451.00,0.1101
1450.00,0.1046
1449.00,0.0972
1448.00,0.0878
1447.00,0.0780
1446.00,0.0693
1445.00,0.0619
1444.00,0.0557
1443.00,0.0506
1442.00,0.0468
1441.00,0.0442
1440.00,0.0427
1439.00,0.0422
1438.00,0.0425
1437.00,0.0429
1436.00,0.0420
1435.00,0.0397
1434.00,0.0361
1433.00,0.0319
1432.00,0.0273
1431.00,0.0233
1430.00,0.0201
1429.00,0.0177
1428.00,0.0161
1427.00,0.0151
1426.00,0.0145
1425.00,0.0139
1424.00,0.0133
1423.00,0.0130
1422.00,0.0128
1421.00,0.0126
1420.00,0.0124
1419.00,0.0121
1418.00,0.0119
1417.00,0.0117
1416.00,0.0115
1415.00,0.0114
1414.00,0.0115
1413.00,0.0114
1412.00,0.0113
1411.00,0.0113
1410.00,0.0113
1409.00,0.0113
1408.00,0.0114
1407.00,0.0115
1406.00,0.0116
1405.00,0.0117
1404.00,0.0118
1403.00,0.0120
1402.00,0.0123
1401.00,0.0126
1400.00,0.0128
1399.00,0.0132
1398.00,0.0136
1397.00,0.0140
1396.00,0.0143
1395.00,0.0147
1394.00,0.0153
1393.00,0.0158
1392.00,0.0164
1391.00,0.0171
1390.00,0.0182
1389.00,0.0197
1388.00,0.0218
1387.00,0.0249
1386.00,0.0292
1385.00,0.0348
1384.00,0.0428
1383.00,0.0542
1382.00,0.0698
1381.00,0.0903
1380.00,0.1157
1379.00,0.1444
1378.00,0.1716
1377.00,0.1907
1376.00,0.1960
1375.00,0.1844
1374.00,0.1598
1373.00,0.1311
1372.00,0.1055
1371.00,0.0847
1370.00,0.0682
1369.00,0.0557
1368.00,0.0471
1367.00,0.0417
1366.00,0.0388
1365.00,0.0375
1364.00,0.0377
1363.00,0.0390
1362.00,0.0412
1361.00,0.0435
1360.00,0.0452
1359.00,0.0458
1358.00,0.0448
1357.00,0.0423
1356.00,0.0387
1355.00,0.0346
1354.00,0.0306
1353.00,0.0271
1352.00,0.0243
1351.00,0.0220
1350.00,0.0202
1349.00,0.0187
1348.00,0.0174
1347.00,0.0164
1346.00,0.0155
1345.00,0.0148
1344.00,0.0141
1343.00,0.0136
1342.00,0.0132
1341.00,0.0128
1340.00,0.0125
1339.00,0.0123
1338.00,0.0122
1337.00,0.0121
1336.00,0.0122
1335.00,0.0124
1334.00,0.0127
1333.00,0.0132
1332.00,0.0137
1331.00,0.0141
1330.00,0.0142
1329.00,0.0140
1328.00,0.0137
1327.00,0.0131
1326.00,0.0124
1325.00,0.0118
1324.00,0.0111
1323.00,0.0105
1322.00,0.0101
1321.00,0.0097
1320.00,0.0095
1319.00,0.0094
1318.00,0.0092
1317.00,0.0091
1316.00,0.0090
1315.00,0.0089
1314.00,0.0089
1313.00,0.0089
1312.00,0.0090
1311.00,0.0092
1310.00,0.0096
1309.00,0.0102
1308.00,0.0111
1307.00,0.0122
1306.00,0.0132
1305.00,0.0139
1304.00,0.0141
1303.00,0.0138
1302.00,0.0134
1301.00,0.0130
1300.00,0.0129
1299.00,0.0129
1298.00,0.0130
1297.00,0.0131
1296.00,0.0130
1295.00,0.0128
1294.00,0.0124
1293.00,0.0119
1292.00,0.0114
1291.00,0.0108
1290.00,0.0103
1289.00,0.0099
1288.00,0.0096
1287.00,0.0094
1286.00,0.0092
1285.00,0.0091
1284.00,0.0089
1283.00,0.0087
1282.00,0.0086
1281.00,0.0085
1280.00,0.0085
1279.00,0.0084
1278.00,0.0084
1277.00,0.0084
1276.00,0.0085
1275.00,0.0085
1274.00,0.0086
1273.00,0.0088
1272.00,0.0089
1271.00,0.0091
1270.00,0.0094
1269.00,0.0097
1268.00,0.0100
1267.00,0.0104
1266.00,0.0109
1265.00,0.0113
1264.00,0.0117
1263.00,0.0120
1262.00,0.0122
1261.00,0.0125
1260.00,0.0130
1259.00,0.0135
1258.00,0.0142
1257.00,0.0146
1256.00,0.0148
1255.00,0.0145
1254.00,0.0139
1253.00,0.0131
1252.00,0.0123
1251.00,0.0117
1250.00,0.0111
1249.00,0.0107
1248.00,0.0103
1247.00,0.0099
1246.00,0.0097
1245.00,0.0095
1244.00,0.0094
1243.00,0.0092
1242.00,0.0091
1241.00,0.0090
1240.00,0.0088
1239.00,0.0087
1238.00,0.0087
1237.00,0.0086
1236.00,0.0086
1235.00,0.0086
1234.00,0.0085
1233.00,0.0085
1232.00,0.0085
1231.00,0.0085
1230.00,0.0085
1229.00,0.0086
1228.00,0.0086
1227.00,0.0087
1226.00,0.0088
1225.00,0.0091
1224.00,0.0094
1223.00,0.0098
1222.00,0.0102
1221.00,0.0104
1220.00,0.0106
1219.00,0.0106
1218.00,0.0105
1217.00,0.0102
1216.00,0.0099
1215.00,0.0096
1214.00,0.0092
1213.00,0.0088
1212.00,0.0085
1211.00,0.0083
1210.00,0.0081
1209.00,0.0080
1208.00,0.0079
1207.00,0.0079
1206.00,0.0078
1205.00,0.0077
1204.00,0.0076
1203.00,0.0075
1202.00,0.0075
1201.00,0.0075
1200.00,0.0075
1199.00,0.0075
1198.00,0.0075
1197.00,0.0075
1196.00,0.0076
1195.00,0.0077
1194.00,0.0078
1193.00,0.0078
1192.00,0.0078
1191.00,0.0078
1190.00,0.0078
1189.00,0.0079
1188.00,0.0080
1187.00,0.0082
1186.00,0.0083
1185.00,0.0085
1184.00,0.0087
1183.00,0.0089
1182.00,0.0092
1181.00,0.0094
1180.00,0.0098
1179.00,0.0103
1178.00,0.0110
1177.00,0.0118
1176.00,0.0129
1175.00,0.0143
1174.00,0.0162
1173.00,0.0185
1172.00,0.0212
1171.00,0.0241
1170.00,0.0270
1169.00,0.0293
1168.00,0.0308
1167.00,0.0312
1166.00,0.0306
1165.00,0.0294
1164.00,0.0280
1163.00,0.0265
1162.00,0.0252
1161.00,0.0241
1160.00,0.0234
1159.00,0.0229
1158.00,0.0226
1157.00,0.0223
1156.00,0.0221
1155.00,0.0219
1154.00,0.0217
1153.00,0.0215
1152.00,0.0211
1151.00,0.0206
1150.00,0.0198
1149.00,0.0189
1148.00,0.0179
1147.00,0.0170
1146.00,0.0162
1145.00,0.0153
1144.00,0.0146
1143.00,0.0139
1142.00,0.0132
1141.00,0.0127
1140.00,0.0121
1139.00,0.0116
1138.00,0.0112
1137.00,0.0108
1136.00,0.0105
1135.00,0.0103
1134.00,0.0102
1133.00,0.0101
1132.00,0.0100
1131.00,0.0100
1130.00,0.0100
1129.00,0.0100
1128.00,0.0100
1127.00,0.0100
1126.00,0.0100
1125.00,0.0100
1124.00,0.0100
1123.00,0.0100
1122.00,0.0100
1121.00,0.0100
1120.00,0.0101
1119.00,0.0101
1118.00,0.0102
1117.00,0.0103
1116.00,0.0104
1115.00,0.0105
1114.00,0.0106
1113.00,0.0108
1112.00,0.0111
1111.00,0.0114
1110.00,0.0117
1109.00,0.0120
1108.00,0.0124
1107.00,0.0130
1106.00,0.0138
1105.00,0.0145
1104.00,0.0152
1103.00,0.0156
1102.00,0.0156
1101.00,0.0153
1100.00,0.0148
1099.00,0.0140
1098.00,0.0134
1097.00,0.0128
1096.00,0.0124
1095.00,0.0121
1094.00,0.0119
1093.00,0.0117
1092.00,0.0115
1091.00,0.0114
1090.00,0.0112
1089.00,0.0111
1088.00,0.0110
1087.00,0.0110
1086.00,0.0111
1085.00,0.0111
1084.00,0.0111
1083.00,0.0111
1082.00,0.0111
1081.00,0.0109
1080.00,0.0107
1079.00,0.0105
1078.00,0.0104
1077.00,0.0104
1076.00,0.0104
1075.00,0.0104
1074.00,0.0105
1073.00,0.0106
1072.00,0.0106
1071.00,0.0106
1070.00,0.0104
1069.00,0.0103
1068.00,0.0101
1067.00,0.0099
1066.00,0.0099
1065.00,0.0099
1064.00,0.0100
1063.00,0.0101
1062.00,0.0102
1061.00,0.0102
1060.00,0.0102
1059.00,0.0102
1058.00,0.0101
1057.00,0.0101
1056.00,0.0102
1055.00,0.0104
1054.00,0.0107
1053.00,0.0108
1052.00,0.0110
1051.00,0.0113
1050.00,0.0117
1049.00,0.0121
1048.00,0.0126
1047.00,0.0130
1046.00,0.0134
1045.00,0.0136
1044.00,0.0137
1043.00,0.0138
1042.00,0.0136
1041.00,0.0133
1040.00,0.0130
1039.00,0.0128
1038.00,0.0126
1037.00,0.0126
1036.00,0.0125
1035.00,0.0124
1034.00,0.0123
1033.00,0.0122
1032.00,0.0121
1031.00,0.0120
1030.00,0.0119
1029.00,0.0120
1028.00,0.0121
1027.00,0.0122
1026.00,0.0123
1025.00,0.0124
1024.00,0.0126
1023.00,0.0128
1022.00,0.0131
1021.00,0.0133
1020.00,0.0134
1019.00,0.0135
1018.00,0.0136
1017.00,0.0136
1016.00,0.0137
1015.00,0.0137
1014.00,0.0136
1013.00,0.0135
1012.00,0.0135
1011.00,0.0134
1010.00,0.0134
1009.00,0.0133
1008.00,0.0135
1007.00,0.0138
1006.00,0.0145
1005.00,0.0154
1004.00,0.0168
1003.00,0.0188
1002.00,0.0216
1001.00,0.0249
1000.00,0.0285
999.00,0.0315
998.00,0.0329
997.00,0.0322
996.00,0.0297
995.00,0.0260
994.00,0.0222
993.00,0.0189
992.00,0.0164
991.00,0.0146
990.00,0.0133
989.00,0.0124
988.00,0.0118
987.00,0.0115
986.00,0.0116
985.00,0.0118
984.00,0.0122
983.00,0.0128
982.00,0.0137
981.00,0.0152
980.00,0.0173
979.00,0.0200
978.00,0.0235
977.00,0.0275
976.00,0.0319
975.00,0.0361
974.00,0.0393
973.00,0.0403
972.00,0.0390
971.00,0.0356
970.00,0.0310
969.00,0.0264
968.00,0.0225
967.00,0.0194
966.00,0.0171
965.00,0.0155
964.00,0.0143
963.00,0.0134
962.00,0.0127
961.00,0.0122
960.00,0.0119
959.00,0.0116
958.00,0.0115
957.00,0.0113
956.00,0.0111
955.00,0.0110
954.00,0.0110
953.00,0.0109
952.00,0.0108
951.00,0.0106
950.00,0.0104
949.00,0.0102
948.00,0.0101
947.00,0.0102
946.00,0.0103
945.00,0.0106
944.00,0.0109
943.00,0.0112
942.00,0.0116
941.00,0.0117
940.00,0.0116
939.00,0.0113
938.00,0.0107
937.00,0.0101
936.00,0.0094
935.00,0.0089
934.00,0.0085
933.00,0.0082
932.00,0.0079
931.00,0.0076
930.00,0.0074
929.00,0.0072
928.00,0.0070
927.00,0.0069
926.00,0.0067
925.00,0.0066
924.00,0.0066
923.00,0.0066
922.00,0.0066
921.00,0.0065
920.00,0.0063
919.00,0.0062
918.00,0.0062
917.00,0.0063
916.00,0.0064
915.00,0.0065
914.00,0.0067
913.00,0.0068
912.00,0.0070
911.00,0.0071
910.00,0.0073
909.00,0.0076
908.00,0.0079
907.00,0.0085
906.00,0.0093
905.00,0.0104
904.00,0.0119
903.00,0.0137
902.00,0.0156
901.00,0.0173
900.00,0.0184
899.00,0.0186
898.00,0.0178
897.00,0.0161
896.00,0.0140
895.00,0.0120
894.00,0.0104
893.00,0.0093
892.00,0.0086
891.00,0.0082
890.00,0.0080
889.00,0.0078
888.00,0.0076
887.00,0.0074
886.00,0.0073
885.00,0.0072
884.00,0.0072
883.00,0.0072
882.00,0.0072
881.00,0.0072
880.00,0.0072
879.00,0.0072
878.00,0.0072
877.00,0.0072
876.00,0.0072
875.00,0.0072
874.00,0.0072
873.00,0.0072
872.00,0.0072
871.00,0.0072
870.00,0.0073
869.00,0.0074
868.00,0.0074
867.00,0.0075
866.00,0.0076
865.00,0.0077
864.00,0.0078
863.00,0.0079
862.00,0.0080
861.00,0.0080
860.00,0.0081
859.00,0.0082
858.00,0.0083
857.00,0.0085
856.00,0.0087
855.00,0.0089
854.00,0.0091
853.00,0.0092
852.00,0.0095
851.00,0.0099
850.00,0.0103
849.00,0.0109
848.00,0.0117
847.00,0.0128
846.00,0.0147
845.00,0.0177
844.00,0.0219
843.00,0.0268
842.00,0.0307
841.00,0.0321
840.00,0.0301
839.00,0.0258
838.00,0.0211
837.00,0.0173
836.00,0.0148
835.00,0.0132
834.00,0.0122
833.00,0.0115
832.00,0.0110
831.00,0.0106
830.00,0.0104
829.00,0.0102
828.00,0.0102
827.00,0.0102
826.00,0.0102
825.00,0.0103
824.00,0.0104
823.00,0.0106
822.00,0.0107
821.00,0.0109
820.00,0.0111
819.00,0.0114
818.00,0.0119
817.00,0.0127
816.00,0.0136
815.00,0.0148
814.00,0.0164
813.00,0.0184
812.00,0.0206
811.00,0.0227
810.00,0.0243
809.00,0.0249
808.00,0.0245
807.00,0.0231
806.00,0.0211
805.00,0.0190
804.00,0.0172
803.00,0.0157
802.00,0.0146
801.00,0.0137
800.00,0.0130
799.00,0.0124
798.00,0.0118
797.00,0.0113
796.00,0.0109
795.00,0.0104
794.00,0.0100
793.00,0.0097
792.00,0.0094
791.00,0.0092
790.00,0.0089
789.00,0.0086
788.00,0.0083
787.00,0.0080
786.00,0.0077
785.00,0.0074
784.00,0.0073
783.00,0.0073
782.00,0.0072
781.00,0.0071
780.00,0.0069
779.00,0.0068
778.00,0.0067
777.00,0.0067
776.00,0.0066
775.00,0.0065
774.00,0.0064
773.00,0.0065
772.00,0.0066
771.00,0.0067
770.00,0.0067
769.00,0.0067
768.00,0.0066
767.00,0.0066
766.00,0.0066
765.00,0.0066
764.00,0.0065
763.00,0.0064
762.00,0.0063
761.00,0.0063
760.00,0.0064
759.00,0.0065
758.00,0.0066
757.00,0.0066
756.00,0.0067
755.00,0.0068
754.00,0.0069
753.00,0.0071
752.00,0.0072
751.00,0.0074
750.00,0.0075
749.00,0.0077
748.00,0.0079
747.00,0.0080
746.00,0.0081
745.00,0.0083
744.00,0.0085
743.00,0.0088
742.00,0.0092
741.00,0.0096
740.00,0.0100
739.00,0.0103
738.00,0.0106
737.00,0.0110
736.00,0.0114
735.00,0.0118
734.00,0.0123
733.00,0.0129
732.00,0.0136
731.00,0.0142
730.00,0.0147
729.00,0.0149
728.00,0.0150
727.00,0.0150
726.00,0.0152
725.00,0.0156
724.00,0.0161
723.00,0.0167
722.00,0.0173
721.00,0.0175
720.00,0.0173
719.00,0.0165
718.00,0.0153
717.00,0.0141
716.00,0.0131
715.00,0.0123
714.00,0.0117
713.00,0.0113
712.00,0.0109
711.00,0.0106
710.00,0.0104
709.00,0.0102
708.00,0.0100
707.00,0.0099
706.00,0.0099
705.00,0.0098
704.00,0.0098
703.00,0.0097
702.00,0.0096
701.00,0.0095
700.00,0.0094
699.00,0.0095
698.00,0.0095
697.00,0.0096
696.00,0.0096
695.00,0.0097
694.00,0.0096
693.00,0.0094
692.00,0.0092
691.00,0.0090
690.00,0.0089
689.00,0.0091
688.00,0.0093
687.00,0.0095
686.00,0.0095
685.00,0.0092
684.00,0.0089
683.00,0.0090
682.00,0.0093
681.00,0.0095
680.00,0.0096
679.00,0.0096
678.00,0.0094
677.00,0.0093
676.00,0.0092
675.00,0.0092
674.00,0.0095
673.00,0.0098
672.00,0.0102
671.00,0.0105
670.00,0.0108
669.00,0.0108
668.00,0.0106
667.00,0.0102
666.00,0.0098
665.00,0.0094
664.00,0.0092
663.00,0.0090
662.00,0.0089
661.00,0.0087
660.00,0.0085
659.00,0.0085
658.00,0.0086
657.00,0.0088
656.00,0.0091
655.00,0.0093
654.00,0.0092
653.00,0.0090
652.00,0.0087
651.00,0.0083
650.00,0.0081
649.00,0.0081
648.00,0.0082
647.00,0.0084
646.00,0.0084
645.00,0.0083
644.00,0.0083
643.00,0.0083
642.00,0.0083
641.00,0.0083
640.00,0.0082
639.00,0.0079
638.00,0.0077
637.00,0.0075
636.00,0.0076
635.00,0.0077
634.00,0.0079
633.00,0.0081
632.00,0.0083
631.00,0.0084
630.00,0.0083
629.00,0.0083
628.00,0.0084
627.00,0.0085
626.00,0.0086
625.00,0.0086
624.00,0.0084
623.00,0.0082
622.00,0.0081
621.00,0.0082
620.00,0.0083
619.00,0.0083
618.00,0.0081
617.00,0.0078
616.00,0.0076
615.00,0.0075
614.00,0.0076
613.00,0.0077
612.00,0.0077
611.00,0.0076
610.00,0.0077
609.00,0.0079
608.00,0.0082
607.00,0.0084
606.00,0.0087
605.00,0.0088
604.00,0.0089
603.00,0.0090
602.00,0.0089
601.00,0.0087
600.00,0.0084
599.00,0.0082
598.00,0.0081
597.00,0.0080
596.00,0.0078
595.00,0.0077
594.00,0.0079
593.00,0.0081
592.00,0.0083
591.00,0.0084
590.00,0.0083
589.00,0.0080
588.00,0.0076
587.00,0.0073
586.00,0.0071
585.00,0.0071
584.00,0.0073
583.00,0.0075
582.00,0.0076
581.00,0.0077
580.00,0.0078
579.00,0.0080
578.00,0.0082
577.00,0.0084
576.00,0.0085
575.00,0.0084
574.00,0.0081
573.00,0.0078
572.00,0.0079
571.00,0.0082
570.00,0.0085
569.00,0.0086
568.00,0.0084
567.00,0.0083
566.00,0.0082
565.00,0.0081
564.00,0.0078
563.00,0.0078
562.00,0.0079
561.00,0.0082
560.00,0.0084
559.00,0.0084
558.00,0.0084
557.00,0.0084
556.00,0.0085
555.00,0.0086
554.00,0.0087
553.00,0.0087
552.00,0.0085
551.00,0.0083
550.00,0.0080
549.00,0.0079
548.00,0.0080
547.00,0.0082
546.00,0.0087
545.00,0.0092
544.00,0.0096
543.00,0.0099
542.00,0.0103
541.00,0.0108
540.00,0.0113
539.00,0.0115
538.00,0.0114
537.00,0.0111
536.00,0.0109
535.00,0.0110
534.00,0.0113
533.00,0.0116
532.00,0.0119
531.00,0.0121
530.00,0.0119
529.00,0.0115
528.00,0.0108
527.00,0.0102
526.00,0.0099
525.00,0.0100
524.00,0.0104
523.00,0.0108
522.00,0.0108
521.00,0.0103
520.00,0.0095
519.00,0.0089
518.00,0.0090
517.00,0.0094
516.00,0.0097
515.00,0.0096
514.00,0.0093
513.00,0.0090
512.00,0.0089
511.00,0.0092
510.00,0.0093
509.00,0.0092
508.00,0.0089
507.00,0.0087
506.00,0.0089
505.00,0.0091
504.00,0.0091
503.00,0.0090
502.00,0.0087
501.00,0.0085
500.00,0.0084
499.00,0.0083
498.00,0.0083
497.00,0.0084
496.00,0.0085
495.00,0.0087
494.00,0.0086
493.00,0.0084
492.00,0.0085
491.00,0.0090
490.00,0.0098
489.00,0.0100
488.00,0.0095
487.00,0.0085
486.00,0.0079
485.00,0.0082
484.00,0.0090
483.00,0.0098
482.00,0.0102
481.00,0.0099
480.00,0.0090
479.00,0.0082
478.00,0.0081
477.00,0.0087
476.00,0.0097
475.00,0.0108
474.00,0.0122
473.00,0.0135
472.00,0.0146
471.00,0.0152
470.00,0.0156
469.00,0.0161
468.00,0.0167
467.00,0.0172
466.00,0.0178
465.00,0.0186
464.00,0.0194
463.00,0.0197
462.00,0.0193
461.00,0.0189
460.00,0.0188
459.00,0.0189
458.00,0.0190
457.00,0.0187
456.00,0.0183
455.00,0.0179
454.00,0.0172
453.00,0.0162
452.00,0.0152
451.00,0.0149
450.00,0.0152
