Created as New Dataset,Sample 244 By Administrator Date Wednesday, September 03 2025
cm-1,A
4000.00,0.0008
3999.00,0.0008
3998.00,0.0009
3997.00,0.0009
3996.00,0.0009
3995.00,0.0009
3994.00,0.0009
3993.00,0.0009
3992.00,0.0009
3991.00,0.0008
3990.00,0.0008
3989.00,0.0008
3988.00,0.0008
3987.00,0.0008
3986.00,0.0008
3985.00,0.0007
3984.00,0.0007
3983.00,0.0007
3982.00,0.0007
3981.00,0.0007
3980.00,0.0007
3979.00,0.0007
3978.00,0.0007
3977.00,0.0007
3976.00,0.0007
3975.00,0.0007
3974.00,0.0007
3973.00,0.0007
3972.00,0.0007
3971.00,0.0007
3970.00,0.0007
3969.00,0.0007
3968.00,0.0008
3967.00,0.0008
3966.00,0.0008
3965.00,0.0008
3964.00,0.0008
3963.00,0.0007
3962.00,0.0007
3961.00,0.0007
3960.00,0.0007
3959.00,0.0007
3958.00,0.0007
3957.00,0.0006
3956.00,0.0006
3955.00,0.0006
3954.00,0.0007
3953.00,0.0007
3952.00,0.0007
3951.00,0.0007
3950.00,0.0007
3949.00,0.0007
3948.00,0.0007
3947.00,0.0007
3946.00,0.0007
3945.00,0.0007
3944.00,0.0006
3943.00,0.0006
3942.00,0.0006
3941.00,0.0006
3940.00,0.0006
3939.00,0.0006
3938.00,0.0006
3937.00,0.0006
3936.00,0.0006
3935.00,0.0006
3934.00,0.0007
3933.00,0.0007
3932.00,0.0007
3931.00,0.0007
3930.00,0.0007
3929.00,0.0008
3928.00,0.0008
3927.00,0.0007
3926.00,0.0007
3925.00,0.0007
3924.00,0.0007
3923.00,0.0006
3922.00,0.0007
3921.00,0.0007
3920.00,0.0007
3919.00,0.0007
3918.00,0.0007
3917.00,0.0007
3916.00,0.0007
3915.00,0.0007
3914.00,0.0007
3913.00,0.0007
3912.00,0.0007
3911.00,0.0007
3910.00,0.0006
3909.00,0.0006
3908.00,0.0006
3907.00,0.0006
3906.00,0.0006
3905.00,0.0006
3904.00,0.0006
3903.00,0.0006
3902.00,0.0006
3901.00,0.0006
3900.00,0.0006
3899.00,0.0006
3898.00,0.0006
3897.00,0.0006
3896.00,0.0006
3895.00,0.0006
3894.00,0.0006
3893.00,0.0006
3892.00,0.0007
3891.00,0.0007
3890.00,0.0007
3889.00,0.0007
3888.00,0.0007
3887.00,0.0007
3886.00,0.0007
3885.00,0.0007
3884.00,0.0007
3883.00,0.0006
3882.00,0.0006
3881.00,0.0006
3880.00,0.0006
3879.00,0.0006
3878.00,0.0006
3877.00,0.0006
3876.00,0.0006
3875.00,0.0006
3874.00,0.0006
3873.00,0.0006
3872.00,0.0006
3871.00,0.0006
3870.00,0.0006
3869.00,0.0006
3868.00,0.0006
3867.00,0.0006
3866.00,0.0006
3865.00,0.0006
3864.00,0.0006
3863.00,0.0006
3862.00,0.0006
3861.00,0.0005
3860.00,0.0005
3859.00,0.0005
3858.00,0.0005
3857.00,0.0004
3856.00,0.0004
3855.00,0.0004
3854.00,0.0004
3853.00,0.0004
3852.00,0.0004
3851.00,0.0004
3850.00,0.0005
3849.00,0.0005
3848.00,0.0005
3847.00,0.0006
3846.00,0.0006
3845.00,0.0006
3844.00,0.0005
3843.00,0.0005
3842.00,0.0005
3841.00,0.0005
3840.00,0.0005
3839.00,0.0006
3838.00,0.0006
3837.00,0.0006
3836.00,0.0005
3835.00,0.0005
3834.00,0.0005
3833.00,0.0005
3832.00,0.0005
3831.00,0.0006
3830.00,0.0006
3829.00,0.0006
3828.00,0.0005
3827.00,0.0005
3826.00,0.0005
3825.00,0.0005
3824.00,0.0005
3823.00,0.0005
3822.00,0.0005
3821.00,0.0006
3820.00,0.0006
3819.00,0.0006
3818.00,0.0006
3817.00,0.0006
3816.00,0.0006
3815.00,0.0005
3814.00,0.0005
3813.00,0.0005
3812.00,0.0006
3811.00,0.0006
3810.00,0.0006
3809.00,0.0006
3808.00,0.0006
3807.00,0.0006
3806.00,0.0006
3805.00,0.0006
3804.00,0.0005
3803.00,0.0005
3802.00,0.0005
3801.00,0.0006
3800.00,0.0006
3799.00,0.0007
3798.00,0.0007
3797.00,0.0007
3796.00,0.0006
3795.00,0.0006
3794.00,0.0005
3793.00,0.0005
3792.00,0.0006
3791.00,0.0006
3790.00,0.0007
3789.00,0.0007
3788.00,0.0007
3787.00,0.0007
3786.00,0.0006
3785.00,0.0006
3784.00,0.0006
3783.00,0.0006
3782.00,0.0006
3781.00,0.0006
3780.00,0.0006
3779.00,0.0006
3778.00,0.0007
3777.00,0.0007
3776.00,0.0007
3775.00,0.0007
3774.00,0.0007
3773.00,0.0007
3772.00,0.0007
3771.00,0.0007
3770.00,0.0007
3769.00,0.0007
3768.00,0.0007
3767.00,0.0007
3766.00,0.0007
3765.00,0.0007
3764.00,0.0007
3763.00,0.0007
3762.00,0.0007
3761.00,0.0006
3760.00,0.0006
3759.00,0.0006
3758.00,0.0006
3757.00,0.0006
3756.00,0.0006
3755.00,0.0006
3754.00,0.0006
3753.00,0.0006
3752.00,0.0006
3751.00,0.0006
3750.00,0.0006
3749.00,0.0005
3748.00,0.0005
3747.00,0.0004
3746.00,0.0004
3745.00,0.0005
3744.00,0.0005
3743.00,0.0006
3742.00,0.0005
3741.00,0.0005
3740.00,0.0005
3739.00,0.0005
3738.00,0.0005
3737.00,0.0005
3736.00,0.0005
3735.00,0.0005
3734.00,0.0005
3733.00,0.0005
3732.00,0.0005
3731.00,0.0005
3730.00,0.0006
3729.00,0.0006
3728.00,0.0007
3727.00,0.0007
3726.00,0.0007
3725.00,0.0006
3724.00,0.0005
3723.00,0.0005
3722.00,0.0005
3721.00,0.0005
3720.00,0.0006
3719.00,0.0006
3718.00,0.0006
3717.00,0.0006
3716.00,0.0006
3715.00,0.0005
3714.00,0.0005
3713.00,0.0005
3712.00,0.0004
3711.00,0.0004
3710.00,0.0003
3709.00,0.0003
3708.00,0.0003
3707.00,0.0004
3706.00,0.0004
3705.00,0.0004
3704.00,0.0004
3703.00,0.0004
3702.00,0.0004
3701.00,0.0004
3700.00,0.0005
3699.00,0.0005
3698.00,0.0005
3697.00,0.0005
3696.00,0.0005
3695.00,0.0005
3694.00,0.0005
3693.00,0.0005
3692.00,0.0005
3691.00,0.0004
3690.00,0.0004
3689.00,0.0004
3688.00,0.0004
3687.00,0.0004
3686.00,0.0005
3685.00,0.0005
3684.00,0.0005
3683.00,0.0006
3682.00,0.0006
3681.00,0.0007
3680.00,0.0007
3679.00,0.0007
3678.00,0.0007
3677.00,0.0007
3676.00,0.0006
3675.00,0.0006
3674.00,0.0006
3673.00,0.0005
3672.00,0.0005
3671.00,0.0004
3670.00,0.0004
3669.00,0.0005
3668.00,0.0005
3667.00,0.0006
3666.00,0.0006
3665.00,0.0006
3664.00,0.0005
3663.00,0.0005
3662.00,0.0006
3661.00,0.0006
3660.00,0.0006
3659.00,0.0005
3658.00,0.0005
3657.00,0.0005
3656.00,0.0006
3655.00,0.0006
3654.00,0.0006
3653.00,0.0006
3652.00,0.0006
3651.00,0.0006
3650.00,0.0006
3649.00,0.0006
3648.00,0.0006
3647.00,0.0006
3646.00,0.0006
3645.00,0.0006
3644.00,0.0006
3643.00,0.0006
3642.00,0.0006
3641.00,0.0006
3640.00,0.0006
3639.00,0.0006
3638.00,0.0007
3637.00,0.0007
3636.00,0.0007
3635.00,0.0007
3634.00,0.0007
3633.00,0.0007
3632.00,0.0007
3631.00,0.0007
3630.00,0.0006
3629.00,0.0006
3628.00,0.0006
3627.00,0.0006
3626.00,0.0007
3625.00,0.0007
3624.00,0.0008
3623.00,0.0008
3622.00,0.0008
3621.00,0.0007
3620.00,0.0007
3619.00,0.0007
3618.00,0.0007
3617.00,0.0007
3616.00,0.0008
3615.00,0.0009
3614.00,0.0009
3613.00,0.0010
3612.00,0.0010
3611.00,0.0010
3610.00,0.0010
3609.00,0.0010
3608.00,0.0010
3607.00,0.0011
3606.00,0.0011
3605.00,0.0010
3604.00,0.0010
3603.00,0.0010
3602.00,0.0010
3601.00,0.0010
3600.00,0.0011
3599.00,0.0011
3598.00,0.0011
3597.00,0.0011
3596.00,0.0011
3595.00,0.0011
3594.00,0.0011
3593.00,0.0011
3592.00,0.0012
3591.00,0.0012
3590.00,0.0012
3589.00,0.0012
3588.00,0.0012
3587.00,0.0012
3586.00,0.0012
3585.00,0.0012
3584.00,0.0012
3583.00,0.0012
3582.00,0.0012
3581.00,0.0013
3580.00,0.0013
3579.00,0.0014
3578.00,0.0014
3577.00,0.0014
3576.00,0.0014
3575.00,0.0014
3574.00,0.0014
3573.00,0.0014
3572.00,0.0015
3571.00,0.0015
3570.00,0.0015
3569.00,0.0015
3568.00,0.0015
3567.00,0.0015
3566.00,0.0015
3565.00,0.0016
3564.00,0.0016
3563.00,0.0017
3562.00,0.0017
3561.00,0.0017
3560.00,0.0017
3559.00,0.0018
3558.00,0.0018
3557.00,0.0018
3556.00,0.0018
3555.00,0.0018
3554.00,0.0018
3553.00,0.0018
3552.00,0.0018
3551.00,0.0018
3550.00,0.0019
3549.00,0.0019
3548.00,0.0020
3547.00,0.0020
3546.00,0.0020
3545.00,0.0021
3544.00,0.0021
3543.00,0.0022
3542.00,0.0022
3541.00,0.0022
3540.00,0.0022
3539.00,0.0022
3538.00,0.0022
3537.00,0.0022
3536.00,0.0022
3535.00,0.0022
3534.00,0.0022
3533.00,0.0023
3532.00,0.0023
3531.00,0.0023
3530.00,0.0024
3529.00,0.0024
3528.00,0.0024
3527.00,0.0025
3526.00,0.0025
3525.00,0.0025
3524.00,0.0026
3523.00,0.0026
3522.00,0.0026
3521.00,0.0027
3520.00,0.0027
3519.00,0.0027
3518.00,0.0027
3517.00,0.0028
3516.00,0.0028
3515.00,0.0028
3514.00,0.0028
3513.00,0.0028
3512.00,0.0029
3511.00,0.0029
3510.00,0.0029
3509.00,0.0029
3508.00,0.0030
3507.00,0.0030
3506.00,0.0030
3505.00,0.0030
3504.00,0.0030
3503.00,0.0031
3502.00,0.0031
3501.00,0.0032
3500.00,0.0032
3499.00,0.0033
3498.00,0.0033
3497.00,0.0033
3496.00,0.0033
3495.00,0.0033
3494.00,0.0033
3493.00,0.0034
3492.00,0.0034
3491.00,0.0034
3490.00,0.0034
3489.00,0.0034
3488.00,0.0034
3487.00,0.0034
3486.00,0.0035
3485.00,0.0035
3484.00,0.0035
3483.00,0.0036
3482.00,0.0036
3481.00,0.0036
3480.00,0.0036
3479.00,0.0036
3478.00,0.0037
3477.00,0.0037
3476.00,0.0037
3475.00,0.0038
3474.00,0.0038
3473.00,0.0038
3472.00,0.0038
3471.00,0.0038
3470.00,0.0039
3469.00,0.0039
3468.00,0.0039
3467.00,0.0039
3466.00,0.0039
3465.00,0.0039
3464.00,0.0039
3463.00,0.0039
3462.00,0.0040
3461.00,0.0040
3460.00,0.0041
3459.00,0.0041
3458.00,0.0041
3457.00,0.0042
3456.00,0.0042
3455.00,0.0042
3454.00,0.0043
3453.00,0.0043
3452.00,0.0043
3451.00,0.0043
3450.00,0.0043
3449.00,0.0043
3448.00,0.0043
3447.00,0.0043
3446.00,0.0043
3445.00,0.0043
3444.00,0.0043
3443.00,0.0044
3442.00,0.0045
3441.00,0.0045
3440.00,0.0046
3439.00,0.0046
3438.00,0.0047
3437.00,0.0047
3436.00,0.0046
3435.00,0.0046
3434.00,0.0047
3433.00,0.0047
3432.00,0.0047
3431.00,0.0048
3430.00,0.0048
3429.00,0.0048
3428.00,0.0048
3427.00,0.0049
3426.00,0.0049
3425.00,0.0049
3424.00,0.0050
3423.00,0.0050
3422.00,0.0050
3421.00,0.0049
3420.00,0.0050
3419.00,0.0050
3418.00,0.0050
3417.00,0.0050
3416.00,0.0051
3415.00,0.0051
3414.00,0.0051
3413.00,0.0051
3412.00,0.0052
3411.00,0.0052
3410.00,0.0053
3409.00,0.0053
3408.00,0.0053
3407.00,0.0053
3406.00,0.0054
3405.00,0.0054
3404.00,0.0054
3403.00,0.0055
3402.00,0.0054
3401.00,0.0054
3400.00,0.0054
3399.00,0.0054
3398.00,0.0055
3397.00,0.0055
3396.00,0.0056
3395.00,0.0056
3394.00,0.0056
3393.00,0.0056
3392.00,0.0056
3391.00,0.0056
3390.00,0.0056
3389.00,0.0056
3388.00,0.0055
3387.00,0.0055
3386.00,0.0055
3385.00,0.0055
3384.00,0.0055
3383.00,0.0055
3382.00,0.0055
3381.00,0.0054
3380.00,0.0054
3379.00,0.0055
3378.00,0.0055
3377.00,0.0056
3376.00,0.0056
3375.00,0.0056
3374.00,0.0055
3373.00,0.0055
3372.00,0.0055
3371.00,0.0055
3370.00,0.0055
3369.00,0.0054
3368.00,0.0054
3367.00,0.0054
3366.00,0.0055
3365.00,0.0055
3364.00,0.0055
3363.00,0.0055
3362.00,0.0055
3361.00,0.0055
3360.00,0.0055
3359.00,0.0056
3358.00,0.0056
3357.00,0.0056
3356.00,0.0056
3355.00,0.0056
3354.00,0.0056
3353.00,0.0056
3352.00,0.0057
3351.00,0.0057
3350.00,0.0057
3349.00,0.0056
3348.00,0.0056
3347.00,0.0055
3346.00,0.0055
3345.00,0.0055
3344.00,0.0055
3343.00,0.0055
3342.00,0.0055
3341.00,0.0055
3340.00,0.0055
3339.00,0.0055
3338.00,0.0055
3337.00,0.0055
3336.00,0.0055
3335.00,0.0055
3334.00,0.0055
3333.00,0.0055
3332.00,0.0055
3331.00,0.0055
3330.00,0.0054
3329.00,0.0054
3328.00,0.0054
3327.00,0.0055
3326.00,0.0055
3325.00,0.0054
3324.00,0.0054
3323.00,0.0054
3322.00,0.0054
3321.00,0.0054
3320.00,0.0054
3319.00,0.0054
3318.00,0.0054
3317.00,0.0054
3316.00,0.0054
3315.00,0.0054
3314.00,0.0054
3313.00,0.0054
3312.00,0.0054
3311.00,0.0055
3310.00,0.0055
3309.00,0.0055
3308.00,0.0055
3307.00,0.0055
3306.00,0.0055
3305.00,0.0056
3304.00,0.0056
3303.00,0.0056
3302.00,0.0057
3301.00,0.0056
3300.00,0.0056
3299.00,0.0056
3298.00,0.0055
3297.00,0.0055
3296.00,0.0054
3295.00,0.0054
3294.00,0.0054
3293.00,0.0053
3292.00,0.0053
3291.00,0.0053
3290.00,0.0052
3289.00,0.0052
3288.00,0.0051
3287.00,0.0051
3286.00,0.0051
3285.00,0.0050
3284.00,0.0050
3283.00,0.0051
3282.00,0.0051
3281.00,0.0050
3280.00,0.0050
3279.00,0.0050
3278.00,0.0050
3277.00,0.0050
3276.00,0.0050
3275.00,0.0050
3274.00,0.0049
3273.00,0.0049
3272.00,0.0048
3271.00,0.0048
3270.00,0.0047
3269.00,0.0047
3268.00,0.0046
3267.00,0.0046
3266.00,0.0046
3265.00,0.0046
3264.00,0.0046
3263.00,0.0046
3262.00,0.0046
3261.00,0.0046
3260.00,0.0046
3259.00,0.0046
3258.00,0.0047
3257.00,0.0046
3256.00,0.0046
3255.00,0.0046
3254.00,0.0045
3253.00,0.0045
3252.00,0.0045
3251.00,0.0044
3250.00,0.0045
3249.00,0.0045
3248.00,0.0045
3247.00,0.0045
3246.00,0.0044
3245.00,0.0044
3244.00,0.0044
3243.00,0.0044
3242.00,0.0044
3241.00,0.0044
3240.00,0.0043
3239.00,0.0043
3238.00,0.0043
3237.00,0.0043
3236.00,0.0043
3235.00,0.0043
3234.00,0.0043
3233.00,0.0044
3232.00,0.0044
3231.00,0.0045
3230.00,0.0045
3229.00,0.0045
3228.00,0.0044
3227.00,0.0044
3226.00,0.0044
3225.00,0.0044
3224.00,0.0044
3223.00,0.0044
3222.00,0.0043
3221.00,0.0043
3220.00,0.0044
3219.00,0.0044
3218.00,0.0045
3217.00,0.0045
3216.00,0.0045
3215.00,0.0045
3214.00,0.0045
3213.00,0.0045
3212.00,0.0046
3211.00,0.0046
3210.00,0.0046
3209.00,0.0046
3208.00,0.0046
3207.00,0.0046
3206.00,0.0046
3205.00,0.0046
3204.00,0.0046
3203.00,0.0046
3202.00,0.0047
3201.00,0.0047
3200.00,0.0047
3199.00,0.0047
3198.00,0.0047
3197.00,0.0047
3196.00,0.0047
3195.00,0.0047
3194.00,0.0047
3193.00,0.0046
3192.00,0.0046
3191.00,0.0046
3190.00,0.0046
3189.00,0.0046
3188.00,0.0046
3187.00,0.0046
3186.00,0.0045
3185.00,0.0045
3184.00,0.0045
3183.00,0.0044
3182.00,0.0044
3181.00,0.0044
3180.00,0.0043
3179.00,0.0043
3178.00,0.0043
3177.00,0.0043
3176.00,0.0043
3175.00,0.0043
3174.00,0.0042
3173.00,0.0042
3172.00,0.0042
3171.00,0.0042
3170.00,0.0041
3169.00,0.0041
3168.00,0.0041
3167.00,0.0041
3166.00,0.0041
3165.00,0.0042
3164.00,0.0042
3163.00,0.0041
3162.00,0.0041
3161.00,0.0041
3160.00,0.0041
3159.00,0.0040
3158.00,0.0040
3157.00,0.0040
3156.00,0.0040
3155.00,0.0040
3154.00,0.0040
3153.00,0.0040
3152.00,0.0040
3151.00,0.0040
3150.00,0.0040
3149.00,0.0039
3148.00,0.0039
3147.00,0.0039
3146.00,0.0039
3145.00,0.0039
3144.00,0.0039
3143.00,0.0039
3142.00,0.0039
3141.00,0.0039
3140.00,0.0038
3139.00,0.0038
3138.00,0.0038
3137.00,0.0038
3136.00,0.0038
3135.00,0.0037
3134.00,0.0037
3133.00,0.0037
3132.00,0.0037
3131.00,0.0036
3130.00,0.0036
3129.00,0.0036
3128.00,0.0036
3127.00,0.0036
3126.00,0.0036
3125.00,0.0036
3124.00,0.0035
3123.00,0.0035
3122.00,0.0034
3121.00,0.0034
3120.00,0.0034
3119.00,0.0034
3118.00,0.0034
3117.00,0.0033
3116.00,0.0033
3115.00,0.0033
3114.00,0.0032
3113.00,0.0032
3112.00,0.0033
3111.00,0.0033
3110.00,0.0033
3109.00,0.0032
3108.00,0.0032
3107.00,0.0032
3106.00,0.0032
3105.00,0.0032
3104.00,0.0032
3103.00,0.0032
3102.00,0.0031
3101.00,0.0031
3100.00,0.0030
3099.00,0.0030
3098.00,0.0030
3097.00,0.0030
3096.00,0.0030
3095.00,0.0030
3094.00,0.0030
3093.00,0.0030
3092.00,0.0030
3091.00,0.0030
3090.00,0.0030
3089.00,0.0030
3088.00,0.0029
3087.00,0.0029
3086.00,0.0029
3085.00,0.0029
3084.00,0.0029
3083.00,0.0029
3082.00,0.0029
3081.00,0.0029
3080.00,0.0030
3079.00,0.0030
3078.00,0.0030
3077.00,0.0030
3076.00,0.0030
3075.00,0.0030
3074.00,0.0030
3073.00,0.0030
3072.00,0.0030
3071.00,0.0030
3070.00,0.0030
3069.00,0.0030
3068.00,0.0030
3067.00,0.0030
3066.00,0.0031
3065.00,0.0031
3064.00,0.0031
3063.00,0.0031
3062.00,0.0031
3061.00,0.0031
3060.00,0.0031
3059.00,0.0031
3058.00,0.0031
3057.00,0.0032
3056.00,0.0032
3055.00,0.0032
3054.00,0.0032
3053.00,0.0033
3052.00,0.0033
3051.00,0.0034
3050.00,0.0034
3049.00,0.0034
3048.00,0.0034
3047.00,0.0034
3046.00,0.0034
3045.00,0.0034
3044.00,0.0034
3043.00,0.0034
3042.00,0.0034
3041.00,0.0035
3040.00,0.0035
3039.00,0.0036
3038.00,0.0036
3037.00,0.0036
3036.00,0.0037
3035.00,0.0037
3034.00,0.0037
3033.00,0.0037
3032.00,0.0038
3031.00,0.0038
3030.00,0.0039
3029.00,0.0039
3028.00,0.0040
3027.00,0.0040
3026.00,0.0041
3025.00,0.0041
3024.00,0.0042
3023.00,0.0042
3022.00,0.0043
3021.00,0.0043
3020.00,0.0044
3019.00,0.0045
3018.00,0.0046
3017.00,0.0047
3016.00,0.0048
3015.00,0.0049
3014.00,0.0050
3013.00,0.0051
3012.00,0.0052
3011.00,0.0053
3010.00,0.0054
3009.00,0.0055
3008.00,0.0057
3007.00,0.0058
3006.00,0.0060
3005.00,0.0061
3004.00,0.0063
3003.00,0.0064
3002.00,0.0066
3001.00,0.0068
3000.00,0.0070
2999.00,0.0073
2998.00,0.0076
2997.00,0.0079
2996.00,0.0082
2995.00,0.0086
2994.00,0.0090
2993.00,0.0094
2992.00,0.0099
2991.00,0.0104
2990.00,0.0110
2989.00,0.0116
2988.00,0.0123
2987.00,0.0130
2986.00,0.0138
2985.00,0.0147
2984.00,0.0158
2983.00,0.0170
2982.00,0.0183
2981.00,0.0198
2980.00,0.0216
2979.00,0.0235
2978.00,0.0258
2977.00,0.0283
2976.00,0.0312
2975.00,0.0346
2974.00,0.0383
2973.00,0.0426
2972.00,0.0474
2971.00,0.0528
2970.00,0.0588
2969.00,0.0653
2968.00,0.0723
2967.00,0.0797
2966.00,0.0873
2965.00,0.0949
2964.00,0.1022
2963.00,0.1089
2962.00,0.1148
2961.00,0.1198
2960.00,0.1241
2959.00,0.1282
2958.00,0.1325
2957.00,0.1375
2956.00,0.1437
2955.00,0.1510
2954.00,0.1593
2953.00,0.1679
2952.00,0.1759
2951.00,0.1819
2950.00,0.1847
2949.00,0.1836
2948.00,0.1783
2947.00,0.1693
2946.00,0.1578
2945.00,0.1453
2944.00,0.1334
2943.00,0.1230
2942.00,0.1150
2941.00,0.1095
2940.00,0.1064
2939.00,0.1057
2938.00,0.1069
2937.00,0.1099
2936.00,0.1146
2935.00,0.1209
2934.00,0.1285
2933.00,0.1374
2932.00,0.1474
2931.00,0.1583
2930.00,0.1699
2929.00,0.1820
2928.00,0.1942
2927.00,0.2062
2926.00,0.2179
2925.00,0.2293
2924.00,0.2404
2923.00,0.2514
2922.00,0.2625
2921.00,0.2733
2920.00,0.2831
2919.00,0.2909
2918.00,0.2954
2917.00,0.2956
2916.00,0.2912
2915.00,0.2828
2914.00,0.2716
2913.00,0.2589
2912.00,0.2460
2911.00,0.2339
2910.00,0.2229
2909.00,0.2129
2908.00,0.2039
2907.00,0.1954
2906.00,0.1874
2905.00,0.1796
2904.00,0.1720
2903.00,0.1647
2902.00,0.1576
2901.00,0.1508
2900.00,0.1443
2899.00,0.1382
2898.00,0.1325
2897.00,0.1273
2896.00,0.1227
2895.00,0.1186
2894.00,0.1152
2893.00,0.1123
2892.00,0.1101
2891.00,0.1085
2890.00,0.1074
2889.00,0.1068
2888.00,0.1066
2887.00,0.1066
2886.00,0.1071
2885.00,0.1079
2884.00,0.1093
2883.00,0.1111
2882.00,0.1136
2881.00,0.1164
2880.00,0.1192
2879.00,0.1218
2878.00,0.1236
2877.00,0.1244
2876.00,0.1243
2875.00,0.1237
2874.00,0.1230
2873.00,0.1228
2872.00,0.1234
2871.00,0.1247
2870.00,0.1266
2869.00,0.1285
2868.00,0.1299
2867.00,0.1299
2866.00,0.1277
2865.00,0.1230
2864.00,0.1164
2863.00,0.1086
2862.00,0.1008
2861.00,0.0938
2860.00,0.0884
2859.00,0.0846
2858.00,0.0823
2857.00,0.0814
2856.00,0.0816
2855.00,0.0825
2854.00,0.0840
2853.00,0.0858
2852.00,0.0876
2851.00,0.0890
2850.00,0.0899
2849.00,0.0903
2848.00,0.0905
2847.00,0.0911
2846.00,0.0926
2845.00,0.0952
2844.00,0.0990
2843.00,0.1037
2842.00,0.1089
2841.00,0.1139
2840.00,0.1180
2839.00,0.1204
2838.00,0.1203
2837.00,0.1173
2836.00,0.1113
2835.00,0.1028
2834.00,0.0927
2833.00,0.0820
2832.00,0.0718
2831.00,0.0627
2830.00,0.0550
2829.00,0.0486
2828.00,0.0434
2827.00,0.0392
2826.00,0.0358
2825.00,0.0330
2824.00,0.0307
2823.00,0.0287
2822.00,0.0271
2821.00,0.0256
2820.00,0.0244
2819.00,0.0233
2818.00,0.0224
2817.00,0.0216
2816.00,0.0209
2815.00,0.0202
2814.00,0.0196
2813.00,0.0190
2812.00,0.0185
2811.00,0.0179
2810.00,0.0174
2809.00,0.0168
2808.00,0.0161
2807.00,0.0155
2806.00,0.0148
2805.00,0.0141
2804.00,0.0135
2803.00,0.0129
2802.00,0.0124
2801.00,0.0119
2800.00,0.0115
2799.00,0.0112
2798.00,0.0109
2797.00,0.0106
2796.00,0.0104
2795.00,0.0102
2794.00,0.0099
2793.00,0.0096
2792.00,0.0093
2791.00,0.0090
2790.00,0.0087
2789.00,0.0085
2788.00,0.0082
2787.00,0.0079
2786.00,0.0077
2785.00,0.0074
2784.00,0.0072
2783.00,0.0070
2782.00,0.0068
2781.00,0.0067
2780.00,0.0065
2779.00,0.0064
2778.00,0.0062
2777.00,0.0060
2776.00,0.0059
2775.00,0.0058
2774.00,0.0057
2773.00,0.0056
2772.00,0.0056
2771.00,0.0056
2770.00,0.0056
2769.00,0.0056
2768.00,0.0055
2767.00,0.0055
2766.00,0.0054
2765.00,0.0054
2764.00,0.0053
2763.00,0.0053
2762.00,0.0053
2761.00,0.0052
2760.00,0.0051
2759.00,0.0051
2758.00,0.0051
2757.00,0.0051
2756.00,0.0051
2755.00,0.0051
2754.00,0.0051
2753.00,0.0051
2752.00,0.0050
2751.00,0.0050
2750.00,0.0050
2749.00,0.0050
2748.00,0.0050
2747.00,0.0050
2746.00,0.0051
2745.00,0.0051
2744.00,0.0052
2743.00,0.0053
2742.00,0.0054
2741.00,0.0055
2740.00,0.0056
2739.00,0.0057
2738.00,0.0058
2737.00,0.0059
2736.00,0.0060
2735.00,0.0061
2734.00,0.0063
2733.00,0.0065
2732.00,0.0067
2731.00,0.0069
2730.00,0.0071
2729.00,0.0074
2728.00,0.0077
2727.00,0.0080
2726.00,0.0083
2725.00,0.0085
2724.00,0.0087
2723.00,0.0087
2722.00,0.0086
2721.00,0.0084
2720.00,0.0081
2719.00,0.0078
2718.00,0.0075
2717.00,0.0071
2716.00,0.0068
2715.00,0.0065
2714.00,0.0063
2713.00,0.0061
2712.00,0.0059
2711.00,0.0057
2710.00,0.0055
2709.00,0.0053
2708.00,0.0051
2707.00,0.0050
2706.00,0.0049
2705.00,0.0048
2704.00,0.0047
2703.00,0.0047
2702.00,0.0046
2701.00,0.0045
2700.00,0.0044
2699.00,0.0043
2698.00,0.0043
2697.00,0.0043
2696.00,0.0043
2695.00,0.0043
2694.00,0.0043
2693.00,0.0043
2692.00,0.0043
2691.00,0.0043
2690.00,0.0042
2689.00,0.0042
2688.00,0.0042
2687.00,0.0043
2686.00,0.0043
2685.00,0.0043
2684.00,0.0044
2683.00,0.0044
2682.00,0.0044
2681.00,0.0044
2680.00,0.0044
2679.00,0.0044
2678.00,0.0044
2677.00,0.0044
2676.00,0.0044
2675.00,0.0043
2674.00,0.0043
2673.00,0.0043
2672.00,0.0042
2671.00,0.0042
2670.00,0.0042
2669.00,0.0043
2668.00,0.0043
2667.00,0.0043
2666.00,0.0043
2665.00,0.0044
2664.00,0.0044
2663.00,0.0045
2662.00,0.0046
2661.00,0.0046
2660.00,0.0047
2659.00,0.0047
2658.00,0.0046
2657.00,0.0046
2656.00,0.0045
2655.00,0.0045
2654.00,0.0044
2653.00,0.0044
2652.00,0.0044
2651.00,0.0043
2650.00,0.0043
2649.00,0.0042
2648.00,0.0042
2647.00,0.0042
2646.00,0.0041
2645.00,0.0041
2644.00,0.0040
2643.00,0.0040
2642.00,0.0039
2641.00,0.0039
2640.00,0.0038
2639.00,0.0038
2638.00,0.0038
2637.00,0.0037
2636.00,0.0037
2635.00,0.0037
2634.00,0.0038
2633.00,0.0037
2632.00,0.0037
2631.00,0.0037
2630.00,0.0037
2629.00,0.0037
2628.00,0.0037
2627.00,0.0037
2626.00,0.0038
2625.00,0.0038
2624.00,0.0038
2623.00,0.0038
2622.00,0.0038
2621.00,0.0038
2620.00,0.0039
2619.00,0.0039
2618.00,0.0039
2617.00,0.0039
2616.00,0.0039
2615.00,0.0039
2614.00,0.0039
2613.00,0.0039
2612.00,0.0038
2611.00,0.0037
2610.00,0.0036
2609.00,0.0035
2608.00,0.0034
2607.00,0.0033
2606.00,0.0033
2605.00,0.0032
2604.00,0.0031
2603.00,0.0031
2602.00,0.0031
2601.00,0.0031
2600.00,0.0030
2599.00,0.0030
2598.00,0.0030
2597.00,0.0031
2596.00,0.0031
2595.00,0.0032
2594.00,0.0032
2593.00,0.0032
2592.00,0.0033
2591.00,0.0033
2590.00,0.0033
2589.00,0.0034
2588.00,0.0035
2587.00,0.0036
2586.00,0.0037
2585.00,0.0037
2584.00,0.0037
2583.00,0.0038
2582.00,0.0038
2581.00,0.0038
2580.00,0.0037
2579.00,0.0036
2578.00,0.0036
2577.00,0.0035
2576.00,0.0035
2575.00,0.0034
2574.00,0.0033
2573.00,0.0031
2572.00,0.0029
2571.00,0.0028
2570.00,0.0026
2569.00,0.0025
2568.00,0.0025
2567.00,0.0024
2566.00,0.0024
2565.00,0.0023
2564.00,0.0023
2563.00,0.0022
2562.00,0.0021
2561.00,0.0021
2560.00,0.0021
2559.00,0.0021
2558.00,0.0021
2557.00,0.0022
2556.00,0.0023
2555.00,0.0023
2554.00,0.0023
2553.00,0.0023
2552.00,0.0022
2551.00,0.0021
2550.00,0.0020
2549.00,0.0019
2548.00,0.0019
2547.00,0.0018
2546.00,0.0018
2545.00,0.0017
2544.00,0.0016
2543.00,0.0016
2542.00,0.0016
2541.00,0.0016
2540.00,0.0016
2539.00,0.0016
2538.00,0.0016
2537.00,0.0016
2536.00,0.0016
2535.00,0.0016
2534.00,0.0016
2533.00,0.0016
2532.00,0.0016
2531.00,0.0016
2530.00,0.0015
2529.00,0.0015
2528.00,0.0014
2527.00,0.0014
2526.00,0.0014
2525.00,0.0014
2524.00,0.0014
2523.00,0.0014
2522.00,0.0014
2521.00,0.0014
2520.00,0.0013
2519.00,0.0012
2518.00,0.0012
2517.00,0.0011
2516.00,0.0011
2515.00,0.0011
2514.00,0.0011
2513.00,0.0011
2512.00,0.0010
2511.00,0.0010
2510.00,0.0010
2509.00,0.0010
2508.00,0.0010
2507.00,0.0010
2506.00,0.0009
2505.00,0.0009
2504.00,0.0009
2503.00,0.0009
2502.00,0.0009
2501.00,0.0009
2500.00,0.0009
2499.00,0.0009
2498.00,0.0009
2497.00,0.0010
2496.00,0.0010
2495.00,0.0010
2494.00,0.0010
2493.00,0.0010
2492.00,0.0010
2491.00,0.0009
2490.00,0.0009
2489.00,0.0008
2488.00,0.0009
2487.00,0.0009
2486.00,0.0010
2485.00,0.0010
2484.00,0.0010
2483.00,0.0010
2482.00,0.0010
2481.00,0.0009
2480.00,0.0009
2479.00,0.0009
2478.00,0.0008
2477.00,0.0008
2476.00,0.0008
2475.00,0.0008
2474.00,0.0008
2473.00,0.0008
2472.00,0.0008
2471.00,0.0008
2470.00,0.0007
2469.00,0.0008
2468.00,0.0008
2467.00,0.0008
2466.00,0.0009
2465.00,0.0009
2464.00,0.0010
2463.00,0.0010
2462.00,0.0010
2461.00,0.0010
2460.00,0.0010
2459.00,0.0010
2458.00,0.0010
2457.00,0.0011
2456.00,0.0011
2455.00,0.0011
2454.00,0.0011
2453.00,0.0011
2452.00,0.0010
2451.00,0.0010
2450.00,0.0010
2449.00,0.0009
2448.00,0.0009
2447.00,0.0008
2446.00,0.0007
2445.00,0.0008
2444.00,0.0008
2443.00,0.0009
2442.00,0.0010
2441.00,0.0010
2440.00,0.0010
2439.00,0.0010
2438.00,0.0009
2437.00,0.0010
2436.00,0.0010
2435.00,0.0010
2434.00,0.0010
2433.00,0.0010
2432.00,0.0011
2431.00,0.0012
2430.00,0.0012
2429.00,0.0012
2428.00,0.0012
2427.00,0.0012
2426.00,0.0012
2425.00,0.0011
2424.00,0.0011
2423.00,0.0010
2422.00,0.0010
2421.00,0.0010
2420.00,0.0009
2419.00,0.0009
2418.00,0.0009
2417.00,0.0009
2416.00,0.0009
2415.00,0.0008
2414.00,0.0008
2413.00,0.0009
2412.00,0.0009
2411.00,0.0010
2410.00,0.0010
2409.00,0.0009
2408.00,0.0008
2407.00,0.0008
2406.00,0.0007
2405.00,0.0007
2404.00,0.0007
2403.00,0.0007
2402.00,0.0007
2401.00,0.0007
2400.00,0.0007
2399.00,0.0007
2398.00,0.0007
2397.00,0.0007
2396.00,0.0007
2395.00,0.0007
2394.00,0.0006
2393.00,0.0006
2392.00,0.0006
2391.00,0.0007
2390.00,0.0007
2389.00,0.0008
2388.00,0.0007
2387.00,0.0006
2386.00,0.0005
2385.00,0.0005
2384.00,0.0004
2383.00,0.0004
2382.00,0.0004
2381.00,0.0004
2380.00,0.0003
2379.00,0.0002
2378.00,0.0002
2377.00,0.0002
2376.00,0.0002
2375.00,0.0003
2374.00,0.0003
2373.00,0.0003
2372.00,0.0004
2371.00,0.0004
2370.00,0.0003
2369.00,0.0003
2368.00,0.0003
2367.00,0.0003
2366.00,0.0004
2365.00,0.0004
2364.00,0.0004
2363.00,0.0004
2362.00,0.0004
2361.00,0.0003
2360.00,0.0003
2359.00,0.0004
2358.00,0.0004
2357.00,0.0005
2356.00,0.0005
2355.00,0.0005
2354.00,0.0004
2353.00,0.0004
2352.00,0.0004
2351.00,0.0004
2350.00,0.0004
2349.00,0.0005
2348.00,0.0005
2347.00,0.0005
2346.00,0.0006
2345.00,0.0006
2344.00,0.0007
2343.00,0.0007
2342.00,0.0007
2341.00,0.0007
2340.00,0.0007
2339.00,0.0007
2338.00,0.0007
2337.00,0.0007
2336.00,0.0007
2335.00,0.0007
2334.00,0.0007
2333.00,0.0007
2332.00,0.0006
2331.00,0.0005
2330.00,0.0005
2329.00,0.0006
2328.00,0.0008
2327.00,0.0012
2326.00,0.0017
2325.00,0.0021
2324.00,0.0023
2323.00,0.0022
2322.00,0.0019
2321.00,0.0016
2320.00,0.0015
2319.00,0.0014
2318.00,0.0013
2317.00,0.0012
2316.00,0.0011
2315.00,0.0011
2314.00,0.0010
2313.00,0.0009
2312.00,0.0009
2311.00,0.0008
2310.00,0.0008
2309.00,0.0008
2308.00,0.0008
2307.00,0.0009
2306.00,0.0009
2305.00,0.0010
2304.00,0.0010
2303.00,0.0010
2302.00,0.0010
2301.00,0.0009
2300.00,0.0009
2299.00,0.0009
2298.00,0.0009
2297.00,0.0010
2296.00,0.0011
2295.00,0.0012
2294.00,0.0013
2293.00,0.0014
2292.00,0.0015
2291.00,0.0016
2290.00,0.0017
2289.00,0.0018
2288.00,0.0018
2287.00,0.0018
2286.00,0.0017
2285.00,0.0017
2284.00,0.0017
2283.00,0.0016
2282.00,0.0015
2281.00,0.0014
2280.00,0.0014
2279.00,0.0013
2278.00,0.0013
2277.00,0.0013
2276.00,0.0013
2275.00,0.0013
2274.00,0.0013
2273.00,0.0013
2272.00,0.0014
2271.00,0.0014
2270.00,0.0013
2269.00,0.0013
2268.00,0.0013
2267.00,0.0013
2266.00,0.0013
2265.00,0.0013
2264.00,0.0013
2263.00,0.0014
2262.00,0.0014
2261.00,0.0013
2260.00,0.0012
2259.00,0.0011
2258.00,0.0010
2257.00,0.0010
2256.00,0.0009
2255.00,0.0009
2254.00,0.0008
2253.00,0.0008
2252.00,0.0008
2251.00,0.0008
2250.00,0.0008
2249.00,0.0008
2248.00,0.0008
2247.00,0.0008
2246.00,0.0007
2245.00,0.0007
2244.00,0.0007
2243.00,0.0007
2242.00,0.0008
2241.00,0.0008
2240.00,0.0009
2239.00,0.0009
2238.00,0.0010
2237.00,0.0011
2236.00,0.0012
2235.00,0.0012
2234.00,0.0012
2233.00,0.0010
2232.00,0.0009
2231.00,0.0008
2230.00,0.0007
2229.00,0.0007
2228.00,0.0006
2227.00,0.0005
2226.00,0.0004
2225.00,0.0005
2224.00,0.0006
2223.00,0.0008
2222.00,0.0008
2221.00,0.0006
2220.00,0.0005
2219.00,0.0004
2218.00,0.0005
2217.00,0.0007
2216.00,0.0009
2215.00,0.0010
2214.00,0.0010
2213.00,0.0010
2212.00,0.0010
2211.00,0.0009
2210.00,0.0008
2209.00,0.0007
2208.00,0.0006
2207.00,0.0006
2206.00,0.0006
2205.00,0.0007
2204.00,0.0008
2203.00,0.0008
2202.00,0.0008
2201.00,0.0009
2200.00,0.0010
2199.00,0.0010
2198.00,0.0010
2197.00,0.0010
2196.00,0.0011
2195.00,0.0010
2194.00,0.0010
2193.00,0.0010
2192.00,0.0010
2191.00,0.0008
2190.00,0.0006
2189.00,0.0004
2188.00,0.0003
2187.00,0.0005
2186.00,0.0007
2185.00,0.0009
2184.00,0.0008
2183.00,0.0005
2182.00,0.0002
2181.00,0.0001
2180.00,0.0002
2179.00,0.0004
2178.00,0.0005
2177.00,0.0005
2176.00,0.0004
2175.00,0.0002
2174.00,0.0001
2173.00,0.0002
2172.00,0.0004
2171.00,0.0007
2170.00,0.0011
2169.00,0.0013
2168.00,0.0015
2167.00,0.0016
2166.00,0.0019
2165.00,0.0022
2164.00,0.0025
2163.00,0.0025
2162.00,0.0022
2161.00,0.0013
2160.00,-0.0002
2159.00,-0.0020
2158.00,-0.0032
2157.00,-0.0035
2156.00,-0.0031
2155.00,-0.0025
2154.00,-0.0021
2153.00,-0.0019
2152.00,-0.0019
2151.00,-0.0019
2150.00,-0.0019
2149.00,-0.0020
2148.00,-0.0020
2147.00,-0.0020
2146.00,-0.0019
2145.00,-0.0016
2144.00,-0.0014
2143.00,-0.0012
2142.00,-0.0012
2141.00,-0.0013
2140.00,-0.0013
2139.00,-0.0014
2138.00,-0.0014
2137.00,-0.0015
2136.00,-0.0016
2135.00,-0.0018
2134.00,-0.0020
2133.00,-0.0020
2132.00,-0.0019
2131.00,-0.0018
2130.00,-0.0016
2129.00,-0.0014
2128.00,-0.0013
2127.00,-0.0011
2126.00,-0.0010
2125.00,-0.0008
2124.00,-0.0007
2123.00,-0.0006
2122.00,-0.0006
2121.00,-0.0005
2120.00,-0.0006
2119.00,-0.0006
2118.00,-0.0005
2117.00,-0.0003
2116.00,-0.0002
2115.00,-0.0000
2114.00,0.0000
2113.00,0.0000
2112.00,-0.0000
2111.00,-0.0000
2110.00,0.0000
2109.00,0.0001
2108.00,0.0002
2107.00,0.0001
2106.00,0.0001
2105.00,0.0001
2104.00,0.0001
2103.00,0.0001
2102.00,0.0001
2101.00,0.0000
2100.00,-0.0000
2099.00,-0.0001
2098.00,-0.0002
2097.00,-0.0003
2096.00,-0.0004
2095.00,-0.0006
2094.00,-0.0007
2093.00,-0.0006
2092.00,-0.0005
2091.00,-0.0003
2090.00,-0.0002
2089.00,0.0000
2088.00,0.0001
2087.00,0.0002
2086.00,0.0002
2085.00,0.0002
2084.00,0.0001
2083.00,0.0000
2082.00,-0.0000
2081.00,0.0000
2080.00,0.0001
2079.00,0.0002
2078.00,0.0002
2077.00,0.0001
2076.00,0.0000
2075.00,-0.0001
2074.00,-0.0002
2073.00,-0.0003
2072.00,-0.0004
2071.00,-0.0004
2070.00,-0.0004
2069.00,-0.0003
2068.00,-0.0002
2067.00,-0.0002
2066.00,-0.0002
2065.00,-0.0002
2064.00,-0.0002
2063.00,-0.0002
2062.00,-0.0001
2061.00,0.0000
2060.00,0.0001
2059.00,0.0000
2058.00,-0.0000
2057.00,0.0000
2056.00,0.0001
2055.00,0.0001
2054.00,0.0001
2053.00,0.0002
2052.00,0.0006
2051.00,0.0009
2050.00,0.0009
2049.00,0.0007
2048.00,0.0005
2047.00,0.0004
2046.00,0.0003
2045.00,0.0002
2044.00,0.0000
2043.00,-0.0002
2042.00,-0.0002
2041.00,-0.0002
2040.00,-0.0001
2039.00,-0.0002
2038.00,-0.0003
2037.00,-0.0005
2036.00,-0.0006
2035.00,-0.0006
2034.00,-0.0005
2033.00,-0.0004
2032.00,-0.0003
2031.00,-0.0004
2030.00,-0.0006
2029.00,-0.0008
2028.00,-0.0008
2027.00,-0.0008
2026.00,-0.0008
2025.00,-0.0008
2024.00,-0.0007
2023.00,-0.0008
2022.00,-0.0010
2021.00,-0.0013
2020.00,-0.0015
2019.00,-0.0015
2018.00,-0.0013
2017.00,-0.0010
2016.00,-0.0007
2015.00,-0.0005
2014.00,-0.0004
2013.00,-0.0003
2012.00,-0.0004
2011.00,-0.0007
2010.00,-0.0010
2009.00,-0.0014
2008.00,-0.0015
2007.00,-0.0016
2006.00,-0.0015
2005.00,-0.0014
2004.00,-0.0014
2003.00,-0.0015
2002.00,-0.0016
2001.00,-0.0017
2000.00,-0.0016
1999.00,-0.0013
1998.00,-0.0010
1997.00,-0.0006
1996.00,-0.0004
1995.00,-0.0004
1994.00,-0.0006
1993.00,-0.0006
1992.00,-0.0006
1991.00,-0.0006
1990.00,-0.0006
1989.00,-0.0005
1988.00,-0.0004
1987.00,-0.0002
1986.00,-0.0001
1985.00,0.0000
1984.00,0.0001
1983.00,0.0003
1982.00,0.0006
1981.00,0.0010
1980.00,0.0011
1979.00,0.0007
1978.00,0.0001
1977.00,-0.0006
1976.00,-0.0011
1975.00,-0.0015
1974.00,-0.0017
1973.00,-0.0016
1972.00,-0.0013
1971.00,-0.0012
1970.00,-0.0012
1969.00,-0.0014
1968.00,-0.0016
1967.00,-0.0016
1966.00,-0.0014
1965.00,-0.0013
1964.00,-0.0014
1963.00,-0.0018
1962.00,-0.0023
1961.00,-0.0024
1960.00,-0.0023
1959.00,-0.0021
1958.00,-0.0020
1957.00,-0.0018
1956.00,-0.0017
1955.00,-0.0016
1954.00,-0.0016
1953.00,-0.0017
1952.00,-0.0017
1951.00,-0.0017
1950.00,-0.0016
1949.00,-0.0015
1948.00,-0.0016
1947.00,-0.0017
1946.00,-0.0019
1945.00,-0.0019
1944.00,-0.0018
1943.00,-0.0017
1942.00,-0.0016
1941.00,-0.0015
1940.00,-0.0015
1939.00,-0.0015
1938.00,-0.0015
1937.00,-0.0014
1936.00,-0.0013
1935.00,-0.0011
1934.00,-0.0010
1933.00,-0.0009
1932.00,-0.0008
1931.00,-0.0008
1930.00,-0.0008
1929.00,-0.0009
1928.00,-0.0010
1927.00,-0.0010
1926.00,-0.0009
1925.00,-0.0009
1924.00,-0.0008
1923.00,-0.0006
1922.00,-0.0005
1921.00,-0.0005
1920.00,-0.0005
1919.00,-0.0005
1918.00,-0.0005
1917.00,-0.0005
1916.00,-0.0006
1915.00,-0.0006
1914.00,-0.0006
1913.00,-0.0005
1912.00,-0.0004
1911.00,-0.0003
1910.00,-0.0003
1909.00,-0.0003
1908.00,-0.0003
1907.00,-0.0002
1906.00,-0.0002
1905.00,-0.0003
1904.00,-0.0004
1903.00,-0.0004
1902.00,-0.0003
1901.00,-0.0002
1900.00,-0.0002
1899.00,-0.0002
1898.00,-0.0002
1897.00,-0.0003
1896.00,-0.0002
1895.00,-0.0002
1894.00,-0.0001
1893.00,-0.0001
1892.00,-0.0001
1891.00,-0.0002
1890.00,-0.0003
1889.00,-0.0003
1888.00,-0.0002
1887.00,-0.0002
1886.00,-0.0003
1885.00,-0.0003
1884.00,-0.0003
1883.00,-0.0003
1882.00,-0.0002
1881.00,-0.0001
1880.00,-0.0001
1879.00,-0.0001
1878.00,-0.0001
1877.00,-0.0001
1876.00,-0.0001
1875.00,-0.0001
1874.00,-0.0001
1873.00,-0.0001
1872.00,-0.0001
1871.00,-0.0001
1870.00,-0.0001
1869.00,-0.0001
1868.00,-0.0002
1867.00,-0.0003
1866.00,-0.0003
1865.00,-0.0002
1864.00,-0.0001
1863.00,-0.0001
1862.00,-0.0000
1861.00,-0.0000
1860.00,-0.0001
1859.00,-0.0002
1858.00,-0.0002
1857.00,-0.0001
1856.00,-0.0001
1855.00,-0.0001
1854.00,-0.0001
1853.00,-0.0001
1852.00,-0.0001
1851.00,-0.0001
1850.00,-0.0001
1849.00,-0.0001
1848.00,0.0000
1847.00,0.0000
1846.00,-0.0000
1845.00,-0.0000
1844.00,0.0000
1843.00,0.0001
1842.00,0.0001
1841.00,0.0001
1840.00,0.0001
1839.00,0.0001
1838.00,0.0001
1837.00,0.0001
1836.00,0.0001
1835.00,0.0001
1834.00,0.0001
1833.00,0.0001
1832.00,0.0001
1831.00,0.0001
1830.00,0.0002
1829.00,0.0002
1828.00,0.0003
1827.00,0.0003
1826.00,0.0003
1825.00,0.0003
1824.00,0.0003
1823.00,0.0003
1822.00,0.0003
1821.00,0.0002
1820.00,0.0001
1819.00,-0.0000
1818.00,-0.0002
1817.00,-0.0003
1816.00,-0.0003
1815.00,-0.0003
1814.00,-0.0002
1813.00,-0.0002
1812.00,-0.0001
1811.00,-0.0000
1810.00,0.0000
1809.00,0.0001
1808.00,0.0002
1807.00,0.0002
1806.00,0.0002
1805.00,0.0003
1804.00,0.0003
1803.00,0.0003
1802.00,0.0003
1801.00,0.0003
1800.00,0.0004
1799.00,0.0004
1798.00,0.0004
1797.00,0.0003
1796.00,0.0003
1795.00,0.0004
1794.00,0.0004
1793.00,0.0005
1792.00,0.0005
1791.00,0.0005
1790.00,0.0006
1789.00,0.0006
1788.00,0.0006
1787.00,0.0007
1786.00,0.0007
1785.00,0.0007
1784.00,0.0007
1783.00,0.0006
1782.00,0.0006
1781.00,0.0006
1780.00,0.0006
1779.00,0.0006
1778.00,0.0007
1777.00,0.0007
1776.00,0.0007
1775.00,0.0008
1774.00,0.0008
1773.00,0.0007
1772.00,0.0007
1771.00,0.0007
1770.00,0.0008
1769.00,0.0008
1768.00,0.0009
1767.00,0.0009
1766.00,0.0008
1765.00,0.0009
1764.00,0.0009
1763.00,0.0009
1762.00,0.0009
1761.00,0.0009
1760.00,0.0009
1759.00,0.0010
1758.00,0.0010
1757.00,0.0011
1756.00,0.0011
1755.00,0.0012
1754.00,0.0012
1753.00,0.0013
1752.00,0.0014
1751.00,0.0015
1750.00,0.0015
1749.00,0.0016
1748.00,0.0017
1747.00,0.0018
1746.00,0.0018
1745.00,0.0018
1744.00,0.0019
1743.00,0.0019
1742.00,0.0019
1741.00,0.0020
1740.00,0.0021
1739.00,0.0022
1738.00,0.0022
1737.00,0.0022
1736.00,0.0022
1735.00,0.0023
1734.00,0.0023
1733.00,0.0023
1732.00,0.0023
1731.00,0.0023
1730.00,0.0023
1729.00,0.0023
1728.00,0.0024
1727.00,0.0024
1726.00,0.0024
1725.00,0.0024
1724.00,0.0025
1723.00,0.0025
1722.00,0.0025
1721.00,0.0025
1720.00,0.0025
1719.00,0.0024
1718.00,0.0024
1717.00,0.0023
1716.00,0.0022
1715.00,0.0022
1714.00,0.0022
1713.00,0.0022
1712.00,0.0022
1711.00,0.0022
1710.00,0.0023
1709.00,0.0023
1708.00,0.0023
1707.00,0.0024
1706.00,0.0024
1705.00,0.0024
1704.00,0.0024
1703.00,0.0024
1702.00,0.0025
1701.00,0.0025
1700.00,0.0025
1699.00,0.0025
1698.00,0.0025
1697.00,0.0026
1696.00,0.0027
1695.00,0.0027
1694.00,0.0028
1693.00,0.0028
1692.00,0.0029
1691.00,0.0030
1690.00,0.0031
1689.00,0.0032
1688.00,0.0033
1687.00,0.0033
1686.00,0.0033
1685.00,0.0034
1684.00,0.0036
1683.00,0.0037
1682.00,0.0038
1681.00,0.0039
1680.00,0.0040
1679.00,0.0041
1678.00,0.0041
1677.00,0.0042
1676.00,0.0043
1675.00,0.0044
1674.00,0.0045
1673.00,0.0045
1672.00,0.0046
1671.00,0.0046
1670.00,0.0046
1669.00,0.0047
1668.00,0.0047
1667.00,0.0048
1666.00,0.0049
1665.00,0.0049
1664.00,0.0050
1663.00,0.0050
1662.00,0.0050
1661.00,0.0050
1660.00,0.0051
1659.00,0.0052
1658.00,0.0053
1657.00,0.0054
1656.00,0.0054
1655.00,0.0055
1654.00,0.0055
1653.00,0.0056
1652.00,0.0057
1651.00,0.0058
1650.00,0.0060
1649.00,0.0062
1648.00,0.0064
1647.00,0.0066
1646.00,0.0066
1645.00,0.0066
1644.00,0.0066
1643.00,0.0065
1642.00,0.0065
1641.00,0.0066
1640.00,0.0066
1639.00,0.0067
1638.00,0.0067
1637.00,0.0067
1636.00,0.0068
1635.00,0.0067
1634.00,0.0066
1633.00,0.0066
1632.00,0.0065
1631.00,0.0065
1630.00,0.0065
1629.00,0.0064
1628.00,0.0063
1627.00,0.0062
1626.00,0.0062
1625.00,0.0061
1624.00,0.0061
1623.00,0.0060
1622.00,0.0060
1621.00,0.0059
1620.00,0.0059
1619.00,0.0059
1618.00,0.0058
1617.00,0.0058
1616.00,0.0058
1615.00,0.0058
1614.00,0.0058
1613.00,0.0058
1612.00,0.0059
1611.00,0.0059
1610.00,0.0059
1609.00,0.0059
1608.00,0.0059
1607.00,0.0059
1606.00,0.0058
1605.00,0.0058
1604.00,0.0058
1603.00,0.0058
1602.00,0.0058
1601.00,0.0058
1600.00,0.0058
1599.00,0.0058
1598.00,0.0057
1597.00,0.0057
1596.00,0.0057
1595.00,0.0056
1594.00,0.0056
1593.00,0.0055
1592.00,0.0055
1591.00,0.0055
1590.00,0.0055
1589.00,0.0055
1588.00,0.0055
1587.00,0.0055
1586.00,0.0055
1585.00,0.0055
1584.00,0.0056
1583.00,0.0056
1582.00,0.0056
1581.00,0.0056
1580.00,0.0057
1579.00,0.0057
1578.00,0.0058
1577.00,0.0058
1576.00,0.0058
1575.00,0.0058
1574.00,0.0059
1573.00,0.0059
1572.00,0.0060
1571.00,0.0060
1570.00,0.0061
1569.00,0.0061
1568.00,0.0061
1567.00,0.0061
1566.00,0.0062
1565.00,0.0063
1564.00,0.0064
1563.00,0.0064
1562.00,0.0064
1561.00,0.0064
1560.00,0.0065
1559.00,0.0066
1558.00,0.0065
1557.00,0.0065
1556.00,0.0066
1555.00,0.0067
1554.00,0.0067
1553.00,0.0068
1552.00,0.0068
1551.00,0.0068
1550.00,0.0068
1549.00,0.0068
1548.00,0.0068
1547.00,0.0068
1546.00,0.0068
1545.00,0.0068
1544.00,0.0069
1543.00,0.0068
1542.00,0.0068
1541.00,0.0068
1540.00,0.0066
1539.00,0.0064
1538.00,0.0061
1537.00,0.0060
1536.00,0.0060
1535.00,0.0059
1534.00,0.0057
1533.00,0.0056
1532.00,0.0055
1531.00,0.0054
1530.00,0.0053
1529.00,0.0053
1528.00,0.0053
1527.00,0.0053
1526.00,0.0053
1525.00,0.0053
1524.00,0.0053
1523.00,0.0053
1522.00,0.0054
1521.00,0.0054
1520.00,0.0054
1519.00,0.0054
1518.00,0.0054
1517.00,0.0055
1516.00,0.0056
1515.00,0.0056
1514.00,0.0056
1513.00,0.0057
1512.00,0.0058
1511.00,0.0058
1510.00,0.0058
1509.00,0.0059
1508.00,0.0061
1507.00,0.0061
1506.00,0.0062
1505.00,0.0062
1504.00,0.0064
1503.00,0.0065
1502.00,0.0067
1501.00,0.0070
1500.00,0.0073
1499.00,0.0075
1498.00,0.0077
1497.00,0.0080
1496.00,0.0083
1495.00,0.0085
1494.00,0.0088
1493.00,0.0091
1492.00,0.0096
1491.00,0.0100
1490.00,0.0104
1489.00,0.0108
1488.00,0.0113
1487.00,0.0117
1486.00,0.0122
1485.00,0.0128
1484.00,0.0134
1483.00,0.0141
1482.00,0.0150
1481.00,0.0160
1480.00,0.0172
1479.00,0.0184
1478.00,0.0199
1477.00,0.0220
1476.00,0.0245
1475.00,0.0275
1474.00,0.0316
1473.00,0.0374
1472.00,0.0442
1471.00,0.0508
1470.00,0.0573
1469.00,0.0640
1468.00,0.0714
1467.00,0.0794
1466.00,0.0886
1465.00,0.0984
1464.00,0.1070
1463.00,0.1128
1462.00,0.1164
1461.00,0.1186
1460.00,0.1199
1459.00,0.1205
1458.00,0.1206
1457.00,0.1204
1456.00,0.1195
1455.00,0.1181
1454.00,0.1164
1453.00,0.1142
1452.00,0.1111
1451.00,0.1069
1450.00,0.1015
1449.00,0.0942
1448.00,0.0853
1447.00,0.0760
1446.00,0.0678
1445.00,0.0608
1444.00,0.0548
1443.00,0.0500
1442.00,0.0463
1441.00,0.0439
1440.00,0.0426
1439.00,0.0423
1438.00,0.0428
1437.00,0.0434
1436.00,0.0429
1435.00,0.0406
1434.00,0.0370
1433.00,0.0327
1432.00,0.0281
1431.00,0.0240
1430.00,0.0209
1429.00,0.0185
1428.00,0.0168
1427.00,0.0158
1426.00,0.0151
1425.00,0.0145
1424.00,0.0139
1423.00,0.0136
1422.00,0.0134
1421.00,0.0132
1420.00,0.0129
1419.00,0.0127
1418.00,0.0125
1417.00,0.0122
1416.00,0.0119
1415.00,0.0117
1414.00,0.0116
1413.00,0.0116
1412.00,0.0114
1411.00,0.0113
1410.00,0.0112
1409.00,0.0111
1408.00,0.0109
1407.00,0.0109
1406.00,0.0110
1405.00,0.0110
1404.00,0.0110
1403.00,0.0111
1402.00,0.0113
1401.00,0.0114
1400.00,0.0115
1399.00,0.0116
1398.00,0.0119
1397.00,0.0121
1396.00,0.0122
1395.00,0.0125
1394.00,0.0130
1393.00,0.0134
1392.00,0.0140
1391.00,0.0147
1390.00,0.0158
1389.00,0.0171
1388.00,0.0191
1387.00,0.0220
1386.00,0.0261
1385.00,0.0315
1384.00,0.0391
1383.00,0.0501
1382.00,0.0653
1381.00,0.0855
1380.00,0.1112
1379.00,0.1409
1378.00,0.1701
1377.00,0.1919
1376.00,0.1997
1375.00,0.1898
1374.00,0.1654
1373.00,0.1357
1372.00,0.1086
1371.00,0.0864
1370.00,0.0689
1369.00,0.0557
1368.00,0.0467
1367.00,0.0413
1366.00,0.0383
1365.00,0.0371
1364.00,0.0374
1363.00,0.0389
1362.00,0.0412
1361.00,0.0436
1360.00,0.0455
1359.00,0.0462
1358.00,0.0452
1357.00,0.0425
1356.00,0.0388
1355.00,0.0345
1354.00,0.0305
1353.00,0.0270
1352.00,0.0241
1351.00,0.0218
1350.00,0.0199
1349.00,0.0184
1348.00,0.0171
1347.00,0.0160
1346.00,0.0151
1345.00,0.0144
1344.00,0.0139
1343.00,0.0133
1342.00,0.0129
1341.00,0.0125
1340.00,0.0121
1339.00,0.0118
1338.00,0.0116
1337.00,0.0116
1336.00,0.0117
1335.00,0.0120
1334.00,0.0124
1333.00,0.0128
1332.00,0.0133
1331.00,0.0136
1330.00,0.0138
1329.00,0.0136
1328.00,0.0133
1327.00,0.0128
1326.00,0.0122
1325.00,0.0115
1324.00,0.0109
1323.00,0.0104
1322.00,0.0100
1321.00,0.0097
1320.00,0.0095
1319.00,0.0093
1318.00,0.0092
1317.00,0.0090
1316.00,0.0088
1315.00,0.0088
1314.00,0.0088
1313.00,0.0088
1312.00,0.0089
1311.00,0.0091
1310.00,0.0094
1309.00,0.0099
1308.00,0.0105
1307.00,0.0113
1306.00,0.0121
1305.00,0.0126
1304.00,0.0128
1303.00,0.0127
1302.00,0.0125
1301.00,0.0123
1300.00,0.0123
1299.00,0.0125
1298.00,0.0127
1297.00,0.0129
1296.00,0.0129
1295.00,0.0127
1294.00,0.0123
1293.00,0.0118
1292.00,0.0113
1291.00,0.0108
1290.00,0.0103
1289.00,0.0099
1288.00,0.0095
1287.00,0.0092
1286.00,0.0089
1285.00,0.0087
1284.00,0.0085
1283.00,0.0085
1282.00,0.0084
1281.00,0.0083
1280.00,0.0082
1279.00,0.0081
1278.00,0.0080
1277.00,0.0080
1276.00,0.0079
1275.00,0.0079
1274.00,0.0079
1273.00,0.0079
1272.00,0.0080
1271.00,0.0081
1270.00,0.0082
1269.00,0.0084
1268.00,0.0086
1267.00,0.0088
1266.00,0.0092
1265.00,0.0095
1264.00,0.0098
1263.00,0.0101
1262.00,0.0104
1261.00,0.0106
1260.00,0.0110
1259.00,0.0113
1258.00,0.0117
1257.00,0.0120
1256.00,0.0121
1255.00,0.0119
1254.00,0.0114
1253.00,0.0107
1252.00,0.0101
1251.00,0.0096
1250.00,0.0092
1249.00,0.0089
1248.00,0.0086
1247.00,0.0084
1246.00,0.0082
1245.00,0.0081
1244.00,0.0080
1243.00,0.0079
1242.00,0.0078
1241.00,0.0077
1240.00,0.0076
1239.00,0.0075
1238.00,0.0075
1237.00,0.0074
1236.00,0.0074
1235.00,0.0074
1234.00,0.0074
1233.00,0.0074
1232.00,0.0075
1231.00,0.0076
1230.00,0.0077
1229.00,0.0078
1228.00,0.0079
1227.00,0.0081
1226.00,0.0083
1225.00,0.0086
1224.00,0.0090
1223.00,0.0094
1222.00,0.0098
1221.00,0.0101
1220.00,0.0103
1219.00,0.0104
1218.00,0.0103
1217.00,0.0100
1216.00,0.0097
1215.00,0.0093
1214.00,0.0090
1213.00,0.0086
1212.00,0.0084
1211.00,0.0082
1210.00,0.0080
1209.00,0.0078
1208.00,0.0076
1207.00,0.0075
1206.00,0.0075
1205.00,0.0074
1204.00,0.0073
1203.00,0.0073
1202.00,0.0073
1201.00,0.0073
1200.00,0.0073
1199.00,0.0073
1198.00,0.0073
1197.00,0.0073
1196.00,0.0074
1195.00,0.0074
1194.00,0.0074
1193.00,0.0074
1192.00,0.0073
1191.00,0.0073
1190.00,0.0073
1189.00,0.0073
1188.00,0.0073
1187.00,0.0073
1186.00,0.0074
1185.00,0.0075
1184.00,0.0076
1183.00,0.0077
1182.00,0.0079
1181.00,0.0081
1180.00,0.0084
1179.00,0.0087
1178.00,0.0091
1177.00,0.0097
1176.00,0.0104
1175.00,0.0115
1174.00,0.0129
1173.00,0.0147
1172.00,0.0168
1171.00,0.0191
1170.00,0.0214
1169.00,0.0232
1168.00,0.0244
1167.00,0.0247
1166.00,0.0243
1165.00,0.0235
1164.00,0.0224
1163.00,0.0214
1162.00,0.0205
1161.00,0.0198
1160.00,0.0193
1159.00,0.0189
1158.00,0.0187
1157.00,0.0186
1156.00,0.0187
1155.00,0.0187
1154.00,0.0188
1153.00,0.0187
1152.00,0.0184
1151.00,0.0178
1150.00,0.0171
1149.00,0.0162
1148.00,0.0153
1147.00,0.0144
1146.00,0.0136
1145.00,0.0129
1144.00,0.0122
1143.00,0.0117
1142.00,0.0112
1141.00,0.0108
1140.00,0.0104
1139.00,0.0100
1138.00,0.0097
1137.00,0.0094
1136.00,0.0091
1135.00,0.0089
1134.00,0.0088
1133.00,0.0087
1132.00,0.0086
1131.00,0.0086
1130.00,0.0087
1129.00,0.0088
1128.00,0.0089
1127.00,0.0090
1126.00,0.0091
1125.00,0.0092
1124.00,0.0093
1123.00,0.0093
1122.00,0.0094
1121.00,0.0095
1120.00,0.0097
1119.00,0.0098
1118.00,0.0099
1117.00,0.0101
1116.00,0.0102
1115.00,0.0104
1114.00,0.0106
1113.00,0.0107
1112.00,0.0108
1111.00,0.0110
1110.00,0.0112
1109.00,0.0116
1108.00,0.0122
1107.00,0.0128
1106.00,0.0136
1105.00,0.0144
1104.00,0.0149
1103.00,0.0153
1102.00,0.0152
1101.00,0.0149
1100.00,0.0143
1099.00,0.0136
1098.00,0.0128
1097.00,0.0121
1096.00,0.0115
1095.00,0.0112
1094.00,0.0109
1093.00,0.0106
1092.00,0.0104
1091.00,0.0102
1090.00,0.0101
1089.00,0.0100
1088.00,0.0099
1087.00,0.0099
1086.00,0.0099
1085.00,0.0099
1084.00,0.0099
1083.00,0.0099
1082.00,0.0098
1081.00,0.0096
1080.00,0.0094
1079.00,0.0093
1078.00,0.0093
1077.00,0.0092
1076.00,0.0092
1075.00,0.0091
1074.00,0.0090
1073.00,0.0089
1072.00,0.0088
1071.00,0.0088
1070.00,0.0088
1069.00,0.0088
1068.00,0.0088
1067.00,0.0089
1066.00,0.0090
1065.00,0.0090
1064.00,0.0090
1063.00,0.0090
1062.00,0.0090
1061.00,0.0090
1060.00,0.0091
1059.00,0.0092
1058.00,0.0093
1057.00,0.0094
1056.00,0.0095
1055.00,0.0096
1054.00,0.0098
1053.00,0.0101
1052.00,0.0104
1051.00,0.0108
1050.00,0.0112
1049.00,0.0116
1048.00,0.0119
1047.00,0.0123
1046.00,0.0127
1045.00,0.0130
1044.00,0.0131
1043.00,0.0131
1042.00,0.0129
1041.00,0.0127
1040.00,0.0125
1039.00,0.0124
1038.00,0.0124
1037.00,0.0125
1036.00,0.0125
1035.00,0.0125
1034.00,0.0124
1033.00,0.0123
1032.00,0.0122
1031.00,0.0121
1030.00,0.0121
1029.00,0.0121
1028.00,0.0121
1027.00,0.0123
1026.00,0.0124
1025.00,0.0126
1024.00,0.0129
1023.00,0.0131
1022.00,0.0133
1021.00,0.0134
1020.00,0.0135
1019.00,0.0136
1018.00,0.0137
1017.00,0.0138
1016.00,0.0137
1015.00,0.0136
1014.00,0.0135
1013.00,0.0134
1012.00,0.0133
1011.00,0.0132
1010.00,0.0132
1009.00,0.0132
1008.00,0.0133
1007.00,0.0135
1006.00,0.0139
1005.00,0.0146
1004.00,0.0155
1003.00,0.0170
1002.00,0.0191
1001.00,0.0216
1000.00,0.0242
999.00,0.0263
998.00,0.0272
997.00,0.0266
996.00,0.0245
995.00,0.0217
994.00,0.0188
993.00,0.0163
992.00,0.0144
991.00,0.0132
990.00,0.0123
989.00,0.0117
988.00,0.0113
987.00,0.0111
986.00,0.0111
985.00,0.0112
984.00,0.0115
983.00,0.0119
982.00,0.0127
981.00,0.0139
980.00,0.0157
979.00,0.0180
978.00,0.0209
977.00,0.0242
976.00,0.0275
975.00,0.0305
974.00,0.0325
973.00,0.0329
972.00,0.0315
971.00,0.0286
970.00,0.0248
969.00,0.0210
968.00,0.0179
967.00,0.0155
966.00,0.0138
965.00,0.0125
964.00,0.0114
963.00,0.0106
962.00,0.0101
961.00,0.0097
960.00,0.0094
959.00,0.0092
958.00,0.0090
957.00,0.0088
956.00,0.0086
955.00,0.0084
954.00,0.0082
953.00,0.0080
952.00,0.0079
951.00,0.0078
950.00,0.0077
949.00,0.0077
948.00,0.0078
947.00,0.0079
946.00,0.0082
945.00,0.0085
944.00,0.0088
943.00,0.0092
942.00,0.0096
941.00,0.0099
940.00,0.0099
939.00,0.0097
938.00,0.0092
937.00,0.0086
936.00,0.0080
935.00,0.0075
934.00,0.0072
933.00,0.0068
932.00,0.0065
931.00,0.0063
930.00,0.0062
929.00,0.0062
928.00,0.0063
927.00,0.0063
926.00,0.0063
925.00,0.0063
924.00,0.0063
923.00,0.0063
922.00,0.0062
921.00,0.0063
920.00,0.0063
919.00,0.0064
918.00,0.0065
917.00,0.0066
916.00,0.0066
915.00,0.0066
914.00,0.0066
913.00,0.0067
912.00,0.0068
911.00,0.0069
910.00,0.0071
909.00,0.0074
908.00,0.0078
907.00,0.0084
906.00,0.0093
905.00,0.0104
904.00,0.0120
903.00,0.0140
902.00,0.0160
901.00,0.0179
900.00,0.0191
899.00,0.0193
898.00,0.0185
897.00,0.0168
896.00,0.0146
895.00,0.0125
894.00,0.0108
893.00,0.0096
892.00,0.0088
891.00,0.0082
890.00,0.0079
889.00,0.0077
888.00,0.0075
887.00,0.0073
886.00,0.0071
885.00,0.0070
884.00,0.0069
883.00,0.0069
882.00,0.0069
881.00,0.0069
880.00,0.0069
879.00,0.0070
878.00,0.0072
877.00,0.0074
876.00,0.0076
875.00,0.0076
874.00,0.0076
873.00,0.0076
872.00,0.0076
871.00,0.0075
870.00,0.0074
869.00,0.0074
868.00,0.0073
867.00,0.0073
866.00,0.0074
865.00,0.0076
864.00,0.0078
863.00,0.0080
862.00,0.0082
861.00,0.0083
860.00,0.0084
859.00,0.0084
858.00,0.0085
857.00,0.0086
856.00,0.0086
855.00,0.0087
854.00,0.0088
853.00,0.0090
852.00,0.0093
851.00,0.0096
850.00,0.0098
849.00,0.0102
848.00,0.0109
847.00,0.0118
846.00,0.0131
845.00,0.0152
844.00,0.0181
843.00,0.0215
842.00,0.0243
841.00,0.0253
840.00,0.0238
839.00,0.0207
838.00,0.0172
837.00,0.0143
836.00,0.0125
835.00,0.0113
834.00,0.0106
833.00,0.0101
832.00,0.0098
831.00,0.0098
830.00,0.0098
829.00,0.0098
828.00,0.0098
827.00,0.0098
826.00,0.0097
825.00,0.0097
824.00,0.0098
823.00,0.0099
822.00,0.0100
821.00,0.0101
820.00,0.0103
819.00,0.0107
818.00,0.0112
817.00,0.0118
816.00,0.0128
815.00,0.0141
814.00,0.0158
813.00,0.0178
812.00,0.0202
811.00,0.0224
810.00,0.0240
809.00,0.0247
808.00,0.0242
807.00,0.0228
806.00,0.0208
805.00,0.0185
804.00,0.0165
803.00,0.0149
802.00,0.0137
801.00,0.0129
800.00,0.0124
799.00,0.0118
798.00,0.0113
797.00,0.0107
796.00,0.0103
795.00,0.0099
794.00,0.0096
793.00,0.0094
792.00,0.0091
791.00,0.0087
790.00,0.0083
789.00,0.0080
788.00,0.0077
787.00,0.0075
786.00,0.0073
785.00,0.0071
784.00,0.0070
783.00,0.0069
782.00,0.0068
781.00,0.0066
780.00,0.0065
779.00,0.0065
778.00,0.0065
777.00,0.0065
776.00,0.0065
775.00,0.0065
774.00,0.0066
773.00,0.0067
772.00,0.0067
771.00,0.0068
770.00,0.0068
769.00,0.0069
768.00,0.0069
767.00,0.0069
766.00,0.0069
765.00,0.0068
764.00,0.0067
763.00,0.0067
762.00,0.0067
761.00,0.0068
760.00,0.0069
759.00,0.0071
758.00,0.0072
757.00,0.0073
756.00,0.0073
755.00,0.0074
754.00,0.0075
753.00,0.0076
752.00,0.0076
751.00,0.0077
750.00,0.0079
749.00,0.0082
748.00,0.0083
747.00,0.0084
746.00,0.0085
745.00,0.0086
744.00,0.0087
743.00,0.0089
742.00,0.0092
741.00,0.0096
740.00,0.0100
739.00,0.0104
738.00,0.0108
737.00,0.0111
736.00,0.0115
735.00,0.0119
734.00,0.0125
733.00,0.0132
732.00,0.0141
731.00,0.0150
730.00,0.0156
729.00,0.0158
728.00,0.0158
727.00,0.0159
726.00,0.0160
725.00,0.0163
724.00,0.0167
723.00,0.0174
722.00,0.0181
721.00,0.0185
720.00,0.0184
719.00,0.0175
718.00,0.0162
717.00,0.0147
716.00,0.0133
715.00,0.0123
714.00,0.0118
713.00,0.0116
712.00,0.0115
711.00,0.0115
710.00,0.0114
709.00,0.0112
708.00,0.0110
707.00,0.0107
706.00,0.0106
705.00,0.0105
704.00,0.0104
703.00,0.0102
702.00,0.0099
701.00,0.0098
700.00,0.0098
699.00,0.0098
698.00,0.0099
697.00,0.0098
696.00,0.0098
695.00,0.0099
694.00,0.0099
693.00,0.0098
692.00,0.0097
691.00,0.0097
690.00,0.0098
689.00,0.0099
688.00,0.0099
687.00,0.0097
686.00,0.0096
685.00,0.0095
684.00,0.0095
683.00,0.0095
682.00,0.0095
681.00,0.0095
680.00,0.0095
679.00,0.0094
678.00,0.0094
677.00,0.0094
676.00,0.0095
675.00,0.0096
674.00,0.0099
673.00,0.0101
672.00,0.0102
671.00,0.0104
670.00,0.0106
669.00,0.0107
668.00,0.0105
667.00,0.0102
666.00,0.0097
665.00,0.0094
664.00,0.0092
663.00,0.0093
662.00,0.0093
661.00,0.0093
660.00,0.0092
659.00,0.0090
658.00,0.0089
657.00,0.0088
656.00,0.0088
655.00,0.0089
654.00,0.0091
653.00,0.0092
652.00,0.0091
651.00,0.0091
650.00,0.0091
649.00,0.0090
648.00,0.0088
647.00,0.0087
646.00,0.0087
645.00,0.0088
644.00,0.0089
643.00,0.0089
642.00,0.0089
641.00,0.0089
640.00,0.0088
639.00,0.0087
638.00,0.0085
637.00,0.0084
636.00,0.0083
635.00,0.0082
634.00,0.0082
633.00,0.0084
632.00,0.0086
631.00,0.0088
630.00,0.0089
629.00,0.0091
628.00,0.0092
627.00,0.0091
626.00,0.0089
625.00,0.0087
624.00,0.0086
623.00,0.0086
622.00,0.0088
621.00,0.0089
620.00,0.0088
619.00,0.0085
618.00,0.0081
617.00,0.0076
616.00,0.0074
615.00,0.0074
614.00,0.0076
613.00,0.0079
612.00,0.0081
611.00,0.0083
610.00,0.0084
609.00,0.0086
608.00,0.0087
607.00,0.0087
606.00,0.0086
605.00,0.0084
604.00,0.0084
603.00,0.0085
602.00,0.0087
601.00,0.0088
600.00,0.0087
599.00,0.0086
598.00,0.0085
597.00,0.0085
596.00,0.0085
595.00,0.0083
594.00,0.0081
593.00,0.0079
592.00,0.0078
591.00,0.0079
590.00,0.0082
589.00,0.0084
588.00,0.0084
587.00,0.0083
586.00,0.0081
585.00,0.0079
584.00,0.0078
583.00,0.0077
582.00,0.0076
581.00,0.0075
580.00,0.0075
579.00,0.0075
578.00,0.0078
577.00,0.0081
576.00,0.0083
575.00,0.0084
574.00,0.0083
573.00,0.0082
572.00,0.0083
571.00,0.0086
570.00,0.0088
569.00,0.0089
568.00,0.0087
567.00,0.0084
566.00,0.0083
565.00,0.0081
564.00,0.0080
563.00,0.0079
562.00,0.0079
561.00,0.0080
560.00,0.0080
559.00,0.0079
558.00,0.0078
557.00,0.0077
556.00,0.0078
555.00,0.0080
554.00,0.0084
553.00,0.0087
552.00,0.0089
551.00,0.0088
550.00,0.0085
549.00,0.0081
548.00,0.0079
547.00,0.0079
546.00,0.0082
545.00,0.0086
544.00,0.0090
543.00,0.0094
542.00,0.0096
541.00,0.0099
540.00,0.0102
539.00,0.0104
538.00,0.0107
537.00,0.0110
536.00,0.0113
535.00,0.0115
534.00,0.0116
533.00,0.0115
532.00,0.0112
531.00,0.0110
530.00,0.0110
529.00,0.0114
528.00,0.0118
527.00,0.0119
526.00,0.0116
525.00,0.0112
524.00,0.0108
523.00,0.0104
522.00,0.0100
521.00,0.0097
520.00,0.0096
519.00,0.0094
518.00,0.0088
517.00,0.0080
516.00,0.0075
515.00,0.0073
514.00,0.0072
513.00,0.0071
512.00,0.0070
511.00,0.0071
510.00,0.0075
509.00,0.0078
508.00,0.0081
507.00,0.0083
506.00,0.0085
505.00,0.0086
504.00,0.0086
503.00,0.0083
502.00,0.0082
501.00,0.0082
500.00,0.0086
499.00,0.0090
498.00,0.0091
497.00,0.0086
496.00,0.0076
495.00,0.0068
494.00,0.0071
493.00,0.0082
492.00,0.0095
491.00,0.0099
490.00,0.0092
489.00,0.0080
488.00,0.0066
487.00,0.0056
486.00,0.0053
485.00,0.0061
484.00,0.0075
483.00,0.0088
482.00,0.0093
481.00,0.0090
480.00,0.0086
479.00,0.0086
478.00,0.0090
477.00,0.0096
476.00,0.0101
475.00,0.0104
474.00,0.0105
473.00,0.0107
472.00,0.0110
471.00,0.0115
470.00,0.0124
469.00,0.0135
468.00,0.0148
467.00,0.0159
466.00,0.0167
465.00,0.0171
464.00,0.0173
463.00,0.0178
462.00,0.0187
461.00,0.0194
460.00,0.0191
459.00,0.0179
458.00,0.0165
457.00,0.0161
456.00,0.0164
455.00,0.0165
454.00,0.0162
453.00,0.0159
452.00,0.0156
451.00,0.0153
450.00,0.0144
