Created as New Dataset,Sample 229 By Administrator Date Wednesday, September 03 2025
cm-1,A
4000.00,0.0010
3999.00,0.0011
3998.00,0.0011
3997.00,0.0010
3996.00,0.0010
3995.00,0.0010
3994.00,0.0010
3993.00,0.0010
3992.00,0.0010
3991.00,0.0010
3990.00,0.0010
3989.00,0.0010
3988.00,0.0010
3987.00,0.0010
3986.00,0.0010
3985.00,0.0011
3984.00,0.0011
3983.00,0.0010
3982.00,0.0010
3981.00,0.0010
3980.00,0.0010
3979.00,0.0010
3978.00,0.0010
3977.00,0.0010
3976.00,0.0009
3975.00,0.0009
3974.00,0.0009
3973.00,0.0009
3972.00,0.0009
3971.00,0.0009
3970.00,0.0009
3969.00,0.0009
3968.00,0.0009
3967.00,0.0009
3966.00,0.0009
3965.00,0.0009
3964.00,0.0009
3963.00,0.0010
3962.00,0.0010
3961.00,0.0010
3960.00,0.0009
3959.00,0.0009
3958.00,0.0008
3957.00,0.0008
3956.00,0.0008
3955.00,0.0008
3954.00,0.0008
3953.00,0.0008
3952.00,0.0009
3951.00,0.0009
3950.00,0.0009
3949.00,0.0009
3948.00,0.0009
3947.00,0.0009
3946.00,0.0009
3945.00,0.0009
3944.00,0.0008
3943.00,0.0008
3942.00,0.0008
3941.00,0.0008
3940.00,0.0009
3939.00,0.0009
3938.00,0.0010
3937.00,0.0010
3936.00,0.0010
3935.00,0.0010
3934.00,0.0010
3933.00,0.0010
3932.00,0.0010
3931.00,0.0010
3930.00,0.0010
3929.00,0.0010
3928.00,0.0010
3927.00,0.0010
3926.00,0.0009
3925.00,0.0009
3924.00,0.0009
3923.00,0.0009
3922.00,0.0010
3921.00,0.0010
3920.00,0.0010
3919.00,0.0010
3918.00,0.0010
3917.00,0.0010
3916.00,0.0010
3915.00,0.0010
3914.00,0.0010
3913.00,0.0010
3912.00,0.0010
3911.00,0.0010
3910.00,0.0010
3909.00,0.0010
3908.00,0.0010
3907.00,0.0010
3906.00,0.0010
3905.00,0.0010
3904.00,0.0011
3903.00,0.0011
3902.00,0.0012
3901.00,0.0012
3900.00,0.0011
3899.00,0.0011
3898.00,0.0010
3897.00,0.0010
3896.00,0.0010
3895.00,0.0010
3894.00,0.0010
3893.00,0.0010
3892.00,0.0010
3891.00,0.0010
3890.00,0.0009
3889.00,0.0009
3888.00,0.0009
3887.00,0.0009
3886.00,0.0009
3885.00,0.0009
3884.00,0.0009
3883.00,0.0009
3882.00,0.0009
3881.00,0.0009
3880.00,0.0010
3879.00,0.0010
3878.00,0.0010
3877.00,0.0010
3876.00,0.0010
3875.00,0.0009
3874.00,0.0009
3873.00,0.0010
3872.00,0.0010
3871.00,0.0011
3870.00,0.0011
3869.00,0.0010
3868.00,0.0010
3867.00,0.0010
3866.00,0.0010
3865.00,0.0010
3864.00,0.0010
3863.00,0.0010
3862.00,0.0010
3861.00,0.0010
3860.00,0.0010
3859.00,0.0009
3858.00,0.0009
3857.00,0.0008
3856.00,0.0008
3855.00,0.0008
3854.00,0.0009
3853.00,0.0009
3852.00,0.0009
3851.00,0.0009
3850.00,0.0010
3849.00,0.0010
3848.00,0.0010
3847.00,0.0010
3846.00,0.0009
3845.00,0.0009
3844.00,0.0009
3843.00,0.0010
3842.00,0.0010
3841.00,0.0010
3840.00,0.0010
3839.00,0.0010
3838.00,0.0009
3837.00,0.0009
3836.00,0.0009
3835.00,0.0009
3834.00,0.0009
3833.00,0.0009
3832.00,0.0009
3831.00,0.0009
3830.00,0.0010
3829.00,0.0010
3828.00,0.0010
3827.00,0.0010
3826.00,0.0010
3825.00,0.0011
3824.00,0.0011
3823.00,0.0011
3822.00,0.0011
3821.00,0.0010
3820.00,0.0010
3819.00,0.0010
3818.00,0.0010
3817.00,0.0010
3816.00,0.0010
3815.00,0.0009
3814.00,0.0009
3813.00,0.0009
3812.00,0.0009
3811.00,0.0009
3810.00,0.0009
3809.00,0.0010
3808.00,0.0010
3807.00,0.0010
3806.00,0.0010
3805.00,0.0010
3804.00,0.0009
3803.00,0.0009
3802.00,0.0008
3801.00,0.0008
3800.00,0.0008
3799.00,0.0009
3798.00,0.0009
3797.00,0.0009
3796.00,0.0009
3795.00,0.0009
3794.00,0.0009
3793.00,0.0008
3792.00,0.0008
3791.00,0.0008
3790.00,0.0008
3789.00,0.0008
3788.00,0.0009
3787.00,0.0009
3786.00,0.0009
3785.00,0.0009
3784.00,0.0009
3783.00,0.0009
3782.00,0.0009
3781.00,0.0009
3780.00,0.0009
3779.00,0.0009
3778.00,0.0009
3777.00,0.0009
3776.00,0.0009
3775.00,0.0009
3774.00,0.0009
3773.00,0.0009
3772.00,0.0009
3771.00,0.0009
3770.00,0.0009
3769.00,0.0010
3768.00,0.0010
3767.00,0.0010
3766.00,0.0010
3765.00,0.0010
3764.00,0.0010
3763.00,0.0010
3762.00,0.0010
3761.00,0.0010
3760.00,0.0010
3759.00,0.0010
3758.00,0.0011
3757.00,0.0011
3756.00,0.0012
3755.00,0.0012
3754.00,0.0012
3753.00,0.0013
3752.00,0.0013
3751.00,0.0013
3750.00,0.0012
3749.00,0.0012
3748.00,0.0011
3747.00,0.0011
3746.00,0.0010
3745.00,0.0009
3744.00,0.0009
3743.00,0.0009
3742.00,0.0010
3741.00,0.0011
3740.00,0.0011
3739.00,0.0011
3738.00,0.0011
3737.00,0.0011
3736.00,0.0011
3735.00,0.0010
3734.00,0.0010
3733.00,0.0010
3732.00,0.0010
3731.00,0.0010
3730.00,0.0009
3729.00,0.0009
3728.00,0.0010
3727.00,0.0010
3726.00,0.0009
3725.00,0.0009
3724.00,0.0009
3723.00,0.0008
3722.00,0.0008
3721.00,0.0008
3720.00,0.0008
3719.00,0.0007
3718.00,0.0007
3717.00,0.0007
3716.00,0.0007
3715.00,0.0007
3714.00,0.0008
3713.00,0.0009
3712.00,0.0009
3711.00,0.0009
3710.00,0.0009
3709.00,0.0009
3708.00,0.0009
3707.00,0.0008
3706.00,0.0008
3705.00,0.0008
3704.00,0.0008
3703.00,0.0007
3702.00,0.0007
3701.00,0.0008
3700.00,0.0008
3699.00,0.0009
3698.00,0.0009
3697.00,0.0009
3696.00,0.0008
3695.00,0.0008
3694.00,0.0008
3693.00,0.0008
3692.00,0.0008
3691.00,0.0008
3690.00,0.0009
3689.00,0.0009
3688.00,0.0009
3687.00,0.0009
3686.00,0.0009
3685.00,0.0008
3684.00,0.0008
3683.00,0.0009
3682.00,0.0009
3681.00,0.0009
3680.00,0.0010
3679.00,0.0010
3678.00,0.0011
3677.00,0.0011
3676.00,0.0011
3675.00,0.0010
3674.00,0.0010
3673.00,0.0009
3672.00,0.0009
3671.00,0.0009
3670.00,0.0008
3669.00,0.0008
3668.00,0.0008
3667.00,0.0008
3666.00,0.0008
3665.00,0.0008
3664.00,0.0008
3663.00,0.0008
3662.00,0.0008
3661.00,0.0008
3660.00,0.0008
3659.00,0.0009
3658.00,0.0009
3657.00,0.0009
3656.00,0.0009
3655.00,0.0009
3654.00,0.0009
3653.00,0.0009
3652.00,0.0010
3651.00,0.0010
3650.00,0.0011
3649.00,0.0011
3648.00,0.0011
3647.00,0.0011
3646.00,0.0010
3645.00,0.0009
3644.00,0.0009
3643.00,0.0009
3642.00,0.0009
3641.00,0.0010
3640.00,0.0010
3639.00,0.0009
3638.00,0.0009
3637.00,0.0009
3636.00,0.0009
3635.00,0.0009
3634.00,0.0010
3633.00,0.0010
3632.00,0.0011
3631.00,0.0011
3630.00,0.0012
3629.00,0.0011
3628.00,0.0011
3627.00,0.0011
3626.00,0.0011
3625.00,0.0012
3624.00,0.0012
3623.00,0.0013
3622.00,0.0013
3621.00,0.0013
3620.00,0.0013
3619.00,0.0013
3618.00,0.0013
3617.00,0.0013
3616.00,0.0013
3615.00,0.0014
3614.00,0.0014
3613.00,0.0015
3612.00,0.0016
3611.00,0.0016
3610.00,0.0016
3609.00,0.0015
3608.00,0.0014
3607.00,0.0014
3606.00,0.0013
3605.00,0.0014
3604.00,0.0014
3603.00,0.0014
3602.00,0.0014
3601.00,0.0014
3600.00,0.0014
3599.00,0.0014
3598.00,0.0015
3597.00,0.0015
3596.00,0.0015
3595.00,0.0015
3594.00,0.0016
3593.00,0.0016
3592.00,0.0017
3591.00,0.0017
3590.00,0.0018
3589.00,0.0018
3588.00,0.0018
3587.00,0.0018
3586.00,0.0017
3585.00,0.0017
3584.00,0.0017
3583.00,0.0017
3582.00,0.0017
3581.00,0.0017
3580.00,0.0017
3579.00,0.0017
3578.00,0.0018
3577.00,0.0018
3576.00,0.0019
3575.00,0.0019
3574.00,0.0019
3573.00,0.0019
3572.00,0.0019
3571.00,0.0019
3570.00,0.0020
3569.00,0.0020
3568.00,0.0020
3567.00,0.0021
3566.00,0.0021
3565.00,0.0021
3564.00,0.0021
3563.00,0.0021
3562.00,0.0022
3561.00,0.0022
3560.00,0.0022
3559.00,0.0022
3558.00,0.0022
3557.00,0.0023
3556.00,0.0023
3555.00,0.0023
3554.00,0.0024
3553.00,0.0024
3552.00,0.0024
3551.00,0.0025
3550.00,0.0026
3549.00,0.0026
3548.00,0.0027
3547.00,0.0027
3546.00,0.0027
3545.00,0.0027
3544.00,0.0027
3543.00,0.0027
3542.00,0.0027
3541.00,0.0027
3540.00,0.0027
3539.00,0.0027
3538.00,0.0027
3537.00,0.0028
3536.00,0.0028
3535.00,0.0028
3534.00,0.0029
3533.00,0.0029
3532.00,0.0030
3531.00,0.0030
3530.00,0.0030
3529.00,0.0030
3528.00,0.0031
3527.00,0.0031
3526.00,0.0032
3525.00,0.0032
3524.00,0.0031
3523.00,0.0031
3522.00,0.0031
3521.00,0.0032
3520.00,0.0032
3519.00,0.0032
3518.00,0.0033
3517.00,0.0033
3516.00,0.0033
3515.00,0.0034
3514.00,0.0034
3513.00,0.0034
3512.00,0.0034
3511.00,0.0035
3510.00,0.0035
3509.00,0.0036
3508.00,0.0037
3507.00,0.0037
3506.00,0.0037
3505.00,0.0037
3504.00,0.0037
3503.00,0.0037
3502.00,0.0037
3501.00,0.0037
3500.00,0.0038
3499.00,0.0039
3498.00,0.0039
3497.00,0.0040
3496.00,0.0040
3495.00,0.0040
3494.00,0.0039
3493.00,0.0039
3492.00,0.0039
3491.00,0.0040
3490.00,0.0040
3489.00,0.0040
3488.00,0.0040
3487.00,0.0041
3486.00,0.0041
3485.00,0.0042
3484.00,0.0043
3483.00,0.0044
3482.00,0.0044
3481.00,0.0045
3480.00,0.0045
3479.00,0.0044
3478.00,0.0044
3477.00,0.0044
3476.00,0.0044
3475.00,0.0044
3474.00,0.0045
3473.00,0.0045
3472.00,0.0046
3471.00,0.0047
3470.00,0.0047
3469.00,0.0047
3468.00,0.0047
3467.00,0.0047
3466.00,0.0047
3465.00,0.0048
3464.00,0.0048
3463.00,0.0048
3462.00,0.0049
3461.00,0.0049
3460.00,0.0050
3459.00,0.0050
3458.00,0.0050
3457.00,0.0050
3456.00,0.0050
3455.00,0.0049
3454.00,0.0049
3453.00,0.0049
3452.00,0.0050
3451.00,0.0050
3450.00,0.0051
3449.00,0.0051
3448.00,0.0051
3447.00,0.0052
3446.00,0.0052
3445.00,0.0053
3444.00,0.0053
3443.00,0.0053
3442.00,0.0053
3441.00,0.0054
3440.00,0.0054
3439.00,0.0054
3438.00,0.0054
3437.00,0.0055
3436.00,0.0055
3435.00,0.0055
3434.00,0.0055
3433.00,0.0055
3432.00,0.0055
3431.00,0.0055
3430.00,0.0055
3429.00,0.0055
3428.00,0.0055
3427.00,0.0055
3426.00,0.0056
3425.00,0.0056
3424.00,0.0057
3423.00,0.0057
3422.00,0.0057
3421.00,0.0057
3420.00,0.0057
3419.00,0.0057
3418.00,0.0058
3417.00,0.0058
3416.00,0.0058
3415.00,0.0059
3414.00,0.0059
3413.00,0.0060
3412.00,0.0060
3411.00,0.0060
3410.00,0.0060
3409.00,0.0060
3408.00,0.0060
3407.00,0.0060
3406.00,0.0060
3405.00,0.0059
3404.00,0.0059
3403.00,0.0060
3402.00,0.0060
3401.00,0.0061
3400.00,0.0061
3399.00,0.0061
3398.00,0.0061
3397.00,0.0061
3396.00,0.0061
3395.00,0.0061
3394.00,0.0061
3393.00,0.0061
3392.00,0.0061
3391.00,0.0062
3390.00,0.0062
3389.00,0.0063
3388.00,0.0063
3387.00,0.0063
3386.00,0.0062
3385.00,0.0062
3384.00,0.0062
3383.00,0.0062
3382.00,0.0061
3381.00,0.0061
3380.00,0.0061
3379.00,0.0061
3378.00,0.0061
3377.00,0.0061
3376.00,0.0061
3375.00,0.0062
3374.00,0.0062
3373.00,0.0062
3372.00,0.0062
3371.00,0.0062
3370.00,0.0062
3369.00,0.0062
3368.00,0.0062
3367.00,0.0062
3366.00,0.0063
3365.00,0.0063
3364.00,0.0063
3363.00,0.0063
3362.00,0.0063
3361.00,0.0063
3360.00,0.0063
3359.00,0.0063
3358.00,0.0063
3357.00,0.0063
3356.00,0.0062
3355.00,0.0062
3354.00,0.0062
3353.00,0.0062
3352.00,0.0062
3351.00,0.0063
3350.00,0.0062
3349.00,0.0062
3348.00,0.0062
3347.00,0.0062
3346.00,0.0062
3345.00,0.0062
3344.00,0.0062
3343.00,0.0062
3342.00,0.0062
3341.00,0.0062
3340.00,0.0063
3339.00,0.0063
3338.00,0.0062
3337.00,0.0062
3336.00,0.0062
3335.00,0.0062
3334.00,0.0061
3333.00,0.0061
3332.00,0.0061
3331.00,0.0061
3330.00,0.0060
3329.00,0.0060
3328.00,0.0060
3327.00,0.0060
3326.00,0.0060
3325.00,0.0060
3324.00,0.0060
3323.00,0.0060
3322.00,0.0060
3321.00,0.0060
3320.00,0.0059
3319.00,0.0059
3318.00,0.0059
3317.00,0.0059
3316.00,0.0059
3315.00,0.0059
3314.00,0.0059
3313.00,0.0059
3312.00,0.0059
3311.00,0.0060
3310.00,0.0060
3309.00,0.0060
3308.00,0.0060
3307.00,0.0060
3306.00,0.0060
3305.00,0.0061
3304.00,0.0061
3303.00,0.0061
3302.00,0.0060
3301.00,0.0060
3300.00,0.0060
3299.00,0.0059
3298.00,0.0059
3297.00,0.0058
3296.00,0.0058
3295.00,0.0058
3294.00,0.0058
3293.00,0.0058
3292.00,0.0058
3291.00,0.0057
3290.00,0.0057
3289.00,0.0057
3288.00,0.0056
3287.00,0.0056
3286.00,0.0056
3285.00,0.0056
3284.00,0.0056
3283.00,0.0055
3282.00,0.0055
3281.00,0.0055
3280.00,0.0055
3279.00,0.0055
3278.00,0.0055
3277.00,0.0055
3276.00,0.0054
3275.00,0.0054
3274.00,0.0053
3273.00,0.0053
3272.00,0.0053
3271.00,0.0053
3270.00,0.0053
3269.00,0.0054
3268.00,0.0053
3267.00,0.0053
3266.00,0.0053
3265.00,0.0053
3264.00,0.0052
3263.00,0.0052
3262.00,0.0052
3261.00,0.0052
3260.00,0.0052
3259.00,0.0051
3258.00,0.0051
3257.00,0.0051
3256.00,0.0051
3255.00,0.0051
3254.00,0.0050
3253.00,0.0050
3252.00,0.0050
3251.00,0.0050
3250.00,0.0049
3249.00,0.0049
3248.00,0.0049
3247.00,0.0049
3246.00,0.0048
3245.00,0.0048
3244.00,0.0048
3243.00,0.0048
3242.00,0.0048
3241.00,0.0048
3240.00,0.0048
3239.00,0.0048
3238.00,0.0048
3237.00,0.0048
3236.00,0.0048
3235.00,0.0048
3234.00,0.0048
3233.00,0.0048
3232.00,0.0048
3231.00,0.0048
3230.00,0.0048
3229.00,0.0048
3228.00,0.0048
3227.00,0.0048
3226.00,0.0048
3225.00,0.0048
3224.00,0.0049
3223.00,0.0049
3222.00,0.0049
3221.00,0.0049
3220.00,0.0049
3219.00,0.0049
3218.00,0.0049
3217.00,0.0049
3216.00,0.0049
3215.00,0.0049
3214.00,0.0049
3213.00,0.0050
3212.00,0.0050
3211.00,0.0050
3210.00,0.0051
3209.00,0.0051
3208.00,0.0051
3207.00,0.0051
3206.00,0.0051
3205.00,0.0051
3204.00,0.0051
3203.00,0.0051
3202.00,0.0051
3201.00,0.0051
3200.00,0.0050
3199.00,0.0050
3198.00,0.0050
3197.00,0.0050
3196.00,0.0050
3195.00,0.0050
3194.00,0.0050
3193.00,0.0050
3192.00,0.0050
3191.00,0.0050
3190.00,0.0050
3189.00,0.0049
3188.00,0.0049
3187.00,0.0049
3186.00,0.0049
3185.00,0.0050
3184.00,0.0050
3183.00,0.0050
3182.00,0.0050
3181.00,0.0049
3180.00,0.0049
3179.00,0.0048
3178.00,0.0047
3177.00,0.0047
3176.00,0.0047
3175.00,0.0047
3174.00,0.0047
3173.00,0.0047
3172.00,0.0047
3171.00,0.0046
3170.00,0.0046
3169.00,0.0046
3168.00,0.0046
3167.00,0.0046
3166.00,0.0046
3165.00,0.0046
3164.00,0.0046
3163.00,0.0046
3162.00,0.0046
3161.00,0.0046
3160.00,0.0045
3159.00,0.0045
3158.00,0.0044
3157.00,0.0044
3156.00,0.0044
3155.00,0.0044
3154.00,0.0044
3153.00,0.0044
3152.00,0.0044
3151.00,0.0044
3150.00,0.0044
3149.00,0.0044
3148.00,0.0044
3147.00,0.0045
3146.00,0.0045
3145.00,0.0044
3144.00,0.0044
3143.00,0.0044
3142.00,0.0043
3141.00,0.0043
3140.00,0.0043
3139.00,0.0043
3138.00,0.0043
3137.00,0.0043
3136.00,0.0043
3135.00,0.0042
3134.00,0.0042
3133.00,0.0042
3132.00,0.0042
3131.00,0.0042
3130.00,0.0042
3129.00,0.0041
3128.00,0.0041
3127.00,0.0040
3126.00,0.0040
3125.00,0.0040
3124.00,0.0040
3123.00,0.0040
3122.00,0.0040
3121.00,0.0040
3120.00,0.0039
3119.00,0.0038
3118.00,0.0038
3117.00,0.0038
3116.00,0.0038
3115.00,0.0038
3114.00,0.0038
3113.00,0.0037
3112.00,0.0037
3111.00,0.0037
3110.00,0.0036
3109.00,0.0036
3108.00,0.0036
3107.00,0.0036
3106.00,0.0036
3105.00,0.0036
3104.00,0.0036
3103.00,0.0036
3102.00,0.0036
3101.00,0.0036
3100.00,0.0036
3099.00,0.0036
3098.00,0.0035
3097.00,0.0035
3096.00,0.0036
3095.00,0.0036
3094.00,0.0036
3093.00,0.0035
3092.00,0.0035
3091.00,0.0034
3090.00,0.0034
3089.00,0.0034
3088.00,0.0034
3087.00,0.0034
3086.00,0.0034
3085.00,0.0034
3084.00,0.0034
3083.00,0.0034
3082.00,0.0034
3081.00,0.0035
3080.00,0.0035
3079.00,0.0035
3078.00,0.0035
3077.00,0.0035
3076.00,0.0035
3075.00,0.0035
3074.00,0.0035
3073.00,0.0035
3072.00,0.0035
3071.00,0.0035
3070.00,0.0035
3069.00,0.0035
3068.00,0.0035
3067.00,0.0036
3066.00,0.0036
3065.00,0.0036
3064.00,0.0037
3063.00,0.0037
3062.00,0.0037
3061.00,0.0037
3060.00,0.0037
3059.00,0.0037
3058.00,0.0036
3057.00,0.0036
3056.00,0.0036
3055.00,0.0036
3054.00,0.0036
3053.00,0.0037
3052.00,0.0037
3051.00,0.0037
3050.00,0.0037
3049.00,0.0038
3048.00,0.0038
3047.00,0.0038
3046.00,0.0038
3045.00,0.0038
3044.00,0.0038
3043.00,0.0039
3042.00,0.0039
3041.00,0.0040
3040.00,0.0040
3039.00,0.0040
3038.00,0.0040
3037.00,0.0041
3036.00,0.0041
3035.00,0.0042
3034.00,0.0042
3033.00,0.0042
3032.00,0.0042
3031.00,0.0043
3030.00,0.0043
3029.00,0.0043
3028.00,0.0044
3027.00,0.0044
3026.00,0.0045
3025.00,0.0046
3024.00,0.0046
3023.00,0.0047
3022.00,0.0048
3021.00,0.0048
3020.00,0.0049
3019.00,0.0050
3018.00,0.0051
3017.00,0.0052
3016.00,0.0053
3015.00,0.0053
3014.00,0.0054
3013.00,0.0055
3012.00,0.0056
3011.00,0.0057
3010.00,0.0058
3009.00,0.0059
3008.00,0.0060
3007.00,0.0062
3006.00,0.0063
3005.00,0.0064
3004.00,0.0066
3003.00,0.0068
3002.00,0.0070
3001.00,0.0072
3000.00,0.0074
2999.00,0.0076
2998.00,0.0079
2997.00,0.0082
2996.00,0.0086
2995.00,0.0090
2994.00,0.0094
2993.00,0.0099
2992.00,0.0104
2991.00,0.0109
2990.00,0.0116
2989.00,0.0122
2988.00,0.0130
2987.00,0.0139
2986.00,0.0148
2985.00,0.0158
2984.00,0.0169
2983.00,0.0182
2982.00,0.0197
2981.00,0.0214
2980.00,0.0235
2979.00,0.0258
2978.00,0.0285
2977.00,0.0315
2976.00,0.0349
2975.00,0.0387
2974.00,0.0432
2973.00,0.0483
2972.00,0.0540
2971.00,0.0606
2970.00,0.0680
2969.00,0.0762
2968.00,0.0852
2967.00,0.0949
2966.00,0.1053
2965.00,0.1162
2964.00,0.1272
2963.00,0.1378
2962.00,0.1474
2961.00,0.1556
2960.00,0.1621
2959.00,0.1668
2958.00,0.1702
2957.00,0.1727
2956.00,0.1751
2955.00,0.1779
2954.00,0.1810
2953.00,0.1843
2952.00,0.1869
2951.00,0.1880
2950.00,0.1865
2949.00,0.1820
2948.00,0.1745
2947.00,0.1644
2946.00,0.1528
2945.00,0.1409
2944.00,0.1297
2943.00,0.1202
2942.00,0.1129
2941.00,0.1079
2940.00,0.1052
2939.00,0.1046
2938.00,0.1058
2937.00,0.1087
2936.00,0.1131
2935.00,0.1188
2934.00,0.1258
2933.00,0.1339
2932.00,0.1430
2931.00,0.1528
2930.00,0.1631
2929.00,0.1736
2928.00,0.1839
2927.00,0.1938
2926.00,0.2033
2925.00,0.2122
2924.00,0.2207
2923.00,0.2289
2922.00,0.2367
2921.00,0.2440
2920.00,0.2500
2919.00,0.2542
2918.00,0.2558
2917.00,0.2544
2916.00,0.2501
2915.00,0.2435
2914.00,0.2354
2913.00,0.2269
2912.00,0.2185
2911.00,0.2110
2910.00,0.2043
2909.00,0.1984
2908.00,0.1929
2907.00,0.1876
2906.00,0.1822
2905.00,0.1764
2904.00,0.1704
2903.00,0.1641
2902.00,0.1577
2901.00,0.1513
2900.00,0.1449
2899.00,0.1389
2898.00,0.1331
2897.00,0.1278
2896.00,0.1230
2895.00,0.1188
2894.00,0.1152
2893.00,0.1122
2892.00,0.1097
2891.00,0.1078
2890.00,0.1064
2889.00,0.1054
2888.00,0.1048
2887.00,0.1045
2886.00,0.1044
2885.00,0.1048
2884.00,0.1055
2883.00,0.1066
2882.00,0.1080
2881.00,0.1097
2880.00,0.1114
2879.00,0.1127
2878.00,0.1134
2877.00,0.1134
2876.00,0.1129
2875.00,0.1121
2874.00,0.1116
2873.00,0.1116
2872.00,0.1124
2871.00,0.1137
2870.00,0.1154
2869.00,0.1169
2868.00,0.1177
2867.00,0.1171
2866.00,0.1147
2865.00,0.1104
2864.00,0.1045
2863.00,0.0979
2862.00,0.0916
2861.00,0.0861
2860.00,0.0819
2859.00,0.0792
2858.00,0.0778
2857.00,0.0776
2856.00,0.0783
2855.00,0.0796
2854.00,0.0814
2853.00,0.0833
2852.00,0.0852
2851.00,0.0868
2850.00,0.0881
2849.00,0.0891
2848.00,0.0900
2847.00,0.0914
2846.00,0.0937
2845.00,0.0970
2844.00,0.1014
2843.00,0.1067
2842.00,0.1122
2841.00,0.1174
2840.00,0.1215
2839.00,0.1236
2838.00,0.1231
2837.00,0.1195
2836.00,0.1129
2835.00,0.1039
2834.00,0.0935
2833.00,0.0827
2832.00,0.0724
2831.00,0.0634
2830.00,0.0557
2829.00,0.0494
2828.00,0.0443
2827.00,0.0401
2826.00,0.0367
2825.00,0.0339
2824.00,0.0316
2823.00,0.0295
2822.00,0.0278
2821.00,0.0263
2820.00,0.0250
2819.00,0.0238
2818.00,0.0229
2817.00,0.0220
2816.00,0.0212
2815.00,0.0205
2814.00,0.0199
2813.00,0.0193
2812.00,0.0187
2811.00,0.0182
2810.00,0.0177
2809.00,0.0172
2808.00,0.0166
2807.00,0.0160
2806.00,0.0154
2805.00,0.0148
2804.00,0.0141
2803.00,0.0136
2802.00,0.0131
2801.00,0.0126
2800.00,0.0122
2799.00,0.0119
2798.00,0.0117
2797.00,0.0115
2796.00,0.0112
2795.00,0.0110
2794.00,0.0107
2793.00,0.0104
2792.00,0.0101
2791.00,0.0098
2790.00,0.0095
2789.00,0.0091
2788.00,0.0088
2787.00,0.0085
2786.00,0.0082
2785.00,0.0078
2784.00,0.0076
2783.00,0.0073
2782.00,0.0071
2781.00,0.0069
2780.00,0.0068
2779.00,0.0066
2778.00,0.0065
2777.00,0.0064
2776.00,0.0062
2775.00,0.0061
2774.00,0.0060
2773.00,0.0060
2772.00,0.0059
2771.00,0.0059
2770.00,0.0058
2769.00,0.0058
2768.00,0.0058
2767.00,0.0057
2766.00,0.0057
2765.00,0.0057
2764.00,0.0056
2763.00,0.0056
2762.00,0.0055
2761.00,0.0055
2760.00,0.0055
2759.00,0.0054
2758.00,0.0054
2757.00,0.0053
2756.00,0.0053
2755.00,0.0053
2754.00,0.0053
2753.00,0.0053
2752.00,0.0053
2751.00,0.0053
2750.00,0.0053
2749.00,0.0053
2748.00,0.0053
2747.00,0.0053
2746.00,0.0053
2745.00,0.0053
2744.00,0.0054
2743.00,0.0055
2742.00,0.0056
2741.00,0.0057
2740.00,0.0058
2739.00,0.0060
2738.00,0.0061
2737.00,0.0062
2736.00,0.0063
2735.00,0.0064
2734.00,0.0066
2733.00,0.0067
2732.00,0.0069
2731.00,0.0070
2730.00,0.0072
2729.00,0.0074
2728.00,0.0077
2727.00,0.0079
2726.00,0.0082
2725.00,0.0085
2724.00,0.0086
2723.00,0.0086
2722.00,0.0085
2721.00,0.0083
2720.00,0.0081
2719.00,0.0077
2718.00,0.0074
2717.00,0.0072
2716.00,0.0069
2715.00,0.0067
2714.00,0.0065
2713.00,0.0063
2712.00,0.0060
2711.00,0.0059
2710.00,0.0057
2709.00,0.0056
2708.00,0.0054
2707.00,0.0054
2706.00,0.0053
2705.00,0.0052
2704.00,0.0050
2703.00,0.0049
2702.00,0.0048
2701.00,0.0048
2700.00,0.0047
2699.00,0.0047
2698.00,0.0047
2697.00,0.0047
2696.00,0.0047
2695.00,0.0047
2694.00,0.0047
2693.00,0.0047
2692.00,0.0047
2691.00,0.0046
2690.00,0.0046
2689.00,0.0046
2688.00,0.0046
2687.00,0.0046
2686.00,0.0046
2685.00,0.0046
2684.00,0.0047
2683.00,0.0047
2682.00,0.0047
2681.00,0.0047
2680.00,0.0047
2679.00,0.0047
2678.00,0.0047
2677.00,0.0047
2676.00,0.0047
2675.00,0.0047
2674.00,0.0046
2673.00,0.0046
2672.00,0.0045
2671.00,0.0045
2670.00,0.0045
2669.00,0.0045
2668.00,0.0045
2667.00,0.0045
2666.00,0.0045
2665.00,0.0045
2664.00,0.0046
2663.00,0.0047
2662.00,0.0047
2661.00,0.0048
2660.00,0.0049
2659.00,0.0049
2658.00,0.0049
2657.00,0.0048
2656.00,0.0048
2655.00,0.0048
2654.00,0.0047
2653.00,0.0047
2652.00,0.0046
2651.00,0.0046
2650.00,0.0045
2649.00,0.0045
2648.00,0.0044
2647.00,0.0044
2646.00,0.0044
2645.00,0.0043
2644.00,0.0043
2643.00,0.0042
2642.00,0.0042
2641.00,0.0041
2640.00,0.0040
2639.00,0.0040
2638.00,0.0039
2637.00,0.0039
2636.00,0.0039
2635.00,0.0040
2634.00,0.0039
2633.00,0.0039
2632.00,0.0039
2631.00,0.0039
2630.00,0.0040
2629.00,0.0040
2628.00,0.0040
2627.00,0.0041
2626.00,0.0041
2625.00,0.0041
2624.00,0.0041
2623.00,0.0041
2622.00,0.0041
2621.00,0.0041
2620.00,0.0041
2619.00,0.0041
2618.00,0.0041
2617.00,0.0040
2616.00,0.0040
2615.00,0.0040
2614.00,0.0040
2613.00,0.0039
2612.00,0.0039
2611.00,0.0039
2610.00,0.0038
2609.00,0.0037
2608.00,0.0036
2607.00,0.0036
2606.00,0.0035
2605.00,0.0035
2604.00,0.0034
2603.00,0.0033
2602.00,0.0032
2601.00,0.0032
2600.00,0.0031
2599.00,0.0031
2598.00,0.0031
2597.00,0.0031
2596.00,0.0032
2595.00,0.0032
2594.00,0.0033
2593.00,0.0033
2592.00,0.0033
2591.00,0.0034
2590.00,0.0034
2589.00,0.0034
2588.00,0.0035
2587.00,0.0035
2586.00,0.0036
2585.00,0.0037
2584.00,0.0037
2583.00,0.0038
2582.00,0.0038
2581.00,0.0038
2580.00,0.0037
2579.00,0.0036
2578.00,0.0035
2577.00,0.0034
2576.00,0.0033
2575.00,0.0032
2574.00,0.0031
2573.00,0.0029
2572.00,0.0028
2571.00,0.0028
2570.00,0.0027
2569.00,0.0027
2568.00,0.0026
2567.00,0.0026
2566.00,0.0025
2565.00,0.0025
2564.00,0.0024
2563.00,0.0024
2562.00,0.0024
2561.00,0.0024
2560.00,0.0023
2559.00,0.0023
2558.00,0.0023
2557.00,0.0023
2556.00,0.0023
2555.00,0.0023
2554.00,0.0023
2553.00,0.0023
2552.00,0.0022
2551.00,0.0021
2550.00,0.0020
2549.00,0.0020
2548.00,0.0020
2547.00,0.0020
2546.00,0.0020
2545.00,0.0020
2544.00,0.0020
2543.00,0.0019
2542.00,0.0018
2541.00,0.0018
2540.00,0.0018
2539.00,0.0017
2538.00,0.0017
2537.00,0.0017
2536.00,0.0017
2535.00,0.0016
2534.00,0.0016
2533.00,0.0015
2532.00,0.0015
2531.00,0.0014
2530.00,0.0014
2529.00,0.0015
2528.00,0.0015
2527.00,0.0015
2526.00,0.0016
2525.00,0.0015
2524.00,0.0015
2523.00,0.0014
2522.00,0.0014
2521.00,0.0013
2520.00,0.0013
2519.00,0.0013
2518.00,0.0013
2517.00,0.0013
2516.00,0.0013
2515.00,0.0012
2514.00,0.0012
2513.00,0.0012
2512.00,0.0011
2511.00,0.0011
2510.00,0.0011
2509.00,0.0012
2508.00,0.0012
2507.00,0.0012
2506.00,0.0012
2505.00,0.0011
2504.00,0.0011
2503.00,0.0011
2502.00,0.0011
2501.00,0.0011
2500.00,0.0012
2499.00,0.0012
2498.00,0.0013
2497.00,0.0012
2496.00,0.0012
2495.00,0.0011
2494.00,0.0010
2493.00,0.0010
2492.00,0.0010
2491.00,0.0010
2490.00,0.0010
2489.00,0.0010
2488.00,0.0010
2487.00,0.0010
2486.00,0.0010
2485.00,0.0010
2484.00,0.0011
2483.00,0.0011
2482.00,0.0011
2481.00,0.0011
2480.00,0.0011
2479.00,0.0011
2478.00,0.0011
2477.00,0.0011
2476.00,0.0011
2475.00,0.0011
2474.00,0.0011
2473.00,0.0011
2472.00,0.0011
2471.00,0.0011
2470.00,0.0011
2469.00,0.0011
2468.00,0.0011
2467.00,0.0011
2466.00,0.0011
2465.00,0.0011
2464.00,0.0011
2463.00,0.0011
2462.00,0.0010
2461.00,0.0010
2460.00,0.0010
2459.00,0.0010
2458.00,0.0011
2457.00,0.0011
2456.00,0.0012
2455.00,0.0013
2454.00,0.0013
2453.00,0.0012
2452.00,0.0012
2451.00,0.0011
2450.00,0.0011
2449.00,0.0012
2448.00,0.0012
2447.00,0.0011
2446.00,0.0011
2445.00,0.0011
2444.00,0.0011
2443.00,0.0011
2442.00,0.0011
2441.00,0.0012
2440.00,0.0012
2439.00,0.0012
2438.00,0.0012
2437.00,0.0013
2436.00,0.0014
2435.00,0.0015
2434.00,0.0015
2433.00,0.0014
2432.00,0.0014
2431.00,0.0013
2430.00,0.0012
2429.00,0.0011
2428.00,0.0011
2427.00,0.0011
2426.00,0.0011
2425.00,0.0011
2424.00,0.0011
2423.00,0.0011
2422.00,0.0011
2421.00,0.0012
2420.00,0.0012
2419.00,0.0011
2418.00,0.0011
2417.00,0.0010
2416.00,0.0010
2415.00,0.0010
2414.00,0.0010
2413.00,0.0010
2412.00,0.0010
2411.00,0.0011
2410.00,0.0011
2409.00,0.0010
2408.00,0.0010
2407.00,0.0010
2406.00,0.0010
2405.00,0.0010
2404.00,0.0010
2403.00,0.0010
2402.00,0.0009
2401.00,0.0009
2400.00,0.0009
2399.00,0.0009
2398.00,0.0009
2397.00,0.0009
2396.00,0.0009
2395.00,0.0009
2394.00,0.0008
2393.00,0.0008
2392.00,0.0007
2391.00,0.0007
2390.00,0.0007
2389.00,0.0008
2388.00,0.0008
2387.00,0.0007
2386.00,0.0007
2385.00,0.0007
2384.00,0.0007
2383.00,0.0006
2382.00,0.0006
2381.00,0.0005
2380.00,0.0004
2379.00,0.0003
2378.00,0.0002
2377.00,0.0001
2376.00,0.0002
2375.00,0.0002
2374.00,0.0003
2373.00,0.0004
2372.00,0.0004
2371.00,0.0002
2370.00,0.0001
2369.00,-0.0000
2368.00,-0.0001
2367.00,-0.0001
2366.00,0.0000
2365.00,0.0001
2364.00,0.0002
2363.00,0.0002
2362.00,0.0002
2361.00,0.0001
2360.00,0.0002
2359.00,0.0002
2358.00,0.0003
2357.00,0.0004
2356.00,0.0005
2355.00,0.0004
2354.00,0.0004
2353.00,0.0004
2352.00,0.0004
2351.00,0.0004
2350.00,0.0004
2349.00,0.0004
2348.00,0.0004
2347.00,0.0004
2346.00,0.0005
2345.00,0.0005
2344.00,0.0006
2343.00,0.0005
2342.00,0.0004
2341.00,0.0004
2340.00,0.0004
2339.00,0.0005
2338.00,0.0006
2337.00,0.0008
2336.00,0.0008
2335.00,0.0008
2334.00,0.0007
2333.00,0.0006
2332.00,0.0006
2331.00,0.0006
2330.00,0.0006
2329.00,0.0007
2328.00,0.0008
2327.00,0.0011
2326.00,0.0015
2325.00,0.0018
2324.00,0.0020
2323.00,0.0020
2322.00,0.0019
2321.00,0.0017
2320.00,0.0016
2319.00,0.0015
2318.00,0.0014
2317.00,0.0014
2316.00,0.0013
2315.00,0.0013
2314.00,0.0013
2313.00,0.0013
2312.00,0.0013
2311.00,0.0012
2310.00,0.0012
2309.00,0.0011
2308.00,0.0012
2307.00,0.0012
2306.00,0.0013
2305.00,0.0014
2304.00,0.0014
2303.00,0.0014
2302.00,0.0014
2301.00,0.0014
2300.00,0.0014
2299.00,0.0015
2298.00,0.0015
2297.00,0.0015
2296.00,0.0015
2295.00,0.0016
2294.00,0.0017
2293.00,0.0018
2292.00,0.0019
2291.00,0.0019
2290.00,0.0018
2289.00,0.0018
2288.00,0.0018
2287.00,0.0019
2286.00,0.0020
2285.00,0.0020
2284.00,0.0020
2283.00,0.0020
2282.00,0.0019
2281.00,0.0018
2280.00,0.0017
2279.00,0.0016
2278.00,0.0016
2277.00,0.0016
2276.00,0.0015
2275.00,0.0015
2274.00,0.0014
2273.00,0.0013
2272.00,0.0012
2271.00,0.0011
2270.00,0.0012
2269.00,0.0013
2268.00,0.0013
2267.00,0.0014
2266.00,0.0014
2265.00,0.0014
2264.00,0.0014
2263.00,0.0013
2262.00,0.0013
2261.00,0.0013
2260.00,0.0014
2259.00,0.0014
2258.00,0.0015
2257.00,0.0014
2256.00,0.0013
2255.00,0.0011
2254.00,0.0009
2253.00,0.0009
2252.00,0.0009
2251.00,0.0010
2250.00,0.0010
2249.00,0.0010
2248.00,0.0011
2247.00,0.0011
2246.00,0.0011
2245.00,0.0010
2244.00,0.0009
2243.00,0.0009
2242.00,0.0009
2241.00,0.0008
2240.00,0.0007
2239.00,0.0007
2238.00,0.0008
2237.00,0.0009
2236.00,0.0010
2235.00,0.0010
2234.00,0.0010
2233.00,0.0009
2232.00,0.0007
2231.00,0.0006
2230.00,0.0006
2229.00,0.0007
2228.00,0.0009
2227.00,0.0010
2226.00,0.0012
2225.00,0.0012
2224.00,0.0012
2223.00,0.0011
2222.00,0.0010
2221.00,0.0010
2220.00,0.0010
2219.00,0.0010
2218.00,0.0009
2217.00,0.0008
2216.00,0.0007
2215.00,0.0006
2214.00,0.0006
2213.00,0.0006
2212.00,0.0006
2211.00,0.0006
2210.00,0.0006
2209.00,0.0005
2208.00,0.0006
2207.00,0.0007
2206.00,0.0008
2205.00,0.0010
2204.00,0.0010
2203.00,0.0010
2202.00,0.0010
2201.00,0.0009
2200.00,0.0007
2199.00,0.0006
2198.00,0.0004
2197.00,0.0004
2196.00,0.0004
2195.00,0.0005
2194.00,0.0007
2193.00,0.0008
2192.00,0.0009
2191.00,0.0010
2190.00,0.0012
2189.00,0.0013
2188.00,0.0013
2187.00,0.0012
2186.00,0.0012
2185.00,0.0012
2184.00,0.0012
2183.00,0.0011
2182.00,0.0010
2181.00,0.0011
2180.00,0.0014
2179.00,0.0016
2178.00,0.0016
2177.00,0.0013
2176.00,0.0009
2175.00,0.0004
2174.00,-0.0000
2173.00,-0.0002
2172.00,0.0000
2171.00,0.0005
2170.00,0.0010
2169.00,0.0016
2168.00,0.0021
2167.00,0.0023
2166.00,0.0023
2165.00,0.0022
2164.00,0.0021
2163.00,0.0020
2162.00,0.0019
2161.00,0.0014
2160.00,0.0004
2159.00,-0.0010
2158.00,-0.0021
2157.00,-0.0027
2156.00,-0.0028
2155.00,-0.0026
2154.00,-0.0022
2153.00,-0.0019
2152.00,-0.0016
2151.00,-0.0014
2150.00,-0.0013
2149.00,-0.0012
2148.00,-0.0011
2147.00,-0.0011
2146.00,-0.0011
2145.00,-0.0011
2144.00,-0.0011
2143.00,-0.0012
2142.00,-0.0012
2141.00,-0.0013
2140.00,-0.0012
2139.00,-0.0012
2138.00,-0.0011
2137.00,-0.0010
2136.00,-0.0011
2135.00,-0.0013
2134.00,-0.0015
2133.00,-0.0017
2132.00,-0.0016
2131.00,-0.0015
2130.00,-0.0013
2129.00,-0.0010
2128.00,-0.0008
2127.00,-0.0006
2126.00,-0.0004
2125.00,-0.0003
2124.00,-0.0004
2123.00,-0.0004
2122.00,-0.0005
2121.00,-0.0006
2120.00,-0.0005
2119.00,-0.0003
2118.00,0.0000
2117.00,0.0003
2116.00,0.0004
2115.00,0.0004
2114.00,0.0004
2113.00,0.0004
2112.00,0.0004
2111.00,0.0003
2110.00,0.0002
2109.00,0.0000
2108.00,-0.0001
2107.00,-0.0002
2106.00,-0.0001
2105.00,0.0000
2104.00,0.0001
2103.00,0.0002
2102.00,0.0002
2101.00,0.0002
2100.00,0.0003
2099.00,0.0003
2098.00,0.0004
2097.00,0.0004
2096.00,0.0002
2095.00,0.0000
2094.00,-0.0001
2093.00,-0.0001
2092.00,-0.0002
2091.00,-0.0002
2090.00,-0.0002
2089.00,-0.0001
2088.00,0.0001
2087.00,0.0002
2086.00,0.0003
2085.00,0.0004
2084.00,0.0004
2083.00,0.0004
2082.00,0.0004
2081.00,0.0005
2080.00,0.0007
2079.00,0.0008
2078.00,0.0009
2077.00,0.0009
2076.00,0.0008
2075.00,0.0005
2074.00,0.0003
2073.00,0.0002
2072.00,0.0002
2071.00,0.0003
2070.00,0.0003
2069.00,0.0002
2068.00,0.0002
2067.00,0.0001
2066.00,0.0000
2065.00,-0.0001
2064.00,-0.0001
2063.00,-0.0002
2062.00,-0.0002
2061.00,-0.0002
2060.00,-0.0002
2059.00,-0.0001
2058.00,0.0000
2057.00,0.0002
2056.00,0.0003
2055.00,0.0003
2054.00,0.0005
2053.00,0.0009
2052.00,0.0015
2051.00,0.0018
2050.00,0.0017
2049.00,0.0012
2048.00,0.0005
2047.00,0.0000
2046.00,-0.0002
2045.00,-0.0002
2044.00,-0.0001
2043.00,-0.0000
2042.00,-0.0000
2041.00,0.0001
2040.00,0.0003
2039.00,0.0005
2038.00,0.0006
2037.00,0.0006
2036.00,0.0004
2035.00,0.0001
2034.00,-0.0002
2033.00,-0.0005
2032.00,-0.0006
2031.00,-0.0006
2030.00,-0.0006
2029.00,-0.0006
2028.00,-0.0007
2027.00,-0.0009
2026.00,-0.0011
2025.00,-0.0011
2024.00,-0.0009
2023.00,-0.0008
2022.00,-0.0007
2021.00,-0.0007
2020.00,-0.0007
2019.00,-0.0007
2018.00,-0.0006
2017.00,-0.0006
2016.00,-0.0006
2015.00,-0.0007
2014.00,-0.0007
2013.00,-0.0008
2012.00,-0.0007
2011.00,-0.0006
2010.00,-0.0004
2009.00,-0.0005
2008.00,-0.0007
2007.00,-0.0011
2006.00,-0.0014
2005.00,-0.0014
2004.00,-0.0013
2003.00,-0.0012
2002.00,-0.0011
2001.00,-0.0009
2000.00,-0.0008
1999.00,-0.0008
1998.00,-0.0007
1997.00,-0.0008
1996.00,-0.0009
1995.00,-0.0010
1994.00,-0.0011
1993.00,-0.0010
1992.00,-0.0008
1991.00,-0.0004
1990.00,-0.0001
1989.00,0.0001
1988.00,0.0002
1987.00,0.0002
1986.00,0.0002
1985.00,0.0004
1984.00,0.0004
1983.00,0.0005
1982.00,0.0007
1981.00,0.0009
1980.00,0.0010
1979.00,0.0007
1978.00,0.0000
1977.00,-0.0008
1976.00,-0.0014
1975.00,-0.0019
1974.00,-0.0021
1973.00,-0.0023
1972.00,-0.0023
1971.00,-0.0023
1970.00,-0.0022
1969.00,-0.0021
1968.00,-0.0019
1967.00,-0.0017
1966.00,-0.0015
1965.00,-0.0013
1964.00,-0.0011
1963.00,-0.0009
1962.00,-0.0009
1961.00,-0.0011
1960.00,-0.0013
1959.00,-0.0015
1958.00,-0.0017
1957.00,-0.0019
1956.00,-0.0020
1955.00,-0.0020
1954.00,-0.0019
1953.00,-0.0017
1952.00,-0.0015
1951.00,-0.0013
1950.00,-0.0012
1949.00,-0.0011
1948.00,-0.0011
1947.00,-0.0011
1946.00,-0.0012
1945.00,-0.0013
1944.00,-0.0014
1943.00,-0.0015
1942.00,-0.0014
1941.00,-0.0012
1940.00,-0.0009
1939.00,-0.0007
1938.00,-0.0007
1937.00,-0.0008
1936.00,-0.0008
1935.00,-0.0008
1934.00,-0.0007
1933.00,-0.0006
1932.00,-0.0006
1931.00,-0.0006
1930.00,-0.0006
1929.00,-0.0006
1928.00,-0.0005
1927.00,-0.0006
1926.00,-0.0008
1925.00,-0.0009
1924.00,-0.0010
1923.00,-0.0009
1922.00,-0.0007
1921.00,-0.0005
1920.00,-0.0004
1919.00,-0.0004
1918.00,-0.0004
1917.00,-0.0003
1916.00,-0.0003
1915.00,-0.0002
1914.00,-0.0002
1913.00,-0.0002
1912.00,-0.0001
1911.00,-0.0000
1910.00,0.0000
1909.00,0.0001
1908.00,0.0001
1907.00,0.0001
1906.00,0.0000
1905.00,-0.0000
1904.00,-0.0001
1903.00,-0.0001
1902.00,-0.0002
1901.00,-0.0002
1900.00,-0.0002
1899.00,-0.0002
1898.00,-0.0003
1897.00,-0.0002
1896.00,-0.0002
1895.00,-0.0001
1894.00,-0.0000
1893.00,-0.0000
1892.00,-0.0001
1891.00,-0.0001
1890.00,-0.0001
1889.00,-0.0001
1888.00,-0.0001
1887.00,-0.0002
1886.00,-0.0003
1885.00,-0.0003
1884.00,-0.0002
1883.00,-0.0001
1882.00,-0.0000
1881.00,0.0001
1880.00,0.0001
1879.00,0.0001
1878.00,0.0001
1877.00,0.0000
1876.00,-0.0000
1875.00,-0.0001
1874.00,-0.0001
1873.00,-0.0001
1872.00,-0.0000
1871.00,0.0000
1870.00,0.0000
1869.00,0.0001
1868.00,0.0001
1867.00,0.0001
1866.00,0.0000
1865.00,0.0000
1864.00,0.0001
1863.00,0.0001
1862.00,0.0001
1861.00,0.0001
1860.00,0.0001
1859.00,0.0001
1858.00,0.0001
1857.00,0.0001
1856.00,0.0002
1855.00,0.0001
1854.00,0.0001
1853.00,0.0001
1852.00,0.0001
1851.00,0.0002
1850.00,0.0003
1849.00,0.0003
1848.00,0.0004
1847.00,0.0004
1846.00,0.0003
1845.00,0.0003
1844.00,0.0004
1843.00,0.0003
1842.00,0.0003
1841.00,0.0003
1840.00,0.0003
1839.00,0.0003
1838.00,0.0002
1837.00,0.0002
1836.00,0.0003
1835.00,0.0004
1834.00,0.0004
1833.00,0.0004
1832.00,0.0003
1831.00,0.0003
1830.00,0.0003
1829.00,0.0004
1828.00,0.0004
1827.00,0.0004
1826.00,0.0003
1825.00,0.0003
1824.00,0.0003
1823.00,0.0004
1822.00,0.0004
1821.00,0.0004
1820.00,0.0003
1819.00,0.0002
1818.00,0.0002
1817.00,0.0002
1816.00,0.0002
1815.00,0.0002
1814.00,0.0002
1813.00,0.0002
1812.00,0.0003
1811.00,0.0004
1810.00,0.0005
1809.00,0.0005
1808.00,0.0005
1807.00,0.0004
1806.00,0.0004
1805.00,0.0004
1804.00,0.0004
1803.00,0.0005
1802.00,0.0006
1801.00,0.0006
1800.00,0.0006
1799.00,0.0006
1798.00,0.0006
1797.00,0.0006
1796.00,0.0007
1795.00,0.0007
1794.00,0.0008
1793.00,0.0008
1792.00,0.0009
1791.00,0.0009
1790.00,0.0009
1789.00,0.0008
1788.00,0.0008
1787.00,0.0008
1786.00,0.0008
1785.00,0.0009
1784.00,0.0009
1783.00,0.0009
1782.00,0.0009
1781.00,0.0009
1780.00,0.0009
1779.00,0.0009
1778.00,0.0009
1777.00,0.0008
1776.00,0.0008
1775.00,0.0008
1774.00,0.0008
1773.00,0.0008
1772.00,0.0008
1771.00,0.0009
1770.00,0.0010
1769.00,0.0010
1768.00,0.0011
1767.00,0.0011
1766.00,0.0011
1765.00,0.0011
1764.00,0.0012
1763.00,0.0012
1762.00,0.0012
1761.00,0.0013
1760.00,0.0013
1759.00,0.0013
1758.00,0.0014
1757.00,0.0014
1756.00,0.0015
1755.00,0.0015
1754.00,0.0015
1753.00,0.0015
1752.00,0.0016
1751.00,0.0015
1750.00,0.0015
1749.00,0.0015
1748.00,0.0016
1747.00,0.0016
1746.00,0.0016
1745.00,0.0016
1744.00,0.0017
1743.00,0.0017
1742.00,0.0018
1741.00,0.0018
1740.00,0.0019
1739.00,0.0019
1738.00,0.0019
1737.00,0.0019
1736.00,0.0020
1735.00,0.0021
1734.00,0.0022
1733.00,0.0022
1732.00,0.0022
1731.00,0.0022
1730.00,0.0021
1729.00,0.0021
1728.00,0.0022
1727.00,0.0022
1726.00,0.0023
1725.00,0.0023
1724.00,0.0023
1723.00,0.0024
1722.00,0.0024
1721.00,0.0024
1720.00,0.0024
1719.00,0.0024
1718.00,0.0025
1717.00,0.0025
1716.00,0.0024
1715.00,0.0024
1714.00,0.0024
1713.00,0.0024
1712.00,0.0025
1711.00,0.0025
1710.00,0.0025
1709.00,0.0025
1708.00,0.0026
1707.00,0.0026
1706.00,0.0026
1705.00,0.0026
1704.00,0.0026
1703.00,0.0027
1702.00,0.0028
1701.00,0.0029
1700.00,0.0030
1699.00,0.0030
1698.00,0.0030
1697.00,0.0030
1696.00,0.0030
1695.00,0.0030
1694.00,0.0031
1693.00,0.0033
1692.00,0.0034
1691.00,0.0035
1690.00,0.0036
1689.00,0.0037
1688.00,0.0038
1687.00,0.0038
1686.00,0.0039
1685.00,0.0039
1684.00,0.0039
1683.00,0.0040
1682.00,0.0040
1681.00,0.0042
1680.00,0.0043
1679.00,0.0045
1678.00,0.0046
1677.00,0.0048
1676.00,0.0050
1675.00,0.0051
1674.00,0.0052
1673.00,0.0052
1672.00,0.0053
1671.00,0.0053
1670.00,0.0053
1669.00,0.0054
1668.00,0.0054
1667.00,0.0055
1666.00,0.0055
1665.00,0.0056
1664.00,0.0056
1663.00,0.0056
1662.00,0.0056
1661.00,0.0057
1660.00,0.0058
1659.00,0.0058
1658.00,0.0059
1657.00,0.0059
1656.00,0.0059
1655.00,0.0059
1654.00,0.0060
1653.00,0.0061
1652.00,0.0061
1651.00,0.0062
1650.00,0.0063
1649.00,0.0065
1648.00,0.0067
1647.00,0.0069
1646.00,0.0070
1645.00,0.0070
1644.00,0.0070
1643.00,0.0070
1642.00,0.0071
1641.00,0.0071
1640.00,0.0072
1639.00,0.0073
1638.00,0.0074
1637.00,0.0075
1636.00,0.0075
1635.00,0.0074
1634.00,0.0073
1633.00,0.0072
1632.00,0.0072
1631.00,0.0071
1630.00,0.0070
1629.00,0.0070
1628.00,0.0069
1627.00,0.0069
1626.00,0.0069
1625.00,0.0069
1624.00,0.0069
1623.00,0.0069
1622.00,0.0067
1621.00,0.0066
1620.00,0.0066
1619.00,0.0066
1618.00,0.0066
1617.00,0.0066
1616.00,0.0066
1615.00,0.0065
1614.00,0.0065
1613.00,0.0066
1612.00,0.0066
1611.00,0.0066
1610.00,0.0066
1609.00,0.0066
1608.00,0.0066
1607.00,0.0067
1606.00,0.0067
1605.00,0.0066
1604.00,0.0066
1603.00,0.0066
1602.00,0.0065
1601.00,0.0065
1600.00,0.0065
1599.00,0.0064
1598.00,0.0063
1597.00,0.0063
1596.00,0.0063
1595.00,0.0063
1594.00,0.0062
1593.00,0.0062
1592.00,0.0062
1591.00,0.0062
1590.00,0.0061
1589.00,0.0062
1588.00,0.0062
1587.00,0.0062
1586.00,0.0062
1585.00,0.0062
1584.00,0.0063
1583.00,0.0063
1582.00,0.0062
1581.00,0.0062
1580.00,0.0062
1579.00,0.0063
1578.00,0.0063
1577.00,0.0063
1576.00,0.0064
1575.00,0.0064
1574.00,0.0063
1573.00,0.0064
1572.00,0.0064
1571.00,0.0065
1570.00,0.0065
1569.00,0.0066
1568.00,0.0066
1567.00,0.0067
1566.00,0.0067
1565.00,0.0068
1564.00,0.0068
1563.00,0.0068
1562.00,0.0068
1561.00,0.0068
1560.00,0.0069
1559.00,0.0071
1558.00,0.0072
1557.00,0.0072
1556.00,0.0073
1555.00,0.0074
1554.00,0.0074
1553.00,0.0074
1552.00,0.0074
1551.00,0.0075
1550.00,0.0076
1549.00,0.0077
1548.00,0.0077
1547.00,0.0078
1546.00,0.0078
1545.00,0.0078
1544.00,0.0078
1543.00,0.0078
1542.00,0.0077
1541.00,0.0076
1540.00,0.0074
1539.00,0.0071
1538.00,0.0068
1537.00,0.0067
1536.00,0.0067
1535.00,0.0066
1534.00,0.0064
1533.00,0.0063
1532.00,0.0062
1531.00,0.0061
1530.00,0.0060
1529.00,0.0060
1528.00,0.0060
1527.00,0.0059
1526.00,0.0059
1525.00,0.0060
1524.00,0.0060
1523.00,0.0059
1522.00,0.0059
1521.00,0.0059
1520.00,0.0059
1519.00,0.0059
1518.00,0.0060
1517.00,0.0061
1516.00,0.0062
1515.00,0.0062
1514.00,0.0062
1513.00,0.0063
1512.00,0.0063
1511.00,0.0063
1510.00,0.0064
1509.00,0.0065
1508.00,0.0066
1507.00,0.0066
1506.00,0.0066
1505.00,0.0067
1504.00,0.0069
1503.00,0.0071
1502.00,0.0073
1501.00,0.0075
1500.00,0.0078
1499.00,0.0080
1498.00,0.0083
1497.00,0.0086
1496.00,0.0089
1495.00,0.0091
1494.00,0.0093
1493.00,0.0096
1492.00,0.0100
1491.00,0.0104
1490.00,0.0109
1489.00,0.0114
1488.00,0.0119
1487.00,0.0123
1486.00,0.0128
1485.00,0.0133
1484.00,0.0140
1483.00,0.0146
1482.00,0.0154
1481.00,0.0164
1480.00,0.0176
1479.00,0.0187
1478.00,0.0202
1477.00,0.0221
1476.00,0.0246
1475.00,0.0276
1474.00,0.0316
1473.00,0.0373
1472.00,0.0439
1471.00,0.0503
1470.00,0.0564
1469.00,0.0629
1468.00,0.0697
1467.00,0.0772
1466.00,0.0855
1465.00,0.0945
1464.00,0.1023
1463.00,0.1077
1462.00,0.1113
1461.00,0.1139
1460.00,0.1157
1459.00,0.1170
1458.00,0.1182
1457.00,0.1193
1456.00,0.1196
1455.00,0.1191
1454.00,0.1182
1453.00,0.1168
1452.00,0.1144
1451.00,0.1109
1450.00,0.1060
1449.00,0.0991
1448.00,0.0903
1447.00,0.0809
1446.00,0.0723
1445.00,0.0649
1444.00,0.0584
1443.00,0.0531
1442.00,0.0490
1441.00,0.0461
1440.00,0.0442
1439.00,0.0433
1438.00,0.0430
1437.00,0.0427
1436.00,0.0414
1435.00,0.0389
1434.00,0.0355
1433.00,0.0315
1432.00,0.0273
1431.00,0.0236
1430.00,0.0207
1429.00,0.0185
1428.00,0.0169
1427.00,0.0160
1426.00,0.0153
1425.00,0.0147
1424.00,0.0142
1423.00,0.0139
1422.00,0.0137
1421.00,0.0135
1420.00,0.0131
1419.00,0.0128
1418.00,0.0126
1417.00,0.0124
1416.00,0.0122
1415.00,0.0121
1414.00,0.0120
1413.00,0.0119
1412.00,0.0117
1411.00,0.0116
1410.00,0.0115
1409.00,0.0114
1408.00,0.0113
1407.00,0.0113
1406.00,0.0113
1405.00,0.0113
1404.00,0.0113
1403.00,0.0113
1402.00,0.0114
1401.00,0.0115
1400.00,0.0115
1399.00,0.0117
1398.00,0.0120
1397.00,0.0122
1396.00,0.0124
1395.00,0.0127
1394.00,0.0131
1393.00,0.0136
1392.00,0.0140
1391.00,0.0148
1390.00,0.0157
1389.00,0.0171
1388.00,0.0192
1387.00,0.0223
1386.00,0.0266
1385.00,0.0322
1384.00,0.0399
1383.00,0.0506
1382.00,0.0650
1381.00,0.0832
1380.00,0.1052
1379.00,0.1293
1378.00,0.1517
1377.00,0.1670
1376.00,0.1707
1375.00,0.1608
1374.00,0.1401
1373.00,0.1159
1372.00,0.0940
1371.00,0.0762
1370.00,0.0620
1369.00,0.0512
1368.00,0.0437
1367.00,0.0390
1366.00,0.0363
1365.00,0.0352
1364.00,0.0352
1363.00,0.0363
1362.00,0.0380
1361.00,0.0399
1360.00,0.0414
1359.00,0.0418
1358.00,0.0410
1357.00,0.0388
1356.00,0.0356
1355.00,0.0321
1354.00,0.0287
1353.00,0.0257
1352.00,0.0233
1351.00,0.0213
1350.00,0.0197
1349.00,0.0184
1348.00,0.0173
1347.00,0.0163
1346.00,0.0155
1345.00,0.0148
1344.00,0.0142
1343.00,0.0137
1342.00,0.0132
1341.00,0.0128
1340.00,0.0125
1339.00,0.0123
1338.00,0.0121
1337.00,0.0121
1336.00,0.0121
1335.00,0.0123
1334.00,0.0126
1333.00,0.0129
1332.00,0.0133
1331.00,0.0135
1330.00,0.0136
1329.00,0.0135
1328.00,0.0133
1327.00,0.0129
1326.00,0.0124
1325.00,0.0119
1324.00,0.0114
1323.00,0.0109
1322.00,0.0105
1321.00,0.0103
1320.00,0.0101
1319.00,0.0099
1318.00,0.0098
1317.00,0.0096
1316.00,0.0095
1315.00,0.0095
1314.00,0.0095
1313.00,0.0096
1312.00,0.0097
1311.00,0.0099
1310.00,0.0104
1309.00,0.0111
1308.00,0.0122
1307.00,0.0135
1306.00,0.0148
1305.00,0.0157
1304.00,0.0159
1303.00,0.0154
1302.00,0.0147
1301.00,0.0141
1300.00,0.0136
1299.00,0.0134
1298.00,0.0133
1297.00,0.0132
1296.00,0.0131
1295.00,0.0128
1294.00,0.0125
1293.00,0.0121
1292.00,0.0116
1291.00,0.0111
1290.00,0.0107
1289.00,0.0103
1288.00,0.0100
1287.00,0.0097
1286.00,0.0095
1285.00,0.0094
1284.00,0.0093
1283.00,0.0091
1282.00,0.0090
1281.00,0.0089
1280.00,0.0088
1279.00,0.0087
1278.00,0.0086
1277.00,0.0085
1276.00,0.0085
1275.00,0.0085
1274.00,0.0085
1273.00,0.0085
1272.00,0.0085
1271.00,0.0086
1270.00,0.0088
1269.00,0.0090
1268.00,0.0093
1267.00,0.0095
1266.00,0.0099
1265.00,0.0102
1264.00,0.0106
1263.00,0.0111
1262.00,0.0116
1261.00,0.0121
1260.00,0.0128
1259.00,0.0135
1258.00,0.0142
1257.00,0.0147
1256.00,0.0149
1255.00,0.0147
1254.00,0.0139
1253.00,0.0129
1252.00,0.0119
1251.00,0.0110
1250.00,0.0103
1249.00,0.0097
1248.00,0.0093
1247.00,0.0090
1246.00,0.0088
1245.00,0.0086
1244.00,0.0084
1243.00,0.0083
1242.00,0.0082
1241.00,0.0082
1240.00,0.0081
1239.00,0.0080
1238.00,0.0079
1237.00,0.0079
1236.00,0.0078
1235.00,0.0078
1234.00,0.0078
1233.00,0.0078
1232.00,0.0078
1231.00,0.0079
1230.00,0.0080
1229.00,0.0081
1228.00,0.0082
1227.00,0.0084
1226.00,0.0085
1225.00,0.0088
1224.00,0.0090
1223.00,0.0093
1222.00,0.0096
1221.00,0.0098
1220.00,0.0100
1219.00,0.0100
1218.00,0.0100
1217.00,0.0098
1216.00,0.0095
1215.00,0.0093
1214.00,0.0090
1213.00,0.0088
1212.00,0.0086
1211.00,0.0084
1210.00,0.0083
1209.00,0.0082
1208.00,0.0080
1207.00,0.0079
1206.00,0.0078
1205.00,0.0077
1204.00,0.0077
1203.00,0.0076
1202.00,0.0076
1201.00,0.0076
1200.00,0.0076
1199.00,0.0076
1198.00,0.0075
1197.00,0.0075
1196.00,0.0076
1195.00,0.0076
1194.00,0.0076
1193.00,0.0076
1192.00,0.0076
1191.00,0.0076
1190.00,0.0076
1189.00,0.0077
1188.00,0.0078
1187.00,0.0078
1186.00,0.0079
1185.00,0.0080
1184.00,0.0081
1183.00,0.0083
1182.00,0.0085
1181.00,0.0088
1180.00,0.0092
1179.00,0.0097
1178.00,0.0104
1177.00,0.0115
1176.00,0.0128
1175.00,0.0146
1174.00,0.0169
1173.00,0.0198
1172.00,0.0232
1171.00,0.0270
1170.00,0.0307
1169.00,0.0337
1168.00,0.0356
1167.00,0.0360
1166.00,0.0350
1165.00,0.0332
1164.00,0.0309
1163.00,0.0287
1162.00,0.0268
1161.00,0.0251
1160.00,0.0239
1159.00,0.0230
1158.00,0.0223
1157.00,0.0219
1156.00,0.0216
1155.00,0.0214
1154.00,0.0212
1153.00,0.0208
1152.00,0.0203
1151.00,0.0196
1150.00,0.0187
1149.00,0.0178
1148.00,0.0169
1147.00,0.0160
1146.00,0.0152
1145.00,0.0144
1144.00,0.0137
1143.00,0.0130
1142.00,0.0124
1141.00,0.0119
1140.00,0.0113
1139.00,0.0109
1138.00,0.0105
1137.00,0.0102
1136.00,0.0100
1135.00,0.0098
1134.00,0.0097
1133.00,0.0096
1132.00,0.0095
1131.00,0.0094
1130.00,0.0094
1129.00,0.0093
1128.00,0.0093
1127.00,0.0093
1126.00,0.0095
1125.00,0.0097
1124.00,0.0099
1123.00,0.0102
1122.00,0.0103
1121.00,0.0104
1120.00,0.0105
1119.00,0.0105
1118.00,0.0106
1117.00,0.0107
1116.00,0.0108
1115.00,0.0109
1114.00,0.0111
1113.00,0.0112
1112.00,0.0114
1111.00,0.0116
1110.00,0.0119
1109.00,0.0123
1108.00,0.0127
1107.00,0.0132
1106.00,0.0138
1105.00,0.0143
1104.00,0.0148
1103.00,0.0151
1102.00,0.0150
1101.00,0.0147
1100.00,0.0142
1099.00,0.0136
1098.00,0.0130
1097.00,0.0125
1096.00,0.0121
1095.00,0.0118
1094.00,0.0115
1093.00,0.0113
1092.00,0.0110
1091.00,0.0108
1090.00,0.0106
1089.00,0.0105
1088.00,0.0103
1087.00,0.0101
1086.00,0.0099
1085.00,0.0099
1084.00,0.0099
1083.00,0.0098
1082.00,0.0098
1081.00,0.0097
1080.00,0.0095
1079.00,0.0093
1078.00,0.0092
1077.00,0.0091
1076.00,0.0091
1075.00,0.0090
1074.00,0.0090
1073.00,0.0089
1072.00,0.0088
1071.00,0.0088
1070.00,0.0088
1069.00,0.0088
1068.00,0.0088
1067.00,0.0088
1066.00,0.0088
1065.00,0.0087
1064.00,0.0087
1063.00,0.0087
1062.00,0.0087
1061.00,0.0088
1060.00,0.0088
1059.00,0.0089
1058.00,0.0090
1057.00,0.0090
1056.00,0.0090
1055.00,0.0090
1054.00,0.0091
1053.00,0.0093
1052.00,0.0095
1051.00,0.0097
1050.00,0.0100
1049.00,0.0103
1048.00,0.0107
1047.00,0.0111
1046.00,0.0114
1045.00,0.0116
1044.00,0.0117
1043.00,0.0116
1042.00,0.0114
1041.00,0.0111
1040.00,0.0109
1039.00,0.0107
1038.00,0.0106
1037.00,0.0105
1036.00,0.0103
1035.00,0.0102
1034.00,0.0101
1033.00,0.0100
1032.00,0.0100
1031.00,0.0099
1030.00,0.0098
1029.00,0.0097
1028.00,0.0096
1027.00,0.0096
1026.00,0.0096
1025.00,0.0096
1024.00,0.0096
1023.00,0.0096
1022.00,0.0096
1021.00,0.0097
1020.00,0.0099
1019.00,0.0100
1018.00,0.0101
1017.00,0.0101
1016.00,0.0102
1015.00,0.0102
1014.00,0.0103
1013.00,0.0105
1012.00,0.0108
1011.00,0.0111
1010.00,0.0115
1009.00,0.0118
1008.00,0.0123
1007.00,0.0130
1006.00,0.0140
1005.00,0.0154
1004.00,0.0175
1003.00,0.0202
1002.00,0.0240
1001.00,0.0285
1000.00,0.0334
999.00,0.0376
998.00,0.0399
997.00,0.0394
996.00,0.0363
995.00,0.0317
994.00,0.0268
993.00,0.0225
992.00,0.0191
991.00,0.0166
990.00,0.0148
989.00,0.0136
988.00,0.0127
987.00,0.0123
986.00,0.0122
985.00,0.0124
984.00,0.0128
983.00,0.0136
982.00,0.0147
981.00,0.0164
980.00,0.0188
979.00,0.0219
978.00,0.0260
977.00,0.0308
976.00,0.0361
975.00,0.0413
974.00,0.0453
973.00,0.0470
972.00,0.0456
971.00,0.0412
970.00,0.0352
969.00,0.0290
968.00,0.0237
967.00,0.0197
966.00,0.0169
965.00,0.0148
964.00,0.0133
963.00,0.0122
962.00,0.0113
961.00,0.0107
960.00,0.0102
959.00,0.0097
958.00,0.0094
957.00,0.0091
956.00,0.0088
955.00,0.0086
954.00,0.0083
953.00,0.0080
952.00,0.0078
951.00,0.0077
950.00,0.0077
949.00,0.0077
948.00,0.0078
947.00,0.0079
946.00,0.0081
945.00,0.0083
944.00,0.0086
943.00,0.0089
942.00,0.0092
941.00,0.0094
940.00,0.0094
939.00,0.0092
938.00,0.0089
937.00,0.0084
936.00,0.0079
935.00,0.0074
934.00,0.0071
933.00,0.0070
932.00,0.0070
931.00,0.0070
930.00,0.0069
929.00,0.0067
928.00,0.0066
927.00,0.0065
926.00,0.0065
925.00,0.0065
924.00,0.0065
923.00,0.0065
922.00,0.0064
921.00,0.0065
920.00,0.0066
919.00,0.0067
918.00,0.0067
917.00,0.0068
916.00,0.0068
915.00,0.0069
914.00,0.0070
913.00,0.0071
912.00,0.0073
911.00,0.0075
910.00,0.0076
909.00,0.0078
908.00,0.0080
907.00,0.0085
906.00,0.0092
905.00,0.0101
904.00,0.0113
903.00,0.0129
902.00,0.0146
901.00,0.0162
900.00,0.0172
899.00,0.0173
898.00,0.0166
897.00,0.0152
896.00,0.0135
895.00,0.0119
894.00,0.0106
893.00,0.0096
892.00,0.0088
891.00,0.0084
890.00,0.0081
889.00,0.0080
888.00,0.0080
887.00,0.0079
886.00,0.0079
885.00,0.0078
884.00,0.0078
883.00,0.0078
882.00,0.0078
881.00,0.0078
880.00,0.0078
879.00,0.0078
878.00,0.0078
877.00,0.0079
876.00,0.0080
875.00,0.0081
874.00,0.0083
873.00,0.0084
872.00,0.0085
871.00,0.0085
870.00,0.0084
869.00,0.0082
868.00,0.0082
867.00,0.0082
866.00,0.0084
865.00,0.0085
864.00,0.0086
863.00,0.0087
862.00,0.0088
861.00,0.0089
860.00,0.0091
859.00,0.0093
858.00,0.0095
857.00,0.0096
856.00,0.0097
855.00,0.0098
854.00,0.0100
853.00,0.0103
852.00,0.0107
851.00,0.0112
850.00,0.0118
849.00,0.0125
848.00,0.0135
847.00,0.0151
846.00,0.0176
845.00,0.0215
844.00,0.0271
843.00,0.0336
842.00,0.0391
841.00,0.0411
840.00,0.0386
839.00,0.0327
838.00,0.0261
837.00,0.0206
836.00,0.0171
835.00,0.0150
834.00,0.0137
833.00,0.0131
832.00,0.0127
831.00,0.0125
830.00,0.0122
829.00,0.0117
828.00,0.0113
827.00,0.0111
826.00,0.0110
825.00,0.0110
824.00,0.0110
823.00,0.0109
822.00,0.0109
821.00,0.0110
820.00,0.0113
819.00,0.0117
818.00,0.0122
817.00,0.0127
816.00,0.0133
815.00,0.0142
814.00,0.0155
813.00,0.0171
812.00,0.0188
811.00,0.0204
810.00,0.0216
809.00,0.0220
808.00,0.0218
807.00,0.0208
806.00,0.0193
805.00,0.0176
804.00,0.0161
803.00,0.0150
802.00,0.0141
801.00,0.0134
800.00,0.0128
799.00,0.0123
798.00,0.0119
797.00,0.0116
796.00,0.0113
795.00,0.0111
794.00,0.0108
793.00,0.0105
792.00,0.0101
791.00,0.0097
790.00,0.0093
789.00,0.0089
788.00,0.0086
787.00,0.0084
786.00,0.0083
785.00,0.0080
784.00,0.0077
783.00,0.0074
782.00,0.0072
781.00,0.0071
780.00,0.0072
779.00,0.0072
778.00,0.0071
777.00,0.0070
776.00,0.0070
775.00,0.0070
774.00,0.0071
773.00,0.0071
772.00,0.0071
771.00,0.0072
770.00,0.0072
769.00,0.0073
768.00,0.0073
767.00,0.0073
766.00,0.0072
765.00,0.0072
764.00,0.0071
763.00,0.0072
762.00,0.0072
761.00,0.0072
760.00,0.0073
759.00,0.0073
758.00,0.0072
757.00,0.0072
756.00,0.0072
755.00,0.0074
754.00,0.0077
753.00,0.0080
752.00,0.0082
751.00,0.0083
750.00,0.0084
749.00,0.0085
748.00,0.0087
747.00,0.0089
746.00,0.0091
745.00,0.0093
744.00,0.0094
743.00,0.0096
742.00,0.0098
741.00,0.0100
740.00,0.0103
739.00,0.0107
738.00,0.0111
737.00,0.0116
736.00,0.0120
735.00,0.0124
734.00,0.0128
733.00,0.0134
732.00,0.0142
731.00,0.0151
730.00,0.0159
729.00,0.0163
728.00,0.0164
727.00,0.0164
726.00,0.0164
725.00,0.0166
724.00,0.0170
723.00,0.0177
722.00,0.0183
721.00,0.0186
720.00,0.0184
719.00,0.0175
718.00,0.0162
717.00,0.0149
716.00,0.0139
715.00,0.0133
714.00,0.0129
713.00,0.0126
712.00,0.0123
711.00,0.0120
710.00,0.0118
709.00,0.0116
708.00,0.0113
707.00,0.0111
706.00,0.0108
705.00,0.0105
704.00,0.0103
703.00,0.0102
702.00,0.0101
701.00,0.0098
700.00,0.0096
699.00,0.0094
698.00,0.0095
697.00,0.0097
696.00,0.0097
695.00,0.0096
694.00,0.0094
693.00,0.0092
692.00,0.0091
691.00,0.0091
690.00,0.0092
689.00,0.0094
688.00,0.0094
687.00,0.0094
686.00,0.0095
685.00,0.0097
684.00,0.0099
683.00,0.0100
682.00,0.0099
681.00,0.0097
680.00,0.0096
679.00,0.0096
678.00,0.0097
677.00,0.0099
676.00,0.0099
675.00,0.0099
674.00,0.0097
673.00,0.0095
672.00,0.0093
671.00,0.0093
670.00,0.0092
669.00,0.0090
668.00,0.0087
667.00,0.0088
666.00,0.0090
665.00,0.0092
664.00,0.0093
663.00,0.0093
662.00,0.0092
661.00,0.0091
660.00,0.0089
659.00,0.0087
658.00,0.0086
657.00,0.0086
656.00,0.0087
655.00,0.0087
654.00,0.0085
653.00,0.0085
652.00,0.0086
651.00,0.0087
650.00,0.0089
649.00,0.0089
648.00,0.0089
647.00,0.0089
646.00,0.0090
645.00,0.0091
644.00,0.0092
643.00,0.0092
642.00,0.0092
641.00,0.0092
640.00,0.0091
639.00,0.0092
638.00,0.0093
637.00,0.0093
636.00,0.0092
635.00,0.0088
634.00,0.0085
633.00,0.0083
632.00,0.0084
631.00,0.0087
630.00,0.0090
629.00,0.0092
628.00,0.0092
627.00,0.0092
626.00,0.0092
625.00,0.0093
624.00,0.0094
623.00,0.0096
622.00,0.0097
621.00,0.0096
620.00,0.0094
619.00,0.0093
618.00,0.0092
617.00,0.0092
616.00,0.0092
615.00,0.0092
614.00,0.0093
613.00,0.0095
612.00,0.0096
611.00,0.0095
610.00,0.0092
609.00,0.0089
608.00,0.0087
607.00,0.0087
606.00,0.0090
605.00,0.0093
604.00,0.0094
603.00,0.0093
602.00,0.0090
601.00,0.0087
600.00,0.0084
599.00,0.0083
598.00,0.0083
597.00,0.0086
596.00,0.0087
595.00,0.0088
594.00,0.0089
593.00,0.0091
592.00,0.0092
591.00,0.0093
590.00,0.0092
589.00,0.0092
588.00,0.0093
587.00,0.0094
586.00,0.0095
585.00,0.0095
584.00,0.0095
583.00,0.0095
582.00,0.0095
581.00,0.0096
580.00,0.0097
579.00,0.0097
578.00,0.0097
577.00,0.0097
576.00,0.0097
575.00,0.0097
574.00,0.0095
573.00,0.0094
572.00,0.0093
571.00,0.0093
570.00,0.0094
569.00,0.0094
568.00,0.0094
567.00,0.0094
566.00,0.0094
565.00,0.0095
564.00,0.0098
563.00,0.0100
562.00,0.0100
561.00,0.0098
560.00,0.0094
559.00,0.0091
558.00,0.0090
557.00,0.0092
556.00,0.0094
555.00,0.0095
554.00,0.0094
553.00,0.0092
552.00,0.0092
551.00,0.0093
550.00,0.0094
549.00,0.0095
548.00,0.0096
547.00,0.0097
546.00,0.0096
545.00,0.0092
544.00,0.0088
543.00,0.0085
542.00,0.0089
541.00,0.0096
540.00,0.0103
539.00,0.0106
538.00,0.0107
537.00,0.0107
536.00,0.0108
535.00,0.0109
534.00,0.0109
533.00,0.0109
532.00,0.0108
531.00,0.0107
530.00,0.0105
529.00,0.0102
528.00,0.0100
527.00,0.0099
526.00,0.0099
525.00,0.0097
524.00,0.0094
523.00,0.0090
522.00,0.0088
521.00,0.0089
520.00,0.0091
519.00,0.0092
518.00,0.0091
517.00,0.0087
516.00,0.0081
515.00,0.0077
514.00,0.0077
513.00,0.0082
512.00,0.0090
511.00,0.0095
510.00,0.0096
509.00,0.0094
508.00,0.0090
507.00,0.0087
506.00,0.0084
505.00,0.0081
504.00,0.0080
503.00,0.0083
502.00,0.0089
501.00,0.0093
500.00,0.0093
499.00,0.0089
498.00,0.0085
497.00,0.0084
496.00,0.0082
495.00,0.0081
494.00,0.0079
493.00,0.0076
492.00,0.0071
491.00,0.0065
490.00,0.0063
489.00,0.0068
488.00,0.0076
487.00,0.0083
486.00,0.0084
485.00,0.0082
484.00,0.0079
483.00,0.0078
482.00,0.0081
481.00,0.0085
480.00,0.0087
479.00,0.0086
478.00,0.0085
477.00,0.0087
476.00,0.0093
475.00,0.0098
474.00,0.0098
473.00,0.0094
472.00,0.0092
471.00,0.0093
470.00,0.0097
469.00,0.0100
468.00,0.0104
467.00,0.0107
466.00,0.0112
465.00,0.0118
464.00,0.0125
463.00,0.0132
462.00,0.0136
461.00,0.0139
460.00,0.0142
459.00,0.0147
458.00,0.0154
457.00,0.0159
456.00,0.0157
455.00,0.0152
454.00,0.0151
453.00,0.0146
452.00,0.0140
451.00,0.0131
450.00,0.0119
