Created as New Dataset,Sample 021 By Administrator Date Thursday, September 04 2025
cm-1,A
4000.00,0.0008
3999.00,0.0008
3998.00,0.0008
3997.00,0.0008
3996.00,0.0008
3995.00,0.0008
3994.00,0.0008
3993.00,0.0008
3992.00,0.0008
3991.00,0.0008
3990.00,0.0008
3989.00,0.0008
3988.00,0.0008
3987.00,0.0008
3986.00,0.0008
3985.00,0.0008
3984.00,0.0008
3983.00,0.0008
3982.00,0.0008
3981.00,0.0008
3980.00,0.0007
3979.00,0.0007
3978.00,0.0008
3977.00,0.0008
3976.00,0.0008
3975.00,0.0008
3974.00,0.0008
3973.00,0.0008
3972.00,0.0007
3971.00,0.0007
3970.00,0.0007
3969.00,0.0007
3968.00,0.0007
3967.00,0.0007
3966.00,0.0007
3965.00,0.0007
3964.00,0.0007
3963.00,0.0007
3962.00,0.0007
3961.00,0.0007
3960.00,0.0007
3959.00,0.0007
3958.00,0.0007
3957.00,0.0006
3956.00,0.0006
3955.00,0.0006
3954.00,0.0007
3953.00,0.0007
3952.00,0.0007
3951.00,0.0007
3950.00,0.0007
3949.00,0.0007
3948.00,0.0007
3947.00,0.0007
3946.00,0.0007
3945.00,0.0007
3944.00,0.0007
3943.00,0.0007
3942.00,0.0007
3941.00,0.0007
3940.00,0.0007
3939.00,0.0006
3938.00,0.0007
3937.00,0.0007
3936.00,0.0007
3935.00,0.0007
3934.00,0.0008
3933.00,0.0007
3932.00,0.0007
3931.00,0.0007
3930.00,0.0007
3929.00,0.0006
3928.00,0.0006
3927.00,0.0006
3926.00,0.0007
3925.00,0.0007
3924.00,0.0007
3923.00,0.0008
3922.00,0.0008
3921.00,0.0008
3920.00,0.0007
3919.00,0.0007
3918.00,0.0006
3917.00,0.0006
3916.00,0.0006
3915.00,0.0005
3914.00,0.0005
3913.00,0.0006
3912.00,0.0006
3911.00,0.0006
3910.00,0.0007
3909.00,0.0007
3908.00,0.0007
3907.00,0.0007
3906.00,0.0007
3905.00,0.0007
3904.00,0.0007
3903.00,0.0007
3902.00,0.0007
3901.00,0.0007
3900.00,0.0007
3899.00,0.0007
3898.00,0.0006
3897.00,0.0006
3896.00,0.0006
3895.00,0.0006
3894.00,0.0006
3893.00,0.0006
3892.00,0.0007
3891.00,0.0007
3890.00,0.0006
3889.00,0.0007
3888.00,0.0007
3887.00,0.0007
3886.00,0.0006
3885.00,0.0006
3884.00,0.0006
3883.00,0.0006
3882.00,0.0006
3881.00,0.0006
3880.00,0.0006
3879.00,0.0006
3878.00,0.0006
3877.00,0.0006
3876.00,0.0005
3875.00,0.0005
3874.00,0.0005
3873.00,0.0006
3872.00,0.0006
3871.00,0.0006
3870.00,0.0006
3869.00,0.0006
3868.00,0.0006
3867.00,0.0006
3866.00,0.0006
3865.00,0.0006
3864.00,0.0006
3863.00,0.0006
3862.00,0.0006
3861.00,0.0006
3860.00,0.0006
3859.00,0.0007
3858.00,0.0007
3857.00,0.0007
3856.00,0.0007
3855.00,0.0006
3854.00,0.0006
3853.00,0.0005
3852.00,0.0005
3851.00,0.0005
3850.00,0.0005
3849.00,0.0005
3848.00,0.0005
3847.00,0.0006
3846.00,0.0006
3845.00,0.0007
3844.00,0.0007
3843.00,0.0007
3842.00,0.0006
3841.00,0.0006
3840.00,0.0005
3839.00,0.0005
3838.00,0.0004
3837.00,0.0004
3836.00,0.0004
3835.00,0.0004
3834.00,0.0005
3833.00,0.0005
3832.00,0.0005
3831.00,0.0006
3830.00,0.0006
3829.00,0.0006
3828.00,0.0006
3827.00,0.0006
3826.00,0.0006
3825.00,0.0006
3824.00,0.0006
3823.00,0.0006
3822.00,0.0006
3821.00,0.0005
3820.00,0.0005
3819.00,0.0005
3818.00,0.0006
3817.00,0.0006
3816.00,0.0005
3815.00,0.0005
3814.00,0.0006
3813.00,0.0006
3812.00,0.0006
3811.00,0.0006
3810.00,0.0006
3809.00,0.0006
3808.00,0.0006
3807.00,0.0006
3806.00,0.0006
3805.00,0.0006
3804.00,0.0006
3803.00,0.0005
3802.00,0.0005
3801.00,0.0005
3800.00,0.0005
3799.00,0.0005
3798.00,0.0005
3797.00,0.0005
3796.00,0.0005
3795.00,0.0005
3794.00,0.0005
3793.00,0.0006
3792.00,0.0006
3791.00,0.0006
3790.00,0.0006
3789.00,0.0006
3788.00,0.0006
3787.00,0.0006
3786.00,0.0006
3785.00,0.0005
3784.00,0.0005
3783.00,0.0005
3782.00,0.0005
3781.00,0.0006
3780.00,0.0006
3779.00,0.0007
3778.00,0.0007
3777.00,0.0007
3776.00,0.0007
3775.00,0.0007
3774.00,0.0007
3773.00,0.0007
3772.00,0.0007
3771.00,0.0007
3770.00,0.0007
3769.00,0.0006
3768.00,0.0006
3767.00,0.0006
3766.00,0.0006
3765.00,0.0006
3764.00,0.0006
3763.00,0.0006
3762.00,0.0007
3761.00,0.0007
3760.00,0.0007
3759.00,0.0007
3758.00,0.0007
3757.00,0.0006
3756.00,0.0006
3755.00,0.0006
3754.00,0.0006
3753.00,0.0006
3752.00,0.0006
3751.00,0.0006
3750.00,0.0007
3749.00,0.0007
3748.00,0.0007
3747.00,0.0006
3746.00,0.0006
3745.00,0.0006
3744.00,0.0005
3743.00,0.0005
3742.00,0.0005
3741.00,0.0004
3740.00,0.0004
3739.00,0.0004
3738.00,0.0005
3737.00,0.0005
3736.00,0.0005
3735.00,0.0005
3734.00,0.0005
3733.00,0.0005
3732.00,0.0004
3731.00,0.0005
3730.00,0.0005
3729.00,0.0005
3728.00,0.0005
3727.00,0.0005
3726.00,0.0005
3725.00,0.0005
3724.00,0.0006
3723.00,0.0006
3722.00,0.0005
3721.00,0.0005
3720.00,0.0005
3719.00,0.0005
3718.00,0.0005
3717.00,0.0005
3716.00,0.0005
3715.00,0.0005
3714.00,0.0005
3713.00,0.0005
3712.00,0.0006
3711.00,0.0006
3710.00,0.0006
3709.00,0.0006
3708.00,0.0006
3707.00,0.0006
3706.00,0.0006
3705.00,0.0006
3704.00,0.0006
3703.00,0.0006
3702.00,0.0005
3701.00,0.0005
3700.00,0.0005
3699.00,0.0005
3698.00,0.0004
3697.00,0.0004
3696.00,0.0004
3695.00,0.0005
3694.00,0.0005
3693.00,0.0005
3692.00,0.0005
3691.00,0.0004
3690.00,0.0004
3689.00,0.0005
3688.00,0.0005
3687.00,0.0005
3686.00,0.0005
3685.00,0.0005
3684.00,0.0005
3683.00,0.0006
3682.00,0.0006
3681.00,0.0006
3680.00,0.0006
3679.00,0.0006
3678.00,0.0007
3677.00,0.0007
3676.00,0.0007
3675.00,0.0007
3674.00,0.0007
3673.00,0.0007
3672.00,0.0007
3671.00,0.0006
3670.00,0.0006
3669.00,0.0006
3668.00,0.0006
3667.00,0.0006
3666.00,0.0006
3665.00,0.0006
3664.00,0.0007
3663.00,0.0007
3662.00,0.0007
3661.00,0.0007
3660.00,0.0007
3659.00,0.0007
3658.00,0.0007
3657.00,0.0007
3656.00,0.0007
3655.00,0.0007
3654.00,0.0007
3653.00,0.0008
3652.00,0.0008
3651.00,0.0008
3650.00,0.0009
3649.00,0.0009
3648.00,0.0009
3647.00,0.0008
3646.00,0.0008
3645.00,0.0008
3644.00,0.0008
3643.00,0.0008
3642.00,0.0009
3641.00,0.0009
3640.00,0.0010
3639.00,0.0010
3638.00,0.0010
3637.00,0.0010
3636.00,0.0010
3635.00,0.0010
3634.00,0.0010
3633.00,0.0011
3632.00,0.0012
3631.00,0.0012
3630.00,0.0013
3629.00,0.0012
3628.00,0.0012
3627.00,0.0012
3626.00,0.0012
3625.00,0.0012
3624.00,0.0012
3623.00,0.0012
3622.00,0.0012
3621.00,0.0012
3620.00,0.0012
3619.00,0.0012
3618.00,0.0013
3617.00,0.0013
3616.00,0.0013
3615.00,0.0014
3614.00,0.0014
3613.00,0.0014
3612.00,0.0014
3611.00,0.0015
3610.00,0.0015
3609.00,0.0016
3608.00,0.0016
3607.00,0.0016
3606.00,0.0016
3605.00,0.0016
3604.00,0.0016
3603.00,0.0017
3602.00,0.0017
3601.00,0.0017
3600.00,0.0017
3599.00,0.0017
3598.00,0.0018
3597.00,0.0018
3596.00,0.0019
3595.00,0.0019
3594.00,0.0019
3593.00,0.0019
3592.00,0.0019
3591.00,0.0019
3590.00,0.0020
3589.00,0.0020
3588.00,0.0021
3587.00,0.0022
3586.00,0.0022
3585.00,0.0022
3584.00,0.0022
3583.00,0.0022
3582.00,0.0022
3581.00,0.0023
3580.00,0.0023
3579.00,0.0024
3578.00,0.0024
3577.00,0.0024
3576.00,0.0025
3575.00,0.0025
3574.00,0.0026
3573.00,0.0026
3572.00,0.0026
3571.00,0.0026
3570.00,0.0026
3569.00,0.0027
3568.00,0.0027
3567.00,0.0028
3566.00,0.0029
3565.00,0.0029
3564.00,0.0029
3563.00,0.0029
3562.00,0.0029
3561.00,0.0030
3560.00,0.0030
3559.00,0.0030
3558.00,0.0031
3557.00,0.0031
3556.00,0.0032
3555.00,0.0033
3554.00,0.0033
3553.00,0.0034
3552.00,0.0034
3551.00,0.0034
3550.00,0.0035
3549.00,0.0036
3548.00,0.0037
3547.00,0.0038
3546.00,0.0038
3545.00,0.0038
3544.00,0.0038
3543.00,0.0038
3542.00,0.0038
3541.00,0.0039
3540.00,0.0039
3539.00,0.0040
3538.00,0.0040
3537.00,0.0041
3536.00,0.0041
3535.00,0.0041
3534.00,0.0042
3533.00,0.0042
3532.00,0.0042
3531.00,0.0043
3530.00,0.0043
3529.00,0.0043
3528.00,0.0044
3527.00,0.0045
3526.00,0.0046
3525.00,0.0047
3524.00,0.0047
3523.00,0.0048
3522.00,0.0048
3521.00,0.0048
3520.00,0.0049
3519.00,0.0049
3518.00,0.0049
3517.00,0.0049
3516.00,0.0050
3515.00,0.0050
3514.00,0.0051
3513.00,0.0051
3512.00,0.0052
3511.00,0.0053
3510.00,0.0053
3509.00,0.0054
3508.00,0.0054
3507.00,0.0055
3506.00,0.0055
3505.00,0.0056
3504.00,0.0056
3503.00,0.0057
3502.00,0.0057
3501.00,0.0058
3500.00,0.0058
3499.00,0.0059
3498.00,0.0060
3497.00,0.0060
3496.00,0.0060
3495.00,0.0060
3494.00,0.0060
3493.00,0.0061
3492.00,0.0062
3491.00,0.0063
3490.00,0.0063
3489.00,0.0064
3488.00,0.0064
3487.00,0.0065
3486.00,0.0065
3485.00,0.0065
3484.00,0.0065
3483.00,0.0066
3482.00,0.0066
3481.00,0.0067
3480.00,0.0068
3479.00,0.0069
3478.00,0.0069
3477.00,0.0070
3476.00,0.0070
3475.00,0.0070
3474.00,0.0071
3473.00,0.0071
3472.00,0.0071
3471.00,0.0072
3470.00,0.0072
3469.00,0.0072
3468.00,0.0073
3467.00,0.0073
3466.00,0.0074
3465.00,0.0074
3464.00,0.0074
3463.00,0.0074
3462.00,0.0075
3461.00,0.0075
3460.00,0.0076
3459.00,0.0076
3458.00,0.0077
3457.00,0.0077
3456.00,0.0078
3455.00,0.0078
3454.00,0.0079
3453.00,0.0079
3452.00,0.0079
3451.00,0.0080
3450.00,0.0080
3449.00,0.0080
3448.00,0.0080
3447.00,0.0081
3446.00,0.0081
3445.00,0.0081
3444.00,0.0082
3443.00,0.0082
3442.00,0.0082
3441.00,0.0083
3440.00,0.0083
3439.00,0.0083
3438.00,0.0083
3437.00,0.0083
3436.00,0.0084
3435.00,0.0084
3434.00,0.0085
3433.00,0.0086
3432.00,0.0086
3431.00,0.0086
3430.00,0.0086
3429.00,0.0086
3428.00,0.0087
3427.00,0.0087
3426.00,0.0088
3425.00,0.0089
3424.00,0.0089
3423.00,0.0089
3422.00,0.0090
3421.00,0.0090
3420.00,0.0090
3419.00,0.0091
3418.00,0.0091
3417.00,0.0091
3416.00,0.0091
3415.00,0.0091
3414.00,0.0092
3413.00,0.0092
3412.00,0.0092
3411.00,0.0092
3410.00,0.0093
3409.00,0.0093
3408.00,0.0093
3407.00,0.0093
3406.00,0.0093
3405.00,0.0093
3404.00,0.0093
3403.00,0.0092
3402.00,0.0092
3401.00,0.0092
3400.00,0.0093
3399.00,0.0093
3398.00,0.0093
3397.00,0.0093
3396.00,0.0093
3395.00,0.0093
3394.00,0.0094
3393.00,0.0094
3392.00,0.0095
3391.00,0.0095
3390.00,0.0095
3389.00,0.0096
3388.00,0.0096
3387.00,0.0096
3386.00,0.0096
3385.00,0.0097
3384.00,0.0097
3383.00,0.0097
3382.00,0.0097
3381.00,0.0097
3380.00,0.0098
3379.00,0.0098
3378.00,0.0099
3377.00,0.0099
3376.00,0.0099
3375.00,0.0099
3374.00,0.0098
3373.00,0.0098
3372.00,0.0098
3371.00,0.0098
3370.00,0.0098
3369.00,0.0099
3368.00,0.0099
3367.00,0.0099
3366.00,0.0100
3365.00,0.0100
3364.00,0.0100
3363.00,0.0100
3362.00,0.0100
3361.00,0.0100
3360.00,0.0100
3359.00,0.0100
3358.00,0.0100
3357.00,0.0101
3356.00,0.0101
3355.00,0.0101
3354.00,0.0102
3353.00,0.0102
3352.00,0.0102
3351.00,0.0102
3350.00,0.0102
3349.00,0.0102
3348.00,0.0102
3347.00,0.0102
3346.00,0.0102
3345.00,0.0101
3344.00,0.0101
3343.00,0.0100
3342.00,0.0100
3341.00,0.0100
3340.00,0.0100
3339.00,0.0100
3338.00,0.0100
3337.00,0.0100
3336.00,0.0100
3335.00,0.0100
3334.00,0.0100
3333.00,0.0099
3332.00,0.0099
3331.00,0.0099
3330.00,0.0098
3329.00,0.0098
3328.00,0.0098
3327.00,0.0098
3326.00,0.0099
3325.00,0.0099
3324.00,0.0099
3323.00,0.0099
3322.00,0.0098
3321.00,0.0098
3320.00,0.0097
3319.00,0.0097
3318.00,0.0097
3317.00,0.0097
3316.00,0.0097
3315.00,0.0097
3314.00,0.0097
3313.00,0.0097
3312.00,0.0096
3311.00,0.0096
3310.00,0.0097
3309.00,0.0097
3308.00,0.0097
3307.00,0.0097
3306.00,0.0097
3305.00,0.0097
3304.00,0.0097
3303.00,0.0097
3302.00,0.0097
3301.00,0.0097
3300.00,0.0097
3299.00,0.0097
3298.00,0.0096
3297.00,0.0096
3296.00,0.0095
3295.00,0.0094
3294.00,0.0094
3293.00,0.0094
3292.00,0.0093
3291.00,0.0093
3290.00,0.0093
3289.00,0.0092
3288.00,0.0092
3287.00,0.0092
3286.00,0.0092
3285.00,0.0091
3284.00,0.0091
3283.00,0.0091
3282.00,0.0091
3281.00,0.0091
3280.00,0.0090
3279.00,0.0090
3278.00,0.0089
3277.00,0.0088
3276.00,0.0088
3275.00,0.0087
3274.00,0.0087
3273.00,0.0086
3272.00,0.0086
3271.00,0.0086
3270.00,0.0086
3269.00,0.0086
3268.00,0.0086
3267.00,0.0085
3266.00,0.0085
3265.00,0.0084
3264.00,0.0084
3263.00,0.0084
3262.00,0.0083
3261.00,0.0083
3260.00,0.0082
3259.00,0.0082
3258.00,0.0082
3257.00,0.0082
3256.00,0.0082
3255.00,0.0081
3254.00,0.0081
3253.00,0.0080
3252.00,0.0080
3251.00,0.0079
3250.00,0.0079
3249.00,0.0078
3248.00,0.0078
3247.00,0.0078
3246.00,0.0077
3245.00,0.0077
3244.00,0.0077
3243.00,0.0077
3242.00,0.0077
3241.00,0.0077
3240.00,0.0077
3239.00,0.0077
3238.00,0.0076
3237.00,0.0076
3236.00,0.0076
3235.00,0.0075
3234.00,0.0075
3233.00,0.0075
3232.00,0.0075
3231.00,0.0075
3230.00,0.0075
3229.00,0.0075
3228.00,0.0075
3227.00,0.0075
3226.00,0.0074
3225.00,0.0074
3224.00,0.0075
3223.00,0.0075
3222.00,0.0075
3221.00,0.0075
3220.00,0.0075
3219.00,0.0075
3218.00,0.0075
3217.00,0.0075
3216.00,0.0075
3215.00,0.0075
3214.00,0.0075
3213.00,0.0075
3212.00,0.0075
3211.00,0.0075
3210.00,0.0075
3209.00,0.0075
3208.00,0.0075
3207.00,0.0075
3206.00,0.0075
3205.00,0.0074
3204.00,0.0074
3203.00,0.0075
3202.00,0.0075
3201.00,0.0075
3200.00,0.0074
3199.00,0.0074
3198.00,0.0073
3197.00,0.0073
3196.00,0.0073
3195.00,0.0074
3194.00,0.0073
3193.00,0.0073
3192.00,0.0073
3191.00,0.0072
3190.00,0.0072
3189.00,0.0072
3188.00,0.0072
3187.00,0.0071
3186.00,0.0071
3185.00,0.0071
3184.00,0.0070
3183.00,0.0070
3182.00,0.0070
3181.00,0.0069
3180.00,0.0069
3179.00,0.0069
3178.00,0.0068
3177.00,0.0068
3176.00,0.0067
3175.00,0.0067
3174.00,0.0067
3173.00,0.0066
3172.00,0.0066
3171.00,0.0066
3170.00,0.0066
3169.00,0.0066
3168.00,0.0066
3167.00,0.0066
3166.00,0.0066
3165.00,0.0066
3164.00,0.0065
3163.00,0.0065
3162.00,0.0064
3161.00,0.0064
3160.00,0.0063
3159.00,0.0063
3158.00,0.0063
3157.00,0.0063
3156.00,0.0062
3155.00,0.0062
3154.00,0.0062
3153.00,0.0062
3152.00,0.0062
3151.00,0.0062
3150.00,0.0062
3149.00,0.0063
3148.00,0.0063
3147.00,0.0062
3146.00,0.0062
3145.00,0.0062
3144.00,0.0061
3143.00,0.0061
3142.00,0.0061
3141.00,0.0060
3140.00,0.0060
3139.00,0.0059
3138.00,0.0059
3137.00,0.0059
3136.00,0.0059
3135.00,0.0058
3134.00,0.0058
3133.00,0.0058
3132.00,0.0057
3131.00,0.0057
3130.00,0.0057
3129.00,0.0056
3128.00,0.0056
3127.00,0.0055
3126.00,0.0055
3125.00,0.0055
3124.00,0.0054
3123.00,0.0054
3122.00,0.0054
3121.00,0.0053
3120.00,0.0053
3119.00,0.0053
3118.00,0.0053
3117.00,0.0053
3116.00,0.0052
3115.00,0.0052
3114.00,0.0052
3113.00,0.0052
3112.00,0.0052
3111.00,0.0052
3110.00,0.0051
3109.00,0.0051
3108.00,0.0050
3107.00,0.0050
3106.00,0.0050
3105.00,0.0050
3104.00,0.0049
3103.00,0.0049
3102.00,0.0049
3101.00,0.0049
3100.00,0.0049
3099.00,0.0049
3098.00,0.0049
3097.00,0.0048
3096.00,0.0048
3095.00,0.0047
3094.00,0.0048
3093.00,0.0048
3092.00,0.0047
3091.00,0.0047
3090.00,0.0047
3089.00,0.0047
3088.00,0.0047
3087.00,0.0047
3086.00,0.0047
3085.00,0.0047
3084.00,0.0047
3083.00,0.0046
3082.00,0.0046
3081.00,0.0046
3080.00,0.0046
3079.00,0.0046
3078.00,0.0046
3077.00,0.0046
3076.00,0.0046
3075.00,0.0047
3074.00,0.0047
3073.00,0.0047
3072.00,0.0046
3071.00,0.0047
3070.00,0.0047
3069.00,0.0047
3068.00,0.0048
3067.00,0.0048
3066.00,0.0048
3065.00,0.0048
3064.00,0.0048
3063.00,0.0049
3062.00,0.0049
3061.00,0.0048
3060.00,0.0048
3059.00,0.0048
3058.00,0.0048
3057.00,0.0048
3056.00,0.0048
3055.00,0.0049
3054.00,0.0049
3053.00,0.0049
3052.00,0.0049
3051.00,0.0049
3050.00,0.0049
3049.00,0.0050
3048.00,0.0050
3047.00,0.0050
3046.00,0.0050
3045.00,0.0051
3044.00,0.0051
3043.00,0.0051
3042.00,0.0051
3041.00,0.0051
3040.00,0.0052
3039.00,0.0052
3038.00,0.0053
3037.00,0.0054
3036.00,0.0054
3035.00,0.0054
3034.00,0.0055
3033.00,0.0055
3032.00,0.0056
3031.00,0.0056
3030.00,0.0057
3029.00,0.0057
3028.00,0.0057
3027.00,0.0058
3026.00,0.0058
3025.00,0.0059
3024.00,0.0059
3023.00,0.0060
3022.00,0.0061
3021.00,0.0061
3020.00,0.0062
3019.00,0.0062
3018.00,0.0063
3017.00,0.0063
3016.00,0.0064
3015.00,0.0064
3014.00,0.0065
3013.00,0.0066
3012.00,0.0067
3011.00,0.0068
3010.00,0.0069
3009.00,0.0070
3008.00,0.0071
3007.00,0.0072
3006.00,0.0074
3005.00,0.0075
3004.00,0.0077
3003.00,0.0078
3002.00,0.0080
3001.00,0.0082
3000.00,0.0084
2999.00,0.0086
2998.00,0.0089
2997.00,0.0091
2996.00,0.0095
2995.00,0.0099
2994.00,0.0103
2993.00,0.0108
2992.00,0.0113
2991.00,0.0118
2990.00,0.0124
2989.00,0.0130
2988.00,0.0137
2987.00,0.0145
2986.00,0.0153
2985.00,0.0163
2984.00,0.0173
2983.00,0.0185
2982.00,0.0199
2981.00,0.0215
2980.00,0.0233
2979.00,0.0254
2978.00,0.0278
2977.00,0.0305
2976.00,0.0336
2975.00,0.0372
2974.00,0.0413
2973.00,0.0461
2972.00,0.0515
2971.00,0.0576
2970.00,0.0644
2969.00,0.0720
2968.00,0.0804
2967.00,0.0894
2966.00,0.0991
2965.00,0.1092
2964.00,0.1193
2963.00,0.1290
2962.00,0.1376
2961.00,0.1446
2960.00,0.1497
2959.00,0.1531
2958.00,0.1554
2957.00,0.1571
2956.00,0.1592
2955.00,0.1622
2954.00,0.1661
2953.00,0.1703
2952.00,0.1741
2951.00,0.1760
2950.00,0.1754
2949.00,0.1715
2948.00,0.1645
2947.00,0.1551
2946.00,0.1445
2945.00,0.1336
2944.00,0.1237
2943.00,0.1154
2942.00,0.1090
2941.00,0.1048
2940.00,0.1026
2939.00,0.1023
2938.00,0.1036
2937.00,0.1064
2936.00,0.1106
2935.00,0.1160
2934.00,0.1225
2933.00,0.1301
2932.00,0.1387
2931.00,0.1480
2930.00,0.1579
2929.00,0.1679
2928.00,0.1780
2927.00,0.1877
2926.00,0.1970
2925.00,0.2057
2924.00,0.2141
2923.00,0.2221
2922.00,0.2297
2921.00,0.2367
2920.00,0.2425
2919.00,0.2464
2918.00,0.2477
2917.00,0.2458
2916.00,0.2409
2915.00,0.2336
2914.00,0.2250
2913.00,0.2160
2912.00,0.2077
2911.00,0.2003
2910.00,0.1940
2909.00,0.1885
2908.00,0.1836
2907.00,0.1787
2906.00,0.1737
2905.00,0.1684
2904.00,0.1627
2903.00,0.1568
2902.00,0.1507
2901.00,0.1447
2900.00,0.1389
2899.00,0.1332
2898.00,0.1279
2897.00,0.1229
2896.00,0.1183
2895.00,0.1144
2894.00,0.1110
2893.00,0.1082
2892.00,0.1059
2891.00,0.1040
2890.00,0.1026
2889.00,0.1015
2888.00,0.1007
2887.00,0.1003
2886.00,0.1001
2885.00,0.1003
2884.00,0.1007
2883.00,0.1015
2882.00,0.1026
2881.00,0.1038
2880.00,0.1049
2879.00,0.1056
2878.00,0.1059
2877.00,0.1057
2876.00,0.1051
2875.00,0.1046
2874.00,0.1045
2873.00,0.1049
2872.00,0.1059
2871.00,0.1076
2870.00,0.1095
2869.00,0.1113
2868.00,0.1125
2867.00,0.1125
2866.00,0.1109
2865.00,0.1075
2864.00,0.1029
2863.00,0.0975
2862.00,0.0923
2861.00,0.0879
2860.00,0.0847
2859.00,0.0827
2858.00,0.0818
2857.00,0.0818
2856.00,0.0824
2855.00,0.0834
2854.00,0.0846
2853.00,0.0858
2852.00,0.0869
2851.00,0.0877
2850.00,0.0882
2849.00,0.0886
2848.00,0.0891
2847.00,0.0902
2846.00,0.0921
2845.00,0.0950
2844.00,0.0989
2843.00,0.1034
2842.00,0.1080
2841.00,0.1120
2840.00,0.1147
2839.00,0.1155
2838.00,0.1137
2837.00,0.1094
2836.00,0.1026
2835.00,0.0941
2834.00,0.0846
2833.00,0.0751
2832.00,0.0662
2831.00,0.0583
2830.00,0.0517
2829.00,0.0463
2828.00,0.0418
2827.00,0.0382
2826.00,0.0352
2825.00,0.0327
2824.00,0.0306
2823.00,0.0288
2822.00,0.0272
2821.00,0.0259
2820.00,0.0246
2819.00,0.0235
2818.00,0.0226
2817.00,0.0217
2816.00,0.0210
2815.00,0.0203
2814.00,0.0197
2813.00,0.0192
2812.00,0.0186
2811.00,0.0181
2810.00,0.0177
2809.00,0.0172
2808.00,0.0167
2807.00,0.0161
2806.00,0.0155
2805.00,0.0149
2804.00,0.0143
2803.00,0.0138
2802.00,0.0133
2801.00,0.0129
2800.00,0.0126
2799.00,0.0122
2798.00,0.0120
2797.00,0.0118
2796.00,0.0116
2795.00,0.0113
2794.00,0.0111
2793.00,0.0108
2792.00,0.0105
2791.00,0.0102
2790.00,0.0098
2789.00,0.0095
2788.00,0.0092
2787.00,0.0089
2786.00,0.0087
2785.00,0.0084
2784.00,0.0081
2783.00,0.0079
2782.00,0.0076
2781.00,0.0074
2780.00,0.0073
2779.00,0.0071
2778.00,0.0069
2777.00,0.0068
2776.00,0.0066
2775.00,0.0065
2774.00,0.0064
2773.00,0.0064
2772.00,0.0063
2771.00,0.0063
2770.00,0.0062
2769.00,0.0062
2768.00,0.0062
2767.00,0.0061
2766.00,0.0061
2765.00,0.0060
2764.00,0.0060
2763.00,0.0060
2762.00,0.0059
2761.00,0.0059
2760.00,0.0058
2759.00,0.0058
2758.00,0.0058
2757.00,0.0058
2756.00,0.0058
2755.00,0.0058
2754.00,0.0058
2753.00,0.0057
2752.00,0.0057
2751.00,0.0056
2750.00,0.0056
2749.00,0.0056
2748.00,0.0056
2747.00,0.0056
2746.00,0.0056
2745.00,0.0057
2744.00,0.0058
2743.00,0.0059
2742.00,0.0060
2741.00,0.0060
2740.00,0.0061
2739.00,0.0062
2738.00,0.0063
2737.00,0.0064
2736.00,0.0065
2735.00,0.0066
2734.00,0.0067
2733.00,0.0069
2732.00,0.0070
2731.00,0.0072
2730.00,0.0073
2729.00,0.0075
2728.00,0.0077
2727.00,0.0079
2726.00,0.0082
2725.00,0.0084
2724.00,0.0085
2723.00,0.0086
2722.00,0.0085
2721.00,0.0083
2720.00,0.0081
2719.00,0.0078
2718.00,0.0075
2717.00,0.0072
2716.00,0.0070
2715.00,0.0067
2714.00,0.0065
2713.00,0.0064
2712.00,0.0062
2711.00,0.0061
2710.00,0.0059
2709.00,0.0058
2708.00,0.0057
2707.00,0.0055
2706.00,0.0054
2705.00,0.0053
2704.00,0.0052
2703.00,0.0052
2702.00,0.0051
2701.00,0.0050
2700.00,0.0049
2699.00,0.0049
2698.00,0.0049
2697.00,0.0049
2696.00,0.0049
2695.00,0.0049
2694.00,0.0049
2693.00,0.0049
2692.00,0.0050
2691.00,0.0049
2690.00,0.0049
2689.00,0.0049
2688.00,0.0049
2687.00,0.0049
2686.00,0.0049
2685.00,0.0049
2684.00,0.0049
2683.00,0.0049
2682.00,0.0049
2681.00,0.0049
2680.00,0.0049
2679.00,0.0049
2678.00,0.0049
2677.00,0.0049
2676.00,0.0049
2675.00,0.0049
2674.00,0.0048
2673.00,0.0048
2672.00,0.0047
2671.00,0.0047
2670.00,0.0047
2669.00,0.0047
2668.00,0.0048
2667.00,0.0048
2666.00,0.0048
2665.00,0.0048
2664.00,0.0048
2663.00,0.0049
2662.00,0.0050
2661.00,0.0050
2660.00,0.0051
2659.00,0.0051
2658.00,0.0050
2657.00,0.0050
2656.00,0.0049
2655.00,0.0049
2654.00,0.0048
2653.00,0.0047
2652.00,0.0047
2651.00,0.0046
2650.00,0.0046
2649.00,0.0045
2648.00,0.0045
2647.00,0.0045
2646.00,0.0044
2645.00,0.0044
2644.00,0.0044
2643.00,0.0043
2642.00,0.0043
2641.00,0.0042
2640.00,0.0042
2639.00,0.0042
2638.00,0.0041
2637.00,0.0041
2636.00,0.0041
2635.00,0.0041
2634.00,0.0041
2633.00,0.0041
2632.00,0.0041
2631.00,0.0041
2630.00,0.0041
2629.00,0.0041
2628.00,0.0041
2627.00,0.0041
2626.00,0.0042
2625.00,0.0042
2624.00,0.0042
2623.00,0.0042
2622.00,0.0042
2621.00,0.0042
2620.00,0.0042
2619.00,0.0042
2618.00,0.0042
2617.00,0.0042
2616.00,0.0042
2615.00,0.0042
2614.00,0.0042
2613.00,0.0042
2612.00,0.0041
2611.00,0.0040
2610.00,0.0039
2609.00,0.0038
2608.00,0.0038
2607.00,0.0037
2606.00,0.0036
2605.00,0.0036
2604.00,0.0035
2603.00,0.0035
2602.00,0.0035
2601.00,0.0034
2600.00,0.0034
2599.00,0.0034
2598.00,0.0034
2597.00,0.0034
2596.00,0.0034
2595.00,0.0034
2594.00,0.0034
2593.00,0.0034
2592.00,0.0035
2591.00,0.0035
2590.00,0.0036
2589.00,0.0037
2588.00,0.0037
2587.00,0.0038
2586.00,0.0038
2585.00,0.0038
2584.00,0.0037
2583.00,0.0037
2582.00,0.0037
2581.00,0.0037
2580.00,0.0037
2579.00,0.0037
2578.00,0.0037
2577.00,0.0036
2576.00,0.0035
2575.00,0.0033
2574.00,0.0032
2573.00,0.0032
2572.00,0.0030
2571.00,0.0030
2570.00,0.0029
2569.00,0.0029
2568.00,0.0029
2567.00,0.0028
2566.00,0.0028
2565.00,0.0028
2564.00,0.0027
2563.00,0.0027
2562.00,0.0026
2561.00,0.0025
2560.00,0.0025
2559.00,0.0025
2558.00,0.0025
2557.00,0.0025
2556.00,0.0024
2555.00,0.0024
2554.00,0.0023
2553.00,0.0023
2552.00,0.0023
2551.00,0.0023
2550.00,0.0023
2549.00,0.0023
2548.00,0.0022
2547.00,0.0022
2546.00,0.0021
2545.00,0.0021
2544.00,0.0021
2543.00,0.0021
2542.00,0.0020
2541.00,0.0020
2540.00,0.0020
2539.00,0.0020
2538.00,0.0020
2537.00,0.0020
2536.00,0.0020
2535.00,0.0020
2534.00,0.0020
2533.00,0.0020
2532.00,0.0020
2531.00,0.0019
2530.00,0.0019
2529.00,0.0018
2528.00,0.0018
2527.00,0.0017
2526.00,0.0017
2525.00,0.0017
2524.00,0.0017
2523.00,0.0017
2522.00,0.0017
2521.00,0.0016
2520.00,0.0015
2519.00,0.0014
2518.00,0.0013
2517.00,0.0013
2516.00,0.0014
2515.00,0.0014
2514.00,0.0015
2513.00,0.0015
2512.00,0.0014
2511.00,0.0014
2510.00,0.0013
2509.00,0.0013
2508.00,0.0013
2507.00,0.0012
2506.00,0.0012
2505.00,0.0012
2504.00,0.0012
2503.00,0.0013
2502.00,0.0013
2501.00,0.0013
2500.00,0.0014
2499.00,0.0014
2498.00,0.0014
2497.00,0.0013
2496.00,0.0013
2495.00,0.0012
2494.00,0.0012
2493.00,0.0012
2492.00,0.0012
2491.00,0.0012
2490.00,0.0013
2489.00,0.0013
2488.00,0.0013
2487.00,0.0013
2486.00,0.0013
2485.00,0.0013
2484.00,0.0013
2483.00,0.0013
2482.00,0.0014
2481.00,0.0013
2480.00,0.0012
2479.00,0.0012
2478.00,0.0011
2477.00,0.0011
2476.00,0.0011
2475.00,0.0011
2474.00,0.0010
2473.00,0.0010
2472.00,0.0010
2471.00,0.0010
2470.00,0.0011
2469.00,0.0011
2468.00,0.0011
2467.00,0.0011
2466.00,0.0011
2465.00,0.0011
2464.00,0.0012
2463.00,0.0012
2462.00,0.0011
2461.00,0.0011
2460.00,0.0011
2459.00,0.0010
2458.00,0.0011
2457.00,0.0011
2456.00,0.0012
2455.00,0.0013
2454.00,0.0013
2453.00,0.0013
2452.00,0.0013
2451.00,0.0013
2450.00,0.0013
2449.00,0.0014
2448.00,0.0014
2447.00,0.0014
2446.00,0.0013
2445.00,0.0013
2444.00,0.0012
2443.00,0.0012
2442.00,0.0012
2441.00,0.0012
2440.00,0.0012
2439.00,0.0012
2438.00,0.0011
2437.00,0.0011
2436.00,0.0012
2435.00,0.0012
2434.00,0.0013
2433.00,0.0014
2432.00,0.0014
2431.00,0.0014
2430.00,0.0014
2429.00,0.0013
2428.00,0.0013
2427.00,0.0013
2426.00,0.0013
2425.00,0.0013
2424.00,0.0013
2423.00,0.0013
2422.00,0.0012
2421.00,0.0012
2420.00,0.0012
2419.00,0.0012
2418.00,0.0012
2417.00,0.0012
2416.00,0.0012
2415.00,0.0013
2414.00,0.0013
2413.00,0.0013
2412.00,0.0013
2411.00,0.0012
2410.00,0.0012
2409.00,0.0011
2408.00,0.0010
2407.00,0.0009
2406.00,0.0009
2405.00,0.0009
2404.00,0.0009
2403.00,0.0010
2402.00,0.0010
2401.00,0.0010
2400.00,0.0009
2399.00,0.0009
2398.00,0.0009
2397.00,0.0010
2396.00,0.0010
2395.00,0.0010
2394.00,0.0009
2393.00,0.0009
2392.00,0.0009
2391.00,0.0008
2390.00,0.0008
2389.00,0.0009
2388.00,0.0009
2387.00,0.0009
2386.00,0.0009
2385.00,0.0009
2384.00,0.0008
2383.00,0.0008
2382.00,0.0007
2381.00,0.0007
2380.00,0.0008
2379.00,0.0008
2378.00,0.0008
2377.00,0.0008
2376.00,0.0007
2375.00,0.0007
2374.00,0.0006
2373.00,0.0006
2372.00,0.0006
2371.00,0.0006
2370.00,0.0005
2369.00,0.0004
2368.00,0.0003
2367.00,0.0003
2366.00,0.0004
2365.00,0.0005
2364.00,0.0006
2363.00,0.0007
2362.00,0.0007
2361.00,0.0007
2360.00,0.0006
2359.00,0.0006
2358.00,0.0006
2357.00,0.0005
2356.00,0.0005
2355.00,0.0004
2354.00,0.0003
2353.00,0.0001
2352.00,-0.0000
2351.00,-0.0000
2350.00,0.0001
2349.00,0.0004
2348.00,0.0008
2347.00,0.0011
2346.00,0.0012
2345.00,0.0011
2344.00,0.0010
2343.00,0.0010
2342.00,0.0009
2341.00,0.0009
2340.00,0.0009
2339.00,0.0008
2338.00,0.0008
2337.00,0.0008
2336.00,0.0008
2335.00,0.0008
2334.00,0.0007
2333.00,0.0007
2332.00,0.0006
2331.00,0.0005
2330.00,0.0005
2329.00,0.0005
2328.00,0.0007
2327.00,0.0010
2326.00,0.0014
2325.00,0.0018
2324.00,0.0019
2323.00,0.0018
2322.00,0.0015
2321.00,0.0013
2320.00,0.0011
2319.00,0.0010
2318.00,0.0010
2317.00,0.0010
2316.00,0.0011
2315.00,0.0011
2314.00,0.0011
2313.00,0.0010
2312.00,0.0009
2311.00,0.0007
2310.00,0.0007
2309.00,0.0006
2308.00,0.0007
2307.00,0.0007
2306.00,0.0007
2305.00,0.0008
2304.00,0.0008
2303.00,0.0008
2302.00,0.0009
2301.00,0.0009
2300.00,0.0010
2299.00,0.0011
2298.00,0.0011
2297.00,0.0012
2296.00,0.0012
2295.00,0.0013
2294.00,0.0014
2293.00,0.0015
2292.00,0.0017
2291.00,0.0018
2290.00,0.0018
2289.00,0.0018
2288.00,0.0019
2287.00,0.0019
2286.00,0.0019
2285.00,0.0018
2284.00,0.0018
2283.00,0.0018
2282.00,0.0017
2281.00,0.0017
2280.00,0.0017
2279.00,0.0017
2278.00,0.0017
2277.00,0.0016
2276.00,0.0016
2275.00,0.0015
2274.00,0.0015
2273.00,0.0015
2272.00,0.0016
2271.00,0.0015
2270.00,0.0015
2269.00,0.0014
2268.00,0.0014
2267.00,0.0013
2266.00,0.0012
2265.00,0.0011
2264.00,0.0011
2263.00,0.0010
2262.00,0.0010
2261.00,0.0010
2260.00,0.0011
2259.00,0.0012
2258.00,0.0013
2257.00,0.0014
2256.00,0.0013
2255.00,0.0012
2254.00,0.0011
2253.00,0.0011
2252.00,0.0011
2251.00,0.0012
2250.00,0.0011
2249.00,0.0010
2248.00,0.0008
2247.00,0.0007
2246.00,0.0006
2245.00,0.0006
2244.00,0.0007
2243.00,0.0008
2242.00,0.0009
2241.00,0.0010
2240.00,0.0011
2239.00,0.0011
2238.00,0.0012
2237.00,0.0012
2236.00,0.0012
2235.00,0.0011
2234.00,0.0011
2233.00,0.0010
2232.00,0.0008
2231.00,0.0007
2230.00,0.0007
2229.00,0.0007
2228.00,0.0007
2227.00,0.0008
2226.00,0.0009
2225.00,0.0010
2224.00,0.0011
2223.00,0.0011
2222.00,0.0008
2221.00,0.0005
2220.00,0.0003
2219.00,0.0002
2218.00,0.0002
2217.00,0.0003
2216.00,0.0004
2215.00,0.0005
2214.00,0.0007
2213.00,0.0010
2212.00,0.0011
2211.00,0.0012
2210.00,0.0011
2209.00,0.0010
2208.00,0.0008
2207.00,0.0007
2206.00,0.0006
2205.00,0.0005
2204.00,0.0005
2203.00,0.0004
2202.00,0.0004
2201.00,0.0004
2200.00,0.0005
2199.00,0.0006
2198.00,0.0007
2197.00,0.0007
2196.00,0.0007
2195.00,0.0007
2194.00,0.0008
2193.00,0.0008
2192.00,0.0009
2191.00,0.0009
2190.00,0.0010
2189.00,0.0010
2188.00,0.0009
2187.00,0.0008
2186.00,0.0007
2185.00,0.0006
2184.00,0.0005
2183.00,0.0004
2182.00,0.0003
2181.00,0.0004
2180.00,0.0005
2179.00,0.0007
2178.00,0.0007
2177.00,0.0007
2176.00,0.0006
2175.00,0.0005
2174.00,0.0006
2173.00,0.0007
2172.00,0.0006
2171.00,0.0005
2170.00,0.0005
2169.00,0.0006
2168.00,0.0008
2167.00,0.0008
2166.00,0.0009
2165.00,0.0011
2164.00,0.0014
2163.00,0.0017
2162.00,0.0018
2161.00,0.0014
2160.00,0.0006
2159.00,-0.0006
2158.00,-0.0016
2157.00,-0.0020
2156.00,-0.0019
2155.00,-0.0016
2154.00,-0.0014
2153.00,-0.0015
2152.00,-0.0017
2151.00,-0.0017
2150.00,-0.0015
2149.00,-0.0012
2148.00,-0.0012
2147.00,-0.0014
2146.00,-0.0016
2145.00,-0.0017
2144.00,-0.0017
2143.00,-0.0016
2142.00,-0.0014
2141.00,-0.0011
2140.00,-0.0009
2139.00,-0.0007
2138.00,-0.0007
2137.00,-0.0007
2136.00,-0.0010
2135.00,-0.0013
2134.00,-0.0015
2133.00,-0.0015
2132.00,-0.0013
2131.00,-0.0010
2130.00,-0.0008
2129.00,-0.0007
2128.00,-0.0006
2127.00,-0.0006
2126.00,-0.0006
2125.00,-0.0006
2124.00,-0.0005
2123.00,-0.0005
2122.00,-0.0004
2121.00,-0.0003
2120.00,-0.0001
2119.00,-0.0000
2118.00,0.0001
2117.00,0.0003
2116.00,0.0005
2115.00,0.0007
2114.00,0.0008
2113.00,0.0009
2112.00,0.0008
2111.00,0.0008
2110.00,0.0006
2109.00,0.0005
2108.00,0.0004
2107.00,0.0003
2106.00,0.0003
2105.00,0.0004
2104.00,0.0004
2103.00,0.0003
2102.00,0.0002
2101.00,0.0002
2100.00,0.0003
2099.00,0.0003
2098.00,0.0003
2097.00,0.0002
2096.00,0.0001
2095.00,-0.0000
2094.00,-0.0001
2093.00,-0.0001
2092.00,-0.0000
2091.00,-0.0000
2090.00,-0.0000
2089.00,0.0001
2088.00,0.0003
2087.00,0.0005
2086.00,0.0006
2085.00,0.0006
2084.00,0.0006
2083.00,0.0005
2082.00,0.0005
2081.00,0.0006
2080.00,0.0007
2079.00,0.0007
2078.00,0.0006
2077.00,0.0005
2076.00,0.0003
2075.00,0.0002
2074.00,0.0001
2073.00,0.0000
2072.00,-0.0001
2071.00,-0.0002
2070.00,-0.0003
2069.00,-0.0003
2068.00,-0.0002
2067.00,0.0001
2066.00,0.0004
2065.00,0.0006
2064.00,0.0006
2063.00,0.0004
2062.00,0.0002
2061.00,0.0002
2060.00,0.0003
2059.00,0.0005
2058.00,0.0006
2057.00,0.0005
2056.00,0.0002
2055.00,-0.0001
2054.00,-0.0001
2053.00,0.0003
2052.00,0.0009
2051.00,0.0013
2050.00,0.0012
2049.00,0.0009
2048.00,0.0006
2047.00,0.0003
2046.00,0.0001
2045.00,-0.0002
2044.00,-0.0003
2043.00,-0.0002
2042.00,-0.0000
2041.00,0.0003
2040.00,0.0005
2039.00,0.0008
2038.00,0.0010
2037.00,0.0011
2036.00,0.0011
2035.00,0.0008
2034.00,0.0004
2033.00,-0.0000
2032.00,-0.0004
2031.00,-0.0008
2030.00,-0.0011
2029.00,-0.0014
2028.00,-0.0014
2027.00,-0.0013
2026.00,-0.0011
2025.00,-0.0010
2024.00,-0.0012
2023.00,-0.0013
2022.00,-0.0012
2021.00,-0.0009
2020.00,-0.0006
2019.00,-0.0004
2018.00,-0.0004
2017.00,-0.0005
2016.00,-0.0007
2015.00,-0.0011
2014.00,-0.0013
2013.00,-0.0013
2012.00,-0.0009
2011.00,-0.0005
2010.00,-0.0003
2009.00,-0.0002
2008.00,-0.0005
2007.00,-0.0010
2006.00,-0.0014
2005.00,-0.0014
2004.00,-0.0011
2003.00,-0.0008
2002.00,-0.0006
2001.00,-0.0008
2000.00,-0.0010
1999.00,-0.0012
1998.00,-0.0014
1997.00,-0.0015
1996.00,-0.0016
1995.00,-0.0015
1994.00,-0.0012
1993.00,-0.0007
1992.00,-0.0002
1991.00,0.0002
1990.00,0.0005
1989.00,0.0005
1988.00,0.0003
1987.00,0.0001
1986.00,-0.0000
1985.00,0.0002
1984.00,0.0005
1983.00,0.0008
1982.00,0.0011
1981.00,0.0012
1980.00,0.0010
1979.00,0.0005
1978.00,-0.0001
1977.00,-0.0005
1976.00,-0.0006
1975.00,-0.0006
1974.00,-0.0008
1973.00,-0.0010
1972.00,-0.0011
1971.00,-0.0011
1970.00,-0.0010
1969.00,-0.0009
1968.00,-0.0010
1967.00,-0.0011
1966.00,-0.0011
1965.00,-0.0012
1964.00,-0.0013
1963.00,-0.0014
1962.00,-0.0016
1961.00,-0.0017
1960.00,-0.0017
1959.00,-0.0017
1958.00,-0.0016
1957.00,-0.0015
1956.00,-0.0013
1955.00,-0.0012
1954.00,-0.0012
1953.00,-0.0011
1952.00,-0.0011
1951.00,-0.0010
1950.00,-0.0010
1949.00,-0.0010
1948.00,-0.0011
1947.00,-0.0013
1946.00,-0.0015
1945.00,-0.0016
1944.00,-0.0017
1943.00,-0.0017
1942.00,-0.0016
1941.00,-0.0014
1940.00,-0.0012
1939.00,-0.0011
1938.00,-0.0010
1937.00,-0.0010
1936.00,-0.0009
1935.00,-0.0010
1934.00,-0.0009
1933.00,-0.0008
1932.00,-0.0006
1931.00,-0.0005
1930.00,-0.0006
1929.00,-0.0006
1928.00,-0.0006
1927.00,-0.0005
1926.00,-0.0004
1925.00,-0.0002
1924.00,-0.0001
1923.00,0.0000
1922.00,0.0001
1921.00,0.0002
1920.00,0.0001
1919.00,-0.0001
1918.00,-0.0002
1917.00,-0.0002
1916.00,-0.0001
1915.00,-0.0002
1914.00,-0.0002
1913.00,-0.0003
1912.00,-0.0002
1911.00,-0.0001
1910.00,0.0000
1909.00,0.0001
1908.00,0.0001
1907.00,0.0001
1906.00,0.0000
1905.00,-0.0000
1904.00,-0.0001
1903.00,-0.0001
1902.00,-0.0001
1901.00,-0.0000
1900.00,0.0000
1899.00,0.0001
1898.00,0.0001
1897.00,0.0000
1896.00,-0.0000
1895.00,-0.0001
1894.00,-0.0002
1893.00,-0.0003
1892.00,-0.0003
1891.00,-0.0003
1890.00,-0.0002
1889.00,-0.0001
1888.00,0.0000
1887.00,0.0001
1886.00,0.0001
1885.00,0.0000
1884.00,-0.0000
1883.00,-0.0001
1882.00,-0.0000
1881.00,-0.0000
1880.00,-0.0000
1879.00,-0.0000
1878.00,-0.0001
1877.00,-0.0001
1876.00,-0.0001
1875.00,-0.0001
1874.00,-0.0001
1873.00,-0.0001
1872.00,-0.0001
1871.00,-0.0000
1870.00,0.0001
1869.00,0.0001
1868.00,0.0002
1867.00,0.0001
1866.00,0.0000
1865.00,0.0000
1864.00,0.0001
1863.00,0.0002
1862.00,0.0001
1861.00,0.0001
1860.00,0.0001
1859.00,0.0001
1858.00,0.0001
1857.00,0.0001
1856.00,0.0002
1855.00,0.0002
1854.00,0.0002
1853.00,0.0002
1852.00,0.0002
1851.00,0.0003
1850.00,0.0003
1849.00,0.0003
1848.00,0.0003
1847.00,0.0002
1846.00,0.0002
1845.00,0.0001
1844.00,0.0002
1843.00,0.0003
1842.00,0.0004
1841.00,0.0004
1840.00,0.0004
1839.00,0.0004
1838.00,0.0004
1837.00,0.0004
1836.00,0.0004
1835.00,0.0005
1834.00,0.0005
1833.00,0.0005
1832.00,0.0005
1831.00,0.0004
1830.00,0.0003
1829.00,0.0003
1828.00,0.0003
1827.00,0.0004
1826.00,0.0005
1825.00,0.0005
1824.00,0.0005
1823.00,0.0005
1822.00,0.0005
1821.00,0.0004
1820.00,0.0003
1819.00,0.0002
1818.00,0.0002
1817.00,0.0002
1816.00,0.0002
1815.00,0.0003
1814.00,0.0004
1813.00,0.0005
1812.00,0.0006
1811.00,0.0006
1810.00,0.0006
1809.00,0.0006
1808.00,0.0006
1807.00,0.0006
1806.00,0.0007
1805.00,0.0007
1804.00,0.0008
1803.00,0.0008
1802.00,0.0008
1801.00,0.0008
1800.00,0.0008
1799.00,0.0008
1798.00,0.0008
1797.00,0.0008
1796.00,0.0009
1795.00,0.0009
1794.00,0.0009
1793.00,0.0009
1792.00,0.0010
1791.00,0.0010
1790.00,0.0010
1789.00,0.0010
1788.00,0.0011
1787.00,0.0011
1786.00,0.0012
1785.00,0.0013
1784.00,0.0013
1783.00,0.0012
1782.00,0.0012
1781.00,0.0012
1780.00,0.0013
1779.00,0.0014
1778.00,0.0014
1777.00,0.0015
1776.00,0.0015
1775.00,0.0016
1774.00,0.0017
1773.00,0.0019
1772.00,0.0020
1771.00,0.0021
1770.00,0.0022
1769.00,0.0022
1768.00,0.0022
1767.00,0.0022
1766.00,0.0022
1765.00,0.0022
1764.00,0.0023
1763.00,0.0023
1762.00,0.0023
1761.00,0.0023
1760.00,0.0023
1759.00,0.0023
1758.00,0.0024
1757.00,0.0025
1756.00,0.0026
1755.00,0.0028
1754.00,0.0029
1753.00,0.0031
1752.00,0.0033
1751.00,0.0035
1750.00,0.0036
1749.00,0.0036
1748.00,0.0037
1747.00,0.0037
1746.00,0.0038
1745.00,0.0039
1744.00,0.0040
1743.00,0.0041
1742.00,0.0042
1741.00,0.0043
1740.00,0.0044
1739.00,0.0045
1738.00,0.0045
1737.00,0.0046
1736.00,0.0047
1735.00,0.0047
1734.00,0.0047
1733.00,0.0048
1732.00,0.0048
1731.00,0.0048
1730.00,0.0047
1729.00,0.0046
1728.00,0.0046
1727.00,0.0046
1726.00,0.0045
1725.00,0.0045
1724.00,0.0045
1723.00,0.0045
1722.00,0.0045
1721.00,0.0044
1720.00,0.0044
1719.00,0.0043
1718.00,0.0043
1717.00,0.0043
1716.00,0.0043
1715.00,0.0043
1714.00,0.0042
1713.00,0.0042
1712.00,0.0041
1711.00,0.0040
1710.00,0.0039
1709.00,0.0039
1708.00,0.0039
1707.00,0.0039
1706.00,0.0039
1705.00,0.0039
1704.00,0.0039
1703.00,0.0040
1702.00,0.0040
1701.00,0.0040
1700.00,0.0041
1699.00,0.0041
1698.00,0.0041
1697.00,0.0042
1696.00,0.0043
1695.00,0.0044
1694.00,0.0044
1693.00,0.0045
1692.00,0.0045
1691.00,0.0046
1690.00,0.0046
1689.00,0.0047
1688.00,0.0048
1687.00,0.0049
1686.00,0.0050
1685.00,0.0053
1684.00,0.0055
1683.00,0.0057
1682.00,0.0058
1681.00,0.0059
1680.00,0.0060
1679.00,0.0061
1678.00,0.0062
1677.00,0.0064
1676.00,0.0066
1675.00,0.0067
1674.00,0.0068
1673.00,0.0069
1672.00,0.0070
1671.00,0.0072
1670.00,0.0073
1669.00,0.0074
1668.00,0.0075
1667.00,0.0075
1666.00,0.0076
1665.00,0.0076
1664.00,0.0077
1663.00,0.0079
1662.00,0.0080
1661.00,0.0081
1660.00,0.0081
1659.00,0.0082
1658.00,0.0082
1657.00,0.0083
1656.00,0.0084
1655.00,0.0085
1654.00,0.0084
1653.00,0.0085
1652.00,0.0086
1651.00,0.0086
1650.00,0.0087
1649.00,0.0087
1648.00,0.0087
1647.00,0.0088
1646.00,0.0088
1645.00,0.0089
1644.00,0.0091
1643.00,0.0092
1642.00,0.0094
1641.00,0.0097
1640.00,0.0099
1639.00,0.0100
1638.00,0.0102
1637.00,0.0102
1636.00,0.0103
1635.00,0.0102
1634.00,0.0100
1633.00,0.0099
1632.00,0.0098
1631.00,0.0098
1630.00,0.0097
1629.00,0.0097
1628.00,0.0097
1627.00,0.0096
1626.00,0.0096
1625.00,0.0096
1624.00,0.0096
1623.00,0.0095
1622.00,0.0095
1621.00,0.0095
1620.00,0.0094
1619.00,0.0094
1618.00,0.0094
1617.00,0.0094
1616.00,0.0094
1615.00,0.0094
1614.00,0.0094
1613.00,0.0094
1612.00,0.0095
1611.00,0.0096
1610.00,0.0097
1609.00,0.0097
1608.00,0.0097
1607.00,0.0097
1606.00,0.0097
1605.00,0.0096
1604.00,0.0096
1603.00,0.0095
1602.00,0.0094
1601.00,0.0094
1600.00,0.0093
1599.00,0.0093
1598.00,0.0092
1597.00,0.0091
1596.00,0.0090
1595.00,0.0089
1594.00,0.0089
1593.00,0.0088
1592.00,0.0088
1591.00,0.0086
1590.00,0.0085
1589.00,0.0084
1588.00,0.0084
1587.00,0.0083
1586.00,0.0082
1585.00,0.0082
1584.00,0.0082
1583.00,0.0082
1582.00,0.0082
1581.00,0.0082
1580.00,0.0082
1579.00,0.0082
1578.00,0.0081
1577.00,0.0082
1576.00,0.0082
1575.00,0.0082
1574.00,0.0082
1573.00,0.0083
1572.00,0.0083
1571.00,0.0084
1570.00,0.0085
1569.00,0.0086
1568.00,0.0088
1567.00,0.0089
1566.00,0.0090
1565.00,0.0091
1564.00,0.0091
1563.00,0.0092
1562.00,0.0093
1561.00,0.0094
1560.00,0.0095
1559.00,0.0096
1558.00,0.0096
1557.00,0.0097
1556.00,0.0098
1555.00,0.0098
1554.00,0.0098
1553.00,0.0098
1552.00,0.0099
1551.00,0.0099
1550.00,0.0100
1549.00,0.0100
1548.00,0.0100
1547.00,0.0100
1546.00,0.0100
1545.00,0.0099
1544.00,0.0099
1543.00,0.0098
1542.00,0.0096
1541.00,0.0095
1540.00,0.0094
1539.00,0.0092
1538.00,0.0091
1537.00,0.0090
1536.00,0.0089
1535.00,0.0087
1534.00,0.0085
1533.00,0.0083
1532.00,0.0082
1531.00,0.0081
1530.00,0.0081
1529.00,0.0081
1528.00,0.0080
1527.00,0.0079
1526.00,0.0078
1525.00,0.0076
1524.00,0.0075
1523.00,0.0074
1522.00,0.0073
1521.00,0.0072
1520.00,0.0073
1519.00,0.0073
1518.00,0.0073
1517.00,0.0072
1516.00,0.0072
1515.00,0.0072
1514.00,0.0072
1513.00,0.0073
1512.00,0.0074
1511.00,0.0075
1510.00,0.0076
1509.00,0.0076
1508.00,0.0077
1507.00,0.0077
1506.00,0.0077
1505.00,0.0078
1504.00,0.0080
1503.00,0.0082
1502.00,0.0084
1501.00,0.0086
1500.00,0.0090
1499.00,0.0094
1498.00,0.0098
1497.00,0.0104
1496.00,0.0111
1495.00,0.0116
1494.00,0.0121
1493.00,0.0125
1492.00,0.0130
1491.00,0.0134
1490.00,0.0139
1489.00,0.0144
1488.00,0.0149
1487.00,0.0154
1486.00,0.0158
1485.00,0.0163
1484.00,0.0169
1483.00,0.0175
1482.00,0.0183
1481.00,0.0193
1480.00,0.0204
1479.00,0.0215
1478.00,0.0229
1477.00,0.0248
1476.00,0.0271
1475.00,0.0300
1474.00,0.0338
1473.00,0.0392
1472.00,0.0455
1471.00,0.0516
1470.00,0.0575
1469.00,0.0636
1468.00,0.0701
1467.00,0.0772
1466.00,0.0851
1465.00,0.0935
1464.00,0.1009
1463.00,0.1060
1462.00,0.1094
1461.00,0.1118
1460.00,0.1136
1459.00,0.1150
1458.00,0.1163
1457.00,0.1174
1456.00,0.1177
1455.00,0.1172
1454.00,0.1163
1453.00,0.1150
1452.00,0.1129
1451.00,0.1098
1450.00,0.1054
1449.00,0.0992
1448.00,0.0910
1447.00,0.0820
1446.00,0.0736
1445.00,0.0663
1444.00,0.0599
1443.00,0.0545
1442.00,0.0504
1441.00,0.0474
1440.00,0.0454
1439.00,0.0443
1438.00,0.0439
1437.00,0.0435
1436.00,0.0422
1435.00,0.0397
1434.00,0.0364
1433.00,0.0326
1432.00,0.0285
1431.00,0.0249
1430.00,0.0221
1429.00,0.0199
1428.00,0.0184
1427.00,0.0175
1426.00,0.0169
1425.00,0.0163
1424.00,0.0158
1423.00,0.0155
1422.00,0.0153
1421.00,0.0151
1420.00,0.0148
1419.00,0.0146
1418.00,0.0143
1417.00,0.0140
1416.00,0.0137
1415.00,0.0136
1414.00,0.0135
1413.00,0.0133
1412.00,0.0132
1411.00,0.0130
1410.00,0.0129
1409.00,0.0127
1408.00,0.0126
1407.00,0.0125
1406.00,0.0126
1405.00,0.0126
1404.00,0.0126
1403.00,0.0127
1402.00,0.0129
1401.00,0.0129
1400.00,0.0130
1399.00,0.0132
1398.00,0.0134
1397.00,0.0136
1396.00,0.0138
1395.00,0.0141
1394.00,0.0146
1393.00,0.0150
1392.00,0.0155
1391.00,0.0163
1390.00,0.0173
1389.00,0.0186
1388.00,0.0204
1387.00,0.0233
1386.00,0.0271
1385.00,0.0322
1384.00,0.0392
1383.00,0.0490
1382.00,0.0619
1381.00,0.0784
1380.00,0.0986
1379.00,0.1216
1378.00,0.1439
1377.00,0.1604
1376.00,0.1660
1375.00,0.1582
1374.00,0.1393
1373.00,0.1163
1372.00,0.0952
1371.00,0.0777
1370.00,0.0636
1369.00,0.0530
1368.00,0.0455
1367.00,0.0409
1366.00,0.0383
1365.00,0.0371
1364.00,0.0372
1363.00,0.0382
1362.00,0.0398
1361.00,0.0416
1360.00,0.0429
1359.00,0.0433
1358.00,0.0424
1357.00,0.0401
1356.00,0.0370
1355.00,0.0334
1354.00,0.0300
1353.00,0.0271
1352.00,0.0248
1351.00,0.0229
1350.00,0.0214
1349.00,0.0201
1348.00,0.0191
1347.00,0.0182
1346.00,0.0174
1345.00,0.0167
1344.00,0.0161
1343.00,0.0156
1342.00,0.0151
1341.00,0.0146
1340.00,0.0143
1339.00,0.0140
1338.00,0.0137
1337.00,0.0136
1336.00,0.0136
1335.00,0.0137
1334.00,0.0139
1333.00,0.0142
1332.00,0.0145
1331.00,0.0147
1330.00,0.0148
1329.00,0.0148
1328.00,0.0145
1327.00,0.0141
1326.00,0.0137
1325.00,0.0132
1324.00,0.0128
1323.00,0.0123
1322.00,0.0120
1321.00,0.0117
1320.00,0.0115
1319.00,0.0113
1318.00,0.0112
1317.00,0.0111
1316.00,0.0110
1315.00,0.0110
1314.00,0.0109
1313.00,0.0109
1312.00,0.0111
1311.00,0.0113
1310.00,0.0118
1309.00,0.0126
1308.00,0.0136
1307.00,0.0150
1306.00,0.0162
1305.00,0.0171
1304.00,0.0172
1303.00,0.0168
1302.00,0.0161
1301.00,0.0154
1300.00,0.0149
1299.00,0.0146
1298.00,0.0145
1297.00,0.0145
1296.00,0.0143
1295.00,0.0141
1294.00,0.0138
1293.00,0.0134
1292.00,0.0129
1291.00,0.0125
1290.00,0.0122
1289.00,0.0118
1288.00,0.0116
1287.00,0.0113
1286.00,0.0111
1285.00,0.0109
1284.00,0.0108
1283.00,0.0106
1282.00,0.0105
1281.00,0.0105
1280.00,0.0104
1279.00,0.0104
1278.00,0.0103
1277.00,0.0102
1276.00,0.0101
1275.00,0.0100
1274.00,0.0100
1273.00,0.0101
1272.00,0.0103
1271.00,0.0105
1270.00,0.0107
1269.00,0.0109
1268.00,0.0111
1267.00,0.0114
1266.00,0.0117
1265.00,0.0121
1264.00,0.0125
1263.00,0.0130
1262.00,0.0134
1261.00,0.0138
1260.00,0.0144
1259.00,0.0151
1258.00,0.0159
1257.00,0.0166
1256.00,0.0169
1255.00,0.0166
1254.00,0.0159
1253.00,0.0149
1252.00,0.0139
1251.00,0.0131
1250.00,0.0124
1249.00,0.0120
1248.00,0.0116
1247.00,0.0113
1246.00,0.0111
1245.00,0.0110
1244.00,0.0109
1243.00,0.0108
1242.00,0.0107
1241.00,0.0106
1240.00,0.0106
1239.00,0.0105
1238.00,0.0104
1237.00,0.0104
1236.00,0.0104
1235.00,0.0106
1234.00,0.0107
1233.00,0.0108
1232.00,0.0108
1231.00,0.0109
1230.00,0.0110
1229.00,0.0111
1228.00,0.0113
1227.00,0.0114
1226.00,0.0117
1225.00,0.0119
1224.00,0.0122
1223.00,0.0125
1222.00,0.0129
1221.00,0.0132
1220.00,0.0134
1219.00,0.0134
1218.00,0.0133
1217.00,0.0130
1216.00,0.0126
1215.00,0.0123
1214.00,0.0120
1213.00,0.0117
1212.00,0.0115
1211.00,0.0113
1210.00,0.0111
1209.00,0.0110
1208.00,0.0109
1207.00,0.0109
1206.00,0.0109
1205.00,0.0109
1204.00,0.0109
1203.00,0.0110
1202.00,0.0111
1201.00,0.0113
1200.00,0.0114
1199.00,0.0115
1198.00,0.0116
1197.00,0.0116
1196.00,0.0117
1195.00,0.0117
1194.00,0.0117
1193.00,0.0116
1192.00,0.0116
1191.00,0.0115
1190.00,0.0114
1189.00,0.0113
1188.00,0.0113
1187.00,0.0112
1186.00,0.0112
1185.00,0.0113
1184.00,0.0113
1183.00,0.0114
1182.00,0.0115
1181.00,0.0117
1180.00,0.0120
1179.00,0.0125
1178.00,0.0132
1177.00,0.0141
1176.00,0.0153
1175.00,0.0169
1174.00,0.0191
1173.00,0.0218
1172.00,0.0252
1171.00,0.0290
1170.00,0.0329
1169.00,0.0361
1168.00,0.0380
1167.00,0.0384
1166.00,0.0374
1165.00,0.0355
1164.00,0.0333
1163.00,0.0311
1162.00,0.0291
1161.00,0.0274
1160.00,0.0261
1159.00,0.0252
1158.00,0.0245
1157.00,0.0241
1156.00,0.0238
1155.00,0.0235
1154.00,0.0233
1153.00,0.0229
1152.00,0.0224
1151.00,0.0218
1150.00,0.0210
1149.00,0.0201
1148.00,0.0191
1147.00,0.0182
1146.00,0.0174
1145.00,0.0167
1144.00,0.0161
1143.00,0.0155
1142.00,0.0150
1141.00,0.0145
1140.00,0.0140
1139.00,0.0136
1138.00,0.0133
1137.00,0.0131
1136.00,0.0128
1135.00,0.0126
1134.00,0.0125
1133.00,0.0124
1132.00,0.0124
1131.00,0.0124
1130.00,0.0125
1129.00,0.0126
1128.00,0.0127
1127.00,0.0129
1126.00,0.0130
1125.00,0.0133
1124.00,0.0135
1123.00,0.0137
1122.00,0.0139
1121.00,0.0142
1120.00,0.0144
1119.00,0.0146
1118.00,0.0147
1117.00,0.0147
1116.00,0.0147
1115.00,0.0148
1114.00,0.0148
1113.00,0.0148
1112.00,0.0148
1111.00,0.0149
1110.00,0.0150
1109.00,0.0153
1108.00,0.0157
1107.00,0.0161
1106.00,0.0166
1105.00,0.0171
1104.00,0.0174
1103.00,0.0176
1102.00,0.0176
1101.00,0.0172
1100.00,0.0167
1099.00,0.0162
1098.00,0.0156
1097.00,0.0153
1096.00,0.0150
1095.00,0.0147
1094.00,0.0145
1093.00,0.0143
1092.00,0.0140
1091.00,0.0138
1090.00,0.0136
1089.00,0.0134
1088.00,0.0133
1087.00,0.0132
1086.00,0.0132
1085.00,0.0131
1084.00,0.0131
1083.00,0.0130
1082.00,0.0129
1081.00,0.0128
1080.00,0.0127
1079.00,0.0125
1078.00,0.0123
1077.00,0.0121
1076.00,0.0120
1075.00,0.0120
1074.00,0.0120
1073.00,0.0120
1072.00,0.0119
1071.00,0.0118
1070.00,0.0117
1069.00,0.0116
1068.00,0.0116
1067.00,0.0116
1066.00,0.0117
1065.00,0.0119
1064.00,0.0120
1063.00,0.0121
1062.00,0.0122
1061.00,0.0123
1060.00,0.0123
1059.00,0.0124
1058.00,0.0124
1057.00,0.0124
1056.00,0.0125
1055.00,0.0126
1054.00,0.0128
1053.00,0.0131
1052.00,0.0134
1051.00,0.0138
1050.00,0.0142
1049.00,0.0146
1048.00,0.0150
1047.00,0.0155
1046.00,0.0160
1045.00,0.0165
1044.00,0.0167
1043.00,0.0166
1042.00,0.0164
1041.00,0.0160
1040.00,0.0157
1039.00,0.0155
1038.00,0.0154
1037.00,0.0153
1036.00,0.0153
1035.00,0.0152
1034.00,0.0151
1033.00,0.0150
1032.00,0.0148
1031.00,0.0147
1030.00,0.0146
1029.00,0.0145
1028.00,0.0145
1027.00,0.0145
1026.00,0.0146
1025.00,0.0148
1024.00,0.0150
1023.00,0.0152
1022.00,0.0155
1021.00,0.0157
1020.00,0.0159
1019.00,0.0160
1018.00,0.0161
1017.00,0.0162
1016.00,0.0163
1015.00,0.0163
1014.00,0.0163
1013.00,0.0163
1012.00,0.0163
1011.00,0.0163
1010.00,0.0164
1009.00,0.0165
1008.00,0.0168
1007.00,0.0173
1006.00,0.0180
1005.00,0.0193
1004.00,0.0211
1003.00,0.0236
1002.00,0.0272
1001.00,0.0316
1000.00,0.0364
999.00,0.0406
998.00,0.0429
997.00,0.0424
996.00,0.0393
995.00,0.0345
994.00,0.0294
993.00,0.0250
992.00,0.0215
991.00,0.0190
990.00,0.0173
989.00,0.0161
988.00,0.0153
987.00,0.0148
986.00,0.0146
985.00,0.0146
984.00,0.0149
983.00,0.0155
982.00,0.0165
981.00,0.0181
980.00,0.0202
979.00,0.0232
978.00,0.0269
977.00,0.0315
976.00,0.0366
975.00,0.0417
974.00,0.0459
973.00,0.0478
972.00,0.0468
971.00,0.0428
970.00,0.0370
969.00,0.0308
968.00,0.0254
967.00,0.0213
966.00,0.0182
965.00,0.0161
964.00,0.0147
963.00,0.0136
962.00,0.0129
961.00,0.0123
960.00,0.0118
959.00,0.0113
958.00,0.0109
957.00,0.0106
956.00,0.0103
955.00,0.0101
954.00,0.0100
953.00,0.0098
952.00,0.0097
951.00,0.0096
950.00,0.0095
949.00,0.0095
948.00,0.0095
947.00,0.0096
946.00,0.0097
945.00,0.0099
944.00,0.0101
943.00,0.0103
942.00,0.0105
941.00,0.0107
940.00,0.0108
939.00,0.0106
938.00,0.0103
937.00,0.0098
936.00,0.0093
935.00,0.0089
934.00,0.0086
933.00,0.0084
932.00,0.0083
931.00,0.0083
930.00,0.0082
929.00,0.0081
928.00,0.0081
927.00,0.0080
926.00,0.0080
925.00,0.0080
924.00,0.0080
923.00,0.0080
922.00,0.0081
921.00,0.0081
920.00,0.0081
919.00,0.0081
918.00,0.0082
917.00,0.0083
916.00,0.0084
915.00,0.0084
914.00,0.0084
913.00,0.0084
912.00,0.0084
911.00,0.0085
910.00,0.0086
909.00,0.0088
908.00,0.0091
907.00,0.0095
906.00,0.0101
905.00,0.0110
904.00,0.0121
903.00,0.0136
902.00,0.0152
901.00,0.0168
900.00,0.0178
899.00,0.0181
898.00,0.0175
897.00,0.0163
896.00,0.0147
895.00,0.0132
894.00,0.0120
893.00,0.0112
892.00,0.0106
891.00,0.0101
890.00,0.0098
889.00,0.0095
888.00,0.0093
887.00,0.0091
886.00,0.0091
885.00,0.0090
884.00,0.0090
883.00,0.0090
882.00,0.0090
881.00,0.0091
880.00,0.0092
879.00,0.0094
878.00,0.0096
877.00,0.0097
876.00,0.0097
875.00,0.0097
874.00,0.0096
873.00,0.0095
872.00,0.0093
871.00,0.0092
870.00,0.0092
869.00,0.0092
868.00,0.0092
867.00,0.0092
866.00,0.0092
865.00,0.0092
864.00,0.0093
863.00,0.0095
862.00,0.0097
861.00,0.0098
860.00,0.0098
859.00,0.0099
858.00,0.0100
857.00,0.0102
856.00,0.0104
855.00,0.0106
854.00,0.0108
853.00,0.0110
852.00,0.0112
851.00,0.0116
850.00,0.0123
849.00,0.0133
848.00,0.0145
847.00,0.0160
846.00,0.0183
845.00,0.0218
844.00,0.0270
843.00,0.0335
842.00,0.0395
841.00,0.0422
840.00,0.0401
839.00,0.0344
838.00,0.0276
837.00,0.0219
836.00,0.0181
835.00,0.0158
834.00,0.0145
833.00,0.0138
832.00,0.0133
831.00,0.0129
830.00,0.0125
829.00,0.0121
828.00,0.0118
827.00,0.0115
826.00,0.0115
825.00,0.0116
824.00,0.0118
823.00,0.0119
822.00,0.0119
821.00,0.0119
820.00,0.0120
819.00,0.0122
818.00,0.0126
817.00,0.0131
816.00,0.0139
815.00,0.0149
814.00,0.0161
813.00,0.0176
812.00,0.0192
811.00,0.0207
810.00,0.0220
809.00,0.0226
808.00,0.0224
807.00,0.0213
806.00,0.0197
805.00,0.0180
804.00,0.0165
803.00,0.0155
802.00,0.0147
801.00,0.0141
800.00,0.0135
799.00,0.0131
798.00,0.0128
797.00,0.0125
796.00,0.0121
795.00,0.0117
794.00,0.0113
793.00,0.0110
792.00,0.0108
791.00,0.0106
790.00,0.0103
789.00,0.0100
788.00,0.0096
787.00,0.0093
786.00,0.0091
785.00,0.0090
784.00,0.0090
783.00,0.0089
782.00,0.0089
781.00,0.0088
780.00,0.0087
779.00,0.0085
778.00,0.0085
777.00,0.0085
776.00,0.0086
775.00,0.0086
774.00,0.0086
773.00,0.0086
772.00,0.0086
771.00,0.0085
770.00,0.0086
769.00,0.0086
768.00,0.0086
767.00,0.0086
766.00,0.0087
765.00,0.0088
764.00,0.0089
763.00,0.0089
762.00,0.0088
761.00,0.0086
760.00,0.0086
759.00,0.0086
758.00,0.0088
757.00,0.0091
756.00,0.0094
755.00,0.0097
754.00,0.0099
753.00,0.0099
752.00,0.0100
751.00,0.0101
750.00,0.0103
749.00,0.0104
748.00,0.0106
747.00,0.0108
746.00,0.0109
745.00,0.0111
744.00,0.0112
743.00,0.0115
742.00,0.0118
741.00,0.0122
740.00,0.0126
739.00,0.0131
738.00,0.0136
737.00,0.0141
736.00,0.0145
735.00,0.0150
734.00,0.0156
733.00,0.0162
732.00,0.0169
731.00,0.0177
730.00,0.0183
729.00,0.0188
728.00,0.0190
727.00,0.0190
726.00,0.0191
725.00,0.0194
724.00,0.0197
723.00,0.0202
722.00,0.0207
721.00,0.0210
720.00,0.0208
719.00,0.0199
718.00,0.0186
717.00,0.0173
716.00,0.0161
715.00,0.0153
714.00,0.0147
713.00,0.0143
712.00,0.0140
711.00,0.0136
710.00,0.0133
709.00,0.0132
708.00,0.0132
707.00,0.0133
706.00,0.0135
705.00,0.0135
704.00,0.0135
703.00,0.0133
702.00,0.0130
701.00,0.0127
700.00,0.0124
699.00,0.0120
698.00,0.0117
697.00,0.0116
696.00,0.0116
695.00,0.0117
694.00,0.0117
693.00,0.0117
692.00,0.0116
691.00,0.0115
690.00,0.0115
689.00,0.0115
688.00,0.0115
687.00,0.0114
686.00,0.0114
685.00,0.0114
684.00,0.0113
683.00,0.0113
682.00,0.0113
681.00,0.0114
680.00,0.0114
679.00,0.0115
678.00,0.0116
677.00,0.0117
676.00,0.0118
675.00,0.0119
674.00,0.0119
673.00,0.0119
672.00,0.0120
671.00,0.0123
670.00,0.0126
669.00,0.0127
668.00,0.0124
667.00,0.0120
666.00,0.0119
665.00,0.0119
664.00,0.0120
663.00,0.0120
662.00,0.0118
661.00,0.0115
660.00,0.0112
659.00,0.0108
658.00,0.0106
657.00,0.0105
656.00,0.0107
655.00,0.0110
654.00,0.0112
653.00,0.0112
652.00,0.0109
651.00,0.0106
650.00,0.0103
649.00,0.0104
648.00,0.0106
647.00,0.0108
646.00,0.0109
645.00,0.0109
644.00,0.0108
643.00,0.0107
642.00,0.0107
641.00,0.0107
640.00,0.0108
639.00,0.0109
638.00,0.0109
637.00,0.0107
636.00,0.0106
635.00,0.0106
634.00,0.0107
633.00,0.0109
632.00,0.0110
631.00,0.0112
630.00,0.0114
629.00,0.0115
628.00,0.0115
627.00,0.0113
626.00,0.0112
625.00,0.0112
624.00,0.0114
623.00,0.0116
622.00,0.0116
621.00,0.0113
620.00,0.0110
619.00,0.0109
618.00,0.0110
617.00,0.0113
616.00,0.0114
615.00,0.0113
614.00,0.0110
613.00,0.0108
612.00,0.0107
611.00,0.0108
610.00,0.0110
609.00,0.0111
608.00,0.0112
607.00,0.0112
606.00,0.0111
605.00,0.0110
604.00,0.0107
603.00,0.0105
602.00,0.0103
601.00,0.0104
600.00,0.0106
599.00,0.0107
598.00,0.0107
597.00,0.0106
596.00,0.0104
595.00,0.0104
594.00,0.0106
593.00,0.0108
592.00,0.0111
591.00,0.0112
590.00,0.0113
589.00,0.0114
588.00,0.0115
587.00,0.0115
586.00,0.0114
585.00,0.0113
584.00,0.0112
583.00,0.0113
582.00,0.0113
581.00,0.0112
580.00,0.0111
579.00,0.0110
578.00,0.0110
577.00,0.0111
576.00,0.0112
575.00,0.0113
574.00,0.0114
573.00,0.0115
572.00,0.0115
571.00,0.0114
570.00,0.0113
569.00,0.0113
568.00,0.0115
567.00,0.0115
566.00,0.0114
565.00,0.0111
564.00,0.0109
563.00,0.0108
562.00,0.0108
561.00,0.0110
560.00,0.0112
559.00,0.0110
558.00,0.0108
557.00,0.0106
556.00,0.0106
555.00,0.0108
554.00,0.0110
553.00,0.0113
552.00,0.0117
551.00,0.0120
550.00,0.0121
549.00,0.0120
548.00,0.0118
547.00,0.0115
546.00,0.0114
545.00,0.0116
544.00,0.0118
543.00,0.0119
542.00,0.0120
541.00,0.0122
540.00,0.0126
539.00,0.0131
538.00,0.0135
537.00,0.0138
536.00,0.0140
535.00,0.0142
534.00,0.0142
533.00,0.0140
532.00,0.0137
531.00,0.0134
530.00,0.0132
529.00,0.0131
528.00,0.0130
527.00,0.0128
526.00,0.0124
525.00,0.0120
524.00,0.0119
523.00,0.0119
522.00,0.0117
521.00,0.0114
520.00,0.0114
519.00,0.0120
518.00,0.0128
517.00,0.0133
516.00,0.0131
515.00,0.0122
514.00,0.0113
513.00,0.0107
512.00,0.0105
511.00,0.0106
510.00,0.0110
509.00,0.0115
508.00,0.0119
507.00,0.0120
506.00,0.0118
505.00,0.0114
504.00,0.0111
503.00,0.0111
502.00,0.0110
501.00,0.0108
500.00,0.0106
499.00,0.0104
498.00,0.0103
497.00,0.0102
496.00,0.0101
495.00,0.0100
494.00,0.0097
493.00,0.0097
492.00,0.0100
491.00,0.0109
490.00,0.0118
489.00,0.0122
488.00,0.0119
487.00,0.0112
486.00,0.0104
485.00,0.0099
484.00,0.0099
483.00,0.0103
482.00,0.0110
481.00,0.0114
480.00,0.0116
479.00,0.0120
478.00,0.0131
477.00,0.0145
476.00,0.0157
475.00,0.0163
474.00,0.0163
473.00,0.0162
472.00,0.0167
471.00,0.0179
470.00,0.0189
469.00,0.0194
468.00,0.0194
467.00,0.0193
466.00,0.0197
465.00,0.0205
464.00,0.0213
463.00,0.0216
462.00,0.0211
461.00,0.0202
460.00,0.0192
459.00,0.0189
458.00,0.0196
457.00,0.0211
456.00,0.0229
455.00,0.0241
454.00,0.0244
453.00,0.0239
452.00,0.0224
451.00,0.0205
450.00,0.0186
