Created as New Dataset,Sample 016 By Administrator Date Thursday, September 04 2025
cm-1,A
4000.00,0.0009
3999.00,0.0009
3998.00,0.0009
3997.00,0.0009
3996.00,0.0009
3995.00,0.0009
3994.00,0.0009
3993.00,0.0009
3992.00,0.0009
3991.00,0.0009
3990.00,0.0009
3989.00,0.0009
3988.00,0.0009
3987.00,0.0009
3986.00,0.0009
3985.00,0.0009
3984.00,0.0008
3983.00,0.0008
3982.00,0.0008
3981.00,0.0008
3980.00,0.0007
3979.00,0.0007
3978.00,0.0008
3977.00,0.0008
3976.00,0.0008
3975.00,0.0008
3974.00,0.0008
3973.00,0.0008
3972.00,0.0007
3971.00,0.0007
3970.00,0.0007
3969.00,0.0007
3968.00,0.0007
3967.00,0.0007
3966.00,0.0007
3965.00,0.0008
3964.00,0.0008
3963.00,0.0008
3962.00,0.0008
3961.00,0.0008
3960.00,0.0008
3959.00,0.0007
3958.00,0.0007
3957.00,0.0007
3956.00,0.0007
3955.00,0.0007
3954.00,0.0007
3953.00,0.0008
3952.00,0.0008
3951.00,0.0008
3950.00,0.0008
3949.00,0.0007
3948.00,0.0007
3947.00,0.0007
3946.00,0.0008
3945.00,0.0008
3944.00,0.0008
3943.00,0.0008
3942.00,0.0008
3941.00,0.0008
3940.00,0.0007
3939.00,0.0007
3938.00,0.0007
3937.00,0.0007
3936.00,0.0008
3935.00,0.0008
3934.00,0.0008
3933.00,0.0009
3932.00,0.0009
3931.00,0.0009
3930.00,0.0009
3929.00,0.0009
3928.00,0.0009
3927.00,0.0009
3926.00,0.0009
3925.00,0.0009
3924.00,0.0009
3923.00,0.0009
3922.00,0.0009
3921.00,0.0009
3920.00,0.0009
3919.00,0.0009
3918.00,0.0008
3917.00,0.0008
3916.00,0.0008
3915.00,0.0008
3914.00,0.0008
3913.00,0.0008
3912.00,0.0007
3911.00,0.0007
3910.00,0.0007
3909.00,0.0007
3908.00,0.0007
3907.00,0.0007
3906.00,0.0008
3905.00,0.0008
3904.00,0.0009
3903.00,0.0009
3902.00,0.0009
3901.00,0.0009
3900.00,0.0009
3899.00,0.0010
3898.00,0.0010
3897.00,0.0009
3896.00,0.0009
3895.00,0.0009
3894.00,0.0008
3893.00,0.0008
3892.00,0.0007
3891.00,0.0007
3890.00,0.0008
3889.00,0.0008
3888.00,0.0009
3887.00,0.0009
3886.00,0.0009
3885.00,0.0009
3884.00,0.0009
3883.00,0.0009
3882.00,0.0009
3881.00,0.0010
3880.00,0.0009
3879.00,0.0009
3878.00,0.0009
3877.00,0.0008
3876.00,0.0008
3875.00,0.0008
3874.00,0.0008
3873.00,0.0008
3872.00,0.0008
3871.00,0.0008
3870.00,0.0009
3869.00,0.0009
3868.00,0.0009
3867.00,0.0009
3866.00,0.0009
3865.00,0.0009
3864.00,0.0009
3863.00,0.0008
3862.00,0.0008
3861.00,0.0008
3860.00,0.0008
3859.00,0.0008
3858.00,0.0009
3857.00,0.0009
3856.00,0.0009
3855.00,0.0010
3854.00,0.0010
3853.00,0.0009
3852.00,0.0009
3851.00,0.0009
3850.00,0.0009
3849.00,0.0009
3848.00,0.0008
3847.00,0.0008
3846.00,0.0008
3845.00,0.0008
3844.00,0.0008
3843.00,0.0007
3842.00,0.0007
3841.00,0.0007
3840.00,0.0006
3839.00,0.0007
3838.00,0.0007
3837.00,0.0007
3836.00,0.0007
3835.00,0.0007
3834.00,0.0007
3833.00,0.0008
3832.00,0.0008
3831.00,0.0008
3830.00,0.0008
3829.00,0.0008
3828.00,0.0007
3827.00,0.0007
3826.00,0.0007
3825.00,0.0007
3824.00,0.0007
3823.00,0.0008
3822.00,0.0008
3821.00,0.0008
3820.00,0.0008
3819.00,0.0008
3818.00,0.0009
3817.00,0.0009
3816.00,0.0009
3815.00,0.0008
3814.00,0.0008
3813.00,0.0007
3812.00,0.0008
3811.00,0.0008
3810.00,0.0007
3809.00,0.0007
3808.00,0.0007
3807.00,0.0006
3806.00,0.0007
3805.00,0.0007
3804.00,0.0008
3803.00,0.0008
3802.00,0.0008
3801.00,0.0007
3800.00,0.0007
3799.00,0.0007
3798.00,0.0007
3797.00,0.0007
3796.00,0.0007
3795.00,0.0007
3794.00,0.0007
3793.00,0.0007
3792.00,0.0007
3791.00,0.0007
3790.00,0.0006
3789.00,0.0006
3788.00,0.0006
3787.00,0.0006
3786.00,0.0007
3785.00,0.0007
3784.00,0.0007
3783.00,0.0007
3782.00,0.0007
3781.00,0.0008
3780.00,0.0008
3779.00,0.0008
3778.00,0.0008
3777.00,0.0008
3776.00,0.0008
3775.00,0.0008
3774.00,0.0008
3773.00,0.0008
3772.00,0.0008
3771.00,0.0008
3770.00,0.0008
3769.00,0.0008
3768.00,0.0008
3767.00,0.0008
3766.00,0.0008
3765.00,0.0008
3764.00,0.0008
3763.00,0.0008
3762.00,0.0008
3761.00,0.0009
3760.00,0.0009
3759.00,0.0009
3758.00,0.0008
3757.00,0.0008
3756.00,0.0008
3755.00,0.0008
3754.00,0.0008
3753.00,0.0008
3752.00,0.0009
3751.00,0.0009
3750.00,0.0010
3749.00,0.0010
3748.00,0.0011
3747.00,0.0011
3746.00,0.0011
3745.00,0.0011
3744.00,0.0011
3743.00,0.0011
3742.00,0.0010
3741.00,0.0010
3740.00,0.0010
3739.00,0.0010
3738.00,0.0009
3737.00,0.0010
3736.00,0.0010
3735.00,0.0010
3734.00,0.0010
3733.00,0.0009
3732.00,0.0009
3731.00,0.0009
3730.00,0.0009
3729.00,0.0009
3728.00,0.0009
3727.00,0.0009
3726.00,0.0008
3725.00,0.0008
3724.00,0.0008
3723.00,0.0008
3722.00,0.0008
3721.00,0.0008
3720.00,0.0007
3719.00,0.0007
3718.00,0.0007
3717.00,0.0007
3716.00,0.0007
3715.00,0.0007
3714.00,0.0007
3713.00,0.0007
3712.00,0.0008
3711.00,0.0008
3710.00,0.0008
3709.00,0.0008
3708.00,0.0008
3707.00,0.0008
3706.00,0.0009
3705.00,0.0009
3704.00,0.0009
3703.00,0.0009
3702.00,0.0008
3701.00,0.0008
3700.00,0.0007
3699.00,0.0007
3698.00,0.0007
3697.00,0.0007
3696.00,0.0007
3695.00,0.0007
3694.00,0.0007
3693.00,0.0007
3692.00,0.0007
3691.00,0.0007
3690.00,0.0007
3689.00,0.0008
3688.00,0.0008
3687.00,0.0008
3686.00,0.0009
3685.00,0.0009
3684.00,0.0010
3683.00,0.0010
3682.00,0.0010
3681.00,0.0010
3680.00,0.0010
3679.00,0.0011
3678.00,0.0011
3677.00,0.0012
3676.00,0.0013
3675.00,0.0013
3674.00,0.0013
3673.00,0.0013
3672.00,0.0013
3671.00,0.0013
3670.00,0.0012
3669.00,0.0011
3668.00,0.0011
3667.00,0.0011
3666.00,0.0011
3665.00,0.0011
3664.00,0.0010
3663.00,0.0010
3662.00,0.0009
3661.00,0.0009
3660.00,0.0010
3659.00,0.0010
3658.00,0.0011
3657.00,0.0012
3656.00,0.0012
3655.00,0.0012
3654.00,0.0012
3653.00,0.0013
3652.00,0.0013
3651.00,0.0014
3650.00,0.0015
3649.00,0.0015
3648.00,0.0015
3647.00,0.0015
3646.00,0.0015
3645.00,0.0015
3644.00,0.0015
3643.00,0.0014
3642.00,0.0014
3641.00,0.0014
3640.00,0.0014
3639.00,0.0014
3638.00,0.0014
3637.00,0.0015
3636.00,0.0015
3635.00,0.0015
3634.00,0.0016
3633.00,0.0017
3632.00,0.0019
3631.00,0.0020
3630.00,0.0021
3629.00,0.0021
3628.00,0.0021
3627.00,0.0021
3626.00,0.0021
3625.00,0.0021
3624.00,0.0021
3623.00,0.0020
3622.00,0.0020
3621.00,0.0020
3620.00,0.0020
3619.00,0.0021
3618.00,0.0021
3617.00,0.0021
3616.00,0.0022
3615.00,0.0022
3614.00,0.0022
3613.00,0.0023
3612.00,0.0023
3611.00,0.0023
3610.00,0.0024
3609.00,0.0025
3608.00,0.0026
3607.00,0.0027
3606.00,0.0027
3605.00,0.0027
3604.00,0.0027
3603.00,0.0027
3602.00,0.0027
3601.00,0.0027
3600.00,0.0027
3599.00,0.0027
3598.00,0.0028
3597.00,0.0028
3596.00,0.0029
3595.00,0.0029
3594.00,0.0030
3593.00,0.0030
3592.00,0.0031
3591.00,0.0031
3590.00,0.0032
3589.00,0.0033
3588.00,0.0034
3587.00,0.0035
3586.00,0.0035
3585.00,0.0036
3584.00,0.0036
3583.00,0.0036
3582.00,0.0036
3581.00,0.0036
3580.00,0.0036
3579.00,0.0036
3578.00,0.0037
3577.00,0.0037
3576.00,0.0037
3575.00,0.0038
3574.00,0.0039
3573.00,0.0040
3572.00,0.0041
3571.00,0.0041
3570.00,0.0042
3569.00,0.0043
3568.00,0.0044
3567.00,0.0045
3566.00,0.0045
3565.00,0.0046
3564.00,0.0047
3563.00,0.0047
3562.00,0.0048
3561.00,0.0048
3560.00,0.0048
3559.00,0.0049
3558.00,0.0049
3557.00,0.0050
3556.00,0.0050
3555.00,0.0051
3554.00,0.0051
3553.00,0.0051
3552.00,0.0052
3551.00,0.0053
3550.00,0.0054
3549.00,0.0055
3548.00,0.0056
3547.00,0.0057
3546.00,0.0058
3545.00,0.0058
3544.00,0.0059
3543.00,0.0059
3542.00,0.0059
3541.00,0.0060
3540.00,0.0060
3539.00,0.0060
3538.00,0.0061
3537.00,0.0061
3536.00,0.0062
3535.00,0.0063
3534.00,0.0064
3533.00,0.0065
3532.00,0.0066
3531.00,0.0067
3530.00,0.0068
3529.00,0.0068
3528.00,0.0069
3527.00,0.0069
3526.00,0.0070
3525.00,0.0071
3524.00,0.0072
3523.00,0.0073
3522.00,0.0074
3521.00,0.0074
3520.00,0.0075
3519.00,0.0075
3518.00,0.0076
3517.00,0.0076
3516.00,0.0077
3515.00,0.0077
3514.00,0.0078
3513.00,0.0079
3512.00,0.0080
3511.00,0.0081
3510.00,0.0082
3509.00,0.0083
3508.00,0.0084
3507.00,0.0085
3506.00,0.0085
3505.00,0.0086
3504.00,0.0087
3503.00,0.0087
3502.00,0.0088
3501.00,0.0088
3500.00,0.0090
3499.00,0.0091
3498.00,0.0092
3497.00,0.0092
3496.00,0.0093
3495.00,0.0093
3494.00,0.0093
3493.00,0.0094
3492.00,0.0095
3491.00,0.0096
3490.00,0.0097
3489.00,0.0098
3488.00,0.0099
3487.00,0.0099
3486.00,0.0100
3485.00,0.0101
3484.00,0.0102
3483.00,0.0102
3482.00,0.0103
3481.00,0.0103
3480.00,0.0104
3479.00,0.0105
3478.00,0.0106
3477.00,0.0106
3476.00,0.0107
3475.00,0.0107
3474.00,0.0108
3473.00,0.0109
3472.00,0.0110
3471.00,0.0111
3470.00,0.0112
3469.00,0.0112
3468.00,0.0113
3467.00,0.0113
3466.00,0.0114
3465.00,0.0114
3464.00,0.0115
3463.00,0.0115
3462.00,0.0115
3461.00,0.0116
3460.00,0.0116
3459.00,0.0117
3458.00,0.0117
3457.00,0.0118
3456.00,0.0119
3455.00,0.0120
3454.00,0.0121
3453.00,0.0121
3452.00,0.0122
3451.00,0.0123
3450.00,0.0124
3449.00,0.0124
3448.00,0.0125
3447.00,0.0125
3446.00,0.0126
3445.00,0.0126
3444.00,0.0126
3443.00,0.0127
3442.00,0.0127
3441.00,0.0127
3440.00,0.0128
3439.00,0.0128
3438.00,0.0129
3437.00,0.0129
3436.00,0.0129
3435.00,0.0130
3434.00,0.0130
3433.00,0.0131
3432.00,0.0131
3431.00,0.0132
3430.00,0.0133
3429.00,0.0133
3428.00,0.0134
3427.00,0.0134
3426.00,0.0135
3425.00,0.0135
3424.00,0.0135
3423.00,0.0136
3422.00,0.0136
3421.00,0.0137
3420.00,0.0137
3419.00,0.0138
3418.00,0.0139
3417.00,0.0140
3416.00,0.0141
3415.00,0.0141
3414.00,0.0141
3413.00,0.0142
3412.00,0.0142
3411.00,0.0142
3410.00,0.0143
3409.00,0.0143
3408.00,0.0144
3407.00,0.0144
3406.00,0.0144
3405.00,0.0145
3404.00,0.0145
3403.00,0.0145
3402.00,0.0146
3401.00,0.0146
3400.00,0.0146
3399.00,0.0147
3398.00,0.0147
3397.00,0.0147
3396.00,0.0148
3395.00,0.0148
3394.00,0.0149
3393.00,0.0149
3392.00,0.0149
3391.00,0.0149
3390.00,0.0150
3389.00,0.0150
3388.00,0.0150
3387.00,0.0150
3386.00,0.0150
3385.00,0.0150
3384.00,0.0150
3383.00,0.0151
3382.00,0.0151
3381.00,0.0152
3380.00,0.0152
3379.00,0.0153
3378.00,0.0153
3377.00,0.0152
3376.00,0.0152
3375.00,0.0152
3374.00,0.0152
3373.00,0.0153
3372.00,0.0153
3371.00,0.0154
3370.00,0.0154
3369.00,0.0154
3368.00,0.0154
3367.00,0.0154
3366.00,0.0154
3365.00,0.0154
3364.00,0.0155
3363.00,0.0155
3362.00,0.0155
3361.00,0.0155
3360.00,0.0155
3359.00,0.0155
3358.00,0.0155
3357.00,0.0155
3356.00,0.0155
3355.00,0.0156
3354.00,0.0156
3353.00,0.0156
3352.00,0.0156
3351.00,0.0155
3350.00,0.0155
3349.00,0.0155
3348.00,0.0156
3347.00,0.0156
3346.00,0.0155
3345.00,0.0155
3344.00,0.0155
3343.00,0.0154
3342.00,0.0154
3341.00,0.0154
3340.00,0.0154
3339.00,0.0155
3338.00,0.0155
3337.00,0.0155
3336.00,0.0154
3335.00,0.0154
3334.00,0.0154
3333.00,0.0153
3332.00,0.0152
3331.00,0.0152
3330.00,0.0151
3329.00,0.0151
3328.00,0.0152
3327.00,0.0152
3326.00,0.0152
3325.00,0.0152
3324.00,0.0152
3323.00,0.0152
3322.00,0.0151
3321.00,0.0151
3320.00,0.0150
3319.00,0.0150
3318.00,0.0150
3317.00,0.0150
3316.00,0.0151
3315.00,0.0151
3314.00,0.0151
3313.00,0.0150
3312.00,0.0150
3311.00,0.0149
3310.00,0.0150
3309.00,0.0150
3308.00,0.0150
3307.00,0.0150
3306.00,0.0150
3305.00,0.0150
3304.00,0.0150
3303.00,0.0150
3302.00,0.0150
3301.00,0.0150
3300.00,0.0149
3299.00,0.0149
3298.00,0.0148
3297.00,0.0147
3296.00,0.0146
3295.00,0.0145
3294.00,0.0144
3293.00,0.0144
3292.00,0.0143
3291.00,0.0143
3290.00,0.0143
3289.00,0.0142
3288.00,0.0141
3287.00,0.0140
3286.00,0.0139
3285.00,0.0139
3284.00,0.0138
3283.00,0.0138
3282.00,0.0138
3281.00,0.0137
3280.00,0.0137
3279.00,0.0136
3278.00,0.0136
3277.00,0.0135
3276.00,0.0134
3275.00,0.0134
3274.00,0.0133
3273.00,0.0133
3272.00,0.0132
3271.00,0.0132
3270.00,0.0131
3269.00,0.0131
3268.00,0.0130
3267.00,0.0130
3266.00,0.0130
3265.00,0.0129
3264.00,0.0128
3263.00,0.0128
3262.00,0.0127
3261.00,0.0127
3260.00,0.0127
3259.00,0.0126
3258.00,0.0126
3257.00,0.0125
3256.00,0.0125
3255.00,0.0125
3254.00,0.0124
3253.00,0.0123
3252.00,0.0122
3251.00,0.0122
3250.00,0.0121
3249.00,0.0121
3248.00,0.0120
3247.00,0.0120
3246.00,0.0120
3245.00,0.0119
3244.00,0.0119
3243.00,0.0118
3242.00,0.0118
3241.00,0.0117
3240.00,0.0117
3239.00,0.0116
3238.00,0.0116
3237.00,0.0115
3236.00,0.0115
3235.00,0.0114
3234.00,0.0114
3233.00,0.0114
3232.00,0.0114
3231.00,0.0114
3230.00,0.0113
3229.00,0.0113
3228.00,0.0112
3227.00,0.0112
3226.00,0.0111
3225.00,0.0111
3224.00,0.0111
3223.00,0.0111
3222.00,0.0111
3221.00,0.0111
3220.00,0.0111
3219.00,0.0111
3218.00,0.0111
3217.00,0.0112
3216.00,0.0112
3215.00,0.0111
3214.00,0.0111
3213.00,0.0111
3212.00,0.0111
3211.00,0.0111
3210.00,0.0111
3209.00,0.0111
3208.00,0.0111
3207.00,0.0111
3206.00,0.0110
3205.00,0.0110
3204.00,0.0110
3203.00,0.0110
3202.00,0.0110
3201.00,0.0110
3200.00,0.0109
3199.00,0.0109
3198.00,0.0108
3197.00,0.0108
3196.00,0.0108
3195.00,0.0108
3194.00,0.0107
3193.00,0.0107
3192.00,0.0107
3191.00,0.0107
3190.00,0.0106
3189.00,0.0106
3188.00,0.0106
3187.00,0.0106
3186.00,0.0105
3185.00,0.0105
3184.00,0.0105
3183.00,0.0105
3182.00,0.0104
3181.00,0.0104
3180.00,0.0103
3179.00,0.0103
3178.00,0.0103
3177.00,0.0102
3176.00,0.0102
3175.00,0.0101
3174.00,0.0101
3173.00,0.0100
3172.00,0.0099
3171.00,0.0099
3170.00,0.0098
3169.00,0.0098
3168.00,0.0097
3167.00,0.0097
3166.00,0.0097
3165.00,0.0096
3164.00,0.0096
3163.00,0.0095
3162.00,0.0094
3161.00,0.0094
3160.00,0.0093
3159.00,0.0093
3158.00,0.0093
3157.00,0.0093
3156.00,0.0092
3155.00,0.0092
3154.00,0.0091
3153.00,0.0091
3152.00,0.0090
3151.00,0.0090
3150.00,0.0090
3149.00,0.0090
3148.00,0.0090
3147.00,0.0090
3146.00,0.0090
3145.00,0.0090
3144.00,0.0089
3143.00,0.0089
3142.00,0.0088
3141.00,0.0088
3140.00,0.0087
3139.00,0.0086
3138.00,0.0085
3137.00,0.0085
3136.00,0.0085
3135.00,0.0085
3134.00,0.0085
3133.00,0.0085
3132.00,0.0084
3131.00,0.0084
3130.00,0.0083
3129.00,0.0083
3128.00,0.0082
3127.00,0.0081
3126.00,0.0081
3125.00,0.0081
3124.00,0.0080
3123.00,0.0080
3122.00,0.0079
3121.00,0.0078
3120.00,0.0078
3119.00,0.0077
3118.00,0.0077
3117.00,0.0077
3116.00,0.0076
3115.00,0.0076
3114.00,0.0075
3113.00,0.0075
3112.00,0.0075
3111.00,0.0074
3110.00,0.0074
3109.00,0.0073
3108.00,0.0073
3107.00,0.0072
3106.00,0.0072
3105.00,0.0072
3104.00,0.0072
3103.00,0.0072
3102.00,0.0071
3101.00,0.0071
3100.00,0.0070
3099.00,0.0070
3098.00,0.0070
3097.00,0.0069
3096.00,0.0069
3095.00,0.0069
3094.00,0.0068
3093.00,0.0068
3092.00,0.0068
3091.00,0.0067
3090.00,0.0067
3089.00,0.0067
3088.00,0.0067
3087.00,0.0066
3086.00,0.0066
3085.00,0.0066
3084.00,0.0065
3083.00,0.0065
3082.00,0.0064
3081.00,0.0064
3080.00,0.0064
3079.00,0.0064
3078.00,0.0063
3077.00,0.0063
3076.00,0.0064
3075.00,0.0064
3074.00,0.0065
3073.00,0.0065
3072.00,0.0065
3071.00,0.0065
3070.00,0.0065
3069.00,0.0066
3068.00,0.0066
3067.00,0.0066
3066.00,0.0066
3065.00,0.0067
3064.00,0.0067
3063.00,0.0067
3062.00,0.0066
3061.00,0.0066
3060.00,0.0066
3059.00,0.0065
3058.00,0.0065
3057.00,0.0065
3056.00,0.0065
3055.00,0.0065
3054.00,0.0066
3053.00,0.0066
3052.00,0.0065
3051.00,0.0065
3050.00,0.0066
3049.00,0.0066
3048.00,0.0066
3047.00,0.0066
3046.00,0.0067
3045.00,0.0067
3044.00,0.0068
3043.00,0.0068
3042.00,0.0068
3041.00,0.0068
3040.00,0.0069
3039.00,0.0070
3038.00,0.0070
3037.00,0.0071
3036.00,0.0071
3035.00,0.0072
3034.00,0.0072
3033.00,0.0072
3032.00,0.0072
3031.00,0.0072
3030.00,0.0073
3029.00,0.0074
3028.00,0.0075
3027.00,0.0075
3026.00,0.0076
3025.00,0.0076
3024.00,0.0077
3023.00,0.0077
3022.00,0.0077
3021.00,0.0078
3020.00,0.0078
3019.00,0.0078
3018.00,0.0078
3017.00,0.0079
3016.00,0.0079
3015.00,0.0080
3014.00,0.0081
3013.00,0.0082
3012.00,0.0082
3011.00,0.0083
3010.00,0.0084
3009.00,0.0085
3008.00,0.0086
3007.00,0.0087
3006.00,0.0088
3005.00,0.0089
3004.00,0.0091
3003.00,0.0092
3002.00,0.0094
3001.00,0.0095
3000.00,0.0097
2999.00,0.0099
2998.00,0.0102
2997.00,0.0104
2996.00,0.0107
2995.00,0.0111
2994.00,0.0115
2993.00,0.0119
2992.00,0.0123
2991.00,0.0128
2990.00,0.0134
2989.00,0.0140
2988.00,0.0146
2987.00,0.0154
2986.00,0.0162
2985.00,0.0170
2984.00,0.0180
2983.00,0.0191
2982.00,0.0204
2981.00,0.0218
2980.00,0.0235
2979.00,0.0254
2978.00,0.0275
2977.00,0.0300
2976.00,0.0328
2975.00,0.0361
2974.00,0.0398
2973.00,0.0441
2972.00,0.0490
2971.00,0.0545
2970.00,0.0607
2969.00,0.0675
2968.00,0.0750
2967.00,0.0832
2966.00,0.0919
2965.00,0.1009
2964.00,0.1101
2963.00,0.1189
2962.00,0.1268
2961.00,0.1334
2960.00,0.1383
2959.00,0.1416
2958.00,0.1439
2957.00,0.1457
2956.00,0.1478
2955.00,0.1506
2954.00,0.1542
2953.00,0.1581
2952.00,0.1616
2951.00,0.1636
2950.00,0.1632
2949.00,0.1600
2948.00,0.1541
2947.00,0.1461
2946.00,0.1369
2945.00,0.1277
2944.00,0.1192
2943.00,0.1123
2942.00,0.1071
2941.00,0.1039
2940.00,0.1024
2939.00,0.1026
2938.00,0.1043
2937.00,0.1074
2936.00,0.1117
2935.00,0.1171
2934.00,0.1236
2933.00,0.1311
2932.00,0.1394
2931.00,0.1485
2930.00,0.1579
2929.00,0.1676
2928.00,0.1772
2927.00,0.1865
2926.00,0.1954
2925.00,0.2038
2924.00,0.2116
2923.00,0.2189
2922.00,0.2257
2921.00,0.2319
2920.00,0.2368
2919.00,0.2400
2918.00,0.2405
2917.00,0.2382
2916.00,0.2330
2915.00,0.2257
2914.00,0.2172
2913.00,0.2084
2912.00,0.2002
2911.00,0.1929
2910.00,0.1867
2909.00,0.1813
2908.00,0.1763
2907.00,0.1716
2906.00,0.1668
2905.00,0.1617
2904.00,0.1564
2903.00,0.1509
2902.00,0.1452
2901.00,0.1397
2900.00,0.1342
2899.00,0.1290
2898.00,0.1240
2897.00,0.1194
2896.00,0.1152
2895.00,0.1114
2894.00,0.1082
2893.00,0.1054
2892.00,0.1031
2891.00,0.1013
2890.00,0.0998
2889.00,0.0987
2888.00,0.0979
2887.00,0.0973
2886.00,0.0971
2885.00,0.0971
2884.00,0.0974
2883.00,0.0981
2882.00,0.0990
2881.00,0.1001
2880.00,0.1011
2879.00,0.1019
2878.00,0.1023
2877.00,0.1023
2876.00,0.1021
2875.00,0.1019
2874.00,0.1019
2873.00,0.1024
2872.00,0.1034
2871.00,0.1049
2870.00,0.1067
2869.00,0.1084
2868.00,0.1097
2867.00,0.1100
2866.00,0.1090
2865.00,0.1065
2864.00,0.1029
2863.00,0.0987
2862.00,0.0947
2861.00,0.0914
2860.00,0.0892
2859.00,0.0880
2858.00,0.0878
2857.00,0.0883
2856.00,0.0893
2855.00,0.0904
2854.00,0.0914
2853.00,0.0923
2852.00,0.0929
2851.00,0.0931
2850.00,0.0928
2849.00,0.0923
2848.00,0.0918
2847.00,0.0916
2846.00,0.0923
2845.00,0.0939
2844.00,0.0965
2843.00,0.0998
2842.00,0.1032
2841.00,0.1063
2840.00,0.1084
2839.00,0.1088
2838.00,0.1070
2837.00,0.1029
2836.00,0.0967
2835.00,0.0889
2834.00,0.0803
2833.00,0.0715
2832.00,0.0634
2831.00,0.0562
2830.00,0.0501
2829.00,0.0450
2828.00,0.0409
2827.00,0.0375
2826.00,0.0347
2825.00,0.0324
2824.00,0.0303
2823.00,0.0286
2822.00,0.0270
2821.00,0.0257
2820.00,0.0245
2819.00,0.0235
2818.00,0.0226
2817.00,0.0218
2816.00,0.0210
2815.00,0.0204
2814.00,0.0198
2813.00,0.0193
2812.00,0.0187
2811.00,0.0183
2810.00,0.0178
2809.00,0.0173
2808.00,0.0167
2807.00,0.0162
2806.00,0.0157
2805.00,0.0151
2804.00,0.0146
2803.00,0.0141
2802.00,0.0136
2801.00,0.0132
2800.00,0.0129
2799.00,0.0126
2798.00,0.0123
2797.00,0.0120
2796.00,0.0118
2795.00,0.0116
2794.00,0.0114
2793.00,0.0111
2792.00,0.0108
2791.00,0.0105
2790.00,0.0102
2789.00,0.0099
2788.00,0.0095
2787.00,0.0092
2786.00,0.0090
2785.00,0.0087
2784.00,0.0085
2783.00,0.0082
2782.00,0.0080
2781.00,0.0078
2780.00,0.0077
2779.00,0.0076
2778.00,0.0074
2777.00,0.0073
2776.00,0.0072
2775.00,0.0070
2774.00,0.0069
2773.00,0.0068
2772.00,0.0068
2771.00,0.0067
2770.00,0.0066
2769.00,0.0066
2768.00,0.0065
2767.00,0.0065
2766.00,0.0064
2765.00,0.0064
2764.00,0.0063
2763.00,0.0063
2762.00,0.0063
2761.00,0.0062
2760.00,0.0062
2759.00,0.0061
2758.00,0.0061
2757.00,0.0061
2756.00,0.0061
2755.00,0.0061
2754.00,0.0061
2753.00,0.0060
2752.00,0.0060
2751.00,0.0059
2750.00,0.0059
2749.00,0.0059
2748.00,0.0059
2747.00,0.0060
2746.00,0.0060
2745.00,0.0061
2744.00,0.0062
2743.00,0.0062
2742.00,0.0063
2741.00,0.0063
2740.00,0.0064
2739.00,0.0065
2738.00,0.0066
2737.00,0.0067
2736.00,0.0068
2735.00,0.0068
2734.00,0.0069
2733.00,0.0070
2732.00,0.0071
2731.00,0.0072
2730.00,0.0074
2729.00,0.0075
2728.00,0.0077
2727.00,0.0079
2726.00,0.0081
2725.00,0.0083
2724.00,0.0084
2723.00,0.0085
2722.00,0.0084
2721.00,0.0083
2720.00,0.0081
2719.00,0.0079
2718.00,0.0076
2717.00,0.0073
2716.00,0.0071
2715.00,0.0068
2714.00,0.0066
2713.00,0.0065
2712.00,0.0063
2711.00,0.0062
2710.00,0.0060
2709.00,0.0059
2708.00,0.0058
2707.00,0.0057
2706.00,0.0056
2705.00,0.0056
2704.00,0.0055
2703.00,0.0054
2702.00,0.0053
2701.00,0.0052
2700.00,0.0051
2699.00,0.0051
2698.00,0.0050
2697.00,0.0050
2696.00,0.0050
2695.00,0.0050
2694.00,0.0050
2693.00,0.0051
2692.00,0.0051
2691.00,0.0051
2690.00,0.0051
2689.00,0.0051
2688.00,0.0050
2687.00,0.0050
2686.00,0.0050
2685.00,0.0050
2684.00,0.0050
2683.00,0.0050
2682.00,0.0050
2681.00,0.0050
2680.00,0.0050
2679.00,0.0050
2678.00,0.0050
2677.00,0.0050
2676.00,0.0050
2675.00,0.0050
2674.00,0.0049
2673.00,0.0049
2672.00,0.0049
2671.00,0.0049
2670.00,0.0048
2669.00,0.0048
2668.00,0.0048
2667.00,0.0048
2666.00,0.0049
2665.00,0.0049
2664.00,0.0050
2663.00,0.0050
2662.00,0.0051
2661.00,0.0051
2660.00,0.0051
2659.00,0.0051
2658.00,0.0050
2657.00,0.0050
2656.00,0.0050
2655.00,0.0050
2654.00,0.0049
2653.00,0.0049
2652.00,0.0048
2651.00,0.0047
2650.00,0.0047
2649.00,0.0046
2648.00,0.0046
2647.00,0.0046
2646.00,0.0045
2645.00,0.0045
2644.00,0.0044
2643.00,0.0044
2642.00,0.0043
2641.00,0.0043
2640.00,0.0043
2639.00,0.0043
2638.00,0.0043
2637.00,0.0043
2636.00,0.0042
2635.00,0.0042
2634.00,0.0042
2633.00,0.0042
2632.00,0.0042
2631.00,0.0042
2630.00,0.0042
2629.00,0.0041
2628.00,0.0041
2627.00,0.0041
2626.00,0.0042
2625.00,0.0042
2624.00,0.0042
2623.00,0.0042
2622.00,0.0042
2621.00,0.0042
2620.00,0.0042
2619.00,0.0042
2618.00,0.0042
2617.00,0.0042
2616.00,0.0042
2615.00,0.0042
2614.00,0.0042
2613.00,0.0042
2612.00,0.0042
2611.00,0.0041
2610.00,0.0040
2609.00,0.0039
2608.00,0.0039
2607.00,0.0038
2606.00,0.0038
2605.00,0.0037
2604.00,0.0036
2603.00,0.0035
2602.00,0.0035
2601.00,0.0034
2600.00,0.0034
2599.00,0.0034
2598.00,0.0033
2597.00,0.0033
2596.00,0.0033
2595.00,0.0033
2594.00,0.0034
2593.00,0.0034
2592.00,0.0035
2591.00,0.0035
2590.00,0.0036
2589.00,0.0037
2588.00,0.0037
2587.00,0.0038
2586.00,0.0038
2585.00,0.0038
2584.00,0.0038
2583.00,0.0038
2582.00,0.0037
2581.00,0.0037
2580.00,0.0037
2579.00,0.0036
2578.00,0.0036
2577.00,0.0035
2576.00,0.0034
2575.00,0.0034
2574.00,0.0033
2573.00,0.0033
2572.00,0.0032
2571.00,0.0031
2570.00,0.0029
2569.00,0.0029
2568.00,0.0029
2567.00,0.0029
2566.00,0.0028
2565.00,0.0028
2564.00,0.0028
2563.00,0.0027
2562.00,0.0026
2561.00,0.0026
2560.00,0.0025
2559.00,0.0024
2558.00,0.0024
2557.00,0.0024
2556.00,0.0024
2555.00,0.0024
2554.00,0.0024
2553.00,0.0024
2552.00,0.0024
2551.00,0.0024
2550.00,0.0023
2549.00,0.0023
2548.00,0.0022
2547.00,0.0022
2546.00,0.0022
2545.00,0.0021
2544.00,0.0021
2543.00,0.0021
2542.00,0.0022
2541.00,0.0022
2540.00,0.0022
2539.00,0.0021
2538.00,0.0021
2537.00,0.0021
2536.00,0.0020
2535.00,0.0020
2534.00,0.0019
2533.00,0.0019
2532.00,0.0019
2531.00,0.0019
2530.00,0.0018
2529.00,0.0018
2528.00,0.0018
2527.00,0.0018
2526.00,0.0017
2525.00,0.0017
2524.00,0.0017
2523.00,0.0017
2522.00,0.0017
2521.00,0.0017
2520.00,0.0016
2519.00,0.0015
2518.00,0.0014
2517.00,0.0014
2516.00,0.0014
2515.00,0.0015
2514.00,0.0015
2513.00,0.0015
2512.00,0.0015
2511.00,0.0014
2510.00,0.0014
2509.00,0.0014
2508.00,0.0013
2507.00,0.0013
2506.00,0.0012
2505.00,0.0011
2504.00,0.0011
2503.00,0.0011
2502.00,0.0011
2501.00,0.0012
2500.00,0.0012
2499.00,0.0013
2498.00,0.0013
2497.00,0.0012
2496.00,0.0012
2495.00,0.0012
2494.00,0.0012
2493.00,0.0012
2492.00,0.0013
2491.00,0.0013
2490.00,0.0014
2489.00,0.0014
2488.00,0.0014
2487.00,0.0014
2486.00,0.0014
2485.00,0.0014
2484.00,0.0014
2483.00,0.0014
2482.00,0.0014
2481.00,0.0013
2480.00,0.0013
2479.00,0.0012
2478.00,0.0012
2477.00,0.0012
2476.00,0.0012
2475.00,0.0012
2474.00,0.0012
2473.00,0.0012
2472.00,0.0012
2471.00,0.0012
2470.00,0.0012
2469.00,0.0013
2468.00,0.0013
2467.00,0.0013
2466.00,0.0012
2465.00,0.0012
2464.00,0.0012
2463.00,0.0012
2462.00,0.0011
2461.00,0.0011
2460.00,0.0011
2459.00,0.0011
2458.00,0.0012
2457.00,0.0012
2456.00,0.0013
2455.00,0.0013
2454.00,0.0013
2453.00,0.0013
2452.00,0.0013
2451.00,0.0014
2450.00,0.0013
2449.00,0.0013
2448.00,0.0013
2447.00,0.0013
2446.00,0.0013
2445.00,0.0013
2444.00,0.0013
2443.00,0.0013
2442.00,0.0013
2441.00,0.0013
2440.00,0.0013
2439.00,0.0013
2438.00,0.0013
2437.00,0.0013
2436.00,0.0014
2435.00,0.0013
2434.00,0.0013
2433.00,0.0013
2432.00,0.0013
2431.00,0.0013
2430.00,0.0014
2429.00,0.0014
2428.00,0.0014
2427.00,0.0014
2426.00,0.0014
2425.00,0.0013
2424.00,0.0013
2423.00,0.0013
2422.00,0.0012
2421.00,0.0012
2420.00,0.0012
2419.00,0.0012
2418.00,0.0012
2417.00,0.0012
2416.00,0.0012
2415.00,0.0013
2414.00,0.0013
2413.00,0.0013
2412.00,0.0013
2411.00,0.0013
2410.00,0.0012
2409.00,0.0012
2408.00,0.0011
2407.00,0.0010
2406.00,0.0009
2405.00,0.0009
2404.00,0.0010
2403.00,0.0011
2402.00,0.0012
2401.00,0.0012
2400.00,0.0011
2399.00,0.0011
2398.00,0.0010
2397.00,0.0011
2396.00,0.0011
2395.00,0.0011
2394.00,0.0011
2393.00,0.0010
2392.00,0.0010
2391.00,0.0010
2390.00,0.0010
2389.00,0.0011
2388.00,0.0011
2387.00,0.0011
2386.00,0.0010
2385.00,0.0009
2384.00,0.0009
2383.00,0.0009
2382.00,0.0009
2381.00,0.0009
2380.00,0.0010
2379.00,0.0010
2378.00,0.0009
2377.00,0.0009
2376.00,0.0008
2375.00,0.0008
2374.00,0.0008
2373.00,0.0008
2372.00,0.0009
2371.00,0.0009
2370.00,0.0008
2369.00,0.0007
2368.00,0.0007
2367.00,0.0006
2366.00,0.0007
2365.00,0.0007
2364.00,0.0007
2363.00,0.0007
2362.00,0.0007
2361.00,0.0008
2360.00,0.0008
2359.00,0.0008
2358.00,0.0008
2357.00,0.0007
2356.00,0.0005
2355.00,0.0004
2354.00,0.0003
2353.00,0.0002
2352.00,0.0002
2351.00,0.0002
2350.00,0.0002
2349.00,0.0005
2348.00,0.0008
2347.00,0.0012
2346.00,0.0014
2345.00,0.0015
2344.00,0.0013
2343.00,0.0011
2342.00,0.0010
2341.00,0.0009
2340.00,0.0008
2339.00,0.0008
2338.00,0.0008
2337.00,0.0009
2336.00,0.0009
2335.00,0.0010
2334.00,0.0010
2333.00,0.0010
2332.00,0.0009
2331.00,0.0008
2330.00,0.0007
2329.00,0.0007
2328.00,0.0008
2327.00,0.0011
2326.00,0.0016
2325.00,0.0020
2324.00,0.0021
2323.00,0.0020
2322.00,0.0018
2321.00,0.0015
2320.00,0.0013
2319.00,0.0012
2318.00,0.0011
2317.00,0.0011
2316.00,0.0010
2315.00,0.0010
2314.00,0.0011
2313.00,0.0011
2312.00,0.0011
2311.00,0.0010
2310.00,0.0010
2309.00,0.0009
2308.00,0.0009
2307.00,0.0008
2306.00,0.0008
2305.00,0.0009
2304.00,0.0009
2303.00,0.0010
2302.00,0.0011
2301.00,0.0012
2300.00,0.0012
2299.00,0.0012
2298.00,0.0012
2297.00,0.0012
2296.00,0.0013
2295.00,0.0013
2294.00,0.0014
2293.00,0.0015
2292.00,0.0017
2291.00,0.0018
2290.00,0.0019
2289.00,0.0019
2288.00,0.0020
2287.00,0.0020
2286.00,0.0020
2285.00,0.0020
2284.00,0.0019
2283.00,0.0019
2282.00,0.0019
2281.00,0.0018
2280.00,0.0018
2279.00,0.0017
2278.00,0.0017
2277.00,0.0017
2276.00,0.0016
2275.00,0.0016
2274.00,0.0016
2273.00,0.0016
2272.00,0.0016
2271.00,0.0015
2270.00,0.0014
2269.00,0.0013
2268.00,0.0012
2267.00,0.0011
2266.00,0.0010
2265.00,0.0009
2264.00,0.0009
2263.00,0.0010
2262.00,0.0011
2261.00,0.0013
2260.00,0.0014
2259.00,0.0014
2258.00,0.0014
2257.00,0.0013
2256.00,0.0012
2255.00,0.0012
2254.00,0.0012
2253.00,0.0013
2252.00,0.0013
2251.00,0.0013
2250.00,0.0012
2249.00,0.0011
2248.00,0.0010
2247.00,0.0009
2246.00,0.0009
2245.00,0.0009
2244.00,0.0010
2243.00,0.0011
2242.00,0.0012
2241.00,0.0012
2240.00,0.0011
2239.00,0.0011
2238.00,0.0010
2237.00,0.0011
2236.00,0.0011
2235.00,0.0013
2234.00,0.0014
2233.00,0.0014
2232.00,0.0013
2231.00,0.0012
2230.00,0.0011
2229.00,0.0010
2228.00,0.0009
2227.00,0.0009
2226.00,0.0010
2225.00,0.0011
2224.00,0.0013
2223.00,0.0013
2222.00,0.0011
2221.00,0.0009
2220.00,0.0006
2219.00,0.0003
2218.00,0.0002
2217.00,0.0002
2216.00,0.0003
2215.00,0.0004
2214.00,0.0006
2213.00,0.0008
2212.00,0.0010
2211.00,0.0011
2210.00,0.0010
2209.00,0.0009
2208.00,0.0009
2207.00,0.0009
2206.00,0.0010
2205.00,0.0011
2204.00,0.0011
2203.00,0.0010
2202.00,0.0008
2201.00,0.0008
2200.00,0.0008
2199.00,0.0008
2198.00,0.0007
2197.00,0.0008
2196.00,0.0008
2195.00,0.0008
2194.00,0.0008
2193.00,0.0009
2192.00,0.0009
2191.00,0.0011
2190.00,0.0011
2189.00,0.0012
2188.00,0.0011
2187.00,0.0011
2186.00,0.0011
2185.00,0.0013
2184.00,0.0013
2183.00,0.0012
2182.00,0.0009
2181.00,0.0008
2180.00,0.0010
2179.00,0.0013
2178.00,0.0016
2177.00,0.0019
2176.00,0.0020
2175.00,0.0020
2174.00,0.0019
2173.00,0.0019
2172.00,0.0017
2171.00,0.0014
2170.00,0.0012
2169.00,0.0013
2168.00,0.0014
2167.00,0.0015
2166.00,0.0015
2165.00,0.0016
2164.00,0.0018
2163.00,0.0019
2162.00,0.0018
2161.00,0.0013
2160.00,0.0002
2159.00,-0.0011
2158.00,-0.0021
2157.00,-0.0024
2156.00,-0.0022
2155.00,-0.0017
2154.00,-0.0013
2153.00,-0.0010
2152.00,-0.0009
2151.00,-0.0009
2150.00,-0.0009
2149.00,-0.0011
2148.00,-0.0012
2147.00,-0.0014
2146.00,-0.0015
2145.00,-0.0015
2144.00,-0.0015
2143.00,-0.0014
2142.00,-0.0012
2141.00,-0.0009
2140.00,-0.0007
2139.00,-0.0004
2138.00,-0.0003
2137.00,-0.0002
2136.00,-0.0004
2135.00,-0.0007
2134.00,-0.0009
2133.00,-0.0010
2132.00,-0.0009
2131.00,-0.0007
2130.00,-0.0005
2129.00,-0.0003
2128.00,-0.0003
2127.00,-0.0003
2126.00,-0.0003
2125.00,-0.0003
2124.00,-0.0003
2123.00,-0.0003
2122.00,-0.0002
2121.00,-0.0001
2120.00,0.0001
2119.00,0.0002
2118.00,0.0003
2117.00,0.0004
2116.00,0.0006
2115.00,0.0008
2114.00,0.0008
2113.00,0.0008
2112.00,0.0007
2111.00,0.0007
2110.00,0.0007
2109.00,0.0007
2108.00,0.0006
2107.00,0.0005
2106.00,0.0005
2105.00,0.0005
2104.00,0.0007
2103.00,0.0007
2102.00,0.0007
2101.00,0.0007
2100.00,0.0007
2099.00,0.0007
2098.00,0.0006
2097.00,0.0005
2096.00,0.0003
2095.00,0.0002
2094.00,0.0001
2093.00,0.0001
2092.00,0.0001
2091.00,0.0001
2090.00,0.0002
2089.00,0.0003
2088.00,0.0005
2087.00,0.0007
2086.00,0.0008
2085.00,0.0008
2084.00,0.0008
2083.00,0.0007
2082.00,0.0006
2081.00,0.0007
2080.00,0.0008
2079.00,0.0009
2078.00,0.0009
2077.00,0.0007
2076.00,0.0006
2075.00,0.0004
2074.00,0.0003
2073.00,0.0002
2072.00,0.0001
2071.00,-0.0000
2070.00,-0.0002
2069.00,-0.0002
2068.00,-0.0000
2067.00,0.0002
2066.00,0.0004
2065.00,0.0005
2064.00,0.0004
2063.00,0.0001
2062.00,-0.0000
2061.00,-0.0001
2060.00,0.0000
2059.00,0.0001
2058.00,0.0002
2057.00,0.0002
2056.00,0.0001
2055.00,-0.0000
2054.00,0.0001
2053.00,0.0006
2052.00,0.0013
2051.00,0.0017
2050.00,0.0017
2049.00,0.0014
2048.00,0.0009
2047.00,0.0004
2046.00,-0.0001
2045.00,-0.0003
2044.00,-0.0004
2043.00,-0.0002
2042.00,-0.0000
2041.00,0.0002
2040.00,0.0004
2039.00,0.0005
2038.00,0.0005
2037.00,0.0006
2036.00,0.0005
2035.00,0.0004
2034.00,0.0002
2033.00,0.0000
2032.00,-0.0001
2031.00,-0.0003
2030.00,-0.0006
2029.00,-0.0008
2028.00,-0.0010
2027.00,-0.0012
2026.00,-0.0013
2025.00,-0.0014
2024.00,-0.0015
2023.00,-0.0015
2022.00,-0.0015
2021.00,-0.0015
2020.00,-0.0014
2019.00,-0.0013
2018.00,-0.0012
2017.00,-0.0011
2016.00,-0.0012
2015.00,-0.0013
2014.00,-0.0015
2013.00,-0.0013
2012.00,-0.0010
2011.00,-0.0006
2010.00,-0.0004
2009.00,-0.0005
2008.00,-0.0009
2007.00,-0.0014
2006.00,-0.0017
2005.00,-0.0016
2004.00,-0.0013
2003.00,-0.0011
2002.00,-0.0010
2001.00,-0.0010
2000.00,-0.0011
1999.00,-0.0011
1998.00,-0.0012
1997.00,-0.0012
1996.00,-0.0013
1995.00,-0.0013
1994.00,-0.0012
1993.00,-0.0010
1992.00,-0.0007
1991.00,-0.0005
1990.00,-0.0002
1989.00,0.0001
1988.00,0.0003
1987.00,0.0005
1986.00,0.0007
1985.00,0.0009
1984.00,0.0010
1983.00,0.0010
1982.00,0.0011
1981.00,0.0011
1980.00,0.0010
1979.00,0.0007
1978.00,0.0004
1977.00,0.0001
1976.00,-0.0000
1975.00,-0.0001
1974.00,-0.0003
1973.00,-0.0005
1972.00,-0.0007
1971.00,-0.0010
1970.00,-0.0012
1969.00,-0.0014
1968.00,-0.0014
1967.00,-0.0013
1966.00,-0.0012
1965.00,-0.0011
1964.00,-0.0012
1963.00,-0.0013
1962.00,-0.0015
1961.00,-0.0014
1960.00,-0.0013
1959.00,-0.0011
1958.00,-0.0010
1957.00,-0.0009
1956.00,-0.0009
1955.00,-0.0009
1954.00,-0.0010
1953.00,-0.0009
1952.00,-0.0008
1951.00,-0.0007
1950.00,-0.0008
1949.00,-0.0009
1948.00,-0.0011
1947.00,-0.0014
1946.00,-0.0017
1945.00,-0.0018
1944.00,-0.0018
1943.00,-0.0016
1942.00,-0.0014
1941.00,-0.0012
1940.00,-0.0011
1939.00,-0.0011
1938.00,-0.0010
1937.00,-0.0009
1936.00,-0.0007
1935.00,-0.0006
1934.00,-0.0005
1933.00,-0.0004
1932.00,-0.0004
1931.00,-0.0004
1930.00,-0.0006
1929.00,-0.0006
1928.00,-0.0006
1927.00,-0.0005
1926.00,-0.0004
1925.00,-0.0003
1924.00,-0.0002
1923.00,-0.0001
1922.00,-0.0001
1921.00,-0.0002
1920.00,-0.0002
1919.00,-0.0003
1918.00,-0.0002
1917.00,-0.0000
1916.00,0.0001
1915.00,0.0001
1914.00,0.0000
1913.00,-0.0001
1912.00,0.0000
1911.00,0.0001
1910.00,0.0001
1909.00,0.0001
1908.00,0.0000
1907.00,0.0000
1906.00,-0.0001
1905.00,-0.0001
1904.00,-0.0002
1903.00,-0.0002
1902.00,-0.0001
1901.00,0.0001
1900.00,0.0002
1899.00,0.0003
1898.00,0.0002
1897.00,0.0001
1896.00,-0.0000
1895.00,-0.0001
1894.00,-0.0002
1893.00,-0.0002
1892.00,-0.0001
1891.00,-0.0001
1890.00,-0.0001
1889.00,-0.0001
1888.00,0.0000
1887.00,0.0001
1886.00,0.0001
1885.00,0.0000
1884.00,-0.0000
1883.00,-0.0000
1882.00,0.0001
1881.00,0.0002
1880.00,0.0002
1879.00,0.0002
1878.00,0.0001
1877.00,0.0001
1876.00,0.0000
1875.00,0.0000
1874.00,-0.0000
1873.00,-0.0000
1872.00,0.0000
1871.00,0.0001
1870.00,0.0001
1869.00,0.0001
1868.00,0.0001
1867.00,0.0001
1866.00,0.0001
1865.00,0.0001
1864.00,0.0002
1863.00,0.0003
1862.00,0.0004
1861.00,0.0004
1860.00,0.0004
1859.00,0.0003
1858.00,0.0003
1857.00,0.0002
1856.00,0.0002
1855.00,0.0002
1854.00,0.0003
1853.00,0.0003
1852.00,0.0004
1851.00,0.0004
1850.00,0.0004
1849.00,0.0004
1848.00,0.0004
1847.00,0.0004
1846.00,0.0004
1845.00,0.0003
1844.00,0.0003
1843.00,0.0004
1842.00,0.0004
1841.00,0.0005
1840.00,0.0005
1839.00,0.0004
1838.00,0.0004
1837.00,0.0004
1836.00,0.0004
1835.00,0.0005
1834.00,0.0005
1833.00,0.0005
1832.00,0.0005
1831.00,0.0005
1830.00,0.0005
1829.00,0.0005
1828.00,0.0005
1827.00,0.0006
1826.00,0.0005
1825.00,0.0005
1824.00,0.0005
1823.00,0.0006
1822.00,0.0006
1821.00,0.0005
1820.00,0.0005
1819.00,0.0004
1818.00,0.0004
1817.00,0.0004
1816.00,0.0004
1815.00,0.0004
1814.00,0.0005
1813.00,0.0005
1812.00,0.0006
1811.00,0.0006
1810.00,0.0006
1809.00,0.0006
1808.00,0.0007
1807.00,0.0007
1806.00,0.0008
1805.00,0.0009
1804.00,0.0009
1803.00,0.0009
1802.00,0.0008
1801.00,0.0008
1800.00,0.0008
1799.00,0.0008
1798.00,0.0009
1797.00,0.0010
1796.00,0.0010
1795.00,0.0010
1794.00,0.0010
1793.00,0.0010
1792.00,0.0010
1791.00,0.0011
1790.00,0.0011
1789.00,0.0011
1788.00,0.0012
1787.00,0.0012
1786.00,0.0013
1785.00,0.0013
1784.00,0.0013
1783.00,0.0012
1782.00,0.0012
1781.00,0.0012
1780.00,0.0012
1779.00,0.0013
1778.00,0.0014
1777.00,0.0014
1776.00,0.0014
1775.00,0.0015
1774.00,0.0015
1773.00,0.0016
1772.00,0.0016
1771.00,0.0017
1770.00,0.0017
1769.00,0.0018
1768.00,0.0018
1767.00,0.0019
1766.00,0.0020
1765.00,0.0020
1764.00,0.0020
1763.00,0.0021
1762.00,0.0021
1761.00,0.0022
1760.00,0.0023
1759.00,0.0023
1758.00,0.0024
1757.00,0.0025
1756.00,0.0026
1755.00,0.0027
1754.00,0.0028
1753.00,0.0030
1752.00,0.0033
1751.00,0.0035
1750.00,0.0037
1749.00,0.0038
1748.00,0.0039
1747.00,0.0041
1746.00,0.0042
1745.00,0.0044
1744.00,0.0046
1743.00,0.0048
1742.00,0.0049
1741.00,0.0052
1740.00,0.0054
1739.00,0.0056
1738.00,0.0057
1737.00,0.0057
1736.00,0.0058
1735.00,0.0058
1734.00,0.0058
1733.00,0.0059
1732.00,0.0059
1731.00,0.0058
1730.00,0.0056
1729.00,0.0055
1728.00,0.0054
1727.00,0.0054
1726.00,0.0054
1725.00,0.0053
1724.00,0.0053
1723.00,0.0052
1722.00,0.0051
1721.00,0.0051
1720.00,0.0050
1719.00,0.0049
1718.00,0.0048
1717.00,0.0047
1716.00,0.0046
1715.00,0.0045
1714.00,0.0044
1713.00,0.0043
1712.00,0.0042
1711.00,0.0042
1710.00,0.0041
1709.00,0.0041
1708.00,0.0041
1707.00,0.0041
1706.00,0.0041
1705.00,0.0041
1704.00,0.0041
1703.00,0.0042
1702.00,0.0043
1701.00,0.0044
1700.00,0.0045
1699.00,0.0046
1698.00,0.0047
1697.00,0.0048
1696.00,0.0049
1695.00,0.0050
1694.00,0.0051
1693.00,0.0052
1692.00,0.0052
1691.00,0.0053
1690.00,0.0054
1689.00,0.0056
1688.00,0.0057
1687.00,0.0059
1686.00,0.0061
1685.00,0.0063
1684.00,0.0066
1683.00,0.0068
1682.00,0.0070
1681.00,0.0072
1680.00,0.0074
1679.00,0.0076
1678.00,0.0079
1677.00,0.0082
1676.00,0.0085
1675.00,0.0087
1674.00,0.0089
1673.00,0.0090
1672.00,0.0092
1671.00,0.0094
1670.00,0.0096
1669.00,0.0098
1668.00,0.0099
1667.00,0.0101
1666.00,0.0102
1665.00,0.0103
1664.00,0.0105
1663.00,0.0106
1662.00,0.0107
1661.00,0.0108
1660.00,0.0110
1659.00,0.0111
1658.00,0.0113
1657.00,0.0115
1656.00,0.0117
1655.00,0.0119
1654.00,0.0121
1653.00,0.0123
1652.00,0.0126
1651.00,0.0129
1650.00,0.0130
1649.00,0.0130
1648.00,0.0131
1647.00,0.0133
1646.00,0.0135
1645.00,0.0137
1644.00,0.0139
1643.00,0.0141
1642.00,0.0143
1641.00,0.0145
1640.00,0.0147
1639.00,0.0149
1638.00,0.0150
1637.00,0.0151
1636.00,0.0152
1635.00,0.0151
1634.00,0.0150
1633.00,0.0149
1632.00,0.0148
1631.00,0.0148
1630.00,0.0147
1629.00,0.0147
1628.00,0.0147
1627.00,0.0146
1626.00,0.0145
1625.00,0.0145
1624.00,0.0145
1623.00,0.0145
1622.00,0.0144
1621.00,0.0144
1620.00,0.0144
1619.00,0.0144
1618.00,0.0143
1617.00,0.0143
1616.00,0.0143
1615.00,0.0144
1614.00,0.0144
1613.00,0.0144
1612.00,0.0145
1611.00,0.0146
1610.00,0.0146
1609.00,0.0146
1608.00,0.0146
1607.00,0.0146
1606.00,0.0146
1605.00,0.0145
1604.00,0.0145
1603.00,0.0144
1602.00,0.0143
1601.00,0.0142
1600.00,0.0141
1599.00,0.0141
1598.00,0.0140
1597.00,0.0138
1596.00,0.0137
1595.00,0.0135
1594.00,0.0134
1593.00,0.0133
1592.00,0.0132
1591.00,0.0130
1590.00,0.0128
1589.00,0.0126
1588.00,0.0125
1587.00,0.0124
1586.00,0.0123
1585.00,0.0123
1584.00,0.0122
1583.00,0.0122
1582.00,0.0121
1581.00,0.0121
1580.00,0.0121
1579.00,0.0120
1578.00,0.0120
1577.00,0.0121
1576.00,0.0122
1575.00,0.0122
1574.00,0.0123
1573.00,0.0123
1572.00,0.0124
1571.00,0.0125
1570.00,0.0127
1569.00,0.0129
1568.00,0.0131
1567.00,0.0132
1566.00,0.0134
1565.00,0.0136
1564.00,0.0138
1563.00,0.0139
1562.00,0.0141
1561.00,0.0143
1560.00,0.0146
1559.00,0.0148
1558.00,0.0149
1557.00,0.0151
1556.00,0.0153
1555.00,0.0154
1554.00,0.0154
1553.00,0.0155
1552.00,0.0157
1551.00,0.0158
1550.00,0.0158
1549.00,0.0158
1548.00,0.0158
1547.00,0.0157
1546.00,0.0156
1545.00,0.0155
1544.00,0.0154
1543.00,0.0152
1542.00,0.0150
1541.00,0.0147
1540.00,0.0143
1539.00,0.0138
1538.00,0.0135
1537.00,0.0133
1536.00,0.0130
1535.00,0.0127
1534.00,0.0124
1533.00,0.0120
1532.00,0.0117
1531.00,0.0115
1530.00,0.0113
1529.00,0.0111
1528.00,0.0109
1527.00,0.0106
1526.00,0.0103
1525.00,0.0101
1524.00,0.0100
1523.00,0.0098
1522.00,0.0096
1521.00,0.0094
1520.00,0.0093
1519.00,0.0093
1518.00,0.0092
1517.00,0.0091
1516.00,0.0090
1515.00,0.0089
1514.00,0.0089
1513.00,0.0090
1512.00,0.0090
1511.00,0.0090
1510.00,0.0090
1509.00,0.0091
1508.00,0.0092
1507.00,0.0092
1506.00,0.0092
1505.00,0.0095
1504.00,0.0098
1503.00,0.0100
1502.00,0.0102
1501.00,0.0106
1500.00,0.0111
1499.00,0.0116
1498.00,0.0123
1497.00,0.0131
1496.00,0.0140
1495.00,0.0147
1494.00,0.0153
1493.00,0.0159
1492.00,0.0165
1491.00,0.0170
1490.00,0.0175
1489.00,0.0180
1488.00,0.0185
1487.00,0.0189
1486.00,0.0193
1485.00,0.0199
1484.00,0.0204
1483.00,0.0210
1482.00,0.0218
1481.00,0.0227
1480.00,0.0237
1479.00,0.0248
1478.00,0.0262
1477.00,0.0281
1476.00,0.0304
1475.00,0.0332
1474.00,0.0370
1473.00,0.0424
1472.00,0.0487
1471.00,0.0548
1470.00,0.0606
1469.00,0.0666
1468.00,0.0729
1467.00,0.0795
1466.00,0.0869
1465.00,0.0946
1464.00,0.1013
1463.00,0.1060
1462.00,0.1091
1461.00,0.1113
1460.00,0.1130
1459.00,0.1143
1458.00,0.1155
1457.00,0.1164
1456.00,0.1166
1455.00,0.1161
1454.00,0.1152
1453.00,0.1139
1452.00,0.1117
1451.00,0.1087
1450.00,0.1044
1449.00,0.0985
1448.00,0.0907
1447.00,0.0822
1446.00,0.0743
1445.00,0.0673
1444.00,0.0612
1443.00,0.0561
1442.00,0.0522
1441.00,0.0493
1440.00,0.0474
1439.00,0.0464
1438.00,0.0459
1437.00,0.0454
1436.00,0.0440
1435.00,0.0416
1434.00,0.0384
1433.00,0.0346
1432.00,0.0306
1431.00,0.0271
1430.00,0.0244
1429.00,0.0223
1428.00,0.0208
1427.00,0.0199
1426.00,0.0194
1425.00,0.0189
1424.00,0.0184
1423.00,0.0181
1422.00,0.0179
1421.00,0.0178
1420.00,0.0176
1419.00,0.0174
1418.00,0.0172
1417.00,0.0169
1416.00,0.0165
1415.00,0.0163
1414.00,0.0161
1413.00,0.0159
1412.00,0.0156
1411.00,0.0155
1410.00,0.0153
1409.00,0.0152
1408.00,0.0150
1407.00,0.0150
1406.00,0.0150
1405.00,0.0150
1404.00,0.0150
1403.00,0.0150
1402.00,0.0152
1401.00,0.0152
1400.00,0.0152
1399.00,0.0153
1398.00,0.0155
1397.00,0.0156
1396.00,0.0158
1395.00,0.0161
1394.00,0.0164
1393.00,0.0168
1392.00,0.0172
1391.00,0.0179
1390.00,0.0188
1389.00,0.0200
1388.00,0.0218
1387.00,0.0245
1386.00,0.0281
1385.00,0.0329
1384.00,0.0396
1383.00,0.0488
1382.00,0.0610
1381.00,0.0766
1380.00,0.0958
1379.00,0.1177
1378.00,0.1389
1377.00,0.1545
1376.00,0.1600
1375.00,0.1527
1374.00,0.1349
1373.00,0.1132
1372.00,0.0932
1371.00,0.0766
1370.00,0.0633
1369.00,0.0531
1368.00,0.0460
1367.00,0.0415
1366.00,0.0391
1365.00,0.0380
1364.00,0.0381
1363.00,0.0390
1362.00,0.0406
1361.00,0.0422
1360.00,0.0435
1359.00,0.0439
1358.00,0.0431
1357.00,0.0411
1356.00,0.0382
1355.00,0.0350
1354.00,0.0318
1353.00,0.0291
1352.00,0.0269
1351.00,0.0251
1350.00,0.0236
1349.00,0.0224
1348.00,0.0214
1347.00,0.0206
1346.00,0.0199
1345.00,0.0192
1344.00,0.0186
1343.00,0.0179
1342.00,0.0173
1341.00,0.0167
1340.00,0.0162
1339.00,0.0158
1338.00,0.0156
1337.00,0.0154
1336.00,0.0154
1335.00,0.0154
1334.00,0.0156
1333.00,0.0159
1332.00,0.0162
1331.00,0.0164
1330.00,0.0165
1329.00,0.0164
1328.00,0.0162
1327.00,0.0158
1326.00,0.0153
1325.00,0.0149
1324.00,0.0144
1323.00,0.0139
1322.00,0.0136
1321.00,0.0133
1320.00,0.0131
1319.00,0.0129
1318.00,0.0128
1317.00,0.0126
1316.00,0.0126
1315.00,0.0125
1314.00,0.0125
1313.00,0.0126
1312.00,0.0127
1311.00,0.0130
1310.00,0.0135
1309.00,0.0142
1308.00,0.0152
1307.00,0.0165
1306.00,0.0177
1305.00,0.0185
1304.00,0.0186
1303.00,0.0182
1302.00,0.0175
1301.00,0.0168
1300.00,0.0164
1299.00,0.0161
1298.00,0.0160
1297.00,0.0159
1296.00,0.0158
1295.00,0.0155
1294.00,0.0152
1293.00,0.0148
1292.00,0.0144
1291.00,0.0140
1290.00,0.0136
1289.00,0.0133
1288.00,0.0130
1287.00,0.0128
1286.00,0.0126
1285.00,0.0124
1284.00,0.0122
1283.00,0.0121
1282.00,0.0120
1281.00,0.0120
1280.00,0.0119
1279.00,0.0119
1278.00,0.0118
1277.00,0.0116
1276.00,0.0115
1275.00,0.0114
1274.00,0.0114
1273.00,0.0115
1272.00,0.0117
1271.00,0.0119
1270.00,0.0121
1269.00,0.0123
1268.00,0.0126
1267.00,0.0129
1266.00,0.0132
1265.00,0.0136
1264.00,0.0141
1263.00,0.0145
1262.00,0.0149
1261.00,0.0154
1260.00,0.0160
1259.00,0.0166
1258.00,0.0174
1257.00,0.0180
1256.00,0.0183
1255.00,0.0182
1254.00,0.0175
1253.00,0.0166
1252.00,0.0157
1251.00,0.0149
1250.00,0.0143
1249.00,0.0139
1248.00,0.0135
1247.00,0.0132
1246.00,0.0130
1245.00,0.0129
1244.00,0.0128
1243.00,0.0127
1242.00,0.0125
1241.00,0.0124
1240.00,0.0122
1239.00,0.0121
1238.00,0.0120
1237.00,0.0119
1236.00,0.0119
1235.00,0.0120
1234.00,0.0120
1233.00,0.0121
1232.00,0.0121
1231.00,0.0122
1230.00,0.0123
1229.00,0.0124
1228.00,0.0126
1227.00,0.0128
1226.00,0.0130
1225.00,0.0132
1224.00,0.0136
1223.00,0.0140
1222.00,0.0144
1221.00,0.0147
1220.00,0.0149
1219.00,0.0149
1218.00,0.0148
1217.00,0.0146
1216.00,0.0143
1215.00,0.0139
1214.00,0.0135
1213.00,0.0132
1212.00,0.0129
1211.00,0.0127
1210.00,0.0125
1209.00,0.0123
1208.00,0.0122
1207.00,0.0121
1206.00,0.0121
1205.00,0.0121
1204.00,0.0120
1203.00,0.0120
1202.00,0.0121
1201.00,0.0122
1200.00,0.0123
1199.00,0.0125
1198.00,0.0126
1197.00,0.0127
1196.00,0.0128
1195.00,0.0128
1194.00,0.0128
1193.00,0.0128
1192.00,0.0127
1191.00,0.0127
1190.00,0.0128
1189.00,0.0128
1188.00,0.0128
1187.00,0.0128
1186.00,0.0128
1185.00,0.0129
1184.00,0.0129
1183.00,0.0130
1182.00,0.0132
1181.00,0.0135
1180.00,0.0139
1179.00,0.0144
1178.00,0.0151
1177.00,0.0159
1176.00,0.0170
1175.00,0.0186
1174.00,0.0206
1173.00,0.0233
1172.00,0.0265
1171.00,0.0301
1170.00,0.0338
1169.00,0.0368
1168.00,0.0387
1167.00,0.0391
1166.00,0.0382
1165.00,0.0365
1164.00,0.0344
1163.00,0.0324
1162.00,0.0306
1161.00,0.0292
1160.00,0.0281
1159.00,0.0274
1158.00,0.0269
1157.00,0.0265
1156.00,0.0263
1155.00,0.0262
1154.00,0.0261
1153.00,0.0259
1152.00,0.0256
1151.00,0.0252
1150.00,0.0245
1149.00,0.0237
1148.00,0.0229
1147.00,0.0220
1146.00,0.0213
1145.00,0.0206
1144.00,0.0201
1143.00,0.0196
1142.00,0.0191
1141.00,0.0187
1140.00,0.0182
1139.00,0.0179
1138.00,0.0176
1137.00,0.0174
1136.00,0.0173
1135.00,0.0171
1134.00,0.0170
1133.00,0.0170
1132.00,0.0170
1131.00,0.0171
1130.00,0.0173
1129.00,0.0175
1128.00,0.0178
1127.00,0.0180
1126.00,0.0182
1125.00,0.0184
1124.00,0.0187
1123.00,0.0190
1122.00,0.0194
1121.00,0.0198
1120.00,0.0202
1119.00,0.0205
1118.00,0.0206
1117.00,0.0206
1116.00,0.0206
1115.00,0.0205
1114.00,0.0205
1113.00,0.0205
1112.00,0.0205
1111.00,0.0206
1110.00,0.0208
1109.00,0.0211
1108.00,0.0214
1107.00,0.0217
1106.00,0.0220
1105.00,0.0223
1104.00,0.0225
1103.00,0.0226
1102.00,0.0225
1101.00,0.0221
1100.00,0.0216
1099.00,0.0211
1098.00,0.0205
1097.00,0.0201
1096.00,0.0197
1095.00,0.0194
1094.00,0.0191
1093.00,0.0188
1092.00,0.0186
1091.00,0.0184
1090.00,0.0182
1089.00,0.0180
1088.00,0.0178
1087.00,0.0177
1086.00,0.0176
1085.00,0.0175
1084.00,0.0173
1083.00,0.0172
1082.00,0.0170
1081.00,0.0168
1080.00,0.0165
1079.00,0.0162
1078.00,0.0159
1077.00,0.0157
1076.00,0.0156
1075.00,0.0156
1074.00,0.0155
1073.00,0.0154
1072.00,0.0152
1071.00,0.0150
1070.00,0.0149
1069.00,0.0148
1068.00,0.0148
1067.00,0.0148
1066.00,0.0149
1065.00,0.0149
1064.00,0.0150
1063.00,0.0150
1062.00,0.0150
1061.00,0.0150
1060.00,0.0150
1059.00,0.0150
1058.00,0.0151
1057.00,0.0152
1056.00,0.0152
1055.00,0.0153
1054.00,0.0154
1053.00,0.0155
1052.00,0.0157
1051.00,0.0160
1050.00,0.0164
1049.00,0.0169
1048.00,0.0174
1047.00,0.0179
1046.00,0.0183
1045.00,0.0186
1044.00,0.0187
1043.00,0.0186
1042.00,0.0184
1041.00,0.0181
1040.00,0.0180
1039.00,0.0178
1038.00,0.0177
1037.00,0.0177
1036.00,0.0176
1035.00,0.0175
1034.00,0.0174
1033.00,0.0172
1032.00,0.0170
1031.00,0.0168
1030.00,0.0167
1029.00,0.0166
1028.00,0.0165
1027.00,0.0164
1026.00,0.0165
1025.00,0.0166
1024.00,0.0167
1023.00,0.0169
1022.00,0.0171
1021.00,0.0173
1020.00,0.0175
1019.00,0.0177
1018.00,0.0178
1017.00,0.0178
1016.00,0.0178
1015.00,0.0177
1014.00,0.0176
1013.00,0.0176
1012.00,0.0175
1011.00,0.0176
1010.00,0.0177
1009.00,0.0178
1008.00,0.0181
1007.00,0.0186
1006.00,0.0193
1005.00,0.0204
1004.00,0.0220
1003.00,0.0245
1002.00,0.0278
1001.00,0.0321
1000.00,0.0367
999.00,0.0408
998.00,0.0430
997.00,0.0425
996.00,0.0395
995.00,0.0349
994.00,0.0300
993.00,0.0257
992.00,0.0224
991.00,0.0200
990.00,0.0184
989.00,0.0174
988.00,0.0167
987.00,0.0162
986.00,0.0160
985.00,0.0160
984.00,0.0162
983.00,0.0167
982.00,0.0177
981.00,0.0191
980.00,0.0212
979.00,0.0239
978.00,0.0274
977.00,0.0317
976.00,0.0365
975.00,0.0414
974.00,0.0454
973.00,0.0473
972.00,0.0463
971.00,0.0425
970.00,0.0369
969.00,0.0311
968.00,0.0260
967.00,0.0221
966.00,0.0193
965.00,0.0174
964.00,0.0159
963.00,0.0149
962.00,0.0142
961.00,0.0136
960.00,0.0132
959.00,0.0128
958.00,0.0125
957.00,0.0122
956.00,0.0119
955.00,0.0116
954.00,0.0115
953.00,0.0113
952.00,0.0111
951.00,0.0110
950.00,0.0109
949.00,0.0109
948.00,0.0109
947.00,0.0110
946.00,0.0112
945.00,0.0114
944.00,0.0117
943.00,0.0120
942.00,0.0122
941.00,0.0124
940.00,0.0123
939.00,0.0121
938.00,0.0118
937.00,0.0113
936.00,0.0109
935.00,0.0106
934.00,0.0104
933.00,0.0102
932.00,0.0100
931.00,0.0100
930.00,0.0099
929.00,0.0099
928.00,0.0098
927.00,0.0097
926.00,0.0095
925.00,0.0094
924.00,0.0095
923.00,0.0096
922.00,0.0097
921.00,0.0097
920.00,0.0097
919.00,0.0097
918.00,0.0097
917.00,0.0097
916.00,0.0098
915.00,0.0098
914.00,0.0098
913.00,0.0099
912.00,0.0099
911.00,0.0100
910.00,0.0101
909.00,0.0103
908.00,0.0105
907.00,0.0109
906.00,0.0114
905.00,0.0122
904.00,0.0134
903.00,0.0149
902.00,0.0165
901.00,0.0181
900.00,0.0191
899.00,0.0194
898.00,0.0187
897.00,0.0175
896.00,0.0160
895.00,0.0147
894.00,0.0136
893.00,0.0127
892.00,0.0120
891.00,0.0115
890.00,0.0111
889.00,0.0109
888.00,0.0107
887.00,0.0107
886.00,0.0107
885.00,0.0108
884.00,0.0108
883.00,0.0107
882.00,0.0107
881.00,0.0107
880.00,0.0108
879.00,0.0110
878.00,0.0112
877.00,0.0114
876.00,0.0114
875.00,0.0113
874.00,0.0112
873.00,0.0111
872.00,0.0110
871.00,0.0110
870.00,0.0110
869.00,0.0109
868.00,0.0108
867.00,0.0107
866.00,0.0106
865.00,0.0106
864.00,0.0108
863.00,0.0110
862.00,0.0111
861.00,0.0111
860.00,0.0110
859.00,0.0110
858.00,0.0111
857.00,0.0113
856.00,0.0115
855.00,0.0118
854.00,0.0119
853.00,0.0121
852.00,0.0123
851.00,0.0127
850.00,0.0133
849.00,0.0141
848.00,0.0152
847.00,0.0168
846.00,0.0190
845.00,0.0225
844.00,0.0275
843.00,0.0339
842.00,0.0396
841.00,0.0422
840.00,0.0402
839.00,0.0346
838.00,0.0281
837.00,0.0227
836.00,0.0190
835.00,0.0169
834.00,0.0156
833.00,0.0148
832.00,0.0142
831.00,0.0138
830.00,0.0134
829.00,0.0131
828.00,0.0129
827.00,0.0128
826.00,0.0127
825.00,0.0126
824.00,0.0126
823.00,0.0126
822.00,0.0126
821.00,0.0128
820.00,0.0129
819.00,0.0131
818.00,0.0134
817.00,0.0140
816.00,0.0148
815.00,0.0160
814.00,0.0172
813.00,0.0186
812.00,0.0201
811.00,0.0215
810.00,0.0227
809.00,0.0233
808.00,0.0232
807.00,0.0222
806.00,0.0207
805.00,0.0192
804.00,0.0177
803.00,0.0166
802.00,0.0158
801.00,0.0152
800.00,0.0148
799.00,0.0143
798.00,0.0139
797.00,0.0136
796.00,0.0132
795.00,0.0129
794.00,0.0125
793.00,0.0123
792.00,0.0122
791.00,0.0121
790.00,0.0119
789.00,0.0116
788.00,0.0112
787.00,0.0109
786.00,0.0107
785.00,0.0106
784.00,0.0106
783.00,0.0105
782.00,0.0105
781.00,0.0103
780.00,0.0102
779.00,0.0101
778.00,0.0101
777.00,0.0102
776.00,0.0103
775.00,0.0103
774.00,0.0103
773.00,0.0103
772.00,0.0103
771.00,0.0102
770.00,0.0102
769.00,0.0102
768.00,0.0102
767.00,0.0102
766.00,0.0102
765.00,0.0103
764.00,0.0104
763.00,0.0104
762.00,0.0104
761.00,0.0105
760.00,0.0105
759.00,0.0105
758.00,0.0106
757.00,0.0107
756.00,0.0110
755.00,0.0114
754.00,0.0116
753.00,0.0118
752.00,0.0118
751.00,0.0118
750.00,0.0119
749.00,0.0121
748.00,0.0124
747.00,0.0127
746.00,0.0129
745.00,0.0132
744.00,0.0135
743.00,0.0138
742.00,0.0142
741.00,0.0147
740.00,0.0154
739.00,0.0160
738.00,0.0166
737.00,0.0171
736.00,0.0177
735.00,0.0184
734.00,0.0191
733.00,0.0199
732.00,0.0206
731.00,0.0213
730.00,0.0218
729.00,0.0222
728.00,0.0224
727.00,0.0225
726.00,0.0228
725.00,0.0231
724.00,0.0236
723.00,0.0240
722.00,0.0244
721.00,0.0244
720.00,0.0240
719.00,0.0229
718.00,0.0215
717.00,0.0201
716.00,0.0189
715.00,0.0181
714.00,0.0176
713.00,0.0171
712.00,0.0167
711.00,0.0164
710.00,0.0162
709.00,0.0163
708.00,0.0166
707.00,0.0170
706.00,0.0172
705.00,0.0171
704.00,0.0168
703.00,0.0163
702.00,0.0158
701.00,0.0152
700.00,0.0148
699.00,0.0143
698.00,0.0139
697.00,0.0137
696.00,0.0137
695.00,0.0138
694.00,0.0138
693.00,0.0137
692.00,0.0136
691.00,0.0134
690.00,0.0135
689.00,0.0136
688.00,0.0136
687.00,0.0136
686.00,0.0136
685.00,0.0135
684.00,0.0135
683.00,0.0136
682.00,0.0137
681.00,0.0137
680.00,0.0136
679.00,0.0135
678.00,0.0134
677.00,0.0135
676.00,0.0136
675.00,0.0137
674.00,0.0139
673.00,0.0140
672.00,0.0142
671.00,0.0145
670.00,0.0147
669.00,0.0147
668.00,0.0144
667.00,0.0141
666.00,0.0140
665.00,0.0140
664.00,0.0139
663.00,0.0137
662.00,0.0135
661.00,0.0133
660.00,0.0132
659.00,0.0131
658.00,0.0130
657.00,0.0129
656.00,0.0128
655.00,0.0128
654.00,0.0129
653.00,0.0130
652.00,0.0130
651.00,0.0130
650.00,0.0130
649.00,0.0130
648.00,0.0131
647.00,0.0131
646.00,0.0131
645.00,0.0130
644.00,0.0128
643.00,0.0127
642.00,0.0129
641.00,0.0131
640.00,0.0132
639.00,0.0132
638.00,0.0130
637.00,0.0129
636.00,0.0129
635.00,0.0129
634.00,0.0130
633.00,0.0132
632.00,0.0133
631.00,0.0134
630.00,0.0135
629.00,0.0136
628.00,0.0137
627.00,0.0138
626.00,0.0138
625.00,0.0138
624.00,0.0138
623.00,0.0139
622.00,0.0139
621.00,0.0137
620.00,0.0134
619.00,0.0132
618.00,0.0134
617.00,0.0138
616.00,0.0139
615.00,0.0138
614.00,0.0137
613.00,0.0138
612.00,0.0140
611.00,0.0142
610.00,0.0143
609.00,0.0141
608.00,0.0137
607.00,0.0134
606.00,0.0133
605.00,0.0135
604.00,0.0137
603.00,0.0136
602.00,0.0132
601.00,0.0128
600.00,0.0126
599.00,0.0127
598.00,0.0129
597.00,0.0131
596.00,0.0132
595.00,0.0131
594.00,0.0131
593.00,0.0133
592.00,0.0137
591.00,0.0141
590.00,0.0144
589.00,0.0144
588.00,0.0142
587.00,0.0139
586.00,0.0138
585.00,0.0139
584.00,0.0140
583.00,0.0140
582.00,0.0138
581.00,0.0136
580.00,0.0135
579.00,0.0134
578.00,0.0135
577.00,0.0136
576.00,0.0138
575.00,0.0140
574.00,0.0141
573.00,0.0141
572.00,0.0142
571.00,0.0143
570.00,0.0144
569.00,0.0147
568.00,0.0148
567.00,0.0147
566.00,0.0146
565.00,0.0145
564.00,0.0145
563.00,0.0145
562.00,0.0145
561.00,0.0144
560.00,0.0142
559.00,0.0136
558.00,0.0130
557.00,0.0127
556.00,0.0130
555.00,0.0137
554.00,0.0144
553.00,0.0149
552.00,0.0152
551.00,0.0153
550.00,0.0151
549.00,0.0145
548.00,0.0138
547.00,0.0133
546.00,0.0132
545.00,0.0134
544.00,0.0137
543.00,0.0139
542.00,0.0141
541.00,0.0146
540.00,0.0154
539.00,0.0162
538.00,0.0169
537.00,0.0171
536.00,0.0171
535.00,0.0169
534.00,0.0166
533.00,0.0163
532.00,0.0159
531.00,0.0155
530.00,0.0151
529.00,0.0148
528.00,0.0149
527.00,0.0151
526.00,0.0151
525.00,0.0150
524.00,0.0148
523.00,0.0145
522.00,0.0141
521.00,0.0137
520.00,0.0134
519.00,0.0137
518.00,0.0145
517.00,0.0154
516.00,0.0160
515.00,0.0157
514.00,0.0146
513.00,0.0133
512.00,0.0124
511.00,0.0120
510.00,0.0120
509.00,0.0120
508.00,0.0122
507.00,0.0128
506.00,0.0136
505.00,0.0142
504.00,0.0143
503.00,0.0141
502.00,0.0137
501.00,0.0133
500.00,0.0133
499.00,0.0134
498.00,0.0134
497.00,0.0132
496.00,0.0130
495.00,0.0131
494.00,0.0132
493.00,0.0131
492.00,0.0126
491.00,0.0119
490.00,0.0116
489.00,0.0116
488.00,0.0118
487.00,0.0118
486.00,0.0117
485.00,0.0121
484.00,0.0131
483.00,0.0146
482.00,0.0159
481.00,0.0162
480.00,0.0158
479.00,0.0153
478.00,0.0153
477.00,0.0160
476.00,0.0168
475.00,0.0173
474.00,0.0175
473.00,0.0176
472.00,0.0182
471.00,0.0195
470.00,0.0211
469.00,0.0222
468.00,0.0225
467.00,0.0225
466.00,0.0229
465.00,0.0243
464.00,0.0260
463.00,0.0268
462.00,0.0264
461.00,0.0252
460.00,0.0240
459.00,0.0231
458.00,0.0227
457.00,0.0231
456.00,0.0239
455.00,0.0247
454.00,0.0250
453.00,0.0246
452.00,0.0236
451.00,0.0223
450.00,0.0207
