Created as New Dataset,Sample 190 By Administrator Date Wednesday, September 03 2025
cm-1,A
4000.00,0.0010
3999.00,0.0010
3998.00,0.0010
3997.00,0.0009
3996.00,0.0009
3995.00,0.0009
3994.00,0.0009
3993.00,0.0009
3992.00,0.0009
3991.00,0.0009
3990.00,0.0009
3989.00,0.0008
3988.00,0.0008
3987.00,0.0008
3986.00,0.0009
3985.00,0.0009
3984.00,0.0008
3983.00,0.0008
3982.00,0.0008
3981.00,0.0007
3980.00,0.0007
3979.00,0.0007
3978.00,0.0007
3977.00,0.0007
3976.00,0.0008
3975.00,0.0008
3974.00,0.0008
3973.00,0.0008
3972.00,0.0008
3971.00,0.0008
3970.00,0.0007
3969.00,0.0007
3968.00,0.0007
3967.00,0.0007
3966.00,0.0007
3965.00,0.0007
3964.00,0.0007
3963.00,0.0007
3962.00,0.0007
3961.00,0.0007
3960.00,0.0007
3959.00,0.0007
3958.00,0.0007
3957.00,0.0007
3956.00,0.0007
3955.00,0.0007
3954.00,0.0007
3953.00,0.0007
3952.00,0.0007
3951.00,0.0007
3950.00,0.0007
3949.00,0.0007
3948.00,0.0007
3947.00,0.0007
3946.00,0.0007
3945.00,0.0007
3944.00,0.0007
3943.00,0.0008
3942.00,0.0008
3941.00,0.0008
3940.00,0.0007
3939.00,0.0007
3938.00,0.0007
3937.00,0.0007
3936.00,0.0007
3935.00,0.0007
3934.00,0.0007
3933.00,0.0007
3932.00,0.0007
3931.00,0.0007
3930.00,0.0007
3929.00,0.0007
3928.00,0.0008
3927.00,0.0007
3926.00,0.0007
3925.00,0.0007
3924.00,0.0008
3923.00,0.0008
3922.00,0.0008
3921.00,0.0008
3920.00,0.0008
3919.00,0.0008
3918.00,0.0008
3917.00,0.0008
3916.00,0.0008
3915.00,0.0008
3914.00,0.0008
3913.00,0.0008
3912.00,0.0008
3911.00,0.0008
3910.00,0.0008
3909.00,0.0008
3908.00,0.0008
3907.00,0.0008
3906.00,0.0007
3905.00,0.0007
3904.00,0.0007
3903.00,0.0007
3902.00,0.0007
3901.00,0.0007
3900.00,0.0007
3899.00,0.0007
3898.00,0.0007
3897.00,0.0007
3896.00,0.0007
3895.00,0.0007
3894.00,0.0007
3893.00,0.0007
3892.00,0.0007
3891.00,0.0007
3890.00,0.0007
3889.00,0.0007
3888.00,0.0007
3887.00,0.0007
3886.00,0.0007
3885.00,0.0007
3884.00,0.0008
3883.00,0.0008
3882.00,0.0008
3881.00,0.0008
3880.00,0.0008
3879.00,0.0007
3878.00,0.0007
3877.00,0.0007
3876.00,0.0007
3875.00,0.0007
3874.00,0.0008
3873.00,0.0008
3872.00,0.0008
3871.00,0.0007
3870.00,0.0007
3869.00,0.0007
3868.00,0.0007
3867.00,0.0007
3866.00,0.0006
3865.00,0.0006
3864.00,0.0006
3863.00,0.0006
3862.00,0.0006
3861.00,0.0007
3860.00,0.0006
3859.00,0.0006
3858.00,0.0006
3857.00,0.0006
3856.00,0.0006
3855.00,0.0006
3854.00,0.0006
3853.00,0.0006
3852.00,0.0006
3851.00,0.0006
3850.00,0.0006
3849.00,0.0006
3848.00,0.0007
3847.00,0.0007
3846.00,0.0006
3845.00,0.0006
3844.00,0.0006
3843.00,0.0006
3842.00,0.0006
3841.00,0.0006
3840.00,0.0006
3839.00,0.0006
3838.00,0.0006
3837.00,0.0006
3836.00,0.0006
3835.00,0.0006
3834.00,0.0006
3833.00,0.0006
3832.00,0.0006
3831.00,0.0006
3830.00,0.0006
3829.00,0.0006
3828.00,0.0006
3827.00,0.0006
3826.00,0.0006
3825.00,0.0006
3824.00,0.0006
3823.00,0.0005
3822.00,0.0005
3821.00,0.0005
3820.00,0.0006
3819.00,0.0005
3818.00,0.0005
3817.00,0.0005
3816.00,0.0005
3815.00,0.0006
3814.00,0.0006
3813.00,0.0006
3812.00,0.0006
3811.00,0.0006
3810.00,0.0006
3809.00,0.0005
3808.00,0.0005
3807.00,0.0005
3806.00,0.0006
3805.00,0.0006
3804.00,0.0006
3803.00,0.0006
3802.00,0.0006
3801.00,0.0006
3800.00,0.0006
3799.00,0.0006
3798.00,0.0005
3797.00,0.0005
3796.00,0.0006
3795.00,0.0006
3794.00,0.0006
3793.00,0.0006
3792.00,0.0006
3791.00,0.0006
3790.00,0.0006
3789.00,0.0007
3788.00,0.0007
3787.00,0.0006
3786.00,0.0006
3785.00,0.0007
3784.00,0.0007
3783.00,0.0007
3782.00,0.0007
3781.00,0.0007
3780.00,0.0007
3779.00,0.0007
3778.00,0.0007
3777.00,0.0007
3776.00,0.0007
3775.00,0.0007
3774.00,0.0007
3773.00,0.0007
3772.00,0.0007
3771.00,0.0007
3770.00,0.0007
3769.00,0.0007
3768.00,0.0006
3767.00,0.0006
3766.00,0.0006
3765.00,0.0006
3764.00,0.0006
3763.00,0.0006
3762.00,0.0006
3761.00,0.0006
3760.00,0.0006
3759.00,0.0007
3758.00,0.0007
3757.00,0.0007
3756.00,0.0007
3755.00,0.0007
3754.00,0.0007
3753.00,0.0007
3752.00,0.0006
3751.00,0.0006
3750.00,0.0006
3749.00,0.0005
3748.00,0.0005
3747.00,0.0005
3746.00,0.0005
3745.00,0.0006
3744.00,0.0006
3743.00,0.0006
3742.00,0.0005
3741.00,0.0004
3740.00,0.0004
3739.00,0.0004
3738.00,0.0005
3737.00,0.0005
3736.00,0.0006
3735.00,0.0006
3734.00,0.0006
3733.00,0.0005
3732.00,0.0005
3731.00,0.0004
3730.00,0.0004
3729.00,0.0004
3728.00,0.0004
3727.00,0.0004
3726.00,0.0004
3725.00,0.0005
3724.00,0.0005
3723.00,0.0005
3722.00,0.0005
3721.00,0.0005
3720.00,0.0005
3719.00,0.0005
3718.00,0.0006
3717.00,0.0006
3716.00,0.0007
3715.00,0.0007
3714.00,0.0006
3713.00,0.0005
3712.00,0.0004
3711.00,0.0003
3710.00,0.0003
3709.00,0.0003
3708.00,0.0003
3707.00,0.0004
3706.00,0.0004
3705.00,0.0004
3704.00,0.0004
3703.00,0.0004
3702.00,0.0004
3701.00,0.0004
3700.00,0.0004
3699.00,0.0004
3698.00,0.0005
3697.00,0.0005
3696.00,0.0006
3695.00,0.0006
3694.00,0.0005
3693.00,0.0005
3692.00,0.0004
3691.00,0.0004
3690.00,0.0005
3689.00,0.0005
3688.00,0.0006
3687.00,0.0006
3686.00,0.0005
3685.00,0.0005
3684.00,0.0005
3683.00,0.0005
3682.00,0.0005
3681.00,0.0005
3680.00,0.0005
3679.00,0.0005
3678.00,0.0005
3677.00,0.0005
3676.00,0.0004
3675.00,0.0004
3674.00,0.0004
3673.00,0.0003
3672.00,0.0003
3671.00,0.0003
3670.00,0.0004
3669.00,0.0004
3668.00,0.0005
3667.00,0.0005
3666.00,0.0005
3665.00,0.0005
3664.00,0.0005
3663.00,0.0005
3662.00,0.0005
3661.00,0.0005
3660.00,0.0005
3659.00,0.0005
3658.00,0.0004
3657.00,0.0004
3656.00,0.0005
3655.00,0.0005
3654.00,0.0006
3653.00,0.0006
3652.00,0.0006
3651.00,0.0006
3650.00,0.0006
3649.00,0.0005
3648.00,0.0005
3647.00,0.0005
3646.00,0.0005
3645.00,0.0005
3644.00,0.0005
3643.00,0.0005
3642.00,0.0005
3641.00,0.0005
3640.00,0.0005
3639.00,0.0005
3638.00,0.0005
3637.00,0.0005
3636.00,0.0005
3635.00,0.0005
3634.00,0.0005
3633.00,0.0005
3632.00,0.0005
3631.00,0.0005
3630.00,0.0005
3629.00,0.0005
3628.00,0.0005
3627.00,0.0005
3626.00,0.0005
3625.00,0.0005
3624.00,0.0006
3623.00,0.0006
3622.00,0.0006
3621.00,0.0006
3620.00,0.0006
3619.00,0.0006
3618.00,0.0006
3617.00,0.0006
3616.00,0.0006
3615.00,0.0006
3614.00,0.0006
3613.00,0.0007
3612.00,0.0008
3611.00,0.0008
3610.00,0.0008
3609.00,0.0008
3608.00,0.0008
3607.00,0.0008
3606.00,0.0008
3605.00,0.0008
3604.00,0.0008
3603.00,0.0007
3602.00,0.0007
3601.00,0.0007
3600.00,0.0007
3599.00,0.0008
3598.00,0.0008
3597.00,0.0008
3596.00,0.0008
3595.00,0.0008
3594.00,0.0008
3593.00,0.0008
3592.00,0.0008
3591.00,0.0008
3590.00,0.0009
3589.00,0.0009
3588.00,0.0009
3587.00,0.0009
3586.00,0.0010
3585.00,0.0010
3584.00,0.0010
3583.00,0.0010
3582.00,0.0010
3581.00,0.0010
3580.00,0.0010
3579.00,0.0010
3578.00,0.0010
3577.00,0.0010
3576.00,0.0011
3575.00,0.0011
3574.00,0.0011
3573.00,0.0012
3572.00,0.0012
3571.00,0.0013
3570.00,0.0013
3569.00,0.0013
3568.00,0.0013
3567.00,0.0013
3566.00,0.0012
3565.00,0.0012
3564.00,0.0012
3563.00,0.0013
3562.00,0.0013
3561.00,0.0014
3560.00,0.0014
3559.00,0.0014
3558.00,0.0014
3557.00,0.0014
3556.00,0.0015
3555.00,0.0015
3554.00,0.0015
3553.00,0.0015
3552.00,0.0015
3551.00,0.0016
3550.00,0.0016
3549.00,0.0016
3548.00,0.0017
3547.00,0.0017
3546.00,0.0017
3545.00,0.0017
3544.00,0.0017
3543.00,0.0017
3542.00,0.0017
3541.00,0.0017
3540.00,0.0017
3539.00,0.0018
3538.00,0.0018
3537.00,0.0018
3536.00,0.0018
3535.00,0.0019
3534.00,0.0019
3533.00,0.0019
3532.00,0.0019
3531.00,0.0019
3530.00,0.0019
3529.00,0.0019
3528.00,0.0019
3527.00,0.0019
3526.00,0.0020
3525.00,0.0021
3524.00,0.0021
3523.00,0.0021
3522.00,0.0021
3521.00,0.0021
3520.00,0.0021
3519.00,0.0021
3518.00,0.0021
3517.00,0.0021
3516.00,0.0022
3515.00,0.0022
3514.00,0.0022
3513.00,0.0022
3512.00,0.0023
3511.00,0.0023
3510.00,0.0023
3509.00,0.0023
3508.00,0.0023
3507.00,0.0023
3506.00,0.0023
3505.00,0.0024
3504.00,0.0024
3503.00,0.0024
3502.00,0.0025
3501.00,0.0025
3500.00,0.0025
3499.00,0.0025
3498.00,0.0026
3497.00,0.0026
3496.00,0.0026
3495.00,0.0026
3494.00,0.0026
3493.00,0.0026
3492.00,0.0026
3491.00,0.0026
3490.00,0.0026
3489.00,0.0027
3488.00,0.0027
3487.00,0.0027
3486.00,0.0028
3485.00,0.0028
3484.00,0.0028
3483.00,0.0028
3482.00,0.0028
3481.00,0.0028
3480.00,0.0028
3479.00,0.0029
3478.00,0.0029
3477.00,0.0030
3476.00,0.0029
3475.00,0.0029
3474.00,0.0029
3473.00,0.0030
3472.00,0.0030
3471.00,0.0031
3470.00,0.0031
3469.00,0.0031
3468.00,0.0031
3467.00,0.0031
3466.00,0.0031
3465.00,0.0031
3464.00,0.0031
3463.00,0.0032
3462.00,0.0032
3461.00,0.0032
3460.00,0.0032
3459.00,0.0033
3458.00,0.0033
3457.00,0.0033
3456.00,0.0033
3455.00,0.0033
3454.00,0.0033
3453.00,0.0033
3452.00,0.0034
3451.00,0.0034
3450.00,0.0034
3449.00,0.0035
3448.00,0.0034
3447.00,0.0034
3446.00,0.0034
3445.00,0.0035
3444.00,0.0035
3443.00,0.0035
3442.00,0.0035
3441.00,0.0036
3440.00,0.0036
3439.00,0.0036
3438.00,0.0036
3437.00,0.0036
3436.00,0.0036
3435.00,0.0036
3434.00,0.0037
3433.00,0.0037
3432.00,0.0038
3431.00,0.0038
3430.00,0.0039
3429.00,0.0038
3428.00,0.0038
3427.00,0.0038
3426.00,0.0038
3425.00,0.0038
3424.00,0.0038
3423.00,0.0039
3422.00,0.0039
3421.00,0.0039
3420.00,0.0039
3419.00,0.0039
3418.00,0.0039
3417.00,0.0039
3416.00,0.0040
3415.00,0.0040
3414.00,0.0040
3413.00,0.0041
3412.00,0.0041
3411.00,0.0041
3410.00,0.0042
3409.00,0.0042
3408.00,0.0042
3407.00,0.0042
3406.00,0.0042
3405.00,0.0042
3404.00,0.0042
3403.00,0.0043
3402.00,0.0043
3401.00,0.0043
3400.00,0.0043
3399.00,0.0043
3398.00,0.0044
3397.00,0.0044
3396.00,0.0045
3395.00,0.0045
3394.00,0.0045
3393.00,0.0044
3392.00,0.0044
3391.00,0.0043
3390.00,0.0043
3389.00,0.0043
3388.00,0.0043
3387.00,0.0043
3386.00,0.0043
3385.00,0.0043
3384.00,0.0043
3383.00,0.0043
3382.00,0.0043
3381.00,0.0043
3380.00,0.0043
3379.00,0.0042
3378.00,0.0042
3377.00,0.0042
3376.00,0.0042
3375.00,0.0042
3374.00,0.0042
3373.00,0.0042
3372.00,0.0043
3371.00,0.0043
3370.00,0.0043
3369.00,0.0043
3368.00,0.0043
3367.00,0.0043
3366.00,0.0043
3365.00,0.0043
3364.00,0.0043
3363.00,0.0043
3362.00,0.0043
3361.00,0.0043
3360.00,0.0043
3359.00,0.0043
3358.00,0.0043
3357.00,0.0043
3356.00,0.0043
3355.00,0.0043
3354.00,0.0043
3353.00,0.0043
3352.00,0.0043
3351.00,0.0043
3350.00,0.0043
3349.00,0.0043
3348.00,0.0043
3347.00,0.0043
3346.00,0.0043
3345.00,0.0043
3344.00,0.0043
3343.00,0.0043
3342.00,0.0043
3341.00,0.0043
3340.00,0.0043
3339.00,0.0043
3338.00,0.0042
3337.00,0.0042
3336.00,0.0042
3335.00,0.0042
3334.00,0.0042
3333.00,0.0042
3332.00,0.0042
3331.00,0.0042
3330.00,0.0042
3329.00,0.0042
3328.00,0.0041
3327.00,0.0041
3326.00,0.0041
3325.00,0.0041
3324.00,0.0041
3323.00,0.0041
3322.00,0.0040
3321.00,0.0040
3320.00,0.0040
3319.00,0.0041
3318.00,0.0041
3317.00,0.0041
3316.00,0.0042
3315.00,0.0041
3314.00,0.0041
3313.00,0.0041
3312.00,0.0041
3311.00,0.0041
3310.00,0.0041
3309.00,0.0041
3308.00,0.0041
3307.00,0.0041
3306.00,0.0042
3305.00,0.0042
3304.00,0.0042
3303.00,0.0042
3302.00,0.0042
3301.00,0.0042
3300.00,0.0041
3299.00,0.0041
3298.00,0.0041
3297.00,0.0040
3296.00,0.0040
3295.00,0.0039
3294.00,0.0039
3293.00,0.0039
3292.00,0.0039
3291.00,0.0039
3290.00,0.0039
3289.00,0.0039
3288.00,0.0039
3287.00,0.0039
3286.00,0.0039
3285.00,0.0038
3284.00,0.0038
3283.00,0.0038
3282.00,0.0038
3281.00,0.0038
3280.00,0.0038
3279.00,0.0038
3278.00,0.0038
3277.00,0.0037
3276.00,0.0037
3275.00,0.0037
3274.00,0.0037
3273.00,0.0037
3272.00,0.0037
3271.00,0.0037
3270.00,0.0037
3269.00,0.0036
3268.00,0.0036
3267.00,0.0036
3266.00,0.0036
3265.00,0.0036
3264.00,0.0036
3263.00,0.0036
3262.00,0.0035
3261.00,0.0035
3260.00,0.0035
3259.00,0.0035
3258.00,0.0035
3257.00,0.0035
3256.00,0.0035
3255.00,0.0035
3254.00,0.0035
3253.00,0.0035
3252.00,0.0034
3251.00,0.0034
3250.00,0.0034
3249.00,0.0034
3248.00,0.0034
3247.00,0.0034
3246.00,0.0033
3245.00,0.0033
3244.00,0.0033
3243.00,0.0033
3242.00,0.0033
3241.00,0.0033
3240.00,0.0033
3239.00,0.0033
3238.00,0.0033
3237.00,0.0033
3236.00,0.0034
3235.00,0.0034
3234.00,0.0033
3233.00,0.0033
3232.00,0.0033
3231.00,0.0033
3230.00,0.0033
3229.00,0.0033
3228.00,0.0033
3227.00,0.0034
3226.00,0.0034
3225.00,0.0034
3224.00,0.0034
3223.00,0.0034
3222.00,0.0034
3221.00,0.0035
3220.00,0.0035
3219.00,0.0035
3218.00,0.0035
3217.00,0.0035
3216.00,0.0035
3215.00,0.0035
3214.00,0.0035
3213.00,0.0035
3212.00,0.0036
3211.00,0.0036
3210.00,0.0037
3209.00,0.0037
3208.00,0.0038
3207.00,0.0038
3206.00,0.0038
3205.00,0.0038
3204.00,0.0038
3203.00,0.0038
3202.00,0.0038
3201.00,0.0038
3200.00,0.0038
3199.00,0.0038
3198.00,0.0038
3197.00,0.0038
3196.00,0.0039
3195.00,0.0039
3194.00,0.0039
3193.00,0.0039
3192.00,0.0039
3191.00,0.0039
3190.00,0.0039
3189.00,0.0039
3188.00,0.0039
3187.00,0.0039
3186.00,0.0038
3185.00,0.0038
3184.00,0.0038
3183.00,0.0038
3182.00,0.0038
3181.00,0.0038
3180.00,0.0038
3179.00,0.0038
3178.00,0.0038
3177.00,0.0037
3176.00,0.0037
3175.00,0.0037
3174.00,0.0037
3173.00,0.0037
3172.00,0.0036
3171.00,0.0036
3170.00,0.0036
3169.00,0.0036
3168.00,0.0036
3167.00,0.0035
3166.00,0.0035
3165.00,0.0034
3164.00,0.0034
3163.00,0.0034
3162.00,0.0034
3161.00,0.0034
3160.00,0.0034
3159.00,0.0034
3158.00,0.0034
3157.00,0.0034
3156.00,0.0034
3155.00,0.0034
3154.00,0.0034
3153.00,0.0034
3152.00,0.0034
3151.00,0.0035
3150.00,0.0035
3149.00,0.0035
3148.00,0.0034
3147.00,0.0034
3146.00,0.0034
3145.00,0.0034
3144.00,0.0033
3143.00,0.0033
3142.00,0.0033
3141.00,0.0033
3140.00,0.0033
3139.00,0.0033
3138.00,0.0032
3137.00,0.0032
3136.00,0.0031
3135.00,0.0031
3134.00,0.0030
3133.00,0.0030
3132.00,0.0030
3131.00,0.0030
3130.00,0.0030
3129.00,0.0030
3128.00,0.0030
3127.00,0.0030
3126.00,0.0030
3125.00,0.0030
3124.00,0.0030
3123.00,0.0030
3122.00,0.0030
3121.00,0.0030
3120.00,0.0029
3119.00,0.0029
3118.00,0.0029
3117.00,0.0028
3116.00,0.0028
3115.00,0.0028
3114.00,0.0028
3113.00,0.0028
3112.00,0.0028
3111.00,0.0027
3110.00,0.0027
3109.00,0.0027
3108.00,0.0027
3107.00,0.0028
3106.00,0.0028
3105.00,0.0027
3104.00,0.0027
3103.00,0.0026
3102.00,0.0026
3101.00,0.0026
3100.00,0.0026
3099.00,0.0026
3098.00,0.0026
3097.00,0.0026
3096.00,0.0027
3095.00,0.0027
3094.00,0.0027
3093.00,0.0027
3092.00,0.0027
3091.00,0.0027
3090.00,0.0027
3089.00,0.0027
3088.00,0.0027
3087.00,0.0027
3086.00,0.0027
3085.00,0.0026
3084.00,0.0026
3083.00,0.0026
3082.00,0.0026
3081.00,0.0026
3080.00,0.0025
3079.00,0.0025
3078.00,0.0025
3077.00,0.0025
3076.00,0.0026
3075.00,0.0026
3074.00,0.0026
3073.00,0.0026
3072.00,0.0027
3071.00,0.0027
3070.00,0.0027
3069.00,0.0027
3068.00,0.0027
3067.00,0.0028
3066.00,0.0028
3065.00,0.0028
3064.00,0.0028
3063.00,0.0028
3062.00,0.0028
3061.00,0.0029
3060.00,0.0029
3059.00,0.0029
3058.00,0.0029
3057.00,0.0030
3056.00,0.0030
3055.00,0.0030
3054.00,0.0030
3053.00,0.0030
3052.00,0.0030
3051.00,0.0030
3050.00,0.0030
3049.00,0.0031
3048.00,0.0031
3047.00,0.0031
3046.00,0.0032
3045.00,0.0032
3044.00,0.0032
3043.00,0.0032
3042.00,0.0033
3041.00,0.0033
3040.00,0.0033
3039.00,0.0034
3038.00,0.0034
3037.00,0.0035
3036.00,0.0035
3035.00,0.0035
3034.00,0.0035
3033.00,0.0035
3032.00,0.0035
3031.00,0.0035
3030.00,0.0036
3029.00,0.0036
3028.00,0.0037
3027.00,0.0038
3026.00,0.0039
3025.00,0.0040
3024.00,0.0041
3023.00,0.0041
3022.00,0.0042
3021.00,0.0043
3020.00,0.0043
3019.00,0.0044
3018.00,0.0044
3017.00,0.0045
3016.00,0.0046
3015.00,0.0047
3014.00,0.0048
3013.00,0.0049
3012.00,0.0050
3011.00,0.0052
3010.00,0.0053
3009.00,0.0054
3008.00,0.0055
3007.00,0.0056
3006.00,0.0057
3005.00,0.0059
3004.00,0.0061
3003.00,0.0063
3002.00,0.0065
3001.00,0.0067
3000.00,0.0069
2999.00,0.0071
2998.00,0.0074
2997.00,0.0078
2996.00,0.0082
2995.00,0.0086
2994.00,0.0090
2993.00,0.0094
2992.00,0.0099
2991.00,0.0104
2990.00,0.0109
2989.00,0.0116
2988.00,0.0123
2987.00,0.0131
2986.00,0.0140
2985.00,0.0150
2984.00,0.0161
2983.00,0.0174
2982.00,0.0188
2981.00,0.0204
2980.00,0.0223
2979.00,0.0244
2978.00,0.0268
2977.00,0.0296
2976.00,0.0328
2975.00,0.0364
2974.00,0.0404
2973.00,0.0451
2972.00,0.0504
2971.00,0.0564
2970.00,0.0631
2969.00,0.0705
2968.00,0.0784
2967.00,0.0869
2966.00,0.0958
2965.00,0.1049
2964.00,0.1139
2963.00,0.1222
2962.00,0.1296
2961.00,0.1357
2960.00,0.1407
2959.00,0.1448
2958.00,0.1485
2957.00,0.1525
2956.00,0.1572
2955.00,0.1630
2954.00,0.1695
2953.00,0.1763
2952.00,0.1823
2951.00,0.1865
2950.00,0.1877
2949.00,0.1851
2948.00,0.1787
2947.00,0.1691
2946.00,0.1573
2945.00,0.1448
2944.00,0.1329
2943.00,0.1226
2942.00,0.1146
2941.00,0.1092
2940.00,0.1061
2939.00,0.1053
2938.00,0.1065
2937.00,0.1095
2936.00,0.1140
2935.00,0.1201
2934.00,0.1276
2933.00,0.1363
2932.00,0.1461
2931.00,0.1568
2930.00,0.1681
2929.00,0.1798
2928.00,0.1915
2927.00,0.2030
2926.00,0.2141
2925.00,0.2248
2924.00,0.2353
2923.00,0.2456
2922.00,0.2558
2921.00,0.2656
2920.00,0.2742
2919.00,0.2807
2918.00,0.2840
2917.00,0.2834
2916.00,0.2788
2915.00,0.2706
2914.00,0.2602
2913.00,0.2486
2912.00,0.2372
2911.00,0.2266
2910.00,0.2170
2909.00,0.2086
2908.00,0.2009
2907.00,0.1936
2906.00,0.1865
2905.00,0.1795
2904.00,0.1725
2903.00,0.1655
2902.00,0.1585
2901.00,0.1518
2900.00,0.1453
2899.00,0.1391
2898.00,0.1332
2897.00,0.1279
2896.00,0.1231
2895.00,0.1189
2894.00,0.1153
2893.00,0.1124
2892.00,0.1100
2891.00,0.1083
2890.00,0.1070
2889.00,0.1063
2888.00,0.1059
2887.00,0.1059
2886.00,0.1063
2885.00,0.1069
2884.00,0.1081
2883.00,0.1097
2882.00,0.1117
2881.00,0.1141
2880.00,0.1166
2879.00,0.1187
2878.00,0.1201
2877.00,0.1206
2876.00,0.1203
2875.00,0.1196
2874.00,0.1190
2873.00,0.1189
2872.00,0.1195
2871.00,0.1208
2870.00,0.1225
2869.00,0.1242
2868.00,0.1252
2867.00,0.1247
2866.00,0.1222
2865.00,0.1175
2864.00,0.1109
2863.00,0.1035
2862.00,0.0961
2861.00,0.0896
2860.00,0.0846
2859.00,0.0812
2858.00,0.0793
2857.00,0.0786
2856.00,0.0790
2855.00,0.0803
2854.00,0.0821
2853.00,0.0842
2852.00,0.0864
2851.00,0.0884
2850.00,0.0898
2849.00,0.0907
2848.00,0.0913
2847.00,0.0922
2846.00,0.0938
2845.00,0.0966
2844.00,0.1006
2843.00,0.1054
2842.00,0.1107
2841.00,0.1158
2840.00,0.1199
2839.00,0.1223
2838.00,0.1221
2837.00,0.1189
2836.00,0.1127
2835.00,0.1040
2834.00,0.0937
2833.00,0.0828
2832.00,0.0725
2831.00,0.0632
2830.00,0.0554
2829.00,0.0489
2828.00,0.0437
2827.00,0.0395
2826.00,0.0361
2825.00,0.0333
2824.00,0.0309
2823.00,0.0289
2822.00,0.0271
2821.00,0.0257
2820.00,0.0244
2819.00,0.0233
2818.00,0.0223
2817.00,0.0215
2816.00,0.0207
2815.00,0.0201
2814.00,0.0195
2813.00,0.0189
2812.00,0.0183
2811.00,0.0178
2810.00,0.0172
2809.00,0.0166
2808.00,0.0160
2807.00,0.0154
2806.00,0.0148
2805.00,0.0141
2804.00,0.0135
2803.00,0.0129
2802.00,0.0123
2801.00,0.0119
2800.00,0.0115
2799.00,0.0112
2798.00,0.0109
2797.00,0.0107
2796.00,0.0105
2795.00,0.0103
2794.00,0.0100
2793.00,0.0097
2792.00,0.0094
2791.00,0.0091
2790.00,0.0088
2789.00,0.0085
2788.00,0.0082
2787.00,0.0079
2786.00,0.0077
2785.00,0.0074
2784.00,0.0072
2783.00,0.0070
2782.00,0.0067
2781.00,0.0066
2780.00,0.0064
2779.00,0.0063
2778.00,0.0061
2777.00,0.0060
2776.00,0.0059
2775.00,0.0058
2774.00,0.0057
2773.00,0.0056
2772.00,0.0055
2771.00,0.0055
2770.00,0.0055
2769.00,0.0054
2768.00,0.0054
2767.00,0.0053
2766.00,0.0053
2765.00,0.0053
2764.00,0.0053
2763.00,0.0053
2762.00,0.0052
2761.00,0.0052
2760.00,0.0051
2759.00,0.0051
2758.00,0.0050
2757.00,0.0050
2756.00,0.0050
2755.00,0.0050
2754.00,0.0050
2753.00,0.0050
2752.00,0.0049
2751.00,0.0049
2750.00,0.0049
2749.00,0.0049
2748.00,0.0049
2747.00,0.0049
2746.00,0.0050
2745.00,0.0050
2744.00,0.0051
2743.00,0.0052
2742.00,0.0053
2741.00,0.0054
2740.00,0.0055
2739.00,0.0057
2738.00,0.0058
2737.00,0.0059
2736.00,0.0060
2735.00,0.0062
2734.00,0.0063
2733.00,0.0065
2732.00,0.0066
2731.00,0.0068
2730.00,0.0071
2729.00,0.0074
2728.00,0.0076
2727.00,0.0079
2726.00,0.0082
2725.00,0.0083
2724.00,0.0084
2723.00,0.0085
2722.00,0.0084
2721.00,0.0082
2720.00,0.0080
2719.00,0.0077
2718.00,0.0074
2717.00,0.0070
2716.00,0.0068
2715.00,0.0065
2714.00,0.0063
2713.00,0.0061
2712.00,0.0058
2711.00,0.0056
2710.00,0.0055
2709.00,0.0053
2708.00,0.0052
2707.00,0.0051
2706.00,0.0050
2705.00,0.0048
2704.00,0.0047
2703.00,0.0046
2702.00,0.0045
2701.00,0.0044
2700.00,0.0044
2699.00,0.0043
2698.00,0.0043
2697.00,0.0042
2696.00,0.0042
2695.00,0.0042
2694.00,0.0043
2693.00,0.0043
2692.00,0.0043
2691.00,0.0043
2690.00,0.0043
2689.00,0.0043
2688.00,0.0043
2687.00,0.0043
2686.00,0.0043
2685.00,0.0043
2684.00,0.0043
2683.00,0.0043
2682.00,0.0043
2681.00,0.0043
2680.00,0.0044
2679.00,0.0044
2678.00,0.0044
2677.00,0.0044
2676.00,0.0043
2675.00,0.0043
2674.00,0.0043
2673.00,0.0042
2672.00,0.0042
2671.00,0.0042
2670.00,0.0042
2669.00,0.0042
2668.00,0.0042
2667.00,0.0043
2666.00,0.0043
2665.00,0.0044
2664.00,0.0045
2663.00,0.0046
2662.00,0.0046
2661.00,0.0046
2660.00,0.0046
2659.00,0.0046
2658.00,0.0046
2657.00,0.0045
2656.00,0.0045
2655.00,0.0044
2654.00,0.0044
2653.00,0.0043
2652.00,0.0043
2651.00,0.0042
2650.00,0.0042
2649.00,0.0042
2648.00,0.0041
2647.00,0.0041
2646.00,0.0040
2645.00,0.0040
2644.00,0.0040
2643.00,0.0039
2642.00,0.0038
2641.00,0.0038
2640.00,0.0037
2639.00,0.0037
2638.00,0.0037
2637.00,0.0037
2636.00,0.0037
2635.00,0.0037
2634.00,0.0037
2633.00,0.0037
2632.00,0.0037
2631.00,0.0037
2630.00,0.0037
2629.00,0.0038
2628.00,0.0038
2627.00,0.0038
2626.00,0.0038
2625.00,0.0038
2624.00,0.0038
2623.00,0.0038
2622.00,0.0038
2621.00,0.0038
2620.00,0.0038
2619.00,0.0039
2618.00,0.0039
2617.00,0.0038
2616.00,0.0038
2615.00,0.0038
2614.00,0.0038
2613.00,0.0038
2612.00,0.0038
2611.00,0.0037
2610.00,0.0036
2609.00,0.0035
2608.00,0.0034
2607.00,0.0033
2606.00,0.0032
2605.00,0.0031
2604.00,0.0031
2603.00,0.0030
2602.00,0.0030
2601.00,0.0030
2600.00,0.0030
2599.00,0.0031
2598.00,0.0031
2597.00,0.0032
2596.00,0.0031
2595.00,0.0031
2594.00,0.0031
2593.00,0.0031
2592.00,0.0031
2591.00,0.0031
2590.00,0.0031
2589.00,0.0031
2588.00,0.0032
2587.00,0.0033
2586.00,0.0035
2585.00,0.0036
2584.00,0.0036
2583.00,0.0037
2582.00,0.0037
2581.00,0.0038
2580.00,0.0037
2579.00,0.0037
2578.00,0.0036
2577.00,0.0035
2576.00,0.0033
2575.00,0.0032
2574.00,0.0030
2573.00,0.0029
2572.00,0.0028
2571.00,0.0028
2570.00,0.0027
2569.00,0.0026
2568.00,0.0026
2567.00,0.0025
2566.00,0.0024
2565.00,0.0023
2564.00,0.0023
2563.00,0.0023
2562.00,0.0023
2561.00,0.0023
2560.00,0.0023
2559.00,0.0022
2558.00,0.0022
2557.00,0.0021
2556.00,0.0021
2555.00,0.0020
2554.00,0.0020
2553.00,0.0019
2552.00,0.0019
2551.00,0.0018
2550.00,0.0018
2549.00,0.0018
2548.00,0.0018
2547.00,0.0018
2546.00,0.0018
2545.00,0.0019
2544.00,0.0019
2543.00,0.0018
2542.00,0.0017
2541.00,0.0017
2540.00,0.0016
2539.00,0.0016
2538.00,0.0016
2537.00,0.0015
2536.00,0.0015
2535.00,0.0014
2534.00,0.0014
2533.00,0.0014
2532.00,0.0014
2531.00,0.0014
2530.00,0.0014
2529.00,0.0014
2528.00,0.0014
2527.00,0.0013
2526.00,0.0013
2525.00,0.0013
2524.00,0.0013
2523.00,0.0013
2522.00,0.0012
2521.00,0.0011
2520.00,0.0011
2519.00,0.0010
2518.00,0.0011
2517.00,0.0011
2516.00,0.0011
2515.00,0.0010
2514.00,0.0010
2513.00,0.0010
2512.00,0.0011
2511.00,0.0011
2510.00,0.0011
2509.00,0.0011
2508.00,0.0011
2507.00,0.0010
2506.00,0.0010
2505.00,0.0010
2504.00,0.0010
2503.00,0.0009
2502.00,0.0009
2501.00,0.0009
2500.00,0.0009
2499.00,0.0009
2498.00,0.0008
2497.00,0.0009
2496.00,0.0009
2495.00,0.0009
2494.00,0.0009
2493.00,0.0009
2492.00,0.0009
2491.00,0.0010
2490.00,0.0009
2489.00,0.0009
2488.00,0.0009
2487.00,0.0009
2486.00,0.0009
2485.00,0.0009
2484.00,0.0009
2483.00,0.0009
2482.00,0.0009
2481.00,0.0009
2480.00,0.0010
2479.00,0.0010
2478.00,0.0009
2477.00,0.0008
2476.00,0.0008
2475.00,0.0008
2474.00,0.0008
2473.00,0.0008
2472.00,0.0008
2471.00,0.0008
2470.00,0.0008
2469.00,0.0009
2468.00,0.0009
2467.00,0.0009
2466.00,0.0009
2465.00,0.0009
2464.00,0.0010
2463.00,0.0010
2462.00,0.0010
2461.00,0.0010
2460.00,0.0010
2459.00,0.0011
2458.00,0.0010
2457.00,0.0010
2456.00,0.0009
2455.00,0.0009
2454.00,0.0009
2453.00,0.0009
2452.00,0.0010
2451.00,0.0010
2450.00,0.0011
2449.00,0.0011
2448.00,0.0011
2447.00,0.0011
2446.00,0.0011
2445.00,0.0011
2444.00,0.0010
2443.00,0.0010
2442.00,0.0009
2441.00,0.0009
2440.00,0.0009
2439.00,0.0009
2438.00,0.0009
2437.00,0.0010
2436.00,0.0010
2435.00,0.0010
2434.00,0.0010
2433.00,0.0011
2432.00,0.0011
2431.00,0.0012
2430.00,0.0012
2429.00,0.0012
2428.00,0.0012
2427.00,0.0011
2426.00,0.0011
2425.00,0.0011
2424.00,0.0011
2423.00,0.0011
2422.00,0.0011
2421.00,0.0010
2420.00,0.0010
2419.00,0.0009
2418.00,0.0008
2417.00,0.0008
2416.00,0.0008
2415.00,0.0008
2414.00,0.0008
2413.00,0.0008
2412.00,0.0009
2411.00,0.0009
2410.00,0.0009
2409.00,0.0009
2408.00,0.0009
2407.00,0.0008
2406.00,0.0007
2405.00,0.0007
2404.00,0.0007
2403.00,0.0007
2402.00,0.0007
2401.00,0.0007
2400.00,0.0007
2399.00,0.0007
2398.00,0.0007
2397.00,0.0007
2396.00,0.0007
2395.00,0.0007
2394.00,0.0007
2393.00,0.0007
2392.00,0.0007
2391.00,0.0007
2390.00,0.0006
2389.00,0.0006
2388.00,0.0005
2387.00,0.0005
2386.00,0.0005
2385.00,0.0004
2384.00,0.0004
2383.00,0.0003
2382.00,0.0002
2381.00,0.0001
2380.00,0.0001
2379.00,0.0001
2378.00,0.0001
2377.00,0.0002
2376.00,0.0002
2375.00,0.0002
2374.00,0.0001
2373.00,0.0001
2372.00,0.0000
2371.00,-0.0001
2370.00,-0.0001
2369.00,-0.0002
2368.00,-0.0002
2367.00,-0.0002
2366.00,-0.0002
2365.00,-0.0001
2364.00,0.0000
2363.00,0.0000
2362.00,0.0000
2361.00,0.0000
2360.00,0.0001
2359.00,0.0001
2358.00,0.0001
2357.00,0.0001
2356.00,0.0001
2355.00,0.0001
2354.00,0.0001
2353.00,0.0001
2352.00,0.0000
2351.00,0.0000
2350.00,0.0001
2349.00,0.0002
2348.00,0.0003
2347.00,0.0003
2346.00,0.0003
2345.00,0.0003
2344.00,0.0003
2343.00,0.0004
2342.00,0.0005
2341.00,0.0005
2340.00,0.0005
2339.00,0.0005
2338.00,0.0005
2337.00,0.0005
2336.00,0.0006
2335.00,0.0006
2334.00,0.0006
2333.00,0.0006
2332.00,0.0005
2331.00,0.0005
2330.00,0.0004
2329.00,0.0005
2328.00,0.0007
2327.00,0.0010
2326.00,0.0014
2325.00,0.0018
2324.00,0.0020
2323.00,0.0019
2322.00,0.0017
2321.00,0.0015
2320.00,0.0013
2319.00,0.0013
2318.00,0.0013
2317.00,0.0012
2316.00,0.0011
2315.00,0.0010
2314.00,0.0009
2313.00,0.0008
2312.00,0.0008
2311.00,0.0007
2310.00,0.0006
2309.00,0.0006
2308.00,0.0006
2307.00,0.0006
2306.00,0.0007
2305.00,0.0007
2304.00,0.0008
2303.00,0.0009
2302.00,0.0010
2301.00,0.0010
2300.00,0.0011
2299.00,0.0010
2298.00,0.0010
2297.00,0.0010
2296.00,0.0010
2295.00,0.0012
2294.00,0.0013
2293.00,0.0015
2292.00,0.0016
2291.00,0.0016
2290.00,0.0016
2289.00,0.0016
2288.00,0.0016
2287.00,0.0017
2286.00,0.0017
2285.00,0.0017
2284.00,0.0016
2283.00,0.0015
2282.00,0.0015
2281.00,0.0014
2280.00,0.0013
2279.00,0.0013
2278.00,0.0012
2277.00,0.0012
2276.00,0.0012
2275.00,0.0013
2274.00,0.0013
2273.00,0.0012
2272.00,0.0012
2271.00,0.0011
2270.00,0.0011
2269.00,0.0011
2268.00,0.0012
2267.00,0.0012
2266.00,0.0011
2265.00,0.0009
2264.00,0.0008
2263.00,0.0008
2262.00,0.0009
2261.00,0.0011
2260.00,0.0013
2259.00,0.0013
2258.00,0.0013
2257.00,0.0012
2256.00,0.0012
2255.00,0.0011
2254.00,0.0011
2253.00,0.0010
2252.00,0.0010
2251.00,0.0009
2250.00,0.0009
2249.00,0.0009
2248.00,0.0009
2247.00,0.0009
2246.00,0.0008
2245.00,0.0007
2244.00,0.0007
2243.00,0.0007
2242.00,0.0007
2241.00,0.0008
2240.00,0.0007
2239.00,0.0007
2238.00,0.0006
2237.00,0.0005
2236.00,0.0005
2235.00,0.0006
2234.00,0.0008
2233.00,0.0010
2232.00,0.0012
2231.00,0.0012
2230.00,0.0011
2229.00,0.0009
2228.00,0.0008
2227.00,0.0007
2226.00,0.0007
2225.00,0.0007
2224.00,0.0007
2223.00,0.0007
2222.00,0.0006
2221.00,0.0006
2220.00,0.0006
2219.00,0.0006
2218.00,0.0006
2217.00,0.0006
2216.00,0.0006
2215.00,0.0006
2214.00,0.0005
2213.00,0.0005
2212.00,0.0006
2211.00,0.0006
2210.00,0.0005
2209.00,0.0005
2208.00,0.0004
2207.00,0.0005
2206.00,0.0005
2205.00,0.0005
2204.00,0.0004
2203.00,0.0003
2202.00,0.0002
2201.00,0.0003
2200.00,0.0004
2199.00,0.0006
2198.00,0.0008
2197.00,0.0009
2196.00,0.0010
2195.00,0.0010
2194.00,0.0009
2193.00,0.0009
2192.00,0.0009
2191.00,0.0010
2190.00,0.0011
2189.00,0.0013
2188.00,0.0015
2187.00,0.0014
2186.00,0.0013
2185.00,0.0012
2184.00,0.0011
2183.00,0.0009
2182.00,0.0007
2181.00,0.0005
2180.00,0.0003
2179.00,0.0003
2178.00,0.0003
2177.00,0.0003
2176.00,0.0002
2175.00,0.0002
2174.00,0.0003
2173.00,0.0004
2172.00,0.0006
2171.00,0.0008
2170.00,0.0010
2169.00,0.0011
2168.00,0.0013
2167.00,0.0013
2166.00,0.0013
2165.00,0.0012
2164.00,0.0013
2163.00,0.0016
2162.00,0.0020
2161.00,0.0018
2160.00,0.0009
2159.00,-0.0007
2158.00,-0.0020
2157.00,-0.0027
2156.00,-0.0027
2155.00,-0.0025
2154.00,-0.0021
2153.00,-0.0017
2152.00,-0.0014
2151.00,-0.0012
2150.00,-0.0010
2149.00,-0.0009
2148.00,-0.0008
2147.00,-0.0009
2146.00,-0.0011
2145.00,-0.0011
2144.00,-0.0010
2143.00,-0.0007
2142.00,-0.0006
2141.00,-0.0006
2140.00,-0.0008
2139.00,-0.0011
2138.00,-0.0013
2137.00,-0.0014
2136.00,-0.0015
2135.00,-0.0017
2134.00,-0.0019
2133.00,-0.0020
2132.00,-0.0020
2131.00,-0.0017
2130.00,-0.0014
2129.00,-0.0011
2128.00,-0.0009
2127.00,-0.0008
2126.00,-0.0008
2125.00,-0.0008
2124.00,-0.0009
2123.00,-0.0010
2122.00,-0.0009
2121.00,-0.0007
2120.00,-0.0005
2119.00,-0.0003
2118.00,-0.0001
2117.00,-0.0000
2116.00,0.0001
2115.00,0.0001
2114.00,0.0001
2113.00,0.0001
2112.00,0.0002
2111.00,0.0003
2110.00,0.0003
2109.00,0.0003
2108.00,0.0002
2107.00,0.0001
2106.00,0.0001
2105.00,0.0001
2104.00,0.0002
2103.00,0.0002
2102.00,0.0003
2101.00,0.0003
2100.00,0.0003
2099.00,0.0003
2098.00,0.0002
2097.00,0.0001
2096.00,-0.0001
2095.00,-0.0002
2094.00,-0.0002
2093.00,-0.0002
2092.00,-0.0001
2091.00,-0.0000
2090.00,-0.0000
2089.00,-0.0001
2088.00,-0.0001
2087.00,-0.0000
2086.00,-0.0000
2085.00,-0.0001
2084.00,-0.0002
2083.00,-0.0002
2082.00,-0.0002
2081.00,0.0000
2080.00,0.0002
2079.00,0.0003
2078.00,0.0004
2077.00,0.0004
2076.00,0.0004
2075.00,0.0004
2074.00,0.0004
2073.00,0.0003
2072.00,0.0002
2071.00,0.0001
2070.00,0.0000
2069.00,-0.0000
2068.00,-0.0000
2067.00,-0.0001
2066.00,-0.0003
2065.00,-0.0004
2064.00,-0.0004
2063.00,-0.0003
2062.00,-0.0001
2061.00,0.0002
2060.00,0.0004
2059.00,0.0004
2058.00,0.0004
2057.00,0.0004
2056.00,0.0004
2055.00,0.0004
2054.00,0.0005
2053.00,0.0007
2052.00,0.0010
2051.00,0.0012
2050.00,0.0010
2049.00,0.0007
2048.00,0.0005
2047.00,0.0003
2046.00,0.0002
2045.00,0.0000
2044.00,0.0000
2043.00,0.0002
2042.00,0.0004
2041.00,0.0005
2040.00,0.0003
2039.00,-0.0000
2038.00,-0.0004
2037.00,-0.0006
2036.00,-0.0006
2035.00,-0.0007
2034.00,-0.0007
2033.00,-0.0007
2032.00,-0.0007
2031.00,-0.0007
2030.00,-0.0008
2029.00,-0.0009
2028.00,-0.0009
2027.00,-0.0010
2026.00,-0.0011
2025.00,-0.0013
2024.00,-0.0016
2023.00,-0.0017
2022.00,-0.0018
2021.00,-0.0018
2020.00,-0.0017
2019.00,-0.0017
2018.00,-0.0018
2017.00,-0.0017
2016.00,-0.0016
2015.00,-0.0014
2014.00,-0.0013
2013.00,-0.0012
2012.00,-0.0011
2011.00,-0.0010
2010.00,-0.0009
2009.00,-0.0011
2008.00,-0.0014
2007.00,-0.0016
2006.00,-0.0017
2005.00,-0.0015
2004.00,-0.0012
2003.00,-0.0011
2002.00,-0.0010
2001.00,-0.0010
2000.00,-0.0009
1999.00,-0.0009
1998.00,-0.0008
1997.00,-0.0009
1996.00,-0.0011
1995.00,-0.0013
1994.00,-0.0013
1993.00,-0.0013
1992.00,-0.0012
1991.00,-0.0011
1990.00,-0.0010
1989.00,-0.0008
1988.00,-0.0006
1987.00,-0.0005
1986.00,-0.0006
1985.00,-0.0006
1984.00,-0.0005
1983.00,-0.0001
1982.00,0.0004
1981.00,0.0009
1980.00,0.0010
1979.00,0.0005
1978.00,-0.0002
1977.00,-0.0009
1976.00,-0.0012
1975.00,-0.0013
1974.00,-0.0013
1973.00,-0.0014
1972.00,-0.0015
1971.00,-0.0015
1970.00,-0.0015
1969.00,-0.0015
1968.00,-0.0015
1967.00,-0.0016
1966.00,-0.0017
1965.00,-0.0018
1964.00,-0.0016
1963.00,-0.0014
1962.00,-0.0012
1961.00,-0.0012
1960.00,-0.0015
1959.00,-0.0019
1958.00,-0.0022
1957.00,-0.0022
1956.00,-0.0020
1955.00,-0.0018
1954.00,-0.0016
1953.00,-0.0016
1952.00,-0.0016
1951.00,-0.0017
1950.00,-0.0017
1949.00,-0.0018
1948.00,-0.0020
1947.00,-0.0021
1946.00,-0.0021
1945.00,-0.0019
1944.00,-0.0017
1943.00,-0.0015
1942.00,-0.0014
1941.00,-0.0013
1940.00,-0.0012
1939.00,-0.0011
1938.00,-0.0011
1937.00,-0.0010
1936.00,-0.0010
1935.00,-0.0010
1934.00,-0.0010
1933.00,-0.0009
1932.00,-0.0009
1931.00,-0.0009
1930.00,-0.0010
1929.00,-0.0010
1928.00,-0.0010
1927.00,-0.0009
1926.00,-0.0009
1925.00,-0.0008
1924.00,-0.0007
1923.00,-0.0006
1922.00,-0.0006
1921.00,-0.0005
1920.00,-0.0004
1919.00,-0.0005
1918.00,-0.0005
1917.00,-0.0005
1916.00,-0.0004
1915.00,-0.0004
1914.00,-0.0004
1913.00,-0.0004
1912.00,-0.0004
1911.00,-0.0004
1910.00,-0.0005
1909.00,-0.0005
1908.00,-0.0005
1907.00,-0.0006
1906.00,-0.0006
1905.00,-0.0006
1904.00,-0.0005
1903.00,-0.0004
1902.00,-0.0003
1901.00,-0.0002
1900.00,-0.0002
1899.00,-0.0002
1898.00,-0.0002
1897.00,-0.0002
1896.00,-0.0002
1895.00,-0.0002
1894.00,-0.0002
1893.00,-0.0001
1892.00,0.0000
1891.00,0.0000
1890.00,0.0000
1889.00,-0.0000
1888.00,-0.0000
1887.00,-0.0001
1886.00,-0.0002
1885.00,-0.0002
1884.00,-0.0003
1883.00,-0.0003
1882.00,-0.0003
1881.00,-0.0003
1880.00,-0.0003
1879.00,-0.0002
1878.00,-0.0002
1877.00,-0.0001
1876.00,-0.0001
1875.00,-0.0001
1874.00,-0.0001
1873.00,-0.0002
1872.00,-0.0002
1871.00,-0.0002
1870.00,-0.0002
1869.00,-0.0000
1868.00,0.0001
1867.00,0.0001
1866.00,0.0000
1865.00,-0.0000
1864.00,-0.0001
1863.00,-0.0001
1862.00,-0.0002
1861.00,-0.0003
1860.00,-0.0003
1859.00,-0.0002
1858.00,-0.0001
1857.00,-0.0001
1856.00,-0.0000
1855.00,0.0000
1854.00,0.0000
1853.00,0.0000
1852.00,-0.0000
1851.00,-0.0001
1850.00,-0.0001
1849.00,-0.0000
1848.00,0.0000
1847.00,0.0001
1846.00,0.0001
1845.00,0.0001
1844.00,0.0001
1843.00,0.0001
1842.00,0.0000
1841.00,-0.0000
1840.00,-0.0001
1839.00,-0.0001
1838.00,-0.0001
1837.00,0.0000
1836.00,0.0001
1835.00,0.0001
1834.00,0.0001
1833.00,0.0000
1832.00,0.0001
1831.00,0.0001
1830.00,0.0002
1829.00,0.0003
1828.00,0.0004
1827.00,0.0004
1826.00,0.0004
1825.00,0.0004
1824.00,0.0004
1823.00,0.0003
1822.00,0.0002
1821.00,0.0002
1820.00,0.0001
1819.00,0.0000
1818.00,-0.0000
1817.00,-0.0001
1816.00,-0.0001
1815.00,-0.0001
1814.00,-0.0000
1813.00,0.0000
1812.00,0.0001
1811.00,0.0002
1810.00,0.0002
1809.00,0.0002
1808.00,0.0002
1807.00,0.0003
1806.00,0.0003
1805.00,0.0003
1804.00,0.0004
1803.00,0.0004
1802.00,0.0004
1801.00,0.0004
1800.00,0.0004
1799.00,0.0004
1798.00,0.0004
1797.00,0.0004
1796.00,0.0004
1795.00,0.0004
1794.00,0.0004
1793.00,0.0004
1792.00,0.0004
1791.00,0.0004
1790.00,0.0005
1789.00,0.0005
1788.00,0.0005
1787.00,0.0005
1786.00,0.0005
1785.00,0.0005
1784.00,0.0006
1783.00,0.0006
1782.00,0.0005
1781.00,0.0005
1780.00,0.0005
1779.00,0.0005
1778.00,0.0005
1777.00,0.0005
1776.00,0.0005
1775.00,0.0005
1774.00,0.0005
1773.00,0.0005
1772.00,0.0006
1771.00,0.0007
1770.00,0.0007
1769.00,0.0008
1768.00,0.0009
1767.00,0.0009
1766.00,0.0009
1765.00,0.0008
1764.00,0.0008
1763.00,0.0008
1762.00,0.0008
1761.00,0.0008
1760.00,0.0008
1759.00,0.0008
1758.00,0.0009
1757.00,0.0009
1756.00,0.0009
1755.00,0.0010
1754.00,0.0010
1753.00,0.0010
1752.00,0.0011
1751.00,0.0011
1750.00,0.0012
1749.00,0.0013
1748.00,0.0013
1747.00,0.0014
1746.00,0.0014
1745.00,0.0014
1744.00,0.0014
1743.00,0.0014
1742.00,0.0014
1741.00,0.0014
1740.00,0.0014
1739.00,0.0014
1738.00,0.0014
1737.00,0.0014
1736.00,0.0015
1735.00,0.0015
1734.00,0.0015
1733.00,0.0014
1732.00,0.0014
1731.00,0.0015
1730.00,0.0015
1729.00,0.0016
1728.00,0.0017
1727.00,0.0017
1726.00,0.0017
1725.00,0.0017
1724.00,0.0018
1723.00,0.0018
1722.00,0.0018
1721.00,0.0019
1720.00,0.0019
1719.00,0.0019
1718.00,0.0019
1717.00,0.0019
1716.00,0.0018
1715.00,0.0018
1714.00,0.0018
1713.00,0.0018
1712.00,0.0018
1711.00,0.0018
1710.00,0.0018
1709.00,0.0018
1708.00,0.0019
1707.00,0.0019
1706.00,0.0020
1705.00,0.0020
1704.00,0.0021
1703.00,0.0021
1702.00,0.0021
1701.00,0.0020
1700.00,0.0020
1699.00,0.0020
1698.00,0.0021
1697.00,0.0021
1696.00,0.0022
1695.00,0.0023
1694.00,0.0023
1693.00,0.0024
1692.00,0.0024
1691.00,0.0025
1690.00,0.0026
1689.00,0.0027
1688.00,0.0028
1687.00,0.0028
1686.00,0.0027
1685.00,0.0027
1684.00,0.0028
1683.00,0.0029
1682.00,0.0030
1681.00,0.0031
1680.00,0.0031
1679.00,0.0032
1678.00,0.0032
1677.00,0.0032
1676.00,0.0033
1675.00,0.0034
1674.00,0.0035
1673.00,0.0036
1672.00,0.0037
1671.00,0.0038
1670.00,0.0039
1669.00,0.0039
1668.00,0.0039
1667.00,0.0039
1666.00,0.0039
1665.00,0.0039
1664.00,0.0039
1663.00,0.0040
1662.00,0.0040
1661.00,0.0040
1660.00,0.0041
1659.00,0.0041
1658.00,0.0042
1657.00,0.0043
1656.00,0.0044
1655.00,0.0044
1654.00,0.0046
1653.00,0.0048
1652.00,0.0049
1651.00,0.0049
1650.00,0.0049
1649.00,0.0050
1648.00,0.0052
1647.00,0.0054
1646.00,0.0055
1645.00,0.0056
1644.00,0.0056
1643.00,0.0056
1642.00,0.0055
1641.00,0.0056
1640.00,0.0056
1639.00,0.0057
1638.00,0.0057
1637.00,0.0058
1636.00,0.0058
1635.00,0.0057
1634.00,0.0056
1633.00,0.0056
1632.00,0.0055
1631.00,0.0055
1630.00,0.0055
1629.00,0.0054
1628.00,0.0054
1627.00,0.0053
1626.00,0.0053
1625.00,0.0052
1624.00,0.0052
1623.00,0.0051
1622.00,0.0051
1621.00,0.0050
1620.00,0.0050
1619.00,0.0050
1618.00,0.0049
1617.00,0.0049
1616.00,0.0049
1615.00,0.0049
1614.00,0.0049
1613.00,0.0049
1612.00,0.0050
1611.00,0.0050
1610.00,0.0050
1609.00,0.0049
1608.00,0.0049
1607.00,0.0048
1606.00,0.0048
1605.00,0.0048
1604.00,0.0049
1603.00,0.0049
1602.00,0.0049
1601.00,0.0048
1600.00,0.0048
1599.00,0.0048
1598.00,0.0048
1597.00,0.0048
1596.00,0.0048
1595.00,0.0047
1594.00,0.0047
1593.00,0.0047
1592.00,0.0047
1591.00,0.0046
1590.00,0.0046
1589.00,0.0047
1588.00,0.0048
1587.00,0.0049
1586.00,0.0049
1585.00,0.0051
1584.00,0.0052
1583.00,0.0054
1582.00,0.0056
1581.00,0.0057
1580.00,0.0059
1579.00,0.0060
1578.00,0.0060
1577.00,0.0061
1576.00,0.0062
1575.00,0.0061
1574.00,0.0061
1573.00,0.0060
1572.00,0.0060
1571.00,0.0059
1570.00,0.0058
1569.00,0.0058
1568.00,0.0058
1567.00,0.0058
1566.00,0.0057
1565.00,0.0057
1564.00,0.0058
1563.00,0.0057
1562.00,0.0057
1561.00,0.0057
1560.00,0.0056
1559.00,0.0056
1558.00,0.0055
1557.00,0.0056
1556.00,0.0057
1555.00,0.0058
1554.00,0.0060
1553.00,0.0061
1552.00,0.0062
1551.00,0.0063
1550.00,0.0063
1549.00,0.0064
1548.00,0.0066
1547.00,0.0067
1546.00,0.0069
1545.00,0.0071
1544.00,0.0072
1543.00,0.0073
1542.00,0.0073
1541.00,0.0073
1540.00,0.0072
1539.00,0.0069
1538.00,0.0066
1537.00,0.0064
1536.00,0.0062
1535.00,0.0060
1534.00,0.0058
1533.00,0.0055
1532.00,0.0053
1531.00,0.0051
1530.00,0.0051
1529.00,0.0050
1528.00,0.0051
1527.00,0.0051
1526.00,0.0050
1525.00,0.0050
1524.00,0.0051
1523.00,0.0051
1522.00,0.0050
1521.00,0.0050
1520.00,0.0050
1519.00,0.0050
1518.00,0.0050
1517.00,0.0051
1516.00,0.0051
1515.00,0.0052
1514.00,0.0052
1513.00,0.0053
1512.00,0.0054
1511.00,0.0054
1510.00,0.0055
1509.00,0.0056
1508.00,0.0057
1507.00,0.0058
1506.00,0.0058
1505.00,0.0059
1504.00,0.0061
1503.00,0.0063
1502.00,0.0065
1501.00,0.0067
1500.00,0.0069
1499.00,0.0071
1498.00,0.0073
1497.00,0.0077
1496.00,0.0080
1495.00,0.0083
1494.00,0.0085
1493.00,0.0089
1492.00,0.0092
1491.00,0.0096
1490.00,0.0100
1489.00,0.0105
1488.00,0.0110
1487.00,0.0115
1486.00,0.0120
1485.00,0.0127
1484.00,0.0134
1483.00,0.0141
1482.00,0.0151
1481.00,0.0162
1480.00,0.0175
1479.00,0.0187
1478.00,0.0203
1477.00,0.0223
1476.00,0.0250
1475.00,0.0281
1474.00,0.0322
1473.00,0.0379
1472.00,0.0445
1471.00,0.0509
1470.00,0.0571
1469.00,0.0638
1468.00,0.0709
1467.00,0.0788
1466.00,0.0876
1465.00,0.0970
1464.00,0.1052
1463.00,0.1108
1462.00,0.1143
1461.00,0.1165
1460.00,0.1180
1459.00,0.1187
1458.00,0.1193
1457.00,0.1195
1456.00,0.1191
1455.00,0.1181
1454.00,0.1168
1453.00,0.1148
1452.00,0.1120
1451.00,0.1080
1450.00,0.1026
1449.00,0.0955
1448.00,0.0865
1447.00,0.0772
1446.00,0.0688
1445.00,0.0616
1444.00,0.0554
1443.00,0.0504
1442.00,0.0466
1441.00,0.0440
1440.00,0.0425
1439.00,0.0419
1438.00,0.0421
1437.00,0.0424
1436.00,0.0415
1435.00,0.0392
1434.00,0.0357
1433.00,0.0314
1432.00,0.0270
1431.00,0.0231
1430.00,0.0200
1429.00,0.0177
1428.00,0.0161
1427.00,0.0151
1426.00,0.0144
1425.00,0.0138
1424.00,0.0133
1423.00,0.0129
1422.00,0.0128
1421.00,0.0125
1420.00,0.0122
1419.00,0.0119
1418.00,0.0117
1417.00,0.0114
1416.00,0.0112
1415.00,0.0110
1414.00,0.0109
1413.00,0.0107
1412.00,0.0105
1411.00,0.0104
1410.00,0.0103
1409.00,0.0102
1408.00,0.0102
1407.00,0.0102
1406.00,0.0103
1405.00,0.0103
1404.00,0.0103
1403.00,0.0103
1402.00,0.0105
1401.00,0.0105
1400.00,0.0105
1399.00,0.0107
1398.00,0.0110
1397.00,0.0112
1396.00,0.0114
1395.00,0.0117
1394.00,0.0122
1393.00,0.0126
1392.00,0.0131
1391.00,0.0139
1390.00,0.0149
1389.00,0.0164
1388.00,0.0185
1387.00,0.0216
1386.00,0.0257
1385.00,0.0313
1384.00,0.0391
1383.00,0.0502
1382.00,0.0654
1381.00,0.0851
1380.00,0.1095
1379.00,0.1371
1378.00,0.1635
1377.00,0.1824
1376.00,0.1881
1375.00,0.1777
1374.00,0.1544
1373.00,0.1267
1372.00,0.1017
1371.00,0.0812
1370.00,0.0651
1369.00,0.0530
1368.00,0.0446
1367.00,0.0394
1366.00,0.0366
1365.00,0.0355
1364.00,0.0357
1363.00,0.0371
1362.00,0.0392
1361.00,0.0414
1360.00,0.0431
1359.00,0.0436
1358.00,0.0427
1357.00,0.0402
1356.00,0.0368
1355.00,0.0328
1354.00,0.0291
1353.00,0.0258
1352.00,0.0231
1351.00,0.0210
1350.00,0.0192
1349.00,0.0178
1348.00,0.0166
1347.00,0.0155
1346.00,0.0146
1345.00,0.0139
1344.00,0.0133
1343.00,0.0128
1342.00,0.0124
1341.00,0.0121
1340.00,0.0118
1339.00,0.0116
1338.00,0.0114
1337.00,0.0114
1336.00,0.0114
1335.00,0.0116
1334.00,0.0119
1333.00,0.0123
1332.00,0.0128
1331.00,0.0131
1330.00,0.0132
1329.00,0.0130
1328.00,0.0127
1327.00,0.0122
1326.00,0.0116
1325.00,0.0110
1324.00,0.0105
1323.00,0.0101
1322.00,0.0097
1321.00,0.0094
1320.00,0.0091
1319.00,0.0090
1318.00,0.0088
1317.00,0.0087
1316.00,0.0086
1315.00,0.0085
1314.00,0.0084
1313.00,0.0084
1312.00,0.0085
1311.00,0.0087
1310.00,0.0091
1309.00,0.0097
1308.00,0.0106
1307.00,0.0116
1306.00,0.0126
1305.00,0.0133
1304.00,0.0136
1303.00,0.0133
1302.00,0.0129
1301.00,0.0125
1300.00,0.0123
1299.00,0.0123
1298.00,0.0124
1297.00,0.0124
1296.00,0.0124
1295.00,0.0121
1294.00,0.0117
1293.00,0.0112
1292.00,0.0107
1291.00,0.0102
1290.00,0.0097
1289.00,0.0093
1288.00,0.0090
1287.00,0.0087
1286.00,0.0085
1285.00,0.0083
1284.00,0.0082
1283.00,0.0081
1282.00,0.0079
1281.00,0.0078
1280.00,0.0077
1279.00,0.0076
1278.00,0.0075
1277.00,0.0075
1276.00,0.0074
1275.00,0.0075
1274.00,0.0075
1273.00,0.0075
1272.00,0.0075
1271.00,0.0076
1270.00,0.0078
1269.00,0.0080
1268.00,0.0082
1267.00,0.0085
1266.00,0.0087
1265.00,0.0091
1264.00,0.0094
1263.00,0.0098
1262.00,0.0101
1261.00,0.0105
1260.00,0.0109
1259.00,0.0114
1258.00,0.0120
1257.00,0.0124
1256.00,0.0125
1255.00,0.0123
1254.00,0.0116
1253.00,0.0108
1252.00,0.0100
1251.00,0.0093
1250.00,0.0088
1249.00,0.0084
1248.00,0.0081
1247.00,0.0079
1246.00,0.0077
1245.00,0.0076
1244.00,0.0074
1243.00,0.0073
1242.00,0.0072
1241.00,0.0072
1240.00,0.0071
1239.00,0.0071
1238.00,0.0070
1237.00,0.0070
1236.00,0.0070
1235.00,0.0070
1234.00,0.0070
1233.00,0.0070
1232.00,0.0070
1231.00,0.0072
1230.00,0.0073
1229.00,0.0075
1228.00,0.0076
1227.00,0.0077
1226.00,0.0079
1225.00,0.0081
1224.00,0.0084
1223.00,0.0088
1222.00,0.0091
1221.00,0.0094
1220.00,0.0096
1219.00,0.0097
1218.00,0.0097
1217.00,0.0095
1216.00,0.0092
1215.00,0.0090
1214.00,0.0087
1213.00,0.0084
1212.00,0.0082
1211.00,0.0080
1210.00,0.0078
1209.00,0.0076
1208.00,0.0075
1207.00,0.0074
1206.00,0.0073
1205.00,0.0072
1204.00,0.0070
1203.00,0.0070
1202.00,0.0069
1201.00,0.0069
1200.00,0.0069
1199.00,0.0069
1198.00,0.0069
1197.00,0.0069
1196.00,0.0070
1195.00,0.0070
1194.00,0.0070
1193.00,0.0071
1192.00,0.0071
1191.00,0.0071
1190.00,0.0071
1189.00,0.0070
1188.00,0.0070
1187.00,0.0070
1186.00,0.0071
1185.00,0.0071
1184.00,0.0072
1183.00,0.0073
1182.00,0.0075
1181.00,0.0077
1180.00,0.0081
1179.00,0.0086
1178.00,0.0091
1177.00,0.0098
1176.00,0.0108
1175.00,0.0121
1174.00,0.0138
1173.00,0.0161
1172.00,0.0188
1171.00,0.0217
1170.00,0.0245
1169.00,0.0269
1168.00,0.0283
1167.00,0.0287
1166.00,0.0281
1165.00,0.0268
1164.00,0.0253
1163.00,0.0238
1162.00,0.0225
1161.00,0.0214
1160.00,0.0205
1159.00,0.0199
1158.00,0.0194
1157.00,0.0191
1156.00,0.0189
1155.00,0.0188
1154.00,0.0187
1153.00,0.0185
1152.00,0.0182
1151.00,0.0176
1150.00,0.0168
1149.00,0.0158
1148.00,0.0149
1147.00,0.0140
1146.00,0.0132
1145.00,0.0125
1144.00,0.0118
1143.00,0.0111
1142.00,0.0106
1141.00,0.0101
1140.00,0.0097
1139.00,0.0093
1138.00,0.0089
1137.00,0.0086
1136.00,0.0083
1135.00,0.0081
1134.00,0.0080
1133.00,0.0079
1132.00,0.0078
1131.00,0.0077
1130.00,0.0077
1129.00,0.0077
1128.00,0.0078
1127.00,0.0079
1126.00,0.0080
1125.00,0.0081
1124.00,0.0081
1123.00,0.0082
1122.00,0.0082
1121.00,0.0082
1120.00,0.0082
1119.00,0.0083
1118.00,0.0085
1117.00,0.0086
1116.00,0.0087
1115.00,0.0089
1114.00,0.0091
1113.00,0.0093
1112.00,0.0096
1111.00,0.0098
1110.00,0.0102
1109.00,0.0106
1108.00,0.0111
1107.00,0.0117
1106.00,0.0123
1105.00,0.0130
1104.00,0.0135
1103.00,0.0138
1102.00,0.0138
1101.00,0.0134
1100.00,0.0127
1099.00,0.0120
1098.00,0.0113
1097.00,0.0107
1096.00,0.0103
1095.00,0.0100
1094.00,0.0099
1093.00,0.0097
1092.00,0.0095
1091.00,0.0092
1090.00,0.0090
1089.00,0.0088
1088.00,0.0086
1087.00,0.0085
1086.00,0.0084
1085.00,0.0084
1084.00,0.0083
1083.00,0.0083
1082.00,0.0083
1081.00,0.0082
1080.00,0.0081
1079.00,0.0080
1078.00,0.0079
1077.00,0.0078
1076.00,0.0077
1075.00,0.0077
1074.00,0.0076
1073.00,0.0075
1072.00,0.0074
1071.00,0.0073
1070.00,0.0073
1069.00,0.0072
1068.00,0.0072
1067.00,0.0071
1066.00,0.0071
1065.00,0.0071
1064.00,0.0072
1063.00,0.0072
1062.00,0.0073
1061.00,0.0073
1060.00,0.0073
1059.00,0.0073
1058.00,0.0074
1057.00,0.0074
1056.00,0.0075
1055.00,0.0076
1054.00,0.0077
1053.00,0.0078
1052.00,0.0080
1051.00,0.0082
1050.00,0.0084
1049.00,0.0086
1048.00,0.0088
1047.00,0.0090
1046.00,0.0093
1045.00,0.0095
1044.00,0.0096
1043.00,0.0096
1042.00,0.0094
1041.00,0.0092
1040.00,0.0091
1039.00,0.0090
1038.00,0.0089
1037.00,0.0089
1036.00,0.0089
1035.00,0.0088
1034.00,0.0087
1033.00,0.0086
1032.00,0.0084
1031.00,0.0083
1030.00,0.0082
1029.00,0.0081
1028.00,0.0081
1027.00,0.0081
1026.00,0.0081
1025.00,0.0080
1024.00,0.0080
1023.00,0.0080
1022.00,0.0081
1021.00,0.0081
1020.00,0.0082
1019.00,0.0082
1018.00,0.0083
1017.00,0.0083
1016.00,0.0084
1015.00,0.0086
1014.00,0.0088
1013.00,0.0091
1012.00,0.0094
1011.00,0.0096
1010.00,0.0098
1009.00,0.0101
1008.00,0.0105
1007.00,0.0111
1006.00,0.0119
1005.00,0.0130
1004.00,0.0145
1003.00,0.0166
1002.00,0.0194
1001.00,0.0228
1000.00,0.0265
999.00,0.0295
998.00,0.0309
997.00,0.0303
996.00,0.0279
995.00,0.0244
994.00,0.0208
993.00,0.0177
992.00,0.0152
991.00,0.0133
990.00,0.0119
989.00,0.0110
988.00,0.0105
987.00,0.0103
986.00,0.0103
985.00,0.0105
984.00,0.0109
983.00,0.0115
982.00,0.0125
981.00,0.0139
980.00,0.0158
979.00,0.0185
978.00,0.0220
977.00,0.0260
976.00,0.0303
975.00,0.0343
974.00,0.0372
973.00,0.0382
972.00,0.0368
971.00,0.0333
970.00,0.0286
969.00,0.0237
968.00,0.0196
967.00,0.0165
966.00,0.0144
965.00,0.0128
964.00,0.0117
963.00,0.0108
962.00,0.0101
961.00,0.0095
960.00,0.0090
959.00,0.0086
958.00,0.0084
957.00,0.0082
956.00,0.0081
955.00,0.0080
954.00,0.0078
953.00,0.0076
952.00,0.0075
951.00,0.0074
950.00,0.0074
949.00,0.0073
948.00,0.0073
947.00,0.0072
946.00,0.0072
945.00,0.0075
944.00,0.0078
943.00,0.0083
942.00,0.0087
941.00,0.0089
940.00,0.0090
939.00,0.0088
938.00,0.0085
937.00,0.0080
936.00,0.0075
935.00,0.0070
934.00,0.0067
933.00,0.0066
932.00,0.0064
931.00,0.0063
930.00,0.0062
929.00,0.0061
928.00,0.0060
927.00,0.0059
926.00,0.0059
925.00,0.0058
924.00,0.0057
923.00,0.0057
922.00,0.0057
921.00,0.0058
920.00,0.0058
919.00,0.0059
918.00,0.0059
917.00,0.0059
916.00,0.0060
915.00,0.0061
914.00,0.0062
913.00,0.0064
912.00,0.0067
911.00,0.0068
910.00,0.0070
909.00,0.0071
908.00,0.0074
907.00,0.0078
906.00,0.0085
905.00,0.0095
904.00,0.0110
903.00,0.0128
902.00,0.0148
901.00,0.0165
900.00,0.0177
899.00,0.0180
898.00,0.0172
897.00,0.0157
896.00,0.0139
895.00,0.0121
894.00,0.0106
893.00,0.0096
892.00,0.0088
891.00,0.0083
890.00,0.0079
889.00,0.0076
888.00,0.0073
887.00,0.0071
886.00,0.0070
885.00,0.0069
884.00,0.0069
883.00,0.0070
882.00,0.0070
881.00,0.0071
880.00,0.0071
879.00,0.0071
878.00,0.0071
877.00,0.0071
876.00,0.0071
875.00,0.0072
874.00,0.0073
873.00,0.0073
872.00,0.0074
871.00,0.0074
870.00,0.0074
869.00,0.0075
868.00,0.0076
867.00,0.0076
866.00,0.0077
865.00,0.0078
864.00,0.0078
863.00,0.0079
862.00,0.0080
861.00,0.0080
860.00,0.0081
859.00,0.0083
858.00,0.0085
857.00,0.0086
856.00,0.0087
855.00,0.0087
854.00,0.0087
853.00,0.0090
852.00,0.0094
851.00,0.0100
850.00,0.0106
849.00,0.0113
848.00,0.0120
847.00,0.0131
846.00,0.0148
845.00,0.0175
844.00,0.0216
843.00,0.0263
842.00,0.0302
841.00,0.0315
840.00,0.0295
839.00,0.0252
838.00,0.0206
837.00,0.0168
836.00,0.0142
835.00,0.0126
834.00,0.0116
833.00,0.0110
832.00,0.0106
831.00,0.0104
830.00,0.0102
829.00,0.0101
828.00,0.0100
827.00,0.0098
826.00,0.0097
825.00,0.0096
824.00,0.0095
823.00,0.0096
822.00,0.0097
821.00,0.0100
820.00,0.0104
819.00,0.0108
818.00,0.0112
817.00,0.0117
816.00,0.0125
815.00,0.0137
814.00,0.0153
813.00,0.0172
812.00,0.0193
811.00,0.0213
810.00,0.0228
809.00,0.0234
808.00,0.0231
807.00,0.0218
806.00,0.0198
805.00,0.0178
804.00,0.0160
803.00,0.0146
802.00,0.0137
801.00,0.0129
800.00,0.0123
799.00,0.0118
798.00,0.0113
797.00,0.0109
796.00,0.0106
795.00,0.0102
794.00,0.0099
793.00,0.0095
792.00,0.0092
791.00,0.0088
790.00,0.0084
789.00,0.0080
788.00,0.0077
787.00,0.0075
786.00,0.0072
785.00,0.0071
784.00,0.0069
783.00,0.0068
782.00,0.0067
781.00,0.0066
780.00,0.0065
779.00,0.0064
778.00,0.0063
777.00,0.0062
776.00,0.0062
775.00,0.0062
774.00,0.0062
773.00,0.0063
772.00,0.0063
771.00,0.0062
770.00,0.0063
769.00,0.0064
768.00,0.0065
767.00,0.0067
766.00,0.0067
765.00,0.0066
764.00,0.0065
763.00,0.0065
762.00,0.0064
761.00,0.0064
760.00,0.0063
759.00,0.0064
758.00,0.0065
757.00,0.0066
756.00,0.0067
755.00,0.0068
754.00,0.0069
753.00,0.0070
752.00,0.0072
751.00,0.0074
750.00,0.0075
749.00,0.0076
748.00,0.0077
747.00,0.0079
746.00,0.0080
745.00,0.0081
744.00,0.0083
743.00,0.0085
742.00,0.0088
741.00,0.0092
740.00,0.0095
739.00,0.0098
738.00,0.0100
737.00,0.0104
736.00,0.0109
735.00,0.0115
734.00,0.0121
733.00,0.0128
732.00,0.0135
731.00,0.0144
730.00,0.0151
729.00,0.0156
728.00,0.0158
727.00,0.0157
726.00,0.0157
725.00,0.0159
724.00,0.0163
723.00,0.0170
722.00,0.0177
721.00,0.0182
720.00,0.0181
719.00,0.0173
718.00,0.0160
717.00,0.0147
716.00,0.0136
715.00,0.0127
714.00,0.0120
713.00,0.0116
712.00,0.0113
711.00,0.0111
710.00,0.0108
709.00,0.0105
708.00,0.0103
707.00,0.0101
706.00,0.0101
705.00,0.0100
704.00,0.0099
703.00,0.0097
702.00,0.0095
701.00,0.0093
700.00,0.0092
699.00,0.0090
698.00,0.0089
697.00,0.0088
696.00,0.0087
695.00,0.0086
694.00,0.0086
693.00,0.0087
692.00,0.0087
691.00,0.0088
690.00,0.0086
689.00,0.0085
688.00,0.0084
687.00,0.0084
686.00,0.0085
685.00,0.0087
684.00,0.0088
683.00,0.0089
682.00,0.0088
681.00,0.0087
680.00,0.0087
679.00,0.0087
678.00,0.0087
677.00,0.0087
676.00,0.0085
675.00,0.0084
674.00,0.0084
673.00,0.0084
672.00,0.0084
671.00,0.0084
670.00,0.0085
669.00,0.0088
668.00,0.0092
667.00,0.0095
666.00,0.0092
665.00,0.0089
664.00,0.0087
663.00,0.0087
662.00,0.0086
661.00,0.0083
660.00,0.0081
659.00,0.0079
658.00,0.0079
657.00,0.0081
656.00,0.0083
655.00,0.0084
654.00,0.0084
653.00,0.0083
652.00,0.0080
651.00,0.0077
650.00,0.0076
649.00,0.0076
648.00,0.0078
647.00,0.0081
646.00,0.0083
645.00,0.0085
644.00,0.0084
643.00,0.0083
642.00,0.0083
641.00,0.0084
640.00,0.0086
639.00,0.0088
638.00,0.0089
637.00,0.0090
636.00,0.0090
635.00,0.0089
634.00,0.0088
633.00,0.0086
632.00,0.0084
631.00,0.0082
630.00,0.0080
629.00,0.0078
628.00,0.0077
627.00,0.0077
626.00,0.0078
625.00,0.0082
624.00,0.0085
623.00,0.0088
622.00,0.0088
621.00,0.0087
620.00,0.0085
619.00,0.0083
618.00,0.0082
617.00,0.0082
616.00,0.0082
615.00,0.0082
614.00,0.0081
613.00,0.0079
612.00,0.0077
611.00,0.0077
610.00,0.0078
609.00,0.0079
608.00,0.0079
607.00,0.0078
606.00,0.0078
605.00,0.0079
604.00,0.0079
603.00,0.0079
602.00,0.0079
601.00,0.0079
600.00,0.0080
599.00,0.0079
598.00,0.0077
597.00,0.0076
596.00,0.0076
595.00,0.0077
594.00,0.0078
593.00,0.0076
592.00,0.0072
591.00,0.0068
590.00,0.0068
589.00,0.0070
588.00,0.0073
587.00,0.0075
586.00,0.0076
585.00,0.0077
584.00,0.0077
583.00,0.0076
582.00,0.0076
581.00,0.0078
580.00,0.0079
579.00,0.0080
578.00,0.0080
577.00,0.0078
576.00,0.0077
575.00,0.0079
574.00,0.0081
573.00,0.0083
572.00,0.0082
571.00,0.0081
570.00,0.0081
569.00,0.0082
568.00,0.0085
567.00,0.0087
566.00,0.0088
565.00,0.0089
564.00,0.0088
563.00,0.0085
562.00,0.0081
561.00,0.0077
560.00,0.0075
559.00,0.0074
558.00,0.0074
557.00,0.0075
556.00,0.0078
555.00,0.0081
554.00,0.0083
553.00,0.0083
552.00,0.0082
551.00,0.0082
550.00,0.0082
549.00,0.0082
548.00,0.0082
547.00,0.0081
546.00,0.0080
545.00,0.0079
544.00,0.0079
543.00,0.0081
542.00,0.0084
541.00,0.0084
540.00,0.0082
539.00,0.0080
538.00,0.0080
537.00,0.0080
536.00,0.0081
535.00,0.0082
534.00,0.0085
533.00,0.0087
532.00,0.0089
531.00,0.0089
530.00,0.0088
529.00,0.0089
528.00,0.0092
527.00,0.0097
526.00,0.0101
525.00,0.0103
524.00,0.0100
523.00,0.0094
522.00,0.0086
521.00,0.0079
520.00,0.0075
519.00,0.0072
518.00,0.0074
517.00,0.0079
516.00,0.0085
515.00,0.0090
514.00,0.0092
513.00,0.0092
512.00,0.0089
511.00,0.0087
510.00,0.0085
509.00,0.0084
508.00,0.0081
507.00,0.0076
506.00,0.0072
505.00,0.0070
504.00,0.0069
503.00,0.0067
502.00,0.0064
501.00,0.0062
500.00,0.0059
499.00,0.0057
498.00,0.0057
497.00,0.0060
496.00,0.0066
495.00,0.0072
494.00,0.0072
493.00,0.0067
492.00,0.0063
491.00,0.0062
490.00,0.0065
489.00,0.0067
488.00,0.0067
487.00,0.0062
486.00,0.0056
485.00,0.0053
484.00,0.0054
483.00,0.0059
482.00,0.0068
481.00,0.0080
480.00,0.0090
479.00,0.0092
478.00,0.0087
477.00,0.0080
476.00,0.0073
475.00,0.0068
474.00,0.0062
473.00,0.0057
472.00,0.0055
471.00,0.0057
470.00,0.0061
469.00,0.0067
468.00,0.0080
467.00,0.0098
466.00,0.0113
465.00,0.0119
464.00,0.0119
463.00,0.0123
462.00,0.0138
461.00,0.0160
460.00,0.0179
459.00,0.0184
458.00,0.0172
457.00,0.0152
456.00,0.0137
455.00,0.0135
454.00,0.0143
453.00,0.0151
452.00,0.0149
451.00,0.0134
450.00,0.0115
