Created as New Dataset,Sample 022 By Administrator Date Wednesday, September 03 2025
cm-1,A
4000.00,0.0011
3999.00,0.0011
3998.00,0.0011
3997.00,0.0011
3996.00,0.0011
3995.00,0.0011
3994.00,0.0011
3993.00,0.0011
3992.00,0.0012
3991.00,0.0012
3990.00,0.0012
3989.00,0.0012
3988.00,0.0011
3987.00,0.0011
3986.00,0.0011
3985.00,0.0011
3984.00,0.0011
3983.00,0.0011
3982.00,0.0011
3981.00,0.0011
3980.00,0.0011
3979.00,0.0011
3978.00,0.0011
3977.00,0.0011
3976.00,0.0011
3975.00,0.0010
3974.00,0.0010
3973.00,0.0009
3972.00,0.0009
3971.00,0.0009
3970.00,0.0009
3969.00,0.0009
3968.00,0.0010
3967.00,0.0010
3966.00,0.0010
3965.00,0.0011
3964.00,0.0011
3963.00,0.0010
3962.00,0.0010
3961.00,0.0010
3960.00,0.0010
3959.00,0.0010
3958.00,0.0011
3957.00,0.0011
3956.00,0.0011
3955.00,0.0010
3954.00,0.0010
3953.00,0.0010
3952.00,0.0010
3951.00,0.0010
3950.00,0.0010
3949.00,0.0010
3948.00,0.0010
3947.00,0.0010
3946.00,0.0010
3945.00,0.0010
3944.00,0.0010
3943.00,0.0010
3942.00,0.0011
3941.00,0.0011
3940.00,0.0010
3939.00,0.0010
3938.00,0.0010
3937.00,0.0010
3936.00,0.0010
3935.00,0.0011
3934.00,0.0011
3933.00,0.0011
3932.00,0.0011
3931.00,0.0011
3930.00,0.0011
3929.00,0.0011
3928.00,0.0011
3927.00,0.0011
3926.00,0.0011
3925.00,0.0011
3924.00,0.0011
3923.00,0.0010
3922.00,0.0010
3921.00,0.0010
3920.00,0.0009
3919.00,0.0009
3918.00,0.0010
3917.00,0.0010
3916.00,0.0010
3915.00,0.0010
3914.00,0.0011
3913.00,0.0011
3912.00,0.0011
3911.00,0.0011
3910.00,0.0011
3909.00,0.0010
3908.00,0.0010
3907.00,0.0009
3906.00,0.0009
3905.00,0.0010
3904.00,0.0010
3903.00,0.0010
3902.00,0.0009
3901.00,0.0009
3900.00,0.0009
3899.00,0.0010
3898.00,0.0010
3897.00,0.0010
3896.00,0.0010
3895.00,0.0010
3894.00,0.0010
3893.00,0.0009
3892.00,0.0009
3891.00,0.0009
3890.00,0.0009
3889.00,0.0009
3888.00,0.0009
3887.00,0.0009
3886.00,0.0010
3885.00,0.0010
3884.00,0.0009
3883.00,0.0009
3882.00,0.0009
3881.00,0.0010
3880.00,0.0010
3879.00,0.0010
3878.00,0.0010
3877.00,0.0010
3876.00,0.0010
3875.00,0.0010
3874.00,0.0009
3873.00,0.0009
3872.00,0.0009
3871.00,0.0008
3870.00,0.0008
3869.00,0.0008
3868.00,0.0008
3867.00,0.0008
3866.00,0.0008
3865.00,0.0008
3864.00,0.0008
3863.00,0.0008
3862.00,0.0009
3861.00,0.0009
3860.00,0.0009
3859.00,0.0009
3858.00,0.0009
3857.00,0.0009
3856.00,0.0009
3855.00,0.0009
3854.00,0.0009
3853.00,0.0008
3852.00,0.0008
3851.00,0.0007
3850.00,0.0008
3849.00,0.0008
3848.00,0.0009
3847.00,0.0009
3846.00,0.0009
3845.00,0.0009
3844.00,0.0009
3843.00,0.0009
3842.00,0.0009
3841.00,0.0009
3840.00,0.0009
3839.00,0.0008
3838.00,0.0008
3837.00,0.0008
3836.00,0.0008
3835.00,0.0008
3834.00,0.0008
3833.00,0.0009
3832.00,0.0009
3831.00,0.0009
3830.00,0.0009
3829.00,0.0009
3828.00,0.0009
3827.00,0.0009
3826.00,0.0010
3825.00,0.0009
3824.00,0.0009
3823.00,0.0008
3822.00,0.0008
3821.00,0.0008
3820.00,0.0008
3819.00,0.0008
3818.00,0.0007
3817.00,0.0008
3816.00,0.0008
3815.00,0.0009
3814.00,0.0009
3813.00,0.0009
3812.00,0.0010
3811.00,0.0010
3810.00,0.0010
3809.00,0.0010
3808.00,0.0009
3807.00,0.0009
3806.00,0.0008
3805.00,0.0008
3804.00,0.0007
3803.00,0.0007
3802.00,0.0007
3801.00,0.0008
3800.00,0.0007
3799.00,0.0007
3798.00,0.0008
3797.00,0.0008
3796.00,0.0008
3795.00,0.0008
3794.00,0.0008
3793.00,0.0008
3792.00,0.0009
3791.00,0.0009
3790.00,0.0010
3789.00,0.0010
3788.00,0.0010
3787.00,0.0010
3786.00,0.0010
3785.00,0.0010
3784.00,0.0009
3783.00,0.0009
3782.00,0.0009
3781.00,0.0009
3780.00,0.0009
3779.00,0.0010
3778.00,0.0010
3777.00,0.0010
3776.00,0.0010
3775.00,0.0011
3774.00,0.0011
3773.00,0.0010
3772.00,0.0010
3771.00,0.0009
3770.00,0.0009
3769.00,0.0009
3768.00,0.0009
3767.00,0.0010
3766.00,0.0010
3765.00,0.0010
3764.00,0.0011
3763.00,0.0010
3762.00,0.0010
3761.00,0.0009
3760.00,0.0009
3759.00,0.0009
3758.00,0.0009
3757.00,0.0009
3756.00,0.0009
3755.00,0.0009
3754.00,0.0008
3753.00,0.0008
3752.00,0.0008
3751.00,0.0008
3750.00,0.0008
3749.00,0.0007
3748.00,0.0007
3747.00,0.0006
3746.00,0.0006
3745.00,0.0006
3744.00,0.0007
3743.00,0.0007
3742.00,0.0008
3741.00,0.0008
3740.00,0.0008
3739.00,0.0008
3738.00,0.0008
3737.00,0.0008
3736.00,0.0008
3735.00,0.0008
3734.00,0.0007
3733.00,0.0007
3732.00,0.0007
3731.00,0.0007
3730.00,0.0007
3729.00,0.0008
3728.00,0.0008
3727.00,0.0008
3726.00,0.0009
3725.00,0.0009
3724.00,0.0009
3723.00,0.0009
3722.00,0.0009
3721.00,0.0008
3720.00,0.0007
3719.00,0.0007
3718.00,0.0007
3717.00,0.0008
3716.00,0.0008
3715.00,0.0008
3714.00,0.0008
3713.00,0.0008
3712.00,0.0008
3711.00,0.0007
3710.00,0.0006
3709.00,0.0006
3708.00,0.0007
3707.00,0.0007
3706.00,0.0008
3705.00,0.0008
3704.00,0.0008
3703.00,0.0009
3702.00,0.0009
3701.00,0.0009
3700.00,0.0009
3699.00,0.0010
3698.00,0.0010
3697.00,0.0010
3696.00,0.0010
3695.00,0.0010
3694.00,0.0010
3693.00,0.0010
3692.00,0.0010
3691.00,0.0011
3690.00,0.0011
3689.00,0.0011
3688.00,0.0012
3687.00,0.0012
3686.00,0.0013
3685.00,0.0014
3684.00,0.0014
3683.00,0.0015
3682.00,0.0016
3681.00,0.0017
3680.00,0.0019
3679.00,0.0020
3678.00,0.0021
3677.00,0.0022
3676.00,0.0023
3675.00,0.0023
3674.00,0.0023
3673.00,0.0024
3672.00,0.0024
3671.00,0.0024
3670.00,0.0025
3669.00,0.0024
3668.00,0.0025
3667.00,0.0025
3666.00,0.0026
3665.00,0.0027
3664.00,0.0028
3663.00,0.0028
3662.00,0.0029
3661.00,0.0029
3660.00,0.0029
3659.00,0.0029
3658.00,0.0029
3657.00,0.0029
3656.00,0.0029
3655.00,0.0029
3654.00,0.0028
3653.00,0.0028
3652.00,0.0028
3651.00,0.0028
3650.00,0.0027
3649.00,0.0026
3648.00,0.0025
3647.00,0.0025
3646.00,0.0024
3645.00,0.0024
3644.00,0.0024
3643.00,0.0024
3642.00,0.0025
3641.00,0.0025
3640.00,0.0025
3639.00,0.0025
3638.00,0.0026
3637.00,0.0025
3636.00,0.0024
3635.00,0.0022
3634.00,0.0020
3633.00,0.0018
3632.00,0.0017
3631.00,0.0016
3630.00,0.0016
3629.00,0.0016
3628.00,0.0015
3627.00,0.0015
3626.00,0.0015
3625.00,0.0015
3624.00,0.0016
3623.00,0.0016
3622.00,0.0016
3621.00,0.0015
3620.00,0.0015
3619.00,0.0015
3618.00,0.0015
3617.00,0.0015
3616.00,0.0015
3615.00,0.0015
3614.00,0.0015
3613.00,0.0015
3612.00,0.0015
3611.00,0.0015
3610.00,0.0016
3609.00,0.0016
3608.00,0.0015
3607.00,0.0015
3606.00,0.0015
3605.00,0.0015
3604.00,0.0015
3603.00,0.0015
3602.00,0.0015
3601.00,0.0016
3600.00,0.0016
3599.00,0.0016
3598.00,0.0016
3597.00,0.0016
3596.00,0.0016
3595.00,0.0016
3594.00,0.0016
3593.00,0.0016
3592.00,0.0016
3591.00,0.0015
3590.00,0.0016
3589.00,0.0016
3588.00,0.0017
3587.00,0.0018
3586.00,0.0018
3585.00,0.0018
3584.00,0.0019
3583.00,0.0019
3582.00,0.0019
3581.00,0.0020
3580.00,0.0020
3579.00,0.0020
3578.00,0.0020
3577.00,0.0020
3576.00,0.0020
3575.00,0.0021
3574.00,0.0021
3573.00,0.0022
3572.00,0.0022
3571.00,0.0022
3570.00,0.0023
3569.00,0.0023
3568.00,0.0024
3567.00,0.0024
3566.00,0.0024
3565.00,0.0023
3564.00,0.0023
3563.00,0.0023
3562.00,0.0024
3561.00,0.0024
3560.00,0.0024
3559.00,0.0024
3558.00,0.0024
3557.00,0.0024
3556.00,0.0024
3555.00,0.0025
3554.00,0.0025
3553.00,0.0025
3552.00,0.0026
3551.00,0.0026
3550.00,0.0026
3549.00,0.0027
3548.00,0.0027
3547.00,0.0027
3546.00,0.0028
3545.00,0.0028
3544.00,0.0028
3543.00,0.0028
3542.00,0.0028
3541.00,0.0028
3540.00,0.0028
3539.00,0.0028
3538.00,0.0028
3537.00,0.0028
3536.00,0.0028
3535.00,0.0028
3534.00,0.0028
3533.00,0.0029
3532.00,0.0030
3531.00,0.0030
3530.00,0.0030
3529.00,0.0030
3528.00,0.0030
3527.00,0.0030
3526.00,0.0030
3525.00,0.0031
3524.00,0.0031
3523.00,0.0031
3522.00,0.0031
3521.00,0.0031
3520.00,0.0031
3519.00,0.0031
3518.00,0.0031
3517.00,0.0031
3516.00,0.0031
3515.00,0.0031
3514.00,0.0031
3513.00,0.0032
3512.00,0.0032
3511.00,0.0032
3510.00,0.0032
3509.00,0.0032
3508.00,0.0032
3507.00,0.0032
3506.00,0.0033
3505.00,0.0034
3504.00,0.0034
3503.00,0.0034
3502.00,0.0034
3501.00,0.0034
3500.00,0.0034
3499.00,0.0034
3498.00,0.0035
3497.00,0.0035
3496.00,0.0035
3495.00,0.0035
3494.00,0.0035
3493.00,0.0036
3492.00,0.0037
3491.00,0.0037
3490.00,0.0037
3489.00,0.0037
3488.00,0.0037
3487.00,0.0037
3486.00,0.0038
3485.00,0.0038
3484.00,0.0038
3483.00,0.0039
3482.00,0.0039
3481.00,0.0039
3480.00,0.0039
3479.00,0.0039
3478.00,0.0039
3477.00,0.0039
3476.00,0.0039
3475.00,0.0040
3474.00,0.0040
3473.00,0.0040
3472.00,0.0040
3471.00,0.0040
3470.00,0.0040
3469.00,0.0040
3468.00,0.0040
3467.00,0.0040
3466.00,0.0041
3465.00,0.0041
3464.00,0.0041
3463.00,0.0041
3462.00,0.0042
3461.00,0.0042
3460.00,0.0042
3459.00,0.0042
3458.00,0.0043
3457.00,0.0043
3456.00,0.0044
3455.00,0.0044
3454.00,0.0044
3453.00,0.0044
3452.00,0.0043
3451.00,0.0043
3450.00,0.0044
3449.00,0.0044
3448.00,0.0045
3447.00,0.0045
3446.00,0.0045
3445.00,0.0045
3444.00,0.0045
3443.00,0.0045
3442.00,0.0045
3441.00,0.0045
3440.00,0.0045
3439.00,0.0046
3438.00,0.0046
3437.00,0.0046
3436.00,0.0047
3435.00,0.0047
3434.00,0.0047
3433.00,0.0047
3432.00,0.0048
3431.00,0.0048
3430.00,0.0048
3429.00,0.0048
3428.00,0.0048
3427.00,0.0048
3426.00,0.0048
3425.00,0.0048
3424.00,0.0048
3423.00,0.0048
3422.00,0.0048
3421.00,0.0049
3420.00,0.0049
3419.00,0.0049
3418.00,0.0049
3417.00,0.0049
3416.00,0.0049
3415.00,0.0049
3414.00,0.0049
3413.00,0.0049
3412.00,0.0049
3411.00,0.0050
3410.00,0.0050
3409.00,0.0051
3408.00,0.0051
3407.00,0.0051
3406.00,0.0051
3405.00,0.0051
3404.00,0.0051
3403.00,0.0051
3402.00,0.0051
3401.00,0.0051
3400.00,0.0051
3399.00,0.0051
3398.00,0.0052
3397.00,0.0052
3396.00,0.0052
3395.00,0.0052
3394.00,0.0052
3393.00,0.0052
3392.00,0.0052
3391.00,0.0052
3390.00,0.0052
3389.00,0.0052
3388.00,0.0052
3387.00,0.0052
3386.00,0.0051
3385.00,0.0051
3384.00,0.0051
3383.00,0.0051
3382.00,0.0052
3381.00,0.0052
3380.00,0.0052
3379.00,0.0052
3378.00,0.0052
3377.00,0.0052
3376.00,0.0052
3375.00,0.0052
3374.00,0.0052
3373.00,0.0052
3372.00,0.0053
3371.00,0.0053
3370.00,0.0053
3369.00,0.0053
3368.00,0.0053
3367.00,0.0053
3366.00,0.0052
3365.00,0.0052
3364.00,0.0052
3363.00,0.0053
3362.00,0.0053
3361.00,0.0054
3360.00,0.0054
3359.00,0.0054
3358.00,0.0054
3357.00,0.0053
3356.00,0.0053
3355.00,0.0053
3354.00,0.0053
3353.00,0.0053
3352.00,0.0053
3351.00,0.0053
3350.00,0.0053
3349.00,0.0054
3348.00,0.0054
3347.00,0.0054
3346.00,0.0054
3345.00,0.0054
3344.00,0.0054
3343.00,0.0054
3342.00,0.0054
3341.00,0.0053
3340.00,0.0053
3339.00,0.0053
3338.00,0.0053
3337.00,0.0054
3336.00,0.0054
3335.00,0.0053
3334.00,0.0053
3333.00,0.0052
3332.00,0.0052
3331.00,0.0052
3330.00,0.0052
3329.00,0.0052
3328.00,0.0052
3327.00,0.0052
3326.00,0.0052
3325.00,0.0052
3324.00,0.0052
3323.00,0.0052
3322.00,0.0051
3321.00,0.0051
3320.00,0.0051
3319.00,0.0050
3318.00,0.0051
3317.00,0.0051
3316.00,0.0051
3315.00,0.0051
3314.00,0.0052
3313.00,0.0052
3312.00,0.0052
3311.00,0.0051
3310.00,0.0051
3309.00,0.0051
3308.00,0.0051
3307.00,0.0051
3306.00,0.0052
3305.00,0.0052
3304.00,0.0052
3303.00,0.0052
3302.00,0.0052
3301.00,0.0052
3300.00,0.0052
3299.00,0.0052
3298.00,0.0052
3297.00,0.0051
3296.00,0.0051
3295.00,0.0051
3294.00,0.0051
3293.00,0.0051
3292.00,0.0051
3291.00,0.0051
3290.00,0.0051
3289.00,0.0050
3288.00,0.0049
3287.00,0.0049
3286.00,0.0049
3285.00,0.0049
3284.00,0.0049
3283.00,0.0049
3282.00,0.0049
3281.00,0.0048
3280.00,0.0048
3279.00,0.0048
3278.00,0.0048
3277.00,0.0048
3276.00,0.0048
3275.00,0.0048
3274.00,0.0048
3273.00,0.0048
3272.00,0.0047
3271.00,0.0047
3270.00,0.0047
3269.00,0.0047
3268.00,0.0047
3267.00,0.0047
3266.00,0.0046
3265.00,0.0046
3264.00,0.0046
3263.00,0.0046
3262.00,0.0046
3261.00,0.0046
3260.00,0.0046
3259.00,0.0046
3258.00,0.0046
3257.00,0.0045
3256.00,0.0045
3255.00,0.0045
3254.00,0.0046
3253.00,0.0046
3252.00,0.0046
3251.00,0.0046
3250.00,0.0046
3249.00,0.0045
3248.00,0.0045
3247.00,0.0045
3246.00,0.0045
3245.00,0.0045
3244.00,0.0045
3243.00,0.0044
3242.00,0.0044
3241.00,0.0044
3240.00,0.0044
3239.00,0.0044
3238.00,0.0045
3237.00,0.0045
3236.00,0.0045
3235.00,0.0045
3234.00,0.0045
3233.00,0.0045
3232.00,0.0045
3231.00,0.0046
3230.00,0.0046
3229.00,0.0046
3228.00,0.0046
3227.00,0.0046
3226.00,0.0046
3225.00,0.0047
3224.00,0.0047
3223.00,0.0047
3222.00,0.0047
3221.00,0.0047
3220.00,0.0047
3219.00,0.0047
3218.00,0.0047
3217.00,0.0047
3216.00,0.0047
3215.00,0.0048
3214.00,0.0048
3213.00,0.0048
3212.00,0.0048
3211.00,0.0049
3210.00,0.0049
3209.00,0.0049
3208.00,0.0049
3207.00,0.0049
3206.00,0.0048
3205.00,0.0048
3204.00,0.0048
3203.00,0.0048
3202.00,0.0048
3201.00,0.0048
3200.00,0.0048
3199.00,0.0048
3198.00,0.0048
3197.00,0.0048
3196.00,0.0048
3195.00,0.0049
3194.00,0.0048
3193.00,0.0048
3192.00,0.0047
3191.00,0.0047
3190.00,0.0046
3189.00,0.0046
3188.00,0.0046
3187.00,0.0046
3186.00,0.0046
3185.00,0.0046
3184.00,0.0046
3183.00,0.0046
3182.00,0.0046
3181.00,0.0046
3180.00,0.0046
3179.00,0.0046
3178.00,0.0046
3177.00,0.0046
3176.00,0.0045
3175.00,0.0045
3174.00,0.0045
3173.00,0.0045
3172.00,0.0045
3171.00,0.0044
3170.00,0.0044
3169.00,0.0044
3168.00,0.0043
3167.00,0.0043
3166.00,0.0043
3165.00,0.0043
3164.00,0.0043
3163.00,0.0043
3162.00,0.0042
3161.00,0.0042
3160.00,0.0042
3159.00,0.0042
3158.00,0.0042
3157.00,0.0042
3156.00,0.0042
3155.00,0.0041
3154.00,0.0041
3153.00,0.0041
3152.00,0.0041
3151.00,0.0041
3150.00,0.0041
3149.00,0.0042
3148.00,0.0042
3147.00,0.0042
3146.00,0.0042
3145.00,0.0041
3144.00,0.0041
3143.00,0.0041
3142.00,0.0041
3141.00,0.0040
3140.00,0.0040
3139.00,0.0041
3138.00,0.0041
3137.00,0.0041
3136.00,0.0040
3135.00,0.0040
3134.00,0.0039
3133.00,0.0039
3132.00,0.0038
3131.00,0.0038
3130.00,0.0038
3129.00,0.0038
3128.00,0.0038
3127.00,0.0038
3126.00,0.0037
3125.00,0.0037
3124.00,0.0037
3123.00,0.0037
3122.00,0.0036
3121.00,0.0036
3120.00,0.0036
3119.00,0.0036
3118.00,0.0036
3117.00,0.0037
3116.00,0.0036
3115.00,0.0036
3114.00,0.0035
3113.00,0.0035
3112.00,0.0035
3111.00,0.0035
3110.00,0.0035
3109.00,0.0035
3108.00,0.0035
3107.00,0.0035
3106.00,0.0035
3105.00,0.0035
3104.00,0.0034
3103.00,0.0034
3102.00,0.0034
3101.00,0.0034
3100.00,0.0034
3099.00,0.0034
3098.00,0.0034
3097.00,0.0034
3096.00,0.0034
3095.00,0.0034
3094.00,0.0035
3093.00,0.0034
3092.00,0.0034
3091.00,0.0034
3090.00,0.0034
3089.00,0.0034
3088.00,0.0034
3087.00,0.0034
3086.00,0.0034
3085.00,0.0034
3084.00,0.0034
3083.00,0.0035
3082.00,0.0035
3081.00,0.0035
3080.00,0.0035
3079.00,0.0035
3078.00,0.0035
3077.00,0.0035
3076.00,0.0035
3075.00,0.0035
3074.00,0.0035
3073.00,0.0035
3072.00,0.0035
3071.00,0.0035
3070.00,0.0035
3069.00,0.0035
3068.00,0.0035
3067.00,0.0035
3066.00,0.0035
3065.00,0.0035
3064.00,0.0035
3063.00,0.0035
3062.00,0.0036
3061.00,0.0036
3060.00,0.0036
3059.00,0.0036
3058.00,0.0036
3057.00,0.0037
3056.00,0.0037
3055.00,0.0037
3054.00,0.0037
3053.00,0.0038
3052.00,0.0038
3051.00,0.0038
3050.00,0.0038
3049.00,0.0038
3048.00,0.0039
3047.00,0.0039
3046.00,0.0039
3045.00,0.0039
3044.00,0.0039
3043.00,0.0040
3042.00,0.0040
3041.00,0.0040
3040.00,0.0040
3039.00,0.0041
3038.00,0.0041
3037.00,0.0042
3036.00,0.0042
3035.00,0.0042
3034.00,0.0042
3033.00,0.0042
3032.00,0.0042
3031.00,0.0043
3030.00,0.0043
3029.00,0.0044
3028.00,0.0045
3027.00,0.0045
3026.00,0.0046
3025.00,0.0047
3024.00,0.0048
3023.00,0.0049
3022.00,0.0050
3021.00,0.0052
3020.00,0.0054
3019.00,0.0056
3018.00,0.0058
3017.00,0.0060
3016.00,0.0063
3015.00,0.0066
3014.00,0.0069
3013.00,0.0074
3012.00,0.0078
3011.00,0.0083
3010.00,0.0088
3009.00,0.0094
3008.00,0.0100
3007.00,0.0107
3006.00,0.0114
3005.00,0.0121
3004.00,0.0129
3003.00,0.0136
3002.00,0.0144
3001.00,0.0151
3000.00,0.0159
2999.00,0.0167
2998.00,0.0174
2997.00,0.0181
2996.00,0.0188
2995.00,0.0195
2994.00,0.0202
2993.00,0.0209
2992.00,0.0217
2991.00,0.0225
2990.00,0.0233
2989.00,0.0241
2988.00,0.0252
2987.00,0.0266
2986.00,0.0284
2985.00,0.0308
2984.00,0.0336
2983.00,0.0366
2982.00,0.0391
2981.00,0.0409
2980.00,0.0421
2979.00,0.0432
2978.00,0.0444
2977.00,0.0461
2976.00,0.0484
2975.00,0.0514
2974.00,0.0552
2973.00,0.0597
2972.00,0.0645
2971.00,0.0696
2970.00,0.0748
2969.00,0.0804
2968.00,0.0863
2967.00,0.0928
2966.00,0.0996
2965.00,0.1064
2964.00,0.1128
2963.00,0.1187
2962.00,0.1238
2961.00,0.1282
2960.00,0.1320
2959.00,0.1357
2958.00,0.1398
2957.00,0.1446
2956.00,0.1506
2955.00,0.1577
2954.00,0.1658
2953.00,0.1740
2952.00,0.1815
2951.00,0.1870
2950.00,0.1895
2949.00,0.1880
2948.00,0.1824
2947.00,0.1733
2946.00,0.1617
2945.00,0.1492
2944.00,0.1371
2943.00,0.1267
2942.00,0.1185
2941.00,0.1129
2940.00,0.1096
2939.00,0.1085
2938.00,0.1095
2937.00,0.1122
2936.00,0.1165
2935.00,0.1224
2934.00,0.1297
2933.00,0.1382
2932.00,0.1479
2931.00,0.1584
2930.00,0.1695
2929.00,0.1810
2928.00,0.1926
2927.00,0.2040
2926.00,0.2151
2925.00,0.2260
2924.00,0.2368
2923.00,0.2475
2922.00,0.2584
2921.00,0.2690
2920.00,0.2786
2919.00,0.2861
2918.00,0.2903
2917.00,0.2902
2916.00,0.2855
2915.00,0.2769
2914.00,0.2656
2913.00,0.2530
2912.00,0.2406
2911.00,0.2290
2910.00,0.2187
2909.00,0.2094
2908.00,0.2009
2907.00,0.1930
2906.00,0.1855
2905.00,0.1782
2904.00,0.1711
2903.00,0.1641
2902.00,0.1574
2901.00,0.1510
2900.00,0.1449
2899.00,0.1391
2898.00,0.1338
2897.00,0.1289
2896.00,0.1245
2895.00,0.1208
2894.00,0.1177
2893.00,0.1153
2892.00,0.1134
2891.00,0.1120
2890.00,0.1111
2889.00,0.1105
2888.00,0.1103
2887.00,0.1105
2886.00,0.1110
2885.00,0.1118
2884.00,0.1131
2883.00,0.1147
2882.00,0.1168
2881.00,0.1191
2880.00,0.1215
2879.00,0.1236
2878.00,0.1251
2877.00,0.1255
2876.00,0.1252
2875.00,0.1244
2874.00,0.1238
2873.00,0.1237
2872.00,0.1243
2871.00,0.1256
2870.00,0.1274
2869.00,0.1292
2868.00,0.1303
2867.00,0.1299
2866.00,0.1274
2865.00,0.1224
2864.00,0.1155
2863.00,0.1074
2862.00,0.0993
2861.00,0.0920
2860.00,0.0861
2859.00,0.0818
2858.00,0.0791
2857.00,0.0776
2856.00,0.0773
2855.00,0.0777
2854.00,0.0789
2853.00,0.0805
2852.00,0.0822
2851.00,0.0839
2850.00,0.0852
2849.00,0.0861
2848.00,0.0870
2847.00,0.0881
2846.00,0.0899
2845.00,0.0927
2844.00,0.0966
2843.00,0.1012
2842.00,0.1062
2841.00,0.1109
2840.00,0.1147
2839.00,0.1167
2838.00,0.1163
2837.00,0.1132
2836.00,0.1072
2835.00,0.0989
2834.00,0.0892
2833.00,0.0791
2832.00,0.0694
2831.00,0.0608
2830.00,0.0535
2829.00,0.0474
2828.00,0.0426
2827.00,0.0386
2826.00,0.0354
2825.00,0.0328
2824.00,0.0306
2823.00,0.0287
2822.00,0.0271
2821.00,0.0258
2820.00,0.0246
2819.00,0.0236
2818.00,0.0227
2817.00,0.0219
2816.00,0.0212
2815.00,0.0206
2814.00,0.0200
2813.00,0.0194
2812.00,0.0188
2811.00,0.0182
2810.00,0.0176
2809.00,0.0171
2808.00,0.0165
2807.00,0.0159
2806.00,0.0153
2805.00,0.0147
2804.00,0.0141
2803.00,0.0135
2802.00,0.0130
2801.00,0.0125
2800.00,0.0122
2799.00,0.0118
2798.00,0.0116
2797.00,0.0113
2796.00,0.0111
2795.00,0.0109
2794.00,0.0106
2793.00,0.0104
2792.00,0.0101
2791.00,0.0098
2790.00,0.0095
2789.00,0.0092
2788.00,0.0089
2787.00,0.0086
2786.00,0.0084
2785.00,0.0082
2784.00,0.0079
2783.00,0.0077
2782.00,0.0075
2781.00,0.0073
2780.00,0.0072
2779.00,0.0070
2778.00,0.0069
2777.00,0.0068
2776.00,0.0067
2775.00,0.0066
2774.00,0.0065
2773.00,0.0064
2772.00,0.0064
2771.00,0.0063
2770.00,0.0063
2769.00,0.0063
2768.00,0.0063
2767.00,0.0063
2766.00,0.0062
2765.00,0.0062
2764.00,0.0061
2763.00,0.0061
2762.00,0.0061
2761.00,0.0060
2760.00,0.0060
2759.00,0.0059
2758.00,0.0059
2757.00,0.0058
2756.00,0.0058
2755.00,0.0058
2754.00,0.0058
2753.00,0.0058
2752.00,0.0058
2751.00,0.0057
2750.00,0.0057
2749.00,0.0057
2748.00,0.0056
2747.00,0.0056
2746.00,0.0057
2745.00,0.0057
2744.00,0.0058
2743.00,0.0060
2742.00,0.0061
2741.00,0.0062
2740.00,0.0063
2739.00,0.0064
2738.00,0.0065
2737.00,0.0066
2736.00,0.0068
2735.00,0.0069
2734.00,0.0071
2733.00,0.0072
2732.00,0.0074
2731.00,0.0076
2730.00,0.0079
2729.00,0.0082
2728.00,0.0084
2727.00,0.0087
2726.00,0.0089
2725.00,0.0091
2724.00,0.0093
2723.00,0.0093
2722.00,0.0092
2721.00,0.0090
2720.00,0.0087
2719.00,0.0084
2718.00,0.0081
2717.00,0.0078
2716.00,0.0075
2715.00,0.0072
2714.00,0.0070
2713.00,0.0067
2712.00,0.0065
2711.00,0.0063
2710.00,0.0061
2709.00,0.0060
2708.00,0.0058
2707.00,0.0057
2706.00,0.0056
2705.00,0.0055
2704.00,0.0054
2703.00,0.0053
2702.00,0.0052
2701.00,0.0051
2700.00,0.0051
2699.00,0.0050
2698.00,0.0050
2697.00,0.0050
2696.00,0.0049
2695.00,0.0049
2694.00,0.0049
2693.00,0.0049
2692.00,0.0049
2691.00,0.0049
2690.00,0.0049
2689.00,0.0049
2688.00,0.0049
2687.00,0.0050
2686.00,0.0050
2685.00,0.0050
2684.00,0.0050
2683.00,0.0050
2682.00,0.0050
2681.00,0.0051
2680.00,0.0051
2679.00,0.0051
2678.00,0.0051
2677.00,0.0051
2676.00,0.0051
2675.00,0.0051
2674.00,0.0051
2673.00,0.0051
2672.00,0.0051
2671.00,0.0051
2670.00,0.0051
2669.00,0.0051
2668.00,0.0051
2667.00,0.0051
2666.00,0.0052
2665.00,0.0052
2664.00,0.0052
2663.00,0.0053
2662.00,0.0053
2661.00,0.0054
2660.00,0.0054
2659.00,0.0054
2658.00,0.0054
2657.00,0.0054
2656.00,0.0053
2655.00,0.0052
2654.00,0.0052
2653.00,0.0051
2652.00,0.0050
2651.00,0.0050
2650.00,0.0050
2649.00,0.0049
2648.00,0.0049
2647.00,0.0049
2646.00,0.0048
2645.00,0.0047
2644.00,0.0047
2643.00,0.0046
2642.00,0.0046
2641.00,0.0045
2640.00,0.0045
2639.00,0.0045
2638.00,0.0044
2637.00,0.0044
2636.00,0.0044
2635.00,0.0043
2634.00,0.0043
2633.00,0.0043
2632.00,0.0043
2631.00,0.0043
2630.00,0.0043
2629.00,0.0043
2628.00,0.0043
2627.00,0.0043
2626.00,0.0043
2625.00,0.0043
2624.00,0.0044
2623.00,0.0044
2622.00,0.0044
2621.00,0.0045
2620.00,0.0045
2619.00,0.0045
2618.00,0.0045
2617.00,0.0045
2616.00,0.0044
2615.00,0.0044
2614.00,0.0044
2613.00,0.0044
2612.00,0.0044
2611.00,0.0043
2610.00,0.0042
2609.00,0.0042
2608.00,0.0041
2607.00,0.0040
2606.00,0.0039
2605.00,0.0038
2604.00,0.0038
2603.00,0.0038
2602.00,0.0037
2601.00,0.0037
2600.00,0.0036
2599.00,0.0036
2598.00,0.0035
2597.00,0.0035
2596.00,0.0035
2595.00,0.0035
2594.00,0.0035
2593.00,0.0036
2592.00,0.0036
2591.00,0.0037
2590.00,0.0038
2589.00,0.0040
2588.00,0.0041
2587.00,0.0041
2586.00,0.0042
2585.00,0.0042
2584.00,0.0042
2583.00,0.0042
2582.00,0.0042
2581.00,0.0042
2580.00,0.0041
2579.00,0.0040
2578.00,0.0040
2577.00,0.0039
2576.00,0.0037
2575.00,0.0036
2574.00,0.0035
2573.00,0.0034
2572.00,0.0033
2571.00,0.0032
2570.00,0.0031
2569.00,0.0031
2568.00,0.0030
2567.00,0.0029
2566.00,0.0029
2565.00,0.0028
2564.00,0.0027
2563.00,0.0027
2562.00,0.0026
2561.00,0.0026
2560.00,0.0025
2559.00,0.0025
2558.00,0.0026
2557.00,0.0026
2556.00,0.0026
2555.00,0.0026
2554.00,0.0025
2553.00,0.0025
2552.00,0.0024
2551.00,0.0024
2550.00,0.0024
2549.00,0.0023
2548.00,0.0023
2547.00,0.0022
2546.00,0.0022
2545.00,0.0022
2544.00,0.0021
2543.00,0.0021
2542.00,0.0021
2541.00,0.0021
2540.00,0.0021
2539.00,0.0021
2538.00,0.0021
2537.00,0.0021
2536.00,0.0021
2535.00,0.0021
2534.00,0.0021
2533.00,0.0020
2532.00,0.0019
2531.00,0.0019
2530.00,0.0019
2529.00,0.0019
2528.00,0.0019
2527.00,0.0019
2526.00,0.0018
2525.00,0.0017
2524.00,0.0017
2523.00,0.0017
2522.00,0.0017
2521.00,0.0017
2520.00,0.0017
2519.00,0.0016
2518.00,0.0016
2517.00,0.0016
2516.00,0.0016
2515.00,0.0015
2514.00,0.0014
2513.00,0.0014
2512.00,0.0014
2511.00,0.0014
2510.00,0.0014
2509.00,0.0014
2508.00,0.0014
2507.00,0.0014
2506.00,0.0014
2505.00,0.0014
2504.00,0.0014
2503.00,0.0013
2502.00,0.0013
2501.00,0.0013
2500.00,0.0013
2499.00,0.0014
2498.00,0.0015
2497.00,0.0016
2496.00,0.0016
2495.00,0.0016
2494.00,0.0016
2493.00,0.0016
2492.00,0.0016
2491.00,0.0015
2490.00,0.0015
2489.00,0.0014
2488.00,0.0014
2487.00,0.0014
2486.00,0.0014
2485.00,0.0014
2484.00,0.0014
2483.00,0.0014
2482.00,0.0014
2481.00,0.0014
2480.00,0.0014
2479.00,0.0013
2478.00,0.0013
2477.00,0.0012
2476.00,0.0012
2475.00,0.0012
2474.00,0.0012
2473.00,0.0012
2472.00,0.0013
2471.00,0.0013
2470.00,0.0013
2469.00,0.0013
2468.00,0.0014
2467.00,0.0014
2466.00,0.0013
2465.00,0.0013
2464.00,0.0013
2463.00,0.0012
2462.00,0.0012
2461.00,0.0012
2460.00,0.0013
2459.00,0.0014
2458.00,0.0014
2457.00,0.0014
2456.00,0.0015
2455.00,0.0015
2454.00,0.0015
2453.00,0.0014
2452.00,0.0014
2451.00,0.0014
2450.00,0.0013
2449.00,0.0013
2448.00,0.0013
2447.00,0.0013
2446.00,0.0013
2445.00,0.0012
2444.00,0.0012
2443.00,0.0013
2442.00,0.0013
2441.00,0.0013
2440.00,0.0013
2439.00,0.0013
2438.00,0.0013
2437.00,0.0014
2436.00,0.0014
2435.00,0.0015
2434.00,0.0015
2433.00,0.0015
2432.00,0.0015
2431.00,0.0014
2430.00,0.0014
2429.00,0.0014
2428.00,0.0014
2427.00,0.0014
2426.00,0.0014
2425.00,0.0015
2424.00,0.0015
2423.00,0.0015
2422.00,0.0016
2421.00,0.0016
2420.00,0.0016
2419.00,0.0016
2418.00,0.0015
2417.00,0.0014
2416.00,0.0013
2415.00,0.0013
2414.00,0.0013
2413.00,0.0013
2412.00,0.0014
2411.00,0.0014
2410.00,0.0014
2409.00,0.0013
2408.00,0.0012
2407.00,0.0011
2406.00,0.0011
2405.00,0.0011
2404.00,0.0012
2403.00,0.0012
2402.00,0.0012
2401.00,0.0012
2400.00,0.0012
2399.00,0.0011
2398.00,0.0011
2397.00,0.0010
2396.00,0.0010
2395.00,0.0010
2394.00,0.0010
2393.00,0.0011
2392.00,0.0011
2391.00,0.0012
2390.00,0.0012
2389.00,0.0012
2388.00,0.0011
2387.00,0.0011
2386.00,0.0010
2385.00,0.0010
2384.00,0.0009
2383.00,0.0009
2382.00,0.0008
2381.00,0.0008
2380.00,0.0008
2379.00,0.0008
2378.00,0.0008
2377.00,0.0008
2376.00,0.0008
2375.00,0.0008
2374.00,0.0008
2373.00,0.0008
2372.00,0.0007
2371.00,0.0007
2370.00,0.0007
2369.00,0.0007
2368.00,0.0008
2367.00,0.0008
2366.00,0.0008
2365.00,0.0007
2364.00,0.0007
2363.00,0.0007
2362.00,0.0007
2361.00,0.0007
2360.00,0.0008
2359.00,0.0008
2358.00,0.0008
2357.00,0.0008
2356.00,0.0007
2355.00,0.0006
2354.00,0.0005
2353.00,0.0004
2352.00,0.0005
2351.00,0.0007
2350.00,0.0008
2349.00,0.0009
2348.00,0.0010
2347.00,0.0009
2346.00,0.0009
2345.00,0.0009
2344.00,0.0010
2343.00,0.0010
2342.00,0.0011
2341.00,0.0011
2340.00,0.0011
2339.00,0.0011
2338.00,0.0011
2337.00,0.0012
2336.00,0.0012
2335.00,0.0012
2334.00,0.0011
2333.00,0.0011
2332.00,0.0010
2331.00,0.0010
2330.00,0.0011
2329.00,0.0012
2328.00,0.0014
2327.00,0.0017
2326.00,0.0021
2325.00,0.0024
2324.00,0.0025
2323.00,0.0024
2322.00,0.0021
2321.00,0.0019
2320.00,0.0018
2319.00,0.0018
2318.00,0.0017
2317.00,0.0016
2316.00,0.0015
2315.00,0.0015
2314.00,0.0015
2313.00,0.0015
2312.00,0.0015
2311.00,0.0015
2310.00,0.0015
2309.00,0.0014
2308.00,0.0014
2307.00,0.0014
2306.00,0.0014
2305.00,0.0014
2304.00,0.0014
2303.00,0.0014
2302.00,0.0015
2301.00,0.0016
2300.00,0.0016
2299.00,0.0017
2298.00,0.0017
2297.00,0.0017
2296.00,0.0017
2295.00,0.0017
2294.00,0.0018
2293.00,0.0019
2292.00,0.0020
2291.00,0.0021
2290.00,0.0021
2289.00,0.0021
2288.00,0.0021
2287.00,0.0021
2286.00,0.0020
2285.00,0.0020
2284.00,0.0020
2283.00,0.0019
2282.00,0.0018
2281.00,0.0017
2280.00,0.0017
2279.00,0.0016
2278.00,0.0016
2277.00,0.0016
2276.00,0.0015
2275.00,0.0015
2274.00,0.0014
2273.00,0.0014
2272.00,0.0015
2271.00,0.0015
2270.00,0.0016
2269.00,0.0016
2268.00,0.0015
2267.00,0.0014
2266.00,0.0013
2265.00,0.0012
2264.00,0.0011
2263.00,0.0011
2262.00,0.0011
2261.00,0.0012
2260.00,0.0013
2259.00,0.0015
2258.00,0.0016
2257.00,0.0016
2256.00,0.0015
2255.00,0.0013
2254.00,0.0011
2253.00,0.0010
2252.00,0.0010
2251.00,0.0011
2250.00,0.0012
2249.00,0.0013
2248.00,0.0012
2247.00,0.0012
2246.00,0.0011
2245.00,0.0011
2244.00,0.0011
2243.00,0.0012
2242.00,0.0012
2241.00,0.0012
2240.00,0.0011
2239.00,0.0009
2238.00,0.0008
2237.00,0.0009
2236.00,0.0010
2235.00,0.0012
2234.00,0.0012
2233.00,0.0012
2232.00,0.0011
2231.00,0.0010
2230.00,0.0010
2229.00,0.0010
2228.00,0.0009
2227.00,0.0008
2226.00,0.0007
2225.00,0.0007
2224.00,0.0007
2223.00,0.0009
2222.00,0.0010
2221.00,0.0012
2220.00,0.0013
2219.00,0.0012
2218.00,0.0010
2217.00,0.0009
2216.00,0.0008
2215.00,0.0008
2214.00,0.0008
2213.00,0.0009
2212.00,0.0009
2211.00,0.0009
2210.00,0.0009
2209.00,0.0009
2208.00,0.0009
2207.00,0.0010
2206.00,0.0012
2205.00,0.0012
2204.00,0.0012
2203.00,0.0010
2202.00,0.0008
2201.00,0.0007
2200.00,0.0007
2199.00,0.0006
2198.00,0.0006
2197.00,0.0007
2196.00,0.0008
2195.00,0.0011
2194.00,0.0012
2193.00,0.0012
2192.00,0.0011
2191.00,0.0009
2190.00,0.0008
2189.00,0.0008
2188.00,0.0010
2187.00,0.0010
2186.00,0.0010
2185.00,0.0010
2184.00,0.0010
2183.00,0.0010
2182.00,0.0008
2181.00,0.0005
2180.00,0.0003
2179.00,0.0003
2178.00,0.0004
2177.00,0.0004
2176.00,0.0004
2175.00,0.0001
2174.00,-0.0001
2173.00,-0.0000
2172.00,0.0005
2171.00,0.0011
2170.00,0.0016
2169.00,0.0019
2168.00,0.0018
2167.00,0.0016
2166.00,0.0014
2165.00,0.0012
2164.00,0.0012
2163.00,0.0014
2162.00,0.0015
2161.00,0.0012
2160.00,0.0001
2159.00,-0.0014
2158.00,-0.0025
2157.00,-0.0029
2156.00,-0.0028
2155.00,-0.0024
2154.00,-0.0021
2153.00,-0.0018
2152.00,-0.0015
2151.00,-0.0012
2150.00,-0.0010
2149.00,-0.0008
2148.00,-0.0007
2147.00,-0.0008
2146.00,-0.0009
2145.00,-0.0009
2144.00,-0.0008
2143.00,-0.0007
2142.00,-0.0006
2141.00,-0.0006
2140.00,-0.0007
2139.00,-0.0007
2138.00,-0.0007
2137.00,-0.0007
2136.00,-0.0009
2135.00,-0.0011
2134.00,-0.0014
2133.00,-0.0014
2132.00,-0.0013
2131.00,-0.0011
2130.00,-0.0009
2129.00,-0.0008
2128.00,-0.0008
2127.00,-0.0007
2126.00,-0.0006
2125.00,-0.0004
2124.00,-0.0002
2123.00,-0.0001
2122.00,-0.0001
2121.00,-0.0001
2120.00,-0.0002
2119.00,-0.0003
2118.00,-0.0003
2117.00,-0.0002
2116.00,0.0000
2115.00,0.0002
2114.00,0.0004
2113.00,0.0006
2112.00,0.0007
2111.00,0.0006
2110.00,0.0005
2109.00,0.0004
2108.00,0.0003
2107.00,0.0003
2106.00,0.0003
2105.00,0.0003
2104.00,0.0004
2103.00,0.0005
2102.00,0.0006
2101.00,0.0006
2100.00,0.0006
2099.00,0.0004
2098.00,0.0002
2097.00,0.0001
2096.00,-0.0001
2095.00,-0.0003
2094.00,-0.0004
2093.00,-0.0003
2092.00,-0.0002
2091.00,-0.0000
2090.00,0.0001
2089.00,0.0003
2088.00,0.0004
2087.00,0.0005
2086.00,0.0006
2085.00,0.0006
2084.00,0.0006
2083.00,0.0006
2082.00,0.0006
2081.00,0.0007
2080.00,0.0007
2079.00,0.0007
2078.00,0.0006
2077.00,0.0006
2076.00,0.0005
2075.00,0.0006
2074.00,0.0006
2073.00,0.0006
2072.00,0.0005
2071.00,0.0005
2070.00,0.0004
2069.00,0.0004
2068.00,0.0004
2067.00,0.0004
2066.00,0.0004
2065.00,0.0004
2064.00,0.0004
2063.00,0.0004
2062.00,0.0004
2061.00,0.0004
2060.00,0.0005
2059.00,0.0005
2058.00,0.0006
2057.00,0.0006
2056.00,0.0006
2055.00,0.0005
2054.00,0.0005
2053.00,0.0007
2052.00,0.0012
2051.00,0.0015
2050.00,0.0016
2049.00,0.0013
2048.00,0.0010
2047.00,0.0006
2046.00,0.0004
2045.00,0.0003
2044.00,0.0003
2043.00,0.0003
2042.00,0.0002
2041.00,0.0001
2040.00,0.0002
2039.00,0.0005
2038.00,0.0008
2037.00,0.0011
2036.00,0.0012
2035.00,0.0010
2034.00,0.0008
2033.00,0.0006
2032.00,0.0005
2031.00,0.0004
2030.00,0.0002
2029.00,-0.0001
2028.00,-0.0003
2027.00,-0.0005
2026.00,-0.0006
2025.00,-0.0007
2024.00,-0.0008
2023.00,-0.0009
2022.00,-0.0010
2021.00,-0.0009
2020.00,-0.0007
2019.00,-0.0005
2018.00,-0.0005
2017.00,-0.0004
2016.00,-0.0003
2015.00,-0.0001
2014.00,0.0000
2013.00,0.0002
2012.00,0.0003
2011.00,0.0004
2010.00,0.0005
2009.00,0.0003
2008.00,0.0000
2007.00,-0.0004
2006.00,-0.0007
2005.00,-0.0008
2004.00,-0.0008
2003.00,-0.0007
2002.00,-0.0007
2001.00,-0.0008
2000.00,-0.0008
1999.00,-0.0008
1998.00,-0.0008
1997.00,-0.0008
1996.00,-0.0007
1995.00,-0.0007
1994.00,-0.0007
1993.00,-0.0006
1992.00,-0.0004
1991.00,-0.0003
1990.00,-0.0001
1989.00,0.0001
1988.00,0.0002
1987.00,0.0003
1986.00,0.0004
1985.00,0.0005
1984.00,0.0008
1983.00,0.0010
1982.00,0.0012
1981.00,0.0013
1980.00,0.0012
1979.00,0.0008
1978.00,0.0002
1977.00,-0.0003
1976.00,-0.0006
1975.00,-0.0008
1974.00,-0.0008
1973.00,-0.0008
1972.00,-0.0008
1971.00,-0.0008
1970.00,-0.0008
1969.00,-0.0008
1968.00,-0.0006
1967.00,-0.0006
1966.00,-0.0007
1965.00,-0.0009
1964.00,-0.0009
1963.00,-0.0009
1962.00,-0.0009
1961.00,-0.0009
1960.00,-0.0009
1959.00,-0.0009
1958.00,-0.0009
1957.00,-0.0008
1956.00,-0.0008
1955.00,-0.0010
1954.00,-0.0011
1953.00,-0.0011
1952.00,-0.0011
1951.00,-0.0010
1950.00,-0.0010
1949.00,-0.0010
1948.00,-0.0009
1947.00,-0.0009
1946.00,-0.0009
1945.00,-0.0009
1944.00,-0.0009
1943.00,-0.0008
1942.00,-0.0008
1941.00,-0.0007
1940.00,-0.0007
1939.00,-0.0007
1938.00,-0.0007
1937.00,-0.0007
1936.00,-0.0006
1935.00,-0.0005
1934.00,-0.0004
1933.00,-0.0003
1932.00,-0.0004
1931.00,-0.0005
1930.00,-0.0005
1929.00,-0.0005
1928.00,-0.0004
1927.00,-0.0003
1926.00,-0.0003
1925.00,-0.0003
1924.00,-0.0003
1923.00,-0.0002
1922.00,-0.0001
1921.00,0.0000
1920.00,-0.0000
1919.00,-0.0001
1918.00,-0.0003
1917.00,-0.0002
1916.00,-0.0001
1915.00,0.0000
1914.00,0.0001
1913.00,0.0002
1912.00,0.0003
1911.00,0.0003
1910.00,0.0002
1909.00,0.0002
1908.00,0.0001
1907.00,0.0001
1906.00,0.0001
1905.00,0.0001
1904.00,0.0001
1903.00,-0.0000
1902.00,-0.0001
1901.00,-0.0001
1900.00,-0.0001
1899.00,0.0000
1898.00,0.0002
1897.00,0.0003
1896.00,0.0003
1895.00,0.0002
1894.00,0.0002
1893.00,0.0001
1892.00,0.0001
1891.00,0.0002
1890.00,0.0002
1889.00,0.0003
1888.00,0.0003
1887.00,0.0004
1886.00,0.0004
1885.00,0.0004
1884.00,0.0003
1883.00,0.0003
1882.00,0.0002
1881.00,0.0002
1880.00,0.0002
1879.00,0.0002
1878.00,0.0003
1877.00,0.0004
1876.00,0.0005
1875.00,0.0004
1874.00,0.0003
1873.00,0.0002
1872.00,0.0001
1871.00,0.0000
1870.00,0.0000
1869.00,0.0001
1868.00,0.0002
1867.00,0.0002
1866.00,0.0002
1865.00,0.0003
1864.00,0.0004
1863.00,0.0004
1862.00,0.0004
1861.00,0.0003
1860.00,0.0003
1859.00,0.0004
1858.00,0.0004
1857.00,0.0005
1856.00,0.0006
1855.00,0.0006
1854.00,0.0006
1853.00,0.0006
1852.00,0.0006
1851.00,0.0006
1850.00,0.0005
1849.00,0.0004
1848.00,0.0004
1847.00,0.0004
1846.00,0.0005
1845.00,0.0006
1844.00,0.0007
1843.00,0.0007
1842.00,0.0007
1841.00,0.0006
1840.00,0.0005
1839.00,0.0004
1838.00,0.0004
1837.00,0.0004
1836.00,0.0004
1835.00,0.0004
1834.00,0.0005
1833.00,0.0005
1832.00,0.0005
1831.00,0.0006
1830.00,0.0007
1829.00,0.0007
1828.00,0.0008
1827.00,0.0007
1826.00,0.0007
1825.00,0.0007
1824.00,0.0008
1823.00,0.0008
1822.00,0.0008
1821.00,0.0007
1820.00,0.0007
1819.00,0.0006
1818.00,0.0006
1817.00,0.0005
1816.00,0.0005
1815.00,0.0005
1814.00,0.0005
1813.00,0.0005
1812.00,0.0006
1811.00,0.0006
1810.00,0.0006
1809.00,0.0006
1808.00,0.0007
1807.00,0.0007
1806.00,0.0008
1805.00,0.0009
1804.00,0.0009
1803.00,0.0008
1802.00,0.0008
1801.00,0.0008
1800.00,0.0008
1799.00,0.0008
1798.00,0.0009
1797.00,0.0009
1796.00,0.0009
1795.00,0.0009
1794.00,0.0009
1793.00,0.0010
1792.00,0.0010
1791.00,0.0010
1790.00,0.0011
1789.00,0.0011
1788.00,0.0012
1787.00,0.0012
1786.00,0.0012
1785.00,0.0012
1784.00,0.0012
1783.00,0.0012
1782.00,0.0012
1781.00,0.0013
1780.00,0.0013
1779.00,0.0013
1778.00,0.0013
1777.00,0.0013
1776.00,0.0013
1775.00,0.0013
1774.00,0.0014
1773.00,0.0014
1772.00,0.0015
1771.00,0.0016
1770.00,0.0016
1769.00,0.0017
1768.00,0.0017
1767.00,0.0017
1766.00,0.0016
1765.00,0.0016
1764.00,0.0016
1763.00,0.0016
1762.00,0.0017
1761.00,0.0018
1760.00,0.0019
1759.00,0.0020
1758.00,0.0020
1757.00,0.0021
1756.00,0.0023
1755.00,0.0024
1754.00,0.0024
1753.00,0.0025
1752.00,0.0026
1751.00,0.0027
1750.00,0.0027
1749.00,0.0028
1748.00,0.0028
1747.00,0.0029
1746.00,0.0029
1745.00,0.0030
1744.00,0.0030
1743.00,0.0031
1742.00,0.0031
1741.00,0.0032
1740.00,0.0032
1739.00,0.0033
1738.00,0.0033
1737.00,0.0033
1736.00,0.0032
1735.00,0.0032
1734.00,0.0031
1733.00,0.0030
1732.00,0.0030
1731.00,0.0030
1730.00,0.0030
1729.00,0.0030
1728.00,0.0031
1727.00,0.0030
1726.00,0.0030
1725.00,0.0030
1724.00,0.0030
1723.00,0.0031
1722.00,0.0031
1721.00,0.0031
1720.00,0.0031
1719.00,0.0030
1718.00,0.0029
1717.00,0.0030
1716.00,0.0030
1715.00,0.0031
1714.00,0.0031
1713.00,0.0031
1712.00,0.0030
1711.00,0.0029
1710.00,0.0029
1709.00,0.0029
1708.00,0.0029
1707.00,0.0029
1706.00,0.0028
1705.00,0.0028
1704.00,0.0029
1703.00,0.0029
1702.00,0.0029
1701.00,0.0030
1700.00,0.0031
1699.00,0.0032
1698.00,0.0032
1697.00,0.0032
1696.00,0.0033
1695.00,0.0035
1694.00,0.0036
1693.00,0.0037
1692.00,0.0038
1691.00,0.0039
1690.00,0.0040
1689.00,0.0042
1688.00,0.0044
1687.00,0.0045
1686.00,0.0046
1685.00,0.0047
1684.00,0.0048
1683.00,0.0049
1682.00,0.0049
1681.00,0.0050
1680.00,0.0051
1679.00,0.0052
1678.00,0.0053
1677.00,0.0055
1676.00,0.0056
1675.00,0.0057
1674.00,0.0057
1673.00,0.0057
1672.00,0.0057
1671.00,0.0057
1670.00,0.0057
1669.00,0.0058
1668.00,0.0058
1667.00,0.0059
1666.00,0.0059
1665.00,0.0059
1664.00,0.0060
1663.00,0.0060
1662.00,0.0060
1661.00,0.0061
1660.00,0.0061
1659.00,0.0062
1658.00,0.0062
1657.00,0.0063
1656.00,0.0064
1655.00,0.0065
1654.00,0.0065
1653.00,0.0065
1652.00,0.0066
1651.00,0.0067
1650.00,0.0067
1649.00,0.0067
1648.00,0.0069
1647.00,0.0070
1646.00,0.0071
1645.00,0.0072
1644.00,0.0072
1643.00,0.0073
1642.00,0.0073
1641.00,0.0074
1640.00,0.0074
1639.00,0.0075
1638.00,0.0076
1637.00,0.0076
1636.00,0.0077
1635.00,0.0077
1634.00,0.0077
1633.00,0.0076
1632.00,0.0076
1631.00,0.0076
1630.00,0.0076
1629.00,0.0076
1628.00,0.0076
1627.00,0.0076
1626.00,0.0076
1625.00,0.0075
1624.00,0.0075
1623.00,0.0074
1622.00,0.0074
1621.00,0.0074
1620.00,0.0074
1619.00,0.0074
1618.00,0.0074
1617.00,0.0074
1616.00,0.0074
1615.00,0.0074
1614.00,0.0074
1613.00,0.0075
1612.00,0.0075
1611.00,0.0075
1610.00,0.0075
1609.00,0.0074
1608.00,0.0075
1607.00,0.0075
1606.00,0.0075
1605.00,0.0075
1604.00,0.0076
1603.00,0.0076
1602.00,0.0075
1601.00,0.0075
1600.00,0.0075
1599.00,0.0076
1598.00,0.0076
1597.00,0.0077
1596.00,0.0077
1595.00,0.0078
1594.00,0.0078
1593.00,0.0079
1592.00,0.0080
1591.00,0.0081
1590.00,0.0082
1589.00,0.0083
1588.00,0.0085
1587.00,0.0087
1586.00,0.0089
1585.00,0.0092
1584.00,0.0096
1583.00,0.0101
1582.00,0.0105
1581.00,0.0110
1580.00,0.0115
1579.00,0.0118
1578.00,0.0120
1577.00,0.0121
1576.00,0.0120
1575.00,0.0117
1574.00,0.0114
1573.00,0.0111
1572.00,0.0108
1571.00,0.0104
1570.00,0.0100
1569.00,0.0096
1568.00,0.0093
1567.00,0.0091
1566.00,0.0089
1565.00,0.0088
1564.00,0.0087
1563.00,0.0086
1562.00,0.0086
1561.00,0.0085
1560.00,0.0085
1559.00,0.0083
1558.00,0.0082
1557.00,0.0082
1556.00,0.0083
1555.00,0.0083
1554.00,0.0084
1553.00,0.0085
1552.00,0.0086
1551.00,0.0088
1550.00,0.0090
1549.00,0.0093
1548.00,0.0097
1547.00,0.0100
1546.00,0.0105
1545.00,0.0111
1544.00,0.0117
1543.00,0.0122
1542.00,0.0126
1541.00,0.0127
1540.00,0.0123
1539.00,0.0117
1538.00,0.0111
1537.00,0.0107
1536.00,0.0102
1535.00,0.0097
1534.00,0.0090
1533.00,0.0084
1532.00,0.0080
1531.00,0.0077
1530.00,0.0075
1529.00,0.0073
1528.00,0.0072
1527.00,0.0071
1526.00,0.0070
1525.00,0.0069
1524.00,0.0069
1523.00,0.0068
1522.00,0.0068
1521.00,0.0068
1520.00,0.0068
1519.00,0.0068
1518.00,0.0068
1517.00,0.0069
1516.00,0.0070
1515.00,0.0070
1514.00,0.0070
1513.00,0.0071
1512.00,0.0072
1511.00,0.0073
1510.00,0.0073
1509.00,0.0074
1508.00,0.0075
1507.00,0.0075
1506.00,0.0075
1505.00,0.0076
1504.00,0.0078
1503.00,0.0080
1502.00,0.0082
1501.00,0.0084
1500.00,0.0087
1499.00,0.0090
1498.00,0.0092
1497.00,0.0096
1496.00,0.0101
1495.00,0.0104
1494.00,0.0106
1493.00,0.0110
1492.00,0.0114
1491.00,0.0118
1490.00,0.0124
1489.00,0.0130
1488.00,0.0138
1487.00,0.0144
1486.00,0.0151
1485.00,0.0160
1484.00,0.0169
1483.00,0.0179
1482.00,0.0190
1481.00,0.0204
1480.00,0.0219
1479.00,0.0234
1478.00,0.0251
1477.00,0.0273
1476.00,0.0300
1475.00,0.0332
1474.00,0.0372
1473.00,0.0427
1472.00,0.0490
1471.00,0.0550
1470.00,0.0609
1469.00,0.0672
1468.00,0.0741
1467.00,0.0820
1466.00,0.0911
1465.00,0.1011
1464.00,0.1098
1463.00,0.1157
1462.00,0.1192
1461.00,0.1214
1460.00,0.1227
1459.00,0.1232
1458.00,0.1234
1457.00,0.1232
1456.00,0.1223
1455.00,0.1208
1454.00,0.1190
1453.00,0.1165
1452.00,0.1132
1451.00,0.1089
1450.00,0.1034
1449.00,0.0960
1448.00,0.0871
1447.00,0.0778
1446.00,0.0698
1445.00,0.0630
1444.00,0.0572
1443.00,0.0526
1442.00,0.0492
1441.00,0.0469
1440.00,0.0456
1439.00,0.0453
1438.00,0.0458
1437.00,0.0464
1436.00,0.0459
1435.00,0.0436
1434.00,0.0401
1433.00,0.0357
1432.00,0.0311
1431.00,0.0270
1430.00,0.0238
1429.00,0.0215
1428.00,0.0199
1427.00,0.0190
1426.00,0.0184
1425.00,0.0179
1424.00,0.0174
1423.00,0.0171
1422.00,0.0170
1421.00,0.0168
1420.00,0.0164
1419.00,0.0162
1418.00,0.0161
1417.00,0.0159
1416.00,0.0158
1415.00,0.0158
1414.00,0.0158
1413.00,0.0157
1412.00,0.0156
1411.00,0.0156
1410.00,0.0157
1409.00,0.0157
1408.00,0.0158
1407.00,0.0159
1406.00,0.0162
1405.00,0.0165
1404.00,0.0168
1403.00,0.0172
1402.00,0.0176
1401.00,0.0180
1400.00,0.0184
1399.00,0.0190
1398.00,0.0196
1397.00,0.0201
1396.00,0.0207
1395.00,0.0213
1394.00,0.0220
1393.00,0.0226
1392.00,0.0231
1391.00,0.0239
1390.00,0.0249
1389.00,0.0263
1388.00,0.0284
1387.00,0.0316
1386.00,0.0358
1385.00,0.0413
1384.00,0.0490
1383.00,0.0601
1382.00,0.0751
1381.00,0.0948
1380.00,0.1196
1379.00,0.1483
1378.00,0.1765
1377.00,0.1978
1376.00,0.2058
1375.00,0.1966
1374.00,0.1729
1373.00,0.1437
1372.00,0.1166
1371.00,0.0942
1370.00,0.0763
1369.00,0.0627
1368.00,0.0534
1367.00,0.0476
1366.00,0.0444
1365.00,0.0429
1364.00,0.0430
1363.00,0.0443
1362.00,0.0464
1361.00,0.0488
1360.00,0.0506
1359.00,0.0510
1358.00,0.0498
1357.00,0.0471
1356.00,0.0432
1355.00,0.0389
1354.00,0.0347
1353.00,0.0311
1352.00,0.0282
1351.00,0.0258
1350.00,0.0239
1349.00,0.0223
1348.00,0.0210
1347.00,0.0199
1346.00,0.0189
1345.00,0.0181
1344.00,0.0174
1343.00,0.0168
1342.00,0.0163
1341.00,0.0159
1340.00,0.0155
1339.00,0.0153
1338.00,0.0152
1337.00,0.0152
1336.00,0.0153
1335.00,0.0155
1334.00,0.0157
1333.00,0.0160
1332.00,0.0164
1331.00,0.0168
1330.00,0.0169
1329.00,0.0167
1328.00,0.0162
1327.00,0.0156
1326.00,0.0149
1325.00,0.0142
1324.00,0.0135
1323.00,0.0130
1322.00,0.0125
1321.00,0.0122
1320.00,0.0119
1319.00,0.0117
1318.00,0.0115
1317.00,0.0112
1316.00,0.0110
1315.00,0.0109
1314.00,0.0108
1313.00,0.0107
1312.00,0.0108
1311.00,0.0108
1310.00,0.0110
1309.00,0.0113
1308.00,0.0119
1307.00,0.0127
1306.00,0.0135
1305.00,0.0141
1304.00,0.0144
1303.00,0.0143
1302.00,0.0141
1301.00,0.0140
1300.00,0.0140
1299.00,0.0142
1298.00,0.0144
1297.00,0.0146
1296.00,0.0145
1295.00,0.0143
1294.00,0.0140
1293.00,0.0135
1292.00,0.0130
1291.00,0.0125
1290.00,0.0121
1289.00,0.0117
1288.00,0.0114
1287.00,0.0112
1286.00,0.0110
1285.00,0.0108
1284.00,0.0107
1283.00,0.0106
1282.00,0.0105
1281.00,0.0105
1280.00,0.0105
1279.00,0.0105
1278.00,0.0105
1277.00,0.0106
1276.00,0.0107
1275.00,0.0108
1274.00,0.0110
1273.00,0.0111
1272.00,0.0113
1271.00,0.0115
1270.00,0.0118
1269.00,0.0121
1268.00,0.0125
1267.00,0.0128
1266.00,0.0131
1265.00,0.0135
1264.00,0.0138
1263.00,0.0142
1262.00,0.0145
1261.00,0.0149
1260.00,0.0153
1259.00,0.0158
1258.00,0.0163
1257.00,0.0167
1256.00,0.0170
1255.00,0.0170
1254.00,0.0168
1253.00,0.0163
1252.00,0.0158
1251.00,0.0154
1250.00,0.0149
1249.00,0.0145
1248.00,0.0141
1247.00,0.0138
1246.00,0.0135
1245.00,0.0134
1244.00,0.0132
1243.00,0.0131
1242.00,0.0131
1241.00,0.0130
1240.00,0.0129
1239.00,0.0128
1238.00,0.0126
1237.00,0.0125
1236.00,0.0124
1235.00,0.0124
1234.00,0.0123
1233.00,0.0123
1232.00,0.0122
1231.00,0.0121
1230.00,0.0121
1229.00,0.0121
1228.00,0.0121
1227.00,0.0122
1226.00,0.0124
1225.00,0.0126
1224.00,0.0128
1223.00,0.0131
1222.00,0.0133
1221.00,0.0135
1220.00,0.0137
1219.00,0.0137
1218.00,0.0136
1217.00,0.0134
1216.00,0.0131
1215.00,0.0127
1214.00,0.0123
1213.00,0.0119
1212.00,0.0116
1211.00,0.0113
1210.00,0.0110
1209.00,0.0109
1208.00,0.0107
1207.00,0.0106
1206.00,0.0106
1205.00,0.0105
1204.00,0.0105
1203.00,0.0105
1202.00,0.0106
1201.00,0.0107
1200.00,0.0107
1199.00,0.0108
1198.00,0.0108
1197.00,0.0109
1196.00,0.0110
1195.00,0.0111
1194.00,0.0112
1193.00,0.0112
1192.00,0.0113
1191.00,0.0114
1190.00,0.0115
1189.00,0.0115
1188.00,0.0116
1187.00,0.0117
1186.00,0.0119
1185.00,0.0122
1184.00,0.0125
1183.00,0.0127
1182.00,0.0130
1181.00,0.0134
1180.00,0.0138
1179.00,0.0144
1178.00,0.0151
1177.00,0.0158
1176.00,0.0167
1175.00,0.0178
1174.00,0.0193
1173.00,0.0212
1172.00,0.0234
1171.00,0.0257
1170.00,0.0280
1169.00,0.0299
1168.00,0.0311
1167.00,0.0315
1166.00,0.0313
1165.00,0.0306
1164.00,0.0298
1163.00,0.0289
1162.00,0.0282
1161.00,0.0276
1160.00,0.0273
1159.00,0.0272
1158.00,0.0272
1157.00,0.0273
1156.00,0.0273
1155.00,0.0274
1154.00,0.0273
1153.00,0.0272
1152.00,0.0269
1151.00,0.0263
1150.00,0.0255
1149.00,0.0246
1148.00,0.0236
1147.00,0.0226
1146.00,0.0216
1145.00,0.0207
1144.00,0.0199
1143.00,0.0191
1142.00,0.0184
1141.00,0.0178
1140.00,0.0173
1139.00,0.0168
1138.00,0.0164
1137.00,0.0159
1136.00,0.0155
1135.00,0.0152
1134.00,0.0149
1133.00,0.0148
1132.00,0.0147
1131.00,0.0147
1130.00,0.0146
1129.00,0.0145
1128.00,0.0144
1127.00,0.0144
1126.00,0.0144
1125.00,0.0144
1124.00,0.0143
1123.00,0.0143
1122.00,0.0142
1121.00,0.0141
1120.00,0.0140
1119.00,0.0140
1118.00,0.0140
1117.00,0.0139
1116.00,0.0139
1115.00,0.0140
1114.00,0.0141
1113.00,0.0143
1112.00,0.0145
1111.00,0.0147
1110.00,0.0149
1109.00,0.0151
1108.00,0.0155
1107.00,0.0162
1106.00,0.0169
1105.00,0.0176
1104.00,0.0182
1103.00,0.0184
1102.00,0.0183
1101.00,0.0180
1100.00,0.0175
1099.00,0.0170
1098.00,0.0165
1097.00,0.0161
1096.00,0.0159
1095.00,0.0158
1094.00,0.0157
1093.00,0.0156
1092.00,0.0154
1091.00,0.0153
1090.00,0.0153
1089.00,0.0153
1088.00,0.0153
1087.00,0.0153
1086.00,0.0153
1085.00,0.0153
1084.00,0.0152
1083.00,0.0152
1082.00,0.0152
1081.00,0.0151
1080.00,0.0151
1079.00,0.0150
1078.00,0.0150
1077.00,0.0149
1076.00,0.0149
1075.00,0.0148
1074.00,0.0148
1073.00,0.0148
1072.00,0.0147
1071.00,0.0145
1070.00,0.0144
1069.00,0.0142
1068.00,0.0139
1067.00,0.0138
1066.00,0.0136
1065.00,0.0135
1064.00,0.0134
1063.00,0.0134
1062.00,0.0134
1061.00,0.0134
1060.00,0.0134
1059.00,0.0134
1058.00,0.0133
1057.00,0.0132
1056.00,0.0131
1055.00,0.0130
1054.00,0.0130
1053.00,0.0131
1052.00,0.0133
1051.00,0.0135
1050.00,0.0137
1049.00,0.0138
1048.00,0.0139
1047.00,0.0141
1046.00,0.0142
1045.00,0.0143
1044.00,0.0144
1043.00,0.0143
1042.00,0.0142
1041.00,0.0141
1040.00,0.0140
1039.00,0.0140
1038.00,0.0141
1037.00,0.0142
1036.00,0.0143
1035.00,0.0144
1034.00,0.0142
1033.00,0.0140
1032.00,0.0136
1031.00,0.0134
1030.00,0.0132
1029.00,0.0131
1028.00,0.0130
1027.00,0.0130
1026.00,0.0131
1025.00,0.0133
1024.00,0.0135
1023.00,0.0137
1022.00,0.0140
1021.00,0.0141
1020.00,0.0143
1019.00,0.0143
1018.00,0.0144
1017.00,0.0144
1016.00,0.0144
1015.00,0.0145
1014.00,0.0146
1013.00,0.0148
1012.00,0.0149
1011.00,0.0149
1010.00,0.0148
1009.00,0.0147
1008.00,0.0146
1007.00,0.0146
1006.00,0.0148
1005.00,0.0153
1004.00,0.0162
1003.00,0.0177
1002.00,0.0196
1001.00,0.0220
1000.00,0.0244
999.00,0.0264
998.00,0.0272
997.00,0.0265
996.00,0.0246
995.00,0.0219
994.00,0.0193
993.00,0.0170
992.00,0.0151
991.00,0.0137
990.00,0.0128
989.00,0.0122
988.00,0.0119
987.00,0.0118
986.00,0.0119
985.00,0.0120
984.00,0.0124
983.00,0.0131
982.00,0.0142
981.00,0.0157
980.00,0.0178
979.00,0.0206
978.00,0.0239
977.00,0.0276
976.00,0.0314
975.00,0.0348
974.00,0.0371
973.00,0.0377
972.00,0.0365
971.00,0.0338
970.00,0.0304
969.00,0.0270
968.00,0.0240
967.00,0.0217
966.00,0.0200
965.00,0.0188
964.00,0.0179
963.00,0.0173
962.00,0.0167
961.00,0.0163
960.00,0.0161
959.00,0.0160
958.00,0.0160
957.00,0.0160
956.00,0.0159
955.00,0.0158
954.00,0.0156
953.00,0.0154
952.00,0.0152
951.00,0.0150
950.00,0.0148
949.00,0.0147
948.00,0.0146
947.00,0.0145
946.00,0.0146
945.00,0.0148
944.00,0.0151
943.00,0.0154
942.00,0.0156
941.00,0.0157
940.00,0.0155
939.00,0.0150
938.00,0.0144
937.00,0.0136
936.00,0.0128
935.00,0.0121
934.00,0.0114
933.00,0.0107
932.00,0.0102
931.00,0.0098
930.00,0.0095
929.00,0.0092
928.00,0.0089
927.00,0.0087
926.00,0.0085
925.00,0.0083
924.00,0.0081
923.00,0.0080
922.00,0.0079
921.00,0.0078
920.00,0.0077
919.00,0.0076
918.00,0.0076
917.00,0.0076
916.00,0.0076
915.00,0.0076
914.00,0.0076
913.00,0.0076
912.00,0.0077
911.00,0.0080
910.00,0.0082
909.00,0.0085
908.00,0.0088
907.00,0.0092
906.00,0.0099
905.00,0.0110
904.00,0.0126
903.00,0.0145
902.00,0.0166
901.00,0.0183
900.00,0.0194
899.00,0.0196
898.00,0.0187
897.00,0.0171
896.00,0.0151
895.00,0.0132
894.00,0.0116
893.00,0.0104
892.00,0.0096
891.00,0.0091
890.00,0.0087
889.00,0.0086
888.00,0.0084
887.00,0.0083
886.00,0.0082
885.00,0.0081
884.00,0.0081
883.00,0.0080
882.00,0.0080
881.00,0.0079
880.00,0.0078
879.00,0.0077
878.00,0.0076
877.00,0.0077
876.00,0.0079
875.00,0.0080
874.00,0.0081
873.00,0.0082
872.00,0.0082
871.00,0.0082
870.00,0.0081
869.00,0.0080
868.00,0.0079
867.00,0.0080
866.00,0.0081
865.00,0.0082
864.00,0.0084
863.00,0.0085
862.00,0.0087
861.00,0.0088
860.00,0.0090
859.00,0.0091
858.00,0.0092
857.00,0.0091
856.00,0.0091
855.00,0.0092
854.00,0.0093
853.00,0.0095
852.00,0.0097
851.00,0.0100
850.00,0.0104
849.00,0.0108
848.00,0.0114
847.00,0.0124
846.00,0.0138
845.00,0.0160
844.00,0.0188
843.00,0.0220
842.00,0.0243
841.00,0.0249
840.00,0.0234
839.00,0.0206
838.00,0.0176
837.00,0.0152
836.00,0.0137
835.00,0.0128
834.00,0.0124
833.00,0.0121
832.00,0.0119
831.00,0.0118
830.00,0.0116
829.00,0.0114
828.00,0.0113
827.00,0.0110
826.00,0.0108
825.00,0.0107
824.00,0.0108
823.00,0.0110
822.00,0.0112
821.00,0.0115
820.00,0.0117
819.00,0.0119
818.00,0.0124
817.00,0.0131
816.00,0.0141
815.00,0.0154
814.00,0.0170
813.00,0.0189
812.00,0.0209
811.00,0.0228
810.00,0.0242
809.00,0.0249
808.00,0.0245
807.00,0.0233
806.00,0.0214
805.00,0.0193
804.00,0.0174
803.00,0.0160
802.00,0.0150
801.00,0.0142
800.00,0.0135
799.00,0.0129
798.00,0.0123
797.00,0.0116
796.00,0.0111
795.00,0.0107
794.00,0.0104
793.00,0.0101
792.00,0.0097
791.00,0.0094
790.00,0.0091
789.00,0.0088
788.00,0.0085
787.00,0.0082
786.00,0.0079
785.00,0.0078
784.00,0.0077
783.00,0.0077
782.00,0.0077
781.00,0.0076
780.00,0.0075
779.00,0.0074
778.00,0.0074
777.00,0.0074
776.00,0.0074
775.00,0.0073
774.00,0.0073
773.00,0.0073
772.00,0.0073
771.00,0.0073
770.00,0.0072
769.00,0.0072
768.00,0.0072
767.00,0.0072
766.00,0.0073
765.00,0.0075
764.00,0.0078
763.00,0.0080
762.00,0.0080
761.00,0.0079
760.00,0.0078
759.00,0.0077
758.00,0.0076
757.00,0.0076
756.00,0.0076
755.00,0.0077
754.00,0.0079
753.00,0.0081
752.00,0.0083
751.00,0.0084
750.00,0.0085
749.00,0.0085
748.00,0.0086
747.00,0.0087
746.00,0.0088
745.00,0.0089
744.00,0.0091
743.00,0.0093
742.00,0.0096
741.00,0.0100
740.00,0.0104
739.00,0.0109
738.00,0.0113
737.00,0.0117
736.00,0.0119
735.00,0.0123
734.00,0.0128
733.00,0.0134
732.00,0.0140
731.00,0.0145
730.00,0.0150
729.00,0.0152
728.00,0.0152
727.00,0.0152
726.00,0.0152
725.00,0.0154
724.00,0.0155
723.00,0.0158
722.00,0.0160
721.00,0.0162
720.00,0.0161
719.00,0.0156
718.00,0.0148
717.00,0.0139
716.00,0.0130
715.00,0.0123
714.00,0.0118
713.00,0.0115
712.00,0.0114
711.00,0.0112
710.00,0.0110
709.00,0.0109
708.00,0.0108
707.00,0.0109
706.00,0.0111
705.00,0.0112
704.00,0.0113
703.00,0.0112
702.00,0.0110
701.00,0.0108
700.00,0.0106
699.00,0.0104
698.00,0.0101
697.00,0.0100
696.00,0.0101
695.00,0.0104
694.00,0.0106
693.00,0.0107
692.00,0.0107
691.00,0.0106
690.00,0.0105
689.00,0.0105
688.00,0.0105
687.00,0.0105
686.00,0.0104
685.00,0.0104
684.00,0.0105
683.00,0.0106
682.00,0.0107
681.00,0.0108
680.00,0.0109
679.00,0.0110
678.00,0.0111
677.00,0.0112
676.00,0.0113
675.00,0.0115
674.00,0.0116
673.00,0.0117
672.00,0.0117
671.00,0.0115
670.00,0.0112
669.00,0.0109
668.00,0.0108
667.00,0.0109
666.00,0.0110
665.00,0.0109
664.00,0.0107
663.00,0.0106
662.00,0.0106
661.00,0.0105
660.00,0.0103
659.00,0.0102
658.00,0.0101
657.00,0.0101
656.00,0.0101
655.00,0.0101
654.00,0.0102
653.00,0.0103
652.00,0.0102
651.00,0.0101
650.00,0.0098
649.00,0.0096
648.00,0.0096
647.00,0.0096
646.00,0.0096
645.00,0.0095
644.00,0.0094
643.00,0.0093
642.00,0.0092
641.00,0.0090
640.00,0.0089
639.00,0.0090
638.00,0.0093
637.00,0.0095
636.00,0.0096
635.00,0.0093
634.00,0.0088
633.00,0.0083
632.00,0.0081
631.00,0.0083
630.00,0.0085
629.00,0.0087
628.00,0.0087
627.00,0.0089
626.00,0.0092
625.00,0.0094
624.00,0.0093
623.00,0.0090
622.00,0.0089
621.00,0.0089
620.00,0.0091
619.00,0.0094
618.00,0.0097
617.00,0.0098
616.00,0.0098
615.00,0.0096
614.00,0.0093
613.00,0.0091
612.00,0.0090
611.00,0.0091
610.00,0.0092
609.00,0.0092
608.00,0.0090
607.00,0.0087
606.00,0.0088
605.00,0.0090
604.00,0.0093
603.00,0.0093
602.00,0.0092
601.00,0.0091
600.00,0.0090
599.00,0.0090
598.00,0.0092
597.00,0.0095
596.00,0.0098
595.00,0.0097
594.00,0.0095
593.00,0.0093
592.00,0.0091
591.00,0.0090
590.00,0.0089
589.00,0.0089
588.00,0.0089
587.00,0.0090
586.00,0.0090
585.00,0.0092
584.00,0.0093
583.00,0.0095
582.00,0.0097
581.00,0.0099
580.00,0.0101
579.00,0.0100
578.00,0.0098
577.00,0.0096
576.00,0.0093
575.00,0.0091
574.00,0.0090
573.00,0.0090
572.00,0.0091
571.00,0.0094
570.00,0.0098
569.00,0.0102
568.00,0.0103
567.00,0.0101
566.00,0.0097
565.00,0.0094
564.00,0.0091
563.00,0.0087
562.00,0.0082
561.00,0.0079
560.00,0.0080
559.00,0.0083
558.00,0.0085
557.00,0.0086
556.00,0.0086
555.00,0.0087
554.00,0.0089
553.00,0.0093
552.00,0.0097
551.00,0.0100
550.00,0.0099
549.00,0.0097
548.00,0.0093
547.00,0.0091
546.00,0.0089
545.00,0.0088
544.00,0.0090
543.00,0.0094
542.00,0.0099
541.00,0.0102
540.00,0.0102
539.00,0.0103
538.00,0.0105
537.00,0.0108
536.00,0.0113
535.00,0.0118
534.00,0.0121
533.00,0.0120
532.00,0.0116
531.00,0.0111
530.00,0.0107
529.00,0.0107
528.00,0.0111
527.00,0.0119
526.00,0.0125
525.00,0.0123
524.00,0.0115
523.00,0.0106
522.00,0.0099
521.00,0.0096
520.00,0.0095
519.00,0.0095
518.00,0.0097
517.00,0.0098
516.00,0.0097
515.00,0.0094
514.00,0.0088
513.00,0.0084
512.00,0.0081
511.00,0.0082
510.00,0.0084
509.00,0.0088
508.00,0.0091
507.00,0.0094
506.00,0.0096
505.00,0.0097
504.00,0.0098
503.00,0.0098
502.00,0.0097
501.00,0.0096
500.00,0.0096
499.00,0.0099
498.00,0.0101
497.00,0.0102
496.00,0.0099
495.00,0.0094
494.00,0.0091
493.00,0.0091
492.00,0.0093
491.00,0.0093
490.00,0.0090
489.00,0.0088
488.00,0.0092
487.00,0.0101
486.00,0.0112
485.00,0.0119
484.00,0.0119
483.00,0.0113
482.00,0.0107
481.00,0.0102
480.00,0.0100
479.00,0.0101
478.00,0.0109
477.00,0.0125
476.00,0.0144
475.00,0.0156
474.00,0.0157
473.00,0.0150
472.00,0.0139
471.00,0.0132
470.00,0.0127
469.00,0.0126
468.00,0.0131
467.00,0.0145
466.00,0.0164
465.00,0.0181
464.00,0.0189
463.00,0.0190
462.00,0.0187
461.00,0.0187
460.00,0.0192
459.00,0.0199
458.00,0.0204
457.00,0.0200
456.00,0.0190
455.00,0.0179
454.00,0.0171
453.00,0.0168
452.00,0.0166
451.00,0.0161
450.00,0.0153
