Created as New Dataset,Sample 020 By Administrator Date Thursday, September 04 2025
cm-1,A
4000.00,0.0012
3999.00,0.0012
3998.00,0.0012
3997.00,0.0012
3996.00,0.0011
3995.00,0.0011
3994.00,0.0011
3993.00,0.0011
3992.00,0.0012
3991.00,0.0012
3990.00,0.0012
3989.00,0.0012
3988.00,0.0012
3987.00,0.0012
3986.00,0.0012
3985.00,0.0012
3984.00,0.0012
3983.00,0.0012
3982.00,0.0011
3981.00,0.0011
3980.00,0.0011
3979.00,0.0010
3978.00,0.0010
3977.00,0.0010
3976.00,0.0010
3975.00,0.0010
3974.00,0.0009
3973.00,0.0009
3972.00,0.0009
3971.00,0.0009
3970.00,0.0009
3969.00,0.0010
3968.00,0.0010
3967.00,0.0010
3966.00,0.0010
3965.00,0.0010
3964.00,0.0010
3963.00,0.0010
3962.00,0.0010
3961.00,0.0010
3960.00,0.0010
3959.00,0.0010
3958.00,0.0010
3957.00,0.0010
3956.00,0.0010
3955.00,0.0010
3954.00,0.0010
3953.00,0.0011
3952.00,0.0011
3951.00,0.0011
3950.00,0.0011
3949.00,0.0011
3948.00,0.0010
3947.00,0.0010
3946.00,0.0010
3945.00,0.0010
3944.00,0.0010
3943.00,0.0010
3942.00,0.0010
3941.00,0.0010
3940.00,0.0010
3939.00,0.0010
3938.00,0.0010
3937.00,0.0010
3936.00,0.0010
3935.00,0.0010
3934.00,0.0010
3933.00,0.0010
3932.00,0.0011
3931.00,0.0011
3930.00,0.0011
3929.00,0.0011
3928.00,0.0011
3927.00,0.0011
3926.00,0.0011
3925.00,0.0011
3924.00,0.0011
3923.00,0.0011
3922.00,0.0010
3921.00,0.0010
3920.00,0.0010
3919.00,0.0010
3918.00,0.0010
3917.00,0.0010
3916.00,0.0011
3915.00,0.0011
3914.00,0.0011
3913.00,0.0011
3912.00,0.0011
3911.00,0.0010
3910.00,0.0010
3909.00,0.0011
3908.00,0.0011
3907.00,0.0012
3906.00,0.0012
3905.00,0.0012
3904.00,0.0013
3903.00,0.0012
3902.00,0.0012
3901.00,0.0011
3900.00,0.0011
3899.00,0.0010
3898.00,0.0010
3897.00,0.0011
3896.00,0.0011
3895.00,0.0011
3894.00,0.0011
3893.00,0.0011
3892.00,0.0011
3891.00,0.0011
3890.00,0.0011
3889.00,0.0012
3888.00,0.0012
3887.00,0.0012
3886.00,0.0011
3885.00,0.0011
3884.00,0.0011
3883.00,0.0011
3882.00,0.0011
3881.00,0.0011
3880.00,0.0011
3879.00,0.0011
3878.00,0.0011
3877.00,0.0011
3876.00,0.0011
3875.00,0.0011
3874.00,0.0012
3873.00,0.0013
3872.00,0.0013
3871.00,0.0013
3870.00,0.0012
3869.00,0.0012
3868.00,0.0012
3867.00,0.0011
3866.00,0.0011
3865.00,0.0011
3864.00,0.0011
3863.00,0.0011
3862.00,0.0011
3861.00,0.0011
3860.00,0.0011
3859.00,0.0012
3858.00,0.0012
3857.00,0.0012
3856.00,0.0012
3855.00,0.0012
3854.00,0.0012
3853.00,0.0012
3852.00,0.0012
3851.00,0.0012
3850.00,0.0012
3849.00,0.0011
3848.00,0.0011
3847.00,0.0011
3846.00,0.0011
3845.00,0.0011
3844.00,0.0011
3843.00,0.0012
3842.00,0.0012
3841.00,0.0013
3840.00,0.0013
3839.00,0.0013
3838.00,0.0013
3837.00,0.0012
3836.00,0.0012
3835.00,0.0011
3834.00,0.0011
3833.00,0.0011
3832.00,0.0011
3831.00,0.0011
3830.00,0.0011
3829.00,0.0011
3828.00,0.0011
3827.00,0.0011
3826.00,0.0012
3825.00,0.0012
3824.00,0.0013
3823.00,0.0014
3822.00,0.0014
3821.00,0.0015
3820.00,0.0014
3819.00,0.0014
3818.00,0.0014
3817.00,0.0013
3816.00,0.0013
3815.00,0.0013
3814.00,0.0012
3813.00,0.0012
3812.00,0.0012
3811.00,0.0012
3810.00,0.0012
3809.00,0.0012
3808.00,0.0013
3807.00,0.0013
3806.00,0.0013
3805.00,0.0013
3804.00,0.0013
3803.00,0.0013
3802.00,0.0012
3801.00,0.0012
3800.00,0.0012
3799.00,0.0011
3798.00,0.0011
3797.00,0.0011
3796.00,0.0011
3795.00,0.0011
3794.00,0.0011
3793.00,0.0011
3792.00,0.0010
3791.00,0.0010
3790.00,0.0010
3789.00,0.0010
3788.00,0.0010
3787.00,0.0010
3786.00,0.0010
3785.00,0.0010
3784.00,0.0010
3783.00,0.0010
3782.00,0.0011
3781.00,0.0011
3780.00,0.0010
3779.00,0.0010
3778.00,0.0010
3777.00,0.0010
3776.00,0.0010
3775.00,0.0010
3774.00,0.0010
3773.00,0.0010
3772.00,0.0011
3771.00,0.0011
3770.00,0.0011
3769.00,0.0011
3768.00,0.0011
3767.00,0.0011
3766.00,0.0011
3765.00,0.0011
3764.00,0.0012
3763.00,0.0012
3762.00,0.0012
3761.00,0.0012
3760.00,0.0011
3759.00,0.0011
3758.00,0.0011
3757.00,0.0011
3756.00,0.0012
3755.00,0.0013
3754.00,0.0013
3753.00,0.0014
3752.00,0.0014
3751.00,0.0014
3750.00,0.0014
3749.00,0.0014
3748.00,0.0013
3747.00,0.0013
3746.00,0.0012
3745.00,0.0011
3744.00,0.0011
3743.00,0.0011
3742.00,0.0012
3741.00,0.0012
3740.00,0.0013
3739.00,0.0013
3738.00,0.0013
3737.00,0.0013
3736.00,0.0013
3735.00,0.0013
3734.00,0.0012
3733.00,0.0011
3732.00,0.0011
3731.00,0.0011
3730.00,0.0011
3729.00,0.0011
3728.00,0.0012
3727.00,0.0011
3726.00,0.0011
3725.00,0.0011
3724.00,0.0010
3723.00,0.0010
3722.00,0.0010
3721.00,0.0010
3720.00,0.0010
3719.00,0.0010
3718.00,0.0010
3717.00,0.0010
3716.00,0.0010
3715.00,0.0010
3714.00,0.0010
3713.00,0.0010
3712.00,0.0010
3711.00,0.0010
3710.00,0.0010
3709.00,0.0010
3708.00,0.0010
3707.00,0.0010
3706.00,0.0011
3705.00,0.0011
3704.00,0.0011
3703.00,0.0011
3702.00,0.0011
3701.00,0.0011
3700.00,0.0011
3699.00,0.0011
3698.00,0.0011
3697.00,0.0011
3696.00,0.0011
3695.00,0.0011
3694.00,0.0011
3693.00,0.0011
3692.00,0.0012
3691.00,0.0012
3690.00,0.0012
3689.00,0.0013
3688.00,0.0013
3687.00,0.0013
3686.00,0.0013
3685.00,0.0014
3684.00,0.0014
3683.00,0.0015
3682.00,0.0016
3681.00,0.0016
3680.00,0.0017
3679.00,0.0018
3678.00,0.0020
3677.00,0.0021
3676.00,0.0022
3675.00,0.0023
3674.00,0.0024
3673.00,0.0024
3672.00,0.0024
3671.00,0.0024
3670.00,0.0024
3669.00,0.0023
3668.00,0.0023
3667.00,0.0023
3666.00,0.0022
3665.00,0.0022
3664.00,0.0022
3663.00,0.0022
3662.00,0.0023
3661.00,0.0023
3660.00,0.0024
3659.00,0.0024
3658.00,0.0025
3657.00,0.0025
3656.00,0.0025
3655.00,0.0025
3654.00,0.0024
3653.00,0.0024
3652.00,0.0024
3651.00,0.0024
3650.00,0.0025
3649.00,0.0025
3648.00,0.0025
3647.00,0.0024
3646.00,0.0024
3645.00,0.0023
3644.00,0.0023
3643.00,0.0022
3642.00,0.0022
3641.00,0.0022
3640.00,0.0022
3639.00,0.0022
3638.00,0.0022
3637.00,0.0022
3636.00,0.0021
3635.00,0.0020
3634.00,0.0019
3633.00,0.0019
3632.00,0.0019
3631.00,0.0018
3630.00,0.0018
3629.00,0.0017
3628.00,0.0017
3627.00,0.0017
3626.00,0.0017
3625.00,0.0017
3624.00,0.0017
3623.00,0.0017
3622.00,0.0017
3621.00,0.0017
3620.00,0.0017
3619.00,0.0017
3618.00,0.0016
3617.00,0.0016
3616.00,0.0017
3615.00,0.0017
3614.00,0.0017
3613.00,0.0017
3612.00,0.0018
3611.00,0.0018
3610.00,0.0018
3609.00,0.0019
3608.00,0.0019
3607.00,0.0018
3606.00,0.0018
3605.00,0.0018
3604.00,0.0018
3603.00,0.0018
3602.00,0.0019
3601.00,0.0019
3600.00,0.0019
3599.00,0.0019
3598.00,0.0019
3597.00,0.0019
3596.00,0.0019
3595.00,0.0019
3594.00,0.0019
3593.00,0.0019
3592.00,0.0019
3591.00,0.0019
3590.00,0.0019
3589.00,0.0020
3588.00,0.0019
3587.00,0.0019
3586.00,0.0020
3585.00,0.0020
3584.00,0.0020
3583.00,0.0021
3582.00,0.0021
3581.00,0.0021
3580.00,0.0022
3579.00,0.0022
3578.00,0.0022
3577.00,0.0022
3576.00,0.0022
3575.00,0.0022
3574.00,0.0023
3573.00,0.0023
3572.00,0.0023
3571.00,0.0024
3570.00,0.0024
3569.00,0.0024
3568.00,0.0025
3567.00,0.0025
3566.00,0.0026
3565.00,0.0026
3564.00,0.0026
3563.00,0.0026
3562.00,0.0026
3561.00,0.0026
3560.00,0.0027
3559.00,0.0027
3558.00,0.0027
3557.00,0.0027
3556.00,0.0027
3555.00,0.0028
3554.00,0.0028
3553.00,0.0028
3552.00,0.0029
3551.00,0.0029
3550.00,0.0029
3549.00,0.0029
3548.00,0.0030
3547.00,0.0030
3546.00,0.0031
3545.00,0.0031
3544.00,0.0031
3543.00,0.0031
3542.00,0.0031
3541.00,0.0030
3540.00,0.0030
3539.00,0.0030
3538.00,0.0031
3537.00,0.0031
3536.00,0.0031
3535.00,0.0032
3534.00,0.0032
3533.00,0.0033
3532.00,0.0033
3531.00,0.0034
3530.00,0.0034
3529.00,0.0035
3528.00,0.0035
3527.00,0.0035
3526.00,0.0035
3525.00,0.0035
3524.00,0.0035
3523.00,0.0035
3522.00,0.0035
3521.00,0.0036
3520.00,0.0036
3519.00,0.0036
3518.00,0.0036
3517.00,0.0036
3516.00,0.0037
3515.00,0.0037
3514.00,0.0037
3513.00,0.0038
3512.00,0.0038
3511.00,0.0038
3510.00,0.0038
3509.00,0.0038
3508.00,0.0039
3507.00,0.0039
3506.00,0.0040
3505.00,0.0040
3504.00,0.0041
3503.00,0.0041
3502.00,0.0042
3501.00,0.0042
3500.00,0.0043
3499.00,0.0043
3498.00,0.0042
3497.00,0.0042
3496.00,0.0042
3495.00,0.0042
3494.00,0.0043
3493.00,0.0043
3492.00,0.0044
3491.00,0.0044
3490.00,0.0044
3489.00,0.0045
3488.00,0.0045
3487.00,0.0045
3486.00,0.0046
3485.00,0.0046
3484.00,0.0047
3483.00,0.0047
3482.00,0.0048
3481.00,0.0049
3480.00,0.0049
3479.00,0.0049
3478.00,0.0049
3477.00,0.0049
3476.00,0.0049
3475.00,0.0049
3474.00,0.0049
3473.00,0.0049
3472.00,0.0049
3471.00,0.0049
3470.00,0.0049
3469.00,0.0049
3468.00,0.0049
3467.00,0.0050
3466.00,0.0050
3465.00,0.0051
3464.00,0.0051
3463.00,0.0051
3462.00,0.0051
3461.00,0.0052
3460.00,0.0052
3459.00,0.0053
3458.00,0.0053
3457.00,0.0053
3456.00,0.0054
3455.00,0.0054
3454.00,0.0055
3453.00,0.0055
3452.00,0.0055
3451.00,0.0055
3450.00,0.0056
3449.00,0.0056
3448.00,0.0056
3447.00,0.0056
3446.00,0.0057
3445.00,0.0057
3444.00,0.0058
3443.00,0.0058
3442.00,0.0058
3441.00,0.0059
3440.00,0.0059
3439.00,0.0059
3438.00,0.0059
3437.00,0.0059
3436.00,0.0059
3435.00,0.0059
3434.00,0.0059
3433.00,0.0060
3432.00,0.0060
3431.00,0.0061
3430.00,0.0062
3429.00,0.0062
3428.00,0.0062
3427.00,0.0062
3426.00,0.0063
3425.00,0.0063
3424.00,0.0063
3423.00,0.0063
3422.00,0.0063
3421.00,0.0063
3420.00,0.0064
3419.00,0.0064
3418.00,0.0064
3417.00,0.0064
3416.00,0.0065
3415.00,0.0065
3414.00,0.0066
3413.00,0.0067
3412.00,0.0068
3411.00,0.0069
3410.00,0.0069
3409.00,0.0069
3408.00,0.0070
3407.00,0.0070
3406.00,0.0071
3405.00,0.0071
3404.00,0.0072
3403.00,0.0073
3402.00,0.0073
3401.00,0.0074
3400.00,0.0076
3399.00,0.0077
3398.00,0.0077
3397.00,0.0078
3396.00,0.0078
3395.00,0.0078
3394.00,0.0078
3393.00,0.0078
3392.00,0.0078
3391.00,0.0078
3390.00,0.0077
3389.00,0.0076
3388.00,0.0076
3387.00,0.0075
3386.00,0.0075
3385.00,0.0075
3384.00,0.0074
3383.00,0.0073
3382.00,0.0072
3381.00,0.0072
3380.00,0.0071
3379.00,0.0071
3378.00,0.0071
3377.00,0.0072
3376.00,0.0072
3375.00,0.0072
3374.00,0.0072
3373.00,0.0071
3372.00,0.0071
3371.00,0.0071
3370.00,0.0071
3369.00,0.0072
3368.00,0.0072
3367.00,0.0071
3366.00,0.0071
3365.00,0.0071
3364.00,0.0071
3363.00,0.0071
3362.00,0.0071
3361.00,0.0071
3360.00,0.0071
3359.00,0.0071
3358.00,0.0071
3357.00,0.0071
3356.00,0.0071
3355.00,0.0072
3354.00,0.0072
3353.00,0.0072
3352.00,0.0073
3351.00,0.0073
3350.00,0.0073
3349.00,0.0072
3348.00,0.0072
3347.00,0.0071
3346.00,0.0071
3345.00,0.0071
3344.00,0.0071
3343.00,0.0071
3342.00,0.0071
3341.00,0.0072
3340.00,0.0072
3339.00,0.0072
3338.00,0.0072
3337.00,0.0072
3336.00,0.0071
3335.00,0.0071
3334.00,0.0071
3333.00,0.0071
3332.00,0.0071
3331.00,0.0071
3330.00,0.0071
3329.00,0.0070
3328.00,0.0070
3327.00,0.0070
3326.00,0.0070
3325.00,0.0070
3324.00,0.0070
3323.00,0.0070
3322.00,0.0070
3321.00,0.0070
3320.00,0.0070
3319.00,0.0070
3318.00,0.0070
3317.00,0.0070
3316.00,0.0071
3315.00,0.0071
3314.00,0.0071
3313.00,0.0071
3312.00,0.0070
3311.00,0.0070
3310.00,0.0070
3309.00,0.0071
3308.00,0.0071
3307.00,0.0071
3306.00,0.0071
3305.00,0.0071
3304.00,0.0071
3303.00,0.0071
3302.00,0.0071
3301.00,0.0071
3300.00,0.0071
3299.00,0.0071
3298.00,0.0071
3297.00,0.0071
3296.00,0.0070
3295.00,0.0070
3294.00,0.0070
3293.00,0.0070
3292.00,0.0070
3291.00,0.0069
3290.00,0.0069
3289.00,0.0068
3288.00,0.0068
3287.00,0.0068
3286.00,0.0067
3285.00,0.0067
3284.00,0.0067
3283.00,0.0067
3282.00,0.0067
3281.00,0.0067
3280.00,0.0067
3279.00,0.0067
3278.00,0.0067
3277.00,0.0067
3276.00,0.0066
3275.00,0.0065
3274.00,0.0065
3273.00,0.0064
3272.00,0.0064
3271.00,0.0064
3270.00,0.0064
3269.00,0.0064
3268.00,0.0065
3267.00,0.0065
3266.00,0.0065
3265.00,0.0065
3264.00,0.0065
3263.00,0.0064
3262.00,0.0064
3261.00,0.0063
3260.00,0.0063
3259.00,0.0062
3258.00,0.0062
3257.00,0.0063
3256.00,0.0063
3255.00,0.0062
3254.00,0.0062
3253.00,0.0062
3252.00,0.0062
3251.00,0.0062
3250.00,0.0062
3249.00,0.0062
3248.00,0.0062
3247.00,0.0062
3246.00,0.0062
3245.00,0.0062
3244.00,0.0062
3243.00,0.0061
3242.00,0.0061
3241.00,0.0061
3240.00,0.0061
3239.00,0.0061
3238.00,0.0061
3237.00,0.0061
3236.00,0.0061
3235.00,0.0062
3234.00,0.0062
3233.00,0.0062
3232.00,0.0062
3231.00,0.0063
3230.00,0.0063
3229.00,0.0063
3228.00,0.0063
3227.00,0.0064
3226.00,0.0064
3225.00,0.0064
3224.00,0.0064
3223.00,0.0064
3222.00,0.0064
3221.00,0.0065
3220.00,0.0065
3219.00,0.0065
3218.00,0.0065
3217.00,0.0065
3216.00,0.0065
3215.00,0.0066
3214.00,0.0066
3213.00,0.0066
3212.00,0.0067
3211.00,0.0067
3210.00,0.0067
3209.00,0.0067
3208.00,0.0068
3207.00,0.0068
3206.00,0.0069
3205.00,0.0069
3204.00,0.0069
3203.00,0.0069
3202.00,0.0068
3201.00,0.0068
3200.00,0.0069
3199.00,0.0069
3198.00,0.0069
3197.00,0.0069
3196.00,0.0069
3195.00,0.0069
3194.00,0.0069
3193.00,0.0069
3192.00,0.0069
3191.00,0.0069
3190.00,0.0069
3189.00,0.0069
3188.00,0.0069
3187.00,0.0069
3186.00,0.0068
3185.00,0.0068
3184.00,0.0068
3183.00,0.0067
3182.00,0.0067
3181.00,0.0066
3180.00,0.0065
3179.00,0.0064
3178.00,0.0064
3177.00,0.0063
3176.00,0.0063
3175.00,0.0063
3174.00,0.0062
3173.00,0.0062
3172.00,0.0061
3171.00,0.0061
3170.00,0.0060
3169.00,0.0059
3168.00,0.0058
3167.00,0.0058
3166.00,0.0058
3165.00,0.0058
3164.00,0.0058
3163.00,0.0058
3162.00,0.0057
3161.00,0.0057
3160.00,0.0057
3159.00,0.0056
3158.00,0.0056
3157.00,0.0056
3156.00,0.0056
3155.00,0.0056
3154.00,0.0055
3153.00,0.0055
3152.00,0.0055
3151.00,0.0055
3150.00,0.0055
3149.00,0.0054
3148.00,0.0054
3147.00,0.0054
3146.00,0.0054
3145.00,0.0054
3144.00,0.0054
3143.00,0.0053
3142.00,0.0053
3141.00,0.0053
3140.00,0.0053
3139.00,0.0052
3138.00,0.0052
3137.00,0.0051
3136.00,0.0051
3135.00,0.0051
3134.00,0.0051
3133.00,0.0051
3132.00,0.0050
3131.00,0.0050
3130.00,0.0050
3129.00,0.0050
3128.00,0.0049
3127.00,0.0049
3126.00,0.0048
3125.00,0.0048
3124.00,0.0048
3123.00,0.0048
3122.00,0.0047
3121.00,0.0047
3120.00,0.0047
3119.00,0.0046
3118.00,0.0046
3117.00,0.0045
3116.00,0.0045
3115.00,0.0045
3114.00,0.0045
3113.00,0.0045
3112.00,0.0045
3111.00,0.0045
3110.00,0.0045
3109.00,0.0045
3108.00,0.0044
3107.00,0.0044
3106.00,0.0044
3105.00,0.0044
3104.00,0.0044
3103.00,0.0044
3102.00,0.0044
3101.00,0.0044
3100.00,0.0044
3099.00,0.0044
3098.00,0.0044
3097.00,0.0043
3096.00,0.0043
3095.00,0.0043
3094.00,0.0043
3093.00,0.0043
3092.00,0.0043
3091.00,0.0044
3090.00,0.0044
3089.00,0.0044
3088.00,0.0044
3087.00,0.0043
3086.00,0.0043
3085.00,0.0043
3084.00,0.0043
3083.00,0.0043
3082.00,0.0043
3081.00,0.0043
3080.00,0.0043
3079.00,0.0043
3078.00,0.0043
3077.00,0.0042
3076.00,0.0042
3075.00,0.0042
3074.00,0.0042
3073.00,0.0042
3072.00,0.0043
3071.00,0.0043
3070.00,0.0043
3069.00,0.0043
3068.00,0.0043
3067.00,0.0043
3066.00,0.0043
3065.00,0.0044
3064.00,0.0044
3063.00,0.0044
3062.00,0.0044
3061.00,0.0045
3060.00,0.0045
3059.00,0.0045
3058.00,0.0044
3057.00,0.0044
3056.00,0.0044
3055.00,0.0044
3054.00,0.0045
3053.00,0.0045
3052.00,0.0045
3051.00,0.0045
3050.00,0.0045
3049.00,0.0046
3048.00,0.0046
3047.00,0.0046
3046.00,0.0046
3045.00,0.0046
3044.00,0.0046
3043.00,0.0046
3042.00,0.0047
3041.00,0.0047
3040.00,0.0047
3039.00,0.0047
3038.00,0.0048
3037.00,0.0048
3036.00,0.0048
3035.00,0.0048
3034.00,0.0048
3033.00,0.0049
3032.00,0.0049
3031.00,0.0050
3030.00,0.0050
3029.00,0.0051
3028.00,0.0051
3027.00,0.0052
3026.00,0.0052
3025.00,0.0053
3024.00,0.0054
3023.00,0.0055
3022.00,0.0056
3021.00,0.0057
3020.00,0.0058
3019.00,0.0060
3018.00,0.0062
3017.00,0.0064
3016.00,0.0067
3015.00,0.0070
3014.00,0.0073
3013.00,0.0076
3012.00,0.0079
3011.00,0.0083
3010.00,0.0086
3009.00,0.0090
3008.00,0.0094
3007.00,0.0099
3006.00,0.0104
3005.00,0.0109
3004.00,0.0114
3003.00,0.0119
3002.00,0.0125
3001.00,0.0130
3000.00,0.0136
2999.00,0.0141
2998.00,0.0147
2997.00,0.0152
2996.00,0.0157
2995.00,0.0162
2994.00,0.0168
2993.00,0.0174
2992.00,0.0181
2991.00,0.0188
2990.00,0.0195
2989.00,0.0203
2988.00,0.0212
2987.00,0.0223
2986.00,0.0238
2985.00,0.0257
2984.00,0.0279
2983.00,0.0302
2982.00,0.0322
2981.00,0.0339
2980.00,0.0353
2979.00,0.0367
2978.00,0.0383
2977.00,0.0403
2976.00,0.0429
2975.00,0.0460
2974.00,0.0498
2973.00,0.0542
2972.00,0.0590
2971.00,0.0642
2970.00,0.0697
2969.00,0.0756
2968.00,0.0820
2967.00,0.0888
2966.00,0.0959
2965.00,0.1030
2964.00,0.1098
2963.00,0.1161
2962.00,0.1216
2961.00,0.1263
2960.00,0.1304
2959.00,0.1343
2958.00,0.1385
2957.00,0.1434
2956.00,0.1494
2955.00,0.1566
2954.00,0.1648
2953.00,0.1732
2952.00,0.1809
2951.00,0.1868
2950.00,0.1895
2949.00,0.1883
2948.00,0.1830
2947.00,0.1741
2946.00,0.1626
2945.00,0.1502
2944.00,0.1382
2943.00,0.1279
2942.00,0.1199
2941.00,0.1144
2940.00,0.1114
2939.00,0.1107
2938.00,0.1120
2937.00,0.1150
2936.00,0.1198
2935.00,0.1260
2934.00,0.1337
2933.00,0.1427
2932.00,0.1528
2931.00,0.1639
2930.00,0.1757
2929.00,0.1879
2928.00,0.2003
2927.00,0.2125
2926.00,0.2245
2925.00,0.2363
2924.00,0.2479
2923.00,0.2595
2922.00,0.2709
2921.00,0.2820
2920.00,0.2920
2919.00,0.2998
2918.00,0.3042
2917.00,0.3041
2916.00,0.2994
2915.00,0.2907
2914.00,0.2792
2913.00,0.2662
2912.00,0.2532
2911.00,0.2408
2910.00,0.2295
2909.00,0.2193
2908.00,0.2100
2907.00,0.2014
2906.00,0.1932
2905.00,0.1853
2904.00,0.1777
2903.00,0.1702
2902.00,0.1630
2901.00,0.1562
2900.00,0.1496
2899.00,0.1435
2898.00,0.1379
2897.00,0.1327
2896.00,0.1281
2895.00,0.1241
2894.00,0.1207
2893.00,0.1179
2892.00,0.1157
2891.00,0.1141
2890.00,0.1131
2889.00,0.1124
2888.00,0.1121
2887.00,0.1121
2886.00,0.1124
2885.00,0.1132
2884.00,0.1145
2883.00,0.1162
2882.00,0.1184
2881.00,0.1210
2880.00,0.1236
2879.00,0.1259
2878.00,0.1276
2877.00,0.1283
2876.00,0.1282
2875.00,0.1275
2874.00,0.1269
2873.00,0.1267
2872.00,0.1272
2871.00,0.1284
2870.00,0.1301
2869.00,0.1320
2868.00,0.1333
2867.00,0.1331
2866.00,0.1309
2865.00,0.1263
2864.00,0.1197
2863.00,0.1120
2862.00,0.1041
2861.00,0.0972
2860.00,0.0917
2859.00,0.0879
2858.00,0.0858
2857.00,0.0849
2856.00,0.0852
2855.00,0.0863
2854.00,0.0881
2853.00,0.0901
2852.00,0.0922
2851.00,0.0939
2850.00,0.0950
2849.00,0.0953
2848.00,0.0952
2847.00,0.0953
2846.00,0.0962
2845.00,0.0982
2844.00,0.1015
2843.00,0.1058
2842.00,0.1106
2841.00,0.1153
2840.00,0.1192
2839.00,0.1214
2838.00,0.1213
2837.00,0.1182
2836.00,0.1123
2835.00,0.1038
2834.00,0.0938
2833.00,0.0832
2832.00,0.0731
2831.00,0.0640
2830.00,0.0563
2829.00,0.0499
2828.00,0.0448
2827.00,0.0406
2826.00,0.0372
2825.00,0.0344
2824.00,0.0321
2823.00,0.0301
2822.00,0.0284
2821.00,0.0269
2820.00,0.0257
2819.00,0.0246
2818.00,0.0236
2817.00,0.0228
2816.00,0.0221
2815.00,0.0214
2814.00,0.0208
2813.00,0.0202
2812.00,0.0196
2811.00,0.0190
2810.00,0.0185
2809.00,0.0179
2808.00,0.0173
2807.00,0.0166
2806.00,0.0159
2805.00,0.0152
2804.00,0.0146
2803.00,0.0140
2802.00,0.0135
2801.00,0.0130
2800.00,0.0126
2799.00,0.0122
2798.00,0.0119
2797.00,0.0116
2796.00,0.0114
2795.00,0.0112
2794.00,0.0109
2793.00,0.0106
2792.00,0.0103
2791.00,0.0100
2790.00,0.0097
2789.00,0.0094
2788.00,0.0092
2787.00,0.0090
2786.00,0.0087
2785.00,0.0085
2784.00,0.0083
2783.00,0.0081
2782.00,0.0079
2781.00,0.0078
2780.00,0.0076
2779.00,0.0074
2778.00,0.0072
2777.00,0.0070
2776.00,0.0069
2775.00,0.0068
2774.00,0.0068
2773.00,0.0067
2772.00,0.0067
2771.00,0.0066
2770.00,0.0065
2769.00,0.0065
2768.00,0.0065
2767.00,0.0064
2766.00,0.0064
2765.00,0.0063
2764.00,0.0063
2763.00,0.0062
2762.00,0.0062
2761.00,0.0062
2760.00,0.0061
2759.00,0.0061
2758.00,0.0061
2757.00,0.0061
2756.00,0.0061
2755.00,0.0061
2754.00,0.0061
2753.00,0.0061
2752.00,0.0060
2751.00,0.0060
2750.00,0.0059
2749.00,0.0059
2748.00,0.0059
2747.00,0.0059
2746.00,0.0059
2745.00,0.0060
2744.00,0.0061
2743.00,0.0062
2742.00,0.0063
2741.00,0.0064
2740.00,0.0065
2739.00,0.0066
2738.00,0.0067
2737.00,0.0068
2736.00,0.0070
2735.00,0.0071
2734.00,0.0073
2733.00,0.0075
2732.00,0.0076
2731.00,0.0078
2730.00,0.0080
2729.00,0.0083
2728.00,0.0085
2727.00,0.0088
2726.00,0.0092
2725.00,0.0094
2724.00,0.0096
2723.00,0.0096
2722.00,0.0095
2721.00,0.0093
2720.00,0.0090
2719.00,0.0087
2718.00,0.0084
2717.00,0.0080
2716.00,0.0077
2715.00,0.0074
2714.00,0.0072
2713.00,0.0070
2712.00,0.0068
2711.00,0.0066
2710.00,0.0064
2709.00,0.0062
2708.00,0.0060
2707.00,0.0059
2706.00,0.0058
2705.00,0.0056
2704.00,0.0055
2703.00,0.0054
2702.00,0.0053
2701.00,0.0053
2700.00,0.0052
2699.00,0.0052
2698.00,0.0051
2697.00,0.0051
2696.00,0.0051
2695.00,0.0051
2694.00,0.0051
2693.00,0.0051
2692.00,0.0051
2691.00,0.0051
2690.00,0.0051
2689.00,0.0051
2688.00,0.0051
2687.00,0.0051
2686.00,0.0051
2685.00,0.0051
2684.00,0.0051
2683.00,0.0051
2682.00,0.0051
2681.00,0.0051
2680.00,0.0052
2679.00,0.0052
2678.00,0.0052
2677.00,0.0053
2676.00,0.0053
2675.00,0.0052
2674.00,0.0052
2673.00,0.0052
2672.00,0.0052
2671.00,0.0051
2670.00,0.0051
2669.00,0.0051
2668.00,0.0051
2667.00,0.0052
2666.00,0.0052
2665.00,0.0053
2664.00,0.0054
2663.00,0.0054
2662.00,0.0055
2661.00,0.0055
2660.00,0.0055
2659.00,0.0055
2658.00,0.0055
2657.00,0.0055
2656.00,0.0054
2655.00,0.0053
2654.00,0.0053
2653.00,0.0052
2652.00,0.0051
2651.00,0.0051
2650.00,0.0050
2649.00,0.0049
2648.00,0.0049
2647.00,0.0049
2646.00,0.0049
2645.00,0.0048
2644.00,0.0048
2643.00,0.0047
2642.00,0.0047
2641.00,0.0046
2640.00,0.0046
2639.00,0.0045
2638.00,0.0045
2637.00,0.0044
2636.00,0.0044
2635.00,0.0043
2634.00,0.0043
2633.00,0.0044
2632.00,0.0044
2631.00,0.0044
2630.00,0.0044
2629.00,0.0044
2628.00,0.0044
2627.00,0.0044
2626.00,0.0044
2625.00,0.0045
2624.00,0.0045
2623.00,0.0045
2622.00,0.0045
2621.00,0.0045
2620.00,0.0045
2619.00,0.0045
2618.00,0.0045
2617.00,0.0045
2616.00,0.0045
2615.00,0.0045
2614.00,0.0045
2613.00,0.0045
2612.00,0.0045
2611.00,0.0044
2610.00,0.0043
2609.00,0.0042
2608.00,0.0040
2607.00,0.0039
2606.00,0.0038
2605.00,0.0037
2604.00,0.0037
2603.00,0.0037
2602.00,0.0036
2601.00,0.0036
2600.00,0.0037
2599.00,0.0036
2598.00,0.0036
2597.00,0.0036
2596.00,0.0035
2595.00,0.0035
2594.00,0.0036
2593.00,0.0036
2592.00,0.0037
2591.00,0.0038
2590.00,0.0039
2589.00,0.0040
2588.00,0.0041
2587.00,0.0042
2586.00,0.0043
2585.00,0.0044
2584.00,0.0044
2583.00,0.0045
2582.00,0.0045
2581.00,0.0044
2580.00,0.0043
2579.00,0.0042
2578.00,0.0041
2577.00,0.0039
2576.00,0.0038
2575.00,0.0037
2574.00,0.0036
2573.00,0.0034
2572.00,0.0033
2571.00,0.0031
2570.00,0.0030
2569.00,0.0029
2568.00,0.0028
2567.00,0.0028
2566.00,0.0028
2565.00,0.0028
2564.00,0.0028
2563.00,0.0028
2562.00,0.0028
2561.00,0.0029
2560.00,0.0029
2559.00,0.0029
2558.00,0.0028
2557.00,0.0027
2556.00,0.0027
2555.00,0.0026
2554.00,0.0026
2553.00,0.0026
2552.00,0.0026
2551.00,0.0025
2550.00,0.0025
2549.00,0.0024
2548.00,0.0023
2547.00,0.0023
2546.00,0.0022
2545.00,0.0022
2544.00,0.0022
2543.00,0.0022
2542.00,0.0022
2541.00,0.0022
2540.00,0.0022
2539.00,0.0022
2538.00,0.0021
2537.00,0.0021
2536.00,0.0021
2535.00,0.0021
2534.00,0.0021
2533.00,0.0020
2532.00,0.0020
2531.00,0.0020
2530.00,0.0020
2529.00,0.0020
2528.00,0.0020
2527.00,0.0019
2526.00,0.0018
2525.00,0.0017
2524.00,0.0017
2523.00,0.0017
2522.00,0.0018
2521.00,0.0018
2520.00,0.0017
2519.00,0.0017
2518.00,0.0017
2517.00,0.0016
2516.00,0.0016
2515.00,0.0016
2514.00,0.0016
2513.00,0.0016
2512.00,0.0016
2511.00,0.0016
2510.00,0.0016
2509.00,0.0016
2508.00,0.0015
2507.00,0.0015
2506.00,0.0015
2505.00,0.0014
2504.00,0.0014
2503.00,0.0014
2502.00,0.0014
2501.00,0.0015
2500.00,0.0015
2499.00,0.0015
2498.00,0.0014
2497.00,0.0013
2496.00,0.0013
2495.00,0.0014
2494.00,0.0015
2493.00,0.0015
2492.00,0.0015
2491.00,0.0014
2490.00,0.0014
2489.00,0.0014
2488.00,0.0014
2487.00,0.0015
2486.00,0.0015
2485.00,0.0015
2484.00,0.0015
2483.00,0.0014
2482.00,0.0014
2481.00,0.0013
2480.00,0.0013
2479.00,0.0013
2478.00,0.0014
2477.00,0.0015
2476.00,0.0015
2475.00,0.0014
2474.00,0.0013
2473.00,0.0012
2472.00,0.0012
2471.00,0.0012
2470.00,0.0012
2469.00,0.0012
2468.00,0.0013
2467.00,0.0014
2466.00,0.0014
2465.00,0.0014
2464.00,0.0013
2463.00,0.0013
2462.00,0.0013
2461.00,0.0013
2460.00,0.0014
2459.00,0.0014
2458.00,0.0015
2457.00,0.0015
2456.00,0.0016
2455.00,0.0016
2454.00,0.0016
2453.00,0.0016
2452.00,0.0016
2451.00,0.0016
2450.00,0.0016
2449.00,0.0015
2448.00,0.0015
2447.00,0.0015
2446.00,0.0015
2445.00,0.0015
2444.00,0.0014
2443.00,0.0014
2442.00,0.0014
2441.00,0.0014
2440.00,0.0014
2439.00,0.0014
2438.00,0.0014
2437.00,0.0014
2436.00,0.0014
2435.00,0.0015
2434.00,0.0015
2433.00,0.0015
2432.00,0.0014
2431.00,0.0014
2430.00,0.0015
2429.00,0.0016
2428.00,0.0016
2427.00,0.0016
2426.00,0.0015
2425.00,0.0015
2424.00,0.0015
2423.00,0.0015
2422.00,0.0014
2421.00,0.0013
2420.00,0.0013
2419.00,0.0012
2418.00,0.0012
2417.00,0.0013
2416.00,0.0013
2415.00,0.0013
2414.00,0.0012
2413.00,0.0012
2412.00,0.0012
2411.00,0.0013
2410.00,0.0013
2409.00,0.0014
2408.00,0.0014
2407.00,0.0014
2406.00,0.0014
2405.00,0.0013
2404.00,0.0013
2403.00,0.0012
2402.00,0.0012
2401.00,0.0012
2400.00,0.0012
2399.00,0.0012
2398.00,0.0012
2397.00,0.0011
2396.00,0.0011
2395.00,0.0011
2394.00,0.0011
2393.00,0.0011
2392.00,0.0012
2391.00,0.0012
2390.00,0.0012
2389.00,0.0011
2388.00,0.0010
2387.00,0.0009
2386.00,0.0009
2385.00,0.0009
2384.00,0.0008
2383.00,0.0008
2382.00,0.0007
2381.00,0.0006
2380.00,0.0006
2379.00,0.0005
2378.00,0.0003
2377.00,0.0002
2376.00,0.0002
2375.00,0.0002
2374.00,0.0002
2373.00,0.0003
2372.00,0.0004
2371.00,0.0005
2370.00,0.0004
2369.00,0.0003
2368.00,0.0002
2367.00,0.0002
2366.00,0.0002
2365.00,0.0003
2364.00,0.0004
2363.00,0.0004
2362.00,0.0004
2361.00,0.0004
2360.00,0.0004
2359.00,0.0003
2358.00,0.0003
2357.00,0.0003
2356.00,0.0003
2355.00,0.0003
2354.00,0.0004
2353.00,0.0004
2352.00,0.0004
2351.00,0.0004
2350.00,0.0004
2349.00,0.0004
2348.00,0.0005
2347.00,0.0005
2346.00,0.0006
2345.00,0.0005
2344.00,0.0005
2343.00,0.0004
2342.00,0.0004
2341.00,0.0004
2340.00,0.0004
2339.00,0.0005
2338.00,0.0006
2337.00,0.0006
2336.00,0.0007
2335.00,0.0007
2334.00,0.0008
2333.00,0.0007
2332.00,0.0007
2331.00,0.0007
2330.00,0.0007
2329.00,0.0008
2328.00,0.0009
2327.00,0.0012
2326.00,0.0016
2325.00,0.0019
2324.00,0.0020
2323.00,0.0019
2322.00,0.0016
2321.00,0.0013
2320.00,0.0012
2319.00,0.0011
2318.00,0.0011
2317.00,0.0010
2316.00,0.0010
2315.00,0.0010
2314.00,0.0010
2313.00,0.0010
2312.00,0.0010
2311.00,0.0010
2310.00,0.0010
2309.00,0.0010
2308.00,0.0010
2307.00,0.0011
2306.00,0.0011
2305.00,0.0012
2304.00,0.0012
2303.00,0.0013
2302.00,0.0013
2301.00,0.0013
2300.00,0.0013
2299.00,0.0014
2298.00,0.0014
2297.00,0.0015
2296.00,0.0015
2295.00,0.0015
2294.00,0.0015
2293.00,0.0015
2292.00,0.0016
2291.00,0.0017
2290.00,0.0019
2289.00,0.0020
2288.00,0.0020
2287.00,0.0020
2286.00,0.0019
2285.00,0.0019
2284.00,0.0018
2283.00,0.0017
2282.00,0.0017
2281.00,0.0017
2280.00,0.0017
2279.00,0.0018
2278.00,0.0018
2277.00,0.0018
2276.00,0.0018
2275.00,0.0017
2274.00,0.0016
2273.00,0.0015
2272.00,0.0014
2271.00,0.0014
2270.00,0.0015
2269.00,0.0015
2268.00,0.0015
2267.00,0.0014
2266.00,0.0012
2265.00,0.0011
2264.00,0.0011
2263.00,0.0011
2262.00,0.0013
2261.00,0.0014
2260.00,0.0014
2259.00,0.0015
2258.00,0.0015
2257.00,0.0014
2256.00,0.0013
2255.00,0.0011
2254.00,0.0010
2253.00,0.0010
2252.00,0.0010
2251.00,0.0010
2250.00,0.0010
2249.00,0.0011
2248.00,0.0012
2247.00,0.0013
2246.00,0.0014
2245.00,0.0015
2244.00,0.0014
2243.00,0.0013
2242.00,0.0011
2241.00,0.0011
2240.00,0.0011
2239.00,0.0011
2238.00,0.0010
2237.00,0.0010
2236.00,0.0011
2235.00,0.0011
2234.00,0.0011
2233.00,0.0013
2232.00,0.0014
2231.00,0.0014
2230.00,0.0013
2229.00,0.0011
2228.00,0.0010
2227.00,0.0010
2226.00,0.0011
2225.00,0.0012
2224.00,0.0012
2223.00,0.0011
2222.00,0.0010
2221.00,0.0009
2220.00,0.0008
2219.00,0.0008
2218.00,0.0008
2217.00,0.0009
2216.00,0.0009
2215.00,0.0009
2214.00,0.0008
2213.00,0.0008
2212.00,0.0007
2211.00,0.0007
2210.00,0.0007
2209.00,0.0007
2208.00,0.0007
2207.00,0.0007
2206.00,0.0007
2205.00,0.0007
2204.00,0.0007
2203.00,0.0008
2202.00,0.0009
2201.00,0.0010
2200.00,0.0012
2199.00,0.0013
2198.00,0.0013
2197.00,0.0013
2196.00,0.0012
2195.00,0.0010
2194.00,0.0008
2193.00,0.0007
2192.00,0.0008
2191.00,0.0011
2190.00,0.0013
2189.00,0.0015
2188.00,0.0015
2187.00,0.0015
2186.00,0.0015
2185.00,0.0015
2184.00,0.0015
2183.00,0.0015
2182.00,0.0013
2181.00,0.0012
2180.00,0.0012
2179.00,0.0013
2178.00,0.0015
2177.00,0.0014
2176.00,0.0012
2175.00,0.0008
2174.00,0.0006
2173.00,0.0007
2172.00,0.0009
2171.00,0.0013
2170.00,0.0015
2169.00,0.0016
2168.00,0.0017
2167.00,0.0017
2166.00,0.0018
2165.00,0.0019
2164.00,0.0019
2163.00,0.0018
2162.00,0.0015
2161.00,0.0008
2160.00,-0.0002
2159.00,-0.0014
2158.00,-0.0023
2157.00,-0.0027
2156.00,-0.0025
2155.00,-0.0022
2154.00,-0.0019
2153.00,-0.0016
2152.00,-0.0014
2151.00,-0.0012
2150.00,-0.0011
2149.00,-0.0010
2148.00,-0.0009
2147.00,-0.0010
2146.00,-0.0011
2145.00,-0.0013
2144.00,-0.0014
2143.00,-0.0015
2142.00,-0.0015
2141.00,-0.0013
2140.00,-0.0010
2139.00,-0.0008
2138.00,-0.0007
2137.00,-0.0008
2136.00,-0.0010
2135.00,-0.0013
2134.00,-0.0014
2133.00,-0.0014
2132.00,-0.0011
2131.00,-0.0008
2130.00,-0.0006
2129.00,-0.0005
2128.00,-0.0005
2127.00,-0.0005
2126.00,-0.0005
2125.00,-0.0004
2124.00,-0.0003
2123.00,-0.0003
2122.00,-0.0003
2121.00,-0.0002
2120.00,-0.0002
2119.00,-0.0000
2118.00,0.0002
2117.00,0.0003
2116.00,0.0004
2115.00,0.0004
2114.00,0.0003
2113.00,0.0003
2112.00,0.0003
2111.00,0.0004
2110.00,0.0004
2109.00,0.0004
2108.00,0.0004
2107.00,0.0005
2106.00,0.0005
2105.00,0.0005
2104.00,0.0004
2103.00,0.0004
2102.00,0.0004
2101.00,0.0004
2100.00,0.0005
2099.00,0.0005
2098.00,0.0005
2097.00,0.0004
2096.00,0.0002
2095.00,0.0000
2094.00,0.0000
2093.00,0.0001
2092.00,0.0003
2091.00,0.0003
2090.00,0.0003
2089.00,0.0003
2088.00,0.0003
2087.00,0.0003
2086.00,0.0003
2085.00,0.0004
2084.00,0.0005
2083.00,0.0005
2082.00,0.0005
2081.00,0.0005
2080.00,0.0004
2079.00,0.0003
2078.00,0.0002
2077.00,0.0002
2076.00,0.0002
2075.00,0.0002
2074.00,0.0002
2073.00,0.0003
2072.00,0.0005
2071.00,0.0007
2070.00,0.0007
2069.00,0.0008
2068.00,0.0007
2067.00,0.0007
2066.00,0.0007
2065.00,0.0006
2064.00,0.0003
2063.00,0.0000
2062.00,-0.0001
2061.00,-0.0001
2060.00,0.0001
2059.00,0.0003
2058.00,0.0005
2057.00,0.0006
2056.00,0.0006
2055.00,0.0006
2054.00,0.0006
2053.00,0.0009
2052.00,0.0012
2051.00,0.0014
2050.00,0.0012
2049.00,0.0007
2048.00,0.0003
2047.00,0.0001
2046.00,0.0000
2045.00,0.0001
2044.00,0.0002
2043.00,0.0004
2042.00,0.0005
2041.00,0.0007
2040.00,0.0008
2039.00,0.0008
2038.00,0.0008
2037.00,0.0008
2036.00,0.0007
2035.00,0.0006
2034.00,0.0003
2033.00,-0.0001
2032.00,-0.0004
2031.00,-0.0008
2030.00,-0.0010
2029.00,-0.0011
2028.00,-0.0012
2027.00,-0.0012
2026.00,-0.0011
2025.00,-0.0011
2024.00,-0.0010
2023.00,-0.0009
2022.00,-0.0006
2021.00,-0.0004
2020.00,-0.0002
2019.00,-0.0001
2018.00,-0.0002
2017.00,-0.0003
2016.00,-0.0004
2015.00,-0.0005
2014.00,-0.0004
2013.00,-0.0002
2012.00,-0.0000
2011.00,-0.0001
2010.00,-0.0002
2009.00,-0.0005
2008.00,-0.0008
2007.00,-0.0011
2006.00,-0.0012
2005.00,-0.0011
2004.00,-0.0009
2003.00,-0.0008
2002.00,-0.0010
2001.00,-0.0011
2000.00,-0.0012
1999.00,-0.0011
1998.00,-0.0011
1997.00,-0.0010
1996.00,-0.0009
1995.00,-0.0008
1994.00,-0.0006
1993.00,-0.0004
1992.00,-0.0002
1991.00,-0.0000
1990.00,0.0001
1989.00,0.0002
1988.00,0.0004
1987.00,0.0005
1986.00,0.0006
1985.00,0.0006
1984.00,0.0007
1983.00,0.0009
1982.00,0.0013
1981.00,0.0016
1980.00,0.0017
1979.00,0.0012
1978.00,0.0004
1977.00,-0.0003
1976.00,-0.0007
1975.00,-0.0008
1974.00,-0.0006
1973.00,-0.0003
1972.00,0.0000
1971.00,0.0001
1970.00,-0.0002
1969.00,-0.0006
1968.00,-0.0011
1967.00,-0.0012
1966.00,-0.0011
1965.00,-0.0008
1964.00,-0.0007
1963.00,-0.0008
1962.00,-0.0011
1961.00,-0.0013
1960.00,-0.0013
1959.00,-0.0012
1958.00,-0.0010
1957.00,-0.0007
1956.00,-0.0006
1955.00,-0.0006
1954.00,-0.0007
1953.00,-0.0008
1952.00,-0.0008
1951.00,-0.0008
1950.00,-0.0008
1949.00,-0.0008
1948.00,-0.0008
1947.00,-0.0007
1946.00,-0.0006
1945.00,-0.0006
1944.00,-0.0006
1943.00,-0.0007
1942.00,-0.0006
1941.00,-0.0005
1940.00,-0.0004
1939.00,-0.0004
1938.00,-0.0004
1937.00,-0.0003
1936.00,-0.0002
1935.00,-0.0001
1934.00,-0.0002
1933.00,-0.0002
1932.00,-0.0003
1931.00,-0.0003
1930.00,-0.0004
1929.00,-0.0004
1928.00,-0.0003
1927.00,-0.0002
1926.00,-0.0002
1925.00,-0.0002
1924.00,-0.0002
1923.00,-0.0003
1922.00,-0.0002
1921.00,-0.0001
1920.00,0.0000
1919.00,0.0002
1918.00,0.0003
1917.00,0.0004
1916.00,0.0004
1915.00,0.0005
1914.00,0.0004
1913.00,0.0003
1912.00,0.0002
1911.00,0.0002
1910.00,0.0002
1909.00,0.0003
1908.00,0.0004
1907.00,0.0004
1906.00,0.0003
1905.00,0.0003
1904.00,0.0003
1903.00,0.0003
1902.00,0.0004
1901.00,0.0005
1900.00,0.0006
1899.00,0.0006
1898.00,0.0006
1897.00,0.0006
1896.00,0.0006
1895.00,0.0005
1894.00,0.0006
1893.00,0.0006
1892.00,0.0006
1891.00,0.0006
1890.00,0.0005
1889.00,0.0005
1888.00,0.0005
1887.00,0.0005
1886.00,0.0005
1885.00,0.0006
1884.00,0.0006
1883.00,0.0006
1882.00,0.0005
1881.00,0.0005
1880.00,0.0005
1879.00,0.0004
1878.00,0.0004
1877.00,0.0004
1876.00,0.0004
1875.00,0.0004
1874.00,0.0004
1873.00,0.0005
1872.00,0.0005
1871.00,0.0006
1870.00,0.0005
1869.00,0.0004
1868.00,0.0003
1867.00,0.0003
1866.00,0.0003
1865.00,0.0004
1864.00,0.0004
1863.00,0.0004
1862.00,0.0004
1861.00,0.0005
1860.00,0.0006
1859.00,0.0006
1858.00,0.0006
1857.00,0.0006
1856.00,0.0006
1855.00,0.0006
1854.00,0.0006
1853.00,0.0007
1852.00,0.0007
1851.00,0.0008
1850.00,0.0008
1849.00,0.0008
1848.00,0.0007
1847.00,0.0007
1846.00,0.0007
1845.00,0.0007
1844.00,0.0007
1843.00,0.0007
1842.00,0.0007
1841.00,0.0008
1840.00,0.0008
1839.00,0.0008
1838.00,0.0008
1837.00,0.0008
1836.00,0.0009
1835.00,0.0009
1834.00,0.0009
1833.00,0.0008
1832.00,0.0007
1831.00,0.0007
1830.00,0.0008
1829.00,0.0008
1828.00,0.0009
1827.00,0.0009
1826.00,0.0009
1825.00,0.0010
1824.00,0.0010
1823.00,0.0009
1822.00,0.0009
1821.00,0.0008
1820.00,0.0007
1819.00,0.0007
1818.00,0.0006
1817.00,0.0006
1816.00,0.0006
1815.00,0.0006
1814.00,0.0007
1813.00,0.0007
1812.00,0.0008
1811.00,0.0008
1810.00,0.0009
1809.00,0.0009
1808.00,0.0009
1807.00,0.0009
1806.00,0.0009
1805.00,0.0009
1804.00,0.0009
1803.00,0.0009
1802.00,0.0009
1801.00,0.0009
1800.00,0.0009
1799.00,0.0009
1798.00,0.0009
1797.00,0.0010
1796.00,0.0010
1795.00,0.0010
1794.00,0.0010
1793.00,0.0010
1792.00,0.0011
1791.00,0.0012
1790.00,0.0013
1789.00,0.0013
1788.00,0.0013
1787.00,0.0013
1786.00,0.0013
1785.00,0.0014
1784.00,0.0014
1783.00,0.0014
1782.00,0.0014
1781.00,0.0015
1780.00,0.0015
1779.00,0.0015
1778.00,0.0015
1777.00,0.0015
1776.00,0.0015
1775.00,0.0015
1774.00,0.0015
1773.00,0.0015
1772.00,0.0015
1771.00,0.0015
1770.00,0.0016
1769.00,0.0017
1768.00,0.0018
1767.00,0.0019
1766.00,0.0020
1765.00,0.0020
1764.00,0.0021
1763.00,0.0022
1762.00,0.0023
1761.00,0.0024
1760.00,0.0025
1759.00,0.0027
1758.00,0.0029
1757.00,0.0032
1756.00,0.0035
1755.00,0.0037
1754.00,0.0039
1753.00,0.0041
1752.00,0.0043
1751.00,0.0044
1750.00,0.0046
1749.00,0.0047
1748.00,0.0048
1747.00,0.0048
1746.00,0.0048
1745.00,0.0048
1744.00,0.0047
1743.00,0.0046
1742.00,0.0045
1741.00,0.0044
1740.00,0.0043
1739.00,0.0043
1738.00,0.0042
1737.00,0.0042
1736.00,0.0042
1735.00,0.0041
1734.00,0.0040
1733.00,0.0040
1732.00,0.0040
1731.00,0.0039
1730.00,0.0039
1729.00,0.0039
1728.00,0.0038
1727.00,0.0038
1726.00,0.0038
1725.00,0.0038
1724.00,0.0038
1723.00,0.0039
1722.00,0.0039
1721.00,0.0038
1720.00,0.0037
1719.00,0.0036
1718.00,0.0035
1717.00,0.0036
1716.00,0.0036
1715.00,0.0036
1714.00,0.0037
1713.00,0.0037
1712.00,0.0037
1711.00,0.0037
1710.00,0.0037
1709.00,0.0037
1708.00,0.0037
1707.00,0.0036
1706.00,0.0036
1705.00,0.0037
1704.00,0.0038
1703.00,0.0039
1702.00,0.0040
1701.00,0.0041
1700.00,0.0041
1699.00,0.0041
1698.00,0.0042
1697.00,0.0043
1696.00,0.0045
1695.00,0.0046
1694.00,0.0047
1693.00,0.0048
1692.00,0.0049
1691.00,0.0050
1690.00,0.0051
1689.00,0.0053
1688.00,0.0054
1687.00,0.0055
1686.00,0.0055
1685.00,0.0056
1684.00,0.0059
1683.00,0.0061
1682.00,0.0062
1681.00,0.0064
1680.00,0.0066
1679.00,0.0068
1678.00,0.0069
1677.00,0.0070
1676.00,0.0071
1675.00,0.0072
1674.00,0.0074
1673.00,0.0075
1672.00,0.0076
1671.00,0.0077
1670.00,0.0078
1669.00,0.0080
1668.00,0.0081
1667.00,0.0081
1666.00,0.0082
1665.00,0.0083
1664.00,0.0084
1663.00,0.0085
1662.00,0.0087
1661.00,0.0088
1660.00,0.0089
1659.00,0.0090
1658.00,0.0091
1657.00,0.0092
1656.00,0.0093
1655.00,0.0093
1654.00,0.0095
1653.00,0.0100
1652.00,0.0105
1651.00,0.0109
1650.00,0.0112
1649.00,0.0115
1648.00,0.0120
1647.00,0.0124
1646.00,0.0125
1645.00,0.0124
1644.00,0.0121
1643.00,0.0118
1642.00,0.0114
1641.00,0.0111
1640.00,0.0109
1639.00,0.0108
1638.00,0.0107
1637.00,0.0106
1636.00,0.0106
1635.00,0.0106
1634.00,0.0106
1633.00,0.0105
1632.00,0.0105
1631.00,0.0105
1630.00,0.0104
1629.00,0.0104
1628.00,0.0103
1627.00,0.0102
1626.00,0.0101
1625.00,0.0100
1624.00,0.0098
1623.00,0.0097
1622.00,0.0096
1621.00,0.0095
1620.00,0.0095
1619.00,0.0094
1618.00,0.0093
1617.00,0.0093
1616.00,0.0093
1615.00,0.0093
1614.00,0.0093
1613.00,0.0093
1612.00,0.0093
1611.00,0.0094
1610.00,0.0094
1609.00,0.0094
1608.00,0.0094
1607.00,0.0094
1606.00,0.0094
1605.00,0.0094
1604.00,0.0095
1603.00,0.0095
1602.00,0.0094
1601.00,0.0095
1600.00,0.0095
1599.00,0.0096
1598.00,0.0096
1597.00,0.0096
1596.00,0.0096
1595.00,0.0095
1594.00,0.0095
1593.00,0.0095
1592.00,0.0095
1591.00,0.0095
1590.00,0.0095
1589.00,0.0095
1588.00,0.0095
1587.00,0.0095
1586.00,0.0095
1585.00,0.0095
1584.00,0.0096
1583.00,0.0096
1582.00,0.0097
1581.00,0.0098
1580.00,0.0098
1579.00,0.0099
1578.00,0.0099
1577.00,0.0098
1576.00,0.0098
1575.00,0.0097
1574.00,0.0095
1573.00,0.0094
1572.00,0.0093
1571.00,0.0092
1570.00,0.0090
1569.00,0.0089
1568.00,0.0089
1567.00,0.0089
1566.00,0.0089
1565.00,0.0088
1564.00,0.0088
1563.00,0.0088
1562.00,0.0087
1561.00,0.0086
1560.00,0.0084
1559.00,0.0084
1558.00,0.0084
1557.00,0.0085
1556.00,0.0086
1555.00,0.0086
1554.00,0.0086
1553.00,0.0086
1552.00,0.0086
1551.00,0.0087
1550.00,0.0087
1549.00,0.0088
1548.00,0.0089
1547.00,0.0090
1546.00,0.0091
1545.00,0.0092
1544.00,0.0093
1543.00,0.0093
1542.00,0.0092
1541.00,0.0091
1540.00,0.0090
1539.00,0.0088
1538.00,0.0086
1537.00,0.0085
1536.00,0.0084
1535.00,0.0082
1534.00,0.0080
1533.00,0.0079
1532.00,0.0077
1531.00,0.0076
1530.00,0.0075
1529.00,0.0075
1528.00,0.0074
1527.00,0.0074
1526.00,0.0073
1525.00,0.0072
1524.00,0.0072
1523.00,0.0072
1522.00,0.0071
1521.00,0.0072
1520.00,0.0072
1519.00,0.0071
1518.00,0.0071
1517.00,0.0072
1516.00,0.0074
1515.00,0.0074
1514.00,0.0074
1513.00,0.0074
1512.00,0.0074
1511.00,0.0075
1510.00,0.0075
1509.00,0.0076
1508.00,0.0079
1507.00,0.0080
1506.00,0.0080
1505.00,0.0081
1504.00,0.0082
1503.00,0.0084
1502.00,0.0085
1501.00,0.0087
1500.00,0.0090
1499.00,0.0091
1498.00,0.0094
1497.00,0.0098
1496.00,0.0103
1495.00,0.0106
1494.00,0.0108
1493.00,0.0111
1492.00,0.0115
1491.00,0.0119
1490.00,0.0124
1489.00,0.0129
1488.00,0.0134
1487.00,0.0138
1486.00,0.0143
1485.00,0.0150
1484.00,0.0157
1483.00,0.0164
1482.00,0.0173
1481.00,0.0184
1480.00,0.0196
1479.00,0.0209
1478.00,0.0224
1477.00,0.0246
1476.00,0.0274
1475.00,0.0306
1474.00,0.0349
1473.00,0.0410
1472.00,0.0481
1471.00,0.0548
1470.00,0.0611
1469.00,0.0678
1468.00,0.0750
1467.00,0.0830
1466.00,0.0922
1465.00,0.1023
1464.00,0.1111
1463.00,0.1170
1462.00,0.1205
1461.00,0.1226
1460.00,0.1238
1459.00,0.1242
1458.00,0.1243
1457.00,0.1239
1456.00,0.1229
1455.00,0.1214
1454.00,0.1196
1453.00,0.1173
1452.00,0.1142
1451.00,0.1099
1450.00,0.1043
1449.00,0.0969
1448.00,0.0878
1447.00,0.0784
1446.00,0.0701
1445.00,0.0632
1444.00,0.0574
1443.00,0.0527
1442.00,0.0492
1441.00,0.0468
1440.00,0.0455
1439.00,0.0452
1438.00,0.0457
1437.00,0.0463
1436.00,0.0458
1435.00,0.0436
1434.00,0.0400
1433.00,0.0357
1432.00,0.0312
1431.00,0.0271
1430.00,0.0239
1429.00,0.0216
1428.00,0.0201
1427.00,0.0191
1426.00,0.0186
1425.00,0.0180
1424.00,0.0176
1423.00,0.0174
1422.00,0.0173
1421.00,0.0171
1420.00,0.0169
1419.00,0.0167
1418.00,0.0165
1417.00,0.0163
1416.00,0.0160
1415.00,0.0159
1414.00,0.0159
1413.00,0.0157
1412.00,0.0155
1411.00,0.0155
1410.00,0.0154
1409.00,0.0154
1408.00,0.0153
1407.00,0.0154
1406.00,0.0156
1405.00,0.0157
1404.00,0.0159
1403.00,0.0163
1402.00,0.0166
1401.00,0.0169
1400.00,0.0172
1399.00,0.0175
1398.00,0.0179
1397.00,0.0182
1396.00,0.0186
1395.00,0.0191
1394.00,0.0198
1393.00,0.0203
1392.00,0.0208
1391.00,0.0216
1390.00,0.0226
1389.00,0.0240
1388.00,0.0259
1387.00,0.0290
1386.00,0.0331
1385.00,0.0386
1384.00,0.0463
1383.00,0.0574
1382.00,0.0727
1381.00,0.0929
1380.00,0.1186
1379.00,0.1484
1378.00,0.1776
1377.00,0.1994
1376.00,0.2072
1375.00,0.1971
1374.00,0.1722
1373.00,0.1421
1372.00,0.1148
1371.00,0.0924
1370.00,0.0746
1369.00,0.0612
1368.00,0.0520
1367.00,0.0463
1366.00,0.0431
1365.00,0.0418
1364.00,0.0419
1363.00,0.0433
1362.00,0.0454
1361.00,0.0478
1360.00,0.0495
1359.00,0.0501
1358.00,0.0490
1357.00,0.0463
1356.00,0.0425
1355.00,0.0382
1354.00,0.0340
1353.00,0.0304
1352.00,0.0275
1351.00,0.0251
1350.00,0.0232
1349.00,0.0216
1348.00,0.0203
1347.00,0.0192
1346.00,0.0182
1345.00,0.0174
1344.00,0.0168
1343.00,0.0162
1342.00,0.0157
1341.00,0.0153
1340.00,0.0149
1339.00,0.0147
1338.00,0.0145
1337.00,0.0145
1336.00,0.0146
1335.00,0.0148
1334.00,0.0152
1333.00,0.0156
1332.00,0.0161
1331.00,0.0164
1330.00,0.0165
1329.00,0.0164
1328.00,0.0160
1327.00,0.0155
1326.00,0.0149
1325.00,0.0142
1324.00,0.0136
1323.00,0.0130
1322.00,0.0126
1321.00,0.0122
1320.00,0.0120
1319.00,0.0118
1318.00,0.0116
1317.00,0.0114
1316.00,0.0114
1315.00,0.0113
1314.00,0.0113
1313.00,0.0112
1312.00,0.0113
1311.00,0.0114
1310.00,0.0116
1309.00,0.0120
1308.00,0.0127
1307.00,0.0135
1306.00,0.0142
1305.00,0.0148
1304.00,0.0150
1303.00,0.0149
1302.00,0.0147
1301.00,0.0146
1300.00,0.0146
1299.00,0.0148
1298.00,0.0150
1297.00,0.0152
1296.00,0.0153
1295.00,0.0151
1294.00,0.0147
1293.00,0.0141
1292.00,0.0136
1291.00,0.0130
1290.00,0.0126
1289.00,0.0122
1288.00,0.0120
1287.00,0.0117
1286.00,0.0116
1285.00,0.0114
1284.00,0.0112
1283.00,0.0111
1282.00,0.0110
1281.00,0.0110
1280.00,0.0110
1279.00,0.0110
1278.00,0.0110
1277.00,0.0110
1276.00,0.0111
1275.00,0.0112
1274.00,0.0113
1273.00,0.0115
1272.00,0.0117
1271.00,0.0119
1270.00,0.0122
1269.00,0.0125
1268.00,0.0129
1267.00,0.0133
1266.00,0.0138
1265.00,0.0142
1264.00,0.0146
1263.00,0.0149
1262.00,0.0152
1261.00,0.0155
1260.00,0.0158
1259.00,0.0161
1258.00,0.0165
1257.00,0.0168
1256.00,0.0169
1255.00,0.0168
1254.00,0.0163
1253.00,0.0158
1252.00,0.0153
1251.00,0.0148
1250.00,0.0144
1249.00,0.0140
1248.00,0.0137
1247.00,0.0134
1246.00,0.0131
1245.00,0.0129
1244.00,0.0127
1243.00,0.0126
1242.00,0.0124
1241.00,0.0123
1240.00,0.0122
1239.00,0.0121
1238.00,0.0120
1237.00,0.0119
1236.00,0.0118
1235.00,0.0117
1234.00,0.0117
1233.00,0.0116
1232.00,0.0116
1231.00,0.0115
1230.00,0.0115
1229.00,0.0115
1228.00,0.0116
1227.00,0.0117
1226.00,0.0118
1225.00,0.0120
1224.00,0.0122
1223.00,0.0125
1222.00,0.0129
1221.00,0.0132
1220.00,0.0134
1219.00,0.0134
1218.00,0.0133
1217.00,0.0131
1216.00,0.0127
1215.00,0.0123
1214.00,0.0119
1213.00,0.0115
1212.00,0.0112
1211.00,0.0109
1210.00,0.0107
1209.00,0.0105
1208.00,0.0104
1207.00,0.0104
1206.00,0.0104
1205.00,0.0104
1204.00,0.0104
1203.00,0.0103
1202.00,0.0102
1201.00,0.0102
1200.00,0.0102
1199.00,0.0102
1198.00,0.0102
1197.00,0.0103
1196.00,0.0103
1195.00,0.0104
1194.00,0.0105
1193.00,0.0106
1192.00,0.0106
1191.00,0.0107
1190.00,0.0108
1189.00,0.0109
1188.00,0.0110
1187.00,0.0111
1186.00,0.0112
1185.00,0.0113
1184.00,0.0115
1183.00,0.0117
1182.00,0.0121
1181.00,0.0124
1180.00,0.0128
1179.00,0.0133
1178.00,0.0138
1177.00,0.0145
1176.00,0.0154
1175.00,0.0165
1174.00,0.0180
1173.00,0.0199
1172.00,0.0220
1171.00,0.0243
1170.00,0.0265
1169.00,0.0283
1168.00,0.0294
1167.00,0.0298
1166.00,0.0296
1165.00,0.0290
1164.00,0.0282
1163.00,0.0274
1162.00,0.0267
1161.00,0.0262
1160.00,0.0258
1159.00,0.0254
1158.00,0.0252
1157.00,0.0252
1156.00,0.0252
1155.00,0.0253
1154.00,0.0254
1153.00,0.0254
1152.00,0.0251
1151.00,0.0245
1150.00,0.0237
1149.00,0.0228
1148.00,0.0218
1147.00,0.0209
1146.00,0.0201
1145.00,0.0192
1144.00,0.0185
1143.00,0.0178
1142.00,0.0171
1141.00,0.0166
1140.00,0.0162
1139.00,0.0158
1138.00,0.0154
1137.00,0.0150
1136.00,0.0147
1135.00,0.0144
1134.00,0.0141
1133.00,0.0140
1132.00,0.0139
1131.00,0.0139
1130.00,0.0139
1129.00,0.0139
1128.00,0.0140
1127.00,0.0141
1126.00,0.0142
1125.00,0.0143
1124.00,0.0143
1123.00,0.0143
1122.00,0.0143
1121.00,0.0143
1120.00,0.0143
1119.00,0.0143
1118.00,0.0143
1117.00,0.0143
1116.00,0.0144
1115.00,0.0145
1114.00,0.0146
1113.00,0.0147
1112.00,0.0148
1111.00,0.0150
1110.00,0.0154
1109.00,0.0158
1108.00,0.0163
1107.00,0.0169
1106.00,0.0176
1105.00,0.0184
1104.00,0.0190
1103.00,0.0193
1102.00,0.0192
1101.00,0.0188
1100.00,0.0183
1099.00,0.0177
1098.00,0.0171
1097.00,0.0165
1096.00,0.0161
1095.00,0.0158
1094.00,0.0155
1093.00,0.0154
1092.00,0.0153
1091.00,0.0152
1090.00,0.0151
1089.00,0.0150
1088.00,0.0150
1087.00,0.0149
1086.00,0.0149
1085.00,0.0149
1084.00,0.0149
1083.00,0.0149
1082.00,0.0149
1081.00,0.0148
1080.00,0.0146
1079.00,0.0144
1078.00,0.0143
1077.00,0.0142
1076.00,0.0141
1075.00,0.0141
1074.00,0.0140
1073.00,0.0140
1072.00,0.0140
1071.00,0.0138
1070.00,0.0137
1069.00,0.0135
1068.00,0.0134
1067.00,0.0133
1066.00,0.0133
1065.00,0.0132
1064.00,0.0132
1063.00,0.0132
1062.00,0.0133
1061.00,0.0134
1060.00,0.0133
1059.00,0.0133
1058.00,0.0133
1057.00,0.0133
1056.00,0.0134
1055.00,0.0135
1054.00,0.0136
1053.00,0.0137
1052.00,0.0139
1051.00,0.0141
1050.00,0.0144
1049.00,0.0146
1048.00,0.0149
1047.00,0.0152
1046.00,0.0155
1045.00,0.0157
1044.00,0.0158
1043.00,0.0157
1042.00,0.0155
1041.00,0.0154
1040.00,0.0153
1039.00,0.0152
1038.00,0.0151
1037.00,0.0150
1036.00,0.0150
1035.00,0.0149
1034.00,0.0147
1033.00,0.0146
1032.00,0.0145
1031.00,0.0145
1030.00,0.0146
1029.00,0.0146
1028.00,0.0146
1027.00,0.0146
1026.00,0.0147
1025.00,0.0148
1024.00,0.0149
1023.00,0.0151
1022.00,0.0152
1021.00,0.0154
1020.00,0.0156
1019.00,0.0157
1018.00,0.0158
1017.00,0.0158
1016.00,0.0158
1015.00,0.0158
1014.00,0.0157
1013.00,0.0155
1012.00,0.0154
1011.00,0.0153
1010.00,0.0153
1009.00,0.0154
1008.00,0.0155
1007.00,0.0156
1006.00,0.0159
1005.00,0.0164
1004.00,0.0173
1003.00,0.0186
1002.00,0.0205
1001.00,0.0229
1000.00,0.0253
999.00,0.0273
998.00,0.0280
997.00,0.0273
996.00,0.0253
995.00,0.0226
994.00,0.0198
993.00,0.0174
992.00,0.0156
991.00,0.0144
990.00,0.0135
989.00,0.0129
988.00,0.0125
987.00,0.0123
986.00,0.0122
985.00,0.0122
984.00,0.0125
983.00,0.0132
982.00,0.0143
981.00,0.0158
980.00,0.0177
979.00,0.0200
978.00,0.0230
977.00,0.0263
976.00,0.0298
975.00,0.0329
974.00,0.0350
973.00,0.0355
972.00,0.0344
971.00,0.0318
970.00,0.0285
969.00,0.0251
968.00,0.0222
967.00,0.0200
966.00,0.0182
965.00,0.0170
964.00,0.0160
963.00,0.0152
962.00,0.0146
961.00,0.0142
960.00,0.0140
959.00,0.0138
958.00,0.0137
957.00,0.0136
956.00,0.0134
955.00,0.0134
954.00,0.0133
953.00,0.0134
952.00,0.0133
951.00,0.0131
950.00,0.0129
949.00,0.0127
948.00,0.0126
947.00,0.0125
946.00,0.0126
945.00,0.0129
944.00,0.0132
943.00,0.0136
942.00,0.0139
941.00,0.0141
940.00,0.0140
939.00,0.0137
938.00,0.0131
937.00,0.0124
936.00,0.0116
935.00,0.0109
934.00,0.0104
933.00,0.0099
932.00,0.0095
931.00,0.0092
930.00,0.0089
929.00,0.0087
928.00,0.0085
927.00,0.0084
926.00,0.0082
925.00,0.0080
924.00,0.0078
923.00,0.0076
922.00,0.0075
921.00,0.0075
920.00,0.0076
919.00,0.0076
918.00,0.0077
917.00,0.0077
916.00,0.0078
915.00,0.0079
914.00,0.0080
913.00,0.0082
912.00,0.0083
911.00,0.0085
910.00,0.0086
909.00,0.0088
908.00,0.0091
907.00,0.0096
906.00,0.0102
905.00,0.0112
904.00,0.0127
903.00,0.0147
902.00,0.0170
901.00,0.0190
900.00,0.0202
899.00,0.0203
898.00,0.0193
897.00,0.0174
896.00,0.0154
895.00,0.0134
894.00,0.0118
893.00,0.0106
892.00,0.0099
891.00,0.0094
890.00,0.0091
889.00,0.0089
888.00,0.0087
887.00,0.0085
886.00,0.0083
885.00,0.0082
884.00,0.0081
883.00,0.0081
882.00,0.0081
881.00,0.0081
880.00,0.0081
879.00,0.0082
878.00,0.0082
877.00,0.0083
876.00,0.0083
875.00,0.0084
874.00,0.0085
873.00,0.0087
872.00,0.0087
871.00,0.0088
870.00,0.0087
869.00,0.0086
868.00,0.0086
867.00,0.0087
866.00,0.0089
865.00,0.0091
864.00,0.0093
863.00,0.0093
862.00,0.0093
861.00,0.0094
860.00,0.0096
859.00,0.0098
858.00,0.0101
857.00,0.0103
856.00,0.0104
855.00,0.0104
854.00,0.0105
853.00,0.0106
852.00,0.0107
851.00,0.0109
850.00,0.0111
849.00,0.0114
848.00,0.0119
847.00,0.0127
846.00,0.0141
845.00,0.0162
844.00,0.0191
843.00,0.0223
842.00,0.0248
841.00,0.0255
840.00,0.0241
839.00,0.0212
838.00,0.0180
837.00,0.0154
836.00,0.0138
835.00,0.0129
834.00,0.0125
833.00,0.0124
832.00,0.0124
831.00,0.0123
830.00,0.0122
829.00,0.0120
828.00,0.0118
827.00,0.0116
826.00,0.0115
825.00,0.0115
824.00,0.0116
823.00,0.0119
822.00,0.0123
821.00,0.0126
820.00,0.0129
819.00,0.0133
818.00,0.0137
817.00,0.0143
816.00,0.0153
815.00,0.0165
814.00,0.0182
813.00,0.0202
812.00,0.0225
811.00,0.0247
810.00,0.0264
809.00,0.0271
808.00,0.0265
807.00,0.0250
806.00,0.0230
805.00,0.0210
804.00,0.0192
803.00,0.0176
802.00,0.0162
801.00,0.0151
800.00,0.0143
799.00,0.0136
798.00,0.0131
797.00,0.0127
796.00,0.0123
795.00,0.0120
794.00,0.0117
793.00,0.0115
792.00,0.0112
791.00,0.0109
790.00,0.0105
789.00,0.0100
788.00,0.0096
787.00,0.0093
786.00,0.0091
785.00,0.0090
784.00,0.0088
783.00,0.0087
782.00,0.0085
781.00,0.0084
780.00,0.0083
779.00,0.0082
778.00,0.0082
777.00,0.0082
776.00,0.0082
775.00,0.0083
774.00,0.0084
773.00,0.0085
772.00,0.0085
771.00,0.0084
770.00,0.0083
769.00,0.0083
768.00,0.0083
767.00,0.0082
766.00,0.0082
765.00,0.0082
764.00,0.0082
763.00,0.0083
762.00,0.0085
761.00,0.0086
760.00,0.0087
759.00,0.0088
758.00,0.0089
757.00,0.0089
756.00,0.0089
755.00,0.0090
754.00,0.0092
753.00,0.0093
752.00,0.0094
751.00,0.0093
750.00,0.0092
749.00,0.0093
748.00,0.0094
747.00,0.0096
746.00,0.0098
745.00,0.0100
744.00,0.0103
743.00,0.0107
742.00,0.0111
741.00,0.0115
740.00,0.0119
739.00,0.0122
738.00,0.0126
737.00,0.0129
736.00,0.0131
735.00,0.0134
734.00,0.0138
733.00,0.0145
732.00,0.0154
731.00,0.0162
730.00,0.0168
729.00,0.0171
728.00,0.0170
727.00,0.0169
726.00,0.0170
725.00,0.0174
724.00,0.0181
723.00,0.0189
722.00,0.0196
721.00,0.0199
720.00,0.0198
719.00,0.0191
718.00,0.0180
717.00,0.0167
716.00,0.0156
715.00,0.0147
714.00,0.0140
713.00,0.0136
712.00,0.0133
711.00,0.0130
710.00,0.0127
709.00,0.0126
708.00,0.0125
707.00,0.0124
706.00,0.0124
705.00,0.0123
704.00,0.0123
703.00,0.0122
702.00,0.0121
701.00,0.0119
700.00,0.0118
699.00,0.0116
698.00,0.0116
697.00,0.0116
696.00,0.0117
695.00,0.0117
694.00,0.0116
693.00,0.0115
692.00,0.0114
691.00,0.0113
690.00,0.0114
689.00,0.0114
688.00,0.0115
687.00,0.0115
686.00,0.0114
685.00,0.0114
684.00,0.0114
683.00,0.0116
682.00,0.0117
681.00,0.0118
680.00,0.0117
679.00,0.0117
678.00,0.0117
677.00,0.0119
676.00,0.0121
675.00,0.0122
674.00,0.0124
673.00,0.0125
672.00,0.0125
671.00,0.0125
670.00,0.0124
669.00,0.0121
668.00,0.0117
667.00,0.0116
666.00,0.0117
665.00,0.0117
664.00,0.0117
663.00,0.0117
662.00,0.0117
661.00,0.0117
660.00,0.0115
659.00,0.0114
658.00,0.0112
657.00,0.0112
656.00,0.0112
655.00,0.0111
654.00,0.0110
653.00,0.0109
652.00,0.0110
651.00,0.0111
650.00,0.0113
649.00,0.0112
648.00,0.0110
647.00,0.0109
646.00,0.0109
645.00,0.0111
644.00,0.0113
643.00,0.0115
642.00,0.0114
641.00,0.0113
640.00,0.0113
639.00,0.0113
638.00,0.0112
637.00,0.0111
636.00,0.0110
635.00,0.0110
634.00,0.0110
633.00,0.0112
632.00,0.0112
631.00,0.0112
630.00,0.0110
629.00,0.0108
628.00,0.0107
627.00,0.0105
626.00,0.0104
625.00,0.0103
624.00,0.0103
623.00,0.0104
622.00,0.0104
621.00,0.0104
620.00,0.0103
619.00,0.0104
618.00,0.0106
617.00,0.0106
616.00,0.0105
615.00,0.0104
614.00,0.0105
613.00,0.0106
612.00,0.0107
611.00,0.0106
610.00,0.0105
609.00,0.0106
608.00,0.0107
607.00,0.0108
606.00,0.0108
605.00,0.0106
604.00,0.0104
603.00,0.0102
602.00,0.0100
601.00,0.0099
600.00,0.0099
599.00,0.0099
598.00,0.0101
597.00,0.0103
596.00,0.0105
595.00,0.0107
594.00,0.0107
593.00,0.0107
592.00,0.0106
591.00,0.0103
590.00,0.0100
589.00,0.0097
588.00,0.0095
587.00,0.0095
586.00,0.0097
585.00,0.0101
584.00,0.0105
583.00,0.0107
582.00,0.0109
581.00,0.0110
580.00,0.0111
579.00,0.0110
578.00,0.0107
577.00,0.0104
576.00,0.0101
575.00,0.0100
574.00,0.0099
573.00,0.0099
572.00,0.0098
571.00,0.0097
570.00,0.0097
569.00,0.0098
568.00,0.0100
567.00,0.0102
566.00,0.0102
565.00,0.0100
564.00,0.0097
563.00,0.0094
562.00,0.0093
561.00,0.0093
560.00,0.0094
559.00,0.0095
558.00,0.0097
557.00,0.0097
556.00,0.0097
555.00,0.0098
554.00,0.0103
553.00,0.0110
552.00,0.0116
551.00,0.0118
550.00,0.0118
549.00,0.0117
548.00,0.0118
547.00,0.0120
546.00,0.0120
545.00,0.0118
544.00,0.0115
543.00,0.0112
542.00,0.0110
541.00,0.0111
540.00,0.0115
539.00,0.0120
538.00,0.0127
537.00,0.0132
536.00,0.0136
535.00,0.0139
534.00,0.0141
533.00,0.0141
532.00,0.0140
531.00,0.0137
530.00,0.0134
529.00,0.0131
528.00,0.0129
527.00,0.0128
526.00,0.0128
525.00,0.0126
524.00,0.0123
523.00,0.0120
522.00,0.0118
521.00,0.0117
520.00,0.0115
519.00,0.0111
518.00,0.0106
517.00,0.0103
516.00,0.0104
515.00,0.0105
514.00,0.0105
513.00,0.0104
512.00,0.0103
511.00,0.0106
510.00,0.0110
509.00,0.0112
508.00,0.0111
507.00,0.0105
506.00,0.0099
505.00,0.0095
504.00,0.0097
503.00,0.0104
502.00,0.0112
501.00,0.0116
500.00,0.0114
499.00,0.0110
498.00,0.0107
497.00,0.0106
496.00,0.0108
495.00,0.0112
494.00,0.0116
493.00,0.0119
492.00,0.0118
491.00,0.0114
490.00,0.0108
489.00,0.0105
488.00,0.0106
487.00,0.0112
486.00,0.0118
485.00,0.0121
484.00,0.0118
483.00,0.0115
482.00,0.0113
481.00,0.0114
480.00,0.0115
479.00,0.0113
478.00,0.0110
477.00,0.0110
476.00,0.0117
475.00,0.0128
474.00,0.0140
473.00,0.0146
472.00,0.0145
471.00,0.0145
470.00,0.0151
469.00,0.0162
468.00,0.0173
467.00,0.0177
466.00,0.0174
465.00,0.0170
464.00,0.0171
463.00,0.0183
462.00,0.0203
461.00,0.0222
460.00,0.0234
459.00,0.0235
458.00,0.0232
457.00,0.0231
456.00,0.0231
455.00,0.0228
454.00,0.0217
453.00,0.0203
452.00,0.0190
451.00,0.0179
450.00,0.0168
