Created as New Dataset,Sample 017 By Administrator Date Thursday, September 04 2025
cm-1,A
4000.00,0.0008
3999.00,0.0008
3998.00,0.0008
3997.00,0.0008
3996.00,0.0008
3995.00,0.0009
3994.00,0.0009
3993.00,0.0009
3992.00,0.0010
3991.00,0.0010
3990.00,0.0009
3989.00,0.0009
3988.00,0.0009
3987.00,0.0009
3986.00,0.0009
3985.00,0.0009
3984.00,0.0009
3983.00,0.0009
3982.00,0.0008
3981.00,0.0008
3980.00,0.0008
3979.00,0.0008
3978.00,0.0008
3977.00,0.0007
3976.00,0.0007
3975.00,0.0007
3974.00,0.0007
3973.00,0.0007
3972.00,0.0007
3971.00,0.0007
3970.00,0.0007
3969.00,0.0007
3968.00,0.0008
3967.00,0.0008
3966.00,0.0008
3965.00,0.0008
3964.00,0.0007
3963.00,0.0007
3962.00,0.0007
3961.00,0.0007
3960.00,0.0007
3959.00,0.0007
3958.00,0.0008
3957.00,0.0008
3956.00,0.0008
3955.00,0.0008
3954.00,0.0007
3953.00,0.0007
3952.00,0.0007
3951.00,0.0007
3950.00,0.0007
3949.00,0.0007
3948.00,0.0006
3947.00,0.0006
3946.00,0.0006
3945.00,0.0006
3944.00,0.0006
3943.00,0.0007
3942.00,0.0007
3941.00,0.0007
3940.00,0.0007
3939.00,0.0007
3938.00,0.0007
3937.00,0.0007
3936.00,0.0007
3935.00,0.0007
3934.00,0.0007
3933.00,0.0007
3932.00,0.0006
3931.00,0.0006
3930.00,0.0006
3929.00,0.0006
3928.00,0.0007
3927.00,0.0007
3926.00,0.0008
3925.00,0.0008
3924.00,0.0007
3923.00,0.0007
3922.00,0.0007
3921.00,0.0006
3920.00,0.0006
3919.00,0.0006
3918.00,0.0006
3917.00,0.0006
3916.00,0.0006
3915.00,0.0007
3914.00,0.0007
3913.00,0.0007
3912.00,0.0007
3911.00,0.0008
3910.00,0.0008
3909.00,0.0007
3908.00,0.0007
3907.00,0.0007
3906.00,0.0007
3905.00,0.0006
3904.00,0.0006
3903.00,0.0005
3902.00,0.0005
3901.00,0.0005
3900.00,0.0006
3899.00,0.0007
3898.00,0.0007
3897.00,0.0007
3896.00,0.0007
3895.00,0.0007
3894.00,0.0007
3893.00,0.0007
3892.00,0.0007
3891.00,0.0007
3890.00,0.0006
3889.00,0.0006
3888.00,0.0006
3887.00,0.0006
3886.00,0.0006
3885.00,0.0006
3884.00,0.0006
3883.00,0.0006
3882.00,0.0006
3881.00,0.0006
3880.00,0.0006
3879.00,0.0006
3878.00,0.0006
3877.00,0.0007
3876.00,0.0007
3875.00,0.0007
3874.00,0.0006
3873.00,0.0006
3872.00,0.0005
3871.00,0.0005
3870.00,0.0005
3869.00,0.0004
3868.00,0.0004
3867.00,0.0004
3866.00,0.0004
3865.00,0.0005
3864.00,0.0005
3863.00,0.0005
3862.00,0.0005
3861.00,0.0005
3860.00,0.0005
3859.00,0.0005
3858.00,0.0005
3857.00,0.0005
3856.00,0.0005
3855.00,0.0005
3854.00,0.0004
3853.00,0.0004
3852.00,0.0004
3851.00,0.0005
3850.00,0.0005
3849.00,0.0005
3848.00,0.0006
3847.00,0.0006
3846.00,0.0006
3845.00,0.0005
3844.00,0.0005
3843.00,0.0005
3842.00,0.0005
3841.00,0.0005
3840.00,0.0004
3839.00,0.0004
3838.00,0.0004
3837.00,0.0005
3836.00,0.0005
3835.00,0.0005
3834.00,0.0005
3833.00,0.0005
3832.00,0.0005
3831.00,0.0005
3830.00,0.0005
3829.00,0.0005
3828.00,0.0005
3827.00,0.0005
3826.00,0.0005
3825.00,0.0004
3824.00,0.0004
3823.00,0.0004
3822.00,0.0004
3821.00,0.0004
3820.00,0.0004
3819.00,0.0004
3818.00,0.0004
3817.00,0.0004
3816.00,0.0005
3815.00,0.0005
3814.00,0.0005
3813.00,0.0005
3812.00,0.0006
3811.00,0.0006
3810.00,0.0005
3809.00,0.0005
3808.00,0.0005
3807.00,0.0005
3806.00,0.0005
3805.00,0.0004
3804.00,0.0004
3803.00,0.0004
3802.00,0.0004
3801.00,0.0004
3800.00,0.0004
3799.00,0.0004
3798.00,0.0005
3797.00,0.0006
3796.00,0.0006
3795.00,0.0006
3794.00,0.0006
3793.00,0.0006
3792.00,0.0006
3791.00,0.0006
3790.00,0.0006
3789.00,0.0006
3788.00,0.0005
3787.00,0.0006
3786.00,0.0006
3785.00,0.0006
3784.00,0.0006
3783.00,0.0006
3782.00,0.0006
3781.00,0.0006
3780.00,0.0005
3779.00,0.0005
3778.00,0.0005
3777.00,0.0005
3776.00,0.0005
3775.00,0.0006
3774.00,0.0006
3773.00,0.0006
3772.00,0.0007
3771.00,0.0007
3770.00,0.0007
3769.00,0.0006
3768.00,0.0006
3767.00,0.0006
3766.00,0.0007
3765.00,0.0007
3764.00,0.0007
3763.00,0.0006
3762.00,0.0006
3761.00,0.0006
3760.00,0.0006
3759.00,0.0006
3758.00,0.0005
3757.00,0.0005
3756.00,0.0005
3755.00,0.0004
3754.00,0.0004
3753.00,0.0003
3752.00,0.0003
3751.00,0.0003
3750.00,0.0003
3749.00,0.0004
3748.00,0.0004
3747.00,0.0004
3746.00,0.0004
3745.00,0.0004
3744.00,0.0005
3743.00,0.0005
3742.00,0.0004
3741.00,0.0004
3740.00,0.0004
3739.00,0.0004
3738.00,0.0003
3737.00,0.0003
3736.00,0.0003
3735.00,0.0003
3734.00,0.0004
3733.00,0.0004
3732.00,0.0004
3731.00,0.0004
3730.00,0.0004
3729.00,0.0005
3728.00,0.0005
3727.00,0.0005
3726.00,0.0004
3725.00,0.0004
3724.00,0.0004
3723.00,0.0004
3722.00,0.0005
3721.00,0.0005
3720.00,0.0006
3719.00,0.0006
3718.00,0.0006
3717.00,0.0005
3716.00,0.0005
3715.00,0.0005
3714.00,0.0004
3713.00,0.0005
3712.00,0.0005
3711.00,0.0005
3710.00,0.0005
3709.00,0.0005
3708.00,0.0005
3707.00,0.0005
3706.00,0.0004
3705.00,0.0004
3704.00,0.0005
3703.00,0.0005
3702.00,0.0005
3701.00,0.0005
3700.00,0.0005
3699.00,0.0005
3698.00,0.0005
3697.00,0.0005
3696.00,0.0005
3695.00,0.0005
3694.00,0.0004
3693.00,0.0004
3692.00,0.0004
3691.00,0.0004
3690.00,0.0004
3689.00,0.0004
3688.00,0.0005
3687.00,0.0005
3686.00,0.0005
3685.00,0.0005
3684.00,0.0006
3683.00,0.0006
3682.00,0.0006
3681.00,0.0006
3680.00,0.0005
3679.00,0.0005
3678.00,0.0005
3677.00,0.0004
3676.00,0.0004
3675.00,0.0004
3674.00,0.0004
3673.00,0.0004
3672.00,0.0004
3671.00,0.0005
3670.00,0.0005
3669.00,0.0006
3668.00,0.0006
3667.00,0.0007
3666.00,0.0007
3665.00,0.0007
3664.00,0.0007
3663.00,0.0008
3662.00,0.0008
3661.00,0.0007
3660.00,0.0007
3659.00,0.0007
3658.00,0.0007
3657.00,0.0007
3656.00,0.0008
3655.00,0.0008
3654.00,0.0008
3653.00,0.0008
3652.00,0.0008
3651.00,0.0008
3650.00,0.0007
3649.00,0.0007
3648.00,0.0007
3647.00,0.0007
3646.00,0.0008
3645.00,0.0008
3644.00,0.0009
3643.00,0.0009
3642.00,0.0010
3641.00,0.0010
3640.00,0.0010
3639.00,0.0010
3638.00,0.0010
3637.00,0.0009
3636.00,0.0009
3635.00,0.0009
3634.00,0.0009
3633.00,0.0009
3632.00,0.0009
3631.00,0.0009
3630.00,0.0010
3629.00,0.0010
3628.00,0.0010
3627.00,0.0010
3626.00,0.0011
3625.00,0.0011
3624.00,0.0011
3623.00,0.0011
3622.00,0.0012
3621.00,0.0012
3620.00,0.0011
3619.00,0.0011
3618.00,0.0011
3617.00,0.0011
3616.00,0.0011
3615.00,0.0011
3614.00,0.0011
3613.00,0.0011
3612.00,0.0011
3611.00,0.0012
3610.00,0.0013
3609.00,0.0014
3608.00,0.0015
3607.00,0.0015
3606.00,0.0015
3605.00,0.0015
3604.00,0.0015
3603.00,0.0015
3602.00,0.0015
3601.00,0.0016
3600.00,0.0016
3599.00,0.0016
3598.00,0.0016
3597.00,0.0016
3596.00,0.0016
3595.00,0.0016
3594.00,0.0016
3593.00,0.0017
3592.00,0.0017
3591.00,0.0017
3590.00,0.0017
3589.00,0.0018
3588.00,0.0018
3587.00,0.0018
3586.00,0.0018
3585.00,0.0018
3584.00,0.0018
3583.00,0.0019
3582.00,0.0019
3581.00,0.0020
3580.00,0.0020
3579.00,0.0020
3578.00,0.0020
3577.00,0.0020
3576.00,0.0020
3575.00,0.0021
3574.00,0.0021
3573.00,0.0022
3572.00,0.0022
3571.00,0.0022
3570.00,0.0022
3569.00,0.0023
3568.00,0.0024
3567.00,0.0024
3566.00,0.0024
3565.00,0.0025
3564.00,0.0025
3563.00,0.0025
3562.00,0.0025
3561.00,0.0025
3560.00,0.0026
3559.00,0.0026
3558.00,0.0027
3557.00,0.0028
3556.00,0.0028
3555.00,0.0029
3554.00,0.0029
3553.00,0.0029
3552.00,0.0030
3551.00,0.0030
3550.00,0.0029
3549.00,0.0029
3548.00,0.0029
3547.00,0.0030
3546.00,0.0030
3545.00,0.0031
3544.00,0.0032
3543.00,0.0033
3542.00,0.0033
3541.00,0.0033
3540.00,0.0033
3539.00,0.0033
3538.00,0.0034
3537.00,0.0034
3536.00,0.0035
3535.00,0.0035
3534.00,0.0036
3533.00,0.0036
3532.00,0.0036
3531.00,0.0036
3530.00,0.0037
3529.00,0.0037
3528.00,0.0037
3527.00,0.0037
3526.00,0.0037
3525.00,0.0038
3524.00,0.0038
3523.00,0.0039
3522.00,0.0039
3521.00,0.0039
3520.00,0.0040
3519.00,0.0041
3518.00,0.0042
3517.00,0.0042
3516.00,0.0043
3515.00,0.0043
3514.00,0.0044
3513.00,0.0044
3512.00,0.0045
3511.00,0.0045
3510.00,0.0045
3509.00,0.0046
3508.00,0.0046
3507.00,0.0047
3506.00,0.0047
3505.00,0.0047
3504.00,0.0047
3503.00,0.0048
3502.00,0.0048
3501.00,0.0048
3500.00,0.0049
3499.00,0.0049
3498.00,0.0049
3497.00,0.0050
3496.00,0.0050
3495.00,0.0051
3494.00,0.0051
3493.00,0.0052
3492.00,0.0052
3491.00,0.0052
3490.00,0.0052
3489.00,0.0053
3488.00,0.0053
3487.00,0.0054
3486.00,0.0055
3485.00,0.0055
3484.00,0.0056
3483.00,0.0056
3482.00,0.0056
3481.00,0.0056
3480.00,0.0056
3479.00,0.0057
3478.00,0.0057
3477.00,0.0057
3476.00,0.0058
3475.00,0.0058
3474.00,0.0059
3473.00,0.0059
3472.00,0.0060
3471.00,0.0060
3470.00,0.0060
3469.00,0.0061
3468.00,0.0061
3467.00,0.0062
3466.00,0.0062
3465.00,0.0062
3464.00,0.0063
3463.00,0.0063
3462.00,0.0063
3461.00,0.0064
3460.00,0.0064
3459.00,0.0064
3458.00,0.0064
3457.00,0.0064
3456.00,0.0064
3455.00,0.0065
3454.00,0.0065
3453.00,0.0066
3452.00,0.0066
3451.00,0.0067
3450.00,0.0067
3449.00,0.0068
3448.00,0.0068
3447.00,0.0068
3446.00,0.0068
3445.00,0.0068
3444.00,0.0068
3443.00,0.0068
3442.00,0.0068
3441.00,0.0069
3440.00,0.0069
3439.00,0.0069
3438.00,0.0070
3437.00,0.0070
3436.00,0.0071
3435.00,0.0071
3434.00,0.0071
3433.00,0.0072
3432.00,0.0072
3431.00,0.0072
3430.00,0.0072
3429.00,0.0072
3428.00,0.0073
3427.00,0.0073
3426.00,0.0074
3425.00,0.0074
3424.00,0.0074
3423.00,0.0074
3422.00,0.0074
3421.00,0.0074
3420.00,0.0075
3419.00,0.0075
3418.00,0.0075
3417.00,0.0076
3416.00,0.0076
3415.00,0.0076
3414.00,0.0076
3413.00,0.0076
3412.00,0.0077
3411.00,0.0077
3410.00,0.0077
3409.00,0.0077
3408.00,0.0077
3407.00,0.0077
3406.00,0.0077
3405.00,0.0078
3404.00,0.0078
3403.00,0.0078
3402.00,0.0078
3401.00,0.0078
3400.00,0.0077
3399.00,0.0078
3398.00,0.0078
3397.00,0.0078
3396.00,0.0079
3395.00,0.0079
3394.00,0.0079
3393.00,0.0079
3392.00,0.0079
3391.00,0.0079
3390.00,0.0079
3389.00,0.0079
3388.00,0.0079
3387.00,0.0079
3386.00,0.0079
3385.00,0.0079
3384.00,0.0079
3383.00,0.0080
3382.00,0.0080
3381.00,0.0080
3380.00,0.0080
3379.00,0.0080
3378.00,0.0081
3377.00,0.0081
3376.00,0.0081
3375.00,0.0080
3374.00,0.0081
3373.00,0.0081
3372.00,0.0081
3371.00,0.0081
3370.00,0.0081
3369.00,0.0081
3368.00,0.0081
3367.00,0.0081
3366.00,0.0082
3365.00,0.0082
3364.00,0.0083
3363.00,0.0083
3362.00,0.0083
3361.00,0.0083
3360.00,0.0082
3359.00,0.0082
3358.00,0.0082
3357.00,0.0082
3356.00,0.0082
3355.00,0.0082
3354.00,0.0082
3353.00,0.0082
3352.00,0.0082
3351.00,0.0082
3350.00,0.0082
3349.00,0.0082
3348.00,0.0082
3347.00,0.0082
3346.00,0.0082
3345.00,0.0082
3344.00,0.0082
3343.00,0.0082
3342.00,0.0082
3341.00,0.0082
3340.00,0.0082
3339.00,0.0082
3338.00,0.0082
3337.00,0.0082
3336.00,0.0081
3335.00,0.0081
3334.00,0.0080
3333.00,0.0080
3332.00,0.0080
3331.00,0.0081
3330.00,0.0081
3329.00,0.0081
3328.00,0.0080
3327.00,0.0080
3326.00,0.0080
3325.00,0.0080
3324.00,0.0080
3323.00,0.0080
3322.00,0.0080
3321.00,0.0080
3320.00,0.0080
3319.00,0.0079
3318.00,0.0079
3317.00,0.0079
3316.00,0.0079
3315.00,0.0080
3314.00,0.0080
3313.00,0.0080
3312.00,0.0079
3311.00,0.0079
3310.00,0.0079
3309.00,0.0079
3308.00,0.0079
3307.00,0.0079
3306.00,0.0079
3305.00,0.0079
3304.00,0.0079
3303.00,0.0079
3302.00,0.0079
3301.00,0.0079
3300.00,0.0079
3299.00,0.0079
3298.00,0.0079
3297.00,0.0078
3296.00,0.0078
3295.00,0.0077
3294.00,0.0077
3293.00,0.0077
3292.00,0.0076
3291.00,0.0076
3290.00,0.0076
3289.00,0.0076
3288.00,0.0075
3287.00,0.0075
3286.00,0.0074
3285.00,0.0074
3284.00,0.0074
3283.00,0.0074
3282.00,0.0074
3281.00,0.0073
3280.00,0.0073
3279.00,0.0073
3278.00,0.0073
3277.00,0.0072
3276.00,0.0072
3275.00,0.0072
3274.00,0.0072
3273.00,0.0072
3272.00,0.0072
3271.00,0.0072
3270.00,0.0072
3269.00,0.0071
3268.00,0.0071
3267.00,0.0071
3266.00,0.0071
3265.00,0.0071
3264.00,0.0071
3263.00,0.0071
3262.00,0.0070
3261.00,0.0070
3260.00,0.0070
3259.00,0.0069
3258.00,0.0068
3257.00,0.0068
3256.00,0.0068
3255.00,0.0067
3254.00,0.0067
3253.00,0.0067
3252.00,0.0067
3251.00,0.0066
3250.00,0.0066
3249.00,0.0066
3248.00,0.0066
3247.00,0.0066
3246.00,0.0066
3245.00,0.0066
3244.00,0.0066
3243.00,0.0065
3242.00,0.0065
3241.00,0.0065
3240.00,0.0065
3239.00,0.0066
3238.00,0.0066
3237.00,0.0065
3236.00,0.0065
3235.00,0.0065
3234.00,0.0065
3233.00,0.0065
3232.00,0.0065
3231.00,0.0065
3230.00,0.0065
3229.00,0.0066
3228.00,0.0066
3227.00,0.0066
3226.00,0.0066
3225.00,0.0066
3224.00,0.0066
3223.00,0.0066
3222.00,0.0066
3221.00,0.0066
3220.00,0.0066
3219.00,0.0066
3218.00,0.0067
3217.00,0.0067
3216.00,0.0067
3215.00,0.0067
3214.00,0.0067
3213.00,0.0068
3212.00,0.0068
3211.00,0.0068
3210.00,0.0068
3209.00,0.0067
3208.00,0.0067
3207.00,0.0067
3206.00,0.0068
3205.00,0.0068
3204.00,0.0068
3203.00,0.0068
3202.00,0.0068
3201.00,0.0068
3200.00,0.0067
3199.00,0.0067
3198.00,0.0067
3197.00,0.0068
3196.00,0.0068
3195.00,0.0068
3194.00,0.0068
3193.00,0.0068
3192.00,0.0067
3191.00,0.0067
3190.00,0.0067
3189.00,0.0067
3188.00,0.0067
3187.00,0.0067
3186.00,0.0067
3185.00,0.0066
3184.00,0.0066
3183.00,0.0066
3182.00,0.0065
3181.00,0.0065
3180.00,0.0064
3179.00,0.0064
3178.00,0.0064
3177.00,0.0064
3176.00,0.0063
3175.00,0.0063
3174.00,0.0062
3173.00,0.0062
3172.00,0.0062
3171.00,0.0062
3170.00,0.0062
3169.00,0.0061
3168.00,0.0061
3167.00,0.0061
3166.00,0.0060
3165.00,0.0059
3164.00,0.0059
3163.00,0.0059
3162.00,0.0059
3161.00,0.0058
3160.00,0.0058
3159.00,0.0058
3158.00,0.0058
3157.00,0.0058
3156.00,0.0057
3155.00,0.0057
3154.00,0.0057
3153.00,0.0057
3152.00,0.0057
3151.00,0.0056
3150.00,0.0056
3149.00,0.0056
3148.00,0.0056
3147.00,0.0056
3146.00,0.0056
3145.00,0.0056
3144.00,0.0056
3143.00,0.0056
3142.00,0.0056
3141.00,0.0055
3140.00,0.0055
3139.00,0.0054
3138.00,0.0054
3137.00,0.0054
3136.00,0.0054
3135.00,0.0054
3134.00,0.0053
3133.00,0.0053
3132.00,0.0052
3131.00,0.0052
3130.00,0.0052
3129.00,0.0051
3128.00,0.0051
3127.00,0.0051
3126.00,0.0051
3125.00,0.0050
3124.00,0.0050
3123.00,0.0050
3122.00,0.0049
3121.00,0.0049
3120.00,0.0049
3119.00,0.0049
3118.00,0.0048
3117.00,0.0048
3116.00,0.0047
3115.00,0.0047
3114.00,0.0047
3113.00,0.0047
3112.00,0.0046
3111.00,0.0046
3110.00,0.0046
3109.00,0.0046
3108.00,0.0046
3107.00,0.0046
3106.00,0.0046
3105.00,0.0046
3104.00,0.0046
3103.00,0.0046
3102.00,0.0046
3101.00,0.0046
3100.00,0.0045
3099.00,0.0045
3098.00,0.0044
3097.00,0.0044
3096.00,0.0045
3095.00,0.0045
3094.00,0.0045
3093.00,0.0044
3092.00,0.0044
3091.00,0.0044
3090.00,0.0044
3089.00,0.0044
3088.00,0.0044
3087.00,0.0044
3086.00,0.0044
3085.00,0.0044
3084.00,0.0044
3083.00,0.0044
3082.00,0.0043
3081.00,0.0043
3080.00,0.0043
3079.00,0.0043
3078.00,0.0043
3077.00,0.0043
3076.00,0.0044
3075.00,0.0044
3074.00,0.0044
3073.00,0.0044
3072.00,0.0044
3071.00,0.0045
3070.00,0.0045
3069.00,0.0045
3068.00,0.0044
3067.00,0.0044
3066.00,0.0044
3065.00,0.0044
3064.00,0.0044
3063.00,0.0044
3062.00,0.0045
3061.00,0.0045
3060.00,0.0045
3059.00,0.0046
3058.00,0.0046
3057.00,0.0046
3056.00,0.0046
3055.00,0.0046
3054.00,0.0046
3053.00,0.0046
3052.00,0.0046
3051.00,0.0046
3050.00,0.0046
3049.00,0.0046
3048.00,0.0047
3047.00,0.0047
3046.00,0.0047
3045.00,0.0047
3044.00,0.0047
3043.00,0.0047
3042.00,0.0048
3041.00,0.0048
3040.00,0.0048
3039.00,0.0048
3038.00,0.0048
3037.00,0.0049
3036.00,0.0049
3035.00,0.0049
3034.00,0.0050
3033.00,0.0050
3032.00,0.0051
3031.00,0.0051
3030.00,0.0051
3029.00,0.0051
3028.00,0.0051
3027.00,0.0051
3026.00,0.0052
3025.00,0.0053
3024.00,0.0054
3023.00,0.0055
3022.00,0.0056
3021.00,0.0056
3020.00,0.0057
3019.00,0.0059
3018.00,0.0059
3017.00,0.0060
3016.00,0.0061
3015.00,0.0062
3014.00,0.0063
3013.00,0.0064
3012.00,0.0065
3011.00,0.0067
3010.00,0.0068
3009.00,0.0070
3008.00,0.0072
3007.00,0.0074
3006.00,0.0076
3005.00,0.0078
3004.00,0.0081
3003.00,0.0083
3002.00,0.0085
3001.00,0.0088
3000.00,0.0090
2999.00,0.0093
2998.00,0.0096
2997.00,0.0100
2996.00,0.0103
2995.00,0.0107
2994.00,0.0111
2993.00,0.0116
2992.00,0.0122
2991.00,0.0128
2990.00,0.0135
2989.00,0.0142
2988.00,0.0150
2987.00,0.0159
2986.00,0.0169
2985.00,0.0180
2984.00,0.0193
2983.00,0.0207
2982.00,0.0222
2981.00,0.0240
2980.00,0.0259
2979.00,0.0280
2978.00,0.0304
2977.00,0.0332
2976.00,0.0365
2975.00,0.0403
2974.00,0.0446
2973.00,0.0496
2972.00,0.0553
2971.00,0.0617
2970.00,0.0689
2969.00,0.0768
2968.00,0.0856
2967.00,0.0951
2966.00,0.1052
2965.00,0.1159
2964.00,0.1267
2963.00,0.1371
2962.00,0.1466
2961.00,0.1546
2960.00,0.1608
2959.00,0.1652
2958.00,0.1682
2957.00,0.1705
2956.00,0.1727
2955.00,0.1752
2954.00,0.1783
2953.00,0.1815
2952.00,0.1841
2951.00,0.1850
2950.00,0.1834
2949.00,0.1788
2948.00,0.1713
2947.00,0.1614
2946.00,0.1502
2945.00,0.1387
2944.00,0.1281
2943.00,0.1191
2942.00,0.1122
2941.00,0.1076
2940.00,0.1052
2939.00,0.1047
2938.00,0.1060
2937.00,0.1088
2936.00,0.1131
2935.00,0.1187
2934.00,0.1255
2933.00,0.1334
2932.00,0.1422
2931.00,0.1518
2930.00,0.1619
2929.00,0.1721
2928.00,0.1823
2927.00,0.1921
2926.00,0.2014
2925.00,0.2102
2924.00,0.2185
2923.00,0.2264
2922.00,0.2340
2921.00,0.2409
2920.00,0.2466
2919.00,0.2505
2918.00,0.2518
2917.00,0.2503
2916.00,0.2459
2915.00,0.2393
2914.00,0.2313
2913.00,0.2229
2912.00,0.2149
2911.00,0.2076
2910.00,0.2012
2909.00,0.1956
2908.00,0.1905
2907.00,0.1855
2906.00,0.1803
2905.00,0.1748
2904.00,0.1689
2903.00,0.1627
2902.00,0.1564
2901.00,0.1501
2900.00,0.1439
2899.00,0.1379
2898.00,0.1323
2897.00,0.1271
2896.00,0.1225
2895.00,0.1183
2894.00,0.1148
2893.00,0.1118
2892.00,0.1094
2891.00,0.1075
2890.00,0.1060
2889.00,0.1050
2888.00,0.1043
2887.00,0.1039
2886.00,0.1039
2885.00,0.1041
2884.00,0.1047
2883.00,0.1056
2882.00,0.1068
2881.00,0.1082
2880.00,0.1095
2879.00,0.1105
2878.00,0.1110
2877.00,0.1109
2876.00,0.1105
2875.00,0.1098
2874.00,0.1094
2873.00,0.1095
2872.00,0.1103
2871.00,0.1117
2870.00,0.1135
2869.00,0.1151
2868.00,0.1161
2867.00,0.1158
2866.00,0.1137
2865.00,0.1097
2864.00,0.1043
2863.00,0.0983
2862.00,0.0923
2861.00,0.0873
2860.00,0.0835
2859.00,0.0811
2858.00,0.0800
2857.00,0.0799
2856.00,0.0806
2855.00,0.0818
2854.00,0.0834
2853.00,0.0851
2852.00,0.0867
2851.00,0.0880
2850.00,0.0889
2849.00,0.0896
2848.00,0.0903
2847.00,0.0915
2846.00,0.0936
2845.00,0.0968
2844.00,0.1010
2843.00,0.1060
2842.00,0.1112
2841.00,0.1160
2840.00,0.1197
2839.00,0.1214
2838.00,0.1206
2837.00,0.1168
2836.00,0.1102
2835.00,0.1014
2834.00,0.0912
2833.00,0.0808
2832.00,0.0710
2831.00,0.0623
2830.00,0.0550
2829.00,0.0490
2828.00,0.0440
2827.00,0.0400
2826.00,0.0368
2825.00,0.0340
2824.00,0.0317
2823.00,0.0298
2822.00,0.0281
2821.00,0.0266
2820.00,0.0253
2819.00,0.0242
2818.00,0.0233
2817.00,0.0224
2816.00,0.0217
2815.00,0.0210
2814.00,0.0204
2813.00,0.0197
2812.00,0.0192
2811.00,0.0186
2810.00,0.0181
2809.00,0.0175
2808.00,0.0170
2807.00,0.0164
2806.00,0.0158
2805.00,0.0152
2804.00,0.0146
2803.00,0.0141
2802.00,0.0136
2801.00,0.0132
2800.00,0.0128
2799.00,0.0125
2798.00,0.0122
2797.00,0.0120
2796.00,0.0117
2795.00,0.0115
2794.00,0.0113
2793.00,0.0110
2792.00,0.0107
2791.00,0.0103
2790.00,0.0100
2789.00,0.0096
2788.00,0.0093
2787.00,0.0089
2786.00,0.0086
2785.00,0.0083
2784.00,0.0081
2783.00,0.0078
2782.00,0.0076
2781.00,0.0074
2780.00,0.0072
2779.00,0.0071
2778.00,0.0070
2777.00,0.0068
2776.00,0.0067
2775.00,0.0065
2774.00,0.0064
2773.00,0.0063
2772.00,0.0062
2771.00,0.0062
2770.00,0.0061
2769.00,0.0061
2768.00,0.0061
2767.00,0.0061
2766.00,0.0061
2765.00,0.0061
2764.00,0.0060
2763.00,0.0060
2762.00,0.0059
2761.00,0.0058
2760.00,0.0058
2759.00,0.0058
2758.00,0.0058
2757.00,0.0058
2756.00,0.0058
2755.00,0.0058
2754.00,0.0058
2753.00,0.0058
2752.00,0.0057
2751.00,0.0057
2750.00,0.0056
2749.00,0.0056
2748.00,0.0057
2747.00,0.0057
2746.00,0.0057
2745.00,0.0058
2744.00,0.0058
2743.00,0.0059
2742.00,0.0059
2741.00,0.0060
2740.00,0.0061
2739.00,0.0062
2738.00,0.0064
2737.00,0.0065
2736.00,0.0066
2735.00,0.0067
2734.00,0.0069
2733.00,0.0070
2732.00,0.0072
2731.00,0.0073
2730.00,0.0075
2729.00,0.0077
2728.00,0.0079
2727.00,0.0082
2726.00,0.0084
2725.00,0.0086
2724.00,0.0088
2723.00,0.0088
2722.00,0.0087
2721.00,0.0085
2720.00,0.0083
2719.00,0.0080
2718.00,0.0077
2717.00,0.0075
2716.00,0.0072
2715.00,0.0070
2714.00,0.0067
2713.00,0.0065
2712.00,0.0064
2711.00,0.0062
2710.00,0.0061
2709.00,0.0060
2708.00,0.0058
2707.00,0.0057
2706.00,0.0056
2705.00,0.0055
2704.00,0.0054
2703.00,0.0053
2702.00,0.0052
2701.00,0.0052
2700.00,0.0051
2699.00,0.0050
2698.00,0.0050
2697.00,0.0050
2696.00,0.0050
2695.00,0.0050
2694.00,0.0050
2693.00,0.0050
2692.00,0.0050
2691.00,0.0050
2690.00,0.0050
2689.00,0.0050
2688.00,0.0050
2687.00,0.0050
2686.00,0.0049
2685.00,0.0049
2684.00,0.0049
2683.00,0.0049
2682.00,0.0049
2681.00,0.0050
2680.00,0.0050
2679.00,0.0050
2678.00,0.0049
2677.00,0.0049
2676.00,0.0049
2675.00,0.0049
2674.00,0.0049
2673.00,0.0049
2672.00,0.0049
2671.00,0.0049
2670.00,0.0048
2669.00,0.0048
2668.00,0.0048
2667.00,0.0048
2666.00,0.0049
2665.00,0.0049
2664.00,0.0050
2663.00,0.0051
2662.00,0.0051
2661.00,0.0051
2660.00,0.0051
2659.00,0.0051
2658.00,0.0051
2657.00,0.0051
2656.00,0.0050
2655.00,0.0050
2654.00,0.0049
2653.00,0.0049
2652.00,0.0048
2651.00,0.0048
2650.00,0.0047
2649.00,0.0047
2648.00,0.0046
2647.00,0.0046
2646.00,0.0046
2645.00,0.0046
2644.00,0.0045
2643.00,0.0045
2642.00,0.0044
2641.00,0.0043
2640.00,0.0042
2639.00,0.0042
2638.00,0.0041
2637.00,0.0041
2636.00,0.0041
2635.00,0.0041
2634.00,0.0041
2633.00,0.0042
2632.00,0.0042
2631.00,0.0042
2630.00,0.0042
2629.00,0.0042
2628.00,0.0042
2627.00,0.0043
2626.00,0.0043
2625.00,0.0042
2624.00,0.0043
2623.00,0.0043
2622.00,0.0043
2621.00,0.0043
2620.00,0.0043
2619.00,0.0043
2618.00,0.0042
2617.00,0.0042
2616.00,0.0042
2615.00,0.0042
2614.00,0.0042
2613.00,0.0042
2612.00,0.0042
2611.00,0.0041
2610.00,0.0040
2609.00,0.0039
2608.00,0.0038
2607.00,0.0038
2606.00,0.0038
2605.00,0.0037
2604.00,0.0037
2603.00,0.0036
2602.00,0.0035
2601.00,0.0035
2600.00,0.0034
2599.00,0.0034
2598.00,0.0034
2597.00,0.0034
2596.00,0.0034
2595.00,0.0034
2594.00,0.0034
2593.00,0.0034
2592.00,0.0035
2591.00,0.0035
2590.00,0.0036
2589.00,0.0036
2588.00,0.0036
2587.00,0.0037
2586.00,0.0038
2585.00,0.0039
2584.00,0.0040
2583.00,0.0040
2582.00,0.0039
2581.00,0.0039
2580.00,0.0038
2579.00,0.0037
2578.00,0.0037
2577.00,0.0036
2576.00,0.0035
2575.00,0.0034
2574.00,0.0033
2573.00,0.0032
2572.00,0.0031
2571.00,0.0030
2570.00,0.0029
2569.00,0.0028
2568.00,0.0028
2567.00,0.0028
2566.00,0.0027
2565.00,0.0027
2564.00,0.0027
2563.00,0.0027
2562.00,0.0026
2561.00,0.0026
2560.00,0.0026
2559.00,0.0025
2558.00,0.0024
2557.00,0.0024
2556.00,0.0024
2555.00,0.0024
2554.00,0.0024
2553.00,0.0024
2552.00,0.0024
2551.00,0.0024
2550.00,0.0024
2549.00,0.0023
2548.00,0.0023
2547.00,0.0022
2546.00,0.0021
2545.00,0.0021
2544.00,0.0021
2543.00,0.0021
2542.00,0.0021
2541.00,0.0020
2540.00,0.0020
2539.00,0.0019
2538.00,0.0018
2537.00,0.0018
2536.00,0.0019
2535.00,0.0019
2534.00,0.0019
2533.00,0.0019
2532.00,0.0018
2531.00,0.0017
2530.00,0.0017
2529.00,0.0017
2528.00,0.0017
2527.00,0.0017
2526.00,0.0017
2525.00,0.0017
2524.00,0.0017
2523.00,0.0016
2522.00,0.0016
2521.00,0.0015
2520.00,0.0015
2519.00,0.0015
2518.00,0.0014
2517.00,0.0014
2516.00,0.0014
2515.00,0.0013
2514.00,0.0013
2513.00,0.0012
2512.00,0.0013
2511.00,0.0013
2510.00,0.0014
2509.00,0.0014
2508.00,0.0014
2507.00,0.0014
2506.00,0.0013
2505.00,0.0013
2504.00,0.0012
2503.00,0.0012
2502.00,0.0012
2501.00,0.0012
2500.00,0.0012
2499.00,0.0012
2498.00,0.0012
2497.00,0.0012
2496.00,0.0012
2495.00,0.0012
2494.00,0.0013
2493.00,0.0013
2492.00,0.0014
2491.00,0.0014
2490.00,0.0014
2489.00,0.0014
2488.00,0.0013
2487.00,0.0012
2486.00,0.0011
2485.00,0.0011
2484.00,0.0011
2483.00,0.0011
2482.00,0.0011
2481.00,0.0012
2480.00,0.0012
2479.00,0.0013
2478.00,0.0013
2477.00,0.0013
2476.00,0.0013
2475.00,0.0012
2474.00,0.0012
2473.00,0.0012
2472.00,0.0012
2471.00,0.0011
2470.00,0.0011
2469.00,0.0011
2468.00,0.0011
2467.00,0.0011
2466.00,0.0011
2465.00,0.0011
2464.00,0.0012
2463.00,0.0012
2462.00,0.0012
2461.00,0.0012
2460.00,0.0012
2459.00,0.0012
2458.00,0.0013
2457.00,0.0012
2456.00,0.0012
2455.00,0.0012
2454.00,0.0012
2453.00,0.0012
2452.00,0.0012
2451.00,0.0012
2450.00,0.0012
2449.00,0.0013
2448.00,0.0013
2447.00,0.0014
2446.00,0.0015
2445.00,0.0015
2444.00,0.0015
2443.00,0.0014
2442.00,0.0013
2441.00,0.0013
2440.00,0.0012
2439.00,0.0012
2438.00,0.0012
2437.00,0.0013
2436.00,0.0014
2435.00,0.0014
2434.00,0.0015
2433.00,0.0015
2432.00,0.0015
2431.00,0.0015
2430.00,0.0014
2429.00,0.0014
2428.00,0.0013
2427.00,0.0013
2426.00,0.0012
2425.00,0.0012
2424.00,0.0012
2423.00,0.0012
2422.00,0.0012
2421.00,0.0012
2420.00,0.0012
2419.00,0.0011
2418.00,0.0011
2417.00,0.0011
2416.00,0.0011
2415.00,0.0011
2414.00,0.0011
2413.00,0.0012
2412.00,0.0012
2411.00,0.0012
2410.00,0.0012
2409.00,0.0012
2408.00,0.0012
2407.00,0.0011
2406.00,0.0010
2405.00,0.0010
2404.00,0.0011
2403.00,0.0011
2402.00,0.0012
2401.00,0.0011
2400.00,0.0011
2399.00,0.0010
2398.00,0.0010
2397.00,0.0010
2396.00,0.0010
2395.00,0.0010
2394.00,0.0010
2393.00,0.0009
2392.00,0.0009
2391.00,0.0009
2390.00,0.0009
2389.00,0.0009
2388.00,0.0010
2387.00,0.0010
2386.00,0.0010
2385.00,0.0009
2384.00,0.0008
2383.00,0.0007
2382.00,0.0006
2381.00,0.0005
2380.00,0.0004
2379.00,0.0003
2378.00,0.0003
2377.00,0.0003
2376.00,0.0003
2375.00,0.0003
2374.00,0.0004
2373.00,0.0004
2372.00,0.0005
2371.00,0.0005
2370.00,0.0005
2369.00,0.0005
2368.00,0.0004
2367.00,0.0004
2366.00,0.0003
2365.00,0.0003
2364.00,0.0003
2363.00,0.0004
2362.00,0.0005
2361.00,0.0006
2360.00,0.0006
2359.00,0.0006
2358.00,0.0005
2357.00,0.0005
2356.00,0.0005
2355.00,0.0005
2354.00,0.0005
2353.00,0.0005
2352.00,0.0004
2351.00,0.0004
2350.00,0.0004
2349.00,0.0006
2348.00,0.0007
2347.00,0.0008
2346.00,0.0007
2345.00,0.0007
2344.00,0.0007
2343.00,0.0007
2342.00,0.0007
2341.00,0.0007
2340.00,0.0008
2339.00,0.0008
2338.00,0.0008
2337.00,0.0008
2336.00,0.0008
2335.00,0.0008
2334.00,0.0008
2333.00,0.0007
2332.00,0.0006
2331.00,0.0005
2330.00,0.0005
2329.00,0.0006
2328.00,0.0008
2327.00,0.0012
2326.00,0.0016
2325.00,0.0020
2324.00,0.0021
2323.00,0.0019
2322.00,0.0016
2321.00,0.0014
2320.00,0.0012
2319.00,0.0012
2318.00,0.0013
2317.00,0.0013
2316.00,0.0013
2315.00,0.0013
2314.00,0.0011
2313.00,0.0010
2312.00,0.0008
2311.00,0.0008
2310.00,0.0008
2309.00,0.0009
2308.00,0.0009
2307.00,0.0010
2306.00,0.0010
2305.00,0.0010
2304.00,0.0011
2303.00,0.0011
2302.00,0.0011
2301.00,0.0011
2300.00,0.0012
2299.00,0.0012
2298.00,0.0012
2297.00,0.0013
2296.00,0.0013
2295.00,0.0014
2294.00,0.0014
2293.00,0.0015
2292.00,0.0016
2291.00,0.0017
2290.00,0.0018
2289.00,0.0018
2288.00,0.0018
2287.00,0.0018
2286.00,0.0019
2285.00,0.0020
2284.00,0.0020
2283.00,0.0019
2282.00,0.0019
2281.00,0.0019
2280.00,0.0018
2279.00,0.0018
2278.00,0.0017
2277.00,0.0016
2276.00,0.0015
2275.00,0.0016
2274.00,0.0016
2273.00,0.0016
2272.00,0.0017
2271.00,0.0017
2270.00,0.0016
2269.00,0.0016
2268.00,0.0015
2267.00,0.0014
2266.00,0.0014
2265.00,0.0014
2264.00,0.0014
2263.00,0.0014
2262.00,0.0014
2261.00,0.0014
2260.00,0.0014
2259.00,0.0013
2258.00,0.0012
2257.00,0.0012
2256.00,0.0012
2255.00,0.0012
2254.00,0.0011
2253.00,0.0009
2252.00,0.0008
2251.00,0.0007
2250.00,0.0007
2249.00,0.0008
2248.00,0.0009
2247.00,0.0009
2246.00,0.0009
2245.00,0.0009
2244.00,0.0009
2243.00,0.0010
2242.00,0.0010
2241.00,0.0011
2240.00,0.0011
2239.00,0.0011
2238.00,0.0011
2237.00,0.0010
2236.00,0.0010
2235.00,0.0011
2234.00,0.0012
2233.00,0.0012
2232.00,0.0012
2231.00,0.0011
2230.00,0.0011
2229.00,0.0010
2228.00,0.0010
2227.00,0.0010
2226.00,0.0009
2225.00,0.0009
2224.00,0.0009
2223.00,0.0009
2222.00,0.0008
2221.00,0.0008
2220.00,0.0008
2219.00,0.0008
2218.00,0.0008
2217.00,0.0009
2216.00,0.0009
2215.00,0.0009
2214.00,0.0009
2213.00,0.0008
2212.00,0.0006
2211.00,0.0005
2210.00,0.0004
2209.00,0.0004
2208.00,0.0004
2207.00,0.0005
2206.00,0.0007
2205.00,0.0010
2204.00,0.0013
2203.00,0.0013
2202.00,0.0013
2201.00,0.0011
2200.00,0.0010
2199.00,0.0009
2198.00,0.0009
2197.00,0.0009
2196.00,0.0009
2195.00,0.0010
2194.00,0.0011
2193.00,0.0012
2192.00,0.0013
2191.00,0.0014
2190.00,0.0016
2189.00,0.0016
2188.00,0.0016
2187.00,0.0014
2186.00,0.0011
2185.00,0.0009
2184.00,0.0008
2183.00,0.0006
2182.00,0.0005
2181.00,0.0006
2180.00,0.0008
2179.00,0.0009
2178.00,0.0007
2177.00,0.0003
2176.00,-0.0001
2175.00,-0.0003
2174.00,-0.0002
2173.00,0.0000
2172.00,0.0004
2171.00,0.0007
2170.00,0.0010
2169.00,0.0013
2168.00,0.0016
2167.00,0.0018
2166.00,0.0018
2165.00,0.0018
2164.00,0.0018
2163.00,0.0017
2162.00,0.0015
2161.00,0.0009
2160.00,-0.0001
2159.00,-0.0013
2158.00,-0.0024
2157.00,-0.0028
2156.00,-0.0027
2155.00,-0.0024
2154.00,-0.0020
2153.00,-0.0017
2152.00,-0.0015
2151.00,-0.0014
2150.00,-0.0014
2149.00,-0.0015
2148.00,-0.0015
2147.00,-0.0016
2146.00,-0.0017
2145.00,-0.0015
2144.00,-0.0013
2143.00,-0.0011
2142.00,-0.0010
2141.00,-0.0011
2140.00,-0.0011
2139.00,-0.0010
2138.00,-0.0009
2137.00,-0.0009
2136.00,-0.0009
2135.00,-0.0011
2134.00,-0.0014
2133.00,-0.0015
2132.00,-0.0014
2131.00,-0.0012
2130.00,-0.0011
2129.00,-0.0009
2128.00,-0.0008
2127.00,-0.0007
2126.00,-0.0007
2125.00,-0.0006
2124.00,-0.0005
2123.00,-0.0005
2122.00,-0.0004
2121.00,-0.0004
2120.00,-0.0003
2119.00,-0.0002
2118.00,-0.0000
2117.00,0.0001
2116.00,0.0002
2115.00,0.0004
2114.00,0.0006
2113.00,0.0007
2112.00,0.0007
2111.00,0.0006
2110.00,0.0005
2109.00,0.0003
2108.00,0.0002
2107.00,0.0001
2106.00,0.0002
2105.00,0.0002
2104.00,0.0003
2103.00,0.0003
2102.00,0.0002
2101.00,0.0002
2100.00,0.0002
2099.00,0.0002
2098.00,0.0002
2097.00,0.0002
2096.00,0.0001
2095.00,0.0000
2094.00,-0.0001
2093.00,-0.0002
2092.00,-0.0001
2091.00,0.0001
2090.00,0.0002
2089.00,0.0004
2088.00,0.0003
2087.00,0.0003
2086.00,0.0002
2085.00,0.0003
2084.00,0.0004
2083.00,0.0004
2082.00,0.0004
2081.00,0.0004
2080.00,0.0005
2079.00,0.0005
2078.00,0.0005
2077.00,0.0005
2076.00,0.0005
2075.00,0.0004
2074.00,0.0003
2073.00,0.0002
2072.00,0.0002
2071.00,0.0002
2070.00,0.0003
2069.00,0.0002
2068.00,0.0002
2067.00,0.0001
2066.00,0.0001
2065.00,0.0001
2064.00,0.0001
2063.00,0.0003
2062.00,0.0004
2061.00,0.0005
2060.00,0.0004
2059.00,0.0003
2058.00,0.0003
2057.00,0.0004
2056.00,0.0003
2055.00,0.0002
2054.00,0.0001
2053.00,0.0004
2052.00,0.0008
2051.00,0.0011
2050.00,0.0010
2049.00,0.0007
2048.00,0.0003
2047.00,0.0001
2046.00,0.0000
2045.00,0.0001
2044.00,0.0004
2043.00,0.0006
2042.00,0.0008
2041.00,0.0009
2040.00,0.0008
2039.00,0.0006
2038.00,0.0005
2037.00,0.0006
2036.00,0.0006
2035.00,0.0005
2034.00,0.0003
2033.00,-0.0001
2032.00,-0.0004
2031.00,-0.0007
2030.00,-0.0009
2029.00,-0.0010
2028.00,-0.0009
2027.00,-0.0007
2026.00,-0.0004
2025.00,-0.0001
2024.00,0.0000
2023.00,0.0001
2022.00,0.0002
2021.00,0.0001
2020.00,0.0000
2019.00,-0.0001
2018.00,-0.0002
2017.00,-0.0001
2016.00,0.0001
2015.00,0.0002
2014.00,0.0001
2013.00,-0.0002
2012.00,-0.0005
2011.00,-0.0009
2010.00,-0.0011
2009.00,-0.0012
2008.00,-0.0012
2007.00,-0.0012
2006.00,-0.0012
2005.00,-0.0011
2004.00,-0.0012
2003.00,-0.0014
2002.00,-0.0016
2001.00,-0.0016
2000.00,-0.0014
1999.00,-0.0011
1998.00,-0.0010
1997.00,-0.0010
1996.00,-0.0010
1995.00,-0.0009
1994.00,-0.0007
1993.00,-0.0005
1992.00,-0.0003
1991.00,-0.0003
1990.00,-0.0004
1989.00,-0.0004
1988.00,-0.0003
1987.00,-0.0003
1986.00,-0.0003
1985.00,-0.0001
1984.00,0.0001
1983.00,0.0003
1982.00,0.0005
1981.00,0.0006
1980.00,0.0005
1979.00,0.0001
1978.00,-0.0004
1977.00,-0.0009
1976.00,-0.0011
1975.00,-0.0011
1974.00,-0.0010
1973.00,-0.0008
1972.00,-0.0008
1971.00,-0.0010
1970.00,-0.0012
1969.00,-0.0012
1968.00,-0.0008
1967.00,-0.0005
1966.00,-0.0003
1965.00,-0.0002
1964.00,-0.0002
1963.00,-0.0003
1962.00,-0.0004
1961.00,-0.0005
1960.00,-0.0006
1959.00,-0.0007
1958.00,-0.0009
1957.00,-0.0010
1956.00,-0.0010
1955.00,-0.0010
1954.00,-0.0011
1953.00,-0.0012
1952.00,-0.0013
1951.00,-0.0014
1950.00,-0.0014
1949.00,-0.0014
1948.00,-0.0014
1947.00,-0.0014
1946.00,-0.0014
1945.00,-0.0015
1944.00,-0.0014
1943.00,-0.0014
1942.00,-0.0014
1941.00,-0.0013
1940.00,-0.0011
1939.00,-0.0010
1938.00,-0.0010
1937.00,-0.0010
1936.00,-0.0010
1935.00,-0.0010
1934.00,-0.0010
1933.00,-0.0009
1932.00,-0.0007
1931.00,-0.0007
1930.00,-0.0006
1929.00,-0.0005
1928.00,-0.0003
1927.00,-0.0001
1926.00,-0.0000
1925.00,0.0000
1924.00,-0.0001
1923.00,-0.0002
1922.00,-0.0002
1921.00,-0.0002
1920.00,-0.0002
1919.00,-0.0001
1918.00,-0.0001
1917.00,-0.0001
1916.00,-0.0000
1915.00,-0.0001
1914.00,-0.0002
1913.00,-0.0002
1912.00,-0.0002
1911.00,-0.0001
1910.00,-0.0001
1909.00,-0.0001
1908.00,-0.0001
1907.00,-0.0001
1906.00,-0.0001
1905.00,-0.0000
1904.00,0.0000
1903.00,0.0000
1902.00,0.0001
1901.00,0.0001
1900.00,0.0001
1899.00,0.0001
1898.00,0.0001
1897.00,0.0001
1896.00,0.0001
1895.00,0.0002
1894.00,0.0003
1893.00,0.0003
1892.00,0.0003
1891.00,0.0003
1890.00,0.0003
1889.00,0.0002
1888.00,0.0002
1887.00,0.0002
1886.00,0.0002
1885.00,0.0002
1884.00,0.0002
1883.00,0.0002
1882.00,0.0001
1881.00,0.0000
1880.00,0.0000
1879.00,0.0000
1878.00,0.0000
1877.00,0.0001
1876.00,0.0001
1875.00,0.0002
1874.00,0.0002
1873.00,0.0002
1872.00,0.0002
1871.00,0.0002
1870.00,0.0002
1869.00,0.0002
1868.00,0.0001
1867.00,0.0000
1866.00,-0.0000
1865.00,-0.0000
1864.00,0.0001
1863.00,0.0001
1862.00,0.0002
1861.00,0.0003
1860.00,0.0004
1859.00,0.0004
1858.00,0.0004
1857.00,0.0004
1856.00,0.0003
1855.00,0.0003
1854.00,0.0003
1853.00,0.0003
1852.00,0.0003
1851.00,0.0003
1850.00,0.0003
1849.00,0.0004
1848.00,0.0004
1847.00,0.0005
1846.00,0.0004
1845.00,0.0004
1844.00,0.0004
1843.00,0.0004
1842.00,0.0004
1841.00,0.0004
1840.00,0.0003
1839.00,0.0003
1838.00,0.0004
1837.00,0.0004
1836.00,0.0005
1835.00,0.0005
1834.00,0.0005
1833.00,0.0006
1832.00,0.0006
1831.00,0.0006
1830.00,0.0005
1829.00,0.0005
1828.00,0.0005
1827.00,0.0005
1826.00,0.0005
1825.00,0.0005
1824.00,0.0006
1823.00,0.0006
1822.00,0.0006
1821.00,0.0006
1820.00,0.0005
1819.00,0.0004
1818.00,0.0003
1817.00,0.0002
1816.00,0.0002
1815.00,0.0003
1814.00,0.0004
1813.00,0.0004
1812.00,0.0005
1811.00,0.0006
1810.00,0.0006
1809.00,0.0006
1808.00,0.0007
1807.00,0.0007
1806.00,0.0007
1805.00,0.0007
1804.00,0.0008
1803.00,0.0008
1802.00,0.0007
1801.00,0.0007
1800.00,0.0007
1799.00,0.0007
1798.00,0.0008
1797.00,0.0008
1796.00,0.0009
1795.00,0.0009
1794.00,0.0009
1793.00,0.0008
1792.00,0.0008
1791.00,0.0008
1790.00,0.0009
1789.00,0.0009
1788.00,0.0010
1787.00,0.0010
1786.00,0.0009
1785.00,0.0010
1784.00,0.0010
1783.00,0.0011
1782.00,0.0012
1781.00,0.0012
1780.00,0.0013
1779.00,0.0012
1778.00,0.0012
1777.00,0.0011
1776.00,0.0011
1775.00,0.0011
1774.00,0.0011
1773.00,0.0011
1772.00,0.0012
1771.00,0.0012
1770.00,0.0013
1769.00,0.0013
1768.00,0.0014
1767.00,0.0014
1766.00,0.0015
1765.00,0.0016
1764.00,0.0017
1763.00,0.0017
1762.00,0.0018
1761.00,0.0019
1760.00,0.0020
1759.00,0.0021
1758.00,0.0022
1757.00,0.0023
1756.00,0.0025
1755.00,0.0026
1754.00,0.0028
1753.00,0.0029
1752.00,0.0031
1751.00,0.0033
1750.00,0.0034
1749.00,0.0035
1748.00,0.0037
1747.00,0.0037
1746.00,0.0038
1745.00,0.0039
1744.00,0.0040
1743.00,0.0040
1742.00,0.0040
1741.00,0.0039
1740.00,0.0039
1739.00,0.0039
1738.00,0.0039
1737.00,0.0039
1736.00,0.0040
1735.00,0.0040
1734.00,0.0041
1733.00,0.0041
1732.00,0.0041
1731.00,0.0040
1730.00,0.0039
1729.00,0.0038
1728.00,0.0037
1727.00,0.0037
1726.00,0.0037
1725.00,0.0037
1724.00,0.0038
1723.00,0.0038
1722.00,0.0038
1721.00,0.0038
1720.00,0.0038
1719.00,0.0037
1718.00,0.0036
1717.00,0.0036
1716.00,0.0037
1715.00,0.0037
1714.00,0.0037
1713.00,0.0038
1712.00,0.0038
1711.00,0.0038
1710.00,0.0038
1709.00,0.0038
1708.00,0.0038
1707.00,0.0039
1706.00,0.0039
1705.00,0.0040
1704.00,0.0041
1703.00,0.0042
1702.00,0.0043
1701.00,0.0043
1700.00,0.0043
1699.00,0.0044
1698.00,0.0044
1697.00,0.0044
1696.00,0.0045
1695.00,0.0046
1694.00,0.0048
1693.00,0.0049
1692.00,0.0050
1691.00,0.0051
1690.00,0.0052
1689.00,0.0054
1688.00,0.0055
1687.00,0.0056
1686.00,0.0056
1685.00,0.0057
1684.00,0.0060
1683.00,0.0063
1682.00,0.0065
1681.00,0.0067
1680.00,0.0068
1679.00,0.0069
1678.00,0.0070
1677.00,0.0072
1676.00,0.0073
1675.00,0.0075
1674.00,0.0076
1673.00,0.0077
1672.00,0.0078
1671.00,0.0078
1670.00,0.0079
1669.00,0.0081
1668.00,0.0082
1667.00,0.0083
1666.00,0.0083
1665.00,0.0084
1664.00,0.0084
1663.00,0.0084
1662.00,0.0084
1661.00,0.0085
1660.00,0.0086
1659.00,0.0087
1658.00,0.0087
1657.00,0.0088
1656.00,0.0089
1655.00,0.0090
1654.00,0.0090
1653.00,0.0091
1652.00,0.0092
1651.00,0.0092
1650.00,0.0093
1649.00,0.0093
1648.00,0.0094
1647.00,0.0094
1646.00,0.0095
1645.00,0.0096
1644.00,0.0097
1643.00,0.0098
1642.00,0.0099
1641.00,0.0101
1640.00,0.0103
1639.00,0.0104
1638.00,0.0105
1637.00,0.0106
1636.00,0.0106
1635.00,0.0106
1634.00,0.0105
1633.00,0.0105
1632.00,0.0104
1631.00,0.0104
1630.00,0.0104
1629.00,0.0104
1628.00,0.0104
1627.00,0.0104
1626.00,0.0103
1625.00,0.0103
1624.00,0.0103
1623.00,0.0102
1622.00,0.0102
1621.00,0.0102
1620.00,0.0102
1619.00,0.0102
1618.00,0.0102
1617.00,0.0101
1616.00,0.0101
1615.00,0.0102
1614.00,0.0103
1613.00,0.0103
1612.00,0.0104
1611.00,0.0104
1610.00,0.0104
1609.00,0.0104
1608.00,0.0105
1607.00,0.0105
1606.00,0.0105
1605.00,0.0105
1604.00,0.0105
1603.00,0.0104
1602.00,0.0104
1601.00,0.0104
1600.00,0.0104
1599.00,0.0104
1598.00,0.0104
1597.00,0.0103
1596.00,0.0103
1595.00,0.0102
1594.00,0.0102
1593.00,0.0102
1592.00,0.0102
1591.00,0.0101
1590.00,0.0100
1589.00,0.0100
1588.00,0.0099
1587.00,0.0099
1586.00,0.0098
1585.00,0.0098
1584.00,0.0097
1583.00,0.0096
1582.00,0.0095
1581.00,0.0094
1580.00,0.0094
1579.00,0.0093
1578.00,0.0092
1577.00,0.0091
1576.00,0.0090
1575.00,0.0090
1574.00,0.0089
1573.00,0.0090
1572.00,0.0089
1571.00,0.0089
1570.00,0.0089
1569.00,0.0088
1568.00,0.0088
1567.00,0.0088
1566.00,0.0087
1565.00,0.0087
1564.00,0.0087
1563.00,0.0086
1562.00,0.0086
1561.00,0.0086
1560.00,0.0086
1559.00,0.0086
1558.00,0.0086
1557.00,0.0086
1556.00,0.0086
1555.00,0.0085
1554.00,0.0085
1553.00,0.0085
1552.00,0.0086
1551.00,0.0085
1550.00,0.0085
1549.00,0.0084
1548.00,0.0084
1547.00,0.0084
1546.00,0.0084
1545.00,0.0083
1544.00,0.0083
1543.00,0.0082
1542.00,0.0081
1541.00,0.0080
1540.00,0.0078
1539.00,0.0076
1538.00,0.0075
1537.00,0.0074
1536.00,0.0074
1535.00,0.0072
1534.00,0.0071
1533.00,0.0070
1532.00,0.0070
1531.00,0.0069
1530.00,0.0069
1529.00,0.0068
1528.00,0.0068
1527.00,0.0068
1526.00,0.0068
1525.00,0.0068
1524.00,0.0069
1523.00,0.0069
1522.00,0.0069
1521.00,0.0068
1520.00,0.0068
1519.00,0.0068
1518.00,0.0068
1517.00,0.0068
1516.00,0.0069
1515.00,0.0069
1514.00,0.0069
1513.00,0.0069
1512.00,0.0070
1511.00,0.0070
1510.00,0.0071
1509.00,0.0072
1508.00,0.0073
1507.00,0.0073
1506.00,0.0073
1505.00,0.0074
1504.00,0.0075
1503.00,0.0077
1502.00,0.0079
1501.00,0.0081
1500.00,0.0084
1499.00,0.0086
1498.00,0.0088
1497.00,0.0091
1496.00,0.0095
1495.00,0.0098
1494.00,0.0102
1493.00,0.0106
1492.00,0.0110
1491.00,0.0113
1490.00,0.0117
1489.00,0.0123
1488.00,0.0128
1487.00,0.0133
1486.00,0.0137
1485.00,0.0142
1484.00,0.0148
1483.00,0.0154
1482.00,0.0162
1481.00,0.0172
1480.00,0.0183
1479.00,0.0195
1478.00,0.0210
1477.00,0.0231
1476.00,0.0256
1475.00,0.0286
1474.00,0.0325
1473.00,0.0381
1472.00,0.0447
1471.00,0.0510
1470.00,0.0570
1469.00,0.0633
1468.00,0.0701
1467.00,0.0773
1466.00,0.0855
1465.00,0.0942
1464.00,0.1018
1463.00,0.1072
1462.00,0.1107
1461.00,0.1132
1460.00,0.1151
1459.00,0.1165
1458.00,0.1178
1457.00,0.1189
1456.00,0.1192
1455.00,0.1188
1454.00,0.1181
1453.00,0.1169
1452.00,0.1148
1451.00,0.1115
1450.00,0.1069
1449.00,0.1002
1448.00,0.0915
1447.00,0.0821
1446.00,0.0735
1445.00,0.0660
1444.00,0.0594
1443.00,0.0540
1442.00,0.0499
1441.00,0.0469
1440.00,0.0450
1439.00,0.0439
1438.00,0.0436
1437.00,0.0432
1436.00,0.0420
1435.00,0.0396
1434.00,0.0363
1433.00,0.0323
1432.00,0.0282
1431.00,0.0246
1430.00,0.0218
1429.00,0.0197
1428.00,0.0182
1427.00,0.0172
1426.00,0.0165
1425.00,0.0159
1424.00,0.0154
1423.00,0.0151
1422.00,0.0149
1421.00,0.0146
1420.00,0.0143
1419.00,0.0141
1418.00,0.0140
1417.00,0.0138
1416.00,0.0135
1415.00,0.0134
1414.00,0.0133
1413.00,0.0132
1412.00,0.0131
1411.00,0.0130
1410.00,0.0130
1409.00,0.0129
1408.00,0.0129
1407.00,0.0129
1406.00,0.0129
1405.00,0.0129
1404.00,0.0128
1403.00,0.0129
1402.00,0.0131
1401.00,0.0131
1400.00,0.0132
1399.00,0.0133
1398.00,0.0135
1397.00,0.0137
1396.00,0.0139
1395.00,0.0143
1394.00,0.0148
1393.00,0.0153
1392.00,0.0158
1391.00,0.0165
1390.00,0.0175
1389.00,0.0189
1388.00,0.0209
1387.00,0.0239
1386.00,0.0280
1385.00,0.0335
1384.00,0.0409
1383.00,0.0514
1382.00,0.0652
1381.00,0.0827
1380.00,0.1039
1379.00,0.1273
1378.00,0.1493
1377.00,0.1646
1376.00,0.1688
1375.00,0.1596
1374.00,0.1397
1373.00,0.1162
1372.00,0.0948
1371.00,0.0771
1370.00,0.0630
1369.00,0.0523
1368.00,0.0448
1367.00,0.0401
1366.00,0.0375
1365.00,0.0364
1364.00,0.0365
1363.00,0.0375
1362.00,0.0392
1361.00,0.0411
1360.00,0.0425
1359.00,0.0430
1358.00,0.0421
1357.00,0.0399
1356.00,0.0368
1355.00,0.0333
1354.00,0.0300
1353.00,0.0271
1352.00,0.0247
1351.00,0.0227
1350.00,0.0211
1349.00,0.0198
1348.00,0.0188
1347.00,0.0179
1346.00,0.0172
1345.00,0.0165
1344.00,0.0159
1343.00,0.0153
1342.00,0.0149
1341.00,0.0145
1340.00,0.0141
1339.00,0.0139
1338.00,0.0136
1337.00,0.0135
1336.00,0.0135
1335.00,0.0136
1334.00,0.0138
1333.00,0.0141
1332.00,0.0145
1331.00,0.0148
1330.00,0.0149
1329.00,0.0148
1328.00,0.0146
1327.00,0.0142
1326.00,0.0137
1325.00,0.0131
1324.00,0.0126
1323.00,0.0121
1322.00,0.0117
1321.00,0.0115
1320.00,0.0113
1319.00,0.0112
1318.00,0.0110
1317.00,0.0109
1316.00,0.0108
1315.00,0.0107
1314.00,0.0107
1313.00,0.0108
1312.00,0.0110
1311.00,0.0113
1310.00,0.0117
1309.00,0.0125
1308.00,0.0135
1307.00,0.0148
1306.00,0.0160
1305.00,0.0169
1304.00,0.0172
1303.00,0.0168
1302.00,0.0161
1301.00,0.0153
1300.00,0.0148
1299.00,0.0145
1298.00,0.0143
1297.00,0.0142
1296.00,0.0141
1295.00,0.0139
1294.00,0.0135
1293.00,0.0131
1292.00,0.0126
1291.00,0.0121
1290.00,0.0116
1289.00,0.0113
1288.00,0.0111
1287.00,0.0109
1286.00,0.0107
1285.00,0.0106
1284.00,0.0104
1283.00,0.0103
1282.00,0.0102
1281.00,0.0101
1280.00,0.0099
1279.00,0.0098
1278.00,0.0098
1277.00,0.0099
1276.00,0.0099
1275.00,0.0100
1274.00,0.0100
1273.00,0.0101
1272.00,0.0103
1271.00,0.0104
1270.00,0.0106
1269.00,0.0109
1268.00,0.0112
1267.00,0.0115
1266.00,0.0119
1265.00,0.0123
1264.00,0.0128
1263.00,0.0132
1262.00,0.0137
1261.00,0.0143
1260.00,0.0149
1259.00,0.0155
1258.00,0.0163
1257.00,0.0169
1256.00,0.0172
1255.00,0.0170
1254.00,0.0162
1253.00,0.0152
1252.00,0.0142
1251.00,0.0133
1250.00,0.0126
1249.00,0.0121
1248.00,0.0117
1247.00,0.0113
1246.00,0.0111
1245.00,0.0109
1244.00,0.0108
1243.00,0.0107
1242.00,0.0105
1241.00,0.0104
1240.00,0.0103
1239.00,0.0102
1238.00,0.0101
1237.00,0.0100
1236.00,0.0099
1235.00,0.0099
1234.00,0.0099
1233.00,0.0099
1232.00,0.0098
1231.00,0.0099
1230.00,0.0099
1229.00,0.0100
1228.00,0.0101
1227.00,0.0102
1226.00,0.0104
1225.00,0.0107
1224.00,0.0110
1223.00,0.0113
1222.00,0.0115
1221.00,0.0118
1220.00,0.0119
1219.00,0.0119
1218.00,0.0119
1217.00,0.0117
1216.00,0.0114
1215.00,0.0111
1214.00,0.0108
1213.00,0.0105
1212.00,0.0103
1211.00,0.0101
1210.00,0.0099
1209.00,0.0098
1208.00,0.0096
1207.00,0.0096
1206.00,0.0095
1205.00,0.0094
1204.00,0.0093
1203.00,0.0093
1202.00,0.0093
1201.00,0.0093
1200.00,0.0093
1199.00,0.0093
1198.00,0.0092
1197.00,0.0092
1196.00,0.0092
1195.00,0.0092
1194.00,0.0092
1193.00,0.0093
1192.00,0.0093
1191.00,0.0093
1190.00,0.0094
1189.00,0.0094
1188.00,0.0094
1187.00,0.0095
1186.00,0.0096
1185.00,0.0097
1184.00,0.0098
1183.00,0.0100
1182.00,0.0103
1181.00,0.0106
1180.00,0.0112
1179.00,0.0118
1178.00,0.0126
1177.00,0.0137
1176.00,0.0150
1175.00,0.0167
1174.00,0.0190
1173.00,0.0219
1172.00,0.0254
1171.00,0.0293
1170.00,0.0332
1169.00,0.0365
1168.00,0.0385
1167.00,0.0389
1166.00,0.0379
1165.00,0.0360
1164.00,0.0338
1163.00,0.0315
1162.00,0.0295
1161.00,0.0279
1160.00,0.0265
1159.00,0.0255
1158.00,0.0248
1157.00,0.0242
1156.00,0.0238
1155.00,0.0236
1154.00,0.0233
1153.00,0.0230
1152.00,0.0225
1151.00,0.0218
1150.00,0.0210
1149.00,0.0201
1148.00,0.0192
1147.00,0.0183
1146.00,0.0174
1145.00,0.0166
1144.00,0.0158
1143.00,0.0151
1142.00,0.0145
1141.00,0.0140
1140.00,0.0136
1139.00,0.0132
1138.00,0.0129
1137.00,0.0126
1136.00,0.0124
1135.00,0.0123
1134.00,0.0122
1133.00,0.0121
1132.00,0.0121
1131.00,0.0121
1130.00,0.0122
1129.00,0.0122
1128.00,0.0123
1127.00,0.0124
1126.00,0.0126
1125.00,0.0127
1124.00,0.0128
1123.00,0.0130
1122.00,0.0131
1121.00,0.0133
1120.00,0.0135
1119.00,0.0138
1118.00,0.0139
1117.00,0.0141
1116.00,0.0141
1115.00,0.0141
1114.00,0.0141
1113.00,0.0141
1112.00,0.0142
1111.00,0.0144
1110.00,0.0145
1109.00,0.0147
1108.00,0.0150
1107.00,0.0153
1106.00,0.0157
1105.00,0.0162
1104.00,0.0166
1103.00,0.0169
1102.00,0.0168
1101.00,0.0166
1100.00,0.0162
1099.00,0.0157
1098.00,0.0151
1097.00,0.0146
1096.00,0.0141
1095.00,0.0138
1094.00,0.0135
1093.00,0.0132
1092.00,0.0131
1091.00,0.0129
1090.00,0.0128
1089.00,0.0127
1088.00,0.0125
1087.00,0.0124
1086.00,0.0123
1085.00,0.0122
1084.00,0.0121
1083.00,0.0120
1082.00,0.0119
1081.00,0.0119
1080.00,0.0118
1079.00,0.0117
1078.00,0.0116
1077.00,0.0114
1076.00,0.0112
1075.00,0.0111
1074.00,0.0110
1073.00,0.0109
1072.00,0.0108
1071.00,0.0108
1070.00,0.0108
1069.00,0.0108
1068.00,0.0108
1067.00,0.0107
1066.00,0.0107
1065.00,0.0106
1064.00,0.0107
1063.00,0.0108
1062.00,0.0108
1061.00,0.0108
1060.00,0.0108
1059.00,0.0108
1058.00,0.0109
1057.00,0.0109
1056.00,0.0108
1055.00,0.0108
1054.00,0.0107
1053.00,0.0108
1052.00,0.0109
1051.00,0.0111
1050.00,0.0114
1049.00,0.0117
1048.00,0.0121
1047.00,0.0125
1046.00,0.0129
1045.00,0.0132
1044.00,0.0132
1043.00,0.0131
1042.00,0.0128
1041.00,0.0125
1040.00,0.0123
1039.00,0.0121
1038.00,0.0120
1037.00,0.0119
1036.00,0.0118
1035.00,0.0118
1034.00,0.0117
1033.00,0.0116
1032.00,0.0115
1031.00,0.0114
1030.00,0.0112
1029.00,0.0110
1028.00,0.0108
1027.00,0.0107
1026.00,0.0107
1025.00,0.0107
1024.00,0.0108
1023.00,0.0108
1022.00,0.0108
1021.00,0.0108
1020.00,0.0108
1019.00,0.0107
1018.00,0.0107
1017.00,0.0108
1016.00,0.0109
1015.00,0.0111
1014.00,0.0112
1013.00,0.0114
1012.00,0.0116
1011.00,0.0119
1010.00,0.0122
1009.00,0.0126
1008.00,0.0132
1007.00,0.0140
1006.00,0.0150
1005.00,0.0165
1004.00,0.0184
1003.00,0.0212
1002.00,0.0249
1001.00,0.0295
1000.00,0.0346
999.00,0.0390
998.00,0.0414
997.00,0.0409
996.00,0.0377
995.00,0.0328
994.00,0.0277
993.00,0.0233
992.00,0.0199
991.00,0.0175
990.00,0.0158
989.00,0.0146
988.00,0.0138
987.00,0.0133
986.00,0.0131
985.00,0.0132
984.00,0.0136
983.00,0.0144
982.00,0.0156
981.00,0.0173
980.00,0.0196
979.00,0.0227
978.00,0.0267
977.00,0.0315
976.00,0.0370
975.00,0.0423
974.00,0.0465
973.00,0.0484
972.00,0.0472
971.00,0.0430
970.00,0.0371
969.00,0.0309
968.00,0.0255
967.00,0.0213
966.00,0.0183
965.00,0.0162
964.00,0.0147
963.00,0.0136
962.00,0.0127
961.00,0.0119
960.00,0.0113
959.00,0.0109
958.00,0.0106
957.00,0.0104
956.00,0.0102
955.00,0.0100
954.00,0.0097
953.00,0.0095
952.00,0.0094
951.00,0.0093
950.00,0.0092
949.00,0.0091
948.00,0.0091
947.00,0.0091
946.00,0.0092
945.00,0.0094
944.00,0.0096
943.00,0.0100
942.00,0.0103
941.00,0.0105
940.00,0.0104
939.00,0.0102
938.00,0.0098
937.00,0.0094
936.00,0.0089
935.00,0.0084
934.00,0.0081
933.00,0.0078
932.00,0.0077
931.00,0.0076
930.00,0.0076
929.00,0.0075
928.00,0.0074
927.00,0.0073
926.00,0.0073
925.00,0.0072
924.00,0.0072
923.00,0.0071
922.00,0.0072
921.00,0.0072
920.00,0.0073
919.00,0.0075
918.00,0.0075
917.00,0.0075
916.00,0.0074
915.00,0.0074
914.00,0.0075
913.00,0.0077
912.00,0.0080
911.00,0.0082
910.00,0.0084
909.00,0.0085
908.00,0.0088
907.00,0.0091
906.00,0.0096
905.00,0.0104
904.00,0.0115
903.00,0.0131
902.00,0.0148
901.00,0.0164
900.00,0.0173
899.00,0.0175
898.00,0.0168
897.00,0.0155
896.00,0.0138
895.00,0.0123
894.00,0.0110
893.00,0.0102
892.00,0.0096
891.00,0.0092
890.00,0.0090
889.00,0.0088
888.00,0.0087
887.00,0.0085
886.00,0.0083
885.00,0.0081
884.00,0.0081
883.00,0.0080
882.00,0.0081
881.00,0.0081
880.00,0.0082
879.00,0.0082
878.00,0.0083
877.00,0.0084
876.00,0.0086
875.00,0.0087
874.00,0.0088
873.00,0.0088
872.00,0.0087
871.00,0.0087
870.00,0.0087
869.00,0.0087
868.00,0.0088
867.00,0.0089
866.00,0.0090
865.00,0.0091
864.00,0.0093
863.00,0.0094
862.00,0.0095
861.00,0.0095
860.00,0.0096
859.00,0.0097
858.00,0.0099
857.00,0.0101
856.00,0.0103
855.00,0.0105
854.00,0.0108
853.00,0.0111
852.00,0.0115
851.00,0.0119
850.00,0.0125
849.00,0.0133
848.00,0.0143
847.00,0.0159
846.00,0.0184
845.00,0.0223
844.00,0.0279
843.00,0.0346
842.00,0.0404
841.00,0.0427
840.00,0.0403
839.00,0.0345
838.00,0.0278
837.00,0.0222
836.00,0.0185
835.00,0.0162
834.00,0.0147
833.00,0.0138
832.00,0.0133
831.00,0.0130
830.00,0.0127
829.00,0.0124
828.00,0.0121
827.00,0.0119
826.00,0.0118
825.00,0.0117
824.00,0.0116
823.00,0.0115
822.00,0.0115
821.00,0.0116
820.00,0.0119
819.00,0.0121
818.00,0.0125
817.00,0.0130
816.00,0.0137
815.00,0.0147
814.00,0.0160
813.00,0.0176
812.00,0.0193
811.00,0.0209
810.00,0.0221
809.00,0.0227
808.00,0.0225
807.00,0.0216
806.00,0.0200
805.00,0.0183
804.00,0.0167
803.00,0.0155
802.00,0.0146
801.00,0.0139
800.00,0.0134
799.00,0.0129
798.00,0.0125
797.00,0.0121
796.00,0.0117
795.00,0.0114
794.00,0.0111
793.00,0.0107
792.00,0.0104
791.00,0.0101
790.00,0.0099
789.00,0.0097
788.00,0.0096
787.00,0.0094
786.00,0.0091
785.00,0.0089
784.00,0.0087
783.00,0.0086
782.00,0.0085
781.00,0.0084
780.00,0.0083
779.00,0.0083
778.00,0.0082
777.00,0.0082
776.00,0.0081
775.00,0.0080
774.00,0.0078
773.00,0.0078
772.00,0.0078
771.00,0.0079
770.00,0.0080
769.00,0.0082
768.00,0.0082
767.00,0.0082
766.00,0.0081
765.00,0.0081
764.00,0.0080
763.00,0.0080
762.00,0.0080
761.00,0.0082
760.00,0.0083
759.00,0.0084
758.00,0.0085
757.00,0.0086
756.00,0.0087
755.00,0.0088
754.00,0.0087
753.00,0.0087
752.00,0.0088
751.00,0.0090
750.00,0.0094
749.00,0.0096
748.00,0.0097
747.00,0.0098
746.00,0.0099
745.00,0.0100
744.00,0.0101
743.00,0.0103
742.00,0.0107
741.00,0.0112
740.00,0.0117
739.00,0.0122
738.00,0.0127
737.00,0.0129
736.00,0.0131
735.00,0.0134
734.00,0.0138
733.00,0.0146
732.00,0.0155
731.00,0.0163
730.00,0.0169
729.00,0.0171
728.00,0.0171
727.00,0.0171
726.00,0.0173
725.00,0.0176
724.00,0.0180
723.00,0.0187
722.00,0.0195
721.00,0.0200
720.00,0.0198
719.00,0.0189
718.00,0.0174
717.00,0.0160
716.00,0.0149
715.00,0.0141
714.00,0.0136
713.00,0.0131
712.00,0.0128
711.00,0.0126
710.00,0.0125
709.00,0.0124
708.00,0.0123
707.00,0.0123
706.00,0.0121
705.00,0.0119
704.00,0.0117
703.00,0.0114
702.00,0.0111
701.00,0.0108
700.00,0.0105
699.00,0.0103
698.00,0.0101
697.00,0.0100
696.00,0.0100
695.00,0.0100
694.00,0.0101
693.00,0.0102
692.00,0.0103
691.00,0.0104
690.00,0.0104
689.00,0.0103
688.00,0.0102
687.00,0.0102
686.00,0.0102
685.00,0.0102
684.00,0.0101
683.00,0.0101
682.00,0.0101
681.00,0.0102
680.00,0.0103
679.00,0.0104
678.00,0.0105
677.00,0.0105
676.00,0.0104
675.00,0.0102
674.00,0.0101
673.00,0.0099
672.00,0.0098
671.00,0.0097
670.00,0.0097
669.00,0.0096
668.00,0.0096
667.00,0.0097
666.00,0.0099
665.00,0.0100
664.00,0.0101
663.00,0.0101
662.00,0.0101
661.00,0.0102
660.00,0.0104
659.00,0.0104
658.00,0.0103
657.00,0.0102
656.00,0.0100
655.00,0.0098
654.00,0.0097
653.00,0.0096
652.00,0.0096
651.00,0.0096
650.00,0.0097
649.00,0.0100
648.00,0.0102
647.00,0.0104
646.00,0.0105
645.00,0.0103
644.00,0.0101
643.00,0.0099
642.00,0.0098
641.00,0.0097
640.00,0.0098
639.00,0.0099
638.00,0.0100
637.00,0.0101
636.00,0.0103
635.00,0.0105
634.00,0.0107
633.00,0.0109
632.00,0.0110
631.00,0.0110
630.00,0.0108
629.00,0.0105
628.00,0.0103
627.00,0.0102
626.00,0.0103
625.00,0.0104
624.00,0.0103
623.00,0.0102
622.00,0.0102
621.00,0.0103
620.00,0.0105
619.00,0.0106
618.00,0.0108
617.00,0.0108
616.00,0.0108
615.00,0.0106
614.00,0.0103
613.00,0.0101
612.00,0.0100
611.00,0.0101
610.00,0.0103
609.00,0.0104
608.00,0.0102
607.00,0.0100
606.00,0.0097
605.00,0.0094
604.00,0.0094
603.00,0.0095
602.00,0.0097
601.00,0.0097
600.00,0.0097
599.00,0.0099
598.00,0.0101
597.00,0.0103
596.00,0.0103
595.00,0.0102
594.00,0.0102
593.00,0.0103
592.00,0.0105
591.00,0.0106
590.00,0.0106
589.00,0.0105
588.00,0.0103
587.00,0.0100
586.00,0.0098
585.00,0.0097
584.00,0.0097
583.00,0.0100
582.00,0.0105
581.00,0.0111
580.00,0.0115
579.00,0.0115
578.00,0.0113
577.00,0.0110
576.00,0.0109
575.00,0.0109
574.00,0.0111
573.00,0.0115
572.00,0.0116
571.00,0.0113
570.00,0.0107
569.00,0.0102
568.00,0.0101
567.00,0.0104
566.00,0.0109
565.00,0.0112
564.00,0.0114
563.00,0.0114
562.00,0.0113
561.00,0.0111
560.00,0.0109
559.00,0.0108
558.00,0.0109
557.00,0.0112
556.00,0.0114
555.00,0.0116
554.00,0.0116
553.00,0.0115
552.00,0.0110
551.00,0.0105
550.00,0.0100
549.00,0.0097
548.00,0.0097
547.00,0.0099
546.00,0.0099
545.00,0.0097
544.00,0.0094
543.00,0.0094
542.00,0.0097
541.00,0.0103
540.00,0.0108
539.00,0.0111
538.00,0.0112
537.00,0.0113
536.00,0.0117
535.00,0.0121
534.00,0.0123
533.00,0.0122
532.00,0.0121
531.00,0.0120
530.00,0.0119
529.00,0.0118
528.00,0.0119
527.00,0.0121
526.00,0.0124
525.00,0.0123
524.00,0.0119
523.00,0.0116
522.00,0.0113
521.00,0.0109
520.00,0.0104
519.00,0.0100
518.00,0.0098
517.00,0.0097
516.00,0.0096
515.00,0.0095
514.00,0.0095
513.00,0.0098
512.00,0.0099
511.00,0.0096
510.00,0.0092
509.00,0.0090
508.00,0.0095
507.00,0.0102
506.00,0.0107
505.00,0.0108
504.00,0.0109
503.00,0.0111
502.00,0.0108
501.00,0.0099
500.00,0.0087
499.00,0.0081
498.00,0.0082
497.00,0.0088
496.00,0.0093
495.00,0.0097
494.00,0.0104
493.00,0.0111
492.00,0.0113
491.00,0.0110
490.00,0.0105
489.00,0.0101
488.00,0.0098
487.00,0.0096
486.00,0.0094
485.00,0.0092
484.00,0.0092
483.00,0.0094
482.00,0.0099
481.00,0.0105
480.00,0.0107
479.00,0.0107
478.00,0.0105
477.00,0.0103
476.00,0.0098
475.00,0.0093
474.00,0.0091
473.00,0.0095
472.00,0.0104
471.00,0.0114
470.00,0.0118
469.00,0.0118
468.00,0.0113
467.00,0.0110
466.00,0.0111
465.00,0.0117
464.00,0.0128
463.00,0.0143
462.00,0.0162
461.00,0.0180
460.00,0.0192
459.00,0.0192
458.00,0.0176
457.00,0.0151
456.00,0.0132
455.00,0.0124
454.00,0.0125
453.00,0.0130
452.00,0.0137
451.00,0.0142
450.00,0.0143
