Created as New Dataset,Sample 192 By Administrator Date Wednesday, September 03 2025
cm-1,A
4000.00,0.0010
3999.00,0.0010
3998.00,0.0010
3997.00,0.0010
3996.00,0.0010
3995.00,0.0010
3994.00,0.0010
3993.00,0.0010
3992.00,0.0010
3991.00,0.0010
3990.00,0.0010
3989.00,0.0010
3988.00,0.0010
3987.00,0.0010
3986.00,0.0010
3985.00,0.0010
3984.00,0.0011
3983.00,0.0010
3982.00,0.0010
3981.00,0.0009
3980.00,0.0009
3979.00,0.0009
3978.00,0.0009
3977.00,0.0009
3976.00,0.0010
3975.00,0.0010
3974.00,0.0010
3973.00,0.0010
3972.00,0.0009
3971.00,0.0009
3970.00,0.0009
3969.00,0.0008
3968.00,0.0008
3967.00,0.0008
3966.00,0.0008
3965.00,0.0008
3964.00,0.0008
3963.00,0.0008
3962.00,0.0008
3961.00,0.0008
3960.00,0.0008
3959.00,0.0008
3958.00,0.0008
3957.00,0.0008
3956.00,0.0007
3955.00,0.0007
3954.00,0.0007
3953.00,0.0007
3952.00,0.0008
3951.00,0.0008
3950.00,0.0009
3949.00,0.0009
3948.00,0.0009
3947.00,0.0009
3946.00,0.0009
3945.00,0.0008
3944.00,0.0008
3943.00,0.0008
3942.00,0.0009
3941.00,0.0009
3940.00,0.0009
3939.00,0.0009
3938.00,0.0009
3937.00,0.0009
3936.00,0.0008
3935.00,0.0008
3934.00,0.0008
3933.00,0.0009
3932.00,0.0009
3931.00,0.0009
3930.00,0.0009
3929.00,0.0009
3928.00,0.0009
3927.00,0.0009
3926.00,0.0009
3925.00,0.0008
3924.00,0.0008
3923.00,0.0008
3922.00,0.0008
3921.00,0.0008
3920.00,0.0008
3919.00,0.0008
3918.00,0.0008
3917.00,0.0008
3916.00,0.0008
3915.00,0.0008
3914.00,0.0008
3913.00,0.0008
3912.00,0.0008
3911.00,0.0008
3910.00,0.0008
3909.00,0.0008
3908.00,0.0007
3907.00,0.0007
3906.00,0.0007
3905.00,0.0007
3904.00,0.0007
3903.00,0.0007
3902.00,0.0008
3901.00,0.0008
3900.00,0.0008
3899.00,0.0008
3898.00,0.0008
3897.00,0.0008
3896.00,0.0008
3895.00,0.0008
3894.00,0.0008
3893.00,0.0008
3892.00,0.0008
3891.00,0.0008
3890.00,0.0007
3889.00,0.0007
3888.00,0.0008
3887.00,0.0008
3886.00,0.0008
3885.00,0.0008
3884.00,0.0008
3883.00,0.0008
3882.00,0.0008
3881.00,0.0008
3880.00,0.0008
3879.00,0.0008
3878.00,0.0008
3877.00,0.0008
3876.00,0.0008
3875.00,0.0008
3874.00,0.0008
3873.00,0.0008
3872.00,0.0008
3871.00,0.0008
3870.00,0.0007
3869.00,0.0007
3868.00,0.0007
3867.00,0.0007
3866.00,0.0007
3865.00,0.0006
3864.00,0.0006
3863.00,0.0006
3862.00,0.0007
3861.00,0.0007
3860.00,0.0007
3859.00,0.0007
3858.00,0.0007
3857.00,0.0006
3856.00,0.0006
3855.00,0.0005
3854.00,0.0005
3853.00,0.0005
3852.00,0.0005
3851.00,0.0006
3850.00,0.0007
3849.00,0.0007
3848.00,0.0007
3847.00,0.0007
3846.00,0.0007
3845.00,0.0007
3844.00,0.0007
3843.00,0.0007
3842.00,0.0006
3841.00,0.0006
3840.00,0.0006
3839.00,0.0006
3838.00,0.0007
3837.00,0.0006
3836.00,0.0006
3835.00,0.0006
3834.00,0.0006
3833.00,0.0006
3832.00,0.0006
3831.00,0.0006
3830.00,0.0006
3829.00,0.0006
3828.00,0.0006
3827.00,0.0006
3826.00,0.0006
3825.00,0.0006
3824.00,0.0006
3823.00,0.0007
3822.00,0.0007
3821.00,0.0007
3820.00,0.0007
3819.00,0.0007
3818.00,0.0007
3817.00,0.0007
3816.00,0.0007
3815.00,0.0007
3814.00,0.0007
3813.00,0.0008
3812.00,0.0008
3811.00,0.0008
3810.00,0.0008
3809.00,0.0008
3808.00,0.0008
3807.00,0.0007
3806.00,0.0007
3805.00,0.0006
3804.00,0.0006
3803.00,0.0006
3802.00,0.0006
3801.00,0.0006
3800.00,0.0006
3799.00,0.0006
3798.00,0.0006
3797.00,0.0007
3796.00,0.0007
3795.00,0.0007
3794.00,0.0007
3793.00,0.0007
3792.00,0.0007
3791.00,0.0007
3790.00,0.0008
3789.00,0.0008
3788.00,0.0008
3787.00,0.0008
3786.00,0.0008
3785.00,0.0007
3784.00,0.0007
3783.00,0.0007
3782.00,0.0007
3781.00,0.0007
3780.00,0.0007
3779.00,0.0008
3778.00,0.0008
3777.00,0.0008
3776.00,0.0008
3775.00,0.0008
3774.00,0.0008
3773.00,0.0008
3772.00,0.0008
3771.00,0.0008
3770.00,0.0008
3769.00,0.0008
3768.00,0.0008
3767.00,0.0008
3766.00,0.0008
3765.00,0.0008
3764.00,0.0008
3763.00,0.0008
3762.00,0.0008
3761.00,0.0008
3760.00,0.0008
3759.00,0.0008
3758.00,0.0007
3757.00,0.0007
3756.00,0.0007
3755.00,0.0006
3754.00,0.0006
3753.00,0.0005
3752.00,0.0004
3751.00,0.0004
3750.00,0.0004
3749.00,0.0004
3748.00,0.0003
3747.00,0.0003
3746.00,0.0003
3745.00,0.0004
3744.00,0.0004
3743.00,0.0004
3742.00,0.0004
3741.00,0.0004
3740.00,0.0004
3739.00,0.0004
3738.00,0.0004
3737.00,0.0005
3736.00,0.0005
3735.00,0.0006
3734.00,0.0006
3733.00,0.0006
3732.00,0.0006
3731.00,0.0005
3730.00,0.0005
3729.00,0.0004
3728.00,0.0005
3727.00,0.0005
3726.00,0.0005
3725.00,0.0006
3724.00,0.0006
3723.00,0.0006
3722.00,0.0006
3721.00,0.0006
3720.00,0.0006
3719.00,0.0006
3718.00,0.0006
3717.00,0.0006
3716.00,0.0006
3715.00,0.0005
3714.00,0.0005
3713.00,0.0005
3712.00,0.0005
3711.00,0.0005
3710.00,0.0005
3709.00,0.0005
3708.00,0.0005
3707.00,0.0005
3706.00,0.0006
3705.00,0.0006
3704.00,0.0006
3703.00,0.0006
3702.00,0.0006
3701.00,0.0006
3700.00,0.0006
3699.00,0.0006
3698.00,0.0007
3697.00,0.0007
3696.00,0.0007
3695.00,0.0006
3694.00,0.0006
3693.00,0.0005
3692.00,0.0004
3691.00,0.0004
3690.00,0.0004
3689.00,0.0005
3688.00,0.0005
3687.00,0.0005
3686.00,0.0006
3685.00,0.0006
3684.00,0.0006
3683.00,0.0006
3682.00,0.0007
3681.00,0.0006
3680.00,0.0006
3679.00,0.0006
3678.00,0.0005
3677.00,0.0005
3676.00,0.0004
3675.00,0.0003
3674.00,0.0003
3673.00,0.0003
3672.00,0.0003
3671.00,0.0004
3670.00,0.0004
3669.00,0.0004
3668.00,0.0005
3667.00,0.0005
3666.00,0.0006
3665.00,0.0006
3664.00,0.0006
3663.00,0.0006
3662.00,0.0006
3661.00,0.0006
3660.00,0.0005
3659.00,0.0005
3658.00,0.0005
3657.00,0.0005
3656.00,0.0005
3655.00,0.0005
3654.00,0.0005
3653.00,0.0004
3652.00,0.0004
3651.00,0.0004
3650.00,0.0003
3649.00,0.0003
3648.00,0.0003
3647.00,0.0004
3646.00,0.0004
3645.00,0.0005
3644.00,0.0005
3643.00,0.0005
3642.00,0.0005
3641.00,0.0006
3640.00,0.0006
3639.00,0.0006
3638.00,0.0006
3637.00,0.0006
3636.00,0.0006
3635.00,0.0006
3634.00,0.0005
3633.00,0.0005
3632.00,0.0005
3631.00,0.0005
3630.00,0.0005
3629.00,0.0005
3628.00,0.0005
3627.00,0.0005
3626.00,0.0005
3625.00,0.0006
3624.00,0.0006
3623.00,0.0007
3622.00,0.0007
3621.00,0.0007
3620.00,0.0007
3619.00,0.0007
3618.00,0.0006
3617.00,0.0006
3616.00,0.0006
3615.00,0.0006
3614.00,0.0006
3613.00,0.0007
3612.00,0.0007
3611.00,0.0008
3610.00,0.0008
3609.00,0.0008
3608.00,0.0008
3607.00,0.0008
3606.00,0.0008
3605.00,0.0007
3604.00,0.0007
3603.00,0.0007
3602.00,0.0007
3601.00,0.0007
3600.00,0.0008
3599.00,0.0008
3598.00,0.0009
3597.00,0.0009
3596.00,0.0009
3595.00,0.0009
3594.00,0.0009
3593.00,0.0009
3592.00,0.0009
3591.00,0.0009
3590.00,0.0008
3589.00,0.0008
3588.00,0.0008
3587.00,0.0008
3586.00,0.0008
3585.00,0.0008
3584.00,0.0008
3583.00,0.0009
3582.00,0.0009
3581.00,0.0009
3580.00,0.0010
3579.00,0.0010
3578.00,0.0011
3577.00,0.0011
3576.00,0.0011
3575.00,0.0011
3574.00,0.0011
3573.00,0.0011
3572.00,0.0011
3571.00,0.0012
3570.00,0.0012
3569.00,0.0012
3568.00,0.0012
3567.00,0.0012
3566.00,0.0012
3565.00,0.0012
3564.00,0.0012
3563.00,0.0012
3562.00,0.0012
3561.00,0.0012
3560.00,0.0013
3559.00,0.0013
3558.00,0.0013
3557.00,0.0014
3556.00,0.0014
3555.00,0.0014
3554.00,0.0014
3553.00,0.0014
3552.00,0.0015
3551.00,0.0015
3550.00,0.0015
3549.00,0.0015
3548.00,0.0015
3547.00,0.0015
3546.00,0.0015
3545.00,0.0015
3544.00,0.0015
3543.00,0.0015
3542.00,0.0015
3541.00,0.0015
3540.00,0.0016
3539.00,0.0016
3538.00,0.0016
3537.00,0.0016
3536.00,0.0016
3535.00,0.0016
3534.00,0.0017
3533.00,0.0017
3532.00,0.0017
3531.00,0.0017
3530.00,0.0017
3529.00,0.0017
3528.00,0.0018
3527.00,0.0018
3526.00,0.0018
3525.00,0.0019
3524.00,0.0019
3523.00,0.0019
3522.00,0.0020
3521.00,0.0020
3520.00,0.0020
3519.00,0.0020
3518.00,0.0020
3517.00,0.0020
3516.00,0.0020
3515.00,0.0020
3514.00,0.0021
3513.00,0.0021
3512.00,0.0021
3511.00,0.0021
3510.00,0.0021
3509.00,0.0021
3508.00,0.0021
3507.00,0.0021
3506.00,0.0022
3505.00,0.0022
3504.00,0.0023
3503.00,0.0023
3502.00,0.0023
3501.00,0.0023
3500.00,0.0023
3499.00,0.0023
3498.00,0.0023
3497.00,0.0023
3496.00,0.0024
3495.00,0.0024
3494.00,0.0024
3493.00,0.0023
3492.00,0.0023
3491.00,0.0023
3490.00,0.0023
3489.00,0.0024
3488.00,0.0024
3487.00,0.0024
3486.00,0.0025
3485.00,0.0025
3484.00,0.0025
3483.00,0.0026
3482.00,0.0026
3481.00,0.0026
3480.00,0.0026
3479.00,0.0026
3478.00,0.0026
3477.00,0.0026
3476.00,0.0027
3475.00,0.0027
3474.00,0.0027
3473.00,0.0027
3472.00,0.0028
3471.00,0.0028
3470.00,0.0028
3469.00,0.0028
3468.00,0.0028
3467.00,0.0028
3466.00,0.0028
3465.00,0.0028
3464.00,0.0028
3463.00,0.0028
3462.00,0.0028
3461.00,0.0029
3460.00,0.0029
3459.00,0.0030
3458.00,0.0030
3457.00,0.0031
3456.00,0.0031
3455.00,0.0031
3454.00,0.0031
3453.00,0.0031
3452.00,0.0031
3451.00,0.0031
3450.00,0.0031
3449.00,0.0031
3448.00,0.0031
3447.00,0.0031
3446.00,0.0031
3445.00,0.0031
3444.00,0.0032
3443.00,0.0032
3442.00,0.0033
3441.00,0.0033
3440.00,0.0033
3439.00,0.0033
3438.00,0.0033
3437.00,0.0033
3436.00,0.0033
3435.00,0.0033
3434.00,0.0033
3433.00,0.0033
3432.00,0.0034
3431.00,0.0034
3430.00,0.0035
3429.00,0.0035
3428.00,0.0035
3427.00,0.0035
3426.00,0.0036
3425.00,0.0036
3424.00,0.0036
3423.00,0.0036
3422.00,0.0037
3421.00,0.0037
3420.00,0.0037
3419.00,0.0037
3418.00,0.0037
3417.00,0.0037
3416.00,0.0037
3415.00,0.0037
3414.00,0.0038
3413.00,0.0038
3412.00,0.0038
3411.00,0.0038
3410.00,0.0038
3409.00,0.0039
3408.00,0.0039
3407.00,0.0039
3406.00,0.0039
3405.00,0.0039
3404.00,0.0039
3403.00,0.0039
3402.00,0.0039
3401.00,0.0039
3400.00,0.0039
3399.00,0.0040
3398.00,0.0041
3397.00,0.0041
3396.00,0.0042
3395.00,0.0042
3394.00,0.0042
3393.00,0.0042
3392.00,0.0042
3391.00,0.0042
3390.00,0.0042
3389.00,0.0042
3388.00,0.0042
3387.00,0.0042
3386.00,0.0041
3385.00,0.0041
3384.00,0.0041
3383.00,0.0040
3382.00,0.0040
3381.00,0.0040
3380.00,0.0039
3379.00,0.0039
3378.00,0.0040
3377.00,0.0040
3376.00,0.0040
3375.00,0.0040
3374.00,0.0040
3373.00,0.0040
3372.00,0.0040
3371.00,0.0040
3370.00,0.0040
3369.00,0.0040
3368.00,0.0040
3367.00,0.0040
3366.00,0.0041
3365.00,0.0041
3364.00,0.0041
3363.00,0.0041
3362.00,0.0041
3361.00,0.0041
3360.00,0.0041
3359.00,0.0041
3358.00,0.0041
3357.00,0.0041
3356.00,0.0041
3355.00,0.0041
3354.00,0.0040
3353.00,0.0041
3352.00,0.0041
3351.00,0.0041
3350.00,0.0041
3349.00,0.0041
3348.00,0.0041
3347.00,0.0041
3346.00,0.0041
3345.00,0.0041
3344.00,0.0040
3343.00,0.0040
3342.00,0.0040
3341.00,0.0040
3340.00,0.0040
3339.00,0.0040
3338.00,0.0040
3337.00,0.0040
3336.00,0.0040
3335.00,0.0040
3334.00,0.0040
3333.00,0.0040
3332.00,0.0040
3331.00,0.0040
3330.00,0.0039
3329.00,0.0039
3328.00,0.0039
3327.00,0.0039
3326.00,0.0039
3325.00,0.0040
3324.00,0.0040
3323.00,0.0040
3322.00,0.0040
3321.00,0.0040
3320.00,0.0039
3319.00,0.0039
3318.00,0.0039
3317.00,0.0039
3316.00,0.0039
3315.00,0.0039
3314.00,0.0039
3313.00,0.0039
3312.00,0.0039
3311.00,0.0038
3310.00,0.0039
3309.00,0.0039
3308.00,0.0039
3307.00,0.0039
3306.00,0.0040
3305.00,0.0040
3304.00,0.0040
3303.00,0.0040
3302.00,0.0040
3301.00,0.0040
3300.00,0.0039
3299.00,0.0039
3298.00,0.0039
3297.00,0.0039
3296.00,0.0039
3295.00,0.0039
3294.00,0.0039
3293.00,0.0038
3292.00,0.0038
3291.00,0.0038
3290.00,0.0038
3289.00,0.0038
3288.00,0.0038
3287.00,0.0038
3286.00,0.0037
3285.00,0.0037
3284.00,0.0037
3283.00,0.0037
3282.00,0.0037
3281.00,0.0037
3280.00,0.0037
3279.00,0.0036
3278.00,0.0036
3277.00,0.0036
3276.00,0.0036
3275.00,0.0036
3274.00,0.0036
3273.00,0.0036
3272.00,0.0036
3271.00,0.0035
3270.00,0.0035
3269.00,0.0035
3268.00,0.0035
3267.00,0.0035
3266.00,0.0035
3265.00,0.0035
3264.00,0.0035
3263.00,0.0035
3262.00,0.0034
3261.00,0.0034
3260.00,0.0034
3259.00,0.0034
3258.00,0.0034
3257.00,0.0034
3256.00,0.0034
3255.00,0.0033
3254.00,0.0033
3253.00,0.0033
3252.00,0.0034
3251.00,0.0034
3250.00,0.0033
3249.00,0.0033
3248.00,0.0033
3247.00,0.0032
3246.00,0.0032
3245.00,0.0032
3244.00,0.0032
3243.00,0.0032
3242.00,0.0033
3241.00,0.0033
3240.00,0.0033
3239.00,0.0033
3238.00,0.0032
3237.00,0.0032
3236.00,0.0032
3235.00,0.0032
3234.00,0.0032
3233.00,0.0032
3232.00,0.0032
3231.00,0.0032
3230.00,0.0032
3229.00,0.0033
3228.00,0.0033
3227.00,0.0034
3226.00,0.0034
3225.00,0.0035
3224.00,0.0035
3223.00,0.0035
3222.00,0.0035
3221.00,0.0035
3220.00,0.0035
3219.00,0.0035
3218.00,0.0035
3217.00,0.0036
3216.00,0.0036
3215.00,0.0036
3214.00,0.0036
3213.00,0.0036
3212.00,0.0036
3211.00,0.0037
3210.00,0.0037
3209.00,0.0038
3208.00,0.0038
3207.00,0.0038
3206.00,0.0039
3205.00,0.0039
3204.00,0.0039
3203.00,0.0039
3202.00,0.0039
3201.00,0.0039
3200.00,0.0038
3199.00,0.0038
3198.00,0.0038
3197.00,0.0038
3196.00,0.0039
3195.00,0.0039
3194.00,0.0039
3193.00,0.0039
3192.00,0.0040
3191.00,0.0040
3190.00,0.0040
3189.00,0.0040
3188.00,0.0040
3187.00,0.0039
3186.00,0.0039
3185.00,0.0039
3184.00,0.0039
3183.00,0.0039
3182.00,0.0039
3181.00,0.0038
3180.00,0.0038
3179.00,0.0038
3178.00,0.0037
3177.00,0.0037
3176.00,0.0037
3175.00,0.0037
3174.00,0.0037
3173.00,0.0037
3172.00,0.0037
3171.00,0.0037
3170.00,0.0037
3169.00,0.0037
3168.00,0.0036
3167.00,0.0036
3166.00,0.0035
3165.00,0.0035
3164.00,0.0035
3163.00,0.0035
3162.00,0.0035
3161.00,0.0035
3160.00,0.0035
3159.00,0.0035
3158.00,0.0035
3157.00,0.0034
3156.00,0.0034
3155.00,0.0034
3154.00,0.0034
3153.00,0.0034
3152.00,0.0034
3151.00,0.0035
3150.00,0.0035
3149.00,0.0035
3148.00,0.0035
3147.00,0.0035
3146.00,0.0034
3145.00,0.0034
3144.00,0.0034
3143.00,0.0034
3142.00,0.0034
3141.00,0.0034
3140.00,0.0034
3139.00,0.0034
3138.00,0.0034
3137.00,0.0034
3136.00,0.0034
3135.00,0.0033
3134.00,0.0033
3133.00,0.0032
3132.00,0.0032
3131.00,0.0031
3130.00,0.0032
3129.00,0.0032
3128.00,0.0031
3127.00,0.0031
3126.00,0.0031
3125.00,0.0031
3124.00,0.0031
3123.00,0.0031
3122.00,0.0031
3121.00,0.0031
3120.00,0.0031
3119.00,0.0030
3118.00,0.0030
3117.00,0.0030
3116.00,0.0029
3115.00,0.0029
3114.00,0.0029
3113.00,0.0029
3112.00,0.0029
3111.00,0.0029
3110.00,0.0029
3109.00,0.0029
3108.00,0.0028
3107.00,0.0028
3106.00,0.0028
3105.00,0.0028
3104.00,0.0028
3103.00,0.0027
3102.00,0.0027
3101.00,0.0027
3100.00,0.0027
3099.00,0.0027
3098.00,0.0027
3097.00,0.0027
3096.00,0.0027
3095.00,0.0027
3094.00,0.0027
3093.00,0.0027
3092.00,0.0027
3091.00,0.0027
3090.00,0.0027
3089.00,0.0027
3088.00,0.0027
3087.00,0.0027
3086.00,0.0027
3085.00,0.0027
3084.00,0.0027
3083.00,0.0027
3082.00,0.0026
3081.00,0.0026
3080.00,0.0026
3079.00,0.0026
3078.00,0.0027
3077.00,0.0027
3076.00,0.0027
3075.00,0.0027
3074.00,0.0027
3073.00,0.0027
3072.00,0.0027
3071.00,0.0028
3070.00,0.0028
3069.00,0.0028
3068.00,0.0028
3067.00,0.0028
3066.00,0.0028
3065.00,0.0028
3064.00,0.0029
3063.00,0.0029
3062.00,0.0030
3061.00,0.0030
3060.00,0.0030
3059.00,0.0030
3058.00,0.0030
3057.00,0.0031
3056.00,0.0031
3055.00,0.0030
3054.00,0.0030
3053.00,0.0030
3052.00,0.0030
3051.00,0.0030
3050.00,0.0030
3049.00,0.0031
3048.00,0.0031
3047.00,0.0031
3046.00,0.0031
3045.00,0.0032
3044.00,0.0032
3043.00,0.0033
3042.00,0.0033
3041.00,0.0033
3040.00,0.0034
3039.00,0.0034
3038.00,0.0034
3037.00,0.0034
3036.00,0.0035
3035.00,0.0035
3034.00,0.0035
3033.00,0.0035
3032.00,0.0035
3031.00,0.0035
3030.00,0.0036
3029.00,0.0036
3028.00,0.0037
3027.00,0.0038
3026.00,0.0038
3025.00,0.0039
3024.00,0.0040
3023.00,0.0041
3022.00,0.0043
3021.00,0.0043
3020.00,0.0044
3019.00,0.0044
3018.00,0.0045
3017.00,0.0046
3016.00,0.0047
3015.00,0.0049
3014.00,0.0050
3013.00,0.0051
3012.00,0.0052
3011.00,0.0053
3010.00,0.0054
3009.00,0.0055
3008.00,0.0056
3007.00,0.0057
3006.00,0.0058
3005.00,0.0060
3004.00,0.0062
3003.00,0.0064
3002.00,0.0066
3001.00,0.0069
3000.00,0.0071
2999.00,0.0074
2998.00,0.0077
2997.00,0.0081
2996.00,0.0084
2995.00,0.0088
2994.00,0.0092
2993.00,0.0097
2992.00,0.0102
2991.00,0.0108
2990.00,0.0114
2989.00,0.0121
2988.00,0.0129
2987.00,0.0138
2986.00,0.0148
2985.00,0.0159
2984.00,0.0171
2983.00,0.0185
2982.00,0.0200
2981.00,0.0218
2980.00,0.0238
2979.00,0.0261
2978.00,0.0287
2977.00,0.0317
2976.00,0.0352
2975.00,0.0391
2974.00,0.0436
2973.00,0.0488
2972.00,0.0546
2971.00,0.0612
2970.00,0.0685
2969.00,0.0767
2968.00,0.0856
2967.00,0.0952
2966.00,0.1054
2965.00,0.1161
2964.00,0.1268
2963.00,0.1370
2962.00,0.1463
2961.00,0.1542
2960.00,0.1604
2959.00,0.1651
2958.00,0.1685
2957.00,0.1713
2956.00,0.1740
2955.00,0.1772
2954.00,0.1808
2953.00,0.1846
2952.00,0.1876
2951.00,0.1890
2950.00,0.1878
2949.00,0.1835
2948.00,0.1759
2947.00,0.1657
2946.00,0.1539
2945.00,0.1418
2944.00,0.1305
2943.00,0.1209
2942.00,0.1134
2941.00,0.1084
2940.00,0.1056
2939.00,0.1050
2938.00,0.1062
2937.00,0.1092
2936.00,0.1136
2935.00,0.1195
2934.00,0.1266
2933.00,0.1349
2932.00,0.1441
2931.00,0.1541
2930.00,0.1647
2929.00,0.1754
2928.00,0.1861
2927.00,0.1964
2926.00,0.2062
2925.00,0.2156
2924.00,0.2245
2923.00,0.2331
2922.00,0.2414
2921.00,0.2490
2920.00,0.2555
2919.00,0.2601
2918.00,0.2619
2917.00,0.2607
2916.00,0.2563
2915.00,0.2495
2914.00,0.2411
2913.00,0.2322
2912.00,0.2234
2911.00,0.2155
2910.00,0.2084
2909.00,0.2021
2908.00,0.1964
2907.00,0.1908
2906.00,0.1851
2905.00,0.1791
2904.00,0.1729
2903.00,0.1664
2902.00,0.1598
2901.00,0.1533
2900.00,0.1469
2899.00,0.1408
2898.00,0.1350
2897.00,0.1296
2896.00,0.1248
2895.00,0.1205
2894.00,0.1169
2893.00,0.1138
2892.00,0.1113
2891.00,0.1093
2890.00,0.1078
2889.00,0.1068
2888.00,0.1061
2887.00,0.1058
2886.00,0.1058
2885.00,0.1062
2884.00,0.1069
2883.00,0.1081
2882.00,0.1096
2881.00,0.1113
2880.00,0.1130
2879.00,0.1143
2878.00,0.1150
2877.00,0.1151
2876.00,0.1146
2875.00,0.1139
2874.00,0.1133
2873.00,0.1133
2872.00,0.1140
2871.00,0.1152
2870.00,0.1169
2869.00,0.1184
2868.00,0.1192
2867.00,0.1185
2866.00,0.1159
2865.00,0.1113
2864.00,0.1052
2863.00,0.0984
2862.00,0.0918
2861.00,0.0861
2860.00,0.0818
2859.00,0.0789
2858.00,0.0775
2857.00,0.0774
2856.00,0.0781
2855.00,0.0796
2854.00,0.0815
2853.00,0.0836
2852.00,0.0858
2851.00,0.0877
2850.00,0.0891
2849.00,0.0902
2848.00,0.0912
2847.00,0.0925
2846.00,0.0947
2845.00,0.0980
2844.00,0.1024
2843.00,0.1076
2842.00,0.1131
2841.00,0.1182
2840.00,0.1222
2839.00,0.1242
2838.00,0.1236
2837.00,0.1200
2836.00,0.1134
2835.00,0.1044
2834.00,0.0939
2833.00,0.0831
2832.00,0.0728
2831.00,0.0636
2830.00,0.0559
2829.00,0.0495
2828.00,0.0443
2827.00,0.0401
2826.00,0.0367
2825.00,0.0339
2824.00,0.0315
2823.00,0.0294
2822.00,0.0276
2821.00,0.0261
2820.00,0.0248
2819.00,0.0236
2818.00,0.0226
2817.00,0.0217
2816.00,0.0210
2815.00,0.0203
2814.00,0.0197
2813.00,0.0191
2812.00,0.0185
2811.00,0.0180
2810.00,0.0175
2809.00,0.0169
2808.00,0.0164
2807.00,0.0158
2806.00,0.0152
2805.00,0.0146
2804.00,0.0139
2803.00,0.0133
2802.00,0.0128
2801.00,0.0123
2800.00,0.0120
2799.00,0.0116
2798.00,0.0114
2797.00,0.0112
2796.00,0.0110
2795.00,0.0107
2794.00,0.0105
2793.00,0.0102
2792.00,0.0098
2791.00,0.0095
2790.00,0.0092
2789.00,0.0088
2788.00,0.0085
2787.00,0.0082
2786.00,0.0079
2785.00,0.0077
2784.00,0.0074
2783.00,0.0072
2782.00,0.0070
2781.00,0.0068
2780.00,0.0066
2779.00,0.0064
2778.00,0.0063
2777.00,0.0062
2776.00,0.0061
2775.00,0.0059
2774.00,0.0058
2773.00,0.0058
2772.00,0.0057
2771.00,0.0057
2770.00,0.0056
2769.00,0.0056
2768.00,0.0055
2767.00,0.0055
2766.00,0.0054
2765.00,0.0054
2764.00,0.0053
2763.00,0.0053
2762.00,0.0053
2761.00,0.0053
2760.00,0.0052
2759.00,0.0052
2758.00,0.0052
2757.00,0.0052
2756.00,0.0052
2755.00,0.0052
2754.00,0.0051
2753.00,0.0051
2752.00,0.0051
2751.00,0.0050
2750.00,0.0050
2749.00,0.0050
2748.00,0.0050
2747.00,0.0050
2746.00,0.0051
2745.00,0.0051
2744.00,0.0052
2743.00,0.0053
2742.00,0.0055
2741.00,0.0056
2740.00,0.0057
2739.00,0.0058
2738.00,0.0059
2737.00,0.0060
2736.00,0.0061
2735.00,0.0063
2734.00,0.0064
2733.00,0.0066
2732.00,0.0067
2731.00,0.0069
2730.00,0.0071
2729.00,0.0074
2728.00,0.0076
2727.00,0.0078
2726.00,0.0081
2725.00,0.0083
2724.00,0.0084
2723.00,0.0084
2722.00,0.0084
2721.00,0.0082
2720.00,0.0080
2719.00,0.0077
2718.00,0.0074
2717.00,0.0070
2716.00,0.0068
2715.00,0.0065
2714.00,0.0063
2713.00,0.0061
2712.00,0.0059
2711.00,0.0057
2710.00,0.0056
2709.00,0.0055
2708.00,0.0053
2707.00,0.0052
2706.00,0.0051
2705.00,0.0050
2704.00,0.0049
2703.00,0.0048
2702.00,0.0047
2701.00,0.0046
2700.00,0.0046
2699.00,0.0045
2698.00,0.0045
2697.00,0.0045
2696.00,0.0045
2695.00,0.0045
2694.00,0.0045
2693.00,0.0045
2692.00,0.0045
2691.00,0.0045
2690.00,0.0045
2689.00,0.0045
2688.00,0.0045
2687.00,0.0045
2686.00,0.0045
2685.00,0.0045
2684.00,0.0044
2683.00,0.0044
2682.00,0.0044
2681.00,0.0044
2680.00,0.0044
2679.00,0.0045
2678.00,0.0045
2677.00,0.0045
2676.00,0.0045
2675.00,0.0045
2674.00,0.0045
2673.00,0.0044
2672.00,0.0044
2671.00,0.0043
2670.00,0.0043
2669.00,0.0043
2668.00,0.0043
2667.00,0.0043
2666.00,0.0044
2665.00,0.0045
2664.00,0.0045
2663.00,0.0046
2662.00,0.0047
2661.00,0.0047
2660.00,0.0047
2659.00,0.0047
2658.00,0.0046
2657.00,0.0046
2656.00,0.0046
2655.00,0.0045
2654.00,0.0045
2653.00,0.0045
2652.00,0.0044
2651.00,0.0044
2650.00,0.0044
2649.00,0.0043
2648.00,0.0043
2647.00,0.0043
2646.00,0.0043
2645.00,0.0042
2644.00,0.0042
2643.00,0.0042
2642.00,0.0041
2641.00,0.0040
2640.00,0.0040
2639.00,0.0039
2638.00,0.0039
2637.00,0.0039
2636.00,0.0039
2635.00,0.0039
2634.00,0.0039
2633.00,0.0039
2632.00,0.0039
2631.00,0.0039
2630.00,0.0039
2629.00,0.0039
2628.00,0.0039
2627.00,0.0039
2626.00,0.0039
2625.00,0.0039
2624.00,0.0038
2623.00,0.0039
2622.00,0.0039
2621.00,0.0039
2620.00,0.0039
2619.00,0.0040
2618.00,0.0040
2617.00,0.0039
2616.00,0.0039
2615.00,0.0039
2614.00,0.0039
2613.00,0.0039
2612.00,0.0038
2611.00,0.0037
2610.00,0.0036
2609.00,0.0035
2608.00,0.0034
2607.00,0.0034
2606.00,0.0033
2605.00,0.0032
2604.00,0.0031
2603.00,0.0031
2602.00,0.0031
2601.00,0.0031
2600.00,0.0031
2599.00,0.0031
2598.00,0.0030
2597.00,0.0030
2596.00,0.0030
2595.00,0.0030
2594.00,0.0031
2593.00,0.0031
2592.00,0.0032
2591.00,0.0032
2590.00,0.0033
2589.00,0.0033
2588.00,0.0033
2587.00,0.0034
2586.00,0.0035
2585.00,0.0036
2584.00,0.0037
2583.00,0.0037
2582.00,0.0036
2581.00,0.0036
2580.00,0.0036
2579.00,0.0036
2578.00,0.0036
2577.00,0.0035
2576.00,0.0034
2575.00,0.0033
2574.00,0.0032
2573.00,0.0030
2572.00,0.0029
2571.00,0.0029
2570.00,0.0028
2569.00,0.0027
2568.00,0.0026
2567.00,0.0025
2566.00,0.0024
2565.00,0.0024
2564.00,0.0023
2563.00,0.0023
2562.00,0.0024
2561.00,0.0024
2560.00,0.0024
2559.00,0.0024
2558.00,0.0024
2557.00,0.0023
2556.00,0.0022
2555.00,0.0021
2554.00,0.0021
2553.00,0.0020
2552.00,0.0020
2551.00,0.0020
2550.00,0.0020
2549.00,0.0020
2548.00,0.0020
2547.00,0.0019
2546.00,0.0019
2545.00,0.0019
2544.00,0.0019
2543.00,0.0019
2542.00,0.0018
2541.00,0.0018
2540.00,0.0017
2539.00,0.0017
2538.00,0.0016
2537.00,0.0016
2536.00,0.0016
2535.00,0.0016
2534.00,0.0016
2533.00,0.0015
2532.00,0.0015
2531.00,0.0015
2530.00,0.0016
2529.00,0.0015
2528.00,0.0015
2527.00,0.0014
2526.00,0.0014
2525.00,0.0014
2524.00,0.0014
2523.00,0.0014
2522.00,0.0014
2521.00,0.0013
2520.00,0.0012
2519.00,0.0012
2518.00,0.0012
2517.00,0.0012
2516.00,0.0012
2515.00,0.0011
2514.00,0.0011
2513.00,0.0011
2512.00,0.0011
2511.00,0.0011
2510.00,0.0011
2509.00,0.0011
2508.00,0.0011
2507.00,0.0011
2506.00,0.0011
2505.00,0.0011
2504.00,0.0011
2503.00,0.0011
2502.00,0.0011
2501.00,0.0011
2500.00,0.0011
2499.00,0.0010
2498.00,0.0010
2497.00,0.0010
2496.00,0.0010
2495.00,0.0009
2494.00,0.0009
2493.00,0.0010
2492.00,0.0010
2491.00,0.0011
2490.00,0.0011
2489.00,0.0010
2488.00,0.0010
2487.00,0.0009
2486.00,0.0009
2485.00,0.0009
2484.00,0.0010
2483.00,0.0010
2482.00,0.0010
2481.00,0.0010
2480.00,0.0010
2479.00,0.0010
2478.00,0.0010
2477.00,0.0010
2476.00,0.0009
2475.00,0.0009
2474.00,0.0010
2473.00,0.0010
2472.00,0.0010
2471.00,0.0010
2470.00,0.0009
2469.00,0.0009
2468.00,0.0009
2467.00,0.0009
2466.00,0.0009
2465.00,0.0009
2464.00,0.0010
2463.00,0.0010
2462.00,0.0010
2461.00,0.0011
2460.00,0.0012
2459.00,0.0012
2458.00,0.0012
2457.00,0.0012
2456.00,0.0011
2455.00,0.0011
2454.00,0.0011
2453.00,0.0011
2452.00,0.0012
2451.00,0.0012
2450.00,0.0012
2449.00,0.0011
2448.00,0.0011
2447.00,0.0011
2446.00,0.0010
2445.00,0.0010
2444.00,0.0010
2443.00,0.0010
2442.00,0.0010
2441.00,0.0010
2440.00,0.0010
2439.00,0.0010
2438.00,0.0011
2437.00,0.0011
2436.00,0.0011
2435.00,0.0011
2434.00,0.0011
2433.00,0.0012
2432.00,0.0012
2431.00,0.0012
2430.00,0.0012
2429.00,0.0012
2428.00,0.0012
2427.00,0.0012
2426.00,0.0011
2425.00,0.0010
2424.00,0.0010
2423.00,0.0010
2422.00,0.0010
2421.00,0.0010
2420.00,0.0010
2419.00,0.0009
2418.00,0.0009
2417.00,0.0009
2416.00,0.0009
2415.00,0.0009
2414.00,0.0009
2413.00,0.0009
2412.00,0.0009
2411.00,0.0010
2410.00,0.0010
2409.00,0.0010
2408.00,0.0010
2407.00,0.0009
2406.00,0.0009
2405.00,0.0009
2404.00,0.0009
2403.00,0.0009
2402.00,0.0009
2401.00,0.0009
2400.00,0.0009
2399.00,0.0009
2398.00,0.0008
2397.00,0.0008
2396.00,0.0008
2395.00,0.0008
2394.00,0.0008
2393.00,0.0008
2392.00,0.0008
2391.00,0.0007
2390.00,0.0007
2389.00,0.0007
2388.00,0.0007
2387.00,0.0007
2386.00,0.0007
2385.00,0.0007
2384.00,0.0006
2383.00,0.0005
2382.00,0.0004
2381.00,0.0003
2380.00,0.0003
2379.00,0.0003
2378.00,0.0003
2377.00,0.0003
2376.00,0.0003
2375.00,0.0003
2374.00,0.0003
2373.00,0.0002
2372.00,0.0002
2371.00,0.0001
2370.00,0.0000
2369.00,-0.0000
2368.00,-0.0001
2367.00,-0.0001
2366.00,-0.0000
2365.00,0.0000
2364.00,0.0001
2363.00,0.0001
2362.00,0.0001
2361.00,0.0002
2360.00,0.0003
2359.00,0.0003
2358.00,0.0003
2357.00,0.0003
2356.00,0.0003
2355.00,0.0003
2354.00,0.0003
2353.00,0.0003
2352.00,0.0002
2351.00,0.0002
2350.00,0.0003
2349.00,0.0003
2348.00,0.0003
2347.00,0.0003
2346.00,0.0002
2345.00,0.0003
2344.00,0.0004
2343.00,0.0005
2342.00,0.0006
2341.00,0.0007
2340.00,0.0007
2339.00,0.0007
2338.00,0.0006
2337.00,0.0006
2336.00,0.0006
2335.00,0.0006
2334.00,0.0006
2333.00,0.0006
2332.00,0.0006
2331.00,0.0006
2330.00,0.0005
2329.00,0.0005
2328.00,0.0008
2327.00,0.0012
2326.00,0.0016
2325.00,0.0020
2324.00,0.0022
2323.00,0.0022
2322.00,0.0020
2321.00,0.0018
2320.00,0.0016
2319.00,0.0015
2318.00,0.0014
2317.00,0.0013
2316.00,0.0013
2315.00,0.0013
2314.00,0.0012
2313.00,0.0012
2312.00,0.0011
2311.00,0.0011
2310.00,0.0010
2309.00,0.0010
2308.00,0.0009
2307.00,0.0009
2306.00,0.0009
2305.00,0.0009
2304.00,0.0009
2303.00,0.0010
2302.00,0.0011
2301.00,0.0011
2300.00,0.0012
2299.00,0.0012
2298.00,0.0011
2297.00,0.0011
2296.00,0.0012
2295.00,0.0012
2294.00,0.0013
2293.00,0.0014
2292.00,0.0015
2291.00,0.0016
2290.00,0.0016
2289.00,0.0017
2288.00,0.0017
2287.00,0.0018
2286.00,0.0019
2285.00,0.0018
2284.00,0.0017
2283.00,0.0016
2282.00,0.0014
2281.00,0.0014
2280.00,0.0014
2279.00,0.0014
2278.00,0.0014
2277.00,0.0013
2276.00,0.0014
2275.00,0.0014
2274.00,0.0014
2273.00,0.0014
2272.00,0.0013
2271.00,0.0013
2270.00,0.0012
2269.00,0.0011
2268.00,0.0011
2267.00,0.0011
2266.00,0.0010
2265.00,0.0011
2264.00,0.0011
2263.00,0.0012
2262.00,0.0013
2261.00,0.0015
2260.00,0.0016
2259.00,0.0016
2258.00,0.0016
2257.00,0.0015
2256.00,0.0013
2255.00,0.0012
2254.00,0.0011
2253.00,0.0010
2252.00,0.0010
2251.00,0.0009
2250.00,0.0009
2249.00,0.0009
2248.00,0.0009
2247.00,0.0009
2246.00,0.0008
2245.00,0.0008
2244.00,0.0008
2243.00,0.0009
2242.00,0.0010
2241.00,0.0010
2240.00,0.0010
2239.00,0.0010
2238.00,0.0008
2237.00,0.0007
2236.00,0.0007
2235.00,0.0006
2234.00,0.0007
2233.00,0.0008
2232.00,0.0010
2231.00,0.0011
2230.00,0.0012
2229.00,0.0011
2228.00,0.0010
2227.00,0.0008
2226.00,0.0006
2225.00,0.0006
2224.00,0.0008
2223.00,0.0009
2222.00,0.0009
2221.00,0.0009
2220.00,0.0009
2219.00,0.0008
2218.00,0.0007
2217.00,0.0005
2216.00,0.0004
2215.00,0.0003
2214.00,0.0003
2213.00,0.0004
2212.00,0.0005
2211.00,0.0005
2210.00,0.0005
2209.00,0.0005
2208.00,0.0006
2207.00,0.0007
2206.00,0.0008
2205.00,0.0009
2204.00,0.0007
2203.00,0.0005
2202.00,0.0003
2201.00,0.0003
2200.00,0.0004
2199.00,0.0007
2198.00,0.0008
2197.00,0.0009
2196.00,0.0008
2195.00,0.0007
2194.00,0.0008
2193.00,0.0009
2192.00,0.0011
2191.00,0.0012
2190.00,0.0013
2189.00,0.0014
2188.00,0.0015
2187.00,0.0017
2186.00,0.0018
2185.00,0.0018
2184.00,0.0016
2183.00,0.0011
2182.00,0.0006
2181.00,0.0002
2180.00,0.0001
2179.00,0.0002
2178.00,0.0005
2177.00,0.0007
2176.00,0.0008
2175.00,0.0007
2174.00,0.0005
2173.00,0.0004
2172.00,0.0004
2171.00,0.0006
2170.00,0.0008
2169.00,0.0012
2168.00,0.0017
2167.00,0.0020
2166.00,0.0021
2165.00,0.0021
2164.00,0.0022
2163.00,0.0024
2162.00,0.0027
2161.00,0.0024
2160.00,0.0014
2159.00,-0.0000
2158.00,-0.0013
2157.00,-0.0019
2156.00,-0.0019
2155.00,-0.0017
2154.00,-0.0014
2153.00,-0.0012
2152.00,-0.0010
2151.00,-0.0011
2150.00,-0.0012
2149.00,-0.0013
2148.00,-0.0015
2147.00,-0.0016
2146.00,-0.0017
2145.00,-0.0016
2144.00,-0.0013
2143.00,-0.0011
2142.00,-0.0009
2141.00,-0.0009
2140.00,-0.0010
2139.00,-0.0011
2138.00,-0.0012
2137.00,-0.0012
2136.00,-0.0013
2135.00,-0.0015
2134.00,-0.0017
2133.00,-0.0018
2132.00,-0.0018
2131.00,-0.0016
2130.00,-0.0013
2129.00,-0.0011
2128.00,-0.0010
2127.00,-0.0008
2126.00,-0.0007
2125.00,-0.0007
2124.00,-0.0008
2123.00,-0.0009
2122.00,-0.0009
2121.00,-0.0008
2120.00,-0.0006
2119.00,-0.0005
2118.00,-0.0004
2117.00,-0.0003
2116.00,-0.0002
2115.00,-0.0001
2114.00,-0.0001
2113.00,-0.0000
2112.00,0.0001
2111.00,0.0002
2110.00,0.0003
2109.00,0.0002
2108.00,0.0002
2107.00,0.0002
2106.00,0.0003
2105.00,0.0004
2104.00,0.0004
2103.00,0.0004
2102.00,0.0004
2101.00,0.0004
2100.00,0.0005
2099.00,0.0006
2098.00,0.0005
2097.00,0.0004
2096.00,0.0001
2095.00,-0.0001
2094.00,-0.0002
2093.00,-0.0002
2092.00,-0.0002
2091.00,-0.0001
2090.00,-0.0000
2089.00,-0.0000
2088.00,0.0000
2087.00,-0.0000
2086.00,-0.0001
2085.00,-0.0001
2084.00,-0.0001
2083.00,-0.0001
2082.00,0.0000
2081.00,0.0002
2080.00,0.0004
2079.00,0.0005
2078.00,0.0005
2077.00,0.0005
2076.00,0.0004
2075.00,0.0003
2074.00,0.0001
2073.00,-0.0000
2072.00,-0.0001
2071.00,-0.0001
2070.00,-0.0001
2069.00,-0.0001
2068.00,0.0001
2067.00,0.0001
2066.00,0.0001
2065.00,0.0001
2064.00,0.0001
2063.00,0.0001
2062.00,0.0001
2061.00,0.0002
2060.00,0.0003
2059.00,0.0004
2058.00,0.0003
2057.00,0.0003
2056.00,0.0003
2055.00,0.0004
2054.00,0.0006
2053.00,0.0010
2052.00,0.0013
2051.00,0.0015
2050.00,0.0013
2049.00,0.0011
2048.00,0.0008
2047.00,0.0005
2046.00,0.0003
2045.00,0.0001
2044.00,0.0001
2043.00,0.0001
2042.00,0.0003
2041.00,0.0002
2040.00,0.0001
2039.00,-0.0002
2038.00,-0.0004
2037.00,-0.0004
2036.00,-0.0003
2035.00,-0.0003
2034.00,-0.0004
2033.00,-0.0004
2032.00,-0.0005
2031.00,-0.0006
2030.00,-0.0008
2029.00,-0.0008
2028.00,-0.0008
2027.00,-0.0008
2026.00,-0.0008
2025.00,-0.0009
2024.00,-0.0009
2023.00,-0.0010
2022.00,-0.0010
2021.00,-0.0011
2020.00,-0.0011
2019.00,-0.0011
2018.00,-0.0010
2017.00,-0.0008
2016.00,-0.0007
2015.00,-0.0006
2014.00,-0.0007
2013.00,-0.0009
2012.00,-0.0009
2011.00,-0.0010
2010.00,-0.0011
2009.00,-0.0013
2008.00,-0.0016
2007.00,-0.0019
2006.00,-0.0022
2005.00,-0.0024
2004.00,-0.0024
2003.00,-0.0023
2002.00,-0.0020
2001.00,-0.0016
2000.00,-0.0012
1999.00,-0.0010
1998.00,-0.0010
1997.00,-0.0012
1996.00,-0.0014
1995.00,-0.0015
1994.00,-0.0015
1993.00,-0.0015
1992.00,-0.0015
1991.00,-0.0014
1990.00,-0.0013
1989.00,-0.0012
1988.00,-0.0011
1987.00,-0.0011
1986.00,-0.0010
1985.00,-0.0007
1984.00,-0.0003
1983.00,0.0002
1982.00,0.0006
1981.00,0.0007
1980.00,0.0005
1979.00,-0.0001
1978.00,-0.0007
1977.00,-0.0011
1976.00,-0.0011
1975.00,-0.0011
1974.00,-0.0011
1973.00,-0.0012
1972.00,-0.0012
1971.00,-0.0012
1970.00,-0.0014
1969.00,-0.0015
1968.00,-0.0015
1967.00,-0.0014
1966.00,-0.0014
1965.00,-0.0013
1964.00,-0.0012
1963.00,-0.0011
1962.00,-0.0011
1961.00,-0.0013
1960.00,-0.0015
1959.00,-0.0016
1958.00,-0.0017
1957.00,-0.0018
1956.00,-0.0019
1955.00,-0.0020
1954.00,-0.0020
1953.00,-0.0019
1952.00,-0.0018
1951.00,-0.0017
1950.00,-0.0018
1949.00,-0.0020
1948.00,-0.0021
1947.00,-0.0021
1946.00,-0.0019
1945.00,-0.0016
1944.00,-0.0015
1943.00,-0.0014
1942.00,-0.0013
1941.00,-0.0012
1940.00,-0.0010
1939.00,-0.0009
1938.00,-0.0008
1937.00,-0.0008
1936.00,-0.0008
1935.00,-0.0008
1934.00,-0.0008
1933.00,-0.0008
1932.00,-0.0009
1931.00,-0.0009
1930.00,-0.0010
1929.00,-0.0011
1928.00,-0.0011
1927.00,-0.0011
1926.00,-0.0010
1925.00,-0.0008
1924.00,-0.0007
1923.00,-0.0006
1922.00,-0.0005
1921.00,-0.0005
1920.00,-0.0005
1919.00,-0.0005
1918.00,-0.0005
1917.00,-0.0004
1916.00,-0.0003
1915.00,-0.0002
1914.00,-0.0002
1913.00,-0.0002
1912.00,-0.0003
1911.00,-0.0003
1910.00,-0.0003
1909.00,-0.0002
1908.00,-0.0002
1907.00,-0.0002
1906.00,-0.0003
1905.00,-0.0003
1904.00,-0.0003
1903.00,-0.0003
1902.00,-0.0002
1901.00,-0.0001
1900.00,-0.0001
1899.00,-0.0000
1898.00,-0.0000
1897.00,-0.0000
1896.00,-0.0001
1895.00,-0.0001
1894.00,-0.0001
1893.00,-0.0001
1892.00,-0.0001
1891.00,-0.0001
1890.00,-0.0000
1889.00,0.0001
1888.00,0.0001
1887.00,0.0000
1886.00,-0.0001
1885.00,-0.0002
1884.00,-0.0003
1883.00,-0.0003
1882.00,-0.0003
1881.00,-0.0003
1880.00,-0.0003
1879.00,-0.0003
1878.00,-0.0003
1877.00,-0.0002
1876.00,-0.0002
1875.00,-0.0002
1874.00,-0.0002
1873.00,-0.0001
1872.00,-0.0001
1871.00,-0.0001
1870.00,-0.0001
1869.00,0.0000
1868.00,0.0002
1867.00,0.0002
1866.00,0.0002
1865.00,0.0001
1864.00,0.0001
1863.00,0.0001
1862.00,-0.0000
1861.00,-0.0000
1860.00,-0.0000
1859.00,0.0000
1858.00,0.0000
1857.00,0.0001
1856.00,0.0001
1855.00,0.0000
1854.00,0.0000
1853.00,0.0000
1852.00,0.0001
1851.00,0.0001
1850.00,0.0001
1849.00,0.0001
1848.00,0.0001
1847.00,0.0001
1846.00,0.0002
1845.00,0.0002
1844.00,0.0002
1843.00,0.0002
1842.00,0.0001
1841.00,0.0000
1840.00,-0.0000
1839.00,-0.0000
1838.00,0.0000
1837.00,0.0001
1836.00,0.0001
1835.00,0.0001
1834.00,0.0001
1833.00,0.0002
1832.00,0.0002
1831.00,0.0003
1830.00,0.0004
1829.00,0.0005
1828.00,0.0005
1827.00,0.0005
1826.00,0.0004
1825.00,0.0004
1824.00,0.0004
1823.00,0.0003
1822.00,0.0003
1821.00,0.0003
1820.00,0.0002
1819.00,0.0001
1818.00,0.0000
1817.00,0.0000
1816.00,0.0000
1815.00,0.0001
1814.00,0.0001
1813.00,0.0002
1812.00,0.0002
1811.00,0.0003
1810.00,0.0003
1809.00,0.0004
1808.00,0.0004
1807.00,0.0004
1806.00,0.0004
1805.00,0.0004
1804.00,0.0005
1803.00,0.0004
1802.00,0.0004
1801.00,0.0004
1800.00,0.0004
1799.00,0.0005
1798.00,0.0005
1797.00,0.0006
1796.00,0.0006
1795.00,0.0006
1794.00,0.0005
1793.00,0.0005
1792.00,0.0005
1791.00,0.0005
1790.00,0.0006
1789.00,0.0006
1788.00,0.0006
1787.00,0.0006
1786.00,0.0006
1785.00,0.0006
1784.00,0.0007
1783.00,0.0007
1782.00,0.0006
1781.00,0.0006
1780.00,0.0006
1779.00,0.0006
1778.00,0.0007
1777.00,0.0007
1776.00,0.0007
1775.00,0.0007
1774.00,0.0006
1773.00,0.0006
1772.00,0.0007
1771.00,0.0007
1770.00,0.0008
1769.00,0.0008
1768.00,0.0009
1767.00,0.0009
1766.00,0.0009
1765.00,0.0009
1764.00,0.0009
1763.00,0.0009
1762.00,0.0009
1761.00,0.0010
1760.00,0.0010
1759.00,0.0010
1758.00,0.0010
1757.00,0.0010
1756.00,0.0010
1755.00,0.0010
1754.00,0.0010
1753.00,0.0011
1752.00,0.0012
1751.00,0.0013
1750.00,0.0013
1749.00,0.0012
1748.00,0.0012
1747.00,0.0012
1746.00,0.0012
1745.00,0.0013
1744.00,0.0013
1743.00,0.0014
1742.00,0.0014
1741.00,0.0015
1740.00,0.0015
1739.00,0.0015
1738.00,0.0014
1737.00,0.0014
1736.00,0.0014
1735.00,0.0014
1734.00,0.0015
1733.00,0.0015
1732.00,0.0015
1731.00,0.0016
1730.00,0.0016
1729.00,0.0017
1728.00,0.0017
1727.00,0.0018
1726.00,0.0019
1725.00,0.0019
1724.00,0.0019
1723.00,0.0020
1722.00,0.0020
1721.00,0.0020
1720.00,0.0020
1719.00,0.0020
1718.00,0.0020
1717.00,0.0019
1716.00,0.0018
1715.00,0.0018
1714.00,0.0018
1713.00,0.0019
1712.00,0.0020
1711.00,0.0020
1710.00,0.0020
1709.00,0.0020
1708.00,0.0020
1707.00,0.0021
1706.00,0.0020
1705.00,0.0020
1704.00,0.0020
1703.00,0.0020
1702.00,0.0020
1701.00,0.0021
1700.00,0.0022
1699.00,0.0022
1698.00,0.0023
1697.00,0.0023
1696.00,0.0024
1695.00,0.0024
1694.00,0.0025
1693.00,0.0025
1692.00,0.0026
1691.00,0.0026
1690.00,0.0027
1689.00,0.0028
1688.00,0.0028
1687.00,0.0029
1686.00,0.0029
1685.00,0.0029
1684.00,0.0030
1683.00,0.0030
1682.00,0.0031
1681.00,0.0031
1680.00,0.0032
1679.00,0.0032
1678.00,0.0033
1677.00,0.0034
1676.00,0.0034
1675.00,0.0035
1674.00,0.0036
1673.00,0.0037
1672.00,0.0038
1671.00,0.0039
1670.00,0.0039
1669.00,0.0039
1668.00,0.0039
1667.00,0.0039
1666.00,0.0039
1665.00,0.0040
1664.00,0.0041
1663.00,0.0041
1662.00,0.0041
1661.00,0.0041
1660.00,0.0042
1659.00,0.0043
1658.00,0.0043
1657.00,0.0044
1656.00,0.0045
1655.00,0.0046
1654.00,0.0047
1653.00,0.0049
1652.00,0.0049
1651.00,0.0050
1650.00,0.0050
1649.00,0.0052
1648.00,0.0054
1647.00,0.0056
1646.00,0.0057
1645.00,0.0057
1644.00,0.0057
1643.00,0.0056
1642.00,0.0056
1641.00,0.0056
1640.00,0.0056
1639.00,0.0056
1638.00,0.0056
1637.00,0.0057
1636.00,0.0057
1635.00,0.0057
1634.00,0.0056
1633.00,0.0056
1632.00,0.0055
1631.00,0.0055
1630.00,0.0055
1629.00,0.0055
1628.00,0.0054
1627.00,0.0053
1626.00,0.0052
1625.00,0.0052
1624.00,0.0051
1623.00,0.0051
1622.00,0.0051
1621.00,0.0051
1620.00,0.0051
1619.00,0.0051
1618.00,0.0050
1617.00,0.0050
1616.00,0.0050
1615.00,0.0050
1614.00,0.0050
1613.00,0.0050
1612.00,0.0050
1611.00,0.0050
1610.00,0.0050
1609.00,0.0050
1608.00,0.0049
1607.00,0.0049
1606.00,0.0049
1605.00,0.0049
1604.00,0.0049
1603.00,0.0050
1602.00,0.0049
1601.00,0.0049
1600.00,0.0049
1599.00,0.0048
1598.00,0.0048
1597.00,0.0048
1596.00,0.0048
1595.00,0.0048
1594.00,0.0048
1593.00,0.0048
1592.00,0.0048
1591.00,0.0048
1590.00,0.0048
1589.00,0.0048
1588.00,0.0048
1587.00,0.0049
1586.00,0.0049
1585.00,0.0049
1584.00,0.0050
1583.00,0.0051
1582.00,0.0052
1581.00,0.0052
1580.00,0.0053
1579.00,0.0054
1578.00,0.0054
1577.00,0.0055
1576.00,0.0055
1575.00,0.0054
1574.00,0.0054
1573.00,0.0054
1572.00,0.0055
1571.00,0.0055
1570.00,0.0055
1569.00,0.0055
1568.00,0.0056
1567.00,0.0056
1566.00,0.0055
1565.00,0.0056
1564.00,0.0056
1563.00,0.0056
1562.00,0.0057
1561.00,0.0057
1560.00,0.0058
1559.00,0.0059
1558.00,0.0058
1557.00,0.0059
1556.00,0.0059
1555.00,0.0060
1554.00,0.0060
1553.00,0.0061
1552.00,0.0061
1551.00,0.0062
1550.00,0.0062
1549.00,0.0063
1548.00,0.0064
1547.00,0.0065
1546.00,0.0066
1545.00,0.0068
1544.00,0.0069
1543.00,0.0069
1542.00,0.0069
1541.00,0.0069
1540.00,0.0068
1539.00,0.0066
1538.00,0.0063
1537.00,0.0062
1536.00,0.0061
1535.00,0.0059
1534.00,0.0058
1533.00,0.0056
1532.00,0.0055
1531.00,0.0054
1530.00,0.0053
1529.00,0.0053
1528.00,0.0054
1527.00,0.0054
1526.00,0.0054
1525.00,0.0054
1524.00,0.0054
1523.00,0.0054
1522.00,0.0054
1521.00,0.0055
1520.00,0.0056
1519.00,0.0056
1518.00,0.0056
1517.00,0.0056
1516.00,0.0057
1515.00,0.0057
1514.00,0.0058
1513.00,0.0059
1512.00,0.0060
1511.00,0.0060
1510.00,0.0060
1509.00,0.0062
1508.00,0.0064
1507.00,0.0065
1506.00,0.0066
1505.00,0.0068
1504.00,0.0070
1503.00,0.0071
1502.00,0.0073
1501.00,0.0075
1500.00,0.0077
1499.00,0.0079
1498.00,0.0082
1497.00,0.0086
1496.00,0.0090
1495.00,0.0092
1494.00,0.0094
1493.00,0.0097
1492.00,0.0101
1491.00,0.0104
1490.00,0.0108
1489.00,0.0114
1488.00,0.0120
1487.00,0.0125
1486.00,0.0130
1485.00,0.0136
1484.00,0.0143
1483.00,0.0150
1482.00,0.0158
1481.00,0.0169
1480.00,0.0181
1479.00,0.0193
1478.00,0.0208
1477.00,0.0229
1476.00,0.0255
1475.00,0.0286
1474.00,0.0328
1473.00,0.0385
1472.00,0.0451
1471.00,0.0515
1470.00,0.0577
1469.00,0.0642
1468.00,0.0712
1467.00,0.0788
1466.00,0.0872
1465.00,0.0963
1464.00,0.1042
1463.00,0.1097
1462.00,0.1133
1461.00,0.1158
1460.00,0.1176
1459.00,0.1189
1458.00,0.1200
1457.00,0.1210
1456.00,0.1213
1455.00,0.1207
1454.00,0.1198
1453.00,0.1182
1452.00,0.1158
1451.00,0.1122
1450.00,0.1073
1449.00,0.1005
1448.00,0.0918
1447.00,0.0825
1446.00,0.0739
1445.00,0.0665
1444.00,0.0601
1443.00,0.0548
1442.00,0.0507
1441.00,0.0478
1440.00,0.0460
1439.00,0.0451
1438.00,0.0448
1437.00,0.0446
1436.00,0.0433
1435.00,0.0408
1434.00,0.0374
1433.00,0.0334
1432.00,0.0292
1431.00,0.0254
1430.00,0.0225
1429.00,0.0203
1428.00,0.0188
1427.00,0.0178
1426.00,0.0171
1425.00,0.0165
1424.00,0.0159
1423.00,0.0154
1422.00,0.0152
1421.00,0.0149
1420.00,0.0145
1419.00,0.0142
1418.00,0.0140
1417.00,0.0137
1416.00,0.0134
1415.00,0.0132
1414.00,0.0130
1413.00,0.0128
1412.00,0.0125
1411.00,0.0123
1410.00,0.0123
1409.00,0.0121
1408.00,0.0120
1407.00,0.0119
1406.00,0.0119
1405.00,0.0119
1404.00,0.0118
1403.00,0.0118
1402.00,0.0119
1401.00,0.0120
1400.00,0.0120
1399.00,0.0121
1398.00,0.0122
1397.00,0.0124
1396.00,0.0125
1395.00,0.0128
1394.00,0.0132
1393.00,0.0136
1392.00,0.0141
1391.00,0.0148
1390.00,0.0158
1389.00,0.0172
1388.00,0.0193
1387.00,0.0225
1386.00,0.0268
1385.00,0.0325
1384.00,0.0404
1383.00,0.0514
1382.00,0.0661
1381.00,0.0847
1380.00,0.1071
1379.00,0.1318
1378.00,0.1546
1377.00,0.1703
1376.00,0.1740
1375.00,0.1638
1374.00,0.1426
1373.00,0.1179
1372.00,0.0955
1371.00,0.0771
1370.00,0.0625
1369.00,0.0514
1368.00,0.0437
1367.00,0.0389
1366.00,0.0362
1365.00,0.0351
1364.00,0.0352
1363.00,0.0362
1362.00,0.0380
1361.00,0.0399
1360.00,0.0414
1359.00,0.0418
1358.00,0.0408
1357.00,0.0385
1356.00,0.0353
1355.00,0.0318
1354.00,0.0284
1353.00,0.0254
1352.00,0.0229
1351.00,0.0209
1350.00,0.0192
1349.00,0.0179
1348.00,0.0168
1347.00,0.0159
1346.00,0.0150
1345.00,0.0143
1344.00,0.0136
1343.00,0.0131
1342.00,0.0127
1341.00,0.0123
1340.00,0.0120
1339.00,0.0118
1338.00,0.0117
1337.00,0.0116
1336.00,0.0117
1335.00,0.0119
1334.00,0.0121
1333.00,0.0125
1332.00,0.0128
1331.00,0.0131
1330.00,0.0132
1329.00,0.0131
1328.00,0.0127
1327.00,0.0123
1326.00,0.0118
1325.00,0.0113
1324.00,0.0108
1323.00,0.0103
1322.00,0.0100
1321.00,0.0097
1320.00,0.0094
1319.00,0.0092
1318.00,0.0091
1317.00,0.0090
1316.00,0.0088
1315.00,0.0088
1314.00,0.0088
1313.00,0.0088
1312.00,0.0089
1311.00,0.0091
1310.00,0.0096
1309.00,0.0103
1308.00,0.0114
1307.00,0.0127
1306.00,0.0139
1305.00,0.0148
1304.00,0.0150
1303.00,0.0147
1302.00,0.0140
1301.00,0.0133
1300.00,0.0129
1299.00,0.0127
1298.00,0.0126
1297.00,0.0126
1296.00,0.0124
1295.00,0.0121
1294.00,0.0118
1293.00,0.0113
1292.00,0.0108
1291.00,0.0103
1290.00,0.0099
1289.00,0.0096
1288.00,0.0093
1287.00,0.0090
1286.00,0.0088
1285.00,0.0086
1284.00,0.0084
1283.00,0.0083
1282.00,0.0082
1281.00,0.0081
1280.00,0.0080
1279.00,0.0079
1278.00,0.0078
1277.00,0.0078
1276.00,0.0078
1275.00,0.0078
1274.00,0.0078
1273.00,0.0077
1272.00,0.0078
1271.00,0.0079
1270.00,0.0081
1269.00,0.0083
1268.00,0.0085
1267.00,0.0088
1266.00,0.0090
1265.00,0.0093
1264.00,0.0097
1263.00,0.0101
1262.00,0.0106
1261.00,0.0111
1260.00,0.0117
1259.00,0.0124
1258.00,0.0132
1257.00,0.0138
1256.00,0.0141
1255.00,0.0138
1254.00,0.0130
1253.00,0.0120
1252.00,0.0109
1251.00,0.0100
1250.00,0.0094
1249.00,0.0089
1248.00,0.0085
1247.00,0.0083
1246.00,0.0081
1245.00,0.0080
1244.00,0.0078
1243.00,0.0076
1242.00,0.0075
1241.00,0.0074
1240.00,0.0073
1239.00,0.0072
1238.00,0.0072
1237.00,0.0072
1236.00,0.0072
1235.00,0.0072
1234.00,0.0071
1233.00,0.0071
1232.00,0.0072
1231.00,0.0073
1230.00,0.0073
1229.00,0.0074
1228.00,0.0075
1227.00,0.0077
1226.00,0.0078
1225.00,0.0081
1224.00,0.0084
1223.00,0.0087
1222.00,0.0090
1221.00,0.0092
1220.00,0.0093
1219.00,0.0094
1218.00,0.0094
1217.00,0.0092
1216.00,0.0090
1215.00,0.0088
1214.00,0.0085
1213.00,0.0083
1212.00,0.0080
1211.00,0.0079
1210.00,0.0077
1209.00,0.0076
1208.00,0.0075
1207.00,0.0074
1206.00,0.0074
1205.00,0.0073
1204.00,0.0072
1203.00,0.0072
1202.00,0.0071
1201.00,0.0071
1200.00,0.0070
1199.00,0.0071
1198.00,0.0071
1197.00,0.0072
1196.00,0.0072
1195.00,0.0072
1194.00,0.0072
1193.00,0.0072
1192.00,0.0073
1191.00,0.0073
1190.00,0.0072
1189.00,0.0072
1188.00,0.0071
1187.00,0.0071
1186.00,0.0072
1185.00,0.0073
1184.00,0.0075
1183.00,0.0077
1182.00,0.0080
1181.00,0.0083
1180.00,0.0087
1179.00,0.0092
1178.00,0.0100
1177.00,0.0109
1176.00,0.0123
1175.00,0.0140
1174.00,0.0163
1173.00,0.0192
1172.00,0.0225
1171.00,0.0263
1170.00,0.0298
1169.00,0.0327
1168.00,0.0344
1167.00,0.0348
1166.00,0.0338
1165.00,0.0320
1164.00,0.0299
1163.00,0.0279
1162.00,0.0260
1161.00,0.0245
1160.00,0.0233
1159.00,0.0225
1158.00,0.0218
1157.00,0.0213
1156.00,0.0208
1155.00,0.0205
1154.00,0.0202
1153.00,0.0198
1152.00,0.0194
1151.00,0.0187
1150.00,0.0179
1149.00,0.0170
1148.00,0.0160
1147.00,0.0152
1146.00,0.0144
1145.00,0.0136
1144.00,0.0128
1143.00,0.0121
1142.00,0.0115
1141.00,0.0110
1140.00,0.0106
1139.00,0.0101
1138.00,0.0097
1137.00,0.0093
1136.00,0.0089
1135.00,0.0087
1134.00,0.0086
1133.00,0.0084
1132.00,0.0083
1131.00,0.0083
1130.00,0.0083
1129.00,0.0083
1128.00,0.0083
1127.00,0.0084
1126.00,0.0084
1125.00,0.0085
1124.00,0.0086
1123.00,0.0087
1122.00,0.0087
1121.00,0.0087
1120.00,0.0087
1119.00,0.0088
1118.00,0.0089
1117.00,0.0091
1116.00,0.0092
1115.00,0.0093
1114.00,0.0095
1113.00,0.0097
1112.00,0.0099
1111.00,0.0101
1110.00,0.0104
1109.00,0.0107
1108.00,0.0112
1107.00,0.0118
1106.00,0.0124
1105.00,0.0131
1104.00,0.0135
1103.00,0.0137
1102.00,0.0136
1101.00,0.0133
1100.00,0.0128
1099.00,0.0122
1098.00,0.0116
1097.00,0.0111
1096.00,0.0108
1095.00,0.0105
1094.00,0.0103
1093.00,0.0100
1092.00,0.0097
1091.00,0.0095
1090.00,0.0093
1089.00,0.0091
1088.00,0.0090
1087.00,0.0089
1086.00,0.0088
1085.00,0.0087
1084.00,0.0087
1083.00,0.0087
1082.00,0.0086
1081.00,0.0085
1080.00,0.0084
1079.00,0.0083
1078.00,0.0082
1077.00,0.0082
1076.00,0.0081
1075.00,0.0081
1074.00,0.0080
1073.00,0.0079
1072.00,0.0079
1071.00,0.0079
1070.00,0.0078
1069.00,0.0077
1068.00,0.0076
1067.00,0.0076
1066.00,0.0076
1065.00,0.0076
1064.00,0.0076
1063.00,0.0077
1062.00,0.0077
1061.00,0.0078
1060.00,0.0079
1059.00,0.0079
1058.00,0.0080
1057.00,0.0081
1056.00,0.0082
1055.00,0.0083
1054.00,0.0085
1053.00,0.0086
1052.00,0.0088
1051.00,0.0089
1050.00,0.0091
1049.00,0.0093
1048.00,0.0096
1047.00,0.0099
1046.00,0.0102
1045.00,0.0104
1044.00,0.0104
1043.00,0.0103
1042.00,0.0101
1041.00,0.0098
1040.00,0.0095
1039.00,0.0094
1038.00,0.0093
1037.00,0.0092
1036.00,0.0091
1035.00,0.0090
1034.00,0.0089
1033.00,0.0088
1032.00,0.0087
1031.00,0.0087
1030.00,0.0086
1029.00,0.0086
1028.00,0.0085
1027.00,0.0086
1026.00,0.0086
1025.00,0.0086
1024.00,0.0086
1023.00,0.0086
1022.00,0.0086
1021.00,0.0086
1020.00,0.0087
1019.00,0.0087
1018.00,0.0088
1017.00,0.0089
1016.00,0.0089
1015.00,0.0091
1014.00,0.0093
1013.00,0.0096
1012.00,0.0099
1011.00,0.0103
1010.00,0.0106
1009.00,0.0111
1008.00,0.0116
1007.00,0.0123
1006.00,0.0133
1005.00,0.0147
1004.00,0.0167
1003.00,0.0194
1002.00,0.0230
1001.00,0.0274
1000.00,0.0322
999.00,0.0363
998.00,0.0384
997.00,0.0378
996.00,0.0347
995.00,0.0302
994.00,0.0254
993.00,0.0213
992.00,0.0180
991.00,0.0155
990.00,0.0138
989.00,0.0128
988.00,0.0121
987.00,0.0118
986.00,0.0117
985.00,0.0118
984.00,0.0122
983.00,0.0130
982.00,0.0142
981.00,0.0158
980.00,0.0181
979.00,0.0212
978.00,0.0252
977.00,0.0300
976.00,0.0352
975.00,0.0402
974.00,0.0440
973.00,0.0456
972.00,0.0441
971.00,0.0399
970.00,0.0341
969.00,0.0281
968.00,0.0230
967.00,0.0191
966.00,0.0163
965.00,0.0143
964.00,0.0129
963.00,0.0118
962.00,0.0110
961.00,0.0104
960.00,0.0099
959.00,0.0094
958.00,0.0090
957.00,0.0086
956.00,0.0084
955.00,0.0081
954.00,0.0079
953.00,0.0078
952.00,0.0077
951.00,0.0076
950.00,0.0076
949.00,0.0075
948.00,0.0074
947.00,0.0074
946.00,0.0075
945.00,0.0077
944.00,0.0080
943.00,0.0083
942.00,0.0086
941.00,0.0087
940.00,0.0087
939.00,0.0084
938.00,0.0081
937.00,0.0078
936.00,0.0074
935.00,0.0071
934.00,0.0069
933.00,0.0067
932.00,0.0065
931.00,0.0064
930.00,0.0062
929.00,0.0061
928.00,0.0060
927.00,0.0060
926.00,0.0061
925.00,0.0060
924.00,0.0060
923.00,0.0059
922.00,0.0059
921.00,0.0059
920.00,0.0059
919.00,0.0059
918.00,0.0059
917.00,0.0059
916.00,0.0060
915.00,0.0061
914.00,0.0063
913.00,0.0064
912.00,0.0066
911.00,0.0067
910.00,0.0068
909.00,0.0070
908.00,0.0073
907.00,0.0079
906.00,0.0086
905.00,0.0096
904.00,0.0109
903.00,0.0125
902.00,0.0142
901.00,0.0158
900.00,0.0167
899.00,0.0169
898.00,0.0162
897.00,0.0148
896.00,0.0132
895.00,0.0116
894.00,0.0103
893.00,0.0093
892.00,0.0087
891.00,0.0082
890.00,0.0078
889.00,0.0075
888.00,0.0073
887.00,0.0072
886.00,0.0073
885.00,0.0074
884.00,0.0075
883.00,0.0075
882.00,0.0075
881.00,0.0075
880.00,0.0077
879.00,0.0080
878.00,0.0082
877.00,0.0085
876.00,0.0086
875.00,0.0088
874.00,0.0088
873.00,0.0087
872.00,0.0085
871.00,0.0083
870.00,0.0081
869.00,0.0081
868.00,0.0081
867.00,0.0082
866.00,0.0083
865.00,0.0083
864.00,0.0084
863.00,0.0084
862.00,0.0085
861.00,0.0085
860.00,0.0087
859.00,0.0089
858.00,0.0091
857.00,0.0092
856.00,0.0093
855.00,0.0094
854.00,0.0096
853.00,0.0100
852.00,0.0104
851.00,0.0108
850.00,0.0114
849.00,0.0122
848.00,0.0132
847.00,0.0147
846.00,0.0171
845.00,0.0209
844.00,0.0262
843.00,0.0325
842.00,0.0376
841.00,0.0394
840.00,0.0369
839.00,0.0313
838.00,0.0252
837.00,0.0203
836.00,0.0169
835.00,0.0147
834.00,0.0133
833.00,0.0124
832.00,0.0117
831.00,0.0112
830.00,0.0107
829.00,0.0104
828.00,0.0102
827.00,0.0100
826.00,0.0099
825.00,0.0099
824.00,0.0099
823.00,0.0100
822.00,0.0102
821.00,0.0104
820.00,0.0106
819.00,0.0109
818.00,0.0113
817.00,0.0119
816.00,0.0126
815.00,0.0137
814.00,0.0150
813.00,0.0166
812.00,0.0184
811.00,0.0200
810.00,0.0213
809.00,0.0219
808.00,0.0216
807.00,0.0206
806.00,0.0189
805.00,0.0172
804.00,0.0157
803.00,0.0147
802.00,0.0139
801.00,0.0132
800.00,0.0126
799.00,0.0120
798.00,0.0115
797.00,0.0111
796.00,0.0108
795.00,0.0106
794.00,0.0104
793.00,0.0100
792.00,0.0096
791.00,0.0090
790.00,0.0085
789.00,0.0082
788.00,0.0080
787.00,0.0079
786.00,0.0077
785.00,0.0074
784.00,0.0071
783.00,0.0069
782.00,0.0067
781.00,0.0066
780.00,0.0065
779.00,0.0065
778.00,0.0065
777.00,0.0065
776.00,0.0064
775.00,0.0064
774.00,0.0064
773.00,0.0063
772.00,0.0063
771.00,0.0063
770.00,0.0063
769.00,0.0064
768.00,0.0065
767.00,0.0066
766.00,0.0066
765.00,0.0066
764.00,0.0066
763.00,0.0065
762.00,0.0065
761.00,0.0064
760.00,0.0064
759.00,0.0065
758.00,0.0065
757.00,0.0066
756.00,0.0068
755.00,0.0070
754.00,0.0072
753.00,0.0073
752.00,0.0073
751.00,0.0074
750.00,0.0076
749.00,0.0078
748.00,0.0080
747.00,0.0082
746.00,0.0083
745.00,0.0084
744.00,0.0086
743.00,0.0088
742.00,0.0090
741.00,0.0093
740.00,0.0096
739.00,0.0099
738.00,0.0103
737.00,0.0106
736.00,0.0111
735.00,0.0116
734.00,0.0121
733.00,0.0127
732.00,0.0133
731.00,0.0140
730.00,0.0146
729.00,0.0150
728.00,0.0150
727.00,0.0150
726.00,0.0151
725.00,0.0155
724.00,0.0161
723.00,0.0170
722.00,0.0179
721.00,0.0184
720.00,0.0183
719.00,0.0175
718.00,0.0162
717.00,0.0149
716.00,0.0137
715.00,0.0128
714.00,0.0121
713.00,0.0116
712.00,0.0112
711.00,0.0109
710.00,0.0106
709.00,0.0103
708.00,0.0100
707.00,0.0099
706.00,0.0097
705.00,0.0096
704.00,0.0095
703.00,0.0095
702.00,0.0095
701.00,0.0095
700.00,0.0093
699.00,0.0092
698.00,0.0090
697.00,0.0089
696.00,0.0088
695.00,0.0087
694.00,0.0087
693.00,0.0087
692.00,0.0086
691.00,0.0086
690.00,0.0085
689.00,0.0084
688.00,0.0082
687.00,0.0081
686.00,0.0083
685.00,0.0084
684.00,0.0085
683.00,0.0084
682.00,0.0083
681.00,0.0083
680.00,0.0083
679.00,0.0085
678.00,0.0085
677.00,0.0086
676.00,0.0086
675.00,0.0086
674.00,0.0085
673.00,0.0085
672.00,0.0084
671.00,0.0084
670.00,0.0087
669.00,0.0091
668.00,0.0096
667.00,0.0097
666.00,0.0094
665.00,0.0089
664.00,0.0086
663.00,0.0085
662.00,0.0085
661.00,0.0085
660.00,0.0085
659.00,0.0084
658.00,0.0083
657.00,0.0083
656.00,0.0083
655.00,0.0084
654.00,0.0085
653.00,0.0083
652.00,0.0079
651.00,0.0077
650.00,0.0076
649.00,0.0078
648.00,0.0081
647.00,0.0083
646.00,0.0084
645.00,0.0085
644.00,0.0084
643.00,0.0083
642.00,0.0083
641.00,0.0083
640.00,0.0083
639.00,0.0083
638.00,0.0083
637.00,0.0083
636.00,0.0083
635.00,0.0083
634.00,0.0082
633.00,0.0083
632.00,0.0084
631.00,0.0085
630.00,0.0085
629.00,0.0083
628.00,0.0081
627.00,0.0081
626.00,0.0082
625.00,0.0084
624.00,0.0086
623.00,0.0087
622.00,0.0088
621.00,0.0087
620.00,0.0084
619.00,0.0082
618.00,0.0079
617.00,0.0077
616.00,0.0077
615.00,0.0079
614.00,0.0080
613.00,0.0081
612.00,0.0081
611.00,0.0079
610.00,0.0078
609.00,0.0077
608.00,0.0077
607.00,0.0078
606.00,0.0079
605.00,0.0080
604.00,0.0080
603.00,0.0081
602.00,0.0082
601.00,0.0083
600.00,0.0084
599.00,0.0085
598.00,0.0086
597.00,0.0086
596.00,0.0085
595.00,0.0084
594.00,0.0082
593.00,0.0078
592.00,0.0075
591.00,0.0074
590.00,0.0077
589.00,0.0081
588.00,0.0085
587.00,0.0088
586.00,0.0090
585.00,0.0091
584.00,0.0089
583.00,0.0084
582.00,0.0078
581.00,0.0072
580.00,0.0069
579.00,0.0069
578.00,0.0072
577.00,0.0075
576.00,0.0078
575.00,0.0080
574.00,0.0082
573.00,0.0083
572.00,0.0082
571.00,0.0081
570.00,0.0081
569.00,0.0083
568.00,0.0087
567.00,0.0090
566.00,0.0093
565.00,0.0093
564.00,0.0090
563.00,0.0087
562.00,0.0084
561.00,0.0084
560.00,0.0085
559.00,0.0085
558.00,0.0084
557.00,0.0082
556.00,0.0081
555.00,0.0082
554.00,0.0084
553.00,0.0085
552.00,0.0085
551.00,0.0085
550.00,0.0084
549.00,0.0082
548.00,0.0080
547.00,0.0079
546.00,0.0077
545.00,0.0076
544.00,0.0076
543.00,0.0077
542.00,0.0080
541.00,0.0084
540.00,0.0086
539.00,0.0086
538.00,0.0085
537.00,0.0083
536.00,0.0083
535.00,0.0087
534.00,0.0094
533.00,0.0099
532.00,0.0101
531.00,0.0098
530.00,0.0092
529.00,0.0087
528.00,0.0086
527.00,0.0090
526.00,0.0097
525.00,0.0102
524.00,0.0100
523.00,0.0094
522.00,0.0088
521.00,0.0082
520.00,0.0079
519.00,0.0079
518.00,0.0081
517.00,0.0085
516.00,0.0090
515.00,0.0092
514.00,0.0091
513.00,0.0089
512.00,0.0088
511.00,0.0086
510.00,0.0085
509.00,0.0084
508.00,0.0083
507.00,0.0082
506.00,0.0081
505.00,0.0081
504.00,0.0079
503.00,0.0075
502.00,0.0067
501.00,0.0058
500.00,0.0053
499.00,0.0055
498.00,0.0062
497.00,0.0069
496.00,0.0073
495.00,0.0074
494.00,0.0071
493.00,0.0068
492.00,0.0067
491.00,0.0066
490.00,0.0067
489.00,0.0068
488.00,0.0068
487.00,0.0068
486.00,0.0068
485.00,0.0071
484.00,0.0076
483.00,0.0083
482.00,0.0087
481.00,0.0090
480.00,0.0091
479.00,0.0091
478.00,0.0085
477.00,0.0072
476.00,0.0058
475.00,0.0051
474.00,0.0050
473.00,0.0053
472.00,0.0060
471.00,0.0072
470.00,0.0085
469.00,0.0096
468.00,0.0103
467.00,0.0109
466.00,0.0117
465.00,0.0125
464.00,0.0129
463.00,0.0130
462.00,0.0133
461.00,0.0140
460.00,0.0150
459.00,0.0158
458.00,0.0160
457.00,0.0155
456.00,0.0147
455.00,0.0145
454.00,0.0146
453.00,0.0145
452.00,0.0136
451.00,0.0122
450.00,0.0109
