Created as New Dataset,Sample 053 By Administrator Date Thursday, September 04 2025
cm-1,A
4000.00,0.0013
3999.00,0.0013
3998.00,0.0013
3997.00,0.0013
3996.00,0.0013
3995.00,0.0013
3994.00,0.0013
3993.00,0.0013
3992.00,0.0013
3991.00,0.0012
3990.00,0.0012
3989.00,0.0012
3988.00,0.0012
3987.00,0.0012
3986.00,0.0012
3985.00,0.0012
3984.00,0.0011
3983.00,0.0011
3982.00,0.0011
3981.00,0.0012
3980.00,0.0012
3979.00,0.0012
3978.00,0.0012
3977.00,0.0012
3976.00,0.0012
3975.00,0.0011
3974.00,0.0011
3973.00,0.0011
3972.00,0.0011
3971.00,0.0011
3970.00,0.0011
3969.00,0.0011
3968.00,0.0011
3967.00,0.0011
3966.00,0.0011
3965.00,0.0011
3964.00,0.0011
3963.00,0.0011
3962.00,0.0011
3961.00,0.0011
3960.00,0.0011
3959.00,0.0010
3958.00,0.0010
3957.00,0.0010
3956.00,0.0011
3955.00,0.0011
3954.00,0.0011
3953.00,0.0011
3952.00,0.0011
3951.00,0.0011
3950.00,0.0011
3949.00,0.0011
3948.00,0.0011
3947.00,0.0011
3946.00,0.0011
3945.00,0.0011
3944.00,0.0010
3943.00,0.0010
3942.00,0.0010
3941.00,0.0010
3940.00,0.0011
3939.00,0.0011
3938.00,0.0011
3937.00,0.0011
3936.00,0.0011
3935.00,0.0011
3934.00,0.0010
3933.00,0.0010
3932.00,0.0011
3931.00,0.0011
3930.00,0.0010
3929.00,0.0010
3928.00,0.0010
3927.00,0.0010
3926.00,0.0010
3925.00,0.0011
3924.00,0.0011
3923.00,0.0011
3922.00,0.0011
3921.00,0.0011
3920.00,0.0010
3919.00,0.0010
3918.00,0.0010
3917.00,0.0010
3916.00,0.0010
3915.00,0.0010
3914.00,0.0010
3913.00,0.0010
3912.00,0.0011
3911.00,0.0011
3910.00,0.0011
3909.00,0.0011
3908.00,0.0011
3907.00,0.0011
3906.00,0.0010
3905.00,0.0010
3904.00,0.0009
3903.00,0.0009
3902.00,0.0010
3901.00,0.0010
3900.00,0.0010
3899.00,0.0010
3898.00,0.0010
3897.00,0.0010
3896.00,0.0010
3895.00,0.0010
3894.00,0.0010
3893.00,0.0010
3892.00,0.0011
3891.00,0.0011
3890.00,0.0011
3889.00,0.0010
3888.00,0.0010
3887.00,0.0010
3886.00,0.0010
3885.00,0.0010
3884.00,0.0010
3883.00,0.0010
3882.00,0.0010
3881.00,0.0010
3880.00,0.0010
3879.00,0.0010
3878.00,0.0010
3877.00,0.0010
3876.00,0.0010
3875.00,0.0010
3874.00,0.0010
3873.00,0.0010
3872.00,0.0010
3871.00,0.0010
3870.00,0.0010
3869.00,0.0011
3868.00,0.0011
3867.00,0.0011
3866.00,0.0011
3865.00,0.0011
3864.00,0.0011
3863.00,0.0011
3862.00,0.0010
3861.00,0.0010
3860.00,0.0010
3859.00,0.0010
3858.00,0.0010
3857.00,0.0010
3856.00,0.0010
3855.00,0.0010
3854.00,0.0009
3853.00,0.0009
3852.00,0.0009
3851.00,0.0009
3850.00,0.0009
3849.00,0.0009
3848.00,0.0009
3847.00,0.0009
3846.00,0.0009
3845.00,0.0009
3844.00,0.0009
3843.00,0.0009
3842.00,0.0009
3841.00,0.0009
3840.00,0.0009
3839.00,0.0009
3838.00,0.0009
3837.00,0.0010
3836.00,0.0010
3835.00,0.0010
3834.00,0.0010
3833.00,0.0010
3832.00,0.0010
3831.00,0.0010
3830.00,0.0009
3829.00,0.0009
3828.00,0.0008
3827.00,0.0008
3826.00,0.0009
3825.00,0.0010
3824.00,0.0010
3823.00,0.0010
3822.00,0.0009
3821.00,0.0009
3820.00,0.0009
3819.00,0.0010
3818.00,0.0010
3817.00,0.0010
3816.00,0.0011
3815.00,0.0011
3814.00,0.0010
3813.00,0.0010
3812.00,0.0010
3811.00,0.0010
3810.00,0.0010
3809.00,0.0011
3808.00,0.0011
3807.00,0.0012
3806.00,0.0011
3805.00,0.0011
3804.00,0.0010
3803.00,0.0010
3802.00,0.0010
3801.00,0.0010
3800.00,0.0010
3799.00,0.0010
3798.00,0.0010
3797.00,0.0011
3796.00,0.0011
3795.00,0.0011
3794.00,0.0011
3793.00,0.0010
3792.00,0.0010
3791.00,0.0010
3790.00,0.0010
3789.00,0.0010
3788.00,0.0010
3787.00,0.0010
3786.00,0.0010
3785.00,0.0010
3784.00,0.0010
3783.00,0.0010
3782.00,0.0009
3781.00,0.0009
3780.00,0.0009
3779.00,0.0010
3778.00,0.0010
3777.00,0.0010
3776.00,0.0010
3775.00,0.0010
3774.00,0.0010
3773.00,0.0009
3772.00,0.0010
3771.00,0.0010
3770.00,0.0010
3769.00,0.0010
3768.00,0.0010
3767.00,0.0010
3766.00,0.0010
3765.00,0.0010
3764.00,0.0010
3763.00,0.0009
3762.00,0.0009
3761.00,0.0009
3760.00,0.0009
3759.00,0.0010
3758.00,0.0010
3757.00,0.0010
3756.00,0.0010
3755.00,0.0010
3754.00,0.0010
3753.00,0.0010
3752.00,0.0010
3751.00,0.0010
3750.00,0.0009
3749.00,0.0008
3748.00,0.0007
3747.00,0.0007
3746.00,0.0007
3745.00,0.0007
3744.00,0.0008
3743.00,0.0008
3742.00,0.0008
3741.00,0.0008
3740.00,0.0008
3739.00,0.0008
3738.00,0.0008
3737.00,0.0008
3736.00,0.0008
3735.00,0.0008
3734.00,0.0009
3733.00,0.0009
3732.00,0.0009
3731.00,0.0009
3730.00,0.0009
3729.00,0.0008
3728.00,0.0008
3727.00,0.0008
3726.00,0.0008
3725.00,0.0008
3724.00,0.0008
3723.00,0.0008
3722.00,0.0008
3721.00,0.0008
3720.00,0.0007
3719.00,0.0007
3718.00,0.0007
3717.00,0.0008
3716.00,0.0008
3715.00,0.0008
3714.00,0.0009
3713.00,0.0009
3712.00,0.0009
3711.00,0.0010
3710.00,0.0009
3709.00,0.0009
3708.00,0.0009
3707.00,0.0009
3706.00,0.0008
3705.00,0.0009
3704.00,0.0008
3703.00,0.0008
3702.00,0.0008
3701.00,0.0008
3700.00,0.0008
3699.00,0.0008
3698.00,0.0008
3697.00,0.0008
3696.00,0.0009
3695.00,0.0008
3694.00,0.0008
3693.00,0.0008
3692.00,0.0007
3691.00,0.0007
3690.00,0.0007
3689.00,0.0008
3688.00,0.0008
3687.00,0.0008
3686.00,0.0008
3685.00,0.0008
3684.00,0.0008
3683.00,0.0009
3682.00,0.0009
3681.00,0.0008
3680.00,0.0008
3679.00,0.0008
3678.00,0.0009
3677.00,0.0009
3676.00,0.0009
3675.00,0.0009
3674.00,0.0008
3673.00,0.0006
3672.00,0.0006
3671.00,0.0005
3670.00,0.0006
3669.00,0.0006
3668.00,0.0006
3667.00,0.0006
3666.00,0.0006
3665.00,0.0007
3664.00,0.0007
3663.00,0.0008
3662.00,0.0008
3661.00,0.0007
3660.00,0.0007
3659.00,0.0007
3658.00,0.0008
3657.00,0.0008
3656.00,0.0009
3655.00,0.0009
3654.00,0.0009
3653.00,0.0008
3652.00,0.0007
3651.00,0.0006
3650.00,0.0006
3649.00,0.0006
3648.00,0.0007
3647.00,0.0007
3646.00,0.0007
3645.00,0.0008
3644.00,0.0008
3643.00,0.0008
3642.00,0.0008
3641.00,0.0009
3640.00,0.0009
3639.00,0.0009
3638.00,0.0009
3637.00,0.0009
3636.00,0.0009
3635.00,0.0009
3634.00,0.0009
3633.00,0.0009
3632.00,0.0009
3631.00,0.0009
3630.00,0.0008
3629.00,0.0007
3628.00,0.0007
3627.00,0.0007
3626.00,0.0008
3625.00,0.0009
3624.00,0.0009
3623.00,0.0010
3622.00,0.0010
3621.00,0.0009
3620.00,0.0009
3619.00,0.0010
3618.00,0.0010
3617.00,0.0010
3616.00,0.0010
3615.00,0.0010
3614.00,0.0011
3613.00,0.0011
3612.00,0.0011
3611.00,0.0011
3610.00,0.0011
3609.00,0.0011
3608.00,0.0011
3607.00,0.0011
3606.00,0.0011
3605.00,0.0011
3604.00,0.0011
3603.00,0.0012
3602.00,0.0012
3601.00,0.0013
3600.00,0.0013
3599.00,0.0013
3598.00,0.0012
3597.00,0.0012
3596.00,0.0011
3595.00,0.0011
3594.00,0.0012
3593.00,0.0012
3592.00,0.0012
3591.00,0.0012
3590.00,0.0012
3589.00,0.0012
3588.00,0.0012
3587.00,0.0012
3586.00,0.0013
3585.00,0.0013
3584.00,0.0013
3583.00,0.0014
3582.00,0.0015
3581.00,0.0016
3580.00,0.0016
3579.00,0.0017
3578.00,0.0016
3577.00,0.0016
3576.00,0.0016
3575.00,0.0016
3574.00,0.0017
3573.00,0.0017
3572.00,0.0018
3571.00,0.0018
3570.00,0.0018
3569.00,0.0017
3568.00,0.0017
3567.00,0.0016
3566.00,0.0016
3565.00,0.0016
3564.00,0.0016
3563.00,0.0017
3562.00,0.0017
3561.00,0.0018
3560.00,0.0019
3559.00,0.0019
3558.00,0.0020
3557.00,0.0020
3556.00,0.0020
3555.00,0.0021
3554.00,0.0021
3553.00,0.0021
3552.00,0.0021
3551.00,0.0021
3550.00,0.0021
3549.00,0.0021
3548.00,0.0022
3547.00,0.0022
3546.00,0.0022
3545.00,0.0022
3544.00,0.0023
3543.00,0.0023
3542.00,0.0024
3541.00,0.0024
3540.00,0.0024
3539.00,0.0024
3538.00,0.0024
3537.00,0.0024
3536.00,0.0024
3535.00,0.0024
3534.00,0.0024
3533.00,0.0024
3532.00,0.0024
3531.00,0.0025
3530.00,0.0025
3529.00,0.0025
3528.00,0.0026
3527.00,0.0026
3526.00,0.0027
3525.00,0.0027
3524.00,0.0028
3523.00,0.0028
3522.00,0.0029
3521.00,0.0029
3520.00,0.0029
3519.00,0.0029
3518.00,0.0029
3517.00,0.0029
3516.00,0.0030
3515.00,0.0030
3514.00,0.0030
3513.00,0.0030
3512.00,0.0031
3511.00,0.0031
3510.00,0.0031
3509.00,0.0031
3508.00,0.0031
3507.00,0.0031
3506.00,0.0031
3505.00,0.0031
3504.00,0.0031
3503.00,0.0032
3502.00,0.0032
3501.00,0.0033
3500.00,0.0033
3499.00,0.0033
3498.00,0.0033
3497.00,0.0033
3496.00,0.0033
3495.00,0.0033
3494.00,0.0034
3493.00,0.0034
3492.00,0.0034
3491.00,0.0035
3490.00,0.0035
3489.00,0.0035
3488.00,0.0035
3487.00,0.0035
3486.00,0.0035
3485.00,0.0036
3484.00,0.0036
3483.00,0.0036
3482.00,0.0036
3481.00,0.0036
3480.00,0.0036
3479.00,0.0037
3478.00,0.0038
3477.00,0.0038
3476.00,0.0038
3475.00,0.0039
3474.00,0.0039
3473.00,0.0040
3472.00,0.0040
3471.00,0.0040
3470.00,0.0040
3469.00,0.0039
3468.00,0.0039
3467.00,0.0039
3466.00,0.0040
3465.00,0.0040
3464.00,0.0040
3463.00,0.0041
3462.00,0.0041
3461.00,0.0042
3460.00,0.0042
3459.00,0.0042
3458.00,0.0042
3457.00,0.0042
3456.00,0.0043
3455.00,0.0043
3454.00,0.0043
3453.00,0.0043
3452.00,0.0044
3451.00,0.0044
3450.00,0.0044
3449.00,0.0044
3448.00,0.0044
3447.00,0.0044
3446.00,0.0045
3445.00,0.0045
3444.00,0.0045
3443.00,0.0045
3442.00,0.0045
3441.00,0.0045
3440.00,0.0045
3439.00,0.0045
3438.00,0.0045
3437.00,0.0046
3436.00,0.0046
3435.00,0.0046
3434.00,0.0046
3433.00,0.0046
3432.00,0.0046
3431.00,0.0047
3430.00,0.0047
3429.00,0.0047
3428.00,0.0048
3427.00,0.0048
3426.00,0.0047
3425.00,0.0047
3424.00,0.0047
3423.00,0.0047
3422.00,0.0047
3421.00,0.0047
3420.00,0.0048
3419.00,0.0048
3418.00,0.0048
3417.00,0.0049
3416.00,0.0049
3415.00,0.0049
3414.00,0.0049
3413.00,0.0049
3412.00,0.0049
3411.00,0.0049
3410.00,0.0049
3409.00,0.0048
3408.00,0.0048
3407.00,0.0048
3406.00,0.0049
3405.00,0.0049
3404.00,0.0050
3403.00,0.0050
3402.00,0.0050
3401.00,0.0050
3400.00,0.0050
3399.00,0.0050
3398.00,0.0050
3397.00,0.0050
3396.00,0.0050
3395.00,0.0050
3394.00,0.0051
3393.00,0.0051
3392.00,0.0051
3391.00,0.0051
3390.00,0.0051
3389.00,0.0051
3388.00,0.0051
3387.00,0.0050
3386.00,0.0050
3385.00,0.0050
3384.00,0.0050
3383.00,0.0050
3382.00,0.0050
3381.00,0.0050
3380.00,0.0050
3379.00,0.0051
3378.00,0.0051
3377.00,0.0051
3376.00,0.0051
3375.00,0.0051
3374.00,0.0051
3373.00,0.0051
3372.00,0.0051
3371.00,0.0051
3370.00,0.0051
3369.00,0.0052
3368.00,0.0052
3367.00,0.0052
3366.00,0.0052
3365.00,0.0052
3364.00,0.0052
3363.00,0.0052
3362.00,0.0052
3361.00,0.0051
3360.00,0.0051
3359.00,0.0051
3358.00,0.0051
3357.00,0.0051
3356.00,0.0051
3355.00,0.0051
3354.00,0.0051
3353.00,0.0051
3352.00,0.0051
3351.00,0.0051
3350.00,0.0051
3349.00,0.0051
3348.00,0.0051
3347.00,0.0050
3346.00,0.0050
3345.00,0.0050
3344.00,0.0050
3343.00,0.0050
3342.00,0.0050
3341.00,0.0050
3340.00,0.0049
3339.00,0.0049
3338.00,0.0049
3337.00,0.0049
3336.00,0.0049
3335.00,0.0049
3334.00,0.0049
3333.00,0.0049
3332.00,0.0048
3331.00,0.0048
3330.00,0.0048
3329.00,0.0048
3328.00,0.0048
3327.00,0.0048
3326.00,0.0048
3325.00,0.0048
3324.00,0.0048
3323.00,0.0048
3322.00,0.0047
3321.00,0.0047
3320.00,0.0046
3319.00,0.0046
3318.00,0.0046
3317.00,0.0046
3316.00,0.0047
3315.00,0.0047
3314.00,0.0047
3313.00,0.0048
3312.00,0.0048
3311.00,0.0048
3310.00,0.0047
3309.00,0.0047
3308.00,0.0047
3307.00,0.0047
3306.00,0.0047
3305.00,0.0047
3304.00,0.0047
3303.00,0.0047
3302.00,0.0048
3301.00,0.0048
3300.00,0.0048
3299.00,0.0048
3298.00,0.0048
3297.00,0.0047
3296.00,0.0047
3295.00,0.0047
3294.00,0.0046
3293.00,0.0046
3292.00,0.0045
3291.00,0.0045
3290.00,0.0045
3289.00,0.0045
3288.00,0.0044
3287.00,0.0044
3286.00,0.0044
3285.00,0.0043
3284.00,0.0043
3283.00,0.0043
3282.00,0.0043
3281.00,0.0043
3280.00,0.0043
3279.00,0.0043
3278.00,0.0043
3277.00,0.0043
3276.00,0.0043
3275.00,0.0043
3274.00,0.0042
3273.00,0.0042
3272.00,0.0041
3271.00,0.0041
3270.00,0.0041
3269.00,0.0041
3268.00,0.0041
3267.00,0.0041
3266.00,0.0041
3265.00,0.0041
3264.00,0.0041
3263.00,0.0041
3262.00,0.0040
3261.00,0.0040
3260.00,0.0040
3259.00,0.0040
3258.00,0.0040
3257.00,0.0040
3256.00,0.0040
3255.00,0.0040
3254.00,0.0039
3253.00,0.0039
3252.00,0.0039
3251.00,0.0039
3250.00,0.0039
3249.00,0.0039
3248.00,0.0038
3247.00,0.0038
3246.00,0.0038
3245.00,0.0038
3244.00,0.0037
3243.00,0.0037
3242.00,0.0037
3241.00,0.0037
3240.00,0.0037
3239.00,0.0037
3238.00,0.0038
3237.00,0.0038
3236.00,0.0038
3235.00,0.0038
3234.00,0.0038
3233.00,0.0039
3232.00,0.0038
3231.00,0.0038
3230.00,0.0038
3229.00,0.0038
3228.00,0.0038
3227.00,0.0038
3226.00,0.0038
3225.00,0.0038
3224.00,0.0039
3223.00,0.0039
3222.00,0.0039
3221.00,0.0040
3220.00,0.0040
3219.00,0.0039
3218.00,0.0039
3217.00,0.0039
3216.00,0.0039
3215.00,0.0039
3214.00,0.0040
3213.00,0.0040
3212.00,0.0040
3211.00,0.0041
3210.00,0.0041
3209.00,0.0041
3208.00,0.0041
3207.00,0.0041
3206.00,0.0041
3205.00,0.0041
3204.00,0.0041
3203.00,0.0042
3202.00,0.0042
3201.00,0.0042
3200.00,0.0042
3199.00,0.0041
3198.00,0.0041
3197.00,0.0041
3196.00,0.0041
3195.00,0.0041
3194.00,0.0041
3193.00,0.0041
3192.00,0.0040
3191.00,0.0040
3190.00,0.0040
3189.00,0.0040
3188.00,0.0040
3187.00,0.0040
3186.00,0.0040
3185.00,0.0040
3184.00,0.0040
3183.00,0.0039
3182.00,0.0039
3181.00,0.0038
3180.00,0.0038
3179.00,0.0038
3178.00,0.0038
3177.00,0.0038
3176.00,0.0038
3175.00,0.0038
3174.00,0.0038
3173.00,0.0038
3172.00,0.0038
3171.00,0.0037
3170.00,0.0037
3169.00,0.0037
3168.00,0.0037
3167.00,0.0037
3166.00,0.0037
3165.00,0.0037
3164.00,0.0036
3163.00,0.0037
3162.00,0.0037
3161.00,0.0037
3160.00,0.0037
3159.00,0.0037
3158.00,0.0037
3157.00,0.0037
3156.00,0.0037
3155.00,0.0037
3154.00,0.0036
3153.00,0.0036
3152.00,0.0036
3151.00,0.0036
3150.00,0.0036
3149.00,0.0036
3148.00,0.0036
3147.00,0.0036
3146.00,0.0036
3145.00,0.0036
3144.00,0.0035
3143.00,0.0035
3142.00,0.0034
3141.00,0.0034
3140.00,0.0034
3139.00,0.0034
3138.00,0.0034
3137.00,0.0034
3136.00,0.0034
3135.00,0.0034
3134.00,0.0034
3133.00,0.0033
3132.00,0.0033
3131.00,0.0033
3130.00,0.0033
3129.00,0.0033
3128.00,0.0033
3127.00,0.0033
3126.00,0.0033
3125.00,0.0032
3124.00,0.0031
3123.00,0.0031
3122.00,0.0031
3121.00,0.0031
3120.00,0.0030
3119.00,0.0030
3118.00,0.0030
3117.00,0.0030
3116.00,0.0030
3115.00,0.0030
3114.00,0.0030
3113.00,0.0030
3112.00,0.0030
3111.00,0.0030
3110.00,0.0030
3109.00,0.0029
3108.00,0.0029
3107.00,0.0029
3106.00,0.0029
3105.00,0.0029
3104.00,0.0029
3103.00,0.0029
3102.00,0.0028
3101.00,0.0029
3100.00,0.0029
3099.00,0.0029
3098.00,0.0029
3097.00,0.0029
3096.00,0.0029
3095.00,0.0029
3094.00,0.0029
3093.00,0.0029
3092.00,0.0029
3091.00,0.0029
3090.00,0.0029
3089.00,0.0028
3088.00,0.0028
3087.00,0.0028
3086.00,0.0028
3085.00,0.0028
3084.00,0.0028
3083.00,0.0027
3082.00,0.0027
3081.00,0.0026
3080.00,0.0027
3079.00,0.0027
3078.00,0.0027
3077.00,0.0027
3076.00,0.0028
3075.00,0.0028
3074.00,0.0028
3073.00,0.0028
3072.00,0.0028
3071.00,0.0029
3070.00,0.0029
3069.00,0.0030
3068.00,0.0030
3067.00,0.0030
3066.00,0.0031
3065.00,0.0031
3064.00,0.0031
3063.00,0.0031
3062.00,0.0031
3061.00,0.0031
3060.00,0.0030
3059.00,0.0031
3058.00,0.0031
3057.00,0.0031
3056.00,0.0032
3055.00,0.0032
3054.00,0.0033
3053.00,0.0033
3052.00,0.0032
3051.00,0.0032
3050.00,0.0032
3049.00,0.0032
3048.00,0.0032
3047.00,0.0032
3046.00,0.0033
3045.00,0.0034
3044.00,0.0034
3043.00,0.0034
3042.00,0.0034
3041.00,0.0034
3040.00,0.0035
3039.00,0.0035
3038.00,0.0036
3037.00,0.0036
3036.00,0.0036
3035.00,0.0037
3034.00,0.0037
3033.00,0.0037
3032.00,0.0038
3031.00,0.0039
3030.00,0.0039
3029.00,0.0040
3028.00,0.0040
3027.00,0.0040
3026.00,0.0041
3025.00,0.0041
3024.00,0.0042
3023.00,0.0043
3022.00,0.0044
3021.00,0.0045
3020.00,0.0045
3019.00,0.0045
3018.00,0.0046
3017.00,0.0046
3016.00,0.0047
3015.00,0.0048
3014.00,0.0049
3013.00,0.0050
3012.00,0.0051
3011.00,0.0052
3010.00,0.0054
3009.00,0.0055
3008.00,0.0057
3007.00,0.0058
3006.00,0.0059
3005.00,0.0061
3004.00,0.0062
3003.00,0.0065
3002.00,0.0067
3001.00,0.0069
3000.00,0.0071
2999.00,0.0074
2998.00,0.0077
2997.00,0.0080
2996.00,0.0084
2995.00,0.0087
2994.00,0.0091
2993.00,0.0096
2992.00,0.0101
2991.00,0.0107
2990.00,0.0113
2989.00,0.0119
2988.00,0.0127
2987.00,0.0135
2986.00,0.0144
2985.00,0.0154
2984.00,0.0165
2983.00,0.0178
2982.00,0.0193
2981.00,0.0210
2980.00,0.0229
2979.00,0.0251
2978.00,0.0275
2977.00,0.0303
2976.00,0.0335
2975.00,0.0372
2974.00,0.0414
2973.00,0.0463
2972.00,0.0518
2971.00,0.0580
2970.00,0.0650
2969.00,0.0727
2968.00,0.0812
2967.00,0.0903
2966.00,0.1000
2965.00,0.1100
2964.00,0.1199
2963.00,0.1293
2962.00,0.1376
2961.00,0.1445
2960.00,0.1496
2959.00,0.1533
2958.00,0.1561
2957.00,0.1588
2956.00,0.1620
2955.00,0.1661
2954.00,0.1711
2953.00,0.1764
2952.00,0.1811
2951.00,0.1839
2950.00,0.1838
2949.00,0.1802
2948.00,0.1730
2947.00,0.1629
2946.00,0.1510
2945.00,0.1387
2944.00,0.1273
2943.00,0.1175
2942.00,0.1100
2941.00,0.1049
2940.00,0.1020
2939.00,0.1013
2938.00,0.1024
2937.00,0.1052
2936.00,0.1094
2935.00,0.1150
2934.00,0.1219
2933.00,0.1300
2932.00,0.1391
2931.00,0.1490
2930.00,0.1595
2929.00,0.1703
2928.00,0.1811
2927.00,0.1916
2926.00,0.2018
2925.00,0.2115
2924.00,0.2208
2923.00,0.2299
2922.00,0.2388
2921.00,0.2472
2920.00,0.2544
2919.00,0.2596
2918.00,0.2618
2917.00,0.2604
2916.00,0.2556
2915.00,0.2479
2914.00,0.2386
2913.00,0.2287
2912.00,0.2191
2911.00,0.2105
2910.00,0.2029
2909.00,0.1962
2908.00,0.1901
2907.00,0.1843
2906.00,0.1785
2905.00,0.1725
2904.00,0.1662
2903.00,0.1598
2902.00,0.1533
2901.00,0.1469
2900.00,0.1407
2899.00,0.1347
2898.00,0.1291
2897.00,0.1239
2896.00,0.1193
2895.00,0.1152
2894.00,0.1117
2893.00,0.1089
2892.00,0.1066
2891.00,0.1049
2890.00,0.1037
2889.00,0.1028
2888.00,0.1023
2887.00,0.1022
2886.00,0.1023
2885.00,0.1028
2884.00,0.1037
2883.00,0.1050
2882.00,0.1066
2881.00,0.1084
2880.00,0.1101
2879.00,0.1114
2878.00,0.1121
2877.00,0.1121
2876.00,0.1115
2875.00,0.1108
2874.00,0.1102
2873.00,0.1103
2872.00,0.1110
2871.00,0.1125
2870.00,0.1143
2869.00,0.1160
2868.00,0.1170
2867.00,0.1166
2866.00,0.1144
2865.00,0.1101
2864.00,0.1041
2863.00,0.0973
2862.00,0.0906
2861.00,0.0847
2860.00,0.0802
2859.00,0.0772
2858.00,0.0757
2857.00,0.0753
2856.00,0.0759
2855.00,0.0771
2854.00,0.0788
2853.00,0.0807
2852.00,0.0827
2851.00,0.0844
2850.00,0.0857
2849.00,0.0867
2848.00,0.0877
2847.00,0.0890
2846.00,0.0912
2845.00,0.0945
2844.00,0.0988
2843.00,0.1039
2842.00,0.1093
2841.00,0.1143
2840.00,0.1181
2839.00,0.1200
2838.00,0.1192
2837.00,0.1155
2836.00,0.1089
2835.00,0.1001
2834.00,0.0899
2833.00,0.0795
2832.00,0.0696
2831.00,0.0608
2830.00,0.0534
2829.00,0.0474
2828.00,0.0425
2827.00,0.0386
2826.00,0.0353
2825.00,0.0326
2824.00,0.0303
2823.00,0.0284
2822.00,0.0267
2821.00,0.0254
2820.00,0.0241
2819.00,0.0231
2818.00,0.0221
2817.00,0.0213
2816.00,0.0206
2815.00,0.0199
2814.00,0.0193
2813.00,0.0188
2812.00,0.0183
2811.00,0.0178
2810.00,0.0172
2809.00,0.0167
2808.00,0.0161
2807.00,0.0155
2806.00,0.0148
2805.00,0.0142
2804.00,0.0136
2803.00,0.0130
2802.00,0.0125
2801.00,0.0121
2800.00,0.0118
2799.00,0.0115
2798.00,0.0113
2797.00,0.0110
2796.00,0.0108
2795.00,0.0106
2794.00,0.0103
2793.00,0.0101
2792.00,0.0098
2791.00,0.0095
2790.00,0.0092
2789.00,0.0088
2788.00,0.0085
2787.00,0.0082
2786.00,0.0079
2785.00,0.0076
2784.00,0.0074
2783.00,0.0072
2782.00,0.0070
2781.00,0.0068
2780.00,0.0066
2779.00,0.0065
2778.00,0.0063
2777.00,0.0062
2776.00,0.0061
2775.00,0.0059
2774.00,0.0058
2773.00,0.0057
2772.00,0.0056
2771.00,0.0056
2770.00,0.0056
2769.00,0.0056
2768.00,0.0056
2767.00,0.0055
2766.00,0.0055
2765.00,0.0055
2764.00,0.0054
2763.00,0.0054
2762.00,0.0054
2761.00,0.0053
2760.00,0.0053
2759.00,0.0053
2758.00,0.0052
2757.00,0.0052
2756.00,0.0052
2755.00,0.0051
2754.00,0.0051
2753.00,0.0051
2752.00,0.0051
2751.00,0.0051
2750.00,0.0051
2749.00,0.0051
2748.00,0.0052
2747.00,0.0052
2746.00,0.0052
2745.00,0.0053
2744.00,0.0053
2743.00,0.0054
2742.00,0.0055
2741.00,0.0056
2740.00,0.0057
2739.00,0.0058
2738.00,0.0059
2737.00,0.0060
2736.00,0.0062
2735.00,0.0063
2734.00,0.0065
2733.00,0.0066
2732.00,0.0068
2731.00,0.0069
2730.00,0.0071
2729.00,0.0073
2728.00,0.0075
2727.00,0.0078
2726.00,0.0080
2725.00,0.0082
2724.00,0.0084
2723.00,0.0084
2722.00,0.0084
2721.00,0.0082
2720.00,0.0080
2719.00,0.0077
2718.00,0.0074
2717.00,0.0071
2716.00,0.0068
2715.00,0.0065
2714.00,0.0063
2713.00,0.0061
2712.00,0.0059
2711.00,0.0057
2710.00,0.0056
2709.00,0.0055
2708.00,0.0054
2707.00,0.0053
2706.00,0.0051
2705.00,0.0050
2704.00,0.0050
2703.00,0.0049
2702.00,0.0048
2701.00,0.0047
2700.00,0.0046
2699.00,0.0045
2698.00,0.0045
2697.00,0.0045
2696.00,0.0045
2695.00,0.0045
2694.00,0.0045
2693.00,0.0045
2692.00,0.0045
2691.00,0.0045
2690.00,0.0045
2689.00,0.0045
2688.00,0.0045
2687.00,0.0045
2686.00,0.0045
2685.00,0.0045
2684.00,0.0045
2683.00,0.0045
2682.00,0.0045
2681.00,0.0046
2680.00,0.0046
2679.00,0.0046
2678.00,0.0046
2677.00,0.0046
2676.00,0.0046
2675.00,0.0046
2674.00,0.0045
2673.00,0.0045
2672.00,0.0045
2671.00,0.0045
2670.00,0.0045
2669.00,0.0045
2668.00,0.0045
2667.00,0.0045
2666.00,0.0045
2665.00,0.0046
2664.00,0.0046
2663.00,0.0047
2662.00,0.0047
2661.00,0.0048
2660.00,0.0048
2659.00,0.0048
2658.00,0.0047
2657.00,0.0047
2656.00,0.0047
2655.00,0.0046
2654.00,0.0046
2653.00,0.0045
2652.00,0.0045
2651.00,0.0044
2650.00,0.0044
2649.00,0.0043
2648.00,0.0043
2647.00,0.0043
2646.00,0.0042
2645.00,0.0042
2644.00,0.0042
2643.00,0.0041
2642.00,0.0041
2641.00,0.0041
2640.00,0.0040
2639.00,0.0040
2638.00,0.0039
2637.00,0.0039
2636.00,0.0039
2635.00,0.0038
2634.00,0.0038
2633.00,0.0038
2632.00,0.0038
2631.00,0.0038
2630.00,0.0038
2629.00,0.0038
2628.00,0.0039
2627.00,0.0039
2626.00,0.0039
2625.00,0.0039
2624.00,0.0039
2623.00,0.0039
2622.00,0.0039
2621.00,0.0039
2620.00,0.0040
2619.00,0.0040
2618.00,0.0041
2617.00,0.0041
2616.00,0.0041
2615.00,0.0041
2614.00,0.0040
2613.00,0.0039
2612.00,0.0038
2611.00,0.0037
2610.00,0.0036
2609.00,0.0036
2608.00,0.0036
2607.00,0.0035
2606.00,0.0035
2605.00,0.0035
2604.00,0.0034
2603.00,0.0033
2602.00,0.0033
2601.00,0.0033
2600.00,0.0033
2599.00,0.0033
2598.00,0.0032
2597.00,0.0032
2596.00,0.0032
2595.00,0.0031
2594.00,0.0032
2593.00,0.0032
2592.00,0.0033
2591.00,0.0033
2590.00,0.0034
2589.00,0.0034
2588.00,0.0035
2587.00,0.0036
2586.00,0.0037
2585.00,0.0038
2584.00,0.0039
2583.00,0.0039
2582.00,0.0039
2581.00,0.0038
2580.00,0.0037
2579.00,0.0036
2578.00,0.0035
2577.00,0.0034
2576.00,0.0033
2575.00,0.0032
2574.00,0.0031
2573.00,0.0030
2572.00,0.0029
2571.00,0.0028
2570.00,0.0028
2569.00,0.0028
2568.00,0.0028
2567.00,0.0027
2566.00,0.0027
2565.00,0.0026
2564.00,0.0025
2563.00,0.0025
2562.00,0.0025
2561.00,0.0025
2560.00,0.0024
2559.00,0.0024
2558.00,0.0023
2557.00,0.0023
2556.00,0.0022
2555.00,0.0022
2554.00,0.0022
2553.00,0.0021
2552.00,0.0021
2551.00,0.0021
2550.00,0.0021
2549.00,0.0021
2548.00,0.0021
2547.00,0.0020
2546.00,0.0020
2545.00,0.0019
2544.00,0.0019
2543.00,0.0019
2542.00,0.0019
2541.00,0.0020
2540.00,0.0020
2539.00,0.0020
2538.00,0.0020
2537.00,0.0020
2536.00,0.0019
2535.00,0.0018
2534.00,0.0017
2533.00,0.0016
2532.00,0.0016
2531.00,0.0016
2530.00,0.0016
2529.00,0.0016
2528.00,0.0015
2527.00,0.0015
2526.00,0.0015
2525.00,0.0015
2524.00,0.0015
2523.00,0.0015
2522.00,0.0015
2521.00,0.0015
2520.00,0.0014
2519.00,0.0014
2518.00,0.0014
2517.00,0.0014
2516.00,0.0014
2515.00,0.0013
2514.00,0.0013
2513.00,0.0013
2512.00,0.0013
2511.00,0.0013
2510.00,0.0012
2509.00,0.0012
2508.00,0.0012
2507.00,0.0012
2506.00,0.0011
2505.00,0.0011
2504.00,0.0011
2503.00,0.0011
2502.00,0.0011
2501.00,0.0012
2500.00,0.0012
2499.00,0.0012
2498.00,0.0012
2497.00,0.0012
2496.00,0.0011
2495.00,0.0011
2494.00,0.0011
2493.00,0.0012
2492.00,0.0012
2491.00,0.0012
2490.00,0.0012
2489.00,0.0012
2488.00,0.0012
2487.00,0.0012
2486.00,0.0012
2485.00,0.0012
2484.00,0.0011
2483.00,0.0010
2482.00,0.0010
2481.00,0.0010
2480.00,0.0010
2479.00,0.0011
2478.00,0.0011
2477.00,0.0011
2476.00,0.0010
2475.00,0.0010
2474.00,0.0009
2473.00,0.0010
2472.00,0.0010
2471.00,0.0010
2470.00,0.0010
2469.00,0.0010
2468.00,0.0010
2467.00,0.0010
2466.00,0.0010
2465.00,0.0010
2464.00,0.0011
2463.00,0.0011
2462.00,0.0011
2461.00,0.0011
2460.00,0.0011
2459.00,0.0011
2458.00,0.0011
2457.00,0.0011
2456.00,0.0011
2455.00,0.0011
2454.00,0.0010
2453.00,0.0010
2452.00,0.0011
2451.00,0.0011
2450.00,0.0011
2449.00,0.0011
2448.00,0.0011
2447.00,0.0010
2446.00,0.0010
2445.00,0.0010
2444.00,0.0010
2443.00,0.0010
2442.00,0.0010
2441.00,0.0011
2440.00,0.0011
2439.00,0.0011
2438.00,0.0012
2437.00,0.0012
2436.00,0.0012
2435.00,0.0013
2434.00,0.0014
2433.00,0.0014
2432.00,0.0014
2431.00,0.0014
2430.00,0.0013
2429.00,0.0013
2428.00,0.0013
2427.00,0.0013
2426.00,0.0013
2425.00,0.0013
2424.00,0.0012
2423.00,0.0012
2422.00,0.0012
2421.00,0.0012
2420.00,0.0012
2419.00,0.0012
2418.00,0.0012
2417.00,0.0013
2416.00,0.0013
2415.00,0.0013
2414.00,0.0013
2413.00,0.0012
2412.00,0.0012
2411.00,0.0011
2410.00,0.0011
2409.00,0.0011
2408.00,0.0010
2407.00,0.0010
2406.00,0.0010
2405.00,0.0010
2404.00,0.0010
2403.00,0.0010
2402.00,0.0010
2401.00,0.0010
2400.00,0.0010
2399.00,0.0009
2398.00,0.0009
2397.00,0.0009
2396.00,0.0009
2395.00,0.0009
2394.00,0.0009
2393.00,0.0009
2392.00,0.0010
2391.00,0.0010
2390.00,0.0009
2389.00,0.0009
2388.00,0.0008
2387.00,0.0008
2386.00,0.0009
2385.00,0.0008
2384.00,0.0008
2383.00,0.0007
2382.00,0.0006
2381.00,0.0005
2380.00,0.0005
2379.00,0.0005
2378.00,0.0005
2377.00,0.0005
2376.00,0.0006
2375.00,0.0006
2374.00,0.0007
2373.00,0.0008
2372.00,0.0007
2371.00,0.0007
2370.00,0.0007
2369.00,0.0007
2368.00,0.0007
2367.00,0.0007
2366.00,0.0006
2365.00,0.0006
2364.00,0.0006
2363.00,0.0006
2362.00,0.0007
2361.00,0.0008
2360.00,0.0009
2359.00,0.0009
2358.00,0.0009
2357.00,0.0008
2356.00,0.0008
2355.00,0.0008
2354.00,0.0008
2353.00,0.0007
2352.00,0.0007
2351.00,0.0007
2350.00,0.0008
2349.00,0.0009
2348.00,0.0009
2347.00,0.0010
2346.00,0.0010
2345.00,0.0011
2344.00,0.0011
2343.00,0.0011
2342.00,0.0011
2341.00,0.0011
2340.00,0.0010
2339.00,0.0010
2338.00,0.0011
2337.00,0.0011
2336.00,0.0012
2335.00,0.0012
2334.00,0.0011
2333.00,0.0011
2332.00,0.0011
2331.00,0.0011
2330.00,0.0011
2329.00,0.0011
2328.00,0.0013
2327.00,0.0015
2326.00,0.0018
2325.00,0.0021
2324.00,0.0022
2323.00,0.0021
2322.00,0.0019
2321.00,0.0017
2320.00,0.0015
2319.00,0.0014
2318.00,0.0013
2317.00,0.0012
2316.00,0.0011
2315.00,0.0010
2314.00,0.0009
2313.00,0.0008
2312.00,0.0008
2311.00,0.0009
2310.00,0.0009
2309.00,0.0009
2308.00,0.0009
2307.00,0.0009
2306.00,0.0009
2305.00,0.0009
2304.00,0.0010
2303.00,0.0010
2302.00,0.0010
2301.00,0.0010
2300.00,0.0010
2299.00,0.0010
2298.00,0.0011
2297.00,0.0011
2296.00,0.0012
2295.00,0.0012
2294.00,0.0013
2293.00,0.0013
2292.00,0.0014
2291.00,0.0015
2290.00,0.0016
2289.00,0.0016
2288.00,0.0016
2287.00,0.0016
2286.00,0.0016
2285.00,0.0016
2284.00,0.0015
2283.00,0.0015
2282.00,0.0014
2281.00,0.0014
2280.00,0.0015
2279.00,0.0015
2278.00,0.0016
2277.00,0.0015
2276.00,0.0015
2275.00,0.0015
2274.00,0.0016
2273.00,0.0016
2272.00,0.0016
2271.00,0.0016
2270.00,0.0015
2269.00,0.0013
2268.00,0.0012
2267.00,0.0011
2266.00,0.0011
2265.00,0.0011
2264.00,0.0011
2263.00,0.0011
2262.00,0.0011
2261.00,0.0011
2260.00,0.0012
2259.00,0.0012
2258.00,0.0013
2257.00,0.0012
2256.00,0.0011
2255.00,0.0010
2254.00,0.0010
2253.00,0.0009
2252.00,0.0010
2251.00,0.0010
2250.00,0.0009
2249.00,0.0009
2248.00,0.0009
2247.00,0.0009
2246.00,0.0009
2245.00,0.0008
2244.00,0.0008
2243.00,0.0008
2242.00,0.0008
2241.00,0.0009
2240.00,0.0010
2239.00,0.0011
2238.00,0.0012
2237.00,0.0011
2236.00,0.0010
2235.00,0.0009
2234.00,0.0008
2233.00,0.0008
2232.00,0.0008
2231.00,0.0009
2230.00,0.0009
2229.00,0.0009
2228.00,0.0010
2227.00,0.0011
2226.00,0.0011
2225.00,0.0010
2224.00,0.0009
2223.00,0.0008
2222.00,0.0008
2221.00,0.0007
2220.00,0.0006
2219.00,0.0005
2218.00,0.0005
2217.00,0.0007
2216.00,0.0008
2215.00,0.0009
2214.00,0.0009
2213.00,0.0008
2212.00,0.0007
2211.00,0.0005
2210.00,0.0005
2209.00,0.0005
2208.00,0.0007
2207.00,0.0007
2206.00,0.0007
2205.00,0.0006
2204.00,0.0005
2203.00,0.0006
2202.00,0.0008
2201.00,0.0010
2200.00,0.0011
2199.00,0.0012
2198.00,0.0012
2197.00,0.0011
2196.00,0.0009
2195.00,0.0008
2194.00,0.0008
2193.00,0.0009
2192.00,0.0011
2191.00,0.0013
2190.00,0.0013
2189.00,0.0013
2188.00,0.0012
2187.00,0.0013
2186.00,0.0014
2185.00,0.0014
2184.00,0.0013
2183.00,0.0010
2182.00,0.0007
2181.00,0.0005
2180.00,0.0004
2179.00,0.0005
2178.00,0.0006
2177.00,0.0007
2176.00,0.0006
2175.00,0.0004
2174.00,0.0003
2173.00,0.0003
2172.00,0.0005
2171.00,0.0007
2170.00,0.0009
2169.00,0.0009
2168.00,0.0009
2167.00,0.0009
2166.00,0.0009
2165.00,0.0010
2164.00,0.0012
2163.00,0.0014
2162.00,0.0015
2161.00,0.0011
2160.00,0.0002
2159.00,-0.0011
2158.00,-0.0022
2157.00,-0.0028
2156.00,-0.0027
2155.00,-0.0024
2154.00,-0.0020
2153.00,-0.0017
2152.00,-0.0015
2151.00,-0.0014
2150.00,-0.0014
2149.00,-0.0013
2148.00,-0.0013
2147.00,-0.0012
2146.00,-0.0012
2145.00,-0.0011
2144.00,-0.0011
2143.00,-0.0010
2142.00,-0.0010
2141.00,-0.0009
2140.00,-0.0009
2139.00,-0.0009
2138.00,-0.0009
2137.00,-0.0010
2136.00,-0.0010
2135.00,-0.0010
2134.00,-0.0010
2133.00,-0.0011
2132.00,-0.0011
2131.00,-0.0011
2130.00,-0.0011
2129.00,-0.0010
2128.00,-0.0009
2127.00,-0.0008
2126.00,-0.0008
2125.00,-0.0008
2124.00,-0.0008
2123.00,-0.0006
2122.00,-0.0005
2121.00,-0.0004
2120.00,-0.0003
2119.00,-0.0003
2118.00,-0.0002
2117.00,-0.0000
2116.00,0.0001
2115.00,0.0003
2114.00,0.0004
2113.00,0.0003
2112.00,0.0002
2111.00,0.0001
2110.00,0.0001
2109.00,0.0002
2108.00,0.0003
2107.00,0.0004
2106.00,0.0005
2105.00,0.0005
2104.00,0.0004
2103.00,0.0003
2102.00,0.0002
2101.00,0.0002
2100.00,0.0003
2099.00,0.0003
2098.00,0.0002
2097.00,0.0000
2096.00,-0.0001
2095.00,-0.0003
2094.00,-0.0004
2093.00,-0.0004
2092.00,-0.0002
2091.00,0.0000
2090.00,0.0003
2089.00,0.0003
2088.00,0.0003
2087.00,0.0003
2086.00,0.0003
2085.00,0.0002
2084.00,0.0002
2083.00,0.0003
2082.00,0.0003
2081.00,0.0003
2080.00,0.0003
2079.00,0.0003
2078.00,0.0003
2077.00,0.0004
2076.00,0.0005
2075.00,0.0005
2074.00,0.0005
2073.00,0.0005
2072.00,0.0003
2071.00,0.0002
2070.00,0.0000
2069.00,-0.0001
2068.00,-0.0001
2067.00,-0.0001
2066.00,-0.0001
2065.00,-0.0002
2064.00,-0.0002
2063.00,-0.0002
2062.00,-0.0002
2061.00,-0.0001
2060.00,-0.0000
2059.00,0.0001
2058.00,0.0002
2057.00,0.0002
2056.00,0.0001
2055.00,-0.0000
2054.00,0.0001
2053.00,0.0006
2052.00,0.0011
2051.00,0.0015
2050.00,0.0015
2049.00,0.0011
2048.00,0.0006
2047.00,0.0002
2046.00,0.0001
2045.00,0.0002
2044.00,0.0003
2043.00,0.0003
2042.00,0.0002
2041.00,0.0000
2040.00,-0.0000
2039.00,-0.0000
2038.00,-0.0001
2037.00,-0.0001
2036.00,-0.0003
2035.00,-0.0004
2034.00,-0.0006
2033.00,-0.0007
2032.00,-0.0009
2031.00,-0.0010
2030.00,-0.0010
2029.00,-0.0009
2028.00,-0.0006
2027.00,-0.0005
2026.00,-0.0004
2025.00,-0.0005
2024.00,-0.0008
2023.00,-0.0012
2022.00,-0.0016
2021.00,-0.0019
2020.00,-0.0020
2019.00,-0.0020
2018.00,-0.0017
2017.00,-0.0012
2016.00,-0.0008
2015.00,-0.0008
2014.00,-0.0010
2013.00,-0.0013
2012.00,-0.0015
2011.00,-0.0015
2010.00,-0.0015
2009.00,-0.0016
2008.00,-0.0017
2007.00,-0.0017
2006.00,-0.0017
2005.00,-0.0015
2004.00,-0.0013
2003.00,-0.0012
2002.00,-0.0012
2001.00,-0.0012
2000.00,-0.0013
1999.00,-0.0013
1998.00,-0.0012
1997.00,-0.0011
1996.00,-0.0010
1995.00,-0.0010
1994.00,-0.0011
1993.00,-0.0011
1992.00,-0.0011
1991.00,-0.0009
1990.00,-0.0006
1989.00,-0.0004
1988.00,-0.0003
1987.00,-0.0002
1986.00,-0.0002
1985.00,-0.0002
1984.00,0.0000
1983.00,0.0002
1982.00,0.0006
1981.00,0.0010
1980.00,0.0012
1979.00,0.0010
1978.00,0.0003
1977.00,-0.0005
1976.00,-0.0012
1975.00,-0.0018
1974.00,-0.0022
1973.00,-0.0023
1972.00,-0.0022
1971.00,-0.0020
1970.00,-0.0019
1969.00,-0.0017
1968.00,-0.0015
1967.00,-0.0014
1966.00,-0.0015
1965.00,-0.0016
1964.00,-0.0017
1963.00,-0.0017
1962.00,-0.0017
1961.00,-0.0018
1960.00,-0.0021
1959.00,-0.0023
1958.00,-0.0025
1957.00,-0.0025
1956.00,-0.0022
1955.00,-0.0019
1954.00,-0.0016
1953.00,-0.0014
1952.00,-0.0015
1951.00,-0.0016
1950.00,-0.0018
1949.00,-0.0018
1948.00,-0.0019
1947.00,-0.0019
1946.00,-0.0019
1945.00,-0.0018
1944.00,-0.0017
1943.00,-0.0016
1942.00,-0.0016
1941.00,-0.0014
1940.00,-0.0013
1939.00,-0.0011
1938.00,-0.0010
1937.00,-0.0009
1936.00,-0.0009
1935.00,-0.0009
1934.00,-0.0009
1933.00,-0.0009
1932.00,-0.0009
1931.00,-0.0009
1930.00,-0.0009
1929.00,-0.0008
1928.00,-0.0007
1927.00,-0.0006
1926.00,-0.0007
1925.00,-0.0007
1924.00,-0.0006
1923.00,-0.0004
1922.00,-0.0003
1921.00,-0.0001
1920.00,-0.0000
1919.00,-0.0001
1918.00,-0.0002
1917.00,-0.0003
1916.00,-0.0004
1915.00,-0.0004
1914.00,-0.0005
1913.00,-0.0005
1912.00,-0.0005
1911.00,-0.0004
1910.00,-0.0003
1909.00,-0.0002
1908.00,-0.0002
1907.00,-0.0003
1906.00,-0.0004
1905.00,-0.0003
1904.00,-0.0003
1903.00,-0.0002
1902.00,-0.0002
1901.00,-0.0002
1900.00,-0.0002
1899.00,-0.0003
1898.00,-0.0003
1897.00,-0.0002
1896.00,-0.0002
1895.00,-0.0002
1894.00,-0.0002
1893.00,-0.0001
1892.00,-0.0000
1891.00,0.0001
1890.00,0.0001
1889.00,0.0000
1888.00,-0.0001
1887.00,-0.0001
1886.00,-0.0001
1885.00,-0.0001
1884.00,-0.0001
1883.00,-0.0001
1882.00,-0.0002
1881.00,-0.0001
1880.00,-0.0001
1879.00,-0.0001
1878.00,-0.0002
1877.00,-0.0002
1876.00,-0.0003
1875.00,-0.0003
1874.00,-0.0003
1873.00,-0.0002
1872.00,-0.0001
1871.00,-0.0002
1870.00,-0.0002
1869.00,-0.0003
1868.00,-0.0003
1867.00,-0.0003
1866.00,-0.0002
1865.00,-0.0002
1864.00,-0.0001
1863.00,0.0000
1862.00,0.0001
1861.00,0.0002
1860.00,0.0003
1859.00,0.0003
1858.00,0.0003
1857.00,0.0002
1856.00,0.0002
1855.00,0.0001
1854.00,0.0001
1853.00,0.0001
1852.00,0.0001
1851.00,0.0001
1850.00,0.0001
1849.00,0.0000
1848.00,-0.0000
1847.00,-0.0001
1846.00,-0.0000
1845.00,0.0001
1844.00,0.0002
1843.00,0.0002
1842.00,0.0002
1841.00,0.0003
1840.00,0.0003
1839.00,0.0003
1838.00,0.0003
1837.00,0.0003
1836.00,0.0003
1835.00,0.0003
1834.00,0.0002
1833.00,0.0002
1832.00,0.0003
1831.00,0.0003
1830.00,0.0003
1829.00,0.0002
1828.00,0.0002
1827.00,0.0001
1826.00,0.0001
1825.00,0.0001
1824.00,0.0002
1823.00,0.0002
1822.00,0.0001
1821.00,0.0001
1820.00,-0.0000
1819.00,-0.0001
1818.00,-0.0002
1817.00,-0.0002
1816.00,-0.0001
1815.00,0.0000
1814.00,0.0001
1813.00,0.0003
1812.00,0.0003
1811.00,0.0004
1810.00,0.0004
1809.00,0.0004
1808.00,0.0004
1807.00,0.0004
1806.00,0.0004
1805.00,0.0003
1804.00,0.0003
1803.00,0.0003
1802.00,0.0004
1801.00,0.0005
1800.00,0.0005
1799.00,0.0005
1798.00,0.0005
1797.00,0.0006
1796.00,0.0007
1795.00,0.0007
1794.00,0.0007
1793.00,0.0006
1792.00,0.0006
1791.00,0.0007
1790.00,0.0007
1789.00,0.0007
1788.00,0.0007
1787.00,0.0007
1786.00,0.0007
1785.00,0.0008
1784.00,0.0008
1783.00,0.0008
1782.00,0.0008
1781.00,0.0008
1780.00,0.0008
1779.00,0.0008
1778.00,0.0008
1777.00,0.0008
1776.00,0.0008
1775.00,0.0009
1774.00,0.0009
1773.00,0.0010
1772.00,0.0011
1771.00,0.0011
1770.00,0.0011
1769.00,0.0012
1768.00,0.0012
1767.00,0.0012
1766.00,0.0011
1765.00,0.0011
1764.00,0.0012
1763.00,0.0012
1762.00,0.0013
1761.00,0.0013
1760.00,0.0014
1759.00,0.0014
1758.00,0.0015
1757.00,0.0015
1756.00,0.0016
1755.00,0.0016
1754.00,0.0016
1753.00,0.0017
1752.00,0.0017
1751.00,0.0016
1750.00,0.0016
1749.00,0.0016
1748.00,0.0017
1747.00,0.0017
1746.00,0.0017
1745.00,0.0017
1744.00,0.0017
1743.00,0.0017
1742.00,0.0016
1741.00,0.0016
1740.00,0.0017
1739.00,0.0017
1738.00,0.0018
1737.00,0.0018
1736.00,0.0018
1735.00,0.0018
1734.00,0.0017
1733.00,0.0016
1732.00,0.0016
1731.00,0.0016
1730.00,0.0016
1729.00,0.0016
1728.00,0.0017
1727.00,0.0018
1726.00,0.0018
1725.00,0.0019
1724.00,0.0020
1723.00,0.0021
1722.00,0.0021
1721.00,0.0021
1720.00,0.0021
1719.00,0.0021
1718.00,0.0021
1717.00,0.0022
1716.00,0.0022
1715.00,0.0022
1714.00,0.0021
1713.00,0.0021
1712.00,0.0021
1711.00,0.0021
1710.00,0.0021
1709.00,0.0021
1708.00,0.0020
1707.00,0.0020
1706.00,0.0020
1705.00,0.0020
1704.00,0.0021
1703.00,0.0022
1702.00,0.0022
1701.00,0.0022
1700.00,0.0022
1699.00,0.0023
1698.00,0.0023
1697.00,0.0024
1696.00,0.0024
1695.00,0.0024
1694.00,0.0024
1693.00,0.0024
1692.00,0.0025
1691.00,0.0026
1690.00,0.0026
1689.00,0.0026
1688.00,0.0026
1687.00,0.0026
1686.00,0.0026
1685.00,0.0026
1684.00,0.0027
1683.00,0.0028
1682.00,0.0029
1681.00,0.0029
1680.00,0.0030
1679.00,0.0031
1678.00,0.0031
1677.00,0.0032
1676.00,0.0032
1675.00,0.0033
1674.00,0.0033
1673.00,0.0033
1672.00,0.0033
1671.00,0.0034
1670.00,0.0034
1669.00,0.0035
1668.00,0.0036
1667.00,0.0036
1666.00,0.0036
1665.00,0.0036
1664.00,0.0037
1663.00,0.0037
1662.00,0.0038
1661.00,0.0038
1660.00,0.0039
1659.00,0.0039
1658.00,0.0039
1657.00,0.0039
1656.00,0.0039
1655.00,0.0040
1654.00,0.0040
1653.00,0.0041
1652.00,0.0042
1651.00,0.0043
1650.00,0.0043
1649.00,0.0044
1648.00,0.0044
1647.00,0.0045
1646.00,0.0046
1645.00,0.0046
1644.00,0.0047
1643.00,0.0047
1642.00,0.0048
1641.00,0.0049
1640.00,0.0050
1639.00,0.0052
1638.00,0.0053
1637.00,0.0054
1636.00,0.0055
1635.00,0.0054
1634.00,0.0053
1633.00,0.0051
1632.00,0.0051
1631.00,0.0050
1630.00,0.0049
1629.00,0.0049
1628.00,0.0048
1627.00,0.0048
1626.00,0.0048
1625.00,0.0048
1624.00,0.0048
1623.00,0.0047
1622.00,0.0047
1621.00,0.0047
1620.00,0.0047
1619.00,0.0047
1618.00,0.0047
1617.00,0.0046
1616.00,0.0046
1615.00,0.0045
1614.00,0.0045
1613.00,0.0045
1612.00,0.0045
1611.00,0.0045
1610.00,0.0045
1609.00,0.0045
1608.00,0.0045
1607.00,0.0045
1606.00,0.0045
1605.00,0.0045
1604.00,0.0045
1603.00,0.0044
1602.00,0.0044
1601.00,0.0044
1600.00,0.0044
1599.00,0.0043
1598.00,0.0043
1597.00,0.0043
1596.00,0.0043
1595.00,0.0043
1594.00,0.0043
1593.00,0.0043
1592.00,0.0043
1591.00,0.0043
1590.00,0.0043
1589.00,0.0043
1588.00,0.0043
1587.00,0.0043
1586.00,0.0043
1585.00,0.0043
1584.00,0.0044
1583.00,0.0044
1582.00,0.0045
1581.00,0.0045
1580.00,0.0046
1579.00,0.0047
1578.00,0.0048
1577.00,0.0048
1576.00,0.0048
1575.00,0.0048
1574.00,0.0048
1573.00,0.0049
1572.00,0.0049
1571.00,0.0049
1570.00,0.0049
1569.00,0.0050
1568.00,0.0050
1567.00,0.0050
1566.00,0.0050
1565.00,0.0050
1564.00,0.0051
1563.00,0.0051
1562.00,0.0052
1561.00,0.0053
1560.00,0.0054
1559.00,0.0053
1558.00,0.0053
1557.00,0.0052
1556.00,0.0053
1555.00,0.0053
1554.00,0.0054
1553.00,0.0054
1552.00,0.0054
1551.00,0.0054
1550.00,0.0054
1549.00,0.0055
1548.00,0.0056
1547.00,0.0056
1546.00,0.0057
1545.00,0.0058
1544.00,0.0058
1543.00,0.0059
1542.00,0.0058
1541.00,0.0058
1540.00,0.0058
1539.00,0.0057
1538.00,0.0055
1537.00,0.0054
1536.00,0.0054
1535.00,0.0054
1534.00,0.0052
1533.00,0.0051
1532.00,0.0050
1531.00,0.0049
1530.00,0.0048
1529.00,0.0048
1528.00,0.0048
1527.00,0.0048
1526.00,0.0047
1525.00,0.0046
1524.00,0.0047
1523.00,0.0047
1522.00,0.0047
1521.00,0.0049
1520.00,0.0050
1519.00,0.0051
1518.00,0.0051
1517.00,0.0052
1516.00,0.0052
1515.00,0.0052
1514.00,0.0051
1513.00,0.0051
1512.00,0.0052
1511.00,0.0053
1510.00,0.0054
1509.00,0.0055
1508.00,0.0056
1507.00,0.0057
1506.00,0.0058
1505.00,0.0058
1504.00,0.0059
1503.00,0.0061
1502.00,0.0062
1501.00,0.0064
1500.00,0.0067
1499.00,0.0069
1498.00,0.0072
1497.00,0.0075
1496.00,0.0079
1495.00,0.0081
1494.00,0.0083
1493.00,0.0086
1492.00,0.0090
1491.00,0.0093
1490.00,0.0097
1489.00,0.0103
1488.00,0.0108
1487.00,0.0112
1486.00,0.0116
1485.00,0.0121
1484.00,0.0128
1483.00,0.0134
1482.00,0.0143
1481.00,0.0153
1480.00,0.0164
1479.00,0.0175
1478.00,0.0189
1477.00,0.0209
1476.00,0.0234
1475.00,0.0263
1474.00,0.0303
1473.00,0.0359
1472.00,0.0425
1471.00,0.0488
1470.00,0.0547
1469.00,0.0610
1468.00,0.0677
1467.00,0.0751
1466.00,0.0835
1465.00,0.0926
1464.00,0.1005
1463.00,0.1059
1462.00,0.1092
1461.00,0.1115
1460.00,0.1131
1459.00,0.1141
1458.00,0.1151
1457.00,0.1160
1456.00,0.1161
1455.00,0.1154
1454.00,0.1143
1453.00,0.1127
1452.00,0.1102
1451.00,0.1066
1450.00,0.1018
1449.00,0.0950
1448.00,0.0863
1447.00,0.0771
1446.00,0.0687
1445.00,0.0614
1444.00,0.0551
1443.00,0.0500
1442.00,0.0461
1441.00,0.0433
1440.00,0.0416
1439.00,0.0408
1438.00,0.0407
1437.00,0.0406
1436.00,0.0396
1435.00,0.0372
1434.00,0.0338
1433.00,0.0298
1432.00,0.0256
1431.00,0.0219
1430.00,0.0191
1429.00,0.0169
1428.00,0.0153
1427.00,0.0144
1426.00,0.0137
1425.00,0.0132
1424.00,0.0127
1423.00,0.0123
1422.00,0.0122
1421.00,0.0119
1420.00,0.0116
1419.00,0.0113
1418.00,0.0111
1417.00,0.0109
1416.00,0.0107
1415.00,0.0105
1414.00,0.0105
1413.00,0.0103
1412.00,0.0102
1411.00,0.0101
1410.00,0.0101
1409.00,0.0101
1408.00,0.0100
1407.00,0.0100
1406.00,0.0101
1405.00,0.0101
1404.00,0.0100
1403.00,0.0101
1402.00,0.0103
1401.00,0.0104
1400.00,0.0105
1399.00,0.0107
1398.00,0.0110
1397.00,0.0112
1396.00,0.0114
1395.00,0.0117
1394.00,0.0122
1393.00,0.0126
1392.00,0.0131
1391.00,0.0138
1390.00,0.0149
1389.00,0.0163
1388.00,0.0183
1387.00,0.0214
1386.00,0.0256
1385.00,0.0310
1384.00,0.0385
1383.00,0.0489
1382.00,0.0631
1381.00,0.0812
1380.00,0.1035
1379.00,0.1287
1378.00,0.1527
1377.00,0.1700
1376.00,0.1752
1375.00,0.1657
1374.00,0.1443
1373.00,0.1188
1372.00,0.0959
1371.00,0.0771
1370.00,0.0622
1369.00,0.0510
1368.00,0.0433
1367.00,0.0385
1366.00,0.0359
1365.00,0.0348
1364.00,0.0349
1363.00,0.0361
1362.00,0.0380
1361.00,0.0401
1360.00,0.0416
1359.00,0.0420
1358.00,0.0410
1357.00,0.0387
1356.00,0.0354
1355.00,0.0318
1354.00,0.0282
1353.00,0.0251
1352.00,0.0226
1351.00,0.0206
1350.00,0.0189
1349.00,0.0175
1348.00,0.0164
1347.00,0.0154
1346.00,0.0145
1345.00,0.0138
1344.00,0.0132
1343.00,0.0127
1342.00,0.0123
1341.00,0.0120
1340.00,0.0117
1339.00,0.0115
1338.00,0.0114
1337.00,0.0113
1336.00,0.0114
1335.00,0.0115
1334.00,0.0118
1333.00,0.0121
1332.00,0.0124
1331.00,0.0127
1330.00,0.0128
1329.00,0.0127
1328.00,0.0124
1327.00,0.0120
1326.00,0.0115
1325.00,0.0110
1324.00,0.0104
1323.00,0.0099
1322.00,0.0095
1321.00,0.0093
1320.00,0.0091
1319.00,0.0090
1318.00,0.0089
1317.00,0.0087
1316.00,0.0086
1315.00,0.0085
1314.00,0.0084
1313.00,0.0084
1312.00,0.0086
1311.00,0.0088
1310.00,0.0093
1309.00,0.0099
1308.00,0.0109
1307.00,0.0120
1306.00,0.0132
1305.00,0.0140
1304.00,0.0142
1303.00,0.0138
1302.00,0.0132
1301.00,0.0125
1300.00,0.0121
1299.00,0.0120
1298.00,0.0119
1297.00,0.0119
1296.00,0.0118
1295.00,0.0115
1294.00,0.0111
1293.00,0.0106
1292.00,0.0101
1291.00,0.0095
1290.00,0.0091
1289.00,0.0087
1288.00,0.0084
1287.00,0.0082
1286.00,0.0080
1285.00,0.0078
1284.00,0.0076
1283.00,0.0075
1282.00,0.0074
1281.00,0.0072
1280.00,0.0071
1279.00,0.0071
1278.00,0.0071
1277.00,0.0071
1276.00,0.0070
1275.00,0.0070
1274.00,0.0070
1273.00,0.0071
1272.00,0.0071
1271.00,0.0072
1270.00,0.0073
1269.00,0.0074
1268.00,0.0076
1267.00,0.0078
1266.00,0.0080
1265.00,0.0083
1264.00,0.0086
1263.00,0.0089
1262.00,0.0093
1261.00,0.0098
1260.00,0.0104
1259.00,0.0110
1258.00,0.0118
1257.00,0.0124
1256.00,0.0128
1255.00,0.0127
1254.00,0.0121
1253.00,0.0112
1252.00,0.0102
1251.00,0.0095
1250.00,0.0089
1249.00,0.0086
1248.00,0.0083
1247.00,0.0081
1246.00,0.0078
1245.00,0.0077
1244.00,0.0075
1243.00,0.0075
1242.00,0.0074
1241.00,0.0074
1240.00,0.0074
1239.00,0.0073
1238.00,0.0073
1237.00,0.0073
1236.00,0.0073
1235.00,0.0073
1234.00,0.0074
1233.00,0.0074
1232.00,0.0075
1231.00,0.0075
1230.00,0.0076
1229.00,0.0077
1228.00,0.0078
1227.00,0.0079
1226.00,0.0081
1225.00,0.0084
1224.00,0.0087
1223.00,0.0090
1222.00,0.0093
1221.00,0.0096
1220.00,0.0098
1219.00,0.0099
1218.00,0.0099
1217.00,0.0098
1216.00,0.0095
1215.00,0.0092
1214.00,0.0089
1213.00,0.0086
1212.00,0.0084
1211.00,0.0081
1210.00,0.0080
1209.00,0.0079
1208.00,0.0078
1207.00,0.0078
1206.00,0.0077
1205.00,0.0076
1204.00,0.0075
1203.00,0.0075
1202.00,0.0075
1201.00,0.0075
1200.00,0.0074
1199.00,0.0074
1198.00,0.0074
1197.00,0.0073
1196.00,0.0072
1195.00,0.0071
1194.00,0.0071
1193.00,0.0072
1192.00,0.0072
1191.00,0.0072
1190.00,0.0072
1189.00,0.0071
1188.00,0.0070
1187.00,0.0070
1186.00,0.0070
1185.00,0.0072
1184.00,0.0074
1183.00,0.0076
1182.00,0.0078
1181.00,0.0081
1180.00,0.0084
1179.00,0.0089
1178.00,0.0096
1177.00,0.0104
1176.00,0.0116
1175.00,0.0131
1174.00,0.0151
1173.00,0.0176
1172.00,0.0207
1171.00,0.0241
1170.00,0.0275
1169.00,0.0302
1168.00,0.0319
1167.00,0.0323
1166.00,0.0315
1165.00,0.0299
1164.00,0.0279
1163.00,0.0260
1162.00,0.0243
1161.00,0.0229
1160.00,0.0217
1159.00,0.0209
1158.00,0.0203
1157.00,0.0199
1156.00,0.0196
1155.00,0.0194
1154.00,0.0192
1153.00,0.0189
1152.00,0.0184
1151.00,0.0177
1150.00,0.0168
1149.00,0.0158
1148.00,0.0149
1147.00,0.0140
1146.00,0.0132
1145.00,0.0124
1144.00,0.0117
1143.00,0.0111
1142.00,0.0106
1141.00,0.0100
1140.00,0.0095
1139.00,0.0090
1138.00,0.0086
1137.00,0.0083
1136.00,0.0081
1135.00,0.0079
1134.00,0.0077
1133.00,0.0075
1132.00,0.0074
1131.00,0.0073
1130.00,0.0073
1129.00,0.0072
1128.00,0.0073
1127.00,0.0073
1126.00,0.0074
1125.00,0.0075
1124.00,0.0076
1123.00,0.0077
1122.00,0.0078
1121.00,0.0078
1120.00,0.0079
1119.00,0.0080
1118.00,0.0081
1117.00,0.0081
1116.00,0.0082
1115.00,0.0084
1114.00,0.0085
1113.00,0.0087
1112.00,0.0089
1111.00,0.0091
1110.00,0.0094
1109.00,0.0099
1108.00,0.0104
1107.00,0.0110
1106.00,0.0117
1105.00,0.0123
1104.00,0.0128
1103.00,0.0129
1102.00,0.0128
1101.00,0.0124
1100.00,0.0118
1099.00,0.0112
1098.00,0.0106
1097.00,0.0101
1096.00,0.0097
1095.00,0.0095
1094.00,0.0093
1093.00,0.0091
1092.00,0.0089
1091.00,0.0087
1090.00,0.0086
1089.00,0.0084
1088.00,0.0083
1087.00,0.0083
1086.00,0.0082
1085.00,0.0083
1084.00,0.0082
1083.00,0.0081
1082.00,0.0080
1081.00,0.0079
1080.00,0.0078
1079.00,0.0077
1078.00,0.0076
1077.00,0.0075
1076.00,0.0073
1075.00,0.0072
1074.00,0.0072
1073.00,0.0072
1072.00,0.0072
1071.00,0.0072
1070.00,0.0072
1069.00,0.0072
1068.00,0.0072
1067.00,0.0072
1066.00,0.0072
1065.00,0.0072
1064.00,0.0072
1063.00,0.0072
1062.00,0.0073
1061.00,0.0073
1060.00,0.0074
1059.00,0.0075
1058.00,0.0075
1057.00,0.0075
1056.00,0.0076
1055.00,0.0077
1054.00,0.0077
1053.00,0.0078
1052.00,0.0079
1051.00,0.0080
1050.00,0.0082
1049.00,0.0086
1048.00,0.0089
1047.00,0.0093
1046.00,0.0096
1045.00,0.0097
1044.00,0.0096
1043.00,0.0095
1042.00,0.0092
1041.00,0.0089
1040.00,0.0087
1039.00,0.0086
1038.00,0.0086
1037.00,0.0087
1036.00,0.0088
1035.00,0.0088
1034.00,0.0088
1033.00,0.0086
1032.00,0.0084
1031.00,0.0081
1030.00,0.0079
1029.00,0.0078
1028.00,0.0077
1027.00,0.0078
1026.00,0.0078
1025.00,0.0078
1024.00,0.0078
1023.00,0.0079
1022.00,0.0079
1021.00,0.0079
1020.00,0.0080
1019.00,0.0081
1018.00,0.0082
1017.00,0.0083
1016.00,0.0084
1015.00,0.0085
1014.00,0.0087
1013.00,0.0090
1012.00,0.0092
1011.00,0.0095
1010.00,0.0099
1009.00,0.0103
1008.00,0.0108
1007.00,0.0115
1006.00,0.0124
1005.00,0.0137
1004.00,0.0155
1003.00,0.0179
1002.00,0.0212
1001.00,0.0253
1000.00,0.0297
999.00,0.0336
998.00,0.0356
997.00,0.0352
996.00,0.0323
995.00,0.0280
994.00,0.0236
993.00,0.0197
992.00,0.0168
991.00,0.0146
990.00,0.0131
989.00,0.0121
988.00,0.0115
987.00,0.0112
986.00,0.0112
985.00,0.0113
984.00,0.0117
983.00,0.0123
982.00,0.0133
981.00,0.0148
980.00,0.0169
979.00,0.0198
978.00,0.0235
977.00,0.0279
976.00,0.0328
975.00,0.0376
974.00,0.0413
973.00,0.0428
972.00,0.0415
971.00,0.0376
970.00,0.0321
969.00,0.0265
968.00,0.0216
967.00,0.0179
966.00,0.0153
965.00,0.0135
964.00,0.0123
963.00,0.0113
962.00,0.0105
961.00,0.0099
960.00,0.0094
959.00,0.0089
958.00,0.0086
957.00,0.0084
956.00,0.0082
955.00,0.0080
954.00,0.0078
953.00,0.0076
952.00,0.0075
951.00,0.0074
950.00,0.0074
949.00,0.0074
948.00,0.0074
947.00,0.0074
946.00,0.0075
945.00,0.0077
944.00,0.0080
943.00,0.0084
942.00,0.0087
941.00,0.0090
940.00,0.0091
939.00,0.0089
938.00,0.0085
937.00,0.0081
936.00,0.0076
935.00,0.0071
934.00,0.0068
933.00,0.0065
932.00,0.0064
931.00,0.0063
930.00,0.0062
929.00,0.0062
928.00,0.0061
927.00,0.0061
926.00,0.0060
925.00,0.0060
924.00,0.0060
923.00,0.0060
922.00,0.0061
921.00,0.0061
920.00,0.0060
919.00,0.0060
918.00,0.0060
917.00,0.0061
916.00,0.0062
915.00,0.0064
914.00,0.0066
913.00,0.0068
912.00,0.0070
911.00,0.0072
910.00,0.0073
909.00,0.0075
908.00,0.0077
907.00,0.0081
906.00,0.0086
905.00,0.0095
904.00,0.0107
903.00,0.0123
902.00,0.0140
901.00,0.0156
900.00,0.0166
899.00,0.0169
898.00,0.0163
897.00,0.0150
896.00,0.0133
895.00,0.0118
894.00,0.0105
893.00,0.0094
892.00,0.0087
891.00,0.0082
890.00,0.0078
889.00,0.0075
888.00,0.0074
887.00,0.0073
886.00,0.0073
885.00,0.0072
884.00,0.0071
883.00,0.0070
882.00,0.0069
881.00,0.0069
880.00,0.0069
879.00,0.0071
878.00,0.0072
877.00,0.0073
876.00,0.0074
875.00,0.0074
874.00,0.0075
873.00,0.0075
872.00,0.0075
871.00,0.0075
870.00,0.0075
869.00,0.0075
868.00,0.0074
867.00,0.0075
866.00,0.0075
865.00,0.0076
864.00,0.0077
863.00,0.0078
862.00,0.0080
861.00,0.0082
860.00,0.0083
859.00,0.0083
858.00,0.0085
857.00,0.0086
856.00,0.0088
855.00,0.0090
854.00,0.0093
853.00,0.0096
852.00,0.0099
851.00,0.0103
850.00,0.0107
849.00,0.0112
848.00,0.0121
847.00,0.0135
846.00,0.0158
845.00,0.0194
844.00,0.0243
843.00,0.0301
842.00,0.0350
841.00,0.0369
840.00,0.0346
839.00,0.0294
838.00,0.0233
837.00,0.0184
836.00,0.0152
835.00,0.0134
834.00,0.0124
833.00,0.0118
832.00,0.0114
831.00,0.0112
830.00,0.0110
829.00,0.0108
828.00,0.0106
827.00,0.0104
826.00,0.0103
825.00,0.0101
824.00,0.0101
823.00,0.0100
822.00,0.0101
821.00,0.0102
820.00,0.0104
819.00,0.0106
818.00,0.0110
817.00,0.0115
816.00,0.0122
815.00,0.0133
814.00,0.0147
813.00,0.0164
812.00,0.0182
811.00,0.0200
810.00,0.0212
809.00,0.0217
808.00,0.0213
807.00,0.0200
806.00,0.0182
805.00,0.0164
804.00,0.0148
803.00,0.0135
802.00,0.0127
801.00,0.0121
800.00,0.0116
799.00,0.0111
798.00,0.0108
797.00,0.0105
796.00,0.0103
795.00,0.0100
794.00,0.0095
793.00,0.0090
792.00,0.0086
791.00,0.0082
790.00,0.0080
789.00,0.0077
788.00,0.0074
787.00,0.0072
786.00,0.0070
785.00,0.0067
784.00,0.0066
783.00,0.0066
782.00,0.0065
781.00,0.0064
780.00,0.0062
779.00,0.0061
778.00,0.0062
777.00,0.0064
776.00,0.0064
775.00,0.0064
774.00,0.0063
773.00,0.0061
772.00,0.0061
771.00,0.0061
770.00,0.0063
769.00,0.0066
768.00,0.0067
767.00,0.0067
766.00,0.0067
765.00,0.0066
764.00,0.0066
763.00,0.0067
762.00,0.0068
761.00,0.0068
760.00,0.0069
759.00,0.0070
758.00,0.0071
757.00,0.0072
756.00,0.0072
755.00,0.0072
754.00,0.0072
753.00,0.0072
752.00,0.0071
751.00,0.0071
750.00,0.0073
749.00,0.0076
748.00,0.0079
747.00,0.0080
746.00,0.0080
745.00,0.0080
744.00,0.0082
743.00,0.0084
742.00,0.0087
741.00,0.0091
740.00,0.0094
739.00,0.0097
738.00,0.0101
737.00,0.0105
736.00,0.0108
735.00,0.0112
734.00,0.0118
733.00,0.0125
732.00,0.0134
731.00,0.0143
730.00,0.0150
729.00,0.0153
728.00,0.0154
727.00,0.0152
726.00,0.0152
725.00,0.0153
724.00,0.0158
723.00,0.0165
722.00,0.0174
721.00,0.0179
720.00,0.0179
719.00,0.0171
718.00,0.0159
717.00,0.0145
716.00,0.0133
715.00,0.0124
714.00,0.0117
713.00,0.0111
712.00,0.0106
711.00,0.0102
710.00,0.0100
709.00,0.0098
708.00,0.0098
707.00,0.0100
706.00,0.0101
705.00,0.0101
704.00,0.0100
703.00,0.0097
702.00,0.0095
701.00,0.0093
700.00,0.0092
699.00,0.0092
698.00,0.0093
697.00,0.0094
696.00,0.0094
695.00,0.0092
694.00,0.0090
693.00,0.0088
692.00,0.0088
691.00,0.0089
690.00,0.0090
689.00,0.0089
688.00,0.0088
687.00,0.0087
686.00,0.0086
685.00,0.0085
684.00,0.0084
683.00,0.0082
682.00,0.0082
681.00,0.0082
680.00,0.0082
679.00,0.0083
678.00,0.0084
677.00,0.0085
676.00,0.0085
675.00,0.0086
674.00,0.0088
673.00,0.0089
672.00,0.0090
671.00,0.0090
670.00,0.0090
669.00,0.0090
668.00,0.0090
667.00,0.0091
666.00,0.0090
665.00,0.0089
664.00,0.0088
663.00,0.0086
662.00,0.0085
661.00,0.0086
660.00,0.0087
659.00,0.0088
658.00,0.0088
657.00,0.0088
656.00,0.0087
655.00,0.0086
654.00,0.0085
653.00,0.0083
652.00,0.0081
651.00,0.0081
650.00,0.0081
649.00,0.0083
648.00,0.0084
647.00,0.0085
646.00,0.0085
645.00,0.0085
644.00,0.0085
643.00,0.0085
642.00,0.0083
641.00,0.0080
640.00,0.0077
639.00,0.0076
638.00,0.0077
637.00,0.0079
636.00,0.0079
635.00,0.0080
634.00,0.0080
633.00,0.0081
632.00,0.0081
631.00,0.0082
630.00,0.0082
629.00,0.0081
628.00,0.0081
627.00,0.0081
626.00,0.0082
625.00,0.0083
624.00,0.0084
623.00,0.0084
622.00,0.0082
621.00,0.0079
620.00,0.0078
619.00,0.0078
618.00,0.0079
617.00,0.0080
616.00,0.0081
615.00,0.0082
614.00,0.0084
613.00,0.0086
612.00,0.0086
611.00,0.0085
610.00,0.0083
609.00,0.0081
608.00,0.0078
607.00,0.0077
606.00,0.0077
605.00,0.0078
604.00,0.0081
603.00,0.0084
602.00,0.0085
601.00,0.0086
600.00,0.0087
599.00,0.0087
598.00,0.0085
597.00,0.0080
596.00,0.0076
595.00,0.0075
594.00,0.0076
593.00,0.0079
592.00,0.0082
591.00,0.0082
590.00,0.0081
589.00,0.0080
588.00,0.0080
587.00,0.0081
586.00,0.0081
585.00,0.0081
584.00,0.0081
583.00,0.0081
582.00,0.0081
581.00,0.0081
580.00,0.0080
579.00,0.0080
578.00,0.0081
577.00,0.0084
576.00,0.0089
575.00,0.0092
574.00,0.0092
573.00,0.0089
572.00,0.0085
571.00,0.0083
570.00,0.0084
569.00,0.0086
568.00,0.0088
567.00,0.0088
566.00,0.0087
565.00,0.0087
564.00,0.0087
563.00,0.0088
562.00,0.0089
561.00,0.0088
560.00,0.0088
559.00,0.0088
558.00,0.0089
557.00,0.0089
556.00,0.0086
555.00,0.0081
554.00,0.0076
553.00,0.0073
552.00,0.0072
551.00,0.0074
550.00,0.0077
549.00,0.0082
548.00,0.0085
547.00,0.0085
546.00,0.0082
545.00,0.0078
544.00,0.0076
543.00,0.0076
542.00,0.0079
541.00,0.0085
540.00,0.0092
539.00,0.0097
538.00,0.0099
537.00,0.0097
536.00,0.0094
535.00,0.0092
534.00,0.0089
533.00,0.0088
532.00,0.0090
531.00,0.0094
530.00,0.0095
529.00,0.0095
528.00,0.0094
527.00,0.0096
526.00,0.0097
525.00,0.0096
524.00,0.0093
523.00,0.0092
522.00,0.0093
521.00,0.0092
520.00,0.0090
519.00,0.0087
518.00,0.0086
517.00,0.0088
516.00,0.0091
515.00,0.0094
514.00,0.0097
513.00,0.0097
512.00,0.0092
511.00,0.0084
510.00,0.0077
509.00,0.0074
508.00,0.0077
507.00,0.0084
506.00,0.0088
505.00,0.0089
504.00,0.0088
503.00,0.0087
502.00,0.0089
501.00,0.0090
500.00,0.0087
499.00,0.0080
498.00,0.0071
497.00,0.0064
496.00,0.0061
495.00,0.0061
494.00,0.0062
493.00,0.0062
492.00,0.0061
491.00,0.0062
490.00,0.0064
489.00,0.0064
488.00,0.0059
487.00,0.0053
486.00,0.0050
485.00,0.0057
484.00,0.0071
483.00,0.0085
482.00,0.0093
481.00,0.0092
480.00,0.0087
479.00,0.0081
478.00,0.0079
477.00,0.0079
476.00,0.0082
475.00,0.0086
474.00,0.0088
473.00,0.0088
472.00,0.0088
471.00,0.0087
470.00,0.0087
469.00,0.0087
468.00,0.0088
467.00,0.0094
466.00,0.0102
465.00,0.0108
464.00,0.0114
463.00,0.0126
462.00,0.0149
461.00,0.0173
460.00,0.0188
459.00,0.0187
458.00,0.0173
457.00,0.0155
456.00,0.0141
455.00,0.0129
454.00,0.0120
453.00,0.0116
452.00,0.0117
451.00,0.0120
450.00,0.0120
