Created as New Dataset,Sample 020 By Administrator Date Thursday, September 04 2025
cm-1,A
4000.00,0.0009
3999.00,0.0009
3998.00,0.0009
3997.00,0.0009
3996.00,0.0009
3995.00,0.0009
3994.00,0.0009
3993.00,0.0009
3992.00,0.0009
3991.00,0.0009
3990.00,0.0009
3989.00,0.0009
3988.00,0.0009
3987.00,0.0008
3986.00,0.0008
3985.00,0.0008
3984.00,0.0008
3983.00,0.0008
3982.00,0.0008
3981.00,0.0007
3980.00,0.0007
3979.00,0.0007
3978.00,0.0007
3977.00,0.0008
3976.00,0.0008
3975.00,0.0008
3974.00,0.0009
3973.00,0.0009
3972.00,0.0009
3971.00,0.0009
3970.00,0.0009
3969.00,0.0009
3968.00,0.0009
3967.00,0.0009
3966.00,0.0008
3965.00,0.0008
3964.00,0.0008
3963.00,0.0007
3962.00,0.0007
3961.00,0.0007
3960.00,0.0008
3959.00,0.0008
3958.00,0.0008
3957.00,0.0008
3956.00,0.0008
3955.00,0.0008
3954.00,0.0008
3953.00,0.0008
3952.00,0.0008
3951.00,0.0007
3950.00,0.0007
3949.00,0.0007
3948.00,0.0007
3947.00,0.0007
3946.00,0.0007
3945.00,0.0008
3944.00,0.0008
3943.00,0.0008
3942.00,0.0008
3941.00,0.0008
3940.00,0.0008
3939.00,0.0008
3938.00,0.0008
3937.00,0.0008
3936.00,0.0008
3935.00,0.0008
3934.00,0.0008
3933.00,0.0008
3932.00,0.0008
3931.00,0.0007
3930.00,0.0007
3929.00,0.0007
3928.00,0.0008
3927.00,0.0008
3926.00,0.0008
3925.00,0.0008
3924.00,0.0008
3923.00,0.0008
3922.00,0.0008
3921.00,0.0008
3920.00,0.0008
3919.00,0.0008
3918.00,0.0008
3917.00,0.0008
3916.00,0.0008
3915.00,0.0008
3914.00,0.0008
3913.00,0.0008
3912.00,0.0008
3911.00,0.0008
3910.00,0.0007
3909.00,0.0008
3908.00,0.0008
3907.00,0.0008
3906.00,0.0008
3905.00,0.0008
3904.00,0.0007
3903.00,0.0007
3902.00,0.0007
3901.00,0.0006
3900.00,0.0006
3899.00,0.0006
3898.00,0.0006
3897.00,0.0007
3896.00,0.0007
3895.00,0.0007
3894.00,0.0007
3893.00,0.0007
3892.00,0.0006
3891.00,0.0006
3890.00,0.0006
3889.00,0.0006
3888.00,0.0006
3887.00,0.0006
3886.00,0.0006
3885.00,0.0006
3884.00,0.0006
3883.00,0.0006
3882.00,0.0007
3881.00,0.0007
3880.00,0.0007
3879.00,0.0006
3878.00,0.0006
3877.00,0.0006
3876.00,0.0006
3875.00,0.0006
3874.00,0.0007
3873.00,0.0007
3872.00,0.0006
3871.00,0.0006
3870.00,0.0006
3869.00,0.0005
3868.00,0.0005
3867.00,0.0005
3866.00,0.0006
3865.00,0.0006
3864.00,0.0006
3863.00,0.0006
3862.00,0.0006
3861.00,0.0006
3860.00,0.0006
3859.00,0.0006
3858.00,0.0005
3857.00,0.0005
3856.00,0.0005
3855.00,0.0005
3854.00,0.0005
3853.00,0.0004
3852.00,0.0004
3851.00,0.0004
3850.00,0.0004
3849.00,0.0005
3848.00,0.0005
3847.00,0.0006
3846.00,0.0006
3845.00,0.0006
3844.00,0.0006
3843.00,0.0006
3842.00,0.0006
3841.00,0.0005
3840.00,0.0005
3839.00,0.0005
3838.00,0.0005
3837.00,0.0005
3836.00,0.0005
3835.00,0.0005
3834.00,0.0006
3833.00,0.0007
3832.00,0.0007
3831.00,0.0008
3830.00,0.0007
3829.00,0.0007
3828.00,0.0007
3827.00,0.0006
3826.00,0.0006
3825.00,0.0006
3824.00,0.0005
3823.00,0.0005
3822.00,0.0005
3821.00,0.0005
3820.00,0.0005
3819.00,0.0005
3818.00,0.0005
3817.00,0.0005
3816.00,0.0006
3815.00,0.0006
3814.00,0.0006
3813.00,0.0007
3812.00,0.0007
3811.00,0.0007
3810.00,0.0007
3809.00,0.0007
3808.00,0.0006
3807.00,0.0006
3806.00,0.0006
3805.00,0.0006
3804.00,0.0006
3803.00,0.0005
3802.00,0.0005
3801.00,0.0006
3800.00,0.0006
3799.00,0.0006
3798.00,0.0007
3797.00,0.0007
3796.00,0.0007
3795.00,0.0007
3794.00,0.0007
3793.00,0.0007
3792.00,0.0007
3791.00,0.0006
3790.00,0.0006
3789.00,0.0006
3788.00,0.0006
3787.00,0.0006
3786.00,0.0006
3785.00,0.0006
3784.00,0.0006
3783.00,0.0006
3782.00,0.0006
3781.00,0.0006
3780.00,0.0006
3779.00,0.0006
3778.00,0.0007
3777.00,0.0007
3776.00,0.0007
3775.00,0.0007
3774.00,0.0006
3773.00,0.0006
3772.00,0.0006
3771.00,0.0006
3770.00,0.0006
3769.00,0.0006
3768.00,0.0007
3767.00,0.0007
3766.00,0.0007
3765.00,0.0007
3764.00,0.0007
3763.00,0.0007
3762.00,0.0007
3761.00,0.0007
3760.00,0.0007
3759.00,0.0007
3758.00,0.0007
3757.00,0.0006
3756.00,0.0006
3755.00,0.0006
3754.00,0.0006
3753.00,0.0006
3752.00,0.0005
3751.00,0.0005
3750.00,0.0004
3749.00,0.0004
3748.00,0.0004
3747.00,0.0004
3746.00,0.0003
3745.00,0.0003
3744.00,0.0003
3743.00,0.0003
3742.00,0.0004
3741.00,0.0005
3740.00,0.0005
3739.00,0.0005
3738.00,0.0005
3737.00,0.0004
3736.00,0.0004
3735.00,0.0004
3734.00,0.0004
3733.00,0.0004
3732.00,0.0005
3731.00,0.0005
3730.00,0.0005
3729.00,0.0005
3728.00,0.0005
3727.00,0.0005
3726.00,0.0005
3725.00,0.0005
3724.00,0.0005
3723.00,0.0005
3722.00,0.0005
3721.00,0.0005
3720.00,0.0005
3719.00,0.0005
3718.00,0.0005
3717.00,0.0005
3716.00,0.0006
3715.00,0.0006
3714.00,0.0006
3713.00,0.0006
3712.00,0.0005
3711.00,0.0005
3710.00,0.0005
3709.00,0.0005
3708.00,0.0005
3707.00,0.0005
3706.00,0.0005
3705.00,0.0005
3704.00,0.0005
3703.00,0.0005
3702.00,0.0005
3701.00,0.0006
3700.00,0.0006
3699.00,0.0006
3698.00,0.0006
3697.00,0.0006
3696.00,0.0006
3695.00,0.0005
3694.00,0.0005
3693.00,0.0005
3692.00,0.0005
3691.00,0.0005
3690.00,0.0005
3689.00,0.0005
3688.00,0.0005
3687.00,0.0006
3686.00,0.0006
3685.00,0.0006
3684.00,0.0007
3683.00,0.0007
3682.00,0.0007
3681.00,0.0007
3680.00,0.0007
3679.00,0.0007
3678.00,0.0008
3677.00,0.0007
3676.00,0.0007
3675.00,0.0007
3674.00,0.0007
3673.00,0.0007
3672.00,0.0008
3671.00,0.0008
3670.00,0.0007
3669.00,0.0007
3668.00,0.0007
3667.00,0.0008
3666.00,0.0008
3665.00,0.0009
3664.00,0.0009
3663.00,0.0010
3662.00,0.0010
3661.00,0.0010
3660.00,0.0010
3659.00,0.0010
3658.00,0.0010
3657.00,0.0010
3656.00,0.0010
3655.00,0.0010
3654.00,0.0010
3653.00,0.0010
3652.00,0.0010
3651.00,0.0010
3650.00,0.0009
3649.00,0.0009
3648.00,0.0009
3647.00,0.0009
3646.00,0.0009
3645.00,0.0009
3644.00,0.0009
3643.00,0.0009
3642.00,0.0010
3641.00,0.0010
3640.00,0.0010
3639.00,0.0010
3638.00,0.0010
3637.00,0.0010
3636.00,0.0010
3635.00,0.0010
3634.00,0.0009
3633.00,0.0009
3632.00,0.0009
3631.00,0.0009
3630.00,0.0009
3629.00,0.0009
3628.00,0.0009
3627.00,0.0009
3626.00,0.0009
3625.00,0.0009
3624.00,0.0009
3623.00,0.0009
3622.00,0.0008
3621.00,0.0008
3620.00,0.0008
3619.00,0.0008
3618.00,0.0008
3617.00,0.0008
3616.00,0.0008
3615.00,0.0008
3614.00,0.0008
3613.00,0.0008
3612.00,0.0009
3611.00,0.0009
3610.00,0.0009
3609.00,0.0010
3608.00,0.0010
3607.00,0.0010
3606.00,0.0010
3605.00,0.0011
3604.00,0.0011
3603.00,0.0011
3602.00,0.0011
3601.00,0.0011
3600.00,0.0011
3599.00,0.0011
3598.00,0.0011
3597.00,0.0011
3596.00,0.0011
3595.00,0.0012
3594.00,0.0012
3593.00,0.0012
3592.00,0.0012
3591.00,0.0012
3590.00,0.0012
3589.00,0.0013
3588.00,0.0013
3587.00,0.0013
3586.00,0.0013
3585.00,0.0013
3584.00,0.0013
3583.00,0.0014
3582.00,0.0014
3581.00,0.0014
3580.00,0.0014
3579.00,0.0014
3578.00,0.0014
3577.00,0.0015
3576.00,0.0015
3575.00,0.0015
3574.00,0.0015
3573.00,0.0015
3572.00,0.0015
3571.00,0.0016
3570.00,0.0016
3569.00,0.0016
3568.00,0.0016
3567.00,0.0017
3566.00,0.0018
3565.00,0.0019
3564.00,0.0019
3563.00,0.0019
3562.00,0.0019
3561.00,0.0019
3560.00,0.0019
3559.00,0.0019
3558.00,0.0019
3557.00,0.0019
3556.00,0.0020
3555.00,0.0020
3554.00,0.0021
3553.00,0.0021
3552.00,0.0021
3551.00,0.0021
3550.00,0.0021
3549.00,0.0022
3548.00,0.0022
3547.00,0.0023
3546.00,0.0023
3545.00,0.0024
3544.00,0.0024
3543.00,0.0024
3542.00,0.0024
3541.00,0.0024
3540.00,0.0024
3539.00,0.0024
3538.00,0.0024
3537.00,0.0024
3536.00,0.0025
3535.00,0.0025
3534.00,0.0026
3533.00,0.0026
3532.00,0.0026
3531.00,0.0026
3530.00,0.0026
3529.00,0.0026
3528.00,0.0026
3527.00,0.0027
3526.00,0.0027
3525.00,0.0028
3524.00,0.0028
3523.00,0.0028
3522.00,0.0028
3521.00,0.0028
3520.00,0.0029
3519.00,0.0029
3518.00,0.0029
3517.00,0.0029
3516.00,0.0029
3515.00,0.0029
3514.00,0.0029
3513.00,0.0029
3512.00,0.0030
3511.00,0.0030
3510.00,0.0031
3509.00,0.0031
3508.00,0.0031
3507.00,0.0032
3506.00,0.0032
3505.00,0.0032
3504.00,0.0032
3503.00,0.0033
3502.00,0.0033
3501.00,0.0033
3500.00,0.0034
3499.00,0.0034
3498.00,0.0035
3497.00,0.0035
3496.00,0.0035
3495.00,0.0035
3494.00,0.0035
3493.00,0.0035
3492.00,0.0036
3491.00,0.0036
3490.00,0.0036
3489.00,0.0036
3488.00,0.0036
3487.00,0.0036
3486.00,0.0037
3485.00,0.0037
3484.00,0.0037
3483.00,0.0037
3482.00,0.0038
3481.00,0.0038
3480.00,0.0038
3479.00,0.0038
3478.00,0.0038
3477.00,0.0039
3476.00,0.0039
3475.00,0.0039
3474.00,0.0040
3473.00,0.0040
3472.00,0.0040
3471.00,0.0041
3470.00,0.0041
3469.00,0.0041
3468.00,0.0041
3467.00,0.0041
3466.00,0.0042
3465.00,0.0043
3464.00,0.0043
3463.00,0.0044
3462.00,0.0045
3461.00,0.0045
3460.00,0.0045
3459.00,0.0045
3458.00,0.0045
3457.00,0.0045
3456.00,0.0045
3455.00,0.0045
3454.00,0.0045
3453.00,0.0045
3452.00,0.0045
3451.00,0.0045
3450.00,0.0045
3449.00,0.0045
3448.00,0.0045
3447.00,0.0046
3446.00,0.0046
3445.00,0.0047
3444.00,0.0047
3443.00,0.0048
3442.00,0.0048
3441.00,0.0048
3440.00,0.0048
3439.00,0.0048
3438.00,0.0048
3437.00,0.0048
3436.00,0.0049
3435.00,0.0049
3434.00,0.0049
3433.00,0.0049
3432.00,0.0049
3431.00,0.0049
3430.00,0.0049
3429.00,0.0050
3428.00,0.0049
3427.00,0.0049
3426.00,0.0050
3425.00,0.0050
3424.00,0.0051
3423.00,0.0051
3422.00,0.0051
3421.00,0.0051
3420.00,0.0051
3419.00,0.0050
3418.00,0.0050
3417.00,0.0051
3416.00,0.0052
3415.00,0.0053
3414.00,0.0053
3413.00,0.0054
3412.00,0.0054
3411.00,0.0054
3410.00,0.0054
3409.00,0.0054
3408.00,0.0054
3407.00,0.0054
3406.00,0.0054
3405.00,0.0053
3404.00,0.0053
3403.00,0.0054
3402.00,0.0054
3401.00,0.0054
3400.00,0.0054
3399.00,0.0054
3398.00,0.0054
3397.00,0.0054
3396.00,0.0054
3395.00,0.0054
3394.00,0.0054
3393.00,0.0054
3392.00,0.0054
3391.00,0.0054
3390.00,0.0054
3389.00,0.0054
3388.00,0.0054
3387.00,0.0055
3386.00,0.0055
3385.00,0.0055
3384.00,0.0055
3383.00,0.0055
3382.00,0.0056
3381.00,0.0056
3380.00,0.0056
3379.00,0.0056
3378.00,0.0056
3377.00,0.0056
3376.00,0.0056
3375.00,0.0056
3374.00,0.0056
3373.00,0.0057
3372.00,0.0057
3371.00,0.0057
3370.00,0.0057
3369.00,0.0057
3368.00,0.0056
3367.00,0.0056
3366.00,0.0057
3365.00,0.0057
3364.00,0.0057
3363.00,0.0057
3362.00,0.0057
3361.00,0.0057
3360.00,0.0057
3359.00,0.0057
3358.00,0.0057
3357.00,0.0057
3356.00,0.0057
3355.00,0.0057
3354.00,0.0058
3353.00,0.0058
3352.00,0.0058
3351.00,0.0058
3350.00,0.0057
3349.00,0.0057
3348.00,0.0057
3347.00,0.0057
3346.00,0.0056
3345.00,0.0056
3344.00,0.0056
3343.00,0.0056
3342.00,0.0056
3341.00,0.0056
3340.00,0.0056
3339.00,0.0056
3338.00,0.0056
3337.00,0.0056
3336.00,0.0056
3335.00,0.0056
3334.00,0.0056
3333.00,0.0056
3332.00,0.0056
3331.00,0.0056
3330.00,0.0056
3329.00,0.0055
3328.00,0.0055
3327.00,0.0054
3326.00,0.0054
3325.00,0.0054
3324.00,0.0054
3323.00,0.0055
3322.00,0.0055
3321.00,0.0054
3320.00,0.0054
3319.00,0.0054
3318.00,0.0054
3317.00,0.0054
3316.00,0.0054
3315.00,0.0054
3314.00,0.0053
3313.00,0.0053
3312.00,0.0054
3311.00,0.0054
3310.00,0.0054
3309.00,0.0054
3308.00,0.0054
3307.00,0.0054
3306.00,0.0054
3305.00,0.0054
3304.00,0.0054
3303.00,0.0054
3302.00,0.0054
3301.00,0.0054
3300.00,0.0054
3299.00,0.0054
3298.00,0.0054
3297.00,0.0053
3296.00,0.0053
3295.00,0.0053
3294.00,0.0052
3293.00,0.0052
3292.00,0.0052
3291.00,0.0051
3290.00,0.0051
3289.00,0.0051
3288.00,0.0051
3287.00,0.0051
3286.00,0.0051
3285.00,0.0051
3284.00,0.0051
3283.00,0.0051
3282.00,0.0050
3281.00,0.0050
3280.00,0.0050
3279.00,0.0049
3278.00,0.0049
3277.00,0.0048
3276.00,0.0048
3275.00,0.0048
3274.00,0.0048
3273.00,0.0048
3272.00,0.0048
3271.00,0.0047
3270.00,0.0047
3269.00,0.0048
3268.00,0.0048
3267.00,0.0048
3266.00,0.0048
3265.00,0.0048
3264.00,0.0047
3263.00,0.0047
3262.00,0.0046
3261.00,0.0046
3260.00,0.0046
3259.00,0.0045
3258.00,0.0045
3257.00,0.0044
3256.00,0.0045
3255.00,0.0045
3254.00,0.0045
3253.00,0.0045
3252.00,0.0045
3251.00,0.0044
3250.00,0.0044
3249.00,0.0044
3248.00,0.0044
3247.00,0.0044
3246.00,0.0044
3245.00,0.0043
3244.00,0.0043
3243.00,0.0043
3242.00,0.0043
3241.00,0.0043
3240.00,0.0043
3239.00,0.0043
3238.00,0.0043
3237.00,0.0043
3236.00,0.0043
3235.00,0.0043
3234.00,0.0043
3233.00,0.0043
3232.00,0.0043
3231.00,0.0043
3230.00,0.0043
3229.00,0.0044
3228.00,0.0044
3227.00,0.0044
3226.00,0.0044
3225.00,0.0043
3224.00,0.0043
3223.00,0.0043
3222.00,0.0043
3221.00,0.0044
3220.00,0.0044
3219.00,0.0045
3218.00,0.0045
3217.00,0.0045
3216.00,0.0045
3215.00,0.0045
3214.00,0.0045
3213.00,0.0045
3212.00,0.0046
3211.00,0.0046
3210.00,0.0046
3209.00,0.0046
3208.00,0.0047
3207.00,0.0047
3206.00,0.0046
3205.00,0.0046
3204.00,0.0046
3203.00,0.0046
3202.00,0.0046
3201.00,0.0046
3200.00,0.0046
3199.00,0.0046
3198.00,0.0046
3197.00,0.0046
3196.00,0.0046
3195.00,0.0046
3194.00,0.0046
3193.00,0.0046
3192.00,0.0046
3191.00,0.0046
3190.00,0.0047
3189.00,0.0047
3188.00,0.0047
3187.00,0.0046
3186.00,0.0045
3185.00,0.0045
3184.00,0.0044
3183.00,0.0044
3182.00,0.0044
3181.00,0.0044
3180.00,0.0043
3179.00,0.0043
3178.00,0.0042
3177.00,0.0042
3176.00,0.0041
3175.00,0.0041
3174.00,0.0041
3173.00,0.0041
3172.00,0.0041
3171.00,0.0042
3170.00,0.0042
3169.00,0.0042
3168.00,0.0042
3167.00,0.0041
3166.00,0.0041
3165.00,0.0040
3164.00,0.0040
3163.00,0.0039
3162.00,0.0039
3161.00,0.0040
3160.00,0.0040
3159.00,0.0040
3158.00,0.0040
3157.00,0.0040
3156.00,0.0040
3155.00,0.0039
3154.00,0.0039
3153.00,0.0039
3152.00,0.0039
3151.00,0.0039
3150.00,0.0039
3149.00,0.0039
3148.00,0.0039
3147.00,0.0039
3146.00,0.0039
3145.00,0.0039
3144.00,0.0039
3143.00,0.0039
3142.00,0.0039
3141.00,0.0039
3140.00,0.0039
3139.00,0.0039
3138.00,0.0039
3137.00,0.0038
3136.00,0.0038
3135.00,0.0038
3134.00,0.0038
3133.00,0.0037
3132.00,0.0037
3131.00,0.0037
3130.00,0.0036
3129.00,0.0036
3128.00,0.0036
3127.00,0.0036
3126.00,0.0035
3125.00,0.0035
3124.00,0.0035
3123.00,0.0034
3122.00,0.0034
3121.00,0.0033
3120.00,0.0033
3119.00,0.0033
3118.00,0.0034
3117.00,0.0033
3116.00,0.0033
3115.00,0.0033
3114.00,0.0032
3113.00,0.0032
3112.00,0.0032
3111.00,0.0032
3110.00,0.0032
3109.00,0.0032
3108.00,0.0032
3107.00,0.0032
3106.00,0.0032
3105.00,0.0031
3104.00,0.0031
3103.00,0.0030
3102.00,0.0030
3101.00,0.0030
3100.00,0.0030
3099.00,0.0030
3098.00,0.0030
3097.00,0.0030
3096.00,0.0031
3095.00,0.0031
3094.00,0.0031
3093.00,0.0031
3092.00,0.0030
3091.00,0.0030
3090.00,0.0030
3089.00,0.0030
3088.00,0.0029
3087.00,0.0029
3086.00,0.0030
3085.00,0.0030
3084.00,0.0030
3083.00,0.0030
3082.00,0.0030
3081.00,0.0029
3080.00,0.0029
3079.00,0.0030
3078.00,0.0030
3077.00,0.0029
3076.00,0.0029
3075.00,0.0029
3074.00,0.0029
3073.00,0.0030
3072.00,0.0030
3071.00,0.0030
3070.00,0.0031
3069.00,0.0031
3068.00,0.0031
3067.00,0.0031
3066.00,0.0031
3065.00,0.0031
3064.00,0.0031
3063.00,0.0031
3062.00,0.0031
3061.00,0.0031
3060.00,0.0031
3059.00,0.0032
3058.00,0.0032
3057.00,0.0032
3056.00,0.0032
3055.00,0.0032
3054.00,0.0032
3053.00,0.0033
3052.00,0.0033
3051.00,0.0033
3050.00,0.0033
3049.00,0.0033
3048.00,0.0033
3047.00,0.0034
3046.00,0.0034
3045.00,0.0034
3044.00,0.0034
3043.00,0.0035
3042.00,0.0035
3041.00,0.0035
3040.00,0.0036
3039.00,0.0036
3038.00,0.0037
3037.00,0.0037
3036.00,0.0037
3035.00,0.0037
3034.00,0.0038
3033.00,0.0038
3032.00,0.0038
3031.00,0.0039
3030.00,0.0039
3029.00,0.0040
3028.00,0.0041
3027.00,0.0041
3026.00,0.0041
3025.00,0.0042
3024.00,0.0042
3023.00,0.0043
3022.00,0.0043
3021.00,0.0044
3020.00,0.0046
3019.00,0.0047
3018.00,0.0048
3017.00,0.0049
3016.00,0.0051
3015.00,0.0052
3014.00,0.0053
3013.00,0.0055
3012.00,0.0057
3011.00,0.0059
3010.00,0.0061
3009.00,0.0064
3008.00,0.0066
3007.00,0.0068
3006.00,0.0071
3005.00,0.0073
3004.00,0.0076
3003.00,0.0080
3002.00,0.0083
3001.00,0.0087
3000.00,0.0090
2999.00,0.0094
2998.00,0.0098
2997.00,0.0102
2996.00,0.0106
2995.00,0.0109
2994.00,0.0114
2993.00,0.0118
2992.00,0.0124
2991.00,0.0130
2990.00,0.0137
2989.00,0.0144
2988.00,0.0152
2987.00,0.0161
2986.00,0.0172
2985.00,0.0185
2984.00,0.0200
2983.00,0.0216
2982.00,0.0233
2981.00,0.0250
2980.00,0.0267
2979.00,0.0285
2978.00,0.0307
2977.00,0.0332
2976.00,0.0363
2975.00,0.0399
2974.00,0.0440
2973.00,0.0487
2972.00,0.0540
2971.00,0.0600
2970.00,0.0665
2969.00,0.0736
2968.00,0.0814
2967.00,0.0897
2966.00,0.0984
2965.00,0.1073
2964.00,0.1160
2963.00,0.1242
2962.00,0.1314
2961.00,0.1374
2960.00,0.1423
2959.00,0.1465
2958.00,0.1504
2957.00,0.1545
2956.00,0.1593
2955.00,0.1651
2954.00,0.1718
2953.00,0.1787
2952.00,0.1850
2951.00,0.1894
2950.00,0.1910
2949.00,0.1887
2948.00,0.1826
2947.00,0.1729
2946.00,0.1610
2945.00,0.1483
2944.00,0.1361
2943.00,0.1256
2942.00,0.1175
2941.00,0.1119
2940.00,0.1088
2939.00,0.1080
2938.00,0.1092
2937.00,0.1122
2936.00,0.1169
2935.00,0.1231
2934.00,0.1307
2933.00,0.1396
2932.00,0.1496
2931.00,0.1604
2930.00,0.1718
2929.00,0.1835
2928.00,0.1952
2927.00,0.2066
2926.00,0.2176
2925.00,0.2282
2924.00,0.2383
2923.00,0.2483
2922.00,0.2581
2921.00,0.2674
2920.00,0.2757
2919.00,0.2820
2918.00,0.2853
2917.00,0.2847
2916.00,0.2801
2915.00,0.2722
2914.00,0.2619
2913.00,0.2505
2912.00,0.2391
2911.00,0.2285
2910.00,0.2189
2909.00,0.2104
2908.00,0.2026
2907.00,0.1953
2906.00,0.1881
2905.00,0.1811
2904.00,0.1740
2903.00,0.1670
2902.00,0.1601
2901.00,0.1534
2900.00,0.1469
2899.00,0.1407
2898.00,0.1350
2897.00,0.1297
2896.00,0.1250
2895.00,0.1209
2894.00,0.1174
2893.00,0.1145
2892.00,0.1123
2891.00,0.1106
2890.00,0.1095
2889.00,0.1087
2888.00,0.1084
2887.00,0.1084
2886.00,0.1088
2885.00,0.1095
2884.00,0.1107
2883.00,0.1124
2882.00,0.1146
2881.00,0.1171
2880.00,0.1197
2879.00,0.1219
2878.00,0.1234
2877.00,0.1241
2876.00,0.1238
2875.00,0.1230
2874.00,0.1223
2873.00,0.1219
2872.00,0.1224
2871.00,0.1236
2870.00,0.1254
2869.00,0.1272
2868.00,0.1284
2867.00,0.1281
2866.00,0.1258
2865.00,0.1211
2864.00,0.1145
2863.00,0.1069
2862.00,0.0992
2861.00,0.0925
2860.00,0.0872
2859.00,0.0836
2858.00,0.0814
2857.00,0.0806
2856.00,0.0807
2855.00,0.0816
2854.00,0.0830
2853.00,0.0847
2852.00,0.0864
2851.00,0.0878
2850.00,0.0889
2849.00,0.0895
2848.00,0.0902
2847.00,0.0913
2846.00,0.0932
2845.00,0.0964
2844.00,0.1007
2843.00,0.1059
2842.00,0.1116
2841.00,0.1171
2840.00,0.1217
2839.00,0.1244
2838.00,0.1244
2837.00,0.1213
2836.00,0.1151
2835.00,0.1063
2834.00,0.0958
2833.00,0.0848
2832.00,0.0742
2831.00,0.0647
2830.00,0.0567
2829.00,0.0500
2828.00,0.0447
2827.00,0.0404
2826.00,0.0369
2825.00,0.0340
2824.00,0.0316
2823.00,0.0296
2822.00,0.0279
2821.00,0.0264
2820.00,0.0251
2819.00,0.0240
2818.00,0.0230
2817.00,0.0222
2816.00,0.0214
2815.00,0.0207
2814.00,0.0201
2813.00,0.0195
2812.00,0.0189
2811.00,0.0183
2810.00,0.0178
2809.00,0.0172
2808.00,0.0166
2807.00,0.0160
2806.00,0.0153
2805.00,0.0146
2804.00,0.0140
2803.00,0.0134
2802.00,0.0128
2801.00,0.0124
2800.00,0.0120
2799.00,0.0116
2798.00,0.0113
2797.00,0.0111
2796.00,0.0108
2795.00,0.0106
2794.00,0.0103
2793.00,0.0100
2792.00,0.0096
2791.00,0.0093
2790.00,0.0090
2789.00,0.0088
2788.00,0.0085
2787.00,0.0083
2786.00,0.0081
2785.00,0.0078
2784.00,0.0076
2783.00,0.0073
2782.00,0.0071
2781.00,0.0069
2780.00,0.0067
2779.00,0.0065
2778.00,0.0064
2777.00,0.0062
2776.00,0.0061
2775.00,0.0060
2774.00,0.0059
2773.00,0.0058
2772.00,0.0058
2771.00,0.0058
2770.00,0.0057
2769.00,0.0057
2768.00,0.0057
2767.00,0.0057
2766.00,0.0056
2765.00,0.0055
2764.00,0.0055
2763.00,0.0055
2762.00,0.0054
2761.00,0.0054
2760.00,0.0053
2759.00,0.0053
2758.00,0.0053
2757.00,0.0053
2756.00,0.0053
2755.00,0.0053
2754.00,0.0053
2753.00,0.0052
2752.00,0.0052
2751.00,0.0051
2750.00,0.0051
2749.00,0.0051
2748.00,0.0051
2747.00,0.0052
2746.00,0.0052
2745.00,0.0053
2744.00,0.0054
2743.00,0.0054
2742.00,0.0056
2741.00,0.0057
2740.00,0.0058
2739.00,0.0059
2738.00,0.0060
2737.00,0.0061
2736.00,0.0063
2735.00,0.0064
2734.00,0.0066
2733.00,0.0067
2732.00,0.0069
2731.00,0.0071
2730.00,0.0073
2729.00,0.0076
2728.00,0.0079
2727.00,0.0081
2726.00,0.0084
2725.00,0.0087
2724.00,0.0088
2723.00,0.0089
2722.00,0.0088
2721.00,0.0086
2720.00,0.0083
2719.00,0.0079
2718.00,0.0076
2717.00,0.0073
2716.00,0.0070
2715.00,0.0067
2714.00,0.0065
2713.00,0.0063
2712.00,0.0061
2711.00,0.0059
2710.00,0.0057
2709.00,0.0056
2708.00,0.0054
2707.00,0.0053
2706.00,0.0052
2705.00,0.0051
2704.00,0.0049
2703.00,0.0048
2702.00,0.0048
2701.00,0.0047
2700.00,0.0046
2699.00,0.0045
2698.00,0.0045
2697.00,0.0045
2696.00,0.0045
2695.00,0.0045
2694.00,0.0045
2693.00,0.0045
2692.00,0.0045
2691.00,0.0045
2690.00,0.0045
2689.00,0.0045
2688.00,0.0045
2687.00,0.0045
2686.00,0.0045
2685.00,0.0045
2684.00,0.0045
2683.00,0.0045
2682.00,0.0045
2681.00,0.0046
2680.00,0.0046
2679.00,0.0046
2678.00,0.0046
2677.00,0.0046
2676.00,0.0046
2675.00,0.0046
2674.00,0.0046
2673.00,0.0046
2672.00,0.0046
2671.00,0.0045
2670.00,0.0045
2669.00,0.0045
2668.00,0.0045
2667.00,0.0045
2666.00,0.0046
2665.00,0.0046
2664.00,0.0047
2663.00,0.0047
2662.00,0.0048
2661.00,0.0048
2660.00,0.0048
2659.00,0.0048
2658.00,0.0048
2657.00,0.0048
2656.00,0.0048
2655.00,0.0047
2654.00,0.0046
2653.00,0.0046
2652.00,0.0045
2651.00,0.0045
2650.00,0.0044
2649.00,0.0044
2648.00,0.0043
2647.00,0.0043
2646.00,0.0042
2645.00,0.0042
2644.00,0.0042
2643.00,0.0042
2642.00,0.0041
2641.00,0.0041
2640.00,0.0040
2639.00,0.0039
2638.00,0.0038
2637.00,0.0038
2636.00,0.0038
2635.00,0.0038
2634.00,0.0038
2633.00,0.0039
2632.00,0.0039
2631.00,0.0040
2630.00,0.0040
2629.00,0.0040
2628.00,0.0040
2627.00,0.0040
2626.00,0.0040
2625.00,0.0040
2624.00,0.0040
2623.00,0.0040
2622.00,0.0040
2621.00,0.0040
2620.00,0.0040
2619.00,0.0040
2618.00,0.0041
2617.00,0.0041
2616.00,0.0041
2615.00,0.0040
2614.00,0.0039
2613.00,0.0039
2612.00,0.0038
2611.00,0.0038
2610.00,0.0037
2609.00,0.0036
2608.00,0.0036
2607.00,0.0036
2606.00,0.0035
2605.00,0.0035
2604.00,0.0034
2603.00,0.0032
2602.00,0.0032
2601.00,0.0031
2600.00,0.0031
2599.00,0.0032
2598.00,0.0032
2597.00,0.0032
2596.00,0.0032
2595.00,0.0032
2594.00,0.0033
2593.00,0.0033
2592.00,0.0033
2591.00,0.0033
2590.00,0.0034
2589.00,0.0034
2588.00,0.0035
2587.00,0.0036
2586.00,0.0038
2585.00,0.0038
2584.00,0.0039
2583.00,0.0039
2582.00,0.0039
2581.00,0.0039
2580.00,0.0038
2579.00,0.0038
2578.00,0.0037
2577.00,0.0036
2576.00,0.0035
2575.00,0.0033
2574.00,0.0032
2573.00,0.0030
2572.00,0.0028
2571.00,0.0027
2570.00,0.0026
2569.00,0.0025
2568.00,0.0025
2567.00,0.0025
2566.00,0.0025
2565.00,0.0024
2564.00,0.0024
2563.00,0.0024
2562.00,0.0024
2561.00,0.0023
2560.00,0.0023
2559.00,0.0023
2558.00,0.0023
2557.00,0.0023
2556.00,0.0023
2555.00,0.0023
2554.00,0.0022
2553.00,0.0022
2552.00,0.0022
2551.00,0.0021
2550.00,0.0021
2549.00,0.0020
2548.00,0.0020
2547.00,0.0020
2546.00,0.0019
2545.00,0.0019
2544.00,0.0018
2543.00,0.0018
2542.00,0.0017
2541.00,0.0017
2540.00,0.0016
2539.00,0.0016
2538.00,0.0017
2537.00,0.0018
2536.00,0.0018
2535.00,0.0018
2534.00,0.0017
2533.00,0.0016
2532.00,0.0015
2531.00,0.0014
2530.00,0.0014
2529.00,0.0014
2528.00,0.0014
2527.00,0.0014
2526.00,0.0013
2525.00,0.0013
2524.00,0.0013
2523.00,0.0013
2522.00,0.0013
2521.00,0.0013
2520.00,0.0013
2519.00,0.0012
2518.00,0.0012
2517.00,0.0013
2516.00,0.0013
2515.00,0.0012
2514.00,0.0012
2513.00,0.0012
2512.00,0.0012
2511.00,0.0012
2510.00,0.0012
2509.00,0.0012
2508.00,0.0011
2507.00,0.0011
2506.00,0.0011
2505.00,0.0011
2504.00,0.0010
2503.00,0.0010
2502.00,0.0010
2501.00,0.0010
2500.00,0.0010
2499.00,0.0011
2498.00,0.0011
2497.00,0.0011
2496.00,0.0011
2495.00,0.0011
2494.00,0.0010
2493.00,0.0010
2492.00,0.0010
2491.00,0.0010
2490.00,0.0010
2489.00,0.0010
2488.00,0.0010
2487.00,0.0009
2486.00,0.0009
2485.00,0.0009
2484.00,0.0009
2483.00,0.0010
2482.00,0.0010
2481.00,0.0010
2480.00,0.0010
2479.00,0.0010
2478.00,0.0010
2477.00,0.0010
2476.00,0.0010
2475.00,0.0010
2474.00,0.0010
2473.00,0.0010
2472.00,0.0010
2471.00,0.0010
2470.00,0.0010
2469.00,0.0009
2468.00,0.0008
2467.00,0.0008
2466.00,0.0008
2465.00,0.0008
2464.00,0.0009
2463.00,0.0010
2462.00,0.0010
2461.00,0.0011
2460.00,0.0011
2459.00,0.0010
2458.00,0.0010
2457.00,0.0010
2456.00,0.0010
2455.00,0.0010
2454.00,0.0011
2453.00,0.0011
2452.00,0.0011
2451.00,0.0010
2450.00,0.0010
2449.00,0.0010
2448.00,0.0011
2447.00,0.0011
2446.00,0.0011
2445.00,0.0011
2444.00,0.0011
2443.00,0.0011
2442.00,0.0011
2441.00,0.0012
2440.00,0.0012
2439.00,0.0012
2438.00,0.0011
2437.00,0.0010
2436.00,0.0010
2435.00,0.0010
2434.00,0.0010
2433.00,0.0010
2432.00,0.0010
2431.00,0.0010
2430.00,0.0011
2429.00,0.0011
2428.00,0.0011
2427.00,0.0011
2426.00,0.0011
2425.00,0.0010
2424.00,0.0010
2423.00,0.0010
2422.00,0.0010
2421.00,0.0010
2420.00,0.0010
2419.00,0.0010
2418.00,0.0010
2417.00,0.0011
2416.00,0.0011
2415.00,0.0011
2414.00,0.0011
2413.00,0.0011
2412.00,0.0010
2411.00,0.0009
2410.00,0.0009
2409.00,0.0009
2408.00,0.0009
2407.00,0.0008
2406.00,0.0008
2405.00,0.0008
2404.00,0.0008
2403.00,0.0008
2402.00,0.0008
2401.00,0.0008
2400.00,0.0007
2399.00,0.0007
2398.00,0.0007
2397.00,0.0007
2396.00,0.0008
2395.00,0.0009
2394.00,0.0009
2393.00,0.0008
2392.00,0.0008
2391.00,0.0007
2390.00,0.0007
2389.00,0.0006
2388.00,0.0006
2387.00,0.0006
2386.00,0.0005
2385.00,0.0005
2384.00,0.0005
2383.00,0.0005
2382.00,0.0005
2381.00,0.0004
2380.00,0.0004
2379.00,0.0004
2378.00,0.0004
2377.00,0.0004
2376.00,0.0004
2375.00,0.0004
2374.00,0.0003
2373.00,0.0002
2372.00,0.0002
2371.00,0.0002
2370.00,0.0003
2369.00,0.0003
2368.00,0.0004
2367.00,0.0004
2366.00,0.0003
2365.00,0.0004
2364.00,0.0004
2363.00,0.0005
2362.00,0.0004
2361.00,0.0004
2360.00,0.0003
2359.00,0.0003
2358.00,0.0003
2357.00,0.0004
2356.00,0.0004
2355.00,0.0004
2354.00,0.0004
2353.00,0.0004
2352.00,0.0004
2351.00,0.0004
2350.00,0.0004
2349.00,0.0004
2348.00,0.0005
2347.00,0.0005
2346.00,0.0005
2345.00,0.0005
2344.00,0.0006
2343.00,0.0006
2342.00,0.0007
2341.00,0.0007
2340.00,0.0007
2339.00,0.0007
2338.00,0.0007
2337.00,0.0007
2336.00,0.0006
2335.00,0.0006
2334.00,0.0006
2333.00,0.0005
2332.00,0.0005
2331.00,0.0005
2330.00,0.0005
2329.00,0.0006
2328.00,0.0009
2327.00,0.0012
2326.00,0.0016
2325.00,0.0020
2324.00,0.0021
2323.00,0.0020
2322.00,0.0017
2321.00,0.0014
2320.00,0.0013
2319.00,0.0012
2318.00,0.0012
2317.00,0.0011
2316.00,0.0011
2315.00,0.0010
2314.00,0.0010
2313.00,0.0009
2312.00,0.0009
2311.00,0.0009
2310.00,0.0010
2309.00,0.0009
2308.00,0.0009
2307.00,0.0008
2306.00,0.0008
2305.00,0.0009
2304.00,0.0009
2303.00,0.0010
2302.00,0.0010
2301.00,0.0011
2300.00,0.0011
2299.00,0.0011
2298.00,0.0012
2297.00,0.0012
2296.00,0.0013
2295.00,0.0014
2294.00,0.0014
2293.00,0.0015
2292.00,0.0015
2291.00,0.0016
2290.00,0.0016
2289.00,0.0016
2288.00,0.0016
2287.00,0.0017
2286.00,0.0017
2285.00,0.0018
2284.00,0.0017
2283.00,0.0017
2282.00,0.0016
2281.00,0.0015
2280.00,0.0014
2279.00,0.0014
2278.00,0.0014
2277.00,0.0014
2276.00,0.0014
2275.00,0.0015
2274.00,0.0015
2273.00,0.0015
2272.00,0.0014
2271.00,0.0013
2270.00,0.0013
2269.00,0.0013
2268.00,0.0014
2267.00,0.0013
2266.00,0.0012
2265.00,0.0012
2264.00,0.0012
2263.00,0.0012
2262.00,0.0012
2261.00,0.0012
2260.00,0.0012
2259.00,0.0012
2258.00,0.0012
2257.00,0.0012
2256.00,0.0011
2255.00,0.0011
2254.00,0.0010
2253.00,0.0009
2252.00,0.0009
2251.00,0.0009
2250.00,0.0010
2249.00,0.0010
2248.00,0.0009
2247.00,0.0008
2246.00,0.0008
2245.00,0.0008
2244.00,0.0009
2243.00,0.0010
2242.00,0.0011
2241.00,0.0011
2240.00,0.0011
2239.00,0.0010
2238.00,0.0010
2237.00,0.0009
2236.00,0.0010
2235.00,0.0010
2234.00,0.0010
2233.00,0.0010
2232.00,0.0011
2231.00,0.0011
2230.00,0.0010
2229.00,0.0008
2228.00,0.0006
2227.00,0.0005
2226.00,0.0006
2225.00,0.0006
2224.00,0.0007
2223.00,0.0007
2222.00,0.0006
2221.00,0.0006
2220.00,0.0007
2219.00,0.0007
2218.00,0.0008
2217.00,0.0008
2216.00,0.0006
2215.00,0.0005
2214.00,0.0004
2213.00,0.0005
2212.00,0.0007
2211.00,0.0008
2210.00,0.0007
2209.00,0.0007
2208.00,0.0006
2207.00,0.0005
2206.00,0.0005
2205.00,0.0006
2204.00,0.0007
2203.00,0.0008
2202.00,0.0009
2201.00,0.0010
2200.00,0.0011
2199.00,0.0011
2198.00,0.0011
2197.00,0.0011
2196.00,0.0010
2195.00,0.0010
2194.00,0.0010
2193.00,0.0010
2192.00,0.0010
2191.00,0.0009
2190.00,0.0008
2189.00,0.0009
2188.00,0.0011
2187.00,0.0013
2186.00,0.0014
2185.00,0.0013
2184.00,0.0012
2183.00,0.0011
2182.00,0.0009
2181.00,0.0007
2180.00,0.0006
2179.00,0.0005
2178.00,0.0006
2177.00,0.0006
2176.00,0.0004
2175.00,0.0003
2174.00,0.0002
2173.00,0.0004
2172.00,0.0007
2171.00,0.0009
2170.00,0.0011
2169.00,0.0012
2168.00,0.0013
2167.00,0.0013
2166.00,0.0013
2165.00,0.0013
2164.00,0.0014
2163.00,0.0015
2162.00,0.0015
2161.00,0.0010
2160.00,-0.0001
2159.00,-0.0015
2158.00,-0.0026
2157.00,-0.0029
2156.00,-0.0027
2155.00,-0.0023
2154.00,-0.0020
2153.00,-0.0018
2152.00,-0.0017
2151.00,-0.0017
2150.00,-0.0017
2149.00,-0.0017
2148.00,-0.0016
2147.00,-0.0015
2146.00,-0.0013
2145.00,-0.0012
2144.00,-0.0010
2143.00,-0.0009
2142.00,-0.0008
2141.00,-0.0008
2140.00,-0.0008
2139.00,-0.0009
2138.00,-0.0010
2137.00,-0.0012
2136.00,-0.0014
2135.00,-0.0016
2134.00,-0.0017
2133.00,-0.0017
2132.00,-0.0015
2131.00,-0.0013
2130.00,-0.0011
2129.00,-0.0011
2128.00,-0.0011
2127.00,-0.0010
2126.00,-0.0009
2125.00,-0.0008
2124.00,-0.0007
2123.00,-0.0006
2122.00,-0.0005
2121.00,-0.0004
2120.00,-0.0003
2119.00,-0.0002
2118.00,-0.0002
2117.00,-0.0001
2116.00,0.0001
2115.00,0.0003
2114.00,0.0004
2113.00,0.0005
2112.00,0.0005
2111.00,0.0005
2110.00,0.0004
2109.00,0.0003
2108.00,0.0003
2107.00,0.0004
2106.00,0.0005
2105.00,0.0005
2104.00,0.0004
2103.00,0.0003
2102.00,0.0002
2101.00,0.0001
2100.00,0.0001
2099.00,0.0001
2098.00,-0.0001
2097.00,-0.0004
2096.00,-0.0006
2095.00,-0.0008
2094.00,-0.0007
2093.00,-0.0005
2092.00,-0.0003
2091.00,-0.0003
2090.00,-0.0003
2089.00,-0.0002
2088.00,-0.0001
2087.00,0.0001
2086.00,0.0002
2085.00,0.0002
2084.00,0.0002
2083.00,0.0001
2082.00,0.0000
2081.00,-0.0000
2080.00,0.0001
2079.00,0.0001
2078.00,0.0002
2077.00,0.0003
2076.00,0.0003
2075.00,0.0001
2074.00,-0.0000
2073.00,-0.0001
2072.00,-0.0002
2071.00,-0.0001
2070.00,-0.0000
2069.00,0.0001
2068.00,0.0001
2067.00,0.0001
2066.00,0.0001
2065.00,0.0000
2064.00,0.0001
2063.00,0.0001
2062.00,0.0002
2061.00,0.0002
2060.00,0.0001
2059.00,0.0001
2058.00,0.0001
2057.00,0.0002
2056.00,0.0002
2055.00,0.0001
2054.00,0.0001
2053.00,0.0003
2052.00,0.0007
2051.00,0.0011
2050.00,0.0011
2049.00,0.0009
2048.00,0.0006
2047.00,0.0004
2046.00,0.0001
2045.00,-0.0001
2044.00,-0.0002
2043.00,-0.0001
2042.00,0.0003
2041.00,0.0006
2040.00,0.0007
2039.00,0.0005
2038.00,0.0003
2037.00,0.0001
2036.00,0.0000
2035.00,-0.0002
2034.00,-0.0005
2033.00,-0.0007
2032.00,-0.0008
2031.00,-0.0010
2030.00,-0.0012
2029.00,-0.0013
2028.00,-0.0014
2027.00,-0.0014
2026.00,-0.0014
2025.00,-0.0013
2024.00,-0.0012
2023.00,-0.0012
2022.00,-0.0012
2021.00,-0.0012
2020.00,-0.0014
2019.00,-0.0016
2018.00,-0.0018
2017.00,-0.0017
2016.00,-0.0015
2015.00,-0.0011
2014.00,-0.0008
2013.00,-0.0007
2012.00,-0.0006
2011.00,-0.0005
2010.00,-0.0005
2009.00,-0.0006
2008.00,-0.0009
2007.00,-0.0013
2006.00,-0.0016
2005.00,-0.0016
2004.00,-0.0013
2003.00,-0.0009
2002.00,-0.0007
2001.00,-0.0007
2000.00,-0.0009
1999.00,-0.0011
1998.00,-0.0012
1997.00,-0.0014
1996.00,-0.0015
1995.00,-0.0015
1994.00,-0.0013
1993.00,-0.0009
1992.00,-0.0006
1991.00,-0.0004
1990.00,-0.0004
1989.00,-0.0004
1988.00,-0.0004
1987.00,-0.0005
1986.00,-0.0005
1985.00,-0.0003
1984.00,0.0000
1983.00,0.0005
1982.00,0.0009
1981.00,0.0012
1980.00,0.0011
1979.00,0.0006
1978.00,-0.0004
1977.00,-0.0012
1976.00,-0.0016
1975.00,-0.0015
1974.00,-0.0012
1973.00,-0.0012
1972.00,-0.0013
1971.00,-0.0016
1970.00,-0.0019
1969.00,-0.0021
1968.00,-0.0022
1967.00,-0.0021
1966.00,-0.0019
1965.00,-0.0017
1964.00,-0.0015
1963.00,-0.0013
1962.00,-0.0012
1961.00,-0.0011
1960.00,-0.0012
1959.00,-0.0014
1958.00,-0.0016
1957.00,-0.0017
1956.00,-0.0017
1955.00,-0.0016
1954.00,-0.0015
1953.00,-0.0013
1952.00,-0.0012
1951.00,-0.0011
1950.00,-0.0010
1949.00,-0.0011
1948.00,-0.0011
1947.00,-0.0012
1946.00,-0.0012
1945.00,-0.0012
1944.00,-0.0012
1943.00,-0.0011
1942.00,-0.0010
1941.00,-0.0009
1940.00,-0.0008
1939.00,-0.0008
1938.00,-0.0009
1937.00,-0.0009
1936.00,-0.0009
1935.00,-0.0009
1934.00,-0.0008
1933.00,-0.0007
1932.00,-0.0006
1931.00,-0.0005
1930.00,-0.0004
1929.00,-0.0004
1928.00,-0.0004
1927.00,-0.0004
1926.00,-0.0005
1925.00,-0.0005
1924.00,-0.0005
1923.00,-0.0005
1922.00,-0.0006
1921.00,-0.0006
1920.00,-0.0006
1919.00,-0.0006
1918.00,-0.0006
1917.00,-0.0005
1916.00,-0.0004
1915.00,-0.0004
1914.00,-0.0002
1913.00,-0.0001
1912.00,0.0000
1911.00,0.0000
1910.00,-0.0001
1909.00,-0.0002
1908.00,-0.0004
1907.00,-0.0004
1906.00,-0.0004
1905.00,-0.0004
1904.00,-0.0003
1903.00,-0.0002
1902.00,-0.0002
1901.00,-0.0002
1900.00,-0.0002
1899.00,-0.0002
1898.00,-0.0002
1897.00,-0.0002
1896.00,-0.0001
1895.00,-0.0001
1894.00,-0.0000
1893.00,-0.0000
1892.00,-0.0000
1891.00,0.0000
1890.00,0.0000
1889.00,0.0001
1888.00,0.0001
1887.00,0.0000
1886.00,0.0000
1885.00,0.0000
1884.00,0.0001
1883.00,0.0001
1882.00,0.0002
1881.00,0.0002
1880.00,0.0001
1879.00,0.0001
1878.00,0.0001
1877.00,0.0000
1876.00,-0.0000
1875.00,-0.0001
1874.00,-0.0001
1873.00,-0.0001
1872.00,0.0000
1871.00,0.0001
1870.00,0.0001
1869.00,0.0002
1868.00,0.0002
1867.00,0.0001
1866.00,0.0001
1865.00,0.0001
1864.00,0.0001
1863.00,0.0001
1862.00,0.0001
1861.00,0.0001
1860.00,0.0001
1859.00,0.0002
1858.00,0.0002
1857.00,0.0003
1856.00,0.0002
1855.00,0.0002
1854.00,0.0001
1853.00,0.0001
1852.00,0.0002
1851.00,0.0002
1850.00,0.0003
1849.00,0.0003
1848.00,0.0003
1847.00,0.0002
1846.00,0.0001
1845.00,0.0000
1844.00,0.0000
1843.00,0.0001
1842.00,0.0002
1841.00,0.0002
1840.00,0.0003
1839.00,0.0003
1838.00,0.0003
1837.00,0.0003
1836.00,0.0003
1835.00,0.0003
1834.00,0.0003
1833.00,0.0003
1832.00,0.0004
1831.00,0.0004
1830.00,0.0004
1829.00,0.0004
1828.00,0.0004
1827.00,0.0004
1826.00,0.0005
1825.00,0.0005
1824.00,0.0005
1823.00,0.0005
1822.00,0.0005
1821.00,0.0004
1820.00,0.0003
1819.00,0.0002
1818.00,0.0001
1817.00,0.0001
1816.00,0.0001
1815.00,0.0001
1814.00,0.0001
1813.00,0.0001
1812.00,0.0002
1811.00,0.0003
1810.00,0.0003
1809.00,0.0004
1808.00,0.0004
1807.00,0.0004
1806.00,0.0004
1805.00,0.0004
1804.00,0.0004
1803.00,0.0004
1802.00,0.0004
1801.00,0.0005
1800.00,0.0005
1799.00,0.0006
1798.00,0.0006
1797.00,0.0007
1796.00,0.0007
1795.00,0.0007
1794.00,0.0006
1793.00,0.0007
1792.00,0.0007
1791.00,0.0008
1790.00,0.0008
1789.00,0.0009
1788.00,0.0009
1787.00,0.0009
1786.00,0.0009
1785.00,0.0009
1784.00,0.0008
1783.00,0.0008
1782.00,0.0007
1781.00,0.0007
1780.00,0.0007
1779.00,0.0007
1778.00,0.0007
1777.00,0.0007
1776.00,0.0008
1775.00,0.0008
1774.00,0.0009
1773.00,0.0010
1772.00,0.0011
1771.00,0.0011
1770.00,0.0011
1769.00,0.0011
1768.00,0.0011
1767.00,0.0010
1766.00,0.0010
1765.00,0.0010
1764.00,0.0010
1763.00,0.0011
1762.00,0.0012
1761.00,0.0012
1760.00,0.0013
1759.00,0.0013
1758.00,0.0013
1757.00,0.0013
1756.00,0.0013
1755.00,0.0013
1754.00,0.0014
1753.00,0.0015
1752.00,0.0015
1751.00,0.0016
1750.00,0.0017
1749.00,0.0017
1748.00,0.0018
1747.00,0.0019
1746.00,0.0019
1745.00,0.0019
1744.00,0.0019
1743.00,0.0020
1742.00,0.0020
1741.00,0.0021
1740.00,0.0022
1739.00,0.0022
1738.00,0.0022
1737.00,0.0022
1736.00,0.0023
1735.00,0.0023
1734.00,0.0023
1733.00,0.0023
1732.00,0.0023
1731.00,0.0023
1730.00,0.0023
1729.00,0.0023
1728.00,0.0024
1727.00,0.0025
1726.00,0.0025
1725.00,0.0026
1724.00,0.0026
1723.00,0.0026
1722.00,0.0026
1721.00,0.0026
1720.00,0.0025
1719.00,0.0024
1718.00,0.0023
1717.00,0.0023
1716.00,0.0023
1715.00,0.0022
1714.00,0.0022
1713.00,0.0023
1712.00,0.0023
1711.00,0.0023
1710.00,0.0023
1709.00,0.0023
1708.00,0.0024
1707.00,0.0024
1706.00,0.0024
1705.00,0.0024
1704.00,0.0025
1703.00,0.0026
1702.00,0.0026
1701.00,0.0027
1700.00,0.0028
1699.00,0.0028
1698.00,0.0028
1697.00,0.0028
1696.00,0.0028
1695.00,0.0029
1694.00,0.0029
1693.00,0.0029
1692.00,0.0030
1691.00,0.0030
1690.00,0.0031
1689.00,0.0032
1688.00,0.0033
1687.00,0.0033
1686.00,0.0033
1685.00,0.0033
1684.00,0.0034
1683.00,0.0034
1682.00,0.0035
1681.00,0.0036
1680.00,0.0038
1679.00,0.0039
1678.00,0.0039
1677.00,0.0040
1676.00,0.0040
1675.00,0.0040
1674.00,0.0041
1673.00,0.0041
1672.00,0.0041
1671.00,0.0041
1670.00,0.0042
1669.00,0.0043
1668.00,0.0044
1667.00,0.0045
1666.00,0.0046
1665.00,0.0046
1664.00,0.0047
1663.00,0.0047
1662.00,0.0048
1661.00,0.0048
1660.00,0.0049
1659.00,0.0050
1658.00,0.0050
1657.00,0.0050
1656.00,0.0051
1655.00,0.0051
1654.00,0.0052
1653.00,0.0052
1652.00,0.0054
1651.00,0.0054
1650.00,0.0055
1649.00,0.0056
1648.00,0.0057
1647.00,0.0059
1646.00,0.0059
1645.00,0.0059
1644.00,0.0059
1643.00,0.0059
1642.00,0.0060
1641.00,0.0061
1640.00,0.0062
1639.00,0.0063
1638.00,0.0064
1637.00,0.0064
1636.00,0.0064
1635.00,0.0063
1634.00,0.0062
1633.00,0.0062
1632.00,0.0062
1631.00,0.0062
1630.00,0.0062
1629.00,0.0061
1628.00,0.0061
1627.00,0.0060
1626.00,0.0060
1625.00,0.0059
1624.00,0.0058
1623.00,0.0058
1622.00,0.0058
1621.00,0.0059
1620.00,0.0059
1619.00,0.0058
1618.00,0.0058
1617.00,0.0058
1616.00,0.0058
1615.00,0.0058
1614.00,0.0058
1613.00,0.0059
1612.00,0.0059
1611.00,0.0059
1610.00,0.0058
1609.00,0.0058
1608.00,0.0057
1607.00,0.0057
1606.00,0.0057
1605.00,0.0057
1604.00,0.0057
1603.00,0.0056
1602.00,0.0056
1601.00,0.0056
1600.00,0.0056
1599.00,0.0056
1598.00,0.0056
1597.00,0.0055
1596.00,0.0055
1595.00,0.0055
1594.00,0.0055
1593.00,0.0055
1592.00,0.0055
1591.00,0.0055
1590.00,0.0055
1589.00,0.0055
1588.00,0.0055
1587.00,0.0055
1586.00,0.0055
1585.00,0.0055
1584.00,0.0056
1583.00,0.0056
1582.00,0.0057
1581.00,0.0057
1580.00,0.0058
1579.00,0.0059
1578.00,0.0059
1577.00,0.0060
1576.00,0.0060
1575.00,0.0060
1574.00,0.0060
1573.00,0.0060
1572.00,0.0060
1571.00,0.0060
1570.00,0.0059
1569.00,0.0059
1568.00,0.0059
1567.00,0.0060
1566.00,0.0061
1565.00,0.0062
1564.00,0.0062
1563.00,0.0062
1562.00,0.0062
1561.00,0.0062
1560.00,0.0063
1559.00,0.0063
1558.00,0.0064
1557.00,0.0065
1556.00,0.0066
1555.00,0.0067
1554.00,0.0067
1553.00,0.0068
1552.00,0.0069
1551.00,0.0069
1550.00,0.0070
1549.00,0.0070
1548.00,0.0070
1547.00,0.0070
1546.00,0.0070
1545.00,0.0071
1544.00,0.0071
1543.00,0.0070
1542.00,0.0069
1541.00,0.0067
1540.00,0.0065
1539.00,0.0063
1538.00,0.0062
1537.00,0.0062
1536.00,0.0062
1535.00,0.0061
1534.00,0.0059
1533.00,0.0058
1532.00,0.0057
1531.00,0.0057
1530.00,0.0056
1529.00,0.0056
1528.00,0.0056
1527.00,0.0055
1526.00,0.0054
1525.00,0.0053
1524.00,0.0053
1523.00,0.0054
1522.00,0.0053
1521.00,0.0054
1520.00,0.0055
1519.00,0.0055
1518.00,0.0055
1517.00,0.0056
1516.00,0.0057
1515.00,0.0057
1514.00,0.0057
1513.00,0.0058
1512.00,0.0059
1511.00,0.0059
1510.00,0.0059
1509.00,0.0060
1508.00,0.0061
1507.00,0.0061
1506.00,0.0061
1505.00,0.0062
1504.00,0.0065
1503.00,0.0067
1502.00,0.0069
1501.00,0.0071
1500.00,0.0074
1499.00,0.0075
1498.00,0.0077
1497.00,0.0080
1496.00,0.0084
1495.00,0.0087
1494.00,0.0089
1493.00,0.0092
1492.00,0.0096
1491.00,0.0099
1490.00,0.0104
1489.00,0.0109
1488.00,0.0115
1487.00,0.0119
1486.00,0.0125
1485.00,0.0131
1484.00,0.0138
1483.00,0.0145
1482.00,0.0153
1481.00,0.0163
1480.00,0.0175
1479.00,0.0187
1478.00,0.0202
1477.00,0.0223
1476.00,0.0250
1475.00,0.0280
1474.00,0.0321
1473.00,0.0379
1472.00,0.0447
1471.00,0.0513
1470.00,0.0576
1469.00,0.0644
1468.00,0.0716
1467.00,0.0795
1466.00,0.0886
1465.00,0.0983
1464.00,0.1068
1463.00,0.1126
1462.00,0.1162
1461.00,0.1185
1460.00,0.1201
1459.00,0.1210
1458.00,0.1216
1457.00,0.1219
1456.00,0.1215
1455.00,0.1205
1454.00,0.1191
1453.00,0.1172
1452.00,0.1143
1451.00,0.1103
1450.00,0.1049
1449.00,0.0976
1448.00,0.0883
1447.00,0.0786
1446.00,0.0699
1445.00,0.0626
1444.00,0.0564
1443.00,0.0514
1442.00,0.0476
1441.00,0.0450
1440.00,0.0435
1439.00,0.0430
1438.00,0.0432
1437.00,0.0435
1436.00,0.0426
1435.00,0.0402
1434.00,0.0367
1433.00,0.0325
1432.00,0.0280
1431.00,0.0240
1430.00,0.0208
1429.00,0.0185
1428.00,0.0169
1427.00,0.0159
1426.00,0.0153
1425.00,0.0147
1424.00,0.0141
1423.00,0.0137
1422.00,0.0135
1421.00,0.0133
1420.00,0.0130
1419.00,0.0128
1418.00,0.0126
1417.00,0.0123
1416.00,0.0121
1415.00,0.0120
1414.00,0.0120
1413.00,0.0119
1412.00,0.0118
1411.00,0.0118
1410.00,0.0118
1409.00,0.0117
1408.00,0.0116
1407.00,0.0117
1406.00,0.0117
1405.00,0.0118
1404.00,0.0118
1403.00,0.0119
1402.00,0.0122
1401.00,0.0123
1400.00,0.0125
1399.00,0.0127
1398.00,0.0131
1397.00,0.0134
1396.00,0.0136
1395.00,0.0140
1394.00,0.0145
1393.00,0.0150
1392.00,0.0155
1391.00,0.0163
1390.00,0.0174
1389.00,0.0188
1388.00,0.0209
1387.00,0.0240
1386.00,0.0282
1385.00,0.0338
1384.00,0.0416
1383.00,0.0527
1382.00,0.0680
1381.00,0.0881
1380.00,0.1132
1379.00,0.1417
1378.00,0.1690
1377.00,0.1885
1376.00,0.1944
1375.00,0.1835
1374.00,0.1592
1373.00,0.1307
1372.00,0.1051
1371.00,0.0843
1370.00,0.0679
1369.00,0.0554
1368.00,0.0468
1367.00,0.0415
1366.00,0.0386
1365.00,0.0374
1364.00,0.0376
1363.00,0.0389
1362.00,0.0410
1361.00,0.0433
1360.00,0.0451
1359.00,0.0456
1358.00,0.0446
1357.00,0.0421
1356.00,0.0385
1355.00,0.0344
1354.00,0.0305
1353.00,0.0271
1352.00,0.0244
1351.00,0.0222
1350.00,0.0204
1349.00,0.0189
1348.00,0.0177
1347.00,0.0166
1346.00,0.0157
1345.00,0.0150
1344.00,0.0143
1343.00,0.0138
1342.00,0.0133
1341.00,0.0130
1340.00,0.0127
1339.00,0.0125
1338.00,0.0124
1337.00,0.0123
1336.00,0.0124
1335.00,0.0126
1334.00,0.0129
1333.00,0.0134
1332.00,0.0138
1331.00,0.0142
1330.00,0.0143
1329.00,0.0141
1328.00,0.0137
1327.00,0.0132
1326.00,0.0125
1325.00,0.0119
1324.00,0.0113
1323.00,0.0107
1322.00,0.0103
1321.00,0.0100
1320.00,0.0098
1319.00,0.0097
1318.00,0.0095
1317.00,0.0094
1316.00,0.0093
1315.00,0.0092
1314.00,0.0092
1313.00,0.0093
1312.00,0.0094
1311.00,0.0096
1310.00,0.0100
1309.00,0.0105
1308.00,0.0114
1307.00,0.0124
1306.00,0.0134
1305.00,0.0141
1304.00,0.0142
1303.00,0.0140
1302.00,0.0136
1301.00,0.0133
1300.00,0.0132
1299.00,0.0133
1298.00,0.0134
1297.00,0.0134
1296.00,0.0134
1295.00,0.0131
1294.00,0.0127
1293.00,0.0121
1292.00,0.0115
1291.00,0.0110
1290.00,0.0105
1289.00,0.0102
1288.00,0.0099
1287.00,0.0096
1286.00,0.0094
1285.00,0.0091
1284.00,0.0089
1283.00,0.0088
1282.00,0.0087
1281.00,0.0086
1280.00,0.0086
1279.00,0.0086
1278.00,0.0085
1277.00,0.0085
1276.00,0.0085
1275.00,0.0084
1274.00,0.0084
1273.00,0.0085
1272.00,0.0086
1271.00,0.0088
1270.00,0.0089
1269.00,0.0091
1268.00,0.0093
1267.00,0.0095
1266.00,0.0098
1265.00,0.0101
1264.00,0.0104
1263.00,0.0107
1262.00,0.0111
1261.00,0.0115
1260.00,0.0120
1259.00,0.0126
1258.00,0.0133
1257.00,0.0138
1256.00,0.0140
1255.00,0.0138
1254.00,0.0132
1253.00,0.0124
1252.00,0.0117
1251.00,0.0110
1250.00,0.0105
1249.00,0.0101
1248.00,0.0098
1247.00,0.0096
1246.00,0.0093
1245.00,0.0091
1244.00,0.0090
1243.00,0.0088
1242.00,0.0087
1241.00,0.0087
1240.00,0.0086
1239.00,0.0086
1238.00,0.0085
1237.00,0.0084
1236.00,0.0084
1235.00,0.0084
1234.00,0.0084
1233.00,0.0084
1232.00,0.0085
1231.00,0.0085
1230.00,0.0085
1229.00,0.0085
1228.00,0.0085
1227.00,0.0086
1226.00,0.0088
1225.00,0.0091
1224.00,0.0095
1223.00,0.0099
1222.00,0.0103
1221.00,0.0106
1220.00,0.0108
1219.00,0.0109
1218.00,0.0107
1217.00,0.0104
1216.00,0.0101
1215.00,0.0098
1214.00,0.0095
1213.00,0.0092
1212.00,0.0089
1211.00,0.0086
1210.00,0.0084
1209.00,0.0083
1208.00,0.0081
1207.00,0.0080
1206.00,0.0079
1205.00,0.0079
1204.00,0.0079
1203.00,0.0079
1202.00,0.0079
1201.00,0.0078
1200.00,0.0077
1199.00,0.0077
1198.00,0.0078
1197.00,0.0079
1196.00,0.0080
1195.00,0.0080
1194.00,0.0080
1193.00,0.0080
1192.00,0.0080
1191.00,0.0080
1190.00,0.0081
1189.00,0.0081
1188.00,0.0082
1187.00,0.0082
1186.00,0.0083
1185.00,0.0085
1184.00,0.0086
1183.00,0.0089
1182.00,0.0092
1181.00,0.0094
1180.00,0.0098
1179.00,0.0102
1178.00,0.0108
1177.00,0.0116
1176.00,0.0127
1175.00,0.0140
1174.00,0.0158
1173.00,0.0181
1172.00,0.0208
1171.00,0.0237
1170.00,0.0266
1169.00,0.0290
1168.00,0.0305
1167.00,0.0308
1166.00,0.0301
1165.00,0.0287
1164.00,0.0270
1163.00,0.0255
1162.00,0.0242
1161.00,0.0232
1160.00,0.0225
1159.00,0.0220
1158.00,0.0217
1157.00,0.0215
1156.00,0.0214
1155.00,0.0213
1154.00,0.0211
1153.00,0.0209
1152.00,0.0204
1151.00,0.0198
1150.00,0.0190
1149.00,0.0181
1148.00,0.0172
1147.00,0.0163
1146.00,0.0155
1145.00,0.0147
1144.00,0.0140
1143.00,0.0134
1142.00,0.0129
1141.00,0.0123
1140.00,0.0118
1139.00,0.0113
1138.00,0.0109
1137.00,0.0107
1136.00,0.0105
1135.00,0.0103
1134.00,0.0101
1133.00,0.0100
1132.00,0.0099
1131.00,0.0099
1130.00,0.0099
1129.00,0.0100
1128.00,0.0100
1127.00,0.0100
1126.00,0.0101
1125.00,0.0102
1124.00,0.0102
1123.00,0.0103
1122.00,0.0103
1121.00,0.0103
1120.00,0.0103
1119.00,0.0104
1118.00,0.0104
1117.00,0.0104
1116.00,0.0105
1115.00,0.0106
1114.00,0.0108
1113.00,0.0110
1112.00,0.0113
1111.00,0.0116
1110.00,0.0119
1109.00,0.0122
1108.00,0.0126
1107.00,0.0132
1106.00,0.0139
1105.00,0.0146
1104.00,0.0151
1103.00,0.0154
1102.00,0.0155
1101.00,0.0152
1100.00,0.0146
1099.00,0.0139
1098.00,0.0132
1097.00,0.0126
1096.00,0.0121
1095.00,0.0118
1094.00,0.0115
1093.00,0.0112
1092.00,0.0110
1091.00,0.0109
1090.00,0.0107
1089.00,0.0105
1088.00,0.0105
1087.00,0.0105
1086.00,0.0106
1085.00,0.0107
1084.00,0.0107
1083.00,0.0107
1082.00,0.0106
1081.00,0.0104
1080.00,0.0102
1079.00,0.0100
1078.00,0.0099
1077.00,0.0097
1076.00,0.0097
1075.00,0.0097
1074.00,0.0097
1073.00,0.0097
1072.00,0.0097
1071.00,0.0097
1070.00,0.0096
1069.00,0.0095
1068.00,0.0094
1067.00,0.0094
1066.00,0.0094
1065.00,0.0095
1064.00,0.0095
1063.00,0.0096
1062.00,0.0096
1061.00,0.0097
1060.00,0.0097
1059.00,0.0098
1058.00,0.0098
1057.00,0.0099
1056.00,0.0100
1055.00,0.0102
1054.00,0.0105
1053.00,0.0107
1052.00,0.0110
1051.00,0.0113
1050.00,0.0117
1049.00,0.0122
1048.00,0.0126
1047.00,0.0131
1046.00,0.0134
1045.00,0.0136
1044.00,0.0138
1043.00,0.0138
1042.00,0.0137
1041.00,0.0134
1040.00,0.0132
1039.00,0.0130
1038.00,0.0129
1037.00,0.0128
1036.00,0.0127
1035.00,0.0125
1034.00,0.0124
1033.00,0.0123
1032.00,0.0121
1031.00,0.0120
1030.00,0.0119
1029.00,0.0120
1028.00,0.0120
1027.00,0.0121
1026.00,0.0122
1025.00,0.0124
1024.00,0.0126
1023.00,0.0129
1022.00,0.0133
1021.00,0.0135
1020.00,0.0137
1019.00,0.0137
1018.00,0.0137
1017.00,0.0136
1016.00,0.0136
1015.00,0.0137
1014.00,0.0137
1013.00,0.0137
1012.00,0.0136
1011.00,0.0136
1010.00,0.0136
1009.00,0.0137
1008.00,0.0139
1007.00,0.0143
1006.00,0.0150
1005.00,0.0160
1004.00,0.0173
1003.00,0.0193
1002.00,0.0219
1001.00,0.0253
1000.00,0.0288
999.00,0.0318
998.00,0.0331
997.00,0.0324
996.00,0.0299
995.00,0.0263
994.00,0.0226
993.00,0.0194
992.00,0.0168
991.00,0.0150
990.00,0.0137
989.00,0.0129
988.00,0.0124
987.00,0.0121
986.00,0.0121
985.00,0.0122
984.00,0.0126
983.00,0.0132
982.00,0.0142
981.00,0.0157
980.00,0.0177
979.00,0.0204
978.00,0.0238
977.00,0.0278
976.00,0.0321
975.00,0.0361
974.00,0.0390
973.00,0.0399
972.00,0.0384
971.00,0.0349
970.00,0.0303
969.00,0.0256
968.00,0.0216
967.00,0.0186
966.00,0.0164
965.00,0.0149
964.00,0.0138
963.00,0.0129
962.00,0.0122
961.00,0.0116
960.00,0.0111
959.00,0.0107
958.00,0.0105
957.00,0.0104
956.00,0.0103
955.00,0.0102
954.00,0.0101
953.00,0.0100
952.00,0.0099
951.00,0.0098
950.00,0.0097
949.00,0.0096
948.00,0.0095
947.00,0.0095
946.00,0.0096
945.00,0.0099
944.00,0.0102
943.00,0.0106
942.00,0.0110
941.00,0.0112
940.00,0.0112
939.00,0.0109
938.00,0.0103
937.00,0.0097
936.00,0.0090
935.00,0.0086
934.00,0.0082
933.00,0.0080
932.00,0.0079
931.00,0.0077
930.00,0.0075
929.00,0.0073
928.00,0.0071
927.00,0.0070
926.00,0.0068
925.00,0.0067
924.00,0.0067
923.00,0.0067
922.00,0.0067
921.00,0.0066
920.00,0.0066
919.00,0.0065
918.00,0.0066
917.00,0.0067
916.00,0.0068
915.00,0.0069
914.00,0.0070
913.00,0.0071
912.00,0.0073
911.00,0.0075
910.00,0.0077
909.00,0.0079
908.00,0.0083
907.00,0.0089
906.00,0.0098
905.00,0.0109
904.00,0.0123
903.00,0.0141
902.00,0.0159
901.00,0.0176
900.00,0.0187
899.00,0.0189
898.00,0.0180
897.00,0.0163
896.00,0.0142
895.00,0.0123
894.00,0.0108
893.00,0.0098
892.00,0.0091
891.00,0.0087
890.00,0.0083
889.00,0.0081
888.00,0.0079
887.00,0.0077
886.00,0.0076
885.00,0.0076
884.00,0.0075
883.00,0.0074
882.00,0.0074
881.00,0.0073
880.00,0.0074
879.00,0.0075
878.00,0.0077
877.00,0.0077
876.00,0.0078
875.00,0.0078
874.00,0.0078
873.00,0.0079
872.00,0.0079
871.00,0.0079
870.00,0.0078
869.00,0.0078
868.00,0.0078
867.00,0.0078
866.00,0.0079
865.00,0.0081
864.00,0.0082
863.00,0.0083
862.00,0.0084
861.00,0.0085
860.00,0.0086
859.00,0.0087
858.00,0.0089
857.00,0.0090
856.00,0.0092
855.00,0.0093
854.00,0.0094
853.00,0.0096
852.00,0.0097
851.00,0.0100
850.00,0.0104
849.00,0.0110
848.00,0.0118
847.00,0.0131
846.00,0.0150
845.00,0.0179
844.00,0.0221
843.00,0.0268
842.00,0.0305
841.00,0.0317
840.00,0.0297
839.00,0.0255
838.00,0.0208
837.00,0.0170
836.00,0.0145
835.00,0.0130
834.00,0.0122
833.00,0.0117
832.00,0.0113
831.00,0.0110
830.00,0.0107
829.00,0.0104
828.00,0.0102
827.00,0.0101
826.00,0.0101
825.00,0.0101
824.00,0.0102
823.00,0.0103
822.00,0.0104
821.00,0.0106
820.00,0.0108
819.00,0.0110
818.00,0.0114
817.00,0.0119
816.00,0.0127
815.00,0.0139
814.00,0.0156
813.00,0.0177
812.00,0.0200
811.00,0.0222
810.00,0.0238
809.00,0.0244
808.00,0.0238
807.00,0.0222
806.00,0.0201
805.00,0.0180
804.00,0.0162
803.00,0.0149
802.00,0.0140
801.00,0.0133
800.00,0.0127
799.00,0.0120
798.00,0.0113
797.00,0.0107
796.00,0.0102
795.00,0.0099
794.00,0.0098
793.00,0.0097
792.00,0.0096
791.00,0.0094
790.00,0.0090
789.00,0.0087
788.00,0.0084
787.00,0.0081
786.00,0.0079
785.00,0.0077
784.00,0.0076
783.00,0.0075
782.00,0.0075
781.00,0.0074
780.00,0.0074
779.00,0.0073
778.00,0.0072
777.00,0.0070
776.00,0.0069
775.00,0.0069
774.00,0.0069
773.00,0.0069
772.00,0.0070
771.00,0.0070
770.00,0.0071
769.00,0.0070
768.00,0.0069
767.00,0.0069
766.00,0.0069
765.00,0.0069
764.00,0.0069
763.00,0.0068
762.00,0.0068
761.00,0.0067
760.00,0.0068
759.00,0.0069
758.00,0.0071
757.00,0.0072
756.00,0.0073
755.00,0.0074
754.00,0.0075
753.00,0.0076
752.00,0.0078
751.00,0.0081
750.00,0.0084
749.00,0.0086
748.00,0.0087
747.00,0.0088
746.00,0.0088
745.00,0.0089
744.00,0.0090
743.00,0.0092
742.00,0.0096
741.00,0.0100
740.00,0.0104
739.00,0.0107
738.00,0.0111
737.00,0.0115
736.00,0.0119
735.00,0.0124
734.00,0.0129
733.00,0.0136
732.00,0.0144
731.00,0.0151
730.00,0.0156
729.00,0.0159
728.00,0.0160
727.00,0.0161
726.00,0.0163
725.00,0.0166
724.00,0.0170
723.00,0.0174
722.00,0.0178
721.00,0.0181
720.00,0.0179
719.00,0.0172
718.00,0.0160
717.00,0.0147
716.00,0.0135
715.00,0.0127
714.00,0.0123
713.00,0.0119
712.00,0.0117
711.00,0.0114
710.00,0.0112
709.00,0.0110
708.00,0.0108
707.00,0.0106
706.00,0.0105
705.00,0.0105
704.00,0.0105
703.00,0.0105
702.00,0.0105
701.00,0.0104
700.00,0.0103
699.00,0.0101
698.00,0.0100
697.00,0.0100
696.00,0.0100
695.00,0.0100
694.00,0.0100
693.00,0.0100
692.00,0.0098
691.00,0.0097
690.00,0.0096
689.00,0.0097
688.00,0.0099
687.00,0.0101
686.00,0.0102
685.00,0.0101
684.00,0.0100
683.00,0.0100
682.00,0.0101
681.00,0.0102
680.00,0.0103
679.00,0.0102
678.00,0.0101
677.00,0.0099
676.00,0.0098
675.00,0.0099
674.00,0.0103
673.00,0.0108
672.00,0.0112
671.00,0.0114
670.00,0.0112
669.00,0.0107
668.00,0.0099
667.00,0.0095
666.00,0.0094
665.00,0.0095
664.00,0.0096
663.00,0.0097
662.00,0.0098
661.00,0.0098
660.00,0.0098
659.00,0.0098
658.00,0.0098
657.00,0.0099
656.00,0.0099
655.00,0.0098
654.00,0.0096
653.00,0.0094
652.00,0.0093
651.00,0.0092
650.00,0.0092
649.00,0.0092
648.00,0.0091
647.00,0.0091
646.00,0.0090
645.00,0.0090
644.00,0.0090
643.00,0.0091
642.00,0.0091
641.00,0.0090
640.00,0.0088
639.00,0.0085
638.00,0.0083
637.00,0.0082
636.00,0.0082
635.00,0.0083
634.00,0.0086
633.00,0.0089
632.00,0.0092
631.00,0.0092
630.00,0.0091
629.00,0.0090
628.00,0.0090
627.00,0.0092
626.00,0.0094
625.00,0.0095
624.00,0.0096
623.00,0.0096
622.00,0.0095
621.00,0.0094
620.00,0.0093
619.00,0.0091
618.00,0.0089
617.00,0.0088
616.00,0.0088
615.00,0.0089
614.00,0.0091
613.00,0.0092
612.00,0.0092
611.00,0.0091
610.00,0.0091
609.00,0.0092
608.00,0.0092
607.00,0.0092
606.00,0.0091
605.00,0.0091
604.00,0.0091
603.00,0.0091
602.00,0.0090
601.00,0.0088
600.00,0.0085
599.00,0.0084
598.00,0.0085
597.00,0.0087
596.00,0.0087
595.00,0.0086
594.00,0.0085
593.00,0.0085
592.00,0.0087
591.00,0.0088
590.00,0.0088
589.00,0.0087
588.00,0.0087
587.00,0.0087
586.00,0.0087
585.00,0.0087
584.00,0.0087
583.00,0.0086
582.00,0.0086
581.00,0.0087
580.00,0.0089
579.00,0.0090
578.00,0.0091
577.00,0.0093
576.00,0.0093
575.00,0.0092
574.00,0.0090
573.00,0.0088
572.00,0.0087
571.00,0.0086
570.00,0.0085
569.00,0.0084
568.00,0.0084
567.00,0.0084
566.00,0.0085
565.00,0.0085
564.00,0.0085
563.00,0.0085
562.00,0.0086
561.00,0.0088
560.00,0.0090
559.00,0.0090
558.00,0.0090
557.00,0.0090
556.00,0.0089
555.00,0.0089
554.00,0.0089
553.00,0.0090
552.00,0.0092
551.00,0.0093
550.00,0.0094
549.00,0.0095
548.00,0.0097
547.00,0.0099
546.00,0.0102
545.00,0.0106
544.00,0.0108
543.00,0.0109
542.00,0.0109
541.00,0.0109
540.00,0.0110
539.00,0.0111
538.00,0.0112
537.00,0.0113
536.00,0.0115
535.00,0.0117
534.00,0.0120
533.00,0.0125
532.00,0.0130
531.00,0.0133
530.00,0.0133
529.00,0.0132
528.00,0.0129
527.00,0.0125
526.00,0.0122
525.00,0.0122
524.00,0.0122
523.00,0.0120
522.00,0.0116
521.00,0.0110
520.00,0.0104
519.00,0.0098
518.00,0.0094
517.00,0.0093
516.00,0.0094
515.00,0.0096
514.00,0.0099
513.00,0.0103
512.00,0.0105
511.00,0.0105
510.00,0.0101
509.00,0.0095
508.00,0.0090
507.00,0.0088
506.00,0.0090
505.00,0.0092
504.00,0.0094
503.00,0.0095
502.00,0.0097
501.00,0.0098
500.00,0.0095
499.00,0.0087
498.00,0.0078
497.00,0.0071
496.00,0.0070
495.00,0.0075
494.00,0.0081
493.00,0.0087
492.00,0.0095
491.00,0.0106
490.00,0.0113
489.00,0.0112
488.00,0.0103
487.00,0.0094
486.00,0.0091
485.00,0.0096
484.00,0.0102
483.00,0.0106
482.00,0.0109
481.00,0.0110
480.00,0.0112
479.00,0.0113
478.00,0.0115
477.00,0.0116
476.00,0.0117
475.00,0.0119
474.00,0.0121
473.00,0.0123
472.00,0.0123
471.00,0.0125
470.00,0.0133
469.00,0.0146
468.00,0.0160
467.00,0.0170
466.00,0.0177
465.00,0.0181
464.00,0.0184
463.00,0.0187
462.00,0.0192
461.00,0.0200
460.00,0.0212
459.00,0.0223
458.00,0.0223
457.00,0.0211
456.00,0.0195
455.00,0.0185
454.00,0.0182
453.00,0.0182
452.00,0.0182
451.00,0.0182
450.00,0.0183
