Created as New Dataset,Sample 222 By Administrator Date Wednesday, September 03 2025
cm-1,A
4000.00,0.0010
3999.00,0.0010
3998.00,0.0010
3997.00,0.0010
3996.00,0.0010
3995.00,0.0010
3994.00,0.0010
3993.00,0.0010
3992.00,0.0010
3991.00,0.0009
3990.00,0.0009
3989.00,0.0009
3988.00,0.0009
3987.00,0.0009
3986.00,0.0010
3985.00,0.0010
3984.00,0.0010
3983.00,0.0010
3982.00,0.0009
3981.00,0.0009
3980.00,0.0009
3979.00,0.0009
3978.00,0.0009
3977.00,0.0008
3976.00,0.0008
3975.00,0.0008
3974.00,0.0008
3973.00,0.0008
3972.00,0.0009
3971.00,0.0009
3970.00,0.0009
3969.00,0.0008
3968.00,0.0008
3967.00,0.0008
3966.00,0.0008
3965.00,0.0009
3964.00,0.0009
3963.00,0.0009
3962.00,0.0009
3961.00,0.0008
3960.00,0.0008
3959.00,0.0008
3958.00,0.0008
3957.00,0.0008
3956.00,0.0008
3955.00,0.0008
3954.00,0.0008
3953.00,0.0008
3952.00,0.0008
3951.00,0.0008
3950.00,0.0008
3949.00,0.0008
3948.00,0.0008
3947.00,0.0008
3946.00,0.0008
3945.00,0.0008
3944.00,0.0007
3943.00,0.0007
3942.00,0.0008
3941.00,0.0008
3940.00,0.0008
3939.00,0.0008
3938.00,0.0008
3937.00,0.0009
3936.00,0.0009
3935.00,0.0010
3934.00,0.0010
3933.00,0.0010
3932.00,0.0010
3931.00,0.0010
3930.00,0.0010
3929.00,0.0010
3928.00,0.0010
3927.00,0.0009
3926.00,0.0009
3925.00,0.0009
3924.00,0.0009
3923.00,0.0009
3922.00,0.0009
3921.00,0.0009
3920.00,0.0009
3919.00,0.0009
3918.00,0.0008
3917.00,0.0008
3916.00,0.0008
3915.00,0.0009
3914.00,0.0009
3913.00,0.0009
3912.00,0.0009
3911.00,0.0009
3910.00,0.0009
3909.00,0.0009
3908.00,0.0009
3907.00,0.0009
3906.00,0.0009
3905.00,0.0009
3904.00,0.0009
3903.00,0.0009
3902.00,0.0010
3901.00,0.0010
3900.00,0.0010
3899.00,0.0010
3898.00,0.0009
3897.00,0.0009
3896.00,0.0008
3895.00,0.0008
3894.00,0.0009
3893.00,0.0009
3892.00,0.0009
3891.00,0.0009
3890.00,0.0009
3889.00,0.0009
3888.00,0.0008
3887.00,0.0008
3886.00,0.0009
3885.00,0.0009
3884.00,0.0009
3883.00,0.0009
3882.00,0.0009
3881.00,0.0009
3880.00,0.0009
3879.00,0.0009
3878.00,0.0009
3877.00,0.0009
3876.00,0.0009
3875.00,0.0009
3874.00,0.0009
3873.00,0.0009
3872.00,0.0009
3871.00,0.0009
3870.00,0.0009
3869.00,0.0009
3868.00,0.0009
3867.00,0.0009
3866.00,0.0009
3865.00,0.0009
3864.00,0.0009
3863.00,0.0009
3862.00,0.0009
3861.00,0.0009
3860.00,0.0009
3859.00,0.0009
3858.00,0.0009
3857.00,0.0009
3856.00,0.0009
3855.00,0.0008
3854.00,0.0008
3853.00,0.0008
3852.00,0.0008
3851.00,0.0008
3850.00,0.0008
3849.00,0.0008
3848.00,0.0009
3847.00,0.0009
3846.00,0.0009
3845.00,0.0009
3844.00,0.0009
3843.00,0.0009
3842.00,0.0010
3841.00,0.0010
3840.00,0.0010
3839.00,0.0010
3838.00,0.0009
3837.00,0.0009
3836.00,0.0009
3835.00,0.0009
3834.00,0.0009
3833.00,0.0008
3832.00,0.0008
3831.00,0.0008
3830.00,0.0008
3829.00,0.0008
3828.00,0.0008
3827.00,0.0008
3826.00,0.0009
3825.00,0.0009
3824.00,0.0009
3823.00,0.0009
3822.00,0.0009
3821.00,0.0009
3820.00,0.0009
3819.00,0.0009
3818.00,0.0009
3817.00,0.0008
3816.00,0.0008
3815.00,0.0008
3814.00,0.0008
3813.00,0.0008
3812.00,0.0008
3811.00,0.0009
3810.00,0.0009
3809.00,0.0009
3808.00,0.0009
3807.00,0.0010
3806.00,0.0010
3805.00,0.0010
3804.00,0.0009
3803.00,0.0009
3802.00,0.0008
3801.00,0.0008
3800.00,0.0009
3799.00,0.0009
3798.00,0.0009
3797.00,0.0008
3796.00,0.0008
3795.00,0.0008
3794.00,0.0008
3793.00,0.0007
3792.00,0.0007
3791.00,0.0007
3790.00,0.0007
3789.00,0.0007
3788.00,0.0007
3787.00,0.0008
3786.00,0.0008
3785.00,0.0008
3784.00,0.0008
3783.00,0.0008
3782.00,0.0008
3781.00,0.0008
3780.00,0.0008
3779.00,0.0008
3778.00,0.0009
3777.00,0.0009
3776.00,0.0008
3775.00,0.0008
3774.00,0.0009
3773.00,0.0009
3772.00,0.0009
3771.00,0.0009
3770.00,0.0009
3769.00,0.0009
3768.00,0.0009
3767.00,0.0008
3766.00,0.0008
3765.00,0.0009
3764.00,0.0009
3763.00,0.0010
3762.00,0.0010
3761.00,0.0010
3760.00,0.0009
3759.00,0.0010
3758.00,0.0010
3757.00,0.0010
3756.00,0.0010
3755.00,0.0010
3754.00,0.0011
3753.00,0.0011
3752.00,0.0012
3751.00,0.0012
3750.00,0.0012
3749.00,0.0012
3748.00,0.0011
3747.00,0.0010
3746.00,0.0009
3745.00,0.0009
3744.00,0.0009
3743.00,0.0010
3742.00,0.0010
3741.00,0.0010
3740.00,0.0011
3739.00,0.0011
3738.00,0.0011
3737.00,0.0011
3736.00,0.0011
3735.00,0.0010
3734.00,0.0010
3733.00,0.0010
3732.00,0.0010
3731.00,0.0010
3730.00,0.0009
3729.00,0.0009
3728.00,0.0009
3727.00,0.0008
3726.00,0.0008
3725.00,0.0008
3724.00,0.0008
3723.00,0.0007
3722.00,0.0007
3721.00,0.0007
3720.00,0.0007
3719.00,0.0007
3718.00,0.0008
3717.00,0.0008
3716.00,0.0008
3715.00,0.0008
3714.00,0.0008
3713.00,0.0008
3712.00,0.0008
3711.00,0.0008
3710.00,0.0008
3709.00,0.0007
3708.00,0.0007
3707.00,0.0007
3706.00,0.0007
3705.00,0.0007
3704.00,0.0006
3703.00,0.0006
3702.00,0.0006
3701.00,0.0007
3700.00,0.0007
3699.00,0.0008
3698.00,0.0008
3697.00,0.0008
3696.00,0.0008
3695.00,0.0008
3694.00,0.0008
3693.00,0.0008
3692.00,0.0007
3691.00,0.0007
3690.00,0.0007
3689.00,0.0007
3688.00,0.0008
3687.00,0.0008
3686.00,0.0008
3685.00,0.0008
3684.00,0.0008
3683.00,0.0008
3682.00,0.0008
3681.00,0.0008
3680.00,0.0009
3679.00,0.0009
3678.00,0.0010
3677.00,0.0010
3676.00,0.0010
3675.00,0.0009
3674.00,0.0009
3673.00,0.0008
3672.00,0.0008
3671.00,0.0007
3670.00,0.0007
3669.00,0.0007
3668.00,0.0007
3667.00,0.0007
3666.00,0.0007
3665.00,0.0007
3664.00,0.0007
3663.00,0.0007
3662.00,0.0007
3661.00,0.0007
3660.00,0.0007
3659.00,0.0008
3658.00,0.0007
3657.00,0.0007
3656.00,0.0007
3655.00,0.0007
3654.00,0.0007
3653.00,0.0008
3652.00,0.0008
3651.00,0.0009
3650.00,0.0010
3649.00,0.0010
3648.00,0.0009
3647.00,0.0009
3646.00,0.0008
3645.00,0.0007
3644.00,0.0007
3643.00,0.0007
3642.00,0.0007
3641.00,0.0008
3640.00,0.0008
3639.00,0.0008
3638.00,0.0008
3637.00,0.0008
3636.00,0.0008
3635.00,0.0009
3634.00,0.0009
3633.00,0.0009
3632.00,0.0010
3631.00,0.0010
3630.00,0.0010
3629.00,0.0010
3628.00,0.0010
3627.00,0.0009
3626.00,0.0009
3625.00,0.0009
3624.00,0.0010
3623.00,0.0010
3622.00,0.0010
3621.00,0.0010
3620.00,0.0010
3619.00,0.0010
3618.00,0.0011
3617.00,0.0011
3616.00,0.0011
3615.00,0.0011
3614.00,0.0011
3613.00,0.0012
3612.00,0.0012
3611.00,0.0013
3610.00,0.0013
3609.00,0.0012
3608.00,0.0011
3607.00,0.0011
3606.00,0.0011
3605.00,0.0011
3604.00,0.0011
3603.00,0.0011
3602.00,0.0011
3601.00,0.0011
3600.00,0.0011
3599.00,0.0011
3598.00,0.0012
3597.00,0.0012
3596.00,0.0012
3595.00,0.0012
3594.00,0.0012
3593.00,0.0013
3592.00,0.0013
3591.00,0.0013
3590.00,0.0013
3589.00,0.0013
3588.00,0.0013
3587.00,0.0012
3586.00,0.0012
3585.00,0.0012
3584.00,0.0013
3583.00,0.0013
3582.00,0.0013
3581.00,0.0013
3580.00,0.0013
3579.00,0.0013
3578.00,0.0013
3577.00,0.0014
3576.00,0.0014
3575.00,0.0015
3574.00,0.0015
3573.00,0.0015
3572.00,0.0015
3571.00,0.0015
3570.00,0.0015
3569.00,0.0015
3568.00,0.0016
3567.00,0.0016
3566.00,0.0016
3565.00,0.0017
3564.00,0.0017
3563.00,0.0016
3562.00,0.0016
3561.00,0.0016
3560.00,0.0016
3559.00,0.0016
3558.00,0.0016
3557.00,0.0017
3556.00,0.0017
3555.00,0.0018
3554.00,0.0018
3553.00,0.0018
3552.00,0.0018
3551.00,0.0018
3550.00,0.0019
3549.00,0.0019
3548.00,0.0020
3547.00,0.0020
3546.00,0.0020
3545.00,0.0020
3544.00,0.0020
3543.00,0.0021
3542.00,0.0021
3541.00,0.0021
3540.00,0.0021
3539.00,0.0021
3538.00,0.0021
3537.00,0.0021
3536.00,0.0021
3535.00,0.0022
3534.00,0.0022
3533.00,0.0022
3532.00,0.0022
3531.00,0.0023
3530.00,0.0023
3529.00,0.0023
3528.00,0.0024
3527.00,0.0024
3526.00,0.0024
3525.00,0.0024
3524.00,0.0024
3523.00,0.0024
3522.00,0.0024
3521.00,0.0025
3520.00,0.0025
3519.00,0.0025
3518.00,0.0024
3517.00,0.0025
3516.00,0.0025
3515.00,0.0025
3514.00,0.0026
3513.00,0.0026
3512.00,0.0026
3511.00,0.0026
3510.00,0.0027
3509.00,0.0027
3508.00,0.0027
3507.00,0.0028
3506.00,0.0028
3505.00,0.0029
3504.00,0.0029
3503.00,0.0029
3502.00,0.0028
3501.00,0.0028
3500.00,0.0028
3499.00,0.0029
3498.00,0.0029
3497.00,0.0030
3496.00,0.0030
3495.00,0.0030
3494.00,0.0031
3493.00,0.0031
3492.00,0.0031
3491.00,0.0031
3490.00,0.0031
3489.00,0.0031
3488.00,0.0032
3487.00,0.0032
3486.00,0.0032
3485.00,0.0032
3484.00,0.0033
3483.00,0.0033
3482.00,0.0034
3481.00,0.0034
3480.00,0.0034
3479.00,0.0034
3478.00,0.0033
3477.00,0.0033
3476.00,0.0033
3475.00,0.0033
3474.00,0.0034
3473.00,0.0035
3472.00,0.0036
3471.00,0.0036
3470.00,0.0036
3469.00,0.0036
3468.00,0.0036
3467.00,0.0036
3466.00,0.0036
3465.00,0.0036
3464.00,0.0037
3463.00,0.0037
3462.00,0.0038
3461.00,0.0038
3460.00,0.0038
3459.00,0.0038
3458.00,0.0038
3457.00,0.0038
3456.00,0.0038
3455.00,0.0038
3454.00,0.0038
3453.00,0.0038
3452.00,0.0038
3451.00,0.0039
3450.00,0.0039
3449.00,0.0039
3448.00,0.0039
3447.00,0.0040
3446.00,0.0040
3445.00,0.0040
3444.00,0.0040
3443.00,0.0041
3442.00,0.0041
3441.00,0.0041
3440.00,0.0042
3439.00,0.0042
3438.00,0.0042
3437.00,0.0042
3436.00,0.0042
3435.00,0.0042
3434.00,0.0042
3433.00,0.0042
3432.00,0.0042
3431.00,0.0042
3430.00,0.0042
3429.00,0.0043
3428.00,0.0043
3427.00,0.0043
3426.00,0.0044
3425.00,0.0044
3424.00,0.0045
3423.00,0.0044
3422.00,0.0044
3421.00,0.0044
3420.00,0.0044
3419.00,0.0044
3418.00,0.0044
3417.00,0.0044
3416.00,0.0045
3415.00,0.0045
3414.00,0.0045
3413.00,0.0046
3412.00,0.0046
3411.00,0.0046
3410.00,0.0046
3409.00,0.0046
3408.00,0.0047
3407.00,0.0047
3406.00,0.0047
3405.00,0.0047
3404.00,0.0047
3403.00,0.0047
3402.00,0.0047
3401.00,0.0048
3400.00,0.0049
3399.00,0.0049
3398.00,0.0049
3397.00,0.0049
3396.00,0.0049
3395.00,0.0049
3394.00,0.0049
3393.00,0.0049
3392.00,0.0048
3391.00,0.0049
3390.00,0.0049
3389.00,0.0049
3388.00,0.0049
3387.00,0.0049
3386.00,0.0049
3385.00,0.0049
3384.00,0.0049
3383.00,0.0048
3382.00,0.0048
3381.00,0.0048
3380.00,0.0048
3379.00,0.0048
3378.00,0.0048
3377.00,0.0048
3376.00,0.0049
3375.00,0.0049
3374.00,0.0049
3373.00,0.0049
3372.00,0.0049
3371.00,0.0048
3370.00,0.0048
3369.00,0.0048
3368.00,0.0048
3367.00,0.0048
3366.00,0.0048
3365.00,0.0048
3364.00,0.0049
3363.00,0.0049
3362.00,0.0049
3361.00,0.0049
3360.00,0.0049
3359.00,0.0049
3358.00,0.0049
3357.00,0.0048
3356.00,0.0048
3355.00,0.0048
3354.00,0.0048
3353.00,0.0047
3352.00,0.0048
3351.00,0.0048
3350.00,0.0048
3349.00,0.0048
3348.00,0.0048
3347.00,0.0048
3346.00,0.0048
3345.00,0.0048
3344.00,0.0048
3343.00,0.0048
3342.00,0.0049
3341.00,0.0049
3340.00,0.0049
3339.00,0.0049
3338.00,0.0049
3337.00,0.0049
3336.00,0.0048
3335.00,0.0048
3334.00,0.0048
3333.00,0.0047
3332.00,0.0047
3331.00,0.0047
3330.00,0.0046
3329.00,0.0046
3328.00,0.0046
3327.00,0.0046
3326.00,0.0046
3325.00,0.0046
3324.00,0.0046
3323.00,0.0046
3322.00,0.0046
3321.00,0.0046
3320.00,0.0046
3319.00,0.0046
3318.00,0.0046
3317.00,0.0046
3316.00,0.0046
3315.00,0.0046
3314.00,0.0045
3313.00,0.0045
3312.00,0.0045
3311.00,0.0046
3310.00,0.0046
3309.00,0.0046
3308.00,0.0046
3307.00,0.0047
3306.00,0.0047
3305.00,0.0047
3304.00,0.0047
3303.00,0.0047
3302.00,0.0047
3301.00,0.0047
3300.00,0.0047
3299.00,0.0046
3298.00,0.0046
3297.00,0.0046
3296.00,0.0045
3295.00,0.0045
3294.00,0.0045
3293.00,0.0045
3292.00,0.0044
3291.00,0.0044
3290.00,0.0043
3289.00,0.0043
3288.00,0.0043
3287.00,0.0043
3286.00,0.0043
3285.00,0.0043
3284.00,0.0043
3283.00,0.0043
3282.00,0.0043
3281.00,0.0043
3280.00,0.0044
3279.00,0.0044
3278.00,0.0043
3277.00,0.0043
3276.00,0.0042
3275.00,0.0041
3274.00,0.0041
3273.00,0.0040
3272.00,0.0041
3271.00,0.0041
3270.00,0.0041
3269.00,0.0041
3268.00,0.0041
3267.00,0.0041
3266.00,0.0041
3265.00,0.0041
3264.00,0.0041
3263.00,0.0040
3262.00,0.0040
3261.00,0.0039
3260.00,0.0039
3259.00,0.0039
3258.00,0.0038
3257.00,0.0038
3256.00,0.0038
3255.00,0.0038
3254.00,0.0038
3253.00,0.0038
3252.00,0.0038
3251.00,0.0038
3250.00,0.0038
3249.00,0.0038
3248.00,0.0038
3247.00,0.0038
3246.00,0.0037
3245.00,0.0037
3244.00,0.0037
3243.00,0.0037
3242.00,0.0037
3241.00,0.0038
3240.00,0.0038
3239.00,0.0038
3238.00,0.0038
3237.00,0.0038
3236.00,0.0037
3235.00,0.0037
3234.00,0.0037
3233.00,0.0037
3232.00,0.0037
3231.00,0.0037
3230.00,0.0037
3229.00,0.0037
3228.00,0.0038
3227.00,0.0038
3226.00,0.0038
3225.00,0.0038
3224.00,0.0038
3223.00,0.0038
3222.00,0.0039
3221.00,0.0039
3220.00,0.0040
3219.00,0.0040
3218.00,0.0040
3217.00,0.0040
3216.00,0.0040
3215.00,0.0041
3214.00,0.0041
3213.00,0.0041
3212.00,0.0041
3211.00,0.0041
3210.00,0.0042
3209.00,0.0042
3208.00,0.0041
3207.00,0.0041
3206.00,0.0041
3205.00,0.0042
3204.00,0.0042
3203.00,0.0042
3202.00,0.0042
3201.00,0.0042
3200.00,0.0041
3199.00,0.0041
3198.00,0.0041
3197.00,0.0041
3196.00,0.0041
3195.00,0.0041
3194.00,0.0041
3193.00,0.0042
3192.00,0.0042
3191.00,0.0041
3190.00,0.0041
3189.00,0.0041
3188.00,0.0040
3187.00,0.0041
3186.00,0.0041
3185.00,0.0042
3184.00,0.0042
3183.00,0.0041
3182.00,0.0041
3181.00,0.0041
3180.00,0.0040
3179.00,0.0040
3178.00,0.0039
3177.00,0.0039
3176.00,0.0039
3175.00,0.0039
3174.00,0.0039
3173.00,0.0038
3172.00,0.0038
3171.00,0.0038
3170.00,0.0038
3169.00,0.0038
3168.00,0.0038
3167.00,0.0038
3166.00,0.0037
3165.00,0.0037
3164.00,0.0037
3163.00,0.0037
3162.00,0.0037
3161.00,0.0037
3160.00,0.0037
3159.00,0.0037
3158.00,0.0036
3157.00,0.0036
3156.00,0.0036
3155.00,0.0036
3154.00,0.0037
3153.00,0.0037
3152.00,0.0037
3151.00,0.0037
3150.00,0.0037
3149.00,0.0037
3148.00,0.0037
3147.00,0.0037
3146.00,0.0037
3145.00,0.0037
3144.00,0.0036
3143.00,0.0035
3142.00,0.0035
3141.00,0.0035
3140.00,0.0035
3139.00,0.0035
3138.00,0.0035
3137.00,0.0035
3136.00,0.0035
3135.00,0.0035
3134.00,0.0035
3133.00,0.0034
3132.00,0.0034
3131.00,0.0033
3130.00,0.0033
3129.00,0.0033
3128.00,0.0033
3127.00,0.0033
3126.00,0.0033
3125.00,0.0032
3124.00,0.0032
3123.00,0.0032
3122.00,0.0032
3121.00,0.0032
3120.00,0.0031
3119.00,0.0031
3118.00,0.0031
3117.00,0.0031
3116.00,0.0031
3115.00,0.0031
3114.00,0.0031
3113.00,0.0031
3112.00,0.0030
3111.00,0.0030
3110.00,0.0030
3109.00,0.0030
3108.00,0.0030
3107.00,0.0030
3106.00,0.0031
3105.00,0.0031
3104.00,0.0031
3103.00,0.0030
3102.00,0.0030
3101.00,0.0029
3100.00,0.0029
3099.00,0.0029
3098.00,0.0029
3097.00,0.0029
3096.00,0.0029
3095.00,0.0029
3094.00,0.0029
3093.00,0.0029
3092.00,0.0029
3091.00,0.0029
3090.00,0.0028
3089.00,0.0028
3088.00,0.0028
3087.00,0.0028
3086.00,0.0028
3085.00,0.0028
3084.00,0.0028
3083.00,0.0028
3082.00,0.0029
3081.00,0.0029
3080.00,0.0029
3079.00,0.0029
3078.00,0.0029
3077.00,0.0029
3076.00,0.0029
3075.00,0.0030
3074.00,0.0030
3073.00,0.0030
3072.00,0.0029
3071.00,0.0029
3070.00,0.0029
3069.00,0.0029
3068.00,0.0029
3067.00,0.0030
3066.00,0.0030
3065.00,0.0030
3064.00,0.0030
3063.00,0.0031
3062.00,0.0031
3061.00,0.0031
3060.00,0.0031
3059.00,0.0030
3058.00,0.0030
3057.00,0.0030
3056.00,0.0031
3055.00,0.0031
3054.00,0.0031
3053.00,0.0031
3052.00,0.0031
3051.00,0.0032
3050.00,0.0032
3049.00,0.0032
3048.00,0.0033
3047.00,0.0033
3046.00,0.0033
3045.00,0.0033
3044.00,0.0034
3043.00,0.0034
3042.00,0.0034
3041.00,0.0035
3040.00,0.0035
3039.00,0.0035
3038.00,0.0035
3037.00,0.0036
3036.00,0.0036
3035.00,0.0037
3034.00,0.0037
3033.00,0.0037
3032.00,0.0038
3031.00,0.0038
3030.00,0.0038
3029.00,0.0038
3028.00,0.0039
3027.00,0.0039
3026.00,0.0040
3025.00,0.0041
3024.00,0.0041
3023.00,0.0042
3022.00,0.0043
3021.00,0.0044
3020.00,0.0045
3019.00,0.0046
3018.00,0.0047
3017.00,0.0047
3016.00,0.0048
3015.00,0.0049
3014.00,0.0050
3013.00,0.0050
3012.00,0.0052
3011.00,0.0053
3010.00,0.0054
3009.00,0.0055
3008.00,0.0056
3007.00,0.0058
3006.00,0.0059
3005.00,0.0061
3004.00,0.0062
3003.00,0.0064
3002.00,0.0066
3001.00,0.0068
3000.00,0.0070
2999.00,0.0072
2998.00,0.0074
2997.00,0.0077
2996.00,0.0081
2995.00,0.0085
2994.00,0.0089
2993.00,0.0093
2992.00,0.0098
2991.00,0.0103
2990.00,0.0109
2989.00,0.0115
2988.00,0.0123
2987.00,0.0131
2986.00,0.0139
2985.00,0.0149
2984.00,0.0159
2983.00,0.0171
2982.00,0.0185
2981.00,0.0201
2980.00,0.0219
2979.00,0.0240
2978.00,0.0264
2977.00,0.0291
2976.00,0.0321
2975.00,0.0356
2974.00,0.0395
2973.00,0.0440
2972.00,0.0490
2971.00,0.0547
2970.00,0.0610
2969.00,0.0678
2968.00,0.0751
2967.00,0.0828
2966.00,0.0908
2965.00,0.0987
2964.00,0.1063
2963.00,0.1133
2962.00,0.1194
2961.00,0.1245
2960.00,0.1287
2959.00,0.1327
2958.00,0.1368
2957.00,0.1418
2956.00,0.1478
2955.00,0.1552
2954.00,0.1636
2953.00,0.1723
2952.00,0.1801
2951.00,0.1859
2950.00,0.1885
2949.00,0.1869
2948.00,0.1811
2947.00,0.1716
2946.00,0.1597
2945.00,0.1469
2944.00,0.1347
2943.00,0.1241
2942.00,0.1159
2941.00,0.1102
2940.00,0.1071
2939.00,0.1063
2938.00,0.1075
2937.00,0.1105
2936.00,0.1152
2935.00,0.1214
2934.00,0.1290
2933.00,0.1380
2932.00,0.1482
2931.00,0.1593
2930.00,0.1712
2929.00,0.1835
2928.00,0.1959
2927.00,0.2081
2926.00,0.2201
2925.00,0.2318
2924.00,0.2433
2923.00,0.2548
2922.00,0.2663
2921.00,0.2775
2920.00,0.2874
2919.00,0.2951
2918.00,0.2992
2917.00,0.2989
2916.00,0.2940
2915.00,0.2851
2914.00,0.2734
2913.00,0.2606
2912.00,0.2478
2911.00,0.2358
2910.00,0.2251
2909.00,0.2154
2908.00,0.2065
2907.00,0.1983
2906.00,0.1903
2905.00,0.1825
2904.00,0.1749
2903.00,0.1675
2902.00,0.1603
2901.00,0.1533
2900.00,0.1467
2899.00,0.1405
2898.00,0.1348
2897.00,0.1295
2896.00,0.1248
2895.00,0.1206
2894.00,0.1171
2893.00,0.1142
2892.00,0.1119
2891.00,0.1102
2890.00,0.1091
2889.00,0.1084
2888.00,0.1081
2887.00,0.1082
2886.00,0.1085
2885.00,0.1093
2884.00,0.1105
2883.00,0.1123
2882.00,0.1145
2881.00,0.1171
2880.00,0.1197
2879.00,0.1220
2878.00,0.1236
2877.00,0.1242
2876.00,0.1240
2875.00,0.1233
2874.00,0.1227
2873.00,0.1226
2872.00,0.1233
2871.00,0.1247
2870.00,0.1267
2869.00,0.1286
2868.00,0.1298
2867.00,0.1296
2866.00,0.1271
2865.00,0.1223
2864.00,0.1154
2863.00,0.1075
2862.00,0.0996
2861.00,0.0927
2860.00,0.0873
2859.00,0.0836
2858.00,0.0816
2857.00,0.0809
2856.00,0.0813
2855.00,0.0826
2854.00,0.0845
2853.00,0.0867
2852.00,0.0889
2851.00,0.0908
2850.00,0.0922
2849.00,0.0929
2848.00,0.0933
2847.00,0.0940
2846.00,0.0955
2845.00,0.0980
2844.00,0.1017
2843.00,0.1063
2842.00,0.1113
2841.00,0.1160
2840.00,0.1198
2839.00,0.1218
2838.00,0.1213
2837.00,0.1178
2836.00,0.1115
2835.00,0.1027
2834.00,0.0925
2833.00,0.0818
2832.00,0.0717
2831.00,0.0626
2830.00,0.0549
2829.00,0.0486
2828.00,0.0434
2827.00,0.0393
2826.00,0.0359
2825.00,0.0332
2824.00,0.0309
2823.00,0.0289
2822.00,0.0272
2821.00,0.0258
2820.00,0.0245
2819.00,0.0234
2818.00,0.0225
2817.00,0.0217
2816.00,0.0210
2815.00,0.0203
2814.00,0.0197
2813.00,0.0191
2812.00,0.0185
2811.00,0.0179
2810.00,0.0173
2809.00,0.0168
2808.00,0.0161
2807.00,0.0155
2806.00,0.0148
2805.00,0.0142
2804.00,0.0135
2803.00,0.0130
2802.00,0.0124
2801.00,0.0120
2800.00,0.0116
2799.00,0.0112
2798.00,0.0110
2797.00,0.0107
2796.00,0.0105
2795.00,0.0102
2794.00,0.0099
2793.00,0.0097
2792.00,0.0094
2791.00,0.0091
2790.00,0.0088
2789.00,0.0085
2788.00,0.0083
2787.00,0.0080
2786.00,0.0077
2785.00,0.0075
2784.00,0.0072
2783.00,0.0070
2782.00,0.0068
2781.00,0.0066
2780.00,0.0065
2779.00,0.0063
2778.00,0.0062
2777.00,0.0061
2776.00,0.0060
2775.00,0.0059
2774.00,0.0058
2773.00,0.0058
2772.00,0.0057
2771.00,0.0056
2770.00,0.0056
2769.00,0.0055
2768.00,0.0055
2767.00,0.0055
2766.00,0.0055
2765.00,0.0054
2764.00,0.0054
2763.00,0.0054
2762.00,0.0053
2761.00,0.0053
2760.00,0.0053
2759.00,0.0052
2758.00,0.0052
2757.00,0.0052
2756.00,0.0052
2755.00,0.0051
2754.00,0.0051
2753.00,0.0051
2752.00,0.0051
2751.00,0.0051
2750.00,0.0051
2749.00,0.0051
2748.00,0.0051
2747.00,0.0051
2746.00,0.0051
2745.00,0.0052
2744.00,0.0052
2743.00,0.0053
2742.00,0.0053
2741.00,0.0055
2740.00,0.0056
2739.00,0.0058
2738.00,0.0059
2737.00,0.0060
2736.00,0.0062
2735.00,0.0063
2734.00,0.0064
2733.00,0.0066
2732.00,0.0068
2731.00,0.0070
2730.00,0.0072
2729.00,0.0074
2728.00,0.0077
2727.00,0.0080
2726.00,0.0083
2725.00,0.0086
2724.00,0.0087
2723.00,0.0087
2722.00,0.0087
2721.00,0.0085
2720.00,0.0082
2719.00,0.0079
2718.00,0.0076
2717.00,0.0073
2716.00,0.0070
2715.00,0.0067
2714.00,0.0065
2713.00,0.0062
2712.00,0.0060
2711.00,0.0058
2710.00,0.0056
2709.00,0.0054
2708.00,0.0053
2707.00,0.0052
2706.00,0.0050
2705.00,0.0049
2704.00,0.0048
2703.00,0.0047
2702.00,0.0046
2701.00,0.0045
2700.00,0.0045
2699.00,0.0044
2698.00,0.0044
2697.00,0.0044
2696.00,0.0044
2695.00,0.0044
2694.00,0.0045
2693.00,0.0045
2692.00,0.0044
2691.00,0.0044
2690.00,0.0044
2689.00,0.0044
2688.00,0.0044
2687.00,0.0044
2686.00,0.0044
2685.00,0.0044
2684.00,0.0044
2683.00,0.0045
2682.00,0.0045
2681.00,0.0045
2680.00,0.0045
2679.00,0.0045
2678.00,0.0045
2677.00,0.0045
2676.00,0.0045
2675.00,0.0045
2674.00,0.0045
2673.00,0.0044
2672.00,0.0044
2671.00,0.0044
2670.00,0.0044
2669.00,0.0044
2668.00,0.0044
2667.00,0.0045
2666.00,0.0045
2665.00,0.0045
2664.00,0.0045
2663.00,0.0045
2662.00,0.0046
2661.00,0.0047
2660.00,0.0047
2659.00,0.0048
2658.00,0.0048
2657.00,0.0048
2656.00,0.0047
2655.00,0.0047
2654.00,0.0046
2653.00,0.0046
2652.00,0.0045
2651.00,0.0045
2650.00,0.0044
2649.00,0.0043
2648.00,0.0043
2647.00,0.0042
2646.00,0.0042
2645.00,0.0042
2644.00,0.0041
2643.00,0.0041
2642.00,0.0040
2641.00,0.0040
2640.00,0.0039
2639.00,0.0038
2638.00,0.0038
2637.00,0.0038
2636.00,0.0038
2635.00,0.0038
2634.00,0.0038
2633.00,0.0038
2632.00,0.0038
2631.00,0.0038
2630.00,0.0038
2629.00,0.0038
2628.00,0.0038
2627.00,0.0039
2626.00,0.0039
2625.00,0.0040
2624.00,0.0040
2623.00,0.0040
2622.00,0.0041
2621.00,0.0041
2620.00,0.0041
2619.00,0.0041
2618.00,0.0040
2617.00,0.0040
2616.00,0.0040
2615.00,0.0040
2614.00,0.0040
2613.00,0.0040
2612.00,0.0039
2611.00,0.0038
2610.00,0.0038
2609.00,0.0037
2608.00,0.0036
2607.00,0.0035
2606.00,0.0034
2605.00,0.0033
2604.00,0.0032
2603.00,0.0031
2602.00,0.0031
2601.00,0.0031
2600.00,0.0031
2599.00,0.0031
2598.00,0.0031
2597.00,0.0031
2596.00,0.0032
2595.00,0.0032
2594.00,0.0032
2593.00,0.0033
2592.00,0.0033
2591.00,0.0034
2590.00,0.0034
2589.00,0.0035
2588.00,0.0036
2587.00,0.0037
2586.00,0.0038
2585.00,0.0039
2584.00,0.0040
2583.00,0.0040
2582.00,0.0040
2581.00,0.0039
2580.00,0.0038
2579.00,0.0038
2578.00,0.0036
2577.00,0.0035
2576.00,0.0034
2575.00,0.0033
2574.00,0.0032
2573.00,0.0030
2572.00,0.0029
2571.00,0.0028
2570.00,0.0027
2569.00,0.0026
2568.00,0.0026
2567.00,0.0025
2566.00,0.0025
2565.00,0.0024
2564.00,0.0025
2563.00,0.0025
2562.00,0.0025
2561.00,0.0024
2560.00,0.0024
2559.00,0.0023
2558.00,0.0023
2557.00,0.0022
2556.00,0.0022
2555.00,0.0022
2554.00,0.0021
2553.00,0.0021
2552.00,0.0020
2551.00,0.0019
2550.00,0.0018
2549.00,0.0018
2548.00,0.0018
2547.00,0.0018
2546.00,0.0018
2545.00,0.0019
2544.00,0.0019
2543.00,0.0019
2542.00,0.0019
2541.00,0.0018
2540.00,0.0017
2539.00,0.0016
2538.00,0.0015
2537.00,0.0015
2536.00,0.0015
2535.00,0.0015
2534.00,0.0015
2533.00,0.0015
2532.00,0.0014
2531.00,0.0014
2530.00,0.0014
2529.00,0.0015
2528.00,0.0015
2527.00,0.0015
2526.00,0.0015
2525.00,0.0015
2524.00,0.0014
2523.00,0.0013
2522.00,0.0013
2521.00,0.0013
2520.00,0.0012
2519.00,0.0012
2518.00,0.0012
2517.00,0.0011
2516.00,0.0011
2515.00,0.0010
2514.00,0.0010
2513.00,0.0009
2512.00,0.0010
2511.00,0.0010
2510.00,0.0011
2509.00,0.0012
2508.00,0.0012
2507.00,0.0012
2506.00,0.0011
2505.00,0.0011
2504.00,0.0010
2503.00,0.0009
2502.00,0.0009
2501.00,0.0010
2500.00,0.0011
2499.00,0.0011
2498.00,0.0011
2497.00,0.0011
2496.00,0.0011
2495.00,0.0011
2494.00,0.0011
2493.00,0.0011
2492.00,0.0011
2491.00,0.0011
2490.00,0.0011
2489.00,0.0010
2488.00,0.0009
2487.00,0.0009
2486.00,0.0009
2485.00,0.0009
2484.00,0.0010
2483.00,0.0010
2482.00,0.0011
2481.00,0.0011
2480.00,0.0011
2479.00,0.0011
2478.00,0.0010
2477.00,0.0010
2476.00,0.0010
2475.00,0.0011
2474.00,0.0011
2473.00,0.0011
2472.00,0.0010
2471.00,0.0010
2470.00,0.0009
2469.00,0.0009
2468.00,0.0009
2467.00,0.0009
2466.00,0.0010
2465.00,0.0010
2464.00,0.0010
2463.00,0.0010
2462.00,0.0010
2461.00,0.0009
2460.00,0.0009
2459.00,0.0009
2458.00,0.0009
2457.00,0.0010
2456.00,0.0011
2455.00,0.0012
2454.00,0.0011
2453.00,0.0011
2452.00,0.0011
2451.00,0.0011
2450.00,0.0011
2449.00,0.0011
2448.00,0.0011
2447.00,0.0011
2446.00,0.0011
2445.00,0.0011
2444.00,0.0011
2443.00,0.0010
2442.00,0.0010
2441.00,0.0010
2440.00,0.0010
2439.00,0.0011
2438.00,0.0011
2437.00,0.0012
2436.00,0.0013
2435.00,0.0013
2434.00,0.0013
2433.00,0.0013
2432.00,0.0013
2431.00,0.0012
2430.00,0.0012
2429.00,0.0011
2428.00,0.0011
2427.00,0.0011
2426.00,0.0011
2425.00,0.0011
2424.00,0.0011
2423.00,0.0011
2422.00,0.0011
2421.00,0.0011
2420.00,0.0011
2419.00,0.0011
2418.00,0.0010
2417.00,0.0009
2416.00,0.0009
2415.00,0.0009
2414.00,0.0009
2413.00,0.0009
2412.00,0.0009
2411.00,0.0009
2410.00,0.0008
2409.00,0.0008
2408.00,0.0008
2407.00,0.0008
2406.00,0.0008
2405.00,0.0008
2404.00,0.0008
2403.00,0.0008
2402.00,0.0008
2401.00,0.0008
2400.00,0.0008
2399.00,0.0008
2398.00,0.0008
2397.00,0.0008
2396.00,0.0008
2395.00,0.0007
2394.00,0.0007
2393.00,0.0007
2392.00,0.0007
2391.00,0.0007
2390.00,0.0007
2389.00,0.0007
2388.00,0.0007
2387.00,0.0007
2386.00,0.0007
2385.00,0.0007
2384.00,0.0006
2383.00,0.0006
2382.00,0.0006
2381.00,0.0006
2380.00,0.0006
2379.00,0.0005
2378.00,0.0005
2377.00,0.0004
2376.00,0.0004
2375.00,0.0005
2374.00,0.0006
2373.00,0.0006
2372.00,0.0006
2371.00,0.0006
2370.00,0.0006
2369.00,0.0005
2368.00,0.0005
2367.00,0.0005
2366.00,0.0005
2365.00,0.0005
2364.00,0.0006
2363.00,0.0006
2362.00,0.0006
2361.00,0.0006
2360.00,0.0006
2359.00,0.0007
2358.00,0.0007
2357.00,0.0008
2356.00,0.0008
2355.00,0.0008
2354.00,0.0007
2353.00,0.0007
2352.00,0.0007
2351.00,0.0008
2350.00,0.0008
2349.00,0.0007
2348.00,0.0006
2347.00,0.0006
2346.00,0.0007
2345.00,0.0009
2344.00,0.0010
2343.00,0.0010
2342.00,0.0010
2341.00,0.0009
2340.00,0.0009
2339.00,0.0010
2338.00,0.0010
2337.00,0.0011
2336.00,0.0011
2335.00,0.0010
2334.00,0.0009
2333.00,0.0008
2332.00,0.0008
2331.00,0.0008
2330.00,0.0009
2329.00,0.0010
2328.00,0.0011
2327.00,0.0014
2326.00,0.0017
2325.00,0.0020
2324.00,0.0022
2323.00,0.0022
2322.00,0.0021
2321.00,0.0019
2320.00,0.0017
2319.00,0.0016
2318.00,0.0015
2317.00,0.0014
2316.00,0.0013
2315.00,0.0013
2314.00,0.0012
2313.00,0.0012
2312.00,0.0012
2311.00,0.0012
2310.00,0.0012
2309.00,0.0012
2308.00,0.0013
2307.00,0.0013
2306.00,0.0013
2305.00,0.0013
2304.00,0.0013
2303.00,0.0013
2302.00,0.0013
2301.00,0.0013
2300.00,0.0013
2299.00,0.0013
2298.00,0.0013
2297.00,0.0013
2296.00,0.0014
2295.00,0.0015
2294.00,0.0016
2293.00,0.0017
2292.00,0.0018
2291.00,0.0018
2290.00,0.0018
2289.00,0.0019
2288.00,0.0019
2287.00,0.0020
2286.00,0.0020
2285.00,0.0020
2284.00,0.0019
2283.00,0.0018
2282.00,0.0018
2281.00,0.0017
2280.00,0.0016
2279.00,0.0016
2278.00,0.0015
2277.00,0.0015
2276.00,0.0016
2275.00,0.0016
2274.00,0.0015
2273.00,0.0014
2272.00,0.0013
2271.00,0.0012
2270.00,0.0011
2269.00,0.0012
2268.00,0.0013
2267.00,0.0013
2266.00,0.0013
2265.00,0.0013
2264.00,0.0012
2263.00,0.0012
2262.00,0.0013
2261.00,0.0013
2260.00,0.0014
2259.00,0.0014
2258.00,0.0013
2257.00,0.0013
2256.00,0.0011
2255.00,0.0010
2254.00,0.0010
2253.00,0.0010
2252.00,0.0010
2251.00,0.0010
2250.00,0.0010
2249.00,0.0011
2248.00,0.0011
2247.00,0.0011
2246.00,0.0010
2245.00,0.0009
2244.00,0.0009
2243.00,0.0009
2242.00,0.0010
2241.00,0.0010
2240.00,0.0010
2239.00,0.0009
2238.00,0.0008
2237.00,0.0008
2236.00,0.0007
2235.00,0.0007
2234.00,0.0008
2233.00,0.0008
2232.00,0.0008
2231.00,0.0006
2230.00,0.0006
2229.00,0.0006
2228.00,0.0008
2227.00,0.0009
2226.00,0.0011
2225.00,0.0011
2224.00,0.0011
2223.00,0.0010
2222.00,0.0009
2221.00,0.0009
2220.00,0.0009
2219.00,0.0009
2218.00,0.0009
2217.00,0.0009
2216.00,0.0009
2215.00,0.0008
2214.00,0.0007
2213.00,0.0006
2212.00,0.0005
2211.00,0.0004
2210.00,0.0003
2209.00,0.0003
2208.00,0.0005
2207.00,0.0007
2206.00,0.0009
2205.00,0.0010
2204.00,0.0009
2203.00,0.0008
2202.00,0.0007
2201.00,0.0007
2200.00,0.0008
2199.00,0.0008
2198.00,0.0009
2197.00,0.0008
2196.00,0.0007
2195.00,0.0007
2194.00,0.0008
2193.00,0.0010
2192.00,0.0010
2191.00,0.0010
2190.00,0.0009
2189.00,0.0009
2188.00,0.0008
2187.00,0.0008
2186.00,0.0008
2185.00,0.0009
2184.00,0.0009
2183.00,0.0008
2182.00,0.0007
2181.00,0.0007
2180.00,0.0007
2179.00,0.0007
2178.00,0.0006
2177.00,0.0004
2176.00,0.0002
2175.00,0.0000
2174.00,-0.0001
2173.00,-0.0000
2172.00,0.0002
2171.00,0.0005
2170.00,0.0010
2169.00,0.0015
2168.00,0.0019
2167.00,0.0020
2166.00,0.0019
2165.00,0.0016
2164.00,0.0013
2163.00,0.0012
2162.00,0.0010
2161.00,0.0007
2160.00,-0.0001
2159.00,-0.0012
2158.00,-0.0021
2157.00,-0.0024
2156.00,-0.0023
2155.00,-0.0020
2154.00,-0.0019
2153.00,-0.0018
2152.00,-0.0016
2151.00,-0.0014
2150.00,-0.0012
2149.00,-0.0010
2148.00,-0.0010
2147.00,-0.0011
2146.00,-0.0013
2145.00,-0.0015
2144.00,-0.0014
2143.00,-0.0013
2142.00,-0.0011
2141.00,-0.0010
2140.00,-0.0009
2139.00,-0.0008
2138.00,-0.0008
2137.00,-0.0009
2136.00,-0.0011
2135.00,-0.0013
2134.00,-0.0015
2133.00,-0.0016
2132.00,-0.0016
2131.00,-0.0015
2130.00,-0.0013
2129.00,-0.0011
2128.00,-0.0010
2127.00,-0.0008
2126.00,-0.0007
2125.00,-0.0006
2124.00,-0.0006
2123.00,-0.0006
2122.00,-0.0006
2121.00,-0.0005
2120.00,-0.0004
2119.00,-0.0002
2118.00,-0.0001
2117.00,0.0000
2116.00,0.0001
2115.00,0.0002
2114.00,0.0002
2113.00,0.0003
2112.00,0.0003
2111.00,0.0003
2110.00,0.0002
2109.00,0.0002
2108.00,0.0001
2107.00,0.0001
2106.00,0.0000
2105.00,0.0001
2104.00,0.0001
2103.00,0.0002
2102.00,0.0002
2101.00,0.0003
2100.00,0.0003
2099.00,0.0003
2098.00,0.0003
2097.00,0.0003
2096.00,0.0001
2095.00,-0.0002
2094.00,-0.0004
2093.00,-0.0004
2092.00,-0.0004
2091.00,-0.0004
2090.00,-0.0003
2089.00,-0.0002
2088.00,-0.0001
2087.00,0.0000
2086.00,0.0001
2085.00,0.0001
2084.00,0.0000
2083.00,-0.0000
2082.00,0.0001
2081.00,0.0003
2080.00,0.0005
2079.00,0.0006
2078.00,0.0006
2077.00,0.0005
2076.00,0.0004
2075.00,0.0002
2074.00,0.0002
2073.00,0.0002
2072.00,0.0002
2071.00,0.0002
2070.00,0.0001
2069.00,-0.0000
2068.00,-0.0000
2067.00,0.0000
2066.00,0.0001
2065.00,0.0001
2064.00,0.0001
2063.00,0.0000
2062.00,0.0000
2061.00,0.0001
2060.00,0.0001
2059.00,0.0001
2058.00,-0.0000
2057.00,-0.0000
2056.00,0.0000
2055.00,0.0002
2054.00,0.0005
2053.00,0.0009
2052.00,0.0014
2051.00,0.0015
2050.00,0.0012
2049.00,0.0007
2048.00,0.0003
2047.00,0.0001
2046.00,0.0001
2045.00,0.0001
2044.00,0.0001
2043.00,0.0001
2042.00,0.0002
2041.00,0.0005
2040.00,0.0008
2039.00,0.0009
2038.00,0.0009
2037.00,0.0006
2036.00,0.0003
2035.00,-0.0001
2034.00,-0.0004
2033.00,-0.0007
2032.00,-0.0008
2031.00,-0.0008
2030.00,-0.0007
2029.00,-0.0006
2028.00,-0.0005
2027.00,-0.0007
2026.00,-0.0008
2025.00,-0.0007
2024.00,-0.0005
2023.00,-0.0003
2022.00,-0.0003
2021.00,-0.0004
2020.00,-0.0005
2019.00,-0.0006
2018.00,-0.0005
2017.00,-0.0004
2016.00,-0.0004
2015.00,-0.0005
2014.00,-0.0008
2013.00,-0.0010
2012.00,-0.0010
2011.00,-0.0008
2010.00,-0.0007
2009.00,-0.0006
2008.00,-0.0007
2007.00,-0.0009
2006.00,-0.0012
2005.00,-0.0013
2004.00,-0.0012
2003.00,-0.0011
2002.00,-0.0010
2001.00,-0.0011
2000.00,-0.0012
1999.00,-0.0012
1998.00,-0.0012
1997.00,-0.0011
1996.00,-0.0010
1995.00,-0.0011
1994.00,-0.0013
1993.00,-0.0012
1992.00,-0.0009
1991.00,-0.0005
1990.00,-0.0002
1989.00,-0.0002
1988.00,-0.0003
1987.00,-0.0003
1986.00,-0.0002
1985.00,-0.0001
1984.00,0.0001
1983.00,0.0003
1982.00,0.0005
1981.00,0.0008
1980.00,0.0010
1979.00,0.0008
1978.00,0.0003
1977.00,-0.0003
1976.00,-0.0008
1975.00,-0.0012
1974.00,-0.0015
1973.00,-0.0017
1972.00,-0.0018
1971.00,-0.0019
1970.00,-0.0018
1969.00,-0.0016
1968.00,-0.0015
1967.00,-0.0014
1966.00,-0.0014
1965.00,-0.0012
1964.00,-0.0009
1963.00,-0.0007
1962.00,-0.0007
1961.00,-0.0009
1960.00,-0.0012
1959.00,-0.0014
1958.00,-0.0015
1957.00,-0.0015
1956.00,-0.0014
1955.00,-0.0014
1954.00,-0.0013
1953.00,-0.0012
1952.00,-0.0011
1951.00,-0.0010
1950.00,-0.0009
1949.00,-0.0008
1948.00,-0.0008
1947.00,-0.0009
1946.00,-0.0010
1945.00,-0.0010
1944.00,-0.0011
1943.00,-0.0011
1942.00,-0.0012
1941.00,-0.0012
1940.00,-0.0011
1939.00,-0.0011
1938.00,-0.0011
1937.00,-0.0011
1936.00,-0.0012
1935.00,-0.0012
1934.00,-0.0011
1933.00,-0.0009
1932.00,-0.0007
1931.00,-0.0005
1930.00,-0.0005
1929.00,-0.0005
1928.00,-0.0006
1927.00,-0.0007
1926.00,-0.0008
1925.00,-0.0009
1924.00,-0.0010
1923.00,-0.0010
1922.00,-0.0008
1921.00,-0.0006
1920.00,-0.0005
1919.00,-0.0003
1918.00,-0.0003
1917.00,-0.0002
1916.00,-0.0001
1915.00,-0.0000
1914.00,-0.0000
1913.00,-0.0000
1912.00,-0.0001
1911.00,-0.0002
1910.00,-0.0002
1909.00,-0.0001
1908.00,-0.0001
1907.00,-0.0001
1906.00,-0.0002
1905.00,-0.0002
1904.00,-0.0003
1903.00,-0.0003
1902.00,-0.0004
1901.00,-0.0004
1900.00,-0.0003
1899.00,-0.0002
1898.00,-0.0002
1897.00,-0.0001
1896.00,-0.0001
1895.00,-0.0001
1894.00,-0.0001
1893.00,-0.0001
1892.00,-0.0000
1891.00,-0.0000
1890.00,-0.0001
1889.00,-0.0001
1888.00,-0.0002
1887.00,-0.0003
1886.00,-0.0004
1885.00,-0.0004
1884.00,-0.0004
1883.00,-0.0003
1882.00,-0.0003
1881.00,-0.0002
1880.00,-0.0001
1879.00,0.0000
1878.00,0.0000
1877.00,-0.0001
1876.00,-0.0001
1875.00,-0.0001
1874.00,-0.0001
1873.00,0.0000
1872.00,0.0000
1871.00,0.0000
1870.00,-0.0000
1869.00,-0.0000
1868.00,-0.0000
1867.00,-0.0000
1866.00,-0.0000
1865.00,-0.0000
1864.00,-0.0001
1863.00,-0.0001
1862.00,-0.0001
1861.00,-0.0001
1860.00,-0.0001
1859.00,-0.0001
1858.00,-0.0001
1857.00,0.0000
1856.00,0.0001
1855.00,0.0001
1854.00,0.0001
1853.00,0.0000
1852.00,0.0000
1851.00,0.0000
1850.00,0.0000
1849.00,0.0000
1848.00,0.0001
1847.00,0.0002
1846.00,0.0003
1845.00,0.0004
1844.00,0.0004
1843.00,0.0003
1842.00,0.0002
1841.00,0.0000
1840.00,-0.0000
1839.00,-0.0001
1838.00,-0.0000
1837.00,0.0001
1836.00,0.0002
1835.00,0.0003
1834.00,0.0004
1833.00,0.0004
1832.00,0.0004
1831.00,0.0004
1830.00,0.0004
1829.00,0.0004
1828.00,0.0003
1827.00,0.0003
1826.00,0.0002
1825.00,0.0002
1824.00,0.0003
1823.00,0.0003
1822.00,0.0004
1821.00,0.0004
1820.00,0.0003
1819.00,0.0003
1818.00,0.0002
1817.00,0.0001
1816.00,0.0002
1815.00,0.0002
1814.00,0.0002
1813.00,0.0003
1812.00,0.0003
1811.00,0.0004
1810.00,0.0004
1809.00,0.0004
1808.00,0.0003
1807.00,0.0003
1806.00,0.0004
1805.00,0.0004
1804.00,0.0004
1803.00,0.0005
1802.00,0.0005
1801.00,0.0005
1800.00,0.0005
1799.00,0.0005
1798.00,0.0005
1797.00,0.0006
1796.00,0.0006
1795.00,0.0007
1794.00,0.0007
1793.00,0.0008
1792.00,0.0009
1791.00,0.0009
1790.00,0.0009
1789.00,0.0008
1788.00,0.0008
1787.00,0.0008
1786.00,0.0008
1785.00,0.0008
1784.00,0.0008
1783.00,0.0008
1782.00,0.0007
1781.00,0.0007
1780.00,0.0008
1779.00,0.0008
1778.00,0.0008
1777.00,0.0007
1776.00,0.0007
1775.00,0.0007
1774.00,0.0006
1773.00,0.0007
1772.00,0.0007
1771.00,0.0008
1770.00,0.0009
1769.00,0.0009
1768.00,0.0009
1767.00,0.0009
1766.00,0.0009
1765.00,0.0010
1764.00,0.0010
1763.00,0.0010
1762.00,0.0011
1761.00,0.0011
1760.00,0.0011
1759.00,0.0011
1758.00,0.0011
1757.00,0.0012
1756.00,0.0012
1755.00,0.0012
1754.00,0.0012
1753.00,0.0012
1752.00,0.0013
1751.00,0.0013
1750.00,0.0013
1749.00,0.0014
1748.00,0.0014
1747.00,0.0014
1746.00,0.0014
1745.00,0.0014
1744.00,0.0014
1743.00,0.0015
1742.00,0.0015
1741.00,0.0016
1740.00,0.0016
1739.00,0.0016
1738.00,0.0016
1737.00,0.0017
1736.00,0.0017
1735.00,0.0018
1734.00,0.0018
1733.00,0.0018
1732.00,0.0018
1731.00,0.0018
1730.00,0.0018
1729.00,0.0019
1728.00,0.0020
1727.00,0.0021
1726.00,0.0021
1725.00,0.0021
1724.00,0.0022
1723.00,0.0022
1722.00,0.0022
1721.00,0.0022
1720.00,0.0022
1719.00,0.0021
1718.00,0.0022
1717.00,0.0022
1716.00,0.0022
1715.00,0.0022
1714.00,0.0022
1713.00,0.0023
1712.00,0.0023
1711.00,0.0024
1710.00,0.0024
1709.00,0.0023
1708.00,0.0023
1707.00,0.0023
1706.00,0.0023
1705.00,0.0023
1704.00,0.0023
1703.00,0.0024
1702.00,0.0024
1701.00,0.0025
1700.00,0.0025
1699.00,0.0025
1698.00,0.0025
1697.00,0.0026
1696.00,0.0026
1695.00,0.0026
1694.00,0.0027
1693.00,0.0028
1692.00,0.0029
1691.00,0.0030
1690.00,0.0031
1689.00,0.0032
1688.00,0.0033
1687.00,0.0033
1686.00,0.0032
1685.00,0.0032
1684.00,0.0033
1683.00,0.0034
1682.00,0.0035
1681.00,0.0036
1680.00,0.0037
1679.00,0.0038
1678.00,0.0039
1677.00,0.0040
1676.00,0.0041
1675.00,0.0041
1674.00,0.0042
1673.00,0.0042
1672.00,0.0043
1671.00,0.0044
1670.00,0.0044
1669.00,0.0044
1668.00,0.0045
1667.00,0.0045
1666.00,0.0046
1665.00,0.0046
1664.00,0.0046
1663.00,0.0046
1662.00,0.0046
1661.00,0.0046
1660.00,0.0047
1659.00,0.0047
1658.00,0.0047
1657.00,0.0048
1656.00,0.0048
1655.00,0.0048
1654.00,0.0049
1653.00,0.0050
1652.00,0.0051
1651.00,0.0052
1650.00,0.0054
1649.00,0.0056
1648.00,0.0058
1647.00,0.0060
1646.00,0.0061
1645.00,0.0061
1644.00,0.0061
1643.00,0.0060
1642.00,0.0060
1641.00,0.0060
1640.00,0.0060
1639.00,0.0061
1638.00,0.0061
1637.00,0.0062
1636.00,0.0062
1635.00,0.0061
1634.00,0.0060
1633.00,0.0060
1632.00,0.0060
1631.00,0.0059
1630.00,0.0059
1629.00,0.0059
1628.00,0.0058
1627.00,0.0058
1626.00,0.0057
1625.00,0.0057
1624.00,0.0057
1623.00,0.0057
1622.00,0.0056
1621.00,0.0055
1620.00,0.0055
1619.00,0.0054
1618.00,0.0054
1617.00,0.0053
1616.00,0.0053
1615.00,0.0053
1614.00,0.0052
1613.00,0.0052
1612.00,0.0052
1611.00,0.0052
1610.00,0.0052
1609.00,0.0052
1608.00,0.0052
1607.00,0.0052
1606.00,0.0052
1605.00,0.0052
1604.00,0.0052
1603.00,0.0052
1602.00,0.0052
1601.00,0.0052
1600.00,0.0052
1599.00,0.0052
1598.00,0.0051
1597.00,0.0051
1596.00,0.0050
1595.00,0.0050
1594.00,0.0050
1593.00,0.0051
1592.00,0.0051
1591.00,0.0051
1590.00,0.0051
1589.00,0.0052
1588.00,0.0052
1587.00,0.0053
1586.00,0.0053
1585.00,0.0054
1584.00,0.0054
1583.00,0.0056
1582.00,0.0057
1581.00,0.0058
1580.00,0.0059
1579.00,0.0060
1578.00,0.0060
1577.00,0.0060
1576.00,0.0061
1575.00,0.0060
1574.00,0.0060
1573.00,0.0060
1572.00,0.0060
1571.00,0.0060
1570.00,0.0060
1569.00,0.0060
1568.00,0.0060
1567.00,0.0059
1566.00,0.0059
1565.00,0.0059
1564.00,0.0059
1563.00,0.0060
1562.00,0.0060
1561.00,0.0060
1560.00,0.0060
1559.00,0.0061
1558.00,0.0061
1557.00,0.0061
1556.00,0.0062
1555.00,0.0062
1554.00,0.0062
1553.00,0.0063
1552.00,0.0063
1551.00,0.0064
1550.00,0.0065
1549.00,0.0067
1548.00,0.0068
1547.00,0.0069
1546.00,0.0070
1545.00,0.0071
1544.00,0.0073
1543.00,0.0074
1542.00,0.0074
1541.00,0.0073
1540.00,0.0071
1539.00,0.0068
1538.00,0.0066
1537.00,0.0065
1536.00,0.0064
1535.00,0.0063
1534.00,0.0061
1533.00,0.0059
1532.00,0.0058
1531.00,0.0056
1530.00,0.0055
1529.00,0.0055
1528.00,0.0054
1527.00,0.0054
1526.00,0.0055
1525.00,0.0055
1524.00,0.0055
1523.00,0.0055
1522.00,0.0055
1521.00,0.0055
1520.00,0.0055
1519.00,0.0055
1518.00,0.0055
1517.00,0.0056
1516.00,0.0057
1515.00,0.0057
1514.00,0.0058
1513.00,0.0058
1512.00,0.0059
1511.00,0.0060
1510.00,0.0060
1509.00,0.0061
1508.00,0.0062
1507.00,0.0062
1506.00,0.0062
1505.00,0.0063
1504.00,0.0065
1503.00,0.0067
1502.00,0.0069
1501.00,0.0071
1500.00,0.0074
1499.00,0.0076
1498.00,0.0078
1497.00,0.0082
1496.00,0.0085
1495.00,0.0087
1494.00,0.0089
1493.00,0.0093
1492.00,0.0097
1491.00,0.0101
1490.00,0.0105
1489.00,0.0111
1488.00,0.0116
1487.00,0.0120
1486.00,0.0125
1485.00,0.0131
1484.00,0.0138
1483.00,0.0146
1482.00,0.0155
1481.00,0.0166
1480.00,0.0179
1479.00,0.0191
1478.00,0.0207
1477.00,0.0227
1476.00,0.0253
1475.00,0.0284
1474.00,0.0326
1473.00,0.0385
1472.00,0.0453
1471.00,0.0520
1470.00,0.0584
1469.00,0.0652
1468.00,0.0725
1467.00,0.0805
1466.00,0.0896
1465.00,0.0994
1464.00,0.1079
1463.00,0.1137
1462.00,0.1173
1461.00,0.1197
1460.00,0.1211
1459.00,0.1218
1458.00,0.1221
1457.00,0.1218
1456.00,0.1208
1455.00,0.1193
1454.00,0.1175
1453.00,0.1151
1452.00,0.1118
1451.00,0.1075
1450.00,0.1019
1449.00,0.0945
1448.00,0.0855
1447.00,0.0763
1446.00,0.0680
1445.00,0.0611
1444.00,0.0553
1443.00,0.0505
1442.00,0.0470
1441.00,0.0446
1440.00,0.0432
1439.00,0.0428
1438.00,0.0432
1437.00,0.0437
1436.00,0.0430
1435.00,0.0406
1434.00,0.0371
1433.00,0.0327
1432.00,0.0282
1431.00,0.0242
1430.00,0.0210
1429.00,0.0187
1428.00,0.0170
1427.00,0.0160
1426.00,0.0153
1425.00,0.0147
1424.00,0.0141
1423.00,0.0138
1422.00,0.0136
1421.00,0.0134
1420.00,0.0131
1419.00,0.0127
1418.00,0.0125
1417.00,0.0122
1416.00,0.0119
1415.00,0.0117
1414.00,0.0116
1413.00,0.0114
1412.00,0.0112
1411.00,0.0111
1410.00,0.0111
1409.00,0.0109
1408.00,0.0108
1407.00,0.0108
1406.00,0.0109
1405.00,0.0109
1404.00,0.0109
1403.00,0.0110
1402.00,0.0110
1401.00,0.0111
1400.00,0.0111
1399.00,0.0113
1398.00,0.0115
1397.00,0.0117
1396.00,0.0120
1395.00,0.0123
1394.00,0.0129
1393.00,0.0133
1392.00,0.0139
1391.00,0.0146
1390.00,0.0156
1389.00,0.0169
1388.00,0.0189
1387.00,0.0219
1386.00,0.0261
1385.00,0.0317
1384.00,0.0396
1383.00,0.0507
1382.00,0.0661
1381.00,0.0863
1380.00,0.1116
1379.00,0.1407
1378.00,0.1693
1377.00,0.1905
1376.00,0.1981
1375.00,0.1883
1374.00,0.1641
1373.00,0.1348
1372.00,0.1080
1371.00,0.0860
1370.00,0.0687
1369.00,0.0556
1368.00,0.0467
1367.00,0.0412
1366.00,0.0382
1365.00,0.0370
1364.00,0.0372
1363.00,0.0386
1362.00,0.0408
1361.00,0.0432
1360.00,0.0451
1359.00,0.0457
1358.00,0.0447
1357.00,0.0422
1356.00,0.0385
1355.00,0.0343
1354.00,0.0303
1353.00,0.0268
1352.00,0.0240
1351.00,0.0218
1350.00,0.0199
1349.00,0.0184
1348.00,0.0171
1347.00,0.0161
1346.00,0.0152
1345.00,0.0144
1344.00,0.0138
1343.00,0.0132
1342.00,0.0127
1341.00,0.0124
1340.00,0.0121
1339.00,0.0119
1338.00,0.0118
1337.00,0.0117
1336.00,0.0118
1335.00,0.0120
1334.00,0.0123
1333.00,0.0127
1332.00,0.0131
1331.00,0.0134
1330.00,0.0136
1329.00,0.0134
1328.00,0.0131
1327.00,0.0126
1326.00,0.0121
1325.00,0.0115
1324.00,0.0109
1323.00,0.0104
1322.00,0.0100
1321.00,0.0097
1320.00,0.0095
1319.00,0.0093
1318.00,0.0091
1317.00,0.0090
1316.00,0.0088
1315.00,0.0088
1314.00,0.0087
1313.00,0.0087
1312.00,0.0088
1311.00,0.0090
1310.00,0.0092
1309.00,0.0097
1308.00,0.0103
1307.00,0.0112
1306.00,0.0120
1305.00,0.0126
1304.00,0.0129
1303.00,0.0128
1302.00,0.0126
1301.00,0.0124
1300.00,0.0124
1299.00,0.0125
1298.00,0.0127
1297.00,0.0128
1296.00,0.0127
1295.00,0.0125
1294.00,0.0121
1293.00,0.0116
1292.00,0.0112
1291.00,0.0107
1290.00,0.0102
1289.00,0.0098
1288.00,0.0095
1287.00,0.0092
1286.00,0.0090
1285.00,0.0088
1284.00,0.0086
1283.00,0.0084
1282.00,0.0083
1281.00,0.0081
1280.00,0.0080
1279.00,0.0080
1278.00,0.0079
1277.00,0.0079
1276.00,0.0078
1275.00,0.0078
1274.00,0.0079
1273.00,0.0079
1272.00,0.0079
1271.00,0.0080
1270.00,0.0082
1269.00,0.0084
1268.00,0.0087
1267.00,0.0090
1266.00,0.0093
1265.00,0.0097
1264.00,0.0100
1263.00,0.0103
1262.00,0.0106
1261.00,0.0109
1260.00,0.0112
1259.00,0.0116
1258.00,0.0119
1257.00,0.0121
1256.00,0.0122
1255.00,0.0119
1254.00,0.0113
1253.00,0.0107
1252.00,0.0100
1251.00,0.0095
1250.00,0.0091
1249.00,0.0087
1248.00,0.0084
1247.00,0.0082
1246.00,0.0080
1245.00,0.0078
1244.00,0.0077
1243.00,0.0075
1242.00,0.0074
1241.00,0.0074
1240.00,0.0073
1239.00,0.0073
1238.00,0.0073
1237.00,0.0072
1236.00,0.0072
1235.00,0.0072
1234.00,0.0072
1233.00,0.0072
1232.00,0.0073
1231.00,0.0073
1230.00,0.0074
1229.00,0.0076
1228.00,0.0078
1227.00,0.0080
1226.00,0.0082
1225.00,0.0085
1224.00,0.0089
1223.00,0.0093
1222.00,0.0096
1221.00,0.0099
1220.00,0.0100
1219.00,0.0101
1218.00,0.0100
1217.00,0.0098
1216.00,0.0095
1215.00,0.0092
1214.00,0.0089
1213.00,0.0086
1212.00,0.0084
1211.00,0.0081
1210.00,0.0080
1209.00,0.0078
1208.00,0.0077
1207.00,0.0075
1206.00,0.0074
1205.00,0.0073
1204.00,0.0072
1203.00,0.0072
1202.00,0.0071
1201.00,0.0071
1200.00,0.0072
1199.00,0.0072
1198.00,0.0072
1197.00,0.0072
1196.00,0.0072
1195.00,0.0072
1194.00,0.0072
1193.00,0.0072
1192.00,0.0071
1191.00,0.0071
1190.00,0.0071
1189.00,0.0071
1188.00,0.0071
1187.00,0.0072
1186.00,0.0072
1185.00,0.0072
1184.00,0.0072
1183.00,0.0073
1182.00,0.0075
1181.00,0.0076
1180.00,0.0078
1179.00,0.0081
1178.00,0.0086
1177.00,0.0092
1176.00,0.0101
1175.00,0.0112
1174.00,0.0127
1173.00,0.0145
1172.00,0.0166
1171.00,0.0190
1170.00,0.0212
1169.00,0.0231
1168.00,0.0243
1167.00,0.0247
1166.00,0.0243
1165.00,0.0235
1164.00,0.0224
1163.00,0.0214
1162.00,0.0205
1161.00,0.0197
1160.00,0.0192
1159.00,0.0188
1158.00,0.0187
1157.00,0.0186
1156.00,0.0186
1155.00,0.0186
1154.00,0.0186
1153.00,0.0184
1152.00,0.0181
1151.00,0.0174
1150.00,0.0167
1149.00,0.0159
1148.00,0.0150
1147.00,0.0142
1146.00,0.0134
1145.00,0.0127
1144.00,0.0120
1143.00,0.0113
1142.00,0.0107
1141.00,0.0101
1140.00,0.0096
1139.00,0.0092
1138.00,0.0089
1137.00,0.0087
1136.00,0.0085
1135.00,0.0083
1134.00,0.0082
1133.00,0.0080
1132.00,0.0079
1131.00,0.0079
1130.00,0.0080
1129.00,0.0080
1128.00,0.0080
1127.00,0.0080
1126.00,0.0081
1125.00,0.0082
1124.00,0.0084
1123.00,0.0086
1122.00,0.0088
1121.00,0.0088
1120.00,0.0088
1119.00,0.0089
1118.00,0.0090
1117.00,0.0091
1116.00,0.0093
1115.00,0.0095
1114.00,0.0096
1113.00,0.0097
1112.00,0.0100
1111.00,0.0103
1110.00,0.0108
1109.00,0.0113
1108.00,0.0119
1107.00,0.0124
1106.00,0.0130
1105.00,0.0136
1104.00,0.0141
1103.00,0.0145
1102.00,0.0145
1101.00,0.0142
1100.00,0.0136
1099.00,0.0129
1098.00,0.0121
1097.00,0.0115
1096.00,0.0111
1095.00,0.0108
1094.00,0.0106
1093.00,0.0104
1092.00,0.0101
1091.00,0.0098
1090.00,0.0096
1089.00,0.0094
1088.00,0.0092
1087.00,0.0091
1086.00,0.0091
1085.00,0.0091
1084.00,0.0090
1083.00,0.0090
1082.00,0.0089
1081.00,0.0088
1080.00,0.0086
1079.00,0.0085
1078.00,0.0083
1077.00,0.0083
1076.00,0.0082
1075.00,0.0082
1074.00,0.0081
1073.00,0.0080
1072.00,0.0080
1071.00,0.0079
1070.00,0.0079
1069.00,0.0079
1068.00,0.0079
1067.00,0.0078
1066.00,0.0078
1065.00,0.0078
1064.00,0.0079
1063.00,0.0079
1062.00,0.0079
1061.00,0.0079
1060.00,0.0080
1059.00,0.0080
1058.00,0.0081
1057.00,0.0081
1056.00,0.0080
1055.00,0.0080
1054.00,0.0081
1053.00,0.0082
1052.00,0.0084
1051.00,0.0086
1050.00,0.0088
1049.00,0.0090
1048.00,0.0092
1047.00,0.0094
1046.00,0.0096
1045.00,0.0097
1044.00,0.0098
1043.00,0.0097
1042.00,0.0095
1041.00,0.0094
1040.00,0.0092
1039.00,0.0092
1038.00,0.0093
1037.00,0.0094
1036.00,0.0095
1035.00,0.0094
1034.00,0.0093
1033.00,0.0092
1032.00,0.0091
1031.00,0.0091
1030.00,0.0089
1029.00,0.0087
1028.00,0.0086
1027.00,0.0085
1026.00,0.0084
1025.00,0.0085
1024.00,0.0086
1023.00,0.0086
1022.00,0.0087
1021.00,0.0087
1020.00,0.0088
1019.00,0.0089
1018.00,0.0089
1017.00,0.0090
1016.00,0.0090
1015.00,0.0091
1014.00,0.0092
1013.00,0.0094
1012.00,0.0095
1011.00,0.0097
1010.00,0.0099
1009.00,0.0101
1008.00,0.0104
1007.00,0.0108
1006.00,0.0114
1005.00,0.0122
1004.00,0.0134
1003.00,0.0151
1002.00,0.0173
1001.00,0.0199
1000.00,0.0226
999.00,0.0247
998.00,0.0257
997.00,0.0251
996.00,0.0231
995.00,0.0204
994.00,0.0175
993.00,0.0150
992.00,0.0131
991.00,0.0118
990.00,0.0108
989.00,0.0101
988.00,0.0097
987.00,0.0095
986.00,0.0095
985.00,0.0098
984.00,0.0102
983.00,0.0109
982.00,0.0118
981.00,0.0132
980.00,0.0151
979.00,0.0176
978.00,0.0206
977.00,0.0240
976.00,0.0275
975.00,0.0306
974.00,0.0326
973.00,0.0329
972.00,0.0313
971.00,0.0282
970.00,0.0244
969.00,0.0206
968.00,0.0175
967.00,0.0151
966.00,0.0133
965.00,0.0120
964.00,0.0111
963.00,0.0103
962.00,0.0098
961.00,0.0094
960.00,0.0090
959.00,0.0087
958.00,0.0085
957.00,0.0082
956.00,0.0080
955.00,0.0077
954.00,0.0075
953.00,0.0073
952.00,0.0071
951.00,0.0071
950.00,0.0070
949.00,0.0071
948.00,0.0072
947.00,0.0074
946.00,0.0077
945.00,0.0080
944.00,0.0084
943.00,0.0087
942.00,0.0091
941.00,0.0093
940.00,0.0093
939.00,0.0091
938.00,0.0087
937.00,0.0081
936.00,0.0076
935.00,0.0071
934.00,0.0068
933.00,0.0066
932.00,0.0065
931.00,0.0064
930.00,0.0063
929.00,0.0062
928.00,0.0061
927.00,0.0061
926.00,0.0061
925.00,0.0062
924.00,0.0062
923.00,0.0062
922.00,0.0062
921.00,0.0063
920.00,0.0063
919.00,0.0064
918.00,0.0064
917.00,0.0063
916.00,0.0063
915.00,0.0063
914.00,0.0064
913.00,0.0066
912.00,0.0068
911.00,0.0070
910.00,0.0073
909.00,0.0075
908.00,0.0079
907.00,0.0084
906.00,0.0092
905.00,0.0102
904.00,0.0116
903.00,0.0135
902.00,0.0155
901.00,0.0175
900.00,0.0188
899.00,0.0191
898.00,0.0182
897.00,0.0165
896.00,0.0144
895.00,0.0124
894.00,0.0108
893.00,0.0096
892.00,0.0088
891.00,0.0083
890.00,0.0080
889.00,0.0079
888.00,0.0078
887.00,0.0077
886.00,0.0076
885.00,0.0075
884.00,0.0075
883.00,0.0074
882.00,0.0074
881.00,0.0074
880.00,0.0074
879.00,0.0074
878.00,0.0073
877.00,0.0073
876.00,0.0073
875.00,0.0074
874.00,0.0075
873.00,0.0076
872.00,0.0077
871.00,0.0077
870.00,0.0077
869.00,0.0077
868.00,0.0077
867.00,0.0078
866.00,0.0078
865.00,0.0078
864.00,0.0079
863.00,0.0080
862.00,0.0082
861.00,0.0083
860.00,0.0085
859.00,0.0087
858.00,0.0088
857.00,0.0089
856.00,0.0088
855.00,0.0087
854.00,0.0088
853.00,0.0090
852.00,0.0093
851.00,0.0096
850.00,0.0099
849.00,0.0103
848.00,0.0109
847.00,0.0118
846.00,0.0132
845.00,0.0154
844.00,0.0186
843.00,0.0222
842.00,0.0249
841.00,0.0256
840.00,0.0238
839.00,0.0204
838.00,0.0170
837.00,0.0144
836.00,0.0128
835.00,0.0120
834.00,0.0114
833.00,0.0111
832.00,0.0109
831.00,0.0108
830.00,0.0107
829.00,0.0105
828.00,0.0102
827.00,0.0100
826.00,0.0100
825.00,0.0100
824.00,0.0101
823.00,0.0101
822.00,0.0101
821.00,0.0104
820.00,0.0108
819.00,0.0114
818.00,0.0120
817.00,0.0127
816.00,0.0135
815.00,0.0148
814.00,0.0164
813.00,0.0184
812.00,0.0206
811.00,0.0227
810.00,0.0242
809.00,0.0248
808.00,0.0243
807.00,0.0230
806.00,0.0211
805.00,0.0191
804.00,0.0173
803.00,0.0158
802.00,0.0147
801.00,0.0138
800.00,0.0130
799.00,0.0124
798.00,0.0119
797.00,0.0115
796.00,0.0111
795.00,0.0107
794.00,0.0103
793.00,0.0099
792.00,0.0096
791.00,0.0093
790.00,0.0091
789.00,0.0089
788.00,0.0086
787.00,0.0082
786.00,0.0078
785.00,0.0075
784.00,0.0073
783.00,0.0070
782.00,0.0067
781.00,0.0066
780.00,0.0067
779.00,0.0068
778.00,0.0069
777.00,0.0069
776.00,0.0069
775.00,0.0069
774.00,0.0068
773.00,0.0068
772.00,0.0068
771.00,0.0068
770.00,0.0068
769.00,0.0068
768.00,0.0068
767.00,0.0067
766.00,0.0065
765.00,0.0063
764.00,0.0063
763.00,0.0064
762.00,0.0066
761.00,0.0068
760.00,0.0070
759.00,0.0070
758.00,0.0070
757.00,0.0069
756.00,0.0070
755.00,0.0072
754.00,0.0075
753.00,0.0077
752.00,0.0078
751.00,0.0079
750.00,0.0081
749.00,0.0082
748.00,0.0084
747.00,0.0086
746.00,0.0087
745.00,0.0087
744.00,0.0088
743.00,0.0090
742.00,0.0094
741.00,0.0097
740.00,0.0101
739.00,0.0104
738.00,0.0107
737.00,0.0112
736.00,0.0116
735.00,0.0120
734.00,0.0125
733.00,0.0131
732.00,0.0140
731.00,0.0149
730.00,0.0157
729.00,0.0160
728.00,0.0159
727.00,0.0157
726.00,0.0157
725.00,0.0160
724.00,0.0166
723.00,0.0175
722.00,0.0184
721.00,0.0190
720.00,0.0190
719.00,0.0181
718.00,0.0168
717.00,0.0154
716.00,0.0142
715.00,0.0134
714.00,0.0127
713.00,0.0122
712.00,0.0119
711.00,0.0117
710.00,0.0114
709.00,0.0112
708.00,0.0109
707.00,0.0106
706.00,0.0104
705.00,0.0102
704.00,0.0100
703.00,0.0099
702.00,0.0098
701.00,0.0096
700.00,0.0095
699.00,0.0095
698.00,0.0096
697.00,0.0097
696.00,0.0098
695.00,0.0098
694.00,0.0096
693.00,0.0094
692.00,0.0093
691.00,0.0093
690.00,0.0094
689.00,0.0094
688.00,0.0093
687.00,0.0093
686.00,0.0093
685.00,0.0093
684.00,0.0094
683.00,0.0095
682.00,0.0095
681.00,0.0095
680.00,0.0095
679.00,0.0095
678.00,0.0096
677.00,0.0097
676.00,0.0097
675.00,0.0097
674.00,0.0095
673.00,0.0093
672.00,0.0092
671.00,0.0091
670.00,0.0091
669.00,0.0089
668.00,0.0088
667.00,0.0088
666.00,0.0090
665.00,0.0090
664.00,0.0090
663.00,0.0089
662.00,0.0088
661.00,0.0087
660.00,0.0086
659.00,0.0084
658.00,0.0084
657.00,0.0085
656.00,0.0086
655.00,0.0087
654.00,0.0087
653.00,0.0087
652.00,0.0087
651.00,0.0086
650.00,0.0086
649.00,0.0086
648.00,0.0087
647.00,0.0090
646.00,0.0092
645.00,0.0093
644.00,0.0092
643.00,0.0091
642.00,0.0089
641.00,0.0089
640.00,0.0089
639.00,0.0090
638.00,0.0091
637.00,0.0091
636.00,0.0089
635.00,0.0088
634.00,0.0087
633.00,0.0088
632.00,0.0089
631.00,0.0090
630.00,0.0090
629.00,0.0089
628.00,0.0089
627.00,0.0089
626.00,0.0089
625.00,0.0089
624.00,0.0088
623.00,0.0087
622.00,0.0086
621.00,0.0085
620.00,0.0084
619.00,0.0083
618.00,0.0083
617.00,0.0085
616.00,0.0085
615.00,0.0085
614.00,0.0086
613.00,0.0087
612.00,0.0087
611.00,0.0086
610.00,0.0084
609.00,0.0081
608.00,0.0079
607.00,0.0079
606.00,0.0081
605.00,0.0084
604.00,0.0085
603.00,0.0085
602.00,0.0082
601.00,0.0079
600.00,0.0076
599.00,0.0075
598.00,0.0075
597.00,0.0077
596.00,0.0079
595.00,0.0080
594.00,0.0079
593.00,0.0077
592.00,0.0075
591.00,0.0074
590.00,0.0075
589.00,0.0078
588.00,0.0080
587.00,0.0080
586.00,0.0079
585.00,0.0079
584.00,0.0081
583.00,0.0083
582.00,0.0085
581.00,0.0085
580.00,0.0085
579.00,0.0085
578.00,0.0084
577.00,0.0083
576.00,0.0081
575.00,0.0080
574.00,0.0079
573.00,0.0076
572.00,0.0074
571.00,0.0072
570.00,0.0073
569.00,0.0076
568.00,0.0079
567.00,0.0080
566.00,0.0081
565.00,0.0082
564.00,0.0083
563.00,0.0085
562.00,0.0086
561.00,0.0085
560.00,0.0083
559.00,0.0082
558.00,0.0082
557.00,0.0084
556.00,0.0085
555.00,0.0085
554.00,0.0084
553.00,0.0082
552.00,0.0081
551.00,0.0081
550.00,0.0082
549.00,0.0084
548.00,0.0085
547.00,0.0086
546.00,0.0085
545.00,0.0082
544.00,0.0077
543.00,0.0076
542.00,0.0079
541.00,0.0085
540.00,0.0090
539.00,0.0093
538.00,0.0094
537.00,0.0094
536.00,0.0095
535.00,0.0095
534.00,0.0095
533.00,0.0096
532.00,0.0098
531.00,0.0097
530.00,0.0095
529.00,0.0093
528.00,0.0095
527.00,0.0097
526.00,0.0098
525.00,0.0095
524.00,0.0090
523.00,0.0086
522.00,0.0084
521.00,0.0085
520.00,0.0086
519.00,0.0086
518.00,0.0084
517.00,0.0080
516.00,0.0077
515.00,0.0076
514.00,0.0078
513.00,0.0082
512.00,0.0088
511.00,0.0091
510.00,0.0091
509.00,0.0088
508.00,0.0084
507.00,0.0080
506.00,0.0077
505.00,0.0073
504.00,0.0070
503.00,0.0069
502.00,0.0072
501.00,0.0078
500.00,0.0084
499.00,0.0086
498.00,0.0085
497.00,0.0084
496.00,0.0087
495.00,0.0090
494.00,0.0090
493.00,0.0083
492.00,0.0070
491.00,0.0056
490.00,0.0049
489.00,0.0050
488.00,0.0058
487.00,0.0066
486.00,0.0070
485.00,0.0071
484.00,0.0070
483.00,0.0071
482.00,0.0072
481.00,0.0076
480.00,0.0081
479.00,0.0086
478.00,0.0091
477.00,0.0092
476.00,0.0092
475.00,0.0090
474.00,0.0085
473.00,0.0078
472.00,0.0075
471.00,0.0081
470.00,0.0092
469.00,0.0104
468.00,0.0114
467.00,0.0121
466.00,0.0123
465.00,0.0123
464.00,0.0129
463.00,0.0143
462.00,0.0160
461.00,0.0169
460.00,0.0167
459.00,0.0162
458.00,0.0159
457.00,0.0159
456.00,0.0160
455.00,0.0147
454.00,0.0132
453.00,0.0116
452.00,0.0106
451.00,0.0104
450.00,0.0107
