Created as New Dataset,Sample 015 By Administrator Date Thursday, September 04 2025
cm-1,A
4000.00,0.0013
3999.00,0.0013
3998.00,0.0012
3997.00,0.0012
3996.00,0.0012
3995.00,0.0012
3994.00,0.0012
3993.00,0.0013
3992.00,0.0013
3991.00,0.0013
3990.00,0.0013
3989.00,0.0013
3988.00,0.0013
3987.00,0.0013
3986.00,0.0012
3985.00,0.0012
3984.00,0.0012
3983.00,0.0012
3982.00,0.0012
3981.00,0.0012
3980.00,0.0011
3979.00,0.0011
3978.00,0.0011
3977.00,0.0011
3976.00,0.0011
3975.00,0.0011
3974.00,0.0011
3973.00,0.0011
3972.00,0.0011
3971.00,0.0011
3970.00,0.0011
3969.00,0.0011
3968.00,0.0011
3967.00,0.0011
3966.00,0.0010
3965.00,0.0010
3964.00,0.0010
3963.00,0.0010
3962.00,0.0011
3961.00,0.0011
3960.00,0.0011
3959.00,0.0010
3958.00,0.0010
3957.00,0.0010
3956.00,0.0011
3955.00,0.0011
3954.00,0.0011
3953.00,0.0011
3952.00,0.0011
3951.00,0.0011
3950.00,0.0012
3949.00,0.0011
3948.00,0.0011
3947.00,0.0011
3946.00,0.0011
3945.00,0.0011
3944.00,0.0011
3943.00,0.0011
3942.00,0.0011
3941.00,0.0011
3940.00,0.0011
3939.00,0.0011
3938.00,0.0011
3937.00,0.0011
3936.00,0.0011
3935.00,0.0011
3934.00,0.0011
3933.00,0.0012
3932.00,0.0012
3931.00,0.0012
3930.00,0.0012
3929.00,0.0012
3928.00,0.0012
3927.00,0.0012
3926.00,0.0011
3925.00,0.0011
3924.00,0.0011
3923.00,0.0012
3922.00,0.0012
3921.00,0.0011
3920.00,0.0011
3919.00,0.0011
3918.00,0.0011
3917.00,0.0011
3916.00,0.0011
3915.00,0.0011
3914.00,0.0012
3913.00,0.0012
3912.00,0.0011
3911.00,0.0011
3910.00,0.0011
3909.00,0.0011
3908.00,0.0011
3907.00,0.0011
3906.00,0.0012
3905.00,0.0012
3904.00,0.0013
3903.00,0.0013
3902.00,0.0012
3901.00,0.0012
3900.00,0.0011
3899.00,0.0011
3898.00,0.0011
3897.00,0.0011
3896.00,0.0012
3895.00,0.0012
3894.00,0.0012
3893.00,0.0011
3892.00,0.0011
3891.00,0.0011
3890.00,0.0011
3889.00,0.0011
3888.00,0.0012
3887.00,0.0011
3886.00,0.0011
3885.00,0.0011
3884.00,0.0012
3883.00,0.0012
3882.00,0.0011
3881.00,0.0011
3880.00,0.0010
3879.00,0.0010
3878.00,0.0011
3877.00,0.0011
3876.00,0.0011
3875.00,0.0011
3874.00,0.0012
3873.00,0.0012
3872.00,0.0013
3871.00,0.0012
3870.00,0.0011
3869.00,0.0011
3868.00,0.0011
3867.00,0.0011
3866.00,0.0011
3865.00,0.0011
3864.00,0.0011
3863.00,0.0011
3862.00,0.0011
3861.00,0.0011
3860.00,0.0011
3859.00,0.0011
3858.00,0.0012
3857.00,0.0012
3856.00,0.0012
3855.00,0.0012
3854.00,0.0013
3853.00,0.0013
3852.00,0.0013
3851.00,0.0013
3850.00,0.0012
3849.00,0.0012
3848.00,0.0011
3847.00,0.0010
3846.00,0.0010
3845.00,0.0010
3844.00,0.0010
3843.00,0.0010
3842.00,0.0011
3841.00,0.0011
3840.00,0.0012
3839.00,0.0011
3838.00,0.0011
3837.00,0.0010
3836.00,0.0010
3835.00,0.0010
3834.00,0.0009
3833.00,0.0010
3832.00,0.0010
3831.00,0.0011
3830.00,0.0011
3829.00,0.0011
3828.00,0.0011
3827.00,0.0010
3826.00,0.0010
3825.00,0.0010
3824.00,0.0010
3823.00,0.0010
3822.00,0.0010
3821.00,0.0011
3820.00,0.0011
3819.00,0.0012
3818.00,0.0012
3817.00,0.0012
3816.00,0.0012
3815.00,0.0012
3814.00,0.0012
3813.00,0.0012
3812.00,0.0011
3811.00,0.0011
3810.00,0.0011
3809.00,0.0011
3808.00,0.0011
3807.00,0.0012
3806.00,0.0012
3805.00,0.0012
3804.00,0.0012
3803.00,0.0012
3802.00,0.0011
3801.00,0.0011
3800.00,0.0011
3799.00,0.0011
3798.00,0.0010
3797.00,0.0010
3796.00,0.0010
3795.00,0.0010
3794.00,0.0011
3793.00,0.0011
3792.00,0.0011
3791.00,0.0010
3790.00,0.0010
3789.00,0.0010
3788.00,0.0010
3787.00,0.0010
3786.00,0.0010
3785.00,0.0010
3784.00,0.0009
3783.00,0.0009
3782.00,0.0009
3781.00,0.0010
3780.00,0.0010
3779.00,0.0010
3778.00,0.0010
3777.00,0.0010
3776.00,0.0010
3775.00,0.0010
3774.00,0.0010
3773.00,0.0010
3772.00,0.0010
3771.00,0.0010
3770.00,0.0010
3769.00,0.0011
3768.00,0.0011
3767.00,0.0011
3766.00,0.0011
3765.00,0.0011
3764.00,0.0011
3763.00,0.0011
3762.00,0.0011
3761.00,0.0010
3760.00,0.0010
3759.00,0.0010
3758.00,0.0010
3757.00,0.0010
3756.00,0.0010
3755.00,0.0011
3754.00,0.0011
3753.00,0.0012
3752.00,0.0012
3751.00,0.0012
3750.00,0.0012
3749.00,0.0012
3748.00,0.0012
3747.00,0.0011
3746.00,0.0011
3745.00,0.0010
3744.00,0.0011
3743.00,0.0012
3742.00,0.0012
3741.00,0.0012
3740.00,0.0012
3739.00,0.0012
3738.00,0.0013
3737.00,0.0012
3736.00,0.0012
3735.00,0.0011
3734.00,0.0010
3733.00,0.0010
3732.00,0.0010
3731.00,0.0011
3730.00,0.0011
3729.00,0.0011
3728.00,0.0012
3727.00,0.0012
3726.00,0.0012
3725.00,0.0011
3724.00,0.0011
3723.00,0.0010
3722.00,0.0010
3721.00,0.0010
3720.00,0.0011
3719.00,0.0011
3718.00,0.0011
3717.00,0.0011
3716.00,0.0011
3715.00,0.0011
3714.00,0.0010
3713.00,0.0010
3712.00,0.0009
3711.00,0.0009
3710.00,0.0009
3709.00,0.0009
3708.00,0.0009
3707.00,0.0010
3706.00,0.0010
3705.00,0.0010
3704.00,0.0010
3703.00,0.0009
3702.00,0.0009
3701.00,0.0009
3700.00,0.0009
3699.00,0.0010
3698.00,0.0010
3697.00,0.0010
3696.00,0.0011
3695.00,0.0011
3694.00,0.0010
3693.00,0.0010
3692.00,0.0010
3691.00,0.0010
3690.00,0.0010
3689.00,0.0011
3688.00,0.0012
3687.00,0.0013
3686.00,0.0013
3685.00,0.0014
3684.00,0.0014
3683.00,0.0015
3682.00,0.0016
3681.00,0.0017
3680.00,0.0017
3679.00,0.0018
3678.00,0.0019
3677.00,0.0021
3676.00,0.0022
3675.00,0.0022
3674.00,0.0023
3673.00,0.0023
3672.00,0.0023
3671.00,0.0022
3670.00,0.0022
3669.00,0.0022
3668.00,0.0022
3667.00,0.0022
3666.00,0.0022
3665.00,0.0022
3664.00,0.0023
3663.00,0.0023
3662.00,0.0024
3661.00,0.0024
3660.00,0.0025
3659.00,0.0025
3658.00,0.0025
3657.00,0.0025
3656.00,0.0024
3655.00,0.0024
3654.00,0.0024
3653.00,0.0024
3652.00,0.0024
3651.00,0.0024
3650.00,0.0024
3649.00,0.0025
3648.00,0.0024
3647.00,0.0024
3646.00,0.0024
3645.00,0.0025
3644.00,0.0025
3643.00,0.0025
3642.00,0.0024
3641.00,0.0024
3640.00,0.0024
3639.00,0.0024
3638.00,0.0024
3637.00,0.0024
3636.00,0.0023
3635.00,0.0022
3634.00,0.0021
3633.00,0.0021
3632.00,0.0020
3631.00,0.0020
3630.00,0.0019
3629.00,0.0019
3628.00,0.0019
3627.00,0.0019
3626.00,0.0019
3625.00,0.0019
3624.00,0.0019
3623.00,0.0019
3622.00,0.0020
3621.00,0.0020
3620.00,0.0020
3619.00,0.0020
3618.00,0.0020
3617.00,0.0020
3616.00,0.0020
3615.00,0.0020
3614.00,0.0020
3613.00,0.0021
3612.00,0.0021
3611.00,0.0021
3610.00,0.0022
3609.00,0.0022
3608.00,0.0022
3607.00,0.0022
3606.00,0.0022
3605.00,0.0023
3604.00,0.0023
3603.00,0.0023
3602.00,0.0023
3601.00,0.0023
3600.00,0.0023
3599.00,0.0023
3598.00,0.0023
3597.00,0.0023
3596.00,0.0023
3595.00,0.0024
3594.00,0.0024
3593.00,0.0024
3592.00,0.0024
3591.00,0.0024
3590.00,0.0024
3589.00,0.0025
3588.00,0.0025
3587.00,0.0025
3586.00,0.0025
3585.00,0.0026
3584.00,0.0026
3583.00,0.0027
3582.00,0.0027
3581.00,0.0027
3580.00,0.0028
3579.00,0.0028
3578.00,0.0028
3577.00,0.0028
3576.00,0.0029
3575.00,0.0029
3574.00,0.0030
3573.00,0.0030
3572.00,0.0031
3571.00,0.0031
3570.00,0.0032
3569.00,0.0032
3568.00,0.0033
3567.00,0.0033
3566.00,0.0033
3565.00,0.0033
3564.00,0.0034
3563.00,0.0034
3562.00,0.0035
3561.00,0.0035
3560.00,0.0035
3559.00,0.0035
3558.00,0.0035
3557.00,0.0036
3556.00,0.0037
3555.00,0.0037
3554.00,0.0037
3553.00,0.0037
3552.00,0.0037
3551.00,0.0037
3550.00,0.0038
3549.00,0.0039
3548.00,0.0040
3547.00,0.0041
3546.00,0.0041
3545.00,0.0042
3544.00,0.0042
3543.00,0.0042
3542.00,0.0041
3541.00,0.0041
3540.00,0.0041
3539.00,0.0041
3538.00,0.0042
3537.00,0.0042
3536.00,0.0043
3535.00,0.0043
3534.00,0.0043
3533.00,0.0044
3532.00,0.0045
3531.00,0.0046
3530.00,0.0047
3529.00,0.0047
3528.00,0.0048
3527.00,0.0048
3526.00,0.0048
3525.00,0.0048
3524.00,0.0048
3523.00,0.0048
3522.00,0.0048
3521.00,0.0049
3520.00,0.0049
3519.00,0.0049
3518.00,0.0049
3517.00,0.0050
3516.00,0.0050
3515.00,0.0051
3514.00,0.0052
3513.00,0.0052
3512.00,0.0053
3511.00,0.0053
3510.00,0.0054
3509.00,0.0054
3508.00,0.0054
3507.00,0.0055
3506.00,0.0055
3505.00,0.0056
3504.00,0.0056
3503.00,0.0057
3502.00,0.0058
3501.00,0.0058
3500.00,0.0059
3499.00,0.0059
3498.00,0.0059
3497.00,0.0059
3496.00,0.0059
3495.00,0.0060
3494.00,0.0060
3493.00,0.0060
3492.00,0.0061
3491.00,0.0061
3490.00,0.0062
3489.00,0.0062
3488.00,0.0063
3487.00,0.0063
3486.00,0.0064
3485.00,0.0064
3484.00,0.0064
3483.00,0.0065
3482.00,0.0065
3481.00,0.0066
3480.00,0.0067
3479.00,0.0067
3478.00,0.0068
3477.00,0.0068
3476.00,0.0068
3475.00,0.0068
3474.00,0.0068
3473.00,0.0068
3472.00,0.0068
3471.00,0.0068
3470.00,0.0068
3469.00,0.0069
3468.00,0.0069
3467.00,0.0070
3466.00,0.0071
3465.00,0.0071
3464.00,0.0072
3463.00,0.0072
3462.00,0.0073
3461.00,0.0073
3460.00,0.0074
3459.00,0.0074
3458.00,0.0074
3457.00,0.0074
3456.00,0.0074
3455.00,0.0075
3454.00,0.0075
3453.00,0.0076
3452.00,0.0076
3451.00,0.0077
3450.00,0.0078
3449.00,0.0078
3448.00,0.0078
3447.00,0.0078
3446.00,0.0079
3445.00,0.0079
3444.00,0.0079
3443.00,0.0080
3442.00,0.0080
3441.00,0.0080
3440.00,0.0080
3439.00,0.0080
3438.00,0.0081
3437.00,0.0081
3436.00,0.0081
3435.00,0.0082
3434.00,0.0082
3433.00,0.0082
3432.00,0.0083
3431.00,0.0083
3430.00,0.0084
3429.00,0.0084
3428.00,0.0084
3427.00,0.0084
3426.00,0.0084
3425.00,0.0085
3424.00,0.0085
3423.00,0.0086
3422.00,0.0086
3421.00,0.0086
3420.00,0.0086
3419.00,0.0087
3418.00,0.0087
3417.00,0.0087
3416.00,0.0088
3415.00,0.0088
3414.00,0.0089
3413.00,0.0089
3412.00,0.0090
3411.00,0.0090
3410.00,0.0091
3409.00,0.0091
3408.00,0.0091
3407.00,0.0091
3406.00,0.0091
3405.00,0.0092
3404.00,0.0093
3403.00,0.0094
3402.00,0.0095
3401.00,0.0095
3400.00,0.0096
3399.00,0.0096
3398.00,0.0097
3397.00,0.0098
3396.00,0.0098
3395.00,0.0097
3394.00,0.0097
3393.00,0.0097
3392.00,0.0096
3391.00,0.0096
3390.00,0.0096
3389.00,0.0096
3388.00,0.0096
3387.00,0.0096
3386.00,0.0095
3385.00,0.0095
3384.00,0.0095
3383.00,0.0094
3382.00,0.0094
3381.00,0.0093
3380.00,0.0093
3379.00,0.0093
3378.00,0.0093
3377.00,0.0093
3376.00,0.0094
3375.00,0.0094
3374.00,0.0094
3373.00,0.0094
3372.00,0.0094
3371.00,0.0094
3370.00,0.0094
3369.00,0.0094
3368.00,0.0094
3367.00,0.0095
3366.00,0.0094
3365.00,0.0094
3364.00,0.0094
3363.00,0.0094
3362.00,0.0094
3361.00,0.0093
3360.00,0.0093
3359.00,0.0094
3358.00,0.0094
3357.00,0.0094
3356.00,0.0094
3355.00,0.0094
3354.00,0.0094
3353.00,0.0094
3352.00,0.0094
3351.00,0.0094
3350.00,0.0094
3349.00,0.0094
3348.00,0.0094
3347.00,0.0094
3346.00,0.0094
3345.00,0.0094
3344.00,0.0094
3343.00,0.0093
3342.00,0.0093
3341.00,0.0093
3340.00,0.0093
3339.00,0.0093
3338.00,0.0093
3337.00,0.0093
3336.00,0.0093
3335.00,0.0093
3334.00,0.0092
3333.00,0.0092
3332.00,0.0092
3331.00,0.0092
3330.00,0.0092
3329.00,0.0092
3328.00,0.0092
3327.00,0.0091
3326.00,0.0091
3325.00,0.0091
3324.00,0.0091
3323.00,0.0091
3322.00,0.0090
3321.00,0.0090
3320.00,0.0090
3319.00,0.0090
3318.00,0.0090
3317.00,0.0090
3316.00,0.0090
3315.00,0.0090
3314.00,0.0090
3313.00,0.0090
3312.00,0.0089
3311.00,0.0089
3310.00,0.0090
3309.00,0.0090
3308.00,0.0090
3307.00,0.0091
3306.00,0.0091
3305.00,0.0091
3304.00,0.0091
3303.00,0.0091
3302.00,0.0091
3301.00,0.0091
3300.00,0.0091
3299.00,0.0091
3298.00,0.0090
3297.00,0.0090
3296.00,0.0090
3295.00,0.0090
3294.00,0.0089
3293.00,0.0089
3292.00,0.0088
3291.00,0.0088
3290.00,0.0087
3289.00,0.0086
3288.00,0.0086
3287.00,0.0086
3286.00,0.0086
3285.00,0.0086
3284.00,0.0086
3283.00,0.0085
3282.00,0.0085
3281.00,0.0085
3280.00,0.0085
3279.00,0.0085
3278.00,0.0085
3277.00,0.0085
3276.00,0.0084
3275.00,0.0084
3274.00,0.0083
3273.00,0.0083
3272.00,0.0083
3271.00,0.0083
3270.00,0.0082
3269.00,0.0082
3268.00,0.0082
3267.00,0.0082
3266.00,0.0082
3265.00,0.0082
3264.00,0.0082
3263.00,0.0082
3262.00,0.0081
3261.00,0.0081
3260.00,0.0081
3259.00,0.0080
3258.00,0.0080
3257.00,0.0080
3256.00,0.0080
3255.00,0.0079
3254.00,0.0079
3253.00,0.0079
3252.00,0.0079
3251.00,0.0079
3250.00,0.0079
3249.00,0.0079
3248.00,0.0078
3247.00,0.0078
3246.00,0.0078
3245.00,0.0078
3244.00,0.0078
3243.00,0.0078
3242.00,0.0078
3241.00,0.0078
3240.00,0.0077
3239.00,0.0077
3238.00,0.0077
3237.00,0.0077
3236.00,0.0077
3235.00,0.0077
3234.00,0.0077
3233.00,0.0077
3232.00,0.0077
3231.00,0.0078
3230.00,0.0078
3229.00,0.0078
3228.00,0.0079
3227.00,0.0079
3226.00,0.0078
3225.00,0.0078
3224.00,0.0078
3223.00,0.0078
3222.00,0.0078
3221.00,0.0079
3220.00,0.0079
3219.00,0.0079
3218.00,0.0079
3217.00,0.0079
3216.00,0.0079
3215.00,0.0079
3214.00,0.0079
3213.00,0.0080
3212.00,0.0080
3211.00,0.0080
3210.00,0.0081
3209.00,0.0081
3208.00,0.0081
3207.00,0.0081
3206.00,0.0081
3205.00,0.0081
3204.00,0.0081
3203.00,0.0081
3202.00,0.0081
3201.00,0.0081
3200.00,0.0081
3199.00,0.0081
3198.00,0.0081
3197.00,0.0081
3196.00,0.0081
3195.00,0.0081
3194.00,0.0080
3193.00,0.0080
3192.00,0.0080
3191.00,0.0080
3190.00,0.0080
3189.00,0.0080
3188.00,0.0080
3187.00,0.0080
3186.00,0.0079
3185.00,0.0079
3184.00,0.0078
3183.00,0.0078
3182.00,0.0077
3181.00,0.0077
3180.00,0.0076
3179.00,0.0076
3178.00,0.0075
3177.00,0.0075
3176.00,0.0074
3175.00,0.0073
3174.00,0.0073
3173.00,0.0072
3172.00,0.0072
3171.00,0.0072
3170.00,0.0071
3169.00,0.0071
3168.00,0.0070
3167.00,0.0070
3166.00,0.0070
3165.00,0.0069
3164.00,0.0069
3163.00,0.0068
3162.00,0.0068
3161.00,0.0068
3160.00,0.0067
3159.00,0.0067
3158.00,0.0067
3157.00,0.0067
3156.00,0.0067
3155.00,0.0067
3154.00,0.0066
3153.00,0.0066
3152.00,0.0066
3151.00,0.0066
3150.00,0.0065
3149.00,0.0065
3148.00,0.0065
3147.00,0.0065
3146.00,0.0064
3145.00,0.0064
3144.00,0.0064
3143.00,0.0063
3142.00,0.0063
3141.00,0.0062
3140.00,0.0062
3139.00,0.0062
3138.00,0.0062
3137.00,0.0061
3136.00,0.0061
3135.00,0.0060
3134.00,0.0060
3133.00,0.0059
3132.00,0.0059
3131.00,0.0058
3130.00,0.0058
3129.00,0.0058
3128.00,0.0058
3127.00,0.0058
3126.00,0.0058
3125.00,0.0058
3124.00,0.0057
3123.00,0.0057
3122.00,0.0057
3121.00,0.0056
3120.00,0.0056
3119.00,0.0055
3118.00,0.0055
3117.00,0.0054
3116.00,0.0054
3115.00,0.0054
3114.00,0.0054
3113.00,0.0054
3112.00,0.0054
3111.00,0.0053
3110.00,0.0053
3109.00,0.0053
3108.00,0.0053
3107.00,0.0053
3106.00,0.0053
3105.00,0.0053
3104.00,0.0052
3103.00,0.0052
3102.00,0.0052
3101.00,0.0051
3100.00,0.0051
3099.00,0.0051
3098.00,0.0051
3097.00,0.0051
3096.00,0.0051
3095.00,0.0051
3094.00,0.0051
3093.00,0.0051
3092.00,0.0051
3091.00,0.0051
3090.00,0.0051
3089.00,0.0051
3088.00,0.0051
3087.00,0.0051
3086.00,0.0050
3085.00,0.0050
3084.00,0.0051
3083.00,0.0051
3082.00,0.0051
3081.00,0.0051
3080.00,0.0051
3079.00,0.0050
3078.00,0.0050
3077.00,0.0050
3076.00,0.0049
3075.00,0.0049
3074.00,0.0049
3073.00,0.0050
3072.00,0.0050
3071.00,0.0050
3070.00,0.0051
3069.00,0.0051
3068.00,0.0051
3067.00,0.0051
3066.00,0.0050
3065.00,0.0050
3064.00,0.0050
3063.00,0.0050
3062.00,0.0050
3061.00,0.0050
3060.00,0.0050
3059.00,0.0051
3058.00,0.0051
3057.00,0.0051
3056.00,0.0051
3055.00,0.0051
3054.00,0.0051
3053.00,0.0051
3052.00,0.0051
3051.00,0.0051
3050.00,0.0052
3049.00,0.0052
3048.00,0.0052
3047.00,0.0052
3046.00,0.0052
3045.00,0.0052
3044.00,0.0053
3043.00,0.0053
3042.00,0.0053
3041.00,0.0054
3040.00,0.0054
3039.00,0.0054
3038.00,0.0055
3037.00,0.0055
3036.00,0.0055
3035.00,0.0054
3034.00,0.0054
3033.00,0.0054
3032.00,0.0055
3031.00,0.0056
3030.00,0.0056
3029.00,0.0057
3028.00,0.0058
3027.00,0.0059
3026.00,0.0059
3025.00,0.0060
3024.00,0.0061
3023.00,0.0061
3022.00,0.0062
3021.00,0.0063
3020.00,0.0064
3019.00,0.0066
3018.00,0.0068
3017.00,0.0070
3016.00,0.0072
3015.00,0.0075
3014.00,0.0078
3013.00,0.0081
3012.00,0.0084
3011.00,0.0087
3010.00,0.0091
3009.00,0.0094
3008.00,0.0098
3007.00,0.0103
3006.00,0.0108
3005.00,0.0114
3004.00,0.0119
3003.00,0.0124
3002.00,0.0130
3001.00,0.0135
3000.00,0.0141
2999.00,0.0147
2998.00,0.0152
2997.00,0.0157
2996.00,0.0162
2995.00,0.0167
2994.00,0.0173
2993.00,0.0179
2992.00,0.0185
2991.00,0.0192
2990.00,0.0199
2989.00,0.0208
2988.00,0.0217
2987.00,0.0229
2986.00,0.0244
2985.00,0.0262
2984.00,0.0284
2983.00,0.0306
2982.00,0.0326
2981.00,0.0343
2980.00,0.0357
2979.00,0.0372
2978.00,0.0388
2977.00,0.0408
2976.00,0.0434
2975.00,0.0466
2974.00,0.0504
2973.00,0.0549
2972.00,0.0599
2971.00,0.0653
2970.00,0.0710
2969.00,0.0772
2968.00,0.0839
2967.00,0.0912
2966.00,0.0988
2965.00,0.1065
2964.00,0.1140
2963.00,0.1209
2962.00,0.1269
2961.00,0.1320
2960.00,0.1362
2959.00,0.1399
2958.00,0.1437
2957.00,0.1479
2956.00,0.1530
2955.00,0.1593
2954.00,0.1664
2953.00,0.1738
2952.00,0.1806
2951.00,0.1856
2950.00,0.1877
2949.00,0.1861
2948.00,0.1806
2947.00,0.1716
2946.00,0.1604
2945.00,0.1482
2944.00,0.1367
2943.00,0.1267
2942.00,0.1190
2941.00,0.1138
2940.00,0.1109
2939.00,0.1103
2938.00,0.1116
2937.00,0.1147
2936.00,0.1194
2935.00,0.1255
2934.00,0.1331
2933.00,0.1419
2932.00,0.1518
2931.00,0.1625
2930.00,0.1740
2929.00,0.1858
2928.00,0.1976
2927.00,0.2092
2926.00,0.2204
2925.00,0.2313
2924.00,0.2419
2923.00,0.2524
2922.00,0.2627
2921.00,0.2726
2920.00,0.2814
2919.00,0.2880
2918.00,0.2915
2917.00,0.2910
2916.00,0.2863
2915.00,0.2781
2914.00,0.2675
2913.00,0.2557
2912.00,0.2438
2911.00,0.2326
2910.00,0.2225
2909.00,0.2134
2908.00,0.2051
2907.00,0.1973
2906.00,0.1898
2905.00,0.1825
2904.00,0.1753
2903.00,0.1682
2902.00,0.1613
2901.00,0.1546
2900.00,0.1483
2899.00,0.1423
2898.00,0.1367
2897.00,0.1316
2896.00,0.1271
2895.00,0.1231
2894.00,0.1197
2893.00,0.1168
2892.00,0.1146
2891.00,0.1130
2890.00,0.1118
2889.00,0.1111
2888.00,0.1107
2887.00,0.1107
2886.00,0.1110
2885.00,0.1117
2884.00,0.1128
2883.00,0.1143
2882.00,0.1163
2881.00,0.1187
2880.00,0.1211
2879.00,0.1232
2878.00,0.1247
2877.00,0.1253
2876.00,0.1251
2875.00,0.1244
2874.00,0.1238
2873.00,0.1236
2872.00,0.1241
2871.00,0.1253
2870.00,0.1271
2869.00,0.1289
2868.00,0.1301
2867.00,0.1299
2866.00,0.1278
2865.00,0.1234
2864.00,0.1172
2863.00,0.1099
2862.00,0.1026
2861.00,0.0961
2860.00,0.0911
2859.00,0.0876
2858.00,0.0856
2857.00,0.0850
2856.00,0.0852
2855.00,0.0862
2854.00,0.0877
2853.00,0.0894
2852.00,0.0911
2851.00,0.0924
2850.00,0.0932
2849.00,0.0934
2848.00,0.0935
2847.00,0.0938
2846.00,0.0950
2845.00,0.0972
2844.00,0.1007
2843.00,0.1051
2842.00,0.1101
2841.00,0.1149
2840.00,0.1189
2839.00,0.1212
2838.00,0.1211
2837.00,0.1181
2836.00,0.1122
2835.00,0.1038
2834.00,0.0938
2833.00,0.0833
2832.00,0.0732
2831.00,0.0641
2830.00,0.0565
2829.00,0.0502
2828.00,0.0450
2827.00,0.0409
2826.00,0.0375
2825.00,0.0347
2824.00,0.0324
2823.00,0.0305
2822.00,0.0288
2821.00,0.0273
2820.00,0.0260
2819.00,0.0249
2818.00,0.0239
2817.00,0.0231
2816.00,0.0223
2815.00,0.0217
2814.00,0.0210
2813.00,0.0204
2812.00,0.0199
2811.00,0.0193
2810.00,0.0188
2809.00,0.0182
2808.00,0.0176
2807.00,0.0169
2806.00,0.0163
2805.00,0.0156
2804.00,0.0149
2803.00,0.0143
2802.00,0.0138
2801.00,0.0134
2800.00,0.0130
2799.00,0.0126
2798.00,0.0124
2797.00,0.0121
2796.00,0.0119
2795.00,0.0116
2794.00,0.0113
2793.00,0.0110
2792.00,0.0107
2791.00,0.0104
2790.00,0.0101
2789.00,0.0098
2788.00,0.0096
2787.00,0.0093
2786.00,0.0091
2785.00,0.0088
2784.00,0.0086
2783.00,0.0084
2782.00,0.0082
2781.00,0.0080
2780.00,0.0079
2779.00,0.0077
2778.00,0.0075
2777.00,0.0074
2776.00,0.0073
2775.00,0.0071
2774.00,0.0070
2773.00,0.0070
2772.00,0.0069
2771.00,0.0069
2770.00,0.0068
2769.00,0.0068
2768.00,0.0068
2767.00,0.0067
2766.00,0.0067
2765.00,0.0067
2764.00,0.0067
2763.00,0.0066
2762.00,0.0066
2761.00,0.0065
2760.00,0.0065
2759.00,0.0064
2758.00,0.0064
2757.00,0.0064
2756.00,0.0064
2755.00,0.0064
2754.00,0.0064
2753.00,0.0063
2752.00,0.0063
2751.00,0.0062
2750.00,0.0062
2749.00,0.0061
2748.00,0.0062
2747.00,0.0062
2746.00,0.0062
2745.00,0.0063
2744.00,0.0064
2743.00,0.0065
2742.00,0.0066
2741.00,0.0067
2740.00,0.0068
2739.00,0.0069
2738.00,0.0070
2737.00,0.0071
2736.00,0.0073
2735.00,0.0074
2734.00,0.0075
2733.00,0.0077
2732.00,0.0078
2731.00,0.0080
2730.00,0.0082
2729.00,0.0085
2728.00,0.0088
2727.00,0.0091
2726.00,0.0094
2725.00,0.0096
2724.00,0.0097
2723.00,0.0097
2722.00,0.0096
2721.00,0.0095
2720.00,0.0092
2719.00,0.0089
2718.00,0.0085
2717.00,0.0082
2716.00,0.0079
2715.00,0.0077
2714.00,0.0074
2713.00,0.0072
2712.00,0.0070
2711.00,0.0068
2710.00,0.0066
2709.00,0.0065
2708.00,0.0063
2707.00,0.0062
2706.00,0.0061
2705.00,0.0060
2704.00,0.0059
2703.00,0.0058
2702.00,0.0057
2701.00,0.0056
2700.00,0.0055
2699.00,0.0055
2698.00,0.0055
2697.00,0.0054
2696.00,0.0054
2695.00,0.0054
2694.00,0.0054
2693.00,0.0054
2692.00,0.0054
2691.00,0.0054
2690.00,0.0054
2689.00,0.0054
2688.00,0.0054
2687.00,0.0054
2686.00,0.0054
2685.00,0.0054
2684.00,0.0054
2683.00,0.0055
2682.00,0.0055
2681.00,0.0055
2680.00,0.0055
2679.00,0.0055
2678.00,0.0055
2677.00,0.0055
2676.00,0.0055
2675.00,0.0055
2674.00,0.0055
2673.00,0.0055
2672.00,0.0055
2671.00,0.0054
2670.00,0.0054
2669.00,0.0054
2668.00,0.0054
2667.00,0.0054
2666.00,0.0055
2665.00,0.0055
2664.00,0.0055
2663.00,0.0056
2662.00,0.0056
2661.00,0.0057
2660.00,0.0057
2659.00,0.0057
2658.00,0.0057
2657.00,0.0057
2656.00,0.0056
2655.00,0.0055
2654.00,0.0055
2653.00,0.0054
2652.00,0.0053
2651.00,0.0053
2650.00,0.0053
2649.00,0.0052
2648.00,0.0052
2647.00,0.0052
2646.00,0.0051
2645.00,0.0051
2644.00,0.0050
2643.00,0.0049
2642.00,0.0049
2641.00,0.0049
2640.00,0.0048
2639.00,0.0048
2638.00,0.0047
2637.00,0.0047
2636.00,0.0047
2635.00,0.0047
2634.00,0.0047
2633.00,0.0047
2632.00,0.0047
2631.00,0.0047
2630.00,0.0047
2629.00,0.0048
2628.00,0.0048
2627.00,0.0048
2626.00,0.0048
2625.00,0.0048
2624.00,0.0048
2623.00,0.0048
2622.00,0.0048
2621.00,0.0048
2620.00,0.0047
2619.00,0.0047
2618.00,0.0047
2617.00,0.0047
2616.00,0.0048
2615.00,0.0048
2614.00,0.0047
2613.00,0.0047
2612.00,0.0047
2611.00,0.0046
2610.00,0.0045
2609.00,0.0043
2608.00,0.0042
2607.00,0.0042
2606.00,0.0041
2605.00,0.0040
2604.00,0.0040
2603.00,0.0039
2602.00,0.0039
2601.00,0.0039
2600.00,0.0039
2599.00,0.0039
2598.00,0.0038
2597.00,0.0038
2596.00,0.0038
2595.00,0.0038
2594.00,0.0038
2593.00,0.0039
2592.00,0.0039
2591.00,0.0040
2590.00,0.0041
2589.00,0.0042
2588.00,0.0043
2587.00,0.0044
2586.00,0.0045
2585.00,0.0046
2584.00,0.0046
2583.00,0.0047
2582.00,0.0047
2581.00,0.0046
2580.00,0.0045
2579.00,0.0044
2578.00,0.0043
2577.00,0.0041
2576.00,0.0040
2575.00,0.0038
2574.00,0.0037
2573.00,0.0036
2572.00,0.0035
2571.00,0.0033
2570.00,0.0032
2569.00,0.0031
2568.00,0.0031
2567.00,0.0031
2566.00,0.0030
2565.00,0.0030
2564.00,0.0030
2563.00,0.0029
2562.00,0.0029
2561.00,0.0029
2560.00,0.0030
2559.00,0.0030
2558.00,0.0030
2557.00,0.0029
2556.00,0.0029
2555.00,0.0028
2554.00,0.0028
2553.00,0.0027
2552.00,0.0027
2551.00,0.0027
2550.00,0.0026
2549.00,0.0025
2548.00,0.0025
2547.00,0.0025
2546.00,0.0025
2545.00,0.0026
2544.00,0.0026
2543.00,0.0025
2542.00,0.0025
2541.00,0.0024
2540.00,0.0024
2539.00,0.0024
2538.00,0.0024
2537.00,0.0024
2536.00,0.0024
2535.00,0.0024
2534.00,0.0024
2533.00,0.0023
2532.00,0.0023
2531.00,0.0022
2530.00,0.0022
2529.00,0.0022
2528.00,0.0022
2527.00,0.0022
2526.00,0.0021
2525.00,0.0021
2524.00,0.0020
2523.00,0.0020
2522.00,0.0020
2521.00,0.0019
2520.00,0.0019
2519.00,0.0019
2518.00,0.0018
2517.00,0.0018
2516.00,0.0018
2515.00,0.0018
2514.00,0.0018
2513.00,0.0018
2512.00,0.0018
2511.00,0.0017
2510.00,0.0017
2509.00,0.0018
2508.00,0.0018
2507.00,0.0018
2506.00,0.0018
2505.00,0.0017
2504.00,0.0017
2503.00,0.0017
2502.00,0.0017
2501.00,0.0018
2500.00,0.0019
2499.00,0.0019
2498.00,0.0018
2497.00,0.0018
2496.00,0.0017
2495.00,0.0017
2494.00,0.0017
2493.00,0.0018
2492.00,0.0018
2491.00,0.0017
2490.00,0.0016
2489.00,0.0016
2488.00,0.0016
2487.00,0.0016
2486.00,0.0017
2485.00,0.0017
2484.00,0.0017
2483.00,0.0016
2482.00,0.0016
2481.00,0.0015
2480.00,0.0015
2479.00,0.0016
2478.00,0.0016
2477.00,0.0017
2476.00,0.0018
2475.00,0.0018
2474.00,0.0017
2473.00,0.0016
2472.00,0.0016
2471.00,0.0015
2470.00,0.0015
2469.00,0.0016
2468.00,0.0016
2467.00,0.0016
2466.00,0.0016
2465.00,0.0015
2464.00,0.0015
2463.00,0.0015
2462.00,0.0015
2461.00,0.0015
2460.00,0.0016
2459.00,0.0016
2458.00,0.0016
2457.00,0.0017
2456.00,0.0017
2455.00,0.0017
2454.00,0.0017
2453.00,0.0017
2452.00,0.0017
2451.00,0.0017
2450.00,0.0017
2449.00,0.0016
2448.00,0.0016
2447.00,0.0017
2446.00,0.0017
2445.00,0.0017
2444.00,0.0016
2443.00,0.0016
2442.00,0.0016
2441.00,0.0016
2440.00,0.0016
2439.00,0.0016
2438.00,0.0017
2437.00,0.0017
2436.00,0.0018
2435.00,0.0019
2434.00,0.0019
2433.00,0.0019
2432.00,0.0018
2431.00,0.0017
2430.00,0.0018
2429.00,0.0018
2428.00,0.0018
2427.00,0.0018
2426.00,0.0017
2425.00,0.0017
2424.00,0.0017
2423.00,0.0017
2422.00,0.0017
2421.00,0.0017
2420.00,0.0016
2419.00,0.0016
2418.00,0.0016
2417.00,0.0016
2416.00,0.0015
2415.00,0.0015
2414.00,0.0014
2413.00,0.0014
2412.00,0.0014
2411.00,0.0014
2410.00,0.0015
2409.00,0.0016
2408.00,0.0016
2407.00,0.0016
2406.00,0.0015
2405.00,0.0015
2404.00,0.0014
2403.00,0.0014
2402.00,0.0015
2401.00,0.0015
2400.00,0.0015
2399.00,0.0015
2398.00,0.0014
2397.00,0.0014
2396.00,0.0013
2395.00,0.0013
2394.00,0.0013
2393.00,0.0013
2392.00,0.0013
2391.00,0.0014
2390.00,0.0014
2389.00,0.0014
2388.00,0.0013
2387.00,0.0012
2386.00,0.0012
2385.00,0.0011
2384.00,0.0010
2383.00,0.0010
2382.00,0.0009
2381.00,0.0009
2380.00,0.0008
2379.00,0.0008
2378.00,0.0007
2377.00,0.0007
2376.00,0.0007
2375.00,0.0007
2374.00,0.0007
2373.00,0.0007
2372.00,0.0007
2371.00,0.0007
2370.00,0.0006
2369.00,0.0005
2368.00,0.0005
2367.00,0.0005
2366.00,0.0006
2365.00,0.0007
2364.00,0.0007
2363.00,0.0007
2362.00,0.0007
2361.00,0.0006
2360.00,0.0006
2359.00,0.0006
2358.00,0.0006
2357.00,0.0005
2356.00,0.0005
2355.00,0.0004
2354.00,0.0005
2353.00,0.0005
2352.00,0.0006
2351.00,0.0006
2350.00,0.0006
2349.00,0.0006
2348.00,0.0007
2347.00,0.0008
2346.00,0.0008
2345.00,0.0008
2344.00,0.0007
2343.00,0.0007
2342.00,0.0008
2341.00,0.0008
2340.00,0.0009
2339.00,0.0009
2338.00,0.0009
2337.00,0.0010
2336.00,0.0010
2335.00,0.0009
2334.00,0.0009
2333.00,0.0009
2332.00,0.0009
2331.00,0.0009
2330.00,0.0009
2329.00,0.0010
2328.00,0.0011
2327.00,0.0015
2326.00,0.0019
2325.00,0.0022
2324.00,0.0024
2323.00,0.0023
2322.00,0.0021
2321.00,0.0018
2320.00,0.0017
2319.00,0.0016
2318.00,0.0015
2317.00,0.0014
2316.00,0.0013
2315.00,0.0012
2314.00,0.0012
2313.00,0.0011
2312.00,0.0011
2311.00,0.0011
2310.00,0.0011
2309.00,0.0011
2308.00,0.0012
2307.00,0.0013
2306.00,0.0014
2305.00,0.0015
2304.00,0.0015
2303.00,0.0015
2302.00,0.0015
2301.00,0.0015
2300.00,0.0014
2299.00,0.0015
2298.00,0.0015
2297.00,0.0015
2296.00,0.0016
2295.00,0.0016
2294.00,0.0017
2293.00,0.0018
2292.00,0.0019
2291.00,0.0020
2290.00,0.0021
2289.00,0.0023
2288.00,0.0024
2287.00,0.0024
2286.00,0.0024
2285.00,0.0023
2284.00,0.0022
2283.00,0.0020
2282.00,0.0020
2281.00,0.0020
2280.00,0.0020
2279.00,0.0020
2278.00,0.0020
2277.00,0.0021
2276.00,0.0021
2275.00,0.0020
2274.00,0.0019
2273.00,0.0017
2272.00,0.0016
2271.00,0.0016
2270.00,0.0016
2269.00,0.0017
2268.00,0.0016
2267.00,0.0016
2266.00,0.0015
2265.00,0.0014
2264.00,0.0015
2263.00,0.0015
2262.00,0.0015
2261.00,0.0016
2260.00,0.0016
2259.00,0.0017
2258.00,0.0017
2257.00,0.0016
2256.00,0.0015
2255.00,0.0014
2254.00,0.0013
2253.00,0.0012
2252.00,0.0011
2251.00,0.0011
2250.00,0.0012
2249.00,0.0012
2248.00,0.0013
2247.00,0.0013
2246.00,0.0013
2245.00,0.0014
2244.00,0.0015
2243.00,0.0015
2242.00,0.0015
2241.00,0.0014
2240.00,0.0014
2239.00,0.0013
2238.00,0.0013
2237.00,0.0012
2236.00,0.0013
2235.00,0.0014
2234.00,0.0015
2233.00,0.0016
2232.00,0.0017
2231.00,0.0017
2230.00,0.0016
2229.00,0.0014
2228.00,0.0013
2227.00,0.0013
2226.00,0.0014
2225.00,0.0014
2224.00,0.0014
2223.00,0.0013
2222.00,0.0012
2221.00,0.0011
2220.00,0.0011
2219.00,0.0012
2218.00,0.0012
2217.00,0.0013
2216.00,0.0013
2215.00,0.0012
2214.00,0.0011
2213.00,0.0010
2212.00,0.0009
2211.00,0.0009
2210.00,0.0009
2209.00,0.0009
2208.00,0.0010
2207.00,0.0011
2206.00,0.0011
2205.00,0.0012
2204.00,0.0012
2203.00,0.0012
2202.00,0.0011
2201.00,0.0011
2200.00,0.0012
2199.00,0.0014
2198.00,0.0016
2197.00,0.0017
2196.00,0.0017
2195.00,0.0015
2194.00,0.0012
2193.00,0.0011
2192.00,0.0012
2191.00,0.0013
2190.00,0.0015
2189.00,0.0016
2188.00,0.0017
2187.00,0.0017
2186.00,0.0017
2185.00,0.0016
2184.00,0.0015
2183.00,0.0013
2182.00,0.0011
2181.00,0.0009
2180.00,0.0009
2179.00,0.0011
2178.00,0.0015
2177.00,0.0017
2176.00,0.0016
2175.00,0.0012
2174.00,0.0007
2173.00,0.0005
2172.00,0.0007
2171.00,0.0010
2170.00,0.0014
2169.00,0.0018
2168.00,0.0021
2167.00,0.0024
2166.00,0.0026
2165.00,0.0027
2164.00,0.0028
2163.00,0.0028
2162.00,0.0025
2161.00,0.0018
2160.00,0.0006
2159.00,-0.0008
2158.00,-0.0017
2157.00,-0.0021
2156.00,-0.0021
2155.00,-0.0019
2154.00,-0.0016
2153.00,-0.0011
2152.00,-0.0007
2151.00,-0.0004
2150.00,-0.0003
2149.00,-0.0004
2148.00,-0.0005
2147.00,-0.0007
2146.00,-0.0009
2145.00,-0.0009
2144.00,-0.0010
2143.00,-0.0010
2142.00,-0.0010
2141.00,-0.0010
2140.00,-0.0008
2139.00,-0.0005
2138.00,-0.0004
2137.00,-0.0004
2136.00,-0.0006
2135.00,-0.0009
2134.00,-0.0011
2133.00,-0.0011
2132.00,-0.0009
2131.00,-0.0007
2130.00,-0.0005
2129.00,-0.0003
2128.00,-0.0001
2127.00,-0.0000
2126.00,0.0001
2125.00,0.0001
2124.00,0.0002
2123.00,0.0003
2122.00,0.0003
2121.00,0.0003
2120.00,0.0002
2119.00,0.0002
2118.00,0.0003
2117.00,0.0004
2116.00,0.0006
2115.00,0.0007
2114.00,0.0007
2113.00,0.0008
2112.00,0.0008
2111.00,0.0009
2110.00,0.0008
2109.00,0.0007
2108.00,0.0006
2107.00,0.0006
2106.00,0.0006
2105.00,0.0007
2104.00,0.0008
2103.00,0.0008
2102.00,0.0008
2101.00,0.0008
2100.00,0.0009
2099.00,0.0009
2098.00,0.0008
2097.00,0.0007
2096.00,0.0005
2095.00,0.0004
2094.00,0.0003
2093.00,0.0004
2092.00,0.0005
2091.00,0.0005
2090.00,0.0004
2089.00,0.0004
2088.00,0.0005
2087.00,0.0006
2086.00,0.0007
2085.00,0.0007
2084.00,0.0008
2083.00,0.0009
2082.00,0.0009
2081.00,0.0008
2080.00,0.0008
2079.00,0.0007
2078.00,0.0006
2077.00,0.0006
2076.00,0.0007
2075.00,0.0007
2074.00,0.0007
2073.00,0.0006
2072.00,0.0006
2071.00,0.0005
2070.00,0.0005
2069.00,0.0005
2068.00,0.0005
2067.00,0.0006
2066.00,0.0006
2065.00,0.0006
2064.00,0.0004
2063.00,0.0002
2062.00,0.0000
2061.00,0.0000
2060.00,0.0002
2059.00,0.0003
2058.00,0.0005
2057.00,0.0006
2056.00,0.0008
2055.00,0.0009
2054.00,0.0009
2053.00,0.0010
2052.00,0.0012
2051.00,0.0013
2050.00,0.0013
2049.00,0.0011
2048.00,0.0008
2047.00,0.0005
2046.00,0.0003
2045.00,0.0003
2044.00,0.0005
2043.00,0.0007
2042.00,0.0007
2041.00,0.0007
2040.00,0.0006
2039.00,0.0005
2038.00,0.0005
2037.00,0.0006
2036.00,0.0006
2035.00,0.0005
2034.00,0.0003
2033.00,0.0001
2032.00,0.0000
2031.00,-0.0001
2030.00,-0.0002
2029.00,-0.0003
2028.00,-0.0004
2027.00,-0.0004
2026.00,-0.0004
2025.00,-0.0003
2024.00,-0.0002
2023.00,-0.0002
2022.00,-0.0001
2021.00,0.0001
2020.00,0.0003
2019.00,0.0003
2018.00,0.0002
2017.00,0.0001
2016.00,0.0001
2015.00,0.0002
2014.00,0.0002
2013.00,0.0001
2012.00,-0.0000
2011.00,-0.0002
2010.00,-0.0005
2009.00,-0.0007
2008.00,-0.0009
2007.00,-0.0011
2006.00,-0.0012
2005.00,-0.0012
2004.00,-0.0011
2003.00,-0.0011
2002.00,-0.0011
2001.00,-0.0011
2000.00,-0.0010
1999.00,-0.0008
1998.00,-0.0007
1997.00,-0.0006
1996.00,-0.0005
1995.00,-0.0004
1994.00,-0.0004
1993.00,-0.0002
1992.00,-0.0000
1991.00,0.0000
1990.00,-0.0000
1989.00,-0.0001
1988.00,-0.0001
1987.00,0.0000
1986.00,0.0002
1985.00,0.0004
1984.00,0.0007
1983.00,0.0011
1982.00,0.0016
1981.00,0.0020
1980.00,0.0021
1979.00,0.0018
1978.00,0.0010
1977.00,0.0001
1976.00,-0.0004
1975.00,-0.0006
1974.00,-0.0006
1973.00,-0.0005
1972.00,-0.0004
1971.00,-0.0003
1970.00,-0.0004
1969.00,-0.0005
1968.00,-0.0006
1967.00,-0.0005
1966.00,-0.0002
1965.00,0.0002
1964.00,0.0003
1963.00,0.0001
1962.00,-0.0002
1961.00,-0.0006
1960.00,-0.0009
1959.00,-0.0009
1958.00,-0.0009
1957.00,-0.0007
1956.00,-0.0006
1955.00,-0.0006
1954.00,-0.0006
1953.00,-0.0006
1952.00,-0.0006
1951.00,-0.0006
1950.00,-0.0007
1949.00,-0.0008
1948.00,-0.0007
1947.00,-0.0007
1946.00,-0.0006
1945.00,-0.0006
1944.00,-0.0007
1943.00,-0.0008
1942.00,-0.0008
1941.00,-0.0006
1940.00,-0.0004
1939.00,-0.0002
1938.00,-0.0001
1937.00,0.0000
1936.00,0.0001
1935.00,0.0001
1934.00,0.0001
1933.00,0.0000
1932.00,-0.0000
1931.00,-0.0001
1930.00,-0.0002
1929.00,-0.0002
1928.00,-0.0002
1927.00,-0.0002
1926.00,-0.0002
1925.00,-0.0002
1924.00,-0.0002
1923.00,-0.0002
1922.00,-0.0002
1921.00,-0.0001
1920.00,0.0001
1919.00,0.0002
1918.00,0.0003
1917.00,0.0004
1916.00,0.0005
1915.00,0.0005
1914.00,0.0005
1913.00,0.0005
1912.00,0.0004
1911.00,0.0004
1910.00,0.0004
1909.00,0.0004
1908.00,0.0004
1907.00,0.0004
1906.00,0.0004
1905.00,0.0004
1904.00,0.0004
1903.00,0.0005
1902.00,0.0005
1901.00,0.0006
1900.00,0.0006
1899.00,0.0006
1898.00,0.0005
1897.00,0.0005
1896.00,0.0005
1895.00,0.0006
1894.00,0.0007
1893.00,0.0008
1892.00,0.0009
1891.00,0.0009
1890.00,0.0007
1889.00,0.0006
1888.00,0.0006
1887.00,0.0005
1886.00,0.0006
1885.00,0.0006
1884.00,0.0006
1883.00,0.0006
1882.00,0.0005
1881.00,0.0005
1880.00,0.0005
1879.00,0.0005
1878.00,0.0005
1877.00,0.0006
1876.00,0.0006
1875.00,0.0006
1874.00,0.0005
1873.00,0.0006
1872.00,0.0006
1871.00,0.0007
1870.00,0.0007
1869.00,0.0006
1868.00,0.0005
1867.00,0.0005
1866.00,0.0006
1865.00,0.0006
1864.00,0.0006
1863.00,0.0006
1862.00,0.0005
1861.00,0.0005
1860.00,0.0005
1859.00,0.0005
1858.00,0.0005
1857.00,0.0006
1856.00,0.0007
1855.00,0.0007
1854.00,0.0007
1853.00,0.0007
1852.00,0.0008
1851.00,0.0008
1850.00,0.0009
1849.00,0.0009
1848.00,0.0008
1847.00,0.0008
1846.00,0.0008
1845.00,0.0008
1844.00,0.0009
1843.00,0.0009
1842.00,0.0009
1841.00,0.0009
1840.00,0.0008
1839.00,0.0008
1838.00,0.0008
1837.00,0.0009
1836.00,0.0009
1835.00,0.0010
1834.00,0.0009
1833.00,0.0009
1832.00,0.0008
1831.00,0.0008
1830.00,0.0008
1829.00,0.0008
1828.00,0.0009
1827.00,0.0009
1826.00,0.0010
1825.00,0.0010
1824.00,0.0010
1823.00,0.0010
1822.00,0.0009
1821.00,0.0009
1820.00,0.0009
1819.00,0.0008
1818.00,0.0008
1817.00,0.0007
1816.00,0.0007
1815.00,0.0008
1814.00,0.0009
1813.00,0.0010
1812.00,0.0010
1811.00,0.0010
1810.00,0.0010
1809.00,0.0010
1808.00,0.0010
1807.00,0.0010
1806.00,0.0010
1805.00,0.0011
1804.00,0.0011
1803.00,0.0010
1802.00,0.0010
1801.00,0.0010
1800.00,0.0010
1799.00,0.0010
1798.00,0.0011
1797.00,0.0011
1796.00,0.0011
1795.00,0.0012
1794.00,0.0012
1793.00,0.0013
1792.00,0.0013
1791.00,0.0014
1790.00,0.0014
1789.00,0.0014
1788.00,0.0015
1787.00,0.0015
1786.00,0.0015
1785.00,0.0015
1784.00,0.0015
1783.00,0.0015
1782.00,0.0015
1781.00,0.0016
1780.00,0.0016
1779.00,0.0016
1778.00,0.0016
1777.00,0.0016
1776.00,0.0016
1775.00,0.0016
1774.00,0.0016
1773.00,0.0016
1772.00,0.0017
1771.00,0.0018
1770.00,0.0018
1769.00,0.0019
1768.00,0.0019
1767.00,0.0019
1766.00,0.0020
1765.00,0.0021
1764.00,0.0021
1763.00,0.0022
1762.00,0.0023
1761.00,0.0023
1760.00,0.0024
1759.00,0.0024
1758.00,0.0025
1757.00,0.0026
1756.00,0.0028
1755.00,0.0030
1754.00,0.0031
1753.00,0.0032
1752.00,0.0034
1751.00,0.0035
1750.00,0.0037
1749.00,0.0039
1748.00,0.0040
1747.00,0.0041
1746.00,0.0041
1745.00,0.0041
1744.00,0.0042
1743.00,0.0042
1742.00,0.0042
1741.00,0.0043
1740.00,0.0044
1739.00,0.0044
1738.00,0.0044
1737.00,0.0043
1736.00,0.0044
1735.00,0.0044
1734.00,0.0044
1733.00,0.0044
1732.00,0.0044
1731.00,0.0044
1730.00,0.0043
1729.00,0.0043
1728.00,0.0044
1727.00,0.0044
1726.00,0.0044
1725.00,0.0044
1724.00,0.0045
1723.00,0.0045
1722.00,0.0045
1721.00,0.0045
1720.00,0.0044
1719.00,0.0044
1718.00,0.0044
1717.00,0.0044
1716.00,0.0043
1715.00,0.0043
1714.00,0.0042
1713.00,0.0041
1712.00,0.0041
1711.00,0.0041
1710.00,0.0041
1709.00,0.0042
1708.00,0.0043
1707.00,0.0044
1706.00,0.0044
1705.00,0.0045
1704.00,0.0045
1703.00,0.0045
1702.00,0.0046
1701.00,0.0047
1700.00,0.0049
1699.00,0.0050
1698.00,0.0051
1697.00,0.0051
1696.00,0.0052
1695.00,0.0054
1694.00,0.0056
1693.00,0.0057
1692.00,0.0058
1691.00,0.0059
1690.00,0.0060
1689.00,0.0062
1688.00,0.0063
1687.00,0.0064
1686.00,0.0065
1685.00,0.0067
1684.00,0.0070
1683.00,0.0073
1682.00,0.0075
1681.00,0.0076
1680.00,0.0078
1679.00,0.0079
1678.00,0.0080
1677.00,0.0082
1676.00,0.0084
1675.00,0.0087
1674.00,0.0089
1673.00,0.0090
1672.00,0.0091
1671.00,0.0092
1670.00,0.0092
1669.00,0.0093
1668.00,0.0094
1667.00,0.0095
1666.00,0.0095
1665.00,0.0097
1664.00,0.0098
1663.00,0.0099
1662.00,0.0100
1661.00,0.0101
1660.00,0.0101
1659.00,0.0102
1658.00,0.0103
1657.00,0.0104
1656.00,0.0104
1655.00,0.0104
1654.00,0.0105
1653.00,0.0108
1652.00,0.0112
1651.00,0.0115
1650.00,0.0117
1649.00,0.0120
1648.00,0.0123
1647.00,0.0125
1646.00,0.0126
1645.00,0.0126
1644.00,0.0124
1643.00,0.0122
1642.00,0.0120
1641.00,0.0119
1640.00,0.0118
1639.00,0.0118
1638.00,0.0118
1637.00,0.0119
1636.00,0.0119
1635.00,0.0119
1634.00,0.0118
1633.00,0.0118
1632.00,0.0118
1631.00,0.0117
1630.00,0.0117
1629.00,0.0117
1628.00,0.0117
1627.00,0.0117
1626.00,0.0116
1625.00,0.0116
1624.00,0.0115
1623.00,0.0114
1622.00,0.0114
1621.00,0.0113
1620.00,0.0113
1619.00,0.0112
1618.00,0.0112
1617.00,0.0112
1616.00,0.0113
1615.00,0.0113
1614.00,0.0113
1613.00,0.0113
1612.00,0.0113
1611.00,0.0113
1610.00,0.0114
1609.00,0.0114
1608.00,0.0114
1607.00,0.0114
1606.00,0.0114
1605.00,0.0114
1604.00,0.0115
1603.00,0.0115
1602.00,0.0115
1601.00,0.0115
1600.00,0.0116
1599.00,0.0116
1598.00,0.0116
1597.00,0.0116
1596.00,0.0115
1595.00,0.0115
1594.00,0.0114
1593.00,0.0113
1592.00,0.0113
1591.00,0.0113
1590.00,0.0113
1589.00,0.0113
1588.00,0.0113
1587.00,0.0112
1586.00,0.0112
1585.00,0.0111
1584.00,0.0110
1583.00,0.0109
1582.00,0.0108
1581.00,0.0108
1580.00,0.0108
1579.00,0.0107
1578.00,0.0106
1577.00,0.0105
1576.00,0.0104
1575.00,0.0103
1574.00,0.0102
1573.00,0.0102
1572.00,0.0101
1571.00,0.0100
1570.00,0.0099
1569.00,0.0098
1568.00,0.0098
1567.00,0.0097
1566.00,0.0097
1565.00,0.0096
1564.00,0.0095
1563.00,0.0094
1562.00,0.0093
1561.00,0.0093
1560.00,0.0093
1559.00,0.0092
1558.00,0.0090
1557.00,0.0090
1556.00,0.0091
1555.00,0.0091
1554.00,0.0091
1553.00,0.0091
1552.00,0.0091
1551.00,0.0091
1550.00,0.0090
1549.00,0.0090
1548.00,0.0090
1547.00,0.0090
1546.00,0.0090
1545.00,0.0090
1544.00,0.0089
1543.00,0.0088
1542.00,0.0087
1541.00,0.0086
1540.00,0.0084
1539.00,0.0082
1538.00,0.0082
1537.00,0.0082
1536.00,0.0082
1535.00,0.0081
1534.00,0.0080
1533.00,0.0078
1532.00,0.0077
1531.00,0.0076
1530.00,0.0076
1529.00,0.0076
1528.00,0.0076
1527.00,0.0075
1526.00,0.0075
1525.00,0.0075
1524.00,0.0075
1523.00,0.0074
1522.00,0.0074
1521.00,0.0073
1520.00,0.0074
1519.00,0.0074
1518.00,0.0074
1517.00,0.0074
1516.00,0.0075
1515.00,0.0075
1514.00,0.0075
1513.00,0.0076
1512.00,0.0076
1511.00,0.0077
1510.00,0.0077
1509.00,0.0079
1508.00,0.0081
1507.00,0.0081
1506.00,0.0081
1505.00,0.0083
1504.00,0.0085
1503.00,0.0087
1502.00,0.0088
1501.00,0.0091
1500.00,0.0094
1499.00,0.0096
1498.00,0.0098
1497.00,0.0102
1496.00,0.0106
1495.00,0.0110
1494.00,0.0113
1493.00,0.0117
1492.00,0.0122
1491.00,0.0126
1490.00,0.0130
1489.00,0.0135
1488.00,0.0140
1487.00,0.0145
1486.00,0.0150
1485.00,0.0156
1484.00,0.0162
1483.00,0.0169
1482.00,0.0177
1481.00,0.0187
1480.00,0.0198
1479.00,0.0210
1478.00,0.0225
1477.00,0.0246
1476.00,0.0273
1475.00,0.0305
1474.00,0.0348
1473.00,0.0407
1472.00,0.0476
1471.00,0.0542
1470.00,0.0605
1469.00,0.0672
1468.00,0.0743
1467.00,0.0822
1466.00,0.0912
1465.00,0.1011
1464.00,0.1096
1463.00,0.1154
1462.00,0.1188
1461.00,0.1210
1460.00,0.1224
1459.00,0.1230
1458.00,0.1233
1457.00,0.1232
1456.00,0.1224
1455.00,0.1211
1454.00,0.1195
1453.00,0.1174
1452.00,0.1144
1451.00,0.1104
1450.00,0.1050
1449.00,0.0978
1448.00,0.0887
1447.00,0.0793
1446.00,0.0710
1445.00,0.0640
1444.00,0.0580
1443.00,0.0531
1442.00,0.0495
1441.00,0.0471
1440.00,0.0456
1439.00,0.0452
1438.00,0.0455
1437.00,0.0459
1436.00,0.0452
1435.00,0.0430
1434.00,0.0396
1433.00,0.0354
1432.00,0.0309
1431.00,0.0270
1430.00,0.0238
1429.00,0.0215
1428.00,0.0200
1427.00,0.0191
1426.00,0.0185
1425.00,0.0180
1424.00,0.0175
1423.00,0.0173
1422.00,0.0172
1421.00,0.0170
1420.00,0.0167
1419.00,0.0165
1418.00,0.0164
1417.00,0.0162
1416.00,0.0160
1415.00,0.0159
1414.00,0.0159
1413.00,0.0158
1412.00,0.0157
1411.00,0.0156
1410.00,0.0157
1409.00,0.0156
1408.00,0.0157
1407.00,0.0158
1406.00,0.0160
1405.00,0.0161
1404.00,0.0162
1403.00,0.0165
1402.00,0.0169
1401.00,0.0173
1400.00,0.0176
1399.00,0.0180
1398.00,0.0184
1397.00,0.0187
1396.00,0.0191
1395.00,0.0196
1394.00,0.0202
1393.00,0.0208
1392.00,0.0213
1391.00,0.0220
1390.00,0.0230
1389.00,0.0243
1388.00,0.0263
1387.00,0.0294
1386.00,0.0335
1385.00,0.0390
1384.00,0.0467
1383.00,0.0576
1382.00,0.0726
1381.00,0.0924
1380.00,0.1173
1379.00,0.1459
1378.00,0.1737
1377.00,0.1941
1376.00,0.2009
1375.00,0.1908
1374.00,0.1666
1373.00,0.1378
1372.00,0.1116
1371.00,0.0902
1370.00,0.0733
1369.00,0.0604
1368.00,0.0516
1367.00,0.0461
1366.00,0.0430
1365.00,0.0417
1364.00,0.0418
1363.00,0.0430
1362.00,0.0450
1361.00,0.0473
1360.00,0.0490
1359.00,0.0496
1358.00,0.0485
1357.00,0.0460
1356.00,0.0423
1355.00,0.0381
1354.00,0.0340
1353.00,0.0306
1352.00,0.0278
1351.00,0.0255
1350.00,0.0237
1349.00,0.0221
1348.00,0.0208
1347.00,0.0198
1346.00,0.0188
1345.00,0.0181
1344.00,0.0174
1343.00,0.0169
1342.00,0.0163
1341.00,0.0159
1340.00,0.0155
1339.00,0.0152
1338.00,0.0150
1337.00,0.0150
1336.00,0.0151
1335.00,0.0153
1334.00,0.0156
1333.00,0.0160
1332.00,0.0164
1331.00,0.0168
1330.00,0.0169
1329.00,0.0167
1328.00,0.0164
1327.00,0.0158
1326.00,0.0152
1325.00,0.0146
1324.00,0.0140
1323.00,0.0135
1322.00,0.0131
1321.00,0.0127
1320.00,0.0125
1319.00,0.0123
1318.00,0.0121
1317.00,0.0119
1316.00,0.0118
1315.00,0.0117
1314.00,0.0117
1313.00,0.0117
1312.00,0.0117
1311.00,0.0119
1310.00,0.0122
1309.00,0.0127
1308.00,0.0135
1307.00,0.0144
1306.00,0.0153
1305.00,0.0159
1304.00,0.0161
1303.00,0.0159
1302.00,0.0156
1301.00,0.0153
1300.00,0.0152
1299.00,0.0152
1298.00,0.0154
1297.00,0.0155
1296.00,0.0155
1295.00,0.0153
1294.00,0.0149
1293.00,0.0144
1292.00,0.0138
1291.00,0.0132
1290.00,0.0127
1289.00,0.0124
1288.00,0.0121
1287.00,0.0120
1286.00,0.0118
1285.00,0.0117
1284.00,0.0115
1283.00,0.0114
1282.00,0.0114
1281.00,0.0113
1280.00,0.0113
1279.00,0.0113
1278.00,0.0113
1277.00,0.0113
1276.00,0.0114
1275.00,0.0115
1274.00,0.0116
1273.00,0.0118
1272.00,0.0120
1271.00,0.0122
1270.00,0.0125
1269.00,0.0127
1268.00,0.0130
1267.00,0.0134
1266.00,0.0137
1265.00,0.0141
1264.00,0.0145
1263.00,0.0148
1262.00,0.0151
1261.00,0.0154
1260.00,0.0159
1259.00,0.0164
1258.00,0.0169
1257.00,0.0173
1256.00,0.0175
1255.00,0.0173
1254.00,0.0169
1253.00,0.0162
1252.00,0.0156
1251.00,0.0151
1250.00,0.0146
1249.00,0.0142
1248.00,0.0138
1247.00,0.0135
1246.00,0.0131
1245.00,0.0128
1244.00,0.0126
1243.00,0.0125
1242.00,0.0124
1241.00,0.0123
1240.00,0.0122
1239.00,0.0122
1238.00,0.0121
1237.00,0.0119
1236.00,0.0118
1235.00,0.0118
1234.00,0.0117
1233.00,0.0117
1232.00,0.0116
1231.00,0.0115
1230.00,0.0115
1229.00,0.0115
1228.00,0.0116
1227.00,0.0117
1226.00,0.0118
1225.00,0.0120
1224.00,0.0123
1223.00,0.0125
1222.00,0.0128
1221.00,0.0131
1220.00,0.0133
1219.00,0.0133
1218.00,0.0132
1217.00,0.0130
1216.00,0.0126
1215.00,0.0122
1214.00,0.0118
1213.00,0.0115
1212.00,0.0112
1211.00,0.0110
1210.00,0.0108
1209.00,0.0106
1208.00,0.0105
1207.00,0.0104
1206.00,0.0104
1205.00,0.0104
1204.00,0.0103
1203.00,0.0103
1202.00,0.0102
1201.00,0.0102
1200.00,0.0102
1199.00,0.0102
1198.00,0.0102
1197.00,0.0102
1196.00,0.0103
1195.00,0.0104
1194.00,0.0105
1193.00,0.0106
1192.00,0.0106
1191.00,0.0107
1190.00,0.0108
1189.00,0.0108
1188.00,0.0110
1187.00,0.0111
1186.00,0.0113
1185.00,0.0114
1184.00,0.0116
1183.00,0.0118
1182.00,0.0121
1181.00,0.0125
1180.00,0.0129
1179.00,0.0134
1178.00,0.0140
1177.00,0.0147
1176.00,0.0157
1175.00,0.0170
1174.00,0.0188
1173.00,0.0210
1172.00,0.0234
1171.00,0.0261
1170.00,0.0286
1169.00,0.0307
1168.00,0.0319
1167.00,0.0323
1166.00,0.0318
1165.00,0.0309
1164.00,0.0297
1163.00,0.0286
1162.00,0.0276
1161.00,0.0268
1160.00,0.0263
1159.00,0.0259
1158.00,0.0258
1157.00,0.0257
1156.00,0.0256
1155.00,0.0256
1154.00,0.0256
1153.00,0.0255
1152.00,0.0252
1151.00,0.0246
1150.00,0.0237
1149.00,0.0228
1148.00,0.0218
1147.00,0.0209
1146.00,0.0200
1145.00,0.0193
1144.00,0.0185
1143.00,0.0179
1142.00,0.0173
1141.00,0.0168
1140.00,0.0164
1139.00,0.0160
1138.00,0.0157
1137.00,0.0154
1136.00,0.0151
1135.00,0.0149
1134.00,0.0147
1133.00,0.0146
1132.00,0.0146
1131.00,0.0146
1130.00,0.0147
1129.00,0.0147
1128.00,0.0148
1127.00,0.0148
1126.00,0.0149
1125.00,0.0150
1124.00,0.0150
1123.00,0.0151
1122.00,0.0151
1121.00,0.0151
1120.00,0.0150
1119.00,0.0150
1118.00,0.0150
1117.00,0.0149
1116.00,0.0150
1115.00,0.0149
1114.00,0.0149
1113.00,0.0149
1112.00,0.0151
1111.00,0.0153
1110.00,0.0156
1109.00,0.0159
1108.00,0.0163
1107.00,0.0169
1106.00,0.0176
1105.00,0.0183
1104.00,0.0189
1103.00,0.0191
1102.00,0.0191
1101.00,0.0187
1100.00,0.0182
1099.00,0.0176
1098.00,0.0171
1097.00,0.0166
1096.00,0.0162
1095.00,0.0159
1094.00,0.0157
1093.00,0.0156
1092.00,0.0155
1091.00,0.0155
1090.00,0.0155
1089.00,0.0153
1088.00,0.0152
1087.00,0.0150
1086.00,0.0150
1085.00,0.0150
1084.00,0.0151
1083.00,0.0152
1082.00,0.0153
1081.00,0.0152
1080.00,0.0151
1079.00,0.0150
1078.00,0.0148
1077.00,0.0146
1076.00,0.0145
1075.00,0.0143
1074.00,0.0143
1073.00,0.0143
1072.00,0.0142
1071.00,0.0140
1070.00,0.0138
1069.00,0.0137
1068.00,0.0135
1067.00,0.0135
1066.00,0.0134
1065.00,0.0134
1064.00,0.0135
1063.00,0.0135
1062.00,0.0136
1061.00,0.0136
1060.00,0.0135
1059.00,0.0135
1058.00,0.0135
1057.00,0.0135
1056.00,0.0136
1055.00,0.0137
1054.00,0.0138
1053.00,0.0140
1052.00,0.0142
1051.00,0.0145
1050.00,0.0147
1049.00,0.0149
1048.00,0.0152
1047.00,0.0156
1046.00,0.0159
1045.00,0.0162
1044.00,0.0162
1043.00,0.0161
1042.00,0.0159
1041.00,0.0157
1040.00,0.0156
1039.00,0.0155
1038.00,0.0154
1037.00,0.0153
1036.00,0.0151
1035.00,0.0149
1034.00,0.0147
1033.00,0.0145
1032.00,0.0144
1031.00,0.0144
1030.00,0.0143
1029.00,0.0143
1028.00,0.0143
1027.00,0.0144
1026.00,0.0145
1025.00,0.0147
1024.00,0.0148
1023.00,0.0150
1022.00,0.0151
1021.00,0.0152
1020.00,0.0154
1019.00,0.0156
1018.00,0.0157
1017.00,0.0158
1016.00,0.0158
1015.00,0.0157
1014.00,0.0156
1013.00,0.0155
1012.00,0.0154
1011.00,0.0154
1010.00,0.0155
1009.00,0.0155
1008.00,0.0156
1007.00,0.0158
1006.00,0.0163
1005.00,0.0170
1004.00,0.0182
1003.00,0.0199
1002.00,0.0221
1001.00,0.0250
1000.00,0.0280
999.00,0.0304
998.00,0.0314
997.00,0.0307
996.00,0.0284
995.00,0.0252
994.00,0.0220
993.00,0.0193
992.00,0.0171
991.00,0.0156
990.00,0.0144
989.00,0.0137
988.00,0.0132
987.00,0.0130
986.00,0.0129
985.00,0.0130
984.00,0.0134
983.00,0.0140
982.00,0.0151
981.00,0.0166
980.00,0.0186
979.00,0.0211
978.00,0.0243
977.00,0.0279
976.00,0.0318
975.00,0.0354
974.00,0.0379
973.00,0.0387
972.00,0.0376
971.00,0.0346
970.00,0.0308
969.00,0.0268
968.00,0.0234
967.00,0.0208
966.00,0.0189
965.00,0.0175
964.00,0.0165
963.00,0.0158
962.00,0.0152
961.00,0.0147
960.00,0.0144
959.00,0.0142
958.00,0.0141
957.00,0.0140
956.00,0.0139
955.00,0.0138
954.00,0.0137
953.00,0.0136
952.00,0.0135
951.00,0.0134
950.00,0.0132
949.00,0.0130
948.00,0.0129
947.00,0.0129
946.00,0.0129
945.00,0.0130
944.00,0.0133
943.00,0.0137
942.00,0.0141
941.00,0.0143
940.00,0.0143
939.00,0.0139
938.00,0.0134
937.00,0.0126
936.00,0.0119
935.00,0.0113
934.00,0.0107
933.00,0.0102
932.00,0.0098
931.00,0.0094
930.00,0.0092
929.00,0.0090
928.00,0.0088
927.00,0.0087
926.00,0.0087
925.00,0.0085
924.00,0.0083
923.00,0.0082
922.00,0.0081
921.00,0.0080
920.00,0.0080
919.00,0.0080
918.00,0.0080
917.00,0.0080
916.00,0.0080
915.00,0.0080
914.00,0.0081
913.00,0.0082
912.00,0.0084
911.00,0.0086
910.00,0.0089
909.00,0.0091
908.00,0.0095
907.00,0.0100
906.00,0.0107
905.00,0.0117
904.00,0.0130
903.00,0.0149
902.00,0.0170
901.00,0.0189
900.00,0.0201
899.00,0.0202
898.00,0.0192
897.00,0.0174
896.00,0.0154
895.00,0.0135
894.00,0.0119
893.00,0.0108
892.00,0.0101
891.00,0.0097
890.00,0.0094
889.00,0.0091
888.00,0.0090
887.00,0.0089
886.00,0.0088
885.00,0.0088
884.00,0.0087
883.00,0.0086
882.00,0.0086
881.00,0.0085
880.00,0.0086
879.00,0.0086
878.00,0.0086
877.00,0.0086
876.00,0.0086
875.00,0.0087
874.00,0.0089
873.00,0.0090
872.00,0.0091
871.00,0.0092
870.00,0.0093
869.00,0.0093
868.00,0.0093
867.00,0.0093
866.00,0.0094
865.00,0.0094
864.00,0.0095
863.00,0.0096
862.00,0.0097
861.00,0.0098
860.00,0.0099
859.00,0.0101
858.00,0.0104
857.00,0.0107
856.00,0.0108
855.00,0.0109
854.00,0.0109
853.00,0.0109
852.00,0.0111
851.00,0.0112
850.00,0.0116
849.00,0.0120
848.00,0.0126
847.00,0.0136
846.00,0.0153
845.00,0.0179
844.00,0.0215
843.00,0.0255
842.00,0.0287
841.00,0.0297
840.00,0.0279
839.00,0.0242
838.00,0.0202
837.00,0.0169
836.00,0.0148
835.00,0.0137
834.00,0.0132
833.00,0.0130
832.00,0.0128
831.00,0.0127
830.00,0.0124
829.00,0.0122
828.00,0.0120
827.00,0.0119
826.00,0.0120
825.00,0.0121
824.00,0.0123
823.00,0.0125
822.00,0.0127
821.00,0.0129
820.00,0.0131
819.00,0.0133
818.00,0.0138
817.00,0.0144
816.00,0.0153
815.00,0.0165
814.00,0.0181
813.00,0.0201
812.00,0.0224
811.00,0.0245
810.00,0.0261
809.00,0.0267
808.00,0.0262
807.00,0.0247
806.00,0.0227
805.00,0.0207
804.00,0.0190
803.00,0.0175
802.00,0.0162
801.00,0.0152
800.00,0.0143
799.00,0.0137
798.00,0.0132
797.00,0.0128
796.00,0.0125
795.00,0.0123
794.00,0.0120
793.00,0.0116
792.00,0.0112
791.00,0.0108
790.00,0.0104
789.00,0.0101
788.00,0.0099
787.00,0.0097
786.00,0.0095
785.00,0.0093
784.00,0.0092
783.00,0.0091
782.00,0.0090
781.00,0.0089
780.00,0.0089
779.00,0.0089
778.00,0.0089
777.00,0.0089
776.00,0.0088
775.00,0.0088
774.00,0.0087
773.00,0.0088
772.00,0.0087
771.00,0.0087
770.00,0.0087
769.00,0.0088
768.00,0.0088
767.00,0.0089
766.00,0.0088
765.00,0.0087
764.00,0.0086
763.00,0.0086
762.00,0.0086
761.00,0.0087
760.00,0.0089
759.00,0.0091
758.00,0.0093
757.00,0.0095
756.00,0.0096
755.00,0.0096
754.00,0.0097
753.00,0.0097
752.00,0.0098
751.00,0.0099
750.00,0.0100
749.00,0.0101
748.00,0.0103
747.00,0.0104
746.00,0.0106
745.00,0.0107
744.00,0.0110
743.00,0.0114
742.00,0.0117
741.00,0.0120
740.00,0.0122
739.00,0.0125
738.00,0.0128
737.00,0.0132
736.00,0.0135
735.00,0.0139
734.00,0.0145
733.00,0.0153
732.00,0.0162
731.00,0.0169
730.00,0.0174
729.00,0.0176
728.00,0.0176
727.00,0.0177
726.00,0.0179
725.00,0.0184
724.00,0.0190
723.00,0.0197
722.00,0.0202
721.00,0.0205
720.00,0.0202
719.00,0.0195
718.00,0.0184
717.00,0.0172
716.00,0.0161
715.00,0.0153
714.00,0.0146
713.00,0.0140
712.00,0.0135
711.00,0.0132
710.00,0.0131
709.00,0.0130
708.00,0.0129
707.00,0.0129
706.00,0.0128
705.00,0.0128
704.00,0.0128
703.00,0.0127
702.00,0.0124
701.00,0.0122
700.00,0.0120
699.00,0.0120
698.00,0.0122
697.00,0.0124
696.00,0.0126
695.00,0.0125
694.00,0.0122
693.00,0.0118
692.00,0.0117
691.00,0.0116
690.00,0.0116
689.00,0.0116
688.00,0.0117
687.00,0.0118
686.00,0.0120
685.00,0.0121
684.00,0.0122
683.00,0.0124
682.00,0.0125
681.00,0.0125
680.00,0.0123
679.00,0.0122
678.00,0.0122
677.00,0.0122
676.00,0.0123
675.00,0.0125
674.00,0.0127
673.00,0.0130
672.00,0.0131
671.00,0.0131
670.00,0.0131
669.00,0.0130
668.00,0.0128
667.00,0.0126
666.00,0.0124
665.00,0.0123
664.00,0.0122
663.00,0.0121
662.00,0.0121
661.00,0.0120
660.00,0.0119
659.00,0.0119
658.00,0.0119
657.00,0.0119
656.00,0.0119
655.00,0.0119
654.00,0.0117
653.00,0.0116
652.00,0.0115
651.00,0.0116
650.00,0.0116
649.00,0.0116
648.00,0.0114
647.00,0.0112
646.00,0.0112
645.00,0.0113
644.00,0.0113
643.00,0.0113
642.00,0.0114
641.00,0.0115
640.00,0.0116
639.00,0.0117
638.00,0.0117
637.00,0.0116
636.00,0.0115
635.00,0.0115
634.00,0.0115
633.00,0.0115
632.00,0.0116
631.00,0.0116
630.00,0.0117
629.00,0.0117
628.00,0.0116
627.00,0.0115
626.00,0.0114
625.00,0.0112
624.00,0.0111
623.00,0.0111
622.00,0.0111
621.00,0.0111
620.00,0.0110
619.00,0.0108
618.00,0.0106
617.00,0.0105
616.00,0.0106
615.00,0.0108
614.00,0.0110
613.00,0.0111
612.00,0.0110
611.00,0.0107
610.00,0.0106
609.00,0.0107
608.00,0.0108
607.00,0.0110
606.00,0.0112
605.00,0.0113
604.00,0.0113
603.00,0.0111
602.00,0.0109
601.00,0.0106
600.00,0.0104
599.00,0.0103
598.00,0.0104
597.00,0.0105
596.00,0.0106
595.00,0.0106
594.00,0.0106
593.00,0.0106
592.00,0.0107
591.00,0.0108
590.00,0.0108
589.00,0.0106
588.00,0.0103
587.00,0.0099
586.00,0.0098
585.00,0.0100
584.00,0.0105
583.00,0.0109
582.00,0.0111
581.00,0.0110
580.00,0.0108
579.00,0.0106
578.00,0.0105
577.00,0.0105
576.00,0.0105
575.00,0.0106
574.00,0.0107
573.00,0.0109
572.00,0.0110
571.00,0.0111
570.00,0.0111
569.00,0.0110
568.00,0.0109
567.00,0.0107
566.00,0.0105
565.00,0.0105
564.00,0.0106
563.00,0.0106
562.00,0.0105
561.00,0.0103
560.00,0.0102
559.00,0.0102
558.00,0.0104
557.00,0.0105
556.00,0.0105
555.00,0.0105
554.00,0.0105
553.00,0.0108
552.00,0.0112
551.00,0.0116
550.00,0.0118
549.00,0.0119
548.00,0.0120
547.00,0.0122
546.00,0.0124
545.00,0.0125
544.00,0.0125
543.00,0.0124
542.00,0.0122
541.00,0.0123
540.00,0.0127
539.00,0.0132
538.00,0.0135
537.00,0.0137
536.00,0.0138
535.00,0.0141
534.00,0.0146
533.00,0.0149
532.00,0.0148
531.00,0.0143
530.00,0.0137
529.00,0.0131
528.00,0.0127
527.00,0.0125
526.00,0.0124
525.00,0.0123
524.00,0.0121
523.00,0.0119
522.00,0.0120
521.00,0.0121
520.00,0.0123
519.00,0.0123
518.00,0.0122
517.00,0.0120
516.00,0.0116
515.00,0.0112
514.00,0.0107
513.00,0.0103
512.00,0.0100
511.00,0.0098
510.00,0.0098
509.00,0.0099
508.00,0.0102
507.00,0.0107
506.00,0.0111
505.00,0.0115
504.00,0.0119
503.00,0.0125
502.00,0.0127
501.00,0.0123
500.00,0.0111
499.00,0.0099
498.00,0.0091
497.00,0.0091
496.00,0.0096
495.00,0.0103
494.00,0.0110
493.00,0.0115
492.00,0.0119
491.00,0.0122
490.00,0.0121
489.00,0.0117
488.00,0.0114
487.00,0.0113
486.00,0.0110
485.00,0.0104
484.00,0.0099
483.00,0.0100
482.00,0.0108
481.00,0.0116
480.00,0.0122
479.00,0.0124
478.00,0.0123
477.00,0.0120
476.00,0.0119
475.00,0.0124
474.00,0.0133
473.00,0.0140
472.00,0.0144
471.00,0.0146
470.00,0.0150
469.00,0.0156
468.00,0.0165
467.00,0.0175
466.00,0.0184
465.00,0.0189
464.00,0.0195
463.00,0.0205
462.00,0.0218
461.00,0.0228
460.00,0.0229
459.00,0.0226
458.00,0.0223
457.00,0.0218
456.00,0.0211
455.00,0.0204
454.00,0.0199
453.00,0.0193
452.00,0.0187
451.00,0.0185
450.00,0.0184
