Created as New Dataset,Sample 214 By Administrator Date Wednesday, September 03 2025
cm-1,A
4000.00,0.0009
3999.00,0.0009
3998.00,0.0009
3997.00,0.0009
3996.00,0.0009
3995.00,0.0009
3994.00,0.0009
3993.00,0.0009
3992.00,0.0009
3991.00,0.0009
3990.00,0.0009
3989.00,0.0008
3988.00,0.0008
3987.00,0.0008
3986.00,0.0007
3985.00,0.0007
3984.00,0.0007
3983.00,0.0007
3982.00,0.0007
3981.00,0.0007
3980.00,0.0007
3979.00,0.0007
3978.00,0.0007
3977.00,0.0007
3976.00,0.0007
3975.00,0.0007
3974.00,0.0007
3973.00,0.0007
3972.00,0.0007
3971.00,0.0007
3970.00,0.0007
3969.00,0.0007
3968.00,0.0007
3967.00,0.0007
3966.00,0.0007
3965.00,0.0007
3964.00,0.0007
3963.00,0.0007
3962.00,0.0007
3961.00,0.0007
3960.00,0.0007
3959.00,0.0007
3958.00,0.0007
3957.00,0.0006
3956.00,0.0006
3955.00,0.0006
3954.00,0.0006
3953.00,0.0006
3952.00,0.0006
3951.00,0.0006
3950.00,0.0006
3949.00,0.0007
3948.00,0.0007
3947.00,0.0006
3946.00,0.0006
3945.00,0.0006
3944.00,0.0006
3943.00,0.0006
3942.00,0.0006
3941.00,0.0006
3940.00,0.0006
3939.00,0.0007
3938.00,0.0007
3937.00,0.0008
3936.00,0.0008
3935.00,0.0008
3934.00,0.0008
3933.00,0.0008
3932.00,0.0008
3931.00,0.0008
3930.00,0.0008
3929.00,0.0008
3928.00,0.0008
3927.00,0.0008
3926.00,0.0008
3925.00,0.0008
3924.00,0.0007
3923.00,0.0007
3922.00,0.0007
3921.00,0.0007
3920.00,0.0007
3919.00,0.0007
3918.00,0.0007
3917.00,0.0007
3916.00,0.0007
3915.00,0.0007
3914.00,0.0008
3913.00,0.0008
3912.00,0.0008
3911.00,0.0008
3910.00,0.0008
3909.00,0.0007
3908.00,0.0007
3907.00,0.0007
3906.00,0.0007
3905.00,0.0008
3904.00,0.0008
3903.00,0.0008
3902.00,0.0008
3901.00,0.0008
3900.00,0.0007
3899.00,0.0007
3898.00,0.0007
3897.00,0.0008
3896.00,0.0008
3895.00,0.0008
3894.00,0.0008
3893.00,0.0008
3892.00,0.0007
3891.00,0.0007
3890.00,0.0006
3889.00,0.0006
3888.00,0.0006
3887.00,0.0006
3886.00,0.0007
3885.00,0.0007
3884.00,0.0007
3883.00,0.0007
3882.00,0.0007
3881.00,0.0007
3880.00,0.0007
3879.00,0.0007
3878.00,0.0007
3877.00,0.0007
3876.00,0.0007
3875.00,0.0006
3874.00,0.0006
3873.00,0.0007
3872.00,0.0007
3871.00,0.0007
3870.00,0.0007
3869.00,0.0006
3868.00,0.0006
3867.00,0.0006
3866.00,0.0006
3865.00,0.0006
3864.00,0.0007
3863.00,0.0007
3862.00,0.0007
3861.00,0.0007
3860.00,0.0007
3859.00,0.0007
3858.00,0.0006
3857.00,0.0006
3856.00,0.0006
3855.00,0.0006
3854.00,0.0006
3853.00,0.0006
3852.00,0.0006
3851.00,0.0006
3850.00,0.0006
3849.00,0.0006
3848.00,0.0006
3847.00,0.0006
3846.00,0.0006
3845.00,0.0006
3844.00,0.0006
3843.00,0.0006
3842.00,0.0006
3841.00,0.0006
3840.00,0.0006
3839.00,0.0006
3838.00,0.0006
3837.00,0.0007
3836.00,0.0007
3835.00,0.0006
3834.00,0.0006
3833.00,0.0006
3832.00,0.0006
3831.00,0.0006
3830.00,0.0007
3829.00,0.0007
3828.00,0.0007
3827.00,0.0007
3826.00,0.0007
3825.00,0.0007
3824.00,0.0008
3823.00,0.0008
3822.00,0.0007
3821.00,0.0007
3820.00,0.0007
3819.00,0.0007
3818.00,0.0006
3817.00,0.0006
3816.00,0.0006
3815.00,0.0006
3814.00,0.0006
3813.00,0.0006
3812.00,0.0006
3811.00,0.0007
3810.00,0.0007
3809.00,0.0007
3808.00,0.0007
3807.00,0.0007
3806.00,0.0007
3805.00,0.0007
3804.00,0.0006
3803.00,0.0006
3802.00,0.0006
3801.00,0.0006
3800.00,0.0007
3799.00,0.0007
3798.00,0.0007
3797.00,0.0007
3796.00,0.0007
3795.00,0.0007
3794.00,0.0007
3793.00,0.0007
3792.00,0.0006
3791.00,0.0006
3790.00,0.0006
3789.00,0.0006
3788.00,0.0006
3787.00,0.0007
3786.00,0.0007
3785.00,0.0006
3784.00,0.0006
3783.00,0.0006
3782.00,0.0006
3781.00,0.0007
3780.00,0.0007
3779.00,0.0007
3778.00,0.0007
3777.00,0.0007
3776.00,0.0008
3775.00,0.0008
3774.00,0.0008
3773.00,0.0007
3772.00,0.0007
3771.00,0.0007
3770.00,0.0007
3769.00,0.0007
3768.00,0.0007
3767.00,0.0007
3766.00,0.0007
3765.00,0.0008
3764.00,0.0008
3763.00,0.0008
3762.00,0.0008
3761.00,0.0008
3760.00,0.0008
3759.00,0.0008
3758.00,0.0008
3757.00,0.0008
3756.00,0.0008
3755.00,0.0008
3754.00,0.0008
3753.00,0.0008
3752.00,0.0008
3751.00,0.0008
3750.00,0.0008
3749.00,0.0007
3748.00,0.0006
3747.00,0.0006
3746.00,0.0005
3745.00,0.0005
3744.00,0.0006
3743.00,0.0006
3742.00,0.0007
3741.00,0.0007
3740.00,0.0007
3739.00,0.0007
3738.00,0.0007
3737.00,0.0007
3736.00,0.0007
3735.00,0.0007
3734.00,0.0007
3733.00,0.0007
3732.00,0.0007
3731.00,0.0007
3730.00,0.0007
3729.00,0.0007
3728.00,0.0007
3727.00,0.0007
3726.00,0.0007
3725.00,0.0006
3724.00,0.0006
3723.00,0.0005
3722.00,0.0005
3721.00,0.0005
3720.00,0.0005
3719.00,0.0005
3718.00,0.0005
3717.00,0.0006
3716.00,0.0006
3715.00,0.0006
3714.00,0.0006
3713.00,0.0005
3712.00,0.0005
3711.00,0.0005
3710.00,0.0005
3709.00,0.0005
3708.00,0.0005
3707.00,0.0005
3706.00,0.0005
3705.00,0.0006
3704.00,0.0006
3703.00,0.0006
3702.00,0.0006
3701.00,0.0006
3700.00,0.0006
3699.00,0.0006
3698.00,0.0006
3697.00,0.0006
3696.00,0.0006
3695.00,0.0007
3694.00,0.0007
3693.00,0.0007
3692.00,0.0007
3691.00,0.0007
3690.00,0.0006
3689.00,0.0006
3688.00,0.0006
3687.00,0.0006
3686.00,0.0006
3685.00,0.0006
3684.00,0.0006
3683.00,0.0006
3682.00,0.0006
3681.00,0.0006
3680.00,0.0007
3679.00,0.0007
3678.00,0.0007
3677.00,0.0007
3676.00,0.0006
3675.00,0.0006
3674.00,0.0005
3673.00,0.0005
3672.00,0.0005
3671.00,0.0006
3670.00,0.0006
3669.00,0.0006
3668.00,0.0006
3667.00,0.0006
3666.00,0.0006
3665.00,0.0006
3664.00,0.0006
3663.00,0.0006
3662.00,0.0006
3661.00,0.0006
3660.00,0.0006
3659.00,0.0007
3658.00,0.0007
3657.00,0.0006
3656.00,0.0006
3655.00,0.0007
3654.00,0.0007
3653.00,0.0007
3652.00,0.0007
3651.00,0.0008
3650.00,0.0008
3649.00,0.0008
3648.00,0.0007
3647.00,0.0007
3646.00,0.0007
3645.00,0.0006
3644.00,0.0006
3643.00,0.0006
3642.00,0.0006
3641.00,0.0007
3640.00,0.0007
3639.00,0.0007
3638.00,0.0007
3637.00,0.0007
3636.00,0.0007
3635.00,0.0007
3634.00,0.0007
3633.00,0.0007
3632.00,0.0007
3631.00,0.0007
3630.00,0.0008
3629.00,0.0008
3628.00,0.0008
3627.00,0.0008
3626.00,0.0008
3625.00,0.0008
3624.00,0.0008
3623.00,0.0009
3622.00,0.0009
3621.00,0.0009
3620.00,0.0009
3619.00,0.0009
3618.00,0.0009
3617.00,0.0010
3616.00,0.0010
3615.00,0.0010
3614.00,0.0010
3613.00,0.0011
3612.00,0.0011
3611.00,0.0012
3610.00,0.0012
3609.00,0.0011
3608.00,0.0011
3607.00,0.0010
3606.00,0.0010
3605.00,0.0010
3604.00,0.0011
3603.00,0.0011
3602.00,0.0011
3601.00,0.0011
3600.00,0.0010
3599.00,0.0010
3598.00,0.0010
3597.00,0.0010
3596.00,0.0010
3595.00,0.0011
3594.00,0.0011
3593.00,0.0011
3592.00,0.0011
3591.00,0.0011
3590.00,0.0012
3589.00,0.0012
3588.00,0.0012
3587.00,0.0012
3586.00,0.0012
3585.00,0.0013
3584.00,0.0013
3583.00,0.0014
3582.00,0.0014
3581.00,0.0014
3580.00,0.0014
3579.00,0.0014
3578.00,0.0014
3577.00,0.0014
3576.00,0.0015
3575.00,0.0015
3574.00,0.0015
3573.00,0.0015
3572.00,0.0015
3571.00,0.0015
3570.00,0.0015
3569.00,0.0015
3568.00,0.0015
3567.00,0.0015
3566.00,0.0015
3565.00,0.0016
3564.00,0.0016
3563.00,0.0016
3562.00,0.0017
3561.00,0.0017
3560.00,0.0017
3559.00,0.0017
3558.00,0.0017
3557.00,0.0018
3556.00,0.0018
3555.00,0.0018
3554.00,0.0019
3553.00,0.0019
3552.00,0.0020
3551.00,0.0020
3550.00,0.0020
3549.00,0.0021
3548.00,0.0021
3547.00,0.0021
3546.00,0.0021
3545.00,0.0021
3544.00,0.0021
3543.00,0.0021
3542.00,0.0021
3541.00,0.0022
3540.00,0.0022
3539.00,0.0022
3538.00,0.0022
3537.00,0.0022
3536.00,0.0022
3535.00,0.0022
3534.00,0.0022
3533.00,0.0023
3532.00,0.0023
3531.00,0.0023
3530.00,0.0023
3529.00,0.0024
3528.00,0.0024
3527.00,0.0025
3526.00,0.0025
3525.00,0.0025
3524.00,0.0025
3523.00,0.0025
3522.00,0.0025
3521.00,0.0025
3520.00,0.0025
3519.00,0.0025
3518.00,0.0025
3517.00,0.0025
3516.00,0.0025
3515.00,0.0025
3514.00,0.0026
3513.00,0.0026
3512.00,0.0027
3511.00,0.0027
3510.00,0.0028
3509.00,0.0028
3508.00,0.0028
3507.00,0.0028
3506.00,0.0029
3505.00,0.0029
3504.00,0.0029
3503.00,0.0029
3502.00,0.0029
3501.00,0.0029
3500.00,0.0030
3499.00,0.0030
3498.00,0.0030
3497.00,0.0030
3496.00,0.0030
3495.00,0.0030
3494.00,0.0030
3493.00,0.0030
3492.00,0.0030
3491.00,0.0030
3490.00,0.0031
3489.00,0.0031
3488.00,0.0032
3487.00,0.0032
3486.00,0.0032
3485.00,0.0032
3484.00,0.0033
3483.00,0.0033
3482.00,0.0033
3481.00,0.0034
3480.00,0.0034
3479.00,0.0034
3478.00,0.0033
3477.00,0.0033
3476.00,0.0034
3475.00,0.0034
3474.00,0.0035
3473.00,0.0035
3472.00,0.0036
3471.00,0.0036
3470.00,0.0036
3469.00,0.0036
3468.00,0.0036
3467.00,0.0036
3466.00,0.0036
3465.00,0.0037
3464.00,0.0037
3463.00,0.0038
3462.00,0.0038
3461.00,0.0038
3460.00,0.0039
3459.00,0.0038
3458.00,0.0038
3457.00,0.0038
3456.00,0.0038
3455.00,0.0038
3454.00,0.0038
3453.00,0.0038
3452.00,0.0038
3451.00,0.0039
3450.00,0.0039
3449.00,0.0039
3448.00,0.0040
3447.00,0.0040
3446.00,0.0040
3445.00,0.0040
3444.00,0.0041
3443.00,0.0041
3442.00,0.0042
3441.00,0.0042
3440.00,0.0043
3439.00,0.0043
3438.00,0.0043
3437.00,0.0043
3436.00,0.0042
3435.00,0.0042
3434.00,0.0042
3433.00,0.0042
3432.00,0.0042
3431.00,0.0042
3430.00,0.0042
3429.00,0.0042
3428.00,0.0043
3427.00,0.0043
3426.00,0.0043
3425.00,0.0044
3424.00,0.0044
3423.00,0.0044
3422.00,0.0044
3421.00,0.0044
3420.00,0.0044
3419.00,0.0044
3418.00,0.0044
3417.00,0.0045
3416.00,0.0045
3415.00,0.0046
3414.00,0.0046
3413.00,0.0046
3412.00,0.0046
3411.00,0.0046
3410.00,0.0046
3409.00,0.0046
3408.00,0.0046
3407.00,0.0047
3406.00,0.0047
3405.00,0.0046
3404.00,0.0046
3403.00,0.0046
3402.00,0.0046
3401.00,0.0047
3400.00,0.0047
3399.00,0.0047
3398.00,0.0047
3397.00,0.0047
3396.00,0.0047
3395.00,0.0047
3394.00,0.0047
3393.00,0.0047
3392.00,0.0047
3391.00,0.0047
3390.00,0.0047
3389.00,0.0048
3388.00,0.0048
3387.00,0.0048
3386.00,0.0049
3385.00,0.0049
3384.00,0.0048
3383.00,0.0048
3382.00,0.0047
3381.00,0.0047
3380.00,0.0047
3379.00,0.0047
3378.00,0.0048
3377.00,0.0047
3376.00,0.0047
3375.00,0.0047
3374.00,0.0047
3373.00,0.0047
3372.00,0.0047
3371.00,0.0047
3370.00,0.0047
3369.00,0.0047
3368.00,0.0047
3367.00,0.0047
3366.00,0.0048
3365.00,0.0048
3364.00,0.0048
3363.00,0.0048
3362.00,0.0048
3361.00,0.0049
3360.00,0.0049
3359.00,0.0049
3358.00,0.0049
3357.00,0.0049
3356.00,0.0048
3355.00,0.0048
3354.00,0.0048
3353.00,0.0048
3352.00,0.0048
3351.00,0.0048
3350.00,0.0048
3349.00,0.0048
3348.00,0.0047
3347.00,0.0047
3346.00,0.0047
3345.00,0.0047
3344.00,0.0047
3343.00,0.0047
3342.00,0.0047
3341.00,0.0047
3340.00,0.0047
3339.00,0.0047
3338.00,0.0047
3337.00,0.0047
3336.00,0.0047
3335.00,0.0047
3334.00,0.0047
3333.00,0.0046
3332.00,0.0046
3331.00,0.0046
3330.00,0.0045
3329.00,0.0045
3328.00,0.0045
3327.00,0.0045
3326.00,0.0046
3325.00,0.0046
3324.00,0.0045
3323.00,0.0045
3322.00,0.0045
3321.00,0.0044
3320.00,0.0044
3319.00,0.0044
3318.00,0.0044
3317.00,0.0044
3316.00,0.0044
3315.00,0.0044
3314.00,0.0044
3313.00,0.0044
3312.00,0.0045
3311.00,0.0045
3310.00,0.0045
3309.00,0.0045
3308.00,0.0045
3307.00,0.0045
3306.00,0.0045
3305.00,0.0045
3304.00,0.0045
3303.00,0.0045
3302.00,0.0045
3301.00,0.0045
3300.00,0.0045
3299.00,0.0045
3298.00,0.0044
3297.00,0.0044
3296.00,0.0043
3295.00,0.0043
3294.00,0.0043
3293.00,0.0043
3292.00,0.0043
3291.00,0.0043
3290.00,0.0042
3289.00,0.0042
3288.00,0.0042
3287.00,0.0042
3286.00,0.0042
3285.00,0.0042
3284.00,0.0042
3283.00,0.0042
3282.00,0.0042
3281.00,0.0042
3280.00,0.0041
3279.00,0.0041
3278.00,0.0041
3277.00,0.0040
3276.00,0.0040
3275.00,0.0039
3274.00,0.0039
3273.00,0.0039
3272.00,0.0039
3271.00,0.0039
3270.00,0.0039
3269.00,0.0039
3268.00,0.0039
3267.00,0.0040
3266.00,0.0040
3265.00,0.0039
3264.00,0.0039
3263.00,0.0039
3262.00,0.0039
3261.00,0.0038
3260.00,0.0037
3259.00,0.0037
3258.00,0.0036
3257.00,0.0036
3256.00,0.0036
3255.00,0.0036
3254.00,0.0037
3253.00,0.0037
3252.00,0.0036
3251.00,0.0036
3250.00,0.0036
3249.00,0.0036
3248.00,0.0036
3247.00,0.0035
3246.00,0.0035
3245.00,0.0035
3244.00,0.0036
3243.00,0.0036
3242.00,0.0035
3241.00,0.0035
3240.00,0.0035
3239.00,0.0035
3238.00,0.0035
3237.00,0.0036
3236.00,0.0036
3235.00,0.0036
3234.00,0.0036
3233.00,0.0036
3232.00,0.0036
3231.00,0.0036
3230.00,0.0036
3229.00,0.0036
3228.00,0.0036
3227.00,0.0036
3226.00,0.0036
3225.00,0.0036
3224.00,0.0037
3223.00,0.0037
3222.00,0.0037
3221.00,0.0037
3220.00,0.0038
3219.00,0.0038
3218.00,0.0038
3217.00,0.0038
3216.00,0.0038
3215.00,0.0038
3214.00,0.0038
3213.00,0.0038
3212.00,0.0039
3211.00,0.0039
3210.00,0.0039
3209.00,0.0039
3208.00,0.0039
3207.00,0.0039
3206.00,0.0038
3205.00,0.0038
3204.00,0.0039
3203.00,0.0039
3202.00,0.0039
3201.00,0.0039
3200.00,0.0039
3199.00,0.0039
3198.00,0.0039
3197.00,0.0039
3196.00,0.0039
3195.00,0.0038
3194.00,0.0039
3193.00,0.0039
3192.00,0.0039
3191.00,0.0038
3190.00,0.0038
3189.00,0.0038
3188.00,0.0037
3187.00,0.0038
3186.00,0.0038
3185.00,0.0038
3184.00,0.0038
3183.00,0.0038
3182.00,0.0037
3181.00,0.0037
3180.00,0.0037
3179.00,0.0036
3178.00,0.0036
3177.00,0.0036
3176.00,0.0036
3175.00,0.0036
3174.00,0.0036
3173.00,0.0036
3172.00,0.0035
3171.00,0.0035
3170.00,0.0035
3169.00,0.0035
3168.00,0.0034
3167.00,0.0034
3166.00,0.0034
3165.00,0.0035
3164.00,0.0035
3163.00,0.0035
3162.00,0.0035
3161.00,0.0034
3160.00,0.0034
3159.00,0.0034
3158.00,0.0034
3157.00,0.0034
3156.00,0.0034
3155.00,0.0034
3154.00,0.0034
3153.00,0.0034
3152.00,0.0034
3151.00,0.0034
3150.00,0.0034
3149.00,0.0035
3148.00,0.0035
3147.00,0.0034
3146.00,0.0034
3145.00,0.0034
3144.00,0.0033
3143.00,0.0033
3142.00,0.0033
3141.00,0.0033
3140.00,0.0033
3139.00,0.0033
3138.00,0.0033
3137.00,0.0033
3136.00,0.0032
3135.00,0.0032
3134.00,0.0032
3133.00,0.0032
3132.00,0.0032
3131.00,0.0032
3130.00,0.0032
3129.00,0.0031
3128.00,0.0031
3127.00,0.0031
3126.00,0.0031
3125.00,0.0030
3124.00,0.0030
3123.00,0.0030
3122.00,0.0029
3121.00,0.0029
3120.00,0.0028
3119.00,0.0028
3118.00,0.0028
3117.00,0.0028
3116.00,0.0028
3115.00,0.0028
3114.00,0.0028
3113.00,0.0027
3112.00,0.0027
3111.00,0.0027
3110.00,0.0027
3109.00,0.0028
3108.00,0.0028
3107.00,0.0028
3106.00,0.0029
3105.00,0.0029
3104.00,0.0029
3103.00,0.0028
3102.00,0.0028
3101.00,0.0028
3100.00,0.0027
3099.00,0.0027
3098.00,0.0027
3097.00,0.0027
3096.00,0.0027
3095.00,0.0028
3094.00,0.0028
3093.00,0.0028
3092.00,0.0027
3091.00,0.0027
3090.00,0.0026
3089.00,0.0026
3088.00,0.0026
3087.00,0.0026
3086.00,0.0026
3085.00,0.0026
3084.00,0.0026
3083.00,0.0026
3082.00,0.0026
3081.00,0.0026
3080.00,0.0026
3079.00,0.0026
3078.00,0.0027
3077.00,0.0027
3076.00,0.0027
3075.00,0.0027
3074.00,0.0028
3073.00,0.0028
3072.00,0.0027
3071.00,0.0027
3070.00,0.0027
3069.00,0.0027
3068.00,0.0028
3067.00,0.0028
3066.00,0.0028
3065.00,0.0029
3064.00,0.0029
3063.00,0.0029
3062.00,0.0030
3061.00,0.0030
3060.00,0.0030
3059.00,0.0029
3058.00,0.0029
3057.00,0.0029
3056.00,0.0030
3055.00,0.0030
3054.00,0.0030
3053.00,0.0030
3052.00,0.0030
3051.00,0.0030
3050.00,0.0031
3049.00,0.0031
3048.00,0.0031
3047.00,0.0031
3046.00,0.0032
3045.00,0.0032
3044.00,0.0032
3043.00,0.0033
3042.00,0.0033
3041.00,0.0033
3040.00,0.0033
3039.00,0.0034
3038.00,0.0034
3037.00,0.0034
3036.00,0.0035
3035.00,0.0035
3034.00,0.0036
3033.00,0.0036
3032.00,0.0036
3031.00,0.0036
3030.00,0.0036
3029.00,0.0037
3028.00,0.0037
3027.00,0.0037
3026.00,0.0038
3025.00,0.0039
3024.00,0.0039
3023.00,0.0040
3022.00,0.0040
3021.00,0.0041
3020.00,0.0042
3019.00,0.0043
3018.00,0.0044
3017.00,0.0046
3016.00,0.0046
3015.00,0.0047
3014.00,0.0048
3013.00,0.0048
3012.00,0.0050
3011.00,0.0051
3010.00,0.0052
3009.00,0.0053
3008.00,0.0055
3007.00,0.0056
3006.00,0.0058
3005.00,0.0059
3004.00,0.0061
3003.00,0.0063
3002.00,0.0065
3001.00,0.0067
3000.00,0.0069
2999.00,0.0072
2998.00,0.0075
2997.00,0.0078
2996.00,0.0082
2995.00,0.0086
2994.00,0.0090
2993.00,0.0094
2992.00,0.0099
2991.00,0.0105
2990.00,0.0110
2989.00,0.0117
2988.00,0.0124
2987.00,0.0132
2986.00,0.0141
2985.00,0.0151
2984.00,0.0162
2983.00,0.0175
2982.00,0.0189
2981.00,0.0205
2980.00,0.0223
2979.00,0.0244
2978.00,0.0268
2977.00,0.0295
2976.00,0.0325
2975.00,0.0360
2974.00,0.0399
2973.00,0.0444
2972.00,0.0496
2971.00,0.0553
2970.00,0.0617
2969.00,0.0687
2968.00,0.0763
2967.00,0.0842
2966.00,0.0924
2965.00,0.1007
2964.00,0.1086
2963.00,0.1159
2962.00,0.1222
2961.00,0.1274
2960.00,0.1316
2959.00,0.1355
2958.00,0.1394
2957.00,0.1441
2956.00,0.1499
2955.00,0.1570
2954.00,0.1651
2953.00,0.1735
2952.00,0.1812
2951.00,0.1867
2950.00,0.1890
2949.00,0.1871
2948.00,0.1810
2947.00,0.1713
2946.00,0.1592
2945.00,0.1464
2944.00,0.1342
2943.00,0.1237
2942.00,0.1155
2941.00,0.1099
2940.00,0.1067
2939.00,0.1058
2938.00,0.1070
2937.00,0.1099
2936.00,0.1146
2935.00,0.1208
2934.00,0.1284
2933.00,0.1373
2932.00,0.1473
2931.00,0.1584
2930.00,0.1702
2929.00,0.1824
2928.00,0.1948
2927.00,0.2070
2926.00,0.2190
2925.00,0.2307
2924.00,0.2423
2923.00,0.2539
2922.00,0.2656
2921.00,0.2769
2920.00,0.2871
2919.00,0.2950
2918.00,0.2993
2917.00,0.2989
2916.00,0.2938
2915.00,0.2845
2914.00,0.2725
2913.00,0.2593
2912.00,0.2463
2911.00,0.2342
2910.00,0.2235
2909.00,0.2140
2908.00,0.2053
2907.00,0.1973
2906.00,0.1896
2905.00,0.1820
2904.00,0.1746
2903.00,0.1672
2902.00,0.1601
2901.00,0.1532
2900.00,0.1466
2899.00,0.1404
2898.00,0.1346
2897.00,0.1292
2896.00,0.1245
2895.00,0.1203
2894.00,0.1167
2893.00,0.1138
2892.00,0.1115
2891.00,0.1098
2890.00,0.1087
2889.00,0.1080
2888.00,0.1076
2887.00,0.1076
2886.00,0.1080
2885.00,0.1087
2884.00,0.1099
2883.00,0.1116
2882.00,0.1137
2881.00,0.1162
2880.00,0.1187
2879.00,0.1208
2878.00,0.1222
2877.00,0.1227
2876.00,0.1224
2875.00,0.1217
2874.00,0.1211
2873.00,0.1211
2872.00,0.1219
2871.00,0.1234
2870.00,0.1253
2869.00,0.1273
2868.00,0.1285
2867.00,0.1282
2866.00,0.1258
2865.00,0.1210
2864.00,0.1143
2863.00,0.1065
2862.00,0.0988
2861.00,0.0920
2860.00,0.0868
2859.00,0.0832
2858.00,0.0811
2857.00,0.0805
2856.00,0.0810
2855.00,0.0824
2854.00,0.0845
2853.00,0.0869
2852.00,0.0894
2851.00,0.0916
2850.00,0.0931
2849.00,0.0940
2848.00,0.0944
2847.00,0.0950
2846.00,0.0963
2845.00,0.0987
2844.00,0.1023
2843.00,0.1068
2842.00,0.1117
2841.00,0.1164
2840.00,0.1200
2839.00,0.1218
2838.00,0.1211
2837.00,0.1175
2836.00,0.1110
2835.00,0.1022
2834.00,0.0919
2833.00,0.0813
2832.00,0.0712
2831.00,0.0622
2830.00,0.0546
2829.00,0.0483
2828.00,0.0432
2827.00,0.0391
2826.00,0.0358
2825.00,0.0330
2824.00,0.0307
2823.00,0.0288
2822.00,0.0271
2821.00,0.0256
2820.00,0.0244
2819.00,0.0233
2818.00,0.0223
2817.00,0.0215
2816.00,0.0208
2815.00,0.0201
2814.00,0.0195
2813.00,0.0189
2812.00,0.0183
2811.00,0.0178
2810.00,0.0172
2809.00,0.0166
2808.00,0.0160
2807.00,0.0154
2806.00,0.0147
2805.00,0.0140
2804.00,0.0134
2803.00,0.0128
2802.00,0.0123
2801.00,0.0119
2800.00,0.0115
2799.00,0.0112
2798.00,0.0109
2797.00,0.0106
2796.00,0.0104
2795.00,0.0101
2794.00,0.0099
2793.00,0.0096
2792.00,0.0093
2791.00,0.0090
2790.00,0.0087
2789.00,0.0084
2788.00,0.0081
2787.00,0.0078
2786.00,0.0076
2785.00,0.0073
2784.00,0.0071
2783.00,0.0068
2782.00,0.0066
2781.00,0.0064
2780.00,0.0063
2779.00,0.0062
2778.00,0.0060
2777.00,0.0059
2776.00,0.0058
2775.00,0.0057
2774.00,0.0057
2773.00,0.0056
2772.00,0.0056
2771.00,0.0055
2770.00,0.0055
2769.00,0.0054
2768.00,0.0054
2767.00,0.0053
2766.00,0.0053
2765.00,0.0053
2764.00,0.0053
2763.00,0.0052
2762.00,0.0052
2761.00,0.0052
2760.00,0.0051
2759.00,0.0051
2758.00,0.0050
2757.00,0.0050
2756.00,0.0050
2755.00,0.0049
2754.00,0.0050
2753.00,0.0050
2752.00,0.0050
2751.00,0.0050
2750.00,0.0050
2749.00,0.0050
2748.00,0.0050
2747.00,0.0050
2746.00,0.0050
2745.00,0.0050
2744.00,0.0051
2743.00,0.0051
2742.00,0.0052
2741.00,0.0053
2740.00,0.0055
2739.00,0.0057
2738.00,0.0058
2737.00,0.0060
2736.00,0.0061
2735.00,0.0062
2734.00,0.0064
2733.00,0.0065
2732.00,0.0067
2731.00,0.0069
2730.00,0.0070
2729.00,0.0073
2728.00,0.0076
2727.00,0.0079
2726.00,0.0082
2725.00,0.0084
2724.00,0.0086
2723.00,0.0086
2722.00,0.0085
2721.00,0.0083
2720.00,0.0080
2719.00,0.0077
2718.00,0.0074
2717.00,0.0071
2716.00,0.0068
2715.00,0.0066
2714.00,0.0063
2713.00,0.0061
2712.00,0.0059
2711.00,0.0056
2710.00,0.0055
2709.00,0.0053
2708.00,0.0051
2707.00,0.0050
2706.00,0.0049
2705.00,0.0048
2704.00,0.0047
2703.00,0.0046
2702.00,0.0045
2701.00,0.0044
2700.00,0.0043
2699.00,0.0043
2698.00,0.0043
2697.00,0.0043
2696.00,0.0043
2695.00,0.0043
2694.00,0.0043
2693.00,0.0044
2692.00,0.0043
2691.00,0.0043
2690.00,0.0043
2689.00,0.0043
2688.00,0.0043
2687.00,0.0042
2686.00,0.0042
2685.00,0.0043
2684.00,0.0043
2683.00,0.0043
2682.00,0.0044
2681.00,0.0044
2680.00,0.0044
2679.00,0.0044
2678.00,0.0044
2677.00,0.0044
2676.00,0.0044
2675.00,0.0044
2674.00,0.0044
2673.00,0.0043
2672.00,0.0043
2671.00,0.0043
2670.00,0.0043
2669.00,0.0043
2668.00,0.0043
2667.00,0.0043
2666.00,0.0044
2665.00,0.0044
2664.00,0.0044
2663.00,0.0045
2662.00,0.0045
2661.00,0.0046
2660.00,0.0046
2659.00,0.0047
2658.00,0.0047
2657.00,0.0046
2656.00,0.0046
2655.00,0.0045
2654.00,0.0044
2653.00,0.0044
2652.00,0.0044
2651.00,0.0043
2650.00,0.0043
2649.00,0.0042
2648.00,0.0042
2647.00,0.0041
2646.00,0.0041
2645.00,0.0040
2644.00,0.0040
2643.00,0.0039
2642.00,0.0039
2641.00,0.0038
2640.00,0.0038
2639.00,0.0037
2638.00,0.0037
2637.00,0.0037
2636.00,0.0037
2635.00,0.0037
2634.00,0.0038
2633.00,0.0038
2632.00,0.0038
2631.00,0.0038
2630.00,0.0038
2629.00,0.0039
2628.00,0.0039
2627.00,0.0039
2626.00,0.0039
2625.00,0.0039
2624.00,0.0039
2623.00,0.0039
2622.00,0.0039
2621.00,0.0039
2620.00,0.0039
2619.00,0.0039
2618.00,0.0039
2617.00,0.0039
2616.00,0.0038
2615.00,0.0038
2614.00,0.0038
2613.00,0.0038
2612.00,0.0038
2611.00,0.0037
2610.00,0.0037
2609.00,0.0035
2608.00,0.0034
2607.00,0.0033
2606.00,0.0033
2605.00,0.0032
2604.00,0.0031
2603.00,0.0031
2602.00,0.0030
2601.00,0.0030
2600.00,0.0030
2599.00,0.0030
2598.00,0.0030
2597.00,0.0030
2596.00,0.0031
2595.00,0.0031
2594.00,0.0032
2593.00,0.0032
2592.00,0.0032
2591.00,0.0032
2590.00,0.0032
2589.00,0.0033
2588.00,0.0034
2587.00,0.0035
2586.00,0.0037
2585.00,0.0038
2584.00,0.0039
2583.00,0.0039
2582.00,0.0039
2581.00,0.0038
2580.00,0.0037
2579.00,0.0036
2578.00,0.0034
2577.00,0.0033
2576.00,0.0032
2575.00,0.0031
2574.00,0.0030
2573.00,0.0029
2572.00,0.0028
2571.00,0.0027
2570.00,0.0026
2569.00,0.0025
2568.00,0.0024
2567.00,0.0023
2566.00,0.0023
2565.00,0.0023
2564.00,0.0022
2563.00,0.0022
2562.00,0.0022
2561.00,0.0021
2560.00,0.0021
2559.00,0.0021
2558.00,0.0021
2557.00,0.0021
2556.00,0.0022
2555.00,0.0022
2554.00,0.0022
2553.00,0.0021
2552.00,0.0020
2551.00,0.0019
2550.00,0.0018
2549.00,0.0018
2548.00,0.0018
2547.00,0.0017
2546.00,0.0017
2545.00,0.0017
2544.00,0.0016
2543.00,0.0015
2542.00,0.0015
2541.00,0.0015
2540.00,0.0015
2539.00,0.0015
2538.00,0.0014
2537.00,0.0014
2536.00,0.0014
2535.00,0.0013
2534.00,0.0013
2533.00,0.0013
2532.00,0.0013
2531.00,0.0013
2530.00,0.0013
2529.00,0.0013
2528.00,0.0013
2527.00,0.0013
2526.00,0.0013
2525.00,0.0012
2524.00,0.0012
2523.00,0.0012
2522.00,0.0011
2521.00,0.0011
2520.00,0.0011
2519.00,0.0010
2518.00,0.0010
2517.00,0.0010
2516.00,0.0010
2515.00,0.0009
2514.00,0.0009
2513.00,0.0009
2512.00,0.0008
2511.00,0.0008
2510.00,0.0008
2509.00,0.0008
2508.00,0.0009
2507.00,0.0009
2506.00,0.0008
2505.00,0.0008
2504.00,0.0008
2503.00,0.0008
2502.00,0.0008
2501.00,0.0008
2500.00,0.0009
2499.00,0.0009
2498.00,0.0010
2497.00,0.0010
2496.00,0.0010
2495.00,0.0009
2494.00,0.0009
2493.00,0.0009
2492.00,0.0009
2491.00,0.0009
2490.00,0.0009
2489.00,0.0008
2488.00,0.0007
2487.00,0.0007
2486.00,0.0007
2485.00,0.0007
2484.00,0.0008
2483.00,0.0008
2482.00,0.0008
2481.00,0.0008
2480.00,0.0008
2479.00,0.0008
2478.00,0.0008
2477.00,0.0008
2476.00,0.0008
2475.00,0.0008
2474.00,0.0008
2473.00,0.0008
2472.00,0.0008
2471.00,0.0009
2470.00,0.0009
2469.00,0.0009
2468.00,0.0009
2467.00,0.0009
2466.00,0.0009
2465.00,0.0009
2464.00,0.0009
2463.00,0.0009
2462.00,0.0008
2461.00,0.0009
2460.00,0.0009
2459.00,0.0009
2458.00,0.0009
2457.00,0.0010
2456.00,0.0010
2455.00,0.0010
2454.00,0.0010
2453.00,0.0010
2452.00,0.0010
2451.00,0.0010
2450.00,0.0010
2449.00,0.0011
2448.00,0.0011
2447.00,0.0010
2446.00,0.0009
2445.00,0.0009
2444.00,0.0008
2443.00,0.0008
2442.00,0.0008
2441.00,0.0008
2440.00,0.0009
2439.00,0.0009
2438.00,0.0010
2437.00,0.0010
2436.00,0.0011
2435.00,0.0011
2434.00,0.0011
2433.00,0.0011
2432.00,0.0011
2431.00,0.0010
2430.00,0.0010
2429.00,0.0009
2428.00,0.0010
2427.00,0.0010
2426.00,0.0011
2425.00,0.0011
2424.00,0.0011
2423.00,0.0010
2422.00,0.0010
2421.00,0.0010
2420.00,0.0009
2419.00,0.0009
2418.00,0.0009
2417.00,0.0008
2416.00,0.0008
2415.00,0.0008
2414.00,0.0009
2413.00,0.0009
2412.00,0.0008
2411.00,0.0008
2410.00,0.0008
2409.00,0.0008
2408.00,0.0008
2407.00,0.0008
2406.00,0.0007
2405.00,0.0007
2404.00,0.0007
2403.00,0.0007
2402.00,0.0007
2401.00,0.0007
2400.00,0.0007
2399.00,0.0007
2398.00,0.0007
2397.00,0.0007
2396.00,0.0007
2395.00,0.0007
2394.00,0.0006
2393.00,0.0005
2392.00,0.0005
2391.00,0.0004
2390.00,0.0004
2389.00,0.0005
2388.00,0.0005
2387.00,0.0005
2386.00,0.0005
2385.00,0.0005
2384.00,0.0005
2383.00,0.0005
2382.00,0.0005
2381.00,0.0005
2380.00,0.0004
2379.00,0.0004
2378.00,0.0003
2377.00,0.0003
2376.00,0.0003
2375.00,0.0004
2374.00,0.0005
2373.00,0.0005
2372.00,0.0005
2371.00,0.0004
2370.00,0.0003
2369.00,0.0003
2368.00,0.0003
2367.00,0.0003
2366.00,0.0003
2365.00,0.0003
2364.00,0.0004
2363.00,0.0004
2362.00,0.0005
2361.00,0.0006
2360.00,0.0007
2359.00,0.0007
2358.00,0.0008
2357.00,0.0008
2356.00,0.0007
2355.00,0.0007
2354.00,0.0006
2353.00,0.0006
2352.00,0.0006
2351.00,0.0007
2350.00,0.0008
2349.00,0.0007
2348.00,0.0007
2347.00,0.0007
2346.00,0.0007
2345.00,0.0008
2344.00,0.0009
2343.00,0.0009
2342.00,0.0009
2341.00,0.0009
2340.00,0.0010
2339.00,0.0009
2338.00,0.0010
2337.00,0.0010
2336.00,0.0010
2335.00,0.0010
2334.00,0.0009
2333.00,0.0008
2332.00,0.0008
2331.00,0.0008
2330.00,0.0008
2329.00,0.0009
2328.00,0.0010
2327.00,0.0013
2326.00,0.0016
2325.00,0.0019
2324.00,0.0021
2323.00,0.0021
2322.00,0.0019
2321.00,0.0017
2320.00,0.0015
2319.00,0.0014
2318.00,0.0013
2317.00,0.0012
2316.00,0.0012
2315.00,0.0011
2314.00,0.0011
2313.00,0.0011
2312.00,0.0011
2311.00,0.0011
2310.00,0.0011
2309.00,0.0011
2308.00,0.0011
2307.00,0.0011
2306.00,0.0011
2305.00,0.0011
2304.00,0.0012
2303.00,0.0012
2302.00,0.0012
2301.00,0.0012
2300.00,0.0012
2299.00,0.0012
2298.00,0.0012
2297.00,0.0012
2296.00,0.0012
2295.00,0.0013
2294.00,0.0014
2293.00,0.0015
2292.00,0.0016
2291.00,0.0017
2290.00,0.0017
2289.00,0.0018
2288.00,0.0018
2287.00,0.0019
2286.00,0.0019
2285.00,0.0019
2284.00,0.0018
2283.00,0.0018
2282.00,0.0017
2281.00,0.0016
2280.00,0.0014
2279.00,0.0013
2278.00,0.0012
2277.00,0.0013
2276.00,0.0012
2275.00,0.0012
2274.00,0.0011
2273.00,0.0011
2272.00,0.0010
2271.00,0.0010
2270.00,0.0010
2269.00,0.0012
2268.00,0.0013
2267.00,0.0014
2266.00,0.0014
2265.00,0.0014
2264.00,0.0013
2263.00,0.0012
2262.00,0.0012
2261.00,0.0013
2260.00,0.0013
2259.00,0.0013
2258.00,0.0013
2257.00,0.0012
2256.00,0.0011
2255.00,0.0010
2254.00,0.0009
2253.00,0.0008
2252.00,0.0008
2251.00,0.0008
2250.00,0.0008
2249.00,0.0009
2248.00,0.0009
2247.00,0.0008
2246.00,0.0007
2245.00,0.0006
2244.00,0.0005
2243.00,0.0004
2242.00,0.0004
2241.00,0.0003
2240.00,0.0004
2239.00,0.0004
2238.00,0.0006
2237.00,0.0008
2236.00,0.0009
2235.00,0.0009
2234.00,0.0008
2233.00,0.0006
2232.00,0.0004
2231.00,0.0002
2230.00,0.0002
2229.00,0.0004
2228.00,0.0006
2227.00,0.0008
2226.00,0.0009
2225.00,0.0010
2224.00,0.0011
2223.00,0.0010
2222.00,0.0010
2221.00,0.0009
2220.00,0.0009
2219.00,0.0009
2218.00,0.0008
2217.00,0.0008
2216.00,0.0007
2215.00,0.0006
2214.00,0.0005
2213.00,0.0004
2212.00,0.0003
2211.00,0.0003
2210.00,0.0003
2209.00,0.0003
2208.00,0.0003
2207.00,0.0003
2206.00,0.0005
2205.00,0.0007
2204.00,0.0009
2203.00,0.0009
2202.00,0.0007
2201.00,0.0006
2200.00,0.0005
2199.00,0.0006
2198.00,0.0006
2197.00,0.0006
2196.00,0.0005
2195.00,0.0005
2194.00,0.0006
2193.00,0.0006
2192.00,0.0007
2191.00,0.0008
2190.00,0.0010
2189.00,0.0012
2188.00,0.0012
2187.00,0.0012
2186.00,0.0012
2185.00,0.0012
2184.00,0.0011
2183.00,0.0008
2182.00,0.0004
2181.00,0.0003
2180.00,0.0005
2179.00,0.0007
2178.00,0.0009
2177.00,0.0008
2176.00,0.0006
2175.00,0.0004
2174.00,0.0002
2173.00,0.0002
2172.00,0.0004
2171.00,0.0007
2170.00,0.0010
2169.00,0.0013
2168.00,0.0016
2167.00,0.0017
2166.00,0.0016
2165.00,0.0015
2164.00,0.0014
2163.00,0.0013
2162.00,0.0011
2161.00,0.0005
2160.00,-0.0004
2159.00,-0.0016
2158.00,-0.0024
2157.00,-0.0027
2156.00,-0.0027
2155.00,-0.0025
2154.00,-0.0024
2153.00,-0.0022
2152.00,-0.0019
2151.00,-0.0015
2150.00,-0.0013
2149.00,-0.0012
2148.00,-0.0013
2147.00,-0.0014
2146.00,-0.0015
2145.00,-0.0015
2144.00,-0.0014
2143.00,-0.0015
2142.00,-0.0015
2141.00,-0.0016
2140.00,-0.0015
2139.00,-0.0014
2138.00,-0.0013
2137.00,-0.0013
2136.00,-0.0013
2135.00,-0.0015
2134.00,-0.0017
2133.00,-0.0018
2132.00,-0.0018
2131.00,-0.0017
2130.00,-0.0015
2129.00,-0.0013
2128.00,-0.0012
2127.00,-0.0010
2126.00,-0.0009
2125.00,-0.0008
2124.00,-0.0008
2123.00,-0.0008
2122.00,-0.0008
2121.00,-0.0007
2120.00,-0.0005
2119.00,-0.0003
2118.00,-0.0001
2117.00,0.0001
2116.00,0.0002
2115.00,0.0002
2114.00,0.0002
2113.00,0.0001
2112.00,0.0001
2111.00,0.0000
2110.00,-0.0000
2109.00,-0.0001
2108.00,-0.0001
2107.00,-0.0001
2106.00,-0.0001
2105.00,-0.0001
2104.00,-0.0000
2103.00,0.0000
2102.00,0.0001
2101.00,0.0002
2100.00,0.0002
2099.00,0.0003
2098.00,0.0003
2097.00,0.0002
2096.00,0.0001
2095.00,-0.0001
2094.00,-0.0003
2093.00,-0.0004
2092.00,-0.0003
2091.00,-0.0003
2090.00,-0.0002
2089.00,-0.0001
2088.00,-0.0001
2087.00,-0.0000
2086.00,-0.0000
2085.00,0.0001
2084.00,0.0002
2083.00,0.0003
2082.00,0.0003
2081.00,0.0004
2080.00,0.0004
2079.00,0.0004
2078.00,0.0003
2077.00,0.0003
2076.00,0.0002
2075.00,0.0001
2074.00,0.0000
2073.00,-0.0000
2072.00,-0.0000
2071.00,-0.0000
2070.00,0.0000
2069.00,0.0001
2068.00,0.0001
2067.00,0.0000
2066.00,-0.0000
2065.00,-0.0000
2064.00,0.0000
2063.00,0.0001
2062.00,0.0000
2061.00,0.0000
2060.00,-0.0001
2059.00,-0.0002
2058.00,-0.0002
2057.00,-0.0002
2056.00,-0.0001
2055.00,0.0001
2054.00,0.0004
2053.00,0.0010
2052.00,0.0016
2051.00,0.0018
2050.00,0.0015
2049.00,0.0010
2048.00,0.0005
2047.00,0.0003
2046.00,0.0003
2045.00,0.0004
2044.00,0.0005
2043.00,0.0004
2042.00,0.0004
2041.00,0.0005
2040.00,0.0008
2039.00,0.0010
2038.00,0.0010
2037.00,0.0008
2036.00,0.0004
2035.00,0.0000
2034.00,-0.0002
2033.00,-0.0003
2032.00,-0.0004
2031.00,-0.0005
2030.00,-0.0007
2029.00,-0.0007
2028.00,-0.0008
2027.00,-0.0009
2026.00,-0.0011
2025.00,-0.0010
2024.00,-0.0006
2023.00,-0.0003
2022.00,-0.0000
2021.00,0.0000
2020.00,-0.0000
2019.00,-0.0002
2018.00,-0.0003
2017.00,-0.0004
2016.00,-0.0005
2015.00,-0.0008
2014.00,-0.0010
2013.00,-0.0012
2012.00,-0.0012
2011.00,-0.0011
2010.00,-0.0011
2009.00,-0.0013
2008.00,-0.0014
2007.00,-0.0016
2006.00,-0.0016
2005.00,-0.0015
2004.00,-0.0013
2003.00,-0.0012
2002.00,-0.0011
2001.00,-0.0011
2000.00,-0.0011
1999.00,-0.0010
1998.00,-0.0011
1997.00,-0.0011
1996.00,-0.0011
1995.00,-0.0011
1994.00,-0.0010
1993.00,-0.0008
1992.00,-0.0006
1991.00,-0.0004
1990.00,-0.0004
1989.00,-0.0003
1988.00,-0.0002
1987.00,-0.0001
1986.00,0.0001
1985.00,0.0003
1984.00,0.0005
1983.00,0.0008
1982.00,0.0012
1981.00,0.0016
1980.00,0.0018
1979.00,0.0016
1978.00,0.0009
1977.00,0.0000
1976.00,-0.0007
1975.00,-0.0013
1974.00,-0.0016
1973.00,-0.0017
1972.00,-0.0017
1971.00,-0.0017
1970.00,-0.0018
1969.00,-0.0019
1968.00,-0.0017
1967.00,-0.0015
1966.00,-0.0012
1965.00,-0.0010
1964.00,-0.0008
1963.00,-0.0008
1962.00,-0.0010
1961.00,-0.0015
1960.00,-0.0019
1959.00,-0.0021
1958.00,-0.0021
1957.00,-0.0020
1956.00,-0.0019
1955.00,-0.0017
1954.00,-0.0015
1953.00,-0.0012
1952.00,-0.0010
1951.00,-0.0010
1950.00,-0.0011
1949.00,-0.0011
1948.00,-0.0011
1947.00,-0.0012
1946.00,-0.0012
1945.00,-0.0013
1944.00,-0.0015
1943.00,-0.0016
1942.00,-0.0016
1941.00,-0.0014
1940.00,-0.0012
1939.00,-0.0010
1938.00,-0.0010
1937.00,-0.0011
1936.00,-0.0011
1935.00,-0.0011
1934.00,-0.0010
1933.00,-0.0008
1932.00,-0.0007
1931.00,-0.0006
1930.00,-0.0006
1929.00,-0.0005
1928.00,-0.0005
1927.00,-0.0006
1926.00,-0.0007
1925.00,-0.0008
1924.00,-0.0009
1923.00,-0.0009
1922.00,-0.0008
1921.00,-0.0007
1920.00,-0.0005
1919.00,-0.0004
1918.00,-0.0004
1917.00,-0.0005
1916.00,-0.0005
1915.00,-0.0004
1914.00,-0.0004
1913.00,-0.0004
1912.00,-0.0004
1911.00,-0.0004
1910.00,-0.0003
1909.00,-0.0002
1908.00,-0.0002
1907.00,-0.0001
1906.00,-0.0001
1905.00,-0.0001
1904.00,-0.0001
1903.00,-0.0002
1902.00,-0.0003
1901.00,-0.0003
1900.00,-0.0003
1899.00,-0.0002
1898.00,-0.0002
1897.00,-0.0001
1896.00,-0.0002
1895.00,-0.0001
1894.00,-0.0001
1893.00,-0.0001
1892.00,-0.0001
1891.00,-0.0001
1890.00,-0.0001
1889.00,-0.0001
1888.00,-0.0002
1887.00,-0.0002
1886.00,-0.0003
1885.00,-0.0003
1884.00,-0.0003
1883.00,-0.0002
1882.00,-0.0002
1881.00,-0.0001
1880.00,-0.0000
1879.00,-0.0000
1878.00,-0.0001
1877.00,-0.0002
1876.00,-0.0002
1875.00,-0.0002
1874.00,-0.0002
1873.00,-0.0001
1872.00,-0.0001
1871.00,-0.0002
1870.00,-0.0002
1869.00,-0.0002
1868.00,-0.0002
1867.00,-0.0002
1866.00,-0.0002
1865.00,-0.0002
1864.00,-0.0001
1863.00,-0.0001
1862.00,-0.0000
1861.00,-0.0001
1860.00,-0.0001
1859.00,-0.0002
1858.00,-0.0002
1857.00,-0.0001
1856.00,-0.0000
1855.00,-0.0000
1854.00,-0.0000
1853.00,-0.0001
1852.00,-0.0001
1851.00,-0.0000
1850.00,0.0000
1849.00,0.0001
1848.00,0.0002
1847.00,0.0002
1846.00,0.0002
1845.00,0.0002
1844.00,0.0002
1843.00,0.0002
1842.00,0.0002
1841.00,0.0001
1840.00,0.0001
1839.00,0.0001
1838.00,0.0001
1837.00,0.0001
1836.00,0.0002
1835.00,0.0003
1834.00,0.0003
1833.00,0.0002
1832.00,0.0002
1831.00,0.0002
1830.00,0.0002
1829.00,0.0002
1828.00,0.0002
1827.00,0.0002
1826.00,0.0002
1825.00,0.0002
1824.00,0.0002
1823.00,0.0001
1822.00,0.0001
1821.00,0.0001
1820.00,0.0001
1819.00,0.0001
1818.00,0.0001
1817.00,0.0001
1816.00,0.0001
1815.00,0.0001
1814.00,0.0001
1813.00,0.0001
1812.00,0.0001
1811.00,0.0002
1810.00,0.0003
1809.00,0.0004
1808.00,0.0004
1807.00,0.0003
1806.00,0.0002
1805.00,0.0002
1804.00,0.0002
1803.00,0.0003
1802.00,0.0003
1801.00,0.0004
1800.00,0.0004
1799.00,0.0004
1798.00,0.0004
1797.00,0.0004
1796.00,0.0004
1795.00,0.0004
1794.00,0.0005
1793.00,0.0005
1792.00,0.0006
1791.00,0.0007
1790.00,0.0007
1789.00,0.0006
1788.00,0.0006
1787.00,0.0006
1786.00,0.0007
1785.00,0.0007
1784.00,0.0007
1783.00,0.0007
1782.00,0.0007
1781.00,0.0007
1780.00,0.0007
1779.00,0.0007
1778.00,0.0007
1777.00,0.0006
1776.00,0.0006
1775.00,0.0006
1774.00,0.0006
1773.00,0.0006
1772.00,0.0007
1771.00,0.0007
1770.00,0.0008
1769.00,0.0009
1768.00,0.0009
1767.00,0.0009
1766.00,0.0009
1765.00,0.0009
1764.00,0.0009
1763.00,0.0009
1762.00,0.0009
1761.00,0.0010
1760.00,0.0010
1759.00,0.0010
1758.00,0.0010
1757.00,0.0011
1756.00,0.0011
1755.00,0.0011
1754.00,0.0011
1753.00,0.0011
1752.00,0.0011
1751.00,0.0011
1750.00,0.0011
1749.00,0.0011
1748.00,0.0012
1747.00,0.0012
1746.00,0.0012
1745.00,0.0013
1744.00,0.0013
1743.00,0.0014
1742.00,0.0014
1741.00,0.0014
1740.00,0.0014
1739.00,0.0014
1738.00,0.0014
1737.00,0.0015
1736.00,0.0015
1735.00,0.0015
1734.00,0.0016
1733.00,0.0016
1732.00,0.0016
1731.00,0.0016
1730.00,0.0016
1729.00,0.0017
1728.00,0.0017
1727.00,0.0018
1726.00,0.0018
1725.00,0.0019
1724.00,0.0019
1723.00,0.0019
1722.00,0.0019
1721.00,0.0019
1720.00,0.0018
1719.00,0.0019
1718.00,0.0019
1717.00,0.0020
1716.00,0.0020
1715.00,0.0020
1714.00,0.0020
1713.00,0.0020
1712.00,0.0020
1711.00,0.0021
1710.00,0.0021
1709.00,0.0021
1708.00,0.0021
1707.00,0.0021
1706.00,0.0021
1705.00,0.0022
1704.00,0.0022
1703.00,0.0023
1702.00,0.0023
1701.00,0.0023
1700.00,0.0024
1699.00,0.0023
1698.00,0.0023
1697.00,0.0023
1696.00,0.0024
1695.00,0.0024
1694.00,0.0024
1693.00,0.0025
1692.00,0.0026
1691.00,0.0026
1690.00,0.0027
1689.00,0.0029
1688.00,0.0029
1687.00,0.0029
1686.00,0.0029
1685.00,0.0028
1684.00,0.0029
1683.00,0.0029
1682.00,0.0030
1681.00,0.0032
1680.00,0.0033
1679.00,0.0034
1678.00,0.0035
1677.00,0.0035
1676.00,0.0036
1675.00,0.0037
1674.00,0.0037
1673.00,0.0037
1672.00,0.0038
1671.00,0.0038
1670.00,0.0038
1669.00,0.0038
1668.00,0.0038
1667.00,0.0038
1666.00,0.0038
1665.00,0.0039
1664.00,0.0039
1663.00,0.0039
1662.00,0.0040
1661.00,0.0040
1660.00,0.0041
1659.00,0.0041
1658.00,0.0041
1657.00,0.0042
1656.00,0.0042
1655.00,0.0042
1654.00,0.0043
1653.00,0.0044
1652.00,0.0044
1651.00,0.0044
1650.00,0.0044
1649.00,0.0045
1648.00,0.0047
1647.00,0.0049
1646.00,0.0050
1645.00,0.0051
1644.00,0.0051
1643.00,0.0052
1642.00,0.0053
1641.00,0.0054
1640.00,0.0055
1639.00,0.0056
1638.00,0.0056
1637.00,0.0057
1636.00,0.0057
1635.00,0.0057
1634.00,0.0056
1633.00,0.0055
1632.00,0.0055
1631.00,0.0054
1630.00,0.0054
1629.00,0.0054
1628.00,0.0054
1627.00,0.0053
1626.00,0.0053
1625.00,0.0053
1624.00,0.0053
1623.00,0.0053
1622.00,0.0052
1621.00,0.0051
1620.00,0.0051
1619.00,0.0051
1618.00,0.0051
1617.00,0.0050
1616.00,0.0050
1615.00,0.0049
1614.00,0.0049
1613.00,0.0049
1612.00,0.0049
1611.00,0.0049
1610.00,0.0049
1609.00,0.0049
1608.00,0.0050
1607.00,0.0050
1606.00,0.0050
1605.00,0.0050
1604.00,0.0050
1603.00,0.0050
1602.00,0.0050
1601.00,0.0050
1600.00,0.0050
1599.00,0.0050
1598.00,0.0049
1597.00,0.0049
1596.00,0.0049
1595.00,0.0049
1594.00,0.0049
1593.00,0.0049
1592.00,0.0050
1591.00,0.0051
1590.00,0.0052
1589.00,0.0054
1588.00,0.0055
1587.00,0.0057
1586.00,0.0059
1585.00,0.0061
1584.00,0.0064
1583.00,0.0067
1582.00,0.0070
1581.00,0.0074
1580.00,0.0077
1579.00,0.0080
1578.00,0.0082
1577.00,0.0082
1576.00,0.0082
1575.00,0.0080
1574.00,0.0078
1573.00,0.0077
1572.00,0.0075
1571.00,0.0073
1570.00,0.0071
1569.00,0.0068
1568.00,0.0066
1567.00,0.0065
1566.00,0.0063
1565.00,0.0063
1564.00,0.0063
1563.00,0.0063
1562.00,0.0063
1561.00,0.0062
1560.00,0.0063
1559.00,0.0065
1558.00,0.0065
1557.00,0.0065
1556.00,0.0065
1555.00,0.0066
1554.00,0.0066
1553.00,0.0067
1552.00,0.0068
1551.00,0.0069
1550.00,0.0071
1549.00,0.0074
1548.00,0.0076
1547.00,0.0079
1546.00,0.0082
1545.00,0.0086
1544.00,0.0091
1543.00,0.0094
1542.00,0.0096
1541.00,0.0096
1540.00,0.0094
1539.00,0.0089
1538.00,0.0084
1537.00,0.0080
1536.00,0.0077
1535.00,0.0073
1534.00,0.0069
1533.00,0.0065
1532.00,0.0062
1531.00,0.0059
1530.00,0.0058
1529.00,0.0057
1528.00,0.0056
1527.00,0.0055
1526.00,0.0054
1525.00,0.0054
1524.00,0.0054
1523.00,0.0054
1522.00,0.0054
1521.00,0.0054
1520.00,0.0054
1519.00,0.0053
1518.00,0.0053
1517.00,0.0054
1516.00,0.0055
1515.00,0.0055
1514.00,0.0055
1513.00,0.0055
1512.00,0.0056
1511.00,0.0057
1510.00,0.0058
1509.00,0.0059
1508.00,0.0061
1507.00,0.0061
1506.00,0.0061
1505.00,0.0062
1504.00,0.0063
1503.00,0.0065
1502.00,0.0067
1501.00,0.0069
1500.00,0.0072
1499.00,0.0074
1498.00,0.0076
1497.00,0.0080
1496.00,0.0083
1495.00,0.0086
1494.00,0.0088
1493.00,0.0091
1492.00,0.0095
1491.00,0.0100
1490.00,0.0105
1489.00,0.0111
1488.00,0.0117
1487.00,0.0122
1486.00,0.0128
1485.00,0.0135
1484.00,0.0144
1483.00,0.0152
1482.00,0.0163
1481.00,0.0176
1480.00,0.0189
1479.00,0.0203
1478.00,0.0219
1477.00,0.0241
1476.00,0.0268
1475.00,0.0299
1474.00,0.0340
1473.00,0.0397
1472.00,0.0464
1471.00,0.0528
1470.00,0.0591
1469.00,0.0658
1468.00,0.0730
1467.00,0.0810
1466.00,0.0900
1465.00,0.0996
1464.00,0.1080
1463.00,0.1137
1462.00,0.1172
1461.00,0.1194
1460.00,0.1208
1459.00,0.1215
1458.00,0.1216
1457.00,0.1213
1456.00,0.1202
1455.00,0.1188
1454.00,0.1171
1453.00,0.1149
1452.00,0.1118
1451.00,0.1077
1450.00,0.1022
1449.00,0.0950
1448.00,0.0860
1447.00,0.0767
1446.00,0.0683
1445.00,0.0613
1444.00,0.0553
1443.00,0.0504
1442.00,0.0468
1441.00,0.0443
1440.00,0.0429
1439.00,0.0425
1438.00,0.0429
1437.00,0.0433
1436.00,0.0427
1435.00,0.0404
1434.00,0.0369
1433.00,0.0325
1432.00,0.0280
1431.00,0.0239
1430.00,0.0208
1429.00,0.0184
1428.00,0.0167
1427.00,0.0157
1426.00,0.0151
1425.00,0.0145
1424.00,0.0140
1423.00,0.0138
1422.00,0.0136
1421.00,0.0134
1420.00,0.0130
1419.00,0.0127
1418.00,0.0124
1417.00,0.0121
1416.00,0.0118
1415.00,0.0117
1414.00,0.0116
1413.00,0.0115
1412.00,0.0113
1411.00,0.0112
1410.00,0.0112
1409.00,0.0110
1408.00,0.0109
1407.00,0.0109
1406.00,0.0109
1405.00,0.0109
1404.00,0.0108
1403.00,0.0108
1402.00,0.0109
1401.00,0.0109
1400.00,0.0109
1399.00,0.0111
1398.00,0.0113
1397.00,0.0116
1396.00,0.0118
1395.00,0.0121
1394.00,0.0126
1393.00,0.0130
1392.00,0.0136
1391.00,0.0143
1390.00,0.0154
1389.00,0.0167
1388.00,0.0187
1387.00,0.0218
1386.00,0.0260
1385.00,0.0315
1384.00,0.0393
1383.00,0.0503
1382.00,0.0654
1381.00,0.0851
1380.00,0.1098
1379.00,0.1383
1378.00,0.1664
1377.00,0.1873
1376.00,0.1949
1375.00,0.1855
1374.00,0.1619
1373.00,0.1332
1372.00,0.1068
1371.00,0.0851
1370.00,0.0679
1369.00,0.0550
1368.00,0.0462
1367.00,0.0408
1366.00,0.0378
1365.00,0.0366
1364.00,0.0368
1363.00,0.0381
1362.00,0.0403
1361.00,0.0427
1360.00,0.0446
1359.00,0.0452
1358.00,0.0442
1357.00,0.0417
1356.00,0.0380
1355.00,0.0339
1354.00,0.0299
1353.00,0.0265
1352.00,0.0237
1351.00,0.0215
1350.00,0.0197
1349.00,0.0182
1348.00,0.0169
1347.00,0.0159
1346.00,0.0150
1345.00,0.0143
1344.00,0.0137
1343.00,0.0131
1342.00,0.0126
1341.00,0.0123
1340.00,0.0120
1339.00,0.0117
1338.00,0.0116
1337.00,0.0116
1336.00,0.0117
1335.00,0.0119
1334.00,0.0123
1333.00,0.0126
1332.00,0.0131
1331.00,0.0134
1330.00,0.0135
1329.00,0.0134
1328.00,0.0130
1327.00,0.0125
1326.00,0.0120
1325.00,0.0114
1324.00,0.0108
1323.00,0.0103
1322.00,0.0099
1321.00,0.0096
1320.00,0.0094
1319.00,0.0092
1318.00,0.0090
1317.00,0.0088
1316.00,0.0087
1315.00,0.0086
1314.00,0.0085
1313.00,0.0085
1312.00,0.0086
1311.00,0.0087
1310.00,0.0091
1309.00,0.0097
1308.00,0.0104
1307.00,0.0113
1306.00,0.0121
1305.00,0.0127
1304.00,0.0130
1303.00,0.0128
1302.00,0.0126
1301.00,0.0124
1300.00,0.0123
1299.00,0.0124
1298.00,0.0125
1297.00,0.0126
1296.00,0.0125
1295.00,0.0122
1294.00,0.0119
1293.00,0.0114
1292.00,0.0109
1291.00,0.0104
1290.00,0.0100
1289.00,0.0096
1288.00,0.0092
1287.00,0.0090
1286.00,0.0087
1285.00,0.0085
1284.00,0.0084
1283.00,0.0082
1282.00,0.0081
1281.00,0.0080
1280.00,0.0079
1279.00,0.0078
1278.00,0.0078
1277.00,0.0077
1276.00,0.0076
1275.00,0.0076
1274.00,0.0075
1273.00,0.0075
1272.00,0.0075
1271.00,0.0075
1270.00,0.0076
1269.00,0.0078
1268.00,0.0081
1267.00,0.0083
1266.00,0.0086
1265.00,0.0088
1264.00,0.0091
1263.00,0.0094
1262.00,0.0098
1261.00,0.0102
1260.00,0.0106
1259.00,0.0111
1258.00,0.0115
1257.00,0.0118
1256.00,0.0119
1255.00,0.0117
1254.00,0.0112
1253.00,0.0106
1252.00,0.0099
1251.00,0.0094
1250.00,0.0089
1249.00,0.0086
1248.00,0.0083
1247.00,0.0081
1246.00,0.0080
1245.00,0.0078
1244.00,0.0078
1243.00,0.0077
1242.00,0.0077
1241.00,0.0077
1240.00,0.0077
1239.00,0.0077
1238.00,0.0077
1237.00,0.0077
1236.00,0.0077
1235.00,0.0078
1234.00,0.0079
1233.00,0.0080
1232.00,0.0080
1231.00,0.0081
1230.00,0.0082
1229.00,0.0083
1228.00,0.0086
1227.00,0.0088
1226.00,0.0091
1225.00,0.0095
1224.00,0.0098
1223.00,0.0102
1222.00,0.0105
1221.00,0.0108
1220.00,0.0109
1219.00,0.0109
1218.00,0.0108
1217.00,0.0105
1216.00,0.0103
1215.00,0.0101
1214.00,0.0098
1213.00,0.0096
1212.00,0.0093
1211.00,0.0091
1210.00,0.0089
1209.00,0.0087
1208.00,0.0086
1207.00,0.0085
1206.00,0.0084
1205.00,0.0084
1204.00,0.0083
1203.00,0.0083
1202.00,0.0082
1201.00,0.0083
1200.00,0.0083
1199.00,0.0084
1198.00,0.0084
1197.00,0.0085
1196.00,0.0085
1195.00,0.0085
1194.00,0.0086
1193.00,0.0086
1192.00,0.0086
1191.00,0.0086
1190.00,0.0085
1189.00,0.0084
1188.00,0.0084
1187.00,0.0084
1186.00,0.0084
1185.00,0.0085
1184.00,0.0085
1183.00,0.0086
1182.00,0.0086
1181.00,0.0087
1180.00,0.0089
1179.00,0.0092
1178.00,0.0097
1177.00,0.0104
1176.00,0.0113
1175.00,0.0124
1174.00,0.0139
1173.00,0.0158
1172.00,0.0180
1171.00,0.0205
1170.00,0.0229
1169.00,0.0248
1168.00,0.0261
1167.00,0.0264
1166.00,0.0260
1165.00,0.0250
1164.00,0.0237
1163.00,0.0225
1162.00,0.0214
1161.00,0.0205
1160.00,0.0198
1159.00,0.0194
1158.00,0.0191
1157.00,0.0190
1156.00,0.0189
1155.00,0.0189
1154.00,0.0189
1153.00,0.0187
1152.00,0.0183
1151.00,0.0177
1150.00,0.0169
1149.00,0.0161
1148.00,0.0152
1147.00,0.0144
1146.00,0.0136
1145.00,0.0128
1144.00,0.0121
1143.00,0.0115
1142.00,0.0109
1141.00,0.0104
1140.00,0.0099
1139.00,0.0095
1138.00,0.0092
1137.00,0.0090
1136.00,0.0088
1135.00,0.0086
1134.00,0.0084
1133.00,0.0083
1132.00,0.0083
1131.00,0.0083
1130.00,0.0083
1129.00,0.0084
1128.00,0.0084
1127.00,0.0084
1126.00,0.0084
1125.00,0.0085
1124.00,0.0086
1123.00,0.0087
1122.00,0.0088
1121.00,0.0088
1120.00,0.0088
1119.00,0.0088
1118.00,0.0089
1117.00,0.0090
1116.00,0.0091
1115.00,0.0092
1114.00,0.0093
1113.00,0.0095
1112.00,0.0097
1111.00,0.0099
1110.00,0.0102
1109.00,0.0105
1108.00,0.0110
1107.00,0.0117
1106.00,0.0123
1105.00,0.0129
1104.00,0.0134
1103.00,0.0137
1102.00,0.0136
1101.00,0.0133
1100.00,0.0127
1099.00,0.0120
1098.00,0.0113
1097.00,0.0106
1096.00,0.0101
1095.00,0.0097
1094.00,0.0096
1093.00,0.0095
1092.00,0.0094
1091.00,0.0091
1090.00,0.0089
1089.00,0.0086
1088.00,0.0084
1087.00,0.0083
1086.00,0.0082
1085.00,0.0082
1084.00,0.0082
1083.00,0.0082
1082.00,0.0082
1081.00,0.0081
1080.00,0.0079
1079.00,0.0077
1078.00,0.0076
1077.00,0.0074
1076.00,0.0073
1075.00,0.0072
1074.00,0.0071
1073.00,0.0071
1072.00,0.0071
1071.00,0.0071
1070.00,0.0072
1069.00,0.0072
1068.00,0.0072
1067.00,0.0072
1066.00,0.0072
1065.00,0.0072
1064.00,0.0072
1063.00,0.0072
1062.00,0.0072
1061.00,0.0072
1060.00,0.0073
1059.00,0.0074
1058.00,0.0075
1057.00,0.0075
1056.00,0.0075
1055.00,0.0075
1054.00,0.0076
1053.00,0.0077
1052.00,0.0079
1051.00,0.0081
1050.00,0.0082
1049.00,0.0083
1048.00,0.0084
1047.00,0.0086
1046.00,0.0089
1045.00,0.0091
1044.00,0.0092
1043.00,0.0092
1042.00,0.0091
1041.00,0.0090
1040.00,0.0089
1039.00,0.0090
1038.00,0.0091
1037.00,0.0093
1036.00,0.0094
1035.00,0.0094
1034.00,0.0093
1033.00,0.0090
1032.00,0.0088
1031.00,0.0085
1030.00,0.0083
1029.00,0.0081
1028.00,0.0079
1027.00,0.0077
1026.00,0.0077
1025.00,0.0077
1024.00,0.0077
1023.00,0.0078
1022.00,0.0079
1021.00,0.0080
1020.00,0.0081
1019.00,0.0081
1018.00,0.0083
1017.00,0.0084
1016.00,0.0086
1015.00,0.0089
1014.00,0.0091
1013.00,0.0094
1012.00,0.0096
1011.00,0.0099
1010.00,0.0102
1009.00,0.0103
1008.00,0.0105
1007.00,0.0108
1006.00,0.0113
1005.00,0.0122
1004.00,0.0135
1003.00,0.0154
1002.00,0.0178
1001.00,0.0207
1000.00,0.0237
999.00,0.0262
998.00,0.0274
997.00,0.0268
996.00,0.0246
995.00,0.0215
994.00,0.0184
993.00,0.0157
992.00,0.0136
991.00,0.0121
990.00,0.0110
989.00,0.0103
988.00,0.0098
987.00,0.0096
986.00,0.0096
985.00,0.0098
984.00,0.0102
983.00,0.0109
982.00,0.0119
981.00,0.0132
980.00,0.0151
979.00,0.0177
978.00,0.0209
977.00,0.0245
976.00,0.0283
975.00,0.0317
974.00,0.0340
973.00,0.0346
972.00,0.0331
971.00,0.0299
970.00,0.0258
969.00,0.0217
968.00,0.0182
967.00,0.0156
966.00,0.0137
965.00,0.0123
964.00,0.0113
963.00,0.0106
962.00,0.0100
961.00,0.0095
960.00,0.0091
959.00,0.0087
958.00,0.0084
957.00,0.0082
956.00,0.0080
955.00,0.0077
954.00,0.0076
953.00,0.0075
952.00,0.0073
951.00,0.0072
950.00,0.0072
949.00,0.0072
948.00,0.0073
947.00,0.0075
946.00,0.0078
945.00,0.0081
944.00,0.0084
943.00,0.0087
942.00,0.0090
941.00,0.0092
940.00,0.0093
939.00,0.0092
938.00,0.0088
937.00,0.0082
936.00,0.0077
935.00,0.0072
934.00,0.0069
933.00,0.0066
932.00,0.0064
931.00,0.0062
930.00,0.0061
929.00,0.0059
928.00,0.0059
927.00,0.0059
926.00,0.0060
925.00,0.0061
924.00,0.0061
923.00,0.0061
922.00,0.0061
921.00,0.0060
920.00,0.0060
919.00,0.0060
918.00,0.0061
917.00,0.0061
916.00,0.0062
915.00,0.0062
914.00,0.0064
913.00,0.0065
912.00,0.0067
911.00,0.0068
910.00,0.0070
909.00,0.0072
908.00,0.0076
907.00,0.0081
906.00,0.0089
905.00,0.0101
904.00,0.0116
903.00,0.0135
902.00,0.0155
901.00,0.0173
900.00,0.0183
899.00,0.0185
898.00,0.0176
897.00,0.0160
896.00,0.0140
895.00,0.0121
894.00,0.0106
893.00,0.0094
892.00,0.0086
891.00,0.0080
890.00,0.0076
889.00,0.0074
888.00,0.0073
887.00,0.0073
886.00,0.0072
885.00,0.0072
884.00,0.0071
883.00,0.0070
882.00,0.0070
881.00,0.0070
880.00,0.0071
879.00,0.0071
878.00,0.0072
877.00,0.0073
876.00,0.0074
875.00,0.0074
874.00,0.0075
873.00,0.0075
872.00,0.0074
871.00,0.0075
870.00,0.0075
869.00,0.0075
868.00,0.0075
867.00,0.0075
866.00,0.0076
865.00,0.0077
864.00,0.0077
863.00,0.0077
862.00,0.0078
861.00,0.0079
860.00,0.0082
859.00,0.0083
858.00,0.0085
857.00,0.0085
856.00,0.0086
855.00,0.0087
854.00,0.0088
853.00,0.0090
852.00,0.0092
851.00,0.0095
850.00,0.0099
849.00,0.0104
848.00,0.0110
847.00,0.0121
846.00,0.0137
845.00,0.0162
844.00,0.0196
843.00,0.0234
842.00,0.0264
841.00,0.0272
840.00,0.0254
839.00,0.0219
838.00,0.0181
837.00,0.0151
836.00,0.0131
835.00,0.0120
834.00,0.0113
833.00,0.0109
832.00,0.0108
831.00,0.0107
830.00,0.0107
829.00,0.0106
828.00,0.0103
827.00,0.0101
826.00,0.0098
825.00,0.0097
824.00,0.0097
823.00,0.0097
822.00,0.0098
821.00,0.0100
820.00,0.0102
819.00,0.0106
818.00,0.0111
817.00,0.0118
816.00,0.0126
815.00,0.0138
814.00,0.0154
813.00,0.0173
812.00,0.0194
811.00,0.0214
810.00,0.0229
809.00,0.0235
808.00,0.0232
807.00,0.0219
806.00,0.0200
805.00,0.0179
804.00,0.0160
803.00,0.0145
802.00,0.0133
801.00,0.0125
800.00,0.0118
799.00,0.0113
798.00,0.0109
797.00,0.0106
796.00,0.0103
795.00,0.0100
794.00,0.0098
793.00,0.0095
792.00,0.0092
791.00,0.0088
790.00,0.0084
789.00,0.0080
788.00,0.0076
787.00,0.0073
786.00,0.0071
785.00,0.0069
784.00,0.0067
783.00,0.0064
782.00,0.0063
781.00,0.0063
780.00,0.0065
779.00,0.0066
778.00,0.0066
777.00,0.0065
776.00,0.0065
775.00,0.0066
774.00,0.0066
773.00,0.0067
772.00,0.0067
771.00,0.0066
770.00,0.0066
769.00,0.0066
768.00,0.0065
767.00,0.0066
766.00,0.0066
765.00,0.0066
764.00,0.0065
763.00,0.0065
762.00,0.0066
761.00,0.0067
760.00,0.0068
759.00,0.0068
758.00,0.0068
757.00,0.0068
756.00,0.0068
755.00,0.0069
754.00,0.0071
753.00,0.0073
752.00,0.0075
751.00,0.0077
750.00,0.0080
749.00,0.0082
748.00,0.0084
747.00,0.0086
746.00,0.0087
745.00,0.0088
744.00,0.0089
743.00,0.0090
742.00,0.0093
741.00,0.0096
740.00,0.0099
739.00,0.0102
738.00,0.0105
737.00,0.0109
736.00,0.0113
735.00,0.0117
734.00,0.0122
733.00,0.0128
732.00,0.0138
731.00,0.0148
730.00,0.0156
729.00,0.0160
728.00,0.0160
727.00,0.0157
726.00,0.0156
725.00,0.0158
724.00,0.0165
723.00,0.0174
722.00,0.0183
721.00,0.0190
720.00,0.0189
719.00,0.0179
718.00,0.0165
717.00,0.0150
716.00,0.0137
715.00,0.0129
714.00,0.0123
713.00,0.0119
712.00,0.0115
711.00,0.0112
710.00,0.0110
709.00,0.0109
708.00,0.0108
707.00,0.0108
706.00,0.0106
705.00,0.0103
704.00,0.0101
703.00,0.0099
702.00,0.0097
701.00,0.0096
700.00,0.0095
699.00,0.0095
698.00,0.0096
697.00,0.0097
696.00,0.0099
695.00,0.0099
694.00,0.0098
693.00,0.0096
692.00,0.0095
691.00,0.0095
690.00,0.0096
689.00,0.0097
688.00,0.0097
687.00,0.0097
686.00,0.0097
685.00,0.0098
684.00,0.0099
683.00,0.0101
682.00,0.0101
681.00,0.0100
680.00,0.0099
679.00,0.0099
678.00,0.0100
677.00,0.0101
676.00,0.0102
675.00,0.0100
674.00,0.0098
673.00,0.0096
672.00,0.0096
671.00,0.0096
670.00,0.0096
669.00,0.0094
668.00,0.0092
667.00,0.0091
666.00,0.0092
665.00,0.0092
664.00,0.0092
663.00,0.0089
662.00,0.0087
661.00,0.0084
660.00,0.0083
659.00,0.0082
658.00,0.0083
657.00,0.0084
656.00,0.0084
655.00,0.0083
654.00,0.0082
653.00,0.0082
652.00,0.0082
651.00,0.0081
650.00,0.0080
649.00,0.0078
648.00,0.0077
647.00,0.0077
646.00,0.0078
645.00,0.0081
644.00,0.0085
643.00,0.0089
642.00,0.0090
641.00,0.0090
640.00,0.0088
639.00,0.0087
638.00,0.0086
637.00,0.0085
636.00,0.0083
635.00,0.0082
634.00,0.0082
633.00,0.0083
632.00,0.0086
631.00,0.0088
630.00,0.0089
629.00,0.0088
628.00,0.0088
627.00,0.0088
626.00,0.0088
625.00,0.0087
624.00,0.0085
623.00,0.0082
622.00,0.0080
621.00,0.0079
620.00,0.0081
619.00,0.0083
618.00,0.0087
617.00,0.0091
616.00,0.0092
615.00,0.0092
614.00,0.0090
613.00,0.0089
612.00,0.0088
611.00,0.0085
610.00,0.0080
609.00,0.0075
608.00,0.0072
607.00,0.0074
606.00,0.0079
605.00,0.0086
604.00,0.0092
603.00,0.0093
602.00,0.0091
601.00,0.0086
600.00,0.0080
599.00,0.0075
598.00,0.0071
597.00,0.0069
596.00,0.0068
595.00,0.0069
594.00,0.0071
593.00,0.0075
592.00,0.0081
591.00,0.0087
590.00,0.0091
589.00,0.0094
588.00,0.0095
587.00,0.0093
586.00,0.0091
585.00,0.0088
584.00,0.0087
583.00,0.0085
582.00,0.0083
581.00,0.0082
580.00,0.0085
579.00,0.0090
578.00,0.0094
577.00,0.0096
576.00,0.0096
575.00,0.0095
574.00,0.0093
573.00,0.0089
572.00,0.0086
571.00,0.0082
570.00,0.0078
569.00,0.0077
568.00,0.0077
567.00,0.0079
566.00,0.0081
565.00,0.0082
564.00,0.0085
563.00,0.0089
562.00,0.0092
561.00,0.0094
560.00,0.0093
559.00,0.0091
558.00,0.0087
557.00,0.0084
556.00,0.0081
555.00,0.0077
554.00,0.0071
553.00,0.0067
552.00,0.0068
551.00,0.0073
550.00,0.0080
549.00,0.0087
548.00,0.0093
547.00,0.0098
546.00,0.0097
545.00,0.0091
544.00,0.0081
543.00,0.0073
542.00,0.0068
541.00,0.0068
540.00,0.0072
539.00,0.0079
538.00,0.0088
537.00,0.0096
536.00,0.0103
535.00,0.0108
534.00,0.0112
533.00,0.0114
532.00,0.0113
531.00,0.0109
530.00,0.0102
529.00,0.0096
528.00,0.0092
527.00,0.0090
526.00,0.0088
525.00,0.0087
524.00,0.0089
523.00,0.0096
522.00,0.0102
521.00,0.0107
520.00,0.0108
519.00,0.0107
518.00,0.0102
517.00,0.0093
516.00,0.0081
515.00,0.0070
514.00,0.0064
513.00,0.0063
512.00,0.0066
511.00,0.0071
510.00,0.0075
509.00,0.0076
508.00,0.0075
507.00,0.0075
506.00,0.0078
505.00,0.0085
504.00,0.0092
503.00,0.0096
502.00,0.0093
501.00,0.0083
500.00,0.0071
499.00,0.0061
498.00,0.0058
497.00,0.0061
496.00,0.0066
495.00,0.0070
494.00,0.0070
493.00,0.0067
492.00,0.0061
491.00,0.0056
490.00,0.0056
489.00,0.0063
488.00,0.0072
487.00,0.0077
486.00,0.0076
485.00,0.0072
484.00,0.0070
483.00,0.0069
482.00,0.0069
481.00,0.0072
480.00,0.0079
479.00,0.0087
478.00,0.0094
477.00,0.0100
476.00,0.0105
475.00,0.0110
474.00,0.0113
473.00,0.0107
472.00,0.0093
471.00,0.0080
470.00,0.0077
469.00,0.0083
468.00,0.0098
467.00,0.0115
466.00,0.0129
465.00,0.0138
464.00,0.0146
463.00,0.0156
462.00,0.0167
461.00,0.0175
460.00,0.0174
459.00,0.0167
458.00,0.0161
457.00,0.0159
456.00,0.0157
455.00,0.0151
454.00,0.0139
453.00,0.0122
452.00,0.0106
451.00,0.0099
450.00,0.0103
