Created as New Dataset,Sample 073 By Administrator Date Thursday, September 04 2025
cm-1,A
4000.00,0.0008
3999.00,0.0008
3998.00,0.0008
3997.00,0.0008
3996.00,0.0009
3995.00,0.0009
3994.00,0.0009
3993.00,0.0009
3992.00,0.0009
3991.00,0.0009
3990.00,0.0009
3989.00,0.0008
3988.00,0.0008
3987.00,0.0008
3986.00,0.0008
3985.00,0.0008
3984.00,0.0008
3983.00,0.0008
3982.00,0.0008
3981.00,0.0008
3980.00,0.0008
3979.00,0.0008
3978.00,0.0008
3977.00,0.0008
3976.00,0.0008
3975.00,0.0007
3974.00,0.0007
3973.00,0.0007
3972.00,0.0007
3971.00,0.0007
3970.00,0.0007
3969.00,0.0006
3968.00,0.0006
3967.00,0.0006
3966.00,0.0006
3965.00,0.0007
3964.00,0.0008
3963.00,0.0008
3962.00,0.0008
3961.00,0.0008
3960.00,0.0007
3959.00,0.0007
3958.00,0.0007
3957.00,0.0007
3956.00,0.0007
3955.00,0.0007
3954.00,0.0007
3953.00,0.0007
3952.00,0.0007
3951.00,0.0007
3950.00,0.0007
3949.00,0.0007
3948.00,0.0007
3947.00,0.0007
3946.00,0.0007
3945.00,0.0007
3944.00,0.0007
3943.00,0.0007
3942.00,0.0007
3941.00,0.0006
3940.00,0.0006
3939.00,0.0006
3938.00,0.0007
3937.00,0.0007
3936.00,0.0007
3935.00,0.0006
3934.00,0.0006
3933.00,0.0006
3932.00,0.0007
3931.00,0.0007
3930.00,0.0006
3929.00,0.0006
3928.00,0.0006
3927.00,0.0006
3926.00,0.0007
3925.00,0.0007
3924.00,0.0006
3923.00,0.0006
3922.00,0.0006
3921.00,0.0005
3920.00,0.0005
3919.00,0.0005
3918.00,0.0005
3917.00,0.0006
3916.00,0.0006
3915.00,0.0006
3914.00,0.0006
3913.00,0.0007
3912.00,0.0007
3911.00,0.0007
3910.00,0.0007
3909.00,0.0007
3908.00,0.0007
3907.00,0.0007
3906.00,0.0006
3905.00,0.0006
3904.00,0.0005
3903.00,0.0005
3902.00,0.0005
3901.00,0.0005
3900.00,0.0005
3899.00,0.0005
3898.00,0.0005
3897.00,0.0006
3896.00,0.0006
3895.00,0.0006
3894.00,0.0006
3893.00,0.0006
3892.00,0.0006
3891.00,0.0005
3890.00,0.0005
3889.00,0.0005
3888.00,0.0005
3887.00,0.0005
3886.00,0.0005
3885.00,0.0006
3884.00,0.0006
3883.00,0.0006
3882.00,0.0006
3881.00,0.0006
3880.00,0.0006
3879.00,0.0006
3878.00,0.0005
3877.00,0.0005
3876.00,0.0005
3875.00,0.0004
3874.00,0.0005
3873.00,0.0005
3872.00,0.0005
3871.00,0.0004
3870.00,0.0004
3869.00,0.0005
3868.00,0.0005
3867.00,0.0004
3866.00,0.0004
3865.00,0.0004
3864.00,0.0005
3863.00,0.0005
3862.00,0.0005
3861.00,0.0005
3860.00,0.0005
3859.00,0.0005
3858.00,0.0005
3857.00,0.0006
3856.00,0.0006
3855.00,0.0005
3854.00,0.0004
3853.00,0.0004
3852.00,0.0004
3851.00,0.0004
3850.00,0.0004
3849.00,0.0004
3848.00,0.0004
3847.00,0.0004
3846.00,0.0004
3845.00,0.0004
3844.00,0.0004
3843.00,0.0004
3842.00,0.0004
3841.00,0.0004
3840.00,0.0004
3839.00,0.0004
3838.00,0.0004
3837.00,0.0004
3836.00,0.0004
3835.00,0.0004
3834.00,0.0004
3833.00,0.0004
3832.00,0.0004
3831.00,0.0004
3830.00,0.0004
3829.00,0.0004
3828.00,0.0004
3827.00,0.0004
3826.00,0.0005
3825.00,0.0005
3824.00,0.0006
3823.00,0.0005
3822.00,0.0005
3821.00,0.0005
3820.00,0.0005
3819.00,0.0005
3818.00,0.0004
3817.00,0.0004
3816.00,0.0004
3815.00,0.0005
3814.00,0.0006
3813.00,0.0006
3812.00,0.0006
3811.00,0.0006
3810.00,0.0006
3809.00,0.0006
3808.00,0.0005
3807.00,0.0005
3806.00,0.0005
3805.00,0.0005
3804.00,0.0005
3803.00,0.0004
3802.00,0.0004
3801.00,0.0004
3800.00,0.0005
3799.00,0.0005
3798.00,0.0005
3797.00,0.0006
3796.00,0.0006
3795.00,0.0006
3794.00,0.0006
3793.00,0.0006
3792.00,0.0006
3791.00,0.0006
3790.00,0.0006
3789.00,0.0006
3788.00,0.0006
3787.00,0.0006
3786.00,0.0005
3785.00,0.0005
3784.00,0.0004
3783.00,0.0004
3782.00,0.0004
3781.00,0.0004
3780.00,0.0004
3779.00,0.0005
3778.00,0.0006
3777.00,0.0006
3776.00,0.0006
3775.00,0.0006
3774.00,0.0006
3773.00,0.0005
3772.00,0.0005
3771.00,0.0005
3770.00,0.0006
3769.00,0.0006
3768.00,0.0006
3767.00,0.0005
3766.00,0.0005
3765.00,0.0005
3764.00,0.0005
3763.00,0.0005
3762.00,0.0005
3761.00,0.0005
3760.00,0.0005
3759.00,0.0005
3758.00,0.0005
3757.00,0.0004
3756.00,0.0004
3755.00,0.0004
3754.00,0.0004
3753.00,0.0003
3752.00,0.0003
3751.00,0.0002
3750.00,0.0002
3749.00,0.0002
3748.00,0.0002
3747.00,0.0003
3746.00,0.0002
3745.00,0.0002
3744.00,0.0003
3743.00,0.0003
3742.00,0.0004
3741.00,0.0003
3740.00,0.0003
3739.00,0.0003
3738.00,0.0002
3737.00,0.0002
3736.00,0.0002
3735.00,0.0002
3734.00,0.0002
3733.00,0.0003
3732.00,0.0003
3731.00,0.0003
3730.00,0.0003
3729.00,0.0003
3728.00,0.0003
3727.00,0.0003
3726.00,0.0003
3725.00,0.0003
3724.00,0.0003
3723.00,0.0003
3722.00,0.0003
3721.00,0.0003
3720.00,0.0003
3719.00,0.0003
3718.00,0.0003
3717.00,0.0004
3716.00,0.0004
3715.00,0.0004
3714.00,0.0003
3713.00,0.0003
3712.00,0.0003
3711.00,0.0004
3710.00,0.0004
3709.00,0.0004
3708.00,0.0004
3707.00,0.0004
3706.00,0.0004
3705.00,0.0004
3704.00,0.0004
3703.00,0.0004
3702.00,0.0004
3701.00,0.0004
3700.00,0.0005
3699.00,0.0005
3698.00,0.0005
3697.00,0.0005
3696.00,0.0005
3695.00,0.0004
3694.00,0.0004
3693.00,0.0003
3692.00,0.0003
3691.00,0.0003
3690.00,0.0003
3689.00,0.0003
3688.00,0.0003
3687.00,0.0003
3686.00,0.0003
3685.00,0.0003
3684.00,0.0002
3683.00,0.0002
3682.00,0.0002
3681.00,0.0002
3680.00,0.0002
3679.00,0.0003
3678.00,0.0002
3677.00,0.0002
3676.00,0.0001
3675.00,0.0001
3674.00,0.0000
3673.00,-0.0001
3672.00,-0.0001
3671.00,-0.0001
3670.00,-0.0001
3669.00,0.0000
3668.00,0.0001
3667.00,0.0001
3666.00,0.0002
3665.00,0.0002
3664.00,0.0002
3663.00,0.0002
3662.00,0.0002
3661.00,0.0002
3660.00,0.0002
3659.00,0.0002
3658.00,0.0001
3657.00,0.0001
3656.00,0.0001
3655.00,0.0001
3654.00,0.0001
3653.00,0.0001
3652.00,0.0001
3651.00,0.0000
3650.00,0.0000
3649.00,0.0000
3648.00,0.0001
3647.00,0.0002
3646.00,0.0003
3645.00,0.0003
3644.00,0.0003
3643.00,0.0004
3642.00,0.0004
3641.00,0.0005
3640.00,0.0005
3639.00,0.0005
3638.00,0.0005
3637.00,0.0005
3636.00,0.0005
3635.00,0.0005
3634.00,0.0005
3633.00,0.0005
3632.00,0.0005
3631.00,0.0004
3630.00,0.0004
3629.00,0.0004
3628.00,0.0005
3627.00,0.0005
3626.00,0.0006
3625.00,0.0007
3624.00,0.0007
3623.00,0.0008
3622.00,0.0008
3621.00,0.0008
3620.00,0.0009
3619.00,0.0009
3618.00,0.0009
3617.00,0.0008
3616.00,0.0008
3615.00,0.0008
3614.00,0.0008
3613.00,0.0009
3612.00,0.0010
3611.00,0.0010
3610.00,0.0010
3609.00,0.0009
3608.00,0.0009
3607.00,0.0010
3606.00,0.0010
3605.00,0.0010
3604.00,0.0011
3603.00,0.0012
3602.00,0.0012
3601.00,0.0013
3600.00,0.0013
3599.00,0.0013
3598.00,0.0012
3597.00,0.0011
3596.00,0.0011
3595.00,0.0011
3594.00,0.0012
3593.00,0.0012
3592.00,0.0013
3591.00,0.0013
3590.00,0.0013
3589.00,0.0013
3588.00,0.0013
3587.00,0.0014
3586.00,0.0014
3585.00,0.0014
3584.00,0.0015
3583.00,0.0015
3582.00,0.0016
3581.00,0.0017
3580.00,0.0017
3579.00,0.0018
3578.00,0.0018
3577.00,0.0018
3576.00,0.0017
3575.00,0.0017
3574.00,0.0018
3573.00,0.0018
3572.00,0.0019
3571.00,0.0019
3570.00,0.0019
3569.00,0.0019
3568.00,0.0020
3567.00,0.0020
3566.00,0.0020
3565.00,0.0020
3564.00,0.0020
3563.00,0.0021
3562.00,0.0021
3561.00,0.0021
3560.00,0.0022
3559.00,0.0022
3558.00,0.0023
3557.00,0.0023
3556.00,0.0024
3555.00,0.0024
3554.00,0.0024
3553.00,0.0024
3552.00,0.0024
3551.00,0.0025
3550.00,0.0025
3549.00,0.0025
3548.00,0.0026
3547.00,0.0026
3546.00,0.0027
3545.00,0.0028
3544.00,0.0028
3543.00,0.0029
3542.00,0.0029
3541.00,0.0029
3540.00,0.0029
3539.00,0.0030
3538.00,0.0030
3537.00,0.0031
3536.00,0.0031
3535.00,0.0031
3534.00,0.0031
3533.00,0.0031
3532.00,0.0031
3531.00,0.0031
3530.00,0.0031
3529.00,0.0032
3528.00,0.0032
3527.00,0.0032
3526.00,0.0033
3525.00,0.0033
3524.00,0.0034
3523.00,0.0034
3522.00,0.0035
3521.00,0.0036
3520.00,0.0036
3519.00,0.0036
3518.00,0.0036
3517.00,0.0036
3516.00,0.0037
3515.00,0.0037
3514.00,0.0038
3513.00,0.0038
3512.00,0.0038
3511.00,0.0038
3510.00,0.0038
3509.00,0.0039
3508.00,0.0039
3507.00,0.0040
3506.00,0.0040
3505.00,0.0040
3504.00,0.0040
3503.00,0.0041
3502.00,0.0042
3501.00,0.0042
3500.00,0.0043
3499.00,0.0043
3498.00,0.0043
3497.00,0.0043
3496.00,0.0043
3495.00,0.0043
3494.00,0.0043
3493.00,0.0044
3492.00,0.0044
3491.00,0.0045
3490.00,0.0045
3489.00,0.0046
3488.00,0.0046
3487.00,0.0047
3486.00,0.0047
3485.00,0.0047
3484.00,0.0047
3483.00,0.0047
3482.00,0.0048
3481.00,0.0048
3480.00,0.0048
3479.00,0.0049
3478.00,0.0050
3477.00,0.0050
3476.00,0.0051
3475.00,0.0051
3474.00,0.0051
3473.00,0.0052
3472.00,0.0052
3471.00,0.0052
3470.00,0.0052
3469.00,0.0052
3468.00,0.0052
3467.00,0.0052
3466.00,0.0052
3465.00,0.0053
3464.00,0.0053
3463.00,0.0053
3462.00,0.0053
3461.00,0.0054
3460.00,0.0054
3459.00,0.0055
3458.00,0.0055
3457.00,0.0056
3456.00,0.0057
3455.00,0.0057
3454.00,0.0057
3453.00,0.0057
3452.00,0.0057
3451.00,0.0057
3450.00,0.0057
3449.00,0.0057
3448.00,0.0057
3447.00,0.0057
3446.00,0.0058
3445.00,0.0058
3444.00,0.0059
3443.00,0.0059
3442.00,0.0060
3441.00,0.0060
3440.00,0.0061
3439.00,0.0061
3438.00,0.0061
3437.00,0.0061
3436.00,0.0061
3435.00,0.0062
3434.00,0.0062
3433.00,0.0062
3432.00,0.0063
3431.00,0.0063
3430.00,0.0063
3429.00,0.0063
3428.00,0.0063
3427.00,0.0064
3426.00,0.0064
3425.00,0.0064
3424.00,0.0064
3423.00,0.0064
3422.00,0.0065
3421.00,0.0065
3420.00,0.0065
3419.00,0.0065
3418.00,0.0065
3417.00,0.0066
3416.00,0.0066
3415.00,0.0066
3414.00,0.0067
3413.00,0.0067
3412.00,0.0067
3411.00,0.0066
3410.00,0.0066
3409.00,0.0066
3408.00,0.0067
3407.00,0.0067
3406.00,0.0067
3405.00,0.0068
3404.00,0.0068
3403.00,0.0068
3402.00,0.0069
3401.00,0.0069
3400.00,0.0070
3399.00,0.0070
3398.00,0.0070
3397.00,0.0069
3396.00,0.0069
3395.00,0.0070
3394.00,0.0070
3393.00,0.0070
3392.00,0.0071
3391.00,0.0071
3390.00,0.0071
3389.00,0.0070
3388.00,0.0070
3387.00,0.0070
3386.00,0.0070
3385.00,0.0070
3384.00,0.0070
3383.00,0.0070
3382.00,0.0070
3381.00,0.0070
3380.00,0.0070
3379.00,0.0071
3378.00,0.0071
3377.00,0.0071
3376.00,0.0071
3375.00,0.0071
3374.00,0.0071
3373.00,0.0071
3372.00,0.0071
3371.00,0.0071
3370.00,0.0071
3369.00,0.0072
3368.00,0.0072
3367.00,0.0072
3366.00,0.0072
3365.00,0.0072
3364.00,0.0072
3363.00,0.0072
3362.00,0.0072
3361.00,0.0072
3360.00,0.0072
3359.00,0.0072
3358.00,0.0072
3357.00,0.0072
3356.00,0.0072
3355.00,0.0072
3354.00,0.0072
3353.00,0.0073
3352.00,0.0073
3351.00,0.0073
3350.00,0.0073
3349.00,0.0072
3348.00,0.0072
3347.00,0.0072
3346.00,0.0072
3345.00,0.0072
3344.00,0.0071
3343.00,0.0071
3342.00,0.0071
3341.00,0.0071
3340.00,0.0071
3339.00,0.0071
3338.00,0.0071
3337.00,0.0071
3336.00,0.0071
3335.00,0.0071
3334.00,0.0071
3333.00,0.0071
3332.00,0.0071
3331.00,0.0071
3330.00,0.0071
3329.00,0.0071
3328.00,0.0071
3327.00,0.0071
3326.00,0.0071
3325.00,0.0071
3324.00,0.0070
3323.00,0.0070
3322.00,0.0069
3321.00,0.0069
3320.00,0.0069
3319.00,0.0070
3318.00,0.0070
3317.00,0.0070
3316.00,0.0070
3315.00,0.0070
3314.00,0.0070
3313.00,0.0070
3312.00,0.0070
3311.00,0.0070
3310.00,0.0070
3309.00,0.0070
3308.00,0.0070
3307.00,0.0071
3306.00,0.0071
3305.00,0.0071
3304.00,0.0071
3303.00,0.0071
3302.00,0.0071
3301.00,0.0071
3300.00,0.0071
3299.00,0.0071
3298.00,0.0071
3297.00,0.0070
3296.00,0.0070
3295.00,0.0069
3294.00,0.0069
3293.00,0.0068
3292.00,0.0068
3291.00,0.0068
3290.00,0.0068
3289.00,0.0068
3288.00,0.0067
3287.00,0.0067
3286.00,0.0066
3285.00,0.0066
3284.00,0.0066
3283.00,0.0066
3282.00,0.0066
3281.00,0.0065
3280.00,0.0065
3279.00,0.0065
3278.00,0.0064
3277.00,0.0064
3276.00,0.0064
3275.00,0.0064
3274.00,0.0064
3273.00,0.0063
3272.00,0.0063
3271.00,0.0062
3270.00,0.0062
3269.00,0.0062
3268.00,0.0062
3267.00,0.0062
3266.00,0.0062
3265.00,0.0062
3264.00,0.0062
3263.00,0.0062
3262.00,0.0061
3261.00,0.0061
3260.00,0.0061
3259.00,0.0061
3258.00,0.0061
3257.00,0.0060
3256.00,0.0060
3255.00,0.0060
3254.00,0.0059
3253.00,0.0059
3252.00,0.0059
3251.00,0.0058
3250.00,0.0058
3249.00,0.0058
3248.00,0.0058
3247.00,0.0058
3246.00,0.0058
3245.00,0.0057
3244.00,0.0057
3243.00,0.0056
3242.00,0.0056
3241.00,0.0056
3240.00,0.0056
3239.00,0.0056
3238.00,0.0056
3237.00,0.0056
3236.00,0.0056
3235.00,0.0056
3234.00,0.0056
3233.00,0.0056
3232.00,0.0056
3231.00,0.0056
3230.00,0.0056
3229.00,0.0056
3228.00,0.0056
3227.00,0.0056
3226.00,0.0056
3225.00,0.0056
3224.00,0.0057
3223.00,0.0057
3222.00,0.0057
3221.00,0.0057
3220.00,0.0057
3219.00,0.0056
3218.00,0.0056
3217.00,0.0056
3216.00,0.0056
3215.00,0.0056
3214.00,0.0056
3213.00,0.0057
3212.00,0.0057
3211.00,0.0057
3210.00,0.0057
3209.00,0.0057
3208.00,0.0057
3207.00,0.0057
3206.00,0.0058
3205.00,0.0058
3204.00,0.0058
3203.00,0.0058
3202.00,0.0059
3201.00,0.0059
3200.00,0.0058
3199.00,0.0058
3198.00,0.0058
3197.00,0.0058
3196.00,0.0058
3195.00,0.0057
3194.00,0.0057
3193.00,0.0057
3192.00,0.0056
3191.00,0.0056
3190.00,0.0056
3189.00,0.0056
3188.00,0.0056
3187.00,0.0056
3186.00,0.0056
3185.00,0.0056
3184.00,0.0056
3183.00,0.0055
3182.00,0.0055
3181.00,0.0055
3180.00,0.0055
3179.00,0.0054
3178.00,0.0054
3177.00,0.0054
3176.00,0.0054
3175.00,0.0053
3174.00,0.0053
3173.00,0.0053
3172.00,0.0052
3171.00,0.0052
3170.00,0.0052
3169.00,0.0052
3168.00,0.0052
3167.00,0.0052
3166.00,0.0051
3165.00,0.0051
3164.00,0.0051
3163.00,0.0051
3162.00,0.0051
3161.00,0.0051
3160.00,0.0051
3159.00,0.0051
3158.00,0.0051
3157.00,0.0051
3156.00,0.0051
3155.00,0.0050
3154.00,0.0050
3153.00,0.0049
3152.00,0.0049
3151.00,0.0049
3150.00,0.0049
3149.00,0.0049
3148.00,0.0049
3147.00,0.0049
3146.00,0.0049
3145.00,0.0049
3144.00,0.0049
3143.00,0.0048
3142.00,0.0048
3141.00,0.0048
3140.00,0.0048
3139.00,0.0047
3138.00,0.0047
3137.00,0.0047
3136.00,0.0046
3135.00,0.0046
3134.00,0.0046
3133.00,0.0045
3132.00,0.0045
3131.00,0.0045
3130.00,0.0045
3129.00,0.0045
3128.00,0.0045
3127.00,0.0045
3126.00,0.0045
3125.00,0.0044
3124.00,0.0043
3123.00,0.0043
3122.00,0.0043
3121.00,0.0042
3120.00,0.0042
3119.00,0.0042
3118.00,0.0042
3117.00,0.0042
3116.00,0.0041
3115.00,0.0041
3114.00,0.0041
3113.00,0.0041
3112.00,0.0041
3111.00,0.0040
3110.00,0.0040
3109.00,0.0040
3108.00,0.0040
3107.00,0.0040
3106.00,0.0040
3105.00,0.0040
3104.00,0.0040
3103.00,0.0039
3102.00,0.0039
3101.00,0.0039
3100.00,0.0039
3099.00,0.0039
3098.00,0.0039
3097.00,0.0039
3096.00,0.0039
3095.00,0.0038
3094.00,0.0038
3093.00,0.0038
3092.00,0.0038
3091.00,0.0038
3090.00,0.0038
3089.00,0.0038
3088.00,0.0038
3087.00,0.0038
3086.00,0.0038
3085.00,0.0038
3084.00,0.0038
3083.00,0.0038
3082.00,0.0037
3081.00,0.0037
3080.00,0.0037
3079.00,0.0037
3078.00,0.0037
3077.00,0.0037
3076.00,0.0037
3075.00,0.0037
3074.00,0.0037
3073.00,0.0037
3072.00,0.0037
3071.00,0.0038
3070.00,0.0038
3069.00,0.0038
3068.00,0.0039
3067.00,0.0039
3066.00,0.0040
3065.00,0.0040
3064.00,0.0040
3063.00,0.0040
3062.00,0.0040
3061.00,0.0039
3060.00,0.0039
3059.00,0.0039
3058.00,0.0039
3057.00,0.0040
3056.00,0.0040
3055.00,0.0041
3054.00,0.0041
3053.00,0.0041
3052.00,0.0041
3051.00,0.0040
3050.00,0.0040
3049.00,0.0040
3048.00,0.0040
3047.00,0.0041
3046.00,0.0041
3045.00,0.0042
3044.00,0.0042
3043.00,0.0043
3042.00,0.0043
3041.00,0.0043
3040.00,0.0043
3039.00,0.0043
3038.00,0.0044
3037.00,0.0044
3036.00,0.0045
3035.00,0.0045
3034.00,0.0045
3033.00,0.0046
3032.00,0.0046
3031.00,0.0047
3030.00,0.0047
3029.00,0.0048
3028.00,0.0048
3027.00,0.0049
3026.00,0.0049
3025.00,0.0049
3024.00,0.0049
3023.00,0.0050
3022.00,0.0051
3021.00,0.0052
3020.00,0.0052
3019.00,0.0053
3018.00,0.0053
3017.00,0.0054
3016.00,0.0054
3015.00,0.0055
3014.00,0.0055
3013.00,0.0056
3012.00,0.0056
3011.00,0.0057
3010.00,0.0058
3009.00,0.0058
3008.00,0.0059
3007.00,0.0059
3006.00,0.0059
3005.00,0.0059
3004.00,0.0060
3003.00,0.0061
3002.00,0.0062
3001.00,0.0063
3000.00,0.0065
2999.00,0.0067
2998.00,0.0070
2997.00,0.0073
2996.00,0.0076
2995.00,0.0079
2994.00,0.0082
2993.00,0.0086
2992.00,0.0091
2991.00,0.0097
2990.00,0.0103
2989.00,0.0109
2988.00,0.0116
2987.00,0.0123
2986.00,0.0131
2985.00,0.0139
2984.00,0.0147
2983.00,0.0158
2982.00,0.0171
2981.00,0.0188
2980.00,0.0209
2979.00,0.0234
2978.00,0.0262
2977.00,0.0293
2976.00,0.0327
2975.00,0.0366
2974.00,0.0411
2973.00,0.0461
2972.00,0.0518
2971.00,0.0584
2970.00,0.0658
2969.00,0.0740
2968.00,0.0830
2967.00,0.0929
2966.00,0.1034
2965.00,0.1144
2964.00,0.1256
2963.00,0.1365
2962.00,0.1464
2961.00,0.1549
2960.00,0.1616
2959.00,0.1665
2958.00,0.1698
2957.00,0.1721
2956.00,0.1743
2955.00,0.1767
2954.00,0.1794
2953.00,0.1823
2952.00,0.1845
2951.00,0.1853
2950.00,0.1836
2949.00,0.1789
2948.00,0.1713
2947.00,0.1613
2946.00,0.1499
2945.00,0.1383
2944.00,0.1275
2943.00,0.1183
2942.00,0.1112
2941.00,0.1063
2940.00,0.1037
2939.00,0.1031
2938.00,0.1043
2937.00,0.1071
2936.00,0.1114
2935.00,0.1170
2934.00,0.1237
2933.00,0.1316
2932.00,0.1404
2931.00,0.1499
2930.00,0.1600
2929.00,0.1702
2928.00,0.1803
2927.00,0.1901
2926.00,0.1994
2925.00,0.2081
2924.00,0.2165
2923.00,0.2245
2922.00,0.2322
2921.00,0.2393
2920.00,0.2453
2919.00,0.2494
2918.00,0.2509
2917.00,0.2495
2916.00,0.2452
2915.00,0.2387
2914.00,0.2307
2913.00,0.2223
2912.00,0.2142
2911.00,0.2068
2910.00,0.2004
2909.00,0.1947
2908.00,0.1895
2907.00,0.1845
2906.00,0.1794
2905.00,0.1739
2904.00,0.1681
2903.00,0.1619
2902.00,0.1556
2901.00,0.1492
2900.00,0.1430
2899.00,0.1371
2898.00,0.1315
2897.00,0.1262
2896.00,0.1215
2895.00,0.1173
2894.00,0.1137
2893.00,0.1107
2892.00,0.1083
2891.00,0.1064
2890.00,0.1050
2889.00,0.1040
2888.00,0.1033
2887.00,0.1030
2886.00,0.1029
2885.00,0.1032
2884.00,0.1038
2883.00,0.1048
2882.00,0.1062
2881.00,0.1077
2880.00,0.1091
2879.00,0.1102
2878.00,0.1108
2877.00,0.1107
2876.00,0.1101
2875.00,0.1094
2874.00,0.1090
2873.00,0.1091
2872.00,0.1099
2871.00,0.1112
2870.00,0.1129
2869.00,0.1145
2868.00,0.1154
2867.00,0.1149
2866.00,0.1127
2865.00,0.1087
2864.00,0.1031
2863.00,0.0969
2862.00,0.0908
2861.00,0.0856
2860.00,0.0816
2859.00,0.0790
2858.00,0.0778
2857.00,0.0777
2856.00,0.0784
2855.00,0.0798
2854.00,0.0815
2853.00,0.0835
2852.00,0.0854
2851.00,0.0871
2850.00,0.0884
2849.00,0.0893
2848.00,0.0902
2847.00,0.0915
2846.00,0.0937
2845.00,0.0970
2844.00,0.1013
2843.00,0.1064
2842.00,0.1118
2841.00,0.1168
2840.00,0.1206
2839.00,0.1225
2838.00,0.1217
2837.00,0.1179
2836.00,0.1112
2835.00,0.1023
2834.00,0.0920
2833.00,0.0814
2832.00,0.0714
2831.00,0.0626
2830.00,0.0551
2829.00,0.0490
2828.00,0.0440
2827.00,0.0399
2826.00,0.0365
2825.00,0.0338
2824.00,0.0314
2823.00,0.0294
2822.00,0.0277
2821.00,0.0263
2820.00,0.0250
2819.00,0.0239
2818.00,0.0229
2817.00,0.0220
2816.00,0.0213
2815.00,0.0206
2814.00,0.0200
2813.00,0.0194
2812.00,0.0189
2811.00,0.0183
2810.00,0.0178
2809.00,0.0173
2808.00,0.0167
2807.00,0.0161
2806.00,0.0155
2805.00,0.0149
2804.00,0.0142
2803.00,0.0136
2802.00,0.0131
2801.00,0.0127
2800.00,0.0123
2799.00,0.0120
2798.00,0.0118
2797.00,0.0116
2796.00,0.0114
2795.00,0.0112
2794.00,0.0109
2793.00,0.0106
2792.00,0.0103
2791.00,0.0100
2790.00,0.0096
2789.00,0.0092
2788.00,0.0089
2787.00,0.0085
2786.00,0.0082
2785.00,0.0079
2784.00,0.0077
2783.00,0.0074
2782.00,0.0072
2781.00,0.0071
2780.00,0.0069
2779.00,0.0067
2778.00,0.0065
2777.00,0.0063
2776.00,0.0062
2775.00,0.0061
2774.00,0.0060
2773.00,0.0059
2772.00,0.0059
2771.00,0.0058
2770.00,0.0058
2769.00,0.0058
2768.00,0.0058
2767.00,0.0058
2766.00,0.0058
2765.00,0.0057
2764.00,0.0057
2763.00,0.0056
2762.00,0.0056
2761.00,0.0056
2760.00,0.0055
2759.00,0.0055
2758.00,0.0055
2757.00,0.0054
2756.00,0.0054
2755.00,0.0054
2754.00,0.0053
2753.00,0.0053
2752.00,0.0053
2751.00,0.0053
2750.00,0.0053
2749.00,0.0053
2748.00,0.0053
2747.00,0.0053
2746.00,0.0054
2745.00,0.0054
2744.00,0.0055
2743.00,0.0055
2742.00,0.0056
2741.00,0.0057
2740.00,0.0058
2739.00,0.0059
2738.00,0.0061
2737.00,0.0062
2736.00,0.0064
2735.00,0.0065
2734.00,0.0066
2733.00,0.0067
2732.00,0.0069
2731.00,0.0070
2730.00,0.0071
2729.00,0.0073
2728.00,0.0076
2727.00,0.0078
2726.00,0.0080
2725.00,0.0083
2724.00,0.0084
2723.00,0.0085
2722.00,0.0085
2721.00,0.0083
2720.00,0.0081
2719.00,0.0078
2718.00,0.0075
2717.00,0.0072
2716.00,0.0069
2715.00,0.0066
2714.00,0.0064
2713.00,0.0062
2712.00,0.0061
2711.00,0.0059
2710.00,0.0058
2709.00,0.0056
2708.00,0.0055
2707.00,0.0054
2706.00,0.0052
2705.00,0.0052
2704.00,0.0051
2703.00,0.0050
2702.00,0.0050
2701.00,0.0049
2700.00,0.0048
2699.00,0.0047
2698.00,0.0047
2697.00,0.0047
2696.00,0.0047
2695.00,0.0047
2694.00,0.0047
2693.00,0.0047
2692.00,0.0047
2691.00,0.0047
2690.00,0.0047
2689.00,0.0047
2688.00,0.0047
2687.00,0.0047
2686.00,0.0047
2685.00,0.0047
2684.00,0.0047
2683.00,0.0047
2682.00,0.0047
2681.00,0.0047
2680.00,0.0047
2679.00,0.0047
2678.00,0.0046
2677.00,0.0047
2676.00,0.0047
2675.00,0.0047
2674.00,0.0046
2673.00,0.0046
2672.00,0.0045
2671.00,0.0045
2670.00,0.0045
2669.00,0.0045
2668.00,0.0045
2667.00,0.0045
2666.00,0.0045
2665.00,0.0046
2664.00,0.0046
2663.00,0.0047
2662.00,0.0048
2661.00,0.0048
2660.00,0.0048
2659.00,0.0048
2658.00,0.0048
2657.00,0.0048
2656.00,0.0047
2655.00,0.0047
2654.00,0.0046
2653.00,0.0046
2652.00,0.0045
2651.00,0.0044
2650.00,0.0044
2649.00,0.0043
2648.00,0.0043
2647.00,0.0043
2646.00,0.0042
2645.00,0.0042
2644.00,0.0042
2643.00,0.0042
2642.00,0.0041
2641.00,0.0041
2640.00,0.0040
2639.00,0.0040
2638.00,0.0040
2637.00,0.0040
2636.00,0.0039
2635.00,0.0039
2634.00,0.0039
2633.00,0.0039
2632.00,0.0039
2631.00,0.0040
2630.00,0.0040
2629.00,0.0040
2628.00,0.0040
2627.00,0.0041
2626.00,0.0041
2625.00,0.0041
2624.00,0.0041
2623.00,0.0040
2622.00,0.0039
2621.00,0.0039
2620.00,0.0039
2619.00,0.0040
2618.00,0.0040
2617.00,0.0041
2616.00,0.0041
2615.00,0.0041
2614.00,0.0041
2613.00,0.0040
2612.00,0.0039
2611.00,0.0038
2610.00,0.0037
2609.00,0.0037
2608.00,0.0036
2607.00,0.0036
2606.00,0.0035
2605.00,0.0034
2604.00,0.0033
2603.00,0.0032
2602.00,0.0032
2601.00,0.0032
2600.00,0.0032
2599.00,0.0032
2598.00,0.0032
2597.00,0.0032
2596.00,0.0031
2595.00,0.0031
2594.00,0.0032
2593.00,0.0033
2592.00,0.0033
2591.00,0.0034
2590.00,0.0034
2589.00,0.0035
2588.00,0.0035
2587.00,0.0036
2586.00,0.0037
2585.00,0.0037
2584.00,0.0038
2583.00,0.0038
2582.00,0.0038
2581.00,0.0037
2580.00,0.0036
2579.00,0.0035
2578.00,0.0034
2577.00,0.0034
2576.00,0.0033
2575.00,0.0032
2574.00,0.0031
2573.00,0.0029
2572.00,0.0028
2571.00,0.0027
2570.00,0.0026
2569.00,0.0026
2568.00,0.0026
2567.00,0.0026
2566.00,0.0026
2565.00,0.0025
2564.00,0.0025
2563.00,0.0024
2562.00,0.0024
2561.00,0.0024
2560.00,0.0024
2559.00,0.0024
2558.00,0.0024
2557.00,0.0024
2556.00,0.0024
2555.00,0.0023
2554.00,0.0022
2553.00,0.0021
2552.00,0.0020
2551.00,0.0020
2550.00,0.0020
2549.00,0.0020
2548.00,0.0020
2547.00,0.0020
2546.00,0.0020
2545.00,0.0020
2544.00,0.0020
2543.00,0.0020
2542.00,0.0019
2541.00,0.0019
2540.00,0.0018
2539.00,0.0018
2538.00,0.0017
2537.00,0.0017
2536.00,0.0017
2535.00,0.0017
2534.00,0.0017
2533.00,0.0017
2532.00,0.0017
2531.00,0.0016
2530.00,0.0016
2529.00,0.0016
2528.00,0.0015
2527.00,0.0015
2526.00,0.0014
2525.00,0.0014
2524.00,0.0014
2523.00,0.0015
2522.00,0.0015
2521.00,0.0015
2520.00,0.0015
2519.00,0.0014
2518.00,0.0014
2517.00,0.0013
2516.00,0.0013
2515.00,0.0013
2514.00,0.0013
2513.00,0.0013
2512.00,0.0012
2511.00,0.0012
2510.00,0.0011
2509.00,0.0011
2508.00,0.0011
2507.00,0.0011
2506.00,0.0011
2505.00,0.0010
2504.00,0.0010
2503.00,0.0011
2502.00,0.0011
2501.00,0.0011
2500.00,0.0012
2499.00,0.0012
2498.00,0.0012
2497.00,0.0011
2496.00,0.0011
2495.00,0.0011
2494.00,0.0011
2493.00,0.0011
2492.00,0.0011
2491.00,0.0011
2490.00,0.0011
2489.00,0.0011
2488.00,0.0011
2487.00,0.0011
2486.00,0.0010
2485.00,0.0010
2484.00,0.0010
2483.00,0.0010
2482.00,0.0009
2481.00,0.0009
2480.00,0.0010
2479.00,0.0010
2478.00,0.0011
2477.00,0.0010
2476.00,0.0010
2475.00,0.0010
2474.00,0.0010
2473.00,0.0010
2472.00,0.0010
2471.00,0.0010
2470.00,0.0010
2469.00,0.0010
2468.00,0.0010
2467.00,0.0009
2466.00,0.0009
2465.00,0.0009
2464.00,0.0008
2463.00,0.0009
2462.00,0.0010
2461.00,0.0010
2460.00,0.0011
2459.00,0.0012
2458.00,0.0012
2457.00,0.0012
2456.00,0.0012
2455.00,0.0011
2454.00,0.0010
2453.00,0.0010
2452.00,0.0010
2451.00,0.0011
2450.00,0.0012
2449.00,0.0012
2448.00,0.0012
2447.00,0.0011
2446.00,0.0010
2445.00,0.0009
2444.00,0.0009
2443.00,0.0009
2442.00,0.0010
2441.00,0.0010
2440.00,0.0011
2439.00,0.0011
2438.00,0.0011
2437.00,0.0011
2436.00,0.0011
2435.00,0.0012
2434.00,0.0012
2433.00,0.0013
2432.00,0.0013
2431.00,0.0013
2430.00,0.0013
2429.00,0.0013
2428.00,0.0013
2427.00,0.0013
2426.00,0.0013
2425.00,0.0012
2424.00,0.0012
2423.00,0.0012
2422.00,0.0012
2421.00,0.0011
2420.00,0.0011
2419.00,0.0011
2418.00,0.0011
2417.00,0.0011
2416.00,0.0011
2415.00,0.0011
2414.00,0.0012
2413.00,0.0012
2412.00,0.0012
2411.00,0.0011
2410.00,0.0010
2409.00,0.0010
2408.00,0.0009
2407.00,0.0009
2406.00,0.0009
2405.00,0.0008
2404.00,0.0007
2403.00,0.0007
2402.00,0.0007
2401.00,0.0008
2400.00,0.0009
2399.00,0.0009
2398.00,0.0009
2397.00,0.0009
2396.00,0.0009
2395.00,0.0008
2394.00,0.0008
2393.00,0.0008
2392.00,0.0008
2391.00,0.0008
2390.00,0.0008
2389.00,0.0008
2388.00,0.0008
2387.00,0.0008
2386.00,0.0008
2385.00,0.0007
2384.00,0.0006
2383.00,0.0006
2382.00,0.0005
2381.00,0.0005
2380.00,0.0004
2379.00,0.0004
2378.00,0.0004
2377.00,0.0004
2376.00,0.0004
2375.00,0.0004
2374.00,0.0004
2373.00,0.0004
2372.00,0.0004
2371.00,0.0004
2370.00,0.0005
2369.00,0.0005
2368.00,0.0004
2367.00,0.0004
2366.00,0.0003
2365.00,0.0002
2364.00,0.0002
2363.00,0.0003
2362.00,0.0004
2361.00,0.0004
2360.00,0.0005
2359.00,0.0005
2358.00,0.0005
2357.00,0.0006
2356.00,0.0005
2355.00,0.0005
2354.00,0.0004
2353.00,0.0004
2352.00,0.0004
2351.00,0.0004
2350.00,0.0005
2349.00,0.0005
2348.00,0.0006
2347.00,0.0006
2346.00,0.0006
2345.00,0.0007
2344.00,0.0007
2343.00,0.0006
2342.00,0.0007
2341.00,0.0007
2340.00,0.0008
2339.00,0.0008
2338.00,0.0008
2337.00,0.0008
2336.00,0.0008
2335.00,0.0008
2334.00,0.0007
2333.00,0.0006
2332.00,0.0006
2331.00,0.0007
2330.00,0.0008
2329.00,0.0009
2328.00,0.0010
2327.00,0.0013
2326.00,0.0017
2325.00,0.0020
2324.00,0.0021
2323.00,0.0020
2322.00,0.0018
2321.00,0.0015
2320.00,0.0014
2319.00,0.0013
2318.00,0.0012
2317.00,0.0011
2316.00,0.0011
2315.00,0.0010
2314.00,0.0010
2313.00,0.0010
2312.00,0.0010
2311.00,0.0010
2310.00,0.0010
2309.00,0.0010
2308.00,0.0010
2307.00,0.0010
2306.00,0.0011
2305.00,0.0011
2304.00,0.0011
2303.00,0.0011
2302.00,0.0011
2301.00,0.0011
2300.00,0.0011
2299.00,0.0012
2298.00,0.0013
2297.00,0.0014
2296.00,0.0014
2295.00,0.0015
2294.00,0.0015
2293.00,0.0015
2292.00,0.0016
2291.00,0.0016
2290.00,0.0017
2289.00,0.0017
2288.00,0.0017
2287.00,0.0018
2286.00,0.0019
2285.00,0.0019
2284.00,0.0018
2283.00,0.0017
2282.00,0.0015
2281.00,0.0014
2280.00,0.0014
2279.00,0.0013
2278.00,0.0013
2277.00,0.0013
2276.00,0.0014
2275.00,0.0014
2274.00,0.0015
2273.00,0.0015
2272.00,0.0015
2271.00,0.0015
2270.00,0.0015
2269.00,0.0015
2268.00,0.0014
2267.00,0.0013
2266.00,0.0012
2265.00,0.0012
2264.00,0.0013
2263.00,0.0014
2262.00,0.0014
2261.00,0.0014
2260.00,0.0013
2259.00,0.0013
2258.00,0.0013
2257.00,0.0013
2256.00,0.0012
2255.00,0.0012
2254.00,0.0011
2253.00,0.0011
2252.00,0.0010
2251.00,0.0010
2250.00,0.0009
2249.00,0.0009
2248.00,0.0009
2247.00,0.0009
2246.00,0.0010
2245.00,0.0010
2244.00,0.0010
2243.00,0.0010
2242.00,0.0011
2241.00,0.0012
2240.00,0.0011
2239.00,0.0011
2238.00,0.0010
2237.00,0.0009
2236.00,0.0008
2235.00,0.0007
2234.00,0.0006
2233.00,0.0006
2232.00,0.0006
2231.00,0.0008
2230.00,0.0010
2229.00,0.0012
2228.00,0.0013
2227.00,0.0013
2226.00,0.0013
2225.00,0.0011
2224.00,0.0009
2223.00,0.0007
2222.00,0.0007
2221.00,0.0007
2220.00,0.0007
2219.00,0.0006
2218.00,0.0006
2217.00,0.0006
2216.00,0.0008
2215.00,0.0009
2214.00,0.0009
2213.00,0.0008
2212.00,0.0006
2211.00,0.0004
2210.00,0.0002
2209.00,0.0001
2208.00,0.0002
2207.00,0.0003
2206.00,0.0005
2205.00,0.0005
2204.00,0.0006
2203.00,0.0005
2202.00,0.0006
2201.00,0.0006
2200.00,0.0008
2199.00,0.0009
2198.00,0.0011
2197.00,0.0012
2196.00,0.0012
2195.00,0.0011
2194.00,0.0010
2193.00,0.0011
2192.00,0.0011
2191.00,0.0011
2190.00,0.0010
2189.00,0.0010
2188.00,0.0011
2187.00,0.0012
2186.00,0.0013
2185.00,0.0013
2184.00,0.0012
2183.00,0.0010
2182.00,0.0007
2181.00,0.0003
2180.00,0.0001
2179.00,0.0000
2178.00,0.0002
2177.00,0.0004
2176.00,0.0005
2175.00,0.0004
2174.00,0.0004
2173.00,0.0005
2172.00,0.0008
2171.00,0.0011
2170.00,0.0013
2169.00,0.0014
2168.00,0.0014
2167.00,0.0012
2166.00,0.0011
2165.00,0.0011
2164.00,0.0013
2163.00,0.0016
2162.00,0.0018
2161.00,0.0016
2160.00,0.0007
2159.00,-0.0007
2158.00,-0.0021
2157.00,-0.0028
2156.00,-0.0029
2155.00,-0.0028
2154.00,-0.0025
2153.00,-0.0022
2152.00,-0.0018
2151.00,-0.0016
2150.00,-0.0015
2149.00,-0.0016
2148.00,-0.0016
2147.00,-0.0017
2146.00,-0.0016
2145.00,-0.0015
2144.00,-0.0014
2143.00,-0.0015
2142.00,-0.0015
2141.00,-0.0015
2140.00,-0.0014
2139.00,-0.0013
2138.00,-0.0012
2137.00,-0.0012
2136.00,-0.0013
2135.00,-0.0015
2134.00,-0.0017
2133.00,-0.0017
2132.00,-0.0017
2131.00,-0.0016
2130.00,-0.0014
2129.00,-0.0012
2128.00,-0.0010
2127.00,-0.0009
2126.00,-0.0009
2125.00,-0.0008
2124.00,-0.0007
2123.00,-0.0005
2122.00,-0.0003
2121.00,-0.0002
2120.00,-0.0002
2119.00,-0.0001
2118.00,-0.0000
2117.00,0.0002
2116.00,0.0004
2115.00,0.0005
2114.00,0.0006
2113.00,0.0005
2112.00,0.0004
2111.00,0.0003
2110.00,0.0003
2109.00,0.0004
2108.00,0.0005
2107.00,0.0005
2106.00,0.0004
2105.00,0.0002
2104.00,0.0001
2103.00,-0.0000
2102.00,-0.0000
2101.00,0.0001
2100.00,0.0002
2099.00,0.0003
2098.00,0.0002
2097.00,0.0000
2096.00,-0.0001
2095.00,-0.0002
2094.00,-0.0002
2093.00,-0.0002
2092.00,-0.0001
2091.00,-0.0001
2090.00,-0.0001
2089.00,-0.0000
2088.00,0.0000
2087.00,0.0002
2086.00,0.0003
2085.00,0.0003
2084.00,0.0004
2083.00,0.0004
2082.00,0.0004
2081.00,0.0004
2080.00,0.0004
2079.00,0.0005
2078.00,0.0006
2077.00,0.0006
2076.00,0.0006
2075.00,0.0006
2074.00,0.0005
2073.00,0.0004
2072.00,0.0002
2071.00,-0.0000
2070.00,-0.0001
2069.00,-0.0002
2068.00,-0.0002
2067.00,-0.0003
2066.00,-0.0004
2065.00,-0.0004
2064.00,-0.0003
2063.00,-0.0002
2062.00,-0.0002
2061.00,-0.0002
2060.00,-0.0002
2059.00,-0.0001
2058.00,-0.0001
2057.00,-0.0001
2056.00,-0.0001
2055.00,-0.0002
2054.00,-0.0000
2053.00,0.0004
2052.00,0.0010
2051.00,0.0015
2050.00,0.0017
2049.00,0.0013
2048.00,0.0008
2047.00,0.0003
2046.00,0.0001
2045.00,0.0001
2044.00,0.0004
2043.00,0.0006
2042.00,0.0006
2041.00,0.0004
2040.00,-0.0000
2039.00,-0.0005
2038.00,-0.0008
2037.00,-0.0008
2036.00,-0.0006
2035.00,-0.0004
2034.00,-0.0004
2033.00,-0.0005
2032.00,-0.0006
2031.00,-0.0007
2030.00,-0.0007
2029.00,-0.0007
2028.00,-0.0007
2027.00,-0.0008
2026.00,-0.0009
2025.00,-0.0009
2024.00,-0.0010
2023.00,-0.0011
2022.00,-0.0013
2021.00,-0.0015
2020.00,-0.0017
2019.00,-0.0018
2018.00,-0.0018
2017.00,-0.0017
2016.00,-0.0014
2015.00,-0.0012
2014.00,-0.0012
2013.00,-0.0011
2012.00,-0.0012
2011.00,-0.0012
2010.00,-0.0013
2009.00,-0.0015
2008.00,-0.0017
2007.00,-0.0018
2006.00,-0.0019
2005.00,-0.0020
2004.00,-0.0019
2003.00,-0.0018
2002.00,-0.0016
2001.00,-0.0014
2000.00,-0.0012
1999.00,-0.0012
1998.00,-0.0012
1997.00,-0.0012
1996.00,-0.0011
1995.00,-0.0010
1994.00,-0.0010
1993.00,-0.0010
1992.00,-0.0009
1991.00,-0.0008
1990.00,-0.0006
1989.00,-0.0004
1988.00,-0.0002
1987.00,-0.0002
1986.00,-0.0002
1985.00,-0.0002
1984.00,-0.0001
1983.00,0.0001
1982.00,0.0002
1981.00,0.0004
1980.00,0.0006
1979.00,0.0004
1978.00,-0.0001
1977.00,-0.0008
1976.00,-0.0015
1975.00,-0.0020
1974.00,-0.0022
1973.00,-0.0021
1972.00,-0.0019
1971.00,-0.0020
1970.00,-0.0021
1969.00,-0.0021
1968.00,-0.0019
1967.00,-0.0017
1966.00,-0.0015
1965.00,-0.0015
1964.00,-0.0014
1963.00,-0.0014
1962.00,-0.0015
1961.00,-0.0018
1960.00,-0.0022
1959.00,-0.0025
1958.00,-0.0025
1957.00,-0.0023
1956.00,-0.0019
1955.00,-0.0018
1954.00,-0.0018
1953.00,-0.0019
1952.00,-0.0020
1951.00,-0.0020
1950.00,-0.0019
1949.00,-0.0018
1948.00,-0.0017
1947.00,-0.0018
1946.00,-0.0018
1945.00,-0.0018
1944.00,-0.0017
1943.00,-0.0015
1942.00,-0.0014
1941.00,-0.0013
1940.00,-0.0012
1939.00,-0.0012
1938.00,-0.0012
1937.00,-0.0012
1936.00,-0.0012
1935.00,-0.0012
1934.00,-0.0012
1933.00,-0.0011
1932.00,-0.0011
1931.00,-0.0010
1930.00,-0.0008
1929.00,-0.0006
1928.00,-0.0004
1927.00,-0.0004
1926.00,-0.0006
1925.00,-0.0007
1924.00,-0.0007
1923.00,-0.0007
1922.00,-0.0005
1921.00,-0.0004
1920.00,-0.0002
1919.00,-0.0001
1918.00,-0.0001
1917.00,-0.0003
1916.00,-0.0004
1915.00,-0.0005
1914.00,-0.0005
1913.00,-0.0005
1912.00,-0.0005
1911.00,-0.0005
1910.00,-0.0004
1909.00,-0.0003
1908.00,-0.0002
1907.00,-0.0001
1906.00,-0.0001
1905.00,-0.0001
1904.00,-0.0001
1903.00,-0.0002
1902.00,-0.0003
1901.00,-0.0003
1900.00,-0.0002
1899.00,-0.0002
1898.00,-0.0001
1897.00,-0.0001
1896.00,-0.0000
1895.00,-0.0001
1894.00,-0.0001
1893.00,-0.0001
1892.00,-0.0000
1891.00,0.0001
1890.00,0.0000
1889.00,-0.0001
1888.00,-0.0002
1887.00,-0.0002
1886.00,-0.0001
1885.00,-0.0001
1884.00,-0.0000
1883.00,-0.0001
1882.00,-0.0001
1881.00,-0.0001
1880.00,-0.0001
1879.00,-0.0002
1878.00,-0.0003
1877.00,-0.0003
1876.00,-0.0003
1875.00,-0.0003
1874.00,-0.0002
1873.00,-0.0002
1872.00,-0.0001
1871.00,-0.0001
1870.00,-0.0002
1869.00,-0.0002
1868.00,-0.0002
1867.00,-0.0001
1866.00,-0.0001
1865.00,-0.0001
1864.00,-0.0001
1863.00,-0.0001
1862.00,-0.0000
1861.00,-0.0000
1860.00,0.0000
1859.00,0.0000
1858.00,0.0000
1857.00,0.0000
1856.00,0.0001
1855.00,0.0001
1854.00,0.0001
1853.00,0.0002
1852.00,0.0002
1851.00,0.0002
1850.00,0.0001
1849.00,0.0000
1848.00,-0.0000
1847.00,-0.0000
1846.00,0.0000
1845.00,0.0001
1844.00,0.0001
1843.00,0.0001
1842.00,0.0001
1841.00,0.0002
1840.00,0.0003
1839.00,0.0003
1838.00,0.0003
1837.00,0.0003
1836.00,0.0003
1835.00,0.0003
1834.00,0.0002
1833.00,0.0002
1832.00,0.0003
1831.00,0.0003
1830.00,0.0004
1829.00,0.0003
1828.00,0.0003
1827.00,0.0003
1826.00,0.0003
1825.00,0.0004
1824.00,0.0004
1823.00,0.0004
1822.00,0.0003
1821.00,0.0001
1820.00,0.0001
1819.00,-0.0000
1818.00,-0.0001
1817.00,-0.0001
1816.00,-0.0001
1815.00,0.0000
1814.00,0.0002
1813.00,0.0003
1812.00,0.0004
1811.00,0.0004
1810.00,0.0005
1809.00,0.0005
1808.00,0.0005
1807.00,0.0005
1806.00,0.0005
1805.00,0.0004
1804.00,0.0004
1803.00,0.0004
1802.00,0.0004
1801.00,0.0005
1800.00,0.0005
1799.00,0.0006
1798.00,0.0006
1797.00,0.0006
1796.00,0.0007
1795.00,0.0007
1794.00,0.0007
1793.00,0.0006
1792.00,0.0007
1791.00,0.0007
1790.00,0.0007
1789.00,0.0007
1788.00,0.0007
1787.00,0.0007
1786.00,0.0007
1785.00,0.0007
1784.00,0.0008
1783.00,0.0009
1782.00,0.0009
1781.00,0.0010
1780.00,0.0010
1779.00,0.0009
1778.00,0.0009
1777.00,0.0009
1776.00,0.0009
1775.00,0.0009
1774.00,0.0009
1773.00,0.0010
1772.00,0.0011
1771.00,0.0012
1770.00,0.0013
1769.00,0.0013
1768.00,0.0014
1767.00,0.0014
1766.00,0.0014
1765.00,0.0015
1764.00,0.0015
1763.00,0.0016
1762.00,0.0016
1761.00,0.0017
1760.00,0.0018
1759.00,0.0018
1758.00,0.0019
1757.00,0.0020
1756.00,0.0020
1755.00,0.0021
1754.00,0.0021
1753.00,0.0022
1752.00,0.0022
1751.00,0.0023
1750.00,0.0023
1749.00,0.0024
1748.00,0.0024
1747.00,0.0025
1746.00,0.0025
1745.00,0.0025
1744.00,0.0025
1743.00,0.0024
1742.00,0.0025
1741.00,0.0025
1740.00,0.0026
1739.00,0.0026
1738.00,0.0027
1737.00,0.0027
1736.00,0.0026
1735.00,0.0025
1734.00,0.0025
1733.00,0.0025
1732.00,0.0026
1731.00,0.0026
1730.00,0.0026
1729.00,0.0026
1728.00,0.0026
1727.00,0.0026
1726.00,0.0027
1725.00,0.0028
1724.00,0.0028
1723.00,0.0029
1722.00,0.0030
1721.00,0.0030
1720.00,0.0031
1719.00,0.0030
1718.00,0.0029
1717.00,0.0028
1716.00,0.0028
1715.00,0.0028
1714.00,0.0028
1713.00,0.0027
1712.00,0.0027
1711.00,0.0027
1710.00,0.0027
1709.00,0.0027
1708.00,0.0027
1707.00,0.0027
1706.00,0.0027
1705.00,0.0028
1704.00,0.0028
1703.00,0.0029
1702.00,0.0029
1701.00,0.0029
1700.00,0.0030
1699.00,0.0030
1698.00,0.0030
1697.00,0.0031
1696.00,0.0032
1695.00,0.0032
1694.00,0.0033
1693.00,0.0033
1692.00,0.0034
1691.00,0.0035
1690.00,0.0036
1689.00,0.0036
1688.00,0.0037
1687.00,0.0037
1686.00,0.0038
1685.00,0.0039
1684.00,0.0041
1683.00,0.0043
1682.00,0.0044
1681.00,0.0045
1680.00,0.0046
1679.00,0.0047
1678.00,0.0048
1677.00,0.0049
1676.00,0.0050
1675.00,0.0051
1674.00,0.0051
1673.00,0.0052
1672.00,0.0054
1671.00,0.0055
1670.00,0.0056
1669.00,0.0057
1668.00,0.0058
1667.00,0.0058
1666.00,0.0059
1665.00,0.0059
1664.00,0.0060
1663.00,0.0062
1662.00,0.0063
1661.00,0.0063
1660.00,0.0064
1659.00,0.0064
1658.00,0.0065
1657.00,0.0065
1656.00,0.0066
1655.00,0.0067
1654.00,0.0068
1653.00,0.0071
1652.00,0.0072
1651.00,0.0073
1650.00,0.0073
1649.00,0.0073
1648.00,0.0074
1647.00,0.0075
1646.00,0.0076
1645.00,0.0076
1644.00,0.0077
1643.00,0.0077
1642.00,0.0078
1641.00,0.0080
1640.00,0.0082
1639.00,0.0083
1638.00,0.0085
1637.00,0.0086
1636.00,0.0086
1635.00,0.0085
1634.00,0.0083
1633.00,0.0082
1632.00,0.0081
1631.00,0.0080
1630.00,0.0080
1629.00,0.0080
1628.00,0.0079
1627.00,0.0079
1626.00,0.0078
1625.00,0.0078
1624.00,0.0077
1623.00,0.0077
1622.00,0.0077
1621.00,0.0077
1620.00,0.0077
1619.00,0.0077
1618.00,0.0077
1617.00,0.0076
1616.00,0.0076
1615.00,0.0076
1614.00,0.0076
1613.00,0.0076
1612.00,0.0077
1611.00,0.0076
1610.00,0.0076
1609.00,0.0076
1608.00,0.0076
1607.00,0.0076
1606.00,0.0076
1605.00,0.0076
1604.00,0.0076
1603.00,0.0076
1602.00,0.0075
1601.00,0.0075
1600.00,0.0075
1599.00,0.0075
1598.00,0.0075
1597.00,0.0075
1596.00,0.0075
1595.00,0.0075
1594.00,0.0075
1593.00,0.0075
1592.00,0.0075
1591.00,0.0075
1590.00,0.0075
1589.00,0.0074
1588.00,0.0074
1587.00,0.0074
1586.00,0.0074
1585.00,0.0075
1584.00,0.0076
1583.00,0.0077
1582.00,0.0077
1581.00,0.0078
1580.00,0.0079
1579.00,0.0080
1578.00,0.0080
1577.00,0.0080
1576.00,0.0080
1575.00,0.0079
1574.00,0.0079
1573.00,0.0079
1572.00,0.0079
1571.00,0.0079
1570.00,0.0079
1569.00,0.0079
1568.00,0.0079
1567.00,0.0079
1566.00,0.0079
1565.00,0.0079
1564.00,0.0079
1563.00,0.0079
1562.00,0.0079
1561.00,0.0079
1560.00,0.0080
1559.00,0.0080
1558.00,0.0081
1557.00,0.0081
1556.00,0.0083
1555.00,0.0083
1554.00,0.0084
1553.00,0.0085
1552.00,0.0086
1551.00,0.0087
1550.00,0.0087
1549.00,0.0087
1548.00,0.0088
1547.00,0.0089
1546.00,0.0090
1545.00,0.0091
1544.00,0.0091
1543.00,0.0091
1542.00,0.0089
1541.00,0.0087
1540.00,0.0086
1539.00,0.0085
1538.00,0.0083
1537.00,0.0082
1536.00,0.0081
1535.00,0.0080
1534.00,0.0077
1533.00,0.0075
1532.00,0.0073
1531.00,0.0071
1530.00,0.0070
1529.00,0.0070
1528.00,0.0069
1527.00,0.0068
1526.00,0.0067
1525.00,0.0066
1524.00,0.0066
1523.00,0.0066
1522.00,0.0065
1521.00,0.0066
1520.00,0.0066
1519.00,0.0067
1518.00,0.0068
1517.00,0.0069
1516.00,0.0069
1515.00,0.0068
1514.00,0.0067
1513.00,0.0067
1512.00,0.0069
1511.00,0.0070
1510.00,0.0071
1509.00,0.0071
1508.00,0.0072
1507.00,0.0073
1506.00,0.0074
1505.00,0.0074
1504.00,0.0076
1503.00,0.0077
1502.00,0.0078
1501.00,0.0081
1500.00,0.0083
1499.00,0.0086
1498.00,0.0088
1497.00,0.0091
1496.00,0.0094
1495.00,0.0097
1494.00,0.0100
1493.00,0.0103
1492.00,0.0107
1491.00,0.0111
1490.00,0.0116
1489.00,0.0122
1488.00,0.0128
1487.00,0.0132
1486.00,0.0136
1485.00,0.0141
1484.00,0.0148
1483.00,0.0155
1482.00,0.0163
1481.00,0.0173
1480.00,0.0185
1479.00,0.0197
1478.00,0.0211
1477.00,0.0232
1476.00,0.0257
1475.00,0.0286
1474.00,0.0326
1473.00,0.0382
1472.00,0.0448
1471.00,0.0511
1470.00,0.0571
1469.00,0.0634
1468.00,0.0701
1467.00,0.0773
1466.00,0.0855
1465.00,0.0941
1464.00,0.1017
1463.00,0.1070
1462.00,0.1105
1461.00,0.1130
1460.00,0.1149
1459.00,0.1162
1458.00,0.1175
1457.00,0.1187
1456.00,0.1192
1455.00,0.1190
1454.00,0.1183
1453.00,0.1170
1452.00,0.1149
1451.00,0.1116
1450.00,0.1070
1449.00,0.1003
1448.00,0.0917
1447.00,0.0823
1446.00,0.0737
1445.00,0.0662
1444.00,0.0597
1443.00,0.0542
1442.00,0.0501
1441.00,0.0471
1440.00,0.0452
1439.00,0.0441
1438.00,0.0438
1437.00,0.0434
1436.00,0.0421
1435.00,0.0397
1434.00,0.0364
1433.00,0.0325
1432.00,0.0284
1431.00,0.0248
1430.00,0.0219
1429.00,0.0197
1428.00,0.0182
1427.00,0.0172
1426.00,0.0165
1425.00,0.0160
1424.00,0.0154
1423.00,0.0151
1422.00,0.0149
1421.00,0.0146
1420.00,0.0143
1419.00,0.0141
1418.00,0.0139
1417.00,0.0136
1416.00,0.0133
1415.00,0.0131
1414.00,0.0129
1413.00,0.0127
1412.00,0.0125
1411.00,0.0124
1410.00,0.0124
1409.00,0.0123
1408.00,0.0121
1407.00,0.0120
1406.00,0.0120
1405.00,0.0119
1404.00,0.0118
1403.00,0.0117
1402.00,0.0118
1401.00,0.0118
1400.00,0.0117
1399.00,0.0118
1398.00,0.0120
1397.00,0.0121
1396.00,0.0122
1395.00,0.0125
1394.00,0.0129
1393.00,0.0133
1392.00,0.0137
1391.00,0.0145
1390.00,0.0155
1389.00,0.0169
1388.00,0.0189
1387.00,0.0221
1386.00,0.0263
1385.00,0.0318
1384.00,0.0393
1383.00,0.0498
1382.00,0.0637
1381.00,0.0813
1380.00,0.1026
1379.00,0.1260
1378.00,0.1479
1377.00,0.1631
1376.00,0.1672
1375.00,0.1579
1374.00,0.1379
1373.00,0.1144
1372.00,0.0931
1371.00,0.0757
1370.00,0.0618
1369.00,0.0512
1368.00,0.0438
1367.00,0.0393
1366.00,0.0368
1365.00,0.0357
1364.00,0.0358
1363.00,0.0369
1362.00,0.0386
1361.00,0.0405
1360.00,0.0418
1359.00,0.0422
1358.00,0.0412
1357.00,0.0390
1356.00,0.0359
1355.00,0.0325
1354.00,0.0291
1353.00,0.0262
1352.00,0.0239
1351.00,0.0220
1350.00,0.0204
1349.00,0.0191
1348.00,0.0181
1347.00,0.0172
1346.00,0.0165
1345.00,0.0159
1344.00,0.0153
1343.00,0.0148
1342.00,0.0142
1341.00,0.0138
1340.00,0.0134
1339.00,0.0130
1338.00,0.0128
1337.00,0.0127
1336.00,0.0127
1335.00,0.0128
1334.00,0.0130
1333.00,0.0133
1332.00,0.0136
1331.00,0.0138
1330.00,0.0139
1329.00,0.0138
1328.00,0.0135
1327.00,0.0131
1326.00,0.0127
1325.00,0.0122
1324.00,0.0117
1323.00,0.0112
1322.00,0.0108
1321.00,0.0106
1320.00,0.0104
1319.00,0.0103
1318.00,0.0102
1317.00,0.0100
1316.00,0.0099
1315.00,0.0098
1314.00,0.0098
1313.00,0.0099
1312.00,0.0101
1311.00,0.0104
1310.00,0.0108
1309.00,0.0115
1308.00,0.0126
1307.00,0.0140
1306.00,0.0153
1305.00,0.0162
1304.00,0.0164
1303.00,0.0160
1302.00,0.0151
1301.00,0.0143
1300.00,0.0137
1299.00,0.0134
1298.00,0.0132
1297.00,0.0131
1296.00,0.0129
1295.00,0.0127
1294.00,0.0123
1293.00,0.0118
1292.00,0.0113
1291.00,0.0108
1290.00,0.0104
1289.00,0.0100
1288.00,0.0097
1287.00,0.0095
1286.00,0.0093
1285.00,0.0091
1284.00,0.0090
1283.00,0.0088
1282.00,0.0087
1281.00,0.0085
1280.00,0.0084
1279.00,0.0083
1278.00,0.0082
1277.00,0.0082
1276.00,0.0081
1275.00,0.0081
1274.00,0.0080
1273.00,0.0081
1272.00,0.0081
1271.00,0.0081
1270.00,0.0082
1269.00,0.0084
1268.00,0.0085
1267.00,0.0087
1266.00,0.0090
1265.00,0.0093
1264.00,0.0096
1263.00,0.0099
1262.00,0.0104
1261.00,0.0109
1260.00,0.0115
1259.00,0.0124
1258.00,0.0133
1257.00,0.0141
1256.00,0.0144
1255.00,0.0143
1254.00,0.0135
1253.00,0.0125
1252.00,0.0115
1251.00,0.0106
1250.00,0.0100
1249.00,0.0096
1248.00,0.0093
1247.00,0.0090
1246.00,0.0088
1245.00,0.0087
1244.00,0.0086
1243.00,0.0085
1242.00,0.0085
1241.00,0.0085
1240.00,0.0084
1239.00,0.0084
1238.00,0.0084
1237.00,0.0084
1236.00,0.0085
1235.00,0.0085
1234.00,0.0086
1233.00,0.0087
1232.00,0.0088
1231.00,0.0089
1230.00,0.0089
1229.00,0.0090
1228.00,0.0092
1227.00,0.0093
1226.00,0.0094
1225.00,0.0096
1224.00,0.0099
1223.00,0.0102
1222.00,0.0106
1221.00,0.0109
1220.00,0.0112
1219.00,0.0114
1218.00,0.0115
1217.00,0.0114
1216.00,0.0111
1215.00,0.0108
1214.00,0.0105
1213.00,0.0102
1212.00,0.0099
1211.00,0.0097
1210.00,0.0095
1209.00,0.0094
1208.00,0.0093
1207.00,0.0093
1206.00,0.0092
1205.00,0.0091
1204.00,0.0091
1203.00,0.0090
1202.00,0.0091
1201.00,0.0090
1200.00,0.0090
1199.00,0.0089
1198.00,0.0089
1197.00,0.0088
1196.00,0.0087
1195.00,0.0087
1194.00,0.0087
1193.00,0.0087
1192.00,0.0087
1191.00,0.0087
1190.00,0.0086
1189.00,0.0085
1188.00,0.0084
1187.00,0.0084
1186.00,0.0085
1185.00,0.0086
1184.00,0.0088
1183.00,0.0090
1182.00,0.0092
1181.00,0.0094
1180.00,0.0098
1179.00,0.0103
1178.00,0.0111
1177.00,0.0121
1176.00,0.0134
1175.00,0.0152
1174.00,0.0175
1173.00,0.0205
1172.00,0.0240
1171.00,0.0279
1170.00,0.0318
1169.00,0.0349
1168.00,0.0367
1167.00,0.0370
1166.00,0.0360
1165.00,0.0340
1164.00,0.0316
1163.00,0.0293
1162.00,0.0273
1161.00,0.0256
1160.00,0.0243
1159.00,0.0233
1158.00,0.0225
1157.00,0.0220
1156.00,0.0217
1155.00,0.0214
1154.00,0.0211
1153.00,0.0208
1152.00,0.0203
1151.00,0.0196
1150.00,0.0188
1149.00,0.0179
1148.00,0.0170
1147.00,0.0162
1146.00,0.0154
1145.00,0.0147
1144.00,0.0141
1143.00,0.0135
1142.00,0.0129
1141.00,0.0124
1140.00,0.0118
1139.00,0.0114
1138.00,0.0110
1137.00,0.0107
1136.00,0.0105
1135.00,0.0104
1134.00,0.0103
1133.00,0.0103
1132.00,0.0102
1131.00,0.0102
1130.00,0.0103
1129.00,0.0104
1128.00,0.0105
1127.00,0.0106
1126.00,0.0109
1125.00,0.0111
1124.00,0.0113
1123.00,0.0115
1122.00,0.0118
1121.00,0.0121
1120.00,0.0124
1119.00,0.0127
1118.00,0.0130
1117.00,0.0131
1116.00,0.0133
1115.00,0.0133
1114.00,0.0134
1113.00,0.0134
1112.00,0.0135
1111.00,0.0136
1110.00,0.0138
1109.00,0.0140
1108.00,0.0144
1107.00,0.0148
1106.00,0.0153
1105.00,0.0157
1104.00,0.0161
1103.00,0.0162
1102.00,0.0160
1101.00,0.0156
1100.00,0.0151
1099.00,0.0145
1098.00,0.0139
1097.00,0.0134
1096.00,0.0130
1095.00,0.0126
1094.00,0.0123
1093.00,0.0120
1092.00,0.0118
1091.00,0.0116
1090.00,0.0115
1089.00,0.0113
1088.00,0.0112
1087.00,0.0112
1086.00,0.0112
1085.00,0.0111
1084.00,0.0110
1083.00,0.0109
1082.00,0.0107
1081.00,0.0105
1080.00,0.0104
1079.00,0.0102
1078.00,0.0101
1077.00,0.0100
1076.00,0.0099
1075.00,0.0099
1074.00,0.0098
1073.00,0.0098
1072.00,0.0097
1071.00,0.0097
1070.00,0.0097
1069.00,0.0097
1068.00,0.0097
1067.00,0.0097
1066.00,0.0098
1065.00,0.0098
1064.00,0.0098
1063.00,0.0098
1062.00,0.0098
1061.00,0.0100
1060.00,0.0101
1059.00,0.0102
1058.00,0.0103
1057.00,0.0102
1056.00,0.0103
1055.00,0.0104
1054.00,0.0105
1053.00,0.0107
1052.00,0.0109
1051.00,0.0111
1050.00,0.0114
1049.00,0.0117
1048.00,0.0121
1047.00,0.0125
1046.00,0.0128
1045.00,0.0131
1044.00,0.0131
1043.00,0.0130
1042.00,0.0127
1041.00,0.0124
1040.00,0.0121
1039.00,0.0119
1038.00,0.0118
1037.00,0.0117
1036.00,0.0117
1035.00,0.0117
1034.00,0.0116
1033.00,0.0115
1032.00,0.0112
1031.00,0.0110
1030.00,0.0108
1029.00,0.0107
1028.00,0.0106
1027.00,0.0105
1026.00,0.0105
1025.00,0.0105
1024.00,0.0105
1023.00,0.0105
1022.00,0.0106
1021.00,0.0106
1020.00,0.0106
1019.00,0.0106
1018.00,0.0107
1017.00,0.0108
1016.00,0.0109
1015.00,0.0111
1014.00,0.0113
1013.00,0.0115
1012.00,0.0117
1011.00,0.0120
1010.00,0.0124
1009.00,0.0129
1008.00,0.0134
1007.00,0.0141
1006.00,0.0151
1005.00,0.0166
1004.00,0.0187
1003.00,0.0215
1002.00,0.0252
1001.00,0.0299
1000.00,0.0350
999.00,0.0395
998.00,0.0420
997.00,0.0416
996.00,0.0384
995.00,0.0336
994.00,0.0285
993.00,0.0240
992.00,0.0205
991.00,0.0179
990.00,0.0161
989.00,0.0148
988.00,0.0140
987.00,0.0136
986.00,0.0134
985.00,0.0134
984.00,0.0137
983.00,0.0144
982.00,0.0154
981.00,0.0171
980.00,0.0193
979.00,0.0224
978.00,0.0264
977.00,0.0313
976.00,0.0367
975.00,0.0421
974.00,0.0463
973.00,0.0482
972.00,0.0469
971.00,0.0425
970.00,0.0363
969.00,0.0298
968.00,0.0242
967.00,0.0199
966.00,0.0169
965.00,0.0148
964.00,0.0134
963.00,0.0123
962.00,0.0115
961.00,0.0108
960.00,0.0102
959.00,0.0096
958.00,0.0091
957.00,0.0087
956.00,0.0084
955.00,0.0082
954.00,0.0080
953.00,0.0079
952.00,0.0078
951.00,0.0077
950.00,0.0077
949.00,0.0076
948.00,0.0076
947.00,0.0076
946.00,0.0077
945.00,0.0078
944.00,0.0081
943.00,0.0084
942.00,0.0088
941.00,0.0091
940.00,0.0091
939.00,0.0089
938.00,0.0085
937.00,0.0081
936.00,0.0078
935.00,0.0075
934.00,0.0072
933.00,0.0071
932.00,0.0070
931.00,0.0071
930.00,0.0071
929.00,0.0070
928.00,0.0070
927.00,0.0069
926.00,0.0069
925.00,0.0069
924.00,0.0069
923.00,0.0070
922.00,0.0071
921.00,0.0071
920.00,0.0071
919.00,0.0070
918.00,0.0070
917.00,0.0070
916.00,0.0070
915.00,0.0072
914.00,0.0074
913.00,0.0076
912.00,0.0078
911.00,0.0079
910.00,0.0081
909.00,0.0082
908.00,0.0085
907.00,0.0089
906.00,0.0095
905.00,0.0105
904.00,0.0117
903.00,0.0132
902.00,0.0148
901.00,0.0162
900.00,0.0172
899.00,0.0174
898.00,0.0168
897.00,0.0155
896.00,0.0138
895.00,0.0123
894.00,0.0110
893.00,0.0101
892.00,0.0094
891.00,0.0090
890.00,0.0088
889.00,0.0086
888.00,0.0084
887.00,0.0083
886.00,0.0083
885.00,0.0083
884.00,0.0083
883.00,0.0083
882.00,0.0083
881.00,0.0084
880.00,0.0085
879.00,0.0086
878.00,0.0086
877.00,0.0086
876.00,0.0086
875.00,0.0086
874.00,0.0087
873.00,0.0088
872.00,0.0088
871.00,0.0087
870.00,0.0085
869.00,0.0084
868.00,0.0084
867.00,0.0085
866.00,0.0086
865.00,0.0087
864.00,0.0088
863.00,0.0090
862.00,0.0091
861.00,0.0093
860.00,0.0093
859.00,0.0095
858.00,0.0096
857.00,0.0098
856.00,0.0099
855.00,0.0100
854.00,0.0102
853.00,0.0106
852.00,0.0110
851.00,0.0114
850.00,0.0120
849.00,0.0127
848.00,0.0138
847.00,0.0156
846.00,0.0183
845.00,0.0224
844.00,0.0283
843.00,0.0352
842.00,0.0410
841.00,0.0432
840.00,0.0406
839.00,0.0344
838.00,0.0273
837.00,0.0215
836.00,0.0178
835.00,0.0156
834.00,0.0144
833.00,0.0136
832.00,0.0131
831.00,0.0126
830.00,0.0123
829.00,0.0119
828.00,0.0116
827.00,0.0114
826.00,0.0112
825.00,0.0110
824.00,0.0109
823.00,0.0109
822.00,0.0108
821.00,0.0108
820.00,0.0109
819.00,0.0111
818.00,0.0115
817.00,0.0119
816.00,0.0127
815.00,0.0138
814.00,0.0152
813.00,0.0168
812.00,0.0185
811.00,0.0200
810.00,0.0212
809.00,0.0218
808.00,0.0214
807.00,0.0204
806.00,0.0188
805.00,0.0171
804.00,0.0156
803.00,0.0145
802.00,0.0138
801.00,0.0133
800.00,0.0128
799.00,0.0123
798.00,0.0119
797.00,0.0116
796.00,0.0113
795.00,0.0110
794.00,0.0107
793.00,0.0103
792.00,0.0099
791.00,0.0095
790.00,0.0093
789.00,0.0091
788.00,0.0089
787.00,0.0086
786.00,0.0083
785.00,0.0081
784.00,0.0079
783.00,0.0079
782.00,0.0078
781.00,0.0078
780.00,0.0078
779.00,0.0077
778.00,0.0078
777.00,0.0079
776.00,0.0079
775.00,0.0079
774.00,0.0078
773.00,0.0077
772.00,0.0076
771.00,0.0076
770.00,0.0077
769.00,0.0078
768.00,0.0078
767.00,0.0077
766.00,0.0076
765.00,0.0076
764.00,0.0076
763.00,0.0076
762.00,0.0076
761.00,0.0077
760.00,0.0078
759.00,0.0079
758.00,0.0081
757.00,0.0081
756.00,0.0081
755.00,0.0082
754.00,0.0083
753.00,0.0085
752.00,0.0086
751.00,0.0088
750.00,0.0089
749.00,0.0092
748.00,0.0094
747.00,0.0095
746.00,0.0096
745.00,0.0097
744.00,0.0099
743.00,0.0101
742.00,0.0104
741.00,0.0108
740.00,0.0112
739.00,0.0116
738.00,0.0120
737.00,0.0125
736.00,0.0129
735.00,0.0133
734.00,0.0139
733.00,0.0146
732.00,0.0154
731.00,0.0163
730.00,0.0169
729.00,0.0173
728.00,0.0173
727.00,0.0171
726.00,0.0170
725.00,0.0173
724.00,0.0179
723.00,0.0187
722.00,0.0194
721.00,0.0197
720.00,0.0194
719.00,0.0184
718.00,0.0172
717.00,0.0160
716.00,0.0150
715.00,0.0142
714.00,0.0136
713.00,0.0131
712.00,0.0126
711.00,0.0124
710.00,0.0122
709.00,0.0121
708.00,0.0120
707.00,0.0119
706.00,0.0118
705.00,0.0116
704.00,0.0116
703.00,0.0115
702.00,0.0114
701.00,0.0112
700.00,0.0110
699.00,0.0108
698.00,0.0108
697.00,0.0109
696.00,0.0109
695.00,0.0107
694.00,0.0106
693.00,0.0106
692.00,0.0106
691.00,0.0106
690.00,0.0104
689.00,0.0101
688.00,0.0098
687.00,0.0098
686.00,0.0099
685.00,0.0100
684.00,0.0100
683.00,0.0099
682.00,0.0098
681.00,0.0099
680.00,0.0101
679.00,0.0102
678.00,0.0102
677.00,0.0103
676.00,0.0103
675.00,0.0103
674.00,0.0103
673.00,0.0102
672.00,0.0101
671.00,0.0101
670.00,0.0102
669.00,0.0104
668.00,0.0106
667.00,0.0108
666.00,0.0107
665.00,0.0105
664.00,0.0102
663.00,0.0099
662.00,0.0097
661.00,0.0097
660.00,0.0097
659.00,0.0098
658.00,0.0098
657.00,0.0098
656.00,0.0098
655.00,0.0098
654.00,0.0098
653.00,0.0098
652.00,0.0096
651.00,0.0094
650.00,0.0093
649.00,0.0093
648.00,0.0096
647.00,0.0099
646.00,0.0101
645.00,0.0102
644.00,0.0102
643.00,0.0101
642.00,0.0100
641.00,0.0099
640.00,0.0097
639.00,0.0095
638.00,0.0094
637.00,0.0095
636.00,0.0096
635.00,0.0097
634.00,0.0098
633.00,0.0098
632.00,0.0098
631.00,0.0098
630.00,0.0098
629.00,0.0098
628.00,0.0098
627.00,0.0098
626.00,0.0098
625.00,0.0099
624.00,0.0101
623.00,0.0103
622.00,0.0105
621.00,0.0106
620.00,0.0105
619.00,0.0105
618.00,0.0104
617.00,0.0103
616.00,0.0102
615.00,0.0102
614.00,0.0102
613.00,0.0103
612.00,0.0103
611.00,0.0103
610.00,0.0104
609.00,0.0103
608.00,0.0102
607.00,0.0100
606.00,0.0099
605.00,0.0098
604.00,0.0098
603.00,0.0098
602.00,0.0100
601.00,0.0102
600.00,0.0105
599.00,0.0106
598.00,0.0106
597.00,0.0104
596.00,0.0100
595.00,0.0098
594.00,0.0099
593.00,0.0101
592.00,0.0103
591.00,0.0103
590.00,0.0102
589.00,0.0101
588.00,0.0099
587.00,0.0099
586.00,0.0099
585.00,0.0099
584.00,0.0099
583.00,0.0100
582.00,0.0102
581.00,0.0102
580.00,0.0102
579.00,0.0101
578.00,0.0101
577.00,0.0104
576.00,0.0107
575.00,0.0110
574.00,0.0110
573.00,0.0108
572.00,0.0105
571.00,0.0101
570.00,0.0099
569.00,0.0100
568.00,0.0102
567.00,0.0104
566.00,0.0105
565.00,0.0105
564.00,0.0106
563.00,0.0107
562.00,0.0107
561.00,0.0107
560.00,0.0105
559.00,0.0105
558.00,0.0106
557.00,0.0107
556.00,0.0105
555.00,0.0100
554.00,0.0094
553.00,0.0089
552.00,0.0088
551.00,0.0092
550.00,0.0097
549.00,0.0101
548.00,0.0102
547.00,0.0102
546.00,0.0101
545.00,0.0102
544.00,0.0103
543.00,0.0104
542.00,0.0106
541.00,0.0110
540.00,0.0117
539.00,0.0122
538.00,0.0124
537.00,0.0122
536.00,0.0118
535.00,0.0117
534.00,0.0119
533.00,0.0121
532.00,0.0120
531.00,0.0118
530.00,0.0113
529.00,0.0110
528.00,0.0111
527.00,0.0116
526.00,0.0122
525.00,0.0124
524.00,0.0123
523.00,0.0120
522.00,0.0117
521.00,0.0113
520.00,0.0107
519.00,0.0102
518.00,0.0100
517.00,0.0099
516.00,0.0100
515.00,0.0102
514.00,0.0105
513.00,0.0107
512.00,0.0105
511.00,0.0100
510.00,0.0095
509.00,0.0091
508.00,0.0088
507.00,0.0090
506.00,0.0096
505.00,0.0105
504.00,0.0112
503.00,0.0115
502.00,0.0115
501.00,0.0113
500.00,0.0109
499.00,0.0107
498.00,0.0106
497.00,0.0106
496.00,0.0104
495.00,0.0100
494.00,0.0095
493.00,0.0094
492.00,0.0097
491.00,0.0103
490.00,0.0108
489.00,0.0106
488.00,0.0098
487.00,0.0090
486.00,0.0087
485.00,0.0090
484.00,0.0094
483.00,0.0093
482.00,0.0091
481.00,0.0090
480.00,0.0088
479.00,0.0083
478.00,0.0080
477.00,0.0081
476.00,0.0085
475.00,0.0087
474.00,0.0087
473.00,0.0087
472.00,0.0089
471.00,0.0096
470.00,0.0104
469.00,0.0113
468.00,0.0120
467.00,0.0123
466.00,0.0122
465.00,0.0121
464.00,0.0127
463.00,0.0142
462.00,0.0162
461.00,0.0177
460.00,0.0181
459.00,0.0175
458.00,0.0166
457.00,0.0159
456.00,0.0155
455.00,0.0151
454.00,0.0144
453.00,0.0134
452.00,0.0124
451.00,0.0116
450.00,0.0110
