Created as New Dataset,Sample 199 By Administrator Date Wednesday, September 03 2025
cm-1,A
4000.00,0.0010
3999.00,0.0010
3998.00,0.0010
3997.00,0.0010
3996.00,0.0010
3995.00,0.0010
3994.00,0.0010
3993.00,0.0010
3992.00,0.0010
3991.00,0.0010
3990.00,0.0009
3989.00,0.0009
3988.00,0.0009
3987.00,0.0009
3986.00,0.0009
3985.00,0.0009
3984.00,0.0009
3983.00,0.0009
3982.00,0.0009
3981.00,0.0009
3980.00,0.0009
3979.00,0.0009
3978.00,0.0009
3977.00,0.0009
3976.00,0.0009
3975.00,0.0009
3974.00,0.0009
3973.00,0.0009
3972.00,0.0008
3971.00,0.0008
3970.00,0.0008
3969.00,0.0008
3968.00,0.0007
3967.00,0.0007
3966.00,0.0007
3965.00,0.0007
3964.00,0.0008
3963.00,0.0008
3962.00,0.0009
3961.00,0.0009
3960.00,0.0009
3959.00,0.0008
3958.00,0.0008
3957.00,0.0008
3956.00,0.0008
3955.00,0.0008
3954.00,0.0007
3953.00,0.0008
3952.00,0.0008
3951.00,0.0008
3950.00,0.0008
3949.00,0.0008
3948.00,0.0008
3947.00,0.0008
3946.00,0.0008
3945.00,0.0008
3944.00,0.0008
3943.00,0.0008
3942.00,0.0008
3941.00,0.0009
3940.00,0.0009
3939.00,0.0009
3938.00,0.0009
3937.00,0.0009
3936.00,0.0008
3935.00,0.0008
3934.00,0.0008
3933.00,0.0008
3932.00,0.0009
3931.00,0.0009
3930.00,0.0009
3929.00,0.0009
3928.00,0.0009
3927.00,0.0008
3926.00,0.0008
3925.00,0.0008
3924.00,0.0008
3923.00,0.0008
3922.00,0.0008
3921.00,0.0008
3920.00,0.0009
3919.00,0.0009
3918.00,0.0009
3917.00,0.0009
3916.00,0.0009
3915.00,0.0009
3914.00,0.0009
3913.00,0.0008
3912.00,0.0008
3911.00,0.0008
3910.00,0.0008
3909.00,0.0008
3908.00,0.0008
3907.00,0.0007
3906.00,0.0007
3905.00,0.0007
3904.00,0.0007
3903.00,0.0008
3902.00,0.0008
3901.00,0.0008
3900.00,0.0008
3899.00,0.0008
3898.00,0.0008
3897.00,0.0008
3896.00,0.0008
3895.00,0.0008
3894.00,0.0008
3893.00,0.0008
3892.00,0.0008
3891.00,0.0008
3890.00,0.0009
3889.00,0.0009
3888.00,0.0008
3887.00,0.0008
3886.00,0.0007
3885.00,0.0008
3884.00,0.0008
3883.00,0.0008
3882.00,0.0008
3881.00,0.0008
3880.00,0.0008
3879.00,0.0008
3878.00,0.0008
3877.00,0.0008
3876.00,0.0007
3875.00,0.0007
3874.00,0.0008
3873.00,0.0008
3872.00,0.0008
3871.00,0.0008
3870.00,0.0007
3869.00,0.0008
3868.00,0.0008
3867.00,0.0008
3866.00,0.0007
3865.00,0.0007
3864.00,0.0007
3863.00,0.0007
3862.00,0.0007
3861.00,0.0007
3860.00,0.0007
3859.00,0.0008
3858.00,0.0008
3857.00,0.0008
3856.00,0.0007
3855.00,0.0007
3854.00,0.0006
3853.00,0.0006
3852.00,0.0006
3851.00,0.0006
3850.00,0.0007
3849.00,0.0007
3848.00,0.0007
3847.00,0.0007
3846.00,0.0007
3845.00,0.0007
3844.00,0.0007
3843.00,0.0007
3842.00,0.0007
3841.00,0.0007
3840.00,0.0007
3839.00,0.0006
3838.00,0.0006
3837.00,0.0007
3836.00,0.0007
3835.00,0.0007
3834.00,0.0006
3833.00,0.0006
3832.00,0.0007
3831.00,0.0007
3830.00,0.0007
3829.00,0.0007
3828.00,0.0006
3827.00,0.0006
3826.00,0.0007
3825.00,0.0007
3824.00,0.0008
3823.00,0.0008
3822.00,0.0008
3821.00,0.0007
3820.00,0.0008
3819.00,0.0007
3818.00,0.0007
3817.00,0.0007
3816.00,0.0007
3815.00,0.0007
3814.00,0.0008
3813.00,0.0008
3812.00,0.0008
3811.00,0.0008
3810.00,0.0008
3809.00,0.0008
3808.00,0.0007
3807.00,0.0007
3806.00,0.0007
3805.00,0.0007
3804.00,0.0007
3803.00,0.0006
3802.00,0.0006
3801.00,0.0007
3800.00,0.0007
3799.00,0.0007
3798.00,0.0007
3797.00,0.0007
3796.00,0.0007
3795.00,0.0007
3794.00,0.0008
3793.00,0.0007
3792.00,0.0007
3791.00,0.0008
3790.00,0.0007
3789.00,0.0007
3788.00,0.0007
3787.00,0.0006
3786.00,0.0006
3785.00,0.0007
3784.00,0.0007
3783.00,0.0008
3782.00,0.0008
3781.00,0.0007
3780.00,0.0007
3779.00,0.0007
3778.00,0.0008
3777.00,0.0008
3776.00,0.0008
3775.00,0.0008
3774.00,0.0008
3773.00,0.0008
3772.00,0.0008
3771.00,0.0008
3770.00,0.0008
3769.00,0.0008
3768.00,0.0008
3767.00,0.0008
3766.00,0.0008
3765.00,0.0008
3764.00,0.0008
3763.00,0.0008
3762.00,0.0008
3761.00,0.0008
3760.00,0.0008
3759.00,0.0008
3758.00,0.0008
3757.00,0.0007
3756.00,0.0007
3755.00,0.0007
3754.00,0.0007
3753.00,0.0006
3752.00,0.0006
3751.00,0.0006
3750.00,0.0006
3749.00,0.0006
3748.00,0.0006
3747.00,0.0006
3746.00,0.0006
3745.00,0.0006
3744.00,0.0007
3743.00,0.0007
3742.00,0.0006
3741.00,0.0006
3740.00,0.0006
3739.00,0.0006
3738.00,0.0006
3737.00,0.0006
3736.00,0.0006
3735.00,0.0007
3734.00,0.0007
3733.00,0.0007
3732.00,0.0007
3731.00,0.0006
3730.00,0.0006
3729.00,0.0006
3728.00,0.0006
3727.00,0.0006
3726.00,0.0006
3725.00,0.0006
3724.00,0.0006
3723.00,0.0006
3722.00,0.0007
3721.00,0.0007
3720.00,0.0007
3719.00,0.0007
3718.00,0.0007
3717.00,0.0007
3716.00,0.0007
3715.00,0.0007
3714.00,0.0007
3713.00,0.0007
3712.00,0.0007
3711.00,0.0007
3710.00,0.0007
3709.00,0.0006
3708.00,0.0006
3707.00,0.0006
3706.00,0.0006
3705.00,0.0006
3704.00,0.0006
3703.00,0.0006
3702.00,0.0006
3701.00,0.0006
3700.00,0.0006
3699.00,0.0006
3698.00,0.0006
3697.00,0.0006
3696.00,0.0006
3695.00,0.0006
3694.00,0.0006
3693.00,0.0006
3692.00,0.0006
3691.00,0.0006
3690.00,0.0007
3689.00,0.0007
3688.00,0.0007
3687.00,0.0007
3686.00,0.0007
3685.00,0.0006
3684.00,0.0006
3683.00,0.0006
3682.00,0.0006
3681.00,0.0006
3680.00,0.0006
3679.00,0.0006
3678.00,0.0006
3677.00,0.0006
3676.00,0.0006
3675.00,0.0006
3674.00,0.0006
3673.00,0.0006
3672.00,0.0006
3671.00,0.0006
3670.00,0.0006
3669.00,0.0007
3668.00,0.0007
3667.00,0.0006
3666.00,0.0006
3665.00,0.0006
3664.00,0.0006
3663.00,0.0006
3662.00,0.0007
3661.00,0.0007
3660.00,0.0006
3659.00,0.0006
3658.00,0.0006
3657.00,0.0006
3656.00,0.0007
3655.00,0.0007
3654.00,0.0008
3653.00,0.0008
3652.00,0.0008
3651.00,0.0007
3650.00,0.0006
3649.00,0.0006
3648.00,0.0005
3647.00,0.0006
3646.00,0.0006
3645.00,0.0006
3644.00,0.0006
3643.00,0.0006
3642.00,0.0006
3641.00,0.0006
3640.00,0.0006
3639.00,0.0007
3638.00,0.0007
3637.00,0.0007
3636.00,0.0007
3635.00,0.0007
3634.00,0.0007
3633.00,0.0007
3632.00,0.0008
3631.00,0.0007
3630.00,0.0008
3629.00,0.0008
3628.00,0.0008
3627.00,0.0009
3626.00,0.0009
3625.00,0.0009
3624.00,0.0009
3623.00,0.0009
3622.00,0.0009
3621.00,0.0009
3620.00,0.0009
3619.00,0.0009
3618.00,0.0009
3617.00,0.0009
3616.00,0.0009
3615.00,0.0009
3614.00,0.0010
3613.00,0.0010
3612.00,0.0011
3611.00,0.0011
3610.00,0.0011
3609.00,0.0011
3608.00,0.0011
3607.00,0.0011
3606.00,0.0011
3605.00,0.0011
3604.00,0.0011
3603.00,0.0011
3602.00,0.0011
3601.00,0.0011
3600.00,0.0011
3599.00,0.0011
3598.00,0.0011
3597.00,0.0011
3596.00,0.0011
3595.00,0.0011
3594.00,0.0011
3593.00,0.0011
3592.00,0.0011
3591.00,0.0012
3590.00,0.0011
3589.00,0.0011
3588.00,0.0012
3587.00,0.0012
3586.00,0.0012
3585.00,0.0013
3584.00,0.0013
3583.00,0.0013
3582.00,0.0013
3581.00,0.0013
3580.00,0.0013
3579.00,0.0014
3578.00,0.0014
3577.00,0.0015
3576.00,0.0015
3575.00,0.0015
3574.00,0.0015
3573.00,0.0015
3572.00,0.0015
3571.00,0.0015
3570.00,0.0015
3569.00,0.0015
3568.00,0.0015
3567.00,0.0015
3566.00,0.0015
3565.00,0.0016
3564.00,0.0016
3563.00,0.0017
3562.00,0.0017
3561.00,0.0017
3560.00,0.0017
3559.00,0.0018
3558.00,0.0018
3557.00,0.0018
3556.00,0.0019
3555.00,0.0019
3554.00,0.0019
3553.00,0.0019
3552.00,0.0019
3551.00,0.0020
3550.00,0.0020
3549.00,0.0021
3548.00,0.0021
3547.00,0.0021
3546.00,0.0021
3545.00,0.0021
3544.00,0.0021
3543.00,0.0021
3542.00,0.0021
3541.00,0.0021
3540.00,0.0021
3539.00,0.0022
3538.00,0.0022
3537.00,0.0022
3536.00,0.0022
3535.00,0.0023
3534.00,0.0023
3533.00,0.0023
3532.00,0.0023
3531.00,0.0023
3530.00,0.0023
3529.00,0.0024
3528.00,0.0024
3527.00,0.0024
3526.00,0.0025
3525.00,0.0025
3524.00,0.0026
3523.00,0.0026
3522.00,0.0027
3521.00,0.0027
3520.00,0.0027
3519.00,0.0027
3518.00,0.0028
3517.00,0.0028
3516.00,0.0028
3515.00,0.0029
3514.00,0.0029
3513.00,0.0028
3512.00,0.0028
3511.00,0.0028
3510.00,0.0029
3509.00,0.0029
3508.00,0.0029
3507.00,0.0029
3506.00,0.0030
3505.00,0.0030
3504.00,0.0030
3503.00,0.0031
3502.00,0.0031
3501.00,0.0031
3500.00,0.0031
3499.00,0.0032
3498.00,0.0032
3497.00,0.0032
3496.00,0.0032
3495.00,0.0032
3494.00,0.0032
3493.00,0.0032
3492.00,0.0033
3491.00,0.0033
3490.00,0.0033
3489.00,0.0033
3488.00,0.0034
3487.00,0.0034
3486.00,0.0034
3485.00,0.0034
3484.00,0.0035
3483.00,0.0035
3482.00,0.0035
3481.00,0.0036
3480.00,0.0036
3479.00,0.0036
3478.00,0.0036
3477.00,0.0036
3476.00,0.0036
3475.00,0.0036
3474.00,0.0037
3473.00,0.0037
3472.00,0.0038
3471.00,0.0038
3470.00,0.0039
3469.00,0.0038
3468.00,0.0038
3467.00,0.0038
3466.00,0.0039
3465.00,0.0039
3464.00,0.0039
3463.00,0.0039
3462.00,0.0039
3461.00,0.0039
3460.00,0.0039
3459.00,0.0040
3458.00,0.0041
3457.00,0.0041
3456.00,0.0042
3455.00,0.0042
3454.00,0.0042
3453.00,0.0043
3452.00,0.0043
3451.00,0.0043
3450.00,0.0042
3449.00,0.0042
3448.00,0.0042
3447.00,0.0042
3446.00,0.0043
3445.00,0.0043
3444.00,0.0043
3443.00,0.0043
3442.00,0.0043
3441.00,0.0044
3440.00,0.0044
3439.00,0.0045
3438.00,0.0045
3437.00,0.0045
3436.00,0.0045
3435.00,0.0045
3434.00,0.0045
3433.00,0.0046
3432.00,0.0046
3431.00,0.0046
3430.00,0.0046
3429.00,0.0046
3428.00,0.0046
3427.00,0.0047
3426.00,0.0047
3425.00,0.0048
3424.00,0.0048
3423.00,0.0049
3422.00,0.0049
3421.00,0.0050
3420.00,0.0050
3419.00,0.0050
3418.00,0.0050
3417.00,0.0050
3416.00,0.0050
3415.00,0.0050
3414.00,0.0050
3413.00,0.0050
3412.00,0.0051
3411.00,0.0051
3410.00,0.0051
3409.00,0.0052
3408.00,0.0052
3407.00,0.0052
3406.00,0.0053
3405.00,0.0053
3404.00,0.0054
3403.00,0.0054
3402.00,0.0054
3401.00,0.0054
3400.00,0.0054
3399.00,0.0055
3398.00,0.0055
3397.00,0.0056
3396.00,0.0056
3395.00,0.0056
3394.00,0.0056
3393.00,0.0056
3392.00,0.0056
3391.00,0.0056
3390.00,0.0056
3389.00,0.0056
3388.00,0.0056
3387.00,0.0055
3386.00,0.0055
3385.00,0.0055
3384.00,0.0055
3383.00,0.0055
3382.00,0.0054
3381.00,0.0054
3380.00,0.0054
3379.00,0.0054
3378.00,0.0054
3377.00,0.0054
3376.00,0.0054
3375.00,0.0054
3374.00,0.0054
3373.00,0.0054
3372.00,0.0054
3371.00,0.0054
3370.00,0.0054
3369.00,0.0054
3368.00,0.0054
3367.00,0.0055
3366.00,0.0055
3365.00,0.0055
3364.00,0.0055
3363.00,0.0055
3362.00,0.0055
3361.00,0.0055
3360.00,0.0054
3359.00,0.0054
3358.00,0.0054
3357.00,0.0054
3356.00,0.0054
3355.00,0.0054
3354.00,0.0055
3353.00,0.0055
3352.00,0.0055
3351.00,0.0055
3350.00,0.0055
3349.00,0.0055
3348.00,0.0054
3347.00,0.0054
3346.00,0.0054
3345.00,0.0054
3344.00,0.0054
3343.00,0.0054
3342.00,0.0054
3341.00,0.0053
3340.00,0.0053
3339.00,0.0053
3338.00,0.0053
3337.00,0.0053
3336.00,0.0053
3335.00,0.0053
3334.00,0.0053
3333.00,0.0053
3332.00,0.0053
3331.00,0.0053
3330.00,0.0053
3329.00,0.0053
3328.00,0.0052
3327.00,0.0052
3326.00,0.0052
3325.00,0.0052
3324.00,0.0052
3323.00,0.0052
3322.00,0.0052
3321.00,0.0052
3320.00,0.0052
3319.00,0.0052
3318.00,0.0052
3317.00,0.0052
3316.00,0.0052
3315.00,0.0052
3314.00,0.0052
3313.00,0.0052
3312.00,0.0052
3311.00,0.0052
3310.00,0.0052
3309.00,0.0052
3308.00,0.0052
3307.00,0.0052
3306.00,0.0052
3305.00,0.0052
3304.00,0.0052
3303.00,0.0052
3302.00,0.0052
3301.00,0.0052
3300.00,0.0052
3299.00,0.0052
3298.00,0.0051
3297.00,0.0051
3296.00,0.0051
3295.00,0.0051
3294.00,0.0051
3293.00,0.0051
3292.00,0.0050
3291.00,0.0050
3290.00,0.0050
3289.00,0.0050
3288.00,0.0050
3287.00,0.0049
3286.00,0.0049
3285.00,0.0048
3284.00,0.0048
3283.00,0.0048
3282.00,0.0048
3281.00,0.0048
3280.00,0.0048
3279.00,0.0048
3278.00,0.0047
3277.00,0.0047
3276.00,0.0047
3275.00,0.0047
3274.00,0.0046
3273.00,0.0046
3272.00,0.0046
3271.00,0.0047
3270.00,0.0046
3269.00,0.0046
3268.00,0.0046
3267.00,0.0046
3266.00,0.0046
3265.00,0.0046
3264.00,0.0046
3263.00,0.0045
3262.00,0.0045
3261.00,0.0045
3260.00,0.0045
3259.00,0.0045
3258.00,0.0045
3257.00,0.0045
3256.00,0.0045
3255.00,0.0045
3254.00,0.0045
3253.00,0.0044
3252.00,0.0044
3251.00,0.0044
3250.00,0.0044
3249.00,0.0043
3248.00,0.0043
3247.00,0.0042
3246.00,0.0042
3245.00,0.0041
3244.00,0.0041
3243.00,0.0042
3242.00,0.0042
3241.00,0.0042
3240.00,0.0042
3239.00,0.0042
3238.00,0.0042
3237.00,0.0042
3236.00,0.0042
3235.00,0.0042
3234.00,0.0042
3233.00,0.0043
3232.00,0.0043
3231.00,0.0043
3230.00,0.0043
3229.00,0.0043
3228.00,0.0043
3227.00,0.0043
3226.00,0.0043
3225.00,0.0043
3224.00,0.0043
3223.00,0.0043
3222.00,0.0044
3221.00,0.0044
3220.00,0.0044
3219.00,0.0045
3218.00,0.0045
3217.00,0.0044
3216.00,0.0044
3215.00,0.0044
3214.00,0.0044
3213.00,0.0045
3212.00,0.0045
3211.00,0.0046
3210.00,0.0046
3209.00,0.0047
3208.00,0.0047
3207.00,0.0047
3206.00,0.0047
3205.00,0.0047
3204.00,0.0047
3203.00,0.0048
3202.00,0.0048
3201.00,0.0048
3200.00,0.0047
3199.00,0.0048
3198.00,0.0048
3197.00,0.0049
3196.00,0.0049
3195.00,0.0049
3194.00,0.0049
3193.00,0.0049
3192.00,0.0049
3191.00,0.0049
3190.00,0.0049
3189.00,0.0049
3188.00,0.0049
3187.00,0.0049
3186.00,0.0048
3185.00,0.0048
3184.00,0.0048
3183.00,0.0048
3182.00,0.0047
3181.00,0.0047
3180.00,0.0046
3179.00,0.0046
3178.00,0.0046
3177.00,0.0046
3176.00,0.0046
3175.00,0.0046
3174.00,0.0046
3173.00,0.0045
3172.00,0.0045
3171.00,0.0045
3170.00,0.0045
3169.00,0.0045
3168.00,0.0044
3167.00,0.0044
3166.00,0.0043
3165.00,0.0043
3164.00,0.0043
3163.00,0.0043
3162.00,0.0043
3161.00,0.0043
3160.00,0.0043
3159.00,0.0042
3158.00,0.0042
3157.00,0.0042
3156.00,0.0041
3155.00,0.0041
3154.00,0.0042
3153.00,0.0042
3152.00,0.0042
3151.00,0.0042
3150.00,0.0042
3149.00,0.0042
3148.00,0.0042
3147.00,0.0042
3146.00,0.0042
3145.00,0.0041
3144.00,0.0041
3143.00,0.0041
3142.00,0.0040
3141.00,0.0040
3140.00,0.0040
3139.00,0.0039
3138.00,0.0039
3137.00,0.0039
3136.00,0.0039
3135.00,0.0039
3134.00,0.0038
3133.00,0.0038
3132.00,0.0038
3131.00,0.0038
3130.00,0.0038
3129.00,0.0038
3128.00,0.0037
3127.00,0.0037
3126.00,0.0037
3125.00,0.0037
3124.00,0.0037
3123.00,0.0036
3122.00,0.0036
3121.00,0.0036
3120.00,0.0036
3119.00,0.0036
3118.00,0.0035
3117.00,0.0035
3116.00,0.0035
3115.00,0.0034
3114.00,0.0034
3113.00,0.0034
3112.00,0.0034
3111.00,0.0034
3110.00,0.0034
3109.00,0.0034
3108.00,0.0034
3107.00,0.0033
3106.00,0.0033
3105.00,0.0033
3104.00,0.0032
3103.00,0.0032
3102.00,0.0032
3101.00,0.0032
3100.00,0.0032
3099.00,0.0032
3098.00,0.0032
3097.00,0.0032
3096.00,0.0032
3095.00,0.0032
3094.00,0.0032
3093.00,0.0033
3092.00,0.0033
3091.00,0.0032
3090.00,0.0032
3089.00,0.0032
3088.00,0.0032
3087.00,0.0032
3086.00,0.0032
3085.00,0.0032
3084.00,0.0031
3083.00,0.0031
3082.00,0.0031
3081.00,0.0031
3080.00,0.0031
3079.00,0.0031
3078.00,0.0031
3077.00,0.0031
3076.00,0.0031
3075.00,0.0032
3074.00,0.0032
3073.00,0.0032
3072.00,0.0032
3071.00,0.0032
3070.00,0.0033
3069.00,0.0032
3068.00,0.0032
3067.00,0.0032
3066.00,0.0032
3065.00,0.0033
3064.00,0.0033
3063.00,0.0033
3062.00,0.0033
3061.00,0.0033
3060.00,0.0033
3059.00,0.0034
3058.00,0.0034
3057.00,0.0035
3056.00,0.0035
3055.00,0.0035
3054.00,0.0035
3053.00,0.0035
3052.00,0.0035
3051.00,0.0035
3050.00,0.0035
3049.00,0.0035
3048.00,0.0036
3047.00,0.0036
3046.00,0.0036
3045.00,0.0036
3044.00,0.0036
3043.00,0.0036
3042.00,0.0036
3041.00,0.0037
3040.00,0.0037
3039.00,0.0038
3038.00,0.0038
3037.00,0.0039
3036.00,0.0039
3035.00,0.0039
3034.00,0.0039
3033.00,0.0039
3032.00,0.0039
3031.00,0.0040
3030.00,0.0040
3029.00,0.0041
3028.00,0.0041
3027.00,0.0042
3026.00,0.0042
3025.00,0.0043
3024.00,0.0044
3023.00,0.0045
3022.00,0.0046
3021.00,0.0046
3020.00,0.0047
3019.00,0.0048
3018.00,0.0048
3017.00,0.0049
3016.00,0.0051
3015.00,0.0052
3014.00,0.0053
3013.00,0.0055
3012.00,0.0056
3011.00,0.0056
3010.00,0.0057
3009.00,0.0058
3008.00,0.0059
3007.00,0.0060
3006.00,0.0061
3005.00,0.0063
3004.00,0.0064
3003.00,0.0066
3002.00,0.0068
3001.00,0.0070
3000.00,0.0071
2999.00,0.0074
2998.00,0.0077
2997.00,0.0080
2996.00,0.0084
2995.00,0.0088
2994.00,0.0093
2993.00,0.0097
2992.00,0.0102
2991.00,0.0107
2990.00,0.0113
2989.00,0.0120
2988.00,0.0127
2987.00,0.0136
2986.00,0.0145
2985.00,0.0155
2984.00,0.0167
2983.00,0.0180
2982.00,0.0195
2981.00,0.0212
2980.00,0.0232
2979.00,0.0255
2978.00,0.0281
2977.00,0.0311
2976.00,0.0345
2975.00,0.0383
2974.00,0.0427
2973.00,0.0477
2972.00,0.0535
2971.00,0.0600
2970.00,0.0673
2969.00,0.0754
2968.00,0.0843
2967.00,0.0939
2966.00,0.1041
2965.00,0.1148
2964.00,0.1255
2963.00,0.1359
2962.00,0.1452
2961.00,0.1531
2960.00,0.1591
2959.00,0.1636
2958.00,0.1668
2957.00,0.1694
2956.00,0.1720
2955.00,0.1752
2954.00,0.1789
2953.00,0.1828
2952.00,0.1861
2951.00,0.1877
2950.00,0.1867
2949.00,0.1824
2948.00,0.1750
2947.00,0.1648
2946.00,0.1531
2945.00,0.1410
2944.00,0.1298
2943.00,0.1203
2942.00,0.1129
2941.00,0.1079
2940.00,0.1052
2939.00,0.1045
2938.00,0.1057
2937.00,0.1085
2936.00,0.1128
2935.00,0.1185
2934.00,0.1255
2933.00,0.1337
2932.00,0.1429
2931.00,0.1528
2930.00,0.1633
2929.00,0.1740
2928.00,0.1847
2927.00,0.1950
2926.00,0.2049
2925.00,0.2143
2924.00,0.2232
2923.00,0.2318
2922.00,0.2401
2921.00,0.2479
2920.00,0.2545
2919.00,0.2592
2918.00,0.2611
2917.00,0.2598
2916.00,0.2553
2915.00,0.2482
2914.00,0.2396
2913.00,0.2303
2912.00,0.2214
2911.00,0.2133
2910.00,0.2062
2909.00,0.1999
2908.00,0.1942
2907.00,0.1887
2906.00,0.1831
2905.00,0.1772
2904.00,0.1710
2903.00,0.1646
2902.00,0.1580
2901.00,0.1515
2900.00,0.1451
2899.00,0.1389
2898.00,0.1331
2897.00,0.1278
2896.00,0.1231
2895.00,0.1189
2894.00,0.1153
2893.00,0.1122
2892.00,0.1098
2891.00,0.1078
2890.00,0.1064
2889.00,0.1054
2888.00,0.1048
2887.00,0.1045
2886.00,0.1046
2885.00,0.1049
2884.00,0.1057
2883.00,0.1068
2882.00,0.1083
2881.00,0.1099
2880.00,0.1116
2879.00,0.1128
2878.00,0.1135
2877.00,0.1135
2876.00,0.1130
2875.00,0.1123
2874.00,0.1119
2873.00,0.1120
2872.00,0.1127
2871.00,0.1141
2870.00,0.1158
2869.00,0.1174
2868.00,0.1182
2867.00,0.1177
2866.00,0.1153
2865.00,0.1109
2864.00,0.1049
2863.00,0.0983
2862.00,0.0918
2861.00,0.0862
2860.00,0.0819
2859.00,0.0792
2858.00,0.0778
2857.00,0.0776
2856.00,0.0783
2855.00,0.0797
2854.00,0.0815
2853.00,0.0836
2852.00,0.0857
2851.00,0.0876
2850.00,0.0890
2849.00,0.0900
2848.00,0.0909
2847.00,0.0922
2846.00,0.0943
2845.00,0.0975
2844.00,0.1017
2843.00,0.1068
2842.00,0.1122
2841.00,0.1173
2840.00,0.1212
2839.00,0.1231
2838.00,0.1225
2837.00,0.1188
2836.00,0.1121
2835.00,0.1031
2834.00,0.0927
2833.00,0.0820
2832.00,0.0718
2831.00,0.0628
2830.00,0.0551
2829.00,0.0489
2828.00,0.0439
2827.00,0.0398
2826.00,0.0364
2825.00,0.0336
2824.00,0.0312
2823.00,0.0292
2822.00,0.0275
2821.00,0.0260
2820.00,0.0247
2819.00,0.0236
2818.00,0.0226
2817.00,0.0218
2816.00,0.0210
2815.00,0.0203
2814.00,0.0197
2813.00,0.0191
2812.00,0.0185
2811.00,0.0180
2810.00,0.0174
2809.00,0.0169
2808.00,0.0164
2807.00,0.0158
2806.00,0.0152
2805.00,0.0146
2804.00,0.0140
2803.00,0.0134
2802.00,0.0129
2801.00,0.0124
2800.00,0.0121
2799.00,0.0117
2798.00,0.0115
2797.00,0.0112
2796.00,0.0110
2795.00,0.0108
2794.00,0.0105
2793.00,0.0102
2792.00,0.0099
2791.00,0.0096
2790.00,0.0092
2789.00,0.0089
2788.00,0.0086
2787.00,0.0083
2786.00,0.0080
2785.00,0.0078
2784.00,0.0075
2783.00,0.0073
2782.00,0.0071
2781.00,0.0068
2780.00,0.0067
2779.00,0.0065
2778.00,0.0064
2777.00,0.0062
2776.00,0.0061
2775.00,0.0060
2774.00,0.0059
2773.00,0.0058
2772.00,0.0058
2771.00,0.0057
2770.00,0.0057
2769.00,0.0057
2768.00,0.0056
2767.00,0.0056
2766.00,0.0056
2765.00,0.0055
2764.00,0.0055
2763.00,0.0054
2762.00,0.0054
2761.00,0.0054
2760.00,0.0053
2759.00,0.0053
2758.00,0.0052
2757.00,0.0052
2756.00,0.0052
2755.00,0.0052
2754.00,0.0052
2753.00,0.0051
2752.00,0.0051
2751.00,0.0051
2750.00,0.0051
2749.00,0.0051
2748.00,0.0051
2747.00,0.0052
2746.00,0.0052
2745.00,0.0052
2744.00,0.0053
2743.00,0.0054
2742.00,0.0055
2741.00,0.0056
2740.00,0.0058
2739.00,0.0059
2738.00,0.0060
2737.00,0.0061
2736.00,0.0062
2735.00,0.0063
2734.00,0.0064
2733.00,0.0066
2732.00,0.0067
2731.00,0.0069
2730.00,0.0071
2729.00,0.0074
2728.00,0.0076
2727.00,0.0079
2726.00,0.0081
2725.00,0.0083
2724.00,0.0084
2723.00,0.0084
2722.00,0.0083
2721.00,0.0082
2720.00,0.0080
2719.00,0.0077
2718.00,0.0074
2717.00,0.0071
2716.00,0.0068
2715.00,0.0065
2714.00,0.0063
2713.00,0.0061
2712.00,0.0059
2711.00,0.0058
2710.00,0.0057
2709.00,0.0055
2708.00,0.0054
2707.00,0.0053
2706.00,0.0051
2705.00,0.0050
2704.00,0.0049
2703.00,0.0048
2702.00,0.0048
2701.00,0.0047
2700.00,0.0046
2699.00,0.0045
2698.00,0.0045
2697.00,0.0044
2696.00,0.0044
2695.00,0.0044
2694.00,0.0045
2693.00,0.0045
2692.00,0.0045
2691.00,0.0045
2690.00,0.0046
2689.00,0.0046
2688.00,0.0045
2687.00,0.0045
2686.00,0.0045
2685.00,0.0045
2684.00,0.0045
2683.00,0.0045
2682.00,0.0045
2681.00,0.0045
2680.00,0.0045
2679.00,0.0045
2678.00,0.0045
2677.00,0.0045
2676.00,0.0045
2675.00,0.0045
2674.00,0.0044
2673.00,0.0044
2672.00,0.0044
2671.00,0.0044
2670.00,0.0044
2669.00,0.0044
2668.00,0.0044
2667.00,0.0044
2666.00,0.0045
2665.00,0.0045
2664.00,0.0046
2663.00,0.0046
2662.00,0.0047
2661.00,0.0047
2660.00,0.0047
2659.00,0.0047
2658.00,0.0046
2657.00,0.0046
2656.00,0.0046
2655.00,0.0046
2654.00,0.0045
2653.00,0.0044
2652.00,0.0044
2651.00,0.0044
2650.00,0.0043
2649.00,0.0043
2648.00,0.0043
2647.00,0.0043
2646.00,0.0042
2645.00,0.0042
2644.00,0.0041
2643.00,0.0041
2642.00,0.0040
2641.00,0.0040
2640.00,0.0039
2639.00,0.0039
2638.00,0.0039
2637.00,0.0038
2636.00,0.0038
2635.00,0.0038
2634.00,0.0038
2633.00,0.0038
2632.00,0.0038
2631.00,0.0038
2630.00,0.0038
2629.00,0.0038
2628.00,0.0038
2627.00,0.0039
2626.00,0.0039
2625.00,0.0038
2624.00,0.0038
2623.00,0.0038
2622.00,0.0039
2621.00,0.0039
2620.00,0.0040
2619.00,0.0040
2618.00,0.0040
2617.00,0.0040
2616.00,0.0040
2615.00,0.0039
2614.00,0.0039
2613.00,0.0039
2612.00,0.0038
2611.00,0.0038
2610.00,0.0037
2609.00,0.0036
2608.00,0.0035
2607.00,0.0034
2606.00,0.0033
2605.00,0.0032
2604.00,0.0032
2603.00,0.0031
2602.00,0.0031
2601.00,0.0031
2600.00,0.0031
2599.00,0.0031
2598.00,0.0031
2597.00,0.0031
2596.00,0.0031
2595.00,0.0031
2594.00,0.0031
2593.00,0.0032
2592.00,0.0032
2591.00,0.0033
2590.00,0.0033
2589.00,0.0033
2588.00,0.0033
2587.00,0.0034
2586.00,0.0035
2585.00,0.0035
2584.00,0.0036
2583.00,0.0036
2582.00,0.0036
2581.00,0.0036
2580.00,0.0036
2579.00,0.0036
2578.00,0.0036
2577.00,0.0035
2576.00,0.0033
2575.00,0.0032
2574.00,0.0030
2573.00,0.0029
2572.00,0.0027
2571.00,0.0027
2570.00,0.0026
2569.00,0.0026
2568.00,0.0025
2567.00,0.0025
2566.00,0.0024
2565.00,0.0024
2564.00,0.0024
2563.00,0.0023
2562.00,0.0023
2561.00,0.0023
2560.00,0.0024
2559.00,0.0024
2558.00,0.0024
2557.00,0.0023
2556.00,0.0023
2555.00,0.0022
2554.00,0.0022
2553.00,0.0021
2552.00,0.0020
2551.00,0.0020
2550.00,0.0020
2549.00,0.0019
2548.00,0.0019
2547.00,0.0019
2546.00,0.0019
2545.00,0.0019
2544.00,0.0019
2543.00,0.0019
2542.00,0.0019
2541.00,0.0018
2540.00,0.0018
2539.00,0.0017
2538.00,0.0016
2537.00,0.0016
2536.00,0.0016
2535.00,0.0015
2534.00,0.0015
2533.00,0.0015
2532.00,0.0014
2531.00,0.0015
2530.00,0.0015
2529.00,0.0015
2528.00,0.0015
2527.00,0.0014
2526.00,0.0014
2525.00,0.0014
2524.00,0.0014
2523.00,0.0014
2522.00,0.0013
2521.00,0.0012
2520.00,0.0012
2519.00,0.0011
2518.00,0.0011
2517.00,0.0011
2516.00,0.0011
2515.00,0.0011
2514.00,0.0010
2513.00,0.0010
2512.00,0.0010
2511.00,0.0010
2510.00,0.0010
2509.00,0.0010
2508.00,0.0010
2507.00,0.0010
2506.00,0.0010
2505.00,0.0010
2504.00,0.0011
2503.00,0.0011
2502.00,0.0011
2501.00,0.0011
2500.00,0.0010
2499.00,0.0010
2498.00,0.0011
2497.00,0.0011
2496.00,0.0011
2495.00,0.0011
2494.00,0.0011
2493.00,0.0011
2492.00,0.0011
2491.00,0.0012
2490.00,0.0011
2489.00,0.0011
2488.00,0.0010
2487.00,0.0009
2486.00,0.0009
2485.00,0.0009
2484.00,0.0009
2483.00,0.0010
2482.00,0.0010
2481.00,0.0010
2480.00,0.0010
2479.00,0.0010
2478.00,0.0009
2477.00,0.0009
2476.00,0.0009
2475.00,0.0009
2474.00,0.0009
2473.00,0.0009
2472.00,0.0009
2471.00,0.0009
2470.00,0.0009
2469.00,0.0010
2468.00,0.0010
2467.00,0.0010
2466.00,0.0010
2465.00,0.0010
2464.00,0.0010
2463.00,0.0010
2462.00,0.0010
2461.00,0.0010
2460.00,0.0011
2459.00,0.0011
2458.00,0.0012
2457.00,0.0012
2456.00,0.0011
2455.00,0.0011
2454.00,0.0010
2453.00,0.0010
2452.00,0.0010
2451.00,0.0011
2450.00,0.0011
2449.00,0.0011
2448.00,0.0012
2447.00,0.0012
2446.00,0.0012
2445.00,0.0012
2444.00,0.0012
2443.00,0.0012
2442.00,0.0012
2441.00,0.0012
2440.00,0.0012
2439.00,0.0011
2438.00,0.0011
2437.00,0.0011
2436.00,0.0011
2435.00,0.0011
2434.00,0.0011
2433.00,0.0012
2432.00,0.0012
2431.00,0.0013
2430.00,0.0013
2429.00,0.0013
2428.00,0.0013
2427.00,0.0012
2426.00,0.0012
2425.00,0.0012
2424.00,0.0012
2423.00,0.0011
2422.00,0.0011
2421.00,0.0010
2420.00,0.0010
2419.00,0.0010
2418.00,0.0009
2417.00,0.0010
2416.00,0.0010
2415.00,0.0010
2414.00,0.0010
2413.00,0.0010
2412.00,0.0010
2411.00,0.0010
2410.00,0.0010
2409.00,0.0011
2408.00,0.0011
2407.00,0.0010
2406.00,0.0010
2405.00,0.0009
2404.00,0.0009
2403.00,0.0009
2402.00,0.0009
2401.00,0.0009
2400.00,0.0010
2399.00,0.0010
2398.00,0.0010
2397.00,0.0009
2396.00,0.0009
2395.00,0.0009
2394.00,0.0008
2393.00,0.0008
2392.00,0.0008
2391.00,0.0007
2390.00,0.0007
2389.00,0.0007
2388.00,0.0007
2387.00,0.0008
2386.00,0.0008
2385.00,0.0007
2384.00,0.0007
2383.00,0.0006
2382.00,0.0006
2381.00,0.0006
2380.00,0.0006
2379.00,0.0006
2378.00,0.0006
2377.00,0.0006
2376.00,0.0006
2375.00,0.0006
2374.00,0.0006
2373.00,0.0006
2372.00,0.0005
2371.00,0.0005
2370.00,0.0005
2369.00,0.0004
2368.00,0.0004
2367.00,0.0003
2366.00,0.0003
2365.00,0.0004
2364.00,0.0004
2363.00,0.0005
2362.00,0.0006
2361.00,0.0007
2360.00,0.0007
2359.00,0.0007
2358.00,0.0007
2357.00,0.0007
2356.00,0.0007
2355.00,0.0007
2354.00,0.0006
2353.00,0.0006
2352.00,0.0006
2351.00,0.0007
2350.00,0.0007
2349.00,0.0007
2348.00,0.0007
2347.00,0.0007
2346.00,0.0007
2345.00,0.0008
2344.00,0.0008
2343.00,0.0009
2342.00,0.0009
2341.00,0.0009
2340.00,0.0010
2339.00,0.0010
2338.00,0.0010
2337.00,0.0010
2336.00,0.0010
2335.00,0.0010
2334.00,0.0009
2333.00,0.0009
2332.00,0.0009
2331.00,0.0008
2330.00,0.0008
2329.00,0.0008
2328.00,0.0010
2327.00,0.0013
2326.00,0.0017
2325.00,0.0021
2324.00,0.0022
2323.00,0.0022
2322.00,0.0020
2321.00,0.0019
2320.00,0.0017
2319.00,0.0016
2318.00,0.0016
2317.00,0.0015
2316.00,0.0014
2315.00,0.0013
2314.00,0.0011
2313.00,0.0011
2312.00,0.0010
2311.00,0.0010
2310.00,0.0010
2309.00,0.0010
2308.00,0.0009
2307.00,0.0009
2306.00,0.0009
2305.00,0.0009
2304.00,0.0009
2303.00,0.0009
2302.00,0.0010
2301.00,0.0010
2300.00,0.0010
2299.00,0.0011
2298.00,0.0012
2297.00,0.0013
2296.00,0.0013
2295.00,0.0014
2294.00,0.0014
2293.00,0.0015
2292.00,0.0016
2291.00,0.0016
2290.00,0.0017
2289.00,0.0017
2288.00,0.0017
2287.00,0.0018
2286.00,0.0018
2285.00,0.0018
2284.00,0.0017
2283.00,0.0016
2282.00,0.0015
2281.00,0.0014
2280.00,0.0014
2279.00,0.0013
2278.00,0.0012
2277.00,0.0013
2276.00,0.0014
2275.00,0.0015
2274.00,0.0016
2273.00,0.0016
2272.00,0.0015
2271.00,0.0014
2270.00,0.0013
2269.00,0.0012
2268.00,0.0012
2267.00,0.0011
2266.00,0.0010
2265.00,0.0009
2264.00,0.0009
2263.00,0.0009
2262.00,0.0010
2261.00,0.0011
2260.00,0.0012
2259.00,0.0013
2258.00,0.0014
2257.00,0.0014
2256.00,0.0013
2255.00,0.0012
2254.00,0.0011
2253.00,0.0010
2252.00,0.0010
2251.00,0.0010
2250.00,0.0009
2249.00,0.0009
2248.00,0.0009
2247.00,0.0009
2246.00,0.0011
2245.00,0.0012
2244.00,0.0013
2243.00,0.0013
2242.00,0.0012
2241.00,0.0010
2240.00,0.0009
2239.00,0.0007
2238.00,0.0006
2237.00,0.0005
2236.00,0.0005
2235.00,0.0005
2234.00,0.0007
2233.00,0.0009
2232.00,0.0011
2231.00,0.0012
2230.00,0.0013
2229.00,0.0011
2228.00,0.0010
2227.00,0.0008
2226.00,0.0007
2225.00,0.0008
2224.00,0.0009
2223.00,0.0009
2222.00,0.0009
2221.00,0.0007
2220.00,0.0006
2219.00,0.0005
2218.00,0.0005
2217.00,0.0005
2216.00,0.0006
2215.00,0.0007
2214.00,0.0007
2213.00,0.0007
2212.00,0.0008
2211.00,0.0008
2210.00,0.0006
2209.00,0.0004
2208.00,0.0003
2207.00,0.0002
2206.00,0.0003
2205.00,0.0004
2204.00,0.0005
2203.00,0.0005
2202.00,0.0004
2201.00,0.0004
2200.00,0.0005
2199.00,0.0006
2198.00,0.0007
2197.00,0.0008
2196.00,0.0007
2195.00,0.0007
2194.00,0.0007
2193.00,0.0008
2192.00,0.0009
2191.00,0.0010
2190.00,0.0011
2189.00,0.0012
2188.00,0.0012
2187.00,0.0012
2186.00,0.0012
2185.00,0.0013
2184.00,0.0014
2183.00,0.0013
2182.00,0.0010
2181.00,0.0006
2180.00,0.0002
2179.00,0.0000
2178.00,-0.0001
2177.00,-0.0000
2176.00,0.0000
2175.00,0.0001
2174.00,0.0001
2173.00,0.0003
2172.00,0.0005
2171.00,0.0007
2170.00,0.0010
2169.00,0.0012
2168.00,0.0015
2167.00,0.0017
2166.00,0.0017
2165.00,0.0016
2164.00,0.0015
2163.00,0.0015
2162.00,0.0015
2161.00,0.0013
2160.00,0.0005
2159.00,-0.0005
2158.00,-0.0014
2157.00,-0.0019
2156.00,-0.0020
2155.00,-0.0020
2154.00,-0.0019
2153.00,-0.0016
2152.00,-0.0013
2151.00,-0.0011
2150.00,-0.0011
2149.00,-0.0012
2148.00,-0.0013
2147.00,-0.0014
2146.00,-0.0014
2145.00,-0.0012
2144.00,-0.0009
2143.00,-0.0007
2142.00,-0.0006
2141.00,-0.0007
2140.00,-0.0010
2139.00,-0.0012
2138.00,-0.0014
2137.00,-0.0014
2136.00,-0.0015
2135.00,-0.0016
2134.00,-0.0018
2133.00,-0.0019
2132.00,-0.0019
2131.00,-0.0016
2130.00,-0.0012
2129.00,-0.0009
2128.00,-0.0007
2127.00,-0.0006
2126.00,-0.0006
2125.00,-0.0006
2124.00,-0.0006
2123.00,-0.0007
2122.00,-0.0007
2121.00,-0.0006
2120.00,-0.0004
2119.00,-0.0003
2118.00,-0.0002
2117.00,-0.0001
2116.00,0.0000
2115.00,0.0000
2114.00,0.0000
2113.00,0.0001
2112.00,0.0002
2111.00,0.0004
2110.00,0.0005
2109.00,0.0004
2108.00,0.0002
2107.00,0.0001
2106.00,0.0001
2105.00,0.0002
2104.00,0.0003
2103.00,0.0004
2102.00,0.0005
2101.00,0.0005
2100.00,0.0005
2099.00,0.0005
2098.00,0.0003
2097.00,0.0001
2096.00,-0.0001
2095.00,-0.0003
2094.00,-0.0004
2093.00,-0.0003
2092.00,-0.0001
2091.00,0.0001
2090.00,0.0002
2089.00,0.0002
2088.00,0.0001
2087.00,0.0001
2086.00,-0.0000
2085.00,-0.0001
2084.00,-0.0002
2083.00,-0.0002
2082.00,-0.0001
2081.00,0.0001
2080.00,0.0002
2079.00,0.0003
2078.00,0.0004
2077.00,0.0004
2076.00,0.0004
2075.00,0.0003
2074.00,0.0001
2073.00,0.0001
2072.00,0.0001
2071.00,0.0002
2070.00,0.0003
2069.00,0.0004
2068.00,0.0006
2067.00,0.0006
2066.00,0.0005
2065.00,0.0004
2064.00,0.0002
2063.00,0.0002
2062.00,0.0002
2061.00,0.0003
2060.00,0.0004
2059.00,0.0004
2058.00,0.0004
2057.00,0.0006
2056.00,0.0007
2055.00,0.0007
2054.00,0.0007
2053.00,0.0008
2052.00,0.0010
2051.00,0.0012
2050.00,0.0013
2049.00,0.0013
2048.00,0.0011
2047.00,0.0010
2046.00,0.0007
2045.00,0.0005
2044.00,0.0004
2043.00,0.0003
2042.00,0.0002
2041.00,0.0002
2040.00,0.0002
2039.00,0.0001
2038.00,-0.0000
2037.00,-0.0002
2036.00,-0.0004
2035.00,-0.0005
2034.00,-0.0007
2033.00,-0.0008
2032.00,-0.0010
2031.00,-0.0010
2030.00,-0.0011
2029.00,-0.0010
2028.00,-0.0009
2027.00,-0.0009
2026.00,-0.0010
2025.00,-0.0012
2024.00,-0.0013
2023.00,-0.0014
2022.00,-0.0015
2021.00,-0.0015
2020.00,-0.0013
2019.00,-0.0012
2018.00,-0.0010
2017.00,-0.0008
2016.00,-0.0006
2015.00,-0.0004
2014.00,-0.0003
2013.00,-0.0003
2012.00,-0.0004
2011.00,-0.0005
2010.00,-0.0007
2009.00,-0.0011
2008.00,-0.0015
2007.00,-0.0019
2006.00,-0.0022
2005.00,-0.0022
2004.00,-0.0020
2003.00,-0.0017
2002.00,-0.0014
2001.00,-0.0012
2000.00,-0.0011
1999.00,-0.0012
1998.00,-0.0013
1997.00,-0.0015
1996.00,-0.0016
1995.00,-0.0015
1994.00,-0.0014
1993.00,-0.0011
1992.00,-0.0008
1991.00,-0.0006
1990.00,-0.0004
1989.00,-0.0003
1988.00,-0.0003
1987.00,-0.0003
1986.00,-0.0003
1985.00,-0.0002
1984.00,0.0000
1983.00,0.0004
1982.00,0.0009
1981.00,0.0014
1980.00,0.0014
1979.00,0.0008
1978.00,0.0001
1977.00,-0.0006
1976.00,-0.0008
1975.00,-0.0009
1974.00,-0.0010
1973.00,-0.0011
1972.00,-0.0012
1971.00,-0.0013
1970.00,-0.0013
1969.00,-0.0012
1968.00,-0.0011
1967.00,-0.0011
1966.00,-0.0012
1965.00,-0.0013
1964.00,-0.0012
1963.00,-0.0010
1962.00,-0.0009
1961.00,-0.0009
1960.00,-0.0011
1959.00,-0.0013
1958.00,-0.0014
1957.00,-0.0014
1956.00,-0.0013
1955.00,-0.0013
1954.00,-0.0014
1953.00,-0.0014
1952.00,-0.0015
1951.00,-0.0016
1950.00,-0.0016
1949.00,-0.0016
1948.00,-0.0016
1947.00,-0.0017
1946.00,-0.0018
1945.00,-0.0018
1944.00,-0.0017
1943.00,-0.0015
1942.00,-0.0014
1941.00,-0.0013
1940.00,-0.0012
1939.00,-0.0011
1938.00,-0.0011
1937.00,-0.0010
1936.00,-0.0010
1935.00,-0.0009
1934.00,-0.0008
1933.00,-0.0007
1932.00,-0.0007
1931.00,-0.0008
1930.00,-0.0009
1929.00,-0.0009
1928.00,-0.0009
1927.00,-0.0008
1926.00,-0.0007
1925.00,-0.0006
1924.00,-0.0005
1923.00,-0.0004
1922.00,-0.0004
1921.00,-0.0004
1920.00,-0.0004
1919.00,-0.0005
1918.00,-0.0005
1917.00,-0.0005
1916.00,-0.0004
1915.00,-0.0004
1914.00,-0.0003
1913.00,-0.0002
1912.00,-0.0002
1911.00,-0.0002
1910.00,-0.0002
1909.00,-0.0003
1908.00,-0.0003
1907.00,-0.0004
1906.00,-0.0004
1905.00,-0.0004
1904.00,-0.0003
1903.00,-0.0002
1902.00,-0.0001
1901.00,-0.0001
1900.00,-0.0000
1899.00,-0.0000
1898.00,-0.0000
1897.00,-0.0000
1896.00,-0.0000
1895.00,-0.0000
1894.00,-0.0001
1893.00,-0.0001
1892.00,-0.0001
1891.00,-0.0001
1890.00,-0.0001
1889.00,-0.0000
1888.00,0.0001
1887.00,0.0001
1886.00,0.0001
1885.00,0.0000
1884.00,-0.0001
1883.00,-0.0001
1882.00,-0.0001
1881.00,-0.0001
1880.00,-0.0001
1879.00,-0.0001
1878.00,-0.0001
1877.00,-0.0001
1876.00,-0.0001
1875.00,-0.0001
1874.00,-0.0001
1873.00,-0.0000
1872.00,-0.0000
1871.00,0.0000
1870.00,0.0000
1869.00,0.0000
1868.00,0.0001
1867.00,0.0001
1866.00,0.0002
1865.00,0.0002
1864.00,0.0002
1863.00,0.0001
1862.00,0.0000
1861.00,-0.0000
1860.00,-0.0001
1859.00,-0.0001
1858.00,-0.0000
1857.00,0.0000
1856.00,0.0001
1855.00,0.0002
1854.00,0.0002
1853.00,0.0002
1852.00,0.0002
1851.00,0.0001
1850.00,0.0001
1849.00,0.0001
1848.00,0.0001
1847.00,0.0002
1846.00,0.0002
1845.00,0.0002
1844.00,0.0003
1843.00,0.0002
1842.00,0.0001
1841.00,0.0001
1840.00,0.0000
1839.00,0.0000
1838.00,0.0001
1837.00,0.0002
1836.00,0.0002
1835.00,0.0002
1834.00,0.0002
1833.00,0.0002
1832.00,0.0002
1831.00,0.0002
1830.00,0.0003
1829.00,0.0004
1828.00,0.0004
1827.00,0.0004
1826.00,0.0005
1825.00,0.0005
1824.00,0.0005
1823.00,0.0005
1822.00,0.0005
1821.00,0.0005
1820.00,0.0004
1819.00,0.0002
1818.00,0.0001
1817.00,0.0000
1816.00,0.0000
1815.00,0.0001
1814.00,0.0002
1813.00,0.0003
1812.00,0.0004
1811.00,0.0004
1810.00,0.0004
1809.00,0.0004
1808.00,0.0005
1807.00,0.0005
1806.00,0.0005
1805.00,0.0005
1804.00,0.0005
1803.00,0.0005
1802.00,0.0005
1801.00,0.0005
1800.00,0.0005
1799.00,0.0005
1798.00,0.0006
1797.00,0.0006
1796.00,0.0007
1795.00,0.0007
1794.00,0.0007
1793.00,0.0007
1792.00,0.0007
1791.00,0.0007
1790.00,0.0007
1789.00,0.0008
1788.00,0.0007
1787.00,0.0007
1786.00,0.0007
1785.00,0.0007
1784.00,0.0007
1783.00,0.0007
1782.00,0.0007
1781.00,0.0007
1780.00,0.0007
1779.00,0.0007
1778.00,0.0007
1777.00,0.0008
1776.00,0.0007
1775.00,0.0007
1774.00,0.0007
1773.00,0.0008
1772.00,0.0008
1771.00,0.0009
1770.00,0.0009
1769.00,0.0010
1768.00,0.0010
1767.00,0.0010
1766.00,0.0010
1765.00,0.0010
1764.00,0.0010
1763.00,0.0010
1762.00,0.0011
1761.00,0.0011
1760.00,0.0011
1759.00,0.0011
1758.00,0.0011
1757.00,0.0011
1756.00,0.0011
1755.00,0.0011
1754.00,0.0011
1753.00,0.0012
1752.00,0.0014
1751.00,0.0015
1750.00,0.0015
1749.00,0.0015
1748.00,0.0015
1747.00,0.0015
1746.00,0.0015
1745.00,0.0015
1744.00,0.0016
1743.00,0.0016
1742.00,0.0017
1741.00,0.0017
1740.00,0.0018
1739.00,0.0018
1738.00,0.0018
1737.00,0.0018
1736.00,0.0018
1735.00,0.0018
1734.00,0.0018
1733.00,0.0018
1732.00,0.0018
1731.00,0.0018
1730.00,0.0018
1729.00,0.0019
1728.00,0.0020
1727.00,0.0020
1726.00,0.0020
1725.00,0.0020
1724.00,0.0021
1723.00,0.0021
1722.00,0.0022
1721.00,0.0022
1720.00,0.0022
1719.00,0.0022
1718.00,0.0022
1717.00,0.0022
1716.00,0.0021
1715.00,0.0021
1714.00,0.0021
1713.00,0.0022
1712.00,0.0022
1711.00,0.0022
1710.00,0.0022
1709.00,0.0022
1708.00,0.0022
1707.00,0.0022
1706.00,0.0022
1705.00,0.0023
1704.00,0.0023
1703.00,0.0023
1702.00,0.0023
1701.00,0.0024
1700.00,0.0025
1699.00,0.0026
1698.00,0.0026
1697.00,0.0026
1696.00,0.0027
1695.00,0.0028
1694.00,0.0029
1693.00,0.0030
1692.00,0.0030
1691.00,0.0031
1690.00,0.0032
1689.00,0.0033
1688.00,0.0034
1687.00,0.0034
1686.00,0.0034
1685.00,0.0035
1684.00,0.0036
1683.00,0.0038
1682.00,0.0039
1681.00,0.0040
1680.00,0.0040
1679.00,0.0041
1678.00,0.0042
1677.00,0.0043
1676.00,0.0045
1675.00,0.0046
1674.00,0.0047
1673.00,0.0048
1672.00,0.0048
1671.00,0.0049
1670.00,0.0050
1669.00,0.0050
1668.00,0.0051
1667.00,0.0051
1666.00,0.0052
1665.00,0.0052
1664.00,0.0053
1663.00,0.0053
1662.00,0.0052
1661.00,0.0053
1660.00,0.0053
1659.00,0.0054
1658.00,0.0055
1657.00,0.0056
1656.00,0.0057
1655.00,0.0058
1654.00,0.0059
1653.00,0.0061
1652.00,0.0063
1651.00,0.0064
1650.00,0.0066
1649.00,0.0068
1648.00,0.0071
1647.00,0.0074
1646.00,0.0076
1645.00,0.0076
1644.00,0.0075
1643.00,0.0073
1642.00,0.0072
1641.00,0.0071
1640.00,0.0070
1639.00,0.0071
1638.00,0.0071
1637.00,0.0071
1636.00,0.0071
1635.00,0.0070
1634.00,0.0069
1633.00,0.0068
1632.00,0.0068
1631.00,0.0068
1630.00,0.0068
1629.00,0.0067
1628.00,0.0066
1627.00,0.0065
1626.00,0.0065
1625.00,0.0064
1624.00,0.0064
1623.00,0.0064
1622.00,0.0063
1621.00,0.0063
1620.00,0.0063
1619.00,0.0062
1618.00,0.0062
1617.00,0.0062
1616.00,0.0061
1615.00,0.0061
1614.00,0.0061
1613.00,0.0061
1612.00,0.0061
1611.00,0.0061
1610.00,0.0061
1609.00,0.0061
1608.00,0.0061
1607.00,0.0060
1606.00,0.0060
1605.00,0.0060
1604.00,0.0060
1603.00,0.0060
1602.00,0.0060
1601.00,0.0059
1600.00,0.0059
1599.00,0.0059
1598.00,0.0059
1597.00,0.0058
1596.00,0.0058
1595.00,0.0058
1594.00,0.0058
1593.00,0.0058
1592.00,0.0058
1591.00,0.0058
1590.00,0.0057
1589.00,0.0058
1588.00,0.0058
1587.00,0.0058
1586.00,0.0059
1585.00,0.0059
1584.00,0.0060
1583.00,0.0061
1582.00,0.0061
1581.00,0.0062
1580.00,0.0063
1579.00,0.0064
1578.00,0.0065
1577.00,0.0065
1576.00,0.0065
1575.00,0.0064
1574.00,0.0064
1573.00,0.0064
1572.00,0.0065
1571.00,0.0065
1570.00,0.0065
1569.00,0.0065
1568.00,0.0065
1567.00,0.0065
1566.00,0.0065
1565.00,0.0065
1564.00,0.0065
1563.00,0.0066
1562.00,0.0066
1561.00,0.0066
1560.00,0.0066
1559.00,0.0067
1558.00,0.0067
1557.00,0.0068
1556.00,0.0069
1555.00,0.0069
1554.00,0.0069
1553.00,0.0070
1552.00,0.0071
1551.00,0.0072
1550.00,0.0072
1549.00,0.0073
1548.00,0.0074
1547.00,0.0075
1546.00,0.0076
1545.00,0.0077
1544.00,0.0077
1543.00,0.0077
1542.00,0.0077
1541.00,0.0077
1540.00,0.0076
1539.00,0.0073
1538.00,0.0071
1537.00,0.0069
1536.00,0.0067
1535.00,0.0066
1534.00,0.0063
1533.00,0.0061
1532.00,0.0059
1531.00,0.0058
1530.00,0.0057
1529.00,0.0057
1528.00,0.0057
1527.00,0.0057
1526.00,0.0056
1525.00,0.0056
1524.00,0.0057
1523.00,0.0057
1522.00,0.0057
1521.00,0.0057
1520.00,0.0057
1519.00,0.0057
1518.00,0.0057
1517.00,0.0057
1516.00,0.0058
1515.00,0.0058
1514.00,0.0058
1513.00,0.0058
1512.00,0.0059
1511.00,0.0059
1510.00,0.0060
1509.00,0.0062
1508.00,0.0064
1507.00,0.0065
1506.00,0.0065
1505.00,0.0066
1504.00,0.0067
1503.00,0.0068
1502.00,0.0070
1501.00,0.0072
1500.00,0.0074
1499.00,0.0076
1498.00,0.0078
1497.00,0.0081
1496.00,0.0085
1495.00,0.0087
1494.00,0.0090
1493.00,0.0093
1492.00,0.0097
1491.00,0.0101
1490.00,0.0105
1489.00,0.0109
1488.00,0.0115
1487.00,0.0119
1486.00,0.0124
1485.00,0.0129
1484.00,0.0136
1483.00,0.0143
1482.00,0.0151
1481.00,0.0162
1480.00,0.0174
1479.00,0.0186
1478.00,0.0201
1477.00,0.0222
1476.00,0.0247
1475.00,0.0277
1474.00,0.0318
1473.00,0.0375
1472.00,0.0441
1471.00,0.0505
1470.00,0.0567
1469.00,0.0631
1468.00,0.0700
1467.00,0.0774
1466.00,0.0857
1465.00,0.0945
1464.00,0.1022
1463.00,0.1077
1462.00,0.1112
1461.00,0.1137
1460.00,0.1154
1459.00,0.1167
1458.00,0.1178
1457.00,0.1187
1456.00,0.1189
1455.00,0.1183
1454.00,0.1174
1453.00,0.1159
1452.00,0.1135
1451.00,0.1100
1450.00,0.1051
1449.00,0.0983
1448.00,0.0896
1447.00,0.0803
1446.00,0.0717
1445.00,0.0643
1444.00,0.0579
1443.00,0.0526
1442.00,0.0485
1441.00,0.0455
1440.00,0.0437
1439.00,0.0427
1438.00,0.0425
1437.00,0.0422
1436.00,0.0410
1435.00,0.0386
1434.00,0.0351
1433.00,0.0311
1432.00,0.0270
1431.00,0.0233
1430.00,0.0204
1429.00,0.0183
1428.00,0.0167
1427.00,0.0158
1426.00,0.0151
1425.00,0.0145
1424.00,0.0140
1423.00,0.0136
1422.00,0.0134
1421.00,0.0132
1420.00,0.0129
1419.00,0.0126
1418.00,0.0125
1417.00,0.0123
1416.00,0.0120
1415.00,0.0118
1414.00,0.0117
1413.00,0.0116
1412.00,0.0114
1411.00,0.0112
1410.00,0.0112
1409.00,0.0111
1408.00,0.0110
1407.00,0.0110
1406.00,0.0110
1405.00,0.0110
1404.00,0.0109
1403.00,0.0110
1402.00,0.0111
1401.00,0.0111
1400.00,0.0112
1399.00,0.0113
1398.00,0.0114
1397.00,0.0116
1396.00,0.0118
1395.00,0.0121
1394.00,0.0126
1393.00,0.0130
1392.00,0.0135
1391.00,0.0142
1390.00,0.0153
1389.00,0.0167
1388.00,0.0188
1387.00,0.0219
1386.00,0.0261
1385.00,0.0317
1384.00,0.0394
1383.00,0.0501
1382.00,0.0645
1381.00,0.0827
1380.00,0.1048
1379.00,0.1292
1378.00,0.1521
1377.00,0.1681
1376.00,0.1724
1375.00,0.1626
1374.00,0.1418
1373.00,0.1172
1372.00,0.0949
1371.00,0.0766
1370.00,0.0620
1369.00,0.0510
1368.00,0.0434
1367.00,0.0386
1366.00,0.0360
1365.00,0.0349
1364.00,0.0350
1363.00,0.0361
1362.00,0.0380
1361.00,0.0399
1360.00,0.0414
1359.00,0.0418
1358.00,0.0408
1357.00,0.0386
1356.00,0.0354
1355.00,0.0318
1354.00,0.0284
1353.00,0.0254
1352.00,0.0230
1351.00,0.0210
1350.00,0.0193
1349.00,0.0180
1348.00,0.0169
1347.00,0.0160
1346.00,0.0152
1345.00,0.0144
1344.00,0.0138
1343.00,0.0133
1342.00,0.0129
1341.00,0.0126
1340.00,0.0123
1339.00,0.0121
1338.00,0.0120
1337.00,0.0119
1336.00,0.0120
1335.00,0.0121
1334.00,0.0124
1333.00,0.0127
1332.00,0.0131
1331.00,0.0134
1330.00,0.0135
1329.00,0.0133
1328.00,0.0130
1327.00,0.0126
1326.00,0.0121
1325.00,0.0116
1324.00,0.0110
1323.00,0.0106
1322.00,0.0102
1321.00,0.0099
1320.00,0.0097
1319.00,0.0095
1318.00,0.0093
1317.00,0.0092
1316.00,0.0092
1315.00,0.0092
1314.00,0.0092
1313.00,0.0092
1312.00,0.0093
1311.00,0.0095
1310.00,0.0100
1309.00,0.0107
1308.00,0.0118
1307.00,0.0130
1306.00,0.0143
1305.00,0.0151
1304.00,0.0154
1303.00,0.0150
1302.00,0.0143
1301.00,0.0136
1300.00,0.0132
1299.00,0.0129
1298.00,0.0129
1297.00,0.0128
1296.00,0.0127
1295.00,0.0124
1294.00,0.0120
1293.00,0.0115
1292.00,0.0110
1291.00,0.0105
1290.00,0.0101
1289.00,0.0097
1288.00,0.0095
1287.00,0.0093
1286.00,0.0091
1285.00,0.0089
1284.00,0.0087
1283.00,0.0086
1282.00,0.0085
1281.00,0.0084
1280.00,0.0083
1279.00,0.0082
1278.00,0.0082
1277.00,0.0081
1276.00,0.0080
1275.00,0.0080
1274.00,0.0080
1273.00,0.0080
1272.00,0.0080
1271.00,0.0082
1270.00,0.0084
1269.00,0.0086
1268.00,0.0089
1267.00,0.0092
1266.00,0.0096
1265.00,0.0099
1264.00,0.0102
1263.00,0.0106
1262.00,0.0111
1261.00,0.0115
1260.00,0.0121
1259.00,0.0129
1258.00,0.0136
1257.00,0.0142
1256.00,0.0145
1255.00,0.0142
1254.00,0.0134
1253.00,0.0124
1252.00,0.0114
1251.00,0.0105
1250.00,0.0099
1249.00,0.0094
1248.00,0.0090
1247.00,0.0087
1246.00,0.0085
1245.00,0.0083
1244.00,0.0082
1243.00,0.0080
1242.00,0.0079
1241.00,0.0077
1240.00,0.0076
1239.00,0.0076
1238.00,0.0076
1237.00,0.0076
1236.00,0.0076
1235.00,0.0075
1234.00,0.0075
1233.00,0.0075
1232.00,0.0076
1231.00,0.0077
1230.00,0.0078
1229.00,0.0078
1228.00,0.0079
1227.00,0.0081
1226.00,0.0083
1225.00,0.0086
1224.00,0.0089
1223.00,0.0092
1222.00,0.0095
1221.00,0.0097
1220.00,0.0098
1219.00,0.0099
1218.00,0.0099
1217.00,0.0097
1216.00,0.0095
1215.00,0.0092
1214.00,0.0089
1213.00,0.0087
1212.00,0.0085
1211.00,0.0083
1210.00,0.0082
1209.00,0.0081
1208.00,0.0080
1207.00,0.0079
1206.00,0.0078
1205.00,0.0077
1204.00,0.0077
1203.00,0.0076
1202.00,0.0075
1201.00,0.0075
1200.00,0.0074
1199.00,0.0074
1198.00,0.0075
1197.00,0.0075
1196.00,0.0076
1195.00,0.0076
1194.00,0.0076
1193.00,0.0077
1192.00,0.0077
1191.00,0.0078
1190.00,0.0078
1189.00,0.0078
1188.00,0.0077
1187.00,0.0077
1186.00,0.0078
1185.00,0.0078
1184.00,0.0080
1183.00,0.0082
1182.00,0.0084
1181.00,0.0087
1180.00,0.0091
1179.00,0.0096
1178.00,0.0103
1177.00,0.0112
1176.00,0.0124
1175.00,0.0140
1174.00,0.0162
1173.00,0.0190
1172.00,0.0224
1171.00,0.0262
1170.00,0.0298
1169.00,0.0328
1168.00,0.0347
1167.00,0.0351
1166.00,0.0342
1165.00,0.0325
1164.00,0.0304
1163.00,0.0283
1162.00,0.0263
1161.00,0.0248
1160.00,0.0235
1159.00,0.0226
1158.00,0.0218
1157.00,0.0213
1156.00,0.0209
1155.00,0.0206
1154.00,0.0204
1153.00,0.0201
1152.00,0.0197
1151.00,0.0191
1150.00,0.0182
1149.00,0.0172
1148.00,0.0162
1147.00,0.0153
1146.00,0.0145
1145.00,0.0138
1144.00,0.0131
1143.00,0.0125
1142.00,0.0119
1141.00,0.0114
1140.00,0.0109
1139.00,0.0104
1138.00,0.0099
1137.00,0.0095
1136.00,0.0092
1135.00,0.0090
1134.00,0.0089
1133.00,0.0088
1132.00,0.0087
1131.00,0.0087
1130.00,0.0087
1129.00,0.0087
1128.00,0.0088
1127.00,0.0089
1126.00,0.0090
1125.00,0.0091
1124.00,0.0093
1123.00,0.0093
1122.00,0.0094
1121.00,0.0094
1120.00,0.0095
1119.00,0.0096
1118.00,0.0097
1117.00,0.0098
1116.00,0.0099
1115.00,0.0100
1114.00,0.0101
1113.00,0.0104
1112.00,0.0106
1111.00,0.0110
1110.00,0.0113
1109.00,0.0117
1108.00,0.0121
1107.00,0.0127
1106.00,0.0133
1105.00,0.0139
1104.00,0.0144
1103.00,0.0146
1102.00,0.0145
1101.00,0.0141
1100.00,0.0135
1099.00,0.0129
1098.00,0.0123
1097.00,0.0118
1096.00,0.0114
1095.00,0.0111
1094.00,0.0109
1093.00,0.0108
1092.00,0.0105
1091.00,0.0102
1090.00,0.0100
1089.00,0.0098
1088.00,0.0097
1087.00,0.0097
1086.00,0.0096
1085.00,0.0096
1084.00,0.0095
1083.00,0.0095
1082.00,0.0094
1081.00,0.0094
1080.00,0.0093
1079.00,0.0092
1078.00,0.0091
1077.00,0.0090
1076.00,0.0089
1075.00,0.0088
1074.00,0.0087
1073.00,0.0086
1072.00,0.0085
1071.00,0.0085
1070.00,0.0084
1069.00,0.0083
1068.00,0.0082
1067.00,0.0082
1066.00,0.0083
1065.00,0.0083
1064.00,0.0084
1063.00,0.0084
1062.00,0.0084
1061.00,0.0084
1060.00,0.0085
1059.00,0.0085
1058.00,0.0086
1057.00,0.0087
1056.00,0.0087
1055.00,0.0088
1054.00,0.0090
1053.00,0.0091
1052.00,0.0093
1051.00,0.0095
1050.00,0.0098
1049.00,0.0100
1048.00,0.0103
1047.00,0.0107
1046.00,0.0110
1045.00,0.0112
1044.00,0.0113
1043.00,0.0113
1042.00,0.0111
1041.00,0.0109
1040.00,0.0106
1039.00,0.0103
1038.00,0.0102
1037.00,0.0101
1036.00,0.0101
1035.00,0.0100
1034.00,0.0100
1033.00,0.0100
1032.00,0.0099
1031.00,0.0098
1030.00,0.0096
1029.00,0.0094
1028.00,0.0093
1027.00,0.0092
1026.00,0.0091
1025.00,0.0092
1024.00,0.0092
1023.00,0.0093
1022.00,0.0094
1021.00,0.0095
1020.00,0.0096
1019.00,0.0097
1018.00,0.0097
1017.00,0.0097
1016.00,0.0097
1015.00,0.0099
1014.00,0.0101
1013.00,0.0104
1012.00,0.0106
1011.00,0.0109
1010.00,0.0112
1009.00,0.0116
1008.00,0.0121
1007.00,0.0129
1006.00,0.0139
1005.00,0.0153
1004.00,0.0172
1003.00,0.0198
1002.00,0.0234
1001.00,0.0278
1000.00,0.0326
999.00,0.0367
998.00,0.0389
997.00,0.0383
996.00,0.0353
995.00,0.0308
994.00,0.0260
993.00,0.0218
992.00,0.0184
991.00,0.0159
990.00,0.0142
989.00,0.0130
988.00,0.0124
987.00,0.0121
986.00,0.0120
985.00,0.0121
984.00,0.0125
983.00,0.0132
982.00,0.0143
981.00,0.0160
980.00,0.0183
979.00,0.0213
978.00,0.0253
977.00,0.0301
976.00,0.0354
975.00,0.0405
974.00,0.0445
973.00,0.0460
972.00,0.0446
971.00,0.0403
970.00,0.0344
969.00,0.0283
968.00,0.0232
967.00,0.0193
966.00,0.0165
965.00,0.0145
964.00,0.0130
963.00,0.0119
962.00,0.0110
961.00,0.0103
960.00,0.0098
959.00,0.0093
958.00,0.0089
957.00,0.0087
956.00,0.0085
955.00,0.0085
954.00,0.0083
953.00,0.0082
952.00,0.0080
951.00,0.0078
950.00,0.0076
949.00,0.0074
948.00,0.0073
947.00,0.0073
946.00,0.0074
945.00,0.0077
944.00,0.0082
943.00,0.0086
942.00,0.0089
941.00,0.0090
940.00,0.0089
939.00,0.0086
938.00,0.0083
937.00,0.0079
936.00,0.0076
935.00,0.0073
934.00,0.0071
933.00,0.0069
932.00,0.0067
931.00,0.0065
930.00,0.0064
929.00,0.0064
928.00,0.0063
927.00,0.0062
926.00,0.0061
925.00,0.0060
924.00,0.0059
923.00,0.0060
922.00,0.0060
921.00,0.0061
920.00,0.0062
919.00,0.0063
918.00,0.0063
917.00,0.0063
916.00,0.0064
915.00,0.0065
914.00,0.0066
913.00,0.0068
912.00,0.0069
911.00,0.0071
910.00,0.0072
909.00,0.0074
908.00,0.0076
907.00,0.0081
906.00,0.0088
905.00,0.0097
904.00,0.0109
903.00,0.0125
902.00,0.0142
901.00,0.0157
900.00,0.0167
899.00,0.0169
898.00,0.0162
897.00,0.0149
896.00,0.0133
895.00,0.0119
894.00,0.0107
893.00,0.0098
892.00,0.0090
891.00,0.0085
890.00,0.0081
889.00,0.0078
888.00,0.0076
887.00,0.0075
886.00,0.0074
885.00,0.0073
884.00,0.0072
883.00,0.0072
882.00,0.0073
881.00,0.0074
880.00,0.0076
879.00,0.0077
878.00,0.0078
877.00,0.0078
876.00,0.0079
875.00,0.0081
874.00,0.0082
873.00,0.0083
872.00,0.0082
871.00,0.0081
870.00,0.0080
869.00,0.0081
868.00,0.0082
867.00,0.0084
866.00,0.0085
865.00,0.0086
864.00,0.0085
863.00,0.0086
862.00,0.0086
861.00,0.0087
860.00,0.0088
859.00,0.0090
858.00,0.0092
857.00,0.0093
856.00,0.0094
855.00,0.0095
854.00,0.0097
853.00,0.0100
852.00,0.0105
851.00,0.0111
850.00,0.0118
849.00,0.0125
848.00,0.0134
847.00,0.0148
846.00,0.0171
845.00,0.0208
844.00,0.0262
843.00,0.0326
842.00,0.0379
841.00,0.0399
840.00,0.0375
839.00,0.0319
838.00,0.0256
837.00,0.0205
836.00,0.0170
835.00,0.0148
834.00,0.0135
833.00,0.0127
832.00,0.0121
831.00,0.0115
830.00,0.0111
829.00,0.0107
828.00,0.0106
827.00,0.0105
826.00,0.0104
825.00,0.0104
824.00,0.0104
823.00,0.0104
822.00,0.0105
821.00,0.0108
820.00,0.0112
819.00,0.0115
818.00,0.0119
817.00,0.0123
816.00,0.0131
815.00,0.0141
814.00,0.0155
813.00,0.0172
812.00,0.0189
811.00,0.0205
810.00,0.0217
809.00,0.0222
808.00,0.0219
807.00,0.0208
806.00,0.0192
805.00,0.0176
804.00,0.0161
803.00,0.0149
802.00,0.0141
801.00,0.0134
800.00,0.0128
799.00,0.0124
798.00,0.0121
797.00,0.0118
796.00,0.0115
795.00,0.0112
794.00,0.0108
793.00,0.0103
792.00,0.0097
791.00,0.0091
790.00,0.0086
789.00,0.0082
788.00,0.0080
787.00,0.0079
786.00,0.0078
785.00,0.0078
784.00,0.0078
783.00,0.0077
782.00,0.0076
781.00,0.0075
780.00,0.0073
779.00,0.0072
778.00,0.0070
777.00,0.0068
776.00,0.0067
775.00,0.0066
774.00,0.0067
773.00,0.0068
772.00,0.0068
771.00,0.0068
770.00,0.0067
769.00,0.0067
768.00,0.0068
767.00,0.0069
766.00,0.0070
765.00,0.0071
764.00,0.0071
763.00,0.0070
762.00,0.0069
761.00,0.0068
760.00,0.0067
759.00,0.0067
758.00,0.0068
757.00,0.0069
756.00,0.0071
755.00,0.0073
754.00,0.0074
753.00,0.0076
752.00,0.0077
751.00,0.0080
750.00,0.0082
749.00,0.0084
748.00,0.0086
747.00,0.0086
746.00,0.0086
745.00,0.0087
744.00,0.0088
743.00,0.0090
742.00,0.0093
741.00,0.0097
740.00,0.0102
739.00,0.0106
738.00,0.0109
737.00,0.0112
736.00,0.0115
735.00,0.0119
734.00,0.0124
733.00,0.0130
732.00,0.0137
731.00,0.0146
730.00,0.0154
729.00,0.0159
728.00,0.0160
727.00,0.0159
726.00,0.0160
725.00,0.0163
724.00,0.0169
723.00,0.0176
722.00,0.0183
721.00,0.0187
720.00,0.0185
719.00,0.0176
718.00,0.0163
717.00,0.0150
716.00,0.0139
715.00,0.0130
714.00,0.0123
713.00,0.0118
712.00,0.0114
711.00,0.0112
710.00,0.0109
709.00,0.0107
708.00,0.0105
707.00,0.0104
706.00,0.0103
705.00,0.0102
704.00,0.0101
703.00,0.0100
702.00,0.0098
701.00,0.0097
700.00,0.0095
699.00,0.0094
698.00,0.0093
697.00,0.0092
696.00,0.0090
695.00,0.0090
694.00,0.0091
693.00,0.0092
692.00,0.0092
691.00,0.0092
690.00,0.0092
689.00,0.0092
688.00,0.0091
687.00,0.0091
686.00,0.0091
685.00,0.0092
684.00,0.0093
683.00,0.0093
682.00,0.0091
681.00,0.0090
680.00,0.0088
679.00,0.0087
678.00,0.0087
677.00,0.0087
676.00,0.0087
675.00,0.0088
674.00,0.0089
673.00,0.0090
672.00,0.0093
671.00,0.0096
670.00,0.0100
669.00,0.0102
668.00,0.0104
667.00,0.0103
666.00,0.0100
665.00,0.0097
664.00,0.0094
663.00,0.0092
662.00,0.0090
661.00,0.0087
660.00,0.0086
659.00,0.0085
658.00,0.0086
657.00,0.0087
656.00,0.0087
655.00,0.0087
654.00,0.0086
653.00,0.0086
652.00,0.0085
651.00,0.0085
650.00,0.0086
649.00,0.0088
648.00,0.0090
647.00,0.0091
646.00,0.0091
645.00,0.0090
644.00,0.0088
643.00,0.0087
642.00,0.0087
641.00,0.0089
640.00,0.0092
639.00,0.0094
638.00,0.0094
637.00,0.0094
636.00,0.0094
635.00,0.0093
634.00,0.0091
633.00,0.0089
632.00,0.0088
631.00,0.0087
630.00,0.0085
629.00,0.0083
628.00,0.0083
627.00,0.0084
626.00,0.0086
625.00,0.0088
624.00,0.0090
623.00,0.0093
622.00,0.0095
621.00,0.0095
620.00,0.0094
619.00,0.0093
618.00,0.0091
617.00,0.0090
616.00,0.0090
615.00,0.0090
614.00,0.0091
613.00,0.0091
612.00,0.0090
611.00,0.0089
610.00,0.0088
609.00,0.0088
608.00,0.0088
607.00,0.0089
606.00,0.0090
605.00,0.0091
604.00,0.0090
603.00,0.0091
602.00,0.0092
601.00,0.0093
600.00,0.0091
599.00,0.0089
598.00,0.0087
597.00,0.0086
596.00,0.0087
595.00,0.0088
594.00,0.0088
593.00,0.0085
592.00,0.0081
591.00,0.0079
590.00,0.0079
589.00,0.0081
588.00,0.0083
587.00,0.0085
586.00,0.0087
585.00,0.0087
584.00,0.0086
583.00,0.0085
582.00,0.0085
581.00,0.0086
580.00,0.0088
579.00,0.0090
578.00,0.0090
577.00,0.0089
576.00,0.0089
575.00,0.0089
574.00,0.0091
573.00,0.0092
572.00,0.0091
571.00,0.0088
570.00,0.0087
569.00,0.0089
568.00,0.0091
567.00,0.0094
566.00,0.0096
565.00,0.0096
564.00,0.0093
563.00,0.0089
562.00,0.0085
561.00,0.0082
560.00,0.0082
559.00,0.0084
558.00,0.0088
557.00,0.0091
556.00,0.0093
555.00,0.0094
554.00,0.0094
553.00,0.0095
552.00,0.0097
551.00,0.0098
550.00,0.0095
549.00,0.0090
548.00,0.0084
547.00,0.0081
546.00,0.0081
545.00,0.0083
544.00,0.0085
543.00,0.0085
542.00,0.0084
541.00,0.0083
540.00,0.0084
539.00,0.0085
538.00,0.0085
537.00,0.0087
536.00,0.0090
535.00,0.0095
534.00,0.0101
533.00,0.0106
532.00,0.0108
531.00,0.0107
530.00,0.0103
529.00,0.0101
528.00,0.0103
527.00,0.0108
526.00,0.0112
525.00,0.0112
524.00,0.0108
523.00,0.0102
522.00,0.0098
521.00,0.0095
520.00,0.0093
519.00,0.0091
518.00,0.0091
517.00,0.0094
516.00,0.0098
515.00,0.0101
514.00,0.0102
513.00,0.0101
512.00,0.0100
511.00,0.0098
510.00,0.0096
509.00,0.0094
508.00,0.0090
507.00,0.0087
506.00,0.0087
505.00,0.0089
504.00,0.0091
503.00,0.0089
502.00,0.0083
501.00,0.0075
500.00,0.0070
499.00,0.0071
498.00,0.0077
497.00,0.0085
496.00,0.0092
495.00,0.0093
494.00,0.0089
493.00,0.0084
492.00,0.0079
491.00,0.0074
490.00,0.0071
489.00,0.0071
488.00,0.0071
487.00,0.0070
486.00,0.0067
485.00,0.0065
484.00,0.0065
483.00,0.0071
482.00,0.0080
481.00,0.0091
480.00,0.0100
479.00,0.0101
478.00,0.0094
477.00,0.0082
476.00,0.0073
475.00,0.0070
474.00,0.0073
473.00,0.0080
472.00,0.0090
471.00,0.0099
470.00,0.0103
469.00,0.0102
468.00,0.0100
467.00,0.0100
466.00,0.0104
465.00,0.0109
464.00,0.0113
463.00,0.0119
462.00,0.0130
461.00,0.0144
460.00,0.0159
459.00,0.0168
458.00,0.0165
457.00,0.0156
456.00,0.0142
455.00,0.0137
454.00,0.0139
453.00,0.0140
452.00,0.0133
451.00,0.0117
450.00,0.0103
