Created as New Dataset,Sample 001 By Administrator Date Thursday, September 04 2025
cm-1,A
4000.00,0.0007
3999.00,0.0007
3998.00,0.0007
3997.00,0.0007
3996.00,0.0006
3995.00,0.0006
3994.00,0.0006
3993.00,0.0006
3992.00,0.0007
3991.00,0.0007
3990.00,0.0007
3989.00,0.0007
3988.00,0.0007
3987.00,0.0007
3986.00,0.0006
3985.00,0.0006
3984.00,0.0005
3983.00,0.0005
3982.00,0.0005
3981.00,0.0005
3980.00,0.0005
3979.00,0.0005
3978.00,0.0005
3977.00,0.0006
3976.00,0.0006
3975.00,0.0005
3974.00,0.0005
3973.00,0.0005
3972.00,0.0004
3971.00,0.0004
3970.00,0.0004
3969.00,0.0004
3968.00,0.0004
3967.00,0.0004
3966.00,0.0004
3965.00,0.0004
3964.00,0.0004
3963.00,0.0004
3962.00,0.0004
3961.00,0.0004
3960.00,0.0004
3959.00,0.0004
3958.00,0.0004
3957.00,0.0004
3956.00,0.0004
3955.00,0.0004
3954.00,0.0004
3953.00,0.0004
3952.00,0.0004
3951.00,0.0004
3950.00,0.0004
3949.00,0.0004
3948.00,0.0004
3947.00,0.0003
3946.00,0.0004
3945.00,0.0004
3944.00,0.0003
3943.00,0.0003
3942.00,0.0003
3941.00,0.0004
3940.00,0.0004
3939.00,0.0004
3938.00,0.0004
3937.00,0.0004
3936.00,0.0004
3935.00,0.0005
3934.00,0.0005
3933.00,0.0005
3932.00,0.0005
3931.00,0.0005
3930.00,0.0005
3929.00,0.0005
3928.00,0.0005
3927.00,0.0005
3926.00,0.0005
3925.00,0.0005
3924.00,0.0005
3923.00,0.0005
3922.00,0.0006
3921.00,0.0006
3920.00,0.0006
3919.00,0.0006
3918.00,0.0006
3917.00,0.0005
3916.00,0.0005
3915.00,0.0005
3914.00,0.0005
3913.00,0.0004
3912.00,0.0004
3911.00,0.0004
3910.00,0.0005
3909.00,0.0005
3908.00,0.0005
3907.00,0.0005
3906.00,0.0005
3905.00,0.0005
3904.00,0.0005
3903.00,0.0004
3902.00,0.0004
3901.00,0.0004
3900.00,0.0004
3899.00,0.0004
3898.00,0.0004
3897.00,0.0004
3896.00,0.0004
3895.00,0.0004
3894.00,0.0004
3893.00,0.0004
3892.00,0.0004
3891.00,0.0004
3890.00,0.0004
3889.00,0.0005
3888.00,0.0005
3887.00,0.0005
3886.00,0.0005
3885.00,0.0005
3884.00,0.0005
3883.00,0.0005
3882.00,0.0005
3881.00,0.0005
3880.00,0.0004
3879.00,0.0004
3878.00,0.0004
3877.00,0.0003
3876.00,0.0003
3875.00,0.0003
3874.00,0.0003
3873.00,0.0004
3872.00,0.0004
3871.00,0.0004
3870.00,0.0004
3869.00,0.0004
3868.00,0.0005
3867.00,0.0004
3866.00,0.0004
3865.00,0.0003
3864.00,0.0004
3863.00,0.0004
3862.00,0.0004
3861.00,0.0004
3860.00,0.0004
3859.00,0.0004
3858.00,0.0004
3857.00,0.0004
3856.00,0.0004
3855.00,0.0004
3854.00,0.0004
3853.00,0.0004
3852.00,0.0004
3851.00,0.0004
3850.00,0.0004
3849.00,0.0004
3848.00,0.0004
3847.00,0.0004
3846.00,0.0004
3845.00,0.0004
3844.00,0.0004
3843.00,0.0004
3842.00,0.0003
3841.00,0.0003
3840.00,0.0003
3839.00,0.0003
3838.00,0.0003
3837.00,0.0003
3836.00,0.0003
3835.00,0.0003
3834.00,0.0004
3833.00,0.0004
3832.00,0.0004
3831.00,0.0004
3830.00,0.0004
3829.00,0.0004
3828.00,0.0004
3827.00,0.0004
3826.00,0.0004
3825.00,0.0004
3824.00,0.0004
3823.00,0.0004
3822.00,0.0004
3821.00,0.0004
3820.00,0.0004
3819.00,0.0004
3818.00,0.0004
3817.00,0.0004
3816.00,0.0004
3815.00,0.0004
3814.00,0.0005
3813.00,0.0005
3812.00,0.0005
3811.00,0.0005
3810.00,0.0005
3809.00,0.0005
3808.00,0.0005
3807.00,0.0005
3806.00,0.0005
3805.00,0.0005
3804.00,0.0005
3803.00,0.0004
3802.00,0.0004
3801.00,0.0004
3800.00,0.0004
3799.00,0.0004
3798.00,0.0004
3797.00,0.0003
3796.00,0.0004
3795.00,0.0004
3794.00,0.0004
3793.00,0.0004
3792.00,0.0004
3791.00,0.0004
3790.00,0.0005
3789.00,0.0005
3788.00,0.0004
3787.00,0.0004
3786.00,0.0004
3785.00,0.0004
3784.00,0.0004
3783.00,0.0004
3782.00,0.0005
3781.00,0.0005
3780.00,0.0005
3779.00,0.0006
3778.00,0.0006
3777.00,0.0006
3776.00,0.0006
3775.00,0.0006
3774.00,0.0005
3773.00,0.0005
3772.00,0.0005
3771.00,0.0005
3770.00,0.0005
3769.00,0.0005
3768.00,0.0005
3767.00,0.0005
3766.00,0.0005
3765.00,0.0005
3764.00,0.0005
3763.00,0.0006
3762.00,0.0006
3761.00,0.0006
3760.00,0.0006
3759.00,0.0007
3758.00,0.0006
3757.00,0.0006
3756.00,0.0006
3755.00,0.0005
3754.00,0.0005
3753.00,0.0005
3752.00,0.0005
3751.00,0.0006
3750.00,0.0006
3749.00,0.0007
3748.00,0.0007
3747.00,0.0007
3746.00,0.0006
3745.00,0.0005
3744.00,0.0005
3743.00,0.0005
3742.00,0.0004
3741.00,0.0004
3740.00,0.0003
3739.00,0.0002
3738.00,0.0002
3737.00,0.0002
3736.00,0.0003
3735.00,0.0003
3734.00,0.0003
3733.00,0.0003
3732.00,0.0002
3731.00,0.0002
3730.00,0.0002
3729.00,0.0002
3728.00,0.0002
3727.00,0.0002
3726.00,0.0002
3725.00,0.0003
3724.00,0.0003
3723.00,0.0003
3722.00,0.0003
3721.00,0.0003
3720.00,0.0004
3719.00,0.0004
3718.00,0.0004
3717.00,0.0004
3716.00,0.0003
3715.00,0.0003
3714.00,0.0003
3713.00,0.0004
3712.00,0.0004
3711.00,0.0003
3710.00,0.0003
3709.00,0.0002
3708.00,0.0002
3707.00,0.0002
3706.00,0.0003
3705.00,0.0003
3704.00,0.0003
3703.00,0.0003
3702.00,0.0003
3701.00,0.0003
3700.00,0.0003
3699.00,0.0003
3698.00,0.0003
3697.00,0.0003
3696.00,0.0003
3695.00,0.0003
3694.00,0.0003
3693.00,0.0003
3692.00,0.0003
3691.00,0.0003
3690.00,0.0003
3689.00,0.0003
3688.00,0.0003
3687.00,0.0003
3686.00,0.0004
3685.00,0.0004
3684.00,0.0004
3683.00,0.0004
3682.00,0.0004
3681.00,0.0004
3680.00,0.0004
3679.00,0.0004
3678.00,0.0004
3677.00,0.0005
3676.00,0.0005
3675.00,0.0005
3674.00,0.0006
3673.00,0.0005
3672.00,0.0005
3671.00,0.0004
3670.00,0.0004
3669.00,0.0004
3668.00,0.0004
3667.00,0.0004
3666.00,0.0004
3665.00,0.0003
3664.00,0.0003
3663.00,0.0003
3662.00,0.0003
3661.00,0.0003
3660.00,0.0003
3659.00,0.0004
3658.00,0.0004
3657.00,0.0004
3656.00,0.0004
3655.00,0.0004
3654.00,0.0004
3653.00,0.0004
3652.00,0.0004
3651.00,0.0005
3650.00,0.0005
3649.00,0.0004
3648.00,0.0004
3647.00,0.0004
3646.00,0.0004
3645.00,0.0004
3644.00,0.0004
3643.00,0.0004
3642.00,0.0004
3641.00,0.0004
3640.00,0.0004
3639.00,0.0004
3638.00,0.0004
3637.00,0.0004
3636.00,0.0004
3635.00,0.0004
3634.00,0.0004
3633.00,0.0005
3632.00,0.0005
3631.00,0.0006
3630.00,0.0006
3629.00,0.0005
3628.00,0.0005
3627.00,0.0005
3626.00,0.0005
3625.00,0.0005
3624.00,0.0005
3623.00,0.0005
3622.00,0.0004
3621.00,0.0004
3620.00,0.0004
3619.00,0.0004
3618.00,0.0004
3617.00,0.0004
3616.00,0.0004
3615.00,0.0004
3614.00,0.0005
3613.00,0.0005
3612.00,0.0006
3611.00,0.0006
3610.00,0.0006
3609.00,0.0006
3608.00,0.0006
3607.00,0.0006
3606.00,0.0006
3605.00,0.0007
3604.00,0.0007
3603.00,0.0007
3602.00,0.0007
3601.00,0.0007
3600.00,0.0007
3599.00,0.0007
3598.00,0.0007
3597.00,0.0007
3596.00,0.0007
3595.00,0.0007
3594.00,0.0007
3593.00,0.0008
3592.00,0.0008
3591.00,0.0008
3590.00,0.0008
3589.00,0.0008
3588.00,0.0009
3587.00,0.0009
3586.00,0.0009
3585.00,0.0009
3584.00,0.0009
3583.00,0.0010
3582.00,0.0010
3581.00,0.0010
3580.00,0.0011
3579.00,0.0011
3578.00,0.0010
3577.00,0.0010
3576.00,0.0010
3575.00,0.0011
3574.00,0.0011
3573.00,0.0012
3572.00,0.0012
3571.00,0.0013
3570.00,0.0013
3569.00,0.0013
3568.00,0.0013
3567.00,0.0013
3566.00,0.0013
3565.00,0.0013
3564.00,0.0013
3563.00,0.0013
3562.00,0.0014
3561.00,0.0014
3560.00,0.0014
3559.00,0.0014
3558.00,0.0014
3557.00,0.0014
3556.00,0.0015
3555.00,0.0015
3554.00,0.0015
3553.00,0.0016
3552.00,0.0016
3551.00,0.0016
3550.00,0.0017
3549.00,0.0018
3548.00,0.0018
3547.00,0.0019
3546.00,0.0019
3545.00,0.0019
3544.00,0.0019
3543.00,0.0019
3542.00,0.0019
3541.00,0.0019
3540.00,0.0019
3539.00,0.0019
3538.00,0.0019
3537.00,0.0019
3536.00,0.0019
3535.00,0.0019
3534.00,0.0020
3533.00,0.0020
3532.00,0.0020
3531.00,0.0021
3530.00,0.0021
3529.00,0.0022
3528.00,0.0022
3527.00,0.0022
3526.00,0.0023
3525.00,0.0023
3524.00,0.0023
3523.00,0.0023
3522.00,0.0023
3521.00,0.0024
3520.00,0.0024
3519.00,0.0024
3518.00,0.0025
3517.00,0.0025
3516.00,0.0025
3515.00,0.0025
3514.00,0.0025
3513.00,0.0025
3512.00,0.0026
3511.00,0.0026
3510.00,0.0026
3509.00,0.0027
3508.00,0.0027
3507.00,0.0027
3506.00,0.0027
3505.00,0.0027
3504.00,0.0027
3503.00,0.0027
3502.00,0.0028
3501.00,0.0028
3500.00,0.0028
3499.00,0.0029
3498.00,0.0029
3497.00,0.0029
3496.00,0.0029
3495.00,0.0029
3494.00,0.0029
3493.00,0.0030
3492.00,0.0030
3491.00,0.0031
3490.00,0.0031
3489.00,0.0031
3488.00,0.0031
3487.00,0.0031
3486.00,0.0031
3485.00,0.0032
3484.00,0.0032
3483.00,0.0033
3482.00,0.0033
3481.00,0.0033
3480.00,0.0033
3479.00,0.0034
3478.00,0.0034
3477.00,0.0034
3476.00,0.0034
3475.00,0.0034
3474.00,0.0034
3473.00,0.0035
3472.00,0.0035
3471.00,0.0035
3470.00,0.0035
3469.00,0.0035
3468.00,0.0035
3467.00,0.0036
3466.00,0.0036
3465.00,0.0036
3464.00,0.0036
3463.00,0.0036
3462.00,0.0037
3461.00,0.0037
3460.00,0.0037
3459.00,0.0037
3458.00,0.0037
3457.00,0.0038
3456.00,0.0038
3455.00,0.0039
3454.00,0.0040
3453.00,0.0040
3452.00,0.0040
3451.00,0.0040
3450.00,0.0040
3449.00,0.0040
3448.00,0.0040
3447.00,0.0040
3446.00,0.0040
3445.00,0.0040
3444.00,0.0040
3443.00,0.0041
3442.00,0.0041
3441.00,0.0041
3440.00,0.0041
3439.00,0.0041
3438.00,0.0041
3437.00,0.0041
3436.00,0.0041
3435.00,0.0041
3434.00,0.0041
3433.00,0.0042
3432.00,0.0042
3431.00,0.0042
3430.00,0.0043
3429.00,0.0043
3428.00,0.0043
3427.00,0.0044
3426.00,0.0044
3425.00,0.0044
3424.00,0.0044
3423.00,0.0044
3422.00,0.0044
3421.00,0.0045
3420.00,0.0045
3419.00,0.0046
3418.00,0.0046
3417.00,0.0046
3416.00,0.0046
3415.00,0.0046
3414.00,0.0046
3413.00,0.0046
3412.00,0.0046
3411.00,0.0047
3410.00,0.0047
3409.00,0.0047
3408.00,0.0047
3407.00,0.0047
3406.00,0.0048
3405.00,0.0048
3404.00,0.0048
3403.00,0.0048
3402.00,0.0048
3401.00,0.0049
3400.00,0.0049
3399.00,0.0050
3398.00,0.0050
3397.00,0.0050
3396.00,0.0050
3395.00,0.0050
3394.00,0.0050
3393.00,0.0050
3392.00,0.0050
3391.00,0.0050
3390.00,0.0050
3389.00,0.0050
3388.00,0.0049
3387.00,0.0049
3386.00,0.0049
3385.00,0.0049
3384.00,0.0049
3383.00,0.0049
3382.00,0.0049
3381.00,0.0049
3380.00,0.0049
3379.00,0.0049
3378.00,0.0050
3377.00,0.0050
3376.00,0.0049
3375.00,0.0049
3374.00,0.0049
3373.00,0.0048
3372.00,0.0048
3371.00,0.0049
3370.00,0.0049
3369.00,0.0049
3368.00,0.0049
3367.00,0.0049
3366.00,0.0049
3365.00,0.0049
3364.00,0.0049
3363.00,0.0048
3362.00,0.0048
3361.00,0.0048
3360.00,0.0048
3359.00,0.0048
3358.00,0.0048
3357.00,0.0048
3356.00,0.0048
3355.00,0.0048
3354.00,0.0048
3353.00,0.0048
3352.00,0.0048
3351.00,0.0048
3350.00,0.0048
3349.00,0.0049
3348.00,0.0049
3347.00,0.0049
3346.00,0.0049
3345.00,0.0049
3344.00,0.0048
3343.00,0.0048
3342.00,0.0048
3341.00,0.0047
3340.00,0.0047
3339.00,0.0047
3338.00,0.0047
3337.00,0.0047
3336.00,0.0047
3335.00,0.0046
3334.00,0.0046
3333.00,0.0046
3332.00,0.0045
3331.00,0.0045
3330.00,0.0045
3329.00,0.0044
3328.00,0.0044
3327.00,0.0044
3326.00,0.0044
3325.00,0.0045
3324.00,0.0044
3323.00,0.0044
3322.00,0.0044
3321.00,0.0043
3320.00,0.0043
3319.00,0.0043
3318.00,0.0043
3317.00,0.0043
3316.00,0.0044
3315.00,0.0044
3314.00,0.0044
3313.00,0.0043
3312.00,0.0043
3311.00,0.0044
3310.00,0.0044
3309.00,0.0044
3308.00,0.0044
3307.00,0.0044
3306.00,0.0044
3305.00,0.0044
3304.00,0.0044
3303.00,0.0045
3302.00,0.0045
3301.00,0.0045
3300.00,0.0045
3299.00,0.0045
3298.00,0.0045
3297.00,0.0044
3296.00,0.0043
3295.00,0.0043
3294.00,0.0042
3293.00,0.0042
3292.00,0.0042
3291.00,0.0042
3290.00,0.0041
3289.00,0.0041
3288.00,0.0041
3287.00,0.0041
3286.00,0.0040
3285.00,0.0040
3284.00,0.0040
3283.00,0.0040
3282.00,0.0040
3281.00,0.0039
3280.00,0.0039
3279.00,0.0039
3278.00,0.0038
3277.00,0.0038
3276.00,0.0038
3275.00,0.0038
3274.00,0.0038
3273.00,0.0038
3272.00,0.0038
3271.00,0.0037
3270.00,0.0037
3269.00,0.0037
3268.00,0.0037
3267.00,0.0037
3266.00,0.0037
3265.00,0.0037
3264.00,0.0037
3263.00,0.0037
3262.00,0.0036
3261.00,0.0036
3260.00,0.0036
3259.00,0.0036
3258.00,0.0036
3257.00,0.0036
3256.00,0.0036
3255.00,0.0036
3254.00,0.0035
3253.00,0.0035
3252.00,0.0034
3251.00,0.0034
3250.00,0.0034
3249.00,0.0034
3248.00,0.0034
3247.00,0.0034
3246.00,0.0034
3245.00,0.0034
3244.00,0.0034
3243.00,0.0034
3242.00,0.0033
3241.00,0.0033
3240.00,0.0033
3239.00,0.0033
3238.00,0.0033
3237.00,0.0033
3236.00,0.0033
3235.00,0.0033
3234.00,0.0034
3233.00,0.0034
3232.00,0.0034
3231.00,0.0034
3230.00,0.0034
3229.00,0.0034
3228.00,0.0034
3227.00,0.0034
3226.00,0.0034
3225.00,0.0034
3224.00,0.0034
3223.00,0.0035
3222.00,0.0035
3221.00,0.0035
3220.00,0.0036
3219.00,0.0036
3218.00,0.0036
3217.00,0.0036
3216.00,0.0037
3215.00,0.0037
3214.00,0.0037
3213.00,0.0037
3212.00,0.0037
3211.00,0.0038
3210.00,0.0038
3209.00,0.0038
3208.00,0.0038
3207.00,0.0038
3206.00,0.0038
3205.00,0.0038
3204.00,0.0038
3203.00,0.0039
3202.00,0.0039
3201.00,0.0038
3200.00,0.0038
3199.00,0.0037
3198.00,0.0037
3197.00,0.0037
3196.00,0.0037
3195.00,0.0038
3194.00,0.0037
3193.00,0.0037
3192.00,0.0037
3191.00,0.0037
3190.00,0.0037
3189.00,0.0037
3188.00,0.0037
3187.00,0.0037
3186.00,0.0037
3185.00,0.0037
3184.00,0.0037
3183.00,0.0037
3182.00,0.0037
3181.00,0.0037
3180.00,0.0036
3179.00,0.0036
3178.00,0.0035
3177.00,0.0035
3176.00,0.0035
3175.00,0.0035
3174.00,0.0034
3173.00,0.0034
3172.00,0.0033
3171.00,0.0033
3170.00,0.0033
3169.00,0.0033
3168.00,0.0033
3167.00,0.0033
3166.00,0.0033
3165.00,0.0033
3164.00,0.0033
3163.00,0.0032
3162.00,0.0031
3161.00,0.0031
3160.00,0.0031
3159.00,0.0031
3158.00,0.0031
3157.00,0.0031
3156.00,0.0031
3155.00,0.0031
3154.00,0.0031
3153.00,0.0031
3152.00,0.0031
3151.00,0.0031
3150.00,0.0031
3149.00,0.0031
3148.00,0.0031
3147.00,0.0031
3146.00,0.0031
3145.00,0.0031
3144.00,0.0031
3143.00,0.0031
3142.00,0.0030
3141.00,0.0030
3140.00,0.0030
3139.00,0.0029
3138.00,0.0029
3137.00,0.0029
3136.00,0.0029
3135.00,0.0029
3134.00,0.0028
3133.00,0.0028
3132.00,0.0028
3131.00,0.0027
3130.00,0.0027
3129.00,0.0027
3128.00,0.0027
3127.00,0.0027
3126.00,0.0027
3125.00,0.0027
3124.00,0.0027
3123.00,0.0027
3122.00,0.0026
3121.00,0.0026
3120.00,0.0026
3119.00,0.0026
3118.00,0.0026
3117.00,0.0026
3116.00,0.0026
3115.00,0.0025
3114.00,0.0025
3113.00,0.0025
3112.00,0.0024
3111.00,0.0024
3110.00,0.0024
3109.00,0.0024
3108.00,0.0023
3107.00,0.0023
3106.00,0.0024
3105.00,0.0024
3104.00,0.0024
3103.00,0.0024
3102.00,0.0024
3101.00,0.0024
3100.00,0.0024
3099.00,0.0024
3098.00,0.0024
3097.00,0.0024
3096.00,0.0024
3095.00,0.0023
3094.00,0.0023
3093.00,0.0023
3092.00,0.0023
3091.00,0.0023
3090.00,0.0023
3089.00,0.0023
3088.00,0.0023
3087.00,0.0023
3086.00,0.0023
3085.00,0.0023
3084.00,0.0023
3083.00,0.0022
3082.00,0.0022
3081.00,0.0022
3080.00,0.0023
3079.00,0.0023
3078.00,0.0023
3077.00,0.0023
3076.00,0.0023
3075.00,0.0023
3074.00,0.0024
3073.00,0.0024
3072.00,0.0024
3071.00,0.0024
3070.00,0.0024
3069.00,0.0024
3068.00,0.0025
3067.00,0.0025
3066.00,0.0025
3065.00,0.0025
3064.00,0.0026
3063.00,0.0026
3062.00,0.0026
3061.00,0.0026
3060.00,0.0026
3059.00,0.0026
3058.00,0.0026
3057.00,0.0027
3056.00,0.0027
3055.00,0.0027
3054.00,0.0028
3053.00,0.0027
3052.00,0.0027
3051.00,0.0027
3050.00,0.0027
3049.00,0.0027
3048.00,0.0028
3047.00,0.0028
3046.00,0.0029
3045.00,0.0029
3044.00,0.0030
3043.00,0.0029
3042.00,0.0029
3041.00,0.0030
3040.00,0.0030
3039.00,0.0030
3038.00,0.0031
3037.00,0.0031
3036.00,0.0031
3035.00,0.0032
3034.00,0.0032
3033.00,0.0033
3032.00,0.0033
3031.00,0.0034
3030.00,0.0034
3029.00,0.0035
3028.00,0.0035
3027.00,0.0035
3026.00,0.0036
3025.00,0.0036
3024.00,0.0037
3023.00,0.0037
3022.00,0.0038
3021.00,0.0039
3020.00,0.0040
3019.00,0.0041
3018.00,0.0041
3017.00,0.0042
3016.00,0.0042
3015.00,0.0043
3014.00,0.0044
3013.00,0.0045
3012.00,0.0047
3011.00,0.0048
3010.00,0.0050
3009.00,0.0051
3008.00,0.0053
3007.00,0.0054
3006.00,0.0055
3005.00,0.0057
3004.00,0.0058
3003.00,0.0060
3002.00,0.0062
3001.00,0.0064
3000.00,0.0067
2999.00,0.0069
2998.00,0.0072
2997.00,0.0075
2996.00,0.0079
2995.00,0.0083
2994.00,0.0087
2993.00,0.0091
2992.00,0.0096
2991.00,0.0101
2990.00,0.0106
2989.00,0.0112
2988.00,0.0119
2987.00,0.0127
2986.00,0.0136
2985.00,0.0146
2984.00,0.0157
2983.00,0.0169
2982.00,0.0183
2981.00,0.0198
2980.00,0.0216
2979.00,0.0236
2978.00,0.0259
2977.00,0.0286
2976.00,0.0316
2975.00,0.0351
2974.00,0.0391
2973.00,0.0437
2972.00,0.0488
2971.00,0.0545
2970.00,0.0608
2969.00,0.0676
2968.00,0.0749
2967.00,0.0827
2966.00,0.0906
2965.00,0.0984
2964.00,0.1058
2963.00,0.1123
2962.00,0.1177
2961.00,0.1218
2960.00,0.1250
2959.00,0.1279
2958.00,0.1312
2957.00,0.1358
2956.00,0.1421
2955.00,0.1504
2954.00,0.1604
2953.00,0.1711
2952.00,0.1812
2951.00,0.1888
2950.00,0.1923
2949.00,0.1908
2948.00,0.1842
2947.00,0.1735
2946.00,0.1604
2945.00,0.1466
2944.00,0.1337
2943.00,0.1227
2942.00,0.1141
2941.00,0.1082
2940.00,0.1046
2939.00,0.1034
2938.00,0.1041
2937.00,0.1067
2936.00,0.1109
2935.00,0.1166
2934.00,0.1238
2933.00,0.1324
2932.00,0.1422
2931.00,0.1532
2930.00,0.1651
2929.00,0.1775
2928.00,0.1903
2927.00,0.2031
2926.00,0.2158
2925.00,0.2284
2924.00,0.2410
2923.00,0.2538
2922.00,0.2668
2921.00,0.2795
2920.00,0.2910
2919.00,0.2999
2918.00,0.3044
2917.00,0.3036
2916.00,0.2972
2915.00,0.2863
2914.00,0.2727
2913.00,0.2582
2912.00,0.2443
2911.00,0.2318
2910.00,0.2209
2909.00,0.2113
2908.00,0.2027
2907.00,0.1946
2906.00,0.1869
2905.00,0.1793
2904.00,0.1718
2903.00,0.1645
2902.00,0.1573
2901.00,0.1504
2900.00,0.1439
2899.00,0.1378
2898.00,0.1320
2897.00,0.1268
2896.00,0.1221
2895.00,0.1180
2894.00,0.1146
2893.00,0.1118
2892.00,0.1097
2891.00,0.1082
2890.00,0.1073
2889.00,0.1067
2888.00,0.1066
2887.00,0.1067
2886.00,0.1071
2885.00,0.1078
2884.00,0.1090
2883.00,0.1106
2882.00,0.1126
2881.00,0.1148
2880.00,0.1168
2879.00,0.1184
2878.00,0.1192
2877.00,0.1192
2876.00,0.1185
2875.00,0.1178
2874.00,0.1175
2873.00,0.1178
2872.00,0.1190
2871.00,0.1210
2870.00,0.1234
2869.00,0.1259
2868.00,0.1277
2867.00,0.1280
2866.00,0.1260
2865.00,0.1215
2864.00,0.1149
2863.00,0.1070
2862.00,0.0990
2861.00,0.0919
2860.00,0.0862
2859.00,0.0822
2858.00,0.0798
2857.00,0.0786
2856.00,0.0786
2855.00,0.0793
2854.00,0.0806
2853.00,0.0822
2852.00,0.0840
2851.00,0.0857
2850.00,0.0871
2849.00,0.0883
2848.00,0.0894
2847.00,0.0910
2846.00,0.0934
2845.00,0.0969
2844.00,0.1013
2843.00,0.1063
2842.00,0.1114
2841.00,0.1158
2840.00,0.1189
2839.00,0.1198
2838.00,0.1180
2837.00,0.1135
2836.00,0.1064
2835.00,0.0973
2834.00,0.0872
2833.00,0.0770
2832.00,0.0675
2831.00,0.0592
2830.00,0.0522
2829.00,0.0465
2828.00,0.0418
2827.00,0.0379
2826.00,0.0348
2825.00,0.0322
2824.00,0.0300
2823.00,0.0281
2822.00,0.0265
2821.00,0.0252
2820.00,0.0240
2819.00,0.0229
2818.00,0.0219
2817.00,0.0211
2816.00,0.0204
2815.00,0.0197
2814.00,0.0191
2813.00,0.0185
2812.00,0.0180
2811.00,0.0174
2810.00,0.0169
2809.00,0.0163
2808.00,0.0157
2807.00,0.0150
2806.00,0.0144
2805.00,0.0137
2804.00,0.0131
2803.00,0.0126
2802.00,0.0121
2801.00,0.0117
2800.00,0.0113
2799.00,0.0110
2798.00,0.0107
2797.00,0.0104
2796.00,0.0102
2795.00,0.0100
2794.00,0.0097
2793.00,0.0094
2792.00,0.0091
2791.00,0.0088
2790.00,0.0085
2789.00,0.0082
2788.00,0.0080
2787.00,0.0077
2786.00,0.0075
2785.00,0.0072
2784.00,0.0070
2783.00,0.0068
2782.00,0.0065
2781.00,0.0064
2780.00,0.0062
2779.00,0.0060
2778.00,0.0059
2777.00,0.0058
2776.00,0.0057
2775.00,0.0055
2774.00,0.0055
2773.00,0.0054
2772.00,0.0053
2771.00,0.0053
2770.00,0.0052
2769.00,0.0052
2768.00,0.0052
2767.00,0.0051
2766.00,0.0051
2765.00,0.0050
2764.00,0.0050
2763.00,0.0050
2762.00,0.0049
2761.00,0.0049
2760.00,0.0048
2759.00,0.0048
2758.00,0.0047
2757.00,0.0047
2756.00,0.0047
2755.00,0.0047
2754.00,0.0048
2753.00,0.0048
2752.00,0.0047
2751.00,0.0047
2750.00,0.0047
2749.00,0.0046
2748.00,0.0046
2747.00,0.0047
2746.00,0.0048
2745.00,0.0049
2744.00,0.0050
2743.00,0.0051
2742.00,0.0051
2741.00,0.0052
2740.00,0.0053
2739.00,0.0054
2738.00,0.0055
2737.00,0.0057
2736.00,0.0058
2735.00,0.0059
2734.00,0.0061
2733.00,0.0062
2732.00,0.0064
2731.00,0.0066
2730.00,0.0068
2729.00,0.0070
2728.00,0.0073
2727.00,0.0076
2726.00,0.0079
2725.00,0.0082
2724.00,0.0083
2723.00,0.0084
2722.00,0.0084
2721.00,0.0082
2720.00,0.0079
2719.00,0.0076
2718.00,0.0073
2717.00,0.0069
2716.00,0.0066
2715.00,0.0064
2714.00,0.0061
2713.00,0.0059
2712.00,0.0056
2711.00,0.0054
2710.00,0.0053
2709.00,0.0051
2708.00,0.0050
2707.00,0.0048
2706.00,0.0047
2705.00,0.0046
2704.00,0.0045
2703.00,0.0044
2702.00,0.0043
2701.00,0.0042
2700.00,0.0041
2699.00,0.0041
2698.00,0.0041
2697.00,0.0040
2696.00,0.0040
2695.00,0.0040
2694.00,0.0040
2693.00,0.0041
2692.00,0.0041
2691.00,0.0041
2690.00,0.0041
2689.00,0.0041
2688.00,0.0041
2687.00,0.0040
2686.00,0.0040
2685.00,0.0040
2684.00,0.0041
2683.00,0.0041
2682.00,0.0041
2681.00,0.0041
2680.00,0.0042
2679.00,0.0042
2678.00,0.0042
2677.00,0.0043
2676.00,0.0043
2675.00,0.0042
2674.00,0.0042
2673.00,0.0041
2672.00,0.0041
2671.00,0.0041
2670.00,0.0041
2669.00,0.0041
2668.00,0.0042
2667.00,0.0042
2666.00,0.0042
2665.00,0.0042
2664.00,0.0043
2663.00,0.0044
2662.00,0.0044
2661.00,0.0045
2660.00,0.0045
2659.00,0.0045
2658.00,0.0045
2657.00,0.0044
2656.00,0.0044
2655.00,0.0043
2654.00,0.0043
2653.00,0.0042
2652.00,0.0041
2651.00,0.0041
2650.00,0.0040
2649.00,0.0040
2648.00,0.0040
2647.00,0.0040
2646.00,0.0039
2645.00,0.0039
2644.00,0.0038
2643.00,0.0037
2642.00,0.0037
2641.00,0.0037
2640.00,0.0036
2639.00,0.0036
2638.00,0.0036
2637.00,0.0036
2636.00,0.0036
2635.00,0.0036
2634.00,0.0036
2633.00,0.0036
2632.00,0.0036
2631.00,0.0036
2630.00,0.0036
2629.00,0.0036
2628.00,0.0036
2627.00,0.0036
2626.00,0.0036
2625.00,0.0036
2624.00,0.0037
2623.00,0.0037
2622.00,0.0037
2621.00,0.0037
2620.00,0.0037
2619.00,0.0037
2618.00,0.0037
2617.00,0.0037
2616.00,0.0037
2615.00,0.0037
2614.00,0.0037
2613.00,0.0037
2612.00,0.0037
2611.00,0.0036
2610.00,0.0035
2609.00,0.0035
2608.00,0.0034
2607.00,0.0033
2606.00,0.0032
2605.00,0.0031
2604.00,0.0030
2603.00,0.0030
2602.00,0.0030
2601.00,0.0030
2600.00,0.0030
2599.00,0.0029
2598.00,0.0029
2597.00,0.0029
2596.00,0.0029
2595.00,0.0029
2594.00,0.0029
2593.00,0.0029
2592.00,0.0030
2591.00,0.0031
2590.00,0.0032
2589.00,0.0033
2588.00,0.0034
2587.00,0.0035
2586.00,0.0035
2585.00,0.0036
2584.00,0.0036
2583.00,0.0036
2582.00,0.0036
2581.00,0.0036
2580.00,0.0035
2579.00,0.0034
2578.00,0.0033
2577.00,0.0032
2576.00,0.0031
2575.00,0.0030
2574.00,0.0029
2573.00,0.0028
2572.00,0.0027
2571.00,0.0026
2570.00,0.0025
2569.00,0.0024
2568.00,0.0024
2567.00,0.0023
2566.00,0.0023
2565.00,0.0022
2564.00,0.0021
2563.00,0.0021
2562.00,0.0020
2561.00,0.0020
2560.00,0.0019
2559.00,0.0019
2558.00,0.0019
2557.00,0.0019
2556.00,0.0018
2555.00,0.0018
2554.00,0.0018
2553.00,0.0018
2552.00,0.0018
2551.00,0.0018
2550.00,0.0017
2549.00,0.0016
2548.00,0.0016
2547.00,0.0016
2546.00,0.0015
2545.00,0.0015
2544.00,0.0015
2543.00,0.0015
2542.00,0.0015
2541.00,0.0015
2540.00,0.0015
2539.00,0.0015
2538.00,0.0014
2537.00,0.0014
2536.00,0.0014
2535.00,0.0014
2534.00,0.0014
2533.00,0.0013
2532.00,0.0013
2531.00,0.0013
2530.00,0.0012
2529.00,0.0012
2528.00,0.0012
2527.00,0.0012
2526.00,0.0011
2525.00,0.0011
2524.00,0.0012
2523.00,0.0012
2522.00,0.0012
2521.00,0.0011
2520.00,0.0011
2519.00,0.0010
2518.00,0.0009
2517.00,0.0009
2516.00,0.0008
2515.00,0.0008
2514.00,0.0008
2513.00,0.0008
2512.00,0.0008
2511.00,0.0008
2510.00,0.0008
2509.00,0.0007
2508.00,0.0007
2507.00,0.0006
2506.00,0.0006
2505.00,0.0006
2504.00,0.0006
2503.00,0.0007
2502.00,0.0007
2501.00,0.0008
2500.00,0.0008
2499.00,0.0008
2498.00,0.0008
2497.00,0.0007
2496.00,0.0007
2495.00,0.0007
2494.00,0.0006
2493.00,0.0006
2492.00,0.0006
2491.00,0.0006
2490.00,0.0007
2489.00,0.0008
2488.00,0.0008
2487.00,0.0008
2486.00,0.0007
2485.00,0.0007
2484.00,0.0007
2483.00,0.0007
2482.00,0.0007
2481.00,0.0007
2480.00,0.0006
2479.00,0.0006
2478.00,0.0007
2477.00,0.0007
2476.00,0.0007
2475.00,0.0006
2474.00,0.0006
2473.00,0.0006
2472.00,0.0006
2471.00,0.0006
2470.00,0.0006
2469.00,0.0006
2468.00,0.0006
2467.00,0.0006
2466.00,0.0006
2465.00,0.0006
2464.00,0.0006
2463.00,0.0006
2462.00,0.0006
2461.00,0.0006
2460.00,0.0006
2459.00,0.0006
2458.00,0.0007
2457.00,0.0008
2456.00,0.0008
2455.00,0.0008
2454.00,0.0008
2453.00,0.0008
2452.00,0.0009
2451.00,0.0009
2450.00,0.0009
2449.00,0.0010
2448.00,0.0010
2447.00,0.0009
2446.00,0.0009
2445.00,0.0009
2444.00,0.0009
2443.00,0.0008
2442.00,0.0008
2441.00,0.0007
2440.00,0.0006
2439.00,0.0006
2438.00,0.0007
2437.00,0.0007
2436.00,0.0008
2435.00,0.0008
2434.00,0.0008
2433.00,0.0008
2432.00,0.0008
2431.00,0.0008
2430.00,0.0008
2429.00,0.0008
2428.00,0.0008
2427.00,0.0008
2426.00,0.0008
2425.00,0.0008
2424.00,0.0008
2423.00,0.0008
2422.00,0.0008
2421.00,0.0008
2420.00,0.0008
2419.00,0.0007
2418.00,0.0006
2417.00,0.0006
2416.00,0.0006
2415.00,0.0007
2414.00,0.0007
2413.00,0.0007
2412.00,0.0007
2411.00,0.0006
2410.00,0.0006
2409.00,0.0006
2408.00,0.0005
2407.00,0.0005
2406.00,0.0005
2405.00,0.0005
2404.00,0.0005
2403.00,0.0005
2402.00,0.0005
2401.00,0.0005
2400.00,0.0004
2399.00,0.0004
2398.00,0.0005
2397.00,0.0005
2396.00,0.0005
2395.00,0.0005
2394.00,0.0005
2393.00,0.0005
2392.00,0.0004
2391.00,0.0004
2390.00,0.0005
2389.00,0.0005
2388.00,0.0005
2387.00,0.0004
2386.00,0.0004
2385.00,0.0003
2384.00,0.0002
2383.00,0.0001
2382.00,-0.0000
2381.00,-0.0001
2380.00,-0.0002
2379.00,-0.0002
2378.00,-0.0002
2377.00,-0.0002
2376.00,-0.0002
2375.00,-0.0002
2374.00,-0.0002
2373.00,-0.0002
2372.00,-0.0002
2371.00,-0.0003
2370.00,-0.0004
2369.00,-0.0004
2368.00,-0.0005
2367.00,-0.0005
2366.00,-0.0005
2365.00,-0.0005
2364.00,-0.0005
2363.00,-0.0004
2362.00,-0.0004
2361.00,-0.0003
2360.00,-0.0003
2359.00,-0.0003
2358.00,-0.0003
2357.00,-0.0003
2356.00,-0.0003
2355.00,-0.0003
2354.00,-0.0003
2353.00,-0.0004
2352.00,-0.0005
2351.00,-0.0005
2350.00,-0.0004
2349.00,-0.0001
2348.00,0.0000
2347.00,0.0001
2346.00,0.0001
2345.00,0.0000
2344.00,-0.0001
2343.00,-0.0000
2342.00,-0.0000
2341.00,0.0000
2340.00,0.0001
2339.00,0.0001
2338.00,0.0002
2337.00,0.0002
2336.00,0.0002
2335.00,0.0002
2334.00,0.0002
2333.00,0.0002
2332.00,0.0002
2331.00,0.0002
2330.00,0.0002
2329.00,0.0002
2328.00,0.0003
2327.00,0.0006
2326.00,0.0010
2325.00,0.0014
2324.00,0.0017
2323.00,0.0016
2322.00,0.0014
2321.00,0.0011
2320.00,0.0009
2319.00,0.0008
2318.00,0.0007
2317.00,0.0007
2316.00,0.0007
2315.00,0.0007
2314.00,0.0006
2313.00,0.0006
2312.00,0.0005
2311.00,0.0004
2310.00,0.0003
2309.00,0.0002
2308.00,0.0001
2307.00,0.0001
2306.00,0.0001
2305.00,0.0002
2304.00,0.0003
2303.00,0.0004
2302.00,0.0004
2301.00,0.0004
2300.00,0.0003
2299.00,0.0004
2298.00,0.0004
2297.00,0.0005
2296.00,0.0006
2295.00,0.0007
2294.00,0.0008
2293.00,0.0010
2292.00,0.0011
2291.00,0.0012
2290.00,0.0013
2289.00,0.0013
2288.00,0.0014
2287.00,0.0014
2286.00,0.0015
2285.00,0.0015
2284.00,0.0014
2283.00,0.0013
2282.00,0.0013
2281.00,0.0012
2280.00,0.0012
2279.00,0.0012
2278.00,0.0011
2277.00,0.0010
2276.00,0.0009
2275.00,0.0008
2274.00,0.0008
2273.00,0.0008
2272.00,0.0008
2271.00,0.0008
2270.00,0.0008
2269.00,0.0007
2268.00,0.0007
2267.00,0.0006
2266.00,0.0006
2265.00,0.0006
2264.00,0.0006
2263.00,0.0006
2262.00,0.0007
2261.00,0.0007
2260.00,0.0008
2259.00,0.0009
2258.00,0.0009
2257.00,0.0010
2256.00,0.0010
2255.00,0.0009
2254.00,0.0008
2253.00,0.0008
2252.00,0.0008
2251.00,0.0007
2250.00,0.0006
2249.00,0.0004
2248.00,0.0003
2247.00,0.0002
2246.00,0.0002
2245.00,0.0003
2244.00,0.0005
2243.00,0.0006
2242.00,0.0005
2241.00,0.0005
2240.00,0.0004
2239.00,0.0005
2238.00,0.0006
2237.00,0.0007
2236.00,0.0007
2235.00,0.0007
2234.00,0.0007
2233.00,0.0007
2232.00,0.0007
2231.00,0.0007
2230.00,0.0007
2229.00,0.0006
2228.00,0.0005
2227.00,0.0006
2226.00,0.0007
2225.00,0.0008
2224.00,0.0009
2223.00,0.0008
2222.00,0.0006
2221.00,0.0004
2220.00,0.0002
2219.00,0.0001
2218.00,0.0001
2217.00,0.0000
2216.00,0.0001
2215.00,0.0001
2214.00,0.0003
2213.00,0.0004
2212.00,0.0005
2211.00,0.0005
2210.00,0.0003
2209.00,0.0002
2208.00,0.0002
2207.00,0.0003
2206.00,0.0004
2205.00,0.0005
2204.00,0.0005
2203.00,0.0005
2202.00,0.0005
2201.00,0.0006
2200.00,0.0007
2199.00,0.0007
2198.00,0.0007
2197.00,0.0006
2196.00,0.0005
2195.00,0.0005
2194.00,0.0005
2193.00,0.0005
2192.00,0.0006
2191.00,0.0006
2190.00,0.0006
2189.00,0.0006
2188.00,0.0006
2187.00,0.0006
2186.00,0.0006
2185.00,0.0006
2184.00,0.0005
2183.00,0.0003
2182.00,0.0001
2181.00,-0.0001
2180.00,-0.0000
2179.00,0.0002
2178.00,0.0004
2177.00,0.0004
2176.00,0.0003
2175.00,0.0003
2174.00,0.0005
2173.00,0.0007
2172.00,0.0007
2171.00,0.0007
2170.00,0.0007
2169.00,0.0008
2168.00,0.0009
2167.00,0.0010
2166.00,0.0011
2165.00,0.0012
2164.00,0.0016
2163.00,0.0020
2162.00,0.0022
2161.00,0.0019
2160.00,0.0008
2159.00,-0.0008
2158.00,-0.0024
2157.00,-0.0031
2156.00,-0.0030
2155.00,-0.0026
2154.00,-0.0023
2153.00,-0.0022
2152.00,-0.0022
2151.00,-0.0022
2150.00,-0.0021
2149.00,-0.0020
2148.00,-0.0019
2147.00,-0.0020
2146.00,-0.0022
2145.00,-0.0023
2144.00,-0.0023
2143.00,-0.0021
2142.00,-0.0019
2141.00,-0.0017
2140.00,-0.0015
2139.00,-0.0014
2138.00,-0.0014
2137.00,-0.0015
2136.00,-0.0015
2135.00,-0.0017
2134.00,-0.0018
2133.00,-0.0019
2132.00,-0.0019
2131.00,-0.0017
2130.00,-0.0015
2129.00,-0.0013
2128.00,-0.0011
2127.00,-0.0010
2126.00,-0.0009
2125.00,-0.0009
2124.00,-0.0008
2123.00,-0.0007
2122.00,-0.0007
2121.00,-0.0006
2120.00,-0.0006
2119.00,-0.0005
2118.00,-0.0004
2117.00,-0.0003
2116.00,-0.0001
2115.00,0.0001
2114.00,0.0002
2113.00,0.0003
2112.00,0.0003
2111.00,0.0003
2110.00,0.0002
2109.00,0.0001
2108.00,-0.0000
2107.00,-0.0002
2106.00,-0.0002
2105.00,-0.0002
2104.00,-0.0001
2103.00,-0.0000
2102.00,-0.0000
2101.00,-0.0000
2100.00,0.0000
2099.00,0.0000
2098.00,-0.0000
2097.00,-0.0002
2096.00,-0.0004
2095.00,-0.0005
2094.00,-0.0006
2093.00,-0.0005
2092.00,-0.0004
2091.00,-0.0004
2090.00,-0.0003
2089.00,-0.0002
2088.00,0.0000
2087.00,0.0001
2086.00,0.0002
2085.00,0.0002
2084.00,0.0001
2083.00,-0.0000
2082.00,-0.0001
2081.00,-0.0000
2080.00,0.0002
2079.00,0.0003
2078.00,0.0003
2077.00,0.0001
2076.00,-0.0001
2075.00,-0.0002
2074.00,-0.0003
2073.00,-0.0003
2072.00,-0.0003
2071.00,-0.0003
2070.00,-0.0004
2069.00,-0.0004
2068.00,-0.0004
2067.00,-0.0003
2066.00,-0.0002
2065.00,-0.0001
2064.00,-0.0002
2063.00,-0.0003
2062.00,-0.0005
2061.00,-0.0005
2060.00,-0.0005
2059.00,-0.0003
2058.00,-0.0002
2057.00,-0.0002
2056.00,-0.0003
2055.00,-0.0003
2054.00,-0.0002
2053.00,0.0002
2052.00,0.0007
2051.00,0.0010
2050.00,0.0010
2049.00,0.0008
2048.00,0.0005
2047.00,0.0002
2046.00,-0.0001
2045.00,-0.0004
2044.00,-0.0005
2043.00,-0.0005
2042.00,-0.0003
2041.00,-0.0001
2040.00,-0.0000
2039.00,0.0000
2038.00,-0.0000
2037.00,-0.0000
2036.00,0.0000
2035.00,0.0000
2034.00,-0.0001
2033.00,-0.0003
2032.00,-0.0006
2031.00,-0.0010
2030.00,-0.0013
2029.00,-0.0014
2028.00,-0.0013
2027.00,-0.0012
2026.00,-0.0013
2025.00,-0.0015
2024.00,-0.0017
2023.00,-0.0018
2022.00,-0.0017
2021.00,-0.0015
2020.00,-0.0013
2019.00,-0.0013
2018.00,-0.0012
2017.00,-0.0012
2016.00,-0.0011
2015.00,-0.0012
2014.00,-0.0014
2013.00,-0.0013
2012.00,-0.0011
2011.00,-0.0009
2010.00,-0.0007
2009.00,-0.0008
2008.00,-0.0011
2007.00,-0.0015
2006.00,-0.0018
2005.00,-0.0018
2004.00,-0.0015
2003.00,-0.0014
2002.00,-0.0014
2001.00,-0.0016
2000.00,-0.0018
1999.00,-0.0018
1998.00,-0.0017
1997.00,-0.0016
1996.00,-0.0017
1995.00,-0.0018
1994.00,-0.0019
1993.00,-0.0018
1992.00,-0.0015
1991.00,-0.0012
1990.00,-0.0008
1989.00,-0.0005
1988.00,-0.0003
1987.00,-0.0002
1986.00,-0.0001
1985.00,0.0001
1984.00,0.0003
1983.00,0.0006
1982.00,0.0009
1981.00,0.0011
1980.00,0.0010
1979.00,0.0005
1978.00,-0.0002
1977.00,-0.0007
1976.00,-0.0009
1975.00,-0.0009
1974.00,-0.0010
1973.00,-0.0012
1972.00,-0.0013
1971.00,-0.0014
1970.00,-0.0015
1969.00,-0.0015
1968.00,-0.0017
1967.00,-0.0018
1966.00,-0.0019
1965.00,-0.0018
1964.00,-0.0017
1963.00,-0.0017
1962.00,-0.0018
1961.00,-0.0019
1960.00,-0.0020
1959.00,-0.0020
1958.00,-0.0021
1957.00,-0.0020
1956.00,-0.0019
1955.00,-0.0017
1954.00,-0.0017
1953.00,-0.0016
1952.00,-0.0015
1951.00,-0.0015
1950.00,-0.0015
1949.00,-0.0015
1948.00,-0.0017
1947.00,-0.0019
1946.00,-0.0021
1945.00,-0.0022
1944.00,-0.0020
1943.00,-0.0018
1942.00,-0.0016
1941.00,-0.0015
1940.00,-0.0016
1939.00,-0.0016
1938.00,-0.0016
1937.00,-0.0014
1936.00,-0.0013
1935.00,-0.0012
1934.00,-0.0011
1933.00,-0.0011
1932.00,-0.0012
1931.00,-0.0012
1930.00,-0.0012
1929.00,-0.0011
1928.00,-0.0010
1927.00,-0.0008
1926.00,-0.0007
1925.00,-0.0006
1924.00,-0.0005
1923.00,-0.0005
1922.00,-0.0005
1921.00,-0.0006
1920.00,-0.0007
1919.00,-0.0008
1918.00,-0.0008
1917.00,-0.0006
1916.00,-0.0005
1915.00,-0.0004
1914.00,-0.0004
1913.00,-0.0004
1912.00,-0.0004
1911.00,-0.0004
1910.00,-0.0004
1909.00,-0.0004
1908.00,-0.0005
1907.00,-0.0005
1906.00,-0.0005
1905.00,-0.0005
1904.00,-0.0005
1903.00,-0.0004
1902.00,-0.0004
1901.00,-0.0003
1900.00,-0.0002
1899.00,-0.0002
1898.00,-0.0003
1897.00,-0.0004
1896.00,-0.0004
1895.00,-0.0005
1894.00,-0.0005
1893.00,-0.0004
1892.00,-0.0004
1891.00,-0.0005
1890.00,-0.0005
1889.00,-0.0004
1888.00,-0.0003
1887.00,-0.0002
1886.00,-0.0001
1885.00,-0.0002
1884.00,-0.0003
1883.00,-0.0004
1882.00,-0.0004
1881.00,-0.0003
1880.00,-0.0003
1879.00,-0.0003
1878.00,-0.0003
1877.00,-0.0002
1876.00,-0.0002
1875.00,-0.0002
1874.00,-0.0003
1873.00,-0.0002
1872.00,-0.0001
1871.00,-0.0000
1870.00,0.0000
1869.00,0.0000
1868.00,-0.0001
1867.00,-0.0002
1866.00,-0.0003
1865.00,-0.0003
1864.00,-0.0002
1863.00,-0.0002
1862.00,-0.0002
1861.00,-0.0002
1860.00,-0.0002
1859.00,-0.0002
1858.00,-0.0001
1857.00,-0.0001
1856.00,-0.0001
1855.00,-0.0001
1854.00,-0.0001
1853.00,-0.0001
1852.00,-0.0001
1851.00,-0.0001
1850.00,-0.0002
1849.00,-0.0002
1848.00,-0.0002
1847.00,-0.0002
1846.00,-0.0003
1845.00,-0.0003
1844.00,-0.0002
1843.00,-0.0001
1842.00,-0.0001
1841.00,-0.0001
1840.00,-0.0001
1839.00,-0.0001
1838.00,-0.0000
1837.00,0.0000
1836.00,0.0001
1835.00,0.0001
1834.00,0.0000
1833.00,0.0000
1832.00,0.0000
1831.00,0.0001
1830.00,0.0001
1829.00,0.0001
1828.00,0.0001
1827.00,0.0001
1826.00,-0.0000
1825.00,-0.0000
1824.00,0.0000
1823.00,0.0001
1822.00,0.0001
1821.00,0.0001
1820.00,0.0000
1819.00,-0.0001
1818.00,-0.0002
1817.00,-0.0002
1816.00,-0.0002
1815.00,-0.0002
1814.00,-0.0001
1813.00,-0.0001
1812.00,-0.0000
1811.00,0.0000
1810.00,0.0001
1809.00,0.0001
1808.00,0.0002
1807.00,0.0002
1806.00,0.0003
1805.00,0.0003
1804.00,0.0003
1803.00,0.0003
1802.00,0.0003
1801.00,0.0002
1800.00,0.0002
1799.00,0.0002
1798.00,0.0003
1797.00,0.0003
1796.00,0.0003
1795.00,0.0003
1794.00,0.0004
1793.00,0.0004
1792.00,0.0004
1791.00,0.0004
1790.00,0.0004
1789.00,0.0004
1788.00,0.0005
1787.00,0.0006
1786.00,0.0006
1785.00,0.0006
1784.00,0.0006
1783.00,0.0005
1782.00,0.0005
1781.00,0.0005
1780.00,0.0006
1779.00,0.0005
1778.00,0.0005
1777.00,0.0004
1776.00,0.0004
1775.00,0.0004
1774.00,0.0004
1773.00,0.0004
1772.00,0.0004
1771.00,0.0004
1770.00,0.0005
1769.00,0.0006
1768.00,0.0007
1767.00,0.0007
1766.00,0.0008
1765.00,0.0008
1764.00,0.0008
1763.00,0.0008
1762.00,0.0008
1761.00,0.0008
1760.00,0.0008
1759.00,0.0008
1758.00,0.0009
1757.00,0.0009
1756.00,0.0010
1755.00,0.0010
1754.00,0.0011
1753.00,0.0012
1752.00,0.0013
1751.00,0.0014
1750.00,0.0015
1749.00,0.0016
1748.00,0.0016
1747.00,0.0016
1746.00,0.0016
1745.00,0.0017
1744.00,0.0018
1743.00,0.0019
1742.00,0.0019
1741.00,0.0019
1740.00,0.0020
1739.00,0.0020
1738.00,0.0020
1737.00,0.0020
1736.00,0.0020
1735.00,0.0020
1734.00,0.0020
1733.00,0.0020
1732.00,0.0020
1731.00,0.0020
1730.00,0.0021
1729.00,0.0021
1728.00,0.0021
1727.00,0.0022
1726.00,0.0022
1725.00,0.0022
1724.00,0.0023
1723.00,0.0023
1722.00,0.0023
1721.00,0.0023
1720.00,0.0023
1719.00,0.0022
1718.00,0.0022
1717.00,0.0021
1716.00,0.0022
1715.00,0.0021
1714.00,0.0021
1713.00,0.0021
1712.00,0.0021
1711.00,0.0021
1710.00,0.0020
1709.00,0.0020
1708.00,0.0020
1707.00,0.0020
1706.00,0.0020
1705.00,0.0020
1704.00,0.0021
1703.00,0.0021
1702.00,0.0021
1701.00,0.0021
1700.00,0.0022
1699.00,0.0022
1698.00,0.0022
1697.00,0.0022
1696.00,0.0023
1695.00,0.0023
1694.00,0.0024
1693.00,0.0024
1692.00,0.0025
1691.00,0.0025
1690.00,0.0026
1689.00,0.0026
1688.00,0.0026
1687.00,0.0026
1686.00,0.0026
1685.00,0.0027
1684.00,0.0028
1683.00,0.0029
1682.00,0.0030
1681.00,0.0030
1680.00,0.0031
1679.00,0.0032
1678.00,0.0033
1677.00,0.0034
1676.00,0.0034
1675.00,0.0035
1674.00,0.0035
1673.00,0.0035
1672.00,0.0036
1671.00,0.0037
1670.00,0.0037
1669.00,0.0037
1668.00,0.0037
1667.00,0.0038
1666.00,0.0038
1665.00,0.0038
1664.00,0.0039
1663.00,0.0039
1662.00,0.0039
1661.00,0.0040
1660.00,0.0040
1659.00,0.0040
1658.00,0.0040
1657.00,0.0041
1656.00,0.0042
1655.00,0.0042
1654.00,0.0042
1653.00,0.0043
1652.00,0.0044
1651.00,0.0045
1650.00,0.0046
1649.00,0.0048
1648.00,0.0050
1647.00,0.0052
1646.00,0.0053
1645.00,0.0054
1644.00,0.0054
1643.00,0.0053
1642.00,0.0053
1641.00,0.0053
1640.00,0.0054
1639.00,0.0054
1638.00,0.0054
1637.00,0.0055
1636.00,0.0054
1635.00,0.0053
1634.00,0.0052
1633.00,0.0051
1632.00,0.0051
1631.00,0.0051
1630.00,0.0051
1629.00,0.0051
1628.00,0.0051
1627.00,0.0050
1626.00,0.0050
1625.00,0.0049
1624.00,0.0049
1623.00,0.0048
1622.00,0.0047
1621.00,0.0046
1620.00,0.0046
1619.00,0.0045
1618.00,0.0044
1617.00,0.0043
1616.00,0.0042
1615.00,0.0042
1614.00,0.0042
1613.00,0.0042
1612.00,0.0042
1611.00,0.0043
1610.00,0.0042
1609.00,0.0042
1608.00,0.0042
1607.00,0.0042
1606.00,0.0041
1605.00,0.0041
1604.00,0.0042
1603.00,0.0042
1602.00,0.0042
1601.00,0.0041
1600.00,0.0041
1599.00,0.0041
1598.00,0.0040
1597.00,0.0040
1596.00,0.0040
1595.00,0.0039
1594.00,0.0040
1593.00,0.0040
1592.00,0.0040
1591.00,0.0040
1590.00,0.0040
1589.00,0.0040
1588.00,0.0040
1587.00,0.0040
1586.00,0.0040
1585.00,0.0041
1584.00,0.0042
1583.00,0.0042
1582.00,0.0043
1581.00,0.0044
1580.00,0.0045
1579.00,0.0046
1578.00,0.0047
1577.00,0.0047
1576.00,0.0047
1575.00,0.0047
1574.00,0.0047
1573.00,0.0048
1572.00,0.0048
1571.00,0.0048
1570.00,0.0048
1569.00,0.0048
1568.00,0.0048
1567.00,0.0048
1566.00,0.0048
1565.00,0.0048
1564.00,0.0048
1563.00,0.0048
1562.00,0.0048
1561.00,0.0049
1560.00,0.0050
1559.00,0.0049
1558.00,0.0048
1557.00,0.0048
1556.00,0.0048
1555.00,0.0048
1554.00,0.0048
1553.00,0.0049
1552.00,0.0050
1551.00,0.0051
1550.00,0.0052
1549.00,0.0052
1548.00,0.0053
1547.00,0.0053
1546.00,0.0054
1545.00,0.0054
1544.00,0.0055
1543.00,0.0055
1542.00,0.0055
1541.00,0.0054
1540.00,0.0054
1539.00,0.0052
1538.00,0.0051
1537.00,0.0051
1536.00,0.0051
1535.00,0.0051
1534.00,0.0050
1533.00,0.0048
1532.00,0.0047
1531.00,0.0047
1530.00,0.0047
1529.00,0.0047
1528.00,0.0047
1527.00,0.0047
1526.00,0.0047
1525.00,0.0048
1524.00,0.0048
1523.00,0.0048
1522.00,0.0047
1521.00,0.0047
1520.00,0.0048
1519.00,0.0048
1518.00,0.0048
1517.00,0.0049
1516.00,0.0050
1515.00,0.0050
1514.00,0.0050
1513.00,0.0051
1512.00,0.0052
1511.00,0.0052
1510.00,0.0052
1509.00,0.0053
1508.00,0.0055
1507.00,0.0055
1506.00,0.0056
1505.00,0.0058
1504.00,0.0060
1503.00,0.0062
1502.00,0.0064
1501.00,0.0067
1500.00,0.0069
1499.00,0.0072
1498.00,0.0074
1497.00,0.0078
1496.00,0.0083
1495.00,0.0086
1494.00,0.0089
1493.00,0.0093
1492.00,0.0097
1491.00,0.0100
1490.00,0.0104
1489.00,0.0109
1488.00,0.0114
1487.00,0.0119
1486.00,0.0124
1485.00,0.0130
1484.00,0.0138
1483.00,0.0145
1482.00,0.0154
1481.00,0.0165
1480.00,0.0178
1479.00,0.0190
1478.00,0.0205
1477.00,0.0226
1476.00,0.0251
1475.00,0.0280
1474.00,0.0320
1473.00,0.0378
1472.00,0.0445
1471.00,0.0511
1470.00,0.0575
1469.00,0.0643
1468.00,0.0716
1467.00,0.0795
1466.00,0.0886
1465.00,0.0982
1464.00,0.1065
1463.00,0.1121
1462.00,0.1156
1461.00,0.1178
1460.00,0.1193
1459.00,0.1201
1458.00,0.1204
1457.00,0.1202
1456.00,0.1193
1455.00,0.1179
1454.00,0.1163
1453.00,0.1143
1452.00,0.1116
1451.00,0.1078
1450.00,0.1028
1449.00,0.0959
1448.00,0.0871
1447.00,0.0778
1446.00,0.0693
1445.00,0.0621
1444.00,0.0560
1443.00,0.0510
1442.00,0.0472
1441.00,0.0447
1440.00,0.0432
1439.00,0.0426
1438.00,0.0429
1437.00,0.0433
1436.00,0.0426
1435.00,0.0404
1434.00,0.0368
1433.00,0.0325
1432.00,0.0280
1431.00,0.0240
1430.00,0.0209
1429.00,0.0185
1428.00,0.0169
1427.00,0.0159
1426.00,0.0153
1425.00,0.0147
1424.00,0.0141
1423.00,0.0138
1422.00,0.0136
1421.00,0.0133
1420.00,0.0130
1419.00,0.0127
1418.00,0.0125
1417.00,0.0122
1416.00,0.0119
1415.00,0.0117
1414.00,0.0117
1413.00,0.0115
1412.00,0.0113
1411.00,0.0112
1410.00,0.0112
1409.00,0.0111
1408.00,0.0110
1407.00,0.0109
1406.00,0.0110
1405.00,0.0110
1404.00,0.0109
1403.00,0.0110
1402.00,0.0111
1401.00,0.0112
1400.00,0.0112
1399.00,0.0113
1398.00,0.0116
1397.00,0.0117
1396.00,0.0119
1395.00,0.0123
1394.00,0.0127
1393.00,0.0132
1392.00,0.0137
1391.00,0.0144
1390.00,0.0154
1389.00,0.0167
1388.00,0.0186
1387.00,0.0215
1386.00,0.0255
1385.00,0.0308
1384.00,0.0381
1383.00,0.0484
1382.00,0.0623
1381.00,0.0807
1380.00,0.1043
1379.00,0.1325
1378.00,0.1617
1377.00,0.1853
1376.00,0.1961
1375.00,0.1895
1374.00,0.1672
1373.00,0.1384
1372.00,0.1111
1371.00,0.0883
1370.00,0.0701
1369.00,0.0564
1368.00,0.0470
1367.00,0.0413
1366.00,0.0383
1365.00,0.0371
1364.00,0.0375
1363.00,0.0390
1362.00,0.0413
1361.00,0.0438
1360.00,0.0457
1359.00,0.0463
1358.00,0.0452
1357.00,0.0425
1356.00,0.0387
1355.00,0.0343
1354.00,0.0302
1353.00,0.0266
1352.00,0.0238
1351.00,0.0215
1350.00,0.0197
1349.00,0.0182
1348.00,0.0169
1347.00,0.0159
1346.00,0.0150
1345.00,0.0142
1344.00,0.0136
1343.00,0.0131
1342.00,0.0126
1341.00,0.0122
1340.00,0.0119
1339.00,0.0116
1338.00,0.0115
1337.00,0.0114
1336.00,0.0115
1335.00,0.0117
1334.00,0.0120
1333.00,0.0124
1332.00,0.0129
1331.00,0.0132
1330.00,0.0134
1329.00,0.0133
1328.00,0.0129
1327.00,0.0125
1326.00,0.0119
1325.00,0.0113
1324.00,0.0107
1323.00,0.0102
1322.00,0.0097
1321.00,0.0094
1320.00,0.0092
1319.00,0.0091
1318.00,0.0089
1317.00,0.0088
1316.00,0.0087
1315.00,0.0086
1314.00,0.0086
1313.00,0.0086
1312.00,0.0087
1311.00,0.0089
1310.00,0.0092
1309.00,0.0097
1308.00,0.0104
1307.00,0.0113
1306.00,0.0121
1305.00,0.0127
1304.00,0.0129
1303.00,0.0127
1302.00,0.0124
1301.00,0.0121
1300.00,0.0120
1299.00,0.0121
1298.00,0.0122
1297.00,0.0123
1296.00,0.0122
1295.00,0.0120
1294.00,0.0117
1293.00,0.0112
1292.00,0.0107
1291.00,0.0103
1290.00,0.0098
1289.00,0.0095
1288.00,0.0092
1287.00,0.0089
1286.00,0.0087
1285.00,0.0085
1284.00,0.0084
1283.00,0.0082
1282.00,0.0081
1281.00,0.0080
1280.00,0.0079
1279.00,0.0079
1278.00,0.0078
1277.00,0.0077
1276.00,0.0077
1275.00,0.0076
1274.00,0.0076
1273.00,0.0077
1272.00,0.0078
1271.00,0.0080
1270.00,0.0082
1269.00,0.0084
1268.00,0.0086
1267.00,0.0088
1266.00,0.0092
1265.00,0.0095
1264.00,0.0099
1263.00,0.0102
1262.00,0.0104
1261.00,0.0106
1260.00,0.0109
1259.00,0.0113
1258.00,0.0117
1257.00,0.0120
1256.00,0.0121
1255.00,0.0119
1254.00,0.0114
1253.00,0.0108
1252.00,0.0101
1251.00,0.0095
1250.00,0.0090
1249.00,0.0087
1248.00,0.0084
1247.00,0.0083
1246.00,0.0081
1245.00,0.0080
1244.00,0.0079
1243.00,0.0078
1242.00,0.0077
1241.00,0.0076
1240.00,0.0074
1239.00,0.0073
1238.00,0.0073
1237.00,0.0073
1236.00,0.0074
1235.00,0.0075
1234.00,0.0076
1233.00,0.0077
1232.00,0.0077
1231.00,0.0077
1230.00,0.0077
1229.00,0.0078
1228.00,0.0079
1227.00,0.0081
1226.00,0.0083
1225.00,0.0086
1224.00,0.0090
1223.00,0.0094
1222.00,0.0098
1221.00,0.0101
1220.00,0.0103
1219.00,0.0103
1218.00,0.0103
1217.00,0.0100
1216.00,0.0097
1215.00,0.0093
1214.00,0.0090
1213.00,0.0087
1212.00,0.0084
1211.00,0.0082
1210.00,0.0081
1209.00,0.0080
1208.00,0.0079
1207.00,0.0078
1206.00,0.0078
1205.00,0.0076
1204.00,0.0076
1203.00,0.0076
1202.00,0.0076
1201.00,0.0076
1200.00,0.0075
1199.00,0.0075
1198.00,0.0075
1197.00,0.0075
1196.00,0.0075
1195.00,0.0075
1194.00,0.0075
1193.00,0.0076
1192.00,0.0077
1191.00,0.0077
1190.00,0.0077
1189.00,0.0077
1188.00,0.0077
1187.00,0.0077
1186.00,0.0078
1185.00,0.0078
1184.00,0.0079
1183.00,0.0079
1182.00,0.0081
1181.00,0.0082
1180.00,0.0085
1179.00,0.0089
1178.00,0.0094
1177.00,0.0100
1176.00,0.0108
1175.00,0.0119
1174.00,0.0134
1173.00,0.0153
1172.00,0.0176
1171.00,0.0203
1170.00,0.0229
1169.00,0.0251
1168.00,0.0263
1167.00,0.0266
1166.00,0.0261
1165.00,0.0250
1164.00,0.0238
1163.00,0.0225
1162.00,0.0214
1161.00,0.0204
1160.00,0.0197
1159.00,0.0192
1158.00,0.0189
1157.00,0.0187
1156.00,0.0187
1155.00,0.0187
1154.00,0.0187
1153.00,0.0186
1152.00,0.0182
1151.00,0.0176
1150.00,0.0168
1149.00,0.0159
1148.00,0.0149
1147.00,0.0139
1146.00,0.0130
1145.00,0.0123
1144.00,0.0118
1143.00,0.0112
1142.00,0.0107
1141.00,0.0101
1140.00,0.0096
1139.00,0.0092
1138.00,0.0089
1137.00,0.0087
1136.00,0.0085
1135.00,0.0083
1134.00,0.0081
1133.00,0.0079
1132.00,0.0079
1131.00,0.0078
1130.00,0.0079
1129.00,0.0080
1128.00,0.0081
1127.00,0.0081
1126.00,0.0082
1125.00,0.0082
1124.00,0.0083
1123.00,0.0083
1122.00,0.0084
1121.00,0.0085
1120.00,0.0086
1119.00,0.0087
1118.00,0.0088
1117.00,0.0090
1116.00,0.0091
1115.00,0.0092
1114.00,0.0094
1113.00,0.0095
1112.00,0.0097
1111.00,0.0099
1110.00,0.0102
1109.00,0.0106
1108.00,0.0111
1107.00,0.0118
1106.00,0.0125
1105.00,0.0132
1104.00,0.0136
1103.00,0.0138
1102.00,0.0137
1101.00,0.0134
1100.00,0.0128
1099.00,0.0121
1098.00,0.0116
1097.00,0.0111
1096.00,0.0107
1095.00,0.0103
1094.00,0.0100
1093.00,0.0097
1092.00,0.0095
1091.00,0.0093
1090.00,0.0091
1089.00,0.0089
1088.00,0.0088
1087.00,0.0088
1086.00,0.0088
1085.00,0.0089
1084.00,0.0089
1083.00,0.0089
1082.00,0.0088
1081.00,0.0087
1080.00,0.0086
1079.00,0.0085
1078.00,0.0084
1077.00,0.0083
1076.00,0.0083
1075.00,0.0083
1074.00,0.0083
1073.00,0.0083
1072.00,0.0083
1071.00,0.0082
1070.00,0.0081
1069.00,0.0081
1068.00,0.0081
1067.00,0.0082
1066.00,0.0083
1065.00,0.0084
1064.00,0.0084
1063.00,0.0085
1062.00,0.0085
1061.00,0.0086
1060.00,0.0086
1059.00,0.0087
1058.00,0.0088
1057.00,0.0089
1056.00,0.0091
1055.00,0.0093
1054.00,0.0095
1053.00,0.0097
1052.00,0.0099
1051.00,0.0102
1050.00,0.0105
1049.00,0.0108
1048.00,0.0111
1047.00,0.0115
1046.00,0.0119
1045.00,0.0121
1044.00,0.0123
1043.00,0.0123
1042.00,0.0122
1041.00,0.0121
1040.00,0.0120
1039.00,0.0120
1038.00,0.0120
1037.00,0.0121
1036.00,0.0121
1035.00,0.0121
1034.00,0.0120
1033.00,0.0118
1032.00,0.0117
1031.00,0.0116
1030.00,0.0116
1029.00,0.0117
1028.00,0.0117
1027.00,0.0118
1026.00,0.0119
1025.00,0.0121
1024.00,0.0123
1023.00,0.0126
1022.00,0.0128
1021.00,0.0130
1020.00,0.0132
1019.00,0.0133
1018.00,0.0133
1017.00,0.0134
1016.00,0.0134
1015.00,0.0133
1014.00,0.0132
1013.00,0.0132
1012.00,0.0132
1011.00,0.0132
1010.00,0.0133
1009.00,0.0133
1008.00,0.0134
1007.00,0.0136
1006.00,0.0140
1005.00,0.0147
1004.00,0.0158
1003.00,0.0175
1002.00,0.0198
1001.00,0.0226
1000.00,0.0255
999.00,0.0280
998.00,0.0291
997.00,0.0284
996.00,0.0262
995.00,0.0231
994.00,0.0199
993.00,0.0172
992.00,0.0151
991.00,0.0136
990.00,0.0125
989.00,0.0118
988.00,0.0114
987.00,0.0111
986.00,0.0110
985.00,0.0111
984.00,0.0114
983.00,0.0119
982.00,0.0128
981.00,0.0142
980.00,0.0161
979.00,0.0186
978.00,0.0216
977.00,0.0251
976.00,0.0288
975.00,0.0321
974.00,0.0345
973.00,0.0351
972.00,0.0338
971.00,0.0306
970.00,0.0265
969.00,0.0225
968.00,0.0190
967.00,0.0164
966.00,0.0144
965.00,0.0129
964.00,0.0119
963.00,0.0111
962.00,0.0105
961.00,0.0100
960.00,0.0096
959.00,0.0094
958.00,0.0091
957.00,0.0090
956.00,0.0088
955.00,0.0086
954.00,0.0084
953.00,0.0082
952.00,0.0081
951.00,0.0080
950.00,0.0079
949.00,0.0078
948.00,0.0077
947.00,0.0078
946.00,0.0081
945.00,0.0084
944.00,0.0088
943.00,0.0093
942.00,0.0096
941.00,0.0099
940.00,0.0099
939.00,0.0096
938.00,0.0090
937.00,0.0084
936.00,0.0078
935.00,0.0074
934.00,0.0071
933.00,0.0069
932.00,0.0067
931.00,0.0066
930.00,0.0065
929.00,0.0063
928.00,0.0062
927.00,0.0061
926.00,0.0061
925.00,0.0061
924.00,0.0062
923.00,0.0062
922.00,0.0062
921.00,0.0062
920.00,0.0061
919.00,0.0061
918.00,0.0062
917.00,0.0063
916.00,0.0064
915.00,0.0065
914.00,0.0066
913.00,0.0067
912.00,0.0068
911.00,0.0070
910.00,0.0072
909.00,0.0075
908.00,0.0078
907.00,0.0083
906.00,0.0090
905.00,0.0100
904.00,0.0115
903.00,0.0133
902.00,0.0153
901.00,0.0172
900.00,0.0185
899.00,0.0189
898.00,0.0181
897.00,0.0165
896.00,0.0144
895.00,0.0125
894.00,0.0110
893.00,0.0099
892.00,0.0091
891.00,0.0086
890.00,0.0081
889.00,0.0078
888.00,0.0076
887.00,0.0075
886.00,0.0075
885.00,0.0075
884.00,0.0075
883.00,0.0075
882.00,0.0075
881.00,0.0075
880.00,0.0075
879.00,0.0077
878.00,0.0078
877.00,0.0080
876.00,0.0081
875.00,0.0081
874.00,0.0081
873.00,0.0079
872.00,0.0078
871.00,0.0077
870.00,0.0077
869.00,0.0077
868.00,0.0076
867.00,0.0077
866.00,0.0077
865.00,0.0077
864.00,0.0078
863.00,0.0078
862.00,0.0079
861.00,0.0080
860.00,0.0081
859.00,0.0083
858.00,0.0085
857.00,0.0087
856.00,0.0088
855.00,0.0089
854.00,0.0090
853.00,0.0090
852.00,0.0090
851.00,0.0092
850.00,0.0096
849.00,0.0102
848.00,0.0109
847.00,0.0119
846.00,0.0134
845.00,0.0157
844.00,0.0191
843.00,0.0230
842.00,0.0262
841.00,0.0274
840.00,0.0258
839.00,0.0223
838.00,0.0183
837.00,0.0151
836.00,0.0129
835.00,0.0118
834.00,0.0112
833.00,0.0109
832.00,0.0106
831.00,0.0103
830.00,0.0100
829.00,0.0097
828.00,0.0096
827.00,0.0095
826.00,0.0096
825.00,0.0098
824.00,0.0100
823.00,0.0102
822.00,0.0103
821.00,0.0105
820.00,0.0107
819.00,0.0110
818.00,0.0115
817.00,0.0122
816.00,0.0131
815.00,0.0143
814.00,0.0159
813.00,0.0177
812.00,0.0198
811.00,0.0218
810.00,0.0233
809.00,0.0240
808.00,0.0236
807.00,0.0222
806.00,0.0203
805.00,0.0183
804.00,0.0165
803.00,0.0152
802.00,0.0141
801.00,0.0133
800.00,0.0127
799.00,0.0122
798.00,0.0118
797.00,0.0114
796.00,0.0109
795.00,0.0104
794.00,0.0099
793.00,0.0096
792.00,0.0094
791.00,0.0092
790.00,0.0089
789.00,0.0085
788.00,0.0081
787.00,0.0078
786.00,0.0075
785.00,0.0073
784.00,0.0071
783.00,0.0069
782.00,0.0067
781.00,0.0066
780.00,0.0065
779.00,0.0065
778.00,0.0064
777.00,0.0064
776.00,0.0064
775.00,0.0065
774.00,0.0066
773.00,0.0066
772.00,0.0067
771.00,0.0068
770.00,0.0069
769.00,0.0070
768.00,0.0071
767.00,0.0071
766.00,0.0070
765.00,0.0070
764.00,0.0070
763.00,0.0070
762.00,0.0069
761.00,0.0067
760.00,0.0067
759.00,0.0068
758.00,0.0070
757.00,0.0071
756.00,0.0072
755.00,0.0074
754.00,0.0075
753.00,0.0076
752.00,0.0076
751.00,0.0076
750.00,0.0078
749.00,0.0080
748.00,0.0083
747.00,0.0086
746.00,0.0088
745.00,0.0090
744.00,0.0091
743.00,0.0093
742.00,0.0095
741.00,0.0098
740.00,0.0101
739.00,0.0105
738.00,0.0109
737.00,0.0112
736.00,0.0117
735.00,0.0122
734.00,0.0129
733.00,0.0135
732.00,0.0141
731.00,0.0146
730.00,0.0150
729.00,0.0152
728.00,0.0153
727.00,0.0155
726.00,0.0159
725.00,0.0163
724.00,0.0169
723.00,0.0176
722.00,0.0181
721.00,0.0183
720.00,0.0181
719.00,0.0172
718.00,0.0161
717.00,0.0148
716.00,0.0138
715.00,0.0129
714.00,0.0123
713.00,0.0118
712.00,0.0114
711.00,0.0111
710.00,0.0109
709.00,0.0107
708.00,0.0106
707.00,0.0104
706.00,0.0103
705.00,0.0102
704.00,0.0102
703.00,0.0102
702.00,0.0100
701.00,0.0098
700.00,0.0096
699.00,0.0094
698.00,0.0094
697.00,0.0095
696.00,0.0097
695.00,0.0099
694.00,0.0100
693.00,0.0098
692.00,0.0096
691.00,0.0095
690.00,0.0096
689.00,0.0096
688.00,0.0096
687.00,0.0095
686.00,0.0093
685.00,0.0093
684.00,0.0093
683.00,0.0095
682.00,0.0097
681.00,0.0099
680.00,0.0101
679.00,0.0102
678.00,0.0103
677.00,0.0103
676.00,0.0104
675.00,0.0104
674.00,0.0103
673.00,0.0101
672.00,0.0100
671.00,0.0102
670.00,0.0106
669.00,0.0111
668.00,0.0114
667.00,0.0113
666.00,0.0108
665.00,0.0102
664.00,0.0099
663.00,0.0097
662.00,0.0096
661.00,0.0095
660.00,0.0095
659.00,0.0094
658.00,0.0093
657.00,0.0091
656.00,0.0090
655.00,0.0089
654.00,0.0090
653.00,0.0091
652.00,0.0091
651.00,0.0089
650.00,0.0086
649.00,0.0086
648.00,0.0087
647.00,0.0088
646.00,0.0089
645.00,0.0089
644.00,0.0087
643.00,0.0085
642.00,0.0083
641.00,0.0083
640.00,0.0083
639.00,0.0086
638.00,0.0088
637.00,0.0089
636.00,0.0088
635.00,0.0087
634.00,0.0086
633.00,0.0086
632.00,0.0087
631.00,0.0089
630.00,0.0091
629.00,0.0091
628.00,0.0091
627.00,0.0089
626.00,0.0089
625.00,0.0089
624.00,0.0090
623.00,0.0091
622.00,0.0090
621.00,0.0087
620.00,0.0085
619.00,0.0084
618.00,0.0086
617.00,0.0088
616.00,0.0089
615.00,0.0088
614.00,0.0087
613.00,0.0086
612.00,0.0086
611.00,0.0086
610.00,0.0085
609.00,0.0084
608.00,0.0081
607.00,0.0079
606.00,0.0079
605.00,0.0080
604.00,0.0081
603.00,0.0081
602.00,0.0078
601.00,0.0075
600.00,0.0074
599.00,0.0076
598.00,0.0080
597.00,0.0084
596.00,0.0085
595.00,0.0084
594.00,0.0081
593.00,0.0080
592.00,0.0080
591.00,0.0082
590.00,0.0084
589.00,0.0085
588.00,0.0084
587.00,0.0083
586.00,0.0080
585.00,0.0077
584.00,0.0076
583.00,0.0077
582.00,0.0080
581.00,0.0082
580.00,0.0082
579.00,0.0082
578.00,0.0082
577.00,0.0081
576.00,0.0081
575.00,0.0082
574.00,0.0083
573.00,0.0085
572.00,0.0086
571.00,0.0087
570.00,0.0088
569.00,0.0088
568.00,0.0088
567.00,0.0088
566.00,0.0089
565.00,0.0088
564.00,0.0086
563.00,0.0085
562.00,0.0085
561.00,0.0085
560.00,0.0084
559.00,0.0082
558.00,0.0079
557.00,0.0077
556.00,0.0077
555.00,0.0080
554.00,0.0083
553.00,0.0085
552.00,0.0085
551.00,0.0085
550.00,0.0085
549.00,0.0084
548.00,0.0081
547.00,0.0079
546.00,0.0079
545.00,0.0081
544.00,0.0084
543.00,0.0085
542.00,0.0086
541.00,0.0089
540.00,0.0094
539.00,0.0101
538.00,0.0107
537.00,0.0110
536.00,0.0111
535.00,0.0110
534.00,0.0110
533.00,0.0111
532.00,0.0110
531.00,0.0108
530.00,0.0107
529.00,0.0107
528.00,0.0110
527.00,0.0113
526.00,0.0114
525.00,0.0113
524.00,0.0110
523.00,0.0104
522.00,0.0096
521.00,0.0088
520.00,0.0084
519.00,0.0086
518.00,0.0092
517.00,0.0094
516.00,0.0092
515.00,0.0087
514.00,0.0083
513.00,0.0081
512.00,0.0079
511.00,0.0078
510.00,0.0078
509.00,0.0080
508.00,0.0083
507.00,0.0086
506.00,0.0088
505.00,0.0089
504.00,0.0087
503.00,0.0082
502.00,0.0075
501.00,0.0069
500.00,0.0069
499.00,0.0073
498.00,0.0079
497.00,0.0083
496.00,0.0084
495.00,0.0082
494.00,0.0076
493.00,0.0067
492.00,0.0063
491.00,0.0066
490.00,0.0074
489.00,0.0081
488.00,0.0083
487.00,0.0081
486.00,0.0078
485.00,0.0077
484.00,0.0082
483.00,0.0089
482.00,0.0095
481.00,0.0097
480.00,0.0098
479.00,0.0102
478.00,0.0112
477.00,0.0126
476.00,0.0139
475.00,0.0146
474.00,0.0147
473.00,0.0144
472.00,0.0143
471.00,0.0148
470.00,0.0158
469.00,0.0166
468.00,0.0170
467.00,0.0172
466.00,0.0177
465.00,0.0186
464.00,0.0197
463.00,0.0204
462.00,0.0203
461.00,0.0195
460.00,0.0185
459.00,0.0178
458.00,0.0180
457.00,0.0190
456.00,0.0201
455.00,0.0206
454.00,0.0202
453.00,0.0192
452.00,0.0180
451.00,0.0170
450.00,0.0162
