Created as New Dataset,Sample 041 By Administrator Date Thursday, September 04 2025
cm-1,A
4000.00,0.0009
3999.00,0.0009
3998.00,0.0009
3997.00,0.0009
3996.00,0.0009
3995.00,0.0009
3994.00,0.0009
3993.00,0.0009
3992.00,0.0009
3991.00,0.0009
3990.00,0.0009
3989.00,0.0009
3988.00,0.0008
3987.00,0.0008
3986.00,0.0008
3985.00,0.0008
3984.00,0.0008
3983.00,0.0008
3982.00,0.0008
3981.00,0.0008
3980.00,0.0008
3979.00,0.0008
3978.00,0.0008
3977.00,0.0008
3976.00,0.0008
3975.00,0.0008
3974.00,0.0008
3973.00,0.0007
3972.00,0.0007
3971.00,0.0007
3970.00,0.0007
3969.00,0.0008
3968.00,0.0008
3967.00,0.0008
3966.00,0.0007
3965.00,0.0007
3964.00,0.0007
3963.00,0.0007
3962.00,0.0007
3961.00,0.0007
3960.00,0.0007
3959.00,0.0007
3958.00,0.0007
3957.00,0.0007
3956.00,0.0007
3955.00,0.0007
3954.00,0.0007
3953.00,0.0007
3952.00,0.0006
3951.00,0.0006
3950.00,0.0006
3949.00,0.0006
3948.00,0.0006
3947.00,0.0006
3946.00,0.0006
3945.00,0.0006
3944.00,0.0007
3943.00,0.0007
3942.00,0.0008
3941.00,0.0008
3940.00,0.0008
3939.00,0.0007
3938.00,0.0007
3937.00,0.0007
3936.00,0.0007
3935.00,0.0007
3934.00,0.0007
3933.00,0.0007
3932.00,0.0007
3931.00,0.0007
3930.00,0.0007
3929.00,0.0007
3928.00,0.0007
3927.00,0.0007
3926.00,0.0008
3925.00,0.0008
3924.00,0.0008
3923.00,0.0008
3922.00,0.0008
3921.00,0.0008
3920.00,0.0007
3919.00,0.0007
3918.00,0.0007
3917.00,0.0007
3916.00,0.0007
3915.00,0.0008
3914.00,0.0008
3913.00,0.0008
3912.00,0.0007
3911.00,0.0007
3910.00,0.0007
3909.00,0.0007
3908.00,0.0007
3907.00,0.0007
3906.00,0.0007
3905.00,0.0007
3904.00,0.0006
3903.00,0.0006
3902.00,0.0006
3901.00,0.0006
3900.00,0.0006
3899.00,0.0006
3898.00,0.0007
3897.00,0.0007
3896.00,0.0007
3895.00,0.0007
3894.00,0.0007
3893.00,0.0007
3892.00,0.0007
3891.00,0.0007
3890.00,0.0007
3889.00,0.0007
3888.00,0.0007
3887.00,0.0007
3886.00,0.0006
3885.00,0.0006
3884.00,0.0007
3883.00,0.0007
3882.00,0.0007
3881.00,0.0007
3880.00,0.0007
3879.00,0.0008
3878.00,0.0008
3877.00,0.0007
3876.00,0.0007
3875.00,0.0007
3874.00,0.0007
3873.00,0.0007
3872.00,0.0007
3871.00,0.0006
3870.00,0.0006
3869.00,0.0006
3868.00,0.0006
3867.00,0.0006
3866.00,0.0006
3865.00,0.0006
3864.00,0.0006
3863.00,0.0006
3862.00,0.0006
3861.00,0.0006
3860.00,0.0006
3859.00,0.0006
3858.00,0.0007
3857.00,0.0007
3856.00,0.0007
3855.00,0.0007
3854.00,0.0007
3853.00,0.0006
3852.00,0.0007
3851.00,0.0007
3850.00,0.0006
3849.00,0.0006
3848.00,0.0006
3847.00,0.0006
3846.00,0.0006
3845.00,0.0006
3844.00,0.0006
3843.00,0.0006
3842.00,0.0006
3841.00,0.0006
3840.00,0.0006
3839.00,0.0006
3838.00,0.0006
3837.00,0.0006
3836.00,0.0006
3835.00,0.0006
3834.00,0.0006
3833.00,0.0006
3832.00,0.0006
3831.00,0.0006
3830.00,0.0006
3829.00,0.0006
3828.00,0.0006
3827.00,0.0005
3826.00,0.0005
3825.00,0.0005
3824.00,0.0005
3823.00,0.0005
3822.00,0.0005
3821.00,0.0006
3820.00,0.0006
3819.00,0.0007
3818.00,0.0007
3817.00,0.0006
3816.00,0.0006
3815.00,0.0007
3814.00,0.0007
3813.00,0.0007
3812.00,0.0007
3811.00,0.0007
3810.00,0.0007
3809.00,0.0006
3808.00,0.0006
3807.00,0.0006
3806.00,0.0006
3805.00,0.0006
3804.00,0.0006
3803.00,0.0006
3802.00,0.0006
3801.00,0.0006
3800.00,0.0006
3799.00,0.0006
3798.00,0.0006
3797.00,0.0006
3796.00,0.0007
3795.00,0.0007
3794.00,0.0007
3793.00,0.0007
3792.00,0.0007
3791.00,0.0007
3790.00,0.0006
3789.00,0.0006
3788.00,0.0006
3787.00,0.0006
3786.00,0.0006
3785.00,0.0006
3784.00,0.0006
3783.00,0.0006
3782.00,0.0005
3781.00,0.0005
3780.00,0.0006
3779.00,0.0006
3778.00,0.0007
3777.00,0.0007
3776.00,0.0007
3775.00,0.0007
3774.00,0.0007
3773.00,0.0007
3772.00,0.0007
3771.00,0.0007
3770.00,0.0006
3769.00,0.0006
3768.00,0.0007
3767.00,0.0007
3766.00,0.0007
3765.00,0.0007
3764.00,0.0007
3763.00,0.0007
3762.00,0.0007
3761.00,0.0007
3760.00,0.0007
3759.00,0.0007
3758.00,0.0006
3757.00,0.0006
3756.00,0.0006
3755.00,0.0006
3754.00,0.0006
3753.00,0.0006
3752.00,0.0006
3751.00,0.0006
3750.00,0.0006
3749.00,0.0005
3748.00,0.0005
3747.00,0.0006
3746.00,0.0005
3745.00,0.0005
3744.00,0.0005
3743.00,0.0005
3742.00,0.0005
3741.00,0.0005
3740.00,0.0005
3739.00,0.0005
3738.00,0.0005
3737.00,0.0004
3736.00,0.0005
3735.00,0.0005
3734.00,0.0006
3733.00,0.0006
3732.00,0.0005
3731.00,0.0005
3730.00,0.0004
3729.00,0.0004
3728.00,0.0004
3727.00,0.0004
3726.00,0.0005
3725.00,0.0005
3724.00,0.0005
3723.00,0.0005
3722.00,0.0005
3721.00,0.0005
3720.00,0.0005
3719.00,0.0005
3718.00,0.0006
3717.00,0.0005
3716.00,0.0005
3715.00,0.0005
3714.00,0.0005
3713.00,0.0005
3712.00,0.0005
3711.00,0.0006
3710.00,0.0006
3709.00,0.0006
3708.00,0.0005
3707.00,0.0005
3706.00,0.0005
3705.00,0.0005
3704.00,0.0005
3703.00,0.0005
3702.00,0.0006
3701.00,0.0006
3700.00,0.0005
3699.00,0.0005
3698.00,0.0005
3697.00,0.0005
3696.00,0.0005
3695.00,0.0005
3694.00,0.0005
3693.00,0.0006
3692.00,0.0006
3691.00,0.0007
3690.00,0.0007
3689.00,0.0007
3688.00,0.0007
3687.00,0.0007
3686.00,0.0007
3685.00,0.0006
3684.00,0.0006
3683.00,0.0005
3682.00,0.0005
3681.00,0.0004
3680.00,0.0004
3679.00,0.0004
3678.00,0.0004
3677.00,0.0004
3676.00,0.0004
3675.00,0.0004
3674.00,0.0004
3673.00,0.0004
3672.00,0.0003
3671.00,0.0003
3670.00,0.0003
3669.00,0.0004
3668.00,0.0004
3667.00,0.0004
3666.00,0.0004
3665.00,0.0004
3664.00,0.0004
3663.00,0.0004
3662.00,0.0004
3661.00,0.0004
3660.00,0.0004
3659.00,0.0004
3658.00,0.0004
3657.00,0.0004
3656.00,0.0004
3655.00,0.0004
3654.00,0.0004
3653.00,0.0004
3652.00,0.0004
3651.00,0.0003
3650.00,0.0002
3649.00,0.0003
3648.00,0.0004
3647.00,0.0005
3646.00,0.0005
3645.00,0.0006
3644.00,0.0006
3643.00,0.0006
3642.00,0.0006
3641.00,0.0006
3640.00,0.0006
3639.00,0.0006
3638.00,0.0006
3637.00,0.0006
3636.00,0.0006
3635.00,0.0006
3634.00,0.0006
3633.00,0.0006
3632.00,0.0006
3631.00,0.0006
3630.00,0.0006
3629.00,0.0006
3628.00,0.0007
3627.00,0.0007
3626.00,0.0007
3625.00,0.0007
3624.00,0.0007
3623.00,0.0007
3622.00,0.0007
3621.00,0.0007
3620.00,0.0008
3619.00,0.0008
3618.00,0.0008
3617.00,0.0008
3616.00,0.0009
3615.00,0.0009
3614.00,0.0009
3613.00,0.0009
3612.00,0.0009
3611.00,0.0009
3610.00,0.0009
3609.00,0.0009
3608.00,0.0009
3607.00,0.0010
3606.00,0.0010
3605.00,0.0010
3604.00,0.0010
3603.00,0.0010
3602.00,0.0009
3601.00,0.0010
3600.00,0.0010
3599.00,0.0011
3598.00,0.0011
3597.00,0.0011
3596.00,0.0011
3595.00,0.0011
3594.00,0.0011
3593.00,0.0011
3592.00,0.0011
3591.00,0.0011
3590.00,0.0012
3589.00,0.0012
3588.00,0.0012
3587.00,0.0012
3586.00,0.0012
3585.00,0.0012
3584.00,0.0012
3583.00,0.0012
3582.00,0.0012
3581.00,0.0012
3580.00,0.0012
3579.00,0.0013
3578.00,0.0013
3577.00,0.0013
3576.00,0.0013
3575.00,0.0013
3574.00,0.0014
3573.00,0.0014
3572.00,0.0015
3571.00,0.0015
3570.00,0.0015
3569.00,0.0015
3568.00,0.0015
3567.00,0.0015
3566.00,0.0015
3565.00,0.0015
3564.00,0.0016
3563.00,0.0016
3562.00,0.0016
3561.00,0.0017
3560.00,0.0017
3559.00,0.0017
3558.00,0.0017
3557.00,0.0017
3556.00,0.0017
3555.00,0.0018
3554.00,0.0019
3553.00,0.0019
3552.00,0.0020
3551.00,0.0020
3550.00,0.0019
3549.00,0.0019
3548.00,0.0019
3547.00,0.0020
3546.00,0.0020
3545.00,0.0021
3544.00,0.0021
3543.00,0.0021
3542.00,0.0021
3541.00,0.0021
3540.00,0.0021
3539.00,0.0021
3538.00,0.0022
3537.00,0.0022
3536.00,0.0022
3535.00,0.0022
3534.00,0.0022
3533.00,0.0022
3532.00,0.0022
3531.00,0.0022
3530.00,0.0022
3529.00,0.0023
3528.00,0.0023
3527.00,0.0024
3526.00,0.0024
3525.00,0.0024
3524.00,0.0024
3523.00,0.0025
3522.00,0.0025
3521.00,0.0026
3520.00,0.0026
3519.00,0.0026
3518.00,0.0026
3517.00,0.0026
3516.00,0.0026
3515.00,0.0026
3514.00,0.0026
3513.00,0.0027
3512.00,0.0027
3511.00,0.0028
3510.00,0.0028
3509.00,0.0028
3508.00,0.0028
3507.00,0.0027
3506.00,0.0027
3505.00,0.0028
3504.00,0.0028
3503.00,0.0029
3502.00,0.0030
3501.00,0.0030
3500.00,0.0030
3499.00,0.0030
3498.00,0.0030
3497.00,0.0030
3496.00,0.0030
3495.00,0.0030
3494.00,0.0031
3493.00,0.0031
3492.00,0.0031
3491.00,0.0031
3490.00,0.0031
3489.00,0.0031
3488.00,0.0031
3487.00,0.0032
3486.00,0.0032
3485.00,0.0033
3484.00,0.0033
3483.00,0.0033
3482.00,0.0033
3481.00,0.0034
3480.00,0.0034
3479.00,0.0034
3478.00,0.0035
3477.00,0.0035
3476.00,0.0035
3475.00,0.0035
3474.00,0.0035
3473.00,0.0035
3472.00,0.0035
3471.00,0.0036
3470.00,0.0036
3469.00,0.0037
3468.00,0.0037
3467.00,0.0036
3466.00,0.0036
3465.00,0.0036
3464.00,0.0036
3463.00,0.0037
3462.00,0.0037
3461.00,0.0037
3460.00,0.0038
3459.00,0.0038
3458.00,0.0038
3457.00,0.0039
3456.00,0.0039
3455.00,0.0039
3454.00,0.0039
3453.00,0.0039
3452.00,0.0039
3451.00,0.0039
3450.00,0.0039
3449.00,0.0040
3448.00,0.0040
3447.00,0.0040
3446.00,0.0040
3445.00,0.0041
3444.00,0.0041
3443.00,0.0041
3442.00,0.0041
3441.00,0.0041
3440.00,0.0041
3439.00,0.0042
3438.00,0.0042
3437.00,0.0042
3436.00,0.0042
3435.00,0.0042
3434.00,0.0042
3433.00,0.0042
3432.00,0.0043
3431.00,0.0043
3430.00,0.0044
3429.00,0.0044
3428.00,0.0044
3427.00,0.0045
3426.00,0.0045
3425.00,0.0044
3424.00,0.0044
3423.00,0.0045
3422.00,0.0045
3421.00,0.0045
3420.00,0.0046
3419.00,0.0046
3418.00,0.0047
3417.00,0.0047
3416.00,0.0047
3415.00,0.0047
3414.00,0.0047
3413.00,0.0047
3412.00,0.0047
3411.00,0.0047
3410.00,0.0048
3409.00,0.0048
3408.00,0.0048
3407.00,0.0049
3406.00,0.0049
3405.00,0.0049
3404.00,0.0049
3403.00,0.0049
3402.00,0.0049
3401.00,0.0049
3400.00,0.0049
3399.00,0.0049
3398.00,0.0049
3397.00,0.0049
3396.00,0.0050
3395.00,0.0050
3394.00,0.0050
3393.00,0.0050
3392.00,0.0050
3391.00,0.0049
3390.00,0.0049
3389.00,0.0050
3388.00,0.0050
3387.00,0.0050
3386.00,0.0050
3385.00,0.0050
3384.00,0.0050
3383.00,0.0050
3382.00,0.0050
3381.00,0.0050
3380.00,0.0050
3379.00,0.0050
3378.00,0.0050
3377.00,0.0050
3376.00,0.0050
3375.00,0.0051
3374.00,0.0051
3373.00,0.0051
3372.00,0.0051
3371.00,0.0051
3370.00,0.0051
3369.00,0.0051
3368.00,0.0050
3367.00,0.0051
3366.00,0.0051
3365.00,0.0051
3364.00,0.0051
3363.00,0.0051
3362.00,0.0051
3361.00,0.0051
3360.00,0.0051
3359.00,0.0051
3358.00,0.0051
3357.00,0.0052
3356.00,0.0052
3355.00,0.0052
3354.00,0.0052
3353.00,0.0052
3352.00,0.0052
3351.00,0.0052
3350.00,0.0051
3349.00,0.0051
3348.00,0.0051
3347.00,0.0052
3346.00,0.0052
3345.00,0.0052
3344.00,0.0052
3343.00,0.0052
3342.00,0.0052
3341.00,0.0052
3340.00,0.0052
3339.00,0.0052
3338.00,0.0052
3337.00,0.0052
3336.00,0.0052
3335.00,0.0052
3334.00,0.0052
3333.00,0.0052
3332.00,0.0052
3331.00,0.0051
3330.00,0.0051
3329.00,0.0051
3328.00,0.0051
3327.00,0.0051
3326.00,0.0050
3325.00,0.0050
3324.00,0.0050
3323.00,0.0051
3322.00,0.0051
3321.00,0.0051
3320.00,0.0052
3319.00,0.0052
3318.00,0.0051
3317.00,0.0051
3316.00,0.0051
3315.00,0.0051
3314.00,0.0051
3313.00,0.0051
3312.00,0.0051
3311.00,0.0051
3310.00,0.0051
3309.00,0.0051
3308.00,0.0052
3307.00,0.0052
3306.00,0.0052
3305.00,0.0052
3304.00,0.0052
3303.00,0.0052
3302.00,0.0051
3301.00,0.0051
3300.00,0.0051
3299.00,0.0050
3298.00,0.0050
3297.00,0.0050
3296.00,0.0051
3295.00,0.0051
3294.00,0.0051
3293.00,0.0050
3292.00,0.0050
3291.00,0.0049
3290.00,0.0048
3289.00,0.0048
3288.00,0.0048
3287.00,0.0048
3286.00,0.0048
3285.00,0.0048
3284.00,0.0048
3283.00,0.0048
3282.00,0.0048
3281.00,0.0048
3280.00,0.0047
3279.00,0.0047
3278.00,0.0047
3277.00,0.0047
3276.00,0.0047
3275.00,0.0047
3274.00,0.0047
3273.00,0.0047
3272.00,0.0046
3271.00,0.0046
3270.00,0.0046
3269.00,0.0046
3268.00,0.0045
3267.00,0.0045
3266.00,0.0045
3265.00,0.0045
3264.00,0.0045
3263.00,0.0044
3262.00,0.0044
3261.00,0.0045
3260.00,0.0045
3259.00,0.0044
3258.00,0.0044
3257.00,0.0043
3256.00,0.0043
3255.00,0.0043
3254.00,0.0042
3253.00,0.0042
3252.00,0.0042
3251.00,0.0042
3250.00,0.0042
3249.00,0.0042
3248.00,0.0042
3247.00,0.0041
3246.00,0.0041
3245.00,0.0041
3244.00,0.0041
3243.00,0.0041
3242.00,0.0041
3241.00,0.0041
3240.00,0.0041
3239.00,0.0041
3238.00,0.0041
3237.00,0.0041
3236.00,0.0041
3235.00,0.0041
3234.00,0.0041
3233.00,0.0041
3232.00,0.0042
3231.00,0.0042
3230.00,0.0043
3229.00,0.0043
3228.00,0.0043
3227.00,0.0044
3226.00,0.0044
3225.00,0.0044
3224.00,0.0044
3223.00,0.0044
3222.00,0.0044
3221.00,0.0044
3220.00,0.0044
3219.00,0.0044
3218.00,0.0044
3217.00,0.0044
3216.00,0.0044
3215.00,0.0044
3214.00,0.0045
3213.00,0.0045
3212.00,0.0046
3211.00,0.0047
3210.00,0.0047
3209.00,0.0047
3208.00,0.0047
3207.00,0.0047
3206.00,0.0047
3205.00,0.0047
3204.00,0.0047
3203.00,0.0047
3202.00,0.0047
3201.00,0.0047
3200.00,0.0047
3199.00,0.0047
3198.00,0.0047
3197.00,0.0047
3196.00,0.0047
3195.00,0.0047
3194.00,0.0047
3193.00,0.0047
3192.00,0.0047
3191.00,0.0047
3190.00,0.0046
3189.00,0.0046
3188.00,0.0046
3187.00,0.0046
3186.00,0.0046
3185.00,0.0046
3184.00,0.0046
3183.00,0.0046
3182.00,0.0046
3181.00,0.0046
3180.00,0.0046
3179.00,0.0045
3178.00,0.0045
3177.00,0.0044
3176.00,0.0044
3175.00,0.0044
3174.00,0.0043
3173.00,0.0043
3172.00,0.0043
3171.00,0.0043
3170.00,0.0043
3169.00,0.0043
3168.00,0.0043
3167.00,0.0043
3166.00,0.0042
3165.00,0.0042
3164.00,0.0042
3163.00,0.0042
3162.00,0.0042
3161.00,0.0042
3160.00,0.0042
3159.00,0.0041
3158.00,0.0041
3157.00,0.0041
3156.00,0.0041
3155.00,0.0042
3154.00,0.0042
3153.00,0.0042
3152.00,0.0042
3151.00,0.0042
3150.00,0.0042
3149.00,0.0042
3148.00,0.0042
3147.00,0.0041
3146.00,0.0041
3145.00,0.0040
3144.00,0.0039
3143.00,0.0039
3142.00,0.0040
3141.00,0.0040
3140.00,0.0040
3139.00,0.0040
3138.00,0.0040
3137.00,0.0040
3136.00,0.0039
3135.00,0.0039
3134.00,0.0039
3133.00,0.0038
3132.00,0.0038
3131.00,0.0038
3130.00,0.0038
3129.00,0.0038
3128.00,0.0037
3127.00,0.0037
3126.00,0.0036
3125.00,0.0036
3124.00,0.0036
3123.00,0.0036
3122.00,0.0036
3121.00,0.0036
3120.00,0.0035
3119.00,0.0035
3118.00,0.0035
3117.00,0.0035
3116.00,0.0035
3115.00,0.0035
3114.00,0.0035
3113.00,0.0035
3112.00,0.0034
3111.00,0.0034
3110.00,0.0033
3109.00,0.0033
3108.00,0.0033
3107.00,0.0033
3106.00,0.0033
3105.00,0.0033
3104.00,0.0033
3103.00,0.0033
3102.00,0.0033
3101.00,0.0032
3100.00,0.0032
3099.00,0.0032
3098.00,0.0032
3097.00,0.0032
3096.00,0.0031
3095.00,0.0031
3094.00,0.0031
3093.00,0.0031
3092.00,0.0031
3091.00,0.0031
3090.00,0.0031
3089.00,0.0031
3088.00,0.0031
3087.00,0.0031
3086.00,0.0031
3085.00,0.0031
3084.00,0.0031
3083.00,0.0031
3082.00,0.0031
3081.00,0.0031
3080.00,0.0032
3079.00,0.0032
3078.00,0.0032
3077.00,0.0032
3076.00,0.0032
3075.00,0.0031
3074.00,0.0031
3073.00,0.0031
3072.00,0.0032
3071.00,0.0032
3070.00,0.0032
3069.00,0.0032
3068.00,0.0032
3067.00,0.0032
3066.00,0.0032
3065.00,0.0032
3064.00,0.0033
3063.00,0.0033
3062.00,0.0033
3061.00,0.0034
3060.00,0.0034
3059.00,0.0034
3058.00,0.0034
3057.00,0.0034
3056.00,0.0034
3055.00,0.0034
3054.00,0.0035
3053.00,0.0035
3052.00,0.0035
3051.00,0.0035
3050.00,0.0035
3049.00,0.0035
3048.00,0.0035
3047.00,0.0035
3046.00,0.0035
3045.00,0.0036
3044.00,0.0036
3043.00,0.0037
3042.00,0.0037
3041.00,0.0038
3040.00,0.0038
3039.00,0.0038
3038.00,0.0037
3037.00,0.0037
3036.00,0.0037
3035.00,0.0037
3034.00,0.0037
3033.00,0.0038
3032.00,0.0039
3031.00,0.0040
3030.00,0.0040
3029.00,0.0041
3028.00,0.0041
3027.00,0.0042
3026.00,0.0042
3025.00,0.0042
3024.00,0.0043
3023.00,0.0043
3022.00,0.0044
3021.00,0.0045
3020.00,0.0046
3019.00,0.0047
3018.00,0.0048
3017.00,0.0048
3016.00,0.0049
3015.00,0.0050
3014.00,0.0051
3013.00,0.0052
3012.00,0.0053
3011.00,0.0054
3010.00,0.0055
3009.00,0.0056
3008.00,0.0057
3007.00,0.0058
3006.00,0.0060
3005.00,0.0062
3004.00,0.0063
3003.00,0.0065
3002.00,0.0066
3001.00,0.0068
3000.00,0.0070
2999.00,0.0072
2998.00,0.0075
2997.00,0.0078
2996.00,0.0081
2995.00,0.0085
2994.00,0.0089
2993.00,0.0094
2992.00,0.0099
2991.00,0.0104
2990.00,0.0110
2989.00,0.0117
2988.00,0.0124
2987.00,0.0133
2986.00,0.0142
2985.00,0.0152
2984.00,0.0162
2983.00,0.0175
2982.00,0.0189
2981.00,0.0206
2980.00,0.0225
2979.00,0.0248
2978.00,0.0274
2977.00,0.0303
2976.00,0.0337
2975.00,0.0374
2974.00,0.0417
2973.00,0.0466
2972.00,0.0523
2971.00,0.0586
2970.00,0.0658
2969.00,0.0737
2968.00,0.0823
2967.00,0.0915
2966.00,0.1012
2965.00,0.1112
2964.00,0.1211
2963.00,0.1305
2962.00,0.1387
2961.00,0.1455
2960.00,0.1508
2959.00,0.1548
2958.00,0.1581
2957.00,0.1613
2956.00,0.1649
2955.00,0.1694
2954.00,0.1746
2953.00,0.1801
2952.00,0.1849
2951.00,0.1879
2950.00,0.1880
2949.00,0.1845
2948.00,0.1774
2947.00,0.1674
2946.00,0.1554
2945.00,0.1430
2944.00,0.1312
2943.00,0.1212
2942.00,0.1133
2941.00,0.1079
2940.00,0.1049
2939.00,0.1041
2938.00,0.1052
2937.00,0.1080
2936.00,0.1124
2935.00,0.1182
2934.00,0.1254
2933.00,0.1339
2932.00,0.1433
2931.00,0.1536
2930.00,0.1645
2929.00,0.1756
2928.00,0.1867
2927.00,0.1976
2926.00,0.2081
2925.00,0.2182
2924.00,0.2280
2923.00,0.2375
2922.00,0.2468
2921.00,0.2556
2920.00,0.2632
2919.00,0.2687
2918.00,0.2712
2917.00,0.2701
2916.00,0.2654
2915.00,0.2577
2914.00,0.2481
2913.00,0.2378
2912.00,0.2278
2911.00,0.2187
2910.00,0.2106
2909.00,0.2035
2908.00,0.1969
2907.00,0.1907
2906.00,0.1845
2905.00,0.1781
2904.00,0.1716
2903.00,0.1650
2902.00,0.1582
2901.00,0.1516
2900.00,0.1452
2899.00,0.1390
2898.00,0.1333
2897.00,0.1280
2896.00,0.1232
2895.00,0.1190
2894.00,0.1155
2893.00,0.1125
2892.00,0.1101
2891.00,0.1083
2890.00,0.1070
2889.00,0.1061
2888.00,0.1056
2887.00,0.1055
2886.00,0.1056
2885.00,0.1061
2884.00,0.1070
2883.00,0.1083
2882.00,0.1101
2881.00,0.1121
2880.00,0.1140
2879.00,0.1156
2878.00,0.1165
2877.00,0.1167
2876.00,0.1161
2875.00,0.1154
2874.00,0.1148
2873.00,0.1148
2872.00,0.1155
2871.00,0.1169
2870.00,0.1186
2869.00,0.1203
2868.00,0.1213
2867.00,0.1207
2866.00,0.1182
2865.00,0.1136
2864.00,0.1072
2863.00,0.1000
2862.00,0.0929
2861.00,0.0868
2860.00,0.0821
2859.00,0.0789
2858.00,0.0771
2857.00,0.0767
2856.00,0.0772
2855.00,0.0786
2854.00,0.0805
2853.00,0.0827
2852.00,0.0849
2851.00,0.0869
2850.00,0.0885
2849.00,0.0896
2848.00,0.0906
2847.00,0.0919
2846.00,0.0940
2845.00,0.0972
2844.00,0.1016
2843.00,0.1067
2842.00,0.1122
2841.00,0.1173
2840.00,0.1213
2839.00,0.1233
2838.00,0.1228
2837.00,0.1191
2836.00,0.1126
2835.00,0.1036
2834.00,0.0932
2833.00,0.0824
2832.00,0.0721
2831.00,0.0630
2830.00,0.0553
2829.00,0.0490
2828.00,0.0439
2827.00,0.0397
2826.00,0.0363
2825.00,0.0336
2824.00,0.0312
2823.00,0.0293
2822.00,0.0276
2821.00,0.0261
2820.00,0.0248
2819.00,0.0237
2818.00,0.0227
2817.00,0.0218
2816.00,0.0211
2815.00,0.0204
2814.00,0.0198
2813.00,0.0192
2812.00,0.0186
2811.00,0.0181
2810.00,0.0176
2809.00,0.0170
2808.00,0.0164
2807.00,0.0158
2806.00,0.0152
2805.00,0.0145
2804.00,0.0139
2803.00,0.0133
2802.00,0.0127
2801.00,0.0123
2800.00,0.0119
2799.00,0.0116
2798.00,0.0113
2797.00,0.0111
2796.00,0.0109
2795.00,0.0106
2794.00,0.0104
2793.00,0.0101
2792.00,0.0098
2791.00,0.0095
2790.00,0.0092
2789.00,0.0089
2788.00,0.0085
2787.00,0.0082
2786.00,0.0079
2785.00,0.0077
2784.00,0.0075
2783.00,0.0073
2782.00,0.0071
2781.00,0.0069
2780.00,0.0067
2779.00,0.0065
2778.00,0.0063
2777.00,0.0062
2776.00,0.0061
2775.00,0.0059
2774.00,0.0059
2773.00,0.0058
2772.00,0.0058
2771.00,0.0057
2770.00,0.0057
2769.00,0.0056
2768.00,0.0056
2767.00,0.0055
2766.00,0.0055
2765.00,0.0055
2764.00,0.0055
2763.00,0.0055
2762.00,0.0054
2761.00,0.0054
2760.00,0.0054
2759.00,0.0053
2758.00,0.0053
2757.00,0.0053
2756.00,0.0052
2755.00,0.0052
2754.00,0.0052
2753.00,0.0052
2752.00,0.0052
2751.00,0.0051
2750.00,0.0051
2749.00,0.0051
2748.00,0.0051
2747.00,0.0052
2746.00,0.0052
2745.00,0.0052
2744.00,0.0053
2743.00,0.0053
2742.00,0.0054
2741.00,0.0055
2740.00,0.0057
2739.00,0.0058
2738.00,0.0060
2737.00,0.0061
2736.00,0.0062
2735.00,0.0063
2734.00,0.0065
2733.00,0.0067
2732.00,0.0068
2731.00,0.0070
2730.00,0.0073
2729.00,0.0075
2728.00,0.0077
2727.00,0.0079
2726.00,0.0082
2725.00,0.0084
2724.00,0.0085
2723.00,0.0086
2722.00,0.0085
2721.00,0.0084
2720.00,0.0081
2719.00,0.0078
2718.00,0.0074
2717.00,0.0072
2716.00,0.0069
2715.00,0.0067
2714.00,0.0065
2713.00,0.0062
2712.00,0.0060
2711.00,0.0058
2710.00,0.0056
2709.00,0.0055
2708.00,0.0053
2707.00,0.0052
2706.00,0.0051
2705.00,0.0050
2704.00,0.0049
2703.00,0.0048
2702.00,0.0047
2701.00,0.0046
2700.00,0.0046
2699.00,0.0045
2698.00,0.0045
2697.00,0.0045
2696.00,0.0045
2695.00,0.0045
2694.00,0.0045
2693.00,0.0045
2692.00,0.0045
2691.00,0.0045
2690.00,0.0045
2689.00,0.0045
2688.00,0.0045
2687.00,0.0045
2686.00,0.0045
2685.00,0.0045
2684.00,0.0045
2683.00,0.0045
2682.00,0.0045
2681.00,0.0046
2680.00,0.0046
2679.00,0.0046
2678.00,0.0046
2677.00,0.0046
2676.00,0.0046
2675.00,0.0046
2674.00,0.0045
2673.00,0.0045
2672.00,0.0045
2671.00,0.0045
2670.00,0.0044
2669.00,0.0045
2668.00,0.0045
2667.00,0.0045
2666.00,0.0046
2665.00,0.0046
2664.00,0.0046
2663.00,0.0047
2662.00,0.0047
2661.00,0.0047
2660.00,0.0047
2659.00,0.0047
2658.00,0.0047
2657.00,0.0047
2656.00,0.0047
2655.00,0.0046
2654.00,0.0046
2653.00,0.0045
2652.00,0.0045
2651.00,0.0044
2650.00,0.0044
2649.00,0.0044
2648.00,0.0043
2647.00,0.0043
2646.00,0.0042
2645.00,0.0042
2644.00,0.0042
2643.00,0.0041
2642.00,0.0041
2641.00,0.0041
2640.00,0.0040
2639.00,0.0040
2638.00,0.0039
2637.00,0.0039
2636.00,0.0038
2635.00,0.0038
2634.00,0.0038
2633.00,0.0038
2632.00,0.0038
2631.00,0.0038
2630.00,0.0038
2629.00,0.0038
2628.00,0.0038
2627.00,0.0039
2626.00,0.0040
2625.00,0.0040
2624.00,0.0040
2623.00,0.0040
2622.00,0.0040
2621.00,0.0040
2620.00,0.0041
2619.00,0.0041
2618.00,0.0040
2617.00,0.0040
2616.00,0.0040
2615.00,0.0040
2614.00,0.0040
2613.00,0.0039
2612.00,0.0039
2611.00,0.0038
2610.00,0.0038
2609.00,0.0037
2608.00,0.0036
2607.00,0.0035
2606.00,0.0034
2605.00,0.0033
2604.00,0.0033
2603.00,0.0033
2602.00,0.0033
2601.00,0.0033
2600.00,0.0033
2599.00,0.0033
2598.00,0.0032
2597.00,0.0032
2596.00,0.0031
2595.00,0.0031
2594.00,0.0030
2593.00,0.0031
2592.00,0.0031
2591.00,0.0032
2590.00,0.0034
2589.00,0.0035
2588.00,0.0036
2587.00,0.0036
2586.00,0.0037
2585.00,0.0038
2584.00,0.0038
2583.00,0.0039
2582.00,0.0039
2581.00,0.0039
2580.00,0.0038
2579.00,0.0037
2578.00,0.0037
2577.00,0.0036
2576.00,0.0035
2575.00,0.0033
2574.00,0.0031
2573.00,0.0030
2572.00,0.0029
2571.00,0.0028
2570.00,0.0027
2569.00,0.0026
2568.00,0.0026
2567.00,0.0026
2566.00,0.0026
2565.00,0.0026
2564.00,0.0025
2563.00,0.0024
2562.00,0.0023
2561.00,0.0022
2560.00,0.0021
2559.00,0.0021
2558.00,0.0021
2557.00,0.0021
2556.00,0.0022
2555.00,0.0022
2554.00,0.0022
2553.00,0.0022
2552.00,0.0022
2551.00,0.0022
2550.00,0.0021
2549.00,0.0021
2548.00,0.0020
2547.00,0.0020
2546.00,0.0020
2545.00,0.0019
2544.00,0.0019
2543.00,0.0019
2542.00,0.0019
2541.00,0.0019
2540.00,0.0019
2539.00,0.0018
2538.00,0.0017
2537.00,0.0016
2536.00,0.0016
2535.00,0.0015
2534.00,0.0015
2533.00,0.0014
2532.00,0.0014
2531.00,0.0014
2530.00,0.0014
2529.00,0.0014
2528.00,0.0014
2527.00,0.0013
2526.00,0.0013
2525.00,0.0013
2524.00,0.0014
2523.00,0.0014
2522.00,0.0013
2521.00,0.0013
2520.00,0.0013
2519.00,0.0013
2518.00,0.0013
2517.00,0.0013
2516.00,0.0012
2515.00,0.0012
2514.00,0.0012
2513.00,0.0012
2512.00,0.0012
2511.00,0.0012
2510.00,0.0011
2509.00,0.0011
2508.00,0.0010
2507.00,0.0010
2506.00,0.0010
2505.00,0.0010
2504.00,0.0010
2503.00,0.0011
2502.00,0.0011
2501.00,0.0012
2500.00,0.0012
2499.00,0.0011
2498.00,0.0011
2497.00,0.0010
2496.00,0.0010
2495.00,0.0009
2494.00,0.0009
2493.00,0.0009
2492.00,0.0009
2491.00,0.0010
2490.00,0.0010
2489.00,0.0011
2488.00,0.0011
2487.00,0.0010
2486.00,0.0010
2485.00,0.0010
2484.00,0.0010
2483.00,0.0010
2482.00,0.0010
2481.00,0.0010
2480.00,0.0010
2479.00,0.0010
2478.00,0.0009
2477.00,0.0009
2476.00,0.0008
2475.00,0.0008
2474.00,0.0008
2473.00,0.0008
2472.00,0.0008
2471.00,0.0009
2470.00,0.0009
2469.00,0.0008
2468.00,0.0009
2467.00,0.0009
2466.00,0.0009
2465.00,0.0010
2464.00,0.0010
2463.00,0.0010
2462.00,0.0010
2461.00,0.0011
2460.00,0.0011
2459.00,0.0012
2458.00,0.0012
2457.00,0.0012
2456.00,0.0012
2455.00,0.0012
2454.00,0.0012
2453.00,0.0012
2452.00,0.0012
2451.00,0.0011
2450.00,0.0011
2449.00,0.0010
2448.00,0.0010
2447.00,0.0010
2446.00,0.0010
2445.00,0.0010
2444.00,0.0011
2443.00,0.0011
2442.00,0.0011
2441.00,0.0011
2440.00,0.0011
2439.00,0.0010
2438.00,0.0010
2437.00,0.0010
2436.00,0.0011
2435.00,0.0011
2434.00,0.0011
2433.00,0.0011
2432.00,0.0011
2431.00,0.0010
2430.00,0.0010
2429.00,0.0010
2428.00,0.0010
2427.00,0.0010
2426.00,0.0010
2425.00,0.0010
2424.00,0.0010
2423.00,0.0010
2422.00,0.0010
2421.00,0.0009
2420.00,0.0009
2419.00,0.0008
2418.00,0.0008
2417.00,0.0008
2416.00,0.0009
2415.00,0.0009
2414.00,0.0009
2413.00,0.0009
2412.00,0.0009
2411.00,0.0009
2410.00,0.0010
2409.00,0.0010
2408.00,0.0009
2407.00,0.0009
2406.00,0.0009
2405.00,0.0008
2404.00,0.0008
2403.00,0.0008
2402.00,0.0007
2401.00,0.0007
2400.00,0.0007
2399.00,0.0008
2398.00,0.0008
2397.00,0.0009
2396.00,0.0009
2395.00,0.0009
2394.00,0.0009
2393.00,0.0008
2392.00,0.0008
2391.00,0.0008
2390.00,0.0008
2389.00,0.0007
2388.00,0.0007
2387.00,0.0006
2386.00,0.0006
2385.00,0.0005
2384.00,0.0004
2383.00,0.0004
2382.00,0.0003
2381.00,0.0001
2380.00,0.0000
2379.00,-0.0001
2378.00,-0.0001
2377.00,-0.0001
2376.00,-0.0001
2375.00,-0.0001
2374.00,-0.0000
2373.00,0.0000
2372.00,0.0000
2371.00,0.0001
2370.00,0.0001
2369.00,0.0000
2368.00,0.0000
2367.00,0.0000
2366.00,0.0000
2365.00,0.0000
2364.00,-0.0000
2363.00,-0.0001
2362.00,-0.0002
2361.00,-0.0001
2360.00,-0.0001
2359.00,0.0000
2358.00,0.0001
2357.00,0.0001
2356.00,0.0001
2355.00,0.0001
2354.00,0.0001
2353.00,0.0000
2352.00,-0.0000
2351.00,0.0000
2350.00,0.0001
2349.00,0.0001
2348.00,0.0001
2347.00,0.0001
2346.00,0.0001
2345.00,0.0002
2344.00,0.0003
2343.00,0.0003
2342.00,0.0003
2341.00,0.0003
2340.00,0.0003
2339.00,0.0003
2338.00,0.0003
2337.00,0.0004
2336.00,0.0004
2335.00,0.0004
2334.00,0.0003
2333.00,0.0002
2332.00,0.0001
2331.00,0.0001
2330.00,0.0001
2329.00,0.0002
2328.00,0.0004
2327.00,0.0008
2326.00,0.0012
2325.00,0.0015
2324.00,0.0017
2323.00,0.0016
2322.00,0.0014
2321.00,0.0012
2320.00,0.0011
2319.00,0.0010
2318.00,0.0009
2317.00,0.0009
2316.00,0.0008
2315.00,0.0008
2314.00,0.0008
2313.00,0.0008
2312.00,0.0007
2311.00,0.0007
2310.00,0.0007
2309.00,0.0007
2308.00,0.0008
2307.00,0.0008
2306.00,0.0009
2305.00,0.0009
2304.00,0.0009
2303.00,0.0009
2302.00,0.0009
2301.00,0.0010
2300.00,0.0011
2299.00,0.0012
2298.00,0.0013
2297.00,0.0013
2296.00,0.0014
2295.00,0.0014
2294.00,0.0014
2293.00,0.0014
2292.00,0.0014
2291.00,0.0015
2290.00,0.0016
2289.00,0.0017
2288.00,0.0018
2287.00,0.0019
2286.00,0.0019
2285.00,0.0019
2284.00,0.0018
2283.00,0.0017
2282.00,0.0016
2281.00,0.0015
2280.00,0.0015
2279.00,0.0015
2278.00,0.0014
2277.00,0.0013
2276.00,0.0012
2275.00,0.0011
2274.00,0.0011
2273.00,0.0012
2272.00,0.0012
2271.00,0.0013
2270.00,0.0014
2269.00,0.0014
2268.00,0.0013
2267.00,0.0011
2266.00,0.0010
2265.00,0.0011
2264.00,0.0011
2263.00,0.0011
2262.00,0.0012
2261.00,0.0012
2260.00,0.0012
2259.00,0.0012
2258.00,0.0012
2257.00,0.0012
2256.00,0.0013
2255.00,0.0012
2254.00,0.0012
2253.00,0.0011
2252.00,0.0010
2251.00,0.0009
2250.00,0.0009
2249.00,0.0009
2248.00,0.0009
2247.00,0.0008
2246.00,0.0008
2245.00,0.0008
2244.00,0.0008
2243.00,0.0008
2242.00,0.0008
2241.00,0.0008
2240.00,0.0008
2239.00,0.0008
2238.00,0.0009
2237.00,0.0010
2236.00,0.0010
2235.00,0.0010
2234.00,0.0009
2233.00,0.0009
2232.00,0.0009
2231.00,0.0010
2230.00,0.0010
2229.00,0.0010
2228.00,0.0008
2227.00,0.0007
2226.00,0.0006
2225.00,0.0006
2224.00,0.0007
2223.00,0.0007
2222.00,0.0007
2221.00,0.0008
2220.00,0.0007
2219.00,0.0006
2218.00,0.0005
2217.00,0.0005
2216.00,0.0005
2215.00,0.0005
2214.00,0.0006
2213.00,0.0008
2212.00,0.0009
2211.00,0.0008
2210.00,0.0006
2209.00,0.0003
2208.00,0.0001
2207.00,0.0001
2206.00,0.0003
2205.00,0.0005
2204.00,0.0005
2203.00,0.0005
2202.00,0.0004
2201.00,0.0004
2200.00,0.0005
2199.00,0.0005
2198.00,0.0006
2197.00,0.0008
2196.00,0.0009
2195.00,0.0009
2194.00,0.0008
2193.00,0.0006
2192.00,0.0004
2191.00,0.0004
2190.00,0.0004
2189.00,0.0005
2188.00,0.0006
2187.00,0.0006
2186.00,0.0007
2185.00,0.0007
2184.00,0.0006
2183.00,0.0004
2182.00,0.0002
2181.00,0.0001
2180.00,0.0002
2179.00,0.0003
2178.00,0.0002
2177.00,-0.0001
2176.00,-0.0003
2175.00,-0.0002
2174.00,0.0001
2173.00,0.0005
2172.00,0.0007
2171.00,0.0009
2170.00,0.0010
2169.00,0.0013
2168.00,0.0015
2167.00,0.0016
2166.00,0.0017
2165.00,0.0018
2164.00,0.0019
2163.00,0.0019
2162.00,0.0018
2161.00,0.0013
2160.00,0.0004
2159.00,-0.0008
2158.00,-0.0019
2157.00,-0.0024
2156.00,-0.0023
2155.00,-0.0019
2154.00,-0.0016
2153.00,-0.0013
2152.00,-0.0012
2151.00,-0.0011
2150.00,-0.0009
2149.00,-0.0008
2148.00,-0.0008
2147.00,-0.0010
2146.00,-0.0012
2145.00,-0.0013
2144.00,-0.0013
2143.00,-0.0012
2142.00,-0.0011
2141.00,-0.0011
2140.00,-0.0011
2139.00,-0.0011
2138.00,-0.0012
2137.00,-0.0013
2136.00,-0.0015
2135.00,-0.0018
2134.00,-0.0019
2133.00,-0.0018
2132.00,-0.0016
2131.00,-0.0014
2130.00,-0.0011
2129.00,-0.0009
2128.00,-0.0007
2127.00,-0.0006
2126.00,-0.0006
2125.00,-0.0006
2124.00,-0.0006
2123.00,-0.0006
2122.00,-0.0006
2121.00,-0.0005
2120.00,-0.0004
2119.00,-0.0002
2118.00,-0.0001
2117.00,-0.0000
2116.00,0.0000
2115.00,0.0001
2114.00,0.0002
2113.00,0.0002
2112.00,0.0003
2111.00,0.0002
2110.00,0.0001
2109.00,0.0001
2108.00,0.0001
2107.00,0.0002
2106.00,0.0003
2105.00,0.0003
2104.00,0.0002
2103.00,0.0001
2102.00,0.0001
2101.00,0.0001
2100.00,0.0002
2099.00,0.0002
2098.00,0.0001
2097.00,-0.0001
2096.00,-0.0002
2095.00,-0.0003
2094.00,-0.0004
2093.00,-0.0003
2092.00,-0.0001
2091.00,0.0000
2090.00,0.0002
2089.00,0.0002
2088.00,0.0002
2087.00,0.0002
2086.00,0.0001
2085.00,0.0000
2084.00,0.0001
2083.00,0.0002
2082.00,0.0002
2081.00,0.0003
2080.00,0.0005
2079.00,0.0005
2078.00,0.0005
2077.00,0.0004
2076.00,0.0002
2075.00,0.0001
2074.00,0.0001
2073.00,0.0003
2072.00,0.0003
2071.00,0.0003
2070.00,0.0002
2069.00,0.0000
2068.00,-0.0001
2067.00,-0.0001
2066.00,-0.0001
2065.00,-0.0001
2064.00,-0.0002
2063.00,-0.0002
2062.00,-0.0003
2061.00,-0.0003
2060.00,-0.0002
2059.00,0.0001
2058.00,0.0005
2057.00,0.0008
2056.00,0.0009
2055.00,0.0009
2054.00,0.0009
2053.00,0.0011
2052.00,0.0013
2051.00,0.0013
2050.00,0.0010
2049.00,0.0006
2048.00,0.0002
2047.00,-0.0001
2046.00,-0.0001
2045.00,0.0001
2044.00,0.0002
2043.00,0.0003
2042.00,0.0002
2041.00,0.0002
2040.00,0.0001
2039.00,-0.0001
2038.00,-0.0003
2037.00,-0.0003
2036.00,-0.0004
2035.00,-0.0005
2034.00,-0.0008
2033.00,-0.0009
2032.00,-0.0007
2031.00,-0.0006
2030.00,-0.0004
2029.00,-0.0004
2028.00,-0.0004
2027.00,-0.0004
2026.00,-0.0005
2025.00,-0.0005
2024.00,-0.0004
2023.00,-0.0004
2022.00,-0.0006
2021.00,-0.0007
2020.00,-0.0008
2019.00,-0.0008
2018.00,-0.0006
2017.00,-0.0004
2016.00,-0.0002
2015.00,-0.0002
2014.00,-0.0003
2013.00,-0.0004
2012.00,-0.0006
2011.00,-0.0007
2010.00,-0.0007
2009.00,-0.0008
2008.00,-0.0011
2007.00,-0.0015
2006.00,-0.0017
2005.00,-0.0017
2004.00,-0.0017
2003.00,-0.0016
2002.00,-0.0016
2001.00,-0.0015
2000.00,-0.0013
1999.00,-0.0013
1998.00,-0.0014
1997.00,-0.0015
1996.00,-0.0015
1995.00,-0.0013
1994.00,-0.0011
1993.00,-0.0007
1992.00,-0.0003
1991.00,-0.0001
1990.00,-0.0002
1989.00,-0.0002
1988.00,-0.0002
1987.00,-0.0002
1986.00,-0.0001
1985.00,0.0001
1984.00,0.0003
1983.00,0.0005
1982.00,0.0006
1981.00,0.0007
1980.00,0.0005
1979.00,0.0002
1978.00,-0.0003
1977.00,-0.0007
1976.00,-0.0010
1975.00,-0.0011
1974.00,-0.0012
1973.00,-0.0014
1972.00,-0.0015
1971.00,-0.0015
1970.00,-0.0014
1969.00,-0.0012
1968.00,-0.0010
1967.00,-0.0010
1966.00,-0.0012
1965.00,-0.0015
1964.00,-0.0017
1963.00,-0.0018
1962.00,-0.0019
1961.00,-0.0019
1960.00,-0.0019
1959.00,-0.0020
1958.00,-0.0021
1957.00,-0.0022
1956.00,-0.0020
1955.00,-0.0018
1954.00,-0.0016
1953.00,-0.0014
1952.00,-0.0013
1951.00,-0.0013
1950.00,-0.0014
1949.00,-0.0013
1948.00,-0.0012
1947.00,-0.0011
1946.00,-0.0012
1945.00,-0.0012
1944.00,-0.0013
1943.00,-0.0013
1942.00,-0.0013
1941.00,-0.0013
1940.00,-0.0013
1939.00,-0.0013
1938.00,-0.0013
1937.00,-0.0012
1936.00,-0.0011
1935.00,-0.0010
1934.00,-0.0009
1933.00,-0.0008
1932.00,-0.0007
1931.00,-0.0008
1930.00,-0.0009
1929.00,-0.0010
1928.00,-0.0009
1927.00,-0.0008
1926.00,-0.0005
1925.00,-0.0003
1924.00,-0.0002
1923.00,-0.0001
1922.00,-0.0001
1921.00,-0.0001
1920.00,-0.0001
1919.00,-0.0002
1918.00,-0.0003
1917.00,-0.0003
1916.00,-0.0003
1915.00,-0.0002
1914.00,-0.0002
1913.00,-0.0002
1912.00,-0.0001
1911.00,-0.0001
1910.00,-0.0001
1909.00,-0.0001
1908.00,-0.0001
1907.00,-0.0002
1906.00,-0.0002
1905.00,-0.0002
1904.00,-0.0001
1903.00,-0.0001
1902.00,-0.0000
1901.00,0.0000
1900.00,0.0000
1899.00,0.0000
1898.00,0.0000
1897.00,0.0000
1896.00,0.0000
1895.00,0.0001
1894.00,0.0001
1893.00,0.0001
1892.00,0.0001
1891.00,0.0000
1890.00,-0.0001
1889.00,-0.0003
1888.00,-0.0003
1887.00,-0.0003
1886.00,-0.0002
1885.00,-0.0002
1884.00,-0.0001
1883.00,-0.0001
1882.00,-0.0000
1881.00,0.0000
1880.00,0.0001
1879.00,0.0000
1878.00,-0.0001
1877.00,-0.0001
1876.00,-0.0001
1875.00,-0.0000
1874.00,0.0000
1873.00,0.0000
1872.00,0.0001
1871.00,0.0002
1870.00,0.0002
1869.00,0.0003
1868.00,0.0002
1867.00,0.0001
1866.00,-0.0000
1865.00,-0.0001
1864.00,-0.0000
1863.00,0.0001
1862.00,0.0002
1861.00,0.0002
1860.00,0.0003
1859.00,0.0003
1858.00,0.0003
1857.00,0.0003
1856.00,0.0003
1855.00,0.0003
1854.00,0.0002
1853.00,0.0001
1852.00,0.0000
1851.00,0.0001
1850.00,0.0001
1849.00,0.0001
1848.00,0.0001
1847.00,0.0002
1846.00,0.0002
1845.00,0.0002
1844.00,0.0003
1843.00,0.0002
1842.00,0.0001
1841.00,0.0001
1840.00,0.0001
1839.00,0.0001
1838.00,0.0002
1837.00,0.0002
1836.00,0.0003
1835.00,0.0003
1834.00,0.0004
1833.00,0.0004
1832.00,0.0004
1831.00,0.0004
1830.00,0.0004
1829.00,0.0004
1828.00,0.0005
1827.00,0.0005
1826.00,0.0005
1825.00,0.0005
1824.00,0.0005
1823.00,0.0005
1822.00,0.0004
1821.00,0.0004
1820.00,0.0003
1819.00,0.0002
1818.00,0.0001
1817.00,0.0001
1816.00,0.0002
1815.00,0.0002
1814.00,0.0002
1813.00,0.0002
1812.00,0.0002
1811.00,0.0002
1810.00,0.0003
1809.00,0.0003
1808.00,0.0004
1807.00,0.0004
1806.00,0.0004
1805.00,0.0004
1804.00,0.0005
1803.00,0.0006
1802.00,0.0006
1801.00,0.0006
1800.00,0.0006
1799.00,0.0005
1798.00,0.0005
1797.00,0.0005
1796.00,0.0005
1795.00,0.0006
1794.00,0.0005
1793.00,0.0006
1792.00,0.0006
1791.00,0.0007
1790.00,0.0008
1789.00,0.0008
1788.00,0.0009
1787.00,0.0009
1786.00,0.0009
1785.00,0.0008
1784.00,0.0007
1783.00,0.0007
1782.00,0.0008
1781.00,0.0008
1780.00,0.0008
1779.00,0.0008
1778.00,0.0008
1777.00,0.0008
1776.00,0.0009
1775.00,0.0009
1774.00,0.0009
1773.00,0.0009
1772.00,0.0009
1771.00,0.0010
1770.00,0.0010
1769.00,0.0009
1768.00,0.0009
1767.00,0.0009
1766.00,0.0010
1765.00,0.0010
1764.00,0.0011
1763.00,0.0012
1762.00,0.0012
1761.00,0.0011
1760.00,0.0011
1759.00,0.0010
1758.00,0.0010
1757.00,0.0011
1756.00,0.0011
1755.00,0.0012
1754.00,0.0012
1753.00,0.0012
1752.00,0.0012
1751.00,0.0013
1750.00,0.0013
1749.00,0.0014
1748.00,0.0014
1747.00,0.0015
1746.00,0.0015
1745.00,0.0015
1744.00,0.0015
1743.00,0.0016
1742.00,0.0016
1741.00,0.0016
1740.00,0.0016
1739.00,0.0017
1738.00,0.0017
1737.00,0.0018
1736.00,0.0018
1735.00,0.0019
1734.00,0.0019
1733.00,0.0019
1732.00,0.0020
1731.00,0.0021
1730.00,0.0021
1729.00,0.0021
1728.00,0.0022
1727.00,0.0022
1726.00,0.0023
1725.00,0.0024
1724.00,0.0024
1723.00,0.0025
1722.00,0.0025
1721.00,0.0025
1720.00,0.0025
1719.00,0.0025
1718.00,0.0024
1717.00,0.0024
1716.00,0.0024
1715.00,0.0025
1714.00,0.0025
1713.00,0.0025
1712.00,0.0024
1711.00,0.0024
1710.00,0.0024
1709.00,0.0024
1708.00,0.0024
1707.00,0.0025
1706.00,0.0026
1705.00,0.0027
1704.00,0.0027
1703.00,0.0028
1702.00,0.0028
1701.00,0.0029
1700.00,0.0029
1699.00,0.0030
1698.00,0.0030
1697.00,0.0030
1696.00,0.0030
1695.00,0.0030
1694.00,0.0030
1693.00,0.0030
1692.00,0.0031
1691.00,0.0032
1690.00,0.0033
1689.00,0.0033
1688.00,0.0034
1687.00,0.0035
1686.00,0.0035
1685.00,0.0036
1684.00,0.0037
1683.00,0.0038
1682.00,0.0039
1681.00,0.0040
1680.00,0.0041
1679.00,0.0042
1678.00,0.0042
1677.00,0.0043
1676.00,0.0044
1675.00,0.0045
1674.00,0.0045
1673.00,0.0046
1672.00,0.0046
1671.00,0.0047
1670.00,0.0047
1669.00,0.0048
1668.00,0.0049
1667.00,0.0050
1666.00,0.0051
1665.00,0.0051
1664.00,0.0052
1663.00,0.0053
1662.00,0.0054
1661.00,0.0055
1660.00,0.0055
1659.00,0.0056
1658.00,0.0056
1657.00,0.0056
1656.00,0.0056
1655.00,0.0057
1654.00,0.0058
1653.00,0.0061
1652.00,0.0063
1651.00,0.0064
1650.00,0.0064
1649.00,0.0065
1648.00,0.0067
1647.00,0.0068
1646.00,0.0069
1645.00,0.0069
1644.00,0.0069
1643.00,0.0069
1642.00,0.0069
1641.00,0.0069
1640.00,0.0069
1639.00,0.0069
1638.00,0.0069
1637.00,0.0069
1636.00,0.0069
1635.00,0.0069
1634.00,0.0069
1633.00,0.0068
1632.00,0.0068
1631.00,0.0068
1630.00,0.0068
1629.00,0.0068
1628.00,0.0068
1627.00,0.0068
1626.00,0.0067
1625.00,0.0066
1624.00,0.0066
1623.00,0.0065
1622.00,0.0064
1621.00,0.0064
1620.00,0.0064
1619.00,0.0064
1618.00,0.0064
1617.00,0.0064
1616.00,0.0064
1615.00,0.0064
1614.00,0.0064
1613.00,0.0064
1612.00,0.0064
1611.00,0.0064
1610.00,0.0064
1609.00,0.0065
1608.00,0.0065
1607.00,0.0064
1606.00,0.0064
1605.00,0.0064
1604.00,0.0064
1603.00,0.0064
1602.00,0.0064
1601.00,0.0065
1600.00,0.0065
1599.00,0.0065
1598.00,0.0065
1597.00,0.0064
1596.00,0.0064
1595.00,0.0064
1594.00,0.0064
1593.00,0.0064
1592.00,0.0065
1591.00,0.0065
1590.00,0.0065
1589.00,0.0066
1588.00,0.0066
1587.00,0.0067
1586.00,0.0067
1585.00,0.0068
1584.00,0.0068
1583.00,0.0069
1582.00,0.0070
1581.00,0.0072
1580.00,0.0074
1579.00,0.0075
1578.00,0.0076
1577.00,0.0077
1576.00,0.0077
1575.00,0.0076
1574.00,0.0076
1573.00,0.0075
1572.00,0.0074
1571.00,0.0073
1570.00,0.0072
1569.00,0.0071
1568.00,0.0070
1567.00,0.0070
1566.00,0.0069
1565.00,0.0069
1564.00,0.0069
1563.00,0.0069
1562.00,0.0069
1561.00,0.0069
1560.00,0.0069
1559.00,0.0069
1558.00,0.0070
1557.00,0.0070
1556.00,0.0070
1555.00,0.0071
1554.00,0.0072
1553.00,0.0073
1552.00,0.0074
1551.00,0.0075
1550.00,0.0076
1549.00,0.0076
1548.00,0.0077
1547.00,0.0079
1546.00,0.0080
1545.00,0.0082
1544.00,0.0084
1543.00,0.0084
1542.00,0.0084
1541.00,0.0084
1540.00,0.0084
1539.00,0.0083
1538.00,0.0082
1537.00,0.0080
1536.00,0.0078
1535.00,0.0076
1534.00,0.0073
1533.00,0.0070
1532.00,0.0068
1531.00,0.0066
1530.00,0.0065
1529.00,0.0065
1528.00,0.0065
1527.00,0.0064
1526.00,0.0064
1525.00,0.0063
1524.00,0.0062
1523.00,0.0061
1522.00,0.0061
1521.00,0.0061
1520.00,0.0061
1519.00,0.0062
1518.00,0.0062
1517.00,0.0062
1516.00,0.0063
1515.00,0.0063
1514.00,0.0063
1513.00,0.0063
1512.00,0.0063
1511.00,0.0063
1510.00,0.0064
1509.00,0.0066
1508.00,0.0068
1507.00,0.0069
1506.00,0.0069
1505.00,0.0070
1504.00,0.0071
1503.00,0.0072
1502.00,0.0073
1501.00,0.0075
1500.00,0.0077
1499.00,0.0079
1498.00,0.0080
1497.00,0.0084
1496.00,0.0088
1495.00,0.0092
1494.00,0.0095
1493.00,0.0098
1492.00,0.0101
1491.00,0.0105
1490.00,0.0108
1489.00,0.0113
1488.00,0.0118
1487.00,0.0122
1486.00,0.0127
1485.00,0.0133
1484.00,0.0140
1483.00,0.0148
1482.00,0.0157
1481.00,0.0168
1480.00,0.0180
1479.00,0.0193
1478.00,0.0209
1477.00,0.0230
1476.00,0.0255
1475.00,0.0285
1474.00,0.0325
1473.00,0.0382
1472.00,0.0450
1471.00,0.0515
1470.00,0.0576
1469.00,0.0640
1468.00,0.0710
1467.00,0.0785
1466.00,0.0871
1465.00,0.0963
1464.00,0.1044
1463.00,0.1099
1462.00,0.1134
1461.00,0.1158
1460.00,0.1174
1459.00,0.1184
1458.00,0.1193
1457.00,0.1201
1456.00,0.1201
1455.00,0.1193
1454.00,0.1182
1453.00,0.1165
1452.00,0.1139
1451.00,0.1102
1450.00,0.1051
1449.00,0.0981
1448.00,0.0892
1447.00,0.0798
1446.00,0.0712
1445.00,0.0639
1444.00,0.0576
1443.00,0.0525
1442.00,0.0486
1441.00,0.0459
1440.00,0.0442
1439.00,0.0434
1438.00,0.0434
1437.00,0.0434
1436.00,0.0424
1435.00,0.0400
1434.00,0.0366
1433.00,0.0324
1432.00,0.0281
1431.00,0.0243
1430.00,0.0212
1429.00,0.0190
1428.00,0.0175
1427.00,0.0165
1426.00,0.0159
1425.00,0.0154
1424.00,0.0148
1423.00,0.0145
1422.00,0.0144
1421.00,0.0141
1420.00,0.0137
1419.00,0.0135
1418.00,0.0133
1417.00,0.0130
1416.00,0.0127
1415.00,0.0125
1414.00,0.0124
1413.00,0.0122
1412.00,0.0120
1411.00,0.0119
1410.00,0.0118
1409.00,0.0117
1408.00,0.0115
1407.00,0.0115
1406.00,0.0116
1405.00,0.0115
1404.00,0.0114
1403.00,0.0115
1402.00,0.0116
1401.00,0.0116
1400.00,0.0116
1399.00,0.0118
1398.00,0.0120
1397.00,0.0121
1396.00,0.0122
1395.00,0.0125
1394.00,0.0130
1393.00,0.0134
1392.00,0.0139
1391.00,0.0147
1390.00,0.0157
1389.00,0.0171
1388.00,0.0191
1387.00,0.0222
1386.00,0.0265
1385.00,0.0321
1384.00,0.0398
1383.00,0.0507
1382.00,0.0654
1381.00,0.0843
1380.00,0.1074
1379.00,0.1334
1378.00,0.1580
1377.00,0.1755
1376.00,0.1807
1375.00,0.1707
1374.00,0.1486
1373.00,0.1224
1372.00,0.0988
1371.00,0.0795
1370.00,0.0642
1369.00,0.0526
1368.00,0.0446
1367.00,0.0396
1366.00,0.0370
1365.00,0.0359
1364.00,0.0362
1363.00,0.0374
1362.00,0.0393
1361.00,0.0413
1360.00,0.0428
1359.00,0.0432
1358.00,0.0422
1357.00,0.0399
1356.00,0.0366
1355.00,0.0328
1354.00,0.0292
1353.00,0.0261
1352.00,0.0235
1351.00,0.0215
1350.00,0.0198
1349.00,0.0183
1348.00,0.0171
1347.00,0.0161
1346.00,0.0153
1345.00,0.0146
1344.00,0.0140
1343.00,0.0135
1342.00,0.0131
1341.00,0.0127
1340.00,0.0124
1339.00,0.0122
1338.00,0.0121
1337.00,0.0120
1336.00,0.0121
1335.00,0.0122
1334.00,0.0124
1333.00,0.0128
1332.00,0.0132
1331.00,0.0135
1330.00,0.0136
1329.00,0.0136
1328.00,0.0133
1327.00,0.0128
1326.00,0.0123
1325.00,0.0117
1324.00,0.0112
1323.00,0.0107
1322.00,0.0104
1321.00,0.0102
1320.00,0.0100
1319.00,0.0099
1318.00,0.0097
1317.00,0.0096
1316.00,0.0094
1315.00,0.0094
1314.00,0.0094
1313.00,0.0094
1312.00,0.0095
1311.00,0.0098
1310.00,0.0101
1309.00,0.0108
1308.00,0.0117
1307.00,0.0129
1306.00,0.0140
1305.00,0.0148
1304.00,0.0151
1303.00,0.0148
1302.00,0.0142
1301.00,0.0136
1300.00,0.0132
1299.00,0.0130
1298.00,0.0130
1297.00,0.0129
1296.00,0.0128
1295.00,0.0126
1294.00,0.0123
1293.00,0.0118
1292.00,0.0114
1291.00,0.0109
1290.00,0.0105
1289.00,0.0101
1288.00,0.0098
1287.00,0.0095
1286.00,0.0093
1285.00,0.0092
1284.00,0.0090
1283.00,0.0088
1282.00,0.0087
1281.00,0.0085
1280.00,0.0083
1279.00,0.0082
1278.00,0.0082
1277.00,0.0082
1276.00,0.0082
1275.00,0.0082
1274.00,0.0082
1273.00,0.0082
1272.00,0.0083
1271.00,0.0083
1270.00,0.0084
1269.00,0.0086
1268.00,0.0089
1267.00,0.0092
1266.00,0.0095
1265.00,0.0098
1264.00,0.0101
1263.00,0.0105
1262.00,0.0109
1261.00,0.0113
1260.00,0.0119
1259.00,0.0126
1258.00,0.0133
1257.00,0.0138
1256.00,0.0139
1255.00,0.0136
1254.00,0.0129
1253.00,0.0120
1252.00,0.0111
1251.00,0.0103
1250.00,0.0098
1249.00,0.0094
1248.00,0.0091
1247.00,0.0089
1246.00,0.0086
1245.00,0.0084
1244.00,0.0082
1243.00,0.0081
1242.00,0.0080
1241.00,0.0079
1240.00,0.0078
1239.00,0.0078
1238.00,0.0077
1237.00,0.0077
1236.00,0.0077
1235.00,0.0078
1234.00,0.0079
1233.00,0.0079
1232.00,0.0079
1231.00,0.0079
1230.00,0.0080
1229.00,0.0081
1228.00,0.0082
1227.00,0.0084
1226.00,0.0086
1225.00,0.0089
1224.00,0.0092
1223.00,0.0096
1222.00,0.0099
1221.00,0.0101
1220.00,0.0103
1219.00,0.0102
1218.00,0.0101
1217.00,0.0099
1216.00,0.0097
1215.00,0.0094
1214.00,0.0092
1213.00,0.0090
1212.00,0.0088
1211.00,0.0085
1210.00,0.0083
1209.00,0.0082
1208.00,0.0080
1207.00,0.0080
1206.00,0.0079
1205.00,0.0079
1204.00,0.0079
1203.00,0.0079
1202.00,0.0079
1201.00,0.0079
1200.00,0.0078
1199.00,0.0077
1198.00,0.0077
1197.00,0.0077
1196.00,0.0077
1195.00,0.0078
1194.00,0.0079
1193.00,0.0079
1192.00,0.0079
1191.00,0.0078
1190.00,0.0078
1189.00,0.0077
1188.00,0.0078
1187.00,0.0078
1186.00,0.0079
1185.00,0.0079
1184.00,0.0080
1183.00,0.0082
1182.00,0.0084
1181.00,0.0086
1180.00,0.0089
1179.00,0.0094
1178.00,0.0101
1177.00,0.0110
1176.00,0.0122
1175.00,0.0138
1174.00,0.0159
1173.00,0.0185
1172.00,0.0216
1171.00,0.0249
1170.00,0.0282
1169.00,0.0308
1168.00,0.0324
1167.00,0.0326
1166.00,0.0317
1165.00,0.0301
1164.00,0.0282
1163.00,0.0263
1162.00,0.0247
1161.00,0.0234
1160.00,0.0224
1159.00,0.0216
1158.00,0.0210
1157.00,0.0206
1156.00,0.0204
1155.00,0.0203
1154.00,0.0201
1153.00,0.0198
1152.00,0.0194
1151.00,0.0187
1150.00,0.0180
1149.00,0.0171
1148.00,0.0161
1147.00,0.0152
1146.00,0.0143
1145.00,0.0135
1144.00,0.0128
1143.00,0.0122
1142.00,0.0116
1141.00,0.0110
1140.00,0.0105
1139.00,0.0100
1138.00,0.0097
1137.00,0.0095
1136.00,0.0093
1135.00,0.0092
1134.00,0.0091
1133.00,0.0090
1132.00,0.0089
1131.00,0.0088
1130.00,0.0088
1129.00,0.0089
1128.00,0.0090
1127.00,0.0090
1126.00,0.0091
1125.00,0.0092
1124.00,0.0093
1123.00,0.0094
1122.00,0.0095
1121.00,0.0095
1120.00,0.0096
1119.00,0.0096
1118.00,0.0096
1117.00,0.0097
1116.00,0.0098
1115.00,0.0100
1114.00,0.0102
1113.00,0.0104
1112.00,0.0107
1111.00,0.0109
1110.00,0.0112
1109.00,0.0115
1108.00,0.0120
1107.00,0.0125
1106.00,0.0132
1105.00,0.0138
1104.00,0.0142
1103.00,0.0144
1102.00,0.0143
1101.00,0.0140
1100.00,0.0136
1099.00,0.0131
1098.00,0.0125
1097.00,0.0120
1096.00,0.0116
1095.00,0.0112
1094.00,0.0109
1093.00,0.0106
1092.00,0.0104
1091.00,0.0102
1090.00,0.0100
1089.00,0.0100
1088.00,0.0099
1087.00,0.0099
1086.00,0.0098
1085.00,0.0097
1084.00,0.0096
1083.00,0.0096
1082.00,0.0096
1081.00,0.0096
1080.00,0.0096
1079.00,0.0095
1078.00,0.0094
1077.00,0.0093
1076.00,0.0091
1075.00,0.0090
1074.00,0.0088
1073.00,0.0087
1072.00,0.0087
1071.00,0.0086
1070.00,0.0086
1069.00,0.0086
1068.00,0.0087
1067.00,0.0088
1066.00,0.0089
1065.00,0.0089
1064.00,0.0088
1063.00,0.0087
1062.00,0.0087
1061.00,0.0086
1060.00,0.0086
1059.00,0.0087
1058.00,0.0087
1057.00,0.0088
1056.00,0.0088
1055.00,0.0089
1054.00,0.0090
1053.00,0.0092
1052.00,0.0095
1051.00,0.0097
1050.00,0.0099
1049.00,0.0101
1048.00,0.0104
1047.00,0.0107
1046.00,0.0109
1045.00,0.0111
1044.00,0.0111
1043.00,0.0110
1042.00,0.0108
1041.00,0.0106
1040.00,0.0105
1039.00,0.0105
1038.00,0.0104
1037.00,0.0104
1036.00,0.0104
1035.00,0.0103
1034.00,0.0102
1033.00,0.0102
1032.00,0.0101
1031.00,0.0100
1030.00,0.0098
1029.00,0.0097
1028.00,0.0096
1027.00,0.0095
1026.00,0.0095
1025.00,0.0094
1024.00,0.0094
1023.00,0.0094
1022.00,0.0094
1021.00,0.0095
1020.00,0.0096
1019.00,0.0097
1018.00,0.0098
1017.00,0.0100
1016.00,0.0101
1015.00,0.0103
1014.00,0.0104
1013.00,0.0104
1012.00,0.0105
1011.00,0.0107
1010.00,0.0110
1009.00,0.0113
1008.00,0.0119
1007.00,0.0126
1006.00,0.0135
1005.00,0.0147
1004.00,0.0164
1003.00,0.0188
1002.00,0.0220
1001.00,0.0260
1000.00,0.0303
999.00,0.0339
998.00,0.0357
997.00,0.0351
996.00,0.0323
995.00,0.0282
994.00,0.0239
993.00,0.0201
992.00,0.0172
991.00,0.0152
990.00,0.0138
989.00,0.0129
988.00,0.0123
987.00,0.0119
986.00,0.0117
985.00,0.0118
984.00,0.0121
983.00,0.0128
982.00,0.0139
981.00,0.0156
980.00,0.0178
979.00,0.0207
978.00,0.0245
977.00,0.0288
976.00,0.0336
975.00,0.0381
974.00,0.0415
973.00,0.0427
972.00,0.0412
971.00,0.0372
970.00,0.0318
969.00,0.0263
968.00,0.0217
967.00,0.0182
966.00,0.0156
965.00,0.0138
964.00,0.0125
963.00,0.0115
962.00,0.0108
961.00,0.0102
960.00,0.0096
959.00,0.0093
958.00,0.0090
957.00,0.0087
956.00,0.0084
955.00,0.0081
954.00,0.0078
953.00,0.0077
952.00,0.0076
951.00,0.0075
950.00,0.0075
949.00,0.0075
948.00,0.0076
947.00,0.0076
946.00,0.0077
945.00,0.0079
944.00,0.0082
943.00,0.0085
942.00,0.0089
941.00,0.0091
940.00,0.0092
939.00,0.0090
938.00,0.0087
937.00,0.0082
936.00,0.0078
935.00,0.0074
934.00,0.0071
933.00,0.0070
932.00,0.0068
931.00,0.0068
930.00,0.0067
929.00,0.0065
928.00,0.0065
927.00,0.0064
926.00,0.0064
925.00,0.0064
924.00,0.0063
923.00,0.0063
922.00,0.0063
921.00,0.0063
920.00,0.0063
919.00,0.0064
918.00,0.0065
917.00,0.0065
916.00,0.0066
915.00,0.0067
914.00,0.0068
913.00,0.0070
912.00,0.0071
911.00,0.0072
910.00,0.0074
909.00,0.0076
908.00,0.0080
907.00,0.0084
906.00,0.0091
905.00,0.0100
904.00,0.0113
903.00,0.0130
902.00,0.0148
901.00,0.0165
900.00,0.0176
899.00,0.0178
898.00,0.0171
897.00,0.0156
896.00,0.0138
895.00,0.0121
894.00,0.0107
893.00,0.0096
892.00,0.0089
891.00,0.0084
890.00,0.0080
889.00,0.0078
888.00,0.0076
887.00,0.0076
886.00,0.0076
885.00,0.0076
884.00,0.0076
883.00,0.0076
882.00,0.0077
881.00,0.0078
880.00,0.0078
879.00,0.0077
878.00,0.0078
877.00,0.0078
876.00,0.0079
875.00,0.0080
874.00,0.0081
873.00,0.0081
872.00,0.0081
871.00,0.0081
870.00,0.0080
869.00,0.0080
868.00,0.0080
867.00,0.0082
866.00,0.0083
865.00,0.0084
864.00,0.0085
863.00,0.0085
862.00,0.0085
861.00,0.0086
860.00,0.0087
859.00,0.0089
858.00,0.0091
857.00,0.0093
856.00,0.0094
855.00,0.0096
854.00,0.0097
853.00,0.0099
852.00,0.0102
851.00,0.0107
850.00,0.0113
849.00,0.0120
848.00,0.0129
847.00,0.0143
846.00,0.0165
845.00,0.0199
844.00,0.0248
843.00,0.0304
842.00,0.0351
841.00,0.0365
840.00,0.0341
839.00,0.0291
838.00,0.0234
837.00,0.0189
836.00,0.0158
835.00,0.0140
834.00,0.0130
833.00,0.0124
832.00,0.0119
831.00,0.0115
830.00,0.0112
829.00,0.0109
828.00,0.0108
827.00,0.0107
826.00,0.0107
825.00,0.0107
824.00,0.0107
823.00,0.0108
822.00,0.0108
821.00,0.0110
820.00,0.0112
819.00,0.0116
818.00,0.0121
817.00,0.0128
816.00,0.0136
815.00,0.0146
814.00,0.0159
813.00,0.0175
812.00,0.0192
811.00,0.0209
810.00,0.0221
809.00,0.0226
808.00,0.0223
807.00,0.0213
806.00,0.0199
805.00,0.0182
804.00,0.0165
803.00,0.0151
802.00,0.0140
801.00,0.0133
800.00,0.0129
799.00,0.0125
798.00,0.0120
797.00,0.0116
796.00,0.0111
795.00,0.0108
794.00,0.0104
793.00,0.0100
792.00,0.0096
791.00,0.0092
790.00,0.0088
789.00,0.0086
788.00,0.0084
787.00,0.0083
786.00,0.0081
785.00,0.0079
784.00,0.0076
783.00,0.0074
782.00,0.0072
781.00,0.0069
780.00,0.0067
779.00,0.0067
778.00,0.0069
777.00,0.0071
776.00,0.0072
775.00,0.0073
774.00,0.0072
773.00,0.0073
772.00,0.0073
771.00,0.0073
770.00,0.0073
769.00,0.0073
768.00,0.0072
767.00,0.0071
766.00,0.0071
765.00,0.0073
764.00,0.0074
763.00,0.0075
762.00,0.0076
761.00,0.0076
760.00,0.0075
759.00,0.0075
758.00,0.0074
757.00,0.0074
756.00,0.0074
755.00,0.0075
754.00,0.0077
753.00,0.0080
752.00,0.0083
751.00,0.0086
750.00,0.0089
749.00,0.0090
748.00,0.0091
747.00,0.0091
746.00,0.0090
745.00,0.0091
744.00,0.0092
743.00,0.0094
742.00,0.0097
741.00,0.0101
740.00,0.0105
739.00,0.0108
738.00,0.0111
737.00,0.0114
736.00,0.0117
735.00,0.0120
734.00,0.0125
733.00,0.0132
732.00,0.0141
731.00,0.0149
730.00,0.0155
729.00,0.0158
728.00,0.0160
727.00,0.0161
726.00,0.0163
725.00,0.0167
724.00,0.0172
723.00,0.0180
722.00,0.0188
721.00,0.0193
720.00,0.0191
719.00,0.0182
718.00,0.0168
717.00,0.0154
716.00,0.0142
715.00,0.0132
714.00,0.0125
713.00,0.0120
712.00,0.0117
711.00,0.0114
710.00,0.0113
709.00,0.0113
708.00,0.0113
707.00,0.0113
706.00,0.0112
705.00,0.0112
704.00,0.0111
703.00,0.0109
702.00,0.0107
701.00,0.0105
700.00,0.0104
699.00,0.0102
698.00,0.0099
697.00,0.0096
696.00,0.0094
695.00,0.0094
694.00,0.0095
693.00,0.0095
692.00,0.0096
691.00,0.0095
690.00,0.0093
689.00,0.0092
688.00,0.0091
687.00,0.0092
686.00,0.0094
685.00,0.0095
684.00,0.0095
683.00,0.0094
682.00,0.0093
681.00,0.0092
680.00,0.0091
679.00,0.0092
678.00,0.0094
677.00,0.0096
676.00,0.0098
675.00,0.0098
674.00,0.0097
673.00,0.0097
672.00,0.0097
671.00,0.0095
670.00,0.0092
669.00,0.0088
668.00,0.0089
667.00,0.0093
666.00,0.0097
665.00,0.0099
664.00,0.0099
663.00,0.0097
662.00,0.0095
661.00,0.0094
660.00,0.0093
659.00,0.0092
658.00,0.0091
657.00,0.0089
656.00,0.0088
655.00,0.0088
654.00,0.0089
653.00,0.0090
652.00,0.0091
651.00,0.0091
650.00,0.0092
649.00,0.0092
648.00,0.0094
647.00,0.0096
646.00,0.0095
645.00,0.0094
644.00,0.0093
643.00,0.0093
642.00,0.0092
641.00,0.0090
640.00,0.0087
639.00,0.0087
638.00,0.0087
637.00,0.0088
636.00,0.0089
635.00,0.0089
634.00,0.0089
633.00,0.0091
632.00,0.0092
631.00,0.0093
630.00,0.0093
629.00,0.0091
628.00,0.0089
627.00,0.0086
626.00,0.0085
625.00,0.0085
624.00,0.0086
623.00,0.0089
622.00,0.0090
621.00,0.0090
620.00,0.0089
619.00,0.0088
618.00,0.0088
617.00,0.0089
616.00,0.0090
615.00,0.0088
614.00,0.0087
613.00,0.0088
612.00,0.0091
611.00,0.0094
610.00,0.0096
609.00,0.0094
608.00,0.0090
607.00,0.0087
606.00,0.0087
605.00,0.0090
604.00,0.0094
603.00,0.0097
602.00,0.0098
601.00,0.0098
600.00,0.0097
599.00,0.0096
598.00,0.0094
597.00,0.0092
596.00,0.0090
595.00,0.0089
594.00,0.0088
593.00,0.0088
592.00,0.0088
591.00,0.0089
590.00,0.0092
589.00,0.0094
588.00,0.0096
587.00,0.0095
586.00,0.0092
585.00,0.0088
584.00,0.0085
583.00,0.0085
582.00,0.0088
581.00,0.0091
580.00,0.0093
579.00,0.0094
578.00,0.0092
577.00,0.0089
576.00,0.0086
575.00,0.0086
574.00,0.0089
573.00,0.0092
572.00,0.0094
571.00,0.0094
570.00,0.0094
569.00,0.0093
568.00,0.0091
567.00,0.0090
566.00,0.0089
565.00,0.0090
564.00,0.0094
563.00,0.0097
562.00,0.0099
561.00,0.0100
560.00,0.0099
559.00,0.0099
558.00,0.0099
557.00,0.0098
556.00,0.0096
555.00,0.0093
554.00,0.0093
553.00,0.0095
552.00,0.0098
551.00,0.0098
550.00,0.0096
549.00,0.0092
548.00,0.0088
547.00,0.0085
546.00,0.0082
545.00,0.0081
544.00,0.0081
543.00,0.0082
542.00,0.0082
541.00,0.0082
540.00,0.0080
539.00,0.0081
538.00,0.0084
537.00,0.0091
536.00,0.0100
535.00,0.0108
534.00,0.0111
533.00,0.0112
532.00,0.0111
531.00,0.0109
530.00,0.0107
529.00,0.0105
528.00,0.0104
527.00,0.0105
526.00,0.0105
525.00,0.0099
524.00,0.0092
523.00,0.0088
522.00,0.0091
521.00,0.0097
520.00,0.0102
519.00,0.0104
518.00,0.0103
517.00,0.0101
516.00,0.0099
515.00,0.0095
514.00,0.0091
513.00,0.0088
512.00,0.0087
511.00,0.0086
510.00,0.0084
509.00,0.0080
508.00,0.0075
507.00,0.0073
506.00,0.0076
505.00,0.0082
504.00,0.0089
503.00,0.0093
502.00,0.0094
501.00,0.0090
500.00,0.0083
499.00,0.0076
498.00,0.0073
497.00,0.0076
496.00,0.0083
495.00,0.0090
494.00,0.0093
493.00,0.0089
492.00,0.0080
491.00,0.0071
490.00,0.0067
489.00,0.0071
488.00,0.0080
487.00,0.0089
486.00,0.0092
485.00,0.0088
484.00,0.0083
483.00,0.0081
482.00,0.0081
481.00,0.0081
480.00,0.0078
479.00,0.0073
478.00,0.0065
477.00,0.0056
476.00,0.0049
475.00,0.0048
474.00,0.0049
473.00,0.0047
472.00,0.0044
471.00,0.0046
470.00,0.0053
469.00,0.0064
468.00,0.0074
467.00,0.0086
466.00,0.0099
465.00,0.0110
464.00,0.0119
463.00,0.0131
462.00,0.0151
461.00,0.0177
460.00,0.0195
459.00,0.0192
458.00,0.0168
457.00,0.0141
456.00,0.0130
455.00,0.0134
454.00,0.0140
453.00,0.0138
452.00,0.0126
451.00,0.0108
450.00,0.0093
