Created as New Dataset,Sample 194 By Administrator Date Wednesday, September 03 2025
cm-1,A
4000.00,0.0010
3999.00,0.0010
3998.00,0.0010
3997.00,0.0010
3996.00,0.0010
3995.00,0.0010
3994.00,0.0010
3993.00,0.0010
3992.00,0.0010
3991.00,0.0010
3990.00,0.0010
3989.00,0.0010
3988.00,0.0010
3987.00,0.0010
3986.00,0.0010
3985.00,0.0010
3984.00,0.0010
3983.00,0.0010
3982.00,0.0009
3981.00,0.0009
3980.00,0.0009
3979.00,0.0008
3978.00,0.0009
3977.00,0.0009
3976.00,0.0009
3975.00,0.0009
3974.00,0.0009
3973.00,0.0009
3972.00,0.0008
3971.00,0.0008
3970.00,0.0008
3969.00,0.0007
3968.00,0.0007
3967.00,0.0007
3966.00,0.0007
3965.00,0.0007
3964.00,0.0007
3963.00,0.0008
3962.00,0.0008
3961.00,0.0008
3960.00,0.0008
3959.00,0.0008
3958.00,0.0007
3957.00,0.0007
3956.00,0.0007
3955.00,0.0007
3954.00,0.0007
3953.00,0.0007
3952.00,0.0007
3951.00,0.0008
3950.00,0.0008
3949.00,0.0008
3948.00,0.0008
3947.00,0.0008
3946.00,0.0008
3945.00,0.0008
3944.00,0.0007
3943.00,0.0007
3942.00,0.0008
3941.00,0.0008
3940.00,0.0008
3939.00,0.0008
3938.00,0.0008
3937.00,0.0008
3936.00,0.0008
3935.00,0.0008
3934.00,0.0008
3933.00,0.0008
3932.00,0.0008
3931.00,0.0008
3930.00,0.0009
3929.00,0.0008
3928.00,0.0008
3927.00,0.0008
3926.00,0.0007
3925.00,0.0007
3924.00,0.0008
3923.00,0.0008
3922.00,0.0008
3921.00,0.0008
3920.00,0.0008
3919.00,0.0008
3918.00,0.0009
3917.00,0.0009
3916.00,0.0009
3915.00,0.0009
3914.00,0.0009
3913.00,0.0009
3912.00,0.0008
3911.00,0.0008
3910.00,0.0008
3909.00,0.0008
3908.00,0.0008
3907.00,0.0008
3906.00,0.0008
3905.00,0.0008
3904.00,0.0008
3903.00,0.0008
3902.00,0.0008
3901.00,0.0008
3900.00,0.0008
3899.00,0.0007
3898.00,0.0007
3897.00,0.0007
3896.00,0.0007
3895.00,0.0007
3894.00,0.0008
3893.00,0.0008
3892.00,0.0009
3891.00,0.0009
3890.00,0.0009
3889.00,0.0009
3888.00,0.0009
3887.00,0.0008
3886.00,0.0008
3885.00,0.0008
3884.00,0.0009
3883.00,0.0009
3882.00,0.0009
3881.00,0.0008
3880.00,0.0008
3879.00,0.0008
3878.00,0.0008
3877.00,0.0008
3876.00,0.0008
3875.00,0.0008
3874.00,0.0008
3873.00,0.0009
3872.00,0.0009
3871.00,0.0008
3870.00,0.0008
3869.00,0.0008
3868.00,0.0008
3867.00,0.0008
3866.00,0.0008
3865.00,0.0007
3864.00,0.0007
3863.00,0.0007
3862.00,0.0007
3861.00,0.0007
3860.00,0.0007
3859.00,0.0007
3858.00,0.0007
3857.00,0.0007
3856.00,0.0007
3855.00,0.0008
3854.00,0.0008
3853.00,0.0008
3852.00,0.0008
3851.00,0.0008
3850.00,0.0008
3849.00,0.0008
3848.00,0.0008
3847.00,0.0008
3846.00,0.0008
3845.00,0.0008
3844.00,0.0008
3843.00,0.0008
3842.00,0.0009
3841.00,0.0009
3840.00,0.0009
3839.00,0.0009
3838.00,0.0008
3837.00,0.0008
3836.00,0.0007
3835.00,0.0007
3834.00,0.0007
3833.00,0.0007
3832.00,0.0007
3831.00,0.0007
3830.00,0.0007
3829.00,0.0007
3828.00,0.0007
3827.00,0.0007
3826.00,0.0007
3825.00,0.0008
3824.00,0.0008
3823.00,0.0009
3822.00,0.0009
3821.00,0.0009
3820.00,0.0009
3819.00,0.0008
3818.00,0.0008
3817.00,0.0007
3816.00,0.0007
3815.00,0.0007
3814.00,0.0007
3813.00,0.0008
3812.00,0.0008
3811.00,0.0008
3810.00,0.0008
3809.00,0.0008
3808.00,0.0008
3807.00,0.0008
3806.00,0.0008
3805.00,0.0008
3804.00,0.0008
3803.00,0.0008
3802.00,0.0008
3801.00,0.0007
3800.00,0.0007
3799.00,0.0007
3798.00,0.0007
3797.00,0.0007
3796.00,0.0007
3795.00,0.0007
3794.00,0.0007
3793.00,0.0007
3792.00,0.0007
3791.00,0.0007
3790.00,0.0007
3789.00,0.0007
3788.00,0.0007
3787.00,0.0007
3786.00,0.0007
3785.00,0.0008
3784.00,0.0008
3783.00,0.0008
3782.00,0.0008
3781.00,0.0008
3780.00,0.0008
3779.00,0.0008
3778.00,0.0008
3777.00,0.0008
3776.00,0.0008
3775.00,0.0008
3774.00,0.0008
3773.00,0.0008
3772.00,0.0008
3771.00,0.0008
3770.00,0.0009
3769.00,0.0009
3768.00,0.0010
3767.00,0.0010
3766.00,0.0010
3765.00,0.0009
3764.00,0.0009
3763.00,0.0009
3762.00,0.0009
3761.00,0.0009
3760.00,0.0009
3759.00,0.0009
3758.00,0.0008
3757.00,0.0008
3756.00,0.0008
3755.00,0.0008
3754.00,0.0009
3753.00,0.0009
3752.00,0.0009
3751.00,0.0009
3750.00,0.0008
3749.00,0.0008
3748.00,0.0008
3747.00,0.0008
3746.00,0.0007
3745.00,0.0007
3744.00,0.0008
3743.00,0.0008
3742.00,0.0007
3741.00,0.0007
3740.00,0.0006
3739.00,0.0006
3738.00,0.0006
3737.00,0.0006
3736.00,0.0006
3735.00,0.0007
3734.00,0.0007
3733.00,0.0006
3732.00,0.0006
3731.00,0.0006
3730.00,0.0005
3729.00,0.0005
3728.00,0.0005
3727.00,0.0005
3726.00,0.0005
3725.00,0.0005
3724.00,0.0005
3723.00,0.0005
3722.00,0.0006
3721.00,0.0006
3720.00,0.0006
3719.00,0.0006
3718.00,0.0006
3717.00,0.0006
3716.00,0.0006
3715.00,0.0006
3714.00,0.0007
3713.00,0.0007
3712.00,0.0006
3711.00,0.0006
3710.00,0.0005
3709.00,0.0005
3708.00,0.0005
3707.00,0.0006
3706.00,0.0006
3705.00,0.0007
3704.00,0.0007
3703.00,0.0006
3702.00,0.0005
3701.00,0.0005
3700.00,0.0005
3699.00,0.0006
3698.00,0.0006
3697.00,0.0006
3696.00,0.0007
3695.00,0.0007
3694.00,0.0007
3693.00,0.0007
3692.00,0.0007
3691.00,0.0008
3690.00,0.0008
3689.00,0.0008
3688.00,0.0008
3687.00,0.0007
3686.00,0.0007
3685.00,0.0007
3684.00,0.0007
3683.00,0.0007
3682.00,0.0008
3681.00,0.0007
3680.00,0.0007
3679.00,0.0007
3678.00,0.0007
3677.00,0.0007
3676.00,0.0007
3675.00,0.0007
3674.00,0.0007
3673.00,0.0007
3672.00,0.0007
3671.00,0.0006
3670.00,0.0006
3669.00,0.0007
3668.00,0.0007
3667.00,0.0007
3666.00,0.0008
3665.00,0.0008
3664.00,0.0007
3663.00,0.0007
3662.00,0.0007
3661.00,0.0007
3660.00,0.0007
3659.00,0.0007
3658.00,0.0007
3657.00,0.0007
3656.00,0.0008
3655.00,0.0008
3654.00,0.0008
3653.00,0.0008
3652.00,0.0008
3651.00,0.0007
3650.00,0.0007
3649.00,0.0006
3648.00,0.0006
3647.00,0.0007
3646.00,0.0007
3645.00,0.0007
3644.00,0.0008
3643.00,0.0008
3642.00,0.0008
3641.00,0.0008
3640.00,0.0008
3639.00,0.0008
3638.00,0.0008
3637.00,0.0008
3636.00,0.0008
3635.00,0.0008
3634.00,0.0007
3633.00,0.0007
3632.00,0.0008
3631.00,0.0008
3630.00,0.0008
3629.00,0.0008
3628.00,0.0008
3627.00,0.0009
3626.00,0.0009
3625.00,0.0009
3624.00,0.0009
3623.00,0.0010
3622.00,0.0009
3621.00,0.0009
3620.00,0.0009
3619.00,0.0009
3618.00,0.0009
3617.00,0.0009
3616.00,0.0009
3615.00,0.0009
3614.00,0.0009
3613.00,0.0010
3612.00,0.0010
3611.00,0.0011
3610.00,0.0011
3609.00,0.0011
3608.00,0.0011
3607.00,0.0012
3606.00,0.0012
3605.00,0.0012
3604.00,0.0012
3603.00,0.0011
3602.00,0.0011
3601.00,0.0011
3600.00,0.0011
3599.00,0.0011
3598.00,0.0012
3597.00,0.0012
3596.00,0.0012
3595.00,0.0012
3594.00,0.0012
3593.00,0.0012
3592.00,0.0012
3591.00,0.0013
3590.00,0.0013
3589.00,0.0012
3588.00,0.0012
3587.00,0.0012
3586.00,0.0013
3585.00,0.0013
3584.00,0.0013
3583.00,0.0014
3582.00,0.0014
3581.00,0.0014
3580.00,0.0015
3579.00,0.0015
3578.00,0.0016
3577.00,0.0016
3576.00,0.0016
3575.00,0.0016
3574.00,0.0016
3573.00,0.0016
3572.00,0.0017
3571.00,0.0017
3570.00,0.0017
3569.00,0.0017
3568.00,0.0017
3567.00,0.0017
3566.00,0.0017
3565.00,0.0017
3564.00,0.0017
3563.00,0.0018
3562.00,0.0018
3561.00,0.0019
3560.00,0.0019
3559.00,0.0019
3558.00,0.0020
3557.00,0.0020
3556.00,0.0020
3555.00,0.0020
3554.00,0.0020
3553.00,0.0020
3552.00,0.0021
3551.00,0.0021
3550.00,0.0021
3549.00,0.0022
3548.00,0.0022
3547.00,0.0022
3546.00,0.0022
3545.00,0.0023
3544.00,0.0023
3543.00,0.0023
3542.00,0.0023
3541.00,0.0023
3540.00,0.0024
3539.00,0.0024
3538.00,0.0024
3537.00,0.0024
3536.00,0.0024
3535.00,0.0025
3534.00,0.0025
3533.00,0.0025
3532.00,0.0025
3531.00,0.0025
3530.00,0.0025
3529.00,0.0026
3528.00,0.0026
3527.00,0.0027
3526.00,0.0027
3525.00,0.0027
3524.00,0.0027
3523.00,0.0028
3522.00,0.0028
3521.00,0.0028
3520.00,0.0029
3519.00,0.0029
3518.00,0.0029
3517.00,0.0029
3516.00,0.0030
3515.00,0.0030
3514.00,0.0030
3513.00,0.0030
3512.00,0.0030
3511.00,0.0030
3510.00,0.0030
3509.00,0.0030
3508.00,0.0031
3507.00,0.0031
3506.00,0.0031
3505.00,0.0032
3504.00,0.0032
3503.00,0.0032
3502.00,0.0033
3501.00,0.0033
3500.00,0.0033
3499.00,0.0034
3498.00,0.0034
3497.00,0.0035
3496.00,0.0035
3495.00,0.0035
3494.00,0.0035
3493.00,0.0034
3492.00,0.0034
3491.00,0.0034
3490.00,0.0035
3489.00,0.0035
3488.00,0.0036
3487.00,0.0036
3486.00,0.0036
3485.00,0.0037
3484.00,0.0037
3483.00,0.0037
3482.00,0.0037
3481.00,0.0037
3480.00,0.0038
3479.00,0.0038
3478.00,0.0038
3477.00,0.0039
3476.00,0.0039
3475.00,0.0038
3474.00,0.0039
3473.00,0.0039
3472.00,0.0040
3471.00,0.0040
3470.00,0.0041
3469.00,0.0041
3468.00,0.0041
3467.00,0.0041
3466.00,0.0041
3465.00,0.0041
3464.00,0.0041
3463.00,0.0041
3462.00,0.0041
3461.00,0.0042
3460.00,0.0042
3459.00,0.0043
3458.00,0.0044
3457.00,0.0044
3456.00,0.0044
3455.00,0.0044
3454.00,0.0045
3453.00,0.0045
3452.00,0.0045
3451.00,0.0045
3450.00,0.0046
3449.00,0.0046
3448.00,0.0046
3447.00,0.0046
3446.00,0.0046
3445.00,0.0046
3444.00,0.0046
3443.00,0.0046
3442.00,0.0046
3441.00,0.0046
3440.00,0.0047
3439.00,0.0047
3438.00,0.0047
3437.00,0.0048
3436.00,0.0048
3435.00,0.0047
3434.00,0.0048
3433.00,0.0048
3432.00,0.0048
3431.00,0.0049
3430.00,0.0049
3429.00,0.0050
3428.00,0.0050
3427.00,0.0050
3426.00,0.0051
3425.00,0.0051
3424.00,0.0051
3423.00,0.0051
3422.00,0.0051
3421.00,0.0051
3420.00,0.0051
3419.00,0.0052
3418.00,0.0052
3417.00,0.0052
3416.00,0.0052
3415.00,0.0052
3414.00,0.0053
3413.00,0.0053
3412.00,0.0053
3411.00,0.0054
3410.00,0.0054
3409.00,0.0055
3408.00,0.0055
3407.00,0.0056
3406.00,0.0056
3405.00,0.0056
3404.00,0.0057
3403.00,0.0057
3402.00,0.0058
3401.00,0.0058
3400.00,0.0059
3399.00,0.0059
3398.00,0.0060
3397.00,0.0060
3396.00,0.0060
3395.00,0.0060
3394.00,0.0060
3393.00,0.0059
3392.00,0.0059
3391.00,0.0058
3390.00,0.0058
3389.00,0.0057
3388.00,0.0057
3387.00,0.0058
3386.00,0.0058
3385.00,0.0058
3384.00,0.0058
3383.00,0.0058
3382.00,0.0058
3381.00,0.0058
3380.00,0.0057
3379.00,0.0057
3378.00,0.0057
3377.00,0.0057
3376.00,0.0057
3375.00,0.0057
3374.00,0.0057
3373.00,0.0057
3372.00,0.0056
3371.00,0.0056
3370.00,0.0057
3369.00,0.0057
3368.00,0.0057
3367.00,0.0057
3366.00,0.0057
3365.00,0.0057
3364.00,0.0058
3363.00,0.0058
3362.00,0.0058
3361.00,0.0058
3360.00,0.0058
3359.00,0.0057
3358.00,0.0057
3357.00,0.0057
3356.00,0.0057
3355.00,0.0057
3354.00,0.0057
3353.00,0.0057
3352.00,0.0057
3351.00,0.0057
3350.00,0.0057
3349.00,0.0057
3348.00,0.0057
3347.00,0.0057
3346.00,0.0057
3345.00,0.0057
3344.00,0.0056
3343.00,0.0056
3342.00,0.0056
3341.00,0.0056
3340.00,0.0056
3339.00,0.0056
3338.00,0.0056
3337.00,0.0056
3336.00,0.0056
3335.00,0.0056
3334.00,0.0056
3333.00,0.0056
3332.00,0.0056
3331.00,0.0056
3330.00,0.0055
3329.00,0.0055
3328.00,0.0054
3327.00,0.0054
3326.00,0.0054
3325.00,0.0054
3324.00,0.0054
3323.00,0.0055
3322.00,0.0055
3321.00,0.0055
3320.00,0.0054
3319.00,0.0054
3318.00,0.0054
3317.00,0.0054
3316.00,0.0054
3315.00,0.0054
3314.00,0.0054
3313.00,0.0054
3312.00,0.0054
3311.00,0.0054
3310.00,0.0054
3309.00,0.0054
3308.00,0.0054
3307.00,0.0055
3306.00,0.0055
3305.00,0.0055
3304.00,0.0055
3303.00,0.0055
3302.00,0.0055
3301.00,0.0055
3300.00,0.0055
3299.00,0.0054
3298.00,0.0054
3297.00,0.0054
3296.00,0.0054
3295.00,0.0053
3294.00,0.0053
3293.00,0.0053
3292.00,0.0053
3291.00,0.0052
3290.00,0.0052
3289.00,0.0052
3288.00,0.0051
3287.00,0.0051
3286.00,0.0051
3285.00,0.0051
3284.00,0.0051
3283.00,0.0051
3282.00,0.0051
3281.00,0.0050
3280.00,0.0050
3279.00,0.0050
3278.00,0.0049
3277.00,0.0049
3276.00,0.0049
3275.00,0.0049
3274.00,0.0048
3273.00,0.0048
3272.00,0.0048
3271.00,0.0049
3270.00,0.0049
3269.00,0.0048
3268.00,0.0048
3267.00,0.0048
3266.00,0.0047
3265.00,0.0047
3264.00,0.0047
3263.00,0.0047
3262.00,0.0047
3261.00,0.0047
3260.00,0.0047
3259.00,0.0047
3258.00,0.0047
3257.00,0.0047
3256.00,0.0047
3255.00,0.0046
3254.00,0.0046
3253.00,0.0046
3252.00,0.0045
3251.00,0.0045
3250.00,0.0045
3249.00,0.0045
3248.00,0.0045
3247.00,0.0044
3246.00,0.0044
3245.00,0.0044
3244.00,0.0043
3243.00,0.0043
3242.00,0.0044
3241.00,0.0044
3240.00,0.0044
3239.00,0.0043
3238.00,0.0043
3237.00,0.0043
3236.00,0.0043
3235.00,0.0044
3234.00,0.0044
3233.00,0.0044
3232.00,0.0044
3231.00,0.0045
3230.00,0.0045
3229.00,0.0045
3228.00,0.0045
3227.00,0.0045
3226.00,0.0045
3225.00,0.0045
3224.00,0.0045
3223.00,0.0045
3222.00,0.0045
3221.00,0.0045
3220.00,0.0045
3219.00,0.0046
3218.00,0.0046
3217.00,0.0046
3216.00,0.0046
3215.00,0.0046
3214.00,0.0046
3213.00,0.0047
3212.00,0.0047
3211.00,0.0048
3210.00,0.0048
3209.00,0.0048
3208.00,0.0048
3207.00,0.0048
3206.00,0.0049
3205.00,0.0049
3204.00,0.0050
3203.00,0.0050
3202.00,0.0050
3201.00,0.0050
3200.00,0.0049
3199.00,0.0049
3198.00,0.0049
3197.00,0.0049
3196.00,0.0049
3195.00,0.0049
3194.00,0.0049
3193.00,0.0049
3192.00,0.0049
3191.00,0.0049
3190.00,0.0050
3189.00,0.0050
3188.00,0.0050
3187.00,0.0050
3186.00,0.0050
3185.00,0.0049
3184.00,0.0049
3183.00,0.0049
3182.00,0.0049
3181.00,0.0049
3180.00,0.0048
3179.00,0.0048
3178.00,0.0047
3177.00,0.0047
3176.00,0.0047
3175.00,0.0047
3174.00,0.0046
3173.00,0.0046
3172.00,0.0046
3171.00,0.0046
3170.00,0.0045
3169.00,0.0045
3168.00,0.0045
3167.00,0.0045
3166.00,0.0044
3165.00,0.0044
3164.00,0.0044
3163.00,0.0043
3162.00,0.0043
3161.00,0.0043
3160.00,0.0043
3159.00,0.0043
3158.00,0.0043
3157.00,0.0043
3156.00,0.0043
3155.00,0.0042
3154.00,0.0042
3153.00,0.0042
3152.00,0.0043
3151.00,0.0043
3150.00,0.0043
3149.00,0.0043
3148.00,0.0043
3147.00,0.0043
3146.00,0.0042
3145.00,0.0042
3144.00,0.0042
3143.00,0.0042
3142.00,0.0041
3141.00,0.0041
3140.00,0.0040
3139.00,0.0040
3138.00,0.0040
3137.00,0.0040
3136.00,0.0040
3135.00,0.0040
3134.00,0.0039
3133.00,0.0039
3132.00,0.0039
3131.00,0.0039
3130.00,0.0039
3129.00,0.0039
3128.00,0.0038
3127.00,0.0038
3126.00,0.0038
3125.00,0.0037
3124.00,0.0037
3123.00,0.0037
3122.00,0.0037
3121.00,0.0037
3120.00,0.0037
3119.00,0.0036
3118.00,0.0036
3117.00,0.0036
3116.00,0.0035
3115.00,0.0035
3114.00,0.0035
3113.00,0.0035
3112.00,0.0035
3111.00,0.0035
3110.00,0.0034
3109.00,0.0034
3108.00,0.0034
3107.00,0.0034
3106.00,0.0034
3105.00,0.0033
3104.00,0.0033
3103.00,0.0032
3102.00,0.0032
3101.00,0.0032
3100.00,0.0033
3099.00,0.0033
3098.00,0.0033
3097.00,0.0033
3096.00,0.0033
3095.00,0.0033
3094.00,0.0033
3093.00,0.0033
3092.00,0.0033
3091.00,0.0033
3090.00,0.0033
3089.00,0.0033
3088.00,0.0033
3087.00,0.0033
3086.00,0.0032
3085.00,0.0032
3084.00,0.0032
3083.00,0.0032
3082.00,0.0032
3081.00,0.0032
3080.00,0.0032
3079.00,0.0031
3078.00,0.0031
3077.00,0.0031
3076.00,0.0032
3075.00,0.0032
3074.00,0.0032
3073.00,0.0032
3072.00,0.0032
3071.00,0.0032
3070.00,0.0032
3069.00,0.0033
3068.00,0.0033
3067.00,0.0033
3066.00,0.0034
3065.00,0.0034
3064.00,0.0034
3063.00,0.0034
3062.00,0.0034
3061.00,0.0035
3060.00,0.0035
3059.00,0.0035
3058.00,0.0036
3057.00,0.0036
3056.00,0.0036
3055.00,0.0036
3054.00,0.0036
3053.00,0.0036
3052.00,0.0036
3051.00,0.0036
3050.00,0.0036
3049.00,0.0036
3048.00,0.0036
3047.00,0.0036
3046.00,0.0036
3045.00,0.0036
3044.00,0.0037
3043.00,0.0037
3042.00,0.0038
3041.00,0.0038
3040.00,0.0039
3039.00,0.0039
3038.00,0.0040
3037.00,0.0040
3036.00,0.0040
3035.00,0.0040
3034.00,0.0040
3033.00,0.0040
3032.00,0.0040
3031.00,0.0041
3030.00,0.0041
3029.00,0.0042
3028.00,0.0042
3027.00,0.0043
3026.00,0.0043
3025.00,0.0044
3024.00,0.0045
3023.00,0.0046
3022.00,0.0047
3021.00,0.0048
3020.00,0.0049
3019.00,0.0049
3018.00,0.0050
3017.00,0.0050
3016.00,0.0051
3015.00,0.0052
3014.00,0.0053
3013.00,0.0055
3012.00,0.0056
3011.00,0.0057
3010.00,0.0058
3009.00,0.0059
3008.00,0.0059
3007.00,0.0060
3006.00,0.0061
3005.00,0.0063
3004.00,0.0065
3003.00,0.0066
3002.00,0.0069
3001.00,0.0070
3000.00,0.0073
2999.00,0.0075
2998.00,0.0078
2997.00,0.0081
2996.00,0.0084
2995.00,0.0088
2994.00,0.0092
2993.00,0.0096
2992.00,0.0101
2991.00,0.0106
2990.00,0.0112
2989.00,0.0119
2988.00,0.0126
2987.00,0.0134
2986.00,0.0143
2985.00,0.0153
2984.00,0.0164
2983.00,0.0176
2982.00,0.0190
2981.00,0.0206
2980.00,0.0225
2979.00,0.0246
2978.00,0.0270
2977.00,0.0297
2976.00,0.0328
2975.00,0.0363
2974.00,0.0404
2973.00,0.0450
2972.00,0.0503
2971.00,0.0562
2970.00,0.0628
2969.00,0.0700
2968.00,0.0778
2967.00,0.0860
2966.00,0.0947
2965.00,0.1035
2964.00,0.1120
2963.00,0.1198
2962.00,0.1266
2961.00,0.1322
2960.00,0.1367
2959.00,0.1405
2958.00,0.1441
2957.00,0.1481
2956.00,0.1531
2955.00,0.1593
2954.00,0.1664
2953.00,0.1738
2952.00,0.1805
2951.00,0.1852
2950.00,0.1867
2949.00,0.1844
2948.00,0.1782
2947.00,0.1686
2946.00,0.1568
2945.00,0.1444
2944.00,0.1326
2943.00,0.1225
2942.00,0.1146
2941.00,0.1092
2940.00,0.1062
2939.00,0.1054
2938.00,0.1066
2937.00,0.1096
2936.00,0.1142
2935.00,0.1202
2934.00,0.1277
2933.00,0.1363
2932.00,0.1461
2931.00,0.1568
2930.00,0.1683
2929.00,0.1801
2928.00,0.1921
2927.00,0.2038
2926.00,0.2153
2925.00,0.2264
2924.00,0.2372
2923.00,0.2480
2922.00,0.2586
2921.00,0.2688
2920.00,0.2778
2919.00,0.2846
2918.00,0.2880
2917.00,0.2871
2916.00,0.2820
2915.00,0.2733
2914.00,0.2622
2913.00,0.2502
2912.00,0.2383
2911.00,0.2273
2910.00,0.2176
2909.00,0.2089
2908.00,0.2010
2907.00,0.1937
2906.00,0.1865
2905.00,0.1795
2904.00,0.1724
2903.00,0.1653
2902.00,0.1584
2901.00,0.1517
2900.00,0.1452
2899.00,0.1390
2898.00,0.1333
2897.00,0.1281
2896.00,0.1234
2895.00,0.1192
2894.00,0.1157
2893.00,0.1128
2892.00,0.1104
2891.00,0.1087
2890.00,0.1074
2889.00,0.1067
2888.00,0.1063
2887.00,0.1063
2886.00,0.1066
2885.00,0.1072
2884.00,0.1083
2883.00,0.1099
2882.00,0.1119
2881.00,0.1142
2880.00,0.1165
2879.00,0.1184
2878.00,0.1197
2877.00,0.1201
2876.00,0.1198
2875.00,0.1191
2874.00,0.1186
2873.00,0.1185
2872.00,0.1193
2871.00,0.1207
2870.00,0.1225
2869.00,0.1244
2868.00,0.1255
2867.00,0.1252
2866.00,0.1228
2865.00,0.1182
2864.00,0.1118
2863.00,0.1044
2862.00,0.0971
2861.00,0.0907
2860.00,0.0858
2859.00,0.0824
2858.00,0.0806
2857.00,0.0800
2856.00,0.0805
2855.00,0.0818
2854.00,0.0836
2853.00,0.0858
2852.00,0.0881
2851.00,0.0902
2850.00,0.0916
2849.00,0.0925
2848.00,0.0931
2847.00,0.0938
2846.00,0.0953
2845.00,0.0978
2844.00,0.1015
2843.00,0.1060
2842.00,0.1110
2841.00,0.1157
2840.00,0.1194
2839.00,0.1213
2838.00,0.1206
2837.00,0.1171
2836.00,0.1107
2835.00,0.1019
2834.00,0.0917
2833.00,0.0812
2832.00,0.0711
2831.00,0.0622
2830.00,0.0546
2829.00,0.0484
2828.00,0.0434
2827.00,0.0393
2826.00,0.0360
2825.00,0.0333
2824.00,0.0309
2823.00,0.0290
2822.00,0.0273
2821.00,0.0258
2820.00,0.0245
2819.00,0.0234
2818.00,0.0225
2817.00,0.0217
2816.00,0.0210
2815.00,0.0203
2814.00,0.0197
2813.00,0.0191
2812.00,0.0185
2811.00,0.0179
2810.00,0.0174
2809.00,0.0168
2808.00,0.0162
2807.00,0.0155
2806.00,0.0149
2805.00,0.0143
2804.00,0.0137
2803.00,0.0131
2802.00,0.0126
2801.00,0.0122
2800.00,0.0118
2799.00,0.0114
2798.00,0.0112
2797.00,0.0109
2796.00,0.0107
2795.00,0.0104
2794.00,0.0102
2793.00,0.0099
2792.00,0.0096
2791.00,0.0093
2790.00,0.0090
2789.00,0.0087
2788.00,0.0084
2787.00,0.0082
2786.00,0.0079
2785.00,0.0076
2784.00,0.0074
2783.00,0.0072
2782.00,0.0070
2781.00,0.0068
2780.00,0.0066
2779.00,0.0065
2778.00,0.0063
2777.00,0.0062
2776.00,0.0061
2775.00,0.0060
2774.00,0.0059
2773.00,0.0058
2772.00,0.0057
2771.00,0.0057
2770.00,0.0057
2769.00,0.0056
2768.00,0.0056
2767.00,0.0056
2766.00,0.0055
2765.00,0.0055
2764.00,0.0055
2763.00,0.0054
2762.00,0.0054
2761.00,0.0054
2760.00,0.0053
2759.00,0.0053
2758.00,0.0053
2757.00,0.0053
2756.00,0.0052
2755.00,0.0052
2754.00,0.0052
2753.00,0.0052
2752.00,0.0052
2751.00,0.0051
2750.00,0.0051
2749.00,0.0051
2748.00,0.0051
2747.00,0.0051
2746.00,0.0052
2745.00,0.0052
2744.00,0.0053
2743.00,0.0054
2742.00,0.0055
2741.00,0.0056
2740.00,0.0058
2739.00,0.0059
2738.00,0.0060
2737.00,0.0061
2736.00,0.0062
2735.00,0.0063
2734.00,0.0065
2733.00,0.0066
2732.00,0.0068
2731.00,0.0070
2730.00,0.0072
2729.00,0.0075
2728.00,0.0077
2727.00,0.0080
2726.00,0.0082
2725.00,0.0084
2724.00,0.0086
2723.00,0.0086
2722.00,0.0085
2721.00,0.0084
2720.00,0.0081
2719.00,0.0078
2718.00,0.0075
2717.00,0.0072
2716.00,0.0069
2715.00,0.0066
2714.00,0.0064
2713.00,0.0062
2712.00,0.0060
2711.00,0.0058
2710.00,0.0056
2709.00,0.0055
2708.00,0.0053
2707.00,0.0052
2706.00,0.0051
2705.00,0.0050
2704.00,0.0049
2703.00,0.0048
2702.00,0.0047
2701.00,0.0046
2700.00,0.0045
2699.00,0.0045
2698.00,0.0044
2697.00,0.0044
2696.00,0.0044
2695.00,0.0044
2694.00,0.0044
2693.00,0.0044
2692.00,0.0045
2691.00,0.0045
2690.00,0.0045
2689.00,0.0045
2688.00,0.0045
2687.00,0.0045
2686.00,0.0045
2685.00,0.0044
2684.00,0.0044
2683.00,0.0044
2682.00,0.0044
2681.00,0.0044
2680.00,0.0045
2679.00,0.0045
2678.00,0.0045
2677.00,0.0045
2676.00,0.0045
2675.00,0.0045
2674.00,0.0044
2673.00,0.0044
2672.00,0.0044
2671.00,0.0044
2670.00,0.0044
2669.00,0.0044
2668.00,0.0044
2667.00,0.0044
2666.00,0.0044
2665.00,0.0044
2664.00,0.0045
2663.00,0.0046
2662.00,0.0047
2661.00,0.0047
2660.00,0.0047
2659.00,0.0047
2658.00,0.0047
2657.00,0.0047
2656.00,0.0046
2655.00,0.0046
2654.00,0.0045
2653.00,0.0045
2652.00,0.0044
2651.00,0.0043
2650.00,0.0043
2649.00,0.0043
2648.00,0.0043
2647.00,0.0042
2646.00,0.0042
2645.00,0.0041
2644.00,0.0041
2643.00,0.0040
2642.00,0.0040
2641.00,0.0040
2640.00,0.0039
2639.00,0.0039
2638.00,0.0039
2637.00,0.0039
2636.00,0.0039
2635.00,0.0039
2634.00,0.0039
2633.00,0.0039
2632.00,0.0039
2631.00,0.0038
2630.00,0.0038
2629.00,0.0038
2628.00,0.0039
2627.00,0.0039
2626.00,0.0038
2625.00,0.0038
2624.00,0.0038
2623.00,0.0039
2622.00,0.0039
2621.00,0.0040
2620.00,0.0040
2619.00,0.0040
2618.00,0.0039
2617.00,0.0039
2616.00,0.0039
2615.00,0.0039
2614.00,0.0039
2613.00,0.0039
2612.00,0.0038
2611.00,0.0037
2610.00,0.0036
2609.00,0.0035
2608.00,0.0034
2607.00,0.0034
2606.00,0.0033
2605.00,0.0033
2604.00,0.0032
2603.00,0.0032
2602.00,0.0032
2601.00,0.0032
2600.00,0.0032
2599.00,0.0032
2598.00,0.0031
2597.00,0.0031
2596.00,0.0031
2595.00,0.0031
2594.00,0.0031
2593.00,0.0032
2592.00,0.0033
2591.00,0.0034
2590.00,0.0034
2589.00,0.0035
2588.00,0.0035
2587.00,0.0036
2586.00,0.0037
2585.00,0.0038
2584.00,0.0038
2583.00,0.0038
2582.00,0.0038
2581.00,0.0038
2580.00,0.0038
2579.00,0.0037
2578.00,0.0036
2577.00,0.0035
2576.00,0.0034
2575.00,0.0032
2574.00,0.0031
2573.00,0.0030
2572.00,0.0029
2571.00,0.0028
2570.00,0.0028
2569.00,0.0027
2568.00,0.0026
2567.00,0.0026
2566.00,0.0025
2565.00,0.0024
2564.00,0.0024
2563.00,0.0023
2562.00,0.0023
2561.00,0.0023
2560.00,0.0024
2559.00,0.0024
2558.00,0.0023
2557.00,0.0023
2556.00,0.0022
2555.00,0.0021
2554.00,0.0021
2553.00,0.0020
2552.00,0.0019
2551.00,0.0019
2550.00,0.0019
2549.00,0.0019
2548.00,0.0019
2547.00,0.0019
2546.00,0.0019
2545.00,0.0019
2544.00,0.0020
2543.00,0.0019
2542.00,0.0019
2541.00,0.0018
2540.00,0.0017
2539.00,0.0017
2538.00,0.0017
2537.00,0.0017
2536.00,0.0017
2535.00,0.0017
2534.00,0.0016
2533.00,0.0016
2532.00,0.0015
2531.00,0.0015
2530.00,0.0015
2529.00,0.0016
2528.00,0.0015
2527.00,0.0015
2526.00,0.0015
2525.00,0.0015
2524.00,0.0015
2523.00,0.0015
2522.00,0.0014
2521.00,0.0013
2520.00,0.0012
2519.00,0.0011
2518.00,0.0011
2517.00,0.0011
2516.00,0.0011
2515.00,0.0011
2514.00,0.0011
2513.00,0.0011
2512.00,0.0012
2511.00,0.0012
2510.00,0.0012
2509.00,0.0012
2508.00,0.0011
2507.00,0.0011
2506.00,0.0011
2505.00,0.0011
2504.00,0.0012
2503.00,0.0012
2502.00,0.0012
2501.00,0.0012
2500.00,0.0012
2499.00,0.0011
2498.00,0.0011
2497.00,0.0011
2496.00,0.0010
2495.00,0.0010
2494.00,0.0010
2493.00,0.0010
2492.00,0.0010
2491.00,0.0010
2490.00,0.0010
2489.00,0.0010
2488.00,0.0010
2487.00,0.0010
2486.00,0.0010
2485.00,0.0010
2484.00,0.0010
2483.00,0.0010
2482.00,0.0010
2481.00,0.0011
2480.00,0.0010
2479.00,0.0010
2478.00,0.0010
2477.00,0.0009
2476.00,0.0009
2475.00,0.0009
2474.00,0.0009
2473.00,0.0009
2472.00,0.0009
2471.00,0.0009
2470.00,0.0009
2469.00,0.0009
2468.00,0.0010
2467.00,0.0010
2466.00,0.0010
2465.00,0.0011
2464.00,0.0011
2463.00,0.0011
2462.00,0.0011
2461.00,0.0011
2460.00,0.0012
2459.00,0.0012
2458.00,0.0011
2457.00,0.0011
2456.00,0.0010
2455.00,0.0009
2454.00,0.0010
2453.00,0.0010
2452.00,0.0011
2451.00,0.0011
2450.00,0.0011
2449.00,0.0011
2448.00,0.0011
2447.00,0.0010
2446.00,0.0010
2445.00,0.0010
2444.00,0.0010
2443.00,0.0011
2442.00,0.0011
2441.00,0.0012
2440.00,0.0012
2439.00,0.0011
2438.00,0.0011
2437.00,0.0011
2436.00,0.0011
2435.00,0.0011
2434.00,0.0011
2433.00,0.0011
2432.00,0.0012
2431.00,0.0012
2430.00,0.0013
2429.00,0.0013
2428.00,0.0013
2427.00,0.0013
2426.00,0.0012
2425.00,0.0012
2424.00,0.0011
2423.00,0.0010
2422.00,0.0010
2421.00,0.0010
2420.00,0.0010
2419.00,0.0010
2418.00,0.0010
2417.00,0.0010
2416.00,0.0009
2415.00,0.0009
2414.00,0.0008
2413.00,0.0008
2412.00,0.0009
2411.00,0.0009
2410.00,0.0009
2409.00,0.0009
2408.00,0.0009
2407.00,0.0009
2406.00,0.0009
2405.00,0.0009
2404.00,0.0009
2403.00,0.0009
2402.00,0.0009
2401.00,0.0009
2400.00,0.0009
2399.00,0.0008
2398.00,0.0008
2397.00,0.0008
2396.00,0.0007
2395.00,0.0007
2394.00,0.0007
2393.00,0.0007
2392.00,0.0008
2391.00,0.0008
2390.00,0.0008
2389.00,0.0008
2388.00,0.0008
2387.00,0.0008
2386.00,0.0008
2385.00,0.0007
2384.00,0.0006
2383.00,0.0005
2382.00,0.0004
2381.00,0.0004
2380.00,0.0004
2379.00,0.0004
2378.00,0.0004
2377.00,0.0004
2376.00,0.0004
2375.00,0.0003
2374.00,0.0003
2373.00,0.0002
2372.00,0.0002
2371.00,0.0002
2370.00,0.0001
2369.00,-0.0000
2368.00,-0.0001
2367.00,-0.0001
2366.00,-0.0001
2365.00,0.0000
2364.00,0.0001
2363.00,0.0001
2362.00,0.0002
2361.00,0.0002
2360.00,0.0002
2359.00,0.0002
2358.00,0.0002
2357.00,0.0002
2356.00,0.0003
2355.00,0.0003
2354.00,0.0003
2353.00,0.0003
2352.00,0.0003
2351.00,0.0003
2350.00,0.0003
2349.00,0.0003
2348.00,0.0003
2347.00,0.0003
2346.00,0.0003
2345.00,0.0004
2344.00,0.0004
2343.00,0.0005
2342.00,0.0005
2341.00,0.0006
2340.00,0.0006
2339.00,0.0007
2338.00,0.0007
2337.00,0.0007
2336.00,0.0007
2335.00,0.0007
2334.00,0.0007
2333.00,0.0007
2332.00,0.0006
2331.00,0.0006
2330.00,0.0005
2329.00,0.0005
2328.00,0.0007
2327.00,0.0011
2326.00,0.0015
2325.00,0.0018
2324.00,0.0020
2323.00,0.0020
2322.00,0.0018
2321.00,0.0016
2320.00,0.0015
2319.00,0.0014
2318.00,0.0014
2317.00,0.0013
2316.00,0.0012
2315.00,0.0011
2314.00,0.0009
2313.00,0.0008
2312.00,0.0008
2311.00,0.0007
2310.00,0.0007
2309.00,0.0007
2308.00,0.0008
2307.00,0.0009
2306.00,0.0009
2305.00,0.0009
2304.00,0.0009
2303.00,0.0010
2302.00,0.0010
2301.00,0.0010
2300.00,0.0009
2299.00,0.0009
2298.00,0.0009
2297.00,0.0010
2296.00,0.0011
2295.00,0.0012
2294.00,0.0013
2293.00,0.0014
2292.00,0.0015
2291.00,0.0016
2290.00,0.0016
2289.00,0.0016
2288.00,0.0017
2287.00,0.0017
2286.00,0.0018
2285.00,0.0017
2284.00,0.0016
2283.00,0.0015
2282.00,0.0013
2281.00,0.0013
2280.00,0.0012
2279.00,0.0012
2278.00,0.0011
2277.00,0.0012
2276.00,0.0013
2275.00,0.0014
2274.00,0.0014
2273.00,0.0014
2272.00,0.0014
2271.00,0.0013
2270.00,0.0012
2269.00,0.0012
2268.00,0.0012
2267.00,0.0012
2266.00,0.0012
2265.00,0.0012
2264.00,0.0011
2263.00,0.0011
2262.00,0.0011
2261.00,0.0011
2260.00,0.0012
2259.00,0.0013
2258.00,0.0015
2257.00,0.0015
2256.00,0.0015
2255.00,0.0014
2254.00,0.0013
2253.00,0.0011
2252.00,0.0010
2251.00,0.0009
2250.00,0.0009
2249.00,0.0009
2248.00,0.0010
2247.00,0.0010
2246.00,0.0009
2245.00,0.0010
2244.00,0.0010
2243.00,0.0010
2242.00,0.0010
2241.00,0.0009
2240.00,0.0009
2239.00,0.0009
2238.00,0.0008
2237.00,0.0007
2236.00,0.0006
2235.00,0.0006
2234.00,0.0006
2233.00,0.0008
2232.00,0.0010
2231.00,0.0012
2230.00,0.0013
2229.00,0.0013
2228.00,0.0011
2227.00,0.0008
2226.00,0.0005
2225.00,0.0005
2224.00,0.0006
2223.00,0.0007
2222.00,0.0008
2221.00,0.0008
2220.00,0.0008
2219.00,0.0007
2218.00,0.0006
2217.00,0.0006
2216.00,0.0005
2215.00,0.0004
2214.00,0.0005
2213.00,0.0006
2212.00,0.0008
2211.00,0.0009
2210.00,0.0009
2209.00,0.0009
2208.00,0.0009
2207.00,0.0010
2206.00,0.0010
2205.00,0.0009
2204.00,0.0008
2203.00,0.0006
2202.00,0.0004
2201.00,0.0004
2200.00,0.0005
2199.00,0.0007
2198.00,0.0008
2197.00,0.0008
2196.00,0.0008
2195.00,0.0007
2194.00,0.0007
2193.00,0.0007
2192.00,0.0008
2191.00,0.0010
2190.00,0.0012
2189.00,0.0013
2188.00,0.0013
2187.00,0.0013
2186.00,0.0012
2185.00,0.0012
2184.00,0.0011
2183.00,0.0008
2182.00,0.0005
2181.00,0.0003
2180.00,0.0003
2179.00,0.0004
2178.00,0.0005
2177.00,0.0004
2176.00,0.0003
2175.00,0.0003
2174.00,0.0004
2173.00,0.0006
2172.00,0.0007
2171.00,0.0007
2170.00,0.0007
2169.00,0.0008
2168.00,0.0010
2167.00,0.0012
2166.00,0.0014
2165.00,0.0016
2164.00,0.0018
2163.00,0.0020
2162.00,0.0020
2161.00,0.0015
2160.00,0.0006
2159.00,-0.0006
2158.00,-0.0016
2157.00,-0.0021
2156.00,-0.0022
2155.00,-0.0021
2154.00,-0.0019
2153.00,-0.0017
2152.00,-0.0015
2151.00,-0.0014
2150.00,-0.0014
2149.00,-0.0013
2148.00,-0.0012
2147.00,-0.0011
2146.00,-0.0010
2145.00,-0.0008
2144.00,-0.0006
2143.00,-0.0005
2142.00,-0.0006
2141.00,-0.0009
2140.00,-0.0012
2139.00,-0.0015
2138.00,-0.0015
2137.00,-0.0015
2136.00,-0.0014
2135.00,-0.0016
2134.00,-0.0019
2133.00,-0.0021
2132.00,-0.0021
2131.00,-0.0018
2130.00,-0.0014
2129.00,-0.0009
2128.00,-0.0006
2127.00,-0.0004
2126.00,-0.0003
2125.00,-0.0004
2124.00,-0.0005
2123.00,-0.0007
2122.00,-0.0007
2121.00,-0.0006
2120.00,-0.0004
2119.00,-0.0002
2118.00,-0.0001
2117.00,-0.0001
2116.00,0.0000
2115.00,0.0001
2114.00,0.0002
2113.00,0.0002
2112.00,0.0003
2111.00,0.0005
2110.00,0.0006
2109.00,0.0005
2108.00,0.0004
2107.00,0.0003
2106.00,0.0003
2105.00,0.0003
2104.00,0.0004
2103.00,0.0005
2102.00,0.0005
2101.00,0.0005
2100.00,0.0005
2099.00,0.0005
2098.00,0.0003
2097.00,0.0002
2096.00,-0.0001
2095.00,-0.0002
2094.00,-0.0003
2093.00,-0.0002
2092.00,-0.0000
2091.00,0.0000
2090.00,0.0000
2089.00,0.0000
2088.00,0.0001
2087.00,0.0001
2086.00,0.0001
2085.00,0.0000
2084.00,-0.0000
2083.00,0.0000
2082.00,0.0002
2081.00,0.0003
2080.00,0.0005
2079.00,0.0005
2078.00,0.0004
2077.00,0.0004
2076.00,0.0004
2075.00,0.0004
2074.00,0.0003
2073.00,0.0002
2072.00,0.0001
2071.00,0.0000
2070.00,-0.0000
2069.00,-0.0000
2068.00,0.0000
2067.00,0.0001
2066.00,0.0001
2065.00,0.0001
2064.00,0.0001
2063.00,0.0000
2062.00,0.0000
2061.00,0.0001
2060.00,0.0002
2059.00,0.0002
2058.00,0.0003
2057.00,0.0004
2056.00,0.0004
2055.00,0.0003
2054.00,0.0004
2053.00,0.0006
2052.00,0.0010
2051.00,0.0013
2050.00,0.0014
2049.00,0.0012
2048.00,0.0009
2047.00,0.0007
2046.00,0.0005
2045.00,0.0004
2044.00,0.0003
2043.00,0.0003
2042.00,0.0003
2041.00,0.0002
2040.00,0.0001
2039.00,-0.0001
2038.00,-0.0003
2037.00,-0.0004
2036.00,-0.0005
2035.00,-0.0006
2034.00,-0.0009
2033.00,-0.0010
2032.00,-0.0009
2031.00,-0.0007
2030.00,-0.0005
2029.00,-0.0004
2028.00,-0.0006
2027.00,-0.0008
2026.00,-0.0010
2025.00,-0.0010
2024.00,-0.0010
2023.00,-0.0009
2022.00,-0.0009
2021.00,-0.0009
2020.00,-0.0009
2019.00,-0.0009
2018.00,-0.0008
2017.00,-0.0007
2016.00,-0.0005
2015.00,-0.0005
2014.00,-0.0006
2013.00,-0.0007
2012.00,-0.0007
2011.00,-0.0006
2010.00,-0.0006
2009.00,-0.0007
2008.00,-0.0010
2007.00,-0.0015
2006.00,-0.0020
2005.00,-0.0021
2004.00,-0.0020
2003.00,-0.0017
2002.00,-0.0014
2001.00,-0.0013
2000.00,-0.0011
1999.00,-0.0012
1998.00,-0.0013
1997.00,-0.0015
1996.00,-0.0016
1995.00,-0.0015
1994.00,-0.0013
1993.00,-0.0009
1992.00,-0.0005
1991.00,-0.0003
1990.00,-0.0003
1989.00,-0.0003
1988.00,-0.0003
1987.00,-0.0004
1986.00,-0.0005
1985.00,-0.0003
1984.00,-0.0000
1983.00,0.0004
1982.00,0.0008
1981.00,0.0011
1980.00,0.0009
1979.00,0.0002
1978.00,-0.0007
1977.00,-0.0013
1976.00,-0.0015
1975.00,-0.0014
1974.00,-0.0014
1973.00,-0.0012
1972.00,-0.0010
1971.00,-0.0008
1970.00,-0.0008
1969.00,-0.0011
1968.00,-0.0013
1967.00,-0.0014
1966.00,-0.0014
1965.00,-0.0013
1964.00,-0.0011
1963.00,-0.0008
1962.00,-0.0007
1961.00,-0.0008
1960.00,-0.0010
1959.00,-0.0013
1958.00,-0.0016
1957.00,-0.0017
1956.00,-0.0017
1955.00,-0.0017
1954.00,-0.0016
1953.00,-0.0015
1952.00,-0.0014
1951.00,-0.0014
1950.00,-0.0014
1949.00,-0.0014
1948.00,-0.0014
1947.00,-0.0014
1946.00,-0.0014
1945.00,-0.0014
1944.00,-0.0014
1943.00,-0.0014
1942.00,-0.0013
1941.00,-0.0012
1940.00,-0.0011
1939.00,-0.0010
1938.00,-0.0009
1937.00,-0.0008
1936.00,-0.0009
1935.00,-0.0009
1934.00,-0.0009
1933.00,-0.0008
1932.00,-0.0008
1931.00,-0.0007
1930.00,-0.0008
1929.00,-0.0008
1928.00,-0.0009
1927.00,-0.0009
1926.00,-0.0010
1925.00,-0.0010
1924.00,-0.0009
1923.00,-0.0007
1922.00,-0.0006
1921.00,-0.0005
1920.00,-0.0005
1919.00,-0.0005
1918.00,-0.0004
1917.00,-0.0003
1916.00,-0.0002
1915.00,-0.0002
1914.00,-0.0002
1913.00,-0.0003
1912.00,-0.0004
1911.00,-0.0004
1910.00,-0.0004
1909.00,-0.0004
1908.00,-0.0003
1907.00,-0.0004
1906.00,-0.0004
1905.00,-0.0004
1904.00,-0.0003
1903.00,-0.0002
1902.00,-0.0002
1901.00,-0.0002
1900.00,-0.0003
1899.00,-0.0003
1898.00,-0.0002
1897.00,-0.0001
1896.00,0.0000
1895.00,0.0001
1894.00,0.0000
1893.00,-0.0000
1892.00,-0.0001
1891.00,-0.0001
1890.00,-0.0001
1889.00,-0.0000
1888.00,-0.0000
1887.00,-0.0000
1886.00,-0.0001
1885.00,-0.0002
1884.00,-0.0002
1883.00,-0.0001
1882.00,-0.0001
1881.00,-0.0000
1880.00,-0.0001
1879.00,-0.0001
1878.00,-0.0001
1877.00,-0.0001
1876.00,-0.0001
1875.00,-0.0001
1874.00,-0.0001
1873.00,-0.0000
1872.00,-0.0000
1871.00,-0.0000
1870.00,0.0000
1869.00,0.0001
1868.00,0.0002
1867.00,0.0002
1866.00,0.0002
1865.00,0.0001
1864.00,-0.0000
1863.00,-0.0001
1862.00,-0.0001
1861.00,-0.0001
1860.00,-0.0000
1859.00,0.0001
1858.00,0.0001
1857.00,0.0001
1856.00,0.0001
1855.00,0.0001
1854.00,0.0001
1853.00,0.0002
1852.00,0.0002
1851.00,0.0002
1850.00,0.0002
1849.00,0.0003
1848.00,0.0003
1847.00,0.0003
1846.00,0.0003
1845.00,0.0003
1844.00,0.0003
1843.00,0.0002
1842.00,0.0002
1841.00,0.0001
1840.00,0.0000
1839.00,0.0000
1838.00,0.0000
1837.00,0.0001
1836.00,0.0001
1835.00,0.0002
1834.00,0.0002
1833.00,0.0002
1832.00,0.0002
1831.00,0.0003
1830.00,0.0004
1829.00,0.0004
1828.00,0.0005
1827.00,0.0005
1826.00,0.0005
1825.00,0.0005
1824.00,0.0005
1823.00,0.0004
1822.00,0.0004
1821.00,0.0004
1820.00,0.0003
1819.00,0.0001
1818.00,0.0000
1817.00,0.0000
1816.00,0.0000
1815.00,0.0001
1814.00,0.0001
1813.00,0.0002
1812.00,0.0003
1811.00,0.0003
1810.00,0.0004
1809.00,0.0004
1808.00,0.0005
1807.00,0.0005
1806.00,0.0005
1805.00,0.0006
1804.00,0.0006
1803.00,0.0006
1802.00,0.0007
1801.00,0.0007
1800.00,0.0007
1799.00,0.0007
1798.00,0.0006
1797.00,0.0006
1796.00,0.0007
1795.00,0.0007
1794.00,0.0007
1793.00,0.0007
1792.00,0.0007
1791.00,0.0007
1790.00,0.0007
1789.00,0.0007
1788.00,0.0007
1787.00,0.0007
1786.00,0.0007
1785.00,0.0007
1784.00,0.0007
1783.00,0.0008
1782.00,0.0008
1781.00,0.0008
1780.00,0.0008
1779.00,0.0008
1778.00,0.0007
1777.00,0.0007
1776.00,0.0007
1775.00,0.0007
1774.00,0.0008
1773.00,0.0008
1772.00,0.0008
1771.00,0.0009
1770.00,0.0009
1769.00,0.0010
1768.00,0.0010
1767.00,0.0010
1766.00,0.0010
1765.00,0.0010
1764.00,0.0010
1763.00,0.0010
1762.00,0.0010
1761.00,0.0010
1760.00,0.0011
1759.00,0.0011
1758.00,0.0011
1757.00,0.0012
1756.00,0.0012
1755.00,0.0012
1754.00,0.0012
1753.00,0.0013
1752.00,0.0013
1751.00,0.0014
1750.00,0.0014
1749.00,0.0014
1748.00,0.0014
1747.00,0.0014
1746.00,0.0014
1745.00,0.0015
1744.00,0.0015
1743.00,0.0015
1742.00,0.0016
1741.00,0.0016
1740.00,0.0017
1739.00,0.0018
1738.00,0.0018
1737.00,0.0018
1736.00,0.0018
1735.00,0.0018
1734.00,0.0018
1733.00,0.0018
1732.00,0.0018
1731.00,0.0018
1730.00,0.0018
1729.00,0.0019
1728.00,0.0019
1727.00,0.0020
1726.00,0.0021
1725.00,0.0022
1724.00,0.0023
1723.00,0.0023
1722.00,0.0023
1721.00,0.0024
1720.00,0.0024
1719.00,0.0023
1718.00,0.0022
1717.00,0.0021
1716.00,0.0021
1715.00,0.0021
1714.00,0.0021
1713.00,0.0022
1712.00,0.0022
1711.00,0.0022
1710.00,0.0023
1709.00,0.0023
1708.00,0.0023
1707.00,0.0024
1706.00,0.0024
1705.00,0.0024
1704.00,0.0024
1703.00,0.0024
1702.00,0.0025
1701.00,0.0026
1700.00,0.0026
1699.00,0.0027
1698.00,0.0027
1697.00,0.0027
1696.00,0.0028
1695.00,0.0028
1694.00,0.0029
1693.00,0.0030
1692.00,0.0031
1691.00,0.0032
1690.00,0.0033
1689.00,0.0033
1688.00,0.0034
1687.00,0.0034
1686.00,0.0034
1685.00,0.0035
1684.00,0.0036
1683.00,0.0038
1682.00,0.0039
1681.00,0.0040
1680.00,0.0041
1679.00,0.0042
1678.00,0.0043
1677.00,0.0044
1676.00,0.0045
1675.00,0.0046
1674.00,0.0047
1673.00,0.0048
1672.00,0.0049
1671.00,0.0050
1670.00,0.0051
1669.00,0.0051
1668.00,0.0051
1667.00,0.0052
1666.00,0.0052
1665.00,0.0053
1664.00,0.0053
1663.00,0.0053
1662.00,0.0053
1661.00,0.0054
1660.00,0.0055
1659.00,0.0056
1658.00,0.0057
1657.00,0.0058
1656.00,0.0059
1655.00,0.0060
1654.00,0.0061
1653.00,0.0062
1652.00,0.0064
1651.00,0.0066
1650.00,0.0068
1649.00,0.0070
1648.00,0.0074
1647.00,0.0077
1646.00,0.0079
1645.00,0.0079
1644.00,0.0078
1643.00,0.0077
1642.00,0.0075
1641.00,0.0074
1640.00,0.0074
1639.00,0.0075
1638.00,0.0075
1637.00,0.0076
1636.00,0.0076
1635.00,0.0075
1634.00,0.0073
1633.00,0.0073
1632.00,0.0073
1631.00,0.0073
1630.00,0.0073
1629.00,0.0072
1628.00,0.0071
1627.00,0.0070
1626.00,0.0069
1625.00,0.0068
1624.00,0.0068
1623.00,0.0067
1622.00,0.0066
1621.00,0.0066
1620.00,0.0066
1619.00,0.0065
1618.00,0.0064
1617.00,0.0063
1616.00,0.0063
1615.00,0.0063
1614.00,0.0063
1613.00,0.0063
1612.00,0.0063
1611.00,0.0063
1610.00,0.0063
1609.00,0.0063
1608.00,0.0063
1607.00,0.0063
1606.00,0.0063
1605.00,0.0063
1604.00,0.0062
1603.00,0.0062
1602.00,0.0062
1601.00,0.0062
1600.00,0.0062
1599.00,0.0062
1598.00,0.0062
1597.00,0.0062
1596.00,0.0062
1595.00,0.0061
1594.00,0.0061
1593.00,0.0061
1592.00,0.0061
1591.00,0.0061
1590.00,0.0062
1589.00,0.0062
1588.00,0.0063
1587.00,0.0064
1586.00,0.0064
1585.00,0.0066
1584.00,0.0067
1583.00,0.0069
1582.00,0.0071
1581.00,0.0073
1580.00,0.0075
1579.00,0.0076
1578.00,0.0076
1577.00,0.0077
1576.00,0.0077
1575.00,0.0077
1574.00,0.0077
1573.00,0.0077
1572.00,0.0076
1571.00,0.0075
1570.00,0.0074
1569.00,0.0073
1568.00,0.0073
1567.00,0.0073
1566.00,0.0073
1565.00,0.0073
1564.00,0.0073
1563.00,0.0072
1562.00,0.0072
1561.00,0.0072
1560.00,0.0072
1559.00,0.0073
1558.00,0.0073
1557.00,0.0073
1556.00,0.0074
1555.00,0.0074
1554.00,0.0075
1553.00,0.0077
1552.00,0.0078
1551.00,0.0079
1550.00,0.0080
1549.00,0.0082
1548.00,0.0084
1547.00,0.0085
1546.00,0.0087
1545.00,0.0089
1544.00,0.0090
1543.00,0.0091
1542.00,0.0091
1541.00,0.0091
1540.00,0.0090
1539.00,0.0088
1538.00,0.0085
1537.00,0.0083
1536.00,0.0082
1535.00,0.0079
1534.00,0.0075
1533.00,0.0071
1532.00,0.0069
1531.00,0.0067
1530.00,0.0066
1529.00,0.0066
1528.00,0.0066
1527.00,0.0066
1526.00,0.0065
1525.00,0.0065
1524.00,0.0065
1523.00,0.0064
1522.00,0.0064
1521.00,0.0064
1520.00,0.0065
1519.00,0.0065
1518.00,0.0065
1517.00,0.0066
1516.00,0.0066
1515.00,0.0067
1514.00,0.0067
1513.00,0.0068
1512.00,0.0069
1511.00,0.0069
1510.00,0.0069
1509.00,0.0070
1508.00,0.0072
1507.00,0.0073
1506.00,0.0074
1505.00,0.0076
1504.00,0.0078
1503.00,0.0080
1502.00,0.0082
1501.00,0.0084
1500.00,0.0087
1499.00,0.0089
1498.00,0.0091
1497.00,0.0095
1496.00,0.0099
1495.00,0.0103
1494.00,0.0106
1493.00,0.0110
1492.00,0.0114
1491.00,0.0118
1490.00,0.0122
1489.00,0.0127
1488.00,0.0133
1487.00,0.0138
1486.00,0.0144
1485.00,0.0150
1484.00,0.0157
1483.00,0.0165
1482.00,0.0175
1481.00,0.0186
1480.00,0.0199
1479.00,0.0212
1478.00,0.0228
1477.00,0.0249
1476.00,0.0275
1475.00,0.0306
1474.00,0.0347
1473.00,0.0405
1472.00,0.0472
1471.00,0.0538
1470.00,0.0601
1469.00,0.0667
1468.00,0.0738
1467.00,0.0816
1466.00,0.0904
1465.00,0.0998
1464.00,0.1080
1463.00,0.1137
1462.00,0.1172
1461.00,0.1194
1460.00,0.1209
1459.00,0.1217
1458.00,0.1222
1457.00,0.1224
1456.00,0.1219
1455.00,0.1208
1454.00,0.1194
1453.00,0.1174
1452.00,0.1146
1451.00,0.1107
1450.00,0.1054
1449.00,0.0983
1448.00,0.0895
1447.00,0.0803
1446.00,0.0720
1445.00,0.0649
1444.00,0.0589
1443.00,0.0539
1442.00,0.0502
1441.00,0.0476
1440.00,0.0461
1439.00,0.0455
1438.00,0.0457
1437.00,0.0460
1436.00,0.0452
1435.00,0.0429
1434.00,0.0394
1433.00,0.0352
1432.00,0.0307
1431.00,0.0268
1430.00,0.0237
1429.00,0.0215
1428.00,0.0200
1427.00,0.0190
1426.00,0.0183
1425.00,0.0177
1424.00,0.0171
1423.00,0.0168
1422.00,0.0166
1421.00,0.0163
1420.00,0.0159
1419.00,0.0157
1418.00,0.0155
1417.00,0.0152
1416.00,0.0149
1415.00,0.0146
1414.00,0.0145
1413.00,0.0142
1412.00,0.0139
1411.00,0.0138
1410.00,0.0137
1409.00,0.0136
1408.00,0.0135
1407.00,0.0134
1406.00,0.0134
1405.00,0.0134
1404.00,0.0133
1403.00,0.0133
1402.00,0.0134
1401.00,0.0134
1400.00,0.0134
1399.00,0.0135
1398.00,0.0137
1397.00,0.0138
1396.00,0.0139
1395.00,0.0142
1394.00,0.0147
1393.00,0.0151
1392.00,0.0155
1391.00,0.0162
1390.00,0.0172
1389.00,0.0185
1388.00,0.0205
1387.00,0.0235
1386.00,0.0277
1385.00,0.0331
1384.00,0.0408
1383.00,0.0518
1382.00,0.0666
1381.00,0.0860
1380.00,0.1100
1379.00,0.1375
1378.00,0.1642
1377.00,0.1838
1376.00,0.1905
1375.00,0.1810
1374.00,0.1581
1373.00,0.1304
1372.00,0.1050
1371.00,0.0842
1370.00,0.0677
1369.00,0.0553
1368.00,0.0467
1367.00,0.0414
1366.00,0.0386
1365.00,0.0374
1364.00,0.0376
1363.00,0.0389
1362.00,0.0409
1361.00,0.0432
1360.00,0.0449
1359.00,0.0454
1358.00,0.0444
1357.00,0.0419
1356.00,0.0384
1355.00,0.0344
1354.00,0.0306
1353.00,0.0273
1352.00,0.0246
1351.00,0.0224
1350.00,0.0206
1349.00,0.0192
1348.00,0.0180
1347.00,0.0170
1346.00,0.0161
1345.00,0.0154
1344.00,0.0147
1343.00,0.0142
1342.00,0.0138
1341.00,0.0134
1340.00,0.0131
1339.00,0.0128
1338.00,0.0127
1337.00,0.0126
1336.00,0.0127
1335.00,0.0129
1334.00,0.0131
1333.00,0.0135
1332.00,0.0139
1331.00,0.0142
1330.00,0.0143
1329.00,0.0142
1328.00,0.0138
1327.00,0.0134
1326.00,0.0128
1325.00,0.0122
1324.00,0.0117
1323.00,0.0112
1322.00,0.0108
1321.00,0.0105
1320.00,0.0103
1319.00,0.0101
1318.00,0.0100
1317.00,0.0098
1316.00,0.0097
1315.00,0.0096
1314.00,0.0095
1313.00,0.0095
1312.00,0.0096
1311.00,0.0097
1310.00,0.0101
1309.00,0.0106
1308.00,0.0114
1307.00,0.0123
1306.00,0.0133
1305.00,0.0139
1304.00,0.0141
1303.00,0.0140
1302.00,0.0136
1301.00,0.0132
1300.00,0.0131
1299.00,0.0131
1298.00,0.0133
1297.00,0.0133
1296.00,0.0132
1295.00,0.0130
1294.00,0.0125
1293.00,0.0120
1292.00,0.0115
1291.00,0.0110
1290.00,0.0106
1289.00,0.0102
1288.00,0.0099
1287.00,0.0097
1286.00,0.0095
1285.00,0.0093
1284.00,0.0091
1283.00,0.0090
1282.00,0.0089
1281.00,0.0088
1280.00,0.0087
1279.00,0.0086
1278.00,0.0085
1277.00,0.0084
1276.00,0.0084
1275.00,0.0083
1274.00,0.0083
1273.00,0.0083
1272.00,0.0083
1271.00,0.0084
1270.00,0.0086
1269.00,0.0088
1268.00,0.0091
1267.00,0.0094
1266.00,0.0097
1265.00,0.0100
1264.00,0.0104
1263.00,0.0107
1262.00,0.0111
1261.00,0.0115
1260.00,0.0119
1259.00,0.0124
1258.00,0.0129
1257.00,0.0132
1256.00,0.0134
1255.00,0.0131
1254.00,0.0125
1253.00,0.0117
1252.00,0.0109
1251.00,0.0103
1250.00,0.0098
1249.00,0.0094
1248.00,0.0091
1247.00,0.0089
1246.00,0.0087
1245.00,0.0085
1244.00,0.0084
1243.00,0.0083
1242.00,0.0082
1241.00,0.0081
1240.00,0.0080
1239.00,0.0080
1238.00,0.0079
1237.00,0.0079
1236.00,0.0079
1235.00,0.0078
1234.00,0.0078
1233.00,0.0079
1232.00,0.0079
1231.00,0.0081
1230.00,0.0082
1229.00,0.0083
1228.00,0.0084
1227.00,0.0086
1226.00,0.0088
1225.00,0.0091
1224.00,0.0094
1223.00,0.0099
1222.00,0.0102
1221.00,0.0105
1220.00,0.0107
1219.00,0.0107
1218.00,0.0107
1217.00,0.0105
1216.00,0.0102
1215.00,0.0099
1214.00,0.0096
1213.00,0.0093
1212.00,0.0091
1211.00,0.0089
1210.00,0.0087
1209.00,0.0086
1208.00,0.0084
1207.00,0.0083
1206.00,0.0082
1205.00,0.0081
1204.00,0.0081
1203.00,0.0080
1202.00,0.0079
1201.00,0.0079
1200.00,0.0079
1199.00,0.0079
1198.00,0.0079
1197.00,0.0080
1196.00,0.0080
1195.00,0.0080
1194.00,0.0080
1193.00,0.0080
1192.00,0.0080
1191.00,0.0080
1190.00,0.0080
1189.00,0.0079
1188.00,0.0079
1187.00,0.0079
1186.00,0.0079
1185.00,0.0080
1184.00,0.0081
1183.00,0.0083
1182.00,0.0085
1181.00,0.0087
1180.00,0.0090
1179.00,0.0094
1178.00,0.0099
1177.00,0.0106
1176.00,0.0116
1175.00,0.0130
1174.00,0.0147
1173.00,0.0169
1172.00,0.0195
1171.00,0.0223
1170.00,0.0250
1169.00,0.0271
1168.00,0.0284
1167.00,0.0288
1166.00,0.0282
1165.00,0.0271
1164.00,0.0258
1163.00,0.0244
1162.00,0.0232
1161.00,0.0222
1160.00,0.0214
1159.00,0.0208
1158.00,0.0204
1157.00,0.0201
1156.00,0.0200
1155.00,0.0199
1154.00,0.0199
1153.00,0.0197
1152.00,0.0194
1151.00,0.0188
1150.00,0.0181
1149.00,0.0171
1148.00,0.0162
1147.00,0.0153
1146.00,0.0145
1145.00,0.0138
1144.00,0.0131
1143.00,0.0126
1142.00,0.0121
1141.00,0.0116
1140.00,0.0112
1139.00,0.0108
1138.00,0.0104
1137.00,0.0101
1136.00,0.0098
1135.00,0.0095
1134.00,0.0094
1133.00,0.0093
1132.00,0.0091
1131.00,0.0091
1130.00,0.0092
1129.00,0.0092
1128.00,0.0093
1127.00,0.0094
1126.00,0.0095
1125.00,0.0097
1124.00,0.0098
1123.00,0.0099
1122.00,0.0100
1121.00,0.0101
1120.00,0.0101
1119.00,0.0102
1118.00,0.0102
1117.00,0.0104
1116.00,0.0105
1115.00,0.0107
1114.00,0.0109
1113.00,0.0111
1112.00,0.0114
1111.00,0.0117
1110.00,0.0120
1109.00,0.0124
1108.00,0.0129
1107.00,0.0134
1106.00,0.0140
1105.00,0.0146
1104.00,0.0152
1103.00,0.0155
1102.00,0.0154
1101.00,0.0151
1100.00,0.0145
1099.00,0.0139
1098.00,0.0132
1097.00,0.0126
1096.00,0.0122
1095.00,0.0119
1094.00,0.0118
1093.00,0.0116
1092.00,0.0114
1091.00,0.0112
1090.00,0.0110
1089.00,0.0108
1088.00,0.0106
1087.00,0.0104
1086.00,0.0103
1085.00,0.0103
1084.00,0.0102
1083.00,0.0102
1082.00,0.0102
1081.00,0.0101
1080.00,0.0100
1079.00,0.0099
1078.00,0.0098
1077.00,0.0096
1076.00,0.0095
1075.00,0.0094
1074.00,0.0094
1073.00,0.0093
1072.00,0.0093
1071.00,0.0092
1070.00,0.0092
1069.00,0.0091
1068.00,0.0091
1067.00,0.0090
1066.00,0.0090
1065.00,0.0090
1064.00,0.0089
1063.00,0.0089
1062.00,0.0089
1061.00,0.0090
1060.00,0.0090
1059.00,0.0091
1058.00,0.0091
1057.00,0.0092
1056.00,0.0093
1055.00,0.0094
1054.00,0.0095
1053.00,0.0096
1052.00,0.0097
1051.00,0.0099
1050.00,0.0101
1049.00,0.0102
1048.00,0.0104
1047.00,0.0107
1046.00,0.0111
1045.00,0.0113
1044.00,0.0114
1043.00,0.0113
1042.00,0.0112
1041.00,0.0110
1040.00,0.0108
1039.00,0.0108
1038.00,0.0108
1037.00,0.0109
1036.00,0.0110
1035.00,0.0110
1034.00,0.0109
1033.00,0.0107
1032.00,0.0105
1031.00,0.0104
1030.00,0.0102
1029.00,0.0101
1028.00,0.0100
1027.00,0.0099
1026.00,0.0098
1025.00,0.0098
1024.00,0.0098
1023.00,0.0098
1022.00,0.0098
1021.00,0.0099
1020.00,0.0099
1019.00,0.0101
1018.00,0.0102
1017.00,0.0102
1016.00,0.0103
1015.00,0.0103
1014.00,0.0104
1013.00,0.0107
1012.00,0.0109
1011.00,0.0112
1010.00,0.0114
1009.00,0.0116
1008.00,0.0119
1007.00,0.0124
1006.00,0.0131
1005.00,0.0141
1004.00,0.0156
1003.00,0.0176
1002.00,0.0203
1001.00,0.0235
1000.00,0.0270
999.00,0.0298
998.00,0.0310
997.00,0.0303
996.00,0.0278
995.00,0.0245
994.00,0.0210
993.00,0.0180
992.00,0.0156
991.00,0.0138
990.00,0.0125
989.00,0.0117
988.00,0.0113
987.00,0.0112
986.00,0.0112
985.00,0.0113
984.00,0.0117
983.00,0.0124
982.00,0.0133
981.00,0.0148
980.00,0.0167
979.00,0.0193
978.00,0.0226
977.00,0.0265
976.00,0.0305
975.00,0.0342
974.00,0.0369
973.00,0.0377
972.00,0.0363
971.00,0.0330
970.00,0.0285
969.00,0.0239
968.00,0.0201
967.00,0.0171
966.00,0.0150
965.00,0.0135
964.00,0.0124
963.00,0.0116
962.00,0.0110
961.00,0.0104
960.00,0.0099
959.00,0.0095
958.00,0.0092
957.00,0.0090
956.00,0.0088
955.00,0.0086
954.00,0.0085
953.00,0.0083
952.00,0.0081
951.00,0.0080
950.00,0.0080
949.00,0.0080
948.00,0.0079
947.00,0.0080
946.00,0.0081
945.00,0.0083
944.00,0.0087
943.00,0.0092
942.00,0.0096
941.00,0.0098
940.00,0.0098
939.00,0.0095
938.00,0.0091
937.00,0.0085
936.00,0.0080
935.00,0.0076
934.00,0.0073
933.00,0.0072
932.00,0.0071
931.00,0.0069
930.00,0.0067
929.00,0.0066
928.00,0.0065
927.00,0.0066
926.00,0.0066
925.00,0.0066
924.00,0.0065
923.00,0.0065
922.00,0.0066
921.00,0.0066
920.00,0.0067
919.00,0.0067
918.00,0.0067
917.00,0.0067
916.00,0.0067
915.00,0.0068
914.00,0.0070
913.00,0.0071
912.00,0.0073
911.00,0.0074
910.00,0.0076
909.00,0.0078
908.00,0.0081
907.00,0.0086
906.00,0.0093
905.00,0.0103
904.00,0.0117
903.00,0.0134
902.00,0.0153
901.00,0.0170
900.00,0.0182
899.00,0.0185
898.00,0.0177
897.00,0.0162
896.00,0.0145
895.00,0.0128
894.00,0.0114
893.00,0.0103
892.00,0.0094
891.00,0.0088
890.00,0.0084
889.00,0.0081
888.00,0.0080
887.00,0.0079
886.00,0.0078
885.00,0.0077
884.00,0.0077
883.00,0.0078
882.00,0.0080
881.00,0.0082
880.00,0.0084
879.00,0.0087
878.00,0.0089
877.00,0.0091
876.00,0.0093
875.00,0.0096
874.00,0.0097
873.00,0.0097
872.00,0.0095
871.00,0.0093
870.00,0.0090
869.00,0.0087
868.00,0.0086
867.00,0.0086
866.00,0.0086
865.00,0.0085
864.00,0.0084
863.00,0.0085
862.00,0.0086
861.00,0.0087
860.00,0.0088
859.00,0.0089
858.00,0.0090
857.00,0.0091
856.00,0.0093
855.00,0.0094
854.00,0.0095
853.00,0.0097
852.00,0.0099
851.00,0.0103
850.00,0.0108
849.00,0.0115
848.00,0.0122
847.00,0.0133
846.00,0.0150
845.00,0.0177
844.00,0.0216
843.00,0.0260
842.00,0.0295
841.00,0.0306
840.00,0.0287
839.00,0.0247
838.00,0.0203
837.00,0.0168
836.00,0.0145
835.00,0.0131
834.00,0.0121
833.00,0.0115
832.00,0.0111
831.00,0.0108
830.00,0.0105
829.00,0.0103
828.00,0.0101
827.00,0.0101
826.00,0.0102
825.00,0.0104
824.00,0.0105
823.00,0.0106
822.00,0.0107
821.00,0.0110
820.00,0.0113
819.00,0.0117
818.00,0.0121
817.00,0.0126
816.00,0.0134
815.00,0.0146
814.00,0.0162
813.00,0.0181
812.00,0.0202
811.00,0.0221
810.00,0.0235
809.00,0.0241
808.00,0.0237
807.00,0.0224
806.00,0.0205
805.00,0.0185
804.00,0.0167
803.00,0.0153
802.00,0.0144
801.00,0.0137
800.00,0.0131
799.00,0.0126
798.00,0.0123
797.00,0.0121
796.00,0.0118
795.00,0.0114
794.00,0.0109
793.00,0.0105
792.00,0.0101
791.00,0.0096
790.00,0.0093
789.00,0.0090
788.00,0.0087
787.00,0.0084
786.00,0.0081
785.00,0.0079
784.00,0.0078
783.00,0.0077
782.00,0.0077
781.00,0.0077
780.00,0.0075
779.00,0.0074
778.00,0.0073
777.00,0.0072
776.00,0.0071
775.00,0.0071
774.00,0.0071
773.00,0.0071
772.00,0.0071
771.00,0.0071
770.00,0.0071
769.00,0.0071
768.00,0.0072
767.00,0.0073
766.00,0.0074
765.00,0.0075
764.00,0.0074
763.00,0.0073
762.00,0.0073
761.00,0.0072
760.00,0.0071
759.00,0.0071
758.00,0.0072
757.00,0.0074
756.00,0.0076
755.00,0.0078
754.00,0.0080
753.00,0.0081
752.00,0.0081
751.00,0.0081
750.00,0.0083
749.00,0.0086
748.00,0.0089
747.00,0.0091
746.00,0.0091
745.00,0.0092
744.00,0.0093
743.00,0.0096
742.00,0.0099
741.00,0.0103
740.00,0.0107
739.00,0.0111
738.00,0.0115
737.00,0.0118
736.00,0.0122
735.00,0.0127
734.00,0.0131
733.00,0.0137
732.00,0.0144
731.00,0.0153
730.00,0.0161
729.00,0.0166
728.00,0.0169
727.00,0.0170
726.00,0.0171
725.00,0.0174
724.00,0.0179
723.00,0.0186
722.00,0.0194
721.00,0.0199
720.00,0.0198
719.00,0.0190
718.00,0.0177
717.00,0.0164
716.00,0.0153
715.00,0.0144
714.00,0.0138
713.00,0.0133
712.00,0.0129
711.00,0.0125
710.00,0.0120
709.00,0.0117
708.00,0.0114
707.00,0.0113
706.00,0.0113
705.00,0.0113
704.00,0.0113
703.00,0.0112
702.00,0.0110
701.00,0.0108
700.00,0.0106
699.00,0.0104
698.00,0.0103
697.00,0.0102
696.00,0.0100
695.00,0.0100
694.00,0.0100
693.00,0.0101
692.00,0.0102
691.00,0.0102
690.00,0.0100
689.00,0.0098
688.00,0.0097
687.00,0.0098
686.00,0.0100
685.00,0.0102
684.00,0.0102
683.00,0.0100
682.00,0.0097
681.00,0.0096
680.00,0.0096
679.00,0.0097
678.00,0.0096
677.00,0.0095
676.00,0.0094
675.00,0.0095
674.00,0.0096
673.00,0.0096
672.00,0.0097
671.00,0.0098
670.00,0.0101
669.00,0.0105
668.00,0.0109
667.00,0.0111
666.00,0.0108
665.00,0.0105
664.00,0.0104
663.00,0.0103
662.00,0.0102
661.00,0.0101
660.00,0.0099
659.00,0.0098
658.00,0.0098
657.00,0.0099
656.00,0.0100
655.00,0.0100
654.00,0.0098
653.00,0.0096
652.00,0.0093
651.00,0.0092
650.00,0.0092
649.00,0.0094
648.00,0.0097
647.00,0.0100
646.00,0.0101
645.00,0.0100
644.00,0.0098
643.00,0.0096
642.00,0.0096
641.00,0.0098
640.00,0.0100
639.00,0.0101
638.00,0.0101
637.00,0.0101
636.00,0.0101
635.00,0.0100
634.00,0.0098
633.00,0.0096
632.00,0.0097
631.00,0.0098
630.00,0.0098
629.00,0.0097
628.00,0.0096
627.00,0.0095
626.00,0.0095
625.00,0.0097
624.00,0.0098
623.00,0.0099
622.00,0.0099
621.00,0.0098
620.00,0.0097
619.00,0.0097
618.00,0.0096
617.00,0.0095
616.00,0.0094
615.00,0.0094
614.00,0.0093
613.00,0.0093
612.00,0.0093
611.00,0.0092
610.00,0.0091
609.00,0.0090
608.00,0.0091
607.00,0.0091
606.00,0.0092
605.00,0.0092
604.00,0.0092
603.00,0.0093
602.00,0.0094
601.00,0.0094
600.00,0.0094
599.00,0.0095
598.00,0.0097
597.00,0.0100
596.00,0.0101
595.00,0.0099
594.00,0.0095
593.00,0.0089
592.00,0.0083
591.00,0.0080
590.00,0.0082
589.00,0.0086
588.00,0.0090
587.00,0.0093
586.00,0.0095
585.00,0.0096
584.00,0.0095
583.00,0.0093
582.00,0.0092
581.00,0.0092
580.00,0.0091
579.00,0.0089
578.00,0.0088
577.00,0.0089
576.00,0.0091
575.00,0.0094
574.00,0.0095
573.00,0.0094
572.00,0.0092
571.00,0.0089
570.00,0.0087
569.00,0.0089
568.00,0.0091
567.00,0.0094
566.00,0.0096
565.00,0.0097
564.00,0.0096
563.00,0.0093
562.00,0.0090
561.00,0.0089
560.00,0.0089
559.00,0.0089
558.00,0.0089
557.00,0.0090
556.00,0.0092
555.00,0.0093
554.00,0.0095
553.00,0.0097
552.00,0.0100
551.00,0.0102
550.00,0.0102
549.00,0.0100
548.00,0.0096
547.00,0.0092
546.00,0.0089
545.00,0.0087
544.00,0.0085
543.00,0.0084
542.00,0.0087
541.00,0.0092
540.00,0.0098
539.00,0.0101
538.00,0.0101
537.00,0.0098
536.00,0.0094
535.00,0.0093
534.00,0.0096
533.00,0.0102
532.00,0.0108
531.00,0.0111
530.00,0.0112
529.00,0.0114
528.00,0.0116
527.00,0.0117
526.00,0.0114
525.00,0.0109
524.00,0.0102
523.00,0.0096
522.00,0.0092
521.00,0.0089
520.00,0.0088
519.00,0.0088
518.00,0.0091
517.00,0.0097
516.00,0.0102
515.00,0.0104
514.00,0.0103
513.00,0.0101
512.00,0.0100
511.00,0.0098
510.00,0.0094
509.00,0.0087
508.00,0.0080
507.00,0.0074
506.00,0.0072
505.00,0.0075
504.00,0.0080
503.00,0.0082
502.00,0.0081
501.00,0.0080
500.00,0.0080
499.00,0.0081
498.00,0.0081
497.00,0.0081
496.00,0.0081
495.00,0.0082
494.00,0.0085
493.00,0.0088
492.00,0.0088
491.00,0.0086
490.00,0.0081
489.00,0.0079
488.00,0.0080
487.00,0.0084
486.00,0.0087
485.00,0.0088
484.00,0.0085
483.00,0.0082
482.00,0.0084
481.00,0.0091
480.00,0.0102
479.00,0.0111
478.00,0.0112
477.00,0.0105
476.00,0.0096
475.00,0.0089
474.00,0.0085
473.00,0.0083
472.00,0.0081
471.00,0.0079
470.00,0.0076
469.00,0.0075
468.00,0.0083
467.00,0.0103
466.00,0.0127
465.00,0.0142
464.00,0.0142
463.00,0.0136
462.00,0.0138
461.00,0.0152
460.00,0.0172
459.00,0.0187
458.00,0.0191
457.00,0.0184
456.00,0.0174
455.00,0.0168
454.00,0.0166
453.00,0.0166
452.00,0.0162
451.00,0.0153
450.00,0.0144
