Created as New Dataset,Sample 069 By Administrator Date Thursday, September 04 2025
cm-1,A
4000.00,0.0009
3999.00,0.0009
3998.00,0.0009
3997.00,0.0009
3996.00,0.0009
3995.00,0.0009
3994.00,0.0009
3993.00,0.0010
3992.00,0.0009
3991.00,0.0009
3990.00,0.0009
3989.00,0.0009
3988.00,0.0009
3987.00,0.0008
3986.00,0.0008
3985.00,0.0008
3984.00,0.0008
3983.00,0.0008
3982.00,0.0008
3981.00,0.0008
3980.00,0.0008
3979.00,0.0008
3978.00,0.0008
3977.00,0.0008
3976.00,0.0008
3975.00,0.0008
3974.00,0.0008
3973.00,0.0008
3972.00,0.0007
3971.00,0.0007
3970.00,0.0007
3969.00,0.0007
3968.00,0.0007
3967.00,0.0007
3966.00,0.0007
3965.00,0.0008
3964.00,0.0008
3963.00,0.0008
3962.00,0.0008
3961.00,0.0008
3960.00,0.0007
3959.00,0.0007
3958.00,0.0007
3957.00,0.0007
3956.00,0.0008
3955.00,0.0008
3954.00,0.0008
3953.00,0.0008
3952.00,0.0008
3951.00,0.0007
3950.00,0.0007
3949.00,0.0006
3948.00,0.0006
3947.00,0.0006
3946.00,0.0007
3945.00,0.0007
3944.00,0.0007
3943.00,0.0007
3942.00,0.0007
3941.00,0.0007
3940.00,0.0008
3939.00,0.0008
3938.00,0.0008
3937.00,0.0008
3936.00,0.0007
3935.00,0.0007
3934.00,0.0007
3933.00,0.0007
3932.00,0.0008
3931.00,0.0008
3930.00,0.0008
3929.00,0.0007
3928.00,0.0007
3927.00,0.0007
3926.00,0.0007
3925.00,0.0007
3924.00,0.0007
3923.00,0.0007
3922.00,0.0006
3921.00,0.0006
3920.00,0.0006
3919.00,0.0006
3918.00,0.0007
3917.00,0.0007
3916.00,0.0007
3915.00,0.0007
3914.00,0.0007
3913.00,0.0007
3912.00,0.0007
3911.00,0.0007
3910.00,0.0008
3909.00,0.0008
3908.00,0.0008
3907.00,0.0007
3906.00,0.0006
3905.00,0.0005
3904.00,0.0005
3903.00,0.0005
3902.00,0.0005
3901.00,0.0005
3900.00,0.0005
3899.00,0.0006
3898.00,0.0006
3897.00,0.0006
3896.00,0.0006
3895.00,0.0006
3894.00,0.0007
3893.00,0.0007
3892.00,0.0007
3891.00,0.0007
3890.00,0.0007
3889.00,0.0006
3888.00,0.0006
3887.00,0.0006
3886.00,0.0006
3885.00,0.0006
3884.00,0.0007
3883.00,0.0007
3882.00,0.0007
3881.00,0.0007
3880.00,0.0007
3879.00,0.0007
3878.00,0.0007
3877.00,0.0006
3876.00,0.0006
3875.00,0.0006
3874.00,0.0006
3873.00,0.0006
3872.00,0.0005
3871.00,0.0005
3870.00,0.0005
3869.00,0.0006
3868.00,0.0006
3867.00,0.0006
3866.00,0.0006
3865.00,0.0007
3864.00,0.0007
3863.00,0.0006
3862.00,0.0006
3861.00,0.0006
3860.00,0.0006
3859.00,0.0006
3858.00,0.0006
3857.00,0.0006
3856.00,0.0006
3855.00,0.0006
3854.00,0.0006
3853.00,0.0005
3852.00,0.0005
3851.00,0.0005
3850.00,0.0005
3849.00,0.0005
3848.00,0.0005
3847.00,0.0005
3846.00,0.0005
3845.00,0.0004
3844.00,0.0004
3843.00,0.0004
3842.00,0.0004
3841.00,0.0004
3840.00,0.0005
3839.00,0.0005
3838.00,0.0006
3837.00,0.0006
3836.00,0.0006
3835.00,0.0005
3834.00,0.0005
3833.00,0.0005
3832.00,0.0005
3831.00,0.0005
3830.00,0.0005
3829.00,0.0005
3828.00,0.0005
3827.00,0.0005
3826.00,0.0005
3825.00,0.0005
3824.00,0.0005
3823.00,0.0005
3822.00,0.0005
3821.00,0.0005
3820.00,0.0006
3819.00,0.0006
3818.00,0.0006
3817.00,0.0006
3816.00,0.0006
3815.00,0.0007
3814.00,0.0007
3813.00,0.0007
3812.00,0.0006
3811.00,0.0006
3810.00,0.0006
3809.00,0.0006
3808.00,0.0006
3807.00,0.0006
3806.00,0.0006
3805.00,0.0006
3804.00,0.0006
3803.00,0.0005
3802.00,0.0005
3801.00,0.0005
3800.00,0.0005
3799.00,0.0006
3798.00,0.0006
3797.00,0.0006
3796.00,0.0006
3795.00,0.0006
3794.00,0.0006
3793.00,0.0006
3792.00,0.0006
3791.00,0.0006
3790.00,0.0006
3789.00,0.0006
3788.00,0.0006
3787.00,0.0006
3786.00,0.0006
3785.00,0.0006
3784.00,0.0005
3783.00,0.0005
3782.00,0.0005
3781.00,0.0006
3780.00,0.0006
3779.00,0.0006
3778.00,0.0007
3777.00,0.0007
3776.00,0.0006
3775.00,0.0006
3774.00,0.0006
3773.00,0.0006
3772.00,0.0006
3771.00,0.0007
3770.00,0.0007
3769.00,0.0007
3768.00,0.0006
3767.00,0.0006
3766.00,0.0006
3765.00,0.0006
3764.00,0.0006
3763.00,0.0006
3762.00,0.0006
3761.00,0.0006
3760.00,0.0006
3759.00,0.0006
3758.00,0.0006
3757.00,0.0006
3756.00,0.0006
3755.00,0.0005
3754.00,0.0005
3753.00,0.0005
3752.00,0.0004
3751.00,0.0003
3750.00,0.0003
3749.00,0.0003
3748.00,0.0003
3747.00,0.0003
3746.00,0.0003
3745.00,0.0003
3744.00,0.0004
3743.00,0.0004
3742.00,0.0004
3741.00,0.0004
3740.00,0.0004
3739.00,0.0004
3738.00,0.0004
3737.00,0.0004
3736.00,0.0004
3735.00,0.0004
3734.00,0.0004
3733.00,0.0004
3732.00,0.0004
3731.00,0.0004
3730.00,0.0004
3729.00,0.0004
3728.00,0.0004
3727.00,0.0004
3726.00,0.0004
3725.00,0.0004
3724.00,0.0004
3723.00,0.0004
3722.00,0.0004
3721.00,0.0004
3720.00,0.0004
3719.00,0.0004
3718.00,0.0004
3717.00,0.0004
3716.00,0.0004
3715.00,0.0004
3714.00,0.0004
3713.00,0.0004
3712.00,0.0004
3711.00,0.0005
3710.00,0.0005
3709.00,0.0004
3708.00,0.0004
3707.00,0.0004
3706.00,0.0004
3705.00,0.0004
3704.00,0.0004
3703.00,0.0004
3702.00,0.0005
3701.00,0.0005
3700.00,0.0006
3699.00,0.0006
3698.00,0.0006
3697.00,0.0006
3696.00,0.0006
3695.00,0.0005
3694.00,0.0005
3693.00,0.0004
3692.00,0.0005
3691.00,0.0005
3690.00,0.0005
3689.00,0.0005
3688.00,0.0004
3687.00,0.0004
3686.00,0.0004
3685.00,0.0004
3684.00,0.0004
3683.00,0.0004
3682.00,0.0004
3681.00,0.0004
3680.00,0.0005
3679.00,0.0005
3678.00,0.0005
3677.00,0.0005
3676.00,0.0005
3675.00,0.0004
3674.00,0.0004
3673.00,0.0003
3672.00,0.0002
3671.00,0.0002
3670.00,0.0003
3669.00,0.0004
3668.00,0.0004
3667.00,0.0004
3666.00,0.0003
3665.00,0.0003
3664.00,0.0003
3663.00,0.0003
3662.00,0.0003
3661.00,0.0004
3660.00,0.0004
3659.00,0.0004
3658.00,0.0004
3657.00,0.0004
3656.00,0.0005
3655.00,0.0005
3654.00,0.0005
3653.00,0.0004
3652.00,0.0004
3651.00,0.0003
3650.00,0.0002
3649.00,0.0002
3648.00,0.0002
3647.00,0.0003
3646.00,0.0004
3645.00,0.0004
3644.00,0.0004
3643.00,0.0005
3642.00,0.0005
3641.00,0.0006
3640.00,0.0006
3639.00,0.0007
3638.00,0.0007
3637.00,0.0007
3636.00,0.0007
3635.00,0.0007
3634.00,0.0008
3633.00,0.0008
3632.00,0.0007
3631.00,0.0006
3630.00,0.0006
3629.00,0.0006
3628.00,0.0007
3627.00,0.0008
3626.00,0.0009
3625.00,0.0009
3624.00,0.0009
3623.00,0.0009
3622.00,0.0009
3621.00,0.0009
3620.00,0.0010
3619.00,0.0011
3618.00,0.0011
3617.00,0.0012
3616.00,0.0012
3615.00,0.0012
3614.00,0.0012
3613.00,0.0012
3612.00,0.0012
3611.00,0.0012
3610.00,0.0012
3609.00,0.0012
3608.00,0.0012
3607.00,0.0013
3606.00,0.0013
3605.00,0.0013
3604.00,0.0013
3603.00,0.0014
3602.00,0.0015
3601.00,0.0016
3600.00,0.0016
3599.00,0.0016
3598.00,0.0016
3597.00,0.0015
3596.00,0.0015
3595.00,0.0015
3594.00,0.0015
3593.00,0.0015
3592.00,0.0016
3591.00,0.0016
3590.00,0.0016
3589.00,0.0016
3588.00,0.0016
3587.00,0.0017
3586.00,0.0018
3585.00,0.0018
3584.00,0.0019
3583.00,0.0019
3582.00,0.0020
3581.00,0.0021
3580.00,0.0021
3579.00,0.0022
3578.00,0.0022
3577.00,0.0022
3576.00,0.0022
3575.00,0.0022
3574.00,0.0023
3573.00,0.0023
3572.00,0.0024
3571.00,0.0024
3570.00,0.0024
3569.00,0.0024
3568.00,0.0024
3567.00,0.0025
3566.00,0.0025
3565.00,0.0025
3564.00,0.0025
3563.00,0.0026
3562.00,0.0026
3561.00,0.0027
3560.00,0.0027
3559.00,0.0028
3558.00,0.0028
3557.00,0.0028
3556.00,0.0029
3555.00,0.0029
3554.00,0.0030
3553.00,0.0030
3552.00,0.0030
3551.00,0.0030
3550.00,0.0030
3549.00,0.0031
3548.00,0.0031
3547.00,0.0032
3546.00,0.0033
3545.00,0.0033
3544.00,0.0034
3543.00,0.0035
3542.00,0.0035
3541.00,0.0035
3540.00,0.0036
3539.00,0.0036
3538.00,0.0037
3537.00,0.0037
3536.00,0.0038
3535.00,0.0038
3534.00,0.0039
3533.00,0.0039
3532.00,0.0039
3531.00,0.0039
3530.00,0.0039
3529.00,0.0040
3528.00,0.0040
3527.00,0.0040
3526.00,0.0041
3525.00,0.0041
3524.00,0.0042
3523.00,0.0042
3522.00,0.0043
3521.00,0.0044
3520.00,0.0045
3519.00,0.0045
3518.00,0.0045
3517.00,0.0046
3516.00,0.0046
3515.00,0.0047
3514.00,0.0047
3513.00,0.0047
3512.00,0.0048
3511.00,0.0048
3510.00,0.0048
3509.00,0.0048
3508.00,0.0049
3507.00,0.0049
3506.00,0.0049
3505.00,0.0049
3504.00,0.0050
3503.00,0.0050
3502.00,0.0051
3501.00,0.0052
3500.00,0.0053
3499.00,0.0053
3498.00,0.0054
3497.00,0.0054
3496.00,0.0054
3495.00,0.0054
3494.00,0.0055
3493.00,0.0055
3492.00,0.0056
3491.00,0.0056
3490.00,0.0057
3489.00,0.0057
3488.00,0.0058
3487.00,0.0058
3486.00,0.0058
3485.00,0.0059
3484.00,0.0059
3483.00,0.0059
3482.00,0.0059
3481.00,0.0060
3480.00,0.0061
3479.00,0.0062
3478.00,0.0062
3477.00,0.0063
3476.00,0.0063
3475.00,0.0063
3474.00,0.0064
3473.00,0.0064
3472.00,0.0065
3471.00,0.0065
3470.00,0.0065
3469.00,0.0065
3468.00,0.0065
3467.00,0.0065
3466.00,0.0065
3465.00,0.0066
3464.00,0.0066
3463.00,0.0067
3462.00,0.0067
3461.00,0.0068
3460.00,0.0068
3459.00,0.0069
3458.00,0.0069
3457.00,0.0070
3456.00,0.0071
3455.00,0.0071
3454.00,0.0071
3453.00,0.0071
3452.00,0.0072
3451.00,0.0072
3450.00,0.0073
3449.00,0.0073
3448.00,0.0073
3447.00,0.0074
3446.00,0.0074
3445.00,0.0074
3444.00,0.0075
3443.00,0.0075
3442.00,0.0075
3441.00,0.0075
3440.00,0.0075
3439.00,0.0076
3438.00,0.0076
3437.00,0.0076
3436.00,0.0076
3435.00,0.0077
3434.00,0.0077
3433.00,0.0078
3432.00,0.0078
3431.00,0.0078
3430.00,0.0079
3429.00,0.0079
3428.00,0.0079
3427.00,0.0079
3426.00,0.0079
3425.00,0.0080
3424.00,0.0080
3423.00,0.0080
3422.00,0.0081
3421.00,0.0081
3420.00,0.0082
3419.00,0.0082
3418.00,0.0083
3417.00,0.0083
3416.00,0.0083
3415.00,0.0083
3414.00,0.0083
3413.00,0.0083
3412.00,0.0083
3411.00,0.0083
3410.00,0.0083
3409.00,0.0083
3408.00,0.0083
3407.00,0.0084
3406.00,0.0084
3405.00,0.0085
3404.00,0.0085
3403.00,0.0086
3402.00,0.0086
3401.00,0.0087
3400.00,0.0087
3399.00,0.0087
3398.00,0.0087
3397.00,0.0087
3396.00,0.0087
3395.00,0.0087
3394.00,0.0087
3393.00,0.0088
3392.00,0.0088
3391.00,0.0088
3390.00,0.0089
3389.00,0.0089
3388.00,0.0089
3387.00,0.0089
3386.00,0.0089
3385.00,0.0088
3384.00,0.0088
3383.00,0.0088
3382.00,0.0088
3381.00,0.0088
3380.00,0.0088
3379.00,0.0089
3378.00,0.0089
3377.00,0.0089
3376.00,0.0089
3375.00,0.0089
3374.00,0.0088
3373.00,0.0088
3372.00,0.0088
3371.00,0.0089
3370.00,0.0089
3369.00,0.0090
3368.00,0.0090
3367.00,0.0090
3366.00,0.0090
3365.00,0.0090
3364.00,0.0090
3363.00,0.0090
3362.00,0.0090
3361.00,0.0090
3360.00,0.0090
3359.00,0.0090
3358.00,0.0090
3357.00,0.0090
3356.00,0.0090
3355.00,0.0090
3354.00,0.0090
3353.00,0.0090
3352.00,0.0091
3351.00,0.0091
3350.00,0.0091
3349.00,0.0091
3348.00,0.0091
3347.00,0.0091
3346.00,0.0090
3345.00,0.0090
3344.00,0.0090
3343.00,0.0090
3342.00,0.0090
3341.00,0.0090
3340.00,0.0090
3339.00,0.0089
3338.00,0.0089
3337.00,0.0089
3336.00,0.0089
3335.00,0.0089
3334.00,0.0089
3333.00,0.0089
3332.00,0.0090
3331.00,0.0089
3330.00,0.0089
3329.00,0.0089
3328.00,0.0089
3327.00,0.0089
3326.00,0.0088
3325.00,0.0088
3324.00,0.0087
3323.00,0.0087
3322.00,0.0087
3321.00,0.0087
3320.00,0.0087
3319.00,0.0088
3318.00,0.0088
3317.00,0.0088
3316.00,0.0087
3315.00,0.0087
3314.00,0.0087
3313.00,0.0087
3312.00,0.0087
3311.00,0.0087
3310.00,0.0087
3309.00,0.0087
3308.00,0.0087
3307.00,0.0087
3306.00,0.0087
3305.00,0.0088
3304.00,0.0088
3303.00,0.0088
3302.00,0.0088
3301.00,0.0088
3300.00,0.0088
3299.00,0.0088
3298.00,0.0088
3297.00,0.0087
3296.00,0.0087
3295.00,0.0086
3294.00,0.0085
3293.00,0.0085
3292.00,0.0084
3291.00,0.0084
3290.00,0.0084
3289.00,0.0083
3288.00,0.0083
3287.00,0.0082
3286.00,0.0082
3285.00,0.0082
3284.00,0.0082
3283.00,0.0082
3282.00,0.0082
3281.00,0.0082
3280.00,0.0082
3279.00,0.0081
3278.00,0.0081
3277.00,0.0080
3276.00,0.0080
3275.00,0.0079
3274.00,0.0079
3273.00,0.0078
3272.00,0.0078
3271.00,0.0077
3270.00,0.0077
3269.00,0.0077
3268.00,0.0077
3267.00,0.0077
3266.00,0.0077
3265.00,0.0077
3264.00,0.0076
3263.00,0.0075
3262.00,0.0075
3261.00,0.0075
3260.00,0.0075
3259.00,0.0075
3258.00,0.0074
3257.00,0.0074
3256.00,0.0074
3255.00,0.0073
3254.00,0.0073
3253.00,0.0072
3252.00,0.0072
3251.00,0.0072
3250.00,0.0072
3249.00,0.0072
3248.00,0.0072
3247.00,0.0072
3246.00,0.0071
3245.00,0.0070
3244.00,0.0069
3243.00,0.0069
3242.00,0.0069
3241.00,0.0069
3240.00,0.0069
3239.00,0.0069
3238.00,0.0069
3237.00,0.0069
3236.00,0.0068
3235.00,0.0068
3234.00,0.0068
3233.00,0.0068
3232.00,0.0068
3231.00,0.0068
3230.00,0.0068
3229.00,0.0068
3228.00,0.0068
3227.00,0.0068
3226.00,0.0068
3225.00,0.0068
3224.00,0.0068
3223.00,0.0069
3222.00,0.0069
3221.00,0.0069
3220.00,0.0068
3219.00,0.0068
3218.00,0.0068
3217.00,0.0068
3216.00,0.0068
3215.00,0.0068
3214.00,0.0068
3213.00,0.0068
3212.00,0.0068
3211.00,0.0068
3210.00,0.0068
3209.00,0.0068
3208.00,0.0068
3207.00,0.0068
3206.00,0.0068
3205.00,0.0069
3204.00,0.0069
3203.00,0.0069
3202.00,0.0069
3201.00,0.0069
3200.00,0.0068
3199.00,0.0068
3198.00,0.0068
3197.00,0.0068
3196.00,0.0068
3195.00,0.0068
3194.00,0.0068
3193.00,0.0067
3192.00,0.0067
3191.00,0.0067
3190.00,0.0066
3189.00,0.0066
3188.00,0.0066
3187.00,0.0066
3186.00,0.0066
3185.00,0.0066
3184.00,0.0066
3183.00,0.0065
3182.00,0.0065
3181.00,0.0064
3180.00,0.0064
3179.00,0.0064
3178.00,0.0063
3177.00,0.0063
3176.00,0.0062
3175.00,0.0062
3174.00,0.0062
3173.00,0.0062
3172.00,0.0062
3171.00,0.0061
3170.00,0.0061
3169.00,0.0061
3168.00,0.0061
3167.00,0.0061
3166.00,0.0060
3165.00,0.0060
3164.00,0.0060
3163.00,0.0060
3162.00,0.0060
3161.00,0.0060
3160.00,0.0060
3159.00,0.0060
3158.00,0.0060
3157.00,0.0059
3156.00,0.0059
3155.00,0.0058
3154.00,0.0058
3153.00,0.0058
3152.00,0.0058
3151.00,0.0058
3150.00,0.0057
3149.00,0.0057
3148.00,0.0057
3147.00,0.0057
3146.00,0.0057
3145.00,0.0057
3144.00,0.0056
3143.00,0.0056
3142.00,0.0055
3141.00,0.0055
3140.00,0.0055
3139.00,0.0055
3138.00,0.0055
3137.00,0.0055
3136.00,0.0054
3135.00,0.0054
3134.00,0.0054
3133.00,0.0053
3132.00,0.0053
3131.00,0.0052
3130.00,0.0052
3129.00,0.0052
3128.00,0.0052
3127.00,0.0052
3126.00,0.0051
3125.00,0.0051
3124.00,0.0051
3123.00,0.0050
3122.00,0.0050
3121.00,0.0049
3120.00,0.0049
3119.00,0.0048
3118.00,0.0048
3117.00,0.0048
3116.00,0.0048
3115.00,0.0048
3114.00,0.0047
3113.00,0.0047
3112.00,0.0047
3111.00,0.0047
3110.00,0.0047
3109.00,0.0046
3108.00,0.0046
3107.00,0.0046
3106.00,0.0046
3105.00,0.0046
3104.00,0.0046
3103.00,0.0046
3102.00,0.0046
3101.00,0.0046
3100.00,0.0045
3099.00,0.0045
3098.00,0.0045
3097.00,0.0045
3096.00,0.0044
3095.00,0.0044
3094.00,0.0044
3093.00,0.0044
3092.00,0.0044
3091.00,0.0044
3090.00,0.0044
3089.00,0.0044
3088.00,0.0044
3087.00,0.0043
3086.00,0.0043
3085.00,0.0043
3084.00,0.0043
3083.00,0.0042
3082.00,0.0042
3081.00,0.0042
3080.00,0.0042
3079.00,0.0042
3078.00,0.0042
3077.00,0.0042
3076.00,0.0042
3075.00,0.0043
3074.00,0.0043
3073.00,0.0043
3072.00,0.0043
3071.00,0.0043
3070.00,0.0043
3069.00,0.0043
3068.00,0.0044
3067.00,0.0044
3066.00,0.0045
3065.00,0.0045
3064.00,0.0045
3063.00,0.0045
3062.00,0.0045
3061.00,0.0045
3060.00,0.0044
3059.00,0.0044
3058.00,0.0044
3057.00,0.0044
3056.00,0.0045
3055.00,0.0045
3054.00,0.0046
3053.00,0.0046
3052.00,0.0046
3051.00,0.0046
3050.00,0.0046
3049.00,0.0045
3048.00,0.0046
3047.00,0.0046
3046.00,0.0046
3045.00,0.0046
3044.00,0.0047
3043.00,0.0047
3042.00,0.0047
3041.00,0.0048
3040.00,0.0048
3039.00,0.0049
3038.00,0.0049
3037.00,0.0049
3036.00,0.0050
3035.00,0.0050
3034.00,0.0051
3033.00,0.0051
3032.00,0.0052
3031.00,0.0052
3030.00,0.0053
3029.00,0.0053
3028.00,0.0054
3027.00,0.0054
3026.00,0.0054
3025.00,0.0055
3024.00,0.0056
3023.00,0.0056
3022.00,0.0057
3021.00,0.0058
3020.00,0.0058
3019.00,0.0059
3018.00,0.0059
3017.00,0.0059
3016.00,0.0060
3015.00,0.0060
3014.00,0.0060
3013.00,0.0061
3012.00,0.0062
3011.00,0.0062
3010.00,0.0063
3009.00,0.0064
3008.00,0.0064
3007.00,0.0064
3006.00,0.0064
3005.00,0.0065
3004.00,0.0065
3003.00,0.0066
3002.00,0.0068
3001.00,0.0069
3000.00,0.0071
2999.00,0.0073
2998.00,0.0075
2997.00,0.0078
2996.00,0.0081
2995.00,0.0084
2994.00,0.0087
2993.00,0.0091
2992.00,0.0095
2991.00,0.0100
2990.00,0.0105
2989.00,0.0111
2988.00,0.0117
2987.00,0.0124
2986.00,0.0131
2985.00,0.0138
2984.00,0.0146
2983.00,0.0155
2982.00,0.0167
2981.00,0.0182
2980.00,0.0200
2979.00,0.0221
2978.00,0.0245
2977.00,0.0271
2976.00,0.0301
2975.00,0.0334
2974.00,0.0371
2973.00,0.0412
2972.00,0.0459
2971.00,0.0512
2970.00,0.0570
2969.00,0.0634
2968.00,0.0702
2967.00,0.0774
2966.00,0.0847
2965.00,0.0920
2964.00,0.0991
2963.00,0.1055
2962.00,0.1110
2961.00,0.1157
2960.00,0.1196
2959.00,0.1234
2958.00,0.1274
2957.00,0.1323
2956.00,0.1385
2955.00,0.1459
2954.00,0.1544
2953.00,0.1633
2952.00,0.1713
2951.00,0.1775
2950.00,0.1805
2949.00,0.1796
2948.00,0.1745
2947.00,0.1659
2946.00,0.1549
2945.00,0.1430
2944.00,0.1316
2943.00,0.1218
2942.00,0.1142
2941.00,0.1091
2940.00,0.1062
2939.00,0.1056
2938.00,0.1069
2937.00,0.1100
2936.00,0.1146
2935.00,0.1207
2934.00,0.1281
2933.00,0.1367
2932.00,0.1465
2931.00,0.1572
2930.00,0.1686
2929.00,0.1805
2928.00,0.1926
2927.00,0.2045
2926.00,0.2162
2925.00,0.2276
2924.00,0.2388
2923.00,0.2499
2922.00,0.2611
2921.00,0.2719
2920.00,0.2817
2919.00,0.2893
2918.00,0.2934
2917.00,0.2932
2916.00,0.2883
2915.00,0.2794
2914.00,0.2678
2913.00,0.2550
2912.00,0.2422
2911.00,0.2303
2910.00,0.2195
2909.00,0.2098
2908.00,0.2009
2907.00,0.1927
2906.00,0.1849
2905.00,0.1774
2904.00,0.1700
2903.00,0.1629
2902.00,0.1560
2901.00,0.1494
2900.00,0.1431
2899.00,0.1372
2898.00,0.1316
2897.00,0.1266
2896.00,0.1221
2895.00,0.1181
2894.00,0.1147
2893.00,0.1119
2892.00,0.1097
2891.00,0.1081
2890.00,0.1070
2889.00,0.1063
2888.00,0.1060
2887.00,0.1061
2886.00,0.1065
2885.00,0.1072
2884.00,0.1083
2883.00,0.1100
2882.00,0.1122
2881.00,0.1147
2880.00,0.1173
2879.00,0.1196
2878.00,0.1212
2877.00,0.1218
2876.00,0.1217
2875.00,0.1211
2874.00,0.1205
2873.00,0.1205
2872.00,0.1212
2871.00,0.1227
2870.00,0.1247
2869.00,0.1268
2868.00,0.1282
2867.00,0.1283
2866.00,0.1264
2865.00,0.1222
2864.00,0.1161
2863.00,0.1090
2862.00,0.1017
2861.00,0.0953
2860.00,0.0904
2859.00,0.0869
2858.00,0.0850
2857.00,0.0844
2856.00,0.0848
2855.00,0.0858
2854.00,0.0874
2853.00,0.0892
2852.00,0.0908
2851.00,0.0922
2850.00,0.0929
2849.00,0.0931
2848.00,0.0931
2847.00,0.0933
2846.00,0.0944
2845.00,0.0965
2844.00,0.0997
2843.00,0.1038
2842.00,0.1083
2841.00,0.1126
2840.00,0.1160
2839.00,0.1177
2838.00,0.1170
2837.00,0.1136
2836.00,0.1076
2835.00,0.0992
2834.00,0.0895
2833.00,0.0794
2832.00,0.0697
2831.00,0.0611
2830.00,0.0538
2829.00,0.0478
2828.00,0.0430
2827.00,0.0390
2826.00,0.0357
2825.00,0.0330
2824.00,0.0308
2823.00,0.0289
2822.00,0.0273
2821.00,0.0259
2820.00,0.0247
2819.00,0.0237
2818.00,0.0228
2817.00,0.0220
2816.00,0.0212
2815.00,0.0206
2814.00,0.0200
2813.00,0.0194
2812.00,0.0189
2811.00,0.0183
2810.00,0.0178
2809.00,0.0172
2808.00,0.0166
2807.00,0.0159
2806.00,0.0152
2805.00,0.0146
2804.00,0.0140
2803.00,0.0134
2802.00,0.0129
2801.00,0.0124
2800.00,0.0120
2799.00,0.0117
2798.00,0.0114
2797.00,0.0112
2796.00,0.0109
2795.00,0.0106
2794.00,0.0104
2793.00,0.0101
2792.00,0.0098
2791.00,0.0095
2790.00,0.0092
2789.00,0.0089
2788.00,0.0086
2787.00,0.0084
2786.00,0.0081
2785.00,0.0079
2784.00,0.0077
2783.00,0.0075
2782.00,0.0073
2781.00,0.0072
2780.00,0.0070
2779.00,0.0069
2778.00,0.0067
2777.00,0.0066
2776.00,0.0064
2775.00,0.0063
2774.00,0.0062
2773.00,0.0061
2772.00,0.0060
2771.00,0.0060
2770.00,0.0060
2769.00,0.0060
2768.00,0.0060
2767.00,0.0060
2766.00,0.0059
2765.00,0.0058
2764.00,0.0058
2763.00,0.0057
2762.00,0.0057
2761.00,0.0057
2760.00,0.0056
2759.00,0.0056
2758.00,0.0056
2757.00,0.0056
2756.00,0.0056
2755.00,0.0056
2754.00,0.0056
2753.00,0.0055
2752.00,0.0055
2751.00,0.0055
2750.00,0.0055
2749.00,0.0055
2748.00,0.0055
2747.00,0.0055
2746.00,0.0056
2745.00,0.0056
2744.00,0.0056
2743.00,0.0057
2742.00,0.0057
2741.00,0.0058
2740.00,0.0060
2739.00,0.0061
2738.00,0.0062
2737.00,0.0064
2736.00,0.0065
2735.00,0.0067
2734.00,0.0068
2733.00,0.0070
2732.00,0.0071
2731.00,0.0073
2730.00,0.0074
2729.00,0.0076
2728.00,0.0079
2727.00,0.0081
2726.00,0.0084
2725.00,0.0086
2724.00,0.0088
2723.00,0.0089
2722.00,0.0088
2721.00,0.0087
2720.00,0.0084
2719.00,0.0081
2718.00,0.0078
2717.00,0.0075
2716.00,0.0072
2715.00,0.0069
2714.00,0.0066
2713.00,0.0064
2712.00,0.0062
2711.00,0.0060
2710.00,0.0058
2709.00,0.0057
2708.00,0.0055
2707.00,0.0054
2706.00,0.0053
2705.00,0.0052
2704.00,0.0051
2703.00,0.0050
2702.00,0.0050
2701.00,0.0049
2700.00,0.0048
2699.00,0.0047
2698.00,0.0047
2697.00,0.0047
2696.00,0.0047
2695.00,0.0047
2694.00,0.0047
2693.00,0.0047
2692.00,0.0047
2691.00,0.0047
2690.00,0.0046
2689.00,0.0046
2688.00,0.0046
2687.00,0.0046
2686.00,0.0046
2685.00,0.0046
2684.00,0.0046
2683.00,0.0046
2682.00,0.0046
2681.00,0.0047
2680.00,0.0047
2679.00,0.0047
2678.00,0.0047
2677.00,0.0047
2676.00,0.0047
2675.00,0.0047
2674.00,0.0047
2673.00,0.0047
2672.00,0.0046
2671.00,0.0046
2670.00,0.0046
2669.00,0.0046
2668.00,0.0046
2667.00,0.0046
2666.00,0.0046
2665.00,0.0047
2664.00,0.0047
2663.00,0.0048
2662.00,0.0048
2661.00,0.0049
2660.00,0.0049
2659.00,0.0049
2658.00,0.0049
2657.00,0.0048
2656.00,0.0048
2655.00,0.0048
2654.00,0.0047
2653.00,0.0047
2652.00,0.0047
2651.00,0.0046
2650.00,0.0046
2649.00,0.0045
2648.00,0.0045
2647.00,0.0044
2646.00,0.0044
2645.00,0.0043
2644.00,0.0043
2643.00,0.0042
2642.00,0.0041
2641.00,0.0041
2640.00,0.0040
2639.00,0.0040
2638.00,0.0040
2637.00,0.0039
2636.00,0.0039
2635.00,0.0039
2634.00,0.0038
2633.00,0.0039
2632.00,0.0039
2631.00,0.0039
2630.00,0.0039
2629.00,0.0039
2628.00,0.0040
2627.00,0.0040
2626.00,0.0040
2625.00,0.0041
2624.00,0.0041
2623.00,0.0041
2622.00,0.0041
2621.00,0.0041
2620.00,0.0041
2619.00,0.0041
2618.00,0.0041
2617.00,0.0041
2616.00,0.0042
2615.00,0.0042
2614.00,0.0041
2613.00,0.0041
2612.00,0.0040
2611.00,0.0039
2610.00,0.0039
2609.00,0.0038
2608.00,0.0037
2607.00,0.0036
2606.00,0.0035
2605.00,0.0034
2604.00,0.0034
2603.00,0.0033
2602.00,0.0033
2601.00,0.0034
2600.00,0.0034
2599.00,0.0034
2598.00,0.0034
2597.00,0.0033
2596.00,0.0033
2595.00,0.0032
2594.00,0.0033
2593.00,0.0033
2592.00,0.0034
2591.00,0.0034
2590.00,0.0035
2589.00,0.0037
2588.00,0.0038
2587.00,0.0038
2586.00,0.0039
2585.00,0.0039
2584.00,0.0040
2583.00,0.0040
2582.00,0.0040
2581.00,0.0040
2580.00,0.0039
2579.00,0.0038
2578.00,0.0037
2577.00,0.0037
2576.00,0.0035
2575.00,0.0034
2574.00,0.0032
2573.00,0.0031
2572.00,0.0030
2571.00,0.0030
2570.00,0.0029
2569.00,0.0028
2568.00,0.0028
2567.00,0.0027
2566.00,0.0027
2565.00,0.0027
2564.00,0.0026
2563.00,0.0025
2562.00,0.0025
2561.00,0.0025
2560.00,0.0024
2559.00,0.0024
2558.00,0.0023
2557.00,0.0023
2556.00,0.0022
2555.00,0.0022
2554.00,0.0022
2553.00,0.0021
2552.00,0.0021
2551.00,0.0021
2550.00,0.0021
2549.00,0.0021
2548.00,0.0020
2547.00,0.0020
2546.00,0.0020
2545.00,0.0020
2544.00,0.0020
2543.00,0.0020
2542.00,0.0020
2541.00,0.0020
2540.00,0.0020
2539.00,0.0020
2538.00,0.0019
2537.00,0.0019
2536.00,0.0019
2535.00,0.0018
2534.00,0.0018
2533.00,0.0017
2532.00,0.0017
2531.00,0.0017
2530.00,0.0016
2529.00,0.0015
2528.00,0.0014
2527.00,0.0014
2526.00,0.0013
2525.00,0.0013
2524.00,0.0014
2523.00,0.0015
2522.00,0.0015
2521.00,0.0015
2520.00,0.0015
2519.00,0.0014
2518.00,0.0014
2517.00,0.0013
2516.00,0.0013
2515.00,0.0013
2514.00,0.0013
2513.00,0.0013
2512.00,0.0012
2511.00,0.0012
2510.00,0.0012
2509.00,0.0012
2508.00,0.0012
2507.00,0.0012
2506.00,0.0011
2505.00,0.0011
2504.00,0.0011
2503.00,0.0012
2502.00,0.0012
2501.00,0.0012
2500.00,0.0012
2499.00,0.0012
2498.00,0.0012
2497.00,0.0012
2496.00,0.0011
2495.00,0.0012
2494.00,0.0012
2493.00,0.0012
2492.00,0.0012
2491.00,0.0012
2490.00,0.0012
2489.00,0.0012
2488.00,0.0012
2487.00,0.0012
2486.00,0.0012
2485.00,0.0012
2484.00,0.0012
2483.00,0.0011
2482.00,0.0010
2481.00,0.0010
2480.00,0.0010
2479.00,0.0011
2478.00,0.0011
2477.00,0.0011
2476.00,0.0010
2475.00,0.0010
2474.00,0.0009
2473.00,0.0010
2472.00,0.0010
2471.00,0.0010
2470.00,0.0010
2469.00,0.0010
2468.00,0.0009
2467.00,0.0009
2466.00,0.0008
2465.00,0.0009
2464.00,0.0009
2463.00,0.0010
2462.00,0.0010
2461.00,0.0010
2460.00,0.0011
2459.00,0.0011
2458.00,0.0012
2457.00,0.0012
2456.00,0.0012
2455.00,0.0011
2454.00,0.0011
2453.00,0.0011
2452.00,0.0011
2451.00,0.0011
2450.00,0.0012
2449.00,0.0012
2448.00,0.0011
2447.00,0.0011
2446.00,0.0010
2445.00,0.0010
2444.00,0.0011
2443.00,0.0011
2442.00,0.0011
2441.00,0.0011
2440.00,0.0011
2439.00,0.0011
2438.00,0.0011
2437.00,0.0011
2436.00,0.0012
2435.00,0.0012
2434.00,0.0012
2433.00,0.0013
2432.00,0.0013
2431.00,0.0012
2430.00,0.0012
2429.00,0.0012
2428.00,0.0011
2427.00,0.0011
2426.00,0.0011
2425.00,0.0011
2424.00,0.0012
2423.00,0.0012
2422.00,0.0011
2421.00,0.0011
2420.00,0.0010
2419.00,0.0010
2418.00,0.0010
2417.00,0.0010
2416.00,0.0011
2415.00,0.0011
2414.00,0.0011
2413.00,0.0011
2412.00,0.0011
2411.00,0.0010
2410.00,0.0010
2409.00,0.0009
2408.00,0.0008
2407.00,0.0008
2406.00,0.0008
2405.00,0.0007
2404.00,0.0007
2403.00,0.0006
2402.00,0.0006
2401.00,0.0007
2400.00,0.0007
2399.00,0.0008
2398.00,0.0008
2397.00,0.0008
2396.00,0.0008
2395.00,0.0008
2394.00,0.0008
2393.00,0.0008
2392.00,0.0008
2391.00,0.0008
2390.00,0.0008
2389.00,0.0007
2388.00,0.0007
2387.00,0.0006
2386.00,0.0006
2385.00,0.0005
2384.00,0.0004
2383.00,0.0004
2382.00,0.0003
2381.00,0.0002
2380.00,0.0002
2379.00,0.0002
2378.00,0.0002
2377.00,0.0002
2376.00,0.0002
2375.00,0.0003
2374.00,0.0004
2373.00,0.0004
2372.00,0.0004
2371.00,0.0003
2370.00,0.0002
2369.00,0.0002
2368.00,0.0001
2367.00,0.0002
2366.00,0.0002
2365.00,0.0003
2364.00,0.0003
2363.00,0.0004
2362.00,0.0004
2361.00,0.0004
2360.00,0.0004
2359.00,0.0004
2358.00,0.0004
2357.00,0.0004
2356.00,0.0004
2355.00,0.0004
2354.00,0.0004
2353.00,0.0004
2352.00,0.0004
2351.00,0.0004
2350.00,0.0005
2349.00,0.0005
2348.00,0.0006
2347.00,0.0007
2346.00,0.0006
2345.00,0.0006
2344.00,0.0006
2343.00,0.0006
2342.00,0.0007
2341.00,0.0007
2340.00,0.0008
2339.00,0.0008
2338.00,0.0007
2337.00,0.0007
2336.00,0.0007
2335.00,0.0007
2334.00,0.0006
2333.00,0.0005
2332.00,0.0005
2331.00,0.0006
2330.00,0.0007
2329.00,0.0008
2328.00,0.0009
2327.00,0.0012
2326.00,0.0015
2325.00,0.0018
2324.00,0.0019
2323.00,0.0018
2322.00,0.0015
2321.00,0.0013
2320.00,0.0011
2319.00,0.0010
2318.00,0.0010
2317.00,0.0010
2316.00,0.0009
2315.00,0.0008
2314.00,0.0007
2313.00,0.0006
2312.00,0.0005
2311.00,0.0005
2310.00,0.0005
2309.00,0.0005
2308.00,0.0005
2307.00,0.0005
2306.00,0.0006
2305.00,0.0007
2304.00,0.0007
2303.00,0.0008
2302.00,0.0007
2301.00,0.0007
2300.00,0.0008
2299.00,0.0008
2298.00,0.0009
2297.00,0.0010
2296.00,0.0011
2295.00,0.0012
2294.00,0.0012
2293.00,0.0013
2292.00,0.0014
2291.00,0.0015
2290.00,0.0016
2289.00,0.0017
2288.00,0.0017
2287.00,0.0018
2286.00,0.0018
2285.00,0.0018
2284.00,0.0017
2283.00,0.0016
2282.00,0.0015
2281.00,0.0015
2280.00,0.0015
2279.00,0.0015
2278.00,0.0015
2277.00,0.0015
2276.00,0.0016
2275.00,0.0016
2274.00,0.0015
2273.00,0.0015
2272.00,0.0015
2271.00,0.0014
2270.00,0.0014
2269.00,0.0013
2268.00,0.0013
2267.00,0.0013
2266.00,0.0012
2265.00,0.0012
2264.00,0.0011
2263.00,0.0010
2262.00,0.0010
2261.00,0.0009
2260.00,0.0010
2259.00,0.0011
2258.00,0.0011
2257.00,0.0011
2256.00,0.0010
2255.00,0.0009
2254.00,0.0009
2253.00,0.0008
2252.00,0.0008
2251.00,0.0008
2250.00,0.0008
2249.00,0.0008
2248.00,0.0008
2247.00,0.0008
2246.00,0.0008
2245.00,0.0008
2244.00,0.0008
2243.00,0.0008
2242.00,0.0009
2241.00,0.0009
2240.00,0.0009
2239.00,0.0009
2238.00,0.0009
2237.00,0.0010
2236.00,0.0010
2235.00,0.0010
2234.00,0.0011
2233.00,0.0011
2232.00,0.0012
2231.00,0.0011
2230.00,0.0010
2229.00,0.0010
2228.00,0.0010
2227.00,0.0009
2226.00,0.0009
2225.00,0.0008
2224.00,0.0007
2223.00,0.0007
2222.00,0.0008
2221.00,0.0008
2220.00,0.0007
2219.00,0.0005
2218.00,0.0005
2217.00,0.0007
2216.00,0.0008
2215.00,0.0008
2214.00,0.0007
2213.00,0.0006
2212.00,0.0004
2211.00,0.0003
2210.00,0.0002
2209.00,0.0002
2208.00,0.0003
2207.00,0.0003
2206.00,0.0003
2205.00,0.0002
2204.00,0.0002
2203.00,0.0004
2202.00,0.0007
2201.00,0.0009
2200.00,0.0011
2199.00,0.0011
2198.00,0.0011
2197.00,0.0010
2196.00,0.0008
2195.00,0.0007
2194.00,0.0007
2193.00,0.0008
2192.00,0.0010
2191.00,0.0011
2190.00,0.0011
2189.00,0.0010
2188.00,0.0010
2187.00,0.0010
2186.00,0.0010
2185.00,0.0010
2184.00,0.0009
2183.00,0.0007
2182.00,0.0005
2181.00,0.0004
2180.00,0.0003
2179.00,0.0002
2178.00,0.0001
2177.00,0.0001
2176.00,-0.0000
2175.00,-0.0002
2174.00,-0.0003
2173.00,-0.0000
2172.00,0.0004
2171.00,0.0010
2170.00,0.0014
2169.00,0.0015
2168.00,0.0013
2167.00,0.0011
2166.00,0.0009
2165.00,0.0009
2164.00,0.0012
2163.00,0.0016
2162.00,0.0016
2161.00,0.0012
2160.00,0.0001
2159.00,-0.0014
2158.00,-0.0027
2157.00,-0.0035
2156.00,-0.0037
2155.00,-0.0035
2154.00,-0.0031
2153.00,-0.0027
2152.00,-0.0023
2151.00,-0.0020
2150.00,-0.0019
2149.00,-0.0018
2148.00,-0.0018
2147.00,-0.0018
2146.00,-0.0019
2145.00,-0.0019
2144.00,-0.0018
2143.00,-0.0017
2142.00,-0.0015
2141.00,-0.0015
2140.00,-0.0015
2139.00,-0.0014
2138.00,-0.0014
2137.00,-0.0014
2136.00,-0.0014
2135.00,-0.0015
2134.00,-0.0016
2133.00,-0.0016
2132.00,-0.0015
2131.00,-0.0014
2130.00,-0.0013
2129.00,-0.0012
2128.00,-0.0012
2127.00,-0.0012
2126.00,-0.0011
2125.00,-0.0011
2124.00,-0.0009
2123.00,-0.0007
2122.00,-0.0005
2121.00,-0.0004
2120.00,-0.0003
2119.00,-0.0003
2118.00,-0.0003
2117.00,-0.0002
2116.00,-0.0000
2115.00,0.0001
2114.00,0.0002
2113.00,0.0003
2112.00,0.0003
2111.00,0.0002
2110.00,0.0002
2109.00,0.0003
2108.00,0.0003
2107.00,0.0003
2106.00,0.0003
2105.00,0.0002
2104.00,0.0002
2103.00,0.0001
2102.00,0.0001
2101.00,0.0001
2100.00,0.0001
2099.00,0.0002
2098.00,0.0001
2097.00,-0.0001
2096.00,-0.0003
2095.00,-0.0004
2094.00,-0.0005
2093.00,-0.0004
2092.00,-0.0003
2091.00,-0.0001
2090.00,-0.0001
2089.00,-0.0001
2088.00,-0.0001
2087.00,-0.0001
2086.00,0.0000
2085.00,0.0002
2084.00,0.0003
2083.00,0.0004
2082.00,0.0004
2081.00,0.0003
2080.00,0.0003
2079.00,0.0004
2078.00,0.0005
2077.00,0.0007
2076.00,0.0007
2075.00,0.0007
2074.00,0.0006
2073.00,0.0005
2072.00,0.0002
2071.00,-0.0000
2070.00,-0.0002
2069.00,-0.0002
2068.00,-0.0002
2067.00,-0.0002
2066.00,-0.0003
2065.00,-0.0004
2064.00,-0.0004
2063.00,-0.0003
2062.00,-0.0002
2061.00,-0.0002
2060.00,-0.0002
2059.00,-0.0002
2058.00,-0.0002
2057.00,-0.0001
2056.00,-0.0001
2055.00,-0.0001
2054.00,0.0001
2053.00,0.0005
2052.00,0.0011
2051.00,0.0015
2050.00,0.0015
2049.00,0.0011
2048.00,0.0005
2047.00,0.0001
2046.00,0.0000
2045.00,0.0001
2044.00,0.0002
2043.00,0.0001
2042.00,-0.0002
2041.00,-0.0006
2040.00,-0.0008
2039.00,-0.0008
2038.00,-0.0006
2037.00,-0.0003
2036.00,0.0000
2035.00,0.0001
2034.00,-0.0001
2033.00,-0.0003
2032.00,-0.0006
2031.00,-0.0009
2030.00,-0.0011
2029.00,-0.0012
2028.00,-0.0012
2027.00,-0.0012
2026.00,-0.0013
2025.00,-0.0015
2024.00,-0.0016
2023.00,-0.0018
2022.00,-0.0020
2021.00,-0.0022
2020.00,-0.0024
2019.00,-0.0025
2018.00,-0.0025
2017.00,-0.0023
2016.00,-0.0022
2015.00,-0.0022
2014.00,-0.0022
2013.00,-0.0023
2012.00,-0.0022
2011.00,-0.0020
2010.00,-0.0018
2009.00,-0.0018
2008.00,-0.0019
2007.00,-0.0023
2006.00,-0.0025
2005.00,-0.0024
2004.00,-0.0021
2003.00,-0.0018
2002.00,-0.0016
2001.00,-0.0015
2000.00,-0.0015
1999.00,-0.0015
1998.00,-0.0014
1997.00,-0.0012
1996.00,-0.0010
1995.00,-0.0008
1994.00,-0.0008
1993.00,-0.0009
1992.00,-0.0010
1991.00,-0.0010
1990.00,-0.0009
1989.00,-0.0007
1988.00,-0.0005
1987.00,-0.0002
1986.00,-0.0001
1985.00,-0.0000
1984.00,0.0000
1983.00,0.0001
1982.00,0.0002
1981.00,0.0004
1980.00,0.0005
1979.00,0.0001
1978.00,-0.0006
1977.00,-0.0014
1976.00,-0.0021
1975.00,-0.0024
1974.00,-0.0025
1973.00,-0.0024
1972.00,-0.0022
1971.00,-0.0020
1970.00,-0.0019
1969.00,-0.0018
1968.00,-0.0016
1967.00,-0.0016
1966.00,-0.0018
1965.00,-0.0020
1964.00,-0.0021
1963.00,-0.0020
1962.00,-0.0020
1961.00,-0.0020
1960.00,-0.0022
1959.00,-0.0025
1958.00,-0.0026
1957.00,-0.0025
1956.00,-0.0024
1955.00,-0.0023
1954.00,-0.0022
1953.00,-0.0020
1952.00,-0.0018
1951.00,-0.0017
1950.00,-0.0017
1949.00,-0.0017
1948.00,-0.0018
1947.00,-0.0019
1946.00,-0.0019
1945.00,-0.0018
1944.00,-0.0017
1943.00,-0.0017
1942.00,-0.0017
1941.00,-0.0017
1940.00,-0.0015
1939.00,-0.0014
1938.00,-0.0012
1937.00,-0.0011
1936.00,-0.0010
1935.00,-0.0010
1934.00,-0.0010
1933.00,-0.0010
1932.00,-0.0010
1931.00,-0.0011
1930.00,-0.0011
1929.00,-0.0010
1928.00,-0.0010
1927.00,-0.0010
1926.00,-0.0011
1925.00,-0.0012
1924.00,-0.0011
1923.00,-0.0008
1922.00,-0.0006
1921.00,-0.0004
1920.00,-0.0004
1919.00,-0.0004
1918.00,-0.0005
1917.00,-0.0006
1916.00,-0.0006
1915.00,-0.0006
1914.00,-0.0006
1913.00,-0.0005
1912.00,-0.0004
1911.00,-0.0003
1910.00,-0.0002
1909.00,-0.0001
1908.00,-0.0001
1907.00,-0.0002
1906.00,-0.0003
1905.00,-0.0004
1904.00,-0.0004
1903.00,-0.0004
1902.00,-0.0003
1901.00,-0.0003
1900.00,-0.0002
1899.00,-0.0001
1898.00,-0.0001
1897.00,-0.0001
1896.00,-0.0001
1895.00,-0.0002
1894.00,-0.0002
1893.00,-0.0002
1892.00,-0.0002
1891.00,-0.0002
1890.00,-0.0003
1889.00,-0.0003
1888.00,-0.0004
1887.00,-0.0003
1886.00,-0.0003
1885.00,-0.0002
1884.00,-0.0002
1883.00,-0.0003
1882.00,-0.0004
1881.00,-0.0004
1880.00,-0.0005
1879.00,-0.0005
1878.00,-0.0005
1877.00,-0.0006
1876.00,-0.0006
1875.00,-0.0005
1874.00,-0.0005
1873.00,-0.0003
1872.00,-0.0002
1871.00,-0.0002
1870.00,-0.0002
1869.00,-0.0003
1868.00,-0.0002
1867.00,-0.0002
1866.00,-0.0001
1865.00,-0.0001
1864.00,-0.0001
1863.00,0.0000
1862.00,0.0000
1861.00,0.0000
1860.00,0.0000
1859.00,-0.0000
1858.00,-0.0001
1857.00,-0.0001
1856.00,-0.0001
1855.00,-0.0001
1854.00,-0.0001
1853.00,-0.0000
1852.00,0.0001
1851.00,0.0001
1850.00,0.0001
1849.00,0.0000
1848.00,-0.0000
1847.00,-0.0001
1846.00,-0.0001
1845.00,-0.0001
1844.00,-0.0000
1843.00,0.0000
1842.00,0.0001
1841.00,0.0002
1840.00,0.0002
1839.00,0.0003
1838.00,0.0003
1837.00,0.0003
1836.00,0.0003
1835.00,0.0003
1834.00,0.0003
1833.00,0.0003
1832.00,0.0003
1831.00,0.0003
1830.00,0.0003
1829.00,0.0002
1828.00,0.0002
1827.00,0.0002
1826.00,0.0002
1825.00,0.0003
1824.00,0.0003
1823.00,0.0003
1822.00,0.0002
1821.00,0.0001
1820.00,0.0001
1819.00,0.0000
1818.00,-0.0000
1817.00,-0.0001
1816.00,-0.0002
1815.00,-0.0001
1814.00,-0.0000
1813.00,0.0001
1812.00,0.0001
1811.00,0.0002
1810.00,0.0002
1809.00,0.0003
1808.00,0.0003
1807.00,0.0004
1806.00,0.0004
1805.00,0.0004
1804.00,0.0004
1803.00,0.0004
1802.00,0.0004
1801.00,0.0005
1800.00,0.0006
1799.00,0.0006
1798.00,0.0006
1797.00,0.0006
1796.00,0.0007
1795.00,0.0006
1794.00,0.0006
1793.00,0.0007
1792.00,0.0007
1791.00,0.0008
1790.00,0.0009
1789.00,0.0009
1788.00,0.0009
1787.00,0.0009
1786.00,0.0009
1785.00,0.0009
1784.00,0.0010
1783.00,0.0010
1782.00,0.0010
1781.00,0.0010
1780.00,0.0009
1779.00,0.0009
1778.00,0.0009
1777.00,0.0010
1776.00,0.0010
1775.00,0.0011
1774.00,0.0011
1773.00,0.0012
1772.00,0.0012
1771.00,0.0013
1770.00,0.0013
1769.00,0.0013
1768.00,0.0014
1767.00,0.0015
1766.00,0.0015
1765.00,0.0016
1764.00,0.0016
1763.00,0.0016
1762.00,0.0017
1761.00,0.0017
1760.00,0.0018
1759.00,0.0019
1758.00,0.0020
1757.00,0.0021
1756.00,0.0022
1755.00,0.0023
1754.00,0.0023
1753.00,0.0024
1752.00,0.0025
1751.00,0.0025
1750.00,0.0026
1749.00,0.0026
1748.00,0.0027
1747.00,0.0027
1746.00,0.0028
1745.00,0.0028
1744.00,0.0029
1743.00,0.0029
1742.00,0.0029
1741.00,0.0030
1740.00,0.0030
1739.00,0.0031
1738.00,0.0031
1737.00,0.0032
1736.00,0.0032
1735.00,0.0031
1734.00,0.0031
1733.00,0.0031
1732.00,0.0030
1731.00,0.0030
1730.00,0.0030
1729.00,0.0030
1728.00,0.0031
1727.00,0.0032
1726.00,0.0032
1725.00,0.0033
1724.00,0.0033
1723.00,0.0034
1722.00,0.0034
1721.00,0.0034
1720.00,0.0034
1719.00,0.0034
1718.00,0.0033
1717.00,0.0032
1716.00,0.0031
1715.00,0.0031
1714.00,0.0030
1713.00,0.0029
1712.00,0.0029
1711.00,0.0029
1710.00,0.0029
1709.00,0.0029
1708.00,0.0029
1707.00,0.0029
1706.00,0.0029
1705.00,0.0029
1704.00,0.0029
1703.00,0.0030
1702.00,0.0030
1701.00,0.0031
1700.00,0.0033
1699.00,0.0033
1698.00,0.0033
1697.00,0.0033
1696.00,0.0033
1695.00,0.0034
1694.00,0.0035
1693.00,0.0037
1692.00,0.0038
1691.00,0.0039
1690.00,0.0039
1689.00,0.0040
1688.00,0.0041
1687.00,0.0042
1686.00,0.0043
1685.00,0.0045
1684.00,0.0047
1683.00,0.0049
1682.00,0.0050
1681.00,0.0051
1680.00,0.0052
1679.00,0.0053
1678.00,0.0055
1677.00,0.0056
1676.00,0.0058
1675.00,0.0060
1674.00,0.0061
1673.00,0.0062
1672.00,0.0063
1671.00,0.0063
1670.00,0.0064
1669.00,0.0065
1668.00,0.0066
1667.00,0.0067
1666.00,0.0067
1665.00,0.0068
1664.00,0.0069
1663.00,0.0070
1662.00,0.0071
1661.00,0.0072
1660.00,0.0073
1659.00,0.0073
1658.00,0.0074
1657.00,0.0074
1656.00,0.0075
1655.00,0.0075
1654.00,0.0077
1653.00,0.0079
1652.00,0.0081
1651.00,0.0083
1650.00,0.0083
1649.00,0.0083
1648.00,0.0084
1647.00,0.0084
1646.00,0.0085
1645.00,0.0086
1644.00,0.0087
1643.00,0.0088
1642.00,0.0089
1641.00,0.0091
1640.00,0.0093
1639.00,0.0094
1638.00,0.0095
1637.00,0.0096
1636.00,0.0096
1635.00,0.0095
1634.00,0.0094
1633.00,0.0093
1632.00,0.0092
1631.00,0.0092
1630.00,0.0091
1629.00,0.0091
1628.00,0.0090
1627.00,0.0090
1626.00,0.0089
1625.00,0.0089
1624.00,0.0089
1623.00,0.0088
1622.00,0.0088
1621.00,0.0088
1620.00,0.0088
1619.00,0.0087
1618.00,0.0087
1617.00,0.0087
1616.00,0.0087
1615.00,0.0087
1614.00,0.0087
1613.00,0.0087
1612.00,0.0087
1611.00,0.0087
1610.00,0.0087
1609.00,0.0087
1608.00,0.0087
1607.00,0.0087
1606.00,0.0087
1605.00,0.0087
1604.00,0.0087
1603.00,0.0086
1602.00,0.0086
1601.00,0.0086
1600.00,0.0085
1599.00,0.0085
1598.00,0.0085
1597.00,0.0085
1596.00,0.0085
1595.00,0.0084
1594.00,0.0084
1593.00,0.0083
1592.00,0.0083
1591.00,0.0082
1590.00,0.0081
1589.00,0.0081
1588.00,0.0081
1587.00,0.0080
1586.00,0.0080
1585.00,0.0080
1584.00,0.0080
1583.00,0.0080
1582.00,0.0080
1581.00,0.0080
1580.00,0.0081
1579.00,0.0081
1578.00,0.0081
1577.00,0.0082
1576.00,0.0082
1575.00,0.0082
1574.00,0.0083
1573.00,0.0083
1572.00,0.0083
1571.00,0.0084
1570.00,0.0084
1569.00,0.0085
1568.00,0.0086
1567.00,0.0086
1566.00,0.0087
1565.00,0.0088
1564.00,0.0088
1563.00,0.0088
1562.00,0.0088
1561.00,0.0090
1560.00,0.0092
1559.00,0.0092
1558.00,0.0093
1557.00,0.0095
1556.00,0.0096
1555.00,0.0096
1554.00,0.0096
1553.00,0.0097
1552.00,0.0098
1551.00,0.0098
1550.00,0.0098
1549.00,0.0098
1548.00,0.0098
1547.00,0.0098
1546.00,0.0098
1545.00,0.0098
1544.00,0.0097
1543.00,0.0096
1542.00,0.0094
1541.00,0.0093
1540.00,0.0092
1539.00,0.0090
1538.00,0.0089
1537.00,0.0087
1536.00,0.0086
1535.00,0.0085
1534.00,0.0083
1533.00,0.0080
1532.00,0.0079
1531.00,0.0077
1530.00,0.0076
1529.00,0.0076
1528.00,0.0075
1527.00,0.0074
1526.00,0.0073
1525.00,0.0072
1524.00,0.0072
1523.00,0.0072
1522.00,0.0071
1521.00,0.0071
1520.00,0.0072
1519.00,0.0073
1518.00,0.0074
1517.00,0.0074
1516.00,0.0074
1515.00,0.0073
1514.00,0.0072
1513.00,0.0073
1512.00,0.0074
1511.00,0.0075
1510.00,0.0076
1509.00,0.0077
1508.00,0.0078
1507.00,0.0078
1506.00,0.0078
1505.00,0.0081
1504.00,0.0083
1503.00,0.0085
1502.00,0.0086
1501.00,0.0089
1500.00,0.0092
1499.00,0.0095
1498.00,0.0098
1497.00,0.0102
1496.00,0.0106
1495.00,0.0110
1494.00,0.0113
1493.00,0.0117
1492.00,0.0121
1491.00,0.0126
1490.00,0.0131
1489.00,0.0137
1488.00,0.0144
1487.00,0.0148
1486.00,0.0152
1485.00,0.0158
1484.00,0.0165
1483.00,0.0171
1482.00,0.0179
1481.00,0.0189
1480.00,0.0200
1479.00,0.0212
1478.00,0.0227
1477.00,0.0247
1476.00,0.0273
1475.00,0.0303
1474.00,0.0344
1473.00,0.0402
1472.00,0.0471
1471.00,0.0538
1470.00,0.0602
1469.00,0.0668
1468.00,0.0740
1467.00,0.0819
1466.00,0.0908
1465.00,0.1003
1464.00,0.1085
1463.00,0.1141
1462.00,0.1175
1461.00,0.1198
1460.00,0.1211
1459.00,0.1217
1458.00,0.1217
1457.00,0.1213
1456.00,0.1205
1455.00,0.1192
1454.00,0.1175
1453.00,0.1153
1452.00,0.1122
1451.00,0.1081
1450.00,0.1028
1449.00,0.0958
1448.00,0.0870
1447.00,0.0779
1446.00,0.0698
1445.00,0.0630
1444.00,0.0573
1443.00,0.0527
1442.00,0.0492
1441.00,0.0468
1440.00,0.0455
1439.00,0.0450
1438.00,0.0453
1437.00,0.0458
1436.00,0.0451
1435.00,0.0430
1434.00,0.0395
1433.00,0.0353
1432.00,0.0308
1431.00,0.0267
1430.00,0.0235
1429.00,0.0212
1428.00,0.0195
1427.00,0.0185
1426.00,0.0179
1425.00,0.0172
1424.00,0.0166
1423.00,0.0162
1422.00,0.0160
1421.00,0.0158
1420.00,0.0155
1419.00,0.0153
1418.00,0.0151
1417.00,0.0148
1416.00,0.0145
1415.00,0.0143
1414.00,0.0142
1413.00,0.0140
1412.00,0.0138
1411.00,0.0137
1410.00,0.0136
1409.00,0.0134
1408.00,0.0133
1407.00,0.0133
1406.00,0.0132
1405.00,0.0131
1404.00,0.0129
1403.00,0.0129
1402.00,0.0130
1401.00,0.0130
1400.00,0.0130
1399.00,0.0131
1398.00,0.0133
1397.00,0.0134
1396.00,0.0135
1395.00,0.0138
1394.00,0.0142
1393.00,0.0146
1392.00,0.0151
1391.00,0.0158
1390.00,0.0168
1389.00,0.0181
1388.00,0.0200
1387.00,0.0229
1386.00,0.0270
1385.00,0.0324
1384.00,0.0399
1383.00,0.0505
1382.00,0.0652
1381.00,0.0846
1380.00,0.1091
1379.00,0.1378
1378.00,0.1663
1377.00,0.1882
1376.00,0.1970
1375.00,0.1884
1374.00,0.1651
1373.00,0.1362
1372.00,0.1097
1371.00,0.0879
1370.00,0.0707
1369.00,0.0577
1368.00,0.0487
1367.00,0.0433
1366.00,0.0403
1365.00,0.0391
1364.00,0.0393
1363.00,0.0407
1362.00,0.0429
1361.00,0.0453
1360.00,0.0472
1359.00,0.0478
1358.00,0.0468
1357.00,0.0442
1356.00,0.0405
1355.00,0.0364
1354.00,0.0324
1353.00,0.0290
1352.00,0.0262
1351.00,0.0240
1350.00,0.0222
1349.00,0.0207
1348.00,0.0196
1347.00,0.0186
1346.00,0.0179
1345.00,0.0173
1344.00,0.0166
1343.00,0.0160
1342.00,0.0153
1341.00,0.0147
1340.00,0.0141
1339.00,0.0137
1338.00,0.0134
1337.00,0.0133
1336.00,0.0134
1335.00,0.0136
1334.00,0.0139
1333.00,0.0142
1332.00,0.0146
1331.00,0.0149
1330.00,0.0150
1329.00,0.0149
1328.00,0.0145
1327.00,0.0140
1326.00,0.0134
1325.00,0.0128
1324.00,0.0122
1323.00,0.0117
1322.00,0.0113
1321.00,0.0111
1320.00,0.0109
1319.00,0.0107
1318.00,0.0105
1317.00,0.0104
1316.00,0.0103
1315.00,0.0102
1314.00,0.0101
1313.00,0.0101
1312.00,0.0102
1311.00,0.0104
1310.00,0.0106
1309.00,0.0111
1308.00,0.0117
1307.00,0.0124
1306.00,0.0131
1305.00,0.0136
1304.00,0.0138
1303.00,0.0137
1302.00,0.0134
1301.00,0.0133
1300.00,0.0132
1299.00,0.0134
1298.00,0.0135
1297.00,0.0136
1296.00,0.0135
1295.00,0.0133
1294.00,0.0129
1293.00,0.0124
1292.00,0.0118
1291.00,0.0113
1290.00,0.0108
1289.00,0.0104
1288.00,0.0101
1287.00,0.0099
1286.00,0.0097
1285.00,0.0095
1284.00,0.0093
1283.00,0.0092
1282.00,0.0091
1281.00,0.0090
1280.00,0.0088
1279.00,0.0088
1278.00,0.0087
1277.00,0.0086
1276.00,0.0086
1275.00,0.0086
1274.00,0.0085
1273.00,0.0085
1272.00,0.0085
1271.00,0.0085
1270.00,0.0085
1269.00,0.0086
1268.00,0.0087
1267.00,0.0089
1266.00,0.0092
1265.00,0.0095
1264.00,0.0097
1263.00,0.0100
1262.00,0.0103
1261.00,0.0106
1260.00,0.0110
1259.00,0.0114
1258.00,0.0118
1257.00,0.0122
1256.00,0.0123
1255.00,0.0122
1254.00,0.0118
1253.00,0.0112
1252.00,0.0106
1251.00,0.0102
1250.00,0.0099
1249.00,0.0098
1248.00,0.0096
1247.00,0.0095
1246.00,0.0093
1245.00,0.0092
1244.00,0.0091
1243.00,0.0091
1242.00,0.0090
1241.00,0.0090
1240.00,0.0090
1239.00,0.0090
1238.00,0.0090
1237.00,0.0090
1236.00,0.0091
1235.00,0.0091
1234.00,0.0092
1233.00,0.0093
1232.00,0.0094
1231.00,0.0095
1230.00,0.0096
1229.00,0.0097
1228.00,0.0099
1227.00,0.0100
1226.00,0.0102
1225.00,0.0105
1224.00,0.0109
1223.00,0.0113
1222.00,0.0117
1221.00,0.0120
1220.00,0.0124
1219.00,0.0126
1218.00,0.0126
1217.00,0.0125
1216.00,0.0121
1215.00,0.0116
1214.00,0.0112
1213.00,0.0109
1212.00,0.0106
1211.00,0.0103
1210.00,0.0101
1209.00,0.0099
1208.00,0.0097
1207.00,0.0097
1206.00,0.0096
1205.00,0.0095
1204.00,0.0095
1203.00,0.0094
1202.00,0.0093
1201.00,0.0092
1200.00,0.0091
1199.00,0.0090
1198.00,0.0090
1197.00,0.0089
1196.00,0.0088
1195.00,0.0088
1194.00,0.0088
1193.00,0.0088
1192.00,0.0088
1191.00,0.0087
1190.00,0.0086
1189.00,0.0085
1188.00,0.0084
1187.00,0.0083
1186.00,0.0083
1185.00,0.0083
1184.00,0.0083
1183.00,0.0085
1182.00,0.0086
1181.00,0.0089
1180.00,0.0091
1179.00,0.0095
1178.00,0.0099
1177.00,0.0105
1176.00,0.0113
1175.00,0.0124
1174.00,0.0137
1173.00,0.0154
1172.00,0.0173
1171.00,0.0195
1170.00,0.0216
1169.00,0.0234
1168.00,0.0245
1167.00,0.0248
1166.00,0.0245
1165.00,0.0238
1164.00,0.0229
1163.00,0.0220
1162.00,0.0212
1161.00,0.0206
1160.00,0.0202
1159.00,0.0199
1158.00,0.0199
1157.00,0.0199
1156.00,0.0200
1155.00,0.0201
1154.00,0.0202
1153.00,0.0202
1152.00,0.0199
1151.00,0.0194
1150.00,0.0186
1149.00,0.0178
1148.00,0.0170
1147.00,0.0162
1146.00,0.0156
1145.00,0.0149
1144.00,0.0143
1143.00,0.0138
1142.00,0.0134
1141.00,0.0129
1140.00,0.0124
1139.00,0.0120
1138.00,0.0117
1137.00,0.0115
1136.00,0.0114
1135.00,0.0113
1134.00,0.0112
1133.00,0.0111
1132.00,0.0111
1131.00,0.0111
1130.00,0.0112
1129.00,0.0114
1128.00,0.0115
1127.00,0.0118
1126.00,0.0121
1125.00,0.0125
1124.00,0.0128
1123.00,0.0132
1122.00,0.0137
1121.00,0.0141
1120.00,0.0145
1119.00,0.0148
1118.00,0.0150
1117.00,0.0151
1116.00,0.0151
1115.00,0.0150
1114.00,0.0151
1113.00,0.0151
1112.00,0.0151
1111.00,0.0152
1110.00,0.0154
1109.00,0.0157
1108.00,0.0160
1107.00,0.0166
1106.00,0.0172
1105.00,0.0178
1104.00,0.0182
1103.00,0.0184
1102.00,0.0182
1101.00,0.0177
1100.00,0.0170
1099.00,0.0162
1098.00,0.0155
1097.00,0.0148
1096.00,0.0143
1095.00,0.0140
1094.00,0.0137
1093.00,0.0135
1092.00,0.0132
1091.00,0.0130
1090.00,0.0128
1089.00,0.0126
1088.00,0.0124
1087.00,0.0124
1086.00,0.0123
1085.00,0.0123
1084.00,0.0121
1083.00,0.0118
1082.00,0.0116
1081.00,0.0115
1080.00,0.0114
1079.00,0.0114
1078.00,0.0112
1077.00,0.0111
1076.00,0.0110
1075.00,0.0109
1074.00,0.0108
1073.00,0.0106
1072.00,0.0105
1071.00,0.0104
1070.00,0.0104
1069.00,0.0104
1068.00,0.0104
1067.00,0.0105
1066.00,0.0105
1065.00,0.0105
1064.00,0.0104
1063.00,0.0104
1062.00,0.0104
1061.00,0.0105
1060.00,0.0106
1059.00,0.0107
1058.00,0.0107
1057.00,0.0106
1056.00,0.0106
1055.00,0.0107
1054.00,0.0107
1053.00,0.0108
1052.00,0.0109
1051.00,0.0110
1050.00,0.0112
1049.00,0.0115
1048.00,0.0117
1047.00,0.0120
1046.00,0.0121
1045.00,0.0123
1044.00,0.0123
1043.00,0.0122
1042.00,0.0122
1041.00,0.0121
1040.00,0.0121
1039.00,0.0121
1038.00,0.0121
1037.00,0.0121
1036.00,0.0122
1035.00,0.0122
1034.00,0.0121
1033.00,0.0119
1032.00,0.0117
1031.00,0.0115
1030.00,0.0113
1029.00,0.0111
1028.00,0.0109
1027.00,0.0108
1026.00,0.0108
1025.00,0.0109
1024.00,0.0109
1023.00,0.0108
1022.00,0.0108
1021.00,0.0107
1020.00,0.0107
1019.00,0.0106
1018.00,0.0107
1017.00,0.0107
1016.00,0.0107
1015.00,0.0108
1014.00,0.0109
1013.00,0.0110
1012.00,0.0112
1011.00,0.0113
1010.00,0.0115
1009.00,0.0117
1008.00,0.0119
1007.00,0.0123
1006.00,0.0129
1005.00,0.0137
1004.00,0.0149
1003.00,0.0164
1002.00,0.0185
1001.00,0.0209
1000.00,0.0235
999.00,0.0257
998.00,0.0266
997.00,0.0261
996.00,0.0241
995.00,0.0214
994.00,0.0187
993.00,0.0164
992.00,0.0146
991.00,0.0134
990.00,0.0125
989.00,0.0119
988.00,0.0115
987.00,0.0112
986.00,0.0112
985.00,0.0114
984.00,0.0118
983.00,0.0123
982.00,0.0131
981.00,0.0143
980.00,0.0160
979.00,0.0182
978.00,0.0209
977.00,0.0240
976.00,0.0273
975.00,0.0302
974.00,0.0323
973.00,0.0327
972.00,0.0313
971.00,0.0284
970.00,0.0247
969.00,0.0211
968.00,0.0180
967.00,0.0157
966.00,0.0140
965.00,0.0127
964.00,0.0118
963.00,0.0111
962.00,0.0106
961.00,0.0102
960.00,0.0098
959.00,0.0094
958.00,0.0091
957.00,0.0088
956.00,0.0085
955.00,0.0083
954.00,0.0082
953.00,0.0081
952.00,0.0080
951.00,0.0079
950.00,0.0079
949.00,0.0079
948.00,0.0081
947.00,0.0082
946.00,0.0085
945.00,0.0088
944.00,0.0091
943.00,0.0095
942.00,0.0099
941.00,0.0102
940.00,0.0103
939.00,0.0102
938.00,0.0098
937.00,0.0092
936.00,0.0086
935.00,0.0081
934.00,0.0077
933.00,0.0075
932.00,0.0075
931.00,0.0075
930.00,0.0075
929.00,0.0074
928.00,0.0074
927.00,0.0074
926.00,0.0074
925.00,0.0074
924.00,0.0073
923.00,0.0073
922.00,0.0073
921.00,0.0074
920.00,0.0073
919.00,0.0074
918.00,0.0074
917.00,0.0075
916.00,0.0077
915.00,0.0078
914.00,0.0079
913.00,0.0080
912.00,0.0081
911.00,0.0083
910.00,0.0086
909.00,0.0089
908.00,0.0094
907.00,0.0099
906.00,0.0106
905.00,0.0116
904.00,0.0131
903.00,0.0149
902.00,0.0169
901.00,0.0188
900.00,0.0200
899.00,0.0203
898.00,0.0194
897.00,0.0178
896.00,0.0158
895.00,0.0138
894.00,0.0122
893.00,0.0110
892.00,0.0101
891.00,0.0096
890.00,0.0093
889.00,0.0092
888.00,0.0090
887.00,0.0089
886.00,0.0088
885.00,0.0088
884.00,0.0088
883.00,0.0088
882.00,0.0088
881.00,0.0088
880.00,0.0089
879.00,0.0090
878.00,0.0092
877.00,0.0093
876.00,0.0093
875.00,0.0094
874.00,0.0094
873.00,0.0095
872.00,0.0095
871.00,0.0093
870.00,0.0091
869.00,0.0089
868.00,0.0088
867.00,0.0088
866.00,0.0088
865.00,0.0090
864.00,0.0091
863.00,0.0091
862.00,0.0091
861.00,0.0091
860.00,0.0091
859.00,0.0093
858.00,0.0094
857.00,0.0094
856.00,0.0094
855.00,0.0095
854.00,0.0097
853.00,0.0100
852.00,0.0103
851.00,0.0105
850.00,0.0107
849.00,0.0110
848.00,0.0116
847.00,0.0126
846.00,0.0140
845.00,0.0162
844.00,0.0191
843.00,0.0224
842.00,0.0250
841.00,0.0256
840.00,0.0239
839.00,0.0206
838.00,0.0171
837.00,0.0144
836.00,0.0128
835.00,0.0119
834.00,0.0114
833.00,0.0112
832.00,0.0111
831.00,0.0110
830.00,0.0110
829.00,0.0110
828.00,0.0109
827.00,0.0108
826.00,0.0108
825.00,0.0108
824.00,0.0107
823.00,0.0107
822.00,0.0107
821.00,0.0108
820.00,0.0111
819.00,0.0115
818.00,0.0119
817.00,0.0125
816.00,0.0134
815.00,0.0147
814.00,0.0165
813.00,0.0185
812.00,0.0206
811.00,0.0226
810.00,0.0241
809.00,0.0247
808.00,0.0243
807.00,0.0230
806.00,0.0211
805.00,0.0189
804.00,0.0171
803.00,0.0156
802.00,0.0147
801.00,0.0140
800.00,0.0134
799.00,0.0128
798.00,0.0123
797.00,0.0118
796.00,0.0114
795.00,0.0112
794.00,0.0108
793.00,0.0104
792.00,0.0099
791.00,0.0095
790.00,0.0093
789.00,0.0091
788.00,0.0090
787.00,0.0087
786.00,0.0085
785.00,0.0084
784.00,0.0084
783.00,0.0084
782.00,0.0084
781.00,0.0083
780.00,0.0082
779.00,0.0082
778.00,0.0082
777.00,0.0082
776.00,0.0082
775.00,0.0082
774.00,0.0082
773.00,0.0081
772.00,0.0079
771.00,0.0079
770.00,0.0079
769.00,0.0079
768.00,0.0080
767.00,0.0081
766.00,0.0082
765.00,0.0082
764.00,0.0082
763.00,0.0083
762.00,0.0083
761.00,0.0084
760.00,0.0084
759.00,0.0085
758.00,0.0085
757.00,0.0086
756.00,0.0086
755.00,0.0086
754.00,0.0087
753.00,0.0087
752.00,0.0088
751.00,0.0090
750.00,0.0092
749.00,0.0095
748.00,0.0098
747.00,0.0101
746.00,0.0103
745.00,0.0103
744.00,0.0104
743.00,0.0105
742.00,0.0108
741.00,0.0114
740.00,0.0119
739.00,0.0124
738.00,0.0128
737.00,0.0132
736.00,0.0136
735.00,0.0141
734.00,0.0147
733.00,0.0155
732.00,0.0163
731.00,0.0172
730.00,0.0178
729.00,0.0181
728.00,0.0181
727.00,0.0179
726.00,0.0179
725.00,0.0182
724.00,0.0190
723.00,0.0199
722.00,0.0207
721.00,0.0211
720.00,0.0209
719.00,0.0200
718.00,0.0187
717.00,0.0173
716.00,0.0161
715.00,0.0152
714.00,0.0144
713.00,0.0139
712.00,0.0134
711.00,0.0131
710.00,0.0130
709.00,0.0131
708.00,0.0132
707.00,0.0133
706.00,0.0132
705.00,0.0131
704.00,0.0128
703.00,0.0125
702.00,0.0123
701.00,0.0120
700.00,0.0118
699.00,0.0116
698.00,0.0114
697.00,0.0114
696.00,0.0115
695.00,0.0114
694.00,0.0112
693.00,0.0109
692.00,0.0107
691.00,0.0106
690.00,0.0107
689.00,0.0106
688.00,0.0105
687.00,0.0103
686.00,0.0102
685.00,0.0101
684.00,0.0101
683.00,0.0102
682.00,0.0103
681.00,0.0105
680.00,0.0107
679.00,0.0109
678.00,0.0110
677.00,0.0112
676.00,0.0112
675.00,0.0113
674.00,0.0113
673.00,0.0112
672.00,0.0112
671.00,0.0111
670.00,0.0111
669.00,0.0111
668.00,0.0112
667.00,0.0112
666.00,0.0111
665.00,0.0109
664.00,0.0108
663.00,0.0106
662.00,0.0106
661.00,0.0106
660.00,0.0106
659.00,0.0106
658.00,0.0107
657.00,0.0108
656.00,0.0109
655.00,0.0109
654.00,0.0108
653.00,0.0106
652.00,0.0104
651.00,0.0104
650.00,0.0105
649.00,0.0106
648.00,0.0107
647.00,0.0105
646.00,0.0103
645.00,0.0101
644.00,0.0102
643.00,0.0103
642.00,0.0104
641.00,0.0103
640.00,0.0101
639.00,0.0100
638.00,0.0099
637.00,0.0099
636.00,0.0099
635.00,0.0100
634.00,0.0102
633.00,0.0103
632.00,0.0103
631.00,0.0102
630.00,0.0100
629.00,0.0098
628.00,0.0097
627.00,0.0099
626.00,0.0103
625.00,0.0106
624.00,0.0107
623.00,0.0108
622.00,0.0107
621.00,0.0105
620.00,0.0103
619.00,0.0102
618.00,0.0101
617.00,0.0101
616.00,0.0100
615.00,0.0100
614.00,0.0101
613.00,0.0103
612.00,0.0104
611.00,0.0104
610.00,0.0103
609.00,0.0101
608.00,0.0098
607.00,0.0097
606.00,0.0097
605.00,0.0098
604.00,0.0100
603.00,0.0102
602.00,0.0102
601.00,0.0103
600.00,0.0103
599.00,0.0102
598.00,0.0101
597.00,0.0099
596.00,0.0097
595.00,0.0096
594.00,0.0099
593.00,0.0103
592.00,0.0106
591.00,0.0108
590.00,0.0108
589.00,0.0107
588.00,0.0106
587.00,0.0104
586.00,0.0103
585.00,0.0101
584.00,0.0099
583.00,0.0098
582.00,0.0099
581.00,0.0101
580.00,0.0103
579.00,0.0104
578.00,0.0105
577.00,0.0107
576.00,0.0109
575.00,0.0112
574.00,0.0112
573.00,0.0109
572.00,0.0105
571.00,0.0102
570.00,0.0100
569.00,0.0101
568.00,0.0102
567.00,0.0103
566.00,0.0103
565.00,0.0103
564.00,0.0104
563.00,0.0106
562.00,0.0107
561.00,0.0106
560.00,0.0105
559.00,0.0105
558.00,0.0106
557.00,0.0107
556.00,0.0107
555.00,0.0106
554.00,0.0104
553.00,0.0103
552.00,0.0102
551.00,0.0102
550.00,0.0101
549.00,0.0101
548.00,0.0100
547.00,0.0098
546.00,0.0098
545.00,0.0100
544.00,0.0105
543.00,0.0108
542.00,0.0109
541.00,0.0108
540.00,0.0109
539.00,0.0112
538.00,0.0114
537.00,0.0113
536.00,0.0110
535.00,0.0108
534.00,0.0109
533.00,0.0109
532.00,0.0109
531.00,0.0107
530.00,0.0105
529.00,0.0105
528.00,0.0107
527.00,0.0112
526.00,0.0116
525.00,0.0116
524.00,0.0113
523.00,0.0113
522.00,0.0116
521.00,0.0118
520.00,0.0116
519.00,0.0110
518.00,0.0104
517.00,0.0098
516.00,0.0095
515.00,0.0094
514.00,0.0093
513.00,0.0090
512.00,0.0083
511.00,0.0076
510.00,0.0069
509.00,0.0068
508.00,0.0072
507.00,0.0081
506.00,0.0091
505.00,0.0099
504.00,0.0103
503.00,0.0102
502.00,0.0098
501.00,0.0093
500.00,0.0089
499.00,0.0088
498.00,0.0091
497.00,0.0094
496.00,0.0095
495.00,0.0092
494.00,0.0086
493.00,0.0079
492.00,0.0074
491.00,0.0073
490.00,0.0077
489.00,0.0081
488.00,0.0081
487.00,0.0078
486.00,0.0074
485.00,0.0075
484.00,0.0080
483.00,0.0086
482.00,0.0093
481.00,0.0096
480.00,0.0097
479.00,0.0096
478.00,0.0096
477.00,0.0100
476.00,0.0104
475.00,0.0106
474.00,0.0101
473.00,0.0093
472.00,0.0090
471.00,0.0096
470.00,0.0107
469.00,0.0118
468.00,0.0127
467.00,0.0135
466.00,0.0142
465.00,0.0146
464.00,0.0150
463.00,0.0157
462.00,0.0170
461.00,0.0184
460.00,0.0192
459.00,0.0190
458.00,0.0179
457.00,0.0165
456.00,0.0154
455.00,0.0145
454.00,0.0138
453.00,0.0131
452.00,0.0125
451.00,0.0120
450.00,0.0115
