Created as New Dataset,Sample 005 By Administrator Date Wednesday, September 03 2025
cm-1,A
4000.00,0.0013
3999.00,0.0013
3998.00,0.0013
3997.00,0.0012
3996.00,0.0012
3995.00,0.0012
3994.00,0.0013
3993.00,0.0013
3992.00,0.0013
3991.00,0.0013
3990.00,0.0013
3989.00,0.0013
3988.00,0.0013
3987.00,0.0013
3986.00,0.0012
3985.00,0.0012
3984.00,0.0012
3983.00,0.0012
3982.00,0.0012
3981.00,0.0012
3980.00,0.0012
3979.00,0.0012
3978.00,0.0012
3977.00,0.0012
3976.00,0.0012
3975.00,0.0012
3974.00,0.0012
3973.00,0.0011
3972.00,0.0011
3971.00,0.0011
3970.00,0.0011
3969.00,0.0011
3968.00,0.0012
3967.00,0.0012
3966.00,0.0012
3965.00,0.0012
3964.00,0.0012
3963.00,0.0012
3962.00,0.0011
3961.00,0.0011
3960.00,0.0011
3959.00,0.0011
3958.00,0.0011
3957.00,0.0012
3956.00,0.0012
3955.00,0.0012
3954.00,0.0011
3953.00,0.0011
3952.00,0.0011
3951.00,0.0011
3950.00,0.0011
3949.00,0.0011
3948.00,0.0011
3947.00,0.0011
3946.00,0.0011
3945.00,0.0011
3944.00,0.0011
3943.00,0.0011
3942.00,0.0012
3941.00,0.0012
3940.00,0.0012
3939.00,0.0012
3938.00,0.0011
3937.00,0.0011
3936.00,0.0012
3935.00,0.0012
3934.00,0.0013
3933.00,0.0013
3932.00,0.0013
3931.00,0.0012
3930.00,0.0012
3929.00,0.0012
3928.00,0.0012
3927.00,0.0012
3926.00,0.0013
3925.00,0.0013
3924.00,0.0013
3923.00,0.0012
3922.00,0.0012
3921.00,0.0011
3920.00,0.0011
3919.00,0.0011
3918.00,0.0011
3917.00,0.0012
3916.00,0.0012
3915.00,0.0012
3914.00,0.0012
3913.00,0.0012
3912.00,0.0012
3911.00,0.0012
3910.00,0.0012
3909.00,0.0012
3908.00,0.0011
3907.00,0.0011
3906.00,0.0011
3905.00,0.0011
3904.00,0.0011
3903.00,0.0011
3902.00,0.0011
3901.00,0.0011
3900.00,0.0012
3899.00,0.0012
3898.00,0.0012
3897.00,0.0012
3896.00,0.0012
3895.00,0.0012
3894.00,0.0011
3893.00,0.0011
3892.00,0.0011
3891.00,0.0011
3890.00,0.0010
3889.00,0.0010
3888.00,0.0010
3887.00,0.0011
3886.00,0.0011
3885.00,0.0012
3884.00,0.0012
3883.00,0.0011
3882.00,0.0011
3881.00,0.0011
3880.00,0.0011
3879.00,0.0011
3878.00,0.0011
3877.00,0.0011
3876.00,0.0011
3875.00,0.0011
3874.00,0.0011
3873.00,0.0010
3872.00,0.0010
3871.00,0.0010
3870.00,0.0010
3869.00,0.0010
3868.00,0.0010
3867.00,0.0010
3866.00,0.0010
3865.00,0.0010
3864.00,0.0010
3863.00,0.0011
3862.00,0.0011
3861.00,0.0011
3860.00,0.0011
3859.00,0.0011
3858.00,0.0012
3857.00,0.0012
3856.00,0.0012
3855.00,0.0012
3854.00,0.0011
3853.00,0.0010
3852.00,0.0010
3851.00,0.0010
3850.00,0.0010
3849.00,0.0010
3848.00,0.0010
3847.00,0.0010
3846.00,0.0010
3845.00,0.0010
3844.00,0.0010
3843.00,0.0010
3842.00,0.0010
3841.00,0.0010
3840.00,0.0010
3839.00,0.0010
3838.00,0.0011
3837.00,0.0011
3836.00,0.0011
3835.00,0.0011
3834.00,0.0011
3833.00,0.0012
3832.00,0.0011
3831.00,0.0011
3830.00,0.0011
3829.00,0.0011
3828.00,0.0011
3827.00,0.0011
3826.00,0.0011
3825.00,0.0011
3824.00,0.0011
3823.00,0.0011
3822.00,0.0011
3821.00,0.0011
3820.00,0.0011
3819.00,0.0011
3818.00,0.0011
3817.00,0.0011
3816.00,0.0012
3815.00,0.0012
3814.00,0.0012
3813.00,0.0012
3812.00,0.0012
3811.00,0.0012
3810.00,0.0012
3809.00,0.0012
3808.00,0.0011
3807.00,0.0011
3806.00,0.0011
3805.00,0.0010
3804.00,0.0010
3803.00,0.0010
3802.00,0.0011
3801.00,0.0011
3800.00,0.0011
3799.00,0.0011
3798.00,0.0011
3797.00,0.0011
3796.00,0.0011
3795.00,0.0011
3794.00,0.0011
3793.00,0.0011
3792.00,0.0011
3791.00,0.0011
3790.00,0.0011
3789.00,0.0012
3788.00,0.0012
3787.00,0.0012
3786.00,0.0011
3785.00,0.0011
3784.00,0.0011
3783.00,0.0010
3782.00,0.0010
3781.00,0.0010
3780.00,0.0011
3779.00,0.0011
3778.00,0.0011
3777.00,0.0012
3776.00,0.0012
3775.00,0.0012
3774.00,0.0012
3773.00,0.0011
3772.00,0.0011
3771.00,0.0011
3770.00,0.0011
3769.00,0.0011
3768.00,0.0011
3767.00,0.0011
3766.00,0.0011
3765.00,0.0011
3764.00,0.0011
3763.00,0.0011
3762.00,0.0011
3761.00,0.0011
3760.00,0.0010
3759.00,0.0010
3758.00,0.0009
3757.00,0.0009
3756.00,0.0009
3755.00,0.0009
3754.00,0.0009
3753.00,0.0009
3752.00,0.0009
3751.00,0.0009
3750.00,0.0009
3749.00,0.0010
3748.00,0.0009
3747.00,0.0009
3746.00,0.0009
3745.00,0.0009
3744.00,0.0009
3743.00,0.0009
3742.00,0.0009
3741.00,0.0010
3740.00,0.0010
3739.00,0.0009
3738.00,0.0009
3737.00,0.0008
3736.00,0.0008
3735.00,0.0007
3734.00,0.0008
3733.00,0.0008
3732.00,0.0009
3731.00,0.0009
3730.00,0.0010
3729.00,0.0010
3728.00,0.0010
3727.00,0.0010
3726.00,0.0011
3725.00,0.0011
3724.00,0.0011
3723.00,0.0011
3722.00,0.0011
3721.00,0.0010
3720.00,0.0009
3719.00,0.0009
3718.00,0.0008
3717.00,0.0008
3716.00,0.0008
3715.00,0.0008
3714.00,0.0008
3713.00,0.0008
3712.00,0.0008
3711.00,0.0008
3710.00,0.0008
3709.00,0.0008
3708.00,0.0009
3707.00,0.0009
3706.00,0.0010
3705.00,0.0010
3704.00,0.0010
3703.00,0.0010
3702.00,0.0010
3701.00,0.0010
3700.00,0.0010
3699.00,0.0010
3698.00,0.0011
3697.00,0.0012
3696.00,0.0012
3695.00,0.0012
3694.00,0.0012
3693.00,0.0012
3692.00,0.0013
3691.00,0.0013
3690.00,0.0013
3689.00,0.0014
3688.00,0.0015
3687.00,0.0016
3686.00,0.0017
3685.00,0.0018
3684.00,0.0019
3683.00,0.0020
3682.00,0.0021
3681.00,0.0022
3680.00,0.0023
3679.00,0.0025
3678.00,0.0026
3677.00,0.0028
3676.00,0.0030
3675.00,0.0031
3674.00,0.0032
3673.00,0.0033
3672.00,0.0034
3671.00,0.0035
3670.00,0.0036
3669.00,0.0037
3668.00,0.0037
3667.00,0.0037
3666.00,0.0037
3665.00,0.0038
3664.00,0.0039
3663.00,0.0039
3662.00,0.0040
3661.00,0.0040
3660.00,0.0041
3659.00,0.0041
3658.00,0.0041
3657.00,0.0041
3656.00,0.0041
3655.00,0.0040
3654.00,0.0040
3653.00,0.0039
3652.00,0.0039
3651.00,0.0039
3650.00,0.0038
3649.00,0.0037
3648.00,0.0036
3647.00,0.0035
3646.00,0.0034
3645.00,0.0033
3644.00,0.0032
3643.00,0.0032
3642.00,0.0031
3641.00,0.0031
3640.00,0.0032
3639.00,0.0032
3638.00,0.0032
3637.00,0.0031
3636.00,0.0029
3635.00,0.0025
3634.00,0.0022
3633.00,0.0019
3632.00,0.0017
3631.00,0.0016
3630.00,0.0016
3629.00,0.0015
3628.00,0.0015
3627.00,0.0014
3626.00,0.0014
3625.00,0.0014
3624.00,0.0014
3623.00,0.0014
3622.00,0.0014
3621.00,0.0014
3620.00,0.0013
3619.00,0.0013
3618.00,0.0013
3617.00,0.0013
3616.00,0.0012
3615.00,0.0012
3614.00,0.0012
3613.00,0.0011
3612.00,0.0011
3611.00,0.0011
3610.00,0.0011
3609.00,0.0011
3608.00,0.0011
3607.00,0.0011
3606.00,0.0010
3605.00,0.0010
3604.00,0.0010
3603.00,0.0011
3602.00,0.0011
3601.00,0.0011
3600.00,0.0012
3599.00,0.0012
3598.00,0.0012
3597.00,0.0012
3596.00,0.0012
3595.00,0.0012
3594.00,0.0012
3593.00,0.0011
3592.00,0.0011
3591.00,0.0011
3590.00,0.0011
3589.00,0.0011
3588.00,0.0012
3587.00,0.0012
3586.00,0.0012
3585.00,0.0012
3584.00,0.0012
3583.00,0.0012
3582.00,0.0012
3581.00,0.0013
3580.00,0.0013
3579.00,0.0013
3578.00,0.0013
3577.00,0.0013
3576.00,0.0013
3575.00,0.0013
3574.00,0.0013
3573.00,0.0013
3572.00,0.0013
3571.00,0.0013
3570.00,0.0013
3569.00,0.0013
3568.00,0.0013
3567.00,0.0014
3566.00,0.0014
3565.00,0.0014
3564.00,0.0014
3563.00,0.0014
3562.00,0.0014
3561.00,0.0015
3560.00,0.0015
3559.00,0.0015
3558.00,0.0015
3557.00,0.0015
3556.00,0.0015
3555.00,0.0015
3554.00,0.0015
3553.00,0.0016
3552.00,0.0016
3551.00,0.0016
3550.00,0.0016
3549.00,0.0016
3548.00,0.0016
3547.00,0.0016
3546.00,0.0016
3545.00,0.0016
3544.00,0.0017
3543.00,0.0017
3542.00,0.0016
3541.00,0.0016
3540.00,0.0016
3539.00,0.0016
3538.00,0.0016
3537.00,0.0016
3536.00,0.0016
3535.00,0.0016
3534.00,0.0016
3533.00,0.0016
3532.00,0.0017
3531.00,0.0017
3530.00,0.0016
3529.00,0.0016
3528.00,0.0016
3527.00,0.0016
3526.00,0.0017
3525.00,0.0017
3524.00,0.0017
3523.00,0.0017
3522.00,0.0017
3521.00,0.0018
3520.00,0.0018
3519.00,0.0018
3518.00,0.0018
3517.00,0.0018
3516.00,0.0018
3515.00,0.0017
3514.00,0.0017
3513.00,0.0017
3512.00,0.0017
3511.00,0.0017
3510.00,0.0017
3509.00,0.0017
3508.00,0.0017
3507.00,0.0017
3506.00,0.0017
3505.00,0.0018
3504.00,0.0018
3503.00,0.0018
3502.00,0.0018
3501.00,0.0018
3500.00,0.0018
3499.00,0.0018
3498.00,0.0018
3497.00,0.0018
3496.00,0.0018
3495.00,0.0018
3494.00,0.0018
3493.00,0.0019
3492.00,0.0019
3491.00,0.0020
3490.00,0.0021
3489.00,0.0021
3488.00,0.0021
3487.00,0.0020
3486.00,0.0020
3485.00,0.0020
3484.00,0.0020
3483.00,0.0021
3482.00,0.0021
3481.00,0.0021
3480.00,0.0021
3479.00,0.0021
3478.00,0.0021
3477.00,0.0021
3476.00,0.0021
3475.00,0.0021
3474.00,0.0021
3473.00,0.0021
3472.00,0.0021
3471.00,0.0021
3470.00,0.0021
3469.00,0.0021
3468.00,0.0022
3467.00,0.0022
3466.00,0.0023
3465.00,0.0023
3464.00,0.0023
3463.00,0.0023
3462.00,0.0023
3461.00,0.0023
3460.00,0.0023
3459.00,0.0023
3458.00,0.0023
3457.00,0.0023
3456.00,0.0023
3455.00,0.0023
3454.00,0.0023
3453.00,0.0023
3452.00,0.0023
3451.00,0.0023
3450.00,0.0024
3449.00,0.0024
3448.00,0.0024
3447.00,0.0024
3446.00,0.0024
3445.00,0.0024
3444.00,0.0024
3443.00,0.0024
3442.00,0.0024
3441.00,0.0024
3440.00,0.0025
3439.00,0.0026
3438.00,0.0026
3437.00,0.0026
3436.00,0.0026
3435.00,0.0026
3434.00,0.0026
3433.00,0.0026
3432.00,0.0026
3431.00,0.0026
3430.00,0.0026
3429.00,0.0026
3428.00,0.0026
3427.00,0.0026
3426.00,0.0026
3425.00,0.0026
3424.00,0.0026
3423.00,0.0026
3422.00,0.0026
3421.00,0.0027
3420.00,0.0027
3419.00,0.0027
3418.00,0.0027
3417.00,0.0027
3416.00,0.0026
3415.00,0.0026
3414.00,0.0025
3413.00,0.0025
3412.00,0.0026
3411.00,0.0026
3410.00,0.0026
3409.00,0.0026
3408.00,0.0026
3407.00,0.0026
3406.00,0.0025
3405.00,0.0026
3404.00,0.0026
3403.00,0.0026
3402.00,0.0026
3401.00,0.0026
3400.00,0.0026
3399.00,0.0026
3398.00,0.0026
3397.00,0.0026
3396.00,0.0026
3395.00,0.0026
3394.00,0.0026
3393.00,0.0026
3392.00,0.0026
3391.00,0.0026
3390.00,0.0026
3389.00,0.0026
3388.00,0.0026
3387.00,0.0026
3386.00,0.0026
3385.00,0.0026
3384.00,0.0027
3383.00,0.0027
3382.00,0.0027
3381.00,0.0027
3380.00,0.0026
3379.00,0.0026
3378.00,0.0026
3377.00,0.0026
3376.00,0.0026
3375.00,0.0026
3374.00,0.0026
3373.00,0.0026
3372.00,0.0027
3371.00,0.0027
3370.00,0.0027
3369.00,0.0027
3368.00,0.0027
3367.00,0.0027
3366.00,0.0027
3365.00,0.0027
3364.00,0.0027
3363.00,0.0027
3362.00,0.0028
3361.00,0.0028
3360.00,0.0028
3359.00,0.0027
3358.00,0.0027
3357.00,0.0027
3356.00,0.0027
3355.00,0.0027
3354.00,0.0027
3353.00,0.0027
3352.00,0.0027
3351.00,0.0027
3350.00,0.0027
3349.00,0.0027
3348.00,0.0027
3347.00,0.0027
3346.00,0.0027
3345.00,0.0027
3344.00,0.0027
3343.00,0.0027
3342.00,0.0027
3341.00,0.0027
3340.00,0.0027
3339.00,0.0027
3338.00,0.0027
3337.00,0.0027
3336.00,0.0027
3335.00,0.0027
3334.00,0.0027
3333.00,0.0026
3332.00,0.0026
3331.00,0.0026
3330.00,0.0026
3329.00,0.0026
3328.00,0.0026
3327.00,0.0026
3326.00,0.0026
3325.00,0.0026
3324.00,0.0025
3323.00,0.0025
3322.00,0.0025
3321.00,0.0025
3320.00,0.0025
3319.00,0.0025
3318.00,0.0025
3317.00,0.0025
3316.00,0.0025
3315.00,0.0026
3314.00,0.0026
3313.00,0.0026
3312.00,0.0025
3311.00,0.0025
3310.00,0.0024
3309.00,0.0024
3308.00,0.0024
3307.00,0.0025
3306.00,0.0025
3305.00,0.0026
3304.00,0.0026
3303.00,0.0026
3302.00,0.0026
3301.00,0.0025
3300.00,0.0025
3299.00,0.0025
3298.00,0.0026
3297.00,0.0026
3296.00,0.0026
3295.00,0.0026
3294.00,0.0026
3293.00,0.0026
3292.00,0.0026
3291.00,0.0025
3290.00,0.0025
3289.00,0.0025
3288.00,0.0025
3287.00,0.0025
3286.00,0.0025
3285.00,0.0025
3284.00,0.0025
3283.00,0.0025
3282.00,0.0025
3281.00,0.0024
3280.00,0.0024
3279.00,0.0024
3278.00,0.0024
3277.00,0.0024
3276.00,0.0024
3275.00,0.0024
3274.00,0.0024
3273.00,0.0024
3272.00,0.0024
3271.00,0.0024
3270.00,0.0024
3269.00,0.0024
3268.00,0.0024
3267.00,0.0024
3266.00,0.0024
3265.00,0.0024
3264.00,0.0024
3263.00,0.0024
3262.00,0.0023
3261.00,0.0023
3260.00,0.0024
3259.00,0.0024
3258.00,0.0023
3257.00,0.0023
3256.00,0.0023
3255.00,0.0023
3254.00,0.0023
3253.00,0.0023
3252.00,0.0024
3251.00,0.0024
3250.00,0.0024
3249.00,0.0024
3248.00,0.0024
3247.00,0.0024
3246.00,0.0024
3245.00,0.0024
3244.00,0.0024
3243.00,0.0023
3242.00,0.0023
3241.00,0.0023
3240.00,0.0024
3239.00,0.0024
3238.00,0.0024
3237.00,0.0024
3236.00,0.0024
3235.00,0.0024
3234.00,0.0025
3233.00,0.0025
3232.00,0.0025
3231.00,0.0025
3230.00,0.0025
3229.00,0.0025
3228.00,0.0026
3227.00,0.0026
3226.00,0.0027
3225.00,0.0027
3224.00,0.0027
3223.00,0.0027
3222.00,0.0027
3221.00,0.0027
3220.00,0.0027
3219.00,0.0028
3218.00,0.0028
3217.00,0.0029
3216.00,0.0029
3215.00,0.0030
3214.00,0.0030
3213.00,0.0031
3212.00,0.0031
3211.00,0.0031
3210.00,0.0031
3209.00,0.0031
3208.00,0.0031
3207.00,0.0031
3206.00,0.0031
3205.00,0.0031
3204.00,0.0031
3203.00,0.0031
3202.00,0.0031
3201.00,0.0031
3200.00,0.0032
3199.00,0.0032
3198.00,0.0032
3197.00,0.0032
3196.00,0.0032
3195.00,0.0032
3194.00,0.0032
3193.00,0.0032
3192.00,0.0031
3191.00,0.0031
3190.00,0.0030
3189.00,0.0030
3188.00,0.0030
3187.00,0.0030
3186.00,0.0030
3185.00,0.0030
3184.00,0.0030
3183.00,0.0030
3182.00,0.0030
3181.00,0.0030
3180.00,0.0030
3179.00,0.0030
3178.00,0.0030
3177.00,0.0030
3176.00,0.0030
3175.00,0.0029
3174.00,0.0029
3173.00,0.0028
3172.00,0.0028
3171.00,0.0028
3170.00,0.0028
3169.00,0.0028
3168.00,0.0028
3167.00,0.0028
3166.00,0.0028
3165.00,0.0028
3164.00,0.0028
3163.00,0.0028
3162.00,0.0028
3161.00,0.0028
3160.00,0.0028
3159.00,0.0027
3158.00,0.0027
3157.00,0.0027
3156.00,0.0027
3155.00,0.0027
3154.00,0.0027
3153.00,0.0027
3152.00,0.0027
3151.00,0.0027
3150.00,0.0027
3149.00,0.0028
3148.00,0.0028
3147.00,0.0028
3146.00,0.0028
3145.00,0.0027
3144.00,0.0027
3143.00,0.0027
3142.00,0.0027
3141.00,0.0027
3140.00,0.0027
3139.00,0.0027
3138.00,0.0027
3137.00,0.0028
3136.00,0.0027
3135.00,0.0027
3134.00,0.0026
3133.00,0.0026
3132.00,0.0026
3131.00,0.0026
3130.00,0.0026
3129.00,0.0026
3128.00,0.0026
3127.00,0.0026
3126.00,0.0026
3125.00,0.0026
3124.00,0.0025
3123.00,0.0025
3122.00,0.0025
3121.00,0.0025
3120.00,0.0025
3119.00,0.0025
3118.00,0.0025
3117.00,0.0025
3116.00,0.0025
3115.00,0.0025
3114.00,0.0025
3113.00,0.0025
3112.00,0.0024
3111.00,0.0024
3110.00,0.0024
3109.00,0.0024
3108.00,0.0024
3107.00,0.0024
3106.00,0.0024
3105.00,0.0024
3104.00,0.0024
3103.00,0.0024
3102.00,0.0024
3101.00,0.0024
3100.00,0.0024
3099.00,0.0024
3098.00,0.0024
3097.00,0.0024
3096.00,0.0024
3095.00,0.0024
3094.00,0.0024
3093.00,0.0024
3092.00,0.0024
3091.00,0.0024
3090.00,0.0024
3089.00,0.0024
3088.00,0.0024
3087.00,0.0024
3086.00,0.0024
3085.00,0.0024
3084.00,0.0024
3083.00,0.0024
3082.00,0.0024
3081.00,0.0024
3080.00,0.0024
3079.00,0.0024
3078.00,0.0024
3077.00,0.0024
3076.00,0.0024
3075.00,0.0024
3074.00,0.0024
3073.00,0.0024
3072.00,0.0024
3071.00,0.0024
3070.00,0.0024
3069.00,0.0024
3068.00,0.0024
3067.00,0.0024
3066.00,0.0024
3065.00,0.0024
3064.00,0.0025
3063.00,0.0025
3062.00,0.0026
3061.00,0.0026
3060.00,0.0026
3059.00,0.0026
3058.00,0.0027
3057.00,0.0027
3056.00,0.0027
3055.00,0.0027
3054.00,0.0027
3053.00,0.0027
3052.00,0.0027
3051.00,0.0028
3050.00,0.0028
3049.00,0.0028
3048.00,0.0029
3047.00,0.0029
3046.00,0.0029
3045.00,0.0029
3044.00,0.0029
3043.00,0.0029
3042.00,0.0030
3041.00,0.0030
3040.00,0.0031
3039.00,0.0031
3038.00,0.0031
3037.00,0.0032
3036.00,0.0032
3035.00,0.0032
3034.00,0.0033
3033.00,0.0033
3032.00,0.0034
3031.00,0.0034
3030.00,0.0034
3029.00,0.0035
3028.00,0.0036
3027.00,0.0037
3026.00,0.0038
3025.00,0.0039
3024.00,0.0041
3023.00,0.0043
3022.00,0.0045
3021.00,0.0047
3020.00,0.0049
3019.00,0.0051
3018.00,0.0054
3017.00,0.0057
3016.00,0.0060
3015.00,0.0065
3014.00,0.0069
3013.00,0.0075
3012.00,0.0082
3011.00,0.0089
3010.00,0.0097
3009.00,0.0106
3008.00,0.0116
3007.00,0.0126
3006.00,0.0136
3005.00,0.0147
3004.00,0.0158
3003.00,0.0169
3002.00,0.0180
3001.00,0.0191
3000.00,0.0202
2999.00,0.0213
2998.00,0.0223
2997.00,0.0232
2996.00,0.0242
2995.00,0.0251
2994.00,0.0260
2993.00,0.0270
2992.00,0.0279
2991.00,0.0289
2990.00,0.0299
2989.00,0.0310
2988.00,0.0324
2987.00,0.0342
2986.00,0.0367
2985.00,0.0400
2984.00,0.0440
2983.00,0.0481
2982.00,0.0515
2981.00,0.0537
2980.00,0.0549
2979.00,0.0556
2978.00,0.0566
2977.00,0.0582
2976.00,0.0606
2975.00,0.0640
2974.00,0.0685
2973.00,0.0739
2972.00,0.0798
2971.00,0.0859
2970.00,0.0921
2969.00,0.0987
2968.00,0.1061
2967.00,0.1144
2966.00,0.1234
2965.00,0.1329
2964.00,0.1424
2963.00,0.1514
2962.00,0.1594
2961.00,0.1661
2960.00,0.1713
2959.00,0.1752
2958.00,0.1781
2957.00,0.1808
2956.00,0.1836
2955.00,0.1870
2954.00,0.1910
2953.00,0.1951
2952.00,0.1984
2951.00,0.2000
2950.00,0.1988
2949.00,0.1944
2948.00,0.1866
2947.00,0.1760
2946.00,0.1635
2945.00,0.1506
2944.00,0.1385
2943.00,0.1280
2942.00,0.1199
2941.00,0.1143
2940.00,0.1110
2939.00,0.1099
2938.00,0.1107
2937.00,0.1132
2936.00,0.1173
2935.00,0.1230
2934.00,0.1299
2933.00,0.1381
2932.00,0.1471
2931.00,0.1568
2930.00,0.1669
2929.00,0.1772
2928.00,0.1873
2927.00,0.1971
2926.00,0.2065
2925.00,0.2154
2924.00,0.2239
2923.00,0.2323
2922.00,0.2404
2921.00,0.2481
2920.00,0.2547
2919.00,0.2595
2918.00,0.2617
2917.00,0.2608
2916.00,0.2568
2915.00,0.2502
2914.00,0.2419
2913.00,0.2330
2912.00,0.2243
2911.00,0.2165
2910.00,0.2095
2909.00,0.2034
2908.00,0.1977
2907.00,0.1923
2906.00,0.1868
2905.00,0.1810
2904.00,0.1750
2903.00,0.1687
2902.00,0.1624
2901.00,0.1561
2900.00,0.1499
2899.00,0.1441
2898.00,0.1386
2897.00,0.1336
2896.00,0.1291
2895.00,0.1252
2894.00,0.1219
2893.00,0.1193
2892.00,0.1172
2891.00,0.1156
2890.00,0.1144
2889.00,0.1136
2888.00,0.1131
2887.00,0.1129
2886.00,0.1131
2885.00,0.1137
2884.00,0.1145
2883.00,0.1156
2882.00,0.1169
2881.00,0.1183
2880.00,0.1197
2879.00,0.1207
2878.00,0.1212
2877.00,0.1210
2876.00,0.1203
2875.00,0.1193
2874.00,0.1186
2873.00,0.1184
2872.00,0.1190
2871.00,0.1202
2870.00,0.1217
2869.00,0.1230
2868.00,0.1236
2867.00,0.1226
2866.00,0.1196
2865.00,0.1144
2864.00,0.1076
2863.00,0.0999
2862.00,0.0923
2861.00,0.0856
2860.00,0.0803
2859.00,0.0765
2858.00,0.0741
2857.00,0.0729
2856.00,0.0727
2855.00,0.0733
2854.00,0.0744
2853.00,0.0760
2852.00,0.0777
2851.00,0.0794
2850.00,0.0810
2849.00,0.0826
2848.00,0.0843
2847.00,0.0865
2846.00,0.0895
2845.00,0.0935
2844.00,0.0985
2843.00,0.1042
2842.00,0.1101
2841.00,0.1156
2840.00,0.1199
2839.00,0.1223
2838.00,0.1221
2837.00,0.1187
2836.00,0.1124
2835.00,0.1036
2834.00,0.0933
2833.00,0.0826
2832.00,0.0724
2831.00,0.0633
2830.00,0.0557
2829.00,0.0494
2828.00,0.0442
2827.00,0.0401
2826.00,0.0367
2825.00,0.0339
2824.00,0.0316
2823.00,0.0296
2822.00,0.0279
2821.00,0.0264
2820.00,0.0252
2819.00,0.0241
2818.00,0.0231
2817.00,0.0222
2816.00,0.0215
2815.00,0.0208
2814.00,0.0202
2813.00,0.0196
2812.00,0.0190
2811.00,0.0185
2810.00,0.0179
2809.00,0.0174
2808.00,0.0168
2807.00,0.0162
2806.00,0.0156
2805.00,0.0149
2804.00,0.0143
2803.00,0.0137
2802.00,0.0133
2801.00,0.0129
2800.00,0.0125
2799.00,0.0122
2798.00,0.0120
2797.00,0.0117
2796.00,0.0115
2795.00,0.0112
2794.00,0.0110
2793.00,0.0107
2792.00,0.0104
2791.00,0.0101
2790.00,0.0097
2789.00,0.0094
2788.00,0.0091
2787.00,0.0087
2786.00,0.0084
2785.00,0.0081
2784.00,0.0079
2783.00,0.0076
2782.00,0.0074
2781.00,0.0072
2780.00,0.0071
2779.00,0.0069
2778.00,0.0068
2777.00,0.0066
2776.00,0.0065
2775.00,0.0064
2774.00,0.0063
2773.00,0.0062
2772.00,0.0062
2771.00,0.0061
2770.00,0.0061
2769.00,0.0061
2768.00,0.0061
2767.00,0.0061
2766.00,0.0060
2765.00,0.0060
2764.00,0.0060
2763.00,0.0059
2762.00,0.0059
2761.00,0.0059
2760.00,0.0058
2759.00,0.0058
2758.00,0.0057
2757.00,0.0056
2756.00,0.0056
2755.00,0.0056
2754.00,0.0056
2753.00,0.0056
2752.00,0.0056
2751.00,0.0056
2750.00,0.0056
2749.00,0.0055
2748.00,0.0055
2747.00,0.0055
2746.00,0.0055
2745.00,0.0056
2744.00,0.0057
2743.00,0.0058
2742.00,0.0059
2741.00,0.0060
2740.00,0.0061
2739.00,0.0063
2738.00,0.0064
2737.00,0.0065
2736.00,0.0066
2735.00,0.0068
2734.00,0.0069
2733.00,0.0070
2732.00,0.0072
2731.00,0.0073
2730.00,0.0076
2729.00,0.0078
2728.00,0.0080
2727.00,0.0083
2726.00,0.0086
2725.00,0.0088
2724.00,0.0089
2723.00,0.0090
2722.00,0.0089
2721.00,0.0087
2720.00,0.0084
2719.00,0.0081
2718.00,0.0078
2717.00,0.0075
2716.00,0.0072
2715.00,0.0070
2714.00,0.0067
2713.00,0.0065
2712.00,0.0063
2711.00,0.0061
2710.00,0.0059
2709.00,0.0058
2708.00,0.0056
2707.00,0.0055
2706.00,0.0054
2705.00,0.0053
2704.00,0.0052
2703.00,0.0052
2702.00,0.0051
2701.00,0.0050
2700.00,0.0050
2699.00,0.0049
2698.00,0.0049
2697.00,0.0049
2696.00,0.0049
2695.00,0.0049
2694.00,0.0049
2693.00,0.0048
2692.00,0.0049
2691.00,0.0049
2690.00,0.0049
2689.00,0.0049
2688.00,0.0049
2687.00,0.0049
2686.00,0.0049
2685.00,0.0049
2684.00,0.0049
2683.00,0.0049
2682.00,0.0049
2681.00,0.0050
2680.00,0.0050
2679.00,0.0050
2678.00,0.0050
2677.00,0.0050
2676.00,0.0050
2675.00,0.0050
2674.00,0.0050
2673.00,0.0050
2672.00,0.0050
2671.00,0.0050
2670.00,0.0050
2669.00,0.0050
2668.00,0.0050
2667.00,0.0051
2666.00,0.0051
2665.00,0.0052
2664.00,0.0052
2663.00,0.0053
2662.00,0.0053
2661.00,0.0054
2660.00,0.0054
2659.00,0.0054
2658.00,0.0054
2657.00,0.0054
2656.00,0.0053
2655.00,0.0053
2654.00,0.0052
2653.00,0.0051
2652.00,0.0051
2651.00,0.0050
2650.00,0.0050
2649.00,0.0050
2648.00,0.0049
2647.00,0.0049
2646.00,0.0048
2645.00,0.0047
2644.00,0.0047
2643.00,0.0046
2642.00,0.0046
2641.00,0.0046
2640.00,0.0045
2639.00,0.0045
2638.00,0.0045
2637.00,0.0044
2636.00,0.0044
2635.00,0.0043
2634.00,0.0043
2633.00,0.0043
2632.00,0.0043
2631.00,0.0043
2630.00,0.0043
2629.00,0.0043
2628.00,0.0043
2627.00,0.0043
2626.00,0.0043
2625.00,0.0043
2624.00,0.0044
2623.00,0.0044
2622.00,0.0044
2621.00,0.0044
2620.00,0.0044
2619.00,0.0044
2618.00,0.0044
2617.00,0.0043
2616.00,0.0043
2615.00,0.0043
2614.00,0.0043
2613.00,0.0043
2612.00,0.0043
2611.00,0.0042
2610.00,0.0041
2609.00,0.0040
2608.00,0.0039
2607.00,0.0038
2606.00,0.0038
2605.00,0.0037
2604.00,0.0037
2603.00,0.0037
2602.00,0.0036
2601.00,0.0036
2600.00,0.0035
2599.00,0.0034
2598.00,0.0034
2597.00,0.0034
2596.00,0.0034
2595.00,0.0034
2594.00,0.0034
2593.00,0.0034
2592.00,0.0034
2591.00,0.0034
2590.00,0.0035
2589.00,0.0036
2588.00,0.0037
2587.00,0.0038
2586.00,0.0039
2585.00,0.0039
2584.00,0.0039
2583.00,0.0039
2582.00,0.0039
2581.00,0.0039
2580.00,0.0039
2579.00,0.0039
2578.00,0.0038
2577.00,0.0037
2576.00,0.0035
2575.00,0.0034
2574.00,0.0032
2573.00,0.0031
2572.00,0.0031
2571.00,0.0030
2570.00,0.0029
2569.00,0.0028
2568.00,0.0027
2567.00,0.0027
2566.00,0.0026
2565.00,0.0026
2564.00,0.0025
2563.00,0.0025
2562.00,0.0025
2561.00,0.0025
2560.00,0.0024
2559.00,0.0025
2558.00,0.0025
2557.00,0.0025
2556.00,0.0025
2555.00,0.0025
2554.00,0.0024
2553.00,0.0023
2552.00,0.0022
2551.00,0.0022
2550.00,0.0021
2549.00,0.0021
2548.00,0.0021
2547.00,0.0021
2546.00,0.0020
2545.00,0.0020
2544.00,0.0020
2543.00,0.0020
2542.00,0.0020
2541.00,0.0019
2540.00,0.0019
2539.00,0.0019
2538.00,0.0019
2537.00,0.0019
2536.00,0.0020
2535.00,0.0020
2534.00,0.0021
2533.00,0.0020
2532.00,0.0019
2531.00,0.0018
2530.00,0.0017
2529.00,0.0017
2528.00,0.0017
2527.00,0.0017
2526.00,0.0017
2525.00,0.0016
2524.00,0.0016
2523.00,0.0016
2522.00,0.0016
2521.00,0.0016
2520.00,0.0015
2519.00,0.0015
2518.00,0.0015
2517.00,0.0015
2516.00,0.0015
2515.00,0.0014
2514.00,0.0014
2513.00,0.0014
2512.00,0.0015
2511.00,0.0015
2510.00,0.0015
2509.00,0.0014
2508.00,0.0013
2507.00,0.0012
2506.00,0.0012
2505.00,0.0012
2504.00,0.0012
2503.00,0.0012
2502.00,0.0012
2501.00,0.0012
2500.00,0.0012
2499.00,0.0013
2498.00,0.0013
2497.00,0.0013
2496.00,0.0014
2495.00,0.0014
2494.00,0.0014
2493.00,0.0013
2492.00,0.0013
2491.00,0.0013
2490.00,0.0013
2489.00,0.0013
2488.00,0.0012
2487.00,0.0012
2486.00,0.0012
2485.00,0.0012
2484.00,0.0012
2483.00,0.0012
2482.00,0.0013
2481.00,0.0013
2480.00,0.0013
2479.00,0.0012
2478.00,0.0012
2477.00,0.0012
2476.00,0.0011
2475.00,0.0011
2474.00,0.0010
2473.00,0.0011
2472.00,0.0011
2471.00,0.0011
2470.00,0.0012
2469.00,0.0012
2468.00,0.0012
2467.00,0.0011
2466.00,0.0011
2465.00,0.0011
2464.00,0.0012
2463.00,0.0012
2462.00,0.0012
2461.00,0.0011
2460.00,0.0011
2459.00,0.0012
2458.00,0.0012
2457.00,0.0013
2456.00,0.0013
2455.00,0.0013
2454.00,0.0012
2453.00,0.0012
2452.00,0.0011
2451.00,0.0011
2450.00,0.0012
2449.00,0.0012
2448.00,0.0012
2447.00,0.0012
2446.00,0.0012
2445.00,0.0011
2444.00,0.0011
2443.00,0.0011
2442.00,0.0011
2441.00,0.0012
2440.00,0.0012
2439.00,0.0012
2438.00,0.0013
2437.00,0.0013
2436.00,0.0013
2435.00,0.0013
2434.00,0.0013
2433.00,0.0014
2432.00,0.0013
2431.00,0.0013
2430.00,0.0013
2429.00,0.0013
2428.00,0.0013
2427.00,0.0013
2426.00,0.0014
2425.00,0.0014
2424.00,0.0014
2423.00,0.0014
2422.00,0.0014
2421.00,0.0013
2420.00,0.0013
2419.00,0.0013
2418.00,0.0012
2417.00,0.0012
2416.00,0.0012
2415.00,0.0012
2414.00,0.0012
2413.00,0.0012
2412.00,0.0011
2411.00,0.0011
2410.00,0.0011
2409.00,0.0011
2408.00,0.0010
2407.00,0.0010
2406.00,0.0010
2405.00,0.0010
2404.00,0.0010
2403.00,0.0011
2402.00,0.0011
2401.00,0.0011
2400.00,0.0011
2399.00,0.0011
2398.00,0.0010
2397.00,0.0010
2396.00,0.0009
2395.00,0.0009
2394.00,0.0008
2393.00,0.0009
2392.00,0.0009
2391.00,0.0010
2390.00,0.0010
2389.00,0.0010
2388.00,0.0010
2387.00,0.0009
2386.00,0.0009
2385.00,0.0008
2384.00,0.0007
2383.00,0.0006
2382.00,0.0006
2381.00,0.0005
2380.00,0.0005
2379.00,0.0005
2378.00,0.0005
2377.00,0.0006
2376.00,0.0006
2375.00,0.0006
2374.00,0.0005
2373.00,0.0005
2372.00,0.0004
2371.00,0.0004
2370.00,0.0004
2369.00,0.0004
2368.00,0.0005
2367.00,0.0005
2366.00,0.0005
2365.00,0.0005
2364.00,0.0005
2363.00,0.0004
2362.00,0.0005
2361.00,0.0005
2360.00,0.0006
2359.00,0.0007
2358.00,0.0007
2357.00,0.0007
2356.00,0.0007
2355.00,0.0006
2354.00,0.0006
2353.00,0.0006
2352.00,0.0006
2351.00,0.0006
2350.00,0.0006
2349.00,0.0007
2348.00,0.0007
2347.00,0.0007
2346.00,0.0007
2345.00,0.0008
2344.00,0.0008
2343.00,0.0007
2342.00,0.0007
2341.00,0.0008
2340.00,0.0008
2339.00,0.0009
2338.00,0.0010
2337.00,0.0010
2336.00,0.0010
2335.00,0.0010
2334.00,0.0010
2333.00,0.0009
2332.00,0.0009
2331.00,0.0009
2330.00,0.0009
2329.00,0.0010
2328.00,0.0012
2327.00,0.0015
2326.00,0.0019
2325.00,0.0022
2324.00,0.0024
2323.00,0.0023
2322.00,0.0022
2321.00,0.0020
2320.00,0.0018
2319.00,0.0017
2318.00,0.0016
2317.00,0.0015
2316.00,0.0014
2315.00,0.0014
2314.00,0.0014
2313.00,0.0014
2312.00,0.0015
2311.00,0.0014
2310.00,0.0014
2309.00,0.0013
2308.00,0.0013
2307.00,0.0013
2306.00,0.0014
2305.00,0.0014
2304.00,0.0014
2303.00,0.0014
2302.00,0.0014
2301.00,0.0015
2300.00,0.0016
2299.00,0.0016
2298.00,0.0016
2297.00,0.0016
2296.00,0.0016
2295.00,0.0016
2294.00,0.0017
2293.00,0.0017
2292.00,0.0018
2291.00,0.0020
2290.00,0.0020
2289.00,0.0021
2288.00,0.0021
2287.00,0.0021
2286.00,0.0021
2285.00,0.0021
2284.00,0.0021
2283.00,0.0020
2282.00,0.0019
2281.00,0.0018
2280.00,0.0017
2279.00,0.0016
2278.00,0.0015
2277.00,0.0015
2276.00,0.0014
2275.00,0.0014
2274.00,0.0013
2273.00,0.0013
2272.00,0.0013
2271.00,0.0014
2270.00,0.0015
2269.00,0.0015
2268.00,0.0014
2267.00,0.0013
2266.00,0.0011
2265.00,0.0011
2264.00,0.0011
2263.00,0.0011
2262.00,0.0012
2261.00,0.0012
2260.00,0.0013
2259.00,0.0013
2258.00,0.0013
2257.00,0.0012
2256.00,0.0011
2255.00,0.0010
2254.00,0.0009
2253.00,0.0010
2252.00,0.0012
2251.00,0.0014
2250.00,0.0015
2249.00,0.0014
2248.00,0.0013
2247.00,0.0011
2246.00,0.0010
2245.00,0.0009
2244.00,0.0008
2243.00,0.0008
2242.00,0.0009
2241.00,0.0010
2240.00,0.0009
2239.00,0.0008
2238.00,0.0007
2237.00,0.0008
2236.00,0.0009
2235.00,0.0011
2234.00,0.0012
2233.00,0.0012
2232.00,0.0012
2231.00,0.0011
2230.00,0.0010
2229.00,0.0009
2228.00,0.0008
2227.00,0.0008
2226.00,0.0008
2225.00,0.0009
2224.00,0.0010
2223.00,0.0010
2222.00,0.0010
2221.00,0.0009
2220.00,0.0009
2219.00,0.0008
2218.00,0.0007
2217.00,0.0007
2216.00,0.0007
2215.00,0.0008
2214.00,0.0007
2213.00,0.0007
2212.00,0.0005
2211.00,0.0004
2210.00,0.0003
2209.00,0.0003
2208.00,0.0004
2207.00,0.0005
2206.00,0.0007
2205.00,0.0007
2204.00,0.0006
2203.00,0.0005
2202.00,0.0005
2201.00,0.0006
2200.00,0.0007
2199.00,0.0006
2198.00,0.0006
2197.00,0.0005
2196.00,0.0007
2195.00,0.0008
2194.00,0.0009
2193.00,0.0009
2192.00,0.0009
2191.00,0.0008
2190.00,0.0009
2189.00,0.0010
2188.00,0.0012
2187.00,0.0012
2186.00,0.0011
2185.00,0.0009
2184.00,0.0007
2183.00,0.0006
2182.00,0.0004
2181.00,0.0003
2180.00,0.0002
2179.00,0.0002
2178.00,0.0003
2177.00,0.0003
2176.00,0.0002
2175.00,-0.0000
2174.00,-0.0002
2173.00,-0.0001
2172.00,0.0003
2171.00,0.0008
2170.00,0.0012
2169.00,0.0014
2168.00,0.0015
2167.00,0.0016
2166.00,0.0016
2165.00,0.0015
2164.00,0.0013
2163.00,0.0014
2162.00,0.0015
2161.00,0.0012
2160.00,0.0002
2159.00,-0.0014
2158.00,-0.0028
2157.00,-0.0035
2156.00,-0.0033
2155.00,-0.0029
2154.00,-0.0024
2153.00,-0.0020
2152.00,-0.0017
2151.00,-0.0015
2150.00,-0.0013
2149.00,-0.0011
2148.00,-0.0011
2147.00,-0.0012
2146.00,-0.0013
2145.00,-0.0013
2144.00,-0.0011
2143.00,-0.0010
2142.00,-0.0009
2141.00,-0.0009
2140.00,-0.0008
2139.00,-0.0008
2138.00,-0.0008
2137.00,-0.0009
2136.00,-0.0011
2135.00,-0.0014
2134.00,-0.0016
2133.00,-0.0016
2132.00,-0.0016
2131.00,-0.0015
2130.00,-0.0014
2129.00,-0.0013
2128.00,-0.0012
2127.00,-0.0010
2126.00,-0.0008
2125.00,-0.0007
2124.00,-0.0005
2123.00,-0.0005
2122.00,-0.0004
2121.00,-0.0004
2120.00,-0.0005
2119.00,-0.0004
2118.00,-0.0003
2117.00,-0.0002
2116.00,-0.0000
2115.00,0.0001
2114.00,0.0002
2113.00,0.0003
2112.00,0.0003
2111.00,0.0003
2110.00,0.0003
2109.00,0.0003
2108.00,0.0003
2107.00,0.0003
2106.00,0.0003
2105.00,0.0004
2104.00,0.0004
2103.00,0.0005
2102.00,0.0005
2101.00,0.0005
2100.00,0.0004
2099.00,0.0003
2098.00,0.0000
2097.00,-0.0002
2096.00,-0.0004
2095.00,-0.0006
2094.00,-0.0007
2093.00,-0.0007
2092.00,-0.0005
2091.00,-0.0003
2090.00,-0.0002
2089.00,-0.0001
2088.00,0.0000
2087.00,0.0002
2086.00,0.0003
2085.00,0.0004
2084.00,0.0005
2083.00,0.0004
2082.00,0.0005
2081.00,0.0005
2080.00,0.0005
2079.00,0.0004
2078.00,0.0003
2077.00,0.0003
2076.00,0.0003
2075.00,0.0003
2074.00,0.0003
2073.00,0.0003
2072.00,0.0002
2071.00,0.0002
2070.00,0.0002
2069.00,0.0002
2068.00,0.0001
2067.00,-0.0001
2066.00,-0.0002
2065.00,-0.0002
2064.00,-0.0000
2063.00,0.0001
2062.00,0.0002
2061.00,0.0002
2060.00,0.0002
2059.00,0.0001
2058.00,0.0001
2057.00,0.0002
2056.00,0.0002
2055.00,0.0002
2054.00,0.0002
2053.00,0.0005
2052.00,0.0009
2051.00,0.0013
2050.00,0.0015
2049.00,0.0014
2048.00,0.0012
2047.00,0.0010
2046.00,0.0009
2045.00,0.0008
2044.00,0.0008
2043.00,0.0006
2042.00,0.0002
2041.00,-0.0002
2040.00,-0.0003
2039.00,-0.0002
2038.00,-0.0001
2037.00,-0.0000
2036.00,-0.0001
2035.00,-0.0003
2034.00,-0.0003
2033.00,-0.0003
2032.00,-0.0002
2031.00,-0.0004
2030.00,-0.0005
2029.00,-0.0006
2028.00,-0.0005
2027.00,-0.0006
2026.00,-0.0006
2025.00,-0.0006
2024.00,-0.0006
2023.00,-0.0007
2022.00,-0.0009
2021.00,-0.0011
2020.00,-0.0011
2019.00,-0.0010
2018.00,-0.0009
2017.00,-0.0007
2016.00,-0.0006
2015.00,-0.0006
2014.00,-0.0007
2013.00,-0.0006
2012.00,-0.0004
2011.00,-0.0002
2010.00,0.0000
2009.00,-0.0000
2008.00,-0.0003
2007.00,-0.0007
2006.00,-0.0010
2005.00,-0.0011
2004.00,-0.0010
2003.00,-0.0008
2002.00,-0.0008
2001.00,-0.0008
2000.00,-0.0009
1999.00,-0.0012
1998.00,-0.0014
1997.00,-0.0016
1996.00,-0.0016
1995.00,-0.0015
1994.00,-0.0014
1993.00,-0.0012
1992.00,-0.0010
1991.00,-0.0009
1990.00,-0.0007
1989.00,-0.0004
1988.00,-0.0001
1987.00,0.0001
1986.00,0.0003
1985.00,0.0006
1984.00,0.0008
1983.00,0.0010
1982.00,0.0010
1981.00,0.0008
1980.00,0.0005
1979.00,-0.0001
1978.00,-0.0008
1977.00,-0.0013
1976.00,-0.0015
1975.00,-0.0015
1974.00,-0.0014
1973.00,-0.0013
1972.00,-0.0012
1971.00,-0.0012
1970.00,-0.0013
1969.00,-0.0013
1968.00,-0.0011
1967.00,-0.0010
1966.00,-0.0011
1965.00,-0.0013
1964.00,-0.0016
1963.00,-0.0020
1962.00,-0.0022
1961.00,-0.0022
1960.00,-0.0020
1959.00,-0.0017
1958.00,-0.0015
1957.00,-0.0015
1956.00,-0.0014
1955.00,-0.0014
1954.00,-0.0014
1953.00,-0.0014
1952.00,-0.0014
1951.00,-0.0013
1950.00,-0.0013
1949.00,-0.0013
1948.00,-0.0014
1947.00,-0.0016
1946.00,-0.0017
1945.00,-0.0018
1944.00,-0.0017
1943.00,-0.0015
1942.00,-0.0014
1941.00,-0.0012
1940.00,-0.0011
1939.00,-0.0011
1938.00,-0.0012
1937.00,-0.0013
1936.00,-0.0012
1935.00,-0.0011
1934.00,-0.0009
1933.00,-0.0008
1932.00,-0.0007
1931.00,-0.0008
1930.00,-0.0008
1929.00,-0.0009
1928.00,-0.0008
1927.00,-0.0008
1926.00,-0.0008
1925.00,-0.0009
1924.00,-0.0008
1923.00,-0.0006
1922.00,-0.0004
1921.00,-0.0002
1920.00,-0.0002
1919.00,-0.0003
1918.00,-0.0004
1917.00,-0.0004
1916.00,-0.0003
1915.00,-0.0002
1914.00,-0.0002
1913.00,-0.0003
1912.00,-0.0003
1911.00,-0.0003
1910.00,-0.0002
1909.00,-0.0001
1908.00,-0.0001
1907.00,-0.0001
1906.00,-0.0002
1905.00,-0.0002
1904.00,-0.0003
1903.00,-0.0004
1902.00,-0.0005
1901.00,-0.0005
1900.00,-0.0003
1899.00,-0.0001
1898.00,0.0002
1897.00,0.0003
1896.00,0.0002
1895.00,0.0001
1894.00,-0.0000
1893.00,-0.0001
1892.00,-0.0001
1891.00,-0.0001
1890.00,-0.0001
1889.00,-0.0001
1888.00,-0.0001
1887.00,-0.0001
1886.00,-0.0001
1885.00,-0.0002
1884.00,-0.0003
1883.00,-0.0003
1882.00,-0.0003
1881.00,-0.0003
1880.00,-0.0002
1879.00,-0.0002
1878.00,-0.0002
1877.00,-0.0001
1876.00,-0.0000
1875.00,0.0000
1874.00,-0.0000
1873.00,-0.0001
1872.00,-0.0002
1871.00,-0.0002
1870.00,-0.0002
1869.00,-0.0001
1868.00,0.0000
1867.00,0.0000
1866.00,0.0000
1865.00,-0.0000
1864.00,-0.0000
1863.00,0.0000
1862.00,0.0000
1861.00,0.0001
1860.00,0.0001
1859.00,0.0001
1858.00,0.0002
1857.00,0.0002
1856.00,0.0002
1855.00,0.0001
1854.00,0.0001
1853.00,0.0001
1852.00,0.0002
1851.00,0.0002
1850.00,0.0001
1849.00,0.0001
1848.00,0.0000
1847.00,0.0000
1846.00,0.0001
1845.00,0.0002
1844.00,0.0004
1843.00,0.0005
1842.00,0.0004
1841.00,0.0003
1840.00,0.0002
1839.00,0.0001
1838.00,0.0001
1837.00,0.0001
1836.00,0.0002
1835.00,0.0003
1834.00,0.0004
1833.00,0.0004
1832.00,0.0004
1831.00,0.0004
1830.00,0.0004
1829.00,0.0004
1828.00,0.0004
1827.00,0.0004
1826.00,0.0004
1825.00,0.0004
1824.00,0.0004
1823.00,0.0004
1822.00,0.0003
1821.00,0.0003
1820.00,0.0003
1819.00,0.0003
1818.00,0.0002
1817.00,0.0001
1816.00,0.0001
1815.00,0.0002
1814.00,0.0002
1813.00,0.0002
1812.00,0.0003
1811.00,0.0004
1810.00,0.0004
1809.00,0.0005
1808.00,0.0005
1807.00,0.0005
1806.00,0.0005
1805.00,0.0005
1804.00,0.0006
1803.00,0.0007
1802.00,0.0007
1801.00,0.0007
1800.00,0.0006
1799.00,0.0006
1798.00,0.0006
1797.00,0.0006
1796.00,0.0007
1795.00,0.0007
1794.00,0.0008
1793.00,0.0008
1792.00,0.0009
1791.00,0.0009
1790.00,0.0009
1789.00,0.0009
1788.00,0.0010
1787.00,0.0010
1786.00,0.0011
1785.00,0.0011
1784.00,0.0011
1783.00,0.0011
1782.00,0.0011
1781.00,0.0011
1780.00,0.0011
1779.00,0.0011
1778.00,0.0011
1777.00,0.0011
1776.00,0.0011
1775.00,0.0011
1774.00,0.0011
1773.00,0.0011
1772.00,0.0012
1771.00,0.0012
1770.00,0.0013
1769.00,0.0013
1768.00,0.0014
1767.00,0.0014
1766.00,0.0014
1765.00,0.0014
1764.00,0.0015
1763.00,0.0016
1762.00,0.0016
1761.00,0.0017
1760.00,0.0017
1759.00,0.0017
1758.00,0.0017
1757.00,0.0018
1756.00,0.0019
1755.00,0.0020
1754.00,0.0021
1753.00,0.0022
1752.00,0.0023
1751.00,0.0024
1750.00,0.0024
1749.00,0.0023
1748.00,0.0023
1747.00,0.0024
1746.00,0.0024
1745.00,0.0024
1744.00,0.0024
1743.00,0.0024
1742.00,0.0023
1741.00,0.0023
1740.00,0.0024
1739.00,0.0024
1738.00,0.0025
1737.00,0.0025
1736.00,0.0024
1735.00,0.0024
1734.00,0.0024
1733.00,0.0024
1732.00,0.0024
1731.00,0.0023
1730.00,0.0023
1729.00,0.0022
1728.00,0.0022
1727.00,0.0023
1726.00,0.0023
1725.00,0.0024
1724.00,0.0024
1723.00,0.0024
1722.00,0.0024
1721.00,0.0024
1720.00,0.0024
1719.00,0.0024
1718.00,0.0024
1717.00,0.0024
1716.00,0.0025
1715.00,0.0026
1714.00,0.0026
1713.00,0.0027
1712.00,0.0027
1711.00,0.0028
1710.00,0.0028
1709.00,0.0029
1708.00,0.0030
1707.00,0.0029
1706.00,0.0029
1705.00,0.0029
1704.00,0.0029
1703.00,0.0028
1702.00,0.0028
1701.00,0.0027
1700.00,0.0028
1699.00,0.0028
1698.00,0.0028
1697.00,0.0028
1696.00,0.0028
1695.00,0.0028
1694.00,0.0028
1693.00,0.0028
1692.00,0.0029
1691.00,0.0029
1690.00,0.0030
1689.00,0.0030
1688.00,0.0030
1687.00,0.0030
1686.00,0.0030
1685.00,0.0030
1684.00,0.0030
1683.00,0.0030
1682.00,0.0030
1681.00,0.0031
1680.00,0.0031
1679.00,0.0032
1678.00,0.0033
1677.00,0.0033
1676.00,0.0034
1675.00,0.0034
1674.00,0.0034
1673.00,0.0034
1672.00,0.0034
1671.00,0.0035
1670.00,0.0036
1669.00,0.0037
1668.00,0.0038
1667.00,0.0038
1666.00,0.0039
1665.00,0.0039
1664.00,0.0039
1663.00,0.0039
1662.00,0.0039
1661.00,0.0038
1660.00,0.0038
1659.00,0.0039
1658.00,0.0040
1657.00,0.0041
1656.00,0.0041
1655.00,0.0041
1654.00,0.0040
1653.00,0.0039
1652.00,0.0039
1651.00,0.0039
1650.00,0.0039
1649.00,0.0040
1648.00,0.0040
1647.00,0.0041
1646.00,0.0040
1645.00,0.0040
1644.00,0.0040
1643.00,0.0040
1642.00,0.0040
1641.00,0.0041
1640.00,0.0041
1639.00,0.0042
1638.00,0.0042
1637.00,0.0042
1636.00,0.0043
1635.00,0.0043
1634.00,0.0043
1633.00,0.0042
1632.00,0.0042
1631.00,0.0041
1630.00,0.0041
1629.00,0.0041
1628.00,0.0041
1627.00,0.0041
1626.00,0.0041
1625.00,0.0041
1624.00,0.0041
1623.00,0.0041
1622.00,0.0040
1621.00,0.0040
1620.00,0.0040
1619.00,0.0040
1618.00,0.0040
1617.00,0.0040
1616.00,0.0040
1615.00,0.0040
1614.00,0.0039
1613.00,0.0039
1612.00,0.0040
1611.00,0.0041
1610.00,0.0041
1609.00,0.0041
1608.00,0.0041
1607.00,0.0041
1606.00,0.0041
1605.00,0.0042
1604.00,0.0042
1603.00,0.0042
1602.00,0.0042
1601.00,0.0042
1600.00,0.0042
1599.00,0.0042
1598.00,0.0042
1597.00,0.0042
1596.00,0.0042
1595.00,0.0042
1594.00,0.0042
1593.00,0.0042
1592.00,0.0043
1591.00,0.0044
1590.00,0.0045
1589.00,0.0046
1588.00,0.0047
1587.00,0.0048
1586.00,0.0050
1585.00,0.0052
1584.00,0.0055
1583.00,0.0058
1582.00,0.0060
1581.00,0.0063
1580.00,0.0066
1579.00,0.0068
1578.00,0.0069
1577.00,0.0070
1576.00,0.0070
1575.00,0.0069
1574.00,0.0068
1573.00,0.0067
1572.00,0.0065
1571.00,0.0063
1570.00,0.0060
1569.00,0.0058
1568.00,0.0056
1567.00,0.0054
1566.00,0.0053
1565.00,0.0053
1564.00,0.0053
1563.00,0.0053
1562.00,0.0053
1561.00,0.0053
1560.00,0.0053
1559.00,0.0052
1558.00,0.0051
1557.00,0.0052
1556.00,0.0053
1555.00,0.0054
1554.00,0.0054
1553.00,0.0055
1552.00,0.0056
1551.00,0.0057
1550.00,0.0058
1549.00,0.0060
1548.00,0.0063
1547.00,0.0065
1546.00,0.0069
1545.00,0.0073
1544.00,0.0076
1543.00,0.0079
1542.00,0.0081
1541.00,0.0082
1540.00,0.0080
1539.00,0.0076
1538.00,0.0072
1537.00,0.0070
1536.00,0.0068
1535.00,0.0065
1534.00,0.0061
1533.00,0.0058
1532.00,0.0056
1531.00,0.0054
1530.00,0.0054
1529.00,0.0054
1528.00,0.0054
1527.00,0.0054
1526.00,0.0054
1525.00,0.0054
1524.00,0.0054
1523.00,0.0054
1522.00,0.0054
1521.00,0.0055
1520.00,0.0055
1519.00,0.0056
1518.00,0.0056
1517.00,0.0057
1516.00,0.0058
1515.00,0.0059
1514.00,0.0059
1513.00,0.0061
1512.00,0.0062
1511.00,0.0064
1510.00,0.0064
1509.00,0.0066
1508.00,0.0067
1507.00,0.0068
1506.00,0.0068
1505.00,0.0069
1504.00,0.0071
1503.00,0.0073
1502.00,0.0075
1501.00,0.0077
1500.00,0.0080
1499.00,0.0083
1498.00,0.0086
1497.00,0.0090
1496.00,0.0094
1495.00,0.0097
1494.00,0.0100
1493.00,0.0103
1492.00,0.0108
1491.00,0.0112
1490.00,0.0117
1489.00,0.0123
1488.00,0.0129
1487.00,0.0134
1486.00,0.0141
1485.00,0.0148
1484.00,0.0157
1483.00,0.0165
1482.00,0.0176
1481.00,0.0189
1480.00,0.0203
1479.00,0.0217
1478.00,0.0234
1477.00,0.0257
1476.00,0.0285
1475.00,0.0318
1474.00,0.0359
1473.00,0.0415
1472.00,0.0477
1471.00,0.0534
1470.00,0.0590
1469.00,0.0650
1468.00,0.0717
1467.00,0.0793
1466.00,0.0882
1465.00,0.0980
1464.00,0.1066
1463.00,0.1125
1462.00,0.1163
1461.00,0.1188
1460.00,0.1205
1459.00,0.1217
1458.00,0.1227
1457.00,0.1236
1456.00,0.1237
1455.00,0.1230
1454.00,0.1218
1453.00,0.1201
1452.00,0.1175
1451.00,0.1138
1450.00,0.1087
1449.00,0.1016
1448.00,0.0926
1447.00,0.0831
1446.00,0.0745
1445.00,0.0670
1444.00,0.0606
1443.00,0.0554
1442.00,0.0514
1441.00,0.0487
1440.00,0.0470
1439.00,0.0461
1438.00,0.0460
1437.00,0.0459
1436.00,0.0448
1435.00,0.0423
1434.00,0.0388
1433.00,0.0347
1432.00,0.0304
1431.00,0.0266
1430.00,0.0236
1429.00,0.0213
1428.00,0.0198
1427.00,0.0188
1426.00,0.0182
1425.00,0.0176
1424.00,0.0171
1423.00,0.0167
1422.00,0.0166
1421.00,0.0164
1420.00,0.0161
1419.00,0.0159
1418.00,0.0157
1417.00,0.0155
1416.00,0.0154
1415.00,0.0154
1414.00,0.0154
1413.00,0.0154
1412.00,0.0154
1411.00,0.0154
1410.00,0.0156
1409.00,0.0157
1408.00,0.0158
1407.00,0.0161
1406.00,0.0165
1405.00,0.0169
1404.00,0.0173
1403.00,0.0178
1402.00,0.0184
1401.00,0.0190
1400.00,0.0197
1399.00,0.0205
1398.00,0.0213
1397.00,0.0220
1396.00,0.0227
1395.00,0.0235
1394.00,0.0243
1393.00,0.0249
1392.00,0.0255
1391.00,0.0262
1390.00,0.0273
1389.00,0.0289
1388.00,0.0311
1387.00,0.0344
1386.00,0.0388
1385.00,0.0446
1384.00,0.0526
1383.00,0.0638
1382.00,0.0787
1381.00,0.0975
1380.00,0.1202
1379.00,0.1453
1378.00,0.1687
1377.00,0.1848
1376.00,0.1888
1375.00,0.1782
1374.00,0.1560
1373.00,0.1300
1372.00,0.1064
1371.00,0.0869
1370.00,0.0713
1369.00,0.0594
1368.00,0.0510
1367.00,0.0458
1366.00,0.0428
1365.00,0.0414
1364.00,0.0414
1363.00,0.0424
1362.00,0.0441
1361.00,0.0459
1360.00,0.0472
1359.00,0.0474
1358.00,0.0462
1357.00,0.0437
1356.00,0.0402
1355.00,0.0363
1354.00,0.0325
1353.00,0.0292
1352.00,0.0266
1351.00,0.0244
1350.00,0.0226
1349.00,0.0211
1348.00,0.0199
1347.00,0.0188
1346.00,0.0178
1345.00,0.0170
1344.00,0.0164
1343.00,0.0159
1342.00,0.0155
1341.00,0.0151
1340.00,0.0147
1339.00,0.0144
1338.00,0.0142
1337.00,0.0142
1336.00,0.0142
1335.00,0.0143
1334.00,0.0145
1333.00,0.0148
1332.00,0.0151
1331.00,0.0154
1330.00,0.0154
1329.00,0.0152
1328.00,0.0148
1327.00,0.0142
1326.00,0.0136
1325.00,0.0129
1324.00,0.0123
1323.00,0.0117
1322.00,0.0112
1321.00,0.0109
1320.00,0.0106
1319.00,0.0104
1318.00,0.0102
1317.00,0.0100
1316.00,0.0098
1315.00,0.0097
1314.00,0.0096
1313.00,0.0096
1312.00,0.0098
1311.00,0.0100
1310.00,0.0104
1309.00,0.0110
1308.00,0.0120
1307.00,0.0133
1306.00,0.0145
1305.00,0.0153
1304.00,0.0155
1303.00,0.0152
1302.00,0.0146
1301.00,0.0140
1300.00,0.0137
1299.00,0.0136
1298.00,0.0136
1297.00,0.0135
1296.00,0.0134
1295.00,0.0131
1294.00,0.0128
1293.00,0.0124
1292.00,0.0120
1291.00,0.0116
1290.00,0.0112
1289.00,0.0110
1288.00,0.0107
1287.00,0.0105
1286.00,0.0103
1285.00,0.0102
1284.00,0.0101
1283.00,0.0100
1282.00,0.0100
1281.00,0.0100
1280.00,0.0100
1279.00,0.0101
1278.00,0.0102
1277.00,0.0103
1276.00,0.0105
1275.00,0.0106
1274.00,0.0109
1273.00,0.0112
1272.00,0.0115
1271.00,0.0119
1270.00,0.0123
1269.00,0.0127
1268.00,0.0131
1267.00,0.0135
1266.00,0.0138
1265.00,0.0142
1264.00,0.0146
1263.00,0.0151
1262.00,0.0156
1261.00,0.0162
1260.00,0.0169
1259.00,0.0177
1258.00,0.0187
1257.00,0.0195
1256.00,0.0201
1255.00,0.0202
1254.00,0.0198
1253.00,0.0191
1252.00,0.0182
1251.00,0.0174
1250.00,0.0166
1249.00,0.0159
1248.00,0.0154
1247.00,0.0149
1246.00,0.0145
1245.00,0.0143
1244.00,0.0141
1243.00,0.0140
1242.00,0.0139
1241.00,0.0138
1240.00,0.0136
1239.00,0.0135
1238.00,0.0133
1237.00,0.0131
1236.00,0.0129
1235.00,0.0127
1234.00,0.0125
1233.00,0.0123
1232.00,0.0121
1231.00,0.0120
1230.00,0.0119
1229.00,0.0117
1228.00,0.0116
1227.00,0.0115
1226.00,0.0115
1225.00,0.0115
1224.00,0.0115
1223.00,0.0117
1222.00,0.0118
1221.00,0.0119
1220.00,0.0120
1219.00,0.0119
1218.00,0.0117
1217.00,0.0114
1216.00,0.0111
1215.00,0.0108
1214.00,0.0105
1213.00,0.0102
1212.00,0.0099
1211.00,0.0097
1210.00,0.0095
1209.00,0.0093
1208.00,0.0092
1207.00,0.0091
1206.00,0.0091
1205.00,0.0091
1204.00,0.0091
1203.00,0.0090
1202.00,0.0090
1201.00,0.0091
1200.00,0.0092
1199.00,0.0094
1198.00,0.0095
1197.00,0.0097
1196.00,0.0097
1195.00,0.0098
1194.00,0.0099
1193.00,0.0100
1192.00,0.0101
1191.00,0.0102
1190.00,0.0105
1189.00,0.0108
1188.00,0.0111
1187.00,0.0114
1186.00,0.0117
1185.00,0.0121
1184.00,0.0126
1183.00,0.0131
1182.00,0.0136
1181.00,0.0142
1180.00,0.0150
1179.00,0.0158
1178.00,0.0168
1177.00,0.0180
1176.00,0.0194
1175.00,0.0214
1174.00,0.0238
1173.00,0.0269
1172.00,0.0305
1171.00,0.0343
1170.00,0.0381
1169.00,0.0411
1168.00,0.0429
1167.00,0.0433
1166.00,0.0425
1165.00,0.0410
1164.00,0.0391
1163.00,0.0372
1162.00,0.0356
1161.00,0.0344
1160.00,0.0334
1159.00,0.0328
1158.00,0.0324
1157.00,0.0321
1156.00,0.0319
1155.00,0.0317
1154.00,0.0315
1153.00,0.0311
1152.00,0.0306
1151.00,0.0298
1150.00,0.0289
1149.00,0.0277
1148.00,0.0266
1147.00,0.0254
1146.00,0.0243
1145.00,0.0232
1144.00,0.0222
1143.00,0.0213
1142.00,0.0204
1141.00,0.0197
1140.00,0.0189
1139.00,0.0183
1138.00,0.0176
1137.00,0.0170
1136.00,0.0165
1135.00,0.0161
1134.00,0.0157
1133.00,0.0155
1132.00,0.0153
1131.00,0.0152
1130.00,0.0150
1129.00,0.0148
1128.00,0.0146
1127.00,0.0144
1126.00,0.0142
1125.00,0.0140
1124.00,0.0138
1123.00,0.0136
1122.00,0.0134
1121.00,0.0132
1120.00,0.0131
1119.00,0.0130
1118.00,0.0129
1117.00,0.0129
1116.00,0.0129
1115.00,0.0129
1114.00,0.0129
1113.00,0.0129
1112.00,0.0129
1111.00,0.0129
1110.00,0.0131
1109.00,0.0134
1108.00,0.0138
1107.00,0.0143
1106.00,0.0149
1105.00,0.0156
1104.00,0.0161
1103.00,0.0164
1102.00,0.0163
1101.00,0.0161
1100.00,0.0158
1099.00,0.0154
1098.00,0.0150
1097.00,0.0148
1096.00,0.0147
1095.00,0.0146
1094.00,0.0146
1093.00,0.0147
1092.00,0.0147
1091.00,0.0148
1090.00,0.0149
1089.00,0.0150
1088.00,0.0151
1087.00,0.0151
1086.00,0.0152
1085.00,0.0152
1084.00,0.0152
1083.00,0.0152
1082.00,0.0153
1081.00,0.0153
1080.00,0.0153
1079.00,0.0152
1078.00,0.0152
1077.00,0.0151
1076.00,0.0152
1075.00,0.0153
1074.00,0.0154
1073.00,0.0155
1072.00,0.0155
1071.00,0.0153
1070.00,0.0151
1069.00,0.0148
1068.00,0.0145
1067.00,0.0141
1066.00,0.0138
1065.00,0.0136
1064.00,0.0134
1063.00,0.0134
1062.00,0.0133
1061.00,0.0133
1060.00,0.0132
1059.00,0.0132
1058.00,0.0131
1057.00,0.0131
1056.00,0.0130
1055.00,0.0129
1054.00,0.0129
1053.00,0.0130
1052.00,0.0132
1051.00,0.0134
1050.00,0.0135
1049.00,0.0135
1048.00,0.0136
1047.00,0.0138
1046.00,0.0141
1045.00,0.0142
1044.00,0.0142
1043.00,0.0140
1042.00,0.0137
1041.00,0.0133
1040.00,0.0129
1039.00,0.0127
1038.00,0.0126
1037.00,0.0125
1036.00,0.0124
1035.00,0.0123
1034.00,0.0121
1033.00,0.0119
1032.00,0.0118
1031.00,0.0116
1030.00,0.0115
1029.00,0.0113
1028.00,0.0112
1027.00,0.0112
1026.00,0.0114
1025.00,0.0117
1024.00,0.0119
1023.00,0.0122
1022.00,0.0124
1021.00,0.0126
1020.00,0.0128
1019.00,0.0129
1018.00,0.0130
1017.00,0.0131
1016.00,0.0132
1015.00,0.0133
1014.00,0.0134
1013.00,0.0136
1012.00,0.0137
1011.00,0.0138
1010.00,0.0138
1009.00,0.0139
1008.00,0.0142
1007.00,0.0147
1006.00,0.0155
1005.00,0.0166
1004.00,0.0183
1003.00,0.0208
1002.00,0.0243
1001.00,0.0285
1000.00,0.0330
999.00,0.0369
998.00,0.0388
997.00,0.0382
996.00,0.0352
995.00,0.0309
994.00,0.0263
993.00,0.0223
992.00,0.0191
991.00,0.0168
990.00,0.0152
989.00,0.0142
988.00,0.0135
987.00,0.0132
986.00,0.0131
985.00,0.0134
984.00,0.0139
983.00,0.0149
982.00,0.0163
981.00,0.0183
980.00,0.0210
979.00,0.0245
978.00,0.0290
977.00,0.0343
976.00,0.0401
975.00,0.0456
974.00,0.0499
973.00,0.0519
972.00,0.0508
971.00,0.0471
970.00,0.0418
969.00,0.0363
968.00,0.0316
967.00,0.0280
966.00,0.0253
965.00,0.0234
964.00,0.0219
963.00,0.0207
962.00,0.0200
961.00,0.0196
960.00,0.0194
959.00,0.0194
958.00,0.0195
957.00,0.0194
956.00,0.0192
955.00,0.0190
954.00,0.0188
953.00,0.0185
952.00,0.0183
951.00,0.0180
950.00,0.0178
949.00,0.0176
948.00,0.0174
947.00,0.0171
946.00,0.0170
945.00,0.0170
944.00,0.0171
943.00,0.0173
942.00,0.0173
941.00,0.0172
940.00,0.0169
939.00,0.0163
938.00,0.0156
937.00,0.0147
936.00,0.0137
935.00,0.0127
934.00,0.0119
933.00,0.0112
932.00,0.0107
931.00,0.0102
930.00,0.0097
929.00,0.0093
928.00,0.0090
927.00,0.0087
926.00,0.0084
925.00,0.0081
924.00,0.0078
923.00,0.0076
922.00,0.0074
921.00,0.0073
920.00,0.0071
919.00,0.0070
918.00,0.0069
917.00,0.0068
916.00,0.0068
915.00,0.0068
914.00,0.0068
913.00,0.0068
912.00,0.0069
911.00,0.0070
910.00,0.0072
909.00,0.0074
908.00,0.0077
907.00,0.0081
906.00,0.0088
905.00,0.0098
904.00,0.0111
903.00,0.0127
902.00,0.0144
901.00,0.0158
900.00,0.0167
899.00,0.0168
898.00,0.0161
897.00,0.0147
896.00,0.0131
895.00,0.0114
894.00,0.0100
893.00,0.0090
892.00,0.0082
891.00,0.0077
890.00,0.0075
889.00,0.0074
888.00,0.0073
887.00,0.0072
886.00,0.0071
885.00,0.0071
884.00,0.0070
883.00,0.0070
882.00,0.0070
881.00,0.0070
880.00,0.0070
879.00,0.0070
878.00,0.0071
877.00,0.0073
876.00,0.0075
875.00,0.0077
874.00,0.0079
873.00,0.0080
872.00,0.0079
871.00,0.0078
870.00,0.0077
869.00,0.0075
868.00,0.0074
867.00,0.0074
866.00,0.0075
865.00,0.0076
864.00,0.0078
863.00,0.0079
862.00,0.0080
861.00,0.0080
860.00,0.0082
859.00,0.0083
858.00,0.0084
857.00,0.0084
856.00,0.0086
855.00,0.0088
854.00,0.0091
853.00,0.0095
852.00,0.0099
851.00,0.0103
850.00,0.0108
849.00,0.0114
848.00,0.0123
847.00,0.0139
846.00,0.0165
845.00,0.0204
844.00,0.0257
843.00,0.0317
842.00,0.0365
841.00,0.0380
840.00,0.0355
839.00,0.0302
838.00,0.0244
837.00,0.0197
836.00,0.0167
835.00,0.0150
834.00,0.0140
833.00,0.0133
832.00,0.0129
831.00,0.0125
830.00,0.0122
829.00,0.0119
828.00,0.0117
827.00,0.0115
826.00,0.0113
825.00,0.0112
824.00,0.0112
823.00,0.0112
822.00,0.0112
821.00,0.0113
820.00,0.0114
819.00,0.0116
818.00,0.0120
817.00,0.0125
816.00,0.0133
815.00,0.0144
814.00,0.0158
813.00,0.0175
812.00,0.0192
811.00,0.0207
810.00,0.0218
809.00,0.0222
808.00,0.0218
807.00,0.0207
806.00,0.0192
805.00,0.0175
804.00,0.0160
803.00,0.0148
802.00,0.0139
801.00,0.0132
800.00,0.0125
799.00,0.0118
798.00,0.0112
797.00,0.0107
796.00,0.0103
795.00,0.0100
794.00,0.0096
793.00,0.0093
792.00,0.0089
791.00,0.0085
790.00,0.0081
789.00,0.0077
788.00,0.0074
787.00,0.0070
786.00,0.0067
785.00,0.0065
784.00,0.0063
783.00,0.0062
782.00,0.0062
781.00,0.0062
780.00,0.0063
779.00,0.0063
778.00,0.0062
777.00,0.0062
776.00,0.0062
775.00,0.0061
774.00,0.0060
773.00,0.0059
772.00,0.0058
771.00,0.0058
770.00,0.0058
769.00,0.0059
768.00,0.0060
767.00,0.0059
766.00,0.0060
765.00,0.0060
764.00,0.0062
763.00,0.0063
762.00,0.0064
761.00,0.0064
760.00,0.0064
759.00,0.0064
758.00,0.0064
757.00,0.0064
756.00,0.0064
755.00,0.0064
754.00,0.0064
753.00,0.0066
752.00,0.0068
751.00,0.0070
750.00,0.0072
749.00,0.0074
748.00,0.0076
747.00,0.0077
746.00,0.0078
745.00,0.0078
744.00,0.0079
743.00,0.0082
742.00,0.0085
741.00,0.0089
740.00,0.0093
739.00,0.0097
738.00,0.0100
737.00,0.0102
736.00,0.0104
735.00,0.0105
734.00,0.0107
733.00,0.0111
732.00,0.0116
731.00,0.0121
730.00,0.0125
729.00,0.0127
728.00,0.0128
727.00,0.0129
726.00,0.0130
725.00,0.0132
724.00,0.0135
723.00,0.0138
722.00,0.0141
721.00,0.0143
720.00,0.0143
719.00,0.0138
718.00,0.0130
717.00,0.0120
716.00,0.0112
715.00,0.0105
714.00,0.0100
713.00,0.0097
712.00,0.0096
711.00,0.0095
710.00,0.0094
709.00,0.0093
708.00,0.0091
707.00,0.0089
706.00,0.0088
705.00,0.0088
704.00,0.0089
703.00,0.0089
702.00,0.0089
701.00,0.0087
700.00,0.0086
699.00,0.0085
698.00,0.0085
697.00,0.0086
696.00,0.0087
695.00,0.0088
694.00,0.0089
693.00,0.0088
692.00,0.0088
691.00,0.0089
690.00,0.0091
689.00,0.0091
688.00,0.0090
687.00,0.0089
686.00,0.0087
685.00,0.0086
684.00,0.0087
683.00,0.0089
682.00,0.0091
681.00,0.0091
680.00,0.0090
679.00,0.0090
678.00,0.0091
677.00,0.0093
676.00,0.0095
675.00,0.0097
674.00,0.0098
673.00,0.0098
672.00,0.0098
671.00,0.0097
670.00,0.0096
669.00,0.0093
668.00,0.0090
667.00,0.0090
666.00,0.0090
665.00,0.0089
664.00,0.0089
663.00,0.0087
662.00,0.0085
661.00,0.0083
660.00,0.0083
659.00,0.0083
658.00,0.0085
657.00,0.0085
656.00,0.0084
655.00,0.0083
654.00,0.0082
653.00,0.0082
652.00,0.0082
651.00,0.0081
650.00,0.0080
649.00,0.0079
648.00,0.0078
647.00,0.0077
646.00,0.0077
645.00,0.0076
644.00,0.0075
643.00,0.0075
642.00,0.0075
641.00,0.0075
640.00,0.0076
639.00,0.0077
638.00,0.0080
637.00,0.0081
636.00,0.0080
635.00,0.0078
634.00,0.0075
633.00,0.0073
632.00,0.0073
631.00,0.0074
630.00,0.0077
629.00,0.0079
628.00,0.0079
627.00,0.0080
626.00,0.0081
625.00,0.0082
624.00,0.0080
623.00,0.0076
622.00,0.0075
621.00,0.0076
620.00,0.0079
619.00,0.0081
618.00,0.0082
617.00,0.0082
616.00,0.0081
615.00,0.0081
614.00,0.0079
613.00,0.0076
612.00,0.0072
611.00,0.0072
610.00,0.0076
609.00,0.0079
608.00,0.0079
607.00,0.0077
606.00,0.0076
605.00,0.0078
604.00,0.0080
603.00,0.0083
602.00,0.0084
601.00,0.0082
600.00,0.0079
599.00,0.0077
598.00,0.0079
597.00,0.0082
596.00,0.0085
595.00,0.0085
594.00,0.0081
593.00,0.0077
592.00,0.0074
591.00,0.0073
590.00,0.0075
589.00,0.0077
588.00,0.0077
587.00,0.0076
586.00,0.0077
585.00,0.0080
584.00,0.0084
583.00,0.0087
582.00,0.0088
581.00,0.0086
580.00,0.0084
579.00,0.0083
578.00,0.0084
577.00,0.0085
576.00,0.0086
575.00,0.0086
574.00,0.0086
573.00,0.0085
572.00,0.0083
571.00,0.0082
570.00,0.0081
569.00,0.0081
568.00,0.0082
567.00,0.0082
566.00,0.0082
565.00,0.0081
564.00,0.0080
563.00,0.0077
562.00,0.0074
561.00,0.0072
560.00,0.0073
559.00,0.0077
558.00,0.0082
557.00,0.0085
556.00,0.0086
555.00,0.0085
554.00,0.0083
553.00,0.0083
552.00,0.0085
551.00,0.0089
550.00,0.0093
549.00,0.0093
548.00,0.0091
547.00,0.0087
546.00,0.0083
545.00,0.0082
544.00,0.0084
543.00,0.0087
542.00,0.0090
541.00,0.0090
540.00,0.0088
539.00,0.0086
538.00,0.0087
537.00,0.0089
536.00,0.0092
535.00,0.0095
534.00,0.0097
533.00,0.0098
532.00,0.0098
531.00,0.0099
530.00,0.0100
529.00,0.0100
528.00,0.0102
527.00,0.0103
526.00,0.0104
525.00,0.0101
524.00,0.0096
523.00,0.0092
522.00,0.0091
521.00,0.0091
520.00,0.0092
519.00,0.0091
518.00,0.0089
517.00,0.0087
516.00,0.0085
515.00,0.0083
514.00,0.0081
513.00,0.0078
512.00,0.0077
511.00,0.0079
510.00,0.0082
509.00,0.0084
508.00,0.0084
507.00,0.0082
506.00,0.0081
505.00,0.0084
504.00,0.0087
503.00,0.0090
502.00,0.0091
501.00,0.0090
500.00,0.0090
499.00,0.0090
498.00,0.0089
497.00,0.0087
496.00,0.0087
495.00,0.0090
494.00,0.0094
493.00,0.0097
492.00,0.0096
491.00,0.0090
490.00,0.0083
489.00,0.0079
488.00,0.0081
487.00,0.0088
486.00,0.0097
485.00,0.0105
484.00,0.0110
483.00,0.0114
482.00,0.0117
481.00,0.0118
480.00,0.0115
479.00,0.0110
478.00,0.0108
477.00,0.0113
476.00,0.0125
475.00,0.0139
474.00,0.0152
473.00,0.0158
472.00,0.0160
471.00,0.0157
470.00,0.0151
469.00,0.0145
468.00,0.0146
467.00,0.0157
466.00,0.0172
465.00,0.0181
464.00,0.0180
463.00,0.0171
462.00,0.0162
461.00,0.0160
460.00,0.0170
459.00,0.0187
458.00,0.0201
457.00,0.0204
456.00,0.0200
455.00,0.0196
454.00,0.0195
453.00,0.0197
452.00,0.0201
451.00,0.0200
450.00,0.0190
