Created as New Dataset,Sample 008 By Administrator Date Wednesday, September 03 2025
cm-1,A
4000.00,0.0011
3999.00,0.0011
3998.00,0.0010
3997.00,0.0010
3996.00,0.0010
3995.00,0.0010
3994.00,0.0010
3993.00,0.0010
3992.00,0.0010
3991.00,0.0010
3990.00,0.0011
3989.00,0.0011
3988.00,0.0010
3987.00,0.0010
3986.00,0.0010
3985.00,0.0010
3984.00,0.0010
3983.00,0.0010
3982.00,0.0010
3981.00,0.0010
3980.00,0.0010
3979.00,0.0010
3978.00,0.0010
3977.00,0.0010
3976.00,0.0010
3975.00,0.0009
3974.00,0.0009
3973.00,0.0009
3972.00,0.0008
3971.00,0.0008
3970.00,0.0008
3969.00,0.0008
3968.00,0.0008
3967.00,0.0008
3966.00,0.0009
3965.00,0.0009
3964.00,0.0009
3963.00,0.0009
3962.00,0.0009
3961.00,0.0009
3960.00,0.0009
3959.00,0.0009
3958.00,0.0009
3957.00,0.0009
3956.00,0.0009
3955.00,0.0009
3954.00,0.0009
3953.00,0.0009
3952.00,0.0008
3951.00,0.0009
3950.00,0.0009
3949.00,0.0009
3948.00,0.0009
3947.00,0.0009
3946.00,0.0009
3945.00,0.0009
3944.00,0.0009
3943.00,0.0009
3942.00,0.0009
3941.00,0.0009
3940.00,0.0009
3939.00,0.0009
3938.00,0.0009
3937.00,0.0009
3936.00,0.0010
3935.00,0.0010
3934.00,0.0011
3933.00,0.0011
3932.00,0.0011
3931.00,0.0010
3930.00,0.0010
3929.00,0.0010
3928.00,0.0010
3927.00,0.0010
3926.00,0.0010
3925.00,0.0010
3924.00,0.0010
3923.00,0.0010
3922.00,0.0010
3921.00,0.0010
3920.00,0.0009
3919.00,0.0009
3918.00,0.0010
3917.00,0.0010
3916.00,0.0010
3915.00,0.0010
3914.00,0.0010
3913.00,0.0010
3912.00,0.0010
3911.00,0.0010
3910.00,0.0010
3909.00,0.0010
3908.00,0.0009
3907.00,0.0009
3906.00,0.0009
3905.00,0.0009
3904.00,0.0010
3903.00,0.0010
3902.00,0.0010
3901.00,0.0010
3900.00,0.0010
3899.00,0.0010
3898.00,0.0010
3897.00,0.0010
3896.00,0.0010
3895.00,0.0010
3894.00,0.0009
3893.00,0.0009
3892.00,0.0009
3891.00,0.0009
3890.00,0.0009
3889.00,0.0009
3888.00,0.0008
3887.00,0.0008
3886.00,0.0008
3885.00,0.0008
3884.00,0.0008
3883.00,0.0008
3882.00,0.0008
3881.00,0.0009
3880.00,0.0009
3879.00,0.0009
3878.00,0.0009
3877.00,0.0009
3876.00,0.0009
3875.00,0.0009
3874.00,0.0009
3873.00,0.0009
3872.00,0.0008
3871.00,0.0008
3870.00,0.0008
3869.00,0.0008
3868.00,0.0008
3867.00,0.0008
3866.00,0.0009
3865.00,0.0009
3864.00,0.0009
3863.00,0.0010
3862.00,0.0009
3861.00,0.0009
3860.00,0.0009
3859.00,0.0009
3858.00,0.0009
3857.00,0.0008
3856.00,0.0008
3855.00,0.0008
3854.00,0.0008
3853.00,0.0008
3852.00,0.0008
3851.00,0.0008
3850.00,0.0008
3849.00,0.0008
3848.00,0.0008
3847.00,0.0008
3846.00,0.0008
3845.00,0.0008
3844.00,0.0009
3843.00,0.0009
3842.00,0.0009
3841.00,0.0009
3840.00,0.0009
3839.00,0.0009
3838.00,0.0009
3837.00,0.0009
3836.00,0.0009
3835.00,0.0010
3834.00,0.0010
3833.00,0.0010
3832.00,0.0010
3831.00,0.0010
3830.00,0.0010
3829.00,0.0010
3828.00,0.0010
3827.00,0.0010
3826.00,0.0011
3825.00,0.0011
3824.00,0.0010
3823.00,0.0010
3822.00,0.0010
3821.00,0.0009
3820.00,0.0009
3819.00,0.0008
3818.00,0.0008
3817.00,0.0008
3816.00,0.0009
3815.00,0.0009
3814.00,0.0010
3813.00,0.0010
3812.00,0.0011
3811.00,0.0011
3810.00,0.0010
3809.00,0.0010
3808.00,0.0009
3807.00,0.0009
3806.00,0.0009
3805.00,0.0008
3804.00,0.0008
3803.00,0.0008
3802.00,0.0009
3801.00,0.0009
3800.00,0.0009
3799.00,0.0009
3798.00,0.0009
3797.00,0.0009
3796.00,0.0009
3795.00,0.0009
3794.00,0.0009
3793.00,0.0010
3792.00,0.0010
3791.00,0.0010
3790.00,0.0010
3789.00,0.0010
3788.00,0.0010
3787.00,0.0010
3786.00,0.0009
3785.00,0.0009
3784.00,0.0008
3783.00,0.0008
3782.00,0.0008
3781.00,0.0009
3780.00,0.0009
3779.00,0.0009
3778.00,0.0009
3777.00,0.0009
3776.00,0.0010
3775.00,0.0010
3774.00,0.0010
3773.00,0.0010
3772.00,0.0010
3771.00,0.0010
3770.00,0.0010
3769.00,0.0010
3768.00,0.0010
3767.00,0.0010
3766.00,0.0010
3765.00,0.0010
3764.00,0.0010
3763.00,0.0010
3762.00,0.0010
3761.00,0.0009
3760.00,0.0009
3759.00,0.0009
3758.00,0.0009
3757.00,0.0009
3756.00,0.0008
3755.00,0.0007
3754.00,0.0007
3753.00,0.0006
3752.00,0.0007
3751.00,0.0007
3750.00,0.0007
3749.00,0.0007
3748.00,0.0007
3747.00,0.0006
3746.00,0.0006
3745.00,0.0007
3744.00,0.0007
3743.00,0.0007
3742.00,0.0008
3741.00,0.0008
3740.00,0.0008
3739.00,0.0008
3738.00,0.0008
3737.00,0.0008
3736.00,0.0008
3735.00,0.0008
3734.00,0.0008
3733.00,0.0008
3732.00,0.0008
3731.00,0.0008
3730.00,0.0008
3729.00,0.0008
3728.00,0.0008
3727.00,0.0009
3726.00,0.0009
3725.00,0.0010
3724.00,0.0009
3723.00,0.0009
3722.00,0.0008
3721.00,0.0008
3720.00,0.0007
3719.00,0.0007
3718.00,0.0007
3717.00,0.0007
3716.00,0.0007
3715.00,0.0008
3714.00,0.0008
3713.00,0.0009
3712.00,0.0009
3711.00,0.0009
3710.00,0.0009
3709.00,0.0008
3708.00,0.0008
3707.00,0.0008
3706.00,0.0008
3705.00,0.0008
3704.00,0.0009
3703.00,0.0009
3702.00,0.0009
3701.00,0.0009
3700.00,0.0009
3699.00,0.0009
3698.00,0.0009
3697.00,0.0010
3696.00,0.0011
3695.00,0.0011
3694.00,0.0012
3693.00,0.0012
3692.00,0.0012
3691.00,0.0012
3690.00,0.0013
3689.00,0.0014
3688.00,0.0015
3687.00,0.0016
3686.00,0.0017
3685.00,0.0018
3684.00,0.0020
3683.00,0.0022
3682.00,0.0024
3681.00,0.0026
3680.00,0.0028
3679.00,0.0030
3678.00,0.0032
3677.00,0.0034
3676.00,0.0037
3675.00,0.0039
3674.00,0.0040
3673.00,0.0041
3672.00,0.0042
3671.00,0.0043
3670.00,0.0043
3669.00,0.0044
3668.00,0.0044
3667.00,0.0045
3666.00,0.0046
3665.00,0.0047
3664.00,0.0048
3663.00,0.0050
3662.00,0.0050
3661.00,0.0051
3660.00,0.0051
3659.00,0.0051
3658.00,0.0051
3657.00,0.0052
3656.00,0.0052
3655.00,0.0052
3654.00,0.0051
3653.00,0.0050
3652.00,0.0050
3651.00,0.0049
3650.00,0.0048
3649.00,0.0047
3648.00,0.0046
3647.00,0.0044
3646.00,0.0043
3645.00,0.0042
3644.00,0.0042
3643.00,0.0041
3642.00,0.0040
3641.00,0.0039
3640.00,0.0038
3639.00,0.0038
3638.00,0.0039
3637.00,0.0038
3636.00,0.0035
3635.00,0.0032
3634.00,0.0028
3633.00,0.0025
3632.00,0.0022
3631.00,0.0021
3630.00,0.0020
3629.00,0.0019
3628.00,0.0018
3627.00,0.0018
3626.00,0.0018
3625.00,0.0018
3624.00,0.0018
3623.00,0.0018
3622.00,0.0018
3621.00,0.0017
3620.00,0.0016
3619.00,0.0016
3618.00,0.0016
3617.00,0.0016
3616.00,0.0015
3615.00,0.0015
3614.00,0.0015
3613.00,0.0015
3612.00,0.0015
3611.00,0.0015
3610.00,0.0015
3609.00,0.0015
3608.00,0.0014
3607.00,0.0014
3606.00,0.0014
3605.00,0.0014
3604.00,0.0014
3603.00,0.0014
3602.00,0.0015
3601.00,0.0015
3600.00,0.0015
3599.00,0.0015
3598.00,0.0015
3597.00,0.0015
3596.00,0.0015
3595.00,0.0015
3594.00,0.0015
3593.00,0.0015
3592.00,0.0015
3591.00,0.0014
3590.00,0.0014
3589.00,0.0015
3588.00,0.0015
3587.00,0.0016
3586.00,0.0016
3585.00,0.0016
3584.00,0.0016
3583.00,0.0017
3582.00,0.0017
3581.00,0.0018
3580.00,0.0018
3579.00,0.0019
3578.00,0.0019
3577.00,0.0019
3576.00,0.0019
3575.00,0.0019
3574.00,0.0019
3573.00,0.0019
3572.00,0.0019
3571.00,0.0019
3570.00,0.0019
3569.00,0.0020
3568.00,0.0021
3567.00,0.0021
3566.00,0.0021
3565.00,0.0021
3564.00,0.0021
3563.00,0.0021
3562.00,0.0022
3561.00,0.0022
3560.00,0.0023
3559.00,0.0023
3558.00,0.0023
3557.00,0.0022
3556.00,0.0022
3555.00,0.0022
3554.00,0.0022
3553.00,0.0023
3552.00,0.0023
3551.00,0.0024
3550.00,0.0024
3549.00,0.0023
3548.00,0.0023
3547.00,0.0023
3546.00,0.0023
3545.00,0.0023
3544.00,0.0024
3543.00,0.0024
3542.00,0.0025
3541.00,0.0025
3540.00,0.0025
3539.00,0.0025
3538.00,0.0025
3537.00,0.0025
3536.00,0.0025
3535.00,0.0025
3534.00,0.0025
3533.00,0.0025
3532.00,0.0026
3531.00,0.0026
3530.00,0.0026
3529.00,0.0025
3528.00,0.0025
3527.00,0.0025
3526.00,0.0025
3525.00,0.0026
3524.00,0.0026
3523.00,0.0027
3522.00,0.0027
3521.00,0.0027
3520.00,0.0028
3519.00,0.0028
3518.00,0.0028
3517.00,0.0028
3516.00,0.0028
3515.00,0.0028
3514.00,0.0028
3513.00,0.0028
3512.00,0.0028
3511.00,0.0029
3510.00,0.0029
3509.00,0.0029
3508.00,0.0029
3507.00,0.0029
3506.00,0.0029
3505.00,0.0030
3504.00,0.0030
3503.00,0.0030
3502.00,0.0030
3501.00,0.0029
3500.00,0.0029
3499.00,0.0030
3498.00,0.0030
3497.00,0.0030
3496.00,0.0030
3495.00,0.0030
3494.00,0.0030
3493.00,0.0031
3492.00,0.0032
3491.00,0.0032
3490.00,0.0033
3489.00,0.0033
3488.00,0.0033
3487.00,0.0033
3486.00,0.0033
3485.00,0.0033
3484.00,0.0033
3483.00,0.0033
3482.00,0.0033
3481.00,0.0033
3480.00,0.0034
3479.00,0.0034
3478.00,0.0034
3477.00,0.0035
3476.00,0.0035
3475.00,0.0035
3474.00,0.0035
3473.00,0.0035
3472.00,0.0035
3471.00,0.0035
3470.00,0.0035
3469.00,0.0035
3468.00,0.0035
3467.00,0.0036
3466.00,0.0036
3465.00,0.0037
3464.00,0.0037
3463.00,0.0037
3462.00,0.0038
3461.00,0.0038
3460.00,0.0038
3459.00,0.0038
3458.00,0.0038
3457.00,0.0038
3456.00,0.0038
3455.00,0.0038
3454.00,0.0038
3453.00,0.0038
3452.00,0.0038
3451.00,0.0038
3450.00,0.0038
3449.00,0.0039
3448.00,0.0039
3447.00,0.0039
3446.00,0.0039
3445.00,0.0039
3444.00,0.0039
3443.00,0.0039
3442.00,0.0039
3441.00,0.0040
3440.00,0.0040
3439.00,0.0040
3438.00,0.0041
3437.00,0.0041
3436.00,0.0041
3435.00,0.0041
3434.00,0.0041
3433.00,0.0041
3432.00,0.0041
3431.00,0.0041
3430.00,0.0041
3429.00,0.0041
3428.00,0.0042
3427.00,0.0042
3426.00,0.0042
3425.00,0.0042
3424.00,0.0041
3423.00,0.0041
3422.00,0.0041
3421.00,0.0041
3420.00,0.0042
3419.00,0.0042
3418.00,0.0042
3417.00,0.0042
3416.00,0.0042
3415.00,0.0042
3414.00,0.0042
3413.00,0.0042
3412.00,0.0042
3411.00,0.0043
3410.00,0.0043
3409.00,0.0043
3408.00,0.0043
3407.00,0.0042
3406.00,0.0042
3405.00,0.0043
3404.00,0.0043
3403.00,0.0043
3402.00,0.0043
3401.00,0.0042
3400.00,0.0042
3399.00,0.0042
3398.00,0.0042
3397.00,0.0042
3396.00,0.0042
3395.00,0.0042
3394.00,0.0042
3393.00,0.0042
3392.00,0.0042
3391.00,0.0042
3390.00,0.0042
3389.00,0.0042
3388.00,0.0042
3387.00,0.0042
3386.00,0.0042
3385.00,0.0042
3384.00,0.0042
3383.00,0.0042
3382.00,0.0042
3381.00,0.0042
3380.00,0.0042
3379.00,0.0042
3378.00,0.0042
3377.00,0.0042
3376.00,0.0042
3375.00,0.0042
3374.00,0.0042
3373.00,0.0042
3372.00,0.0042
3371.00,0.0042
3370.00,0.0042
3369.00,0.0043
3368.00,0.0043
3367.00,0.0043
3366.00,0.0043
3365.00,0.0043
3364.00,0.0043
3363.00,0.0043
3362.00,0.0043
3361.00,0.0044
3360.00,0.0043
3359.00,0.0043
3358.00,0.0043
3357.00,0.0043
3356.00,0.0043
3355.00,0.0043
3354.00,0.0043
3353.00,0.0043
3352.00,0.0043
3351.00,0.0043
3350.00,0.0043
3349.00,0.0043
3348.00,0.0044
3347.00,0.0044
3346.00,0.0044
3345.00,0.0044
3344.00,0.0043
3343.00,0.0043
3342.00,0.0042
3341.00,0.0042
3340.00,0.0042
3339.00,0.0042
3338.00,0.0043
3337.00,0.0043
3336.00,0.0042
3335.00,0.0042
3334.00,0.0041
3333.00,0.0041
3332.00,0.0041
3331.00,0.0041
3330.00,0.0041
3329.00,0.0041
3328.00,0.0041
3327.00,0.0041
3326.00,0.0041
3325.00,0.0041
3324.00,0.0040
3323.00,0.0040
3322.00,0.0039
3321.00,0.0038
3320.00,0.0038
3319.00,0.0038
3318.00,0.0038
3317.00,0.0039
3316.00,0.0039
3315.00,0.0039
3314.00,0.0040
3313.00,0.0040
3312.00,0.0040
3311.00,0.0039
3310.00,0.0039
3309.00,0.0039
3308.00,0.0039
3307.00,0.0039
3306.00,0.0039
3305.00,0.0039
3304.00,0.0039
3303.00,0.0039
3302.00,0.0039
3301.00,0.0039
3300.00,0.0039
3299.00,0.0039
3298.00,0.0039
3297.00,0.0039
3296.00,0.0039
3295.00,0.0039
3294.00,0.0039
3293.00,0.0039
3292.00,0.0039
3291.00,0.0039
3290.00,0.0039
3289.00,0.0039
3288.00,0.0039
3287.00,0.0039
3286.00,0.0039
3285.00,0.0039
3284.00,0.0039
3283.00,0.0038
3282.00,0.0038
3281.00,0.0037
3280.00,0.0037
3279.00,0.0037
3278.00,0.0038
3277.00,0.0038
3276.00,0.0038
3275.00,0.0038
3274.00,0.0038
3273.00,0.0037
3272.00,0.0037
3271.00,0.0037
3270.00,0.0037
3269.00,0.0037
3268.00,0.0037
3267.00,0.0037
3266.00,0.0036
3265.00,0.0036
3264.00,0.0036
3263.00,0.0037
3262.00,0.0037
3261.00,0.0037
3260.00,0.0037
3259.00,0.0037
3258.00,0.0036
3257.00,0.0036
3256.00,0.0035
3255.00,0.0035
3254.00,0.0035
3253.00,0.0035
3252.00,0.0036
3251.00,0.0036
3250.00,0.0037
3249.00,0.0037
3248.00,0.0037
3247.00,0.0036
3246.00,0.0036
3245.00,0.0036
3244.00,0.0036
3243.00,0.0035
3242.00,0.0035
3241.00,0.0035
3240.00,0.0036
3239.00,0.0036
3238.00,0.0036
3237.00,0.0037
3236.00,0.0037
3235.00,0.0037
3234.00,0.0038
3233.00,0.0038
3232.00,0.0038
3231.00,0.0038
3230.00,0.0038
3229.00,0.0038
3228.00,0.0038
3227.00,0.0038
3226.00,0.0038
3225.00,0.0038
3224.00,0.0038
3223.00,0.0039
3222.00,0.0039
3221.00,0.0039
3220.00,0.0039
3219.00,0.0039
3218.00,0.0039
3217.00,0.0040
3216.00,0.0040
3215.00,0.0040
3214.00,0.0040
3213.00,0.0041
3212.00,0.0041
3211.00,0.0041
3210.00,0.0042
3209.00,0.0042
3208.00,0.0042
3207.00,0.0042
3206.00,0.0042
3205.00,0.0041
3204.00,0.0041
3203.00,0.0041
3202.00,0.0041
3201.00,0.0041
3200.00,0.0041
3199.00,0.0041
3198.00,0.0041
3197.00,0.0041
3196.00,0.0041
3195.00,0.0042
3194.00,0.0042
3193.00,0.0041
3192.00,0.0041
3191.00,0.0040
3190.00,0.0040
3189.00,0.0039
3188.00,0.0039
3187.00,0.0039
3186.00,0.0039
3185.00,0.0039
3184.00,0.0039
3183.00,0.0039
3182.00,0.0039
3181.00,0.0039
3180.00,0.0039
3179.00,0.0038
3178.00,0.0038
3177.00,0.0038
3176.00,0.0038
3175.00,0.0037
3174.00,0.0037
3173.00,0.0037
3172.00,0.0037
3171.00,0.0037
3170.00,0.0037
3169.00,0.0037
3168.00,0.0037
3167.00,0.0036
3166.00,0.0036
3165.00,0.0036
3164.00,0.0036
3163.00,0.0036
3162.00,0.0036
3161.00,0.0035
3160.00,0.0035
3159.00,0.0035
3158.00,0.0035
3157.00,0.0035
3156.00,0.0034
3155.00,0.0034
3154.00,0.0034
3153.00,0.0034
3152.00,0.0034
3151.00,0.0034
3150.00,0.0034
3149.00,0.0034
3148.00,0.0034
3147.00,0.0035
3146.00,0.0035
3145.00,0.0035
3144.00,0.0035
3143.00,0.0035
3142.00,0.0034
3141.00,0.0034
3140.00,0.0034
3139.00,0.0033
3138.00,0.0033
3137.00,0.0033
3136.00,0.0033
3135.00,0.0033
3134.00,0.0033
3133.00,0.0032
3132.00,0.0032
3131.00,0.0032
3130.00,0.0032
3129.00,0.0032
3128.00,0.0031
3127.00,0.0031
3126.00,0.0031
3125.00,0.0031
3124.00,0.0031
3123.00,0.0030
3122.00,0.0030
3121.00,0.0030
3120.00,0.0029
3119.00,0.0030
3118.00,0.0030
3117.00,0.0030
3116.00,0.0030
3115.00,0.0030
3114.00,0.0029
3113.00,0.0029
3112.00,0.0029
3111.00,0.0029
3110.00,0.0029
3109.00,0.0029
3108.00,0.0029
3107.00,0.0029
3106.00,0.0029
3105.00,0.0029
3104.00,0.0029
3103.00,0.0029
3102.00,0.0029
3101.00,0.0029
3100.00,0.0029
3099.00,0.0029
3098.00,0.0028
3097.00,0.0028
3096.00,0.0029
3095.00,0.0029
3094.00,0.0029
3093.00,0.0029
3092.00,0.0029
3091.00,0.0029
3090.00,0.0029
3089.00,0.0029
3088.00,0.0029
3087.00,0.0028
3086.00,0.0028
3085.00,0.0028
3084.00,0.0028
3083.00,0.0028
3082.00,0.0028
3081.00,0.0028
3080.00,0.0029
3079.00,0.0029
3078.00,0.0029
3077.00,0.0029
3076.00,0.0029
3075.00,0.0029
3074.00,0.0029
3073.00,0.0029
3072.00,0.0029
3071.00,0.0029
3070.00,0.0029
3069.00,0.0029
3068.00,0.0029
3067.00,0.0029
3066.00,0.0029
3065.00,0.0029
3064.00,0.0030
3063.00,0.0030
3062.00,0.0030
3061.00,0.0030
3060.00,0.0030
3059.00,0.0031
3058.00,0.0031
3057.00,0.0031
3056.00,0.0032
3055.00,0.0032
3054.00,0.0032
3053.00,0.0032
3052.00,0.0032
3051.00,0.0032
3050.00,0.0033
3049.00,0.0033
3048.00,0.0034
3047.00,0.0034
3046.00,0.0034
3045.00,0.0034
3044.00,0.0034
3043.00,0.0034
3042.00,0.0034
3041.00,0.0035
3040.00,0.0035
3039.00,0.0036
3038.00,0.0036
3037.00,0.0037
3036.00,0.0037
3035.00,0.0037
3034.00,0.0037
3033.00,0.0038
3032.00,0.0038
3031.00,0.0039
3030.00,0.0040
3029.00,0.0041
3028.00,0.0042
3027.00,0.0043
3026.00,0.0045
3025.00,0.0046
3024.00,0.0048
3023.00,0.0049
3022.00,0.0051
3021.00,0.0053
3020.00,0.0056
3019.00,0.0059
3018.00,0.0063
3017.00,0.0067
3016.00,0.0072
3015.00,0.0078
3014.00,0.0084
3013.00,0.0092
3012.00,0.0100
3011.00,0.0109
3010.00,0.0119
3009.00,0.0130
3008.00,0.0141
3007.00,0.0154
3006.00,0.0167
3005.00,0.0181
3004.00,0.0195
3003.00,0.0209
3002.00,0.0224
3001.00,0.0237
3000.00,0.0251
2999.00,0.0263
2998.00,0.0275
2997.00,0.0286
2996.00,0.0296
2995.00,0.0307
2994.00,0.0317
2993.00,0.0328
2992.00,0.0339
2991.00,0.0350
2990.00,0.0361
2989.00,0.0373
2988.00,0.0388
2987.00,0.0408
2986.00,0.0437
2985.00,0.0477
2984.00,0.0525
2983.00,0.0573
2982.00,0.0611
2981.00,0.0632
2980.00,0.0639
2979.00,0.0639
2978.00,0.0640
2977.00,0.0648
2976.00,0.0665
2975.00,0.0693
2974.00,0.0733
2973.00,0.0780
2972.00,0.0830
2971.00,0.0879
2970.00,0.0925
2969.00,0.0972
2968.00,0.1025
2967.00,0.1084
2966.00,0.1147
2965.00,0.1211
2964.00,0.1272
2963.00,0.1328
2962.00,0.1376
2961.00,0.1417
2960.00,0.1452
2959.00,0.1487
2958.00,0.1524
2957.00,0.1569
2956.00,0.1625
2955.00,0.1693
2954.00,0.1769
2953.00,0.1847
2952.00,0.1916
2951.00,0.1967
2950.00,0.1987
2949.00,0.1969
2948.00,0.1910
2947.00,0.1814
2946.00,0.1695
2945.00,0.1565
2944.00,0.1441
2943.00,0.1334
2942.00,0.1250
2941.00,0.1193
2940.00,0.1159
2939.00,0.1149
2938.00,0.1158
2937.00,0.1185
2936.00,0.1230
2935.00,0.1290
2934.00,0.1364
2933.00,0.1451
2932.00,0.1548
2931.00,0.1654
2930.00,0.1766
2929.00,0.1880
2928.00,0.1996
2927.00,0.2109
2926.00,0.2220
2925.00,0.2329
2924.00,0.2437
2923.00,0.2545
2922.00,0.2654
2921.00,0.2761
2920.00,0.2858
2919.00,0.2935
2918.00,0.2978
2917.00,0.2978
2916.00,0.2932
2915.00,0.2846
2914.00,0.2732
2913.00,0.2607
2912.00,0.2482
2911.00,0.2365
2910.00,0.2261
2909.00,0.2168
2908.00,0.2083
2907.00,0.2005
2906.00,0.1930
2905.00,0.1856
2904.00,0.1784
2903.00,0.1714
2902.00,0.1647
2901.00,0.1582
2900.00,0.1520
2899.00,0.1462
2898.00,0.1409
2897.00,0.1360
2896.00,0.1317
2895.00,0.1280
2894.00,0.1251
2893.00,0.1227
2892.00,0.1209
2891.00,0.1196
2890.00,0.1188
2889.00,0.1182
2888.00,0.1179
2887.00,0.1179
2886.00,0.1183
2885.00,0.1192
2884.00,0.1203
2883.00,0.1218
2882.00,0.1236
2881.00,0.1255
2880.00,0.1275
2879.00,0.1293
2878.00,0.1304
2877.00,0.1306
2876.00,0.1301
2875.00,0.1293
2874.00,0.1285
2873.00,0.1283
2872.00,0.1288
2871.00,0.1300
2870.00,0.1317
2869.00,0.1333
2868.00,0.1342
2867.00,0.1337
2866.00,0.1309
2865.00,0.1258
2864.00,0.1187
2863.00,0.1105
2862.00,0.1022
2861.00,0.0949
2860.00,0.0889
2859.00,0.0846
2858.00,0.0818
2857.00,0.0804
2856.00,0.0800
2855.00,0.0805
2854.00,0.0818
2853.00,0.0835
2852.00,0.0853
2851.00,0.0870
2850.00,0.0882
2849.00,0.0889
2848.00,0.0895
2847.00,0.0904
2846.00,0.0920
2845.00,0.0947
2844.00,0.0985
2843.00,0.1030
2842.00,0.1080
2841.00,0.1127
2840.00,0.1165
2839.00,0.1185
2838.00,0.1182
2837.00,0.1150
2836.00,0.1090
2835.00,0.1007
2834.00,0.0908
2833.00,0.0806
2832.00,0.0708
2831.00,0.0620
2830.00,0.0546
2829.00,0.0485
2828.00,0.0435
2827.00,0.0395
2826.00,0.0362
2825.00,0.0335
2824.00,0.0313
2823.00,0.0294
2822.00,0.0278
2821.00,0.0264
2820.00,0.0252
2819.00,0.0242
2818.00,0.0233
2817.00,0.0225
2816.00,0.0217
2815.00,0.0210
2814.00,0.0204
2813.00,0.0198
2812.00,0.0192
2811.00,0.0186
2810.00,0.0180
2809.00,0.0174
2808.00,0.0168
2807.00,0.0162
2806.00,0.0156
2805.00,0.0150
2804.00,0.0143
2803.00,0.0138
2802.00,0.0133
2801.00,0.0129
2800.00,0.0125
2799.00,0.0122
2798.00,0.0119
2797.00,0.0116
2796.00,0.0114
2795.00,0.0111
2794.00,0.0109
2793.00,0.0106
2792.00,0.0103
2791.00,0.0100
2790.00,0.0097
2789.00,0.0094
2788.00,0.0091
2787.00,0.0089
2786.00,0.0086
2785.00,0.0084
2784.00,0.0081
2783.00,0.0079
2782.00,0.0077
2781.00,0.0075
2780.00,0.0074
2779.00,0.0072
2778.00,0.0071
2777.00,0.0069
2776.00,0.0068
2775.00,0.0067
2774.00,0.0066
2773.00,0.0066
2772.00,0.0065
2771.00,0.0065
2770.00,0.0065
2769.00,0.0065
2768.00,0.0064
2767.00,0.0063
2766.00,0.0063
2765.00,0.0063
2764.00,0.0062
2763.00,0.0062
2762.00,0.0061
2761.00,0.0061
2760.00,0.0061
2759.00,0.0060
2758.00,0.0059
2757.00,0.0059
2756.00,0.0059
2755.00,0.0059
2754.00,0.0059
2753.00,0.0059
2752.00,0.0058
2751.00,0.0058
2750.00,0.0057
2749.00,0.0057
2748.00,0.0057
2747.00,0.0057
2746.00,0.0057
2745.00,0.0058
2744.00,0.0059
2743.00,0.0060
2742.00,0.0061
2741.00,0.0062
2740.00,0.0063
2739.00,0.0065
2738.00,0.0066
2737.00,0.0067
2736.00,0.0069
2735.00,0.0070
2734.00,0.0072
2733.00,0.0073
2732.00,0.0075
2731.00,0.0077
2730.00,0.0079
2729.00,0.0082
2728.00,0.0084
2727.00,0.0087
2726.00,0.0090
2725.00,0.0092
2724.00,0.0093
2723.00,0.0093
2722.00,0.0092
2721.00,0.0090
2720.00,0.0087
2719.00,0.0084
2718.00,0.0081
2717.00,0.0078
2716.00,0.0075
2715.00,0.0073
2714.00,0.0070
2713.00,0.0068
2712.00,0.0066
2711.00,0.0064
2710.00,0.0062
2709.00,0.0060
2708.00,0.0058
2707.00,0.0057
2706.00,0.0056
2705.00,0.0055
2704.00,0.0054
2703.00,0.0053
2702.00,0.0052
2701.00,0.0051
2700.00,0.0050
2699.00,0.0049
2698.00,0.0049
2697.00,0.0049
2696.00,0.0049
2695.00,0.0049
2694.00,0.0049
2693.00,0.0049
2692.00,0.0049
2691.00,0.0049
2690.00,0.0049
2689.00,0.0049
2688.00,0.0049
2687.00,0.0050
2686.00,0.0050
2685.00,0.0050
2684.00,0.0050
2683.00,0.0050
2682.00,0.0051
2681.00,0.0051
2680.00,0.0051
2679.00,0.0052
2678.00,0.0052
2677.00,0.0052
2676.00,0.0052
2675.00,0.0052
2674.00,0.0052
2673.00,0.0052
2672.00,0.0052
2671.00,0.0052
2670.00,0.0052
2669.00,0.0052
2668.00,0.0053
2667.00,0.0053
2666.00,0.0054
2665.00,0.0054
2664.00,0.0055
2663.00,0.0055
2662.00,0.0056
2661.00,0.0057
2660.00,0.0057
2659.00,0.0057
2658.00,0.0057
2657.00,0.0056
2656.00,0.0055
2655.00,0.0054
2654.00,0.0053
2653.00,0.0053
2652.00,0.0053
2651.00,0.0053
2650.00,0.0052
2649.00,0.0052
2648.00,0.0051
2647.00,0.0051
2646.00,0.0050
2645.00,0.0049
2644.00,0.0049
2643.00,0.0048
2642.00,0.0048
2641.00,0.0048
2640.00,0.0047
2639.00,0.0046
2638.00,0.0046
2637.00,0.0045
2636.00,0.0044
2635.00,0.0044
2634.00,0.0044
2633.00,0.0044
2632.00,0.0045
2631.00,0.0045
2630.00,0.0045
2629.00,0.0045
2628.00,0.0045
2627.00,0.0045
2626.00,0.0044
2625.00,0.0044
2624.00,0.0044
2623.00,0.0044
2622.00,0.0045
2621.00,0.0045
2620.00,0.0046
2619.00,0.0045
2618.00,0.0045
2617.00,0.0044
2616.00,0.0044
2615.00,0.0044
2614.00,0.0044
2613.00,0.0044
2612.00,0.0044
2611.00,0.0043
2610.00,0.0042
2609.00,0.0041
2608.00,0.0040
2607.00,0.0039
2606.00,0.0038
2605.00,0.0038
2604.00,0.0038
2603.00,0.0038
2602.00,0.0038
2601.00,0.0037
2600.00,0.0036
2599.00,0.0035
2598.00,0.0034
2597.00,0.0034
2596.00,0.0034
2595.00,0.0035
2594.00,0.0035
2593.00,0.0035
2592.00,0.0035
2591.00,0.0035
2590.00,0.0036
2589.00,0.0038
2588.00,0.0039
2587.00,0.0040
2586.00,0.0040
2585.00,0.0041
2584.00,0.0041
2583.00,0.0041
2582.00,0.0041
2581.00,0.0041
2580.00,0.0041
2579.00,0.0041
2578.00,0.0040
2577.00,0.0039
2576.00,0.0038
2575.00,0.0036
2574.00,0.0034
2573.00,0.0033
2572.00,0.0031
2571.00,0.0031
2570.00,0.0030
2569.00,0.0028
2568.00,0.0027
2567.00,0.0026
2566.00,0.0026
2565.00,0.0027
2564.00,0.0027
2563.00,0.0027
2562.00,0.0027
2561.00,0.0026
2560.00,0.0026
2559.00,0.0026
2558.00,0.0026
2557.00,0.0025
2556.00,0.0025
2555.00,0.0024
2554.00,0.0024
2553.00,0.0024
2552.00,0.0024
2551.00,0.0023
2550.00,0.0023
2549.00,0.0022
2548.00,0.0022
2547.00,0.0022
2546.00,0.0022
2545.00,0.0022
2544.00,0.0022
2543.00,0.0021
2542.00,0.0021
2541.00,0.0020
2540.00,0.0019
2539.00,0.0019
2538.00,0.0019
2537.00,0.0019
2536.00,0.0019
2535.00,0.0020
2534.00,0.0020
2533.00,0.0019
2532.00,0.0019
2531.00,0.0018
2530.00,0.0018
2529.00,0.0018
2528.00,0.0018
2527.00,0.0018
2526.00,0.0017
2525.00,0.0016
2524.00,0.0016
2523.00,0.0016
2522.00,0.0016
2521.00,0.0016
2520.00,0.0016
2519.00,0.0016
2518.00,0.0016
2517.00,0.0016
2516.00,0.0015
2515.00,0.0014
2514.00,0.0014
2513.00,0.0014
2512.00,0.0014
2511.00,0.0014
2510.00,0.0014
2509.00,0.0014
2508.00,0.0014
2507.00,0.0013
2506.00,0.0013
2505.00,0.0013
2504.00,0.0013
2503.00,0.0013
2502.00,0.0012
2501.00,0.0012
2500.00,0.0012
2499.00,0.0012
2498.00,0.0012
2497.00,0.0012
2496.00,0.0012
2495.00,0.0013
2494.00,0.0013
2493.00,0.0014
2492.00,0.0015
2491.00,0.0015
2490.00,0.0014
2489.00,0.0014
2488.00,0.0013
2487.00,0.0013
2486.00,0.0013
2485.00,0.0013
2484.00,0.0014
2483.00,0.0014
2482.00,0.0013
2481.00,0.0013
2480.00,0.0013
2479.00,0.0012
2478.00,0.0011
2477.00,0.0011
2476.00,0.0010
2475.00,0.0010
2474.00,0.0011
2473.00,0.0011
2472.00,0.0011
2471.00,0.0011
2470.00,0.0011
2469.00,0.0012
2468.00,0.0012
2467.00,0.0013
2466.00,0.0013
2465.00,0.0013
2464.00,0.0013
2463.00,0.0013
2462.00,0.0012
2461.00,0.0012
2460.00,0.0013
2459.00,0.0013
2458.00,0.0013
2457.00,0.0013
2456.00,0.0013
2455.00,0.0013
2454.00,0.0014
2453.00,0.0014
2452.00,0.0014
2451.00,0.0013
2450.00,0.0013
2449.00,0.0012
2448.00,0.0012
2447.00,0.0012
2446.00,0.0012
2445.00,0.0012
2444.00,0.0012
2443.00,0.0011
2442.00,0.0011
2441.00,0.0012
2440.00,0.0013
2439.00,0.0013
2438.00,0.0013
2437.00,0.0013
2436.00,0.0014
2435.00,0.0014
2434.00,0.0014
2433.00,0.0014
2432.00,0.0013
2431.00,0.0013
2430.00,0.0013
2429.00,0.0013
2428.00,0.0014
2427.00,0.0014
2426.00,0.0014
2425.00,0.0014
2424.00,0.0014
2423.00,0.0014
2422.00,0.0013
2421.00,0.0013
2420.00,0.0014
2419.00,0.0014
2418.00,0.0013
2417.00,0.0012
2416.00,0.0012
2415.00,0.0011
2414.00,0.0012
2413.00,0.0012
2412.00,0.0013
2411.00,0.0013
2410.00,0.0012
2409.00,0.0012
2408.00,0.0011
2407.00,0.0011
2406.00,0.0011
2405.00,0.0010
2404.00,0.0010
2403.00,0.0010
2402.00,0.0010
2401.00,0.0010
2400.00,0.0010
2399.00,0.0010
2398.00,0.0010
2397.00,0.0010
2396.00,0.0010
2395.00,0.0010
2394.00,0.0009
2393.00,0.0009
2392.00,0.0009
2391.00,0.0009
2390.00,0.0010
2389.00,0.0010
2388.00,0.0009
2387.00,0.0009
2386.00,0.0008
2385.00,0.0007
2384.00,0.0006
2383.00,0.0005
2382.00,0.0004
2381.00,0.0003
2380.00,0.0002
2379.00,0.0002
2378.00,0.0002
2377.00,0.0002
2376.00,0.0002
2375.00,0.0002
2374.00,0.0002
2373.00,0.0001
2372.00,0.0001
2371.00,0.0001
2370.00,0.0001
2369.00,0.0003
2368.00,0.0003
2367.00,0.0003
2366.00,0.0003
2365.00,0.0002
2364.00,0.0002
2363.00,0.0002
2362.00,0.0002
2361.00,0.0003
2360.00,0.0004
2359.00,0.0004
2358.00,0.0004
2357.00,0.0004
2356.00,0.0004
2355.00,0.0003
2354.00,0.0003
2353.00,0.0003
2352.00,0.0003
2351.00,0.0004
2350.00,0.0004
2349.00,0.0005
2348.00,0.0005
2347.00,0.0005
2346.00,0.0006
2345.00,0.0006
2344.00,0.0006
2343.00,0.0007
2342.00,0.0007
2341.00,0.0007
2340.00,0.0007
2339.00,0.0008
2338.00,0.0008
2337.00,0.0008
2336.00,0.0008
2335.00,0.0008
2334.00,0.0008
2333.00,0.0008
2332.00,0.0007
2331.00,0.0007
2330.00,0.0007
2329.00,0.0008
2328.00,0.0010
2327.00,0.0013
2326.00,0.0016
2325.00,0.0019
2324.00,0.0021
2323.00,0.0020
2322.00,0.0018
2321.00,0.0016
2320.00,0.0015
2319.00,0.0014
2318.00,0.0013
2317.00,0.0013
2316.00,0.0013
2315.00,0.0013
2314.00,0.0013
2313.00,0.0013
2312.00,0.0013
2311.00,0.0012
2310.00,0.0012
2309.00,0.0012
2308.00,0.0011
2307.00,0.0011
2306.00,0.0011
2305.00,0.0011
2304.00,0.0011
2303.00,0.0011
2302.00,0.0011
2301.00,0.0012
2300.00,0.0013
2299.00,0.0013
2298.00,0.0014
2297.00,0.0015
2296.00,0.0016
2295.00,0.0017
2294.00,0.0017
2293.00,0.0018
2292.00,0.0019
2291.00,0.0020
2290.00,0.0020
2289.00,0.0021
2288.00,0.0021
2287.00,0.0021
2286.00,0.0021
2285.00,0.0021
2284.00,0.0020
2283.00,0.0020
2282.00,0.0019
2281.00,0.0018
2280.00,0.0018
2279.00,0.0018
2278.00,0.0018
2277.00,0.0018
2276.00,0.0017
2275.00,0.0016
2274.00,0.0015
2273.00,0.0014
2272.00,0.0014
2271.00,0.0014
2270.00,0.0015
2269.00,0.0015
2268.00,0.0014
2267.00,0.0013
2266.00,0.0011
2265.00,0.0011
2264.00,0.0011
2263.00,0.0012
2262.00,0.0012
2261.00,0.0012
2260.00,0.0012
2259.00,0.0013
2258.00,0.0013
2257.00,0.0014
2256.00,0.0013
2255.00,0.0011
2254.00,0.0010
2253.00,0.0010
2252.00,0.0010
2251.00,0.0011
2250.00,0.0012
2249.00,0.0012
2248.00,0.0011
2247.00,0.0011
2246.00,0.0010
2245.00,0.0009
2244.00,0.0009
2243.00,0.0009
2242.00,0.0010
2241.00,0.0010
2240.00,0.0009
2239.00,0.0008
2238.00,0.0007
2237.00,0.0008
2236.00,0.0009
2235.00,0.0011
2234.00,0.0011
2233.00,0.0011
2232.00,0.0011
2231.00,0.0010
2230.00,0.0010
2229.00,0.0010
2228.00,0.0009
2227.00,0.0008
2226.00,0.0007
2225.00,0.0007
2224.00,0.0008
2223.00,0.0008
2222.00,0.0009
2221.00,0.0010
2220.00,0.0010
2219.00,0.0009
2218.00,0.0009
2217.00,0.0008
2216.00,0.0009
2215.00,0.0009
2214.00,0.0009
2213.00,0.0009
2212.00,0.0009
2211.00,0.0008
2210.00,0.0007
2209.00,0.0007
2208.00,0.0008
2207.00,0.0010
2206.00,0.0011
2205.00,0.0012
2204.00,0.0013
2203.00,0.0013
2202.00,0.0013
2201.00,0.0012
2200.00,0.0011
2199.00,0.0009
2198.00,0.0008
2197.00,0.0010
2196.00,0.0012
2195.00,0.0014
2194.00,0.0013
2193.00,0.0012
2192.00,0.0010
2191.00,0.0010
2190.00,0.0011
2189.00,0.0013
2188.00,0.0016
2187.00,0.0017
2186.00,0.0017
2185.00,0.0015
2184.00,0.0013
2183.00,0.0010
2182.00,0.0006
2181.00,0.0002
2180.00,-0.0000
2179.00,0.0001
2178.00,0.0004
2177.00,0.0007
2176.00,0.0008
2175.00,0.0008
2174.00,0.0006
2173.00,0.0006
2172.00,0.0008
2171.00,0.0012
2170.00,0.0016
2169.00,0.0020
2168.00,0.0021
2167.00,0.0020
2166.00,0.0018
2165.00,0.0014
2164.00,0.0011
2163.00,0.0011
2162.00,0.0011
2161.00,0.0008
2160.00,-0.0003
2159.00,-0.0017
2158.00,-0.0029
2157.00,-0.0034
2156.00,-0.0033
2155.00,-0.0030
2154.00,-0.0025
2153.00,-0.0021
2152.00,-0.0018
2151.00,-0.0017
2150.00,-0.0017
2149.00,-0.0015
2148.00,-0.0014
2147.00,-0.0013
2146.00,-0.0013
2145.00,-0.0011
2144.00,-0.0010
2143.00,-0.0010
2142.00,-0.0010
2141.00,-0.0011
2140.00,-0.0011
2139.00,-0.0012
2138.00,-0.0013
2137.00,-0.0014
2136.00,-0.0015
2135.00,-0.0017
2134.00,-0.0018
2133.00,-0.0018
2132.00,-0.0015
2131.00,-0.0012
2130.00,-0.0009
2129.00,-0.0008
2128.00,-0.0008
2127.00,-0.0008
2126.00,-0.0008
2125.00,-0.0006
2124.00,-0.0004
2123.00,-0.0003
2122.00,-0.0004
2121.00,-0.0005
2120.00,-0.0006
2119.00,-0.0006
2118.00,-0.0005
2117.00,-0.0003
2116.00,-0.0002
2115.00,0.0000
2114.00,0.0002
2113.00,0.0004
2112.00,0.0005
2111.00,0.0006
2110.00,0.0006
2109.00,0.0005
2108.00,0.0004
2107.00,0.0004
2106.00,0.0005
2105.00,0.0006
2104.00,0.0007
2103.00,0.0007
2102.00,0.0007
2101.00,0.0007
2100.00,0.0007
2099.00,0.0006
2098.00,0.0004
2097.00,0.0002
2096.00,-0.0000
2095.00,-0.0003
2094.00,-0.0004
2093.00,-0.0005
2092.00,-0.0004
2091.00,-0.0002
2090.00,-0.0001
2089.00,-0.0001
2088.00,-0.0000
2087.00,0.0001
2086.00,0.0001
2085.00,0.0002
2084.00,0.0003
2083.00,0.0003
2082.00,0.0004
2081.00,0.0005
2080.00,0.0006
2079.00,0.0006
2078.00,0.0006
2077.00,0.0005
2076.00,0.0005
2075.00,0.0004
2074.00,0.0004
2073.00,0.0004
2072.00,0.0004
2071.00,0.0004
2070.00,0.0004
2069.00,0.0003
2068.00,0.0001
2067.00,-0.0001
2066.00,-0.0003
2065.00,-0.0002
2064.00,-0.0000
2063.00,0.0001
2062.00,0.0002
2061.00,0.0003
2060.00,0.0004
2059.00,0.0004
2058.00,0.0004
2057.00,0.0003
2056.00,0.0001
2055.00,0.0000
2054.00,0.0002
2053.00,0.0006
2052.00,0.0012
2051.00,0.0016
2050.00,0.0016
2049.00,0.0015
2048.00,0.0013
2047.00,0.0011
2046.00,0.0009
2045.00,0.0007
2044.00,0.0005
2043.00,0.0002
2042.00,-0.0002
2041.00,-0.0005
2040.00,-0.0005
2039.00,-0.0002
2038.00,0.0003
2037.00,0.0006
2036.00,0.0006
2035.00,0.0004
2034.00,0.0002
2033.00,0.0001
2032.00,0.0002
2031.00,0.0003
2030.00,0.0002
2029.00,-0.0001
2028.00,-0.0003
2027.00,-0.0005
2026.00,-0.0005
2025.00,-0.0005
2024.00,-0.0004
2023.00,-0.0006
2022.00,-0.0010
2021.00,-0.0015
2020.00,-0.0017
2019.00,-0.0016
2018.00,-0.0012
2017.00,-0.0009
2016.00,-0.0008
2015.00,-0.0009
2014.00,-0.0010
2013.00,-0.0008
2012.00,-0.0005
2011.00,-0.0002
2010.00,-0.0000
2009.00,-0.0000
2008.00,-0.0002
2007.00,-0.0005
2006.00,-0.0008
2005.00,-0.0010
2004.00,-0.0010
2003.00,-0.0011
2002.00,-0.0011
2001.00,-0.0011
2000.00,-0.0012
1999.00,-0.0012
1998.00,-0.0013
1997.00,-0.0014
1996.00,-0.0014
1995.00,-0.0014
1994.00,-0.0012
1993.00,-0.0009
1992.00,-0.0006
1991.00,-0.0005
1990.00,-0.0004
1989.00,-0.0002
1988.00,-0.0001
1987.00,0.0002
1986.00,0.0004
1985.00,0.0007
1984.00,0.0010
1983.00,0.0011
1982.00,0.0012
1981.00,0.0013
1980.00,0.0011
1979.00,0.0007
1978.00,0.0001
1977.00,-0.0005
1976.00,-0.0008
1975.00,-0.0010
1974.00,-0.0010
1973.00,-0.0011
1972.00,-0.0011
1971.00,-0.0013
1970.00,-0.0016
1969.00,-0.0018
1968.00,-0.0018
1967.00,-0.0016
1966.00,-0.0013
1965.00,-0.0011
1964.00,-0.0010
1963.00,-0.0010
1962.00,-0.0012
1961.00,-0.0013
1960.00,-0.0013
1959.00,-0.0013
1958.00,-0.0012
1957.00,-0.0011
1956.00,-0.0010
1955.00,-0.0010
1954.00,-0.0011
1953.00,-0.0011
1952.00,-0.0011
1951.00,-0.0011
1950.00,-0.0010
1949.00,-0.0009
1948.00,-0.0010
1947.00,-0.0011
1946.00,-0.0012
1945.00,-0.0012
1944.00,-0.0011
1943.00,-0.0011
1942.00,-0.0011
1941.00,-0.0011
1940.00,-0.0011
1939.00,-0.0011
1938.00,-0.0012
1937.00,-0.0012
1936.00,-0.0012
1935.00,-0.0012
1934.00,-0.0010
1933.00,-0.0009
1932.00,-0.0008
1931.00,-0.0009
1930.00,-0.0010
1929.00,-0.0009
1928.00,-0.0009
1927.00,-0.0008
1926.00,-0.0008
1925.00,-0.0008
1924.00,-0.0007
1923.00,-0.0006
1922.00,-0.0004
1921.00,-0.0002
1920.00,-0.0001
1919.00,-0.0001
1918.00,-0.0002
1917.00,-0.0002
1916.00,-0.0002
1915.00,-0.0001
1914.00,-0.0001
1913.00,-0.0001
1912.00,-0.0002
1911.00,-0.0002
1910.00,-0.0001
1909.00,-0.0001
1908.00,0.0000
1907.00,0.0001
1906.00,0.0001
1905.00,0.0001
1904.00,0.0001
1903.00,0.0000
1902.00,-0.0001
1901.00,-0.0002
1900.00,-0.0001
1899.00,-0.0000
1898.00,0.0001
1897.00,0.0002
1896.00,0.0002
1895.00,0.0001
1894.00,-0.0000
1893.00,-0.0001
1892.00,-0.0000
1891.00,0.0001
1890.00,0.0001
1889.00,0.0002
1888.00,0.0002
1887.00,0.0002
1886.00,0.0001
1885.00,0.0001
1884.00,0.0000
1883.00,-0.0000
1882.00,-0.0001
1881.00,-0.0001
1880.00,-0.0001
1879.00,-0.0001
1878.00,-0.0000
1877.00,0.0001
1876.00,0.0002
1875.00,0.0002
1874.00,0.0003
1873.00,0.0002
1872.00,0.0001
1871.00,0.0000
1870.00,-0.0000
1869.00,-0.0000
1868.00,0.0000
1867.00,0.0001
1866.00,0.0001
1865.00,0.0002
1864.00,0.0002
1863.00,0.0002
1862.00,0.0002
1861.00,0.0002
1860.00,0.0002
1859.00,0.0002
1858.00,0.0003
1857.00,0.0003
1856.00,0.0003
1855.00,0.0003
1854.00,0.0003
1853.00,0.0003
1852.00,0.0003
1851.00,0.0003
1850.00,0.0003
1849.00,0.0003
1848.00,0.0003
1847.00,0.0003
1846.00,0.0003
1845.00,0.0004
1844.00,0.0004
1843.00,0.0005
1842.00,0.0004
1841.00,0.0004
1840.00,0.0004
1839.00,0.0003
1838.00,0.0003
1837.00,0.0004
1836.00,0.0004
1835.00,0.0005
1834.00,0.0005
1833.00,0.0005
1832.00,0.0005
1831.00,0.0006
1830.00,0.0006
1829.00,0.0007
1828.00,0.0007
1827.00,0.0007
1826.00,0.0006
1825.00,0.0007
1824.00,0.0006
1823.00,0.0006
1822.00,0.0005
1821.00,0.0004
1820.00,0.0004
1819.00,0.0003
1818.00,0.0002
1817.00,0.0002
1816.00,0.0002
1815.00,0.0003
1814.00,0.0004
1813.00,0.0004
1812.00,0.0005
1811.00,0.0005
1810.00,0.0005
1809.00,0.0005
1808.00,0.0005
1807.00,0.0006
1806.00,0.0006
1805.00,0.0007
1804.00,0.0007
1803.00,0.0007
1802.00,0.0007
1801.00,0.0007
1800.00,0.0007
1799.00,0.0007
1798.00,0.0007
1797.00,0.0008
1796.00,0.0008
1795.00,0.0009
1794.00,0.0009
1793.00,0.0009
1792.00,0.0010
1791.00,0.0010
1790.00,0.0010
1789.00,0.0010
1788.00,0.0011
1787.00,0.0011
1786.00,0.0011
1785.00,0.0012
1784.00,0.0012
1783.00,0.0012
1782.00,0.0012
1781.00,0.0013
1780.00,0.0013
1779.00,0.0014
1778.00,0.0014
1777.00,0.0014
1776.00,0.0015
1775.00,0.0015
1774.00,0.0016
1773.00,0.0016
1772.00,0.0017
1771.00,0.0018
1770.00,0.0018
1769.00,0.0019
1768.00,0.0020
1767.00,0.0020
1766.00,0.0020
1765.00,0.0020
1764.00,0.0021
1763.00,0.0023
1762.00,0.0025
1761.00,0.0027
1760.00,0.0029
1759.00,0.0031
1758.00,0.0033
1757.00,0.0037
1756.00,0.0040
1755.00,0.0043
1754.00,0.0046
1753.00,0.0049
1752.00,0.0053
1751.00,0.0057
1750.00,0.0059
1749.00,0.0061
1748.00,0.0062
1747.00,0.0063
1746.00,0.0063
1745.00,0.0063
1744.00,0.0063
1743.00,0.0062
1742.00,0.0062
1741.00,0.0061
1740.00,0.0060
1739.00,0.0059
1738.00,0.0057
1737.00,0.0056
1736.00,0.0054
1735.00,0.0052
1734.00,0.0050
1733.00,0.0048
1732.00,0.0046
1731.00,0.0045
1730.00,0.0044
1729.00,0.0043
1728.00,0.0041
1727.00,0.0040
1726.00,0.0039
1725.00,0.0038
1724.00,0.0037
1723.00,0.0036
1722.00,0.0036
1721.00,0.0035
1720.00,0.0035
1719.00,0.0034
1718.00,0.0033
1717.00,0.0033
1716.00,0.0032
1715.00,0.0032
1714.00,0.0031
1713.00,0.0030
1712.00,0.0029
1711.00,0.0029
1710.00,0.0029
1709.00,0.0029
1708.00,0.0029
1707.00,0.0029
1706.00,0.0028
1705.00,0.0028
1704.00,0.0028
1703.00,0.0028
1702.00,0.0029
1701.00,0.0029
1700.00,0.0030
1699.00,0.0030
1698.00,0.0030
1697.00,0.0031
1696.00,0.0032
1695.00,0.0033
1694.00,0.0033
1693.00,0.0033
1692.00,0.0034
1691.00,0.0034
1690.00,0.0035
1689.00,0.0037
1688.00,0.0037
1687.00,0.0038
1686.00,0.0038
1685.00,0.0038
1684.00,0.0039
1683.00,0.0040
1682.00,0.0040
1681.00,0.0040
1680.00,0.0041
1679.00,0.0042
1678.00,0.0042
1677.00,0.0043
1676.00,0.0044
1675.00,0.0045
1674.00,0.0044
1673.00,0.0044
1672.00,0.0044
1671.00,0.0044
1670.00,0.0044
1669.00,0.0044
1668.00,0.0044
1667.00,0.0044
1666.00,0.0045
1665.00,0.0045
1664.00,0.0046
1663.00,0.0046
1662.00,0.0046
1661.00,0.0046
1660.00,0.0046
1659.00,0.0047
1658.00,0.0047
1657.00,0.0049
1656.00,0.0049
1655.00,0.0050
1654.00,0.0050
1653.00,0.0050
1652.00,0.0051
1651.00,0.0052
1650.00,0.0052
1649.00,0.0052
1648.00,0.0053
1647.00,0.0054
1646.00,0.0054
1645.00,0.0054
1644.00,0.0055
1643.00,0.0055
1642.00,0.0056
1641.00,0.0057
1640.00,0.0058
1639.00,0.0059
1638.00,0.0059
1637.00,0.0060
1636.00,0.0060
1635.00,0.0060
1634.00,0.0060
1633.00,0.0060
1632.00,0.0059
1631.00,0.0060
1630.00,0.0060
1629.00,0.0060
1628.00,0.0060
1627.00,0.0060
1626.00,0.0061
1625.00,0.0061
1624.00,0.0062
1623.00,0.0062
1622.00,0.0061
1621.00,0.0061
1620.00,0.0061
1619.00,0.0060
1618.00,0.0059
1617.00,0.0059
1616.00,0.0059
1615.00,0.0060
1614.00,0.0060
1613.00,0.0060
1612.00,0.0061
1611.00,0.0061
1610.00,0.0061
1609.00,0.0062
1608.00,0.0062
1607.00,0.0062
1606.00,0.0062
1605.00,0.0062
1604.00,0.0062
1603.00,0.0062
1602.00,0.0063
1601.00,0.0063
1600.00,0.0064
1599.00,0.0065
1598.00,0.0065
1597.00,0.0066
1596.00,0.0066
1595.00,0.0066
1594.00,0.0066
1593.00,0.0066
1592.00,0.0067
1591.00,0.0067
1590.00,0.0068
1589.00,0.0069
1588.00,0.0071
1587.00,0.0073
1586.00,0.0075
1585.00,0.0079
1584.00,0.0083
1583.00,0.0087
1582.00,0.0092
1581.00,0.0096
1580.00,0.0101
1579.00,0.0105
1578.00,0.0107
1577.00,0.0107
1576.00,0.0107
1575.00,0.0105
1574.00,0.0102
1573.00,0.0100
1572.00,0.0097
1571.00,0.0093
1570.00,0.0089
1569.00,0.0085
1568.00,0.0081
1567.00,0.0079
1566.00,0.0077
1565.00,0.0075
1564.00,0.0074
1563.00,0.0073
1562.00,0.0073
1561.00,0.0074
1560.00,0.0073
1559.00,0.0071
1558.00,0.0070
1557.00,0.0070
1556.00,0.0070
1555.00,0.0071
1554.00,0.0071
1553.00,0.0072
1552.00,0.0072
1551.00,0.0074
1550.00,0.0076
1549.00,0.0079
1548.00,0.0082
1547.00,0.0086
1546.00,0.0090
1545.00,0.0095
1544.00,0.0101
1543.00,0.0105
1542.00,0.0108
1541.00,0.0110
1540.00,0.0108
1539.00,0.0103
1538.00,0.0097
1537.00,0.0093
1536.00,0.0090
1535.00,0.0086
1534.00,0.0080
1533.00,0.0074
1532.00,0.0069
1531.00,0.0066
1530.00,0.0065
1529.00,0.0064
1528.00,0.0063
1527.00,0.0062
1526.00,0.0060
1525.00,0.0060
1524.00,0.0060
1523.00,0.0060
1522.00,0.0060
1521.00,0.0060
1520.00,0.0060
1519.00,0.0060
1518.00,0.0060
1517.00,0.0061
1516.00,0.0063
1515.00,0.0063
1514.00,0.0063
1513.00,0.0064
1512.00,0.0066
1511.00,0.0067
1510.00,0.0067
1509.00,0.0068
1508.00,0.0069
1507.00,0.0070
1506.00,0.0070
1505.00,0.0071
1504.00,0.0073
1503.00,0.0075
1502.00,0.0077
1501.00,0.0080
1500.00,0.0083
1499.00,0.0087
1498.00,0.0090
1497.00,0.0093
1496.00,0.0097
1495.00,0.0100
1494.00,0.0103
1493.00,0.0106
1492.00,0.0111
1491.00,0.0116
1490.00,0.0122
1489.00,0.0129
1488.00,0.0136
1487.00,0.0142
1486.00,0.0148
1485.00,0.0157
1484.00,0.0166
1483.00,0.0176
1482.00,0.0188
1481.00,0.0203
1480.00,0.0218
1479.00,0.0234
1478.00,0.0252
1477.00,0.0277
1476.00,0.0308
1475.00,0.0343
1474.00,0.0386
1473.00,0.0443
1472.00,0.0505
1471.00,0.0563
1470.00,0.0620
1469.00,0.0681
1468.00,0.0750
1467.00,0.0830
1466.00,0.0923
1465.00,0.1026
1464.00,0.1117
1463.00,0.1177
1462.00,0.1213
1461.00,0.1234
1460.00,0.1246
1459.00,0.1252
1458.00,0.1253
1457.00,0.1249
1456.00,0.1238
1455.00,0.1221
1454.00,0.1201
1453.00,0.1176
1452.00,0.1142
1451.00,0.1098
1450.00,0.1042
1449.00,0.0968
1448.00,0.0878
1447.00,0.0785
1446.00,0.0703
1445.00,0.0635
1444.00,0.0577
1443.00,0.0530
1442.00,0.0496
1441.00,0.0473
1440.00,0.0460
1439.00,0.0457
1438.00,0.0462
1437.00,0.0468
1436.00,0.0461
1435.00,0.0438
1434.00,0.0402
1433.00,0.0358
1432.00,0.0312
1431.00,0.0271
1430.00,0.0239
1429.00,0.0215
1428.00,0.0200
1427.00,0.0191
1426.00,0.0186
1425.00,0.0181
1424.00,0.0177
1423.00,0.0175
1422.00,0.0175
1421.00,0.0174
1420.00,0.0172
1419.00,0.0171
1418.00,0.0171
1417.00,0.0170
1416.00,0.0169
1415.00,0.0170
1414.00,0.0171
1413.00,0.0172
1412.00,0.0173
1411.00,0.0174
1410.00,0.0177
1409.00,0.0179
1408.00,0.0181
1407.00,0.0184
1406.00,0.0189
1405.00,0.0195
1404.00,0.0201
1403.00,0.0208
1402.00,0.0216
1401.00,0.0224
1400.00,0.0233
1399.00,0.0243
1398.00,0.0253
1397.00,0.0262
1396.00,0.0270
1395.00,0.0281
1394.00,0.0290
1393.00,0.0297
1392.00,0.0303
1391.00,0.0310
1390.00,0.0320
1389.00,0.0335
1388.00,0.0357
1387.00,0.0389
1386.00,0.0433
1385.00,0.0490
1384.00,0.0569
1383.00,0.0681
1382.00,0.0833
1381.00,0.1031
1380.00,0.1279
1379.00,0.1564
1378.00,0.1842
1377.00,0.2050
1376.00,0.2123
1375.00,0.2024
1374.00,0.1781
1373.00,0.1485
1372.00,0.1212
1371.00,0.0985
1370.00,0.0804
1369.00,0.0666
1368.00,0.0571
1367.00,0.0511
1366.00,0.0477
1365.00,0.0462
1364.00,0.0462
1363.00,0.0474
1362.00,0.0494
1361.00,0.0515
1360.00,0.0530
1359.00,0.0533
1358.00,0.0520
1357.00,0.0492
1356.00,0.0453
1355.00,0.0408
1354.00,0.0366
1353.00,0.0329
1352.00,0.0299
1351.00,0.0274
1350.00,0.0254
1349.00,0.0237
1348.00,0.0223
1347.00,0.0212
1346.00,0.0202
1345.00,0.0194
1344.00,0.0187
1343.00,0.0182
1342.00,0.0177
1341.00,0.0172
1340.00,0.0169
1339.00,0.0165
1338.00,0.0164
1337.00,0.0163
1336.00,0.0163
1335.00,0.0164
1334.00,0.0166
1333.00,0.0169
1332.00,0.0172
1331.00,0.0175
1330.00,0.0175
1329.00,0.0173
1328.00,0.0167
1327.00,0.0161
1326.00,0.0153
1325.00,0.0146
1324.00,0.0139
1323.00,0.0133
1322.00,0.0128
1321.00,0.0125
1320.00,0.0122
1319.00,0.0120
1318.00,0.0117
1317.00,0.0115
1316.00,0.0113
1315.00,0.0112
1314.00,0.0111
1313.00,0.0110
1312.00,0.0110
1311.00,0.0111
1310.00,0.0113
1309.00,0.0117
1308.00,0.0122
1307.00,0.0130
1306.00,0.0138
1305.00,0.0144
1304.00,0.0147
1303.00,0.0146
1302.00,0.0144
1301.00,0.0143
1300.00,0.0143
1299.00,0.0145
1298.00,0.0148
1297.00,0.0149
1296.00,0.0149
1295.00,0.0147
1294.00,0.0144
1293.00,0.0140
1292.00,0.0136
1291.00,0.0132
1290.00,0.0128
1289.00,0.0125
1288.00,0.0122
1287.00,0.0120
1286.00,0.0119
1285.00,0.0118
1284.00,0.0118
1283.00,0.0117
1282.00,0.0117
1281.00,0.0118
1280.00,0.0119
1279.00,0.0121
1278.00,0.0123
1277.00,0.0125
1276.00,0.0127
1275.00,0.0130
1274.00,0.0134
1273.00,0.0137
1272.00,0.0141
1271.00,0.0146
1270.00,0.0151
1269.00,0.0157
1268.00,0.0162
1267.00,0.0168
1266.00,0.0174
1265.00,0.0179
1264.00,0.0184
1263.00,0.0188
1262.00,0.0191
1261.00,0.0194
1260.00,0.0199
1259.00,0.0204
1258.00,0.0211
1257.00,0.0217
1256.00,0.0221
1255.00,0.0222
1254.00,0.0221
1253.00,0.0217
1252.00,0.0213
1251.00,0.0207
1250.00,0.0202
1249.00,0.0196
1248.00,0.0190
1247.00,0.0186
1246.00,0.0182
1245.00,0.0180
1244.00,0.0178
1243.00,0.0177
1242.00,0.0176
1241.00,0.0174
1240.00,0.0172
1239.00,0.0171
1238.00,0.0169
1237.00,0.0166
1236.00,0.0163
1235.00,0.0161
1234.00,0.0158
1233.00,0.0156
1232.00,0.0154
1231.00,0.0152
1230.00,0.0150
1229.00,0.0148
1228.00,0.0147
1227.00,0.0146
1226.00,0.0145
1225.00,0.0145
1224.00,0.0145
1223.00,0.0146
1222.00,0.0147
1221.00,0.0148
1220.00,0.0148
1219.00,0.0147
1218.00,0.0145
1217.00,0.0142
1216.00,0.0138
1215.00,0.0134
1214.00,0.0130
1213.00,0.0126
1212.00,0.0123
1211.00,0.0120
1210.00,0.0118
1209.00,0.0117
1208.00,0.0115
1207.00,0.0114
1206.00,0.0113
1205.00,0.0113
1204.00,0.0113
1203.00,0.0114
1202.00,0.0114
1201.00,0.0115
1200.00,0.0116
1199.00,0.0118
1198.00,0.0119
1197.00,0.0121
1196.00,0.0123
1195.00,0.0124
1194.00,0.0126
1193.00,0.0127
1192.00,0.0130
1191.00,0.0132
1190.00,0.0135
1189.00,0.0137
1188.00,0.0141
1187.00,0.0144
1186.00,0.0149
1185.00,0.0154
1184.00,0.0160
1183.00,0.0166
1182.00,0.0173
1181.00,0.0180
1180.00,0.0187
1179.00,0.0195
1178.00,0.0203
1177.00,0.0212
1176.00,0.0223
1175.00,0.0236
1174.00,0.0254
1173.00,0.0276
1172.00,0.0300
1171.00,0.0326
1170.00,0.0351
1169.00,0.0371
1168.00,0.0384
1167.00,0.0390
1166.00,0.0389
1165.00,0.0385
1164.00,0.0378
1163.00,0.0371
1162.00,0.0365
1161.00,0.0360
1160.00,0.0358
1159.00,0.0357
1158.00,0.0358
1157.00,0.0359
1156.00,0.0360
1155.00,0.0361
1154.00,0.0361
1153.00,0.0360
1152.00,0.0356
1151.00,0.0350
1150.00,0.0340
1149.00,0.0329
1148.00,0.0317
1147.00,0.0305
1146.00,0.0294
1145.00,0.0282
1144.00,0.0272
1143.00,0.0263
1142.00,0.0255
1141.00,0.0247
1140.00,0.0240
1139.00,0.0233
1138.00,0.0226
1137.00,0.0220
1136.00,0.0213
1135.00,0.0208
1134.00,0.0204
1133.00,0.0201
1132.00,0.0198
1131.00,0.0196
1130.00,0.0194
1129.00,0.0192
1128.00,0.0190
1127.00,0.0188
1126.00,0.0187
1125.00,0.0185
1124.00,0.0183
1123.00,0.0181
1122.00,0.0179
1121.00,0.0177
1120.00,0.0176
1119.00,0.0175
1118.00,0.0174
1117.00,0.0173
1116.00,0.0172
1115.00,0.0171
1114.00,0.0172
1113.00,0.0173
1112.00,0.0174
1111.00,0.0175
1110.00,0.0177
1109.00,0.0179
1108.00,0.0182
1107.00,0.0188
1106.00,0.0195
1105.00,0.0203
1104.00,0.0209
1103.00,0.0213
1102.00,0.0213
1101.00,0.0210
1100.00,0.0206
1099.00,0.0202
1098.00,0.0199
1097.00,0.0196
1096.00,0.0195
1095.00,0.0195
1094.00,0.0196
1093.00,0.0197
1092.00,0.0199
1091.00,0.0201
1090.00,0.0203
1089.00,0.0204
1088.00,0.0205
1087.00,0.0205
1086.00,0.0205
1085.00,0.0205
1084.00,0.0206
1083.00,0.0206
1082.00,0.0207
1081.00,0.0207
1080.00,0.0207
1079.00,0.0206
1078.00,0.0206
1077.00,0.0205
1076.00,0.0204
1075.00,0.0205
1074.00,0.0206
1073.00,0.0206
1072.00,0.0205
1071.00,0.0203
1070.00,0.0200
1069.00,0.0196
1068.00,0.0192
1067.00,0.0187
1066.00,0.0182
1065.00,0.0178
1064.00,0.0176
1063.00,0.0174
1062.00,0.0173
1061.00,0.0172
1060.00,0.0171
1059.00,0.0169
1058.00,0.0167
1057.00,0.0164
1056.00,0.0162
1055.00,0.0160
1054.00,0.0158
1053.00,0.0157
1052.00,0.0156
1051.00,0.0156
1050.00,0.0156
1049.00,0.0155
1048.00,0.0155
1047.00,0.0155
1046.00,0.0156
1045.00,0.0156
1044.00,0.0155
1043.00,0.0153
1042.00,0.0151
1041.00,0.0148
1040.00,0.0145
1039.00,0.0144
1038.00,0.0143
1037.00,0.0143
1036.00,0.0142
1035.00,0.0141
1034.00,0.0140
1033.00,0.0138
1032.00,0.0136
1031.00,0.0134
1030.00,0.0133
1029.00,0.0133
1028.00,0.0133
1027.00,0.0133
1026.00,0.0134
1025.00,0.0136
1024.00,0.0139
1023.00,0.0141
1022.00,0.0144
1021.00,0.0145
1020.00,0.0147
1019.00,0.0148
1018.00,0.0148
1017.00,0.0148
1016.00,0.0149
1015.00,0.0149
1014.00,0.0150
1013.00,0.0151
1012.00,0.0152
1011.00,0.0152
1010.00,0.0151
1009.00,0.0150
1008.00,0.0150
1007.00,0.0152
1006.00,0.0156
1005.00,0.0163
1004.00,0.0172
1003.00,0.0186
1002.00,0.0205
1001.00,0.0229
1000.00,0.0254
999.00,0.0274
998.00,0.0283
997.00,0.0276
996.00,0.0256
995.00,0.0229
994.00,0.0202
993.00,0.0178
992.00,0.0160
991.00,0.0146
990.00,0.0137
989.00,0.0130
988.00,0.0127
987.00,0.0125
986.00,0.0126
985.00,0.0130
984.00,0.0136
983.00,0.0145
982.00,0.0158
981.00,0.0176
980.00,0.0199
979.00,0.0228
978.00,0.0264
977.00,0.0305
976.00,0.0346
975.00,0.0384
974.00,0.0412
973.00,0.0423
972.00,0.0416
971.00,0.0394
970.00,0.0364
969.00,0.0332
968.00,0.0305
967.00,0.0284
966.00,0.0267
965.00,0.0255
964.00,0.0245
963.00,0.0237
962.00,0.0231
961.00,0.0228
960.00,0.0228
959.00,0.0230
958.00,0.0232
957.00,0.0232
956.00,0.0232
955.00,0.0231
954.00,0.0230
953.00,0.0228
952.00,0.0224
951.00,0.0220
950.00,0.0216
949.00,0.0213
948.00,0.0210
947.00,0.0208
946.00,0.0207
945.00,0.0207
944.00,0.0209
943.00,0.0211
942.00,0.0212
941.00,0.0212
940.00,0.0208
939.00,0.0201
938.00,0.0191
937.00,0.0180
936.00,0.0169
935.00,0.0158
934.00,0.0147
933.00,0.0138
932.00,0.0129
931.00,0.0122
930.00,0.0116
929.00,0.0110
928.00,0.0106
927.00,0.0102
926.00,0.0098
925.00,0.0095
924.00,0.0091
923.00,0.0088
922.00,0.0086
921.00,0.0084
920.00,0.0082
919.00,0.0081
918.00,0.0080
917.00,0.0079
916.00,0.0079
915.00,0.0079
914.00,0.0078
913.00,0.0077
912.00,0.0078
911.00,0.0079
910.00,0.0082
909.00,0.0085
908.00,0.0088
907.00,0.0092
906.00,0.0099
905.00,0.0111
904.00,0.0126
903.00,0.0144
902.00,0.0164
901.00,0.0181
900.00,0.0192
899.00,0.0193
898.00,0.0185
897.00,0.0170
896.00,0.0150
895.00,0.0131
894.00,0.0114
893.00,0.0101
892.00,0.0092
891.00,0.0087
890.00,0.0085
889.00,0.0083
888.00,0.0082
887.00,0.0081
886.00,0.0079
885.00,0.0078
884.00,0.0077
883.00,0.0076
882.00,0.0076
881.00,0.0076
880.00,0.0075
879.00,0.0074
878.00,0.0074
877.00,0.0074
876.00,0.0075
875.00,0.0076
874.00,0.0076
873.00,0.0076
872.00,0.0076
871.00,0.0076
870.00,0.0076
869.00,0.0075
868.00,0.0076
867.00,0.0077
866.00,0.0078
865.00,0.0079
864.00,0.0080
863.00,0.0081
862.00,0.0082
861.00,0.0084
860.00,0.0085
859.00,0.0087
858.00,0.0089
857.00,0.0090
856.00,0.0090
855.00,0.0090
854.00,0.0091
853.00,0.0093
852.00,0.0095
851.00,0.0099
850.00,0.0102
849.00,0.0106
848.00,0.0111
847.00,0.0121
846.00,0.0136
845.00,0.0158
844.00,0.0189
843.00,0.0221
842.00,0.0247
841.00,0.0254
840.00,0.0239
839.00,0.0211
838.00,0.0180
837.00,0.0156
836.00,0.0141
835.00,0.0132
834.00,0.0128
833.00,0.0126
832.00,0.0125
831.00,0.0125
830.00,0.0125
829.00,0.0125
828.00,0.0124
827.00,0.0124
826.00,0.0122
825.00,0.0121
824.00,0.0121
823.00,0.0121
822.00,0.0123
821.00,0.0125
820.00,0.0127
819.00,0.0129
818.00,0.0134
817.00,0.0142
816.00,0.0152
815.00,0.0165
814.00,0.0181
813.00,0.0201
812.00,0.0221
811.00,0.0240
810.00,0.0254
809.00,0.0259
808.00,0.0254
807.00,0.0239
806.00,0.0219
805.00,0.0198
804.00,0.0179
803.00,0.0165
802.00,0.0154
801.00,0.0147
800.00,0.0140
799.00,0.0133
798.00,0.0127
797.00,0.0121
796.00,0.0116
795.00,0.0112
794.00,0.0108
793.00,0.0104
792.00,0.0100
791.00,0.0097
790.00,0.0093
789.00,0.0089
788.00,0.0086
787.00,0.0082
786.00,0.0078
785.00,0.0075
784.00,0.0074
783.00,0.0072
782.00,0.0072
781.00,0.0070
780.00,0.0069
779.00,0.0069
778.00,0.0068
777.00,0.0069
776.00,0.0069
775.00,0.0069
774.00,0.0069
773.00,0.0069
772.00,0.0068
771.00,0.0067
770.00,0.0067
769.00,0.0067
768.00,0.0067
767.00,0.0068
766.00,0.0070
765.00,0.0072
764.00,0.0073
763.00,0.0075
762.00,0.0075
761.00,0.0074
760.00,0.0073
759.00,0.0073
758.00,0.0073
757.00,0.0073
756.00,0.0074
755.00,0.0077
754.00,0.0079
753.00,0.0082
752.00,0.0084
751.00,0.0084
750.00,0.0083
749.00,0.0082
748.00,0.0081
747.00,0.0081
746.00,0.0082
745.00,0.0083
744.00,0.0085
743.00,0.0088
742.00,0.0092
741.00,0.0096
740.00,0.0100
739.00,0.0105
738.00,0.0109
737.00,0.0112
736.00,0.0113
735.00,0.0115
734.00,0.0119
733.00,0.0124
732.00,0.0131
731.00,0.0136
730.00,0.0141
729.00,0.0143
728.00,0.0144
727.00,0.0144
726.00,0.0146
725.00,0.0149
724.00,0.0154
723.00,0.0159
722.00,0.0162
721.00,0.0164
720.00,0.0162
719.00,0.0156
718.00,0.0147
717.00,0.0136
716.00,0.0127
715.00,0.0120
714.00,0.0115
713.00,0.0112
712.00,0.0110
711.00,0.0108
710.00,0.0107
709.00,0.0106
708.00,0.0104
707.00,0.0103
706.00,0.0103
705.00,0.0102
704.00,0.0102
703.00,0.0101
702.00,0.0101
701.00,0.0101
700.00,0.0101
699.00,0.0100
698.00,0.0098
697.00,0.0097
696.00,0.0097
695.00,0.0099
694.00,0.0100
693.00,0.0102
692.00,0.0103
691.00,0.0104
690.00,0.0105
689.00,0.0106
688.00,0.0106
687.00,0.0104
686.00,0.0102
685.00,0.0102
684.00,0.0104
683.00,0.0107
682.00,0.0110
681.00,0.0111
680.00,0.0110
679.00,0.0108
678.00,0.0107
677.00,0.0106
676.00,0.0107
675.00,0.0108
674.00,0.0109
673.00,0.0111
672.00,0.0111
671.00,0.0110
670.00,0.0107
669.00,0.0103
668.00,0.0100
667.00,0.0101
666.00,0.0101
665.00,0.0101
664.00,0.0100
663.00,0.0100
662.00,0.0100
661.00,0.0099
660.00,0.0097
659.00,0.0097
658.00,0.0097
657.00,0.0098
656.00,0.0098
655.00,0.0097
654.00,0.0096
653.00,0.0096
652.00,0.0095
651.00,0.0094
650.00,0.0092
649.00,0.0090
648.00,0.0090
647.00,0.0090
646.00,0.0090
645.00,0.0089
644.00,0.0087
643.00,0.0085
642.00,0.0084
641.00,0.0083
640.00,0.0083
639.00,0.0086
638.00,0.0089
637.00,0.0092
636.00,0.0094
635.00,0.0094
634.00,0.0092
633.00,0.0090
632.00,0.0089
631.00,0.0089
630.00,0.0091
629.00,0.0091
628.00,0.0091
627.00,0.0090
626.00,0.0091
625.00,0.0090
624.00,0.0088
623.00,0.0086
622.00,0.0086
621.00,0.0088
620.00,0.0089
619.00,0.0089
618.00,0.0091
617.00,0.0092
616.00,0.0094
615.00,0.0094
614.00,0.0094
613.00,0.0092
612.00,0.0090
611.00,0.0089
610.00,0.0090
609.00,0.0091
608.00,0.0090
607.00,0.0088
606.00,0.0086
605.00,0.0087
604.00,0.0089
603.00,0.0090
602.00,0.0091
601.00,0.0090
600.00,0.0089
599.00,0.0087
598.00,0.0086
597.00,0.0085
596.00,0.0086
595.00,0.0086
594.00,0.0086
593.00,0.0085
592.00,0.0083
591.00,0.0081
590.00,0.0081
589.00,0.0082
588.00,0.0083
587.00,0.0082
586.00,0.0082
585.00,0.0084
584.00,0.0087
583.00,0.0090
582.00,0.0092
581.00,0.0092
580.00,0.0092
579.00,0.0090
578.00,0.0088
577.00,0.0087
576.00,0.0087
575.00,0.0086
574.00,0.0085
573.00,0.0086
572.00,0.0088
571.00,0.0090
570.00,0.0091
569.00,0.0091
568.00,0.0089
567.00,0.0087
566.00,0.0086
565.00,0.0085
564.00,0.0085
563.00,0.0084
562.00,0.0082
561.00,0.0081
560.00,0.0081
559.00,0.0081
558.00,0.0081
557.00,0.0080
556.00,0.0079
555.00,0.0080
554.00,0.0083
553.00,0.0087
552.00,0.0090
551.00,0.0093
550.00,0.0096
549.00,0.0098
548.00,0.0098
547.00,0.0097
546.00,0.0095
545.00,0.0094
544.00,0.0097
543.00,0.0101
542.00,0.0104
541.00,0.0105
540.00,0.0105
539.00,0.0104
538.00,0.0105
537.00,0.0107
536.00,0.0108
535.00,0.0110
534.00,0.0111
533.00,0.0113
532.00,0.0115
531.00,0.0116
530.00,0.0115
529.00,0.0114
528.00,0.0114
527.00,0.0115
526.00,0.0113
525.00,0.0108
524.00,0.0100
523.00,0.0095
522.00,0.0095
521.00,0.0097
520.00,0.0098
519.00,0.0099
518.00,0.0102
517.00,0.0105
516.00,0.0105
515.00,0.0104
514.00,0.0100
513.00,0.0097
512.00,0.0096
511.00,0.0096
510.00,0.0097
509.00,0.0097
508.00,0.0096
507.00,0.0098
506.00,0.0104
505.00,0.0109
504.00,0.0110
503.00,0.0106
502.00,0.0100
501.00,0.0096
500.00,0.0096
499.00,0.0097
498.00,0.0098
497.00,0.0099
496.00,0.0102
495.00,0.0106
494.00,0.0112
493.00,0.0116
492.00,0.0114
491.00,0.0106
490.00,0.0095
489.00,0.0085
488.00,0.0083
487.00,0.0089
486.00,0.0102
485.00,0.0115
484.00,0.0123
483.00,0.0124
482.00,0.0123
481.00,0.0125
480.00,0.0131
479.00,0.0137
478.00,0.0140
477.00,0.0141
476.00,0.0145
475.00,0.0149
474.00,0.0152
473.00,0.0153
472.00,0.0153
471.00,0.0154
470.00,0.0155
469.00,0.0156
468.00,0.0163
467.00,0.0179
466.00,0.0200
465.00,0.0214
464.00,0.0214
463.00,0.0204
462.00,0.0195
461.00,0.0198
460.00,0.0214
459.00,0.0234
458.00,0.0241
457.00,0.0227
456.00,0.0204
455.00,0.0188
454.00,0.0184
453.00,0.0185
452.00,0.0182
451.00,0.0172
450.00,0.0161
