Created as New Dataset,Sample 019 By Administrator Date Thursday, September 04 2025
cm-1,A
4000.00,0.0012
3999.00,0.0012
3998.00,0.0011
3997.00,0.0011
3996.00,0.0011
3995.00,0.0011
3994.00,0.0010
3993.00,0.0011
3992.00,0.0011
3991.00,0.0011
3990.00,0.0011
3989.00,0.0010
3988.00,0.0010
3987.00,0.0010
3986.00,0.0010
3985.00,0.0010
3984.00,0.0010
3983.00,0.0010
3982.00,0.0009
3981.00,0.0009
3980.00,0.0009
3979.00,0.0009
3978.00,0.0009
3977.00,0.0009
3976.00,0.0010
3975.00,0.0010
3974.00,0.0010
3973.00,0.0010
3972.00,0.0010
3971.00,0.0010
3970.00,0.0010
3969.00,0.0010
3968.00,0.0010
3967.00,0.0010
3966.00,0.0010
3965.00,0.0009
3964.00,0.0009
3963.00,0.0009
3962.00,0.0009
3961.00,0.0009
3960.00,0.0009
3959.00,0.0009
3958.00,0.0009
3957.00,0.0009
3956.00,0.0009
3955.00,0.0009
3954.00,0.0009
3953.00,0.0009
3952.00,0.0009
3951.00,0.0009
3950.00,0.0009
3949.00,0.0009
3948.00,0.0009
3947.00,0.0009
3946.00,0.0009
3945.00,0.0009
3944.00,0.0009
3943.00,0.0009
3942.00,0.0009
3941.00,0.0009
3940.00,0.0009
3939.00,0.0009
3938.00,0.0009
3937.00,0.0009
3936.00,0.0009
3935.00,0.0010
3934.00,0.0010
3933.00,0.0010
3932.00,0.0010
3931.00,0.0010
3930.00,0.0010
3929.00,0.0010
3928.00,0.0010
3927.00,0.0010
3926.00,0.0010
3925.00,0.0010
3924.00,0.0010
3923.00,0.0010
3922.00,0.0010
3921.00,0.0010
3920.00,0.0010
3919.00,0.0010
3918.00,0.0010
3917.00,0.0010
3916.00,0.0010
3915.00,0.0010
3914.00,0.0010
3913.00,0.0010
3912.00,0.0010
3911.00,0.0009
3910.00,0.0009
3909.00,0.0009
3908.00,0.0009
3907.00,0.0009
3906.00,0.0009
3905.00,0.0009
3904.00,0.0009
3903.00,0.0009
3902.00,0.0009
3901.00,0.0009
3900.00,0.0008
3899.00,0.0008
3898.00,0.0008
3897.00,0.0008
3896.00,0.0009
3895.00,0.0009
3894.00,0.0009
3893.00,0.0009
3892.00,0.0009
3891.00,0.0008
3890.00,0.0008
3889.00,0.0008
3888.00,0.0008
3887.00,0.0009
3886.00,0.0009
3885.00,0.0009
3884.00,0.0009
3883.00,0.0009
3882.00,0.0009
3881.00,0.0009
3880.00,0.0009
3879.00,0.0009
3878.00,0.0009
3877.00,0.0009
3876.00,0.0009
3875.00,0.0009
3874.00,0.0009
3873.00,0.0009
3872.00,0.0009
3871.00,0.0008
3870.00,0.0009
3869.00,0.0009
3868.00,0.0009
3867.00,0.0008
3866.00,0.0008
3865.00,0.0008
3864.00,0.0009
3863.00,0.0009
3862.00,0.0009
3861.00,0.0009
3860.00,0.0009
3859.00,0.0009
3858.00,0.0008
3857.00,0.0008
3856.00,0.0007
3855.00,0.0007
3854.00,0.0007
3853.00,0.0007
3852.00,0.0007
3851.00,0.0007
3850.00,0.0007
3849.00,0.0007
3848.00,0.0007
3847.00,0.0008
3846.00,0.0008
3845.00,0.0009
3844.00,0.0008
3843.00,0.0008
3842.00,0.0008
3841.00,0.0007
3840.00,0.0007
3839.00,0.0006
3838.00,0.0006
3837.00,0.0007
3836.00,0.0007
3835.00,0.0008
3834.00,0.0008
3833.00,0.0009
3832.00,0.0009
3831.00,0.0009
3830.00,0.0009
3829.00,0.0008
3828.00,0.0008
3827.00,0.0007
3826.00,0.0007
3825.00,0.0008
3824.00,0.0008
3823.00,0.0009
3822.00,0.0009
3821.00,0.0009
3820.00,0.0008
3819.00,0.0008
3818.00,0.0008
3817.00,0.0008
3816.00,0.0008
3815.00,0.0009
3814.00,0.0009
3813.00,0.0009
3812.00,0.0009
3811.00,0.0009
3810.00,0.0009
3809.00,0.0009
3808.00,0.0009
3807.00,0.0009
3806.00,0.0009
3805.00,0.0009
3804.00,0.0008
3803.00,0.0007
3802.00,0.0007
3801.00,0.0007
3800.00,0.0008
3799.00,0.0008
3798.00,0.0008
3797.00,0.0008
3796.00,0.0008
3795.00,0.0008
3794.00,0.0008
3793.00,0.0008
3792.00,0.0008
3791.00,0.0008
3790.00,0.0008
3789.00,0.0008
3788.00,0.0008
3787.00,0.0008
3786.00,0.0008
3785.00,0.0008
3784.00,0.0008
3783.00,0.0008
3782.00,0.0008
3781.00,0.0008
3780.00,0.0008
3779.00,0.0008
3778.00,0.0008
3777.00,0.0008
3776.00,0.0008
3775.00,0.0008
3774.00,0.0008
3773.00,0.0008
3772.00,0.0008
3771.00,0.0008
3770.00,0.0008
3769.00,0.0008
3768.00,0.0008
3767.00,0.0008
3766.00,0.0008
3765.00,0.0008
3764.00,0.0009
3763.00,0.0009
3762.00,0.0009
3761.00,0.0009
3760.00,0.0009
3759.00,0.0009
3758.00,0.0009
3757.00,0.0009
3756.00,0.0009
3755.00,0.0009
3754.00,0.0008
3753.00,0.0008
3752.00,0.0008
3751.00,0.0007
3750.00,0.0008
3749.00,0.0008
3748.00,0.0008
3747.00,0.0008
3746.00,0.0007
3745.00,0.0007
3744.00,0.0007
3743.00,0.0007
3742.00,0.0007
3741.00,0.0007
3740.00,0.0008
3739.00,0.0008
3738.00,0.0007
3737.00,0.0007
3736.00,0.0007
3735.00,0.0007
3734.00,0.0007
3733.00,0.0007
3732.00,0.0007
3731.00,0.0007
3730.00,0.0007
3729.00,0.0007
3728.00,0.0007
3727.00,0.0007
3726.00,0.0006
3725.00,0.0006
3724.00,0.0006
3723.00,0.0006
3722.00,0.0006
3721.00,0.0006
3720.00,0.0006
3719.00,0.0006
3718.00,0.0007
3717.00,0.0007
3716.00,0.0008
3715.00,0.0008
3714.00,0.0008
3713.00,0.0008
3712.00,0.0009
3711.00,0.0009
3710.00,0.0008
3709.00,0.0008
3708.00,0.0007
3707.00,0.0007
3706.00,0.0007
3705.00,0.0007
3704.00,0.0007
3703.00,0.0008
3702.00,0.0008
3701.00,0.0008
3700.00,0.0008
3699.00,0.0008
3698.00,0.0008
3697.00,0.0008
3696.00,0.0007
3695.00,0.0007
3694.00,0.0006
3693.00,0.0006
3692.00,0.0006
3691.00,0.0006
3690.00,0.0006
3689.00,0.0006
3688.00,0.0007
3687.00,0.0007
3686.00,0.0007
3685.00,0.0008
3684.00,0.0008
3683.00,0.0009
3682.00,0.0009
3681.00,0.0009
3680.00,0.0010
3679.00,0.0010
3678.00,0.0011
3677.00,0.0011
3676.00,0.0010
3675.00,0.0010
3674.00,0.0011
3673.00,0.0011
3672.00,0.0011
3671.00,0.0011
3670.00,0.0011
3669.00,0.0010
3668.00,0.0010
3667.00,0.0010
3666.00,0.0010
3665.00,0.0011
3664.00,0.0011
3663.00,0.0012
3662.00,0.0012
3661.00,0.0012
3660.00,0.0012
3659.00,0.0012
3658.00,0.0012
3657.00,0.0012
3656.00,0.0012
3655.00,0.0012
3654.00,0.0012
3653.00,0.0012
3652.00,0.0012
3651.00,0.0012
3650.00,0.0012
3649.00,0.0012
3648.00,0.0011
3647.00,0.0010
3646.00,0.0010
3645.00,0.0010
3644.00,0.0010
3643.00,0.0010
3642.00,0.0011
3641.00,0.0011
3640.00,0.0011
3639.00,0.0012
3638.00,0.0012
3637.00,0.0012
3636.00,0.0012
3635.00,0.0011
3634.00,0.0011
3633.00,0.0011
3632.00,0.0011
3631.00,0.0010
3630.00,0.0010
3629.00,0.0010
3628.00,0.0010
3627.00,0.0010
3626.00,0.0010
3625.00,0.0010
3624.00,0.0010
3623.00,0.0010
3622.00,0.0010
3621.00,0.0010
3620.00,0.0010
3619.00,0.0010
3618.00,0.0010
3617.00,0.0010
3616.00,0.0010
3615.00,0.0010
3614.00,0.0010
3613.00,0.0010
3612.00,0.0011
3611.00,0.0011
3610.00,0.0011
3609.00,0.0011
3608.00,0.0011
3607.00,0.0011
3606.00,0.0012
3605.00,0.0012
3604.00,0.0012
3603.00,0.0012
3602.00,0.0012
3601.00,0.0012
3600.00,0.0012
3599.00,0.0012
3598.00,0.0012
3597.00,0.0013
3596.00,0.0013
3595.00,0.0013
3594.00,0.0013
3593.00,0.0013
3592.00,0.0013
3591.00,0.0013
3590.00,0.0014
3589.00,0.0014
3588.00,0.0014
3587.00,0.0014
3586.00,0.0014
3585.00,0.0014
3584.00,0.0014
3583.00,0.0014
3582.00,0.0014
3581.00,0.0014
3580.00,0.0014
3579.00,0.0014
3578.00,0.0014
3577.00,0.0015
3576.00,0.0015
3575.00,0.0015
3574.00,0.0015
3573.00,0.0015
3572.00,0.0016
3571.00,0.0016
3570.00,0.0016
3569.00,0.0016
3568.00,0.0017
3567.00,0.0017
3566.00,0.0017
3565.00,0.0018
3564.00,0.0018
3563.00,0.0018
3562.00,0.0018
3561.00,0.0018
3560.00,0.0018
3559.00,0.0019
3558.00,0.0019
3557.00,0.0019
3556.00,0.0019
3555.00,0.0020
3554.00,0.0020
3553.00,0.0021
3552.00,0.0021
3551.00,0.0021
3550.00,0.0021
3549.00,0.0021
3548.00,0.0022
3547.00,0.0022
3546.00,0.0022
3545.00,0.0022
3544.00,0.0022
3543.00,0.0023
3542.00,0.0023
3541.00,0.0024
3540.00,0.0024
3539.00,0.0024
3538.00,0.0025
3537.00,0.0025
3536.00,0.0025
3535.00,0.0025
3534.00,0.0025
3533.00,0.0026
3532.00,0.0026
3531.00,0.0026
3530.00,0.0026
3529.00,0.0025
3528.00,0.0026
3527.00,0.0026
3526.00,0.0026
3525.00,0.0027
3524.00,0.0027
3523.00,0.0027
3522.00,0.0028
3521.00,0.0028
3520.00,0.0028
3519.00,0.0029
3518.00,0.0029
3517.00,0.0029
3516.00,0.0029
3515.00,0.0029
3514.00,0.0028
3513.00,0.0028
3512.00,0.0029
3511.00,0.0029
3510.00,0.0030
3509.00,0.0030
3508.00,0.0030
3507.00,0.0031
3506.00,0.0031
3505.00,0.0031
3504.00,0.0032
3503.00,0.0032
3502.00,0.0032
3501.00,0.0032
3500.00,0.0033
3499.00,0.0033
3498.00,0.0034
3497.00,0.0034
3496.00,0.0034
3495.00,0.0034
3494.00,0.0034
3493.00,0.0034
3492.00,0.0034
3491.00,0.0035
3490.00,0.0035
3489.00,0.0036
3488.00,0.0036
3487.00,0.0036
3486.00,0.0036
3485.00,0.0036
3484.00,0.0036
3483.00,0.0037
3482.00,0.0037
3481.00,0.0037
3480.00,0.0037
3479.00,0.0037
3478.00,0.0037
3477.00,0.0038
3476.00,0.0038
3475.00,0.0038
3474.00,0.0038
3473.00,0.0038
3472.00,0.0038
3471.00,0.0038
3470.00,0.0039
3469.00,0.0039
3468.00,0.0040
3467.00,0.0040
3466.00,0.0041
3465.00,0.0041
3464.00,0.0041
3463.00,0.0042
3462.00,0.0042
3461.00,0.0042
3460.00,0.0042
3459.00,0.0042
3458.00,0.0042
3457.00,0.0042
3456.00,0.0043
3455.00,0.0043
3454.00,0.0043
3453.00,0.0043
3452.00,0.0044
3451.00,0.0044
3450.00,0.0044
3449.00,0.0044
3448.00,0.0044
3447.00,0.0044
3446.00,0.0044
3445.00,0.0045
3444.00,0.0045
3443.00,0.0045
3442.00,0.0045
3441.00,0.0045
3440.00,0.0046
3439.00,0.0046
3438.00,0.0046
3437.00,0.0046
3436.00,0.0046
3435.00,0.0046
3434.00,0.0046
3433.00,0.0046
3432.00,0.0046
3431.00,0.0047
3430.00,0.0047
3429.00,0.0047
3428.00,0.0047
3427.00,0.0047
3426.00,0.0047
3425.00,0.0048
3424.00,0.0048
3423.00,0.0048
3422.00,0.0049
3421.00,0.0049
3420.00,0.0049
3419.00,0.0049
3418.00,0.0049
3417.00,0.0049
3416.00,0.0050
3415.00,0.0050
3414.00,0.0051
3413.00,0.0051
3412.00,0.0051
3411.00,0.0051
3410.00,0.0051
3409.00,0.0051
3408.00,0.0051
3407.00,0.0051
3406.00,0.0051
3405.00,0.0051
3404.00,0.0051
3403.00,0.0051
3402.00,0.0052
3401.00,0.0052
3400.00,0.0052
3399.00,0.0052
3398.00,0.0052
3397.00,0.0052
3396.00,0.0052
3395.00,0.0052
3394.00,0.0052
3393.00,0.0052
3392.00,0.0051
3391.00,0.0051
3390.00,0.0051
3389.00,0.0051
3388.00,0.0051
3387.00,0.0051
3386.00,0.0052
3385.00,0.0052
3384.00,0.0052
3383.00,0.0053
3382.00,0.0053
3381.00,0.0053
3380.00,0.0054
3379.00,0.0054
3378.00,0.0054
3377.00,0.0054
3376.00,0.0054
3375.00,0.0054
3374.00,0.0054
3373.00,0.0054
3372.00,0.0054
3371.00,0.0054
3370.00,0.0054
3369.00,0.0054
3368.00,0.0054
3367.00,0.0054
3366.00,0.0054
3365.00,0.0054
3364.00,0.0054
3363.00,0.0055
3362.00,0.0055
3361.00,0.0054
3360.00,0.0054
3359.00,0.0054
3358.00,0.0054
3357.00,0.0054
3356.00,0.0054
3355.00,0.0055
3354.00,0.0055
3353.00,0.0055
3352.00,0.0055
3351.00,0.0054
3350.00,0.0054
3349.00,0.0054
3348.00,0.0054
3347.00,0.0054
3346.00,0.0054
3345.00,0.0054
3344.00,0.0054
3343.00,0.0054
3342.00,0.0054
3341.00,0.0054
3340.00,0.0054
3339.00,0.0054
3338.00,0.0054
3337.00,0.0054
3336.00,0.0054
3335.00,0.0054
3334.00,0.0053
3333.00,0.0053
3332.00,0.0052
3331.00,0.0052
3330.00,0.0052
3329.00,0.0052
3328.00,0.0052
3327.00,0.0052
3326.00,0.0052
3325.00,0.0052
3324.00,0.0052
3323.00,0.0052
3322.00,0.0052
3321.00,0.0052
3320.00,0.0051
3319.00,0.0051
3318.00,0.0051
3317.00,0.0052
3316.00,0.0051
3315.00,0.0051
3314.00,0.0051
3313.00,0.0051
3312.00,0.0051
3311.00,0.0051
3310.00,0.0051
3309.00,0.0052
3308.00,0.0052
3307.00,0.0052
3306.00,0.0052
3305.00,0.0052
3304.00,0.0052
3303.00,0.0052
3302.00,0.0052
3301.00,0.0052
3300.00,0.0052
3299.00,0.0052
3298.00,0.0051
3297.00,0.0051
3296.00,0.0051
3295.00,0.0051
3294.00,0.0051
3293.00,0.0050
3292.00,0.0049
3291.00,0.0049
3290.00,0.0049
3289.00,0.0049
3288.00,0.0049
3287.00,0.0049
3286.00,0.0049
3285.00,0.0049
3284.00,0.0048
3283.00,0.0048
3282.00,0.0048
3281.00,0.0048
3280.00,0.0047
3279.00,0.0047
3278.00,0.0047
3277.00,0.0047
3276.00,0.0047
3275.00,0.0047
3274.00,0.0047
3273.00,0.0046
3272.00,0.0046
3271.00,0.0046
3270.00,0.0046
3269.00,0.0045
3268.00,0.0045
3267.00,0.0045
3266.00,0.0046
3265.00,0.0046
3264.00,0.0046
3263.00,0.0045
3262.00,0.0045
3261.00,0.0044
3260.00,0.0044
3259.00,0.0043
3258.00,0.0043
3257.00,0.0043
3256.00,0.0043
3255.00,0.0043
3254.00,0.0043
3253.00,0.0043
3252.00,0.0043
3251.00,0.0042
3250.00,0.0042
3249.00,0.0042
3248.00,0.0042
3247.00,0.0041
3246.00,0.0042
3245.00,0.0042
3244.00,0.0042
3243.00,0.0043
3242.00,0.0042
3241.00,0.0042
3240.00,0.0042
3239.00,0.0042
3238.00,0.0041
3237.00,0.0041
3236.00,0.0041
3235.00,0.0041
3234.00,0.0041
3233.00,0.0041
3232.00,0.0042
3231.00,0.0042
3230.00,0.0043
3229.00,0.0043
3228.00,0.0043
3227.00,0.0043
3226.00,0.0043
3225.00,0.0043
3224.00,0.0043
3223.00,0.0043
3222.00,0.0044
3221.00,0.0044
3220.00,0.0044
3219.00,0.0044
3218.00,0.0044
3217.00,0.0043
3216.00,0.0043
3215.00,0.0044
3214.00,0.0044
3213.00,0.0045
3212.00,0.0045
3211.00,0.0045
3210.00,0.0045
3209.00,0.0045
3208.00,0.0045
3207.00,0.0045
3206.00,0.0045
3205.00,0.0045
3204.00,0.0045
3203.00,0.0045
3202.00,0.0045
3201.00,0.0045
3200.00,0.0045
3199.00,0.0046
3198.00,0.0046
3197.00,0.0046
3196.00,0.0045
3195.00,0.0045
3194.00,0.0045
3193.00,0.0045
3192.00,0.0045
3191.00,0.0045
3190.00,0.0046
3189.00,0.0046
3188.00,0.0045
3187.00,0.0045
3186.00,0.0045
3185.00,0.0044
3184.00,0.0044
3183.00,0.0044
3182.00,0.0044
3181.00,0.0044
3180.00,0.0043
3179.00,0.0043
3178.00,0.0042
3177.00,0.0042
3176.00,0.0041
3175.00,0.0041
3174.00,0.0041
3173.00,0.0041
3172.00,0.0041
3171.00,0.0041
3170.00,0.0041
3169.00,0.0041
3168.00,0.0040
3167.00,0.0040
3166.00,0.0040
3165.00,0.0040
3164.00,0.0039
3163.00,0.0039
3162.00,0.0039
3161.00,0.0039
3160.00,0.0040
3159.00,0.0039
3158.00,0.0039
3157.00,0.0039
3156.00,0.0039
3155.00,0.0039
3154.00,0.0039
3153.00,0.0040
3152.00,0.0039
3151.00,0.0039
3150.00,0.0039
3149.00,0.0039
3148.00,0.0038
3147.00,0.0038
3146.00,0.0038
3145.00,0.0038
3144.00,0.0039
3143.00,0.0039
3142.00,0.0039
3141.00,0.0039
3140.00,0.0039
3139.00,0.0038
3138.00,0.0038
3137.00,0.0038
3136.00,0.0038
3135.00,0.0037
3134.00,0.0037
3133.00,0.0037
3132.00,0.0037
3131.00,0.0037
3130.00,0.0036
3129.00,0.0036
3128.00,0.0036
3127.00,0.0036
3126.00,0.0035
3125.00,0.0035
3124.00,0.0034
3123.00,0.0034
3122.00,0.0034
3121.00,0.0033
3120.00,0.0033
3119.00,0.0033
3118.00,0.0033
3117.00,0.0033
3116.00,0.0033
3115.00,0.0033
3114.00,0.0033
3113.00,0.0033
3112.00,0.0033
3111.00,0.0033
3110.00,0.0033
3109.00,0.0033
3108.00,0.0032
3107.00,0.0032
3106.00,0.0031
3105.00,0.0031
3104.00,0.0031
3103.00,0.0031
3102.00,0.0031
3101.00,0.0031
3100.00,0.0031
3099.00,0.0031
3098.00,0.0031
3097.00,0.0031
3096.00,0.0031
3095.00,0.0031
3094.00,0.0031
3093.00,0.0031
3092.00,0.0031
3091.00,0.0030
3090.00,0.0030
3089.00,0.0030
3088.00,0.0029
3087.00,0.0029
3086.00,0.0029
3085.00,0.0029
3084.00,0.0029
3083.00,0.0029
3082.00,0.0029
3081.00,0.0030
3080.00,0.0030
3079.00,0.0031
3078.00,0.0031
3077.00,0.0030
3076.00,0.0030
3075.00,0.0030
3074.00,0.0030
3073.00,0.0030
3072.00,0.0031
3071.00,0.0031
3070.00,0.0031
3069.00,0.0031
3068.00,0.0031
3067.00,0.0031
3066.00,0.0031
3065.00,0.0031
3064.00,0.0031
3063.00,0.0031
3062.00,0.0031
3061.00,0.0032
3060.00,0.0032
3059.00,0.0032
3058.00,0.0032
3057.00,0.0033
3056.00,0.0033
3055.00,0.0034
3054.00,0.0034
3053.00,0.0033
3052.00,0.0033
3051.00,0.0033
3050.00,0.0033
3049.00,0.0033
3048.00,0.0034
3047.00,0.0034
3046.00,0.0034
3045.00,0.0034
3044.00,0.0034
3043.00,0.0035
3042.00,0.0035
3041.00,0.0036
3040.00,0.0036
3039.00,0.0036
3038.00,0.0037
3037.00,0.0037
3036.00,0.0037
3035.00,0.0037
3034.00,0.0038
3033.00,0.0038
3032.00,0.0038
3031.00,0.0039
3030.00,0.0039
3029.00,0.0040
3028.00,0.0041
3027.00,0.0041
3026.00,0.0042
3025.00,0.0042
3024.00,0.0042
3023.00,0.0043
3022.00,0.0044
3021.00,0.0045
3020.00,0.0047
3019.00,0.0048
3018.00,0.0049
3017.00,0.0050
3016.00,0.0051
3015.00,0.0052
3014.00,0.0054
3013.00,0.0056
3012.00,0.0058
3011.00,0.0060
3010.00,0.0062
3009.00,0.0064
3008.00,0.0067
3007.00,0.0069
3006.00,0.0072
3005.00,0.0075
3004.00,0.0078
3003.00,0.0081
3002.00,0.0085
3001.00,0.0089
3000.00,0.0093
2999.00,0.0096
2998.00,0.0100
2997.00,0.0104
2996.00,0.0108
2995.00,0.0112
2994.00,0.0116
2993.00,0.0121
2992.00,0.0126
2991.00,0.0132
2990.00,0.0139
2989.00,0.0146
2988.00,0.0155
2987.00,0.0164
2986.00,0.0175
2985.00,0.0188
2984.00,0.0204
2983.00,0.0220
2982.00,0.0238
2981.00,0.0255
2980.00,0.0272
2979.00,0.0291
2978.00,0.0312
2977.00,0.0337
2976.00,0.0367
2975.00,0.0402
2974.00,0.0443
2973.00,0.0490
2972.00,0.0543
2971.00,0.0602
2970.00,0.0667
2969.00,0.0738
2968.00,0.0814
2967.00,0.0896
2966.00,0.0981
2965.00,0.1068
2964.00,0.1152
2963.00,0.1231
2962.00,0.1299
2961.00,0.1356
2960.00,0.1402
2959.00,0.1441
2958.00,0.1478
2957.00,0.1519
2956.00,0.1569
2955.00,0.1631
2954.00,0.1702
2953.00,0.1777
2952.00,0.1845
2951.00,0.1894
2950.00,0.1913
2949.00,0.1892
2948.00,0.1830
2947.00,0.1733
2946.00,0.1612
2945.00,0.1484
2944.00,0.1362
2943.00,0.1257
2942.00,0.1176
2941.00,0.1120
2940.00,0.1088
2939.00,0.1080
2938.00,0.1091
2937.00,0.1120
2936.00,0.1166
2935.00,0.1227
2934.00,0.1303
2933.00,0.1391
2932.00,0.1491
2931.00,0.1599
2930.00,0.1714
2929.00,0.1832
2928.00,0.1951
2927.00,0.2068
2926.00,0.2181
2925.00,0.2290
2924.00,0.2396
2923.00,0.2501
2922.00,0.2605
2921.00,0.2705
2920.00,0.2793
2919.00,0.2861
2918.00,0.2896
2917.00,0.2890
2916.00,0.2841
2915.00,0.2757
2914.00,0.2648
2913.00,0.2530
2912.00,0.2412
2911.00,0.2303
2910.00,0.2205
2909.00,0.2118
2908.00,0.2039
2907.00,0.1965
2906.00,0.1892
2905.00,0.1820
2904.00,0.1748
2903.00,0.1677
2902.00,0.1608
2901.00,0.1540
2900.00,0.1475
2899.00,0.1414
2898.00,0.1357
2897.00,0.1304
2896.00,0.1257
2895.00,0.1216
2894.00,0.1181
2893.00,0.1152
2892.00,0.1130
2891.00,0.1113
2890.00,0.1102
2889.00,0.1095
2888.00,0.1092
2887.00,0.1092
2886.00,0.1096
2885.00,0.1103
2884.00,0.1114
2883.00,0.1131
2882.00,0.1152
2881.00,0.1176
2880.00,0.1200
2879.00,0.1221
2878.00,0.1235
2877.00,0.1239
2876.00,0.1235
2875.00,0.1227
2874.00,0.1220
2873.00,0.1219
2872.00,0.1225
2871.00,0.1238
2870.00,0.1257
2869.00,0.1276
2868.00,0.1289
2867.00,0.1286
2866.00,0.1262
2865.00,0.1215
2864.00,0.1149
2863.00,0.1072
2862.00,0.0995
2861.00,0.0927
2860.00,0.0873
2859.00,0.0836
2858.00,0.0814
2857.00,0.0806
2856.00,0.0808
2855.00,0.0817
2854.00,0.0832
2853.00,0.0850
2852.00,0.0868
2851.00,0.0884
2850.00,0.0896
2849.00,0.0904
2848.00,0.0912
2847.00,0.0923
2846.00,0.0943
2845.00,0.0974
2844.00,0.1017
2843.00,0.1067
2842.00,0.1122
2841.00,0.1174
2840.00,0.1216
2839.00,0.1239
2838.00,0.1236
2837.00,0.1202
2836.00,0.1138
2835.00,0.1048
2834.00,0.0944
2833.00,0.0835
2832.00,0.0731
2831.00,0.0639
2830.00,0.0561
2829.00,0.0497
2828.00,0.0444
2827.00,0.0402
2826.00,0.0368
2825.00,0.0340
2824.00,0.0316
2823.00,0.0296
2822.00,0.0279
2821.00,0.0265
2820.00,0.0252
2819.00,0.0241
2818.00,0.0231
2817.00,0.0223
2816.00,0.0215
2815.00,0.0208
2814.00,0.0202
2813.00,0.0196
2812.00,0.0190
2811.00,0.0184
2810.00,0.0178
2809.00,0.0172
2808.00,0.0166
2807.00,0.0160
2806.00,0.0153
2805.00,0.0146
2804.00,0.0140
2803.00,0.0134
2802.00,0.0129
2801.00,0.0125
2800.00,0.0121
2799.00,0.0118
2798.00,0.0115
2797.00,0.0112
2796.00,0.0110
2795.00,0.0107
2794.00,0.0104
2793.00,0.0101
2792.00,0.0099
2791.00,0.0096
2790.00,0.0093
2789.00,0.0090
2788.00,0.0087
2787.00,0.0085
2786.00,0.0082
2785.00,0.0080
2784.00,0.0077
2783.00,0.0074
2782.00,0.0072
2781.00,0.0070
2780.00,0.0069
2779.00,0.0067
2778.00,0.0065
2777.00,0.0064
2776.00,0.0063
2775.00,0.0062
2774.00,0.0061
2773.00,0.0060
2772.00,0.0060
2771.00,0.0059
2770.00,0.0059
2769.00,0.0059
2768.00,0.0058
2767.00,0.0058
2766.00,0.0057
2765.00,0.0057
2764.00,0.0056
2763.00,0.0056
2762.00,0.0056
2761.00,0.0055
2760.00,0.0055
2759.00,0.0054
2758.00,0.0054
2757.00,0.0054
2756.00,0.0054
2755.00,0.0054
2754.00,0.0054
2753.00,0.0054
2752.00,0.0053
2751.00,0.0053
2750.00,0.0053
2749.00,0.0052
2748.00,0.0053
2747.00,0.0053
2746.00,0.0054
2745.00,0.0054
2744.00,0.0055
2743.00,0.0056
2742.00,0.0057
2741.00,0.0058
2740.00,0.0059
2739.00,0.0060
2738.00,0.0061
2737.00,0.0062
2736.00,0.0064
2735.00,0.0065
2734.00,0.0067
2733.00,0.0068
2732.00,0.0070
2731.00,0.0072
2730.00,0.0074
2729.00,0.0077
2728.00,0.0079
2727.00,0.0082
2726.00,0.0085
2725.00,0.0088
2724.00,0.0089
2723.00,0.0090
2722.00,0.0089
2721.00,0.0087
2720.00,0.0084
2719.00,0.0081
2718.00,0.0077
2717.00,0.0074
2716.00,0.0071
2715.00,0.0069
2714.00,0.0066
2713.00,0.0064
2712.00,0.0062
2711.00,0.0060
2710.00,0.0059
2709.00,0.0058
2708.00,0.0056
2707.00,0.0055
2706.00,0.0054
2705.00,0.0053
2704.00,0.0051
2703.00,0.0050
2702.00,0.0049
2701.00,0.0049
2700.00,0.0048
2699.00,0.0047
2698.00,0.0047
2697.00,0.0046
2696.00,0.0046
2695.00,0.0046
2694.00,0.0045
2693.00,0.0046
2692.00,0.0046
2691.00,0.0046
2690.00,0.0046
2689.00,0.0047
2688.00,0.0046
2687.00,0.0046
2686.00,0.0046
2685.00,0.0046
2684.00,0.0046
2683.00,0.0046
2682.00,0.0047
2681.00,0.0047
2680.00,0.0047
2679.00,0.0047
2678.00,0.0048
2677.00,0.0048
2676.00,0.0048
2675.00,0.0048
2674.00,0.0047
2673.00,0.0047
2672.00,0.0047
2671.00,0.0047
2670.00,0.0046
2669.00,0.0046
2668.00,0.0046
2667.00,0.0047
2666.00,0.0047
2665.00,0.0048
2664.00,0.0048
2663.00,0.0049
2662.00,0.0049
2661.00,0.0050
2660.00,0.0050
2659.00,0.0050
2658.00,0.0050
2657.00,0.0050
2656.00,0.0049
2655.00,0.0049
2654.00,0.0048
2653.00,0.0048
2652.00,0.0047
2651.00,0.0047
2650.00,0.0046
2649.00,0.0046
2648.00,0.0045
2647.00,0.0045
2646.00,0.0044
2645.00,0.0044
2644.00,0.0043
2643.00,0.0043
2642.00,0.0043
2641.00,0.0042
2640.00,0.0042
2639.00,0.0041
2638.00,0.0041
2637.00,0.0040
2636.00,0.0040
2635.00,0.0040
2634.00,0.0041
2633.00,0.0041
2632.00,0.0041
2631.00,0.0041
2630.00,0.0041
2629.00,0.0041
2628.00,0.0041
2627.00,0.0041
2626.00,0.0041
2625.00,0.0041
2624.00,0.0042
2623.00,0.0042
2622.00,0.0042
2621.00,0.0042
2620.00,0.0042
2619.00,0.0042
2618.00,0.0042
2617.00,0.0042
2616.00,0.0042
2615.00,0.0041
2614.00,0.0041
2613.00,0.0040
2612.00,0.0040
2611.00,0.0039
2610.00,0.0038
2609.00,0.0037
2608.00,0.0037
2607.00,0.0037
2606.00,0.0037
2605.00,0.0036
2604.00,0.0036
2603.00,0.0035
2602.00,0.0034
2601.00,0.0034
2600.00,0.0034
2599.00,0.0033
2598.00,0.0033
2597.00,0.0033
2596.00,0.0033
2595.00,0.0033
2594.00,0.0033
2593.00,0.0033
2592.00,0.0034
2591.00,0.0034
2590.00,0.0035
2589.00,0.0036
2588.00,0.0038
2587.00,0.0039
2586.00,0.0040
2585.00,0.0041
2584.00,0.0041
2583.00,0.0042
2582.00,0.0042
2581.00,0.0041
2580.00,0.0040
2579.00,0.0039
2578.00,0.0039
2577.00,0.0037
2576.00,0.0036
2575.00,0.0034
2574.00,0.0033
2573.00,0.0031
2572.00,0.0030
2571.00,0.0029
2570.00,0.0029
2569.00,0.0028
2568.00,0.0027
2567.00,0.0027
2566.00,0.0026
2565.00,0.0026
2564.00,0.0025
2563.00,0.0025
2562.00,0.0024
2561.00,0.0024
2560.00,0.0025
2559.00,0.0024
2558.00,0.0024
2557.00,0.0024
2556.00,0.0024
2555.00,0.0024
2554.00,0.0024
2553.00,0.0024
2552.00,0.0023
2551.00,0.0023
2550.00,0.0023
2549.00,0.0022
2548.00,0.0022
2547.00,0.0021
2546.00,0.0020
2545.00,0.0019
2544.00,0.0019
2543.00,0.0018
2542.00,0.0017
2541.00,0.0017
2540.00,0.0017
2539.00,0.0017
2538.00,0.0017
2537.00,0.0017
2536.00,0.0018
2535.00,0.0018
2534.00,0.0018
2533.00,0.0017
2532.00,0.0017
2531.00,0.0016
2530.00,0.0016
2529.00,0.0015
2528.00,0.0015
2527.00,0.0014
2526.00,0.0014
2525.00,0.0014
2524.00,0.0014
2523.00,0.0014
2522.00,0.0015
2521.00,0.0015
2520.00,0.0015
2519.00,0.0015
2518.00,0.0015
2517.00,0.0014
2516.00,0.0014
2515.00,0.0013
2514.00,0.0013
2513.00,0.0012
2512.00,0.0012
2511.00,0.0012
2510.00,0.0012
2509.00,0.0012
2508.00,0.0011
2507.00,0.0011
2506.00,0.0011
2505.00,0.0011
2504.00,0.0012
2503.00,0.0012
2502.00,0.0012
2501.00,0.0012
2500.00,0.0011
2499.00,0.0011
2498.00,0.0011
2497.00,0.0011
2496.00,0.0012
2495.00,0.0012
2494.00,0.0012
2493.00,0.0012
2492.00,0.0012
2491.00,0.0012
2490.00,0.0012
2489.00,0.0012
2488.00,0.0012
2487.00,0.0011
2486.00,0.0011
2485.00,0.0011
2484.00,0.0012
2483.00,0.0012
2482.00,0.0012
2481.00,0.0012
2480.00,0.0012
2479.00,0.0012
2478.00,0.0012
2477.00,0.0012
2476.00,0.0011
2475.00,0.0011
2474.00,0.0011
2473.00,0.0011
2472.00,0.0011
2471.00,0.0010
2470.00,0.0010
2469.00,0.0009
2468.00,0.0009
2467.00,0.0009
2466.00,0.0009
2465.00,0.0009
2464.00,0.0010
2463.00,0.0011
2462.00,0.0011
2461.00,0.0012
2460.00,0.0012
2459.00,0.0012
2458.00,0.0012
2457.00,0.0012
2456.00,0.0013
2455.00,0.0013
2454.00,0.0013
2453.00,0.0013
2452.00,0.0012
2451.00,0.0012
2450.00,0.0012
2449.00,0.0012
2448.00,0.0012
2447.00,0.0012
2446.00,0.0012
2445.00,0.0012
2444.00,0.0012
2443.00,0.0012
2442.00,0.0012
2441.00,0.0013
2440.00,0.0013
2439.00,0.0013
2438.00,0.0013
2437.00,0.0013
2436.00,0.0013
2435.00,0.0013
2434.00,0.0013
2433.00,0.0012
2432.00,0.0012
2431.00,0.0012
2430.00,0.0012
2429.00,0.0012
2428.00,0.0013
2427.00,0.0013
2426.00,0.0013
2425.00,0.0013
2424.00,0.0012
2423.00,0.0011
2422.00,0.0011
2421.00,0.0011
2420.00,0.0010
2419.00,0.0011
2418.00,0.0011
2417.00,0.0011
2416.00,0.0011
2415.00,0.0011
2414.00,0.0011
2413.00,0.0012
2412.00,0.0012
2411.00,0.0012
2410.00,0.0012
2409.00,0.0011
2408.00,0.0011
2407.00,0.0011
2406.00,0.0010
2405.00,0.0010
2404.00,0.0010
2403.00,0.0010
2402.00,0.0009
2401.00,0.0009
2400.00,0.0008
2399.00,0.0008
2398.00,0.0008
2397.00,0.0009
2396.00,0.0009
2395.00,0.0010
2394.00,0.0010
2393.00,0.0009
2392.00,0.0009
2391.00,0.0008
2390.00,0.0007
2389.00,0.0007
2388.00,0.0007
2387.00,0.0007
2386.00,0.0007
2385.00,0.0007
2384.00,0.0007
2383.00,0.0006
2382.00,0.0006
2381.00,0.0006
2380.00,0.0006
2379.00,0.0007
2378.00,0.0007
2377.00,0.0006
2376.00,0.0006
2375.00,0.0005
2374.00,0.0004
2373.00,0.0004
2372.00,0.0004
2371.00,0.0005
2370.00,0.0005
2369.00,0.0006
2368.00,0.0006
2367.00,0.0005
2366.00,0.0004
2365.00,0.0004
2364.00,0.0005
2363.00,0.0006
2362.00,0.0007
2361.00,0.0007
2360.00,0.0007
2359.00,0.0006
2358.00,0.0006
2357.00,0.0007
2356.00,0.0007
2355.00,0.0007
2354.00,0.0007
2353.00,0.0007
2352.00,0.0007
2351.00,0.0007
2350.00,0.0007
2349.00,0.0007
2348.00,0.0008
2347.00,0.0008
2346.00,0.0008
2345.00,0.0008
2344.00,0.0009
2343.00,0.0010
2342.00,0.0011
2341.00,0.0011
2340.00,0.0011
2339.00,0.0011
2338.00,0.0010
2337.00,0.0009
2336.00,0.0009
2335.00,0.0008
2334.00,0.0008
2333.00,0.0007
2332.00,0.0007
2331.00,0.0008
2330.00,0.0008
2329.00,0.0010
2328.00,0.0012
2327.00,0.0015
2326.00,0.0019
2325.00,0.0022
2324.00,0.0024
2323.00,0.0023
2322.00,0.0020
2321.00,0.0018
2320.00,0.0016
2319.00,0.0015
2318.00,0.0014
2317.00,0.0014
2316.00,0.0013
2315.00,0.0013
2314.00,0.0012
2313.00,0.0012
2312.00,0.0013
2311.00,0.0013
2310.00,0.0013
2309.00,0.0012
2308.00,0.0011
2307.00,0.0011
2306.00,0.0011
2305.00,0.0011
2304.00,0.0011
2303.00,0.0012
2302.00,0.0012
2301.00,0.0012
2300.00,0.0012
2299.00,0.0011
2298.00,0.0012
2297.00,0.0012
2296.00,0.0014
2295.00,0.0015
2294.00,0.0016
2293.00,0.0017
2292.00,0.0017
2291.00,0.0016
2290.00,0.0016
2289.00,0.0016
2288.00,0.0017
2287.00,0.0017
2286.00,0.0018
2285.00,0.0018
2284.00,0.0017
2283.00,0.0016
2282.00,0.0015
2281.00,0.0015
2280.00,0.0014
2279.00,0.0015
2278.00,0.0016
2277.00,0.0017
2276.00,0.0017
2275.00,0.0018
2274.00,0.0018
2273.00,0.0017
2272.00,0.0017
2271.00,0.0016
2270.00,0.0016
2269.00,0.0016
2268.00,0.0016
2267.00,0.0015
2266.00,0.0014
2265.00,0.0014
2264.00,0.0014
2263.00,0.0014
2262.00,0.0015
2261.00,0.0014
2260.00,0.0014
2259.00,0.0013
2258.00,0.0013
2257.00,0.0013
2256.00,0.0013
2255.00,0.0013
2254.00,0.0012
2253.00,0.0010
2252.00,0.0009
2251.00,0.0008
2250.00,0.0008
2249.00,0.0009
2248.00,0.0009
2247.00,0.0009
2246.00,0.0009
2245.00,0.0009
2244.00,0.0010
2243.00,0.0009
2242.00,0.0009
2241.00,0.0008
2240.00,0.0009
2239.00,0.0009
2238.00,0.0008
2237.00,0.0008
2236.00,0.0008
2235.00,0.0009
2234.00,0.0009
2233.00,0.0009
2232.00,0.0008
2231.00,0.0008
2230.00,0.0007
2229.00,0.0006
2228.00,0.0005
2227.00,0.0005
2226.00,0.0005
2225.00,0.0005
2224.00,0.0005
2223.00,0.0005
2222.00,0.0005
2221.00,0.0006
2220.00,0.0007
2219.00,0.0009
2218.00,0.0009
2217.00,0.0009
2216.00,0.0008
2215.00,0.0007
2214.00,0.0006
2213.00,0.0007
2212.00,0.0008
2211.00,0.0009
2210.00,0.0009
2209.00,0.0010
2208.00,0.0010
2207.00,0.0010
2206.00,0.0009
2205.00,0.0007
2204.00,0.0006
2203.00,0.0005
2202.00,0.0004
2201.00,0.0004
2200.00,0.0005
2199.00,0.0006
2198.00,0.0007
2197.00,0.0008
2196.00,0.0010
2195.00,0.0011
2194.00,0.0012
2193.00,0.0012
2192.00,0.0010
2191.00,0.0008
2190.00,0.0007
2189.00,0.0009
2188.00,0.0013
2187.00,0.0016
2186.00,0.0018
2185.00,0.0018
2184.00,0.0016
2183.00,0.0013
2182.00,0.0010
2181.00,0.0009
2180.00,0.0009
2179.00,0.0009
2178.00,0.0010
2177.00,0.0009
2176.00,0.0007
2175.00,0.0004
2174.00,0.0001
2173.00,-0.0000
2172.00,0.0002
2171.00,0.0007
2170.00,0.0012
2169.00,0.0017
2168.00,0.0020
2167.00,0.0020
2166.00,0.0020
2165.00,0.0020
2164.00,0.0021
2163.00,0.0022
2162.00,0.0021
2161.00,0.0016
2160.00,0.0005
2159.00,-0.0008
2158.00,-0.0020
2157.00,-0.0025
2156.00,-0.0025
2155.00,-0.0023
2154.00,-0.0020
2153.00,-0.0017
2152.00,-0.0014
2151.00,-0.0012
2150.00,-0.0012
2149.00,-0.0011
2148.00,-0.0011
2147.00,-0.0011
2146.00,-0.0011
2145.00,-0.0012
2144.00,-0.0013
2143.00,-0.0013
2142.00,-0.0013
2141.00,-0.0012
2140.00,-0.0011
2139.00,-0.0011
2138.00,-0.0010
2137.00,-0.0011
2136.00,-0.0011
2135.00,-0.0012
2134.00,-0.0013
2133.00,-0.0014
2132.00,-0.0012
2131.00,-0.0011
2130.00,-0.0009
2129.00,-0.0008
2128.00,-0.0007
2127.00,-0.0007
2126.00,-0.0007
2125.00,-0.0007
2124.00,-0.0006
2123.00,-0.0005
2122.00,-0.0004
2121.00,-0.0002
2120.00,-0.0001
2119.00,-0.0001
2118.00,0.0000
2117.00,0.0002
2116.00,0.0004
2115.00,0.0006
2114.00,0.0006
2113.00,0.0006
2112.00,0.0005
2111.00,0.0004
2110.00,0.0004
2109.00,0.0004
2108.00,0.0003
2107.00,0.0002
2106.00,0.0002
2105.00,0.0001
2104.00,0.0002
2103.00,0.0001
2102.00,0.0001
2101.00,0.0002
2100.00,0.0002
2099.00,0.0003
2098.00,0.0002
2097.00,0.0000
2096.00,-0.0002
2095.00,-0.0004
2094.00,-0.0004
2093.00,-0.0003
2092.00,-0.0001
2091.00,0.0000
2090.00,0.0000
2089.00,0.0001
2088.00,0.0002
2087.00,0.0003
2086.00,0.0003
2085.00,0.0003
2084.00,0.0002
2083.00,0.0002
2082.00,0.0001
2081.00,0.0000
2080.00,-0.0000
2079.00,-0.0000
2078.00,0.0001
2077.00,0.0003
2076.00,0.0004
2075.00,0.0004
2074.00,0.0002
2073.00,-0.0000
2072.00,-0.0001
2071.00,-0.0000
2070.00,0.0000
2069.00,0.0001
2068.00,0.0001
2067.00,0.0000
2066.00,-0.0001
2065.00,-0.0002
2064.00,-0.0003
2063.00,-0.0002
2062.00,-0.0001
2061.00,-0.0001
2060.00,-0.0001
2059.00,-0.0000
2058.00,0.0001
2057.00,0.0003
2056.00,0.0004
2055.00,0.0005
2054.00,0.0004
2053.00,0.0005
2052.00,0.0007
2051.00,0.0009
2050.00,0.0009
2049.00,0.0007
2048.00,0.0005
2047.00,0.0004
2046.00,0.0003
2045.00,0.0002
2044.00,0.0001
2043.00,0.0003
2042.00,0.0006
2041.00,0.0008
2040.00,0.0009
2039.00,0.0009
2038.00,0.0008
2037.00,0.0007
2036.00,0.0007
2035.00,0.0006
2034.00,0.0005
2033.00,0.0003
2032.00,0.0000
2031.00,-0.0003
2030.00,-0.0007
2029.00,-0.0009
2028.00,-0.0011
2027.00,-0.0012
2026.00,-0.0012
2025.00,-0.0010
2024.00,-0.0008
2023.00,-0.0008
2022.00,-0.0008
2021.00,-0.0009
2020.00,-0.0011
2019.00,-0.0013
2018.00,-0.0014
2017.00,-0.0015
2016.00,-0.0014
2015.00,-0.0011
2014.00,-0.0007
2013.00,-0.0003
2012.00,0.0001
2011.00,0.0003
2010.00,0.0002
2009.00,-0.0001
2008.00,-0.0007
2007.00,-0.0012
2006.00,-0.0016
2005.00,-0.0017
2004.00,-0.0015
2003.00,-0.0012
2002.00,-0.0010
2001.00,-0.0009
2000.00,-0.0009
1999.00,-0.0010
1998.00,-0.0009
1997.00,-0.0008
1996.00,-0.0006
1995.00,-0.0006
1994.00,-0.0006
1993.00,-0.0006
1992.00,-0.0007
1991.00,-0.0006
1990.00,-0.0005
1989.00,-0.0004
1988.00,-0.0003
1987.00,-0.0003
1986.00,-0.0002
1985.00,-0.0000
1984.00,0.0003
1983.00,0.0006
1982.00,0.0010
1981.00,0.0012
1980.00,0.0012
1979.00,0.0008
1978.00,0.0003
1977.00,-0.0001
1976.00,-0.0002
1975.00,-0.0002
1974.00,-0.0004
1973.00,-0.0006
1972.00,-0.0008
1971.00,-0.0008
1970.00,-0.0008
1969.00,-0.0009
1968.00,-0.0012
1967.00,-0.0016
1966.00,-0.0019
1965.00,-0.0018
1964.00,-0.0015
1963.00,-0.0013
1962.00,-0.0011
1961.00,-0.0012
1960.00,-0.0013
1959.00,-0.0014
1958.00,-0.0015
1957.00,-0.0015
1956.00,-0.0015
1955.00,-0.0015
1954.00,-0.0015
1953.00,-0.0016
1952.00,-0.0016
1951.00,-0.0016
1950.00,-0.0014
1949.00,-0.0012
1948.00,-0.0010
1947.00,-0.0010
1946.00,-0.0010
1945.00,-0.0011
1944.00,-0.0011
1943.00,-0.0011
1942.00,-0.0010
1941.00,-0.0009
1940.00,-0.0007
1939.00,-0.0007
1938.00,-0.0007
1937.00,-0.0006
1936.00,-0.0004
1935.00,-0.0003
1934.00,-0.0003
1933.00,-0.0003
1932.00,-0.0004
1931.00,-0.0005
1930.00,-0.0005
1929.00,-0.0006
1928.00,-0.0005
1927.00,-0.0006
1926.00,-0.0006
1925.00,-0.0006
1924.00,-0.0005
1923.00,-0.0004
1922.00,-0.0003
1921.00,-0.0002
1920.00,-0.0002
1919.00,-0.0001
1918.00,-0.0001
1917.00,-0.0000
1916.00,-0.0000
1915.00,-0.0000
1914.00,-0.0000
1913.00,0.0000
1912.00,0.0001
1911.00,0.0002
1910.00,0.0002
1909.00,0.0001
1908.00,0.0001
1907.00,-0.0000
1906.00,-0.0001
1905.00,-0.0002
1904.00,-0.0001
1903.00,-0.0000
1902.00,0.0001
1901.00,0.0001
1900.00,0.0000
1899.00,-0.0000
1898.00,-0.0001
1897.00,-0.0001
1896.00,-0.0001
1895.00,-0.0001
1894.00,-0.0001
1893.00,-0.0001
1892.00,-0.0001
1891.00,-0.0001
1890.00,0.0000
1889.00,0.0002
1888.00,0.0003
1887.00,0.0003
1886.00,0.0003
1885.00,0.0002
1884.00,0.0002
1883.00,0.0002
1882.00,0.0003
1881.00,0.0003
1880.00,0.0002
1879.00,0.0002
1878.00,0.0002
1877.00,0.0002
1876.00,0.0002
1875.00,0.0002
1874.00,0.0003
1873.00,0.0003
1872.00,0.0003
1871.00,0.0002
1870.00,0.0002
1869.00,0.0002
1868.00,0.0001
1867.00,0.0001
1866.00,0.0001
1865.00,0.0001
1864.00,0.0002
1863.00,0.0002
1862.00,0.0001
1861.00,0.0001
1860.00,0.0001
1859.00,0.0001
1858.00,0.0003
1857.00,0.0004
1856.00,0.0004
1855.00,0.0003
1854.00,0.0002
1853.00,0.0001
1852.00,0.0001
1851.00,0.0002
1850.00,0.0003
1849.00,0.0004
1848.00,0.0004
1847.00,0.0004
1846.00,0.0004
1845.00,0.0003
1844.00,0.0003
1843.00,0.0003
1842.00,0.0003
1841.00,0.0003
1840.00,0.0004
1839.00,0.0004
1838.00,0.0004
1837.00,0.0005
1836.00,0.0005
1835.00,0.0005
1834.00,0.0005
1833.00,0.0005
1832.00,0.0006
1831.00,0.0005
1830.00,0.0005
1829.00,0.0005
1828.00,0.0005
1827.00,0.0006
1826.00,0.0006
1825.00,0.0006
1824.00,0.0005
1823.00,0.0005
1822.00,0.0005
1821.00,0.0005
1820.00,0.0005
1819.00,0.0004
1818.00,0.0003
1817.00,0.0002
1816.00,0.0002
1815.00,0.0003
1814.00,0.0003
1813.00,0.0003
1812.00,0.0003
1811.00,0.0003
1810.00,0.0003
1809.00,0.0003
1808.00,0.0004
1807.00,0.0004
1806.00,0.0005
1805.00,0.0005
1804.00,0.0005
1803.00,0.0005
1802.00,0.0005
1801.00,0.0005
1800.00,0.0006
1799.00,0.0007
1798.00,0.0008
1797.00,0.0008
1796.00,0.0008
1795.00,0.0008
1794.00,0.0008
1793.00,0.0008
1792.00,0.0009
1791.00,0.0009
1790.00,0.0010
1789.00,0.0010
1788.00,0.0010
1787.00,0.0010
1786.00,0.0010
1785.00,0.0009
1784.00,0.0009
1783.00,0.0008
1782.00,0.0008
1781.00,0.0009
1780.00,0.0009
1779.00,0.0009
1778.00,0.0009
1777.00,0.0009
1776.00,0.0009
1775.00,0.0009
1774.00,0.0010
1773.00,0.0010
1772.00,0.0011
1771.00,0.0012
1770.00,0.0012
1769.00,0.0013
1768.00,0.0013
1767.00,0.0012
1766.00,0.0011
1765.00,0.0011
1764.00,0.0011
1763.00,0.0011
1762.00,0.0012
1761.00,0.0012
1760.00,0.0013
1759.00,0.0013
1758.00,0.0014
1757.00,0.0015
1756.00,0.0015
1755.00,0.0016
1754.00,0.0016
1753.00,0.0017
1752.00,0.0018
1751.00,0.0019
1750.00,0.0020
1749.00,0.0020
1748.00,0.0021
1747.00,0.0021
1746.00,0.0021
1745.00,0.0020
1744.00,0.0020
1743.00,0.0021
1742.00,0.0021
1741.00,0.0022
1740.00,0.0023
1739.00,0.0023
1738.00,0.0023
1737.00,0.0023
1736.00,0.0023
1735.00,0.0023
1734.00,0.0023
1733.00,0.0024
1732.00,0.0024
1731.00,0.0025
1730.00,0.0025
1729.00,0.0025
1728.00,0.0025
1727.00,0.0026
1726.00,0.0026
1725.00,0.0026
1724.00,0.0026
1723.00,0.0026
1722.00,0.0026
1721.00,0.0026
1720.00,0.0025
1719.00,0.0024
1718.00,0.0023
1717.00,0.0023
1716.00,0.0023
1715.00,0.0023
1714.00,0.0023
1713.00,0.0024
1712.00,0.0024
1711.00,0.0024
1710.00,0.0024
1709.00,0.0024
1708.00,0.0025
1707.00,0.0025
1706.00,0.0025
1705.00,0.0025
1704.00,0.0026
1703.00,0.0026
1702.00,0.0027
1701.00,0.0027
1700.00,0.0027
1699.00,0.0027
1698.00,0.0028
1697.00,0.0028
1696.00,0.0029
1695.00,0.0029
1694.00,0.0029
1693.00,0.0029
1692.00,0.0029
1691.00,0.0030
1690.00,0.0030
1689.00,0.0032
1688.00,0.0033
1687.00,0.0034
1686.00,0.0034
1685.00,0.0034
1684.00,0.0035
1683.00,0.0035
1682.00,0.0036
1681.00,0.0036
1680.00,0.0037
1679.00,0.0038
1678.00,0.0039
1677.00,0.0039
1676.00,0.0040
1675.00,0.0040
1674.00,0.0040
1673.00,0.0041
1672.00,0.0042
1671.00,0.0042
1670.00,0.0042
1669.00,0.0043
1668.00,0.0044
1667.00,0.0044
1666.00,0.0045
1665.00,0.0046
1664.00,0.0047
1663.00,0.0048
1662.00,0.0048
1661.00,0.0049
1660.00,0.0049
1659.00,0.0049
1658.00,0.0050
1657.00,0.0050
1656.00,0.0051
1655.00,0.0051
1654.00,0.0052
1653.00,0.0052
1652.00,0.0053
1651.00,0.0053
1650.00,0.0054
1649.00,0.0055
1648.00,0.0057
1647.00,0.0059
1646.00,0.0059
1645.00,0.0059
1644.00,0.0059
1643.00,0.0059
1642.00,0.0060
1641.00,0.0060
1640.00,0.0061
1639.00,0.0061
1638.00,0.0061
1637.00,0.0062
1636.00,0.0062
1635.00,0.0062
1634.00,0.0061
1633.00,0.0061
1632.00,0.0061
1631.00,0.0061
1630.00,0.0061
1629.00,0.0061
1628.00,0.0061
1627.00,0.0061
1626.00,0.0060
1625.00,0.0059
1624.00,0.0058
1623.00,0.0058
1622.00,0.0057
1621.00,0.0057
1620.00,0.0058
1619.00,0.0057
1618.00,0.0057
1617.00,0.0057
1616.00,0.0057
1615.00,0.0057
1614.00,0.0057
1613.00,0.0058
1612.00,0.0058
1611.00,0.0058
1610.00,0.0058
1609.00,0.0057
1608.00,0.0057
1607.00,0.0057
1606.00,0.0057
1605.00,0.0058
1604.00,0.0058
1603.00,0.0057
1602.00,0.0057
1601.00,0.0056
1600.00,0.0056
1599.00,0.0056
1598.00,0.0056
1597.00,0.0056
1596.00,0.0056
1595.00,0.0056
1594.00,0.0056
1593.00,0.0056
1592.00,0.0056
1591.00,0.0056
1590.00,0.0056
1589.00,0.0056
1588.00,0.0056
1587.00,0.0056
1586.00,0.0056
1585.00,0.0057
1584.00,0.0058
1583.00,0.0059
1582.00,0.0060
1581.00,0.0062
1580.00,0.0064
1579.00,0.0065
1578.00,0.0065
1577.00,0.0066
1576.00,0.0065
1575.00,0.0065
1574.00,0.0065
1573.00,0.0065
1572.00,0.0065
1571.00,0.0065
1570.00,0.0064
1569.00,0.0063
1568.00,0.0063
1567.00,0.0063
1566.00,0.0063
1565.00,0.0064
1564.00,0.0064
1563.00,0.0064
1562.00,0.0064
1561.00,0.0064
1560.00,0.0064
1559.00,0.0065
1558.00,0.0066
1557.00,0.0067
1556.00,0.0068
1555.00,0.0068
1554.00,0.0068
1553.00,0.0069
1552.00,0.0069
1551.00,0.0070
1550.00,0.0070
1549.00,0.0071
1548.00,0.0072
1547.00,0.0072
1546.00,0.0074
1545.00,0.0075
1544.00,0.0077
1543.00,0.0077
1542.00,0.0077
1541.00,0.0076
1540.00,0.0074
1539.00,0.0071
1538.00,0.0068
1537.00,0.0067
1536.00,0.0067
1535.00,0.0065
1534.00,0.0063
1533.00,0.0061
1532.00,0.0060
1531.00,0.0059
1530.00,0.0058
1529.00,0.0058
1528.00,0.0058
1527.00,0.0057
1526.00,0.0057
1525.00,0.0056
1524.00,0.0057
1523.00,0.0056
1522.00,0.0056
1521.00,0.0056
1520.00,0.0057
1519.00,0.0057
1518.00,0.0057
1517.00,0.0058
1516.00,0.0059
1515.00,0.0059
1514.00,0.0059
1513.00,0.0060
1512.00,0.0061
1511.00,0.0061
1510.00,0.0061
1509.00,0.0063
1508.00,0.0064
1507.00,0.0065
1506.00,0.0065
1505.00,0.0066
1504.00,0.0068
1503.00,0.0070
1502.00,0.0072
1501.00,0.0074
1500.00,0.0076
1499.00,0.0078
1498.00,0.0081
1497.00,0.0084
1496.00,0.0088
1495.00,0.0090
1494.00,0.0093
1493.00,0.0096
1492.00,0.0100
1491.00,0.0104
1490.00,0.0108
1489.00,0.0114
1488.00,0.0120
1487.00,0.0124
1486.00,0.0129
1485.00,0.0135
1484.00,0.0142
1483.00,0.0150
1482.00,0.0158
1481.00,0.0170
1480.00,0.0182
1479.00,0.0195
1478.00,0.0211
1477.00,0.0232
1476.00,0.0259
1475.00,0.0289
1474.00,0.0330
1473.00,0.0388
1472.00,0.0456
1471.00,0.0522
1470.00,0.0585
1469.00,0.0651
1468.00,0.0723
1467.00,0.0803
1466.00,0.0893
1465.00,0.0991
1464.00,0.1076
1463.00,0.1134
1462.00,0.1169
1461.00,0.1192
1460.00,0.1207
1459.00,0.1215
1458.00,0.1221
1457.00,0.1224
1456.00,0.1219
1455.00,0.1208
1454.00,0.1194
1453.00,0.1175
1452.00,0.1146
1451.00,0.1106
1450.00,0.1053
1449.00,0.0981
1448.00,0.0889
1447.00,0.0793
1446.00,0.0707
1445.00,0.0634
1444.00,0.0572
1443.00,0.0522
1442.00,0.0485
1441.00,0.0459
1440.00,0.0444
1439.00,0.0438
1438.00,0.0440
1437.00,0.0443
1436.00,0.0435
1435.00,0.0412
1434.00,0.0377
1433.00,0.0335
1432.00,0.0290
1431.00,0.0249
1430.00,0.0217
1429.00,0.0193
1428.00,0.0177
1427.00,0.0167
1426.00,0.0160
1425.00,0.0154
1424.00,0.0148
1423.00,0.0145
1422.00,0.0144
1421.00,0.0142
1420.00,0.0139
1419.00,0.0136
1418.00,0.0134
1417.00,0.0131
1416.00,0.0128
1415.00,0.0127
1414.00,0.0126
1413.00,0.0125
1412.00,0.0123
1411.00,0.0123
1410.00,0.0123
1409.00,0.0122
1408.00,0.0121
1407.00,0.0121
1406.00,0.0122
1405.00,0.0123
1404.00,0.0123
1403.00,0.0124
1402.00,0.0125
1401.00,0.0126
1400.00,0.0128
1399.00,0.0130
1398.00,0.0134
1397.00,0.0137
1396.00,0.0139
1395.00,0.0143
1394.00,0.0148
1393.00,0.0153
1392.00,0.0159
1391.00,0.0166
1390.00,0.0177
1389.00,0.0190
1388.00,0.0211
1387.00,0.0242
1386.00,0.0284
1385.00,0.0340
1384.00,0.0417
1383.00,0.0527
1382.00,0.0678
1381.00,0.0875
1380.00,0.1122
1379.00,0.1406
1378.00,0.1681
1377.00,0.1885
1376.00,0.1954
1375.00,0.1854
1374.00,0.1616
1373.00,0.1330
1372.00,0.1071
1371.00,0.0858
1370.00,0.0689
1369.00,0.0562
1368.00,0.0474
1367.00,0.0420
1366.00,0.0390
1365.00,0.0379
1364.00,0.0381
1363.00,0.0394
1362.00,0.0416
1361.00,0.0439
1360.00,0.0456
1359.00,0.0462
1358.00,0.0451
1357.00,0.0425
1356.00,0.0388
1355.00,0.0347
1354.00,0.0307
1353.00,0.0274
1352.00,0.0246
1351.00,0.0224
1350.00,0.0205
1349.00,0.0190
1348.00,0.0178
1347.00,0.0167
1346.00,0.0158
1345.00,0.0151
1344.00,0.0144
1343.00,0.0139
1342.00,0.0135
1341.00,0.0131
1340.00,0.0129
1339.00,0.0127
1338.00,0.0125
1337.00,0.0124
1336.00,0.0125
1335.00,0.0127
1334.00,0.0130
1333.00,0.0134
1332.00,0.0139
1331.00,0.0143
1330.00,0.0144
1329.00,0.0143
1328.00,0.0139
1327.00,0.0134
1326.00,0.0127
1325.00,0.0121
1324.00,0.0115
1323.00,0.0109
1322.00,0.0105
1321.00,0.0101
1320.00,0.0099
1319.00,0.0098
1318.00,0.0096
1317.00,0.0095
1316.00,0.0094
1315.00,0.0094
1314.00,0.0093
1313.00,0.0093
1312.00,0.0094
1311.00,0.0096
1310.00,0.0100
1309.00,0.0105
1308.00,0.0114
1307.00,0.0124
1306.00,0.0133
1305.00,0.0139
1304.00,0.0141
1303.00,0.0138
1302.00,0.0135
1301.00,0.0131
1300.00,0.0131
1299.00,0.0131
1298.00,0.0133
1297.00,0.0134
1296.00,0.0133
1295.00,0.0131
1294.00,0.0127
1293.00,0.0121
1292.00,0.0116
1291.00,0.0110
1290.00,0.0106
1289.00,0.0102
1288.00,0.0099
1287.00,0.0097
1286.00,0.0095
1285.00,0.0093
1284.00,0.0091
1283.00,0.0090
1282.00,0.0089
1281.00,0.0088
1280.00,0.0088
1279.00,0.0088
1278.00,0.0088
1277.00,0.0087
1276.00,0.0087
1275.00,0.0087
1274.00,0.0088
1273.00,0.0088
1272.00,0.0089
1271.00,0.0091
1270.00,0.0093
1269.00,0.0095
1268.00,0.0097
1267.00,0.0100
1266.00,0.0104
1265.00,0.0107
1264.00,0.0111
1263.00,0.0114
1262.00,0.0116
1261.00,0.0119
1260.00,0.0123
1259.00,0.0129
1258.00,0.0136
1257.00,0.0141
1256.00,0.0142
1255.00,0.0140
1254.00,0.0134
1253.00,0.0126
1252.00,0.0119
1251.00,0.0112
1250.00,0.0107
1249.00,0.0103
1248.00,0.0100
1247.00,0.0097
1246.00,0.0095
1245.00,0.0093
1244.00,0.0091
1243.00,0.0090
1242.00,0.0089
1241.00,0.0089
1240.00,0.0088
1239.00,0.0087
1238.00,0.0087
1237.00,0.0086
1236.00,0.0085
1235.00,0.0085
1234.00,0.0085
1233.00,0.0085
1232.00,0.0086
1231.00,0.0086
1230.00,0.0086
1229.00,0.0087
1228.00,0.0087
1227.00,0.0088
1226.00,0.0090
1225.00,0.0093
1224.00,0.0096
1223.00,0.0100
1222.00,0.0104
1221.00,0.0107
1220.00,0.0109
1219.00,0.0109
1218.00,0.0108
1217.00,0.0106
1216.00,0.0103
1215.00,0.0099
1214.00,0.0096
1213.00,0.0092
1212.00,0.0089
1211.00,0.0087
1210.00,0.0085
1209.00,0.0084
1208.00,0.0082
1207.00,0.0082
1206.00,0.0081
1205.00,0.0081
1204.00,0.0080
1203.00,0.0080
1202.00,0.0079
1201.00,0.0079
1200.00,0.0079
1199.00,0.0079
1198.00,0.0080
1197.00,0.0080
1196.00,0.0080
1195.00,0.0081
1194.00,0.0081
1193.00,0.0081
1192.00,0.0081
1191.00,0.0081
1190.00,0.0081
1189.00,0.0081
1188.00,0.0082
1187.00,0.0083
1186.00,0.0085
1185.00,0.0086
1184.00,0.0087
1183.00,0.0089
1182.00,0.0091
1181.00,0.0094
1180.00,0.0098
1179.00,0.0102
1178.00,0.0108
1177.00,0.0116
1176.00,0.0126
1175.00,0.0139
1174.00,0.0157
1173.00,0.0179
1172.00,0.0206
1171.00,0.0235
1170.00,0.0264
1169.00,0.0287
1168.00,0.0300
1167.00,0.0303
1166.00,0.0297
1165.00,0.0284
1164.00,0.0269
1163.00,0.0254
1162.00,0.0242
1161.00,0.0232
1160.00,0.0225
1159.00,0.0221
1158.00,0.0218
1157.00,0.0216
1156.00,0.0214
1155.00,0.0213
1154.00,0.0212
1153.00,0.0210
1152.00,0.0206
1151.00,0.0200
1150.00,0.0192
1149.00,0.0183
1148.00,0.0173
1147.00,0.0163
1146.00,0.0154
1145.00,0.0146
1144.00,0.0139
1143.00,0.0133
1142.00,0.0127
1141.00,0.0122
1140.00,0.0117
1139.00,0.0112
1138.00,0.0109
1137.00,0.0106
1136.00,0.0104
1135.00,0.0102
1134.00,0.0101
1133.00,0.0100
1132.00,0.0099
1131.00,0.0099
1130.00,0.0100
1129.00,0.0100
1128.00,0.0100
1127.00,0.0101
1126.00,0.0101
1125.00,0.0102
1124.00,0.0102
1123.00,0.0102
1122.00,0.0102
1121.00,0.0102
1120.00,0.0103
1119.00,0.0104
1118.00,0.0105
1117.00,0.0106
1116.00,0.0107
1115.00,0.0109
1114.00,0.0111
1113.00,0.0113
1112.00,0.0115
1111.00,0.0118
1110.00,0.0120
1109.00,0.0123
1108.00,0.0127
1107.00,0.0132
1106.00,0.0139
1105.00,0.0147
1104.00,0.0153
1103.00,0.0156
1102.00,0.0156
1101.00,0.0154
1100.00,0.0148
1099.00,0.0141
1098.00,0.0134
1097.00,0.0129
1096.00,0.0125
1095.00,0.0122
1094.00,0.0119
1093.00,0.0116
1092.00,0.0114
1091.00,0.0112
1090.00,0.0111
1089.00,0.0110
1088.00,0.0109
1087.00,0.0109
1086.00,0.0109
1085.00,0.0110
1084.00,0.0110
1083.00,0.0110
1082.00,0.0109
1081.00,0.0107
1080.00,0.0106
1079.00,0.0104
1078.00,0.0103
1077.00,0.0102
1076.00,0.0101
1075.00,0.0101
1074.00,0.0100
1073.00,0.0101
1072.00,0.0101
1071.00,0.0101
1070.00,0.0101
1069.00,0.0100
1068.00,0.0099
1067.00,0.0098
1066.00,0.0097
1065.00,0.0098
1064.00,0.0099
1063.00,0.0100
1062.00,0.0100
1061.00,0.0100
1060.00,0.0100
1059.00,0.0100
1058.00,0.0101
1057.00,0.0102
1056.00,0.0104
1055.00,0.0107
1054.00,0.0109
1053.00,0.0110
1052.00,0.0113
1051.00,0.0115
1050.00,0.0118
1049.00,0.0122
1048.00,0.0127
1047.00,0.0132
1046.00,0.0135
1045.00,0.0138
1044.00,0.0138
1043.00,0.0138
1042.00,0.0138
1041.00,0.0136
1040.00,0.0134
1039.00,0.0132
1038.00,0.0131
1037.00,0.0131
1036.00,0.0130
1035.00,0.0129
1034.00,0.0127
1033.00,0.0125
1032.00,0.0124
1031.00,0.0123
1030.00,0.0123
1029.00,0.0123
1028.00,0.0124
1027.00,0.0125
1026.00,0.0126
1025.00,0.0127
1024.00,0.0129
1023.00,0.0132
1022.00,0.0134
1021.00,0.0137
1020.00,0.0138
1019.00,0.0139
1018.00,0.0139
1017.00,0.0139
1016.00,0.0139
1015.00,0.0139
1014.00,0.0139
1013.00,0.0138
1012.00,0.0137
1011.00,0.0137
1010.00,0.0137
1009.00,0.0137
1008.00,0.0139
1007.00,0.0143
1006.00,0.0149
1005.00,0.0158
1004.00,0.0172
1003.00,0.0191
1002.00,0.0218
1001.00,0.0251
1000.00,0.0285
999.00,0.0314
998.00,0.0327
997.00,0.0319
996.00,0.0293
995.00,0.0257
994.00,0.0220
993.00,0.0189
992.00,0.0164
991.00,0.0147
990.00,0.0135
989.00,0.0127
988.00,0.0122
987.00,0.0119
986.00,0.0118
985.00,0.0120
984.00,0.0124
983.00,0.0131
982.00,0.0141
981.00,0.0156
980.00,0.0177
979.00,0.0203
978.00,0.0237
977.00,0.0275
976.00,0.0316
975.00,0.0355
974.00,0.0383
973.00,0.0393
972.00,0.0379
971.00,0.0344
970.00,0.0299
969.00,0.0253
968.00,0.0214
967.00,0.0184
966.00,0.0163
965.00,0.0148
964.00,0.0138
963.00,0.0129
962.00,0.0123
961.00,0.0117
960.00,0.0113
959.00,0.0109
958.00,0.0107
957.00,0.0106
956.00,0.0105
955.00,0.0104
954.00,0.0103
953.00,0.0102
952.00,0.0101
951.00,0.0099
950.00,0.0097
949.00,0.0095
948.00,0.0095
947.00,0.0096
946.00,0.0098
945.00,0.0101
944.00,0.0104
943.00,0.0108
942.00,0.0111
941.00,0.0114
940.00,0.0113
939.00,0.0110
938.00,0.0104
937.00,0.0097
936.00,0.0091
935.00,0.0087
934.00,0.0083
933.00,0.0080
932.00,0.0077
931.00,0.0075
930.00,0.0073
929.00,0.0072
928.00,0.0070
927.00,0.0069
926.00,0.0069
925.00,0.0069
924.00,0.0069
923.00,0.0070
922.00,0.0070
921.00,0.0069
920.00,0.0068
919.00,0.0067
918.00,0.0067
917.00,0.0067
916.00,0.0067
915.00,0.0068
914.00,0.0069
913.00,0.0070
912.00,0.0071
911.00,0.0072
910.00,0.0074
909.00,0.0077
908.00,0.0081
907.00,0.0086
906.00,0.0094
905.00,0.0106
904.00,0.0121
903.00,0.0140
902.00,0.0159
901.00,0.0177
900.00,0.0188
899.00,0.0190
898.00,0.0182
897.00,0.0166
896.00,0.0146
895.00,0.0126
894.00,0.0110
893.00,0.0099
892.00,0.0091
891.00,0.0086
890.00,0.0083
889.00,0.0081
888.00,0.0079
887.00,0.0078
886.00,0.0077
885.00,0.0076
884.00,0.0076
883.00,0.0075
882.00,0.0075
881.00,0.0076
880.00,0.0077
879.00,0.0078
878.00,0.0079
877.00,0.0079
876.00,0.0080
875.00,0.0082
874.00,0.0083
873.00,0.0083
872.00,0.0082
871.00,0.0081
870.00,0.0080
869.00,0.0080
868.00,0.0080
867.00,0.0081
866.00,0.0081
865.00,0.0081
864.00,0.0081
863.00,0.0081
862.00,0.0082
861.00,0.0084
860.00,0.0085
859.00,0.0086
858.00,0.0087
857.00,0.0088
856.00,0.0089
855.00,0.0091
854.00,0.0093
853.00,0.0096
852.00,0.0099
851.00,0.0102
850.00,0.0106
849.00,0.0111
848.00,0.0119
847.00,0.0130
846.00,0.0148
845.00,0.0176
844.00,0.0215
843.00,0.0261
842.00,0.0299
841.00,0.0311
840.00,0.0291
839.00,0.0249
838.00,0.0204
837.00,0.0168
836.00,0.0145
835.00,0.0131
834.00,0.0122
833.00,0.0115
832.00,0.0110
831.00,0.0106
830.00,0.0104
829.00,0.0104
828.00,0.0104
827.00,0.0105
826.00,0.0105
825.00,0.0105
824.00,0.0106
823.00,0.0106
822.00,0.0108
821.00,0.0110
820.00,0.0113
819.00,0.0117
818.00,0.0121
817.00,0.0126
816.00,0.0133
815.00,0.0144
814.00,0.0159
813.00,0.0179
812.00,0.0202
811.00,0.0223
810.00,0.0239
809.00,0.0245
808.00,0.0239
807.00,0.0224
806.00,0.0203
805.00,0.0184
804.00,0.0167
803.00,0.0154
802.00,0.0144
801.00,0.0136
800.00,0.0128
799.00,0.0122
798.00,0.0116
797.00,0.0111
796.00,0.0107
795.00,0.0103
794.00,0.0100
793.00,0.0098
792.00,0.0095
791.00,0.0092
790.00,0.0089
789.00,0.0086
788.00,0.0083
787.00,0.0081
786.00,0.0080
785.00,0.0078
784.00,0.0077
783.00,0.0076
782.00,0.0075
781.00,0.0074
780.00,0.0073
779.00,0.0072
778.00,0.0072
777.00,0.0071
776.00,0.0070
775.00,0.0069
774.00,0.0068
773.00,0.0068
772.00,0.0068
771.00,0.0068
770.00,0.0069
769.00,0.0069
768.00,0.0069
767.00,0.0069
766.00,0.0070
765.00,0.0070
764.00,0.0070
763.00,0.0070
762.00,0.0069
761.00,0.0068
760.00,0.0069
759.00,0.0070
758.00,0.0072
757.00,0.0074
756.00,0.0076
755.00,0.0078
754.00,0.0080
753.00,0.0081
752.00,0.0081
751.00,0.0081
750.00,0.0082
749.00,0.0084
748.00,0.0086
747.00,0.0087
746.00,0.0088
745.00,0.0088
744.00,0.0089
743.00,0.0090
742.00,0.0094
741.00,0.0099
740.00,0.0104
739.00,0.0109
738.00,0.0113
737.00,0.0116
736.00,0.0118
735.00,0.0121
734.00,0.0126
733.00,0.0131
732.00,0.0139
731.00,0.0147
730.00,0.0153
729.00,0.0157
728.00,0.0159
727.00,0.0160
726.00,0.0162
725.00,0.0164
724.00,0.0168
723.00,0.0173
722.00,0.0178
721.00,0.0182
720.00,0.0181
719.00,0.0173
718.00,0.0160
717.00,0.0147
716.00,0.0136
715.00,0.0129
714.00,0.0124
713.00,0.0120
712.00,0.0117
711.00,0.0115
710.00,0.0114
709.00,0.0114
708.00,0.0113
707.00,0.0111
706.00,0.0109
705.00,0.0107
704.00,0.0106
703.00,0.0105
702.00,0.0104
701.00,0.0104
700.00,0.0103
699.00,0.0102
698.00,0.0101
697.00,0.0100
696.00,0.0100
695.00,0.0102
694.00,0.0102
693.00,0.0102
692.00,0.0100
691.00,0.0098
690.00,0.0097
689.00,0.0098
688.00,0.0100
687.00,0.0102
686.00,0.0102
685.00,0.0100
684.00,0.0097
683.00,0.0096
682.00,0.0096
681.00,0.0097
680.00,0.0099
679.00,0.0099
678.00,0.0099
677.00,0.0099
676.00,0.0099
675.00,0.0101
674.00,0.0104
673.00,0.0107
672.00,0.0110
671.00,0.0112
670.00,0.0112
669.00,0.0111
668.00,0.0109
667.00,0.0105
666.00,0.0102
665.00,0.0100
664.00,0.0099
663.00,0.0098
662.00,0.0097
661.00,0.0096
660.00,0.0095
659.00,0.0093
658.00,0.0092
657.00,0.0091
656.00,0.0093
655.00,0.0094
654.00,0.0094
653.00,0.0093
652.00,0.0090
651.00,0.0088
650.00,0.0086
649.00,0.0087
648.00,0.0089
647.00,0.0091
646.00,0.0092
645.00,0.0092
644.00,0.0091
643.00,0.0090
642.00,0.0090
641.00,0.0089
640.00,0.0089
639.00,0.0088
638.00,0.0087
637.00,0.0086
636.00,0.0087
635.00,0.0089
634.00,0.0091
633.00,0.0092
632.00,0.0092
631.00,0.0091
630.00,0.0089
629.00,0.0088
628.00,0.0089
627.00,0.0091
626.00,0.0093
625.00,0.0094
624.00,0.0092
623.00,0.0090
622.00,0.0089
621.00,0.0088
620.00,0.0088
619.00,0.0086
618.00,0.0084
617.00,0.0082
616.00,0.0081
615.00,0.0083
614.00,0.0084
613.00,0.0085
612.00,0.0085
611.00,0.0085
610.00,0.0085
609.00,0.0085
608.00,0.0087
607.00,0.0090
606.00,0.0093
605.00,0.0095
604.00,0.0097
603.00,0.0097
602.00,0.0096
601.00,0.0091
600.00,0.0087
599.00,0.0083
598.00,0.0083
597.00,0.0084
596.00,0.0085
595.00,0.0086
594.00,0.0086
593.00,0.0086
592.00,0.0087
591.00,0.0088
590.00,0.0088
589.00,0.0087
588.00,0.0084
587.00,0.0081
586.00,0.0080
585.00,0.0080
584.00,0.0082
583.00,0.0083
582.00,0.0086
581.00,0.0088
580.00,0.0091
579.00,0.0091
578.00,0.0089
577.00,0.0087
576.00,0.0086
575.00,0.0086
574.00,0.0086
573.00,0.0085
572.00,0.0082
571.00,0.0080
570.00,0.0081
569.00,0.0084
568.00,0.0087
567.00,0.0089
566.00,0.0088
565.00,0.0084
564.00,0.0079
563.00,0.0077
562.00,0.0078
561.00,0.0081
560.00,0.0085
559.00,0.0087
558.00,0.0089
557.00,0.0089
556.00,0.0089
555.00,0.0090
554.00,0.0091
553.00,0.0093
552.00,0.0093
551.00,0.0092
550.00,0.0090
549.00,0.0087
548.00,0.0087
547.00,0.0090
546.00,0.0094
545.00,0.0098
544.00,0.0100
543.00,0.0102
542.00,0.0104
541.00,0.0107
540.00,0.0109
539.00,0.0112
538.00,0.0115
537.00,0.0117
536.00,0.0119
535.00,0.0121
534.00,0.0124
533.00,0.0126
532.00,0.0127
531.00,0.0127
530.00,0.0127
529.00,0.0127
528.00,0.0129
527.00,0.0131
526.00,0.0133
525.00,0.0132
524.00,0.0129
523.00,0.0123
522.00,0.0114
521.00,0.0105
520.00,0.0097
519.00,0.0093
518.00,0.0092
517.00,0.0094
516.00,0.0095
515.00,0.0095
514.00,0.0093
513.00,0.0092
512.00,0.0091
511.00,0.0092
510.00,0.0091
509.00,0.0089
508.00,0.0086
507.00,0.0084
506.00,0.0085
505.00,0.0088
504.00,0.0090
503.00,0.0090
502.00,0.0091
501.00,0.0092
500.00,0.0094
499.00,0.0093
498.00,0.0090
497.00,0.0086
496.00,0.0081
495.00,0.0080
494.00,0.0080
493.00,0.0084
492.00,0.0091
491.00,0.0097
490.00,0.0097
489.00,0.0090
488.00,0.0079
487.00,0.0074
486.00,0.0078
485.00,0.0089
484.00,0.0102
483.00,0.0111
482.00,0.0114
481.00,0.0111
480.00,0.0103
479.00,0.0096
478.00,0.0092
477.00,0.0090
476.00,0.0089
475.00,0.0091
474.00,0.0098
473.00,0.0114
472.00,0.0133
471.00,0.0152
470.00,0.0165
469.00,0.0171
468.00,0.0172
467.00,0.0172
466.00,0.0175
465.00,0.0179
464.00,0.0182
463.00,0.0185
462.00,0.0191
461.00,0.0200
460.00,0.0207
459.00,0.0202
458.00,0.0189
457.00,0.0178
456.00,0.0176
455.00,0.0178
454.00,0.0178
453.00,0.0173
452.00,0.0168
451.00,0.0166
450.00,0.0170
