Created as New Dataset,Sample 239 By Administrator Date Wednesday, September 03 2025
cm-1,A
4000.00,0.0009
3999.00,0.0009
3998.00,0.0009
3997.00,0.0008
3996.00,0.0008
3995.00,0.0008
3994.00,0.0008
3993.00,0.0008
3992.00,0.0009
3991.00,0.0009
3990.00,0.0009
3989.00,0.0008
3988.00,0.0008
3987.00,0.0008
3986.00,0.0008
3985.00,0.0008
3984.00,0.0007
3983.00,0.0007
3982.00,0.0007
3981.00,0.0007
3980.00,0.0007
3979.00,0.0007
3978.00,0.0007
3977.00,0.0007
3976.00,0.0007
3975.00,0.0007
3974.00,0.0007
3973.00,0.0007
3972.00,0.0007
3971.00,0.0007
3970.00,0.0007
3969.00,0.0007
3968.00,0.0007
3967.00,0.0008
3966.00,0.0008
3965.00,0.0008
3964.00,0.0007
3963.00,0.0007
3962.00,0.0007
3961.00,0.0007
3960.00,0.0006
3959.00,0.0006
3958.00,0.0006
3957.00,0.0006
3956.00,0.0006
3955.00,0.0006
3954.00,0.0006
3953.00,0.0006
3952.00,0.0006
3951.00,0.0007
3950.00,0.0006
3949.00,0.0006
3948.00,0.0006
3947.00,0.0006
3946.00,0.0006
3945.00,0.0006
3944.00,0.0006
3943.00,0.0006
3942.00,0.0006
3941.00,0.0006
3940.00,0.0006
3939.00,0.0006
3938.00,0.0006
3937.00,0.0006
3936.00,0.0007
3935.00,0.0007
3934.00,0.0007
3933.00,0.0007
3932.00,0.0007
3931.00,0.0007
3930.00,0.0007
3929.00,0.0007
3928.00,0.0007
3927.00,0.0007
3926.00,0.0007
3925.00,0.0007
3924.00,0.0007
3923.00,0.0007
3922.00,0.0007
3921.00,0.0008
3920.00,0.0008
3919.00,0.0008
3918.00,0.0008
3917.00,0.0007
3916.00,0.0007
3915.00,0.0007
3914.00,0.0007
3913.00,0.0007
3912.00,0.0007
3911.00,0.0006
3910.00,0.0006
3909.00,0.0006
3908.00,0.0006
3907.00,0.0007
3906.00,0.0007
3905.00,0.0007
3904.00,0.0007
3903.00,0.0007
3902.00,0.0007
3901.00,0.0006
3900.00,0.0006
3899.00,0.0006
3898.00,0.0006
3897.00,0.0006
3896.00,0.0006
3895.00,0.0006
3894.00,0.0006
3893.00,0.0006
3892.00,0.0006
3891.00,0.0006
3890.00,0.0006
3889.00,0.0007
3888.00,0.0007
3887.00,0.0007
3886.00,0.0007
3885.00,0.0007
3884.00,0.0006
3883.00,0.0006
3882.00,0.0006
3881.00,0.0006
3880.00,0.0006
3879.00,0.0006
3878.00,0.0006
3877.00,0.0006
3876.00,0.0006
3875.00,0.0006
3874.00,0.0006
3873.00,0.0006
3872.00,0.0005
3871.00,0.0005
3870.00,0.0005
3869.00,0.0006
3868.00,0.0006
3867.00,0.0006
3866.00,0.0006
3865.00,0.0006
3864.00,0.0006
3863.00,0.0006
3862.00,0.0006
3861.00,0.0005
3860.00,0.0005
3859.00,0.0004
3858.00,0.0004
3857.00,0.0004
3856.00,0.0003
3855.00,0.0003
3854.00,0.0003
3853.00,0.0003
3852.00,0.0003
3851.00,0.0003
3850.00,0.0004
3849.00,0.0004
3848.00,0.0005
3847.00,0.0005
3846.00,0.0005
3845.00,0.0005
3844.00,0.0005
3843.00,0.0004
3842.00,0.0004
3841.00,0.0004
3840.00,0.0004
3839.00,0.0004
3838.00,0.0004
3837.00,0.0004
3836.00,0.0005
3835.00,0.0005
3834.00,0.0005
3833.00,0.0005
3832.00,0.0005
3831.00,0.0005
3830.00,0.0005
3829.00,0.0006
3828.00,0.0006
3827.00,0.0006
3826.00,0.0006
3825.00,0.0006
3824.00,0.0005
3823.00,0.0005
3822.00,0.0005
3821.00,0.0005
3820.00,0.0005
3819.00,0.0005
3818.00,0.0005
3817.00,0.0005
3816.00,0.0005
3815.00,0.0006
3814.00,0.0006
3813.00,0.0006
3812.00,0.0006
3811.00,0.0006
3810.00,0.0006
3809.00,0.0006
3808.00,0.0006
3807.00,0.0005
3806.00,0.0005
3805.00,0.0005
3804.00,0.0004
3803.00,0.0004
3802.00,0.0004
3801.00,0.0005
3800.00,0.0006
3799.00,0.0006
3798.00,0.0006
3797.00,0.0006
3796.00,0.0006
3795.00,0.0006
3794.00,0.0005
3793.00,0.0005
3792.00,0.0006
3791.00,0.0006
3790.00,0.0006
3789.00,0.0006
3788.00,0.0006
3787.00,0.0006
3786.00,0.0006
3785.00,0.0006
3784.00,0.0006
3783.00,0.0006
3782.00,0.0007
3781.00,0.0007
3780.00,0.0006
3779.00,0.0006
3778.00,0.0006
3777.00,0.0006
3776.00,0.0007
3775.00,0.0007
3774.00,0.0007
3773.00,0.0007
3772.00,0.0006
3771.00,0.0006
3770.00,0.0007
3769.00,0.0007
3768.00,0.0007
3767.00,0.0007
3766.00,0.0007
3765.00,0.0006
3764.00,0.0007
3763.00,0.0007
3762.00,0.0007
3761.00,0.0007
3760.00,0.0007
3759.00,0.0007
3758.00,0.0007
3757.00,0.0007
3756.00,0.0007
3755.00,0.0006
3754.00,0.0006
3753.00,0.0005
3752.00,0.0005
3751.00,0.0005
3750.00,0.0005
3749.00,0.0005
3748.00,0.0005
3747.00,0.0005
3746.00,0.0005
3745.00,0.0005
3744.00,0.0005
3743.00,0.0005
3742.00,0.0005
3741.00,0.0005
3740.00,0.0005
3739.00,0.0005
3738.00,0.0005
3737.00,0.0005
3736.00,0.0005
3735.00,0.0005
3734.00,0.0005
3733.00,0.0005
3732.00,0.0005
3731.00,0.0006
3730.00,0.0006
3729.00,0.0006
3728.00,0.0007
3727.00,0.0006
3726.00,0.0006
3725.00,0.0005
3724.00,0.0005
3723.00,0.0004
3722.00,0.0004
3721.00,0.0004
3720.00,0.0004
3719.00,0.0004
3718.00,0.0004
3717.00,0.0004
3716.00,0.0004
3715.00,0.0004
3714.00,0.0004
3713.00,0.0004
3712.00,0.0004
3711.00,0.0004
3710.00,0.0004
3709.00,0.0003
3708.00,0.0003
3707.00,0.0004
3706.00,0.0004
3705.00,0.0005
3704.00,0.0005
3703.00,0.0005
3702.00,0.0005
3701.00,0.0005
3700.00,0.0005
3699.00,0.0005
3698.00,0.0005
3697.00,0.0005
3696.00,0.0006
3695.00,0.0006
3694.00,0.0006
3693.00,0.0005
3692.00,0.0005
3691.00,0.0004
3690.00,0.0003
3689.00,0.0003
3688.00,0.0003
3687.00,0.0004
3686.00,0.0005
3685.00,0.0005
3684.00,0.0006
3683.00,0.0006
3682.00,0.0006
3681.00,0.0006
3680.00,0.0006
3679.00,0.0007
3678.00,0.0007
3677.00,0.0006
3676.00,0.0006
3675.00,0.0005
3674.00,0.0004
3673.00,0.0004
3672.00,0.0003
3671.00,0.0003
3670.00,0.0003
3669.00,0.0004
3668.00,0.0004
3667.00,0.0005
3666.00,0.0005
3665.00,0.0005
3664.00,0.0005
3663.00,0.0005
3662.00,0.0005
3661.00,0.0005
3660.00,0.0004
3659.00,0.0004
3658.00,0.0004
3657.00,0.0005
3656.00,0.0005
3655.00,0.0006
3654.00,0.0006
3653.00,0.0006
3652.00,0.0006
3651.00,0.0006
3650.00,0.0006
3649.00,0.0006
3648.00,0.0006
3647.00,0.0006
3646.00,0.0006
3645.00,0.0006
3644.00,0.0005
3643.00,0.0005
3642.00,0.0005
3641.00,0.0005
3640.00,0.0005
3639.00,0.0006
3638.00,0.0006
3637.00,0.0006
3636.00,0.0007
3635.00,0.0007
3634.00,0.0007
3633.00,0.0007
3632.00,0.0007
3631.00,0.0007
3630.00,0.0007
3629.00,0.0007
3628.00,0.0007
3627.00,0.0008
3626.00,0.0008
3625.00,0.0008
3624.00,0.0009
3623.00,0.0008
3622.00,0.0008
3621.00,0.0008
3620.00,0.0008
3619.00,0.0007
3618.00,0.0007
3617.00,0.0007
3616.00,0.0007
3615.00,0.0007
3614.00,0.0007
3613.00,0.0008
3612.00,0.0008
3611.00,0.0009
3610.00,0.0009
3609.00,0.0009
3608.00,0.0009
3607.00,0.0009
3606.00,0.0009
3605.00,0.0010
3604.00,0.0009
3603.00,0.0009
3602.00,0.0009
3601.00,0.0009
3600.00,0.0009
3599.00,0.0009
3598.00,0.0009
3597.00,0.0009
3596.00,0.0010
3595.00,0.0010
3594.00,0.0010
3593.00,0.0010
3592.00,0.0010
3591.00,0.0010
3590.00,0.0011
3589.00,0.0011
3588.00,0.0012
3587.00,0.0012
3586.00,0.0011
3585.00,0.0011
3584.00,0.0010
3583.00,0.0010
3582.00,0.0010
3581.00,0.0011
3580.00,0.0011
3579.00,0.0011
3578.00,0.0011
3577.00,0.0012
3576.00,0.0012
3575.00,0.0012
3574.00,0.0013
3573.00,0.0013
3572.00,0.0013
3571.00,0.0013
3570.00,0.0014
3569.00,0.0014
3568.00,0.0014
3567.00,0.0014
3566.00,0.0014
3565.00,0.0015
3564.00,0.0015
3563.00,0.0015
3562.00,0.0015
3561.00,0.0015
3560.00,0.0015
3559.00,0.0015
3558.00,0.0016
3557.00,0.0016
3556.00,0.0017
3555.00,0.0016
3554.00,0.0016
3553.00,0.0016
3552.00,0.0016
3551.00,0.0016
3550.00,0.0017
3549.00,0.0018
3548.00,0.0018
3547.00,0.0018
3546.00,0.0019
3545.00,0.0019
3544.00,0.0019
3543.00,0.0019
3542.00,0.0019
3541.00,0.0019
3540.00,0.0019
3539.00,0.0019
3538.00,0.0019
3537.00,0.0020
3536.00,0.0020
3535.00,0.0020
3534.00,0.0020
3533.00,0.0021
3532.00,0.0021
3531.00,0.0021
3530.00,0.0021
3529.00,0.0021
3528.00,0.0022
3527.00,0.0022
3526.00,0.0022
3525.00,0.0022
3524.00,0.0022
3523.00,0.0023
3522.00,0.0023
3521.00,0.0023
3520.00,0.0024
3519.00,0.0024
3518.00,0.0024
3517.00,0.0025
3516.00,0.0025
3515.00,0.0025
3514.00,0.0025
3513.00,0.0025
3512.00,0.0026
3511.00,0.0026
3510.00,0.0026
3509.00,0.0026
3508.00,0.0026
3507.00,0.0026
3506.00,0.0026
3505.00,0.0026
3504.00,0.0026
3503.00,0.0027
3502.00,0.0027
3501.00,0.0027
3500.00,0.0028
3499.00,0.0028
3498.00,0.0028
3497.00,0.0028
3496.00,0.0028
3495.00,0.0029
3494.00,0.0029
3493.00,0.0029
3492.00,0.0030
3491.00,0.0030
3490.00,0.0030
3489.00,0.0030
3488.00,0.0030
3487.00,0.0031
3486.00,0.0031
3485.00,0.0031
3484.00,0.0031
3483.00,0.0031
3482.00,0.0031
3481.00,0.0031
3480.00,0.0031
3479.00,0.0032
3478.00,0.0033
3477.00,0.0033
3476.00,0.0034
3475.00,0.0034
3474.00,0.0034
3473.00,0.0034
3472.00,0.0034
3471.00,0.0034
3470.00,0.0034
3469.00,0.0034
3468.00,0.0034
3467.00,0.0034
3466.00,0.0034
3465.00,0.0034
3464.00,0.0034
3463.00,0.0035
3462.00,0.0035
3461.00,0.0036
3460.00,0.0036
3459.00,0.0037
3458.00,0.0037
3457.00,0.0037
3456.00,0.0037
3455.00,0.0037
3454.00,0.0037
3453.00,0.0037
3452.00,0.0038
3451.00,0.0038
3450.00,0.0038
3449.00,0.0038
3448.00,0.0038
3447.00,0.0038
3446.00,0.0038
3445.00,0.0038
3444.00,0.0038
3443.00,0.0039
3442.00,0.0039
3441.00,0.0040
3440.00,0.0040
3439.00,0.0041
3438.00,0.0041
3437.00,0.0042
3436.00,0.0042
3435.00,0.0042
3434.00,0.0041
3433.00,0.0041
3432.00,0.0041
3431.00,0.0042
3430.00,0.0042
3429.00,0.0042
3428.00,0.0043
3427.00,0.0043
3426.00,0.0043
3425.00,0.0043
3424.00,0.0043
3423.00,0.0043
3422.00,0.0043
3421.00,0.0044
3420.00,0.0044
3419.00,0.0044
3418.00,0.0044
3417.00,0.0045
3416.00,0.0045
3415.00,0.0046
3414.00,0.0046
3413.00,0.0046
3412.00,0.0047
3411.00,0.0047
3410.00,0.0047
3409.00,0.0047
3408.00,0.0047
3407.00,0.0048
3406.00,0.0048
3405.00,0.0049
3404.00,0.0050
3403.00,0.0050
3402.00,0.0050
3401.00,0.0051
3400.00,0.0051
3399.00,0.0051
3398.00,0.0052
3397.00,0.0052
3396.00,0.0052
3395.00,0.0053
3394.00,0.0052
3393.00,0.0052
3392.00,0.0051
3391.00,0.0050
3390.00,0.0050
3389.00,0.0050
3388.00,0.0050
3387.00,0.0050
3386.00,0.0050
3385.00,0.0050
3384.00,0.0050
3383.00,0.0050
3382.00,0.0050
3381.00,0.0050
3380.00,0.0050
3379.00,0.0050
3378.00,0.0050
3377.00,0.0051
3376.00,0.0050
3375.00,0.0050
3374.00,0.0049
3373.00,0.0049
3372.00,0.0049
3371.00,0.0049
3370.00,0.0049
3369.00,0.0049
3368.00,0.0049
3367.00,0.0048
3366.00,0.0048
3365.00,0.0048
3364.00,0.0048
3363.00,0.0048
3362.00,0.0048
3361.00,0.0048
3360.00,0.0048
3359.00,0.0049
3358.00,0.0049
3357.00,0.0049
3356.00,0.0049
3355.00,0.0049
3354.00,0.0049
3353.00,0.0049
3352.00,0.0049
3351.00,0.0049
3350.00,0.0049
3349.00,0.0049
3348.00,0.0049
3347.00,0.0048
3346.00,0.0047
3345.00,0.0047
3344.00,0.0047
3343.00,0.0047
3342.00,0.0048
3341.00,0.0048
3340.00,0.0048
3339.00,0.0048
3338.00,0.0048
3337.00,0.0048
3336.00,0.0048
3335.00,0.0048
3334.00,0.0047
3333.00,0.0047
3332.00,0.0047
3331.00,0.0047
3330.00,0.0047
3329.00,0.0047
3328.00,0.0047
3327.00,0.0047
3326.00,0.0047
3325.00,0.0047
3324.00,0.0046
3323.00,0.0046
3322.00,0.0046
3321.00,0.0046
3320.00,0.0047
3319.00,0.0047
3318.00,0.0047
3317.00,0.0047
3316.00,0.0047
3315.00,0.0046
3314.00,0.0046
3313.00,0.0046
3312.00,0.0046
3311.00,0.0047
3310.00,0.0047
3309.00,0.0047
3308.00,0.0046
3307.00,0.0046
3306.00,0.0047
3305.00,0.0047
3304.00,0.0047
3303.00,0.0047
3302.00,0.0047
3301.00,0.0047
3300.00,0.0047
3299.00,0.0047
3298.00,0.0047
3297.00,0.0046
3296.00,0.0046
3295.00,0.0046
3294.00,0.0046
3293.00,0.0045
3292.00,0.0045
3291.00,0.0045
3290.00,0.0044
3289.00,0.0044
3288.00,0.0045
3287.00,0.0044
3286.00,0.0044
3285.00,0.0044
3284.00,0.0044
3283.00,0.0044
3282.00,0.0044
3281.00,0.0043
3280.00,0.0043
3279.00,0.0042
3278.00,0.0042
3277.00,0.0042
3276.00,0.0042
3275.00,0.0042
3274.00,0.0042
3273.00,0.0042
3272.00,0.0041
3271.00,0.0041
3270.00,0.0040
3269.00,0.0040
3268.00,0.0040
3267.00,0.0040
3266.00,0.0040
3265.00,0.0040
3264.00,0.0040
3263.00,0.0040
3262.00,0.0040
3261.00,0.0040
3260.00,0.0040
3259.00,0.0039
3258.00,0.0039
3257.00,0.0038
3256.00,0.0038
3255.00,0.0038
3254.00,0.0038
3253.00,0.0038
3252.00,0.0038
3251.00,0.0038
3250.00,0.0038
3249.00,0.0038
3248.00,0.0038
3247.00,0.0038
3246.00,0.0038
3245.00,0.0038
3244.00,0.0037
3243.00,0.0037
3242.00,0.0037
3241.00,0.0037
3240.00,0.0037
3239.00,0.0037
3238.00,0.0037
3237.00,0.0037
3236.00,0.0037
3235.00,0.0037
3234.00,0.0037
3233.00,0.0037
3232.00,0.0038
3231.00,0.0038
3230.00,0.0039
3229.00,0.0039
3228.00,0.0038
3227.00,0.0038
3226.00,0.0038
3225.00,0.0038
3224.00,0.0038
3223.00,0.0038
3222.00,0.0038
3221.00,0.0038
3220.00,0.0038
3219.00,0.0039
3218.00,0.0039
3217.00,0.0039
3216.00,0.0040
3215.00,0.0040
3214.00,0.0040
3213.00,0.0040
3212.00,0.0040
3211.00,0.0040
3210.00,0.0041
3209.00,0.0041
3208.00,0.0041
3207.00,0.0042
3206.00,0.0042
3205.00,0.0042
3204.00,0.0042
3203.00,0.0042
3202.00,0.0042
3201.00,0.0043
3200.00,0.0043
3199.00,0.0043
3198.00,0.0043
3197.00,0.0043
3196.00,0.0044
3195.00,0.0044
3194.00,0.0044
3193.00,0.0044
3192.00,0.0043
3191.00,0.0043
3190.00,0.0042
3189.00,0.0042
3188.00,0.0042
3187.00,0.0042
3186.00,0.0042
3185.00,0.0042
3184.00,0.0041
3183.00,0.0041
3182.00,0.0040
3181.00,0.0040
3180.00,0.0039
3179.00,0.0039
3178.00,0.0039
3177.00,0.0039
3176.00,0.0039
3175.00,0.0039
3174.00,0.0039
3173.00,0.0039
3172.00,0.0039
3171.00,0.0039
3170.00,0.0038
3169.00,0.0038
3168.00,0.0038
3167.00,0.0038
3166.00,0.0038
3165.00,0.0038
3164.00,0.0038
3163.00,0.0038
3162.00,0.0037
3161.00,0.0037
3160.00,0.0037
3159.00,0.0036
3158.00,0.0036
3157.00,0.0035
3156.00,0.0035
3155.00,0.0035
3154.00,0.0035
3153.00,0.0036
3152.00,0.0036
3151.00,0.0036
3150.00,0.0036
3149.00,0.0036
3148.00,0.0035
3147.00,0.0035
3146.00,0.0035
3145.00,0.0035
3144.00,0.0035
3143.00,0.0035
3142.00,0.0035
3141.00,0.0034
3140.00,0.0034
3139.00,0.0034
3138.00,0.0034
3137.00,0.0033
3136.00,0.0033
3135.00,0.0033
3134.00,0.0033
3133.00,0.0033
3132.00,0.0033
3131.00,0.0032
3130.00,0.0032
3129.00,0.0032
3128.00,0.0032
3127.00,0.0032
3126.00,0.0032
3125.00,0.0032
3124.00,0.0032
3123.00,0.0031
3122.00,0.0031
3121.00,0.0030
3120.00,0.0030
3119.00,0.0030
3118.00,0.0030
3117.00,0.0029
3116.00,0.0029
3115.00,0.0029
3114.00,0.0029
3113.00,0.0029
3112.00,0.0029
3111.00,0.0029
3110.00,0.0029
3109.00,0.0029
3108.00,0.0029
3107.00,0.0028
3106.00,0.0028
3105.00,0.0028
3104.00,0.0028
3103.00,0.0027
3102.00,0.0027
3101.00,0.0027
3100.00,0.0027
3099.00,0.0027
3098.00,0.0027
3097.00,0.0027
3096.00,0.0027
3095.00,0.0027
3094.00,0.0027
3093.00,0.0027
3092.00,0.0026
3091.00,0.0026
3090.00,0.0026
3089.00,0.0026
3088.00,0.0026
3087.00,0.0026
3086.00,0.0026
3085.00,0.0025
3084.00,0.0025
3083.00,0.0025
3082.00,0.0026
3081.00,0.0026
3080.00,0.0026
3079.00,0.0027
3078.00,0.0027
3077.00,0.0027
3076.00,0.0027
3075.00,0.0027
3074.00,0.0027
3073.00,0.0028
3072.00,0.0028
3071.00,0.0028
3070.00,0.0028
3069.00,0.0028
3068.00,0.0028
3067.00,0.0029
3066.00,0.0029
3065.00,0.0029
3064.00,0.0029
3063.00,0.0029
3062.00,0.0029
3061.00,0.0029
3060.00,0.0029
3059.00,0.0029
3058.00,0.0029
3057.00,0.0030
3056.00,0.0030
3055.00,0.0030
3054.00,0.0030
3053.00,0.0030
3052.00,0.0030
3051.00,0.0031
3050.00,0.0031
3049.00,0.0031
3048.00,0.0031
3047.00,0.0032
3046.00,0.0032
3045.00,0.0032
3044.00,0.0032
3043.00,0.0032
3042.00,0.0032
3041.00,0.0033
3040.00,0.0033
3039.00,0.0034
3038.00,0.0034
3037.00,0.0034
3036.00,0.0035
3035.00,0.0035
3034.00,0.0035
3033.00,0.0035
3032.00,0.0036
3031.00,0.0036
3030.00,0.0037
3029.00,0.0037
3028.00,0.0037
3027.00,0.0038
3026.00,0.0039
3025.00,0.0039
3024.00,0.0040
3023.00,0.0041
3022.00,0.0042
3021.00,0.0042
3020.00,0.0043
3019.00,0.0043
3018.00,0.0044
3017.00,0.0045
3016.00,0.0046
3015.00,0.0048
3014.00,0.0049
3013.00,0.0050
3012.00,0.0051
3011.00,0.0052
3010.00,0.0053
3009.00,0.0054
3008.00,0.0055
3007.00,0.0057
3006.00,0.0058
3005.00,0.0060
3004.00,0.0062
3003.00,0.0064
3002.00,0.0066
3001.00,0.0068
3000.00,0.0070
2999.00,0.0073
2998.00,0.0076
2997.00,0.0079
2996.00,0.0083
2995.00,0.0086
2994.00,0.0091
2993.00,0.0095
2992.00,0.0100
2991.00,0.0105
2990.00,0.0111
2989.00,0.0117
2988.00,0.0123
2987.00,0.0131
2986.00,0.0140
2985.00,0.0150
2984.00,0.0161
2983.00,0.0173
2982.00,0.0187
2981.00,0.0203
2980.00,0.0220
2979.00,0.0240
2978.00,0.0263
2977.00,0.0290
2976.00,0.0319
2975.00,0.0353
2974.00,0.0392
2973.00,0.0436
2972.00,0.0486
2971.00,0.0542
2970.00,0.0604
2969.00,0.0672
2968.00,0.0745
2967.00,0.0823
2966.00,0.0903
2965.00,0.0984
2964.00,0.1062
2963.00,0.1134
2962.00,0.1197
2961.00,0.1251
2960.00,0.1296
2959.00,0.1338
2958.00,0.1381
2957.00,0.1429
2956.00,0.1488
2955.00,0.1558
2954.00,0.1638
2953.00,0.1721
2952.00,0.1797
2951.00,0.1854
2950.00,0.1881
2949.00,0.1868
2948.00,0.1812
2947.00,0.1720
2946.00,0.1603
2945.00,0.1476
2944.00,0.1354
2943.00,0.1249
2942.00,0.1167
2941.00,0.1112
2940.00,0.1081
2939.00,0.1073
2938.00,0.1086
2937.00,0.1117
2936.00,0.1165
2935.00,0.1228
2934.00,0.1305
2933.00,0.1396
2932.00,0.1498
2931.00,0.1609
2930.00,0.1728
2929.00,0.1851
2928.00,0.1974
2927.00,0.2096
2926.00,0.2215
2925.00,0.2330
2924.00,0.2442
2923.00,0.2553
2922.00,0.2664
2921.00,0.2771
2920.00,0.2868
2919.00,0.2943
2918.00,0.2985
2917.00,0.2983
2916.00,0.2935
2915.00,0.2848
2914.00,0.2734
2913.00,0.2607
2912.00,0.2479
2911.00,0.2359
2910.00,0.2250
2909.00,0.2153
2908.00,0.2064
2907.00,0.1981
2906.00,0.1901
2905.00,0.1823
2904.00,0.1747
2903.00,0.1672
2902.00,0.1600
2901.00,0.1532
2900.00,0.1466
2899.00,0.1404
2898.00,0.1346
2897.00,0.1293
2896.00,0.1246
2895.00,0.1204
2894.00,0.1168
2893.00,0.1139
2892.00,0.1117
2891.00,0.1100
2890.00,0.1089
2889.00,0.1082
2888.00,0.1080
2887.00,0.1080
2886.00,0.1085
2885.00,0.1093
2884.00,0.1107
2883.00,0.1125
2882.00,0.1149
2881.00,0.1176
2880.00,0.1204
2879.00,0.1229
2878.00,0.1246
2877.00,0.1254
2876.00,0.1252
2875.00,0.1245
2874.00,0.1238
2873.00,0.1236
2872.00,0.1241
2871.00,0.1255
2870.00,0.1273
2869.00,0.1293
2868.00,0.1306
2867.00,0.1304
2866.00,0.1281
2865.00,0.1235
2864.00,0.1168
2863.00,0.1090
2862.00,0.1012
2861.00,0.0943
2860.00,0.0889
2859.00,0.0851
2858.00,0.0829
2857.00,0.0821
2856.00,0.0823
2855.00,0.0834
2854.00,0.0850
2853.00,0.0869
2852.00,0.0889
2851.00,0.0905
2850.00,0.0916
2849.00,0.0921
2848.00,0.0924
2847.00,0.0930
2846.00,0.0945
2845.00,0.0971
2844.00,0.1009
2843.00,0.1057
2842.00,0.1109
2841.00,0.1160
2840.00,0.1202
2839.00,0.1227
2838.00,0.1226
2837.00,0.1195
2836.00,0.1133
2835.00,0.1046
2834.00,0.0943
2833.00,0.0834
2832.00,0.0730
2831.00,0.0638
2830.00,0.0559
2829.00,0.0494
2828.00,0.0441
2827.00,0.0398
2826.00,0.0364
2825.00,0.0335
2824.00,0.0311
2823.00,0.0291
2822.00,0.0274
2821.00,0.0260
2820.00,0.0247
2819.00,0.0236
2818.00,0.0226
2817.00,0.0218
2816.00,0.0211
2815.00,0.0204
2814.00,0.0198
2813.00,0.0192
2812.00,0.0186
2811.00,0.0180
2810.00,0.0175
2809.00,0.0169
2808.00,0.0163
2807.00,0.0156
2806.00,0.0149
2805.00,0.0142
2804.00,0.0135
2803.00,0.0129
2802.00,0.0124
2801.00,0.0119
2800.00,0.0115
2799.00,0.0112
2798.00,0.0110
2797.00,0.0107
2796.00,0.0105
2795.00,0.0102
2794.00,0.0099
2793.00,0.0097
2792.00,0.0094
2791.00,0.0091
2790.00,0.0088
2789.00,0.0085
2788.00,0.0082
2787.00,0.0080
2786.00,0.0077
2785.00,0.0074
2784.00,0.0072
2783.00,0.0069
2782.00,0.0068
2781.00,0.0066
2780.00,0.0065
2779.00,0.0063
2778.00,0.0062
2777.00,0.0060
2776.00,0.0059
2775.00,0.0058
2774.00,0.0057
2773.00,0.0056
2772.00,0.0056
2771.00,0.0055
2770.00,0.0055
2769.00,0.0055
2768.00,0.0055
2767.00,0.0054
2766.00,0.0054
2765.00,0.0053
2764.00,0.0053
2763.00,0.0052
2762.00,0.0052
2761.00,0.0051
2760.00,0.0051
2759.00,0.0050
2758.00,0.0050
2757.00,0.0051
2756.00,0.0051
2755.00,0.0051
2754.00,0.0051
2753.00,0.0051
2752.00,0.0050
2751.00,0.0050
2750.00,0.0049
2749.00,0.0049
2748.00,0.0049
2747.00,0.0049
2746.00,0.0050
2745.00,0.0051
2744.00,0.0052
2743.00,0.0052
2742.00,0.0053
2741.00,0.0055
2740.00,0.0056
2739.00,0.0057
2738.00,0.0058
2737.00,0.0059
2736.00,0.0060
2735.00,0.0062
2734.00,0.0064
2733.00,0.0066
2732.00,0.0068
2731.00,0.0070
2730.00,0.0072
2729.00,0.0075
2728.00,0.0077
2727.00,0.0080
2726.00,0.0083
2725.00,0.0085
2724.00,0.0087
2723.00,0.0087
2722.00,0.0086
2721.00,0.0084
2720.00,0.0081
2719.00,0.0078
2718.00,0.0075
2717.00,0.0072
2716.00,0.0069
2715.00,0.0066
2714.00,0.0063
2713.00,0.0061
2712.00,0.0059
2711.00,0.0057
2710.00,0.0055
2709.00,0.0053
2708.00,0.0052
2707.00,0.0050
2706.00,0.0049
2705.00,0.0049
2704.00,0.0048
2703.00,0.0047
2702.00,0.0046
2701.00,0.0045
2700.00,0.0044
2699.00,0.0043
2698.00,0.0043
2697.00,0.0043
2696.00,0.0043
2695.00,0.0043
2694.00,0.0043
2693.00,0.0043
2692.00,0.0043
2691.00,0.0043
2690.00,0.0043
2689.00,0.0043
2688.00,0.0043
2687.00,0.0043
2686.00,0.0043
2685.00,0.0044
2684.00,0.0044
2683.00,0.0044
2682.00,0.0044
2681.00,0.0044
2680.00,0.0044
2679.00,0.0044
2678.00,0.0044
2677.00,0.0044
2676.00,0.0044
2675.00,0.0044
2674.00,0.0043
2673.00,0.0043
2672.00,0.0043
2671.00,0.0043
2670.00,0.0043
2669.00,0.0043
2668.00,0.0043
2667.00,0.0043
2666.00,0.0043
2665.00,0.0044
2664.00,0.0045
2663.00,0.0046
2662.00,0.0046
2661.00,0.0046
2660.00,0.0047
2659.00,0.0047
2658.00,0.0047
2657.00,0.0047
2656.00,0.0046
2655.00,0.0046
2654.00,0.0045
2653.00,0.0044
2652.00,0.0044
2651.00,0.0044
2650.00,0.0043
2649.00,0.0043
2648.00,0.0042
2647.00,0.0042
2646.00,0.0041
2645.00,0.0041
2644.00,0.0041
2643.00,0.0040
2642.00,0.0039
2641.00,0.0039
2640.00,0.0039
2639.00,0.0038
2638.00,0.0038
2637.00,0.0038
2636.00,0.0038
2635.00,0.0038
2634.00,0.0038
2633.00,0.0038
2632.00,0.0037
2631.00,0.0037
2630.00,0.0037
2629.00,0.0037
2628.00,0.0037
2627.00,0.0037
2626.00,0.0038
2625.00,0.0038
2624.00,0.0038
2623.00,0.0039
2622.00,0.0039
2621.00,0.0039
2620.00,0.0039
2619.00,0.0039
2618.00,0.0039
2617.00,0.0039
2616.00,0.0039
2615.00,0.0039
2614.00,0.0039
2613.00,0.0039
2612.00,0.0039
2611.00,0.0038
2610.00,0.0037
2609.00,0.0035
2608.00,0.0035
2607.00,0.0034
2606.00,0.0033
2605.00,0.0032
2604.00,0.0032
2603.00,0.0031
2602.00,0.0031
2601.00,0.0030
2600.00,0.0030
2599.00,0.0030
2598.00,0.0030
2597.00,0.0031
2596.00,0.0031
2595.00,0.0032
2594.00,0.0032
2593.00,0.0032
2592.00,0.0033
2591.00,0.0033
2590.00,0.0034
2589.00,0.0035
2588.00,0.0036
2587.00,0.0037
2586.00,0.0037
2585.00,0.0038
2584.00,0.0038
2583.00,0.0038
2582.00,0.0039
2581.00,0.0038
2580.00,0.0038
2579.00,0.0037
2578.00,0.0035
2577.00,0.0034
2576.00,0.0034
2575.00,0.0033
2574.00,0.0032
2573.00,0.0030
2572.00,0.0029
2571.00,0.0028
2570.00,0.0027
2569.00,0.0026
2568.00,0.0026
2567.00,0.0025
2566.00,0.0025
2565.00,0.0024
2564.00,0.0024
2563.00,0.0023
2562.00,0.0022
2561.00,0.0022
2560.00,0.0021
2559.00,0.0022
2558.00,0.0022
2557.00,0.0023
2556.00,0.0024
2555.00,0.0024
2554.00,0.0023
2553.00,0.0023
2552.00,0.0022
2551.00,0.0021
2550.00,0.0020
2549.00,0.0019
2548.00,0.0018
2547.00,0.0018
2546.00,0.0018
2545.00,0.0017
2544.00,0.0017
2543.00,0.0016
2542.00,0.0016
2541.00,0.0016
2540.00,0.0016
2539.00,0.0016
2538.00,0.0016
2537.00,0.0015
2536.00,0.0015
2535.00,0.0015
2534.00,0.0015
2533.00,0.0015
2532.00,0.0015
2531.00,0.0015
2530.00,0.0015
2529.00,0.0014
2528.00,0.0013
2527.00,0.0013
2526.00,0.0013
2525.00,0.0013
2524.00,0.0014
2523.00,0.0014
2522.00,0.0014
2521.00,0.0014
2520.00,0.0013
2519.00,0.0012
2518.00,0.0011
2517.00,0.0010
2516.00,0.0010
2515.00,0.0010
2514.00,0.0011
2513.00,0.0010
2512.00,0.0010
2511.00,0.0010
2510.00,0.0010
2509.00,0.0010
2508.00,0.0010
2507.00,0.0009
2506.00,0.0009
2505.00,0.0008
2504.00,0.0008
2503.00,0.0008
2502.00,0.0008
2501.00,0.0008
2500.00,0.0008
2499.00,0.0008
2498.00,0.0009
2497.00,0.0010
2496.00,0.0010
2495.00,0.0009
2494.00,0.0009
2493.00,0.0009
2492.00,0.0008
2491.00,0.0008
2490.00,0.0009
2489.00,0.0009
2488.00,0.0009
2487.00,0.0009
2486.00,0.0009
2485.00,0.0009
2484.00,0.0008
2483.00,0.0007
2482.00,0.0007
2481.00,0.0007
2480.00,0.0008
2479.00,0.0008
2478.00,0.0008
2477.00,0.0008
2476.00,0.0008
2475.00,0.0008
2474.00,0.0008
2473.00,0.0007
2472.00,0.0007
2471.00,0.0007
2470.00,0.0007
2469.00,0.0007
2468.00,0.0008
2467.00,0.0008
2466.00,0.0009
2465.00,0.0009
2464.00,0.0009
2463.00,0.0010
2462.00,0.0010
2461.00,0.0011
2460.00,0.0011
2459.00,0.0010
2458.00,0.0010
2457.00,0.0010
2456.00,0.0010
2455.00,0.0010
2454.00,0.0010
2453.00,0.0009
2452.00,0.0009
2451.00,0.0009
2450.00,0.0009
2449.00,0.0009
2448.00,0.0009
2447.00,0.0009
2446.00,0.0008
2445.00,0.0008
2444.00,0.0008
2443.00,0.0009
2442.00,0.0009
2441.00,0.0009
2440.00,0.0009
2439.00,0.0009
2438.00,0.0009
2437.00,0.0009
2436.00,0.0010
2435.00,0.0010
2434.00,0.0010
2433.00,0.0011
2432.00,0.0011
2431.00,0.0012
2430.00,0.0012
2429.00,0.0013
2428.00,0.0013
2427.00,0.0013
2426.00,0.0012
2425.00,0.0012
2424.00,0.0011
2423.00,0.0011
2422.00,0.0010
2421.00,0.0009
2420.00,0.0009
2419.00,0.0009
2418.00,0.0009
2417.00,0.0010
2416.00,0.0010
2415.00,0.0010
2414.00,0.0009
2413.00,0.0009
2412.00,0.0008
2411.00,0.0008
2410.00,0.0008
2409.00,0.0008
2408.00,0.0008
2407.00,0.0007
2406.00,0.0006
2405.00,0.0006
2404.00,0.0006
2403.00,0.0006
2402.00,0.0006
2401.00,0.0006
2400.00,0.0006
2399.00,0.0006
2398.00,0.0006
2397.00,0.0006
2396.00,0.0007
2395.00,0.0007
2394.00,0.0008
2393.00,0.0008
2392.00,0.0008
2391.00,0.0008
2390.00,0.0007
2389.00,0.0007
2388.00,0.0006
2387.00,0.0006
2386.00,0.0005
2385.00,0.0005
2384.00,0.0005
2383.00,0.0004
2382.00,0.0004
2381.00,0.0003
2380.00,0.0003
2379.00,0.0002
2378.00,0.0002
2377.00,0.0001
2376.00,0.0001
2375.00,0.0001
2374.00,0.0001
2373.00,0.0001
2372.00,0.0002
2371.00,0.0002
2370.00,0.0002
2369.00,0.0003
2368.00,0.0003
2367.00,0.0003
2366.00,0.0004
2365.00,0.0005
2364.00,0.0005
2363.00,0.0005
2362.00,0.0004
2361.00,0.0004
2360.00,0.0003
2359.00,0.0003
2358.00,0.0004
2357.00,0.0004
2356.00,0.0004
2355.00,0.0004
2354.00,0.0004
2353.00,0.0004
2352.00,0.0005
2351.00,0.0005
2350.00,0.0005
2349.00,0.0005
2348.00,0.0006
2347.00,0.0007
2346.00,0.0008
2345.00,0.0008
2344.00,0.0007
2343.00,0.0007
2342.00,0.0007
2341.00,0.0007
2340.00,0.0008
2339.00,0.0008
2338.00,0.0007
2337.00,0.0007
2336.00,0.0007
2335.00,0.0007
2334.00,0.0007
2333.00,0.0007
2332.00,0.0007
2331.00,0.0006
2330.00,0.0006
2329.00,0.0007
2328.00,0.0009
2327.00,0.0012
2326.00,0.0016
2325.00,0.0020
2324.00,0.0021
2323.00,0.0020
2322.00,0.0018
2321.00,0.0016
2320.00,0.0014
2319.00,0.0013
2318.00,0.0013
2317.00,0.0012
2316.00,0.0012
2315.00,0.0012
2314.00,0.0011
2313.00,0.0010
2312.00,0.0009
2311.00,0.0009
2310.00,0.0008
2309.00,0.0009
2308.00,0.0010
2307.00,0.0011
2306.00,0.0011
2305.00,0.0012
2304.00,0.0012
2303.00,0.0012
2302.00,0.0011
2301.00,0.0011
2300.00,0.0010
2299.00,0.0010
2298.00,0.0011
2297.00,0.0011
2296.00,0.0012
2295.00,0.0012
2294.00,0.0013
2293.00,0.0014
2292.00,0.0015
2291.00,0.0016
2290.00,0.0017
2289.00,0.0017
2288.00,0.0018
2287.00,0.0018
2286.00,0.0018
2285.00,0.0018
2284.00,0.0018
2283.00,0.0017
2282.00,0.0015
2281.00,0.0014
2280.00,0.0013
2279.00,0.0013
2278.00,0.0013
2277.00,0.0013
2276.00,0.0013
2275.00,0.0013
2274.00,0.0013
2273.00,0.0013
2272.00,0.0013
2271.00,0.0013
2270.00,0.0013
2269.00,0.0012
2268.00,0.0012
2267.00,0.0012
2266.00,0.0012
2265.00,0.0011
2264.00,0.0011
2263.00,0.0012
2262.00,0.0012
2261.00,0.0013
2260.00,0.0013
2259.00,0.0012
2258.00,0.0012
2257.00,0.0011
2256.00,0.0009
2255.00,0.0008
2254.00,0.0007
2253.00,0.0007
2252.00,0.0007
2251.00,0.0006
2250.00,0.0006
2249.00,0.0005
2248.00,0.0006
2247.00,0.0007
2246.00,0.0008
2245.00,0.0008
2244.00,0.0009
2243.00,0.0009
2242.00,0.0009
2241.00,0.0009
2240.00,0.0009
2239.00,0.0010
2238.00,0.0010
2237.00,0.0010
2236.00,0.0009
2235.00,0.0009
2234.00,0.0009
2233.00,0.0009
2232.00,0.0009
2231.00,0.0009
2230.00,0.0009
2229.00,0.0008
2228.00,0.0007
2227.00,0.0005
2226.00,0.0004
2225.00,0.0004
2224.00,0.0004
2223.00,0.0004
2222.00,0.0004
2221.00,0.0004
2220.00,0.0004
2219.00,0.0003
2218.00,0.0003
2217.00,0.0003
2216.00,0.0004
2215.00,0.0006
2214.00,0.0007
2213.00,0.0007
2212.00,0.0006
2211.00,0.0004
2210.00,0.0003
2209.00,0.0002
2208.00,0.0002
2207.00,0.0002
2206.00,0.0004
2205.00,0.0006
2204.00,0.0008
2203.00,0.0009
2202.00,0.0009
2201.00,0.0010
2200.00,0.0009
2199.00,0.0008
2198.00,0.0007
2197.00,0.0007
2196.00,0.0008
2195.00,0.0010
2194.00,0.0011
2193.00,0.0010
2192.00,0.0009
2191.00,0.0008
2190.00,0.0006
2189.00,0.0005
2188.00,0.0005
2187.00,0.0007
2186.00,0.0010
2185.00,0.0011
2184.00,0.0011
2183.00,0.0007
2182.00,0.0003
2181.00,-0.0001
2180.00,-0.0002
2179.00,-0.0002
2178.00,-0.0001
2177.00,-0.0000
2176.00,-0.0000
2175.00,0.0000
2174.00,0.0002
2173.00,0.0004
2172.00,0.0007
2171.00,0.0010
2170.00,0.0013
2169.00,0.0018
2168.00,0.0022
2167.00,0.0024
2166.00,0.0025
2165.00,0.0026
2164.00,0.0026
2163.00,0.0026
2162.00,0.0024
2161.00,0.0018
2160.00,0.0006
2159.00,-0.0012
2158.00,-0.0027
2157.00,-0.0034
2156.00,-0.0033
2155.00,-0.0027
2154.00,-0.0021
2153.00,-0.0017
2152.00,-0.0015
2151.00,-0.0015
2150.00,-0.0017
2149.00,-0.0018
2148.00,-0.0018
2147.00,-0.0018
2146.00,-0.0017
2145.00,-0.0016
2144.00,-0.0015
2143.00,-0.0013
2142.00,-0.0012
2141.00,-0.0011
2140.00,-0.0010
2139.00,-0.0010
2138.00,-0.0010
2137.00,-0.0012
2136.00,-0.0015
2135.00,-0.0019
2134.00,-0.0021
2133.00,-0.0021
2132.00,-0.0019
2131.00,-0.0017
2130.00,-0.0015
2129.00,-0.0012
2128.00,-0.0010
2127.00,-0.0009
2126.00,-0.0009
2125.00,-0.0008
2124.00,-0.0006
2123.00,-0.0005
2122.00,-0.0005
2121.00,-0.0005
2120.00,-0.0005
2119.00,-0.0005
2118.00,-0.0005
2117.00,-0.0003
2116.00,-0.0002
2115.00,-0.0000
2114.00,0.0001
2113.00,0.0002
2112.00,0.0002
2111.00,0.0001
2110.00,0.0001
2109.00,-0.0000
2108.00,-0.0002
2107.00,-0.0003
2106.00,-0.0003
2105.00,-0.0002
2104.00,0.0000
2103.00,0.0001
2102.00,0.0002
2101.00,0.0002
2100.00,0.0002
2099.00,0.0000
2098.00,-0.0001
2097.00,-0.0003
2096.00,-0.0005
2095.00,-0.0007
2094.00,-0.0008
2093.00,-0.0007
2092.00,-0.0005
2091.00,-0.0003
2090.00,-0.0001
2089.00,0.0001
2088.00,0.0002
2087.00,0.0002
2086.00,0.0001
2085.00,0.0000
2084.00,-0.0000
2083.00,-0.0001
2082.00,-0.0000
2081.00,0.0001
2080.00,0.0001
2079.00,0.0001
2078.00,-0.0000
2077.00,-0.0001
2076.00,-0.0002
2075.00,-0.0003
2074.00,-0.0003
2073.00,-0.0003
2072.00,-0.0002
2071.00,-0.0001
2070.00,0.0000
2069.00,0.0000
2068.00,-0.0001
2067.00,-0.0003
2066.00,-0.0004
2065.00,-0.0004
2064.00,-0.0002
2063.00,-0.0002
2062.00,-0.0001
2061.00,0.0000
2060.00,0.0001
2059.00,0.0002
2058.00,0.0003
2057.00,0.0004
2056.00,0.0004
2055.00,0.0004
2054.00,0.0004
2053.00,0.0005
2052.00,0.0007
2051.00,0.0007
2050.00,0.0005
2049.00,0.0002
2048.00,-0.0001
2047.00,-0.0004
2046.00,-0.0006
2045.00,-0.0007
2044.00,-0.0007
2043.00,-0.0005
2042.00,-0.0002
2041.00,0.0002
2040.00,0.0004
2039.00,0.0002
2038.00,-0.0002
2037.00,-0.0005
2036.00,-0.0005
2035.00,-0.0004
2034.00,-0.0002
2033.00,-0.0001
2032.00,-0.0002
2031.00,-0.0004
2030.00,-0.0008
2029.00,-0.0010
2028.00,-0.0011
2027.00,-0.0010
2026.00,-0.0009
2025.00,-0.0008
2024.00,-0.0007
2023.00,-0.0008
2022.00,-0.0009
2021.00,-0.0011
2020.00,-0.0012
2019.00,-0.0013
2018.00,-0.0013
2017.00,-0.0012
2016.00,-0.0011
2015.00,-0.0010
2014.00,-0.0010
2013.00,-0.0011
2012.00,-0.0011
2011.00,-0.0011
2010.00,-0.0013
2009.00,-0.0015
2008.00,-0.0017
2007.00,-0.0018
2006.00,-0.0019
2005.00,-0.0018
2004.00,-0.0018
2003.00,-0.0019
2002.00,-0.0019
2001.00,-0.0018
2000.00,-0.0015
1999.00,-0.0012
1998.00,-0.0011
1997.00,-0.0010
1996.00,-0.0011
1995.00,-0.0013
1994.00,-0.0013
1993.00,-0.0012
1992.00,-0.0010
1991.00,-0.0007
1990.00,-0.0005
1989.00,-0.0003
1988.00,-0.0003
1987.00,-0.0004
1986.00,-0.0005
1985.00,-0.0006
1984.00,-0.0006
1983.00,-0.0004
1982.00,-0.0000
1981.00,0.0004
1980.00,0.0006
1979.00,0.0005
1978.00,0.0001
1977.00,-0.0006
1976.00,-0.0012
1975.00,-0.0015
1974.00,-0.0015
1973.00,-0.0013
1972.00,-0.0010
1971.00,-0.0008
1970.00,-0.0009
1969.00,-0.0010
1968.00,-0.0012
1967.00,-0.0012
1966.00,-0.0012
1965.00,-0.0011
1964.00,-0.0012
1963.00,-0.0015
1962.00,-0.0018
1961.00,-0.0020
1960.00,-0.0020
1959.00,-0.0020
1958.00,-0.0021
1957.00,-0.0021
1956.00,-0.0020
1955.00,-0.0019
1954.00,-0.0018
1953.00,-0.0017
1952.00,-0.0017
1951.00,-0.0016
1950.00,-0.0016
1949.00,-0.0016
1948.00,-0.0016
1947.00,-0.0018
1946.00,-0.0020
1945.00,-0.0021
1944.00,-0.0020
1943.00,-0.0019
1942.00,-0.0017
1941.00,-0.0015
1940.00,-0.0013
1939.00,-0.0012
1938.00,-0.0012
1937.00,-0.0012
1936.00,-0.0012
1935.00,-0.0011
1934.00,-0.0011
1933.00,-0.0010
1932.00,-0.0010
1931.00,-0.0009
1930.00,-0.0008
1929.00,-0.0007
1928.00,-0.0007
1927.00,-0.0007
1926.00,-0.0007
1925.00,-0.0007
1924.00,-0.0007
1923.00,-0.0007
1922.00,-0.0007
1921.00,-0.0006
1920.00,-0.0005
1919.00,-0.0004
1918.00,-0.0002
1917.00,-0.0002
1916.00,-0.0002
1915.00,-0.0002
1914.00,-0.0003
1913.00,-0.0004
1912.00,-0.0004
1911.00,-0.0004
1910.00,-0.0004
1909.00,-0.0004
1908.00,-0.0004
1907.00,-0.0004
1906.00,-0.0004
1905.00,-0.0004
1904.00,-0.0004
1903.00,-0.0004
1902.00,-0.0003
1901.00,-0.0002
1900.00,-0.0002
1899.00,-0.0002
1898.00,-0.0003
1897.00,-0.0003
1896.00,-0.0003
1895.00,-0.0002
1894.00,-0.0002
1893.00,-0.0002
1892.00,-0.0001
1891.00,-0.0001
1890.00,-0.0001
1889.00,-0.0001
1888.00,-0.0001
1887.00,-0.0002
1886.00,-0.0002
1885.00,-0.0002
1884.00,-0.0002
1883.00,-0.0003
1882.00,-0.0003
1881.00,-0.0002
1880.00,-0.0001
1879.00,-0.0000
1878.00,-0.0000
1877.00,-0.0001
1876.00,-0.0002
1875.00,-0.0002
1874.00,-0.0003
1873.00,-0.0003
1872.00,-0.0002
1871.00,-0.0001
1870.00,-0.0001
1869.00,-0.0001
1868.00,-0.0001
1867.00,-0.0001
1866.00,-0.0002
1865.00,-0.0002
1864.00,-0.0003
1863.00,-0.0003
1862.00,-0.0002
1861.00,-0.0002
1860.00,-0.0001
1859.00,-0.0001
1858.00,-0.0001
1857.00,-0.0000
1856.00,0.0000
1855.00,0.0000
1854.00,-0.0000
1853.00,-0.0001
1852.00,-0.0001
1851.00,-0.0001
1850.00,-0.0001
1849.00,-0.0000
1848.00,0.0000
1847.00,0.0001
1846.00,0.0000
1845.00,0.0001
1844.00,0.0001
1843.00,0.0002
1842.00,0.0002
1841.00,0.0002
1840.00,0.0002
1839.00,0.0002
1838.00,0.0002
1837.00,0.0001
1836.00,0.0001
1835.00,0.0001
1834.00,0.0001
1833.00,0.0001
1832.00,0.0001
1831.00,0.0001
1830.00,0.0001
1829.00,0.0001
1828.00,0.0001
1827.00,0.0001
1826.00,0.0001
1825.00,0.0002
1824.00,0.0002
1823.00,0.0002
1822.00,0.0002
1821.00,0.0002
1820.00,0.0001
1819.00,-0.0000
1818.00,-0.0002
1817.00,-0.0002
1816.00,-0.0002
1815.00,-0.0002
1814.00,-0.0001
1813.00,-0.0001
1812.00,-0.0000
1811.00,-0.0000
1810.00,0.0000
1809.00,0.0001
1808.00,0.0002
1807.00,0.0002
1806.00,0.0002
1805.00,0.0002
1804.00,0.0002
1803.00,0.0003
1802.00,0.0003
1801.00,0.0004
1800.00,0.0004
1799.00,0.0003
1798.00,0.0003
1797.00,0.0003
1796.00,0.0004
1795.00,0.0004
1794.00,0.0005
1793.00,0.0005
1792.00,0.0006
1791.00,0.0005
1790.00,0.0005
1789.00,0.0005
1788.00,0.0005
1787.00,0.0005
1786.00,0.0006
1785.00,0.0006
1784.00,0.0007
1783.00,0.0007
1782.00,0.0007
1781.00,0.0007
1780.00,0.0007
1779.00,0.0007
1778.00,0.0007
1777.00,0.0008
1776.00,0.0008
1775.00,0.0008
1774.00,0.0008
1773.00,0.0008
1772.00,0.0008
1771.00,0.0008
1770.00,0.0009
1769.00,0.0009
1768.00,0.0009
1767.00,0.0010
1766.00,0.0010
1765.00,0.0010
1764.00,0.0010
1763.00,0.0009
1762.00,0.0009
1761.00,0.0009
1760.00,0.0009
1759.00,0.0009
1758.00,0.0010
1757.00,0.0010
1756.00,0.0011
1755.00,0.0011
1754.00,0.0012
1753.00,0.0012
1752.00,0.0013
1751.00,0.0014
1750.00,0.0015
1749.00,0.0016
1748.00,0.0017
1747.00,0.0017
1746.00,0.0017
1745.00,0.0018
1744.00,0.0018
1743.00,0.0018
1742.00,0.0019
1741.00,0.0020
1740.00,0.0021
1739.00,0.0022
1738.00,0.0022
1737.00,0.0022
1736.00,0.0022
1735.00,0.0022
1734.00,0.0022
1733.00,0.0022
1732.00,0.0022
1731.00,0.0022
1730.00,0.0022
1729.00,0.0023
1728.00,0.0023
1727.00,0.0024
1726.00,0.0024
1725.00,0.0024
1724.00,0.0025
1723.00,0.0025
1722.00,0.0024
1721.00,0.0024
1720.00,0.0025
1719.00,0.0025
1718.00,0.0025
1717.00,0.0024
1716.00,0.0024
1715.00,0.0023
1714.00,0.0022
1713.00,0.0022
1712.00,0.0022
1711.00,0.0022
1710.00,0.0023
1709.00,0.0023
1708.00,0.0023
1707.00,0.0023
1706.00,0.0023
1705.00,0.0023
1704.00,0.0023
1703.00,0.0023
1702.00,0.0024
1701.00,0.0024
1700.00,0.0025
1699.00,0.0025
1698.00,0.0025
1697.00,0.0025
1696.00,0.0026
1695.00,0.0027
1694.00,0.0027
1693.00,0.0028
1692.00,0.0028
1691.00,0.0028
1690.00,0.0029
1689.00,0.0029
1688.00,0.0029
1687.00,0.0029
1686.00,0.0029
1685.00,0.0030
1684.00,0.0032
1683.00,0.0033
1682.00,0.0034
1681.00,0.0035
1680.00,0.0036
1679.00,0.0037
1678.00,0.0038
1677.00,0.0039
1676.00,0.0040
1675.00,0.0041
1674.00,0.0041
1673.00,0.0041
1672.00,0.0041
1671.00,0.0041
1670.00,0.0041
1669.00,0.0041
1668.00,0.0042
1667.00,0.0042
1666.00,0.0043
1665.00,0.0043
1664.00,0.0044
1663.00,0.0045
1662.00,0.0045
1661.00,0.0045
1660.00,0.0046
1659.00,0.0046
1658.00,0.0047
1657.00,0.0047
1656.00,0.0047
1655.00,0.0047
1654.00,0.0048
1653.00,0.0051
1652.00,0.0053
1651.00,0.0055
1650.00,0.0056
1649.00,0.0058
1648.00,0.0061
1647.00,0.0064
1646.00,0.0066
1645.00,0.0065
1644.00,0.0065
1643.00,0.0064
1642.00,0.0063
1641.00,0.0062
1640.00,0.0062
1639.00,0.0061
1638.00,0.0060
1637.00,0.0060
1636.00,0.0060
1635.00,0.0060
1634.00,0.0059
1633.00,0.0059
1632.00,0.0059
1631.00,0.0058
1630.00,0.0058
1629.00,0.0058
1628.00,0.0057
1627.00,0.0057
1626.00,0.0056
1625.00,0.0056
1624.00,0.0055
1623.00,0.0054
1622.00,0.0054
1621.00,0.0053
1620.00,0.0052
1619.00,0.0051
1618.00,0.0050
1617.00,0.0050
1616.00,0.0049
1615.00,0.0049
1614.00,0.0049
1613.00,0.0049
1612.00,0.0049
1611.00,0.0050
1610.00,0.0050
1609.00,0.0050
1608.00,0.0049
1607.00,0.0049
1606.00,0.0048
1605.00,0.0049
1604.00,0.0049
1603.00,0.0049
1602.00,0.0048
1601.00,0.0048
1600.00,0.0048
1599.00,0.0049
1598.00,0.0049
1597.00,0.0048
1596.00,0.0048
1595.00,0.0048
1594.00,0.0048
1593.00,0.0048
1592.00,0.0048
1591.00,0.0047
1590.00,0.0047
1589.00,0.0048
1588.00,0.0048
1587.00,0.0048
1586.00,0.0049
1585.00,0.0049
1584.00,0.0050
1583.00,0.0050
1582.00,0.0051
1581.00,0.0052
1580.00,0.0053
1579.00,0.0053
1578.00,0.0053
1577.00,0.0053
1576.00,0.0054
1575.00,0.0054
1574.00,0.0054
1573.00,0.0054
1572.00,0.0055
1571.00,0.0054
1570.00,0.0054
1569.00,0.0054
1568.00,0.0054
1567.00,0.0054
1566.00,0.0054
1565.00,0.0055
1564.00,0.0056
1563.00,0.0056
1562.00,0.0056
1561.00,0.0057
1560.00,0.0057
1559.00,0.0057
1558.00,0.0057
1557.00,0.0057
1556.00,0.0058
1555.00,0.0058
1554.00,0.0059
1553.00,0.0059
1552.00,0.0060
1551.00,0.0060
1550.00,0.0059
1549.00,0.0060
1548.00,0.0060
1547.00,0.0061
1546.00,0.0062
1545.00,0.0063
1544.00,0.0064
1543.00,0.0064
1542.00,0.0064
1541.00,0.0063
1540.00,0.0063
1539.00,0.0061
1538.00,0.0059
1537.00,0.0058
1536.00,0.0057
1535.00,0.0056
1534.00,0.0055
1533.00,0.0054
1532.00,0.0053
1531.00,0.0052
1530.00,0.0051
1529.00,0.0051
1528.00,0.0051
1527.00,0.0051
1526.00,0.0050
1525.00,0.0051
1524.00,0.0051
1523.00,0.0052
1522.00,0.0052
1521.00,0.0052
1520.00,0.0052
1519.00,0.0052
1518.00,0.0052
1517.00,0.0053
1516.00,0.0054
1515.00,0.0054
1514.00,0.0055
1513.00,0.0055
1512.00,0.0057
1511.00,0.0057
1510.00,0.0058
1509.00,0.0058
1508.00,0.0059
1507.00,0.0060
1506.00,0.0060
1505.00,0.0062
1504.00,0.0063
1503.00,0.0065
1502.00,0.0066
1501.00,0.0069
1500.00,0.0072
1499.00,0.0074
1498.00,0.0076
1497.00,0.0079
1496.00,0.0082
1495.00,0.0084
1494.00,0.0086
1493.00,0.0090
1492.00,0.0094
1491.00,0.0098
1490.00,0.0102
1489.00,0.0107
1488.00,0.0113
1487.00,0.0118
1486.00,0.0122
1485.00,0.0128
1484.00,0.0135
1483.00,0.0142
1482.00,0.0151
1481.00,0.0162
1480.00,0.0174
1479.00,0.0187
1478.00,0.0202
1477.00,0.0223
1476.00,0.0248
1475.00,0.0279
1474.00,0.0320
1473.00,0.0378
1472.00,0.0446
1471.00,0.0514
1470.00,0.0579
1469.00,0.0648
1468.00,0.0722
1467.00,0.0802
1466.00,0.0894
1465.00,0.0992
1464.00,0.1078
1463.00,0.1136
1462.00,0.1173
1461.00,0.1196
1460.00,0.1210
1459.00,0.1217
1458.00,0.1219
1457.00,0.1217
1456.00,0.1208
1455.00,0.1195
1454.00,0.1179
1453.00,0.1158
1452.00,0.1128
1451.00,0.1087
1450.00,0.1033
1449.00,0.0960
1448.00,0.0869
1447.00,0.0774
1446.00,0.0689
1445.00,0.0618
1444.00,0.0557
1443.00,0.0508
1442.00,0.0471
1441.00,0.0446
1440.00,0.0431
1439.00,0.0427
1438.00,0.0432
1437.00,0.0438
1436.00,0.0432
1435.00,0.0408
1434.00,0.0372
1433.00,0.0329
1432.00,0.0283
1431.00,0.0242
1430.00,0.0210
1429.00,0.0186
1428.00,0.0169
1427.00,0.0159
1426.00,0.0152
1425.00,0.0146
1424.00,0.0141
1423.00,0.0137
1422.00,0.0136
1421.00,0.0134
1420.00,0.0131
1419.00,0.0129
1418.00,0.0127
1417.00,0.0123
1416.00,0.0119
1415.00,0.0117
1414.00,0.0116
1413.00,0.0115
1412.00,0.0113
1411.00,0.0112
1410.00,0.0112
1409.00,0.0110
1408.00,0.0109
1407.00,0.0109
1406.00,0.0110
1405.00,0.0110
1404.00,0.0110
1403.00,0.0111
1402.00,0.0113
1401.00,0.0114
1400.00,0.0115
1399.00,0.0116
1398.00,0.0119
1397.00,0.0120
1396.00,0.0122
1395.00,0.0125
1394.00,0.0130
1393.00,0.0134
1392.00,0.0139
1391.00,0.0147
1390.00,0.0158
1389.00,0.0172
1388.00,0.0192
1387.00,0.0223
1386.00,0.0264
1385.00,0.0319
1384.00,0.0396
1383.00,0.0507
1382.00,0.0661
1381.00,0.0865
1380.00,0.1122
1379.00,0.1419
1378.00,0.1710
1377.00,0.1925
1376.00,0.1999
1375.00,0.1897
1374.00,0.1651
1373.00,0.1354
1372.00,0.1083
1371.00,0.0862
1370.00,0.0687
1369.00,0.0557
1368.00,0.0467
1367.00,0.0412
1366.00,0.0382
1365.00,0.0371
1364.00,0.0374
1363.00,0.0389
1362.00,0.0412
1361.00,0.0436
1360.00,0.0455
1359.00,0.0461
1358.00,0.0451
1357.00,0.0424
1356.00,0.0386
1355.00,0.0344
1354.00,0.0303
1353.00,0.0268
1352.00,0.0239
1351.00,0.0216
1350.00,0.0197
1349.00,0.0181
1348.00,0.0169
1347.00,0.0159
1346.00,0.0150
1345.00,0.0143
1344.00,0.0137
1343.00,0.0132
1342.00,0.0127
1341.00,0.0124
1340.00,0.0121
1339.00,0.0118
1338.00,0.0116
1337.00,0.0116
1336.00,0.0117
1335.00,0.0120
1334.00,0.0123
1333.00,0.0128
1332.00,0.0132
1331.00,0.0136
1330.00,0.0137
1329.00,0.0136
1328.00,0.0133
1327.00,0.0128
1326.00,0.0122
1325.00,0.0116
1324.00,0.0110
1323.00,0.0105
1322.00,0.0100
1321.00,0.0097
1320.00,0.0094
1319.00,0.0092
1318.00,0.0090
1317.00,0.0089
1316.00,0.0088
1315.00,0.0087
1314.00,0.0087
1313.00,0.0087
1312.00,0.0088
1311.00,0.0091
1310.00,0.0094
1309.00,0.0099
1308.00,0.0106
1307.00,0.0115
1306.00,0.0123
1305.00,0.0130
1304.00,0.0132
1303.00,0.0130
1302.00,0.0127
1301.00,0.0125
1300.00,0.0124
1299.00,0.0125
1298.00,0.0127
1297.00,0.0128
1296.00,0.0128
1295.00,0.0126
1294.00,0.0123
1293.00,0.0118
1292.00,0.0113
1291.00,0.0107
1290.00,0.0102
1289.00,0.0098
1288.00,0.0094
1287.00,0.0091
1286.00,0.0088
1285.00,0.0086
1284.00,0.0085
1283.00,0.0084
1282.00,0.0083
1281.00,0.0082
1280.00,0.0082
1279.00,0.0081
1278.00,0.0080
1277.00,0.0079
1276.00,0.0079
1275.00,0.0078
1274.00,0.0078
1273.00,0.0078
1272.00,0.0078
1271.00,0.0079
1270.00,0.0081
1269.00,0.0083
1268.00,0.0084
1267.00,0.0087
1266.00,0.0090
1265.00,0.0093
1264.00,0.0097
1263.00,0.0100
1262.00,0.0103
1261.00,0.0106
1260.00,0.0110
1259.00,0.0114
1258.00,0.0118
1257.00,0.0121
1256.00,0.0122
1255.00,0.0120
1254.00,0.0115
1253.00,0.0108
1252.00,0.0101
1251.00,0.0096
1250.00,0.0091
1249.00,0.0088
1248.00,0.0086
1247.00,0.0084
1246.00,0.0082
1245.00,0.0081
1244.00,0.0080
1243.00,0.0078
1242.00,0.0077
1241.00,0.0077
1240.00,0.0076
1239.00,0.0075
1238.00,0.0075
1237.00,0.0074
1236.00,0.0074
1235.00,0.0074
1234.00,0.0074
1233.00,0.0074
1232.00,0.0075
1231.00,0.0076
1230.00,0.0076
1229.00,0.0077
1228.00,0.0078
1227.00,0.0080
1226.00,0.0083
1225.00,0.0086
1224.00,0.0090
1223.00,0.0094
1222.00,0.0098
1221.00,0.0102
1220.00,0.0104
1219.00,0.0105
1218.00,0.0104
1217.00,0.0101
1216.00,0.0098
1215.00,0.0095
1214.00,0.0092
1213.00,0.0089
1212.00,0.0086
1211.00,0.0083
1210.00,0.0081
1209.00,0.0079
1208.00,0.0077
1207.00,0.0076
1206.00,0.0075
1205.00,0.0075
1204.00,0.0075
1203.00,0.0074
1202.00,0.0074
1201.00,0.0074
1200.00,0.0073
1199.00,0.0073
1198.00,0.0073
1197.00,0.0074
1196.00,0.0074
1195.00,0.0075
1194.00,0.0075
1193.00,0.0074
1192.00,0.0074
1191.00,0.0074
1190.00,0.0074
1189.00,0.0075
1188.00,0.0075
1187.00,0.0076
1186.00,0.0077
1185.00,0.0077
1184.00,0.0077
1183.00,0.0078
1182.00,0.0079
1181.00,0.0081
1180.00,0.0083
1179.00,0.0087
1178.00,0.0092
1177.00,0.0099
1176.00,0.0108
1175.00,0.0120
1174.00,0.0135
1173.00,0.0155
1172.00,0.0178
1171.00,0.0203
1170.00,0.0228
1169.00,0.0247
1168.00,0.0259
1167.00,0.0261
1166.00,0.0255
1165.00,0.0245
1164.00,0.0232
1163.00,0.0220
1162.00,0.0210
1161.00,0.0201
1160.00,0.0195
1159.00,0.0190
1158.00,0.0187
1157.00,0.0186
1156.00,0.0186
1155.00,0.0186
1154.00,0.0187
1153.00,0.0185
1152.00,0.0182
1151.00,0.0176
1150.00,0.0168
1149.00,0.0159
1148.00,0.0149
1147.00,0.0140
1146.00,0.0132
1145.00,0.0125
1144.00,0.0119
1143.00,0.0114
1142.00,0.0110
1141.00,0.0105
1140.00,0.0101
1139.00,0.0096
1138.00,0.0092
1137.00,0.0089
1136.00,0.0086
1135.00,0.0084
1134.00,0.0083
1133.00,0.0082
1132.00,0.0081
1131.00,0.0081
1130.00,0.0081
1129.00,0.0082
1128.00,0.0082
1127.00,0.0083
1126.00,0.0085
1125.00,0.0085
1124.00,0.0086
1123.00,0.0087
1122.00,0.0087
1121.00,0.0088
1120.00,0.0089
1119.00,0.0090
1118.00,0.0091
1117.00,0.0092
1116.00,0.0094
1115.00,0.0095
1114.00,0.0096
1113.00,0.0097
1112.00,0.0099
1111.00,0.0101
1110.00,0.0105
1109.00,0.0109
1108.00,0.0115
1107.00,0.0122
1106.00,0.0130
1105.00,0.0137
1104.00,0.0142
1103.00,0.0144
1102.00,0.0144
1101.00,0.0140
1100.00,0.0134
1099.00,0.0127
1098.00,0.0120
1097.00,0.0114
1096.00,0.0110
1095.00,0.0106
1094.00,0.0103
1093.00,0.0100
1092.00,0.0098
1091.00,0.0096
1090.00,0.0094
1089.00,0.0093
1088.00,0.0092
1087.00,0.0092
1086.00,0.0092
1085.00,0.0091
1084.00,0.0091
1083.00,0.0091
1082.00,0.0090
1081.00,0.0089
1080.00,0.0088
1079.00,0.0088
1078.00,0.0088
1077.00,0.0087
1076.00,0.0086
1075.00,0.0085
1074.00,0.0083
1073.00,0.0083
1072.00,0.0083
1071.00,0.0082
1070.00,0.0082
1069.00,0.0082
1068.00,0.0082
1067.00,0.0082
1066.00,0.0083
1065.00,0.0083
1064.00,0.0084
1063.00,0.0085
1062.00,0.0086
1061.00,0.0086
1060.00,0.0087
1059.00,0.0088
1058.00,0.0090
1057.00,0.0092
1056.00,0.0093
1055.00,0.0094
1054.00,0.0095
1053.00,0.0097
1052.00,0.0099
1051.00,0.0102
1050.00,0.0106
1049.00,0.0111
1048.00,0.0115
1047.00,0.0120
1046.00,0.0124
1045.00,0.0126
1044.00,0.0128
1043.00,0.0127
1042.00,0.0125
1041.00,0.0122
1040.00,0.0120
1039.00,0.0119
1038.00,0.0119
1037.00,0.0120
1036.00,0.0121
1035.00,0.0121
1034.00,0.0121
1033.00,0.0120
1032.00,0.0119
1031.00,0.0117
1030.00,0.0116
1029.00,0.0116
1028.00,0.0116
1027.00,0.0118
1026.00,0.0119
1025.00,0.0122
1024.00,0.0124
1023.00,0.0127
1022.00,0.0130
1021.00,0.0131
1020.00,0.0131
1019.00,0.0131
1018.00,0.0132
1017.00,0.0132
1016.00,0.0133
1015.00,0.0133
1014.00,0.0132
1013.00,0.0131
1012.00,0.0130
1011.00,0.0129
1010.00,0.0129
1009.00,0.0129
1008.00,0.0131
1007.00,0.0134
1006.00,0.0139
1005.00,0.0146
1004.00,0.0157
1003.00,0.0174
1002.00,0.0197
1001.00,0.0225
1000.00,0.0255
999.00,0.0279
998.00,0.0290
997.00,0.0283
996.00,0.0260
995.00,0.0228
994.00,0.0196
993.00,0.0169
992.00,0.0148
991.00,0.0133
990.00,0.0123
989.00,0.0117
988.00,0.0113
987.00,0.0111
986.00,0.0111
985.00,0.0112
984.00,0.0115
983.00,0.0119
982.00,0.0127
981.00,0.0140
980.00,0.0158
979.00,0.0183
978.00,0.0213
977.00,0.0248
976.00,0.0283
975.00,0.0316
974.00,0.0338
973.00,0.0345
972.00,0.0331
971.00,0.0300
970.00,0.0260
969.00,0.0219
968.00,0.0184
967.00,0.0158
966.00,0.0139
965.00,0.0125
964.00,0.0115
963.00,0.0107
962.00,0.0102
961.00,0.0098
960.00,0.0095
959.00,0.0093
958.00,0.0090
957.00,0.0087
956.00,0.0085
955.00,0.0083
954.00,0.0082
953.00,0.0080
952.00,0.0079
951.00,0.0078
950.00,0.0078
949.00,0.0077
948.00,0.0077
947.00,0.0078
946.00,0.0080
945.00,0.0083
944.00,0.0087
943.00,0.0091
942.00,0.0095
941.00,0.0098
940.00,0.0098
939.00,0.0095
938.00,0.0090
937.00,0.0083
936.00,0.0078
935.00,0.0074
934.00,0.0071
933.00,0.0068
932.00,0.0065
931.00,0.0064
930.00,0.0062
929.00,0.0062
928.00,0.0061
927.00,0.0062
926.00,0.0062
925.00,0.0062
924.00,0.0061
923.00,0.0061
922.00,0.0061
921.00,0.0061
920.00,0.0062
919.00,0.0063
918.00,0.0064
917.00,0.0065
916.00,0.0065
915.00,0.0065
914.00,0.0066
913.00,0.0067
912.00,0.0069
911.00,0.0071
910.00,0.0073
909.00,0.0075
908.00,0.0078
907.00,0.0083
906.00,0.0091
905.00,0.0103
904.00,0.0119
903.00,0.0139
902.00,0.0159
901.00,0.0178
900.00,0.0190
899.00,0.0192
898.00,0.0183
897.00,0.0165
896.00,0.0144
895.00,0.0124
894.00,0.0107
893.00,0.0095
892.00,0.0087
891.00,0.0082
890.00,0.0079
889.00,0.0078
888.00,0.0077
887.00,0.0075
886.00,0.0074
885.00,0.0072
884.00,0.0070
883.00,0.0068
882.00,0.0067
881.00,0.0067
880.00,0.0068
879.00,0.0070
878.00,0.0072
877.00,0.0075
876.00,0.0077
875.00,0.0078
874.00,0.0078
873.00,0.0078
872.00,0.0077
871.00,0.0076
870.00,0.0075
869.00,0.0074
868.00,0.0074
867.00,0.0074
866.00,0.0075
865.00,0.0076
864.00,0.0078
863.00,0.0079
862.00,0.0080
861.00,0.0081
860.00,0.0083
859.00,0.0085
858.00,0.0086
857.00,0.0086
856.00,0.0086
855.00,0.0087
854.00,0.0087
853.00,0.0089
852.00,0.0091
851.00,0.0094
850.00,0.0098
849.00,0.0103
848.00,0.0110
847.00,0.0121
846.00,0.0136
845.00,0.0159
844.00,0.0192
843.00,0.0231
842.00,0.0263
841.00,0.0273
840.00,0.0256
839.00,0.0219
838.00,0.0179
837.00,0.0147
836.00,0.0128
835.00,0.0116
834.00,0.0108
833.00,0.0103
832.00,0.0101
831.00,0.0099
830.00,0.0099
829.00,0.0098
828.00,0.0097
827.00,0.0096
826.00,0.0096
825.00,0.0096
824.00,0.0097
823.00,0.0099
822.00,0.0100
821.00,0.0103
820.00,0.0105
819.00,0.0109
818.00,0.0114
817.00,0.0120
816.00,0.0129
815.00,0.0141
814.00,0.0157
813.00,0.0177
812.00,0.0200
811.00,0.0223
810.00,0.0240
809.00,0.0248
808.00,0.0244
807.00,0.0230
806.00,0.0209
805.00,0.0187
804.00,0.0167
803.00,0.0150
802.00,0.0137
801.00,0.0128
800.00,0.0121
799.00,0.0116
798.00,0.0112
797.00,0.0107
796.00,0.0103
795.00,0.0100
794.00,0.0097
793.00,0.0094
792.00,0.0091
791.00,0.0088
790.00,0.0084
789.00,0.0081
788.00,0.0079
787.00,0.0076
786.00,0.0073
785.00,0.0071
784.00,0.0069
783.00,0.0069
782.00,0.0069
781.00,0.0069
780.00,0.0069
779.00,0.0067
778.00,0.0066
777.00,0.0066
776.00,0.0066
775.00,0.0067
774.00,0.0067
773.00,0.0067
772.00,0.0067
771.00,0.0067
770.00,0.0067
769.00,0.0068
768.00,0.0067
767.00,0.0066
766.00,0.0065
765.00,0.0064
764.00,0.0064
763.00,0.0065
762.00,0.0065
761.00,0.0066
760.00,0.0067
759.00,0.0068
758.00,0.0070
757.00,0.0073
756.00,0.0076
755.00,0.0078
754.00,0.0080
753.00,0.0080
752.00,0.0080
751.00,0.0080
750.00,0.0081
749.00,0.0081
748.00,0.0082
747.00,0.0083
746.00,0.0084
745.00,0.0086
744.00,0.0088
743.00,0.0090
742.00,0.0093
741.00,0.0096
740.00,0.0099
739.00,0.0103
738.00,0.0107
737.00,0.0112
736.00,0.0116
735.00,0.0121
734.00,0.0126
733.00,0.0132
732.00,0.0140
731.00,0.0147
730.00,0.0153
729.00,0.0155
728.00,0.0155
727.00,0.0155
726.00,0.0157
725.00,0.0160
724.00,0.0166
723.00,0.0173
722.00,0.0179
721.00,0.0183
720.00,0.0181
719.00,0.0173
718.00,0.0160
717.00,0.0147
716.00,0.0135
715.00,0.0125
714.00,0.0118
713.00,0.0115
712.00,0.0113
711.00,0.0112
710.00,0.0111
709.00,0.0109
708.00,0.0108
707.00,0.0107
706.00,0.0106
705.00,0.0106
704.00,0.0104
703.00,0.0102
702.00,0.0100
701.00,0.0098
700.00,0.0098
699.00,0.0098
698.00,0.0097
697.00,0.0095
696.00,0.0094
695.00,0.0095
694.00,0.0096
693.00,0.0096
692.00,0.0095
691.00,0.0094
690.00,0.0094
689.00,0.0095
688.00,0.0096
687.00,0.0096
686.00,0.0096
685.00,0.0096
684.00,0.0096
683.00,0.0096
682.00,0.0096
681.00,0.0097
680.00,0.0096
679.00,0.0095
678.00,0.0094
677.00,0.0094
676.00,0.0096
675.00,0.0099
674.00,0.0103
673.00,0.0105
672.00,0.0107
671.00,0.0108
670.00,0.0108
669.00,0.0108
668.00,0.0105
667.00,0.0102
666.00,0.0099
665.00,0.0097
664.00,0.0096
663.00,0.0095
662.00,0.0095
661.00,0.0094
660.00,0.0094
659.00,0.0094
658.00,0.0092
657.00,0.0091
656.00,0.0089
655.00,0.0089
654.00,0.0089
653.00,0.0090
652.00,0.0091
651.00,0.0092
650.00,0.0092
649.00,0.0091
648.00,0.0090
647.00,0.0090
646.00,0.0089
645.00,0.0089
644.00,0.0089
643.00,0.0089
642.00,0.0089
641.00,0.0088
640.00,0.0087
639.00,0.0085
638.00,0.0083
637.00,0.0082
636.00,0.0082
635.00,0.0082
634.00,0.0082
633.00,0.0084
632.00,0.0086
631.00,0.0090
630.00,0.0094
629.00,0.0095
628.00,0.0094
627.00,0.0091
626.00,0.0088
625.00,0.0086
624.00,0.0085
623.00,0.0086
622.00,0.0087
621.00,0.0086
620.00,0.0084
619.00,0.0082
618.00,0.0080
617.00,0.0080
616.00,0.0081
615.00,0.0083
614.00,0.0084
613.00,0.0084
612.00,0.0083
611.00,0.0083
610.00,0.0085
609.00,0.0086
608.00,0.0085
607.00,0.0083
606.00,0.0081
605.00,0.0080
604.00,0.0082
603.00,0.0084
602.00,0.0085
601.00,0.0083
600.00,0.0080
599.00,0.0079
598.00,0.0081
597.00,0.0083
596.00,0.0083
595.00,0.0083
594.00,0.0083
593.00,0.0084
592.00,0.0085
591.00,0.0085
590.00,0.0086
589.00,0.0087
588.00,0.0088
587.00,0.0087
586.00,0.0086
585.00,0.0084
584.00,0.0082
583.00,0.0080
582.00,0.0079
581.00,0.0081
580.00,0.0082
579.00,0.0083
578.00,0.0081
577.00,0.0079
576.00,0.0077
575.00,0.0077
574.00,0.0076
573.00,0.0074
572.00,0.0073
571.00,0.0075
570.00,0.0078
569.00,0.0081
568.00,0.0082
567.00,0.0083
566.00,0.0083
565.00,0.0082
564.00,0.0081
563.00,0.0079
562.00,0.0079
561.00,0.0079
560.00,0.0078
559.00,0.0077
558.00,0.0076
557.00,0.0075
556.00,0.0077
555.00,0.0080
554.00,0.0085
553.00,0.0089
552.00,0.0092
551.00,0.0093
550.00,0.0092
549.00,0.0089
548.00,0.0085
547.00,0.0084
546.00,0.0085
545.00,0.0087
544.00,0.0092
543.00,0.0097
542.00,0.0102
541.00,0.0106
540.00,0.0108
539.00,0.0111
538.00,0.0114
537.00,0.0117
536.00,0.0118
535.00,0.0115
534.00,0.0112
533.00,0.0109
532.00,0.0108
531.00,0.0108
530.00,0.0108
529.00,0.0110
528.00,0.0114
527.00,0.0117
526.00,0.0119
525.00,0.0116
524.00,0.0109
523.00,0.0103
522.00,0.0097
521.00,0.0090
520.00,0.0082
519.00,0.0075
518.00,0.0070
517.00,0.0071
516.00,0.0076
515.00,0.0082
514.00,0.0085
513.00,0.0084
512.00,0.0081
511.00,0.0080
510.00,0.0079
509.00,0.0077
508.00,0.0073
507.00,0.0072
506.00,0.0074
505.00,0.0076
504.00,0.0076
503.00,0.0075
502.00,0.0076
501.00,0.0078
500.00,0.0080
499.00,0.0082
498.00,0.0083
497.00,0.0080
496.00,0.0073
495.00,0.0066
494.00,0.0063
493.00,0.0068
492.00,0.0076
491.00,0.0079
490.00,0.0074
489.00,0.0065
488.00,0.0058
487.00,0.0055
486.00,0.0059
485.00,0.0067
484.00,0.0077
483.00,0.0085
482.00,0.0088
481.00,0.0087
480.00,0.0083
479.00,0.0081
478.00,0.0084
477.00,0.0091
476.00,0.0098
475.00,0.0101
474.00,0.0099
473.00,0.0100
472.00,0.0107
471.00,0.0120
470.00,0.0134
469.00,0.0144
468.00,0.0149
467.00,0.0148
466.00,0.0146
465.00,0.0145
464.00,0.0148
463.00,0.0156
462.00,0.0166
461.00,0.0175
460.00,0.0180
459.00,0.0182
458.00,0.0181
457.00,0.0177
456.00,0.0171
455.00,0.0167
454.00,0.0165
453.00,0.0166
452.00,0.0166
451.00,0.0161
450.00,0.0150
