Created as New Dataset,017 By Administrator Date Thursday, September 04 2025
cm-1,A
4000.00,0.0010
3999.00,0.0010
3998.00,0.0009
3997.00,0.0009
3996.00,0.0009
3995.00,0.0008
3994.00,0.0008
3993.00,0.0008
3992.00,0.0008
3991.00,0.0008
3990.00,0.0008
3989.00,0.0008
3988.00,0.0008
3987.00,0.0008
3986.00,0.0008
3985.00,0.0008
3984.00,0.0008
3983.00,0.0007
3982.00,0.0007
3981.00,0.0007
3980.00,0.0007
3979.00,0.0007
3978.00,0.0008
3977.00,0.0008
3976.00,0.0008
3975.00,0.0008
3974.00,0.0008
3973.00,0.0007
3972.00,0.0007
3971.00,0.0007
3970.00,0.0007
3969.00,0.0007
3968.00,0.0007
3967.00,0.0007
3966.00,0.0007
3965.00,0.0008
3964.00,0.0008
3963.00,0.0008
3962.00,0.0008
3961.00,0.0008
3960.00,0.0007
3959.00,0.0007
3958.00,0.0007
3957.00,0.0007
3956.00,0.0007
3955.00,0.0007
3954.00,0.0007
3953.00,0.0007
3952.00,0.0007
3951.00,0.0007
3950.00,0.0007
3949.00,0.0007
3948.00,0.0007
3947.00,0.0007
3946.00,0.0008
3945.00,0.0008
3944.00,0.0008
3943.00,0.0008
3942.00,0.0008
3941.00,0.0008
3940.00,0.0008
3939.00,0.0008
3938.00,0.0007
3937.00,0.0007
3936.00,0.0007
3935.00,0.0007
3934.00,0.0007
3933.00,0.0008
3932.00,0.0008
3931.00,0.0008
3930.00,0.0008
3929.00,0.0008
3928.00,0.0008
3927.00,0.0008
3926.00,0.0008
3925.00,0.0008
3924.00,0.0008
3923.00,0.0008
3922.00,0.0008
3921.00,0.0009
3920.00,0.0009
3919.00,0.0008
3918.00,0.0008
3917.00,0.0008
3916.00,0.0007
3915.00,0.0007
3914.00,0.0007
3913.00,0.0007
3912.00,0.0007
3911.00,0.0007
3910.00,0.0007
3909.00,0.0008
3908.00,0.0008
3907.00,0.0008
3906.00,0.0009
3905.00,0.0009
3904.00,0.0008
3903.00,0.0008
3902.00,0.0008
3901.00,0.0009
3900.00,0.0009
3899.00,0.0008
3898.00,0.0008
3897.00,0.0008
3896.00,0.0007
3895.00,0.0007
3894.00,0.0007
3893.00,0.0007
3892.00,0.0007
3891.00,0.0007
3890.00,0.0007
3889.00,0.0007
3888.00,0.0007
3887.00,0.0007
3886.00,0.0006
3885.00,0.0006
3884.00,0.0006
3883.00,0.0007
3882.00,0.0007
3881.00,0.0007
3880.00,0.0007
3879.00,0.0007
3878.00,0.0007
3877.00,0.0007
3876.00,0.0007
3875.00,0.0006
3874.00,0.0006
3873.00,0.0007
3872.00,0.0007
3871.00,0.0008
3870.00,0.0008
3869.00,0.0007
3868.00,0.0007
3867.00,0.0007
3866.00,0.0007
3865.00,0.0007
3864.00,0.0007
3863.00,0.0007
3862.00,0.0007
3861.00,0.0007
3860.00,0.0007
3859.00,0.0007
3858.00,0.0007
3857.00,0.0008
3856.00,0.0008
3855.00,0.0008
3854.00,0.0007
3853.00,0.0007
3852.00,0.0007
3851.00,0.0007
3850.00,0.0007
3849.00,0.0006
3848.00,0.0006
3847.00,0.0006
3846.00,0.0007
3845.00,0.0007
3844.00,0.0007
3843.00,0.0007
3842.00,0.0007
3841.00,0.0007
3840.00,0.0007
3839.00,0.0006
3838.00,0.0006
3837.00,0.0006
3836.00,0.0006
3835.00,0.0006
3834.00,0.0006
3833.00,0.0007
3832.00,0.0007
3831.00,0.0007
3830.00,0.0007
3829.00,0.0007
3828.00,0.0007
3827.00,0.0007
3826.00,0.0007
3825.00,0.0007
3824.00,0.0007
3823.00,0.0007
3822.00,0.0007
3821.00,0.0007
3820.00,0.0007
3819.00,0.0007
3818.00,0.0007
3817.00,0.0007
3816.00,0.0006
3815.00,0.0006
3814.00,0.0006
3813.00,0.0007
3812.00,0.0007
3811.00,0.0007
3810.00,0.0008
3809.00,0.0008
3808.00,0.0008
3807.00,0.0007
3806.00,0.0007
3805.00,0.0007
3804.00,0.0007
3803.00,0.0007
3802.00,0.0007
3801.00,0.0006
3800.00,0.0006
3799.00,0.0006
3798.00,0.0006
3797.00,0.0006
3796.00,0.0006
3795.00,0.0006
3794.00,0.0006
3793.00,0.0006
3792.00,0.0006
3791.00,0.0006
3790.00,0.0007
3789.00,0.0007
3788.00,0.0007
3787.00,0.0007
3786.00,0.0007
3785.00,0.0007
3784.00,0.0006
3783.00,0.0006
3782.00,0.0007
3781.00,0.0007
3780.00,0.0007
3779.00,0.0008
3778.00,0.0008
3777.00,0.0008
3776.00,0.0008
3775.00,0.0007
3774.00,0.0007
3773.00,0.0007
3772.00,0.0007
3771.00,0.0007
3770.00,0.0007
3769.00,0.0007
3768.00,0.0007
3767.00,0.0007
3766.00,0.0007
3765.00,0.0007
3764.00,0.0008
3763.00,0.0008
3762.00,0.0008
3761.00,0.0008
3760.00,0.0007
3759.00,0.0007
3758.00,0.0007
3757.00,0.0007
3756.00,0.0007
3755.00,0.0007
3754.00,0.0007
3753.00,0.0007
3752.00,0.0007
3751.00,0.0007
3750.00,0.0006
3749.00,0.0006
3748.00,0.0006
3747.00,0.0006
3746.00,0.0006
3745.00,0.0006
3744.00,0.0006
3743.00,0.0006
3742.00,0.0006
3741.00,0.0007
3740.00,0.0007
3739.00,0.0007
3738.00,0.0007
3737.00,0.0008
3736.00,0.0008
3735.00,0.0007
3734.00,0.0007
3733.00,0.0006
3732.00,0.0006
3731.00,0.0005
3730.00,0.0005
3729.00,0.0005
3728.00,0.0005
3727.00,0.0005
3726.00,0.0005
3725.00,0.0005
3724.00,0.0006
3723.00,0.0006
3722.00,0.0006
3721.00,0.0006
3720.00,0.0006
3719.00,0.0006
3718.00,0.0006
3717.00,0.0006
3716.00,0.0006
3715.00,0.0006
3714.00,0.0006
3713.00,0.0007
3712.00,0.0007
3711.00,0.0007
3710.00,0.0006
3709.00,0.0006
3708.00,0.0005
3707.00,0.0005
3706.00,0.0006
3705.00,0.0006
3704.00,0.0007
3703.00,0.0007
3702.00,0.0007
3701.00,0.0007
3700.00,0.0006
3699.00,0.0006
3698.00,0.0006
3697.00,0.0005
3696.00,0.0005
3695.00,0.0005
3694.00,0.0005
3693.00,0.0005
3692.00,0.0005
3691.00,0.0005
3690.00,0.0006
3689.00,0.0006
3688.00,0.0006
3687.00,0.0006
3686.00,0.0007
3685.00,0.0007
3684.00,0.0007
3683.00,0.0007
3682.00,0.0008
3681.00,0.0008
3680.00,0.0008
3679.00,0.0008
3678.00,0.0009
3677.00,0.0010
3676.00,0.0010
3675.00,0.0010
3674.00,0.0010
3673.00,0.0009
3672.00,0.0009
3671.00,0.0008
3670.00,0.0008
3669.00,0.0007
3668.00,0.0007
3667.00,0.0007
3666.00,0.0007
3665.00,0.0007
3664.00,0.0007
3663.00,0.0007
3662.00,0.0007
3661.00,0.0007
3660.00,0.0007
3659.00,0.0008
3658.00,0.0008
3657.00,0.0009
3656.00,0.0009
3655.00,0.0009
3654.00,0.0009
3653.00,0.0009
3652.00,0.0009
3651.00,0.0009
3650.00,0.0009
3649.00,0.0010
3648.00,0.0010
3647.00,0.0010
3646.00,0.0010
3645.00,0.0010
3644.00,0.0010
3643.00,0.0010
3642.00,0.0010
3641.00,0.0010
3640.00,0.0010
3639.00,0.0010
3638.00,0.0010
3637.00,0.0010
3636.00,0.0011
3635.00,0.0011
3634.00,0.0012
3633.00,0.0012
3632.00,0.0013
3631.00,0.0014
3630.00,0.0015
3629.00,0.0015
3628.00,0.0015
3627.00,0.0015
3626.00,0.0014
3625.00,0.0014
3624.00,0.0013
3623.00,0.0013
3622.00,0.0013
3621.00,0.0013
3620.00,0.0013
3619.00,0.0013
3618.00,0.0014
3617.00,0.0015
3616.00,0.0015
3615.00,0.0016
3614.00,0.0016
3613.00,0.0017
3612.00,0.0017
3611.00,0.0017
3610.00,0.0017
3609.00,0.0018
3608.00,0.0018
3607.00,0.0018
3606.00,0.0018
3605.00,0.0018
3604.00,0.0018
3603.00,0.0018
3602.00,0.0019
3601.00,0.0019
3600.00,0.0020
3599.00,0.0020
3598.00,0.0020
3597.00,0.0020
3596.00,0.0020
3595.00,0.0020
3594.00,0.0021
3593.00,0.0021
3592.00,0.0022
3591.00,0.0022
3590.00,0.0022
3589.00,0.0023
3588.00,0.0023
3587.00,0.0024
3586.00,0.0025
3585.00,0.0025
3584.00,0.0026
3583.00,0.0026
3582.00,0.0025
3581.00,0.0025
3580.00,0.0025
3579.00,0.0026
3578.00,0.0026
3577.00,0.0027
3576.00,0.0027
3575.00,0.0028
3574.00,0.0029
3573.00,0.0029
3572.00,0.0030
3571.00,0.0030
3570.00,0.0031
3569.00,0.0031
3568.00,0.0032
3567.00,0.0032
3566.00,0.0032
3565.00,0.0033
3564.00,0.0033
3563.00,0.0033
3562.00,0.0033
3561.00,0.0034
3560.00,0.0034
3559.00,0.0034
3558.00,0.0035
3557.00,0.0035
3556.00,0.0035
3555.00,0.0036
3554.00,0.0036
3553.00,0.0037
3552.00,0.0038
3551.00,0.0039
3550.00,0.0040
3549.00,0.0040
3548.00,0.0041
3547.00,0.0042
3546.00,0.0042
3545.00,0.0043
3544.00,0.0043
3543.00,0.0043
3542.00,0.0043
3541.00,0.0044
3540.00,0.0044
3539.00,0.0044
3538.00,0.0045
3537.00,0.0045
3536.00,0.0045
3535.00,0.0046
3534.00,0.0047
3533.00,0.0048
3532.00,0.0048
3531.00,0.0049
3530.00,0.0049
3529.00,0.0050
3528.00,0.0050
3527.00,0.0051
3526.00,0.0051
3525.00,0.0052
3524.00,0.0052
3523.00,0.0053
3522.00,0.0053
3521.00,0.0054
3520.00,0.0054
3519.00,0.0055
3518.00,0.0055
3517.00,0.0056
3516.00,0.0056
3515.00,0.0056
3514.00,0.0056
3513.00,0.0057
3512.00,0.0058
3511.00,0.0059
3510.00,0.0060
3509.00,0.0060
3508.00,0.0061
3507.00,0.0061
3506.00,0.0062
3505.00,0.0062
3504.00,0.0063
3503.00,0.0064
3502.00,0.0064
3501.00,0.0065
3500.00,0.0065
3499.00,0.0066
3498.00,0.0067
3497.00,0.0067
3496.00,0.0067
3495.00,0.0068
3494.00,0.0068
3493.00,0.0069
3492.00,0.0070
3491.00,0.0070
3490.00,0.0071
3489.00,0.0071
3488.00,0.0071
3487.00,0.0072
3486.00,0.0072
3485.00,0.0073
3484.00,0.0074
3483.00,0.0074
3482.00,0.0074
3481.00,0.0075
3480.00,0.0076
3479.00,0.0076
3478.00,0.0077
3477.00,0.0078
3476.00,0.0078
3475.00,0.0079
3474.00,0.0079
3473.00,0.0079
3472.00,0.0080
3471.00,0.0080
3470.00,0.0081
3469.00,0.0081
3468.00,0.0082
3467.00,0.0082
3466.00,0.0082
3465.00,0.0082
3464.00,0.0083
3463.00,0.0083
3462.00,0.0083
3461.00,0.0083
3460.00,0.0084
3459.00,0.0084
3458.00,0.0085
3457.00,0.0086
3456.00,0.0086
3455.00,0.0087
3454.00,0.0088
3453.00,0.0088
3452.00,0.0089
3451.00,0.0089
3450.00,0.0090
3449.00,0.0090
3448.00,0.0090
3447.00,0.0091
3446.00,0.0091
3445.00,0.0092
3444.00,0.0092
3443.00,0.0092
3442.00,0.0092
3441.00,0.0093
3440.00,0.0093
3439.00,0.0093
3438.00,0.0094
3437.00,0.0094
3436.00,0.0094
3435.00,0.0094
3434.00,0.0095
3433.00,0.0095
3432.00,0.0096
3431.00,0.0097
3430.00,0.0097
3429.00,0.0097
3428.00,0.0098
3427.00,0.0098
3426.00,0.0099
3425.00,0.0099
3424.00,0.0099
3423.00,0.0100
3422.00,0.0100
3421.00,0.0101
3420.00,0.0101
3419.00,0.0102
3418.00,0.0102
3417.00,0.0103
3416.00,0.0103
3415.00,0.0103
3414.00,0.0103
3413.00,0.0104
3412.00,0.0104
3411.00,0.0105
3410.00,0.0105
3409.00,0.0106
3408.00,0.0106
3407.00,0.0106
3406.00,0.0106
3405.00,0.0106
3404.00,0.0107
3403.00,0.0107
3402.00,0.0107
3401.00,0.0108
3400.00,0.0109
3399.00,0.0109
3398.00,0.0110
3397.00,0.0110
3396.00,0.0110
3395.00,0.0110
3394.00,0.0110
3393.00,0.0110
3392.00,0.0110
3391.00,0.0110
3390.00,0.0110
3389.00,0.0111
3388.00,0.0111
3387.00,0.0111
3386.00,0.0112
3385.00,0.0112
3384.00,0.0112
3383.00,0.0113
3382.00,0.0113
3381.00,0.0113
3380.00,0.0113
3379.00,0.0113
3378.00,0.0113
3377.00,0.0113
3376.00,0.0113
3375.00,0.0113
3374.00,0.0113
3373.00,0.0113
3372.00,0.0114
3371.00,0.0114
3370.00,0.0114
3369.00,0.0114
3368.00,0.0115
3367.00,0.0115
3366.00,0.0115
3365.00,0.0114
3364.00,0.0114
3363.00,0.0114
3362.00,0.0114
3361.00,0.0115
3360.00,0.0115
3359.00,0.0115
3358.00,0.0115
3357.00,0.0115
3356.00,0.0115
3355.00,0.0115
3354.00,0.0116
3353.00,0.0116
3352.00,0.0116
3351.00,0.0116
3350.00,0.0116
3349.00,0.0117
3348.00,0.0117
3347.00,0.0117
3346.00,0.0116
3345.00,0.0116
3344.00,0.0116
3343.00,0.0115
3342.00,0.0116
3341.00,0.0116
3340.00,0.0116
3339.00,0.0116
3338.00,0.0116
3337.00,0.0115
3336.00,0.0115
3335.00,0.0115
3334.00,0.0115
3333.00,0.0115
3332.00,0.0115
3331.00,0.0114
3330.00,0.0114
3329.00,0.0114
3328.00,0.0114
3327.00,0.0114
3326.00,0.0114
3325.00,0.0114
3324.00,0.0114
3323.00,0.0114
3322.00,0.0113
3321.00,0.0113
3320.00,0.0113
3319.00,0.0113
3318.00,0.0113
3317.00,0.0113
3316.00,0.0113
3315.00,0.0113
3314.00,0.0113
3313.00,0.0113
3312.00,0.0113
3311.00,0.0113
3310.00,0.0113
3309.00,0.0114
3308.00,0.0114
3307.00,0.0114
3306.00,0.0115
3305.00,0.0115
3304.00,0.0115
3303.00,0.0115
3302.00,0.0115
3301.00,0.0115
3300.00,0.0115
3299.00,0.0114
3298.00,0.0113
3297.00,0.0112
3296.00,0.0112
3295.00,0.0111
3294.00,0.0111
3293.00,0.0110
3292.00,0.0109
3291.00,0.0109
3290.00,0.0108
3289.00,0.0108
3288.00,0.0107
3287.00,0.0107
3286.00,0.0106
3285.00,0.0106
3284.00,0.0105
3283.00,0.0105
3282.00,0.0105
3281.00,0.0105
3280.00,0.0104
3279.00,0.0103
3278.00,0.0103
3277.00,0.0102
3276.00,0.0102
3275.00,0.0101
3274.00,0.0101
3273.00,0.0101
3272.00,0.0100
3271.00,0.0100
3270.00,0.0099
3269.00,0.0099
3268.00,0.0099
3267.00,0.0098
3266.00,0.0098
3265.00,0.0098
3264.00,0.0097
3263.00,0.0097
3262.00,0.0097
3261.00,0.0096
3260.00,0.0096
3259.00,0.0096
3258.00,0.0096
3257.00,0.0095
3256.00,0.0095
3255.00,0.0094
3254.00,0.0094
3253.00,0.0093
3252.00,0.0093
3251.00,0.0092
3250.00,0.0092
3249.00,0.0091
3248.00,0.0091
3247.00,0.0091
3246.00,0.0091
3245.00,0.0091
3244.00,0.0091
3243.00,0.0090
3242.00,0.0089
3241.00,0.0089
3240.00,0.0088
3239.00,0.0088
3238.00,0.0088
3237.00,0.0087
3236.00,0.0087
3235.00,0.0087
3234.00,0.0087
3233.00,0.0088
3232.00,0.0088
3231.00,0.0088
3230.00,0.0087
3229.00,0.0087
3228.00,0.0086
3227.00,0.0086
3226.00,0.0086
3225.00,0.0086
3224.00,0.0086
3223.00,0.0087
3222.00,0.0087
3221.00,0.0087
3220.00,0.0086
3219.00,0.0086
3218.00,0.0086
3217.00,0.0087
3216.00,0.0087
3215.00,0.0087
3214.00,0.0087
3213.00,0.0087
3212.00,0.0087
3211.00,0.0087
3210.00,0.0087
3209.00,0.0087
3208.00,0.0087
3207.00,0.0087
3206.00,0.0087
3205.00,0.0086
3204.00,0.0086
3203.00,0.0087
3202.00,0.0087
3201.00,0.0086
3200.00,0.0086
3199.00,0.0086
3198.00,0.0086
3197.00,0.0086
3196.00,0.0086
3195.00,0.0086
3194.00,0.0086
3193.00,0.0086
3192.00,0.0086
3191.00,0.0085
3190.00,0.0085
3189.00,0.0085
3188.00,0.0085
3187.00,0.0085
3186.00,0.0084
3185.00,0.0084
3184.00,0.0084
3183.00,0.0083
3182.00,0.0083
3181.00,0.0083
3180.00,0.0083
3179.00,0.0082
3178.00,0.0082
3177.00,0.0082
3176.00,0.0081
3175.00,0.0081
3174.00,0.0080
3173.00,0.0080
3172.00,0.0079
3171.00,0.0079
3170.00,0.0078
3169.00,0.0078
3168.00,0.0078
3167.00,0.0078
3166.00,0.0078
3165.00,0.0078
3164.00,0.0077
3163.00,0.0077
3162.00,0.0076
3161.00,0.0075
3160.00,0.0074
3159.00,0.0074
3158.00,0.0074
3157.00,0.0074
3156.00,0.0074
3155.00,0.0074
3154.00,0.0073
3153.00,0.0073
3152.00,0.0073
3151.00,0.0073
3150.00,0.0073
3149.00,0.0073
3148.00,0.0072
3147.00,0.0072
3146.00,0.0072
3145.00,0.0072
3144.00,0.0071
3143.00,0.0071
3142.00,0.0071
3141.00,0.0070
3140.00,0.0070
3139.00,0.0069
3138.00,0.0069
3137.00,0.0068
3136.00,0.0068
3135.00,0.0068
3134.00,0.0067
3133.00,0.0067
3132.00,0.0066
3131.00,0.0066
3130.00,0.0066
3129.00,0.0066
3128.00,0.0065
3127.00,0.0065
3126.00,0.0065
3125.00,0.0065
3124.00,0.0064
3123.00,0.0064
3122.00,0.0063
3121.00,0.0063
3120.00,0.0062
3119.00,0.0062
3118.00,0.0061
3117.00,0.0061
3116.00,0.0061
3115.00,0.0061
3114.00,0.0060
3113.00,0.0060
3112.00,0.0060
3111.00,0.0059
3110.00,0.0059
3109.00,0.0058
3108.00,0.0058
3107.00,0.0058
3106.00,0.0058
3105.00,0.0058
3104.00,0.0057
3103.00,0.0057
3102.00,0.0057
3101.00,0.0056
3100.00,0.0056
3099.00,0.0057
3098.00,0.0057
3097.00,0.0056
3096.00,0.0056
3095.00,0.0055
3094.00,0.0055
3093.00,0.0055
3092.00,0.0054
3091.00,0.0054
3090.00,0.0054
3089.00,0.0054
3088.00,0.0054
3087.00,0.0054
3086.00,0.0053
3085.00,0.0053
3084.00,0.0052
3083.00,0.0052
3082.00,0.0051
3081.00,0.0051
3080.00,0.0051
3079.00,0.0051
3078.00,0.0051
3077.00,0.0051
3076.00,0.0052
3075.00,0.0052
3074.00,0.0053
3073.00,0.0053
3072.00,0.0053
3071.00,0.0053
3070.00,0.0053
3069.00,0.0052
3068.00,0.0052
3067.00,0.0052
3066.00,0.0052
3065.00,0.0053
3064.00,0.0053
3063.00,0.0053
3062.00,0.0054
3061.00,0.0054
3060.00,0.0054
3059.00,0.0053
3058.00,0.0053
3057.00,0.0053
3056.00,0.0053
3055.00,0.0053
3054.00,0.0053
3053.00,0.0054
3052.00,0.0054
3051.00,0.0054
3050.00,0.0054
3049.00,0.0054
3048.00,0.0054
3047.00,0.0055
3046.00,0.0055
3045.00,0.0055
3044.00,0.0055
3043.00,0.0055
3042.00,0.0055
3041.00,0.0056
3040.00,0.0056
3039.00,0.0057
3038.00,0.0057
3037.00,0.0058
3036.00,0.0058
3035.00,0.0058
3034.00,0.0059
3033.00,0.0059
3032.00,0.0060
3031.00,0.0060
3030.00,0.0061
3029.00,0.0061
3028.00,0.0062
3027.00,0.0062
3026.00,0.0063
3025.00,0.0063
3024.00,0.0064
3023.00,0.0065
3022.00,0.0065
3021.00,0.0065
3020.00,0.0066
3019.00,0.0066
3018.00,0.0067
3017.00,0.0067
3016.00,0.0068
3015.00,0.0068
3014.00,0.0069
3013.00,0.0070
3012.00,0.0071
3011.00,0.0073
3010.00,0.0074
3009.00,0.0075
3008.00,0.0076
3007.00,0.0077
3006.00,0.0078
3005.00,0.0079
3004.00,0.0080
3003.00,0.0082
3002.00,0.0083
3001.00,0.0085
3000.00,0.0087
2999.00,0.0090
2998.00,0.0092
2997.00,0.0095
2996.00,0.0098
2995.00,0.0102
2994.00,0.0106
2993.00,0.0110
2992.00,0.0115
2991.00,0.0120
2990.00,0.0125
2989.00,0.0132
2988.00,0.0138
2987.00,0.0146
2986.00,0.0154
2985.00,0.0163
2984.00,0.0174
2983.00,0.0185
2982.00,0.0198
2981.00,0.0214
2980.00,0.0231
2979.00,0.0251
2978.00,0.0274
2977.00,0.0300
2976.00,0.0329
2975.00,0.0364
2974.00,0.0403
2973.00,0.0448
2972.00,0.0498
2971.00,0.0555
2970.00,0.0619
2969.00,0.0689
2968.00,0.0766
2967.00,0.0849
2966.00,0.0937
2965.00,0.1028
2964.00,0.1119
2963.00,0.1205
2962.00,0.1280
2961.00,0.1342
2960.00,0.1389
2959.00,0.1422
2958.00,0.1448
2957.00,0.1474
2956.00,0.1506
2955.00,0.1548
2954.00,0.1599
2953.00,0.1654
2952.00,0.1702
2951.00,0.1732
2950.00,0.1735
2949.00,0.1705
2948.00,0.1643
2947.00,0.1554
2946.00,0.1451
2945.00,0.1345
2944.00,0.1247
2943.00,0.1164
2942.00,0.1101
2941.00,0.1059
2940.00,0.1037
2939.00,0.1034
2938.00,0.1048
2937.00,0.1076
2936.00,0.1119
2935.00,0.1174
2934.00,0.1241
2933.00,0.1319
2932.00,0.1406
2931.00,0.1502
2930.00,0.1603
2929.00,0.1708
2928.00,0.1812
2927.00,0.1913
2926.00,0.2010
2925.00,0.2103
2924.00,0.2191
2923.00,0.2276
2922.00,0.2359
2921.00,0.2435
2920.00,0.2499
2919.00,0.2543
2918.00,0.2557
2917.00,0.2538
2916.00,0.2485
2915.00,0.2406
2914.00,0.2311
2913.00,0.2213
2912.00,0.2120
2911.00,0.2038
2910.00,0.1966
2909.00,0.1903
2908.00,0.1846
2907.00,0.1792
2906.00,0.1737
2905.00,0.1680
2904.00,0.1621
2903.00,0.1561
2902.00,0.1500
2901.00,0.1440
2900.00,0.1382
2899.00,0.1326
2898.00,0.1273
2897.00,0.1224
2896.00,0.1179
2895.00,0.1140
2894.00,0.1107
2893.00,0.1079
2892.00,0.1056
2891.00,0.1038
2890.00,0.1025
2889.00,0.1016
2888.00,0.1010
2887.00,0.1007
2886.00,0.1006
2885.00,0.1009
2884.00,0.1014
2883.00,0.1024
2882.00,0.1037
2881.00,0.1052
2880.00,0.1067
2879.00,0.1078
2878.00,0.1085
2877.00,0.1085
2876.00,0.1082
2875.00,0.1078
2874.00,0.1076
2873.00,0.1080
2872.00,0.1089
2871.00,0.1105
2870.00,0.1124
2869.00,0.1143
2868.00,0.1156
2867.00,0.1158
2866.00,0.1143
2865.00,0.1112
2864.00,0.1065
2863.00,0.1011
2862.00,0.0958
2861.00,0.0912
2860.00,0.0877
2859.00,0.0854
2858.00,0.0843
2857.00,0.0841
2856.00,0.0845
2855.00,0.0853
2854.00,0.0863
2853.00,0.0874
2852.00,0.0883
2851.00,0.0890
2850.00,0.0894
2849.00,0.0895
2848.00,0.0897
2847.00,0.0903
2846.00,0.0917
2845.00,0.0942
2844.00,0.0976
2843.00,0.1018
2842.00,0.1061
2841.00,0.1100
2840.00,0.1128
2839.00,0.1138
2838.00,0.1125
2837.00,0.1086
2836.00,0.1023
2835.00,0.0941
2834.00,0.0849
2833.00,0.0754
2832.00,0.0665
2831.00,0.0587
2830.00,0.0521
2829.00,0.0466
2828.00,0.0421
2827.00,0.0384
2826.00,0.0354
2825.00,0.0329
2824.00,0.0308
2823.00,0.0290
2822.00,0.0274
2821.00,0.0260
2820.00,0.0248
2819.00,0.0238
2818.00,0.0228
2817.00,0.0220
2816.00,0.0212
2815.00,0.0205
2814.00,0.0199
2813.00,0.0193
2812.00,0.0188
2811.00,0.0183
2810.00,0.0178
2809.00,0.0173
2808.00,0.0168
2807.00,0.0162
2806.00,0.0156
2805.00,0.0150
2804.00,0.0144
2803.00,0.0139
2802.00,0.0134
2801.00,0.0130
2800.00,0.0126
2799.00,0.0123
2798.00,0.0120
2797.00,0.0118
2796.00,0.0115
2795.00,0.0113
2794.00,0.0110
2793.00,0.0108
2792.00,0.0105
2791.00,0.0102
2790.00,0.0098
2789.00,0.0095
2788.00,0.0092
2787.00,0.0089
2786.00,0.0086
2785.00,0.0084
2784.00,0.0082
2783.00,0.0080
2782.00,0.0077
2781.00,0.0075
2780.00,0.0074
2779.00,0.0072
2778.00,0.0070
2777.00,0.0069
2776.00,0.0068
2775.00,0.0066
2774.00,0.0065
2773.00,0.0065
2772.00,0.0064
2771.00,0.0064
2770.00,0.0063
2769.00,0.0063
2768.00,0.0062
2767.00,0.0061
2766.00,0.0061
2765.00,0.0061
2764.00,0.0061
2763.00,0.0060
2762.00,0.0060
2761.00,0.0059
2760.00,0.0059
2759.00,0.0059
2758.00,0.0058
2757.00,0.0058
2756.00,0.0058
2755.00,0.0058
2754.00,0.0058
2753.00,0.0057
2752.00,0.0057
2751.00,0.0056
2750.00,0.0056
2749.00,0.0056
2748.00,0.0056
2747.00,0.0056
2746.00,0.0057
2745.00,0.0058
2744.00,0.0059
2743.00,0.0060
2742.00,0.0060
2741.00,0.0061
2740.00,0.0062
2739.00,0.0063
2738.00,0.0064
2737.00,0.0065
2736.00,0.0066
2735.00,0.0067
2734.00,0.0068
2733.00,0.0069
2732.00,0.0071
2731.00,0.0072
2730.00,0.0073
2729.00,0.0075
2728.00,0.0077
2727.00,0.0080
2726.00,0.0082
2725.00,0.0085
2724.00,0.0086
2723.00,0.0086
2722.00,0.0086
2721.00,0.0084
2720.00,0.0082
2719.00,0.0079
2718.00,0.0076
2717.00,0.0073
2716.00,0.0071
2715.00,0.0068
2714.00,0.0066
2713.00,0.0064
2712.00,0.0062
2711.00,0.0061
2710.00,0.0059
2709.00,0.0057
2708.00,0.0056
2707.00,0.0055
2706.00,0.0054
2705.00,0.0053
2704.00,0.0052
2703.00,0.0051
2702.00,0.0050
2701.00,0.0049
2700.00,0.0049
2699.00,0.0048
2698.00,0.0048
2697.00,0.0048
2696.00,0.0048
2695.00,0.0048
2694.00,0.0049
2693.00,0.0049
2692.00,0.0049
2691.00,0.0049
2690.00,0.0049
2689.00,0.0048
2688.00,0.0048
2687.00,0.0048
2686.00,0.0048
2685.00,0.0048
2684.00,0.0048
2683.00,0.0048
2682.00,0.0048
2681.00,0.0048
2680.00,0.0048
2679.00,0.0048
2678.00,0.0048
2677.00,0.0048
2676.00,0.0048
2675.00,0.0048
2674.00,0.0048
2673.00,0.0048
2672.00,0.0047
2671.00,0.0047
2670.00,0.0047
2669.00,0.0047
2668.00,0.0047
2667.00,0.0048
2666.00,0.0048
2665.00,0.0048
2664.00,0.0048
2663.00,0.0049
2662.00,0.0050
2661.00,0.0050
2660.00,0.0051
2659.00,0.0050
2658.00,0.0050
2657.00,0.0050
2656.00,0.0049
2655.00,0.0048
2654.00,0.0048
2653.00,0.0047
2652.00,0.0047
2651.00,0.0047
2650.00,0.0046
2649.00,0.0046
2648.00,0.0045
2647.00,0.0045
2646.00,0.0045
2645.00,0.0044
2644.00,0.0043
2643.00,0.0043
2642.00,0.0043
2641.00,0.0042
2640.00,0.0042
2639.00,0.0042
2638.00,0.0041
2637.00,0.0041
2636.00,0.0041
2635.00,0.0041
2634.00,0.0041
2633.00,0.0041
2632.00,0.0041
2631.00,0.0041
2630.00,0.0041
2629.00,0.0041
2628.00,0.0041
2627.00,0.0041
2626.00,0.0041
2625.00,0.0041
2624.00,0.0042
2623.00,0.0042
2622.00,0.0042
2621.00,0.0042
2620.00,0.0042
2619.00,0.0042
2618.00,0.0041
2617.00,0.0041
2616.00,0.0041
2615.00,0.0041
2614.00,0.0041
2613.00,0.0041
2612.00,0.0040
2611.00,0.0040
2610.00,0.0039
2609.00,0.0038
2608.00,0.0038
2607.00,0.0037
2606.00,0.0037
2605.00,0.0036
2604.00,0.0035
2603.00,0.0034
2602.00,0.0034
2601.00,0.0034
2600.00,0.0034
2599.00,0.0034
2598.00,0.0034
2597.00,0.0034
2596.00,0.0034
2595.00,0.0034
2594.00,0.0034
2593.00,0.0034
2592.00,0.0034
2591.00,0.0035
2590.00,0.0035
2589.00,0.0036
2588.00,0.0037
2587.00,0.0038
2586.00,0.0038
2585.00,0.0038
2584.00,0.0038
2583.00,0.0038
2582.00,0.0039
2581.00,0.0038
2580.00,0.0038
2579.00,0.0037
2578.00,0.0036
2577.00,0.0035
2576.00,0.0034
2575.00,0.0034
2574.00,0.0033
2573.00,0.0032
2572.00,0.0031
2571.00,0.0030
2570.00,0.0029
2569.00,0.0029
2568.00,0.0028
2567.00,0.0028
2566.00,0.0027
2565.00,0.0027
2564.00,0.0026
2563.00,0.0026
2562.00,0.0026
2561.00,0.0026
2560.00,0.0026
2559.00,0.0025
2558.00,0.0025
2557.00,0.0024
2556.00,0.0023
2555.00,0.0023
2554.00,0.0022
2553.00,0.0022
2552.00,0.0023
2551.00,0.0022
2550.00,0.0022
2549.00,0.0022
2548.00,0.0021
2547.00,0.0021
2546.00,0.0021
2545.00,0.0020
2544.00,0.0020
2543.00,0.0019
2542.00,0.0019
2541.00,0.0019
2540.00,0.0019
2539.00,0.0019
2538.00,0.0018
2537.00,0.0018
2536.00,0.0018
2535.00,0.0018
2534.00,0.0018
2533.00,0.0018
2532.00,0.0018
2531.00,0.0018
2530.00,0.0018
2529.00,0.0018
2528.00,0.0017
2527.00,0.0017
2526.00,0.0016
2525.00,0.0016
2524.00,0.0016
2523.00,0.0015
2522.00,0.0015
2521.00,0.0014
2520.00,0.0014
2519.00,0.0013
2518.00,0.0013
2517.00,0.0013
2516.00,0.0014
2515.00,0.0014
2514.00,0.0014
2513.00,0.0014
2512.00,0.0013
2511.00,0.0013
2510.00,0.0013
2509.00,0.0013
2508.00,0.0012
2507.00,0.0012
2506.00,0.0011
2505.00,0.0010
2504.00,0.0010
2503.00,0.0010
2502.00,0.0011
2501.00,0.0011
2500.00,0.0012
2499.00,0.0012
2498.00,0.0012
2497.00,0.0012
2496.00,0.0012
2495.00,0.0012
2494.00,0.0011
2493.00,0.0011
2492.00,0.0011
2491.00,0.0012
2490.00,0.0012
2489.00,0.0013
2488.00,0.0013
2487.00,0.0013
2486.00,0.0013
2485.00,0.0013
2484.00,0.0013
2483.00,0.0013
2482.00,0.0012
2481.00,0.0012
2480.00,0.0010
2479.00,0.0010
2478.00,0.0010
2477.00,0.0010
2476.00,0.0011
2475.00,0.0011
2474.00,0.0011
2473.00,0.0010
2472.00,0.0011
2471.00,0.0011
2470.00,0.0011
2469.00,0.0011
2468.00,0.0011
2467.00,0.0011
2466.00,0.0011
2465.00,0.0011
2464.00,0.0011
2463.00,0.0010
2462.00,0.0010
2461.00,0.0009
2460.00,0.0009
2459.00,0.0009
2458.00,0.0011
2457.00,0.0012
2456.00,0.0013
2455.00,0.0013
2454.00,0.0013
2453.00,0.0013
2452.00,0.0013
2451.00,0.0013
2450.00,0.0013
2449.00,0.0013
2448.00,0.0013
2447.00,0.0013
2446.00,0.0013
2445.00,0.0013
2444.00,0.0013
2443.00,0.0013
2442.00,0.0013
2441.00,0.0012
2440.00,0.0012
2439.00,0.0012
2438.00,0.0012
2437.00,0.0013
2436.00,0.0013
2435.00,0.0013
2434.00,0.0014
2433.00,0.0014
2432.00,0.0014
2431.00,0.0013
2430.00,0.0013
2429.00,0.0013
2428.00,0.0013
2427.00,0.0013
2426.00,0.0013
2425.00,0.0013
2424.00,0.0013
2423.00,0.0012
2422.00,0.0012
2421.00,0.0012
2420.00,0.0012
2419.00,0.0012
2418.00,0.0012
2417.00,0.0011
2416.00,0.0011
2415.00,0.0011
2414.00,0.0012
2413.00,0.0012
2412.00,0.0012
2411.00,0.0012
2410.00,0.0012
2409.00,0.0012
2408.00,0.0011
2407.00,0.0010
2406.00,0.0010
2405.00,0.0010
2404.00,0.0010
2403.00,0.0011
2402.00,0.0011
2401.00,0.0010
2400.00,0.0010
2399.00,0.0009
2398.00,0.0009
2397.00,0.0009
2396.00,0.0009
2395.00,0.0009
2394.00,0.0009
2393.00,0.0009
2392.00,0.0008
2391.00,0.0008
2390.00,0.0008
2389.00,0.0008
2388.00,0.0008
2387.00,0.0008
2386.00,0.0008
2385.00,0.0008
2384.00,0.0008
2383.00,0.0008
2382.00,0.0007
2381.00,0.0007
2380.00,0.0006
2379.00,0.0006
2378.00,0.0006
2377.00,0.0006
2376.00,0.0006
2375.00,0.0006
2374.00,0.0006
2373.00,0.0006
2372.00,0.0005
2371.00,0.0005
2370.00,0.0005
2369.00,0.0004
2368.00,0.0004
2367.00,0.0004
2366.00,0.0004
2365.00,0.0004
2364.00,0.0004
2363.00,0.0005
2362.00,0.0005
2361.00,0.0005
2360.00,0.0005
2359.00,0.0005
2358.00,0.0005
2357.00,0.0004
2356.00,0.0003
2355.00,0.0001
2354.00,-0.0001
2353.00,-0.0003
2352.00,-0.0005
2351.00,-0.0005
2350.00,-0.0003
2349.00,0.0000
2348.00,0.0005
2347.00,0.0008
2346.00,0.0010
2345.00,0.0009
2344.00,0.0008
2343.00,0.0007
2342.00,0.0006
2341.00,0.0006
2340.00,0.0006
2339.00,0.0006
2338.00,0.0007
2337.00,0.0007
2336.00,0.0007
2335.00,0.0007
2334.00,0.0007
2333.00,0.0007
2332.00,0.0006
2331.00,0.0005
2330.00,0.0004
2329.00,0.0004
2328.00,0.0006
2327.00,0.0010
2326.00,0.0015
2325.00,0.0019
2324.00,0.0020
2323.00,0.0019
2322.00,0.0016
2321.00,0.0014
2320.00,0.0011
2319.00,0.0010
2318.00,0.0009
2317.00,0.0009
2316.00,0.0009
2315.00,0.0009
2314.00,0.0008
2313.00,0.0008
2312.00,0.0007
2311.00,0.0006
2310.00,0.0005
2309.00,0.0005
2308.00,0.0005
2307.00,0.0005
2306.00,0.0005
2305.00,0.0005
2304.00,0.0005
2303.00,0.0006
2302.00,0.0007
2301.00,0.0008
2300.00,0.0009
2299.00,0.0009
2298.00,0.0010
2297.00,0.0011
2296.00,0.0012
2295.00,0.0013
2294.00,0.0014
2293.00,0.0015
2292.00,0.0016
2291.00,0.0018
2290.00,0.0019
2289.00,0.0019
2288.00,0.0019
2287.00,0.0019
2286.00,0.0019
2285.00,0.0019
2284.00,0.0018
2283.00,0.0018
2282.00,0.0018
2281.00,0.0018
2280.00,0.0018
2279.00,0.0018
2278.00,0.0017
2277.00,0.0016
2276.00,0.0015
2275.00,0.0014
2274.00,0.0014
2273.00,0.0013
2272.00,0.0013
2271.00,0.0013
2270.00,0.0012
2269.00,0.0012
2268.00,0.0011
2267.00,0.0010
2266.00,0.0010
2265.00,0.0010
2264.00,0.0010
2263.00,0.0010
2262.00,0.0010
2261.00,0.0011
2260.00,0.0012
2259.00,0.0013
2258.00,0.0014
2257.00,0.0015
2256.00,0.0014
2255.00,0.0013
2254.00,0.0012
2253.00,0.0012
2252.00,0.0012
2251.00,0.0012
2250.00,0.0012
2249.00,0.0010
2248.00,0.0009
2247.00,0.0008
2246.00,0.0008
2245.00,0.0008
2244.00,0.0009
2243.00,0.0010
2242.00,0.0011
2241.00,0.0011
2240.00,0.0010
2239.00,0.0010
2238.00,0.0009
2237.00,0.0009
2236.00,0.0010
2235.00,0.0011
2234.00,0.0012
2233.00,0.0011
2232.00,0.0011
2231.00,0.0010
2230.00,0.0010
2229.00,0.0010
2228.00,0.0010
2227.00,0.0010
2226.00,0.0009
2225.00,0.0010
2224.00,0.0012
2223.00,0.0012
2222.00,0.0012
2221.00,0.0010
2220.00,0.0009
2219.00,0.0008
2218.00,0.0006
2217.00,0.0005
2216.00,0.0004
2215.00,0.0004
2214.00,0.0005
2213.00,0.0006
2212.00,0.0009
2211.00,0.0010
2210.00,0.0010
2209.00,0.0009
2208.00,0.0007
2207.00,0.0007
2206.00,0.0006
2205.00,0.0006
2204.00,0.0005
2203.00,0.0004
2202.00,0.0004
2201.00,0.0005
2200.00,0.0007
2199.00,0.0009
2198.00,0.0009
2197.00,0.0009
2196.00,0.0009
2195.00,0.0008
2194.00,0.0009
2193.00,0.0010
2192.00,0.0011
2191.00,0.0011
2190.00,0.0011
2189.00,0.0011
2188.00,0.0010
2187.00,0.0009
2186.00,0.0009
2185.00,0.0009
2184.00,0.0008
2183.00,0.0007
2182.00,0.0006
2181.00,0.0006
2180.00,0.0007
2179.00,0.0009
2178.00,0.0011
2177.00,0.0011
2176.00,0.0011
2175.00,0.0011
2174.00,0.0011
2173.00,0.0012
2172.00,0.0011
2171.00,0.0010
2170.00,0.0011
2169.00,0.0013
2168.00,0.0015
2167.00,0.0016
2166.00,0.0015
2165.00,0.0015
2164.00,0.0017
2163.00,0.0019
2162.00,0.0021
2161.00,0.0019
2160.00,0.0009
2159.00,-0.0008
2158.00,-0.0023
2157.00,-0.0031
2156.00,-0.0028
2155.00,-0.0021
2154.00,-0.0014
2153.00,-0.0010
2152.00,-0.0011
2151.00,-0.0012
2150.00,-0.0013
2149.00,-0.0013
2148.00,-0.0013
2147.00,-0.0014
2146.00,-0.0014
2145.00,-0.0013
2144.00,-0.0012
2143.00,-0.0012
2142.00,-0.0012
2141.00,-0.0012
2140.00,-0.0011
2139.00,-0.0010
2138.00,-0.0009
2137.00,-0.0008
2136.00,-0.0008
2135.00,-0.0011
2134.00,-0.0013
2133.00,-0.0014
2132.00,-0.0014
2131.00,-0.0012
2130.00,-0.0010
2129.00,-0.0009
2128.00,-0.0008
2127.00,-0.0008
2126.00,-0.0007
2125.00,-0.0006
2124.00,-0.0004
2123.00,-0.0003
2122.00,-0.0001
2121.00,0.0001
2120.00,0.0002
2119.00,0.0003
2118.00,0.0003
2117.00,0.0004
2116.00,0.0006
2115.00,0.0008
2114.00,0.0008
2113.00,0.0008
2112.00,0.0008
2111.00,0.0006
2110.00,0.0005
2109.00,0.0005
2108.00,0.0005
2107.00,0.0005
2106.00,0.0006
2105.00,0.0006
2104.00,0.0006
2103.00,0.0005
2102.00,0.0005
2101.00,0.0005
2100.00,0.0005
2099.00,0.0006
2098.00,0.0005
2097.00,0.0003
2096.00,0.0001
2095.00,-0.0002
2094.00,-0.0004
2093.00,-0.0004
2092.00,-0.0002
2091.00,-0.0000
2090.00,0.0002
2089.00,0.0003
2088.00,0.0005
2087.00,0.0006
2086.00,0.0006
2085.00,0.0006
2084.00,0.0005
2083.00,0.0004
2082.00,0.0004
2081.00,0.0004
2080.00,0.0005
2079.00,0.0005
2078.00,0.0004
2077.00,0.0003
2076.00,0.0002
2075.00,0.0001
2074.00,0.0000
2073.00,0.0001
2072.00,0.0001
2071.00,0.0001
2070.00,0.0000
2069.00,0.0001
2068.00,0.0002
2067.00,0.0003
2066.00,0.0004
2065.00,0.0004
2064.00,0.0002
2063.00,0.0001
2062.00,0.0000
2061.00,0.0000
2060.00,0.0001
2059.00,0.0002
2058.00,0.0003
2057.00,0.0003
2056.00,0.0002
2055.00,0.0002
2054.00,0.0003
2053.00,0.0008
2052.00,0.0013
2051.00,0.0016
2050.00,0.0015
2049.00,0.0011
2048.00,0.0007
2047.00,0.0004
2046.00,0.0002
2045.00,-0.0001
2044.00,-0.0003
2043.00,-0.0003
2042.00,-0.0001
2041.00,0.0001
2040.00,0.0001
2039.00,0.0000
2038.00,-0.0001
2037.00,-0.0002
2036.00,-0.0002
2035.00,-0.0003
2034.00,-0.0005
2033.00,-0.0008
2032.00,-0.0011
2031.00,-0.0015
2030.00,-0.0018
2029.00,-0.0019
2028.00,-0.0019
2027.00,-0.0018
2026.00,-0.0017
2025.00,-0.0017
2024.00,-0.0017
2023.00,-0.0017
2022.00,-0.0015
2021.00,-0.0013
2020.00,-0.0012
2019.00,-0.0013
2018.00,-0.0015
2017.00,-0.0016
2016.00,-0.0016
2015.00,-0.0015
2014.00,-0.0014
2013.00,-0.0013
2012.00,-0.0012
2011.00,-0.0011
2010.00,-0.0011
2009.00,-0.0012
2008.00,-0.0013
2007.00,-0.0016
2006.00,-0.0018
2005.00,-0.0017
2004.00,-0.0015
2003.00,-0.0013
2002.00,-0.0013
2001.00,-0.0014
2000.00,-0.0014
1999.00,-0.0013
1998.00,-0.0012
1997.00,-0.0013
1996.00,-0.0013
1995.00,-0.0013
1994.00,-0.0013
1993.00,-0.0013
1992.00,-0.0011
1991.00,-0.0009
1990.00,-0.0007
1989.00,-0.0004
1988.00,-0.0002
1987.00,-0.0001
1986.00,0.0000
1985.00,0.0003
1984.00,0.0006
1983.00,0.0009
1982.00,0.0011
1981.00,0.0011
1980.00,0.0009
1979.00,0.0004
1978.00,-0.0002
1977.00,-0.0007
1976.00,-0.0009
1975.00,-0.0009
1974.00,-0.0010
1973.00,-0.0012
1972.00,-0.0014
1971.00,-0.0015
1970.00,-0.0015
1969.00,-0.0015
1968.00,-0.0016
1967.00,-0.0017
1966.00,-0.0017
1965.00,-0.0015
1964.00,-0.0014
1963.00,-0.0016
1962.00,-0.0019
1961.00,-0.0022
1960.00,-0.0023
1959.00,-0.0023
1958.00,-0.0021
1957.00,-0.0018
1956.00,-0.0017
1955.00,-0.0016
1954.00,-0.0016
1953.00,-0.0014
1952.00,-0.0012
1951.00,-0.0010
1950.00,-0.0009
1949.00,-0.0009
1948.00,-0.0011
1947.00,-0.0014
1946.00,-0.0018
1945.00,-0.0020
1944.00,-0.0020
1943.00,-0.0018
1942.00,-0.0016
1941.00,-0.0014
1940.00,-0.0013
1939.00,-0.0013
1938.00,-0.0013
1937.00,-0.0012
1936.00,-0.0012
1935.00,-0.0011
1934.00,-0.0011
1933.00,-0.0009
1932.00,-0.0008
1931.00,-0.0007
1930.00,-0.0007
1929.00,-0.0007
1928.00,-0.0006
1927.00,-0.0006
1926.00,-0.0005
1925.00,-0.0004
1924.00,-0.0003
1923.00,-0.0002
1922.00,-0.0002
1921.00,-0.0003
1920.00,-0.0003
1919.00,-0.0004
1918.00,-0.0003
1917.00,-0.0001
1916.00,-0.0000
1915.00,-0.0000
1914.00,-0.0001
1913.00,-0.0002
1912.00,-0.0002
1911.00,-0.0001
1910.00,-0.0000
1909.00,0.0001
1908.00,0.0001
1907.00,0.0000
1906.00,-0.0001
1905.00,-0.0002
1904.00,-0.0002
1903.00,-0.0002
1902.00,-0.0001
1901.00,-0.0000
1900.00,0.0000
1899.00,0.0000
1898.00,0.0000
1897.00,-0.0000
1896.00,-0.0001
1895.00,-0.0002
1894.00,-0.0003
1893.00,-0.0003
1892.00,-0.0002
1891.00,-0.0002
1890.00,-0.0001
1889.00,-0.0000
1888.00,0.0001
1887.00,0.0002
1886.00,0.0003
1885.00,0.0002
1884.00,0.0001
1883.00,-0.0001
1882.00,-0.0002
1881.00,-0.0002
1880.00,-0.0003
1879.00,-0.0003
1878.00,-0.0002
1877.00,-0.0002
1876.00,-0.0001
1875.00,-0.0000
1874.00,0.0000
1873.00,0.0001
1872.00,0.0001
1871.00,0.0002
1870.00,0.0002
1869.00,0.0002
1868.00,0.0002
1867.00,0.0002
1866.00,0.0001
1865.00,0.0001
1864.00,0.0002
1863.00,0.0002
1862.00,0.0002
1861.00,0.0002
1860.00,0.0001
1859.00,0.0001
1858.00,0.0001
1857.00,0.0001
1856.00,0.0000
1855.00,0.0000
1854.00,0.0000
1853.00,0.0001
1852.00,0.0002
1851.00,0.0003
1850.00,0.0003
1849.00,0.0004
1848.00,0.0004
1847.00,0.0004
1846.00,0.0003
1845.00,0.0002
1844.00,0.0002
1843.00,0.0003
1842.00,0.0003
1841.00,0.0004
1840.00,0.0003
1839.00,0.0003
1838.00,0.0003
1837.00,0.0003
1836.00,0.0004
1835.00,0.0004
1834.00,0.0004
1833.00,0.0004
1832.00,0.0004
1831.00,0.0005
1830.00,0.0004
1829.00,0.0004
1828.00,0.0004
1827.00,0.0004
1826.00,0.0004
1825.00,0.0005
1824.00,0.0005
1823.00,0.0005
1822.00,0.0004
1821.00,0.0003
1820.00,0.0002
1819.00,0.0001
1818.00,0.0001
1817.00,0.0001
1816.00,0.0002
1815.00,0.0003
1814.00,0.0003
1813.00,0.0004
1812.00,0.0004
1811.00,0.0005
1810.00,0.0005
1809.00,0.0006
1808.00,0.0006
1807.00,0.0007
1806.00,0.0007
1805.00,0.0007
1804.00,0.0006
1803.00,0.0006
1802.00,0.0006
1801.00,0.0006
1800.00,0.0007
1799.00,0.0007
1798.00,0.0008
1797.00,0.0008
1796.00,0.0009
1795.00,0.0009
1794.00,0.0009
1793.00,0.0009
1792.00,0.0009
1791.00,0.0009
1790.00,0.0010
1789.00,0.0010
1788.00,0.0010
1787.00,0.0010
1786.00,0.0011
1785.00,0.0011
1784.00,0.0011
1783.00,0.0011
1782.00,0.0011
1781.00,0.0011
1780.00,0.0011
1779.00,0.0011
1778.00,0.0012
1777.00,0.0012
1776.00,0.0012
1775.00,0.0012
1774.00,0.0013
1773.00,0.0014
1772.00,0.0016
1771.00,0.0017
1770.00,0.0017
1769.00,0.0017
1768.00,0.0018
1767.00,0.0018
1766.00,0.0018
1765.00,0.0018
1764.00,0.0018
1763.00,0.0018
1762.00,0.0019
1761.00,0.0019
1760.00,0.0019
1759.00,0.0019
1758.00,0.0020
1757.00,0.0021
1756.00,0.0022
1755.00,0.0023
1754.00,0.0024
1753.00,0.0026
1752.00,0.0028
1751.00,0.0031
1750.00,0.0033
1749.00,0.0034
1748.00,0.0035
1747.00,0.0035
1746.00,0.0036
1745.00,0.0037
1744.00,0.0039
1743.00,0.0041
1742.00,0.0042
1741.00,0.0043
1740.00,0.0044
1739.00,0.0045
1738.00,0.0046
1737.00,0.0047
1736.00,0.0047
1735.00,0.0047
1734.00,0.0048
1733.00,0.0048
1732.00,0.0049
1731.00,0.0049
1730.00,0.0047
1729.00,0.0046
1728.00,0.0045
1727.00,0.0045
1726.00,0.0044
1725.00,0.0044
1724.00,0.0044
1723.00,0.0044
1722.00,0.0044
1721.00,0.0043
1720.00,0.0043
1719.00,0.0042
1718.00,0.0041
1717.00,0.0040
1716.00,0.0040
1715.00,0.0040
1714.00,0.0039
1713.00,0.0037
1712.00,0.0037
1711.00,0.0036
1710.00,0.0036
1709.00,0.0036
1708.00,0.0036
1707.00,0.0036
1706.00,0.0037
1705.00,0.0037
1704.00,0.0038
1703.00,0.0038
1702.00,0.0039
1701.00,0.0040
1700.00,0.0041
1699.00,0.0041
1698.00,0.0042
1697.00,0.0042
1696.00,0.0043
1695.00,0.0044
1694.00,0.0045
1693.00,0.0046
1692.00,0.0046
1691.00,0.0047
1690.00,0.0047
1689.00,0.0048
1688.00,0.0049
1687.00,0.0050
1686.00,0.0051
1685.00,0.0054
1684.00,0.0057
1683.00,0.0060
1682.00,0.0061
1681.00,0.0062
1680.00,0.0064
1679.00,0.0065
1678.00,0.0067
1677.00,0.0069
1676.00,0.0071
1675.00,0.0073
1674.00,0.0075
1673.00,0.0076
1672.00,0.0077
1671.00,0.0078
1670.00,0.0079
1669.00,0.0081
1668.00,0.0082
1667.00,0.0083
1666.00,0.0084
1665.00,0.0085
1664.00,0.0086
1663.00,0.0087
1662.00,0.0088
1661.00,0.0089
1660.00,0.0090
1659.00,0.0091
1658.00,0.0092
1657.00,0.0094
1656.00,0.0095
1655.00,0.0097
1654.00,0.0099
1653.00,0.0101
1652.00,0.0103
1651.00,0.0105
1650.00,0.0106
1649.00,0.0107
1648.00,0.0108
1647.00,0.0109
1646.00,0.0111
1645.00,0.0113
1644.00,0.0114
1643.00,0.0115
1642.00,0.0116
1641.00,0.0117
1640.00,0.0118
1639.00,0.0119
1638.00,0.0120
1637.00,0.0122
1636.00,0.0123
1635.00,0.0122
1634.00,0.0121
1633.00,0.0120
1632.00,0.0120
1631.00,0.0119
1630.00,0.0118
1629.00,0.0118
1628.00,0.0118
1627.00,0.0117
1626.00,0.0116
1625.00,0.0115
1624.00,0.0115
1623.00,0.0115
1622.00,0.0114
1621.00,0.0114
1620.00,0.0114
1619.00,0.0113
1618.00,0.0113
1617.00,0.0113
1616.00,0.0113
1615.00,0.0114
1614.00,0.0114
1613.00,0.0114
1612.00,0.0115
1611.00,0.0115
1610.00,0.0115
1609.00,0.0116
1608.00,0.0115
1607.00,0.0115
1606.00,0.0115
1605.00,0.0115
1604.00,0.0114
1603.00,0.0114
1602.00,0.0113
1601.00,0.0113
1600.00,0.0113
1599.00,0.0112
1598.00,0.0111
1597.00,0.0109
1596.00,0.0108
1595.00,0.0107
1594.00,0.0107
1593.00,0.0106
1592.00,0.0106
1591.00,0.0105
1590.00,0.0103
1589.00,0.0102
1588.00,0.0101
1587.00,0.0100
1586.00,0.0099
1585.00,0.0099
1584.00,0.0098
1583.00,0.0098
1582.00,0.0098
1581.00,0.0098
1580.00,0.0098
1579.00,0.0098
1578.00,0.0098
1577.00,0.0098
1576.00,0.0099
1575.00,0.0099
1574.00,0.0099
1573.00,0.0099
1572.00,0.0100
1571.00,0.0100
1570.00,0.0102
1569.00,0.0104
1568.00,0.0106
1567.00,0.0108
1566.00,0.0109
1565.00,0.0110
1564.00,0.0111
1563.00,0.0112
1562.00,0.0113
1561.00,0.0115
1560.00,0.0118
1559.00,0.0120
1558.00,0.0121
1557.00,0.0122
1556.00,0.0122
1555.00,0.0123
1554.00,0.0124
1553.00,0.0125
1552.00,0.0126
1551.00,0.0127
1550.00,0.0127
1549.00,0.0127
1548.00,0.0127
1547.00,0.0126
1546.00,0.0125
1545.00,0.0124
1544.00,0.0123
1543.00,0.0121
1542.00,0.0119
1541.00,0.0117
1540.00,0.0114
1539.00,0.0110
1538.00,0.0108
1537.00,0.0107
1536.00,0.0105
1535.00,0.0102
1534.00,0.0099
1533.00,0.0096
1532.00,0.0095
1531.00,0.0093
1530.00,0.0092
1529.00,0.0090
1528.00,0.0089
1527.00,0.0088
1526.00,0.0087
1525.00,0.0086
1524.00,0.0085
1523.00,0.0083
1522.00,0.0081
1521.00,0.0080
1520.00,0.0080
1519.00,0.0080
1518.00,0.0079
1517.00,0.0078
1516.00,0.0078
1515.00,0.0078
1514.00,0.0078
1513.00,0.0079
1512.00,0.0079
1511.00,0.0080
1510.00,0.0081
1509.00,0.0082
1508.00,0.0084
1507.00,0.0084
1506.00,0.0084
1505.00,0.0084
1504.00,0.0085
1503.00,0.0086
1502.00,0.0088
1501.00,0.0090
1500.00,0.0094
1499.00,0.0098
1498.00,0.0103
1497.00,0.0110
1496.00,0.0117
1495.00,0.0123
1494.00,0.0127
1493.00,0.0131
1492.00,0.0136
1491.00,0.0140
1490.00,0.0145
1489.00,0.0151
1488.00,0.0156
1487.00,0.0160
1486.00,0.0164
1485.00,0.0169
1484.00,0.0175
1483.00,0.0182
1482.00,0.0189
1481.00,0.0199
1480.00,0.0209
1479.00,0.0220
1478.00,0.0234
1477.00,0.0253
1476.00,0.0278
1475.00,0.0306
1474.00,0.0345
1473.00,0.0400
1472.00,0.0464
1471.00,0.0527
1470.00,0.0586
1469.00,0.0647
1468.00,0.0713
1467.00,0.0784
1466.00,0.0863
1465.00,0.0947
1464.00,0.1022
1463.00,0.1073
1462.00,0.1107
1461.00,0.1130
1460.00,0.1147
1459.00,0.1160
1458.00,0.1170
1457.00,0.1179
1456.00,0.1180
1455.00,0.1175
1454.00,0.1166
1453.00,0.1151
1452.00,0.1129
1451.00,0.1098
1450.00,0.1053
1449.00,0.0990
1448.00,0.0908
1447.00,0.0819
1446.00,0.0735
1445.00,0.0662
1444.00,0.0598
1443.00,0.0545
1442.00,0.0504
1441.00,0.0476
1440.00,0.0458
1439.00,0.0449
1438.00,0.0447
1437.00,0.0447
1436.00,0.0436
1435.00,0.0412
1434.00,0.0377
1433.00,0.0336
1432.00,0.0293
1431.00,0.0256
1430.00,0.0226
1429.00,0.0204
1428.00,0.0188
1427.00,0.0179
1426.00,0.0173
1425.00,0.0168
1424.00,0.0163
1423.00,0.0160
1422.00,0.0159
1421.00,0.0157
1420.00,0.0155
1419.00,0.0153
1418.00,0.0152
1417.00,0.0149
1416.00,0.0145
1415.00,0.0143
1414.00,0.0141
1413.00,0.0139
1412.00,0.0137
1411.00,0.0136
1410.00,0.0136
1409.00,0.0135
1408.00,0.0133
1407.00,0.0133
1406.00,0.0134
1405.00,0.0134
1404.00,0.0133
1403.00,0.0134
1402.00,0.0135
1401.00,0.0135
1400.00,0.0136
1399.00,0.0137
1398.00,0.0140
1397.00,0.0141
1396.00,0.0143
1395.00,0.0147
1394.00,0.0151
1393.00,0.0155
1392.00,0.0160
1391.00,0.0167
1390.00,0.0176
1389.00,0.0189
1388.00,0.0208
1387.00,0.0236
1386.00,0.0275
1385.00,0.0326
1384.00,0.0396
1383.00,0.0494
1382.00,0.0625
1381.00,0.0794
1380.00,0.1004
1379.00,0.1244
1378.00,0.1479
1377.00,0.1655
1376.00,0.1720
1375.00,0.1645
1374.00,0.1453
1373.00,0.1215
1372.00,0.0995
1371.00,0.0811
1370.00,0.0662
1369.00,0.0548
1368.00,0.0469
1367.00,0.0419
1366.00,0.0392
1365.00,0.0380
1364.00,0.0381
1363.00,0.0393
1362.00,0.0412
1361.00,0.0432
1360.00,0.0447
1359.00,0.0452
1358.00,0.0442
1357.00,0.0420
1356.00,0.0387
1355.00,0.0351
1354.00,0.0315
1353.00,0.0285
1352.00,0.0260
1351.00,0.0240
1350.00,0.0224
1349.00,0.0210
1348.00,0.0199
1347.00,0.0190
1346.00,0.0182
1345.00,0.0175
1344.00,0.0168
1343.00,0.0162
1342.00,0.0157
1341.00,0.0153
1340.00,0.0149
1339.00,0.0147
1338.00,0.0144
1337.00,0.0143
1336.00,0.0142
1335.00,0.0143
1334.00,0.0145
1333.00,0.0148
1332.00,0.0151
1331.00,0.0154
1330.00,0.0155
1329.00,0.0154
1328.00,0.0151
1327.00,0.0147
1326.00,0.0142
1325.00,0.0137
1324.00,0.0132
1323.00,0.0127
1322.00,0.0124
1321.00,0.0121
1320.00,0.0119
1319.00,0.0118
1318.00,0.0117
1317.00,0.0115
1316.00,0.0114
1315.00,0.0113
1314.00,0.0113
1313.00,0.0113
1312.00,0.0114
1311.00,0.0117
1310.00,0.0121
1309.00,0.0128
1308.00,0.0138
1307.00,0.0150
1306.00,0.0162
1305.00,0.0170
1304.00,0.0172
1303.00,0.0168
1302.00,0.0162
1301.00,0.0156
1300.00,0.0152
1299.00,0.0150
1298.00,0.0150
1297.00,0.0150
1296.00,0.0149
1295.00,0.0147
1294.00,0.0144
1293.00,0.0139
1292.00,0.0134
1291.00,0.0130
1290.00,0.0126
1289.00,0.0122
1288.00,0.0119
1287.00,0.0116
1286.00,0.0114
1285.00,0.0112
1284.00,0.0110
1283.00,0.0109
1282.00,0.0107
1281.00,0.0107
1280.00,0.0106
1279.00,0.0105
1278.00,0.0103
1277.00,0.0102
1276.00,0.0102
1275.00,0.0101
1274.00,0.0102
1273.00,0.0102
1272.00,0.0104
1271.00,0.0106
1270.00,0.0108
1269.00,0.0110
1268.00,0.0112
1267.00,0.0115
1266.00,0.0119
1265.00,0.0123
1264.00,0.0127
1263.00,0.0131
1262.00,0.0135
1261.00,0.0140
1260.00,0.0145
1259.00,0.0152
1258.00,0.0159
1257.00,0.0165
1256.00,0.0167
1255.00,0.0165
1254.00,0.0158
1253.00,0.0149
1252.00,0.0140
1251.00,0.0132
1250.00,0.0127
1249.00,0.0122
1248.00,0.0119
1247.00,0.0116
1246.00,0.0115
1245.00,0.0113
1244.00,0.0112
1243.00,0.0111
1242.00,0.0109
1241.00,0.0108
1240.00,0.0107
1239.00,0.0106
1238.00,0.0105
1237.00,0.0105
1236.00,0.0105
1235.00,0.0105
1234.00,0.0106
1233.00,0.0106
1232.00,0.0106
1231.00,0.0107
1230.00,0.0108
1229.00,0.0109
1228.00,0.0111
1227.00,0.0113
1226.00,0.0115
1225.00,0.0117
1224.00,0.0120
1223.00,0.0124
1222.00,0.0128
1221.00,0.0131
1220.00,0.0133
1219.00,0.0133
1218.00,0.0132
1217.00,0.0130
1216.00,0.0127
1215.00,0.0123
1214.00,0.0119
1213.00,0.0116
1212.00,0.0113
1211.00,0.0110
1210.00,0.0109
1209.00,0.0108
1208.00,0.0107
1207.00,0.0107
1206.00,0.0106
1205.00,0.0106
1204.00,0.0105
1203.00,0.0106
1202.00,0.0106
1201.00,0.0107
1200.00,0.0108
1199.00,0.0109
1198.00,0.0110
1197.00,0.0110
1196.00,0.0110
1195.00,0.0110
1194.00,0.0111
1193.00,0.0111
1192.00,0.0111
1191.00,0.0111
1190.00,0.0111
1189.00,0.0111
1188.00,0.0111
1187.00,0.0111
1186.00,0.0111
1185.00,0.0112
1184.00,0.0113
1183.00,0.0114
1182.00,0.0116
1181.00,0.0118
1180.00,0.0121
1179.00,0.0125
1178.00,0.0131
1177.00,0.0140
1176.00,0.0151
1175.00,0.0167
1174.00,0.0188
1173.00,0.0214
1172.00,0.0246
1171.00,0.0281
1170.00,0.0316
1169.00,0.0345
1168.00,0.0363
1167.00,0.0367
1166.00,0.0359
1165.00,0.0342
1164.00,0.0322
1163.00,0.0302
1162.00,0.0284
1161.00,0.0270
1160.00,0.0259
1159.00,0.0252
1158.00,0.0247
1157.00,0.0244
1156.00,0.0242
1155.00,0.0241
1154.00,0.0240
1153.00,0.0238
1152.00,0.0234
1151.00,0.0228
1150.00,0.0221
1149.00,0.0212
1148.00,0.0204
1147.00,0.0195
1146.00,0.0187
1145.00,0.0180
1144.00,0.0174
1143.00,0.0168
1142.00,0.0164
1141.00,0.0159
1140.00,0.0154
1139.00,0.0150
1138.00,0.0147
1137.00,0.0144
1136.00,0.0143
1135.00,0.0141
1134.00,0.0141
1133.00,0.0140
1132.00,0.0140
1131.00,0.0140
1130.00,0.0142
1129.00,0.0144
1128.00,0.0146
1127.00,0.0147
1126.00,0.0149
1125.00,0.0151
1124.00,0.0153
1123.00,0.0155
1122.00,0.0158
1121.00,0.0162
1120.00,0.0165
1119.00,0.0167
1118.00,0.0168
1117.00,0.0169
1116.00,0.0169
1115.00,0.0169
1114.00,0.0168
1113.00,0.0169
1112.00,0.0169
1111.00,0.0170
1110.00,0.0172
1109.00,0.0175
1108.00,0.0180
1107.00,0.0185
1106.00,0.0190
1105.00,0.0195
1104.00,0.0198
1103.00,0.0199
1102.00,0.0198
1101.00,0.0194
1100.00,0.0189
1099.00,0.0183
1098.00,0.0177
1097.00,0.0173
1096.00,0.0169
1095.00,0.0166
1094.00,0.0163
1093.00,0.0160
1092.00,0.0157
1091.00,0.0155
1090.00,0.0153
1089.00,0.0150
1088.00,0.0148
1087.00,0.0147
1086.00,0.0146
1085.00,0.0146
1084.00,0.0146
1083.00,0.0145
1082.00,0.0143
1081.00,0.0141
1080.00,0.0138
1079.00,0.0136
1078.00,0.0134
1077.00,0.0133
1076.00,0.0132
1075.00,0.0132
1074.00,0.0132
1073.00,0.0131
1072.00,0.0129
1071.00,0.0128
1070.00,0.0127
1069.00,0.0126
1068.00,0.0127
1067.00,0.0127
1066.00,0.0127
1065.00,0.0127
1064.00,0.0127
1063.00,0.0127
1062.00,0.0128
1061.00,0.0129
1060.00,0.0131
1059.00,0.0132
1058.00,0.0132
1057.00,0.0133
1056.00,0.0134
1055.00,0.0135
1054.00,0.0137
1053.00,0.0138
1052.00,0.0141
1051.00,0.0144
1050.00,0.0149
1049.00,0.0154
1048.00,0.0159
1047.00,0.0165
1046.00,0.0170
1045.00,0.0173
1044.00,0.0174
1043.00,0.0173
1042.00,0.0171
1041.00,0.0168
1040.00,0.0165
1039.00,0.0164
1038.00,0.0163
1037.00,0.0162
1036.00,0.0161
1035.00,0.0160
1034.00,0.0159
1033.00,0.0158
1032.00,0.0157
1031.00,0.0155
1030.00,0.0154
1029.00,0.0154
1028.00,0.0154
1027.00,0.0155
1026.00,0.0157
1025.00,0.0158
1024.00,0.0160
1023.00,0.0162
1022.00,0.0164
1021.00,0.0166
1020.00,0.0168
1019.00,0.0169
1018.00,0.0170
1017.00,0.0171
1016.00,0.0170
1015.00,0.0169
1014.00,0.0168
1013.00,0.0167
1012.00,0.0167
1011.00,0.0167
1010.00,0.0168
1009.00,0.0170
1008.00,0.0172
1007.00,0.0176
1006.00,0.0182
1005.00,0.0193
1004.00,0.0209
1003.00,0.0233
1002.00,0.0265
1001.00,0.0306
1000.00,0.0351
999.00,0.0390
998.00,0.0410
997.00,0.0405
996.00,0.0375
995.00,0.0331
994.00,0.0284
993.00,0.0243
992.00,0.0211
991.00,0.0189
990.00,0.0173
989.00,0.0162
988.00,0.0154
987.00,0.0149
986.00,0.0147
985.00,0.0147
984.00,0.0149
983.00,0.0155
982.00,0.0164
981.00,0.0179
980.00,0.0200
979.00,0.0228
978.00,0.0264
977.00,0.0307
976.00,0.0355
975.00,0.0402
974.00,0.0440
973.00,0.0458
972.00,0.0447
971.00,0.0409
970.00,0.0354
969.00,0.0296
968.00,0.0247
967.00,0.0209
966.00,0.0182
965.00,0.0163
964.00,0.0149
963.00,0.0139
962.00,0.0132
961.00,0.0126
960.00,0.0121
959.00,0.0116
958.00,0.0113
957.00,0.0110
956.00,0.0108
955.00,0.0105
954.00,0.0103
953.00,0.0101
952.00,0.0100
951.00,0.0099
950.00,0.0098
949.00,0.0098
948.00,0.0098
947.00,0.0098
946.00,0.0100
945.00,0.0103
944.00,0.0106
943.00,0.0110
942.00,0.0113
941.00,0.0115
940.00,0.0115
939.00,0.0112
938.00,0.0107
937.00,0.0102
936.00,0.0097
935.00,0.0093
934.00,0.0090
933.00,0.0088
932.00,0.0086
931.00,0.0085
930.00,0.0085
929.00,0.0085
928.00,0.0084
927.00,0.0084
926.00,0.0083
925.00,0.0083
924.00,0.0083
923.00,0.0084
922.00,0.0083
921.00,0.0083
920.00,0.0082
919.00,0.0082
918.00,0.0082
917.00,0.0083
916.00,0.0084
915.00,0.0084
914.00,0.0085
913.00,0.0085
912.00,0.0086
911.00,0.0088
910.00,0.0090
909.00,0.0092
908.00,0.0094
907.00,0.0098
906.00,0.0104
905.00,0.0113
904.00,0.0127
903.00,0.0143
902.00,0.0162
901.00,0.0179
900.00,0.0190
899.00,0.0193
898.00,0.0187
897.00,0.0172
896.00,0.0155
895.00,0.0139
894.00,0.0126
893.00,0.0116
892.00,0.0109
891.00,0.0104
890.00,0.0100
889.00,0.0097
888.00,0.0095
887.00,0.0093
886.00,0.0093
885.00,0.0093
884.00,0.0094
883.00,0.0094
882.00,0.0094
881.00,0.0094
880.00,0.0095
879.00,0.0096
878.00,0.0096
877.00,0.0096
876.00,0.0096
875.00,0.0095
874.00,0.0094
873.00,0.0093
872.00,0.0093
871.00,0.0093
870.00,0.0093
869.00,0.0094
868.00,0.0095
867.00,0.0095
866.00,0.0095
865.00,0.0096
864.00,0.0097
863.00,0.0098
862.00,0.0099
861.00,0.0100
860.00,0.0101
859.00,0.0102
858.00,0.0103
857.00,0.0105
856.00,0.0106
855.00,0.0108
854.00,0.0109
853.00,0.0111
852.00,0.0113
851.00,0.0117
850.00,0.0123
849.00,0.0130
848.00,0.0140
847.00,0.0155
846.00,0.0177
845.00,0.0211
844.00,0.0260
843.00,0.0320
842.00,0.0375
841.00,0.0400
840.00,0.0382
839.00,0.0330
838.00,0.0267
837.00,0.0213
836.00,0.0176
835.00,0.0154
834.00,0.0142
833.00,0.0135
832.00,0.0131
831.00,0.0127
830.00,0.0124
829.00,0.0121
828.00,0.0119
827.00,0.0117
826.00,0.0116
825.00,0.0116
824.00,0.0117
823.00,0.0117
822.00,0.0117
821.00,0.0117
820.00,0.0119
819.00,0.0123
818.00,0.0128
817.00,0.0135
816.00,0.0144
815.00,0.0155
814.00,0.0168
813.00,0.0184
812.00,0.0202
811.00,0.0219
810.00,0.0232
809.00,0.0239
808.00,0.0237
807.00,0.0225
806.00,0.0208
805.00,0.0189
804.00,0.0172
803.00,0.0160
802.00,0.0151
801.00,0.0145
800.00,0.0140
799.00,0.0136
798.00,0.0132
797.00,0.0128
796.00,0.0124
795.00,0.0120
794.00,0.0116
793.00,0.0113
792.00,0.0111
791.00,0.0109
790.00,0.0106
789.00,0.0103
788.00,0.0100
787.00,0.0098
786.00,0.0096
785.00,0.0095
784.00,0.0094
783.00,0.0093
782.00,0.0091
781.00,0.0088
780.00,0.0085
779.00,0.0084
778.00,0.0084
777.00,0.0086
776.00,0.0088
775.00,0.0090
774.00,0.0090
773.00,0.0090
772.00,0.0088
771.00,0.0087
770.00,0.0086
769.00,0.0087
768.00,0.0087
767.00,0.0088
766.00,0.0088
765.00,0.0089
764.00,0.0090
763.00,0.0090
762.00,0.0090
761.00,0.0090
760.00,0.0090
759.00,0.0090
758.00,0.0092
757.00,0.0094
756.00,0.0096
755.00,0.0098
754.00,0.0099
753.00,0.0100
752.00,0.0101
751.00,0.0102
750.00,0.0104
749.00,0.0105
748.00,0.0107
747.00,0.0109
746.00,0.0111
745.00,0.0113
744.00,0.0115
743.00,0.0118
742.00,0.0122
741.00,0.0126
740.00,0.0131
739.00,0.0137
738.00,0.0142
737.00,0.0148
736.00,0.0153
735.00,0.0158
734.00,0.0163
733.00,0.0168
732.00,0.0174
731.00,0.0180
730.00,0.0184
729.00,0.0187
728.00,0.0188
727.00,0.0190
726.00,0.0192
725.00,0.0196
724.00,0.0200
723.00,0.0203
722.00,0.0206
721.00,0.0207
720.00,0.0204
719.00,0.0196
718.00,0.0185
717.00,0.0173
716.00,0.0163
715.00,0.0156
714.00,0.0151
713.00,0.0148
712.00,0.0146
711.00,0.0144
710.00,0.0142
709.00,0.0142
708.00,0.0143
707.00,0.0143
706.00,0.0143
705.00,0.0143
704.00,0.0142
703.00,0.0140
702.00,0.0137
701.00,0.0133
700.00,0.0130
699.00,0.0127
698.00,0.0124
697.00,0.0122
696.00,0.0122
695.00,0.0122
694.00,0.0123
693.00,0.0123
692.00,0.0122
691.00,0.0121
690.00,0.0121
689.00,0.0122
688.00,0.0123
687.00,0.0123
686.00,0.0123
685.00,0.0123
684.00,0.0123
683.00,0.0123
682.00,0.0123
681.00,0.0123
680.00,0.0122
679.00,0.0121
678.00,0.0121
677.00,0.0122
676.00,0.0123
675.00,0.0124
674.00,0.0125
673.00,0.0127
672.00,0.0129
671.00,0.0131
670.00,0.0132
669.00,0.0130
668.00,0.0125
667.00,0.0121
666.00,0.0121
665.00,0.0121
664.00,0.0122
663.00,0.0123
662.00,0.0122
661.00,0.0121
660.00,0.0121
659.00,0.0121
658.00,0.0121
657.00,0.0122
656.00,0.0122
655.00,0.0123
654.00,0.0123
653.00,0.0122
652.00,0.0120
651.00,0.0119
650.00,0.0117
649.00,0.0117
648.00,0.0117
647.00,0.0118
646.00,0.0119
645.00,0.0119
644.00,0.0120
643.00,0.0119
642.00,0.0118
641.00,0.0117
640.00,0.0115
639.00,0.0114
638.00,0.0114
637.00,0.0114
636.00,0.0115
635.00,0.0117
634.00,0.0118
633.00,0.0118
632.00,0.0118
631.00,0.0119
630.00,0.0121
629.00,0.0121
628.00,0.0120
627.00,0.0118
626.00,0.0116
625.00,0.0116
624.00,0.0118
623.00,0.0119
622.00,0.0119
621.00,0.0117
620.00,0.0115
619.00,0.0115
618.00,0.0118
617.00,0.0121
616.00,0.0122
615.00,0.0120
614.00,0.0119
613.00,0.0119
612.00,0.0122
611.00,0.0122
610.00,0.0121
609.00,0.0117
608.00,0.0115
607.00,0.0114
606.00,0.0116
605.00,0.0117
604.00,0.0118
603.00,0.0117
602.00,0.0114
601.00,0.0111
600.00,0.0110
599.00,0.0112
598.00,0.0116
597.00,0.0118
596.00,0.0118
595.00,0.0117
594.00,0.0116
593.00,0.0116
592.00,0.0117
591.00,0.0118
590.00,0.0119
589.00,0.0120
588.00,0.0121
587.00,0.0120
586.00,0.0118
585.00,0.0117
584.00,0.0117
583.00,0.0118
582.00,0.0118
581.00,0.0117
580.00,0.0116
579.00,0.0115
578.00,0.0115
577.00,0.0117
576.00,0.0120
575.00,0.0124
574.00,0.0126
573.00,0.0127
572.00,0.0127
571.00,0.0126
570.00,0.0124
569.00,0.0122
568.00,0.0121
567.00,0.0120
566.00,0.0120
565.00,0.0121
564.00,0.0122
563.00,0.0123
562.00,0.0124
561.00,0.0123
560.00,0.0121
559.00,0.0118
558.00,0.0113
557.00,0.0109
556.00,0.0108
555.00,0.0110
554.00,0.0113
553.00,0.0115
552.00,0.0116
551.00,0.0117
550.00,0.0119
549.00,0.0119
548.00,0.0117
547.00,0.0116
546.00,0.0116
545.00,0.0117
544.00,0.0120
543.00,0.0123
542.00,0.0125
541.00,0.0129
540.00,0.0135
539.00,0.0142
538.00,0.0148
537.00,0.0152
536.00,0.0153
535.00,0.0153
534.00,0.0151
533.00,0.0148
532.00,0.0145
531.00,0.0142
530.00,0.0140
529.00,0.0140
528.00,0.0141
527.00,0.0141
526.00,0.0140
525.00,0.0139
524.00,0.0136
523.00,0.0133
522.00,0.0129
521.00,0.0125
520.00,0.0123
519.00,0.0125
518.00,0.0130
517.00,0.0136
516.00,0.0138
515.00,0.0136
514.00,0.0130
513.00,0.0124
512.00,0.0119
511.00,0.0117
510.00,0.0116
509.00,0.0117
508.00,0.0120
507.00,0.0122
506.00,0.0122
505.00,0.0121
504.00,0.0119
503.00,0.0119
502.00,0.0118
501.00,0.0118
500.00,0.0118
499.00,0.0120
498.00,0.0122
497.00,0.0123
496.00,0.0120
495.00,0.0114
494.00,0.0107
493.00,0.0100
492.00,0.0099
491.00,0.0103
490.00,0.0110
489.00,0.0115
488.00,0.0117
487.00,0.0117
486.00,0.0114
485.00,0.0109
484.00,0.0106
483.00,0.0105
482.00,0.0103
481.00,0.0102
480.00,0.0105
479.00,0.0119
478.00,0.0141
477.00,0.0162
476.00,0.0175
475.00,0.0179
474.00,0.0178
473.00,0.0180
472.00,0.0188
471.00,0.0198
470.00,0.0204
469.00,0.0205
468.00,0.0201
467.00,0.0195
466.00,0.0193
465.00,0.0199
464.00,0.0211
463.00,0.0224
462.00,0.0231
461.00,0.0231
460.00,0.0227
459.00,0.0222
458.00,0.0222
457.00,0.0228
456.00,0.0239
455.00,0.0247
454.00,0.0251
453.00,0.0251
452.00,0.0250
451.00,0.0243
450.00,0.0228
