Created as New Dataset,Sample 025 By Administrator Date Thursday, September 04 2025
cm-1,A
4000.00,0.0013
3999.00,0.0013
3998.00,0.0013
3997.00,0.0012
3996.00,0.0012
3995.00,0.0012
3994.00,0.0012
3993.00,0.0012
3992.00,0.0012
3991.00,0.0012
3990.00,0.0012
3989.00,0.0012
3988.00,0.0012
3987.00,0.0012
3986.00,0.0012
3985.00,0.0011
3984.00,0.0011
3983.00,0.0011
3982.00,0.0011
3981.00,0.0011
3980.00,0.0011
3979.00,0.0011
3978.00,0.0011
3977.00,0.0011
3976.00,0.0011
3975.00,0.0011
3974.00,0.0011
3973.00,0.0012
3972.00,0.0012
3971.00,0.0012
3970.00,0.0011
3969.00,0.0011
3968.00,0.0011
3967.00,0.0011
3966.00,0.0011
3965.00,0.0011
3964.00,0.0011
3963.00,0.0011
3962.00,0.0011
3961.00,0.0011
3960.00,0.0011
3959.00,0.0011
3958.00,0.0010
3957.00,0.0010
3956.00,0.0010
3955.00,0.0010
3954.00,0.0010
3953.00,0.0010
3952.00,0.0010
3951.00,0.0010
3950.00,0.0010
3949.00,0.0010
3948.00,0.0010
3947.00,0.0010
3946.00,0.0010
3945.00,0.0010
3944.00,0.0010
3943.00,0.0010
3942.00,0.0010
3941.00,0.0010
3940.00,0.0010
3939.00,0.0010
3938.00,0.0010
3937.00,0.0011
3936.00,0.0011
3935.00,0.0011
3934.00,0.0011
3933.00,0.0010
3932.00,0.0010
3931.00,0.0010
3930.00,0.0010
3929.00,0.0010
3928.00,0.0010
3927.00,0.0010
3926.00,0.0010
3925.00,0.0011
3924.00,0.0011
3923.00,0.0011
3922.00,0.0011
3921.00,0.0011
3920.00,0.0011
3919.00,0.0011
3918.00,0.0012
3917.00,0.0012
3916.00,0.0012
3915.00,0.0012
3914.00,0.0011
3913.00,0.0011
3912.00,0.0011
3911.00,0.0011
3910.00,0.0010
3909.00,0.0010
3908.00,0.0010
3907.00,0.0011
3906.00,0.0011
3905.00,0.0011
3904.00,0.0011
3903.00,0.0010
3902.00,0.0010
3901.00,0.0009
3900.00,0.0009
3899.00,0.0009
3898.00,0.0009
3897.00,0.0009
3896.00,0.0009
3895.00,0.0009
3894.00,0.0009
3893.00,0.0009
3892.00,0.0009
3891.00,0.0009
3890.00,0.0009
3889.00,0.0009
3888.00,0.0009
3887.00,0.0009
3886.00,0.0009
3885.00,0.0009
3884.00,0.0009
3883.00,0.0009
3882.00,0.0009
3881.00,0.0010
3880.00,0.0010
3879.00,0.0010
3878.00,0.0010
3877.00,0.0010
3876.00,0.0010
3875.00,0.0010
3874.00,0.0010
3873.00,0.0010
3872.00,0.0009
3871.00,0.0009
3870.00,0.0009
3869.00,0.0009
3868.00,0.0009
3867.00,0.0009
3866.00,0.0008
3865.00,0.0008
3864.00,0.0008
3863.00,0.0009
3862.00,0.0009
3861.00,0.0009
3860.00,0.0009
3859.00,0.0009
3858.00,0.0009
3857.00,0.0009
3856.00,0.0009
3855.00,0.0009
3854.00,0.0008
3853.00,0.0008
3852.00,0.0008
3851.00,0.0008
3850.00,0.0008
3849.00,0.0009
3848.00,0.0009
3847.00,0.0009
3846.00,0.0009
3845.00,0.0009
3844.00,0.0009
3843.00,0.0009
3842.00,0.0009
3841.00,0.0008
3840.00,0.0008
3839.00,0.0008
3838.00,0.0008
3837.00,0.0009
3836.00,0.0009
3835.00,0.0010
3834.00,0.0010
3833.00,0.0010
3832.00,0.0010
3831.00,0.0010
3830.00,0.0010
3829.00,0.0009
3828.00,0.0009
3827.00,0.0009
3826.00,0.0009
3825.00,0.0009
3824.00,0.0010
3823.00,0.0010
3822.00,0.0009
3821.00,0.0009
3820.00,0.0008
3819.00,0.0008
3818.00,0.0008
3817.00,0.0008
3816.00,0.0009
3815.00,0.0009
3814.00,0.0010
3813.00,0.0010
3812.00,0.0010
3811.00,0.0010
3810.00,0.0010
3809.00,0.0010
3808.00,0.0010
3807.00,0.0009
3806.00,0.0009
3805.00,0.0009
3804.00,0.0009
3803.00,0.0009
3802.00,0.0009
3801.00,0.0008
3800.00,0.0008
3799.00,0.0008
3798.00,0.0008
3797.00,0.0009
3796.00,0.0009
3795.00,0.0009
3794.00,0.0009
3793.00,0.0009
3792.00,0.0009
3791.00,0.0009
3790.00,0.0009
3789.00,0.0009
3788.00,0.0009
3787.00,0.0009
3786.00,0.0009
3785.00,0.0009
3784.00,0.0009
3783.00,0.0009
3782.00,0.0009
3781.00,0.0009
3780.00,0.0009
3779.00,0.0009
3778.00,0.0009
3777.00,0.0010
3776.00,0.0010
3775.00,0.0010
3774.00,0.0010
3773.00,0.0009
3772.00,0.0009
3771.00,0.0009
3770.00,0.0009
3769.00,0.0009
3768.00,0.0009
3767.00,0.0009
3766.00,0.0009
3765.00,0.0009
3764.00,0.0009
3763.00,0.0009
3762.00,0.0009
3761.00,0.0009
3760.00,0.0009
3759.00,0.0008
3758.00,0.0008
3757.00,0.0008
3756.00,0.0008
3755.00,0.0007
3754.00,0.0007
3753.00,0.0007
3752.00,0.0008
3751.00,0.0008
3750.00,0.0008
3749.00,0.0009
3748.00,0.0009
3747.00,0.0009
3746.00,0.0009
3745.00,0.0008
3744.00,0.0008
3743.00,0.0007
3742.00,0.0007
3741.00,0.0007
3740.00,0.0008
3739.00,0.0008
3738.00,0.0008
3737.00,0.0008
3736.00,0.0008
3735.00,0.0008
3734.00,0.0009
3733.00,0.0009
3732.00,0.0008
3731.00,0.0008
3730.00,0.0008
3729.00,0.0009
3728.00,0.0009
3727.00,0.0009
3726.00,0.0009
3725.00,0.0009
3724.00,0.0009
3723.00,0.0009
3722.00,0.0009
3721.00,0.0009
3720.00,0.0009
3719.00,0.0009
3718.00,0.0009
3717.00,0.0009
3716.00,0.0008
3715.00,0.0008
3714.00,0.0008
3713.00,0.0008
3712.00,0.0008
3711.00,0.0009
3710.00,0.0009
3709.00,0.0009
3708.00,0.0009
3707.00,0.0009
3706.00,0.0009
3705.00,0.0009
3704.00,0.0009
3703.00,0.0009
3702.00,0.0009
3701.00,0.0009
3700.00,0.0009
3699.00,0.0009
3698.00,0.0009
3697.00,0.0009
3696.00,0.0009
3695.00,0.0009
3694.00,0.0009
3693.00,0.0009
3692.00,0.0009
3691.00,0.0009
3690.00,0.0009
3689.00,0.0009
3688.00,0.0009
3687.00,0.0009
3686.00,0.0009
3685.00,0.0009
3684.00,0.0009
3683.00,0.0009
3682.00,0.0009
3681.00,0.0010
3680.00,0.0010
3679.00,0.0010
3678.00,0.0010
3677.00,0.0010
3676.00,0.0009
3675.00,0.0009
3674.00,0.0009
3673.00,0.0010
3672.00,0.0010
3671.00,0.0010
3670.00,0.0010
3669.00,0.0010
3668.00,0.0010
3667.00,0.0009
3666.00,0.0009
3665.00,0.0009
3664.00,0.0010
3663.00,0.0010
3662.00,0.0011
3661.00,0.0011
3660.00,0.0011
3659.00,0.0011
3658.00,0.0011
3657.00,0.0011
3656.00,0.0011
3655.00,0.0011
3654.00,0.0011
3653.00,0.0011
3652.00,0.0011
3651.00,0.0011
3650.00,0.0011
3649.00,0.0011
3648.00,0.0011
3647.00,0.0011
3646.00,0.0010
3645.00,0.0010
3644.00,0.0010
3643.00,0.0011
3642.00,0.0011
3641.00,0.0011
3640.00,0.0011
3639.00,0.0011
3638.00,0.0011
3637.00,0.0011
3636.00,0.0011
3635.00,0.0011
3634.00,0.0011
3633.00,0.0012
3632.00,0.0012
3631.00,0.0012
3630.00,0.0012
3629.00,0.0012
3628.00,0.0012
3627.00,0.0012
3626.00,0.0012
3625.00,0.0012
3624.00,0.0011
3623.00,0.0011
3622.00,0.0011
3621.00,0.0011
3620.00,0.0011
3619.00,0.0012
3618.00,0.0012
3617.00,0.0011
3616.00,0.0011
3615.00,0.0011
3614.00,0.0011
3613.00,0.0011
3612.00,0.0011
3611.00,0.0012
3610.00,0.0013
3609.00,0.0013
3608.00,0.0013
3607.00,0.0013
3606.00,0.0013
3605.00,0.0014
3604.00,0.0014
3603.00,0.0014
3602.00,0.0014
3601.00,0.0014
3600.00,0.0014
3599.00,0.0014
3598.00,0.0014
3597.00,0.0014
3596.00,0.0014
3595.00,0.0014
3594.00,0.0014
3593.00,0.0015
3592.00,0.0015
3591.00,0.0015
3590.00,0.0015
3589.00,0.0015
3588.00,0.0015
3587.00,0.0015
3586.00,0.0015
3585.00,0.0016
3584.00,0.0016
3583.00,0.0016
3582.00,0.0016
3581.00,0.0016
3580.00,0.0016
3579.00,0.0017
3578.00,0.0017
3577.00,0.0018
3576.00,0.0018
3575.00,0.0018
3574.00,0.0018
3573.00,0.0018
3572.00,0.0018
3571.00,0.0017
3570.00,0.0017
3569.00,0.0017
3568.00,0.0017
3567.00,0.0018
3566.00,0.0018
3565.00,0.0019
3564.00,0.0020
3563.00,0.0020
3562.00,0.0020
3561.00,0.0020
3560.00,0.0020
3559.00,0.0020
3558.00,0.0020
3557.00,0.0021
3556.00,0.0021
3555.00,0.0021
3554.00,0.0021
3553.00,0.0022
3552.00,0.0022
3551.00,0.0022
3550.00,0.0022
3549.00,0.0023
3548.00,0.0023
3547.00,0.0023
3546.00,0.0023
3545.00,0.0024
3544.00,0.0024
3543.00,0.0025
3542.00,0.0025
3541.00,0.0026
3540.00,0.0026
3539.00,0.0026
3538.00,0.0026
3537.00,0.0026
3536.00,0.0026
3535.00,0.0026
3534.00,0.0026
3533.00,0.0026
3532.00,0.0027
3531.00,0.0027
3530.00,0.0027
3529.00,0.0028
3528.00,0.0028
3527.00,0.0029
3526.00,0.0030
3525.00,0.0030
3524.00,0.0031
3523.00,0.0031
3522.00,0.0031
3521.00,0.0031
3520.00,0.0031
3519.00,0.0031
3518.00,0.0031
3517.00,0.0031
3516.00,0.0031
3515.00,0.0032
3514.00,0.0032
3513.00,0.0032
3512.00,0.0032
3511.00,0.0033
3510.00,0.0033
3509.00,0.0033
3508.00,0.0033
3507.00,0.0033
3506.00,0.0033
3505.00,0.0034
3504.00,0.0034
3503.00,0.0034
3502.00,0.0034
3501.00,0.0035
3500.00,0.0035
3499.00,0.0036
3498.00,0.0036
3497.00,0.0037
3496.00,0.0037
3495.00,0.0037
3494.00,0.0037
3493.00,0.0037
3492.00,0.0038
3491.00,0.0038
3490.00,0.0039
3489.00,0.0039
3488.00,0.0039
3487.00,0.0040
3486.00,0.0040
3485.00,0.0040
3484.00,0.0039
3483.00,0.0039
3482.00,0.0040
3481.00,0.0040
3480.00,0.0040
3479.00,0.0041
3478.00,0.0041
3477.00,0.0042
3476.00,0.0042
3475.00,0.0042
3474.00,0.0042
3473.00,0.0042
3472.00,0.0042
3471.00,0.0042
3470.00,0.0043
3469.00,0.0043
3468.00,0.0043
3467.00,0.0043
3466.00,0.0044
3465.00,0.0045
3464.00,0.0046
3463.00,0.0046
3462.00,0.0047
3461.00,0.0047
3460.00,0.0047
3459.00,0.0047
3458.00,0.0047
3457.00,0.0047
3456.00,0.0047
3455.00,0.0047
3454.00,0.0046
3453.00,0.0047
3452.00,0.0047
3451.00,0.0047
3450.00,0.0047
3449.00,0.0048
3448.00,0.0048
3447.00,0.0048
3446.00,0.0049
3445.00,0.0049
3444.00,0.0050
3443.00,0.0050
3442.00,0.0050
3441.00,0.0051
3440.00,0.0051
3439.00,0.0051
3438.00,0.0051
3437.00,0.0052
3436.00,0.0052
3435.00,0.0052
3434.00,0.0052
3433.00,0.0052
3432.00,0.0052
3431.00,0.0052
3430.00,0.0052
3429.00,0.0053
3428.00,0.0052
3427.00,0.0052
3426.00,0.0052
3425.00,0.0053
3424.00,0.0053
3423.00,0.0053
3422.00,0.0054
3421.00,0.0054
3420.00,0.0054
3419.00,0.0054
3418.00,0.0054
3417.00,0.0055
3416.00,0.0055
3415.00,0.0056
3414.00,0.0057
3413.00,0.0057
3412.00,0.0057
3411.00,0.0057
3410.00,0.0057
3409.00,0.0057
3408.00,0.0058
3407.00,0.0058
3406.00,0.0058
3405.00,0.0058
3404.00,0.0058
3403.00,0.0059
3402.00,0.0059
3401.00,0.0060
3400.00,0.0060
3399.00,0.0060
3398.00,0.0060
3397.00,0.0060
3396.00,0.0060
3395.00,0.0060
3394.00,0.0060
3393.00,0.0060
3392.00,0.0059
3391.00,0.0059
3390.00,0.0058
3389.00,0.0058
3388.00,0.0058
3387.00,0.0059
3386.00,0.0059
3385.00,0.0059
3384.00,0.0059
3383.00,0.0060
3382.00,0.0060
3381.00,0.0060
3380.00,0.0061
3379.00,0.0061
3378.00,0.0061
3377.00,0.0061
3376.00,0.0061
3375.00,0.0061
3374.00,0.0061
3373.00,0.0061
3372.00,0.0061
3371.00,0.0061
3370.00,0.0061
3369.00,0.0061
3368.00,0.0060
3367.00,0.0060
3366.00,0.0060
3365.00,0.0061
3364.00,0.0061
3363.00,0.0061
3362.00,0.0061
3361.00,0.0061
3360.00,0.0061
3359.00,0.0061
3358.00,0.0061
3357.00,0.0061
3356.00,0.0061
3355.00,0.0062
3354.00,0.0062
3353.00,0.0062
3352.00,0.0062
3351.00,0.0061
3350.00,0.0061
3349.00,0.0061
3348.00,0.0061
3347.00,0.0062
3346.00,0.0062
3345.00,0.0061
3344.00,0.0061
3343.00,0.0061
3342.00,0.0061
3341.00,0.0061
3340.00,0.0061
3339.00,0.0061
3338.00,0.0061
3337.00,0.0061
3336.00,0.0061
3335.00,0.0061
3334.00,0.0061
3333.00,0.0061
3332.00,0.0061
3331.00,0.0061
3330.00,0.0061
3329.00,0.0060
3328.00,0.0060
3327.00,0.0059
3326.00,0.0059
3325.00,0.0059
3324.00,0.0060
3323.00,0.0060
3322.00,0.0060
3321.00,0.0060
3320.00,0.0059
3319.00,0.0059
3318.00,0.0060
3317.00,0.0060
3316.00,0.0059
3315.00,0.0059
3314.00,0.0059
3313.00,0.0059
3312.00,0.0059
3311.00,0.0059
3310.00,0.0059
3309.00,0.0059
3308.00,0.0060
3307.00,0.0060
3306.00,0.0060
3305.00,0.0060
3304.00,0.0060
3303.00,0.0060
3302.00,0.0060
3301.00,0.0060
3300.00,0.0060
3299.00,0.0060
3298.00,0.0060
3297.00,0.0060
3296.00,0.0059
3295.00,0.0059
3294.00,0.0059
3293.00,0.0058
3292.00,0.0058
3291.00,0.0058
3290.00,0.0058
3289.00,0.0057
3288.00,0.0057
3287.00,0.0056
3286.00,0.0056
3285.00,0.0056
3284.00,0.0055
3283.00,0.0055
3282.00,0.0055
3281.00,0.0055
3280.00,0.0055
3279.00,0.0054
3278.00,0.0054
3277.00,0.0054
3276.00,0.0054
3275.00,0.0054
3274.00,0.0054
3273.00,0.0054
3272.00,0.0054
3271.00,0.0053
3270.00,0.0052
3269.00,0.0052
3268.00,0.0052
3267.00,0.0052
3266.00,0.0052
3265.00,0.0052
3264.00,0.0052
3263.00,0.0051
3262.00,0.0051
3261.00,0.0051
3260.00,0.0050
3259.00,0.0050
3258.00,0.0050
3257.00,0.0049
3256.00,0.0049
3255.00,0.0050
3254.00,0.0050
3253.00,0.0050
3252.00,0.0049
3251.00,0.0049
3250.00,0.0049
3249.00,0.0049
3248.00,0.0049
3247.00,0.0049
3246.00,0.0049
3245.00,0.0049
3244.00,0.0049
3243.00,0.0049
3242.00,0.0049
3241.00,0.0049
3240.00,0.0049
3239.00,0.0049
3238.00,0.0048
3237.00,0.0048
3236.00,0.0048
3235.00,0.0047
3234.00,0.0048
3233.00,0.0048
3232.00,0.0048
3231.00,0.0049
3230.00,0.0049
3229.00,0.0049
3228.00,0.0049
3227.00,0.0049
3226.00,0.0048
3225.00,0.0048
3224.00,0.0048
3223.00,0.0048
3222.00,0.0049
3221.00,0.0049
3220.00,0.0050
3219.00,0.0050
3218.00,0.0050
3217.00,0.0050
3216.00,0.0050
3215.00,0.0051
3214.00,0.0051
3213.00,0.0051
3212.00,0.0051
3211.00,0.0052
3210.00,0.0052
3209.00,0.0052
3208.00,0.0052
3207.00,0.0052
3206.00,0.0052
3205.00,0.0052
3204.00,0.0052
3203.00,0.0052
3202.00,0.0052
3201.00,0.0052
3200.00,0.0052
3199.00,0.0051
3198.00,0.0051
3197.00,0.0051
3196.00,0.0051
3195.00,0.0052
3194.00,0.0052
3193.00,0.0052
3192.00,0.0052
3191.00,0.0052
3190.00,0.0052
3189.00,0.0052
3188.00,0.0052
3187.00,0.0052
3186.00,0.0051
3185.00,0.0051
3184.00,0.0051
3183.00,0.0051
3182.00,0.0051
3181.00,0.0050
3180.00,0.0049
3179.00,0.0049
3178.00,0.0048
3177.00,0.0048
3176.00,0.0048
3175.00,0.0047
3174.00,0.0047
3173.00,0.0047
3172.00,0.0047
3171.00,0.0047
3170.00,0.0047
3169.00,0.0047
3168.00,0.0046
3167.00,0.0046
3166.00,0.0046
3165.00,0.0045
3164.00,0.0045
3163.00,0.0045
3162.00,0.0045
3161.00,0.0045
3160.00,0.0045
3159.00,0.0045
3158.00,0.0045
3157.00,0.0045
3156.00,0.0045
3155.00,0.0045
3154.00,0.0045
3153.00,0.0045
3152.00,0.0045
3151.00,0.0045
3150.00,0.0045
3149.00,0.0044
3148.00,0.0044
3147.00,0.0044
3146.00,0.0044
3145.00,0.0044
3144.00,0.0044
3143.00,0.0044
3142.00,0.0044
3141.00,0.0044
3140.00,0.0043
3139.00,0.0043
3138.00,0.0043
3137.00,0.0043
3136.00,0.0043
3135.00,0.0042
3134.00,0.0042
3133.00,0.0042
3132.00,0.0042
3131.00,0.0042
3130.00,0.0041
3129.00,0.0041
3128.00,0.0040
3127.00,0.0040
3126.00,0.0040
3125.00,0.0039
3124.00,0.0039
3123.00,0.0039
3122.00,0.0039
3121.00,0.0038
3120.00,0.0038
3119.00,0.0037
3118.00,0.0037
3117.00,0.0037
3116.00,0.0037
3115.00,0.0037
3114.00,0.0037
3113.00,0.0036
3112.00,0.0037
3111.00,0.0037
3110.00,0.0036
3109.00,0.0036
3108.00,0.0036
3107.00,0.0036
3106.00,0.0036
3105.00,0.0035
3104.00,0.0035
3103.00,0.0035
3102.00,0.0034
3101.00,0.0034
3100.00,0.0034
3099.00,0.0034
3098.00,0.0035
3097.00,0.0035
3096.00,0.0035
3095.00,0.0034
3094.00,0.0034
3093.00,0.0034
3092.00,0.0034
3091.00,0.0034
3090.00,0.0034
3089.00,0.0033
3088.00,0.0033
3087.00,0.0033
3086.00,0.0033
3085.00,0.0033
3084.00,0.0033
3083.00,0.0033
3082.00,0.0033
3081.00,0.0033
3080.00,0.0033
3079.00,0.0033
3078.00,0.0034
3077.00,0.0033
3076.00,0.0033
3075.00,0.0033
3074.00,0.0034
3073.00,0.0034
3072.00,0.0034
3071.00,0.0034
3070.00,0.0034
3069.00,0.0034
3068.00,0.0034
3067.00,0.0034
3066.00,0.0034
3065.00,0.0034
3064.00,0.0034
3063.00,0.0034
3062.00,0.0034
3061.00,0.0035
3060.00,0.0035
3059.00,0.0035
3058.00,0.0035
3057.00,0.0036
3056.00,0.0036
3055.00,0.0036
3054.00,0.0037
3053.00,0.0037
3052.00,0.0037
3051.00,0.0037
3050.00,0.0037
3049.00,0.0037
3048.00,0.0037
3047.00,0.0037
3046.00,0.0037
3045.00,0.0037
3044.00,0.0037
3043.00,0.0037
3042.00,0.0038
3041.00,0.0038
3040.00,0.0039
3039.00,0.0039
3038.00,0.0039
3037.00,0.0040
3036.00,0.0040
3035.00,0.0040
3034.00,0.0040
3033.00,0.0040
3032.00,0.0041
3031.00,0.0041
3030.00,0.0042
3029.00,0.0043
3028.00,0.0043
3027.00,0.0044
3026.00,0.0044
3025.00,0.0044
3024.00,0.0044
3023.00,0.0045
3022.00,0.0045
3021.00,0.0046
3020.00,0.0048
3019.00,0.0049
3018.00,0.0050
3017.00,0.0051
3016.00,0.0052
3015.00,0.0053
3014.00,0.0055
3013.00,0.0056
3012.00,0.0058
3011.00,0.0060
3010.00,0.0062
3009.00,0.0064
3008.00,0.0066
3007.00,0.0068
3006.00,0.0069
3005.00,0.0071
3004.00,0.0074
3003.00,0.0076
3002.00,0.0079
3001.00,0.0082
3000.00,0.0086
2999.00,0.0089
2998.00,0.0092
2997.00,0.0095
2996.00,0.0099
2995.00,0.0102
2994.00,0.0107
2993.00,0.0111
2992.00,0.0117
2991.00,0.0123
2990.00,0.0129
2989.00,0.0137
2988.00,0.0145
2987.00,0.0154
2986.00,0.0164
2985.00,0.0175
2984.00,0.0188
2983.00,0.0203
2982.00,0.0219
2981.00,0.0236
2980.00,0.0254
2979.00,0.0274
2978.00,0.0297
2977.00,0.0324
2976.00,0.0355
2975.00,0.0391
2974.00,0.0432
2973.00,0.0479
2972.00,0.0533
2971.00,0.0594
2970.00,0.0661
2969.00,0.0735
2968.00,0.0815
2967.00,0.0901
2966.00,0.0991
2965.00,0.1084
2964.00,0.1175
2963.00,0.1261
2962.00,0.1338
2961.00,0.1402
2960.00,0.1452
2959.00,0.1493
2958.00,0.1529
2957.00,0.1566
2956.00,0.1608
2955.00,0.1661
2954.00,0.1721
2953.00,0.1785
2952.00,0.1842
2951.00,0.1881
2950.00,0.1891
2949.00,0.1865
2948.00,0.1800
2947.00,0.1703
2946.00,0.1585
2945.00,0.1460
2944.00,0.1341
2943.00,0.1240
2942.00,0.1161
2941.00,0.1107
2940.00,0.1078
2939.00,0.1070
2938.00,0.1082
2937.00,0.1112
2936.00,0.1159
2935.00,0.1220
2934.00,0.1294
2933.00,0.1380
2932.00,0.1478
2931.00,0.1583
2930.00,0.1695
2929.00,0.1810
2928.00,0.1925
2927.00,0.2037
2926.00,0.2144
2925.00,0.2246
2924.00,0.2346
2923.00,0.2443
2922.00,0.2538
2921.00,0.2628
2920.00,0.2706
2919.00,0.2763
2918.00,0.2790
2917.00,0.2780
2916.00,0.2733
2915.00,0.2654
2914.00,0.2554
2913.00,0.2446
2912.00,0.2339
2911.00,0.2240
2910.00,0.2152
2909.00,0.2072
2908.00,0.2000
2907.00,0.1931
2906.00,0.1864
2905.00,0.1796
2904.00,0.1728
2903.00,0.1659
2902.00,0.1591
2901.00,0.1525
2900.00,0.1461
2899.00,0.1400
2898.00,0.1343
2897.00,0.1291
2896.00,0.1244
2895.00,0.1202
2894.00,0.1167
2893.00,0.1138
2892.00,0.1115
2891.00,0.1098
2890.00,0.1087
2889.00,0.1080
2888.00,0.1076
2887.00,0.1075
2886.00,0.1078
2885.00,0.1084
2884.00,0.1095
2883.00,0.1110
2882.00,0.1130
2881.00,0.1153
2880.00,0.1176
2879.00,0.1195
2878.00,0.1208
2877.00,0.1212
2876.00,0.1209
2875.00,0.1201
2874.00,0.1194
2873.00,0.1193
2872.00,0.1198
2871.00,0.1211
2870.00,0.1229
2869.00,0.1247
2868.00,0.1258
2867.00,0.1255
2866.00,0.1232
2865.00,0.1186
2864.00,0.1123
2863.00,0.1049
2862.00,0.0976
2861.00,0.0912
2860.00,0.0863
2859.00,0.0828
2858.00,0.0809
2857.00,0.0802
2856.00,0.0805
2855.00,0.0814
2854.00,0.0829
2853.00,0.0846
2852.00,0.0863
2851.00,0.0878
2850.00,0.0889
2849.00,0.0897
2848.00,0.0904
2847.00,0.0916
2846.00,0.0936
2845.00,0.0967
2844.00,0.1010
2843.00,0.1061
2842.00,0.1117
2841.00,0.1170
2840.00,0.1213
2839.00,0.1237
2838.00,0.1235
2837.00,0.1202
2836.00,0.1139
2835.00,0.1051
2834.00,0.0947
2833.00,0.0838
2832.00,0.0734
2831.00,0.0641
2830.00,0.0563
2829.00,0.0498
2828.00,0.0446
2827.00,0.0404
2826.00,0.0369
2825.00,0.0341
2824.00,0.0317
2823.00,0.0297
2822.00,0.0280
2821.00,0.0266
2820.00,0.0253
2819.00,0.0242
2818.00,0.0232
2817.00,0.0223
2816.00,0.0216
2815.00,0.0209
2814.00,0.0202
2813.00,0.0196
2812.00,0.0191
2811.00,0.0185
2810.00,0.0180
2809.00,0.0174
2808.00,0.0168
2807.00,0.0161
2806.00,0.0155
2805.00,0.0148
2804.00,0.0142
2803.00,0.0136
2802.00,0.0131
2801.00,0.0127
2800.00,0.0123
2799.00,0.0120
2798.00,0.0117
2797.00,0.0114
2796.00,0.0112
2795.00,0.0109
2794.00,0.0106
2793.00,0.0103
2792.00,0.0101
2791.00,0.0098
2790.00,0.0095
2789.00,0.0092
2788.00,0.0088
2787.00,0.0085
2786.00,0.0083
2785.00,0.0080
2784.00,0.0078
2783.00,0.0075
2782.00,0.0073
2781.00,0.0071
2780.00,0.0069
2779.00,0.0068
2778.00,0.0066
2777.00,0.0065
2776.00,0.0064
2775.00,0.0063
2774.00,0.0062
2773.00,0.0061
2772.00,0.0060
2771.00,0.0060
2770.00,0.0060
2769.00,0.0060
2768.00,0.0060
2767.00,0.0059
2766.00,0.0058
2765.00,0.0058
2764.00,0.0057
2763.00,0.0057
2762.00,0.0057
2761.00,0.0057
2760.00,0.0057
2759.00,0.0056
2758.00,0.0056
2757.00,0.0056
2756.00,0.0056
2755.00,0.0056
2754.00,0.0055
2753.00,0.0055
2752.00,0.0055
2751.00,0.0054
2750.00,0.0054
2749.00,0.0054
2748.00,0.0054
2747.00,0.0054
2746.00,0.0054
2745.00,0.0055
2744.00,0.0055
2743.00,0.0056
2742.00,0.0057
2741.00,0.0058
2740.00,0.0059
2739.00,0.0060
2738.00,0.0062
2737.00,0.0063
2736.00,0.0065
2735.00,0.0066
2734.00,0.0068
2733.00,0.0069
2732.00,0.0071
2731.00,0.0073
2730.00,0.0075
2729.00,0.0078
2728.00,0.0080
2727.00,0.0083
2726.00,0.0086
2725.00,0.0088
2724.00,0.0090
2723.00,0.0090
2722.00,0.0089
2721.00,0.0087
2720.00,0.0084
2719.00,0.0081
2718.00,0.0078
2717.00,0.0075
2716.00,0.0072
2715.00,0.0070
2714.00,0.0067
2713.00,0.0065
2712.00,0.0063
2711.00,0.0061
2710.00,0.0059
2709.00,0.0058
2708.00,0.0056
2707.00,0.0055
2706.00,0.0054
2705.00,0.0053
2704.00,0.0052
2703.00,0.0051
2702.00,0.0050
2701.00,0.0049
2700.00,0.0048
2699.00,0.0048
2698.00,0.0047
2697.00,0.0047
2696.00,0.0047
2695.00,0.0047
2694.00,0.0047
2693.00,0.0047
2692.00,0.0047
2691.00,0.0047
2690.00,0.0047
2689.00,0.0047
2688.00,0.0047
2687.00,0.0047
2686.00,0.0047
2685.00,0.0047
2684.00,0.0047
2683.00,0.0047
2682.00,0.0047
2681.00,0.0047
2680.00,0.0048
2679.00,0.0048
2678.00,0.0048
2677.00,0.0048
2676.00,0.0048
2675.00,0.0048
2674.00,0.0048
2673.00,0.0047
2672.00,0.0047
2671.00,0.0047
2670.00,0.0047
2669.00,0.0047
2668.00,0.0047
2667.00,0.0047
2666.00,0.0048
2665.00,0.0048
2664.00,0.0049
2663.00,0.0049
2662.00,0.0049
2661.00,0.0050
2660.00,0.0050
2659.00,0.0050
2658.00,0.0050
2657.00,0.0050
2656.00,0.0049
2655.00,0.0049
2654.00,0.0048
2653.00,0.0047
2652.00,0.0047
2651.00,0.0047
2650.00,0.0046
2649.00,0.0046
2648.00,0.0045
2647.00,0.0045
2646.00,0.0044
2645.00,0.0044
2644.00,0.0044
2643.00,0.0043
2642.00,0.0043
2641.00,0.0042
2640.00,0.0042
2639.00,0.0041
2638.00,0.0041
2637.00,0.0040
2636.00,0.0040
2635.00,0.0040
2634.00,0.0040
2633.00,0.0041
2632.00,0.0041
2631.00,0.0041
2630.00,0.0041
2629.00,0.0041
2628.00,0.0041
2627.00,0.0041
2626.00,0.0042
2625.00,0.0042
2624.00,0.0042
2623.00,0.0043
2622.00,0.0043
2621.00,0.0043
2620.00,0.0042
2619.00,0.0042
2618.00,0.0042
2617.00,0.0042
2616.00,0.0042
2615.00,0.0041
2614.00,0.0041
2613.00,0.0040
2612.00,0.0039
2611.00,0.0038
2610.00,0.0038
2609.00,0.0037
2608.00,0.0037
2607.00,0.0036
2606.00,0.0036
2605.00,0.0035
2604.00,0.0035
2603.00,0.0034
2602.00,0.0034
2601.00,0.0033
2600.00,0.0033
2599.00,0.0033
2598.00,0.0034
2597.00,0.0034
2596.00,0.0033
2595.00,0.0033
2594.00,0.0033
2593.00,0.0033
2592.00,0.0033
2591.00,0.0033
2590.00,0.0034
2589.00,0.0035
2588.00,0.0036
2587.00,0.0038
2586.00,0.0040
2585.00,0.0040
2584.00,0.0040
2583.00,0.0040
2582.00,0.0040
2581.00,0.0039
2580.00,0.0039
2579.00,0.0039
2578.00,0.0038
2577.00,0.0037
2576.00,0.0036
2575.00,0.0034
2574.00,0.0033
2573.00,0.0031
2572.00,0.0030
2571.00,0.0030
2570.00,0.0029
2569.00,0.0028
2568.00,0.0028
2567.00,0.0027
2566.00,0.0027
2565.00,0.0026
2564.00,0.0026
2563.00,0.0025
2562.00,0.0025
2561.00,0.0024
2560.00,0.0024
2559.00,0.0025
2558.00,0.0025
2557.00,0.0025
2556.00,0.0025
2555.00,0.0024
2554.00,0.0024
2553.00,0.0023
2552.00,0.0023
2551.00,0.0022
2550.00,0.0022
2549.00,0.0022
2548.00,0.0022
2547.00,0.0021
2546.00,0.0021
2545.00,0.0020
2544.00,0.0020
2543.00,0.0019
2542.00,0.0018
2541.00,0.0018
2540.00,0.0018
2539.00,0.0018
2538.00,0.0018
2537.00,0.0019
2536.00,0.0019
2535.00,0.0019
2534.00,0.0018
2533.00,0.0017
2532.00,0.0017
2531.00,0.0016
2530.00,0.0016
2529.00,0.0016
2528.00,0.0015
2527.00,0.0015
2526.00,0.0014
2525.00,0.0015
2524.00,0.0015
2523.00,0.0016
2522.00,0.0016
2521.00,0.0016
2520.00,0.0015
2519.00,0.0015
2518.00,0.0014
2517.00,0.0014
2516.00,0.0014
2515.00,0.0014
2514.00,0.0014
2513.00,0.0014
2512.00,0.0014
2511.00,0.0014
2510.00,0.0014
2509.00,0.0013
2508.00,0.0013
2507.00,0.0012
2506.00,0.0012
2505.00,0.0012
2504.00,0.0012
2503.00,0.0012
2502.00,0.0011
2501.00,0.0011
2500.00,0.0010
2499.00,0.0011
2498.00,0.0011
2497.00,0.0011
2496.00,0.0011
2495.00,0.0011
2494.00,0.0011
2493.00,0.0011
2492.00,0.0011
2491.00,0.0011
2490.00,0.0011
2489.00,0.0011
2488.00,0.0011
2487.00,0.0010
2486.00,0.0010
2485.00,0.0010
2484.00,0.0011
2483.00,0.0011
2482.00,0.0011
2481.00,0.0011
2480.00,0.0011
2479.00,0.0011
2478.00,0.0012
2477.00,0.0012
2476.00,0.0012
2475.00,0.0012
2474.00,0.0011
2473.00,0.0011
2472.00,0.0010
2471.00,0.0010
2470.00,0.0010
2469.00,0.0010
2468.00,0.0010
2467.00,0.0010
2466.00,0.0010
2465.00,0.0010
2464.00,0.0011
2463.00,0.0011
2462.00,0.0012
2461.00,0.0013
2460.00,0.0013
2459.00,0.0013
2458.00,0.0013
2457.00,0.0013
2456.00,0.0013
2455.00,0.0013
2454.00,0.0014
2453.00,0.0014
2452.00,0.0013
2451.00,0.0013
2450.00,0.0012
2449.00,0.0012
2448.00,0.0013
2447.00,0.0013
2446.00,0.0013
2445.00,0.0013
2444.00,0.0013
2443.00,0.0012
2442.00,0.0012
2441.00,0.0012
2440.00,0.0012
2439.00,0.0012
2438.00,0.0012
2437.00,0.0012
2436.00,0.0012
2435.00,0.0013
2434.00,0.0013
2433.00,0.0012
2432.00,0.0012
2431.00,0.0012
2430.00,0.0012
2429.00,0.0013
2428.00,0.0013
2427.00,0.0013
2426.00,0.0013
2425.00,0.0012
2424.00,0.0012
2423.00,0.0012
2422.00,0.0012
2421.00,0.0012
2420.00,0.0013
2419.00,0.0013
2418.00,0.0013
2417.00,0.0012
2416.00,0.0012
2415.00,0.0012
2414.00,0.0012
2413.00,0.0012
2412.00,0.0011
2411.00,0.0011
2410.00,0.0011
2409.00,0.0011
2408.00,0.0011
2407.00,0.0011
2406.00,0.0011
2405.00,0.0010
2404.00,0.0010
2403.00,0.0009
2402.00,0.0009
2401.00,0.0009
2400.00,0.0009
2399.00,0.0010
2398.00,0.0010
2397.00,0.0010
2396.00,0.0010
2395.00,0.0010
2394.00,0.0010
2393.00,0.0010
2392.00,0.0009
2391.00,0.0009
2390.00,0.0009
2389.00,0.0008
2388.00,0.0008
2387.00,0.0008
2386.00,0.0008
2385.00,0.0008
2384.00,0.0008
2383.00,0.0008
2382.00,0.0008
2381.00,0.0009
2380.00,0.0009
2379.00,0.0009
2378.00,0.0008
2377.00,0.0007
2376.00,0.0006
2375.00,0.0005
2374.00,0.0004
2373.00,0.0004
2372.00,0.0004
2371.00,0.0005
2370.00,0.0007
2369.00,0.0008
2368.00,0.0009
2367.00,0.0009
2366.00,0.0009
2365.00,0.0008
2364.00,0.0008
2363.00,0.0009
2362.00,0.0009
2361.00,0.0009
2360.00,0.0009
2359.00,0.0010
2358.00,0.0011
2357.00,0.0011
2356.00,0.0011
2355.00,0.0010
2354.00,0.0010
2353.00,0.0010
2352.00,0.0010
2351.00,0.0010
2350.00,0.0011
2349.00,0.0011
2348.00,0.0011
2347.00,0.0010
2346.00,0.0010
2345.00,0.0010
2344.00,0.0011
2343.00,0.0012
2342.00,0.0012
2341.00,0.0012
2340.00,0.0013
2339.00,0.0013
2338.00,0.0013
2337.00,0.0012
2336.00,0.0011
2335.00,0.0010
2334.00,0.0010
2333.00,0.0010
2332.00,0.0009
2331.00,0.0009
2330.00,0.0010
2329.00,0.0010
2328.00,0.0012
2327.00,0.0016
2326.00,0.0020
2325.00,0.0023
2324.00,0.0024
2323.00,0.0023
2322.00,0.0020
2321.00,0.0018
2320.00,0.0016
2319.00,0.0016
2318.00,0.0016
2317.00,0.0016
2316.00,0.0015
2315.00,0.0014
2314.00,0.0013
2313.00,0.0013
2312.00,0.0013
2311.00,0.0013
2310.00,0.0013
2309.00,0.0013
2308.00,0.0012
2307.00,0.0012
2306.00,0.0012
2305.00,0.0013
2304.00,0.0014
2303.00,0.0014
2302.00,0.0014
2301.00,0.0014
2300.00,0.0014
2299.00,0.0014
2298.00,0.0014
2297.00,0.0014
2296.00,0.0015
2295.00,0.0015
2294.00,0.0016
2293.00,0.0016
2292.00,0.0017
2291.00,0.0017
2290.00,0.0018
2289.00,0.0018
2288.00,0.0018
2287.00,0.0019
2286.00,0.0019
2285.00,0.0019
2284.00,0.0019
2283.00,0.0018
2282.00,0.0017
2281.00,0.0016
2280.00,0.0015
2279.00,0.0014
2278.00,0.0015
2277.00,0.0016
2276.00,0.0017
2275.00,0.0016
2274.00,0.0016
2273.00,0.0015
2272.00,0.0014
2271.00,0.0014
2270.00,0.0014
2269.00,0.0014
2268.00,0.0015
2267.00,0.0016
2266.00,0.0015
2265.00,0.0014
2264.00,0.0014
2263.00,0.0014
2262.00,0.0014
2261.00,0.0014
2260.00,0.0014
2259.00,0.0014
2258.00,0.0014
2257.00,0.0014
2256.00,0.0014
2255.00,0.0013
2254.00,0.0013
2253.00,0.0012
2252.00,0.0012
2251.00,0.0011
2250.00,0.0011
2249.00,0.0011
2248.00,0.0010
2247.00,0.0009
2246.00,0.0008
2245.00,0.0008
2244.00,0.0008
2243.00,0.0009
2242.00,0.0009
2241.00,0.0009
2240.00,0.0009
2239.00,0.0009
2238.00,0.0008
2237.00,0.0008
2236.00,0.0009
2235.00,0.0010
2234.00,0.0010
2233.00,0.0009
2232.00,0.0008
2231.00,0.0007
2230.00,0.0006
2229.00,0.0006
2228.00,0.0006
2227.00,0.0006
2226.00,0.0007
2225.00,0.0007
2224.00,0.0008
2223.00,0.0009
2222.00,0.0010
2221.00,0.0010
2220.00,0.0010
2219.00,0.0010
2218.00,0.0010
2217.00,0.0009
2216.00,0.0009
2215.00,0.0009
2214.00,0.0009
2213.00,0.0009
2212.00,0.0010
2211.00,0.0010
2210.00,0.0009
2209.00,0.0008
2208.00,0.0007
2207.00,0.0006
2206.00,0.0005
2205.00,0.0006
2204.00,0.0007
2203.00,0.0009
2202.00,0.0010
2201.00,0.0010
2200.00,0.0010
2199.00,0.0010
2198.00,0.0010
2197.00,0.0011
2196.00,0.0012
2195.00,0.0012
2194.00,0.0011
2193.00,0.0010
2192.00,0.0008
2191.00,0.0006
2190.00,0.0005
2189.00,0.0006
2188.00,0.0009
2187.00,0.0012
2186.00,0.0015
2185.00,0.0017
2184.00,0.0017
2183.00,0.0014
2182.00,0.0011
2181.00,0.0008
2180.00,0.0007
2179.00,0.0008
2178.00,0.0010
2177.00,0.0009
2176.00,0.0008
2175.00,0.0005
2174.00,0.0003
2173.00,0.0003
2172.00,0.0005
2171.00,0.0008
2170.00,0.0010
2169.00,0.0012
2168.00,0.0013
2167.00,0.0015
2166.00,0.0017
2165.00,0.0018
2164.00,0.0018
2163.00,0.0017
2162.00,0.0014
2161.00,0.0008
2160.00,-0.0002
2159.00,-0.0015
2158.00,-0.0024
2157.00,-0.0027
2156.00,-0.0026
2155.00,-0.0023
2154.00,-0.0020
2153.00,-0.0017
2152.00,-0.0014
2151.00,-0.0013
2150.00,-0.0012
2149.00,-0.0011
2148.00,-0.0010
2147.00,-0.0010
2146.00,-0.0011
2145.00,-0.0012
2144.00,-0.0011
2143.00,-0.0009
2142.00,-0.0008
2141.00,-0.0007
2140.00,-0.0008
2139.00,-0.0009
2138.00,-0.0009
2137.00,-0.0009
2136.00,-0.0010
2135.00,-0.0011
2134.00,-0.0012
2133.00,-0.0012
2132.00,-0.0011
2131.00,-0.0010
2130.00,-0.0009
2129.00,-0.0008
2128.00,-0.0008
2127.00,-0.0007
2126.00,-0.0006
2125.00,-0.0004
2124.00,-0.0003
2123.00,-0.0002
2122.00,-0.0001
2121.00,0.0000
2120.00,0.0001
2119.00,0.0001
2118.00,0.0002
2117.00,0.0002
2116.00,0.0003
2115.00,0.0004
2114.00,0.0004
2113.00,0.0004
2112.00,0.0003
2111.00,0.0003
2110.00,0.0002
2109.00,0.0002
2108.00,0.0003
2107.00,0.0004
2106.00,0.0005
2105.00,0.0005
2104.00,0.0005
2103.00,0.0004
2102.00,0.0004
2101.00,0.0005
2100.00,0.0005
2099.00,0.0005
2098.00,0.0004
2097.00,0.0002
2096.00,-0.0000
2095.00,-0.0003
2094.00,-0.0003
2093.00,-0.0002
2092.00,0.0001
2091.00,0.0002
2090.00,0.0002
2089.00,0.0003
2088.00,0.0003
2087.00,0.0004
2086.00,0.0005
2085.00,0.0004
2084.00,0.0004
2083.00,0.0003
2082.00,0.0004
2081.00,0.0004
2080.00,0.0004
2079.00,0.0004
2078.00,0.0003
2077.00,0.0002
2076.00,0.0001
2075.00,0.0000
2074.00,-0.0001
2073.00,-0.0001
2072.00,-0.0001
2071.00,-0.0000
2070.00,0.0001
2069.00,0.0003
2068.00,0.0004
2067.00,0.0004
2066.00,0.0004
2065.00,0.0003
2064.00,0.0002
2063.00,0.0001
2062.00,0.0001
2061.00,0.0002
2060.00,0.0002
2059.00,0.0002
2058.00,0.0003
2057.00,0.0004
2056.00,0.0004
2055.00,0.0004
2054.00,0.0004
2053.00,0.0004
2052.00,0.0006
2051.00,0.0009
2050.00,0.0010
2049.00,0.0011
2048.00,0.0010
2047.00,0.0008
2046.00,0.0005
2045.00,0.0002
2044.00,-0.0000
2043.00,0.0000
2042.00,0.0003
2041.00,0.0005
2040.00,0.0007
2039.00,0.0007
2038.00,0.0006
2037.00,0.0004
2036.00,0.0001
2035.00,-0.0001
2034.00,-0.0003
2033.00,-0.0005
2032.00,-0.0008
2031.00,-0.0011
2030.00,-0.0014
2029.00,-0.0016
2028.00,-0.0015
2027.00,-0.0014
2026.00,-0.0012
2025.00,-0.0010
2024.00,-0.0010
2023.00,-0.0010
2022.00,-0.0011
2021.00,-0.0011
2020.00,-0.0011
2019.00,-0.0010
2018.00,-0.0009
2017.00,-0.0008
2016.00,-0.0008
2015.00,-0.0008
2014.00,-0.0007
2013.00,-0.0006
2012.00,-0.0005
2011.00,-0.0006
2010.00,-0.0008
2009.00,-0.0011
2008.00,-0.0014
2007.00,-0.0015
2006.00,-0.0015
2005.00,-0.0015
2004.00,-0.0013
2003.00,-0.0012
2002.00,-0.0010
2001.00,-0.0008
2000.00,-0.0008
1999.00,-0.0008
1998.00,-0.0008
1997.00,-0.0008
1996.00,-0.0008
1995.00,-0.0008
1994.00,-0.0008
1993.00,-0.0006
1992.00,-0.0004
1991.00,-0.0003
1990.00,-0.0004
1989.00,-0.0006
1988.00,-0.0010
1987.00,-0.0013
1986.00,-0.0014
1985.00,-0.0011
1984.00,-0.0005
1983.00,0.0001
1982.00,0.0006
1981.00,0.0010
1980.00,0.0011
1979.00,0.0009
1978.00,0.0003
1977.00,-0.0004
1976.00,-0.0008
1975.00,-0.0011
1974.00,-0.0013
1973.00,-0.0013
1972.00,-0.0011
1971.00,-0.0009
1970.00,-0.0008
1969.00,-0.0009
1968.00,-0.0010
1967.00,-0.0012
1966.00,-0.0012
1965.00,-0.0011
1964.00,-0.0010
1963.00,-0.0010
1962.00,-0.0010
1961.00,-0.0011
1960.00,-0.0013
1959.00,-0.0015
1958.00,-0.0018
1957.00,-0.0018
1956.00,-0.0017
1955.00,-0.0016
1954.00,-0.0015
1953.00,-0.0015
1952.00,-0.0015
1951.00,-0.0015
1950.00,-0.0015
1949.00,-0.0015
1948.00,-0.0014
1947.00,-0.0013
1946.00,-0.0011
1945.00,-0.0009
1944.00,-0.0007
1943.00,-0.0006
1942.00,-0.0007
1941.00,-0.0007
1940.00,-0.0007
1939.00,-0.0007
1938.00,-0.0006
1937.00,-0.0006
1936.00,-0.0006
1935.00,-0.0006
1934.00,-0.0006
1933.00,-0.0005
1932.00,-0.0003
1931.00,-0.0003
1930.00,-0.0003
1929.00,-0.0004
1928.00,-0.0004
1927.00,-0.0004
1926.00,-0.0004
1925.00,-0.0003
1924.00,-0.0004
1923.00,-0.0004
1922.00,-0.0004
1921.00,-0.0002
1920.00,-0.0001
1919.00,0.0000
1918.00,0.0000
1917.00,-0.0000
1916.00,-0.0001
1915.00,-0.0002
1914.00,-0.0002
1913.00,-0.0001
1912.00,-0.0001
1911.00,-0.0000
1910.00,-0.0000
1909.00,-0.0000
1908.00,-0.0000
1907.00,-0.0001
1906.00,-0.0001
1905.00,-0.0001
1904.00,-0.0001
1903.00,-0.0002
1902.00,-0.0002
1901.00,-0.0002
1900.00,-0.0001
1899.00,-0.0001
1898.00,0.0000
1897.00,0.0001
1896.00,0.0001
1895.00,0.0001
1894.00,0.0001
1893.00,0.0001
1892.00,0.0001
1891.00,0.0002
1890.00,0.0003
1889.00,0.0004
1888.00,0.0003
1887.00,0.0002
1886.00,0.0001
1885.00,0.0001
1884.00,0.0001
1883.00,0.0002
1882.00,0.0003
1881.00,0.0003
1880.00,0.0003
1879.00,0.0003
1878.00,0.0002
1877.00,0.0002
1876.00,0.0001
1875.00,0.0001
1874.00,0.0001
1873.00,0.0001
1872.00,0.0001
1871.00,0.0001
1870.00,0.0002
1869.00,0.0004
1868.00,0.0004
1867.00,0.0003
1866.00,0.0002
1865.00,0.0002
1864.00,0.0001
1863.00,0.0001
1862.00,0.0001
1861.00,0.0001
1860.00,0.0001
1859.00,0.0002
1858.00,0.0003
1857.00,0.0004
1856.00,0.0004
1855.00,0.0003
1854.00,0.0002
1853.00,0.0002
1852.00,0.0002
1851.00,0.0002
1850.00,0.0003
1849.00,0.0004
1848.00,0.0004
1847.00,0.0004
1846.00,0.0004
1845.00,0.0004
1844.00,0.0004
1843.00,0.0004
1842.00,0.0004
1841.00,0.0005
1840.00,0.0005
1839.00,0.0005
1838.00,0.0005
1837.00,0.0005
1836.00,0.0004
1835.00,0.0004
1834.00,0.0005
1833.00,0.0005
1832.00,0.0005
1831.00,0.0005
1830.00,0.0004
1829.00,0.0004
1828.00,0.0004
1827.00,0.0004
1826.00,0.0005
1825.00,0.0005
1824.00,0.0005
1823.00,0.0005
1822.00,0.0005
1821.00,0.0005
1820.00,0.0005
1819.00,0.0004
1818.00,0.0003
1817.00,0.0003
1816.00,0.0002
1815.00,0.0002
1814.00,0.0002
1813.00,0.0003
1812.00,0.0003
1811.00,0.0004
1810.00,0.0004
1809.00,0.0004
1808.00,0.0004
1807.00,0.0004
1806.00,0.0004
1805.00,0.0004
1804.00,0.0004
1803.00,0.0004
1802.00,0.0005
1801.00,0.0005
1800.00,0.0006
1799.00,0.0006
1798.00,0.0007
1797.00,0.0007
1796.00,0.0007
1795.00,0.0006
1794.00,0.0006
1793.00,0.0007
1792.00,0.0007
1791.00,0.0008
1790.00,0.0009
1789.00,0.0009
1788.00,0.0009
1787.00,0.0009
1786.00,0.0009
1785.00,0.0009
1784.00,0.0009
1783.00,0.0009
1782.00,0.0009
1781.00,0.0009
1780.00,0.0008
1779.00,0.0008
1778.00,0.0008
1777.00,0.0008
1776.00,0.0009
1775.00,0.0010
1774.00,0.0010
1773.00,0.0011
1772.00,0.0011
1771.00,0.0011
1770.00,0.0011
1769.00,0.0012
1768.00,0.0012
1767.00,0.0012
1766.00,0.0011
1765.00,0.0011
1764.00,0.0011
1763.00,0.0012
1762.00,0.0012
1761.00,0.0013
1760.00,0.0014
1759.00,0.0014
1758.00,0.0015
1757.00,0.0015
1756.00,0.0015
1755.00,0.0015
1754.00,0.0016
1753.00,0.0016
1752.00,0.0017
1751.00,0.0018
1750.00,0.0020
1749.00,0.0021
1748.00,0.0021
1747.00,0.0022
1746.00,0.0021
1745.00,0.0021
1744.00,0.0022
1743.00,0.0022
1742.00,0.0022
1741.00,0.0023
1740.00,0.0023
1739.00,0.0024
1738.00,0.0024
1737.00,0.0024
1736.00,0.0024
1735.00,0.0024
1734.00,0.0024
1733.00,0.0024
1732.00,0.0024
1731.00,0.0025
1730.00,0.0025
1729.00,0.0025
1728.00,0.0026
1727.00,0.0026
1726.00,0.0026
1725.00,0.0026
1724.00,0.0027
1723.00,0.0027
1722.00,0.0026
1721.00,0.0026
1720.00,0.0025
1719.00,0.0025
1718.00,0.0024
1717.00,0.0024
1716.00,0.0024
1715.00,0.0024
1714.00,0.0024
1713.00,0.0024
1712.00,0.0025
1711.00,0.0025
1710.00,0.0025
1709.00,0.0025
1708.00,0.0025
1707.00,0.0025
1706.00,0.0026
1705.00,0.0026
1704.00,0.0026
1703.00,0.0027
1702.00,0.0027
1701.00,0.0028
1700.00,0.0028
1699.00,0.0029
1698.00,0.0029
1697.00,0.0029
1696.00,0.0029
1695.00,0.0030
1694.00,0.0030
1693.00,0.0031
1692.00,0.0031
1691.00,0.0032
1690.00,0.0033
1689.00,0.0034
1688.00,0.0036
1687.00,0.0037
1686.00,0.0037
1685.00,0.0036
1684.00,0.0036
1683.00,0.0037
1682.00,0.0039
1681.00,0.0040
1680.00,0.0042
1679.00,0.0043
1678.00,0.0043
1677.00,0.0044
1676.00,0.0045
1675.00,0.0045
1674.00,0.0046
1673.00,0.0046
1672.00,0.0047
1671.00,0.0047
1670.00,0.0048
1669.00,0.0048
1668.00,0.0049
1667.00,0.0050
1666.00,0.0050
1665.00,0.0051
1664.00,0.0052
1663.00,0.0053
1662.00,0.0053
1661.00,0.0054
1660.00,0.0055
1659.00,0.0056
1658.00,0.0056
1657.00,0.0057
1656.00,0.0058
1655.00,0.0058
1654.00,0.0059
1653.00,0.0061
1652.00,0.0062
1651.00,0.0063
1650.00,0.0064
1649.00,0.0066
1648.00,0.0068
1647.00,0.0071
1646.00,0.0071
1645.00,0.0071
1644.00,0.0071
1643.00,0.0071
1642.00,0.0071
1641.00,0.0071
1640.00,0.0072
1639.00,0.0072
1638.00,0.0073
1637.00,0.0073
1636.00,0.0073
1635.00,0.0073
1634.00,0.0072
1633.00,0.0071
1632.00,0.0071
1631.00,0.0071
1630.00,0.0071
1629.00,0.0070
1628.00,0.0070
1627.00,0.0069
1626.00,0.0068
1625.00,0.0067
1624.00,0.0067
1623.00,0.0066
1622.00,0.0065
1621.00,0.0065
1620.00,0.0065
1619.00,0.0065
1618.00,0.0064
1617.00,0.0064
1616.00,0.0064
1615.00,0.0064
1614.00,0.0064
1613.00,0.0065
1612.00,0.0065
1611.00,0.0064
1610.00,0.0064
1609.00,0.0063
1608.00,0.0063
1607.00,0.0063
1606.00,0.0064
1605.00,0.0064
1604.00,0.0064
1603.00,0.0064
1602.00,0.0063
1601.00,0.0063
1600.00,0.0062
1599.00,0.0062
1598.00,0.0062
1597.00,0.0062
1596.00,0.0062
1595.00,0.0062
1594.00,0.0062
1593.00,0.0062
1592.00,0.0062
1591.00,0.0062
1590.00,0.0061
1589.00,0.0061
1588.00,0.0061
1587.00,0.0061
1586.00,0.0060
1585.00,0.0061
1584.00,0.0061
1583.00,0.0061
1582.00,0.0061
1581.00,0.0062
1580.00,0.0062
1579.00,0.0063
1578.00,0.0063
1577.00,0.0064
1576.00,0.0064
1575.00,0.0064
1574.00,0.0064
1573.00,0.0064
1572.00,0.0064
1571.00,0.0064
1570.00,0.0064
1569.00,0.0065
1568.00,0.0065
1567.00,0.0066
1566.00,0.0066
1565.00,0.0067
1564.00,0.0067
1563.00,0.0067
1562.00,0.0068
1561.00,0.0068
1560.00,0.0069
1559.00,0.0069
1558.00,0.0070
1557.00,0.0071
1556.00,0.0072
1555.00,0.0073
1554.00,0.0074
1553.00,0.0074
1552.00,0.0075
1551.00,0.0075
1550.00,0.0075
1549.00,0.0075
1548.00,0.0076
1547.00,0.0076
1546.00,0.0076
1545.00,0.0076
1544.00,0.0075
1543.00,0.0074
1542.00,0.0072
1541.00,0.0071
1540.00,0.0069
1539.00,0.0067
1538.00,0.0066
1537.00,0.0066
1536.00,0.0065
1535.00,0.0064
1534.00,0.0063
1533.00,0.0061
1532.00,0.0060
1531.00,0.0059
1530.00,0.0058
1529.00,0.0057
1528.00,0.0057
1527.00,0.0056
1526.00,0.0055
1525.00,0.0055
1524.00,0.0055
1523.00,0.0056
1522.00,0.0056
1521.00,0.0056
1520.00,0.0056
1519.00,0.0056
1518.00,0.0056
1517.00,0.0057
1516.00,0.0058
1515.00,0.0058
1514.00,0.0059
1513.00,0.0059
1512.00,0.0060
1511.00,0.0060
1510.00,0.0061
1509.00,0.0062
1508.00,0.0063
1507.00,0.0064
1506.00,0.0063
1505.00,0.0064
1504.00,0.0066
1503.00,0.0067
1502.00,0.0069
1501.00,0.0071
1500.00,0.0074
1499.00,0.0075
1498.00,0.0077
1497.00,0.0080
1496.00,0.0084
1495.00,0.0087
1494.00,0.0089
1493.00,0.0092
1492.00,0.0096
1491.00,0.0099
1490.00,0.0103
1489.00,0.0107
1488.00,0.0112
1487.00,0.0117
1486.00,0.0122
1485.00,0.0128
1484.00,0.0134
1483.00,0.0141
1482.00,0.0149
1481.00,0.0159
1480.00,0.0170
1479.00,0.0182
1478.00,0.0197
1477.00,0.0218
1476.00,0.0244
1475.00,0.0274
1474.00,0.0315
1473.00,0.0374
1472.00,0.0442
1471.00,0.0508
1470.00,0.0571
1469.00,0.0637
1468.00,0.0708
1467.00,0.0786
1466.00,0.0874
1465.00,0.0969
1464.00,0.1052
1463.00,0.1109
1462.00,0.1144
1461.00,0.1168
1460.00,0.1184
1459.00,0.1193
1458.00,0.1200
1457.00,0.1205
1456.00,0.1202
1455.00,0.1193
1454.00,0.1181
1453.00,0.1163
1452.00,0.1135
1451.00,0.1097
1450.00,0.1045
1449.00,0.0973
1448.00,0.0882
1447.00,0.0786
1446.00,0.0699
1445.00,0.0626
1444.00,0.0564
1443.00,0.0513
1442.00,0.0474
1441.00,0.0448
1440.00,0.0432
1439.00,0.0425
1438.00,0.0427
1437.00,0.0428
1436.00,0.0419
1435.00,0.0396
1434.00,0.0361
1433.00,0.0319
1432.00,0.0274
1431.00,0.0235
1430.00,0.0203
1429.00,0.0181
1428.00,0.0165
1427.00,0.0156
1426.00,0.0149
1425.00,0.0143
1424.00,0.0137
1423.00,0.0133
1422.00,0.0132
1421.00,0.0130
1420.00,0.0127
1419.00,0.0125
1418.00,0.0124
1417.00,0.0121
1416.00,0.0119
1415.00,0.0119
1414.00,0.0118
1413.00,0.0117
1412.00,0.0116
1411.00,0.0115
1410.00,0.0115
1409.00,0.0114
1408.00,0.0112
1407.00,0.0112
1406.00,0.0113
1405.00,0.0114
1404.00,0.0114
1403.00,0.0116
1402.00,0.0118
1401.00,0.0119
1400.00,0.0121
1399.00,0.0124
1398.00,0.0127
1397.00,0.0129
1396.00,0.0130
1395.00,0.0133
1394.00,0.0138
1393.00,0.0143
1392.00,0.0149
1391.00,0.0157
1390.00,0.0168
1389.00,0.0182
1388.00,0.0203
1387.00,0.0234
1386.00,0.0276
1385.00,0.0330
1384.00,0.0407
1383.00,0.0517
1382.00,0.0667
1381.00,0.0862
1380.00,0.1104
1379.00,0.1379
1378.00,0.1642
1377.00,0.1830
1376.00,0.1888
1375.00,0.1785
1374.00,0.1553
1373.00,0.1278
1372.00,0.1030
1371.00,0.0828
1370.00,0.0667
1369.00,0.0545
1368.00,0.0460
1367.00,0.0408
1366.00,0.0380
1365.00,0.0369
1364.00,0.0371
1363.00,0.0385
1362.00,0.0406
1361.00,0.0428
1360.00,0.0444
1359.00,0.0449
1358.00,0.0439
1357.00,0.0414
1356.00,0.0379
1355.00,0.0339
1354.00,0.0301
1353.00,0.0268
1352.00,0.0241
1351.00,0.0220
1350.00,0.0202
1349.00,0.0188
1348.00,0.0176
1347.00,0.0166
1346.00,0.0158
1345.00,0.0151
1344.00,0.0144
1343.00,0.0139
1342.00,0.0134
1341.00,0.0130
1340.00,0.0128
1339.00,0.0126
1338.00,0.0125
1337.00,0.0124
1336.00,0.0125
1335.00,0.0126
1334.00,0.0129
1333.00,0.0133
1332.00,0.0138
1331.00,0.0141
1330.00,0.0143
1329.00,0.0141
1328.00,0.0138
1327.00,0.0133
1326.00,0.0127
1325.00,0.0121
1324.00,0.0114
1323.00,0.0109
1322.00,0.0104
1321.00,0.0101
1320.00,0.0099
1319.00,0.0098
1318.00,0.0097
1317.00,0.0096
1316.00,0.0095
1315.00,0.0094
1314.00,0.0094
1313.00,0.0095
1312.00,0.0096
1311.00,0.0098
1310.00,0.0101
1309.00,0.0107
1308.00,0.0116
1307.00,0.0127
1306.00,0.0137
1305.00,0.0144
1304.00,0.0146
1303.00,0.0143
1302.00,0.0138
1301.00,0.0134
1300.00,0.0133
1299.00,0.0133
1298.00,0.0133
1297.00,0.0134
1296.00,0.0133
1295.00,0.0130
1294.00,0.0126
1293.00,0.0121
1292.00,0.0115
1291.00,0.0110
1290.00,0.0105
1289.00,0.0101
1288.00,0.0098
1287.00,0.0096
1286.00,0.0094
1285.00,0.0092
1284.00,0.0090
1283.00,0.0088
1282.00,0.0087
1281.00,0.0086
1280.00,0.0086
1279.00,0.0085
1278.00,0.0084
1277.00,0.0084
1276.00,0.0084
1275.00,0.0084
1274.00,0.0085
1273.00,0.0086
1272.00,0.0087
1271.00,0.0087
1270.00,0.0088
1269.00,0.0089
1268.00,0.0091
1267.00,0.0093
1266.00,0.0096
1265.00,0.0098
1264.00,0.0101
1263.00,0.0104
1262.00,0.0108
1261.00,0.0112
1260.00,0.0117
1259.00,0.0124
1258.00,0.0131
1257.00,0.0137
1256.00,0.0139
1255.00,0.0137
1254.00,0.0131
1253.00,0.0124
1252.00,0.0116
1251.00,0.0110
1250.00,0.0104
1249.00,0.0100
1248.00,0.0097
1247.00,0.0094
1246.00,0.0092
1245.00,0.0090
1244.00,0.0089
1243.00,0.0088
1242.00,0.0088
1241.00,0.0087
1240.00,0.0085
1239.00,0.0084
1238.00,0.0083
1237.00,0.0082
1236.00,0.0082
1235.00,0.0082
1234.00,0.0082
1233.00,0.0083
1232.00,0.0083
1231.00,0.0083
1230.00,0.0083
1229.00,0.0083
1228.00,0.0084
1227.00,0.0086
1226.00,0.0088
1225.00,0.0090
1224.00,0.0094
1223.00,0.0098
1222.00,0.0101
1221.00,0.0104
1220.00,0.0106
1219.00,0.0106
1218.00,0.0105
1217.00,0.0103
1216.00,0.0100
1215.00,0.0097
1214.00,0.0094
1213.00,0.0091
1212.00,0.0089
1211.00,0.0086
1210.00,0.0085
1209.00,0.0083
1208.00,0.0082
1207.00,0.0080
1206.00,0.0079
1205.00,0.0079
1204.00,0.0078
1203.00,0.0078
1202.00,0.0078
1201.00,0.0078
1200.00,0.0078
1199.00,0.0077
1198.00,0.0077
1197.00,0.0078
1196.00,0.0079
1195.00,0.0079
1194.00,0.0079
1193.00,0.0079
1192.00,0.0079
1191.00,0.0079
1190.00,0.0080
1189.00,0.0081
1188.00,0.0081
1187.00,0.0081
1186.00,0.0082
1185.00,0.0083
1184.00,0.0085
1183.00,0.0087
1182.00,0.0089
1181.00,0.0092
1180.00,0.0096
1179.00,0.0101
1178.00,0.0108
1177.00,0.0116
1176.00,0.0127
1175.00,0.0141
1174.00,0.0160
1173.00,0.0184
1172.00,0.0212
1171.00,0.0243
1170.00,0.0273
1169.00,0.0298
1168.00,0.0312
1167.00,0.0315
1166.00,0.0307
1165.00,0.0292
1164.00,0.0275
1163.00,0.0259
1162.00,0.0246
1161.00,0.0235
1160.00,0.0227
1159.00,0.0221
1158.00,0.0217
1157.00,0.0214
1156.00,0.0212
1155.00,0.0211
1154.00,0.0209
1153.00,0.0207
1152.00,0.0203
1151.00,0.0197
1150.00,0.0189
1149.00,0.0180
1148.00,0.0170
1147.00,0.0161
1146.00,0.0153
1145.00,0.0145
1144.00,0.0138
1143.00,0.0131
1142.00,0.0125
1141.00,0.0120
1140.00,0.0116
1139.00,0.0111
1138.00,0.0107
1137.00,0.0104
1136.00,0.0102
1135.00,0.0100
1134.00,0.0099
1133.00,0.0098
1132.00,0.0098
1131.00,0.0098
1130.00,0.0098
1129.00,0.0097
1128.00,0.0097
1127.00,0.0097
1126.00,0.0097
1125.00,0.0098
1124.00,0.0099
1123.00,0.0100
1122.00,0.0102
1121.00,0.0102
1120.00,0.0103
1119.00,0.0104
1118.00,0.0105
1117.00,0.0105
1116.00,0.0106
1115.00,0.0107
1114.00,0.0108
1113.00,0.0109
1112.00,0.0111
1111.00,0.0113
1110.00,0.0115
1109.00,0.0118
1108.00,0.0123
1107.00,0.0129
1106.00,0.0136
1105.00,0.0143
1104.00,0.0148
1103.00,0.0151
1102.00,0.0151
1101.00,0.0147
1100.00,0.0141
1099.00,0.0134
1098.00,0.0128
1097.00,0.0122
1096.00,0.0118
1095.00,0.0114
1094.00,0.0111
1093.00,0.0108
1092.00,0.0106
1091.00,0.0105
1090.00,0.0104
1089.00,0.0102
1088.00,0.0102
1087.00,0.0102
1086.00,0.0102
1085.00,0.0103
1084.00,0.0104
1083.00,0.0103
1082.00,0.0102
1081.00,0.0100
1080.00,0.0098
1079.00,0.0097
1078.00,0.0095
1077.00,0.0094
1076.00,0.0093
1075.00,0.0092
1074.00,0.0092
1073.00,0.0093
1072.00,0.0094
1071.00,0.0094
1070.00,0.0094
1069.00,0.0093
1068.00,0.0093
1067.00,0.0092
1066.00,0.0093
1065.00,0.0093
1064.00,0.0093
1063.00,0.0094
1062.00,0.0095
1061.00,0.0096
1060.00,0.0097
1059.00,0.0097
1058.00,0.0098
1057.00,0.0098
1056.00,0.0100
1055.00,0.0102
1054.00,0.0105
1053.00,0.0107
1052.00,0.0110
1051.00,0.0113
1050.00,0.0118
1049.00,0.0122
1048.00,0.0126
1047.00,0.0130
1046.00,0.0134
1045.00,0.0136
1044.00,0.0137
1043.00,0.0136
1042.00,0.0134
1041.00,0.0132
1040.00,0.0130
1039.00,0.0128
1038.00,0.0127
1037.00,0.0126
1036.00,0.0125
1035.00,0.0123
1034.00,0.0122
1033.00,0.0121
1032.00,0.0120
1031.00,0.0119
1030.00,0.0119
1029.00,0.0120
1028.00,0.0121
1027.00,0.0122
1026.00,0.0122
1025.00,0.0124
1024.00,0.0126
1023.00,0.0129
1022.00,0.0132
1021.00,0.0134
1020.00,0.0136
1019.00,0.0137
1018.00,0.0137
1017.00,0.0136
1016.00,0.0136
1015.00,0.0135
1014.00,0.0135
1013.00,0.0135
1012.00,0.0135
1011.00,0.0135
1010.00,0.0136
1009.00,0.0137
1008.00,0.0140
1007.00,0.0145
1006.00,0.0152
1005.00,0.0162
1004.00,0.0177
1003.00,0.0198
1002.00,0.0227
1001.00,0.0263
1000.00,0.0302
999.00,0.0334
998.00,0.0350
997.00,0.0343
996.00,0.0315
995.00,0.0277
994.00,0.0236
993.00,0.0202
992.00,0.0175
991.00,0.0156
990.00,0.0142
989.00,0.0133
988.00,0.0126
987.00,0.0123
986.00,0.0123
985.00,0.0125
984.00,0.0128
983.00,0.0134
982.00,0.0144
981.00,0.0159
980.00,0.0181
979.00,0.0208
978.00,0.0243
977.00,0.0283
976.00,0.0327
975.00,0.0368
974.00,0.0399
973.00,0.0410
972.00,0.0395
971.00,0.0359
970.00,0.0310
969.00,0.0261
968.00,0.0219
967.00,0.0186
966.00,0.0163
965.00,0.0145
964.00,0.0133
963.00,0.0124
962.00,0.0117
961.00,0.0111
960.00,0.0107
959.00,0.0103
958.00,0.0101
957.00,0.0099
956.00,0.0098
955.00,0.0096
954.00,0.0095
953.00,0.0094
952.00,0.0093
951.00,0.0092
950.00,0.0091
949.00,0.0091
948.00,0.0090
947.00,0.0090
946.00,0.0091
945.00,0.0093
944.00,0.0097
943.00,0.0101
942.00,0.0105
941.00,0.0108
940.00,0.0108
939.00,0.0104
938.00,0.0099
937.00,0.0092
936.00,0.0086
935.00,0.0082
934.00,0.0079
933.00,0.0077
932.00,0.0074
931.00,0.0073
930.00,0.0072
929.00,0.0071
928.00,0.0070
927.00,0.0070
926.00,0.0069
925.00,0.0069
924.00,0.0069
923.00,0.0069
922.00,0.0069
921.00,0.0068
920.00,0.0066
919.00,0.0065
918.00,0.0064
917.00,0.0065
916.00,0.0067
915.00,0.0069
914.00,0.0070
913.00,0.0071
912.00,0.0072
911.00,0.0073
910.00,0.0075
909.00,0.0078
908.00,0.0082
907.00,0.0088
906.00,0.0095
905.00,0.0106
904.00,0.0120
903.00,0.0137
902.00,0.0156
901.00,0.0172
900.00,0.0183
899.00,0.0185
898.00,0.0177
897.00,0.0161
896.00,0.0141
895.00,0.0121
894.00,0.0106
893.00,0.0096
892.00,0.0090
891.00,0.0087
890.00,0.0084
889.00,0.0083
888.00,0.0081
887.00,0.0078
886.00,0.0076
885.00,0.0074
884.00,0.0073
883.00,0.0072
882.00,0.0073
881.00,0.0074
880.00,0.0075
879.00,0.0077
878.00,0.0078
877.00,0.0078
876.00,0.0078
875.00,0.0078
874.00,0.0079
873.00,0.0079
872.00,0.0079
871.00,0.0080
870.00,0.0080
869.00,0.0080
868.00,0.0079
867.00,0.0078
866.00,0.0079
865.00,0.0080
864.00,0.0082
863.00,0.0083
862.00,0.0083
861.00,0.0083
860.00,0.0084
859.00,0.0085
858.00,0.0086
857.00,0.0087
856.00,0.0089
855.00,0.0091
854.00,0.0094
853.00,0.0097
852.00,0.0100
851.00,0.0104
850.00,0.0108
849.00,0.0113
848.00,0.0121
847.00,0.0135
846.00,0.0155
845.00,0.0185
844.00,0.0229
843.00,0.0279
842.00,0.0321
841.00,0.0335
840.00,0.0315
839.00,0.0269
838.00,0.0217
837.00,0.0176
836.00,0.0149
835.00,0.0133
834.00,0.0124
833.00,0.0117
832.00,0.0112
831.00,0.0108
830.00,0.0104
829.00,0.0103
828.00,0.0102
827.00,0.0102
826.00,0.0102
825.00,0.0102
824.00,0.0102
823.00,0.0102
822.00,0.0103
821.00,0.0105
820.00,0.0107
819.00,0.0109
818.00,0.0113
817.00,0.0119
816.00,0.0127
815.00,0.0139
814.00,0.0154
813.00,0.0174
812.00,0.0195
811.00,0.0215
810.00,0.0230
809.00,0.0235
808.00,0.0230
807.00,0.0216
806.00,0.0195
805.00,0.0174
804.00,0.0156
803.00,0.0142
802.00,0.0132
801.00,0.0125
800.00,0.0119
799.00,0.0114
798.00,0.0108
797.00,0.0103
796.00,0.0100
795.00,0.0099
794.00,0.0097
793.00,0.0096
792.00,0.0094
791.00,0.0092
790.00,0.0089
789.00,0.0085
788.00,0.0082
787.00,0.0080
786.00,0.0078
785.00,0.0077
784.00,0.0075
783.00,0.0073
782.00,0.0072
781.00,0.0071
780.00,0.0071
779.00,0.0072
778.00,0.0072
777.00,0.0071
776.00,0.0070
775.00,0.0068
774.00,0.0067
773.00,0.0067
772.00,0.0067
771.00,0.0068
770.00,0.0068
769.00,0.0070
768.00,0.0071
767.00,0.0071
766.00,0.0071
765.00,0.0071
764.00,0.0070
763.00,0.0069
762.00,0.0069
761.00,0.0069
760.00,0.0069
759.00,0.0070
758.00,0.0071
757.00,0.0072
756.00,0.0074
755.00,0.0074
754.00,0.0075
753.00,0.0076
752.00,0.0077
751.00,0.0079
750.00,0.0082
749.00,0.0085
748.00,0.0087
747.00,0.0089
746.00,0.0090
745.00,0.0091
744.00,0.0092
743.00,0.0094
742.00,0.0097
741.00,0.0100
740.00,0.0105
739.00,0.0110
738.00,0.0115
737.00,0.0119
736.00,0.0122
735.00,0.0126
734.00,0.0130
733.00,0.0135
732.00,0.0140
731.00,0.0146
730.00,0.0150
729.00,0.0153
728.00,0.0156
727.00,0.0159
726.00,0.0162
725.00,0.0165
724.00,0.0169
723.00,0.0174
722.00,0.0179
721.00,0.0181
720.00,0.0178
719.00,0.0170
718.00,0.0157
717.00,0.0144
716.00,0.0134
715.00,0.0128
714.00,0.0123
713.00,0.0120
712.00,0.0116
711.00,0.0113
710.00,0.0110
709.00,0.0108
708.00,0.0108
707.00,0.0108
706.00,0.0108
705.00,0.0107
704.00,0.0106
703.00,0.0104
702.00,0.0103
701.00,0.0103
700.00,0.0102
699.00,0.0101
698.00,0.0100
697.00,0.0099
696.00,0.0099
695.00,0.0101
694.00,0.0102
693.00,0.0102
692.00,0.0101
691.00,0.0099
690.00,0.0098
689.00,0.0097
688.00,0.0097
687.00,0.0097
686.00,0.0097
685.00,0.0096
684.00,0.0097
683.00,0.0097
682.00,0.0098
681.00,0.0099
680.00,0.0100
679.00,0.0101
678.00,0.0101
677.00,0.0102
676.00,0.0103
675.00,0.0104
674.00,0.0107
673.00,0.0110
672.00,0.0113
671.00,0.0113
670.00,0.0110
669.00,0.0105
668.00,0.0099
667.00,0.0096
666.00,0.0098
665.00,0.0101
664.00,0.0103
663.00,0.0105
662.00,0.0104
661.00,0.0103
660.00,0.0101
659.00,0.0099
658.00,0.0098
657.00,0.0097
656.00,0.0097
655.00,0.0096
654.00,0.0094
653.00,0.0091
652.00,0.0089
651.00,0.0087
650.00,0.0087
649.00,0.0088
648.00,0.0091
647.00,0.0094
646.00,0.0096
645.00,0.0097
644.00,0.0097
643.00,0.0097
642.00,0.0096
641.00,0.0096
640.00,0.0095
639.00,0.0093
638.00,0.0090
637.00,0.0089
636.00,0.0087
635.00,0.0087
634.00,0.0089
633.00,0.0091
632.00,0.0093
631.00,0.0093
630.00,0.0091
629.00,0.0089
628.00,0.0089
627.00,0.0090
626.00,0.0091
625.00,0.0092
624.00,0.0092
623.00,0.0092
622.00,0.0091
621.00,0.0091
620.00,0.0091
619.00,0.0091
618.00,0.0090
617.00,0.0088
616.00,0.0087
615.00,0.0087
614.00,0.0088
613.00,0.0088
612.00,0.0088
611.00,0.0089
610.00,0.0089
609.00,0.0090
608.00,0.0091
607.00,0.0093
606.00,0.0095
605.00,0.0097
604.00,0.0099
603.00,0.0099
602.00,0.0097
601.00,0.0092
600.00,0.0087
599.00,0.0085
598.00,0.0086
597.00,0.0088
596.00,0.0089
595.00,0.0089
594.00,0.0089
593.00,0.0091
592.00,0.0093
591.00,0.0094
590.00,0.0092
589.00,0.0089
588.00,0.0085
587.00,0.0082
586.00,0.0081
585.00,0.0082
584.00,0.0084
583.00,0.0085
582.00,0.0086
581.00,0.0087
580.00,0.0088
579.00,0.0089
578.00,0.0090
577.00,0.0092
576.00,0.0093
575.00,0.0093
574.00,0.0091
573.00,0.0088
572.00,0.0088
571.00,0.0088
570.00,0.0089
569.00,0.0089
568.00,0.0087
567.00,0.0086
566.00,0.0085
565.00,0.0084
564.00,0.0083
563.00,0.0082
562.00,0.0082
561.00,0.0084
560.00,0.0088
559.00,0.0091
558.00,0.0094
557.00,0.0095
556.00,0.0095
555.00,0.0097
554.00,0.0098
553.00,0.0098
552.00,0.0097
551.00,0.0095
550.00,0.0095
549.00,0.0096
548.00,0.0100
547.00,0.0104
546.00,0.0107
545.00,0.0108
544.00,0.0107
543.00,0.0106
542.00,0.0108
541.00,0.0113
540.00,0.0118
539.00,0.0121
538.00,0.0122
537.00,0.0122
536.00,0.0121
535.00,0.0122
534.00,0.0122
533.00,0.0123
532.00,0.0121
531.00,0.0119
530.00,0.0120
529.00,0.0123
528.00,0.0127
527.00,0.0128
526.00,0.0125
525.00,0.0119
524.00,0.0115
523.00,0.0114
522.00,0.0113
521.00,0.0110
520.00,0.0104
519.00,0.0099
518.00,0.0097
517.00,0.0095
516.00,0.0093
515.00,0.0089
514.00,0.0086
513.00,0.0086
512.00,0.0089
511.00,0.0091
510.00,0.0091
509.00,0.0090
508.00,0.0090
507.00,0.0093
506.00,0.0097
505.00,0.0100
504.00,0.0103
503.00,0.0104
502.00,0.0101
501.00,0.0093
500.00,0.0081
499.00,0.0069
498.00,0.0064
497.00,0.0067
496.00,0.0076
495.00,0.0084
494.00,0.0090
493.00,0.0095
492.00,0.0100
491.00,0.0106
490.00,0.0108
489.00,0.0105
488.00,0.0099
487.00,0.0095
486.00,0.0095
485.00,0.0100
484.00,0.0110
483.00,0.0120
482.00,0.0126
481.00,0.0125
480.00,0.0120
479.00,0.0116
478.00,0.0116
477.00,0.0120
476.00,0.0124
475.00,0.0128
474.00,0.0131
473.00,0.0136
472.00,0.0142
471.00,0.0148
470.00,0.0153
469.00,0.0159
468.00,0.0168
467.00,0.0179
466.00,0.0191
465.00,0.0202
464.00,0.0210
463.00,0.0210
462.00,0.0202
461.00,0.0190
460.00,0.0182
459.00,0.0180
458.00,0.0182
457.00,0.0180
456.00,0.0172
455.00,0.0162
454.00,0.0159
453.00,0.0163
452.00,0.0173
451.00,0.0184
450.00,0.0190
