Created as New Dataset,Sample 009 By Administrator Date Thursday, September 04 2025
cm-1,A
4000.00,0.0008
3999.00,0.0008
3998.00,0.0009
3997.00,0.0009
3996.00,0.0009
3995.00,0.0009
3994.00,0.0009
3993.00,0.0009
3992.00,0.0009
3991.00,0.0009
3990.00,0.0009
3989.00,0.0009
3988.00,0.0008
3987.00,0.0008
3986.00,0.0008
3985.00,0.0008
3984.00,0.0008
3983.00,0.0008
3982.00,0.0008
3981.00,0.0008
3980.00,0.0008
3979.00,0.0008
3978.00,0.0008
3977.00,0.0008
3976.00,0.0008
3975.00,0.0008
3974.00,0.0007
3973.00,0.0007
3972.00,0.0007
3971.00,0.0007
3970.00,0.0007
3969.00,0.0007
3968.00,0.0007
3967.00,0.0007
3966.00,0.0007
3965.00,0.0007
3964.00,0.0007
3963.00,0.0007
3962.00,0.0007
3961.00,0.0007
3960.00,0.0007
3959.00,0.0007
3958.00,0.0007
3957.00,0.0008
3956.00,0.0008
3955.00,0.0008
3954.00,0.0008
3953.00,0.0008
3952.00,0.0008
3951.00,0.0008
3950.00,0.0008
3949.00,0.0008
3948.00,0.0008
3947.00,0.0007
3946.00,0.0007
3945.00,0.0007
3944.00,0.0007
3943.00,0.0007
3942.00,0.0007
3941.00,0.0007
3940.00,0.0007
3939.00,0.0007
3938.00,0.0008
3937.00,0.0008
3936.00,0.0008
3935.00,0.0008
3934.00,0.0008
3933.00,0.0008
3932.00,0.0007
3931.00,0.0007
3930.00,0.0007
3929.00,0.0007
3928.00,0.0007
3927.00,0.0007
3926.00,0.0007
3925.00,0.0008
3924.00,0.0008
3923.00,0.0008
3922.00,0.0008
3921.00,0.0008
3920.00,0.0008
3919.00,0.0007
3918.00,0.0007
3917.00,0.0007
3916.00,0.0007
3915.00,0.0007
3914.00,0.0007
3913.00,0.0007
3912.00,0.0007
3911.00,0.0007
3910.00,0.0007
3909.00,0.0007
3908.00,0.0008
3907.00,0.0008
3906.00,0.0007
3905.00,0.0007
3904.00,0.0006
3903.00,0.0006
3902.00,0.0006
3901.00,0.0007
3900.00,0.0007
3899.00,0.0007
3898.00,0.0007
3897.00,0.0007
3896.00,0.0008
3895.00,0.0008
3894.00,0.0008
3893.00,0.0008
3892.00,0.0008
3891.00,0.0008
3890.00,0.0008
3889.00,0.0007
3888.00,0.0007
3887.00,0.0006
3886.00,0.0006
3885.00,0.0006
3884.00,0.0006
3883.00,0.0006
3882.00,0.0007
3881.00,0.0007
3880.00,0.0007
3879.00,0.0007
3878.00,0.0007
3877.00,0.0007
3876.00,0.0007
3875.00,0.0007
3874.00,0.0006
3873.00,0.0006
3872.00,0.0006
3871.00,0.0006
3870.00,0.0006
3869.00,0.0006
3868.00,0.0006
3867.00,0.0006
3866.00,0.0006
3865.00,0.0006
3864.00,0.0007
3863.00,0.0007
3862.00,0.0007
3861.00,0.0007
3860.00,0.0007
3859.00,0.0007
3858.00,0.0007
3857.00,0.0007
3856.00,0.0007
3855.00,0.0007
3854.00,0.0006
3853.00,0.0006
3852.00,0.0005
3851.00,0.0006
3850.00,0.0006
3849.00,0.0007
3848.00,0.0007
3847.00,0.0007
3846.00,0.0007
3845.00,0.0007
3844.00,0.0007
3843.00,0.0007
3842.00,0.0007
3841.00,0.0006
3840.00,0.0006
3839.00,0.0005
3838.00,0.0005
3837.00,0.0005
3836.00,0.0005
3835.00,0.0006
3834.00,0.0007
3833.00,0.0007
3832.00,0.0006
3831.00,0.0006
3830.00,0.0006
3829.00,0.0006
3828.00,0.0006
3827.00,0.0006
3826.00,0.0006
3825.00,0.0006
3824.00,0.0006
3823.00,0.0005
3822.00,0.0005
3821.00,0.0005
3820.00,0.0006
3819.00,0.0006
3818.00,0.0006
3817.00,0.0006
3816.00,0.0006
3815.00,0.0007
3814.00,0.0007
3813.00,0.0007
3812.00,0.0007
3811.00,0.0007
3810.00,0.0007
3809.00,0.0007
3808.00,0.0007
3807.00,0.0007
3806.00,0.0006
3805.00,0.0006
3804.00,0.0006
3803.00,0.0005
3802.00,0.0005
3801.00,0.0005
3800.00,0.0006
3799.00,0.0006
3798.00,0.0006
3797.00,0.0006
3796.00,0.0007
3795.00,0.0007
3794.00,0.0007
3793.00,0.0007
3792.00,0.0007
3791.00,0.0007
3790.00,0.0007
3789.00,0.0006
3788.00,0.0006
3787.00,0.0006
3786.00,0.0006
3785.00,0.0006
3784.00,0.0006
3783.00,0.0006
3782.00,0.0006
3781.00,0.0005
3780.00,0.0005
3779.00,0.0005
3778.00,0.0006
3777.00,0.0006
3776.00,0.0006
3775.00,0.0006
3774.00,0.0006
3773.00,0.0006
3772.00,0.0006
3771.00,0.0007
3770.00,0.0007
3769.00,0.0007
3768.00,0.0007
3767.00,0.0007
3766.00,0.0007
3765.00,0.0007
3764.00,0.0007
3763.00,0.0007
3762.00,0.0006
3761.00,0.0006
3760.00,0.0006
3759.00,0.0006
3758.00,0.0006
3757.00,0.0006
3756.00,0.0006
3755.00,0.0006
3754.00,0.0007
3753.00,0.0007
3752.00,0.0007
3751.00,0.0007
3750.00,0.0006
3749.00,0.0006
3748.00,0.0006
3747.00,0.0006
3746.00,0.0006
3745.00,0.0006
3744.00,0.0005
3743.00,0.0005
3742.00,0.0005
3741.00,0.0005
3740.00,0.0005
3739.00,0.0005
3738.00,0.0005
3737.00,0.0004
3736.00,0.0005
3735.00,0.0005
3734.00,0.0005
3733.00,0.0005
3732.00,0.0005
3731.00,0.0005
3730.00,0.0005
3729.00,0.0005
3728.00,0.0006
3727.00,0.0006
3726.00,0.0006
3725.00,0.0006
3724.00,0.0006
3723.00,0.0007
3722.00,0.0007
3721.00,0.0006
3720.00,0.0006
3719.00,0.0005
3718.00,0.0005
3717.00,0.0005
3716.00,0.0005
3715.00,0.0005
3714.00,0.0006
3713.00,0.0006
3712.00,0.0006
3711.00,0.0006
3710.00,0.0006
3709.00,0.0006
3708.00,0.0005
3707.00,0.0005
3706.00,0.0005
3705.00,0.0005
3704.00,0.0005
3703.00,0.0005
3702.00,0.0005
3701.00,0.0005
3700.00,0.0005
3699.00,0.0005
3698.00,0.0005
3697.00,0.0005
3696.00,0.0005
3695.00,0.0006
3694.00,0.0006
3693.00,0.0006
3692.00,0.0006
3691.00,0.0006
3690.00,0.0006
3689.00,0.0006
3688.00,0.0006
3687.00,0.0005
3686.00,0.0005
3685.00,0.0006
3684.00,0.0006
3683.00,0.0006
3682.00,0.0006
3681.00,0.0007
3680.00,0.0007
3679.00,0.0007
3678.00,0.0007
3677.00,0.0006
3676.00,0.0006
3675.00,0.0007
3674.00,0.0007
3673.00,0.0007
3672.00,0.0007
3671.00,0.0007
3670.00,0.0006
3669.00,0.0006
3668.00,0.0006
3667.00,0.0007
3666.00,0.0007
3665.00,0.0007
3664.00,0.0007
3663.00,0.0007
3662.00,0.0007
3661.00,0.0007
3660.00,0.0007
3659.00,0.0007
3658.00,0.0008
3657.00,0.0008
3656.00,0.0007
3655.00,0.0007
3654.00,0.0008
3653.00,0.0008
3652.00,0.0008
3651.00,0.0008
3650.00,0.0007
3649.00,0.0007
3648.00,0.0008
3647.00,0.0008
3646.00,0.0008
3645.00,0.0008
3644.00,0.0008
3643.00,0.0008
3642.00,0.0008
3641.00,0.0008
3640.00,0.0008
3639.00,0.0008
3638.00,0.0008
3637.00,0.0008
3636.00,0.0008
3635.00,0.0008
3634.00,0.0008
3633.00,0.0008
3632.00,0.0008
3631.00,0.0008
3630.00,0.0008
3629.00,0.0008
3628.00,0.0008
3627.00,0.0008
3626.00,0.0009
3625.00,0.0009
3624.00,0.0009
3623.00,0.0009
3622.00,0.0009
3621.00,0.0009
3620.00,0.0009
3619.00,0.0008
3618.00,0.0008
3617.00,0.0008
3616.00,0.0008
3615.00,0.0008
3614.00,0.0008
3613.00,0.0009
3612.00,0.0009
3611.00,0.0009
3610.00,0.0010
3609.00,0.0010
3608.00,0.0011
3607.00,0.0011
3606.00,0.0012
3605.00,0.0012
3604.00,0.0011
3603.00,0.0011
3602.00,0.0012
3601.00,0.0012
3600.00,0.0012
3599.00,0.0012
3598.00,0.0012
3597.00,0.0012
3596.00,0.0013
3595.00,0.0013
3594.00,0.0013
3593.00,0.0014
3592.00,0.0014
3591.00,0.0013
3590.00,0.0013
3589.00,0.0013
3588.00,0.0013
3587.00,0.0013
3586.00,0.0014
3585.00,0.0014
3584.00,0.0014
3583.00,0.0014
3582.00,0.0015
3581.00,0.0015
3580.00,0.0015
3579.00,0.0015
3578.00,0.0015
3577.00,0.0015
3576.00,0.0015
3575.00,0.0016
3574.00,0.0016
3573.00,0.0017
3572.00,0.0018
3571.00,0.0019
3570.00,0.0019
3569.00,0.0019
3568.00,0.0019
3567.00,0.0020
3566.00,0.0020
3565.00,0.0020
3564.00,0.0020
3563.00,0.0020
3562.00,0.0020
3561.00,0.0020
3560.00,0.0021
3559.00,0.0021
3558.00,0.0021
3557.00,0.0022
3556.00,0.0022
3555.00,0.0022
3554.00,0.0023
3553.00,0.0023
3552.00,0.0023
3551.00,0.0023
3550.00,0.0023
3549.00,0.0023
3548.00,0.0023
3547.00,0.0024
3546.00,0.0024
3545.00,0.0025
3544.00,0.0025
3543.00,0.0026
3542.00,0.0026
3541.00,0.0026
3540.00,0.0027
3539.00,0.0027
3538.00,0.0028
3537.00,0.0028
3536.00,0.0029
3535.00,0.0029
3534.00,0.0029
3533.00,0.0029
3532.00,0.0029
3531.00,0.0029
3530.00,0.0030
3529.00,0.0030
3528.00,0.0030
3527.00,0.0030
3526.00,0.0030
3525.00,0.0030
3524.00,0.0030
3523.00,0.0031
3522.00,0.0031
3521.00,0.0032
3520.00,0.0032
3519.00,0.0033
3518.00,0.0034
3517.00,0.0034
3516.00,0.0035
3515.00,0.0035
3514.00,0.0035
3513.00,0.0035
3512.00,0.0036
3511.00,0.0036
3510.00,0.0036
3509.00,0.0037
3508.00,0.0037
3507.00,0.0037
3506.00,0.0037
3505.00,0.0038
3504.00,0.0038
3503.00,0.0039
3502.00,0.0040
3501.00,0.0040
3500.00,0.0041
3499.00,0.0041
3498.00,0.0041
3497.00,0.0041
3496.00,0.0041
3495.00,0.0041
3494.00,0.0042
3493.00,0.0042
3492.00,0.0042
3491.00,0.0043
3490.00,0.0043
3489.00,0.0044
3488.00,0.0044
3487.00,0.0045
3486.00,0.0045
3485.00,0.0046
3484.00,0.0046
3483.00,0.0046
3482.00,0.0047
3481.00,0.0047
3480.00,0.0047
3479.00,0.0047
3478.00,0.0047
3477.00,0.0047
3476.00,0.0048
3475.00,0.0048
3474.00,0.0048
3473.00,0.0048
3472.00,0.0048
3471.00,0.0048
3470.00,0.0048
3469.00,0.0049
3468.00,0.0050
3467.00,0.0051
3466.00,0.0052
3465.00,0.0052
3464.00,0.0052
3463.00,0.0052
3462.00,0.0052
3461.00,0.0052
3460.00,0.0052
3459.00,0.0052
3458.00,0.0052
3457.00,0.0052
3456.00,0.0052
3455.00,0.0053
3454.00,0.0053
3453.00,0.0053
3452.00,0.0054
3451.00,0.0054
3450.00,0.0055
3449.00,0.0055
3448.00,0.0056
3447.00,0.0056
3446.00,0.0057
3445.00,0.0057
3444.00,0.0057
3443.00,0.0057
3442.00,0.0057
3441.00,0.0057
3440.00,0.0057
3439.00,0.0058
3438.00,0.0058
3437.00,0.0058
3436.00,0.0059
3435.00,0.0059
3434.00,0.0059
3433.00,0.0059
3432.00,0.0059
3431.00,0.0059
3430.00,0.0060
3429.00,0.0060
3428.00,0.0061
3427.00,0.0061
3426.00,0.0061
3425.00,0.0061
3424.00,0.0062
3423.00,0.0062
3422.00,0.0062
3421.00,0.0062
3420.00,0.0062
3419.00,0.0062
3418.00,0.0062
3417.00,0.0062
3416.00,0.0062
3415.00,0.0062
3414.00,0.0063
3413.00,0.0064
3412.00,0.0064
3411.00,0.0065
3410.00,0.0065
3409.00,0.0065
3408.00,0.0065
3407.00,0.0065
3406.00,0.0065
3405.00,0.0065
3404.00,0.0066
3403.00,0.0066
3402.00,0.0066
3401.00,0.0066
3400.00,0.0066
3399.00,0.0066
3398.00,0.0066
3397.00,0.0067
3396.00,0.0067
3395.00,0.0067
3394.00,0.0067
3393.00,0.0067
3392.00,0.0067
3391.00,0.0067
3390.00,0.0067
3389.00,0.0067
3388.00,0.0066
3387.00,0.0066
3386.00,0.0066
3385.00,0.0066
3384.00,0.0066
3383.00,0.0066
3382.00,0.0066
3381.00,0.0066
3380.00,0.0066
3379.00,0.0067
3378.00,0.0067
3377.00,0.0067
3376.00,0.0067
3375.00,0.0067
3374.00,0.0067
3373.00,0.0068
3372.00,0.0068
3371.00,0.0068
3370.00,0.0068
3369.00,0.0068
3368.00,0.0067
3367.00,0.0067
3366.00,0.0067
3365.00,0.0067
3364.00,0.0067
3363.00,0.0067
3362.00,0.0067
3361.00,0.0067
3360.00,0.0067
3359.00,0.0067
3358.00,0.0067
3357.00,0.0067
3356.00,0.0067
3355.00,0.0067
3354.00,0.0067
3353.00,0.0067
3352.00,0.0067
3351.00,0.0067
3350.00,0.0067
3349.00,0.0067
3348.00,0.0067
3347.00,0.0066
3346.00,0.0066
3345.00,0.0066
3344.00,0.0066
3343.00,0.0066
3342.00,0.0066
3341.00,0.0066
3340.00,0.0066
3339.00,0.0066
3338.00,0.0066
3337.00,0.0066
3336.00,0.0066
3335.00,0.0065
3334.00,0.0065
3333.00,0.0064
3332.00,0.0064
3331.00,0.0064
3330.00,0.0065
3329.00,0.0065
3328.00,0.0065
3327.00,0.0064
3326.00,0.0064
3325.00,0.0063
3324.00,0.0063
3323.00,0.0063
3322.00,0.0063
3321.00,0.0063
3320.00,0.0063
3319.00,0.0063
3318.00,0.0063
3317.00,0.0063
3316.00,0.0064
3315.00,0.0064
3314.00,0.0064
3313.00,0.0064
3312.00,0.0063
3311.00,0.0063
3310.00,0.0063
3309.00,0.0063
3308.00,0.0063
3307.00,0.0063
3306.00,0.0063
3305.00,0.0064
3304.00,0.0064
3303.00,0.0064
3302.00,0.0064
3301.00,0.0064
3300.00,0.0064
3299.00,0.0063
3298.00,0.0063
3297.00,0.0062
3296.00,0.0061
3295.00,0.0061
3294.00,0.0060
3293.00,0.0060
3292.00,0.0060
3291.00,0.0060
3290.00,0.0060
3289.00,0.0059
3288.00,0.0059
3287.00,0.0059
3286.00,0.0059
3285.00,0.0058
3284.00,0.0058
3283.00,0.0057
3282.00,0.0057
3281.00,0.0057
3280.00,0.0057
3279.00,0.0057
3278.00,0.0057
3277.00,0.0057
3276.00,0.0057
3275.00,0.0057
3274.00,0.0057
3273.00,0.0056
3272.00,0.0056
3271.00,0.0056
3270.00,0.0055
3269.00,0.0055
3268.00,0.0055
3267.00,0.0055
3266.00,0.0054
3265.00,0.0054
3264.00,0.0054
3263.00,0.0053
3262.00,0.0053
3261.00,0.0053
3260.00,0.0053
3259.00,0.0052
3258.00,0.0052
3257.00,0.0052
3256.00,0.0052
3255.00,0.0052
3254.00,0.0052
3253.00,0.0052
3252.00,0.0051
3251.00,0.0051
3250.00,0.0051
3249.00,0.0050
3248.00,0.0050
3247.00,0.0050
3246.00,0.0050
3245.00,0.0050
3244.00,0.0049
3243.00,0.0049
3242.00,0.0049
3241.00,0.0049
3240.00,0.0049
3239.00,0.0049
3238.00,0.0049
3237.00,0.0049
3236.00,0.0049
3235.00,0.0050
3234.00,0.0050
3233.00,0.0050
3232.00,0.0050
3231.00,0.0049
3230.00,0.0050
3229.00,0.0050
3228.00,0.0050
3227.00,0.0050
3226.00,0.0050
3225.00,0.0050
3224.00,0.0050
3223.00,0.0049
3222.00,0.0049
3221.00,0.0049
3220.00,0.0049
3219.00,0.0049
3218.00,0.0050
3217.00,0.0050
3216.00,0.0050
3215.00,0.0051
3214.00,0.0051
3213.00,0.0051
3212.00,0.0052
3211.00,0.0052
3210.00,0.0052
3209.00,0.0051
3208.00,0.0051
3207.00,0.0051
3206.00,0.0051
3205.00,0.0051
3204.00,0.0052
3203.00,0.0052
3202.00,0.0052
3201.00,0.0052
3200.00,0.0052
3199.00,0.0051
3198.00,0.0051
3197.00,0.0051
3196.00,0.0051
3195.00,0.0051
3194.00,0.0051
3193.00,0.0051
3192.00,0.0051
3191.00,0.0051
3190.00,0.0051
3189.00,0.0051
3188.00,0.0051
3187.00,0.0051
3186.00,0.0051
3185.00,0.0051
3184.00,0.0051
3183.00,0.0051
3182.00,0.0050
3181.00,0.0050
3180.00,0.0050
3179.00,0.0050
3178.00,0.0050
3177.00,0.0049
3176.00,0.0049
3175.00,0.0049
3174.00,0.0048
3173.00,0.0048
3172.00,0.0047
3171.00,0.0047
3170.00,0.0047
3169.00,0.0047
3168.00,0.0046
3167.00,0.0046
3166.00,0.0046
3165.00,0.0046
3164.00,0.0045
3163.00,0.0045
3162.00,0.0045
3161.00,0.0044
3160.00,0.0044
3159.00,0.0044
3158.00,0.0045
3157.00,0.0045
3156.00,0.0045
3155.00,0.0045
3154.00,0.0045
3153.00,0.0044
3152.00,0.0044
3151.00,0.0043
3150.00,0.0043
3149.00,0.0043
3148.00,0.0043
3147.00,0.0044
3146.00,0.0044
3145.00,0.0044
3144.00,0.0044
3143.00,0.0044
3142.00,0.0044
3141.00,0.0044
3140.00,0.0043
3139.00,0.0043
3138.00,0.0043
3137.00,0.0043
3136.00,0.0043
3135.00,0.0042
3134.00,0.0042
3133.00,0.0041
3132.00,0.0041
3131.00,0.0040
3130.00,0.0040
3129.00,0.0040
3128.00,0.0040
3127.00,0.0039
3126.00,0.0039
3125.00,0.0039
3124.00,0.0039
3123.00,0.0039
3122.00,0.0039
3121.00,0.0038
3120.00,0.0038
3119.00,0.0037
3118.00,0.0037
3117.00,0.0037
3116.00,0.0036
3115.00,0.0036
3114.00,0.0035
3113.00,0.0035
3112.00,0.0035
3111.00,0.0035
3110.00,0.0036
3109.00,0.0036
3108.00,0.0035
3107.00,0.0035
3106.00,0.0035
3105.00,0.0035
3104.00,0.0035
3103.00,0.0035
3102.00,0.0035
3101.00,0.0035
3100.00,0.0034
3099.00,0.0034
3098.00,0.0034
3097.00,0.0034
3096.00,0.0034
3095.00,0.0034
3094.00,0.0034
3093.00,0.0034
3092.00,0.0034
3091.00,0.0034
3090.00,0.0034
3089.00,0.0034
3088.00,0.0034
3087.00,0.0033
3086.00,0.0033
3085.00,0.0033
3084.00,0.0033
3083.00,0.0033
3082.00,0.0032
3081.00,0.0032
3080.00,0.0032
3079.00,0.0032
3078.00,0.0033
3077.00,0.0033
3076.00,0.0033
3075.00,0.0033
3074.00,0.0033
3073.00,0.0034
3072.00,0.0034
3071.00,0.0034
3070.00,0.0034
3069.00,0.0034
3068.00,0.0034
3067.00,0.0034
3066.00,0.0034
3065.00,0.0035
3064.00,0.0035
3063.00,0.0035
3062.00,0.0036
3061.00,0.0036
3060.00,0.0036
3059.00,0.0036
3058.00,0.0036
3057.00,0.0036
3056.00,0.0036
3055.00,0.0036
3054.00,0.0036
3053.00,0.0036
3052.00,0.0036
3051.00,0.0036
3050.00,0.0037
3049.00,0.0037
3048.00,0.0037
3047.00,0.0038
3046.00,0.0038
3045.00,0.0038
3044.00,0.0038
3043.00,0.0038
3042.00,0.0039
3041.00,0.0039
3040.00,0.0039
3039.00,0.0039
3038.00,0.0039
3037.00,0.0040
3036.00,0.0040
3035.00,0.0041
3034.00,0.0041
3033.00,0.0042
3032.00,0.0043
3031.00,0.0043
3030.00,0.0043
3029.00,0.0043
3028.00,0.0044
3027.00,0.0044
3026.00,0.0045
3025.00,0.0046
3024.00,0.0047
3023.00,0.0048
3022.00,0.0048
3021.00,0.0049
3020.00,0.0050
3019.00,0.0050
3018.00,0.0051
3017.00,0.0052
3016.00,0.0053
3015.00,0.0054
3014.00,0.0056
3013.00,0.0057
3012.00,0.0058
3011.00,0.0060
3010.00,0.0061
3009.00,0.0063
3008.00,0.0066
3007.00,0.0068
3006.00,0.0071
3005.00,0.0073
3004.00,0.0075
3003.00,0.0077
3002.00,0.0079
3001.00,0.0082
3000.00,0.0085
2999.00,0.0088
2998.00,0.0091
2997.00,0.0095
2996.00,0.0098
2995.00,0.0102
2994.00,0.0107
2993.00,0.0112
2992.00,0.0117
2991.00,0.0123
2990.00,0.0130
2989.00,0.0137
2988.00,0.0145
2987.00,0.0155
2986.00,0.0165
2985.00,0.0177
2984.00,0.0190
2983.00,0.0205
2982.00,0.0221
2981.00,0.0238
2980.00,0.0257
2979.00,0.0278
2978.00,0.0303
2977.00,0.0331
2976.00,0.0364
2975.00,0.0403
2974.00,0.0447
2973.00,0.0499
2972.00,0.0557
2971.00,0.0622
2970.00,0.0695
2969.00,0.0775
2968.00,0.0864
2967.00,0.0961
2966.00,0.1066
2965.00,0.1176
2964.00,0.1288
2963.00,0.1396
2962.00,0.1495
2961.00,0.1580
2960.00,0.1645
2959.00,0.1693
2958.00,0.1725
2957.00,0.1747
2956.00,0.1767
2955.00,0.1790
2954.00,0.1818
2953.00,0.1846
2952.00,0.1867
2951.00,0.1873
2950.00,0.1854
2949.00,0.1805
2948.00,0.1727
2947.00,0.1626
2946.00,0.1511
2945.00,0.1394
2944.00,0.1285
2943.00,0.1193
2942.00,0.1122
2941.00,0.1074
2940.00,0.1049
2939.00,0.1043
2938.00,0.1056
2937.00,0.1084
2936.00,0.1127
2935.00,0.1183
2934.00,0.1252
2933.00,0.1331
2932.00,0.1419
2931.00,0.1515
2930.00,0.1616
2929.00,0.1719
2928.00,0.1821
2927.00,0.1918
2926.00,0.2011
2925.00,0.2099
2924.00,0.2181
2923.00,0.2260
2922.00,0.2336
2921.00,0.2405
2920.00,0.2463
2919.00,0.2503
2918.00,0.2518
2917.00,0.2504
2916.00,0.2462
2915.00,0.2397
2914.00,0.2319
2913.00,0.2236
2912.00,0.2156
2911.00,0.2084
2910.00,0.2020
2909.00,0.1964
2908.00,0.1912
2907.00,0.1862
2906.00,0.1810
2905.00,0.1754
2904.00,0.1696
2903.00,0.1634
2902.00,0.1571
2901.00,0.1508
2900.00,0.1445
2899.00,0.1385
2898.00,0.1328
2897.00,0.1275
2896.00,0.1227
2895.00,0.1185
2894.00,0.1149
2893.00,0.1119
2892.00,0.1095
2891.00,0.1075
2890.00,0.1061
2889.00,0.1051
2888.00,0.1044
2887.00,0.1040
2886.00,0.1040
2885.00,0.1043
2884.00,0.1048
2883.00,0.1058
2882.00,0.1070
2881.00,0.1085
2880.00,0.1099
2879.00,0.1109
2878.00,0.1114
2877.00,0.1114
2876.00,0.1109
2875.00,0.1102
2874.00,0.1098
2873.00,0.1099
2872.00,0.1107
2871.00,0.1120
2870.00,0.1137
2869.00,0.1153
2868.00,0.1162
2867.00,0.1157
2866.00,0.1135
2865.00,0.1094
2864.00,0.1039
2863.00,0.0976
2862.00,0.0916
2861.00,0.0865
2860.00,0.0826
2859.00,0.0801
2858.00,0.0790
2857.00,0.0788
2856.00,0.0795
2855.00,0.0808
2854.00,0.0824
2853.00,0.0842
2852.00,0.0859
2851.00,0.0873
2850.00,0.0884
2849.00,0.0892
2848.00,0.0900
2847.00,0.0913
2846.00,0.0935
2845.00,0.0968
2844.00,0.1012
2843.00,0.1063
2842.00,0.1117
2841.00,0.1167
2840.00,0.1206
2839.00,0.1224
2838.00,0.1216
2837.00,0.1179
2836.00,0.1113
2835.00,0.1023
2834.00,0.0921
2833.00,0.0815
2832.00,0.0715
2831.00,0.0626
2830.00,0.0551
2829.00,0.0489
2828.00,0.0438
2827.00,0.0398
2826.00,0.0365
2825.00,0.0337
2824.00,0.0314
2823.00,0.0294
2822.00,0.0277
2821.00,0.0262
2820.00,0.0249
2819.00,0.0238
2818.00,0.0228
2817.00,0.0219
2816.00,0.0212
2815.00,0.0205
2814.00,0.0198
2813.00,0.0192
2812.00,0.0187
2811.00,0.0181
2810.00,0.0176
2809.00,0.0171
2808.00,0.0165
2807.00,0.0159
2806.00,0.0153
2805.00,0.0147
2804.00,0.0141
2803.00,0.0136
2802.00,0.0131
2801.00,0.0126
2800.00,0.0123
2799.00,0.0120
2798.00,0.0117
2797.00,0.0115
2796.00,0.0113
2795.00,0.0111
2794.00,0.0108
2793.00,0.0105
2792.00,0.0102
2791.00,0.0098
2790.00,0.0095
2789.00,0.0091
2788.00,0.0088
2787.00,0.0085
2786.00,0.0082
2785.00,0.0079
2784.00,0.0076
2783.00,0.0073
2782.00,0.0071
2781.00,0.0069
2780.00,0.0068
2779.00,0.0066
2778.00,0.0065
2777.00,0.0064
2776.00,0.0062
2775.00,0.0061
2774.00,0.0060
2773.00,0.0059
2772.00,0.0058
2771.00,0.0058
2770.00,0.0057
2769.00,0.0057
2768.00,0.0057
2767.00,0.0056
2766.00,0.0056
2765.00,0.0056
2764.00,0.0055
2763.00,0.0055
2762.00,0.0054
2761.00,0.0054
2760.00,0.0054
2759.00,0.0053
2758.00,0.0053
2757.00,0.0053
2756.00,0.0053
2755.00,0.0053
2754.00,0.0053
2753.00,0.0052
2752.00,0.0052
2751.00,0.0051
2750.00,0.0051
2749.00,0.0051
2748.00,0.0051
2747.00,0.0052
2746.00,0.0052
2745.00,0.0053
2744.00,0.0054
2743.00,0.0054
2742.00,0.0055
2741.00,0.0056
2740.00,0.0057
2739.00,0.0058
2738.00,0.0059
2737.00,0.0060
2736.00,0.0061
2735.00,0.0063
2734.00,0.0064
2733.00,0.0065
2732.00,0.0067
2731.00,0.0069
2730.00,0.0071
2729.00,0.0073
2728.00,0.0075
2727.00,0.0078
2726.00,0.0080
2725.00,0.0082
2724.00,0.0084
2723.00,0.0084
2722.00,0.0083
2721.00,0.0082
2720.00,0.0079
2719.00,0.0077
2718.00,0.0074
2717.00,0.0071
2716.00,0.0068
2715.00,0.0066
2714.00,0.0063
2713.00,0.0061
2712.00,0.0060
2711.00,0.0058
2710.00,0.0057
2709.00,0.0055
2708.00,0.0054
2707.00,0.0053
2706.00,0.0052
2705.00,0.0051
2704.00,0.0050
2703.00,0.0049
2702.00,0.0049
2701.00,0.0048
2700.00,0.0047
2699.00,0.0046
2698.00,0.0045
2697.00,0.0045
2696.00,0.0045
2695.00,0.0045
2694.00,0.0046
2693.00,0.0046
2692.00,0.0046
2691.00,0.0046
2690.00,0.0046
2689.00,0.0046
2688.00,0.0046
2687.00,0.0046
2686.00,0.0045
2685.00,0.0045
2684.00,0.0045
2683.00,0.0045
2682.00,0.0046
2681.00,0.0046
2680.00,0.0046
2679.00,0.0046
2678.00,0.0045
2677.00,0.0045
2676.00,0.0045
2675.00,0.0045
2674.00,0.0045
2673.00,0.0045
2672.00,0.0045
2671.00,0.0044
2670.00,0.0044
2669.00,0.0044
2668.00,0.0045
2667.00,0.0045
2666.00,0.0045
2665.00,0.0046
2664.00,0.0046
2663.00,0.0047
2662.00,0.0047
2661.00,0.0047
2660.00,0.0047
2659.00,0.0047
2658.00,0.0047
2657.00,0.0047
2656.00,0.0047
2655.00,0.0047
2654.00,0.0046
2653.00,0.0045
2652.00,0.0045
2651.00,0.0044
2650.00,0.0044
2649.00,0.0043
2648.00,0.0043
2647.00,0.0042
2646.00,0.0042
2645.00,0.0042
2644.00,0.0042
2643.00,0.0042
2642.00,0.0041
2641.00,0.0040
2640.00,0.0040
2639.00,0.0039
2638.00,0.0039
2637.00,0.0039
2636.00,0.0039
2635.00,0.0038
2634.00,0.0038
2633.00,0.0038
2632.00,0.0038
2631.00,0.0039
2630.00,0.0039
2629.00,0.0039
2628.00,0.0039
2627.00,0.0039
2626.00,0.0039
2625.00,0.0040
2624.00,0.0040
2623.00,0.0041
2622.00,0.0041
2621.00,0.0041
2620.00,0.0041
2619.00,0.0041
2618.00,0.0040
2617.00,0.0040
2616.00,0.0039
2615.00,0.0039
2614.00,0.0039
2613.00,0.0039
2612.00,0.0038
2611.00,0.0037
2610.00,0.0036
2609.00,0.0035
2608.00,0.0035
2607.00,0.0035
2606.00,0.0035
2605.00,0.0034
2604.00,0.0034
2603.00,0.0032
2602.00,0.0031
2601.00,0.0031
2600.00,0.0030
2599.00,0.0030
2598.00,0.0030
2597.00,0.0030
2596.00,0.0030
2595.00,0.0030
2594.00,0.0030
2593.00,0.0031
2592.00,0.0032
2591.00,0.0033
2590.00,0.0033
2589.00,0.0034
2588.00,0.0034
2587.00,0.0034
2586.00,0.0035
2585.00,0.0036
2584.00,0.0037
2583.00,0.0037
2582.00,0.0037
2581.00,0.0037
2580.00,0.0036
2579.00,0.0035
2578.00,0.0034
2577.00,0.0033
2576.00,0.0032
2575.00,0.0031
2574.00,0.0030
2573.00,0.0029
2572.00,0.0028
2571.00,0.0027
2570.00,0.0027
2569.00,0.0027
2568.00,0.0026
2567.00,0.0026
2566.00,0.0025
2565.00,0.0025
2564.00,0.0024
2563.00,0.0024
2562.00,0.0024
2561.00,0.0024
2560.00,0.0024
2559.00,0.0024
2558.00,0.0023
2557.00,0.0022
2556.00,0.0022
2555.00,0.0022
2554.00,0.0022
2553.00,0.0022
2552.00,0.0022
2551.00,0.0021
2550.00,0.0021
2549.00,0.0020
2548.00,0.0020
2547.00,0.0019
2546.00,0.0019
2545.00,0.0019
2544.00,0.0019
2543.00,0.0019
2542.00,0.0019
2541.00,0.0018
2540.00,0.0017
2539.00,0.0017
2538.00,0.0016
2537.00,0.0016
2536.00,0.0016
2535.00,0.0016
2534.00,0.0017
2533.00,0.0016
2532.00,0.0016
2531.00,0.0015
2530.00,0.0015
2529.00,0.0015
2528.00,0.0015
2527.00,0.0015
2526.00,0.0014
2525.00,0.0014
2524.00,0.0014
2523.00,0.0013
2522.00,0.0013
2521.00,0.0013
2520.00,0.0013
2519.00,0.0013
2518.00,0.0012
2517.00,0.0012
2516.00,0.0011
2515.00,0.0010
2514.00,0.0010
2513.00,0.0009
2512.00,0.0009
2511.00,0.0009
2510.00,0.0010
2509.00,0.0010
2508.00,0.0010
2507.00,0.0010
2506.00,0.0010
2505.00,0.0010
2504.00,0.0009
2503.00,0.0009
2502.00,0.0008
2501.00,0.0008
2500.00,0.0009
2499.00,0.0009
2498.00,0.0010
2497.00,0.0010
2496.00,0.0010
2495.00,0.0010
2494.00,0.0011
2493.00,0.0011
2492.00,0.0011
2491.00,0.0011
2490.00,0.0011
2489.00,0.0011
2488.00,0.0011
2487.00,0.0011
2486.00,0.0011
2485.00,0.0010
2484.00,0.0010
2483.00,0.0009
2482.00,0.0009
2481.00,0.0009
2480.00,0.0009
2479.00,0.0009
2478.00,0.0010
2477.00,0.0010
2476.00,0.0010
2475.00,0.0009
2474.00,0.0009
2473.00,0.0009
2472.00,0.0009
2471.00,0.0008
2470.00,0.0008
2469.00,0.0008
2468.00,0.0008
2467.00,0.0008
2466.00,0.0008
2465.00,0.0008
2464.00,0.0009
2463.00,0.0009
2462.00,0.0010
2461.00,0.0010
2460.00,0.0010
2459.00,0.0011
2458.00,0.0011
2457.00,0.0011
2456.00,0.0012
2455.00,0.0011
2454.00,0.0011
2453.00,0.0011
2452.00,0.0010
2451.00,0.0010
2450.00,0.0009
2449.00,0.0010
2448.00,0.0010
2447.00,0.0012
2446.00,0.0012
2445.00,0.0013
2444.00,0.0013
2443.00,0.0012
2442.00,0.0012
2441.00,0.0011
2440.00,0.0010
2439.00,0.0010
2438.00,0.0010
2437.00,0.0010
2436.00,0.0011
2435.00,0.0011
2434.00,0.0012
2433.00,0.0013
2432.00,0.0013
2431.00,0.0013
2430.00,0.0012
2429.00,0.0011
2428.00,0.0010
2427.00,0.0010
2426.00,0.0010
2425.00,0.0011
2424.00,0.0012
2423.00,0.0012
2422.00,0.0011
2421.00,0.0010
2420.00,0.0010
2419.00,0.0010
2418.00,0.0009
2417.00,0.0010
2416.00,0.0010
2415.00,0.0010
2414.00,0.0011
2413.00,0.0011
2412.00,0.0011
2411.00,0.0011
2410.00,0.0011
2409.00,0.0010
2408.00,0.0010
2407.00,0.0010
2406.00,0.0010
2405.00,0.0009
2404.00,0.0010
2403.00,0.0010
2402.00,0.0009
2401.00,0.0009
2400.00,0.0009
2399.00,0.0008
2398.00,0.0008
2397.00,0.0008
2396.00,0.0008
2395.00,0.0008
2394.00,0.0008
2393.00,0.0008
2392.00,0.0008
2391.00,0.0008
2390.00,0.0008
2389.00,0.0008
2388.00,0.0008
2387.00,0.0008
2386.00,0.0008
2385.00,0.0008
2384.00,0.0008
2383.00,0.0008
2382.00,0.0007
2381.00,0.0007
2380.00,0.0007
2379.00,0.0008
2378.00,0.0008
2377.00,0.0008
2376.00,0.0007
2375.00,0.0007
2374.00,0.0007
2373.00,0.0007
2372.00,0.0007
2371.00,0.0008
2370.00,0.0008
2369.00,0.0008
2368.00,0.0008
2367.00,0.0008
2366.00,0.0008
2365.00,0.0007
2364.00,0.0007
2363.00,0.0007
2362.00,0.0008
2361.00,0.0009
2360.00,0.0009
2359.00,0.0010
2358.00,0.0010
2357.00,0.0010
2356.00,0.0010
2355.00,0.0009
2354.00,0.0009
2353.00,0.0008
2352.00,0.0008
2351.00,0.0007
2350.00,0.0007
2349.00,0.0009
2348.00,0.0010
2347.00,0.0011
2346.00,0.0012
2345.00,0.0011
2344.00,0.0010
2343.00,0.0009
2342.00,0.0010
2341.00,0.0010
2340.00,0.0011
2339.00,0.0012
2338.00,0.0012
2337.00,0.0012
2336.00,0.0011
2335.00,0.0011
2334.00,0.0010
2333.00,0.0010
2332.00,0.0010
2331.00,0.0009
2330.00,0.0009
2329.00,0.0009
2328.00,0.0011
2327.00,0.0015
2326.00,0.0019
2325.00,0.0023
2324.00,0.0024
2323.00,0.0023
2322.00,0.0021
2321.00,0.0018
2320.00,0.0016
2319.00,0.0015
2318.00,0.0014
2317.00,0.0014
2316.00,0.0014
2315.00,0.0014
2314.00,0.0013
2313.00,0.0012
2312.00,0.0012
2311.00,0.0011
2310.00,0.0011
2309.00,0.0011
2308.00,0.0011
2307.00,0.0010
2306.00,0.0011
2305.00,0.0011
2304.00,0.0011
2303.00,0.0012
2302.00,0.0011
2301.00,0.0011
2300.00,0.0011
2299.00,0.0011
2298.00,0.0011
2297.00,0.0012
2296.00,0.0013
2295.00,0.0013
2294.00,0.0013
2293.00,0.0014
2292.00,0.0015
2291.00,0.0016
2290.00,0.0017
2289.00,0.0017
2288.00,0.0018
2287.00,0.0019
2286.00,0.0019
2285.00,0.0020
2284.00,0.0020
2283.00,0.0019
2282.00,0.0019
2281.00,0.0018
2280.00,0.0018
2279.00,0.0017
2278.00,0.0016
2277.00,0.0015
2276.00,0.0015
2275.00,0.0014
2274.00,0.0014
2273.00,0.0015
2272.00,0.0016
2271.00,0.0017
2270.00,0.0017
2269.00,0.0016
2268.00,0.0014
2267.00,0.0013
2266.00,0.0011
2265.00,0.0010
2264.00,0.0010
2263.00,0.0010
2262.00,0.0011
2261.00,0.0013
2260.00,0.0014
2259.00,0.0014
2258.00,0.0014
2257.00,0.0013
2256.00,0.0012
2255.00,0.0010
2254.00,0.0008
2253.00,0.0007
2252.00,0.0006
2251.00,0.0006
2250.00,0.0007
2249.00,0.0009
2248.00,0.0010
2247.00,0.0010
2246.00,0.0010
2245.00,0.0010
2244.00,0.0010
2243.00,0.0010
2242.00,0.0010
2241.00,0.0010
2240.00,0.0011
2239.00,0.0011
2238.00,0.0011
2237.00,0.0011
2236.00,0.0010
2235.00,0.0011
2234.00,0.0011
2233.00,0.0012
2232.00,0.0011
2231.00,0.0010
2230.00,0.0008
2229.00,0.0006
2228.00,0.0005
2227.00,0.0005
2226.00,0.0006
2225.00,0.0007
2224.00,0.0009
2223.00,0.0009
2222.00,0.0009
2221.00,0.0009
2220.00,0.0009
2219.00,0.0010
2218.00,0.0010
2217.00,0.0011
2216.00,0.0011
2215.00,0.0010
2214.00,0.0009
2213.00,0.0008
2212.00,0.0008
2211.00,0.0007
2210.00,0.0006
2209.00,0.0005
2208.00,0.0005
2207.00,0.0006
2206.00,0.0008
2205.00,0.0011
2204.00,0.0013
2203.00,0.0013
2202.00,0.0012
2201.00,0.0011
2200.00,0.0011
2199.00,0.0012
2198.00,0.0012
2197.00,0.0012
2196.00,0.0011
2195.00,0.0010
2194.00,0.0010
2193.00,0.0009
2192.00,0.0009
2191.00,0.0010
2190.00,0.0012
2189.00,0.0014
2188.00,0.0015
2187.00,0.0014
2186.00,0.0011
2185.00,0.0008
2184.00,0.0006
2183.00,0.0006
2182.00,0.0007
2181.00,0.0010
2180.00,0.0013
2179.00,0.0012
2178.00,0.0008
2177.00,0.0002
2176.00,-0.0003
2175.00,-0.0003
2174.00,0.0000
2173.00,0.0005
2172.00,0.0010
2171.00,0.0012
2170.00,0.0013
2169.00,0.0015
2168.00,0.0015
2167.00,0.0016
2166.00,0.0016
2165.00,0.0017
2164.00,0.0019
2163.00,0.0021
2162.00,0.0021
2161.00,0.0016
2160.00,0.0005
2159.00,-0.0010
2158.00,-0.0023
2157.00,-0.0029
2156.00,-0.0030
2155.00,-0.0028
2154.00,-0.0025
2153.00,-0.0021
2152.00,-0.0018
2151.00,-0.0016
2150.00,-0.0015
2149.00,-0.0015
2148.00,-0.0015
2147.00,-0.0015
2146.00,-0.0014
2145.00,-0.0012
2144.00,-0.0010
2143.00,-0.0008
2142.00,-0.0009
2141.00,-0.0010
2140.00,-0.0011
2139.00,-0.0012
2138.00,-0.0013
2137.00,-0.0013
2136.00,-0.0015
2135.00,-0.0017
2134.00,-0.0018
2133.00,-0.0018
2132.00,-0.0016
2131.00,-0.0013
2130.00,-0.0011
2129.00,-0.0009
2128.00,-0.0009
2127.00,-0.0009
2126.00,-0.0009
2125.00,-0.0008
2124.00,-0.0007
2123.00,-0.0006
2122.00,-0.0005
2121.00,-0.0004
2120.00,-0.0003
2119.00,-0.0002
2118.00,-0.0000
2117.00,0.0002
2116.00,0.0003
2115.00,0.0005
2114.00,0.0006
2113.00,0.0006
2112.00,0.0006
2111.00,0.0005
2110.00,0.0003
2109.00,0.0002
2108.00,0.0000
2107.00,-0.0000
2106.00,0.0000
2105.00,0.0001
2104.00,0.0002
2103.00,0.0002
2102.00,0.0002
2101.00,0.0001
2100.00,0.0001
2099.00,0.0001
2098.00,0.0001
2097.00,0.0001
2096.00,0.0000
2095.00,-0.0002
2094.00,-0.0003
2093.00,-0.0004
2092.00,-0.0004
2091.00,-0.0002
2090.00,-0.0000
2089.00,0.0001
2088.00,0.0001
2087.00,-0.0001
2086.00,-0.0001
2085.00,-0.0000
2084.00,0.0001
2083.00,0.0002
2082.00,0.0003
2081.00,0.0005
2080.00,0.0006
2079.00,0.0006
2078.00,0.0005
2077.00,0.0003
2076.00,0.0002
2075.00,0.0002
2074.00,0.0002
2073.00,0.0004
2072.00,0.0005
2071.00,0.0005
2070.00,0.0004
2069.00,0.0003
2068.00,0.0002
2067.00,0.0001
2066.00,0.0001
2065.00,0.0002
2064.00,0.0002
2063.00,0.0002
2062.00,0.0001
2061.00,-0.0001
2060.00,-0.0001
2059.00,-0.0001
2058.00,0.0001
2057.00,0.0002
2056.00,0.0003
2055.00,0.0003
2054.00,0.0003
2053.00,0.0005
2052.00,0.0009
2051.00,0.0012
2050.00,0.0013
2049.00,0.0011
2048.00,0.0007
2047.00,0.0004
2046.00,0.0002
2045.00,0.0003
2044.00,0.0006
2043.00,0.0008
2042.00,0.0009
2041.00,0.0008
2040.00,0.0006
2039.00,0.0004
2038.00,0.0005
2037.00,0.0007
2036.00,0.0007
2035.00,0.0005
2034.00,0.0003
2033.00,-0.0000
2032.00,-0.0003
2031.00,-0.0007
2030.00,-0.0011
2029.00,-0.0014
2028.00,-0.0015
2027.00,-0.0014
2026.00,-0.0010
2025.00,-0.0005
2024.00,0.0000
2023.00,0.0003
2022.00,0.0003
2021.00,0.0001
2020.00,-0.0002
2019.00,-0.0005
2018.00,-0.0008
2017.00,-0.0008
2016.00,-0.0008
2015.00,-0.0008
2014.00,-0.0008
2013.00,-0.0008
2012.00,-0.0009
2011.00,-0.0009
2010.00,-0.0011
2009.00,-0.0013
2008.00,-0.0014
2007.00,-0.0015
2006.00,-0.0016
2005.00,-0.0015
2004.00,-0.0014
2003.00,-0.0013
2002.00,-0.0012
2001.00,-0.0012
2000.00,-0.0011
1999.00,-0.0011
1998.00,-0.0012
1997.00,-0.0013
1996.00,-0.0014
1995.00,-0.0014
1994.00,-0.0013
1993.00,-0.0009
1992.00,-0.0005
1991.00,-0.0002
1990.00,-0.0000
1989.00,0.0001
1988.00,-0.0000
1987.00,-0.0003
1986.00,-0.0006
1985.00,-0.0007
1984.00,-0.0006
1983.00,-0.0004
1982.00,-0.0000
1981.00,0.0002
1980.00,0.0002
1979.00,-0.0002
1978.00,-0.0009
1977.00,-0.0015
1976.00,-0.0017
1975.00,-0.0017
1974.00,-0.0015
1973.00,-0.0011
1972.00,-0.0009
1971.00,-0.0010
1970.00,-0.0012
1969.00,-0.0012
1968.00,-0.0011
1967.00,-0.0010
1966.00,-0.0010
1965.00,-0.0011
1964.00,-0.0011
1963.00,-0.0012
1962.00,-0.0012
1961.00,-0.0013
1960.00,-0.0013
1959.00,-0.0013
1958.00,-0.0013
1957.00,-0.0014
1956.00,-0.0014
1955.00,-0.0014
1954.00,-0.0013
1953.00,-0.0012
1952.00,-0.0013
1951.00,-0.0014
1950.00,-0.0015
1949.00,-0.0015
1948.00,-0.0014
1947.00,-0.0014
1946.00,-0.0014
1945.00,-0.0015
1944.00,-0.0016
1943.00,-0.0017
1942.00,-0.0016
1941.00,-0.0016
1940.00,-0.0015
1939.00,-0.0015
1938.00,-0.0014
1937.00,-0.0013
1936.00,-0.0012
1935.00,-0.0011
1934.00,-0.0011
1933.00,-0.0012
1932.00,-0.0011
1931.00,-0.0010
1930.00,-0.0009
1929.00,-0.0007
1928.00,-0.0006
1927.00,-0.0006
1926.00,-0.0007
1925.00,-0.0008
1924.00,-0.0008
1923.00,-0.0007
1922.00,-0.0005
1921.00,-0.0003
1920.00,-0.0001
1919.00,-0.0001
1918.00,-0.0001
1917.00,-0.0001
1916.00,-0.0002
1915.00,-0.0002
1914.00,-0.0002
1913.00,-0.0002
1912.00,-0.0002
1911.00,-0.0001
1910.00,-0.0002
1909.00,-0.0003
1908.00,-0.0003
1907.00,-0.0003
1906.00,-0.0003
1905.00,-0.0002
1904.00,-0.0002
1903.00,-0.0002
1902.00,-0.0003
1901.00,-0.0003
1900.00,-0.0003
1899.00,-0.0003
1898.00,-0.0002
1897.00,-0.0001
1896.00,0.0000
1895.00,0.0001
1894.00,0.0002
1893.00,0.0003
1892.00,0.0002
1891.00,0.0001
1890.00,0.0000
1889.00,-0.0000
1888.00,-0.0001
1887.00,-0.0001
1886.00,-0.0001
1885.00,-0.0001
1884.00,-0.0001
1883.00,-0.0002
1882.00,-0.0002
1881.00,-0.0002
1880.00,-0.0002
1879.00,-0.0002
1878.00,-0.0002
1877.00,-0.0002
1876.00,-0.0001
1875.00,-0.0001
1874.00,-0.0002
1873.00,-0.0002
1872.00,-0.0002
1871.00,-0.0002
1870.00,-0.0002
1869.00,-0.0002
1868.00,-0.0002
1867.00,-0.0002
1866.00,-0.0002
1865.00,-0.0001
1864.00,-0.0001
1863.00,-0.0000
1862.00,0.0000
1861.00,0.0001
1860.00,0.0001
1859.00,0.0001
1858.00,0.0001
1857.00,0.0001
1856.00,0.0000
1855.00,0.0000
1854.00,0.0000
1853.00,0.0000
1852.00,0.0000
1851.00,0.0001
1850.00,0.0001
1849.00,0.0001
1848.00,0.0002
1847.00,0.0002
1846.00,0.0002
1845.00,0.0001
1844.00,0.0001
1843.00,0.0001
1842.00,0.0001
1841.00,0.0001
1840.00,0.0001
1839.00,0.0001
1838.00,0.0002
1837.00,0.0002
1836.00,0.0003
1835.00,0.0003
1834.00,0.0003
1833.00,0.0004
1832.00,0.0003
1831.00,0.0003
1830.00,0.0002
1829.00,0.0002
1828.00,0.0002
1827.00,0.0003
1826.00,0.0003
1825.00,0.0003
1824.00,0.0004
1823.00,0.0004
1822.00,0.0004
1821.00,0.0004
1820.00,0.0003
1819.00,0.0003
1818.00,0.0001
1817.00,0.0001
1816.00,0.0000
1815.00,0.0000
1814.00,0.0000
1813.00,0.0001
1812.00,0.0001
1811.00,0.0002
1810.00,0.0002
1809.00,0.0002
1808.00,0.0003
1807.00,0.0003
1806.00,0.0004
1805.00,0.0004
1804.00,0.0005
1803.00,0.0005
1802.00,0.0005
1801.00,0.0005
1800.00,0.0005
1799.00,0.0005
1798.00,0.0005
1797.00,0.0006
1796.00,0.0007
1795.00,0.0007
1794.00,0.0006
1793.00,0.0006
1792.00,0.0006
1791.00,0.0006
1790.00,0.0006
1789.00,0.0006
1788.00,0.0006
1787.00,0.0006
1786.00,0.0006
1785.00,0.0006
1784.00,0.0007
1783.00,0.0008
1782.00,0.0008
1781.00,0.0009
1780.00,0.0010
1779.00,0.0009
1778.00,0.0009
1777.00,0.0008
1776.00,0.0008
1775.00,0.0008
1774.00,0.0008
1773.00,0.0008
1772.00,0.0009
1771.00,0.0009
1770.00,0.0009
1769.00,0.0009
1768.00,0.0009
1767.00,0.0010
1766.00,0.0010
1765.00,0.0010
1764.00,0.0010
1763.00,0.0011
1762.00,0.0011
1761.00,0.0012
1760.00,0.0012
1759.00,0.0013
1758.00,0.0013
1757.00,0.0013
1756.00,0.0013
1755.00,0.0013
1754.00,0.0013
1753.00,0.0014
1752.00,0.0014
1751.00,0.0014
1750.00,0.0015
1749.00,0.0015
1748.00,0.0015
1747.00,0.0016
1746.00,0.0016
1745.00,0.0016
1744.00,0.0016
1743.00,0.0016
1742.00,0.0016
1741.00,0.0016
1740.00,0.0016
1739.00,0.0016
1738.00,0.0017
1737.00,0.0018
1736.00,0.0019
1735.00,0.0019
1734.00,0.0019
1733.00,0.0019
1732.00,0.0019
1731.00,0.0020
1730.00,0.0020
1729.00,0.0020
1728.00,0.0021
1727.00,0.0021
1726.00,0.0021
1725.00,0.0021
1724.00,0.0021
1723.00,0.0022
1722.00,0.0022
1721.00,0.0022
1720.00,0.0022
1719.00,0.0022
1718.00,0.0022
1717.00,0.0022
1716.00,0.0023
1715.00,0.0023
1714.00,0.0022
1713.00,0.0022
1712.00,0.0022
1711.00,0.0022
1710.00,0.0022
1709.00,0.0022
1708.00,0.0022
1707.00,0.0023
1706.00,0.0023
1705.00,0.0023
1704.00,0.0024
1703.00,0.0024
1702.00,0.0025
1701.00,0.0025
1700.00,0.0026
1699.00,0.0026
1698.00,0.0026
1697.00,0.0027
1696.00,0.0027
1695.00,0.0028
1694.00,0.0028
1693.00,0.0028
1692.00,0.0029
1691.00,0.0030
1690.00,0.0031
1689.00,0.0031
1688.00,0.0032
1687.00,0.0033
1686.00,0.0033
1685.00,0.0033
1684.00,0.0034
1683.00,0.0036
1682.00,0.0037
1681.00,0.0038
1680.00,0.0039
1679.00,0.0040
1678.00,0.0040
1677.00,0.0041
1676.00,0.0042
1675.00,0.0043
1674.00,0.0044
1673.00,0.0044
1672.00,0.0045
1671.00,0.0046
1670.00,0.0046
1669.00,0.0047
1668.00,0.0048
1667.00,0.0049
1666.00,0.0049
1665.00,0.0049
1664.00,0.0049
1663.00,0.0049
1662.00,0.0050
1661.00,0.0051
1660.00,0.0052
1659.00,0.0053
1658.00,0.0053
1657.00,0.0054
1656.00,0.0054
1655.00,0.0055
1654.00,0.0055
1653.00,0.0057
1652.00,0.0059
1651.00,0.0059
1650.00,0.0060
1649.00,0.0061
1648.00,0.0063
1647.00,0.0065
1646.00,0.0066
1645.00,0.0067
1644.00,0.0067
1643.00,0.0068
1642.00,0.0068
1641.00,0.0069
1640.00,0.0070
1639.00,0.0071
1638.00,0.0071
1637.00,0.0072
1636.00,0.0072
1635.00,0.0071
1634.00,0.0070
1633.00,0.0069
1632.00,0.0069
1631.00,0.0068
1630.00,0.0068
1629.00,0.0067
1628.00,0.0067
1627.00,0.0066
1626.00,0.0066
1625.00,0.0065
1624.00,0.0064
1623.00,0.0063
1622.00,0.0063
1621.00,0.0063
1620.00,0.0063
1619.00,0.0062
1618.00,0.0062
1617.00,0.0061
1616.00,0.0061
1615.00,0.0061
1614.00,0.0061
1613.00,0.0062
1612.00,0.0062
1611.00,0.0062
1610.00,0.0062
1609.00,0.0062
1608.00,0.0061
1607.00,0.0061
1606.00,0.0061
1605.00,0.0060
1604.00,0.0060
1603.00,0.0060
1602.00,0.0059
1601.00,0.0059
1600.00,0.0058
1599.00,0.0058
1598.00,0.0058
1597.00,0.0058
1596.00,0.0058
1595.00,0.0058
1594.00,0.0058
1593.00,0.0058
1592.00,0.0058
1591.00,0.0057
1590.00,0.0057
1589.00,0.0056
1588.00,0.0056
1587.00,0.0056
1586.00,0.0056
1585.00,0.0055
1584.00,0.0055
1583.00,0.0055
1582.00,0.0055
1581.00,0.0055
1580.00,0.0055
1579.00,0.0056
1578.00,0.0056
1577.00,0.0056
1576.00,0.0057
1575.00,0.0057
1574.00,0.0057
1573.00,0.0057
1572.00,0.0058
1571.00,0.0058
1570.00,0.0059
1569.00,0.0060
1568.00,0.0061
1567.00,0.0062
1566.00,0.0062
1565.00,0.0062
1564.00,0.0063
1563.00,0.0063
1562.00,0.0064
1561.00,0.0065
1560.00,0.0065
1559.00,0.0065
1558.00,0.0066
1557.00,0.0067
1556.00,0.0068
1555.00,0.0068
1554.00,0.0069
1553.00,0.0070
1552.00,0.0070
1551.00,0.0071
1550.00,0.0070
1549.00,0.0070
1548.00,0.0070
1547.00,0.0070
1546.00,0.0070
1545.00,0.0070
1544.00,0.0069
1543.00,0.0068
1542.00,0.0067
1541.00,0.0066
1540.00,0.0065
1539.00,0.0064
1538.00,0.0062
1537.00,0.0061
1536.00,0.0061
1535.00,0.0059
1534.00,0.0058
1533.00,0.0057
1532.00,0.0056
1531.00,0.0056
1530.00,0.0055
1529.00,0.0055
1528.00,0.0056
1527.00,0.0056
1526.00,0.0055
1525.00,0.0055
1524.00,0.0055
1523.00,0.0055
1522.00,0.0055
1521.00,0.0055
1520.00,0.0055
1519.00,0.0055
1518.00,0.0055
1517.00,0.0056
1516.00,0.0057
1515.00,0.0057
1514.00,0.0057
1513.00,0.0057
1512.00,0.0057
1511.00,0.0057
1510.00,0.0057
1509.00,0.0059
1508.00,0.0060
1507.00,0.0062
1506.00,0.0062
1505.00,0.0063
1504.00,0.0065
1503.00,0.0066
1502.00,0.0068
1501.00,0.0071
1500.00,0.0074
1499.00,0.0077
1498.00,0.0080
1497.00,0.0083
1496.00,0.0088
1495.00,0.0091
1494.00,0.0094
1493.00,0.0098
1492.00,0.0102
1491.00,0.0106
1490.00,0.0110
1489.00,0.0116
1488.00,0.0121
1487.00,0.0125
1486.00,0.0129
1485.00,0.0135
1484.00,0.0141
1483.00,0.0147
1482.00,0.0155
1481.00,0.0165
1480.00,0.0176
1479.00,0.0187
1478.00,0.0202
1477.00,0.0223
1476.00,0.0248
1475.00,0.0278
1474.00,0.0318
1473.00,0.0374
1472.00,0.0440
1471.00,0.0502
1470.00,0.0562
1469.00,0.0625
1468.00,0.0693
1467.00,0.0765
1466.00,0.0847
1465.00,0.0934
1464.00,0.1010
1463.00,0.1063
1462.00,0.1098
1461.00,0.1123
1460.00,0.1141
1459.00,0.1154
1458.00,0.1167
1457.00,0.1178
1456.00,0.1182
1455.00,0.1178
1454.00,0.1171
1453.00,0.1159
1452.00,0.1138
1451.00,0.1105
1450.00,0.1058
1449.00,0.0991
1448.00,0.0904
1447.00,0.0809
1446.00,0.0722
1445.00,0.0646
1444.00,0.0581
1443.00,0.0526
1442.00,0.0485
1441.00,0.0455
1440.00,0.0435
1439.00,0.0425
1438.00,0.0420
1437.00,0.0416
1436.00,0.0403
1435.00,0.0378
1434.00,0.0345
1433.00,0.0305
1432.00,0.0264
1431.00,0.0228
1430.00,0.0199
1429.00,0.0178
1428.00,0.0162
1427.00,0.0153
1426.00,0.0146
1425.00,0.0141
1424.00,0.0135
1423.00,0.0131
1422.00,0.0130
1421.00,0.0127
1420.00,0.0125
1419.00,0.0123
1418.00,0.0122
1417.00,0.0119
1416.00,0.0116
1415.00,0.0115
1414.00,0.0114
1413.00,0.0113
1412.00,0.0112
1411.00,0.0111
1410.00,0.0111
1409.00,0.0110
1408.00,0.0110
1407.00,0.0110
1406.00,0.0111
1405.00,0.0112
1404.00,0.0112
1403.00,0.0113
1402.00,0.0115
1401.00,0.0116
1400.00,0.0117
1399.00,0.0119
1398.00,0.0121
1397.00,0.0123
1396.00,0.0126
1395.00,0.0130
1394.00,0.0135
1393.00,0.0140
1392.00,0.0145
1391.00,0.0152
1390.00,0.0162
1389.00,0.0176
1388.00,0.0197
1387.00,0.0227
1386.00,0.0269
1385.00,0.0324
1384.00,0.0399
1383.00,0.0504
1382.00,0.0643
1381.00,0.0820
1380.00,0.1032
1379.00,0.1266
1378.00,0.1485
1377.00,0.1636
1376.00,0.1676
1375.00,0.1582
1374.00,0.1381
1373.00,0.1146
1372.00,0.0932
1371.00,0.0756
1370.00,0.0614
1369.00,0.0507
1368.00,0.0432
1367.00,0.0385
1366.00,0.0360
1365.00,0.0349
1364.00,0.0350
1363.00,0.0361
1362.00,0.0379
1361.00,0.0398
1360.00,0.0412
1359.00,0.0416
1358.00,0.0407
1357.00,0.0384
1356.00,0.0353
1355.00,0.0318
1354.00,0.0284
1353.00,0.0255
1352.00,0.0232
1351.00,0.0212
1350.00,0.0196
1349.00,0.0183
1348.00,0.0172
1347.00,0.0163
1346.00,0.0156
1345.00,0.0150
1344.00,0.0144
1343.00,0.0139
1342.00,0.0134
1341.00,0.0130
1340.00,0.0127
1339.00,0.0124
1338.00,0.0122
1337.00,0.0121
1336.00,0.0121
1335.00,0.0122
1334.00,0.0125
1333.00,0.0128
1332.00,0.0131
1331.00,0.0134
1330.00,0.0135
1329.00,0.0134
1328.00,0.0131
1327.00,0.0128
1326.00,0.0123
1325.00,0.0117
1324.00,0.0111
1323.00,0.0107
1322.00,0.0103
1321.00,0.0100
1320.00,0.0098
1319.00,0.0097
1318.00,0.0096
1317.00,0.0095
1316.00,0.0094
1315.00,0.0093
1314.00,0.0093
1313.00,0.0093
1312.00,0.0095
1311.00,0.0098
1310.00,0.0103
1309.00,0.0111
1308.00,0.0122
1307.00,0.0136
1306.00,0.0150
1305.00,0.0160
1304.00,0.0162
1303.00,0.0157
1302.00,0.0149
1301.00,0.0140
1300.00,0.0135
1299.00,0.0132
1298.00,0.0130
1297.00,0.0130
1296.00,0.0128
1295.00,0.0125
1294.00,0.0122
1293.00,0.0118
1292.00,0.0113
1291.00,0.0108
1290.00,0.0104
1289.00,0.0100
1288.00,0.0098
1287.00,0.0095
1286.00,0.0093
1285.00,0.0092
1284.00,0.0090
1283.00,0.0089
1282.00,0.0088
1281.00,0.0087
1280.00,0.0086
1279.00,0.0085
1278.00,0.0084
1277.00,0.0084
1276.00,0.0083
1275.00,0.0083
1274.00,0.0084
1273.00,0.0084
1272.00,0.0085
1271.00,0.0086
1270.00,0.0087
1269.00,0.0088
1268.00,0.0090
1267.00,0.0093
1266.00,0.0097
1265.00,0.0100
1264.00,0.0104
1263.00,0.0109
1262.00,0.0113
1261.00,0.0119
1260.00,0.0125
1259.00,0.0133
1258.00,0.0141
1257.00,0.0148
1256.00,0.0151
1255.00,0.0149
1254.00,0.0142
1253.00,0.0132
1252.00,0.0121
1251.00,0.0113
1250.00,0.0106
1249.00,0.0101
1248.00,0.0098
1247.00,0.0095
1246.00,0.0092
1245.00,0.0090
1244.00,0.0088
1243.00,0.0087
1242.00,0.0085
1241.00,0.0084
1240.00,0.0083
1239.00,0.0082
1238.00,0.0081
1237.00,0.0081
1236.00,0.0080
1235.00,0.0080
1234.00,0.0080
1233.00,0.0080
1232.00,0.0080
1231.00,0.0080
1230.00,0.0080
1229.00,0.0080
1228.00,0.0081
1227.00,0.0083
1226.00,0.0084
1225.00,0.0087
1224.00,0.0090
1223.00,0.0093
1222.00,0.0096
1221.00,0.0098
1220.00,0.0100
1219.00,0.0101
1218.00,0.0100
1217.00,0.0097
1216.00,0.0095
1215.00,0.0092
1214.00,0.0089
1213.00,0.0086
1212.00,0.0084
1211.00,0.0082
1210.00,0.0080
1209.00,0.0079
1208.00,0.0078
1207.00,0.0077
1206.00,0.0077
1205.00,0.0077
1204.00,0.0076
1203.00,0.0075
1202.00,0.0074
1201.00,0.0074
1200.00,0.0074
1199.00,0.0074
1198.00,0.0073
1197.00,0.0073
1196.00,0.0073
1195.00,0.0074
1194.00,0.0075
1193.00,0.0075
1192.00,0.0075
1191.00,0.0075
1190.00,0.0075
1189.00,0.0075
1188.00,0.0075
1187.00,0.0075
1186.00,0.0076
1185.00,0.0077
1184.00,0.0079
1183.00,0.0081
1182.00,0.0084
1181.00,0.0088
1180.00,0.0092
1179.00,0.0099
1178.00,0.0106
1177.00,0.0116
1176.00,0.0129
1175.00,0.0147
1174.00,0.0170
1173.00,0.0200
1172.00,0.0236
1171.00,0.0277
1170.00,0.0317
1169.00,0.0350
1168.00,0.0371
1167.00,0.0376
1166.00,0.0366
1165.00,0.0347
1164.00,0.0324
1163.00,0.0301
1162.00,0.0281
1161.00,0.0264
1160.00,0.0251
1159.00,0.0241
1158.00,0.0234
1157.00,0.0228
1156.00,0.0224
1155.00,0.0221
1154.00,0.0218
1153.00,0.0214
1152.00,0.0209
1151.00,0.0202
1150.00,0.0194
1149.00,0.0185
1148.00,0.0175
1147.00,0.0166
1146.00,0.0158
1145.00,0.0149
1144.00,0.0141
1143.00,0.0134
1142.00,0.0128
1141.00,0.0122
1140.00,0.0117
1139.00,0.0112
1138.00,0.0109
1137.00,0.0106
1136.00,0.0104
1135.00,0.0102
1134.00,0.0101
1133.00,0.0099
1132.00,0.0098
1131.00,0.0098
1130.00,0.0098
1129.00,0.0098
1128.00,0.0099
1127.00,0.0100
1126.00,0.0101
1125.00,0.0101
1124.00,0.0102
1123.00,0.0103
1122.00,0.0105
1121.00,0.0107
1120.00,0.0109
1119.00,0.0111
1118.00,0.0112
1117.00,0.0113
1116.00,0.0114
1115.00,0.0114
1114.00,0.0115
1113.00,0.0115
1112.00,0.0116
1111.00,0.0117
1110.00,0.0119
1109.00,0.0121
1108.00,0.0124
1107.00,0.0129
1106.00,0.0134
1105.00,0.0140
1104.00,0.0144
1103.00,0.0145
1102.00,0.0145
1101.00,0.0141
1100.00,0.0137
1099.00,0.0131
1098.00,0.0126
1097.00,0.0121
1096.00,0.0117
1095.00,0.0114
1094.00,0.0111
1093.00,0.0108
1092.00,0.0106
1091.00,0.0104
1090.00,0.0103
1089.00,0.0102
1088.00,0.0102
1087.00,0.0101
1086.00,0.0100
1085.00,0.0099
1084.00,0.0099
1083.00,0.0099
1082.00,0.0099
1081.00,0.0098
1080.00,0.0098
1079.00,0.0097
1078.00,0.0096
1077.00,0.0094
1076.00,0.0092
1075.00,0.0091
1074.00,0.0090
1073.00,0.0089
1072.00,0.0087
1071.00,0.0087
1070.00,0.0086
1069.00,0.0086
1068.00,0.0086
1067.00,0.0086
1066.00,0.0086
1065.00,0.0087
1064.00,0.0088
1063.00,0.0089
1062.00,0.0089
1061.00,0.0089
1060.00,0.0089
1059.00,0.0089
1058.00,0.0090
1057.00,0.0090
1056.00,0.0089
1055.00,0.0089
1054.00,0.0088
1053.00,0.0088
1052.00,0.0090
1051.00,0.0092
1050.00,0.0094
1049.00,0.0097
1048.00,0.0100
1047.00,0.0105
1046.00,0.0108
1045.00,0.0111
1044.00,0.0111
1043.00,0.0109
1042.00,0.0107
1041.00,0.0104
1040.00,0.0102
1039.00,0.0099
1038.00,0.0098
1037.00,0.0097
1036.00,0.0096
1035.00,0.0096
1034.00,0.0096
1033.00,0.0095
1032.00,0.0093
1031.00,0.0092
1030.00,0.0091
1029.00,0.0089
1028.00,0.0088
1027.00,0.0088
1026.00,0.0087
1025.00,0.0087
1024.00,0.0087
1023.00,0.0088
1022.00,0.0088
1021.00,0.0089
1020.00,0.0089
1019.00,0.0090
1018.00,0.0091
1017.00,0.0093
1016.00,0.0094
1015.00,0.0095
1014.00,0.0097
1013.00,0.0099
1012.00,0.0101
1011.00,0.0104
1010.00,0.0107
1009.00,0.0112
1008.00,0.0118
1007.00,0.0127
1006.00,0.0138
1005.00,0.0154
1004.00,0.0174
1003.00,0.0203
1002.00,0.0241
1001.00,0.0289
1000.00,0.0340
999.00,0.0384
998.00,0.0409
997.00,0.0405
996.00,0.0375
995.00,0.0327
994.00,0.0275
993.00,0.0230
992.00,0.0195
991.00,0.0169
990.00,0.0152
989.00,0.0139
988.00,0.0131
987.00,0.0126
986.00,0.0125
985.00,0.0126
984.00,0.0130
983.00,0.0138
982.00,0.0150
981.00,0.0167
980.00,0.0191
979.00,0.0222
978.00,0.0262
977.00,0.0311
976.00,0.0365
975.00,0.0420
974.00,0.0465
973.00,0.0486
972.00,0.0476
971.00,0.0435
970.00,0.0374
969.00,0.0310
968.00,0.0255
967.00,0.0213
966.00,0.0182
965.00,0.0160
964.00,0.0144
963.00,0.0132
962.00,0.0122
961.00,0.0114
960.00,0.0109
959.00,0.0105
958.00,0.0102
957.00,0.0100
956.00,0.0097
955.00,0.0095
954.00,0.0093
953.00,0.0092
952.00,0.0091
951.00,0.0089
950.00,0.0088
949.00,0.0087
948.00,0.0086
947.00,0.0087
946.00,0.0089
945.00,0.0091
944.00,0.0094
943.00,0.0097
942.00,0.0100
941.00,0.0102
940.00,0.0101
939.00,0.0099
938.00,0.0095
937.00,0.0090
936.00,0.0085
935.00,0.0080
934.00,0.0077
933.00,0.0075
932.00,0.0074
931.00,0.0073
930.00,0.0072
929.00,0.0071
928.00,0.0070
927.00,0.0069
926.00,0.0068
925.00,0.0067
924.00,0.0067
923.00,0.0066
922.00,0.0067
921.00,0.0067
920.00,0.0068
919.00,0.0068
918.00,0.0069
917.00,0.0069
916.00,0.0069
915.00,0.0069
914.00,0.0070
913.00,0.0071
912.00,0.0072
911.00,0.0075
910.00,0.0078
909.00,0.0081
908.00,0.0084
907.00,0.0088
906.00,0.0093
905.00,0.0101
904.00,0.0113
903.00,0.0128
902.00,0.0145
901.00,0.0161
900.00,0.0171
899.00,0.0173
898.00,0.0167
897.00,0.0154
896.00,0.0138
895.00,0.0122
894.00,0.0109
893.00,0.0099
892.00,0.0092
891.00,0.0088
890.00,0.0085
889.00,0.0083
888.00,0.0082
887.00,0.0082
886.00,0.0081
885.00,0.0080
884.00,0.0079
883.00,0.0078
882.00,0.0077
881.00,0.0077
880.00,0.0076
879.00,0.0076
878.00,0.0077
877.00,0.0079
876.00,0.0080
875.00,0.0082
874.00,0.0082
873.00,0.0081
872.00,0.0081
871.00,0.0080
870.00,0.0080
869.00,0.0080
868.00,0.0081
867.00,0.0082
866.00,0.0084
865.00,0.0085
864.00,0.0087
863.00,0.0088
862.00,0.0088
861.00,0.0089
860.00,0.0089
859.00,0.0090
858.00,0.0090
857.00,0.0091
856.00,0.0092
855.00,0.0095
854.00,0.0098
853.00,0.0102
852.00,0.0106
851.00,0.0112
850.00,0.0117
849.00,0.0125
848.00,0.0135
847.00,0.0151
846.00,0.0176
845.00,0.0216
844.00,0.0272
843.00,0.0341
842.00,0.0401
841.00,0.0427
840.00,0.0404
839.00,0.0344
838.00,0.0274
837.00,0.0216
836.00,0.0178
835.00,0.0155
834.00,0.0141
833.00,0.0131
832.00,0.0124
831.00,0.0120
830.00,0.0116
829.00,0.0112
828.00,0.0109
827.00,0.0108
826.00,0.0107
825.00,0.0106
824.00,0.0105
823.00,0.0104
822.00,0.0104
821.00,0.0107
820.00,0.0110
819.00,0.0113
818.00,0.0117
817.00,0.0121
816.00,0.0127
815.00,0.0136
814.00,0.0149
813.00,0.0165
812.00,0.0182
811.00,0.0196
810.00,0.0207
809.00,0.0213
808.00,0.0211
807.00,0.0202
806.00,0.0187
805.00,0.0169
804.00,0.0152
803.00,0.0139
802.00,0.0130
801.00,0.0123
800.00,0.0118
799.00,0.0114
798.00,0.0110
797.00,0.0107
796.00,0.0104
795.00,0.0102
794.00,0.0099
793.00,0.0097
792.00,0.0095
791.00,0.0092
790.00,0.0090
789.00,0.0088
788.00,0.0085
787.00,0.0082
786.00,0.0080
785.00,0.0077
784.00,0.0075
783.00,0.0074
782.00,0.0074
781.00,0.0074
780.00,0.0074
779.00,0.0074
778.00,0.0073
777.00,0.0072
776.00,0.0070
775.00,0.0068
774.00,0.0067
773.00,0.0067
772.00,0.0069
771.00,0.0071
770.00,0.0072
769.00,0.0073
768.00,0.0074
767.00,0.0074
766.00,0.0073
765.00,0.0071
764.00,0.0070
763.00,0.0070
762.00,0.0070
761.00,0.0072
760.00,0.0075
759.00,0.0077
758.00,0.0079
757.00,0.0080
756.00,0.0080
755.00,0.0080
754.00,0.0079
753.00,0.0078
752.00,0.0079
751.00,0.0082
750.00,0.0084
749.00,0.0085
748.00,0.0086
747.00,0.0088
746.00,0.0090
745.00,0.0092
744.00,0.0094
743.00,0.0097
742.00,0.0100
741.00,0.0104
740.00,0.0107
739.00,0.0112
738.00,0.0115
737.00,0.0118
736.00,0.0121
735.00,0.0124
734.00,0.0129
733.00,0.0136
732.00,0.0145
731.00,0.0154
730.00,0.0161
729.00,0.0166
728.00,0.0168
727.00,0.0168
726.00,0.0169
725.00,0.0171
724.00,0.0175
723.00,0.0182
722.00,0.0190
721.00,0.0194
720.00,0.0191
719.00,0.0181
718.00,0.0167
717.00,0.0153
716.00,0.0141
715.00,0.0133
714.00,0.0126
713.00,0.0121
712.00,0.0117
711.00,0.0115
710.00,0.0115
709.00,0.0116
708.00,0.0116
707.00,0.0114
706.00,0.0112
705.00,0.0111
704.00,0.0109
703.00,0.0108
702.00,0.0106
701.00,0.0103
700.00,0.0099
699.00,0.0097
698.00,0.0095
697.00,0.0094
696.00,0.0094
695.00,0.0094
694.00,0.0095
693.00,0.0095
692.00,0.0095
691.00,0.0095
690.00,0.0094
689.00,0.0093
688.00,0.0092
687.00,0.0093
686.00,0.0093
685.00,0.0094
684.00,0.0093
683.00,0.0091
682.00,0.0090
681.00,0.0089
680.00,0.0089
679.00,0.0091
678.00,0.0093
677.00,0.0095
676.00,0.0096
675.00,0.0094
674.00,0.0092
673.00,0.0090
672.00,0.0089
671.00,0.0090
670.00,0.0090
669.00,0.0091
668.00,0.0091
667.00,0.0091
666.00,0.0092
665.00,0.0094
664.00,0.0093
663.00,0.0091
662.00,0.0089
661.00,0.0089
660.00,0.0090
659.00,0.0091
658.00,0.0091
657.00,0.0091
656.00,0.0090
655.00,0.0088
654.00,0.0087
653.00,0.0088
652.00,0.0090
651.00,0.0092
650.00,0.0093
649.00,0.0093
648.00,0.0093
647.00,0.0093
646.00,0.0092
645.00,0.0091
644.00,0.0089
643.00,0.0087
642.00,0.0085
641.00,0.0086
640.00,0.0089
639.00,0.0091
638.00,0.0094
637.00,0.0095
636.00,0.0095
635.00,0.0094
634.00,0.0095
633.00,0.0097
632.00,0.0100
631.00,0.0100
630.00,0.0097
629.00,0.0094
628.00,0.0091
627.00,0.0089
626.00,0.0088
625.00,0.0087
624.00,0.0087
623.00,0.0088
622.00,0.0089
621.00,0.0090
620.00,0.0092
619.00,0.0094
618.00,0.0095
617.00,0.0095
616.00,0.0094
615.00,0.0092
614.00,0.0090
613.00,0.0087
612.00,0.0086
611.00,0.0086
610.00,0.0087
609.00,0.0088
608.00,0.0088
607.00,0.0086
606.00,0.0083
605.00,0.0080
604.00,0.0079
603.00,0.0080
602.00,0.0083
601.00,0.0086
600.00,0.0088
599.00,0.0090
598.00,0.0094
597.00,0.0096
596.00,0.0096
595.00,0.0095
594.00,0.0093
593.00,0.0091
592.00,0.0089
591.00,0.0090
590.00,0.0092
589.00,0.0094
588.00,0.0095
587.00,0.0092
586.00,0.0089
585.00,0.0086
584.00,0.0086
583.00,0.0090
582.00,0.0095
581.00,0.0098
580.00,0.0099
579.00,0.0099
578.00,0.0100
577.00,0.0102
576.00,0.0102
575.00,0.0102
574.00,0.0103
573.00,0.0105
572.00,0.0104
571.00,0.0101
570.00,0.0097
569.00,0.0096
568.00,0.0100
567.00,0.0106
566.00,0.0113
565.00,0.0118
564.00,0.0118
563.00,0.0113
562.00,0.0107
561.00,0.0100
560.00,0.0095
559.00,0.0093
558.00,0.0092
557.00,0.0092
556.00,0.0093
555.00,0.0094
554.00,0.0095
553.00,0.0095
552.00,0.0095
551.00,0.0093
550.00,0.0093
549.00,0.0095
548.00,0.0098
547.00,0.0100
546.00,0.0098
545.00,0.0093
544.00,0.0086
543.00,0.0080
542.00,0.0081
541.00,0.0087
540.00,0.0094
539.00,0.0098
538.00,0.0099
537.00,0.0101
536.00,0.0104
535.00,0.0106
534.00,0.0108
533.00,0.0109
532.00,0.0110
531.00,0.0109
530.00,0.0103
529.00,0.0098
528.00,0.0097
527.00,0.0102
526.00,0.0110
525.00,0.0116
524.00,0.0115
523.00,0.0109
522.00,0.0100
521.00,0.0094
520.00,0.0091
519.00,0.0092
518.00,0.0093
517.00,0.0091
516.00,0.0087
515.00,0.0083
514.00,0.0083
513.00,0.0087
512.00,0.0092
511.00,0.0095
510.00,0.0095
509.00,0.0095
508.00,0.0095
507.00,0.0095
506.00,0.0093
505.00,0.0091
504.00,0.0090
503.00,0.0092
502.00,0.0094
501.00,0.0092
500.00,0.0089
499.00,0.0087
498.00,0.0087
497.00,0.0086
496.00,0.0082
495.00,0.0080
494.00,0.0081
493.00,0.0081
492.00,0.0080
491.00,0.0076
490.00,0.0075
489.00,0.0077
488.00,0.0080
487.00,0.0083
486.00,0.0088
485.00,0.0092
484.00,0.0092
483.00,0.0086
482.00,0.0076
481.00,0.0067
480.00,0.0064
479.00,0.0070
478.00,0.0081
477.00,0.0094
476.00,0.0103
475.00,0.0105
474.00,0.0102
473.00,0.0098
472.00,0.0098
471.00,0.0099
470.00,0.0100
469.00,0.0102
468.00,0.0103
467.00,0.0102
466.00,0.0098
465.00,0.0095
464.00,0.0100
463.00,0.0115
462.00,0.0134
461.00,0.0147
460.00,0.0152
459.00,0.0151
458.00,0.0147
457.00,0.0142
456.00,0.0135
455.00,0.0127
454.00,0.0120
453.00,0.0115
452.00,0.0116
451.00,0.0120
450.00,0.0124
