Created as New Dataset,Sample 015 By Administrator Date Thursday, September 04 2025
cm-1,A
4000.00,0.0009
3999.00,0.0009
3998.00,0.0009
3997.00,0.0010
3996.00,0.0010
3995.00,0.0010
3994.00,0.0010
3993.00,0.0010
3992.00,0.0010
3991.00,0.0009
3990.00,0.0009
3989.00,0.0009
3988.00,0.0009
3987.00,0.0009
3986.00,0.0009
3985.00,0.0009
3984.00,0.0009
3983.00,0.0008
3982.00,0.0008
3981.00,0.0008
3980.00,0.0008
3979.00,0.0008
3978.00,0.0008
3977.00,0.0008
3976.00,0.0008
3975.00,0.0008
3974.00,0.0008
3973.00,0.0008
3972.00,0.0008
3971.00,0.0008
3970.00,0.0008
3969.00,0.0008
3968.00,0.0008
3967.00,0.0008
3966.00,0.0008
3965.00,0.0008
3964.00,0.0007
3963.00,0.0007
3962.00,0.0007
3961.00,0.0007
3960.00,0.0007
3959.00,0.0007
3958.00,0.0007
3957.00,0.0007
3956.00,0.0008
3955.00,0.0008
3954.00,0.0008
3953.00,0.0007
3952.00,0.0007
3951.00,0.0007
3950.00,0.0007
3949.00,0.0007
3948.00,0.0007
3947.00,0.0007
3946.00,0.0007
3945.00,0.0006
3944.00,0.0007
3943.00,0.0007
3942.00,0.0007
3941.00,0.0007
3940.00,0.0007
3939.00,0.0007
3938.00,0.0007
3937.00,0.0008
3936.00,0.0008
3935.00,0.0008
3934.00,0.0008
3933.00,0.0008
3932.00,0.0008
3931.00,0.0008
3930.00,0.0008
3929.00,0.0008
3928.00,0.0008
3927.00,0.0008
3926.00,0.0008
3925.00,0.0008
3924.00,0.0009
3923.00,0.0008
3922.00,0.0008
3921.00,0.0008
3920.00,0.0008
3919.00,0.0008
3918.00,0.0008
3917.00,0.0008
3916.00,0.0008
3915.00,0.0008
3914.00,0.0008
3913.00,0.0008
3912.00,0.0008
3911.00,0.0007
3910.00,0.0007
3909.00,0.0007
3908.00,0.0007
3907.00,0.0007
3906.00,0.0008
3905.00,0.0008
3904.00,0.0008
3903.00,0.0008
3902.00,0.0008
3901.00,0.0007
3900.00,0.0007
3899.00,0.0007
3898.00,0.0007
3897.00,0.0007
3896.00,0.0007
3895.00,0.0007
3894.00,0.0007
3893.00,0.0008
3892.00,0.0008
3891.00,0.0008
3890.00,0.0008
3889.00,0.0007
3888.00,0.0007
3887.00,0.0007
3886.00,0.0007
3885.00,0.0007
3884.00,0.0007
3883.00,0.0006
3882.00,0.0007
3881.00,0.0007
3880.00,0.0008
3879.00,0.0008
3878.00,0.0008
3877.00,0.0007
3876.00,0.0007
3875.00,0.0008
3874.00,0.0008
3873.00,0.0007
3872.00,0.0007
3871.00,0.0007
3870.00,0.0007
3869.00,0.0007
3868.00,0.0007
3867.00,0.0007
3866.00,0.0007
3865.00,0.0007
3864.00,0.0007
3863.00,0.0007
3862.00,0.0007
3861.00,0.0007
3860.00,0.0007
3859.00,0.0007
3858.00,0.0007
3857.00,0.0007
3856.00,0.0007
3855.00,0.0007
3854.00,0.0007
3853.00,0.0007
3852.00,0.0006
3851.00,0.0005
3850.00,0.0005
3849.00,0.0006
3848.00,0.0006
3847.00,0.0006
3846.00,0.0006
3845.00,0.0007
3844.00,0.0007
3843.00,0.0007
3842.00,0.0006
3841.00,0.0006
3840.00,0.0006
3839.00,0.0006
3838.00,0.0006
3837.00,0.0006
3836.00,0.0006
3835.00,0.0007
3834.00,0.0007
3833.00,0.0007
3832.00,0.0007
3831.00,0.0007
3830.00,0.0007
3829.00,0.0006
3828.00,0.0006
3827.00,0.0007
3826.00,0.0007
3825.00,0.0007
3824.00,0.0007
3823.00,0.0007
3822.00,0.0007
3821.00,0.0007
3820.00,0.0007
3819.00,0.0006
3818.00,0.0005
3817.00,0.0006
3816.00,0.0006
3815.00,0.0006
3814.00,0.0007
3813.00,0.0007
3812.00,0.0007
3811.00,0.0008
3810.00,0.0007
3809.00,0.0007
3808.00,0.0007
3807.00,0.0007
3806.00,0.0007
3805.00,0.0007
3804.00,0.0006
3803.00,0.0006
3802.00,0.0006
3801.00,0.0006
3800.00,0.0006
3799.00,0.0006
3798.00,0.0006
3797.00,0.0007
3796.00,0.0007
3795.00,0.0007
3794.00,0.0007
3793.00,0.0007
3792.00,0.0007
3791.00,0.0006
3790.00,0.0007
3789.00,0.0007
3788.00,0.0007
3787.00,0.0007
3786.00,0.0007
3785.00,0.0007
3784.00,0.0006
3783.00,0.0006
3782.00,0.0006
3781.00,0.0006
3780.00,0.0006
3779.00,0.0007
3778.00,0.0007
3777.00,0.0007
3776.00,0.0007
3775.00,0.0007
3774.00,0.0007
3773.00,0.0007
3772.00,0.0006
3771.00,0.0006
3770.00,0.0006
3769.00,0.0006
3768.00,0.0006
3767.00,0.0006
3766.00,0.0007
3765.00,0.0008
3764.00,0.0008
3763.00,0.0009
3762.00,0.0009
3761.00,0.0008
3760.00,0.0008
3759.00,0.0008
3758.00,0.0008
3757.00,0.0008
3756.00,0.0008
3755.00,0.0008
3754.00,0.0008
3753.00,0.0007
3752.00,0.0007
3751.00,0.0007
3750.00,0.0007
3749.00,0.0007
3748.00,0.0007
3747.00,0.0007
3746.00,0.0006
3745.00,0.0006
3744.00,0.0005
3743.00,0.0005
3742.00,0.0005
3741.00,0.0006
3740.00,0.0006
3739.00,0.0006
3738.00,0.0006
3737.00,0.0005
3736.00,0.0005
3735.00,0.0005
3734.00,0.0005
3733.00,0.0005
3732.00,0.0005
3731.00,0.0005
3730.00,0.0005
3729.00,0.0005
3728.00,0.0005
3727.00,0.0005
3726.00,0.0005
3725.00,0.0005
3724.00,0.0005
3723.00,0.0005
3722.00,0.0005
3721.00,0.0005
3720.00,0.0005
3719.00,0.0005
3718.00,0.0005
3717.00,0.0006
3716.00,0.0006
3715.00,0.0006
3714.00,0.0006
3713.00,0.0006
3712.00,0.0007
3711.00,0.0007
3710.00,0.0007
3709.00,0.0006
3708.00,0.0006
3707.00,0.0006
3706.00,0.0006
3705.00,0.0005
3704.00,0.0005
3703.00,0.0005
3702.00,0.0005
3701.00,0.0006
3700.00,0.0006
3699.00,0.0006
3698.00,0.0006
3697.00,0.0006
3696.00,0.0006
3695.00,0.0006
3694.00,0.0006
3693.00,0.0006
3692.00,0.0006
3691.00,0.0006
3690.00,0.0006
3689.00,0.0006
3688.00,0.0006
3687.00,0.0006
3686.00,0.0006
3685.00,0.0006
3684.00,0.0007
3683.00,0.0007
3682.00,0.0008
3681.00,0.0008
3680.00,0.0009
3679.00,0.0010
3678.00,0.0010
3677.00,0.0010
3676.00,0.0010
3675.00,0.0011
3674.00,0.0011
3673.00,0.0011
3672.00,0.0011
3671.00,0.0011
3670.00,0.0010
3669.00,0.0010
3668.00,0.0010
3667.00,0.0010
3666.00,0.0010
3665.00,0.0011
3664.00,0.0011
3663.00,0.0012
3662.00,0.0012
3661.00,0.0013
3660.00,0.0013
3659.00,0.0013
3658.00,0.0013
3657.00,0.0013
3656.00,0.0013
3655.00,0.0013
3654.00,0.0013
3653.00,0.0013
3652.00,0.0013
3651.00,0.0013
3650.00,0.0014
3649.00,0.0014
3648.00,0.0013
3647.00,0.0012
3646.00,0.0011
3645.00,0.0010
3644.00,0.0010
3643.00,0.0010
3642.00,0.0011
3641.00,0.0011
3640.00,0.0012
3639.00,0.0012
3638.00,0.0013
3637.00,0.0012
3636.00,0.0012
3635.00,0.0012
3634.00,0.0011
3633.00,0.0011
3632.00,0.0010
3631.00,0.0010
3630.00,0.0010
3629.00,0.0009
3628.00,0.0009
3627.00,0.0009
3626.00,0.0009
3625.00,0.0010
3624.00,0.0010
3623.00,0.0010
3622.00,0.0010
3621.00,0.0009
3620.00,0.0009
3619.00,0.0009
3618.00,0.0009
3617.00,0.0009
3616.00,0.0009
3615.00,0.0009
3614.00,0.0009
3613.00,0.0010
3612.00,0.0010
3611.00,0.0010
3610.00,0.0010
3609.00,0.0010
3608.00,0.0010
3607.00,0.0010
3606.00,0.0010
3605.00,0.0010
3604.00,0.0010
3603.00,0.0010
3602.00,0.0010
3601.00,0.0010
3600.00,0.0010
3599.00,0.0010
3598.00,0.0010
3597.00,0.0010
3596.00,0.0011
3595.00,0.0011
3594.00,0.0012
3593.00,0.0012
3592.00,0.0012
3591.00,0.0012
3590.00,0.0012
3589.00,0.0013
3588.00,0.0014
3587.00,0.0014
3586.00,0.0014
3585.00,0.0014
3584.00,0.0014
3583.00,0.0014
3582.00,0.0014
3581.00,0.0014
3580.00,0.0013
3579.00,0.0013
3578.00,0.0014
3577.00,0.0014
3576.00,0.0014
3575.00,0.0015
3574.00,0.0015
3573.00,0.0015
3572.00,0.0015
3571.00,0.0016
3570.00,0.0016
3569.00,0.0016
3568.00,0.0016
3567.00,0.0016
3566.00,0.0016
3565.00,0.0016
3564.00,0.0017
3563.00,0.0017
3562.00,0.0017
3561.00,0.0017
3560.00,0.0018
3559.00,0.0018
3558.00,0.0018
3557.00,0.0019
3556.00,0.0019
3555.00,0.0019
3554.00,0.0020
3553.00,0.0020
3552.00,0.0020
3551.00,0.0020
3550.00,0.0021
3549.00,0.0021
3548.00,0.0021
3547.00,0.0022
3546.00,0.0022
3545.00,0.0023
3544.00,0.0023
3543.00,0.0023
3542.00,0.0024
3541.00,0.0024
3540.00,0.0024
3539.00,0.0024
3538.00,0.0024
3537.00,0.0024
3536.00,0.0024
3535.00,0.0024
3534.00,0.0024
3533.00,0.0024
3532.00,0.0025
3531.00,0.0025
3530.00,0.0025
3529.00,0.0025
3528.00,0.0026
3527.00,0.0026
3526.00,0.0027
3525.00,0.0027
3524.00,0.0027
3523.00,0.0028
3522.00,0.0028
3521.00,0.0028
3520.00,0.0028
3519.00,0.0028
3518.00,0.0028
3517.00,0.0029
3516.00,0.0029
3515.00,0.0029
3514.00,0.0029
3513.00,0.0029
3512.00,0.0029
3511.00,0.0030
3510.00,0.0030
3509.00,0.0030
3508.00,0.0030
3507.00,0.0031
3506.00,0.0031
3505.00,0.0032
3504.00,0.0032
3503.00,0.0033
3502.00,0.0033
3501.00,0.0034
3500.00,0.0034
3499.00,0.0034
3498.00,0.0034
3497.00,0.0034
3496.00,0.0034
3495.00,0.0034
3494.00,0.0035
3493.00,0.0035
3492.00,0.0035
3491.00,0.0035
3490.00,0.0035
3489.00,0.0036
3488.00,0.0036
3487.00,0.0036
3486.00,0.0036
3485.00,0.0036
3484.00,0.0037
3483.00,0.0037
3482.00,0.0037
3481.00,0.0037
3480.00,0.0037
3479.00,0.0037
3478.00,0.0038
3477.00,0.0038
3476.00,0.0038
3475.00,0.0039
3474.00,0.0039
3473.00,0.0039
3472.00,0.0039
3471.00,0.0040
3470.00,0.0040
3469.00,0.0040
3468.00,0.0040
3467.00,0.0041
3466.00,0.0041
3465.00,0.0042
3464.00,0.0043
3463.00,0.0043
3462.00,0.0043
3461.00,0.0044
3460.00,0.0044
3459.00,0.0044
3458.00,0.0044
3457.00,0.0044
3456.00,0.0044
3455.00,0.0044
3454.00,0.0044
3453.00,0.0044
3452.00,0.0044
3451.00,0.0044
3450.00,0.0045
3449.00,0.0045
3448.00,0.0045
3447.00,0.0045
3446.00,0.0045
3445.00,0.0046
3444.00,0.0046
3443.00,0.0046
3442.00,0.0046
3441.00,0.0046
3440.00,0.0047
3439.00,0.0047
3438.00,0.0047
3437.00,0.0047
3436.00,0.0047
3435.00,0.0048
3434.00,0.0048
3433.00,0.0049
3432.00,0.0049
3431.00,0.0049
3430.00,0.0049
3429.00,0.0049
3428.00,0.0048
3427.00,0.0048
3426.00,0.0048
3425.00,0.0049
3424.00,0.0049
3423.00,0.0050
3422.00,0.0050
3421.00,0.0050
3420.00,0.0050
3419.00,0.0050
3418.00,0.0050
3417.00,0.0051
3416.00,0.0052
3415.00,0.0052
3414.00,0.0053
3413.00,0.0053
3412.00,0.0053
3411.00,0.0053
3410.00,0.0053
3409.00,0.0053
3408.00,0.0053
3407.00,0.0053
3406.00,0.0052
3405.00,0.0052
3404.00,0.0052
3403.00,0.0053
3402.00,0.0053
3401.00,0.0054
3400.00,0.0054
3399.00,0.0055
3398.00,0.0055
3397.00,0.0054
3396.00,0.0054
3395.00,0.0054
3394.00,0.0054
3393.00,0.0054
3392.00,0.0054
3391.00,0.0054
3390.00,0.0053
3389.00,0.0053
3388.00,0.0053
3387.00,0.0054
3386.00,0.0054
3385.00,0.0054
3384.00,0.0054
3383.00,0.0054
3382.00,0.0054
3381.00,0.0055
3380.00,0.0055
3379.00,0.0056
3378.00,0.0056
3377.00,0.0056
3376.00,0.0056
3375.00,0.0056
3374.00,0.0056
3373.00,0.0056
3372.00,0.0056
3371.00,0.0055
3370.00,0.0055
3369.00,0.0055
3368.00,0.0055
3367.00,0.0055
3366.00,0.0055
3365.00,0.0055
3364.00,0.0056
3363.00,0.0056
3362.00,0.0056
3361.00,0.0056
3360.00,0.0056
3359.00,0.0055
3358.00,0.0055
3357.00,0.0056
3356.00,0.0056
3355.00,0.0056
3354.00,0.0057
3353.00,0.0057
3352.00,0.0056
3351.00,0.0056
3350.00,0.0055
3349.00,0.0055
3348.00,0.0055
3347.00,0.0055
3346.00,0.0055
3345.00,0.0055
3344.00,0.0055
3343.00,0.0055
3342.00,0.0055
3341.00,0.0055
3340.00,0.0055
3339.00,0.0055
3338.00,0.0055
3337.00,0.0055
3336.00,0.0055
3335.00,0.0055
3334.00,0.0055
3333.00,0.0055
3332.00,0.0055
3331.00,0.0055
3330.00,0.0055
3329.00,0.0054
3328.00,0.0054
3327.00,0.0054
3326.00,0.0054
3325.00,0.0054
3324.00,0.0054
3323.00,0.0054
3322.00,0.0053
3321.00,0.0053
3320.00,0.0053
3319.00,0.0053
3318.00,0.0053
3317.00,0.0053
3316.00,0.0053
3315.00,0.0053
3314.00,0.0053
3313.00,0.0053
3312.00,0.0053
3311.00,0.0053
3310.00,0.0053
3309.00,0.0053
3308.00,0.0053
3307.00,0.0053
3306.00,0.0053
3305.00,0.0053
3304.00,0.0053
3303.00,0.0053
3302.00,0.0054
3301.00,0.0054
3300.00,0.0054
3299.00,0.0053
3298.00,0.0053
3297.00,0.0052
3296.00,0.0052
3295.00,0.0052
3294.00,0.0051
3293.00,0.0051
3292.00,0.0050
3291.00,0.0050
3290.00,0.0050
3289.00,0.0050
3288.00,0.0050
3287.00,0.0050
3286.00,0.0050
3285.00,0.0050
3284.00,0.0049
3283.00,0.0049
3282.00,0.0049
3281.00,0.0048
3280.00,0.0048
3279.00,0.0047
3278.00,0.0047
3277.00,0.0047
3276.00,0.0047
3275.00,0.0047
3274.00,0.0047
3273.00,0.0047
3272.00,0.0047
3271.00,0.0047
3270.00,0.0046
3269.00,0.0046
3268.00,0.0046
3267.00,0.0046
3266.00,0.0046
3265.00,0.0046
3264.00,0.0046
3263.00,0.0046
3262.00,0.0045
3261.00,0.0044
3260.00,0.0044
3259.00,0.0043
3258.00,0.0043
3257.00,0.0043
3256.00,0.0044
3255.00,0.0044
3254.00,0.0044
3253.00,0.0044
3252.00,0.0044
3251.00,0.0043
3250.00,0.0043
3249.00,0.0043
3248.00,0.0043
3247.00,0.0042
3246.00,0.0042
3245.00,0.0042
3244.00,0.0042
3243.00,0.0042
3242.00,0.0042
3241.00,0.0042
3240.00,0.0042
3239.00,0.0041
3238.00,0.0041
3237.00,0.0040
3236.00,0.0041
3235.00,0.0041
3234.00,0.0042
3233.00,0.0042
3232.00,0.0042
3231.00,0.0043
3230.00,0.0043
3229.00,0.0043
3228.00,0.0043
3227.00,0.0043
3226.00,0.0042
3225.00,0.0042
3224.00,0.0042
3223.00,0.0043
3222.00,0.0043
3221.00,0.0043
3220.00,0.0044
3219.00,0.0044
3218.00,0.0044
3217.00,0.0044
3216.00,0.0044
3215.00,0.0045
3214.00,0.0045
3213.00,0.0045
3212.00,0.0045
3211.00,0.0045
3210.00,0.0045
3209.00,0.0045
3208.00,0.0045
3207.00,0.0045
3206.00,0.0045
3205.00,0.0045
3204.00,0.0045
3203.00,0.0046
3202.00,0.0046
3201.00,0.0046
3200.00,0.0045
3199.00,0.0045
3198.00,0.0045
3197.00,0.0045
3196.00,0.0045
3195.00,0.0045
3194.00,0.0045
3193.00,0.0045
3192.00,0.0044
3191.00,0.0044
3190.00,0.0044
3189.00,0.0044
3188.00,0.0044
3187.00,0.0044
3186.00,0.0044
3185.00,0.0043
3184.00,0.0043
3183.00,0.0043
3182.00,0.0043
3181.00,0.0043
3180.00,0.0043
3179.00,0.0042
3178.00,0.0042
3177.00,0.0041
3176.00,0.0041
3175.00,0.0040
3174.00,0.0040
3173.00,0.0041
3172.00,0.0041
3171.00,0.0041
3170.00,0.0041
3169.00,0.0041
3168.00,0.0041
3167.00,0.0040
3166.00,0.0040
3165.00,0.0039
3164.00,0.0039
3163.00,0.0039
3162.00,0.0039
3161.00,0.0039
3160.00,0.0039
3159.00,0.0038
3158.00,0.0038
3157.00,0.0038
3156.00,0.0038
3155.00,0.0038
3154.00,0.0038
3153.00,0.0039
3152.00,0.0039
3151.00,0.0039
3150.00,0.0038
3149.00,0.0038
3148.00,0.0038
3147.00,0.0038
3146.00,0.0038
3145.00,0.0038
3144.00,0.0038
3143.00,0.0038
3142.00,0.0038
3141.00,0.0038
3140.00,0.0037
3139.00,0.0037
3138.00,0.0037
3137.00,0.0037
3136.00,0.0037
3135.00,0.0037
3134.00,0.0037
3133.00,0.0036
3132.00,0.0036
3131.00,0.0036
3130.00,0.0035
3129.00,0.0035
3128.00,0.0035
3127.00,0.0035
3126.00,0.0034
3125.00,0.0034
3124.00,0.0033
3123.00,0.0033
3122.00,0.0033
3121.00,0.0033
3120.00,0.0033
3119.00,0.0033
3118.00,0.0032
3117.00,0.0032
3116.00,0.0032
3115.00,0.0032
3114.00,0.0032
3113.00,0.0032
3112.00,0.0031
3111.00,0.0031
3110.00,0.0031
3109.00,0.0031
3108.00,0.0031
3107.00,0.0031
3106.00,0.0031
3105.00,0.0031
3104.00,0.0030
3103.00,0.0030
3102.00,0.0030
3101.00,0.0030
3100.00,0.0030
3099.00,0.0030
3098.00,0.0030
3097.00,0.0030
3096.00,0.0030
3095.00,0.0030
3094.00,0.0030
3093.00,0.0029
3092.00,0.0029
3091.00,0.0029
3090.00,0.0029
3089.00,0.0029
3088.00,0.0029
3087.00,0.0028
3086.00,0.0028
3085.00,0.0028
3084.00,0.0028
3083.00,0.0028
3082.00,0.0028
3081.00,0.0028
3080.00,0.0029
3079.00,0.0029
3078.00,0.0029
3077.00,0.0029
3076.00,0.0029
3075.00,0.0029
3074.00,0.0029
3073.00,0.0030
3072.00,0.0030
3071.00,0.0030
3070.00,0.0030
3069.00,0.0030
3068.00,0.0030
3067.00,0.0030
3066.00,0.0030
3065.00,0.0030
3064.00,0.0030
3063.00,0.0030
3062.00,0.0030
3061.00,0.0030
3060.00,0.0030
3059.00,0.0031
3058.00,0.0031
3057.00,0.0031
3056.00,0.0031
3055.00,0.0032
3054.00,0.0032
3053.00,0.0032
3052.00,0.0032
3051.00,0.0032
3050.00,0.0032
3049.00,0.0033
3048.00,0.0033
3047.00,0.0033
3046.00,0.0033
3045.00,0.0033
3044.00,0.0033
3043.00,0.0034
3042.00,0.0034
3041.00,0.0035
3040.00,0.0035
3039.00,0.0036
3038.00,0.0036
3037.00,0.0036
3036.00,0.0036
3035.00,0.0036
3034.00,0.0036
3033.00,0.0036
3032.00,0.0037
3031.00,0.0037
3030.00,0.0038
3029.00,0.0038
3028.00,0.0039
3027.00,0.0040
3026.00,0.0040
3025.00,0.0041
3024.00,0.0041
3023.00,0.0042
3022.00,0.0043
3021.00,0.0044
3020.00,0.0045
3019.00,0.0047
3018.00,0.0048
3017.00,0.0050
3016.00,0.0051
3015.00,0.0052
3014.00,0.0054
3013.00,0.0056
3012.00,0.0058
3011.00,0.0060
3010.00,0.0063
3009.00,0.0066
3008.00,0.0069
3007.00,0.0072
3006.00,0.0075
3005.00,0.0078
3004.00,0.0082
3003.00,0.0085
3002.00,0.0089
3001.00,0.0093
3000.00,0.0098
2999.00,0.0102
2998.00,0.0106
2997.00,0.0110
2996.00,0.0114
2995.00,0.0118
2994.00,0.0123
2993.00,0.0128
2992.00,0.0134
2991.00,0.0140
2990.00,0.0147
2989.00,0.0154
2988.00,0.0162
2987.00,0.0172
2986.00,0.0183
2985.00,0.0197
2984.00,0.0213
2983.00,0.0231
2982.00,0.0248
2981.00,0.0264
2980.00,0.0280
2979.00,0.0296
2978.00,0.0316
2977.00,0.0338
2976.00,0.0366
2975.00,0.0398
2974.00,0.0436
2973.00,0.0480
2972.00,0.0528
2971.00,0.0582
2970.00,0.0639
2969.00,0.0702
2968.00,0.0769
2967.00,0.0839
2966.00,0.0912
2965.00,0.0985
2964.00,0.1055
2963.00,0.1119
2962.00,0.1176
2961.00,0.1226
2960.00,0.1271
2959.00,0.1314
2958.00,0.1360
2957.00,0.1414
2956.00,0.1480
2955.00,0.1558
2954.00,0.1645
2953.00,0.1735
2952.00,0.1818
2951.00,0.1882
2950.00,0.1914
2949.00,0.1905
2948.00,0.1853
2947.00,0.1761
2946.00,0.1643
2945.00,0.1513
2944.00,0.1388
2943.00,0.1279
2942.00,0.1194
2941.00,0.1136
2940.00,0.1104
2939.00,0.1095
2938.00,0.1107
2937.00,0.1138
2936.00,0.1186
2935.00,0.1250
2934.00,0.1328
2933.00,0.1420
2932.00,0.1524
2931.00,0.1637
2930.00,0.1758
2929.00,0.1882
2928.00,0.2007
2927.00,0.2130
2926.00,0.2249
2925.00,0.2365
2924.00,0.2478
2923.00,0.2592
2922.00,0.2705
2921.00,0.2816
2920.00,0.2917
2919.00,0.2999
2918.00,0.3047
2917.00,0.3053
2916.00,0.3011
2915.00,0.2927
2914.00,0.2813
2913.00,0.2682
2912.00,0.2549
2911.00,0.2422
2910.00,0.2305
2909.00,0.2200
2908.00,0.2104
2907.00,0.2014
2906.00,0.1929
2905.00,0.1847
2904.00,0.1768
2903.00,0.1692
2902.00,0.1619
2901.00,0.1549
2900.00,0.1484
2899.00,0.1422
2898.00,0.1365
2897.00,0.1313
2896.00,0.1266
2895.00,0.1226
2894.00,0.1192
2893.00,0.1165
2892.00,0.1143
2891.00,0.1128
2890.00,0.1118
2889.00,0.1112
2888.00,0.1111
2887.00,0.1112
2886.00,0.1118
2885.00,0.1127
2884.00,0.1141
2883.00,0.1161
2882.00,0.1186
2881.00,0.1216
2880.00,0.1246
2879.00,0.1274
2878.00,0.1294
2877.00,0.1303
2876.00,0.1302
2875.00,0.1295
2874.00,0.1287
2873.00,0.1283
2872.00,0.1287
2871.00,0.1300
2870.00,0.1319
2869.00,0.1339
2868.00,0.1353
2867.00,0.1352
2866.00,0.1328
2865.00,0.1278
2864.00,0.1208
2863.00,0.1125
2862.00,0.1041
2861.00,0.0967
2860.00,0.0908
2859.00,0.0866
2858.00,0.0841
2857.00,0.0830
2856.00,0.0830
2855.00,0.0837
2854.00,0.0851
2853.00,0.0868
2852.00,0.0885
2851.00,0.0899
2850.00,0.0908
2849.00,0.0913
2848.00,0.0916
2847.00,0.0924
2846.00,0.0940
2845.00,0.0968
2844.00,0.1007
2843.00,0.1056
2842.00,0.1110
2841.00,0.1163
2840.00,0.1207
2839.00,0.1234
2838.00,0.1235
2837.00,0.1206
2836.00,0.1146
2835.00,0.1059
2834.00,0.0955
2833.00,0.0845
2832.00,0.0740
2831.00,0.0645
2830.00,0.0565
2829.00,0.0499
2828.00,0.0445
2827.00,0.0402
2826.00,0.0368
2825.00,0.0339
2824.00,0.0315
2823.00,0.0295
2822.00,0.0278
2821.00,0.0263
2820.00,0.0251
2819.00,0.0240
2818.00,0.0230
2817.00,0.0222
2816.00,0.0214
2815.00,0.0207
2814.00,0.0201
2813.00,0.0195
2812.00,0.0189
2811.00,0.0183
2810.00,0.0177
2809.00,0.0171
2808.00,0.0165
2807.00,0.0158
2806.00,0.0151
2805.00,0.0144
2804.00,0.0138
2803.00,0.0132
2802.00,0.0127
2801.00,0.0122
2800.00,0.0118
2799.00,0.0114
2798.00,0.0111
2797.00,0.0109
2796.00,0.0106
2795.00,0.0104
2794.00,0.0101
2793.00,0.0098
2792.00,0.0095
2791.00,0.0092
2790.00,0.0089
2789.00,0.0086
2788.00,0.0084
2787.00,0.0082
2786.00,0.0079
2785.00,0.0077
2784.00,0.0074
2783.00,0.0072
2782.00,0.0070
2781.00,0.0068
2780.00,0.0066
2779.00,0.0065
2778.00,0.0064
2777.00,0.0062
2776.00,0.0061
2775.00,0.0060
2774.00,0.0059
2773.00,0.0058
2772.00,0.0058
2771.00,0.0058
2770.00,0.0058
2769.00,0.0058
2768.00,0.0058
2767.00,0.0057
2766.00,0.0056
2765.00,0.0055
2764.00,0.0055
2763.00,0.0054
2762.00,0.0054
2761.00,0.0053
2760.00,0.0053
2759.00,0.0053
2758.00,0.0053
2757.00,0.0053
2756.00,0.0053
2755.00,0.0053
2754.00,0.0053
2753.00,0.0052
2752.00,0.0052
2751.00,0.0051
2750.00,0.0051
2749.00,0.0051
2748.00,0.0051
2747.00,0.0052
2746.00,0.0052
2745.00,0.0053
2744.00,0.0054
2743.00,0.0054
2742.00,0.0055
2741.00,0.0056
2740.00,0.0057
2739.00,0.0059
2738.00,0.0060
2737.00,0.0061
2736.00,0.0063
2735.00,0.0065
2734.00,0.0066
2733.00,0.0068
2732.00,0.0070
2731.00,0.0072
2730.00,0.0075
2729.00,0.0077
2728.00,0.0080
2727.00,0.0083
2726.00,0.0086
2725.00,0.0088
2724.00,0.0090
2723.00,0.0090
2722.00,0.0089
2721.00,0.0087
2720.00,0.0084
2719.00,0.0081
2718.00,0.0077
2717.00,0.0074
2716.00,0.0072
2715.00,0.0069
2714.00,0.0066
2713.00,0.0064
2712.00,0.0061
2711.00,0.0059
2710.00,0.0057
2709.00,0.0055
2708.00,0.0054
2707.00,0.0052
2706.00,0.0051
2705.00,0.0050
2704.00,0.0049
2703.00,0.0048
2702.00,0.0047
2701.00,0.0046
2700.00,0.0045
2699.00,0.0045
2698.00,0.0044
2697.00,0.0044
2696.00,0.0044
2695.00,0.0044
2694.00,0.0044
2693.00,0.0044
2692.00,0.0044
2691.00,0.0044
2690.00,0.0044
2689.00,0.0044
2688.00,0.0044
2687.00,0.0044
2686.00,0.0044
2685.00,0.0044
2684.00,0.0045
2683.00,0.0045
2682.00,0.0045
2681.00,0.0045
2680.00,0.0046
2679.00,0.0046
2678.00,0.0046
2677.00,0.0046
2676.00,0.0046
2675.00,0.0046
2674.00,0.0046
2673.00,0.0045
2672.00,0.0045
2671.00,0.0045
2670.00,0.0045
2669.00,0.0045
2668.00,0.0045
2667.00,0.0045
2666.00,0.0046
2665.00,0.0046
2664.00,0.0047
2663.00,0.0047
2662.00,0.0048
2661.00,0.0048
2660.00,0.0049
2659.00,0.0049
2658.00,0.0048
2657.00,0.0048
2656.00,0.0048
2655.00,0.0047
2654.00,0.0047
2653.00,0.0046
2652.00,0.0046
2651.00,0.0046
2650.00,0.0045
2649.00,0.0045
2648.00,0.0044
2647.00,0.0043
2646.00,0.0043
2645.00,0.0042
2644.00,0.0041
2643.00,0.0041
2642.00,0.0040
2641.00,0.0040
2640.00,0.0040
2639.00,0.0039
2638.00,0.0039
2637.00,0.0039
2636.00,0.0039
2635.00,0.0039
2634.00,0.0039
2633.00,0.0039
2632.00,0.0039
2631.00,0.0040
2630.00,0.0039
2629.00,0.0039
2628.00,0.0039
2627.00,0.0039
2626.00,0.0039
2625.00,0.0039
2624.00,0.0040
2623.00,0.0040
2622.00,0.0040
2621.00,0.0040
2620.00,0.0041
2619.00,0.0041
2618.00,0.0041
2617.00,0.0041
2616.00,0.0041
2615.00,0.0040
2614.00,0.0040
2613.00,0.0040
2612.00,0.0039
2611.00,0.0038
2610.00,0.0037
2609.00,0.0036
2608.00,0.0036
2607.00,0.0036
2606.00,0.0036
2605.00,0.0035
2604.00,0.0035
2603.00,0.0034
2602.00,0.0033
2601.00,0.0032
2600.00,0.0032
2599.00,0.0032
2598.00,0.0032
2597.00,0.0033
2596.00,0.0033
2595.00,0.0033
2594.00,0.0033
2593.00,0.0033
2592.00,0.0033
2591.00,0.0033
2590.00,0.0034
2589.00,0.0035
2588.00,0.0037
2587.00,0.0038
2586.00,0.0039
2585.00,0.0040
2584.00,0.0041
2583.00,0.0041
2582.00,0.0041
2581.00,0.0041
2580.00,0.0040
2579.00,0.0040
2578.00,0.0039
2577.00,0.0037
2576.00,0.0035
2575.00,0.0034
2574.00,0.0032
2573.00,0.0031
2572.00,0.0030
2571.00,0.0029
2570.00,0.0028
2569.00,0.0027
2568.00,0.0026
2567.00,0.0025
2566.00,0.0025
2565.00,0.0024
2564.00,0.0024
2563.00,0.0023
2562.00,0.0023
2561.00,0.0022
2560.00,0.0022
2559.00,0.0022
2558.00,0.0022
2557.00,0.0022
2556.00,0.0022
2555.00,0.0022
2554.00,0.0021
2553.00,0.0021
2552.00,0.0021
2551.00,0.0021
2550.00,0.0021
2549.00,0.0020
2548.00,0.0020
2547.00,0.0020
2546.00,0.0019
2545.00,0.0019
2544.00,0.0018
2543.00,0.0018
2542.00,0.0017
2541.00,0.0016
2540.00,0.0016
2539.00,0.0016
2538.00,0.0016
2537.00,0.0017
2536.00,0.0017
2535.00,0.0017
2534.00,0.0017
2533.00,0.0017
2532.00,0.0016
2531.00,0.0016
2530.00,0.0015
2529.00,0.0014
2528.00,0.0014
2527.00,0.0014
2526.00,0.0014
2525.00,0.0013
2524.00,0.0013
2523.00,0.0013
2522.00,0.0013
2521.00,0.0013
2520.00,0.0013
2519.00,0.0012
2518.00,0.0011
2517.00,0.0011
2516.00,0.0011
2515.00,0.0011
2514.00,0.0011
2513.00,0.0011
2512.00,0.0012
2511.00,0.0012
2510.00,0.0012
2509.00,0.0011
2508.00,0.0011
2507.00,0.0010
2506.00,0.0009
2505.00,0.0009
2504.00,0.0009
2503.00,0.0009
2502.00,0.0010
2501.00,0.0010
2500.00,0.0010
2499.00,0.0010
2498.00,0.0010
2497.00,0.0010
2496.00,0.0010
2495.00,0.0010
2494.00,0.0009
2493.00,0.0009
2492.00,0.0009
2491.00,0.0009
2490.00,0.0010
2489.00,0.0010
2488.00,0.0009
2487.00,0.0009
2486.00,0.0009
2485.00,0.0009
2484.00,0.0010
2483.00,0.0010
2482.00,0.0011
2481.00,0.0010
2480.00,0.0010
2479.00,0.0009
2478.00,0.0009
2477.00,0.0009
2476.00,0.0009
2475.00,0.0009
2474.00,0.0009
2473.00,0.0009
2472.00,0.0009
2471.00,0.0009
2470.00,0.0009
2469.00,0.0009
2468.00,0.0009
2467.00,0.0008
2466.00,0.0008
2465.00,0.0007
2464.00,0.0007
2463.00,0.0008
2462.00,0.0009
2461.00,0.0010
2460.00,0.0011
2459.00,0.0011
2458.00,0.0011
2457.00,0.0011
2456.00,0.0011
2455.00,0.0011
2454.00,0.0012
2453.00,0.0012
2452.00,0.0012
2451.00,0.0011
2450.00,0.0011
2449.00,0.0010
2448.00,0.0011
2447.00,0.0011
2446.00,0.0011
2445.00,0.0011
2444.00,0.0011
2443.00,0.0011
2442.00,0.0011
2441.00,0.0011
2440.00,0.0011
2439.00,0.0010
2438.00,0.0009
2437.00,0.0009
2436.00,0.0009
2435.00,0.0010
2434.00,0.0010
2433.00,0.0011
2432.00,0.0011
2431.00,0.0012
2430.00,0.0012
2429.00,0.0012
2428.00,0.0012
2427.00,0.0012
2426.00,0.0012
2425.00,0.0012
2424.00,0.0011
2423.00,0.0011
2422.00,0.0010
2421.00,0.0010
2420.00,0.0010
2419.00,0.0010
2418.00,0.0010
2417.00,0.0010
2416.00,0.0010
2415.00,0.0010
2414.00,0.0010
2413.00,0.0010
2412.00,0.0010
2411.00,0.0010
2410.00,0.0009
2409.00,0.0009
2408.00,0.0008
2407.00,0.0008
2406.00,0.0007
2405.00,0.0007
2404.00,0.0007
2403.00,0.0007
2402.00,0.0007
2401.00,0.0007
2400.00,0.0007
2399.00,0.0007
2398.00,0.0007
2397.00,0.0007
2396.00,0.0008
2395.00,0.0008
2394.00,0.0008
2393.00,0.0008
2392.00,0.0007
2391.00,0.0007
2390.00,0.0006
2389.00,0.0006
2388.00,0.0006
2387.00,0.0006
2386.00,0.0005
2385.00,0.0005
2384.00,0.0004
2383.00,0.0004
2382.00,0.0003
2381.00,0.0003
2380.00,0.0003
2379.00,0.0003
2378.00,0.0003
2377.00,0.0003
2376.00,0.0003
2375.00,0.0003
2374.00,0.0002
2373.00,0.0002
2372.00,0.0002
2371.00,0.0002
2370.00,0.0003
2369.00,0.0003
2368.00,0.0002
2367.00,0.0002
2366.00,0.0001
2365.00,0.0001
2364.00,0.0001
2363.00,0.0001
2362.00,0.0002
2361.00,0.0003
2360.00,0.0003
2359.00,0.0004
2358.00,0.0004
2357.00,0.0004
2356.00,0.0004
2355.00,0.0004
2354.00,0.0004
2353.00,0.0003
2352.00,0.0003
2351.00,0.0003
2350.00,0.0003
2349.00,0.0004
2348.00,0.0004
2347.00,0.0003
2346.00,0.0003
2345.00,0.0003
2344.00,0.0004
2343.00,0.0005
2342.00,0.0006
2341.00,0.0006
2340.00,0.0006
2339.00,0.0007
2338.00,0.0007
2337.00,0.0006
2336.00,0.0006
2335.00,0.0006
2334.00,0.0006
2333.00,0.0006
2332.00,0.0006
2331.00,0.0006
2330.00,0.0007
2329.00,0.0008
2328.00,0.0010
2327.00,0.0013
2326.00,0.0017
2325.00,0.0020
2324.00,0.0022
2323.00,0.0021
2322.00,0.0018
2321.00,0.0016
2320.00,0.0014
2319.00,0.0013
2318.00,0.0013
2317.00,0.0013
2316.00,0.0012
2315.00,0.0010
2314.00,0.0009
2313.00,0.0009
2312.00,0.0009
2311.00,0.0010
2310.00,0.0010
2309.00,0.0009
2308.00,0.0009
2307.00,0.0009
2306.00,0.0009
2305.00,0.0009
2304.00,0.0009
2303.00,0.0009
2302.00,0.0010
2301.00,0.0010
2300.00,0.0011
2299.00,0.0011
2298.00,0.0012
2297.00,0.0013
2296.00,0.0013
2295.00,0.0014
2294.00,0.0015
2293.00,0.0015
2292.00,0.0016
2291.00,0.0016
2290.00,0.0016
2289.00,0.0016
2288.00,0.0017
2287.00,0.0017
2286.00,0.0018
2285.00,0.0018
2284.00,0.0017
2283.00,0.0017
2282.00,0.0015
2281.00,0.0014
2280.00,0.0013
2279.00,0.0012
2278.00,0.0012
2277.00,0.0012
2276.00,0.0013
2275.00,0.0014
2274.00,0.0014
2273.00,0.0015
2272.00,0.0015
2271.00,0.0015
2270.00,0.0014
2269.00,0.0015
2268.00,0.0015
2267.00,0.0015
2266.00,0.0014
2265.00,0.0013
2264.00,0.0013
2263.00,0.0012
2262.00,0.0011
2261.00,0.0010
2260.00,0.0009
2259.00,0.0008
2258.00,0.0008
2257.00,0.0008
2256.00,0.0008
2255.00,0.0007
2254.00,0.0007
2253.00,0.0007
2252.00,0.0007
2251.00,0.0008
2250.00,0.0008
2249.00,0.0008
2248.00,0.0008
2247.00,0.0008
2246.00,0.0008
2245.00,0.0008
2244.00,0.0007
2243.00,0.0007
2242.00,0.0007
2241.00,0.0008
2240.00,0.0008
2239.00,0.0009
2238.00,0.0008
2237.00,0.0008
2236.00,0.0008
2235.00,0.0009
2234.00,0.0009
2233.00,0.0009
2232.00,0.0008
2231.00,0.0007
2230.00,0.0006
2229.00,0.0006
2228.00,0.0007
2227.00,0.0007
2226.00,0.0008
2225.00,0.0008
2224.00,0.0007
2223.00,0.0006
2222.00,0.0005
2221.00,0.0006
2220.00,0.0007
2219.00,0.0009
2218.00,0.0009
2217.00,0.0009
2216.00,0.0007
2215.00,0.0005
2214.00,0.0004
2213.00,0.0004
2212.00,0.0006
2211.00,0.0006
2210.00,0.0007
2209.00,0.0007
2208.00,0.0008
2207.00,0.0007
2206.00,0.0006
2205.00,0.0005
2204.00,0.0004
2203.00,0.0005
2202.00,0.0006
2201.00,0.0008
2200.00,0.0011
2199.00,0.0012
2198.00,0.0012
2197.00,0.0012
2196.00,0.0011
2195.00,0.0011
2194.00,0.0010
2193.00,0.0009
2192.00,0.0006
2191.00,0.0003
2190.00,0.0002
2189.00,0.0004
2188.00,0.0006
2187.00,0.0008
2186.00,0.0010
2185.00,0.0010
2184.00,0.0009
2183.00,0.0007
2182.00,0.0005
2181.00,0.0003
2180.00,0.0004
2179.00,0.0005
2178.00,0.0005
2177.00,0.0006
2176.00,0.0004
2175.00,0.0002
2174.00,-0.0001
2173.00,-0.0001
2172.00,0.0001
2171.00,0.0005
2170.00,0.0009
2169.00,0.0012
2168.00,0.0013
2167.00,0.0013
2166.00,0.0013
2165.00,0.0015
2164.00,0.0018
2163.00,0.0021
2162.00,0.0021
2161.00,0.0014
2160.00,-0.0000
2159.00,-0.0017
2158.00,-0.0028
2157.00,-0.0032
2156.00,-0.0030
2155.00,-0.0026
2154.00,-0.0023
2153.00,-0.0019
2152.00,-0.0017
2151.00,-0.0016
2150.00,-0.0016
2149.00,-0.0017
2148.00,-0.0017
2147.00,-0.0017
2146.00,-0.0017
2145.00,-0.0018
2144.00,-0.0018
2143.00,-0.0017
2142.00,-0.0015
2141.00,-0.0013
2140.00,-0.0012
2139.00,-0.0011
2138.00,-0.0011
2137.00,-0.0012
2136.00,-0.0014
2135.00,-0.0017
2134.00,-0.0018
2133.00,-0.0018
2132.00,-0.0017
2131.00,-0.0015
2130.00,-0.0013
2129.00,-0.0013
2128.00,-0.0012
2127.00,-0.0011
2126.00,-0.0010
2125.00,-0.0008
2124.00,-0.0007
2123.00,-0.0006
2122.00,-0.0006
2121.00,-0.0006
2120.00,-0.0005
2119.00,-0.0003
2118.00,-0.0001
2117.00,0.0000
2116.00,0.0001
2115.00,0.0002
2114.00,0.0003
2113.00,0.0003
2112.00,0.0003
2111.00,0.0003
2110.00,0.0002
2109.00,0.0002
2108.00,0.0002
2107.00,0.0003
2106.00,0.0003
2105.00,0.0003
2104.00,0.0004
2103.00,0.0004
2102.00,0.0003
2101.00,0.0003
2100.00,0.0003
2099.00,0.0001
2098.00,-0.0001
2097.00,-0.0003
2096.00,-0.0005
2095.00,-0.0006
2094.00,-0.0006
2093.00,-0.0005
2092.00,-0.0003
2091.00,-0.0001
2090.00,-0.0000
2089.00,0.0001
2088.00,0.0002
2087.00,0.0003
2086.00,0.0004
2085.00,0.0003
2084.00,0.0003
2083.00,0.0002
2082.00,0.0002
2081.00,0.0002
2080.00,0.0003
2079.00,0.0003
2078.00,0.0004
2077.00,0.0004
2076.00,0.0003
2075.00,0.0002
2074.00,0.0001
2073.00,-0.0000
2072.00,-0.0000
2071.00,-0.0001
2070.00,-0.0001
2069.00,-0.0001
2068.00,-0.0000
2067.00,0.0000
2066.00,-0.0000
2065.00,-0.0000
2064.00,0.0000
2063.00,0.0002
2062.00,0.0002
2061.00,0.0002
2060.00,-0.0000
2059.00,-0.0002
2058.00,-0.0002
2057.00,-0.0001
2056.00,0.0000
2055.00,0.0001
2054.00,0.0003
2053.00,0.0006
2052.00,0.0010
2051.00,0.0011
2050.00,0.0011
2049.00,0.0009
2048.00,0.0006
2047.00,0.0004
2046.00,0.0002
2045.00,-0.0000
2044.00,-0.0002
2043.00,-0.0001
2042.00,0.0003
2041.00,0.0007
2040.00,0.0011
2039.00,0.0012
2038.00,0.0010
2037.00,0.0005
2036.00,-0.0000
2035.00,-0.0005
2034.00,-0.0007
2033.00,-0.0007
2032.00,-0.0007
2031.00,-0.0008
2030.00,-0.0011
2029.00,-0.0014
2028.00,-0.0017
2027.00,-0.0019
2026.00,-0.0020
2025.00,-0.0021
2024.00,-0.0019
2023.00,-0.0017
2022.00,-0.0015
2021.00,-0.0014
2020.00,-0.0015
2019.00,-0.0017
2018.00,-0.0018
2017.00,-0.0017
2016.00,-0.0015
2015.00,-0.0012
2014.00,-0.0011
2013.00,-0.0010
2012.00,-0.0010
2011.00,-0.0011
2010.00,-0.0012
2009.00,-0.0012
2008.00,-0.0014
2007.00,-0.0017
2006.00,-0.0019
2005.00,-0.0020
2004.00,-0.0018
2003.00,-0.0015
2002.00,-0.0012
2001.00,-0.0011
2000.00,-0.0010
1999.00,-0.0009
1998.00,-0.0009
1997.00,-0.0008
1996.00,-0.0008
1995.00,-0.0007
1994.00,-0.0006
1993.00,-0.0004
1992.00,-0.0004
1991.00,-0.0004
1990.00,-0.0004
1989.00,-0.0004
1988.00,-0.0003
1987.00,-0.0003
1986.00,-0.0002
1985.00,-0.0001
1984.00,0.0002
1983.00,0.0004
1982.00,0.0006
1981.00,0.0006
1980.00,0.0005
1979.00,0.0001
1978.00,-0.0004
1977.00,-0.0009
1976.00,-0.0011
1975.00,-0.0012
1974.00,-0.0014
1973.00,-0.0015
1972.00,-0.0015
1971.00,-0.0014
1970.00,-0.0013
1969.00,-0.0013
1968.00,-0.0013
1967.00,-0.0015
1966.00,-0.0016
1965.00,-0.0016
1964.00,-0.0014
1963.00,-0.0012
1962.00,-0.0011
1961.00,-0.0012
1960.00,-0.0013
1959.00,-0.0016
1958.00,-0.0018
1957.00,-0.0020
1956.00,-0.0020
1955.00,-0.0020
1954.00,-0.0020
1953.00,-0.0019
1952.00,-0.0017
1951.00,-0.0015
1950.00,-0.0013
1949.00,-0.0012
1948.00,-0.0010
1947.00,-0.0010
1946.00,-0.0010
1945.00,-0.0010
1944.00,-0.0012
1943.00,-0.0013
1942.00,-0.0014
1941.00,-0.0013
1940.00,-0.0012
1939.00,-0.0011
1938.00,-0.0010
1937.00,-0.0010
1936.00,-0.0010
1935.00,-0.0009
1934.00,-0.0009
1933.00,-0.0008
1932.00,-0.0008
1931.00,-0.0008
1930.00,-0.0008
1929.00,-0.0007
1928.00,-0.0007
1927.00,-0.0007
1926.00,-0.0007
1925.00,-0.0007
1924.00,-0.0006
1923.00,-0.0006
1922.00,-0.0005
1921.00,-0.0005
1920.00,-0.0004
1919.00,-0.0004
1918.00,-0.0004
1917.00,-0.0003
1916.00,-0.0003
1915.00,-0.0003
1914.00,-0.0003
1913.00,-0.0003
1912.00,-0.0003
1911.00,-0.0002
1910.00,-0.0002
1909.00,-0.0002
1908.00,-0.0002
1907.00,-0.0002
1906.00,-0.0003
1905.00,-0.0004
1904.00,-0.0004
1903.00,-0.0003
1902.00,-0.0002
1901.00,-0.0002
1900.00,-0.0002
1899.00,-0.0002
1898.00,-0.0002
1897.00,-0.0002
1896.00,-0.0002
1895.00,-0.0003
1894.00,-0.0003
1893.00,-0.0003
1892.00,-0.0003
1891.00,-0.0002
1890.00,-0.0002
1889.00,-0.0001
1888.00,0.0000
1887.00,0.0000
1886.00,-0.0000
1885.00,-0.0000
1884.00,0.0000
1883.00,0.0001
1882.00,0.0001
1881.00,0.0001
1880.00,0.0000
1879.00,-0.0000
1878.00,-0.0000
1877.00,-0.0000
1876.00,-0.0000
1875.00,-0.0001
1874.00,-0.0001
1873.00,-0.0001
1872.00,-0.0001
1871.00,0.0000
1870.00,0.0001
1869.00,0.0002
1868.00,0.0002
1867.00,0.0002
1866.00,0.0001
1865.00,0.0000
1864.00,0.0000
1863.00,0.0000
1862.00,0.0000
1861.00,0.0000
1860.00,0.0000
1859.00,0.0001
1858.00,0.0001
1857.00,0.0002
1856.00,0.0002
1855.00,0.0002
1854.00,0.0001
1853.00,0.0000
1852.00,0.0000
1851.00,0.0001
1850.00,0.0002
1849.00,0.0002
1848.00,0.0003
1847.00,0.0003
1846.00,0.0002
1845.00,0.0002
1844.00,0.0002
1843.00,0.0002
1842.00,0.0001
1841.00,0.0001
1840.00,0.0002
1839.00,0.0002
1838.00,0.0002
1837.00,0.0002
1836.00,0.0003
1835.00,0.0003
1834.00,0.0003
1833.00,0.0003
1832.00,0.0003
1831.00,0.0003
1830.00,0.0003
1829.00,0.0003
1828.00,0.0003
1827.00,0.0003
1826.00,0.0003
1825.00,0.0003
1824.00,0.0003
1823.00,0.0003
1822.00,0.0003
1821.00,0.0003
1820.00,0.0003
1819.00,0.0002
1818.00,0.0001
1817.00,0.0001
1816.00,0.0001
1815.00,0.0001
1814.00,0.0001
1813.00,0.0001
1812.00,0.0001
1811.00,0.0001
1810.00,0.0002
1809.00,0.0002
1808.00,0.0003
1807.00,0.0003
1806.00,0.0004
1805.00,0.0004
1804.00,0.0004
1803.00,0.0004
1802.00,0.0004
1801.00,0.0005
1800.00,0.0005
1799.00,0.0006
1798.00,0.0007
1797.00,0.0007
1796.00,0.0007
1795.00,0.0006
1794.00,0.0006
1793.00,0.0006
1792.00,0.0006
1791.00,0.0007
1790.00,0.0008
1789.00,0.0008
1788.00,0.0009
1787.00,0.0009
1786.00,0.0009
1785.00,0.0008
1784.00,0.0008
1783.00,0.0007
1782.00,0.0007
1781.00,0.0007
1780.00,0.0007
1779.00,0.0007
1778.00,0.0008
1777.00,0.0008
1776.00,0.0008
1775.00,0.0008
1774.00,0.0008
1773.00,0.0009
1772.00,0.0009
1771.00,0.0010
1770.00,0.0010
1769.00,0.0010
1768.00,0.0010
1767.00,0.0010
1766.00,0.0009
1765.00,0.0009
1764.00,0.0009
1763.00,0.0010
1762.00,0.0010
1761.00,0.0011
1760.00,0.0012
1759.00,0.0012
1758.00,0.0012
1757.00,0.0013
1756.00,0.0013
1755.00,0.0013
1754.00,0.0014
1753.00,0.0014
1752.00,0.0016
1751.00,0.0017
1750.00,0.0017
1749.00,0.0018
1748.00,0.0019
1747.00,0.0019
1746.00,0.0020
1745.00,0.0020
1744.00,0.0020
1743.00,0.0021
1742.00,0.0021
1741.00,0.0022
1740.00,0.0022
1739.00,0.0023
1738.00,0.0023
1737.00,0.0023
1736.00,0.0023
1735.00,0.0023
1734.00,0.0023
1733.00,0.0023
1732.00,0.0023
1731.00,0.0023
1730.00,0.0023
1729.00,0.0024
1728.00,0.0024
1727.00,0.0024
1726.00,0.0024
1725.00,0.0024
1724.00,0.0025
1723.00,0.0025
1722.00,0.0026
1721.00,0.0025
1720.00,0.0025
1719.00,0.0024
1718.00,0.0023
1717.00,0.0022
1716.00,0.0022
1715.00,0.0022
1714.00,0.0022
1713.00,0.0023
1712.00,0.0023
1711.00,0.0023
1710.00,0.0023
1709.00,0.0023
1708.00,0.0023
1707.00,0.0024
1706.00,0.0024
1705.00,0.0024
1704.00,0.0024
1703.00,0.0025
1702.00,0.0026
1701.00,0.0026
1700.00,0.0027
1699.00,0.0027
1698.00,0.0027
1697.00,0.0027
1696.00,0.0028
1695.00,0.0028
1694.00,0.0029
1693.00,0.0029
1692.00,0.0029
1691.00,0.0030
1690.00,0.0030
1689.00,0.0031
1688.00,0.0032
1687.00,0.0032
1686.00,0.0033
1685.00,0.0033
1684.00,0.0033
1683.00,0.0033
1682.00,0.0034
1681.00,0.0035
1680.00,0.0037
1679.00,0.0038
1678.00,0.0038
1677.00,0.0039
1676.00,0.0039
1675.00,0.0039
1674.00,0.0040
1673.00,0.0040
1672.00,0.0041
1671.00,0.0042
1670.00,0.0042
1669.00,0.0043
1668.00,0.0043
1667.00,0.0044
1666.00,0.0044
1665.00,0.0045
1664.00,0.0045
1663.00,0.0046
1662.00,0.0046
1661.00,0.0047
1660.00,0.0047
1659.00,0.0048
1658.00,0.0049
1657.00,0.0049
1656.00,0.0050
1655.00,0.0050
1654.00,0.0051
1653.00,0.0051
1652.00,0.0052
1651.00,0.0053
1650.00,0.0053
1649.00,0.0054
1648.00,0.0055
1647.00,0.0057
1646.00,0.0057
1645.00,0.0057
1644.00,0.0058
1643.00,0.0058
1642.00,0.0059
1641.00,0.0060
1640.00,0.0061
1639.00,0.0062
1638.00,0.0062
1637.00,0.0062
1636.00,0.0062
1635.00,0.0062
1634.00,0.0061
1633.00,0.0061
1632.00,0.0061
1631.00,0.0060
1630.00,0.0060
1629.00,0.0060
1628.00,0.0060
1627.00,0.0059
1626.00,0.0058
1625.00,0.0058
1624.00,0.0057
1623.00,0.0056
1622.00,0.0056
1621.00,0.0056
1620.00,0.0056
1619.00,0.0056
1618.00,0.0056
1617.00,0.0055
1616.00,0.0055
1615.00,0.0056
1614.00,0.0056
1613.00,0.0056
1612.00,0.0056
1611.00,0.0056
1610.00,0.0055
1609.00,0.0055
1608.00,0.0055
1607.00,0.0054
1606.00,0.0054
1605.00,0.0054
1604.00,0.0054
1603.00,0.0054
1602.00,0.0054
1601.00,0.0054
1600.00,0.0054
1599.00,0.0053
1598.00,0.0053
1597.00,0.0053
1596.00,0.0053
1595.00,0.0053
1594.00,0.0053
1593.00,0.0053
1592.00,0.0053
1591.00,0.0053
1590.00,0.0053
1589.00,0.0052
1588.00,0.0052
1587.00,0.0052
1586.00,0.0052
1585.00,0.0051
1584.00,0.0052
1583.00,0.0052
1582.00,0.0052
1581.00,0.0052
1580.00,0.0053
1579.00,0.0053
1578.00,0.0053
1577.00,0.0053
1576.00,0.0054
1575.00,0.0054
1574.00,0.0054
1573.00,0.0055
1572.00,0.0056
1571.00,0.0056
1570.00,0.0056
1569.00,0.0056
1568.00,0.0057
1567.00,0.0057
1566.00,0.0058
1565.00,0.0059
1564.00,0.0060
1563.00,0.0060
1562.00,0.0060
1561.00,0.0060
1560.00,0.0060
1559.00,0.0061
1558.00,0.0061
1557.00,0.0062
1556.00,0.0064
1555.00,0.0065
1554.00,0.0065
1553.00,0.0065
1552.00,0.0066
1551.00,0.0066
1550.00,0.0066
1549.00,0.0066
1548.00,0.0066
1547.00,0.0066
1546.00,0.0065
1545.00,0.0065
1544.00,0.0065
1543.00,0.0064
1542.00,0.0062
1541.00,0.0061
1540.00,0.0059
1539.00,0.0058
1538.00,0.0057
1537.00,0.0056
1536.00,0.0056
1535.00,0.0056
1534.00,0.0055
1533.00,0.0054
1532.00,0.0053
1531.00,0.0053
1530.00,0.0052
1529.00,0.0053
1528.00,0.0053
1527.00,0.0052
1526.00,0.0051
1525.00,0.0050
1524.00,0.0050
1523.00,0.0050
1522.00,0.0050
1521.00,0.0051
1520.00,0.0052
1519.00,0.0052
1518.00,0.0052
1517.00,0.0053
1516.00,0.0054
1515.00,0.0054
1514.00,0.0054
1513.00,0.0055
1512.00,0.0055
1511.00,0.0055
1510.00,0.0056
1509.00,0.0057
1508.00,0.0059
1507.00,0.0060
1506.00,0.0059
1505.00,0.0061
1504.00,0.0063
1503.00,0.0065
1502.00,0.0067
1501.00,0.0069
1500.00,0.0072
1499.00,0.0074
1498.00,0.0076
1497.00,0.0079
1496.00,0.0083
1495.00,0.0085
1494.00,0.0087
1493.00,0.0090
1492.00,0.0094
1491.00,0.0098
1490.00,0.0102
1489.00,0.0108
1488.00,0.0113
1487.00,0.0118
1486.00,0.0123
1485.00,0.0129
1484.00,0.0136
1483.00,0.0142
1482.00,0.0150
1481.00,0.0161
1480.00,0.0173
1479.00,0.0185
1478.00,0.0200
1477.00,0.0221
1476.00,0.0248
1475.00,0.0279
1474.00,0.0321
1473.00,0.0380
1472.00,0.0450
1471.00,0.0518
1470.00,0.0583
1469.00,0.0651
1468.00,0.0726
1467.00,0.0809
1466.00,0.0904
1465.00,0.1007
1464.00,0.1096
1463.00,0.1156
1462.00,0.1192
1461.00,0.1214
1460.00,0.1226
1459.00,0.1230
1458.00,0.1230
1457.00,0.1227
1456.00,0.1218
1455.00,0.1204
1454.00,0.1187
1453.00,0.1163
1452.00,0.1130
1451.00,0.1085
1450.00,0.1027
1449.00,0.0951
1448.00,0.0857
1447.00,0.0761
1446.00,0.0677
1445.00,0.0607
1444.00,0.0548
1443.00,0.0500
1442.00,0.0465
1441.00,0.0442
1440.00,0.0429
1439.00,0.0426
1438.00,0.0431
1437.00,0.0437
1436.00,0.0431
1435.00,0.0408
1434.00,0.0372
1433.00,0.0328
1432.00,0.0281
1431.00,0.0238
1430.00,0.0205
1429.00,0.0181
1428.00,0.0165
1427.00,0.0155
1426.00,0.0148
1425.00,0.0142
1424.00,0.0137
1423.00,0.0133
1422.00,0.0131
1421.00,0.0129
1420.00,0.0127
1419.00,0.0125
1418.00,0.0123
1417.00,0.0120
1416.00,0.0118
1415.00,0.0118
1414.00,0.0118
1413.00,0.0117
1412.00,0.0117
1411.00,0.0116
1410.00,0.0116
1409.00,0.0116
1408.00,0.0115
1407.00,0.0116
1406.00,0.0117
1405.00,0.0118
1404.00,0.0119
1403.00,0.0122
1402.00,0.0124
1401.00,0.0126
1400.00,0.0127
1399.00,0.0131
1398.00,0.0134
1397.00,0.0137
1396.00,0.0141
1395.00,0.0145
1394.00,0.0151
1393.00,0.0157
1392.00,0.0162
1391.00,0.0169
1390.00,0.0180
1389.00,0.0194
1388.00,0.0215
1387.00,0.0247
1386.00,0.0290
1385.00,0.0345
1384.00,0.0424
1383.00,0.0538
1382.00,0.0696
1381.00,0.0906
1380.00,0.1174
1379.00,0.1484
1378.00,0.1787
1377.00,0.2011
1376.00,0.2088
1375.00,0.1980
1374.00,0.1719
1373.00,0.1408
1372.00,0.1128
1371.00,0.0899
1370.00,0.0719
1369.00,0.0582
1368.00,0.0489
1367.00,0.0431
1366.00,0.0401
1365.00,0.0388
1364.00,0.0391
1363.00,0.0407
1362.00,0.0431
1361.00,0.0456
1360.00,0.0476
1359.00,0.0482
1358.00,0.0471
1357.00,0.0444
1356.00,0.0404
1355.00,0.0360
1354.00,0.0318
1353.00,0.0282
1352.00,0.0252
1351.00,0.0228
1350.00,0.0209
1349.00,0.0193
1348.00,0.0180
1347.00,0.0169
1346.00,0.0160
1345.00,0.0152
1344.00,0.0146
1343.00,0.0140
1342.00,0.0135
1341.00,0.0131
1340.00,0.0128
1339.00,0.0125
1338.00,0.0124
1337.00,0.0123
1336.00,0.0124
1335.00,0.0126
1334.00,0.0130
1333.00,0.0135
1332.00,0.0140
1331.00,0.0144
1330.00,0.0146
1329.00,0.0144
1328.00,0.0140
1327.00,0.0134
1326.00,0.0127
1325.00,0.0119
1324.00,0.0113
1323.00,0.0107
1322.00,0.0102
1321.00,0.0099
1320.00,0.0096
1319.00,0.0095
1318.00,0.0094
1317.00,0.0092
1316.00,0.0091
1315.00,0.0091
1314.00,0.0090
1313.00,0.0090
1312.00,0.0091
1311.00,0.0092
1310.00,0.0095
1309.00,0.0099
1308.00,0.0105
1307.00,0.0113
1306.00,0.0121
1305.00,0.0126
1304.00,0.0128
1303.00,0.0127
1302.00,0.0126
1301.00,0.0125
1300.00,0.0126
1299.00,0.0128
1298.00,0.0131
1297.00,0.0133
1296.00,0.0133
1295.00,0.0131
1294.00,0.0127
1293.00,0.0121
1292.00,0.0115
1291.00,0.0109
1290.00,0.0104
1289.00,0.0100
1288.00,0.0097
1287.00,0.0094
1286.00,0.0092
1285.00,0.0090
1284.00,0.0089
1283.00,0.0088
1282.00,0.0087
1281.00,0.0086
1280.00,0.0085
1279.00,0.0085
1278.00,0.0084
1277.00,0.0084
1276.00,0.0085
1275.00,0.0085
1274.00,0.0085
1273.00,0.0086
1272.00,0.0087
1271.00,0.0089
1270.00,0.0090
1269.00,0.0092
1268.00,0.0094
1267.00,0.0096
1266.00,0.0100
1265.00,0.0103
1264.00,0.0106
1263.00,0.0108
1262.00,0.0111
1261.00,0.0113
1260.00,0.0117
1259.00,0.0122
1258.00,0.0127
1257.00,0.0131
1256.00,0.0132
1255.00,0.0130
1254.00,0.0126
1253.00,0.0120
1252.00,0.0115
1251.00,0.0110
1250.00,0.0106
1249.00,0.0102
1248.00,0.0099
1247.00,0.0097
1246.00,0.0095
1245.00,0.0093
1244.00,0.0092
1243.00,0.0091
1242.00,0.0091
1241.00,0.0090
1240.00,0.0089
1239.00,0.0088
1238.00,0.0087
1237.00,0.0086
1236.00,0.0086
1235.00,0.0085
1234.00,0.0085
1233.00,0.0085
1232.00,0.0086
1231.00,0.0086
1230.00,0.0087
1229.00,0.0087
1228.00,0.0087
1227.00,0.0088
1226.00,0.0090
1225.00,0.0092
1224.00,0.0096
1223.00,0.0100
1222.00,0.0104
1221.00,0.0107
1220.00,0.0109
1219.00,0.0109
1218.00,0.0107
1217.00,0.0105
1216.00,0.0102
1215.00,0.0098
1214.00,0.0095
1213.00,0.0092
1212.00,0.0089
1211.00,0.0086
1210.00,0.0083
1209.00,0.0081
1208.00,0.0079
1207.00,0.0078
1206.00,0.0078
1205.00,0.0078
1204.00,0.0077
1203.00,0.0077
1202.00,0.0077
1201.00,0.0077
1200.00,0.0077
1199.00,0.0077
1198.00,0.0077
1197.00,0.0077
1196.00,0.0078
1195.00,0.0078
1194.00,0.0078
1193.00,0.0078
1192.00,0.0078
1191.00,0.0078
1190.00,0.0079
1189.00,0.0079
1188.00,0.0080
1187.00,0.0080
1186.00,0.0081
1185.00,0.0083
1184.00,0.0085
1183.00,0.0087
1182.00,0.0089
1181.00,0.0091
1180.00,0.0094
1179.00,0.0098
1178.00,0.0103
1177.00,0.0109
1176.00,0.0118
1175.00,0.0129
1174.00,0.0143
1173.00,0.0161
1172.00,0.0181
1171.00,0.0203
1170.00,0.0224
1169.00,0.0241
1168.00,0.0252
1167.00,0.0255
1166.00,0.0252
1165.00,0.0244
1164.00,0.0235
1163.00,0.0226
1162.00,0.0218
1161.00,0.0212
1160.00,0.0209
1159.00,0.0208
1158.00,0.0208
1157.00,0.0208
1156.00,0.0208
1155.00,0.0209
1154.00,0.0209
1153.00,0.0208
1152.00,0.0205
1151.00,0.0199
1150.00,0.0192
1149.00,0.0183
1148.00,0.0174
1147.00,0.0165
1146.00,0.0157
1145.00,0.0149
1144.00,0.0142
1143.00,0.0136
1142.00,0.0131
1141.00,0.0126
1140.00,0.0121
1139.00,0.0116
1138.00,0.0112
1137.00,0.0109
1136.00,0.0106
1135.00,0.0104
1134.00,0.0102
1133.00,0.0101
1132.00,0.0100
1131.00,0.0101
1130.00,0.0102
1129.00,0.0103
1128.00,0.0104
1127.00,0.0104
1126.00,0.0103
1125.00,0.0103
1124.00,0.0103
1123.00,0.0104
1122.00,0.0105
1121.00,0.0107
1120.00,0.0108
1119.00,0.0108
1118.00,0.0108
1117.00,0.0108
1116.00,0.0109
1115.00,0.0110
1114.00,0.0112
1113.00,0.0113
1112.00,0.0115
1111.00,0.0118
1110.00,0.0121
1109.00,0.0124
1108.00,0.0129
1107.00,0.0136
1106.00,0.0144
1105.00,0.0151
1104.00,0.0156
1103.00,0.0159
1102.00,0.0159
1101.00,0.0156
1100.00,0.0150
1099.00,0.0142
1098.00,0.0135
1097.00,0.0129
1096.00,0.0125
1095.00,0.0121
1094.00,0.0119
1093.00,0.0117
1092.00,0.0116
1091.00,0.0115
1090.00,0.0113
1089.00,0.0111
1088.00,0.0110
1087.00,0.0109
1086.00,0.0110
1085.00,0.0110
1084.00,0.0111
1083.00,0.0111
1082.00,0.0110
1081.00,0.0108
1080.00,0.0106
1079.00,0.0104
1078.00,0.0103
1077.00,0.0103
1076.00,0.0102
1075.00,0.0102
1074.00,0.0102
1073.00,0.0103
1072.00,0.0103
1071.00,0.0102
1070.00,0.0100
1069.00,0.0099
1068.00,0.0098
1067.00,0.0098
1066.00,0.0098
1065.00,0.0098
1064.00,0.0098
1063.00,0.0098
1062.00,0.0098
1061.00,0.0099
1060.00,0.0100
1059.00,0.0100
1058.00,0.0101
1057.00,0.0101
1056.00,0.0101
1055.00,0.0103
1054.00,0.0104
1053.00,0.0106
1052.00,0.0108
1051.00,0.0111
1050.00,0.0114
1049.00,0.0117
1048.00,0.0121
1047.00,0.0124
1046.00,0.0128
1045.00,0.0130
1044.00,0.0131
1043.00,0.0130
1042.00,0.0129
1041.00,0.0128
1040.00,0.0126
1039.00,0.0125
1038.00,0.0124
1037.00,0.0123
1036.00,0.0122
1035.00,0.0121
1034.00,0.0120
1033.00,0.0120
1032.00,0.0119
1031.00,0.0119
1030.00,0.0119
1029.00,0.0119
1028.00,0.0119
1027.00,0.0120
1026.00,0.0121
1025.00,0.0123
1024.00,0.0125
1023.00,0.0128
1022.00,0.0130
1021.00,0.0132
1020.00,0.0133
1019.00,0.0134
1018.00,0.0134
1017.00,0.0134
1016.00,0.0134
1015.00,0.0133
1014.00,0.0132
1013.00,0.0131
1012.00,0.0129
1011.00,0.0129
1010.00,0.0129
1009.00,0.0129
1008.00,0.0130
1007.00,0.0133
1006.00,0.0137
1005.00,0.0143
1004.00,0.0152
1003.00,0.0166
1002.00,0.0185
1001.00,0.0209
1000.00,0.0233
999.00,0.0252
998.00,0.0260
997.00,0.0253
996.00,0.0235
995.00,0.0209
994.00,0.0184
993.00,0.0161
992.00,0.0143
991.00,0.0130
990.00,0.0120
989.00,0.0114
988.00,0.0110
987.00,0.0109
986.00,0.0109
985.00,0.0111
984.00,0.0115
983.00,0.0121
982.00,0.0130
981.00,0.0143
980.00,0.0161
979.00,0.0185
978.00,0.0213
977.00,0.0246
976.00,0.0279
975.00,0.0308
974.00,0.0328
973.00,0.0331
972.00,0.0318
971.00,0.0290
970.00,0.0256
969.00,0.0222
968.00,0.0194
967.00,0.0171
966.00,0.0155
965.00,0.0143
964.00,0.0134
963.00,0.0127
962.00,0.0122
961.00,0.0117
960.00,0.0113
959.00,0.0111
958.00,0.0110
957.00,0.0110
956.00,0.0110
955.00,0.0108
954.00,0.0105
953.00,0.0104
952.00,0.0103
951.00,0.0102
950.00,0.0101
949.00,0.0101
948.00,0.0101
947.00,0.0101
946.00,0.0102
945.00,0.0105
944.00,0.0108
943.00,0.0112
942.00,0.0117
941.00,0.0119
940.00,0.0118
939.00,0.0114
938.00,0.0108
937.00,0.0101
936.00,0.0095
935.00,0.0089
934.00,0.0085
933.00,0.0082
932.00,0.0079
931.00,0.0076
930.00,0.0073
929.00,0.0071
928.00,0.0069
927.00,0.0069
926.00,0.0069
925.00,0.0069
924.00,0.0069
923.00,0.0069
922.00,0.0069
921.00,0.0069
920.00,0.0067
919.00,0.0066
918.00,0.0066
917.00,0.0066
916.00,0.0067
915.00,0.0068
914.00,0.0070
913.00,0.0071
912.00,0.0072
911.00,0.0074
910.00,0.0075
909.00,0.0077
908.00,0.0081
907.00,0.0087
906.00,0.0096
905.00,0.0109
904.00,0.0125
903.00,0.0145
902.00,0.0166
901.00,0.0185
900.00,0.0197
899.00,0.0198
898.00,0.0188
897.00,0.0169
896.00,0.0146
895.00,0.0125
894.00,0.0108
893.00,0.0096
892.00,0.0089
891.00,0.0085
890.00,0.0083
889.00,0.0081
888.00,0.0079
887.00,0.0077
886.00,0.0076
885.00,0.0075
884.00,0.0074
883.00,0.0073
882.00,0.0073
881.00,0.0072
880.00,0.0073
879.00,0.0073
878.00,0.0074
877.00,0.0074
876.00,0.0074
875.00,0.0075
874.00,0.0075
873.00,0.0076
872.00,0.0076
871.00,0.0077
870.00,0.0077
869.00,0.0078
868.00,0.0077
867.00,0.0077
866.00,0.0078
865.00,0.0079
864.00,0.0080
863.00,0.0081
862.00,0.0081
861.00,0.0082
860.00,0.0083
859.00,0.0083
858.00,0.0083
857.00,0.0084
856.00,0.0085
855.00,0.0086
854.00,0.0088
853.00,0.0090
852.00,0.0092
851.00,0.0095
850.00,0.0098
849.00,0.0103
848.00,0.0109
847.00,0.0117
846.00,0.0130
845.00,0.0149
844.00,0.0176
843.00,0.0207
842.00,0.0230
841.00,0.0237
840.00,0.0221
839.00,0.0192
838.00,0.0162
837.00,0.0138
836.00,0.0123
835.00,0.0115
834.00,0.0110
833.00,0.0105
832.00,0.0101
831.00,0.0098
830.00,0.0096
829.00,0.0096
828.00,0.0097
827.00,0.0097
826.00,0.0098
825.00,0.0098
824.00,0.0099
823.00,0.0101
822.00,0.0103
821.00,0.0105
820.00,0.0108
819.00,0.0111
818.00,0.0116
817.00,0.0122
816.00,0.0131
815.00,0.0144
814.00,0.0162
813.00,0.0184
812.00,0.0209
811.00,0.0233
810.00,0.0250
809.00,0.0256
808.00,0.0251
807.00,0.0234
806.00,0.0213
805.00,0.0190
804.00,0.0171
803.00,0.0155
802.00,0.0143
801.00,0.0134
800.00,0.0127
799.00,0.0121
798.00,0.0115
797.00,0.0110
796.00,0.0105
795.00,0.0100
794.00,0.0096
793.00,0.0093
792.00,0.0090
791.00,0.0088
790.00,0.0086
789.00,0.0084
788.00,0.0083
787.00,0.0081
786.00,0.0078
785.00,0.0076
784.00,0.0073
783.00,0.0071
782.00,0.0069
781.00,0.0069
780.00,0.0068
779.00,0.0068
778.00,0.0068
777.00,0.0067
776.00,0.0066
775.00,0.0065
774.00,0.0065
773.00,0.0067
772.00,0.0068
771.00,0.0069
770.00,0.0070
769.00,0.0070
768.00,0.0070
767.00,0.0070
766.00,0.0069
765.00,0.0067
764.00,0.0066
763.00,0.0066
762.00,0.0067
761.00,0.0067
760.00,0.0069
759.00,0.0070
758.00,0.0071
757.00,0.0072
756.00,0.0074
755.00,0.0075
754.00,0.0076
753.00,0.0077
752.00,0.0078
751.00,0.0080
750.00,0.0082
749.00,0.0084
748.00,0.0085
747.00,0.0086
746.00,0.0087
745.00,0.0088
744.00,0.0090
743.00,0.0093
742.00,0.0097
741.00,0.0100
740.00,0.0104
739.00,0.0109
738.00,0.0113
737.00,0.0117
736.00,0.0119
735.00,0.0122
734.00,0.0127
733.00,0.0133
732.00,0.0141
731.00,0.0149
730.00,0.0155
729.00,0.0159
728.00,0.0160
727.00,0.0160
726.00,0.0162
725.00,0.0166
724.00,0.0171
723.00,0.0176
722.00,0.0180
721.00,0.0183
720.00,0.0181
719.00,0.0173
718.00,0.0160
717.00,0.0146
716.00,0.0135
715.00,0.0127
714.00,0.0122
713.00,0.0118
712.00,0.0114
711.00,0.0111
710.00,0.0109
709.00,0.0109
708.00,0.0110
707.00,0.0109
706.00,0.0109
705.00,0.0108
704.00,0.0106
703.00,0.0105
702.00,0.0103
701.00,0.0102
700.00,0.0102
699.00,0.0102
698.00,0.0102
697.00,0.0102
696.00,0.0102
695.00,0.0102
694.00,0.0102
693.00,0.0100
692.00,0.0099
691.00,0.0097
690.00,0.0096
689.00,0.0096
688.00,0.0097
687.00,0.0098
686.00,0.0098
685.00,0.0097
684.00,0.0096
683.00,0.0094
682.00,0.0094
681.00,0.0095
680.00,0.0095
679.00,0.0096
678.00,0.0097
677.00,0.0099
676.00,0.0100
675.00,0.0100
674.00,0.0102
673.00,0.0104
672.00,0.0107
671.00,0.0109
670.00,0.0109
669.00,0.0107
668.00,0.0104
667.00,0.0100
666.00,0.0098
665.00,0.0097
664.00,0.0097
663.00,0.0097
662.00,0.0096
661.00,0.0094
660.00,0.0092
659.00,0.0091
658.00,0.0090
657.00,0.0091
656.00,0.0092
655.00,0.0092
654.00,0.0092
653.00,0.0090
652.00,0.0089
651.00,0.0087
650.00,0.0086
649.00,0.0085
648.00,0.0085
647.00,0.0086
646.00,0.0087
645.00,0.0087
644.00,0.0086
643.00,0.0085
642.00,0.0085
641.00,0.0084
640.00,0.0084
639.00,0.0083
638.00,0.0082
637.00,0.0082
636.00,0.0080
635.00,0.0080
634.00,0.0081
633.00,0.0086
632.00,0.0090
631.00,0.0092
630.00,0.0090
629.00,0.0087
628.00,0.0085
627.00,0.0085
626.00,0.0087
625.00,0.0088
624.00,0.0088
623.00,0.0088
622.00,0.0089
621.00,0.0090
620.00,0.0091
619.00,0.0090
618.00,0.0087
617.00,0.0084
616.00,0.0082
615.00,0.0082
614.00,0.0084
613.00,0.0085
612.00,0.0086
611.00,0.0085
610.00,0.0084
609.00,0.0085
608.00,0.0087
607.00,0.0090
606.00,0.0090
605.00,0.0089
604.00,0.0087
603.00,0.0086
602.00,0.0085
601.00,0.0083
600.00,0.0081
599.00,0.0081
598.00,0.0081
597.00,0.0083
596.00,0.0083
595.00,0.0083
594.00,0.0082
593.00,0.0082
592.00,0.0082
591.00,0.0081
590.00,0.0081
589.00,0.0079
588.00,0.0076
587.00,0.0074
586.00,0.0073
585.00,0.0075
584.00,0.0080
583.00,0.0083
582.00,0.0085
581.00,0.0085
580.00,0.0085
579.00,0.0084
578.00,0.0084
577.00,0.0084
576.00,0.0084
575.00,0.0083
574.00,0.0080
573.00,0.0077
572.00,0.0076
571.00,0.0077
570.00,0.0081
569.00,0.0083
568.00,0.0083
567.00,0.0081
566.00,0.0079
565.00,0.0077
564.00,0.0077
563.00,0.0079
562.00,0.0082
561.00,0.0087
560.00,0.0090
559.00,0.0092
558.00,0.0092
557.00,0.0090
556.00,0.0089
555.00,0.0087
554.00,0.0085
553.00,0.0082
552.00,0.0079
551.00,0.0080
550.00,0.0082
549.00,0.0086
548.00,0.0089
547.00,0.0091
546.00,0.0095
545.00,0.0098
544.00,0.0101
543.00,0.0102
542.00,0.0102
541.00,0.0102
540.00,0.0102
539.00,0.0103
538.00,0.0103
537.00,0.0103
536.00,0.0106
535.00,0.0111
534.00,0.0118
533.00,0.0123
532.00,0.0125
531.00,0.0127
530.00,0.0131
529.00,0.0134
528.00,0.0135
527.00,0.0132
526.00,0.0126
525.00,0.0120
524.00,0.0117
523.00,0.0115
522.00,0.0111
521.00,0.0105
520.00,0.0097
519.00,0.0089
518.00,0.0084
517.00,0.0080
516.00,0.0077
515.00,0.0074
514.00,0.0074
513.00,0.0076
512.00,0.0079
511.00,0.0083
510.00,0.0084
509.00,0.0084
508.00,0.0086
507.00,0.0091
506.00,0.0097
505.00,0.0102
504.00,0.0101
503.00,0.0098
502.00,0.0092
501.00,0.0087
500.00,0.0082
499.00,0.0079
498.00,0.0078
497.00,0.0078
496.00,0.0079
495.00,0.0079
494.00,0.0078
493.00,0.0076
492.00,0.0078
491.00,0.0087
490.00,0.0098
489.00,0.0103
488.00,0.0097
487.00,0.0084
486.00,0.0073
485.00,0.0072
484.00,0.0079
483.00,0.0089
482.00,0.0100
481.00,0.0107
480.00,0.0111
479.00,0.0112
478.00,0.0110
477.00,0.0109
476.00,0.0111
475.00,0.0117
474.00,0.0129
473.00,0.0144
472.00,0.0156
471.00,0.0160
470.00,0.0160
469.00,0.0160
468.00,0.0162
467.00,0.0165
466.00,0.0168
465.00,0.0170
464.00,0.0173
463.00,0.0176
462.00,0.0183
461.00,0.0192
460.00,0.0200
459.00,0.0202
458.00,0.0196
457.00,0.0184
456.00,0.0172
455.00,0.0166
454.00,0.0165
453.00,0.0170
452.00,0.0174
451.00,0.0174
450.00,0.0168
