Created as New Dataset,Sample 013 By Administrator Date Thursday, September 04 2025
cm-1,A
4000.00,0.0010
3999.00,0.0011
3998.00,0.0011
3997.00,0.0011
3996.00,0.0011
3995.00,0.0011
3994.00,0.0010
3993.00,0.0010
3992.00,0.0010
3991.00,0.0010
3990.00,0.0010
3989.00,0.0010
3988.00,0.0009
3987.00,0.0009
3986.00,0.0009
3985.00,0.0009
3984.00,0.0009
3983.00,0.0009
3982.00,0.0009
3981.00,0.0008
3980.00,0.0008
3979.00,0.0008
3978.00,0.0009
3977.00,0.0009
3976.00,0.0009
3975.00,0.0010
3974.00,0.0010
3973.00,0.0010
3972.00,0.0010
3971.00,0.0009
3970.00,0.0009
3969.00,0.0009
3968.00,0.0009
3967.00,0.0009
3966.00,0.0009
3965.00,0.0009
3964.00,0.0009
3963.00,0.0009
3962.00,0.0009
3961.00,0.0009
3960.00,0.0009
3959.00,0.0009
3958.00,0.0008
3957.00,0.0008
3956.00,0.0008
3955.00,0.0008
3954.00,0.0008
3953.00,0.0008
3952.00,0.0008
3951.00,0.0008
3950.00,0.0008
3949.00,0.0008
3948.00,0.0008
3947.00,0.0008
3946.00,0.0008
3945.00,0.0008
3944.00,0.0008
3943.00,0.0008
3942.00,0.0008
3941.00,0.0008
3940.00,0.0008
3939.00,0.0008
3938.00,0.0008
3937.00,0.0008
3936.00,0.0009
3935.00,0.0009
3934.00,0.0009
3933.00,0.0009
3932.00,0.0009
3931.00,0.0009
3930.00,0.0009
3929.00,0.0009
3928.00,0.0009
3927.00,0.0009
3926.00,0.0009
3925.00,0.0009
3924.00,0.0009
3923.00,0.0009
3922.00,0.0009
3921.00,0.0009
3920.00,0.0009
3919.00,0.0009
3918.00,0.0010
3917.00,0.0010
3916.00,0.0009
3915.00,0.0009
3914.00,0.0009
3913.00,0.0009
3912.00,0.0008
3911.00,0.0008
3910.00,0.0008
3909.00,0.0008
3908.00,0.0008
3907.00,0.0008
3906.00,0.0008
3905.00,0.0008
3904.00,0.0007
3903.00,0.0007
3902.00,0.0007
3901.00,0.0007
3900.00,0.0007
3899.00,0.0007
3898.00,0.0007
3897.00,0.0007
3896.00,0.0008
3895.00,0.0008
3894.00,0.0008
3893.00,0.0008
3892.00,0.0008
3891.00,0.0008
3890.00,0.0007
3889.00,0.0007
3888.00,0.0007
3887.00,0.0007
3886.00,0.0007
3885.00,0.0008
3884.00,0.0007
3883.00,0.0007
3882.00,0.0007
3881.00,0.0007
3880.00,0.0008
3879.00,0.0008
3878.00,0.0008
3877.00,0.0007
3876.00,0.0008
3875.00,0.0008
3874.00,0.0008
3873.00,0.0008
3872.00,0.0007
3871.00,0.0007
3870.00,0.0007
3869.00,0.0007
3868.00,0.0007
3867.00,0.0007
3866.00,0.0007
3865.00,0.0008
3864.00,0.0008
3863.00,0.0007
3862.00,0.0007
3861.00,0.0007
3860.00,0.0007
3859.00,0.0007
3858.00,0.0007
3857.00,0.0006
3856.00,0.0006
3855.00,0.0006
3854.00,0.0007
3853.00,0.0006
3852.00,0.0006
3851.00,0.0006
3850.00,0.0006
3849.00,0.0006
3848.00,0.0007
3847.00,0.0007
3846.00,0.0007
3845.00,0.0008
3844.00,0.0008
3843.00,0.0007
3842.00,0.0007
3841.00,0.0007
3840.00,0.0007
3839.00,0.0007
3838.00,0.0007
3837.00,0.0007
3836.00,0.0007
3835.00,0.0007
3834.00,0.0008
3833.00,0.0008
3832.00,0.0008
3831.00,0.0008
3830.00,0.0008
3829.00,0.0008
3828.00,0.0008
3827.00,0.0008
3826.00,0.0008
3825.00,0.0007
3824.00,0.0007
3823.00,0.0007
3822.00,0.0006
3821.00,0.0006
3820.00,0.0006
3819.00,0.0006
3818.00,0.0006
3817.00,0.0006
3816.00,0.0007
3815.00,0.0007
3814.00,0.0008
3813.00,0.0008
3812.00,0.0008
3811.00,0.0008
3810.00,0.0008
3809.00,0.0007
3808.00,0.0007
3807.00,0.0007
3806.00,0.0007
3805.00,0.0007
3804.00,0.0006
3803.00,0.0006
3802.00,0.0006
3801.00,0.0006
3800.00,0.0006
3799.00,0.0006
3798.00,0.0007
3797.00,0.0007
3796.00,0.0007
3795.00,0.0007
3794.00,0.0007
3793.00,0.0008
3792.00,0.0008
3791.00,0.0008
3790.00,0.0008
3789.00,0.0008
3788.00,0.0008
3787.00,0.0007
3786.00,0.0007
3785.00,0.0007
3784.00,0.0007
3783.00,0.0007
3782.00,0.0007
3781.00,0.0007
3780.00,0.0007
3779.00,0.0007
3778.00,0.0007
3777.00,0.0008
3776.00,0.0008
3775.00,0.0008
3774.00,0.0008
3773.00,0.0008
3772.00,0.0007
3771.00,0.0007
3770.00,0.0007
3769.00,0.0007
3768.00,0.0007
3767.00,0.0007
3766.00,0.0007
3765.00,0.0007
3764.00,0.0007
3763.00,0.0007
3762.00,0.0007
3761.00,0.0008
3760.00,0.0007
3759.00,0.0007
3758.00,0.0007
3757.00,0.0007
3756.00,0.0007
3755.00,0.0007
3754.00,0.0006
3753.00,0.0006
3752.00,0.0005
3751.00,0.0005
3750.00,0.0005
3749.00,0.0005
3748.00,0.0005
3747.00,0.0005
3746.00,0.0005
3745.00,0.0005
3744.00,0.0005
3743.00,0.0005
3742.00,0.0006
3741.00,0.0006
3740.00,0.0006
3739.00,0.0006
3738.00,0.0005
3737.00,0.0005
3736.00,0.0004
3735.00,0.0005
3734.00,0.0005
3733.00,0.0006
3732.00,0.0006
3731.00,0.0006
3730.00,0.0006
3729.00,0.0006
3728.00,0.0006
3727.00,0.0007
3726.00,0.0007
3725.00,0.0007
3724.00,0.0006
3723.00,0.0006
3722.00,0.0006
3721.00,0.0006
3720.00,0.0006
3719.00,0.0006
3718.00,0.0006
3717.00,0.0006
3716.00,0.0006
3715.00,0.0006
3714.00,0.0005
3713.00,0.0005
3712.00,0.0005
3711.00,0.0006
3710.00,0.0006
3709.00,0.0006
3708.00,0.0006
3707.00,0.0006
3706.00,0.0005
3705.00,0.0005
3704.00,0.0005
3703.00,0.0006
3702.00,0.0006
3701.00,0.0007
3700.00,0.0007
3699.00,0.0007
3698.00,0.0007
3697.00,0.0007
3696.00,0.0007
3695.00,0.0007
3694.00,0.0006
3693.00,0.0006
3692.00,0.0006
3691.00,0.0006
3690.00,0.0006
3689.00,0.0006
3688.00,0.0006
3687.00,0.0006
3686.00,0.0006
3685.00,0.0007
3684.00,0.0007
3683.00,0.0008
3682.00,0.0008
3681.00,0.0009
3680.00,0.0010
3679.00,0.0010
3678.00,0.0010
3677.00,0.0011
3676.00,0.0011
3675.00,0.0011
3674.00,0.0011
3673.00,0.0011
3672.00,0.0011
3671.00,0.0011
3670.00,0.0011
3669.00,0.0011
3668.00,0.0011
3667.00,0.0011
3666.00,0.0012
3665.00,0.0012
3664.00,0.0013
3663.00,0.0013
3662.00,0.0014
3661.00,0.0014
3660.00,0.0014
3659.00,0.0013
3658.00,0.0013
3657.00,0.0013
3656.00,0.0013
3655.00,0.0013
3654.00,0.0013
3653.00,0.0012
3652.00,0.0012
3651.00,0.0012
3650.00,0.0012
3649.00,0.0011
3648.00,0.0011
3647.00,0.0011
3646.00,0.0011
3645.00,0.0011
3644.00,0.0011
3643.00,0.0010
3642.00,0.0010
3641.00,0.0010
3640.00,0.0010
3639.00,0.0011
3638.00,0.0011
3637.00,0.0011
3636.00,0.0010
3635.00,0.0009
3634.00,0.0008
3633.00,0.0007
3632.00,0.0007
3631.00,0.0007
3630.00,0.0008
3629.00,0.0008
3628.00,0.0008
3627.00,0.0008
3626.00,0.0007
3625.00,0.0007
3624.00,0.0007
3623.00,0.0007
3622.00,0.0007
3621.00,0.0007
3620.00,0.0007
3619.00,0.0007
3618.00,0.0006
3617.00,0.0006
3616.00,0.0006
3615.00,0.0006
3614.00,0.0006
3613.00,0.0006
3612.00,0.0006
3611.00,0.0006
3610.00,0.0006
3609.00,0.0007
3608.00,0.0007
3607.00,0.0007
3606.00,0.0006
3605.00,0.0006
3604.00,0.0007
3603.00,0.0007
3602.00,0.0007
3601.00,0.0008
3600.00,0.0008
3599.00,0.0008
3598.00,0.0008
3597.00,0.0008
3596.00,0.0008
3595.00,0.0008
3594.00,0.0008
3593.00,0.0007
3592.00,0.0007
3591.00,0.0007
3590.00,0.0007
3589.00,0.0007
3588.00,0.0007
3587.00,0.0007
3586.00,0.0008
3585.00,0.0008
3584.00,0.0008
3583.00,0.0009
3582.00,0.0009
3581.00,0.0009
3580.00,0.0008
3579.00,0.0009
3578.00,0.0009
3577.00,0.0009
3576.00,0.0009
3575.00,0.0009
3574.00,0.0009
3573.00,0.0009
3572.00,0.0009
3571.00,0.0009
3570.00,0.0009
3569.00,0.0009
3568.00,0.0009
3567.00,0.0010
3566.00,0.0010
3565.00,0.0011
3564.00,0.0011
3563.00,0.0011
3562.00,0.0011
3561.00,0.0011
3560.00,0.0011
3559.00,0.0011
3558.00,0.0011
3557.00,0.0011
3556.00,0.0011
3555.00,0.0011
3554.00,0.0011
3553.00,0.0011
3552.00,0.0011
3551.00,0.0011
3550.00,0.0011
3549.00,0.0012
3548.00,0.0012
3547.00,0.0013
3546.00,0.0013
3545.00,0.0014
3544.00,0.0014
3543.00,0.0014
3542.00,0.0014
3541.00,0.0014
3540.00,0.0014
3539.00,0.0014
3538.00,0.0014
3537.00,0.0014
3536.00,0.0015
3535.00,0.0015
3534.00,0.0015
3533.00,0.0015
3532.00,0.0015
3531.00,0.0014
3530.00,0.0014
3529.00,0.0015
3528.00,0.0015
3527.00,0.0016
3526.00,0.0016
3525.00,0.0017
3524.00,0.0017
3523.00,0.0017
3522.00,0.0016
3521.00,0.0016
3520.00,0.0016
3519.00,0.0016
3518.00,0.0016
3517.00,0.0016
3516.00,0.0016
3515.00,0.0016
3514.00,0.0016
3513.00,0.0016
3512.00,0.0016
3511.00,0.0017
3510.00,0.0017
3509.00,0.0017
3508.00,0.0017
3507.00,0.0018
3506.00,0.0018
3505.00,0.0018
3504.00,0.0019
3503.00,0.0019
3502.00,0.0019
3501.00,0.0019
3500.00,0.0019
3499.00,0.0019
3498.00,0.0020
3497.00,0.0020
3496.00,0.0020
3495.00,0.0020
3494.00,0.0020
3493.00,0.0020
3492.00,0.0020
3491.00,0.0020
3490.00,0.0020
3489.00,0.0020
3488.00,0.0021
3487.00,0.0021
3486.00,0.0021
3485.00,0.0021
3484.00,0.0021
3483.00,0.0021
3482.00,0.0021
3481.00,0.0021
3480.00,0.0021
3479.00,0.0021
3478.00,0.0021
3477.00,0.0022
3476.00,0.0022
3475.00,0.0023
3474.00,0.0023
3473.00,0.0022
3472.00,0.0022
3471.00,0.0022
3470.00,0.0022
3469.00,0.0022
3468.00,0.0023
3467.00,0.0023
3466.00,0.0024
3465.00,0.0024
3464.00,0.0025
3463.00,0.0025
3462.00,0.0025
3461.00,0.0025
3460.00,0.0025
3459.00,0.0026
3458.00,0.0026
3457.00,0.0026
3456.00,0.0025
3455.00,0.0025
3454.00,0.0025
3453.00,0.0026
3452.00,0.0026
3451.00,0.0026
3450.00,0.0026
3449.00,0.0026
3448.00,0.0026
3447.00,0.0026
3446.00,0.0026
3445.00,0.0026
3444.00,0.0026
3443.00,0.0027
3442.00,0.0028
3441.00,0.0028
3440.00,0.0028
3439.00,0.0028
3438.00,0.0028
3437.00,0.0028
3436.00,0.0028
3435.00,0.0028
3434.00,0.0028
3433.00,0.0028
3432.00,0.0029
3431.00,0.0029
3430.00,0.0029
3429.00,0.0029
3428.00,0.0028
3427.00,0.0028
3426.00,0.0028
3425.00,0.0029
3424.00,0.0029
3423.00,0.0030
3422.00,0.0030
3421.00,0.0030
3420.00,0.0030
3419.00,0.0029
3418.00,0.0029
3417.00,0.0030
3416.00,0.0031
3415.00,0.0031
3414.00,0.0032
3413.00,0.0032
3412.00,0.0032
3411.00,0.0032
3410.00,0.0032
3409.00,0.0032
3408.00,0.0032
3407.00,0.0032
3406.00,0.0032
3405.00,0.0032
3404.00,0.0032
3403.00,0.0032
3402.00,0.0032
3401.00,0.0033
3400.00,0.0033
3399.00,0.0033
3398.00,0.0033
3397.00,0.0033
3396.00,0.0033
3395.00,0.0033
3394.00,0.0033
3393.00,0.0033
3392.00,0.0033
3391.00,0.0032
3390.00,0.0032
3389.00,0.0032
3388.00,0.0032
3387.00,0.0032
3386.00,0.0032
3385.00,0.0033
3384.00,0.0033
3383.00,0.0034
3382.00,0.0034
3381.00,0.0034
3380.00,0.0034
3379.00,0.0034
3378.00,0.0034
3377.00,0.0034
3376.00,0.0034
3375.00,0.0033
3374.00,0.0033
3373.00,0.0034
3372.00,0.0034
3371.00,0.0034
3370.00,0.0034
3369.00,0.0034
3368.00,0.0034
3367.00,0.0034
3366.00,0.0034
3365.00,0.0034
3364.00,0.0034
3363.00,0.0034
3362.00,0.0035
3361.00,0.0035
3360.00,0.0035
3359.00,0.0035
3358.00,0.0035
3357.00,0.0035
3356.00,0.0035
3355.00,0.0035
3354.00,0.0035
3353.00,0.0035
3352.00,0.0035
3351.00,0.0035
3350.00,0.0035
3349.00,0.0035
3348.00,0.0035
3347.00,0.0035
3346.00,0.0035
3345.00,0.0035
3344.00,0.0035
3343.00,0.0035
3342.00,0.0035
3341.00,0.0035
3340.00,0.0035
3339.00,0.0035
3338.00,0.0035
3337.00,0.0034
3336.00,0.0034
3335.00,0.0034
3334.00,0.0033
3333.00,0.0033
3332.00,0.0033
3331.00,0.0034
3330.00,0.0034
3329.00,0.0034
3328.00,0.0034
3327.00,0.0033
3326.00,0.0033
3325.00,0.0033
3324.00,0.0034
3323.00,0.0034
3322.00,0.0034
3321.00,0.0034
3320.00,0.0034
3319.00,0.0034
3318.00,0.0034
3317.00,0.0034
3316.00,0.0033
3315.00,0.0033
3314.00,0.0033
3313.00,0.0034
3312.00,0.0034
3311.00,0.0034
3310.00,0.0034
3309.00,0.0035
3308.00,0.0035
3307.00,0.0035
3306.00,0.0036
3305.00,0.0036
3304.00,0.0036
3303.00,0.0036
3302.00,0.0036
3301.00,0.0036
3300.00,0.0035
3299.00,0.0035
3298.00,0.0035
3297.00,0.0035
3296.00,0.0035
3295.00,0.0034
3294.00,0.0034
3293.00,0.0033
3292.00,0.0033
3291.00,0.0033
3290.00,0.0033
3289.00,0.0033
3288.00,0.0033
3287.00,0.0033
3286.00,0.0033
3285.00,0.0033
3284.00,0.0033
3283.00,0.0032
3282.00,0.0032
3281.00,0.0031
3280.00,0.0031
3279.00,0.0031
3278.00,0.0032
3277.00,0.0032
3276.00,0.0032
3275.00,0.0032
3274.00,0.0032
3273.00,0.0032
3272.00,0.0032
3271.00,0.0031
3270.00,0.0031
3269.00,0.0031
3268.00,0.0031
3267.00,0.0031
3266.00,0.0031
3265.00,0.0031
3264.00,0.0031
3263.00,0.0031
3262.00,0.0030
3261.00,0.0030
3260.00,0.0029
3259.00,0.0029
3258.00,0.0029
3257.00,0.0029
3256.00,0.0029
3255.00,0.0029
3254.00,0.0029
3253.00,0.0029
3252.00,0.0029
3251.00,0.0028
3250.00,0.0029
3249.00,0.0029
3248.00,0.0029
3247.00,0.0028
3246.00,0.0028
3245.00,0.0028
3244.00,0.0029
3243.00,0.0029
3242.00,0.0029
3241.00,0.0029
3240.00,0.0029
3239.00,0.0029
3238.00,0.0029
3237.00,0.0028
3236.00,0.0028
3235.00,0.0028
3234.00,0.0028
3233.00,0.0029
3232.00,0.0029
3231.00,0.0030
3230.00,0.0031
3229.00,0.0031
3228.00,0.0031
3227.00,0.0031
3226.00,0.0031
3225.00,0.0031
3224.00,0.0031
3223.00,0.0030
3222.00,0.0031
3221.00,0.0031
3220.00,0.0031
3219.00,0.0032
3218.00,0.0032
3217.00,0.0032
3216.00,0.0033
3215.00,0.0033
3214.00,0.0034
3213.00,0.0034
3212.00,0.0034
3211.00,0.0035
3210.00,0.0035
3209.00,0.0035
3208.00,0.0035
3207.00,0.0035
3206.00,0.0035
3205.00,0.0035
3204.00,0.0035
3203.00,0.0035
3202.00,0.0035
3201.00,0.0035
3200.00,0.0035
3199.00,0.0035
3198.00,0.0036
3197.00,0.0036
3196.00,0.0036
3195.00,0.0036
3194.00,0.0036
3193.00,0.0036
3192.00,0.0036
3191.00,0.0036
3190.00,0.0036
3189.00,0.0036
3188.00,0.0036
3187.00,0.0036
3186.00,0.0035
3185.00,0.0035
3184.00,0.0035
3183.00,0.0035
3182.00,0.0035
3181.00,0.0035
3180.00,0.0035
3179.00,0.0034
3178.00,0.0034
3177.00,0.0033
3176.00,0.0033
3175.00,0.0033
3174.00,0.0033
3173.00,0.0033
3172.00,0.0033
3171.00,0.0033
3170.00,0.0033
3169.00,0.0033
3168.00,0.0032
3167.00,0.0032
3166.00,0.0032
3165.00,0.0031
3164.00,0.0031
3163.00,0.0031
3162.00,0.0031
3161.00,0.0031
3160.00,0.0031
3159.00,0.0031
3158.00,0.0031
3157.00,0.0031
3156.00,0.0031
3155.00,0.0031
3154.00,0.0032
3153.00,0.0032
3152.00,0.0032
3151.00,0.0032
3150.00,0.0032
3149.00,0.0032
3148.00,0.0031
3147.00,0.0031
3146.00,0.0031
3145.00,0.0031
3144.00,0.0031
3143.00,0.0031
3142.00,0.0032
3141.00,0.0032
3140.00,0.0032
3139.00,0.0032
3138.00,0.0032
3137.00,0.0032
3136.00,0.0031
3135.00,0.0031
3134.00,0.0031
3133.00,0.0030
3132.00,0.0030
3131.00,0.0030
3130.00,0.0029
3129.00,0.0029
3128.00,0.0029
3127.00,0.0029
3126.00,0.0029
3125.00,0.0028
3124.00,0.0028
3123.00,0.0028
3122.00,0.0028
3121.00,0.0027
3120.00,0.0027
3119.00,0.0027
3118.00,0.0027
3117.00,0.0026
3116.00,0.0026
3115.00,0.0026
3114.00,0.0026
3113.00,0.0027
3112.00,0.0027
3111.00,0.0027
3110.00,0.0026
3109.00,0.0026
3108.00,0.0026
3107.00,0.0026
3106.00,0.0026
3105.00,0.0025
3104.00,0.0025
3103.00,0.0025
3102.00,0.0025
3101.00,0.0025
3100.00,0.0025
3099.00,0.0025
3098.00,0.0025
3097.00,0.0025
3096.00,0.0025
3095.00,0.0025
3094.00,0.0024
3093.00,0.0024
3092.00,0.0025
3091.00,0.0025
3090.00,0.0025
3089.00,0.0024
3088.00,0.0024
3087.00,0.0024
3086.00,0.0023
3085.00,0.0023
3084.00,0.0024
3083.00,0.0024
3082.00,0.0024
3081.00,0.0025
3080.00,0.0025
3079.00,0.0025
3078.00,0.0025
3077.00,0.0025
3076.00,0.0025
3075.00,0.0025
3074.00,0.0025
3073.00,0.0025
3072.00,0.0025
3071.00,0.0026
3070.00,0.0026
3069.00,0.0026
3068.00,0.0026
3067.00,0.0026
3066.00,0.0026
3065.00,0.0026
3064.00,0.0026
3063.00,0.0026
3062.00,0.0027
3061.00,0.0027
3060.00,0.0027
3059.00,0.0027
3058.00,0.0027
3057.00,0.0027
3056.00,0.0027
3055.00,0.0028
3054.00,0.0028
3053.00,0.0028
3052.00,0.0028
3051.00,0.0028
3050.00,0.0029
3049.00,0.0029
3048.00,0.0029
3047.00,0.0029
3046.00,0.0029
3045.00,0.0029
3044.00,0.0030
3043.00,0.0030
3042.00,0.0031
3041.00,0.0031
3040.00,0.0032
3039.00,0.0032
3038.00,0.0032
3037.00,0.0032
3036.00,0.0032
3035.00,0.0033
3034.00,0.0033
3033.00,0.0033
3032.00,0.0034
3031.00,0.0034
3030.00,0.0035
3029.00,0.0035
3028.00,0.0036
3027.00,0.0037
3026.00,0.0037
3025.00,0.0038
3024.00,0.0038
3023.00,0.0039
3022.00,0.0040
3021.00,0.0041
3020.00,0.0043
3019.00,0.0044
3018.00,0.0046
3017.00,0.0047
3016.00,0.0049
3015.00,0.0050
3014.00,0.0052
3013.00,0.0055
3012.00,0.0057
3011.00,0.0060
3010.00,0.0064
3009.00,0.0067
3008.00,0.0070
3007.00,0.0073
3006.00,0.0077
3005.00,0.0081
3004.00,0.0085
3003.00,0.0089
3002.00,0.0094
3001.00,0.0099
3000.00,0.0104
2999.00,0.0109
2998.00,0.0114
2997.00,0.0118
2996.00,0.0123
2995.00,0.0128
2994.00,0.0133
2993.00,0.0139
2992.00,0.0145
2991.00,0.0152
2990.00,0.0159
2989.00,0.0168
2988.00,0.0177
2987.00,0.0188
2986.00,0.0202
2985.00,0.0218
2984.00,0.0237
2983.00,0.0258
2982.00,0.0278
2981.00,0.0297
2980.00,0.0315
2979.00,0.0335
2978.00,0.0357
2977.00,0.0384
2976.00,0.0417
2975.00,0.0457
2974.00,0.0503
2973.00,0.0556
2972.00,0.0616
2971.00,0.0683
2970.00,0.0756
2969.00,0.0837
2968.00,0.0927
2967.00,0.1026
2966.00,0.1132
2965.00,0.1245
2964.00,0.1360
2963.00,0.1474
2962.00,0.1580
2961.00,0.1674
2960.00,0.1752
2959.00,0.1812
2958.00,0.1854
2957.00,0.1883
2956.00,0.1903
2955.00,0.1920
2954.00,0.1937
2953.00,0.1953
2952.00,0.1963
2951.00,0.1959
2950.00,0.1934
2949.00,0.1880
2948.00,0.1798
2947.00,0.1692
2946.00,0.1571
2945.00,0.1446
2944.00,0.1330
2943.00,0.1231
2942.00,0.1155
2941.00,0.1103
2940.00,0.1074
2939.00,0.1066
2938.00,0.1078
2937.00,0.1105
2936.00,0.1149
2935.00,0.1206
2934.00,0.1276
2933.00,0.1357
2932.00,0.1447
2931.00,0.1544
2930.00,0.1644
2929.00,0.1746
2928.00,0.1845
2927.00,0.1941
2926.00,0.2031
2925.00,0.2115
2924.00,0.2194
2923.00,0.2269
2922.00,0.2340
2921.00,0.2407
2920.00,0.2463
2919.00,0.2504
2918.00,0.2524
2917.00,0.2517
2916.00,0.2484
2915.00,0.2429
2914.00,0.2359
2913.00,0.2281
2912.00,0.2204
2911.00,0.2133
2910.00,0.2069
2909.00,0.2012
2908.00,0.1959
2907.00,0.1908
2906.00,0.1855
2905.00,0.1799
2904.00,0.1739
2903.00,0.1677
2902.00,0.1612
2901.00,0.1547
2900.00,0.1482
2899.00,0.1420
2898.00,0.1361
2897.00,0.1307
2896.00,0.1258
2895.00,0.1216
2894.00,0.1180
2893.00,0.1149
2892.00,0.1125
2891.00,0.1106
2890.00,0.1093
2889.00,0.1083
2888.00,0.1077
2887.00,0.1074
2886.00,0.1075
2885.00,0.1078
2884.00,0.1086
2883.00,0.1098
2882.00,0.1113
2881.00,0.1130
2880.00,0.1147
2879.00,0.1160
2878.00,0.1168
2877.00,0.1168
2876.00,0.1162
2875.00,0.1153
2874.00,0.1146
2873.00,0.1144
2872.00,0.1148
2871.00,0.1160
2870.00,0.1175
2869.00,0.1189
2868.00,0.1196
2867.00,0.1189
2866.00,0.1164
2865.00,0.1118
2864.00,0.1057
2863.00,0.0987
2862.00,0.0919
2861.00,0.0860
2860.00,0.0815
2859.00,0.0785
2858.00,0.0768
2857.00,0.0764
2856.00,0.0768
2855.00,0.0779
2854.00,0.0795
2853.00,0.0813
2852.00,0.0831
2851.00,0.0846
2850.00,0.0858
2849.00,0.0869
2848.00,0.0880
2847.00,0.0897
2846.00,0.0924
2845.00,0.0962
2844.00,0.1013
2843.00,0.1073
2842.00,0.1137
2841.00,0.1199
2840.00,0.1250
2839.00,0.1281
2838.00,0.1284
2837.00,0.1253
2836.00,0.1189
2835.00,0.1097
2834.00,0.0988
2833.00,0.0873
2832.00,0.0763
2831.00,0.0665
2830.00,0.0582
2829.00,0.0514
2828.00,0.0459
2827.00,0.0414
2826.00,0.0378
2825.00,0.0348
2824.00,0.0323
2823.00,0.0302
2822.00,0.0284
2821.00,0.0269
2820.00,0.0255
2819.00,0.0243
2818.00,0.0233
2817.00,0.0224
2816.00,0.0216
2815.00,0.0208
2814.00,0.0202
2813.00,0.0196
2812.00,0.0190
2811.00,0.0185
2810.00,0.0180
2809.00,0.0175
2808.00,0.0169
2807.00,0.0163
2806.00,0.0157
2805.00,0.0150
2804.00,0.0143
2803.00,0.0138
2802.00,0.0132
2801.00,0.0128
2800.00,0.0124
2799.00,0.0121
2798.00,0.0118
2797.00,0.0116
2796.00,0.0114
2795.00,0.0111
2794.00,0.0109
2793.00,0.0105
2792.00,0.0102
2791.00,0.0098
2790.00,0.0095
2789.00,0.0091
2788.00,0.0088
2787.00,0.0085
2786.00,0.0082
2785.00,0.0079
2784.00,0.0076
2783.00,0.0073
2782.00,0.0071
2781.00,0.0069
2780.00,0.0068
2779.00,0.0066
2778.00,0.0064
2777.00,0.0063
2776.00,0.0061
2775.00,0.0060
2774.00,0.0059
2773.00,0.0058
2772.00,0.0058
2771.00,0.0057
2770.00,0.0058
2769.00,0.0057
2768.00,0.0057
2767.00,0.0056
2766.00,0.0055
2765.00,0.0055
2764.00,0.0054
2763.00,0.0054
2762.00,0.0054
2761.00,0.0053
2760.00,0.0053
2759.00,0.0053
2758.00,0.0053
2757.00,0.0053
2756.00,0.0052
2755.00,0.0052
2754.00,0.0052
2753.00,0.0052
2752.00,0.0051
2751.00,0.0051
2750.00,0.0051
2749.00,0.0051
2748.00,0.0051
2747.00,0.0051
2746.00,0.0052
2745.00,0.0052
2744.00,0.0053
2743.00,0.0054
2742.00,0.0055
2741.00,0.0056
2740.00,0.0057
2739.00,0.0058
2738.00,0.0060
2737.00,0.0061
2736.00,0.0062
2735.00,0.0063
2734.00,0.0065
2733.00,0.0066
2732.00,0.0068
2731.00,0.0070
2730.00,0.0072
2729.00,0.0074
2728.00,0.0076
2727.00,0.0079
2726.00,0.0082
2725.00,0.0084
2724.00,0.0086
2723.00,0.0086
2722.00,0.0086
2721.00,0.0084
2720.00,0.0081
2719.00,0.0078
2718.00,0.0075
2717.00,0.0072
2716.00,0.0069
2715.00,0.0067
2714.00,0.0065
2713.00,0.0062
2712.00,0.0060
2711.00,0.0059
2710.00,0.0057
2709.00,0.0056
2708.00,0.0055
2707.00,0.0053
2706.00,0.0052
2705.00,0.0051
2704.00,0.0050
2703.00,0.0049
2702.00,0.0048
2701.00,0.0048
2700.00,0.0047
2699.00,0.0047
2698.00,0.0046
2697.00,0.0046
2696.00,0.0046
2695.00,0.0046
2694.00,0.0046
2693.00,0.0046
2692.00,0.0046
2691.00,0.0046
2690.00,0.0046
2689.00,0.0046
2688.00,0.0046
2687.00,0.0046
2686.00,0.0046
2685.00,0.0046
2684.00,0.0046
2683.00,0.0046
2682.00,0.0047
2681.00,0.0047
2680.00,0.0047
2679.00,0.0047
2678.00,0.0047
2677.00,0.0047
2676.00,0.0047
2675.00,0.0047
2674.00,0.0046
2673.00,0.0046
2672.00,0.0046
2671.00,0.0046
2670.00,0.0045
2669.00,0.0045
2668.00,0.0045
2667.00,0.0045
2666.00,0.0046
2665.00,0.0046
2664.00,0.0047
2663.00,0.0047
2662.00,0.0048
2661.00,0.0048
2660.00,0.0049
2659.00,0.0049
2658.00,0.0049
2657.00,0.0049
2656.00,0.0049
2655.00,0.0048
2654.00,0.0047
2653.00,0.0046
2652.00,0.0046
2651.00,0.0045
2650.00,0.0045
2649.00,0.0045
2648.00,0.0044
2647.00,0.0043
2646.00,0.0043
2645.00,0.0042
2644.00,0.0042
2643.00,0.0042
2642.00,0.0042
2641.00,0.0042
2640.00,0.0041
2639.00,0.0041
2638.00,0.0040
2637.00,0.0040
2636.00,0.0039
2635.00,0.0039
2634.00,0.0039
2633.00,0.0040
2632.00,0.0040
2631.00,0.0041
2630.00,0.0041
2629.00,0.0041
2628.00,0.0041
2627.00,0.0041
2626.00,0.0040
2625.00,0.0040
2624.00,0.0041
2623.00,0.0041
2622.00,0.0041
2621.00,0.0041
2620.00,0.0041
2619.00,0.0041
2618.00,0.0041
2617.00,0.0041
2616.00,0.0041
2615.00,0.0041
2614.00,0.0040
2613.00,0.0039
2612.00,0.0039
2611.00,0.0038
2610.00,0.0037
2609.00,0.0037
2608.00,0.0036
2607.00,0.0035
2606.00,0.0035
2605.00,0.0034
2604.00,0.0033
2603.00,0.0033
2602.00,0.0032
2601.00,0.0032
2600.00,0.0032
2599.00,0.0032
2598.00,0.0032
2597.00,0.0032
2596.00,0.0032
2595.00,0.0031
2594.00,0.0031
2593.00,0.0032
2592.00,0.0032
2591.00,0.0032
2590.00,0.0033
2589.00,0.0034
2588.00,0.0035
2587.00,0.0036
2586.00,0.0037
2585.00,0.0037
2584.00,0.0037
2583.00,0.0037
2582.00,0.0037
2581.00,0.0037
2580.00,0.0036
2579.00,0.0036
2578.00,0.0036
2577.00,0.0035
2576.00,0.0034
2575.00,0.0033
2574.00,0.0031
2573.00,0.0030
2572.00,0.0029
2571.00,0.0028
2570.00,0.0027
2569.00,0.0026
2568.00,0.0026
2567.00,0.0026
2566.00,0.0025
2565.00,0.0025
2564.00,0.0025
2563.00,0.0024
2562.00,0.0024
2561.00,0.0023
2560.00,0.0023
2559.00,0.0023
2558.00,0.0023
2557.00,0.0023
2556.00,0.0022
2555.00,0.0022
2554.00,0.0022
2553.00,0.0022
2552.00,0.0022
2551.00,0.0021
2550.00,0.0021
2549.00,0.0021
2548.00,0.0020
2547.00,0.0020
2546.00,0.0019
2545.00,0.0018
2544.00,0.0018
2543.00,0.0017
2542.00,0.0017
2541.00,0.0017
2540.00,0.0017
2539.00,0.0017
2538.00,0.0017
2537.00,0.0017
2536.00,0.0018
2535.00,0.0017
2534.00,0.0017
2533.00,0.0017
2532.00,0.0016
2531.00,0.0016
2530.00,0.0016
2529.00,0.0015
2528.00,0.0015
2527.00,0.0014
2526.00,0.0014
2525.00,0.0013
2524.00,0.0013
2523.00,0.0013
2522.00,0.0013
2521.00,0.0013
2520.00,0.0013
2519.00,0.0013
2518.00,0.0012
2517.00,0.0012
2516.00,0.0012
2515.00,0.0012
2514.00,0.0012
2513.00,0.0012
2512.00,0.0012
2511.00,0.0012
2510.00,0.0012
2509.00,0.0011
2508.00,0.0011
2507.00,0.0010
2506.00,0.0010
2505.00,0.0010
2504.00,0.0010
2503.00,0.0010
2502.00,0.0009
2501.00,0.0009
2500.00,0.0010
2499.00,0.0010
2498.00,0.0011
2497.00,0.0011
2496.00,0.0012
2495.00,0.0011
2494.00,0.0010
2493.00,0.0010
2492.00,0.0010
2491.00,0.0010
2490.00,0.0010
2489.00,0.0010
2488.00,0.0010
2487.00,0.0010
2486.00,0.0009
2485.00,0.0009
2484.00,0.0009
2483.00,0.0010
2482.00,0.0010
2481.00,0.0011
2480.00,0.0010
2479.00,0.0010
2478.00,0.0010
2477.00,0.0010
2476.00,0.0010
2475.00,0.0010
2474.00,0.0010
2473.00,0.0010
2472.00,0.0010
2471.00,0.0009
2470.00,0.0009
2469.00,0.0008
2468.00,0.0008
2467.00,0.0008
2466.00,0.0008
2465.00,0.0008
2464.00,0.0009
2463.00,0.0009
2462.00,0.0009
2461.00,0.0009
2460.00,0.0010
2459.00,0.0010
2458.00,0.0011
2457.00,0.0011
2456.00,0.0011
2455.00,0.0011
2454.00,0.0011
2453.00,0.0011
2452.00,0.0011
2451.00,0.0010
2450.00,0.0010
2449.00,0.0010
2448.00,0.0011
2447.00,0.0011
2446.00,0.0011
2445.00,0.0011
2444.00,0.0011
2443.00,0.0011
2442.00,0.0012
2441.00,0.0012
2440.00,0.0012
2439.00,0.0012
2438.00,0.0011
2437.00,0.0011
2436.00,0.0011
2435.00,0.0011
2434.00,0.0011
2433.00,0.0011
2432.00,0.0010
2431.00,0.0010
2430.00,0.0010
2429.00,0.0011
2428.00,0.0012
2427.00,0.0012
2426.00,0.0013
2425.00,0.0013
2424.00,0.0012
2423.00,0.0011
2422.00,0.0011
2421.00,0.0010
2420.00,0.0010
2419.00,0.0011
2418.00,0.0011
2417.00,0.0011
2416.00,0.0011
2415.00,0.0011
2414.00,0.0010
2413.00,0.0010
2412.00,0.0010
2411.00,0.0009
2410.00,0.0009
2409.00,0.0009
2408.00,0.0009
2407.00,0.0009
2406.00,0.0009
2405.00,0.0009
2404.00,0.0009
2403.00,0.0008
2402.00,0.0008
2401.00,0.0008
2400.00,0.0008
2399.00,0.0008
2398.00,0.0008
2397.00,0.0009
2396.00,0.0009
2395.00,0.0010
2394.00,0.0009
2393.00,0.0009
2392.00,0.0008
2391.00,0.0008
2390.00,0.0007
2389.00,0.0007
2388.00,0.0007
2387.00,0.0007
2386.00,0.0007
2385.00,0.0007
2384.00,0.0007
2383.00,0.0007
2382.00,0.0007
2381.00,0.0006
2380.00,0.0006
2379.00,0.0005
2378.00,0.0005
2377.00,0.0005
2376.00,0.0005
2375.00,0.0005
2374.00,0.0005
2373.00,0.0005
2372.00,0.0005
2371.00,0.0006
2370.00,0.0006
2369.00,0.0007
2368.00,0.0007
2367.00,0.0007
2366.00,0.0006
2365.00,0.0005
2364.00,0.0006
2363.00,0.0006
2362.00,0.0007
2361.00,0.0007
2360.00,0.0007
2359.00,0.0007
2358.00,0.0007
2357.00,0.0007
2356.00,0.0008
2355.00,0.0008
2354.00,0.0007
2353.00,0.0007
2352.00,0.0007
2351.00,0.0008
2350.00,0.0008
2349.00,0.0007
2348.00,0.0006
2347.00,0.0005
2346.00,0.0006
2345.00,0.0007
2344.00,0.0009
2343.00,0.0011
2342.00,0.0011
2341.00,0.0010
2340.00,0.0010
2339.00,0.0010
2338.00,0.0010
2337.00,0.0011
2336.00,0.0010
2335.00,0.0009
2334.00,0.0009
2333.00,0.0008
2332.00,0.0008
2331.00,0.0009
2330.00,0.0010
2329.00,0.0012
2328.00,0.0014
2327.00,0.0017
2326.00,0.0021
2325.00,0.0024
2324.00,0.0024
2323.00,0.0022
2322.00,0.0020
2321.00,0.0018
2320.00,0.0017
2319.00,0.0017
2318.00,0.0016
2317.00,0.0015
2316.00,0.0014
2315.00,0.0013
2314.00,0.0012
2313.00,0.0012
2312.00,0.0013
2311.00,0.0014
2310.00,0.0015
2309.00,0.0014
2308.00,0.0014
2307.00,0.0013
2306.00,0.0013
2305.00,0.0013
2304.00,0.0013
2303.00,0.0014
2302.00,0.0014
2301.00,0.0014
2300.00,0.0014
2299.00,0.0014
2298.00,0.0014
2297.00,0.0015
2296.00,0.0016
2295.00,0.0016
2294.00,0.0017
2293.00,0.0017
2292.00,0.0017
2291.00,0.0017
2290.00,0.0017
2289.00,0.0017
2288.00,0.0018
2287.00,0.0018
2286.00,0.0019
2285.00,0.0019
2284.00,0.0018
2283.00,0.0017
2282.00,0.0017
2281.00,0.0016
2280.00,0.0015
2279.00,0.0015
2278.00,0.0016
2277.00,0.0016
2276.00,0.0015
2275.00,0.0015
2274.00,0.0015
2273.00,0.0014
2272.00,0.0014
2271.00,0.0013
2270.00,0.0013
2269.00,0.0013
2268.00,0.0013
2267.00,0.0012
2266.00,0.0011
2265.00,0.0009
2264.00,0.0009
2263.00,0.0009
2262.00,0.0010
2261.00,0.0012
2260.00,0.0013
2259.00,0.0013
2258.00,0.0013
2257.00,0.0013
2256.00,0.0012
2255.00,0.0011
2254.00,0.0011
2253.00,0.0010
2252.00,0.0010
2251.00,0.0010
2250.00,0.0010
2249.00,0.0009
2248.00,0.0007
2247.00,0.0005
2246.00,0.0005
2245.00,0.0006
2244.00,0.0007
2243.00,0.0008
2242.00,0.0008
2241.00,0.0008
2240.00,0.0008
2239.00,0.0008
2238.00,0.0008
2237.00,0.0008
2236.00,0.0009
2235.00,0.0009
2234.00,0.0010
2233.00,0.0011
2232.00,0.0012
2231.00,0.0012
2230.00,0.0011
2229.00,0.0010
2228.00,0.0008
2227.00,0.0008
2226.00,0.0007
2225.00,0.0007
2224.00,0.0007
2223.00,0.0008
2222.00,0.0009
2221.00,0.0010
2220.00,0.0011
2219.00,0.0011
2218.00,0.0011
2217.00,0.0009
2216.00,0.0008
2215.00,0.0006
2214.00,0.0005
2213.00,0.0006
2212.00,0.0007
2211.00,0.0009
2210.00,0.0010
2209.00,0.0010
2208.00,0.0009
2207.00,0.0008
2206.00,0.0008
2205.00,0.0009
2204.00,0.0010
2203.00,0.0011
2202.00,0.0011
2201.00,0.0011
2200.00,0.0011
2199.00,0.0010
2198.00,0.0009
2197.00,0.0008
2196.00,0.0007
2195.00,0.0006
2194.00,0.0006
2193.00,0.0007
2192.00,0.0007
2191.00,0.0006
2190.00,0.0006
2189.00,0.0007
2188.00,0.0009
2187.00,0.0011
2186.00,0.0012
2185.00,0.0011
2184.00,0.0010
2183.00,0.0009
2182.00,0.0007
2181.00,0.0006
2180.00,0.0006
2179.00,0.0008
2178.00,0.0009
2177.00,0.0010
2176.00,0.0009
2175.00,0.0007
2174.00,0.0004
2173.00,0.0003
2172.00,0.0004
2171.00,0.0006
2170.00,0.0009
2169.00,0.0014
2168.00,0.0017
2167.00,0.0019
2166.00,0.0020
2165.00,0.0021
2164.00,0.0023
2163.00,0.0025
2162.00,0.0022
2161.00,0.0014
2160.00,0.0000
2159.00,-0.0015
2158.00,-0.0027
2157.00,-0.0031
2156.00,-0.0029
2155.00,-0.0023
2154.00,-0.0018
2153.00,-0.0015
2152.00,-0.0014
2151.00,-0.0013
2150.00,-0.0012
2149.00,-0.0011
2148.00,-0.0011
2147.00,-0.0011
2146.00,-0.0013
2145.00,-0.0015
2144.00,-0.0016
2143.00,-0.0015
2142.00,-0.0013
2141.00,-0.0011
2140.00,-0.0010
2139.00,-0.0010
2138.00,-0.0010
2137.00,-0.0012
2136.00,-0.0013
2135.00,-0.0015
2134.00,-0.0016
2133.00,-0.0015
2132.00,-0.0012
2131.00,-0.0010
2130.00,-0.0009
2129.00,-0.0008
2128.00,-0.0008
2127.00,-0.0008
2126.00,-0.0007
2125.00,-0.0006
2124.00,-0.0005
2123.00,-0.0004
2122.00,-0.0003
2121.00,-0.0003
2120.00,-0.0003
2119.00,-0.0003
2118.00,-0.0002
2117.00,-0.0002
2116.00,0.0000
2115.00,0.0002
2114.00,0.0003
2113.00,0.0004
2112.00,0.0003
2111.00,0.0003
2110.00,0.0002
2109.00,0.0001
2108.00,0.0001
2107.00,0.0000
2106.00,0.0001
2105.00,0.0001
2104.00,0.0002
2103.00,0.0002
2102.00,0.0001
2101.00,0.0000
2100.00,0.0000
2099.00,0.0001
2098.00,0.0002
2097.00,0.0001
2096.00,-0.0002
2095.00,-0.0004
2094.00,-0.0005
2093.00,-0.0005
2092.00,-0.0004
2091.00,-0.0003
2090.00,-0.0001
2089.00,0.0001
2088.00,0.0003
2087.00,0.0003
2086.00,0.0003
2085.00,0.0002
2084.00,0.0001
2083.00,0.0001
2082.00,0.0001
2081.00,0.0000
2080.00,0.0000
2079.00,0.0001
2078.00,0.0002
2077.00,0.0002
2076.00,0.0002
2075.00,0.0001
2074.00,-0.0000
2073.00,-0.0001
2072.00,-0.0001
2071.00,-0.0000
2070.00,0.0000
2069.00,0.0001
2068.00,0.0001
2067.00,0.0001
2066.00,0.0000
2065.00,-0.0001
2064.00,-0.0000
2063.00,0.0001
2062.00,0.0001
2061.00,0.0002
2060.00,0.0002
2059.00,0.0001
2058.00,0.0000
2057.00,0.0000
2056.00,0.0001
2055.00,0.0002
2054.00,0.0004
2053.00,0.0007
2052.00,0.0011
2051.00,0.0013
2050.00,0.0011
2049.00,0.0008
2048.00,0.0006
2047.00,0.0004
2046.00,0.0001
2045.00,-0.0003
2044.00,-0.0006
2043.00,-0.0006
2042.00,-0.0003
2041.00,0.0001
2040.00,0.0004
2039.00,0.0006
2038.00,0.0006
2037.00,0.0006
2036.00,0.0006
2035.00,0.0005
2034.00,0.0002
2033.00,-0.0000
2032.00,-0.0003
2031.00,-0.0006
2030.00,-0.0010
2029.00,-0.0014
2028.00,-0.0017
2027.00,-0.0017
2026.00,-0.0016
2025.00,-0.0014
2024.00,-0.0011
2023.00,-0.0010
2022.00,-0.0008
2021.00,-0.0007
2020.00,-0.0007
2019.00,-0.0009
2018.00,-0.0012
2017.00,-0.0015
2016.00,-0.0017
2015.00,-0.0016
2014.00,-0.0013
2013.00,-0.0007
2012.00,-0.0002
2011.00,0.0001
2010.00,0.0000
2009.00,-0.0002
2008.00,-0.0006
2007.00,-0.0012
2006.00,-0.0017
2005.00,-0.0019
2004.00,-0.0018
2003.00,-0.0016
2002.00,-0.0014
2001.00,-0.0014
2000.00,-0.0016
1999.00,-0.0017
1998.00,-0.0017
1997.00,-0.0015
1996.00,-0.0012
1995.00,-0.0009
1994.00,-0.0006
1993.00,-0.0002
1992.00,0.0000
1991.00,0.0001
1990.00,-0.0001
1989.00,-0.0003
1988.00,-0.0005
1987.00,-0.0006
1986.00,-0.0007
1985.00,-0.0004
1984.00,-0.0000
1983.00,0.0003
1982.00,0.0006
1981.00,0.0006
1980.00,0.0004
1979.00,-0.0000
1978.00,-0.0006
1977.00,-0.0011
1976.00,-0.0012
1975.00,-0.0013
1974.00,-0.0013
1973.00,-0.0014
1972.00,-0.0015
1971.00,-0.0015
1970.00,-0.0016
1969.00,-0.0017
1968.00,-0.0018
1967.00,-0.0019
1966.00,-0.0018
1965.00,-0.0017
1964.00,-0.0016
1963.00,-0.0016
1962.00,-0.0016
1961.00,-0.0016
1960.00,-0.0016
1959.00,-0.0017
1958.00,-0.0018
1957.00,-0.0018
1956.00,-0.0017
1955.00,-0.0015
1954.00,-0.0014
1953.00,-0.0014
1952.00,-0.0015
1951.00,-0.0017
1950.00,-0.0017
1949.00,-0.0016
1948.00,-0.0013
1947.00,-0.0011
1946.00,-0.0010
1945.00,-0.0011
1944.00,-0.0011
1943.00,-0.0012
1942.00,-0.0011
1941.00,-0.0011
1940.00,-0.0010
1939.00,-0.0010
1938.00,-0.0010
1937.00,-0.0009
1936.00,-0.0008
1935.00,-0.0007
1934.00,-0.0006
1933.00,-0.0005
1932.00,-0.0005
1931.00,-0.0005
1930.00,-0.0006
1929.00,-0.0006
1928.00,-0.0005
1927.00,-0.0004
1926.00,-0.0004
1925.00,-0.0004
1924.00,-0.0004
1923.00,-0.0005
1922.00,-0.0005
1921.00,-0.0005
1920.00,-0.0004
1919.00,-0.0003
1918.00,-0.0003
1917.00,-0.0003
1916.00,-0.0003
1915.00,-0.0003
1914.00,-0.0003
1913.00,-0.0003
1912.00,-0.0003
1911.00,-0.0003
1910.00,-0.0002
1909.00,-0.0003
1908.00,-0.0003
1907.00,-0.0004
1906.00,-0.0004
1905.00,-0.0003
1904.00,-0.0003
1903.00,-0.0002
1902.00,-0.0001
1901.00,-0.0001
1900.00,-0.0001
1899.00,-0.0001
1898.00,-0.0001
1897.00,-0.0001
1896.00,-0.0001
1895.00,-0.0001
1894.00,-0.0001
1893.00,-0.0001
1892.00,-0.0001
1891.00,-0.0000
1890.00,0.0001
1889.00,0.0002
1888.00,0.0002
1887.00,0.0002
1886.00,0.0001
1885.00,0.0001
1884.00,0.0001
1883.00,0.0001
1882.00,0.0002
1881.00,0.0002
1880.00,0.0002
1879.00,0.0001
1878.00,0.0000
1877.00,0.0000
1876.00,0.0000
1875.00,0.0000
1874.00,0.0000
1873.00,-0.0000
1872.00,-0.0000
1871.00,0.0000
1870.00,0.0001
1869.00,0.0001
1868.00,0.0001
1867.00,0.0000
1866.00,-0.0001
1865.00,-0.0001
1864.00,-0.0000
1863.00,0.0000
1862.00,0.0000
1861.00,0.0000
1860.00,0.0000
1859.00,0.0001
1858.00,0.0002
1857.00,0.0002
1856.00,0.0002
1855.00,0.0002
1854.00,0.0001
1853.00,0.0001
1852.00,0.0001
1851.00,0.0001
1850.00,0.0001
1849.00,0.0002
1848.00,0.0002
1847.00,0.0002
1846.00,0.0001
1845.00,0.0001
1844.00,0.0002
1843.00,0.0002
1842.00,0.0002
1841.00,0.0003
1840.00,0.0003
1839.00,0.0003
1838.00,0.0004
1837.00,0.0004
1836.00,0.0004
1835.00,0.0003
1834.00,0.0003
1833.00,0.0003
1832.00,0.0002
1831.00,0.0002
1830.00,0.0003
1829.00,0.0004
1828.00,0.0004
1827.00,0.0004
1826.00,0.0004
1825.00,0.0004
1824.00,0.0005
1823.00,0.0005
1822.00,0.0004
1821.00,0.0004
1820.00,0.0004
1819.00,0.0003
1818.00,0.0002
1817.00,0.0001
1816.00,0.0001
1815.00,0.0001
1814.00,0.0001
1813.00,0.0001
1812.00,0.0001
1811.00,0.0002
1810.00,0.0002
1809.00,0.0003
1808.00,0.0003
1807.00,0.0003
1806.00,0.0004
1805.00,0.0004
1804.00,0.0005
1803.00,0.0005
1802.00,0.0004
1801.00,0.0004
1800.00,0.0005
1799.00,0.0006
1798.00,0.0006
1797.00,0.0006
1796.00,0.0006
1795.00,0.0006
1794.00,0.0006
1793.00,0.0006
1792.00,0.0006
1791.00,0.0007
1790.00,0.0008
1789.00,0.0008
1788.00,0.0008
1787.00,0.0008
1786.00,0.0008
1785.00,0.0008
1784.00,0.0008
1783.00,0.0007
1782.00,0.0007
1781.00,0.0007
1780.00,0.0007
1779.00,0.0007
1778.00,0.0008
1777.00,0.0008
1776.00,0.0009
1775.00,0.0009
1774.00,0.0009
1773.00,0.0010
1772.00,0.0010
1771.00,0.0011
1770.00,0.0011
1769.00,0.0011
1768.00,0.0011
1767.00,0.0011
1766.00,0.0010
1765.00,0.0010
1764.00,0.0010
1763.00,0.0010
1762.00,0.0011
1761.00,0.0011
1760.00,0.0012
1759.00,0.0012
1758.00,0.0013
1757.00,0.0013
1756.00,0.0013
1755.00,0.0013
1754.00,0.0013
1753.00,0.0013
1752.00,0.0014
1751.00,0.0014
1750.00,0.0015
1749.00,0.0016
1748.00,0.0017
1747.00,0.0017
1746.00,0.0017
1745.00,0.0017
1744.00,0.0017
1743.00,0.0017
1742.00,0.0017
1741.00,0.0018
1740.00,0.0019
1739.00,0.0019
1738.00,0.0019
1737.00,0.0019
1736.00,0.0020
1735.00,0.0020
1734.00,0.0020
1733.00,0.0019
1732.00,0.0019
1731.00,0.0020
1730.00,0.0020
1729.00,0.0021
1728.00,0.0021
1727.00,0.0021
1726.00,0.0021
1725.00,0.0021
1724.00,0.0021
1723.00,0.0022
1722.00,0.0022
1721.00,0.0022
1720.00,0.0021
1719.00,0.0020
1718.00,0.0019
1717.00,0.0019
1716.00,0.0018
1715.00,0.0018
1714.00,0.0018
1713.00,0.0019
1712.00,0.0020
1711.00,0.0020
1710.00,0.0020
1709.00,0.0020
1708.00,0.0021
1707.00,0.0021
1706.00,0.0021
1705.00,0.0022
1704.00,0.0022
1703.00,0.0022
1702.00,0.0022
1701.00,0.0022
1700.00,0.0022
1699.00,0.0023
1698.00,0.0023
1697.00,0.0024
1696.00,0.0025
1695.00,0.0025
1694.00,0.0025
1693.00,0.0025
1692.00,0.0026
1691.00,0.0026
1690.00,0.0026
1689.00,0.0027
1688.00,0.0027
1687.00,0.0027
1686.00,0.0027
1685.00,0.0028
1684.00,0.0028
1683.00,0.0028
1682.00,0.0028
1681.00,0.0029
1680.00,0.0030
1679.00,0.0030
1678.00,0.0031
1677.00,0.0032
1676.00,0.0032
1675.00,0.0032
1674.00,0.0032
1673.00,0.0033
1672.00,0.0033
1671.00,0.0034
1670.00,0.0034
1669.00,0.0034
1668.00,0.0035
1667.00,0.0035
1666.00,0.0036
1665.00,0.0037
1664.00,0.0037
1663.00,0.0038
1662.00,0.0038
1661.00,0.0038
1660.00,0.0039
1659.00,0.0039
1658.00,0.0039
1657.00,0.0039
1656.00,0.0039
1655.00,0.0039
1654.00,0.0040
1653.00,0.0042
1652.00,0.0043
1651.00,0.0043
1650.00,0.0044
1649.00,0.0045
1648.00,0.0046
1647.00,0.0048
1646.00,0.0048
1645.00,0.0048
1644.00,0.0048
1643.00,0.0048
1642.00,0.0048
1641.00,0.0049
1640.00,0.0050
1639.00,0.0050
1638.00,0.0051
1637.00,0.0052
1636.00,0.0052
1635.00,0.0051
1634.00,0.0050
1633.00,0.0049
1632.00,0.0049
1631.00,0.0049
1630.00,0.0049
1629.00,0.0048
1628.00,0.0048
1627.00,0.0047
1626.00,0.0047
1625.00,0.0046
1624.00,0.0045
1623.00,0.0045
1622.00,0.0044
1621.00,0.0044
1620.00,0.0045
1619.00,0.0044
1618.00,0.0044
1617.00,0.0044
1616.00,0.0044
1615.00,0.0044
1614.00,0.0044
1613.00,0.0045
1612.00,0.0045
1611.00,0.0044
1610.00,0.0044
1609.00,0.0043
1608.00,0.0043
1607.00,0.0043
1606.00,0.0043
1605.00,0.0044
1604.00,0.0044
1603.00,0.0043
1602.00,0.0043
1601.00,0.0043
1600.00,0.0043
1599.00,0.0043
1598.00,0.0043
1597.00,0.0043
1596.00,0.0043
1595.00,0.0043
1594.00,0.0043
1593.00,0.0043
1592.00,0.0043
1591.00,0.0043
1590.00,0.0043
1589.00,0.0042
1588.00,0.0042
1587.00,0.0042
1586.00,0.0041
1585.00,0.0042
1584.00,0.0043
1583.00,0.0043
1582.00,0.0044
1581.00,0.0045
1580.00,0.0045
1579.00,0.0045
1578.00,0.0045
1577.00,0.0045
1576.00,0.0045
1575.00,0.0045
1574.00,0.0046
1573.00,0.0046
1572.00,0.0047
1571.00,0.0047
1570.00,0.0047
1569.00,0.0047
1568.00,0.0048
1567.00,0.0048
1566.00,0.0049
1565.00,0.0049
1564.00,0.0050
1563.00,0.0050
1562.00,0.0051
1561.00,0.0051
1560.00,0.0051
1559.00,0.0052
1558.00,0.0051
1557.00,0.0051
1556.00,0.0052
1555.00,0.0052
1554.00,0.0053
1553.00,0.0053
1552.00,0.0054
1551.00,0.0054
1550.00,0.0054
1549.00,0.0054
1548.00,0.0055
1547.00,0.0055
1546.00,0.0055
1545.00,0.0055
1544.00,0.0055
1543.00,0.0054
1542.00,0.0054
1541.00,0.0053
1540.00,0.0052
1539.00,0.0051
1538.00,0.0050
1537.00,0.0050
1536.00,0.0050
1535.00,0.0049
1534.00,0.0048
1533.00,0.0048
1532.00,0.0047
1531.00,0.0047
1530.00,0.0047
1529.00,0.0047
1528.00,0.0048
1527.00,0.0048
1526.00,0.0048
1525.00,0.0047
1524.00,0.0047
1523.00,0.0047
1522.00,0.0047
1521.00,0.0047
1520.00,0.0047
1519.00,0.0047
1518.00,0.0047
1517.00,0.0049
1516.00,0.0050
1515.00,0.0051
1514.00,0.0051
1513.00,0.0052
1512.00,0.0052
1511.00,0.0053
1510.00,0.0053
1509.00,0.0053
1508.00,0.0055
1507.00,0.0056
1506.00,0.0056
1505.00,0.0057
1504.00,0.0058
1503.00,0.0060
1502.00,0.0062
1501.00,0.0065
1500.00,0.0067
1499.00,0.0069
1498.00,0.0071
1497.00,0.0073
1496.00,0.0076
1495.00,0.0078
1494.00,0.0080
1493.00,0.0083
1492.00,0.0087
1491.00,0.0090
1490.00,0.0093
1489.00,0.0098
1488.00,0.0103
1487.00,0.0107
1486.00,0.0112
1485.00,0.0118
1484.00,0.0125
1483.00,0.0131
1482.00,0.0139
1481.00,0.0149
1480.00,0.0161
1479.00,0.0173
1478.00,0.0189
1477.00,0.0210
1476.00,0.0236
1475.00,0.0267
1474.00,0.0307
1473.00,0.0365
1472.00,0.0431
1471.00,0.0494
1470.00,0.0555
1469.00,0.0619
1468.00,0.0688
1467.00,0.0763
1466.00,0.0849
1465.00,0.0941
1464.00,0.1022
1463.00,0.1078
1462.00,0.1114
1461.00,0.1140
1460.00,0.1157
1459.00,0.1170
1458.00,0.1183
1457.00,0.1196
1456.00,0.1202
1455.00,0.1200
1454.00,0.1193
1453.00,0.1181
1452.00,0.1160
1451.00,0.1126
1450.00,0.1077
1449.00,0.1007
1448.00,0.0915
1447.00,0.0816
1446.00,0.0725
1445.00,0.0647
1444.00,0.0580
1443.00,0.0524
1442.00,0.0482
1441.00,0.0452
1440.00,0.0433
1439.00,0.0424
1438.00,0.0421
1437.00,0.0418
1436.00,0.0405
1435.00,0.0380
1434.00,0.0346
1433.00,0.0305
1432.00,0.0263
1431.00,0.0226
1430.00,0.0196
1429.00,0.0174
1428.00,0.0159
1427.00,0.0149
1426.00,0.0142
1425.00,0.0136
1424.00,0.0130
1423.00,0.0126
1422.00,0.0125
1421.00,0.0124
1420.00,0.0121
1419.00,0.0119
1418.00,0.0117
1417.00,0.0114
1416.00,0.0112
1415.00,0.0111
1414.00,0.0112
1413.00,0.0112
1412.00,0.0111
1411.00,0.0111
1410.00,0.0111
1409.00,0.0111
1408.00,0.0111
1407.00,0.0112
1406.00,0.0113
1405.00,0.0114
1404.00,0.0116
1403.00,0.0118
1402.00,0.0121
1401.00,0.0123
1400.00,0.0125
1399.00,0.0128
1398.00,0.0132
1397.00,0.0136
1396.00,0.0139
1395.00,0.0144
1394.00,0.0150
1393.00,0.0155
1392.00,0.0160
1391.00,0.0169
1390.00,0.0180
1389.00,0.0195
1388.00,0.0217
1387.00,0.0249
1386.00,0.0292
1385.00,0.0349
1384.00,0.0428
1383.00,0.0538
1382.00,0.0686
1381.00,0.0872
1380.00,0.1095
1379.00,0.1338
1378.00,0.1558
1377.00,0.1703
1376.00,0.1732
1375.00,0.1624
1374.00,0.1411
1373.00,0.1167
1372.00,0.0949
1371.00,0.0772
1370.00,0.0630
1369.00,0.0521
1368.00,0.0444
1367.00,0.0396
1366.00,0.0369
1365.00,0.0357
1364.00,0.0358
1363.00,0.0369
1362.00,0.0387
1361.00,0.0406
1360.00,0.0420
1359.00,0.0424
1358.00,0.0414
1357.00,0.0391
1356.00,0.0359
1355.00,0.0323
1354.00,0.0288
1353.00,0.0257
1352.00,0.0233
1351.00,0.0213
1350.00,0.0196
1349.00,0.0182
1348.00,0.0171
1347.00,0.0161
1346.00,0.0153
1345.00,0.0145
1344.00,0.0139
1343.00,0.0134
1342.00,0.0130
1341.00,0.0126
1340.00,0.0123
1339.00,0.0121
1338.00,0.0120
1337.00,0.0120
1336.00,0.0120
1335.00,0.0122
1334.00,0.0125
1333.00,0.0129
1332.00,0.0133
1331.00,0.0136
1330.00,0.0137
1329.00,0.0136
1328.00,0.0133
1327.00,0.0129
1326.00,0.0123
1325.00,0.0117
1324.00,0.0110
1323.00,0.0105
1322.00,0.0100
1321.00,0.0097
1320.00,0.0094
1319.00,0.0093
1318.00,0.0092
1317.00,0.0091
1316.00,0.0090
1315.00,0.0090
1314.00,0.0090
1313.00,0.0091
1312.00,0.0093
1311.00,0.0096
1310.00,0.0101
1309.00,0.0109
1308.00,0.0121
1307.00,0.0136
1306.00,0.0150
1305.00,0.0159
1304.00,0.0161
1303.00,0.0155
1302.00,0.0147
1301.00,0.0139
1300.00,0.0134
1299.00,0.0131
1298.00,0.0131
1297.00,0.0130
1296.00,0.0128
1295.00,0.0125
1294.00,0.0121
1293.00,0.0116
1292.00,0.0111
1291.00,0.0106
1290.00,0.0101
1289.00,0.0098
1288.00,0.0096
1287.00,0.0094
1286.00,0.0092
1285.00,0.0090
1284.00,0.0089
1283.00,0.0087
1282.00,0.0086
1281.00,0.0085
1280.00,0.0085
1279.00,0.0085
1278.00,0.0085
1277.00,0.0085
1276.00,0.0085
1275.00,0.0086
1274.00,0.0087
1273.00,0.0089
1272.00,0.0091
1271.00,0.0093
1270.00,0.0096
1269.00,0.0099
1268.00,0.0102
1267.00,0.0107
1266.00,0.0111
1265.00,0.0116
1264.00,0.0121
1263.00,0.0125
1262.00,0.0129
1261.00,0.0134
1260.00,0.0141
1259.00,0.0149
1258.00,0.0158
1257.00,0.0165
1256.00,0.0168
1255.00,0.0164
1254.00,0.0156
1253.00,0.0144
1252.00,0.0133
1251.00,0.0123
1250.00,0.0115
1249.00,0.0109
1248.00,0.0105
1247.00,0.0101
1246.00,0.0098
1245.00,0.0095
1244.00,0.0093
1243.00,0.0092
1242.00,0.0091
1241.00,0.0090
1240.00,0.0089
1239.00,0.0088
1238.00,0.0087
1237.00,0.0086
1236.00,0.0085
1235.00,0.0085
1234.00,0.0085
1233.00,0.0085
1232.00,0.0085
1231.00,0.0085
1230.00,0.0085
1229.00,0.0085
1228.00,0.0085
1227.00,0.0085
1226.00,0.0086
1225.00,0.0088
1224.00,0.0091
1223.00,0.0094
1222.00,0.0097
1221.00,0.0100
1220.00,0.0101
1219.00,0.0100
1218.00,0.0098
1217.00,0.0096
1216.00,0.0094
1215.00,0.0092
1214.00,0.0089
1213.00,0.0087
1212.00,0.0085
1211.00,0.0083
1210.00,0.0081
1209.00,0.0080
1208.00,0.0078
1207.00,0.0077
1206.00,0.0077
1205.00,0.0077
1204.00,0.0076
1203.00,0.0076
1202.00,0.0076
1201.00,0.0076
1200.00,0.0076
1199.00,0.0076
1198.00,0.0077
1197.00,0.0077
1196.00,0.0078
1195.00,0.0079
1194.00,0.0079
1193.00,0.0079
1192.00,0.0079
1191.00,0.0080
1190.00,0.0081
1189.00,0.0082
1188.00,0.0083
1187.00,0.0084
1186.00,0.0086
1185.00,0.0088
1184.00,0.0091
1183.00,0.0094
1182.00,0.0098
1181.00,0.0101
1180.00,0.0106
1179.00,0.0113
1178.00,0.0121
1177.00,0.0133
1176.00,0.0148
1175.00,0.0167
1174.00,0.0192
1173.00,0.0224
1172.00,0.0261
1171.00,0.0302
1170.00,0.0341
1169.00,0.0374
1168.00,0.0394
1167.00,0.0398
1166.00,0.0388
1165.00,0.0368
1164.00,0.0344
1163.00,0.0319
1162.00,0.0297
1161.00,0.0280
1160.00,0.0266
1159.00,0.0257
1158.00,0.0249
1157.00,0.0244
1156.00,0.0240
1155.00,0.0236
1154.00,0.0233
1153.00,0.0229
1152.00,0.0224
1151.00,0.0216
1150.00,0.0207
1149.00,0.0197
1148.00,0.0186
1147.00,0.0176
1146.00,0.0167
1145.00,0.0158
1144.00,0.0150
1143.00,0.0142
1142.00,0.0135
1141.00,0.0129
1140.00,0.0123
1139.00,0.0119
1138.00,0.0115
1137.00,0.0112
1136.00,0.0110
1135.00,0.0107
1134.00,0.0104
1133.00,0.0103
1132.00,0.0102
1131.00,0.0102
1130.00,0.0102
1129.00,0.0102
1128.00,0.0102
1127.00,0.0102
1126.00,0.0101
1125.00,0.0100
1124.00,0.0100
1123.00,0.0100
1122.00,0.0100
1121.00,0.0101
1120.00,0.0102
1119.00,0.0103
1118.00,0.0103
1117.00,0.0104
1116.00,0.0105
1115.00,0.0106
1114.00,0.0108
1113.00,0.0110
1112.00,0.0111
1111.00,0.0114
1110.00,0.0116
1109.00,0.0120
1108.00,0.0124
1107.00,0.0129
1106.00,0.0136
1105.00,0.0142
1104.00,0.0147
1103.00,0.0150
1102.00,0.0151
1101.00,0.0149
1100.00,0.0144
1099.00,0.0138
1098.00,0.0133
1097.00,0.0129
1096.00,0.0125
1095.00,0.0123
1094.00,0.0120
1093.00,0.0118
1092.00,0.0116
1091.00,0.0115
1090.00,0.0113
1089.00,0.0112
1088.00,0.0112
1087.00,0.0111
1086.00,0.0112
1085.00,0.0112
1084.00,0.0113
1083.00,0.0113
1082.00,0.0112
1081.00,0.0110
1080.00,0.0108
1079.00,0.0107
1078.00,0.0106
1077.00,0.0106
1076.00,0.0105
1075.00,0.0105
1074.00,0.0105
1073.00,0.0105
1072.00,0.0105
1071.00,0.0105
1070.00,0.0105
1069.00,0.0104
1068.00,0.0103
1067.00,0.0102
1066.00,0.0101
1065.00,0.0101
1064.00,0.0102
1063.00,0.0102
1062.00,0.0102
1061.00,0.0102
1060.00,0.0102
1059.00,0.0102
1058.00,0.0103
1057.00,0.0104
1056.00,0.0106
1055.00,0.0109
1054.00,0.0111
1053.00,0.0114
1052.00,0.0116
1051.00,0.0119
1050.00,0.0123
1049.00,0.0128
1048.00,0.0134
1047.00,0.0140
1046.00,0.0145
1045.00,0.0148
1044.00,0.0149
1043.00,0.0148
1042.00,0.0145
1041.00,0.0141
1040.00,0.0137
1039.00,0.0134
1038.00,0.0132
1037.00,0.0131
1036.00,0.0130
1035.00,0.0129
1034.00,0.0127
1033.00,0.0126
1032.00,0.0125
1031.00,0.0124
1030.00,0.0124
1029.00,0.0124
1028.00,0.0125
1027.00,0.0126
1026.00,0.0128
1025.00,0.0130
1024.00,0.0133
1023.00,0.0137
1022.00,0.0140
1021.00,0.0142
1020.00,0.0144
1019.00,0.0144
1018.00,0.0144
1017.00,0.0144
1016.00,0.0144
1015.00,0.0144
1014.00,0.0145
1013.00,0.0145
1012.00,0.0145
1011.00,0.0145
1010.00,0.0145
1009.00,0.0147
1008.00,0.0151
1007.00,0.0158
1006.00,0.0168
1005.00,0.0181
1004.00,0.0201
1003.00,0.0229
1002.00,0.0268
1001.00,0.0316
1000.00,0.0369
999.00,0.0414
998.00,0.0439
997.00,0.0433
996.00,0.0400
995.00,0.0350
994.00,0.0296
993.00,0.0249
992.00,0.0212
991.00,0.0185
990.00,0.0167
989.00,0.0154
988.00,0.0146
987.00,0.0141
986.00,0.0139
985.00,0.0139
984.00,0.0143
983.00,0.0149
982.00,0.0161
981.00,0.0179
980.00,0.0205
979.00,0.0239
978.00,0.0281
977.00,0.0333
976.00,0.0390
975.00,0.0447
974.00,0.0493
973.00,0.0514
972.00,0.0502
971.00,0.0460
970.00,0.0398
969.00,0.0333
968.00,0.0276
967.00,0.0232
966.00,0.0200
965.00,0.0177
964.00,0.0160
963.00,0.0148
962.00,0.0138
961.00,0.0131
960.00,0.0126
959.00,0.0123
958.00,0.0120
957.00,0.0119
956.00,0.0117
955.00,0.0115
954.00,0.0113
953.00,0.0111
952.00,0.0110
951.00,0.0108
950.00,0.0106
949.00,0.0104
948.00,0.0103
947.00,0.0102
946.00,0.0103
945.00,0.0105
944.00,0.0108
943.00,0.0112
942.00,0.0115
941.00,0.0117
940.00,0.0115
939.00,0.0111
938.00,0.0105
937.00,0.0099
936.00,0.0093
935.00,0.0089
934.00,0.0085
933.00,0.0082
932.00,0.0079
931.00,0.0076
930.00,0.0074
929.00,0.0073
928.00,0.0071
927.00,0.0070
926.00,0.0069
925.00,0.0069
924.00,0.0068
923.00,0.0067
922.00,0.0066
921.00,0.0064
920.00,0.0063
919.00,0.0063
918.00,0.0063
917.00,0.0064
916.00,0.0064
915.00,0.0065
914.00,0.0065
913.00,0.0066
912.00,0.0068
911.00,0.0069
910.00,0.0070
909.00,0.0072
908.00,0.0076
907.00,0.0081
906.00,0.0089
905.00,0.0099
904.00,0.0113
903.00,0.0129
902.00,0.0145
901.00,0.0160
900.00,0.0169
899.00,0.0171
898.00,0.0163
897.00,0.0149
896.00,0.0132
895.00,0.0116
894.00,0.0102
893.00,0.0092
892.00,0.0085
891.00,0.0081
890.00,0.0079
889.00,0.0077
888.00,0.0076
887.00,0.0075
886.00,0.0074
885.00,0.0073
884.00,0.0073
883.00,0.0072
882.00,0.0072
881.00,0.0072
880.00,0.0073
879.00,0.0073
878.00,0.0073
877.00,0.0073
876.00,0.0073
875.00,0.0073
874.00,0.0074
873.00,0.0075
872.00,0.0075
871.00,0.0076
870.00,0.0076
869.00,0.0075
868.00,0.0075
867.00,0.0075
866.00,0.0077
865.00,0.0078
864.00,0.0081
863.00,0.0083
862.00,0.0085
861.00,0.0086
860.00,0.0087
859.00,0.0088
858.00,0.0089
857.00,0.0091
856.00,0.0093
855.00,0.0096
854.00,0.0099
853.00,0.0102
852.00,0.0104
851.00,0.0108
850.00,0.0114
849.00,0.0122
848.00,0.0134
847.00,0.0152
846.00,0.0180
845.00,0.0223
844.00,0.0284
843.00,0.0356
842.00,0.0418
841.00,0.0443
840.00,0.0417
839.00,0.0354
838.00,0.0281
837.00,0.0221
836.00,0.0181
835.00,0.0157
834.00,0.0142
833.00,0.0133
832.00,0.0126
831.00,0.0120
830.00,0.0116
829.00,0.0114
828.00,0.0113
827.00,0.0113
826.00,0.0112
825.00,0.0112
824.00,0.0112
823.00,0.0113
822.00,0.0114
821.00,0.0115
820.00,0.0117
819.00,0.0119
818.00,0.0122
817.00,0.0127
816.00,0.0135
815.00,0.0145
814.00,0.0159
813.00,0.0177
812.00,0.0196
811.00,0.0214
810.00,0.0228
809.00,0.0233
808.00,0.0228
807.00,0.0216
806.00,0.0199
805.00,0.0182
804.00,0.0167
803.00,0.0155
802.00,0.0146
801.00,0.0138
800.00,0.0131
799.00,0.0125
798.00,0.0120
797.00,0.0114
796.00,0.0109
795.00,0.0104
794.00,0.0100
793.00,0.0097
792.00,0.0095
791.00,0.0093
790.00,0.0090
789.00,0.0086
788.00,0.0081
787.00,0.0077
786.00,0.0075
785.00,0.0073
784.00,0.0072
783.00,0.0071
782.00,0.0069
781.00,0.0068
780.00,0.0067
779.00,0.0067
778.00,0.0067
777.00,0.0067
776.00,0.0066
775.00,0.0064
774.00,0.0063
773.00,0.0063
772.00,0.0065
771.00,0.0066
770.00,0.0066
769.00,0.0065
768.00,0.0064
767.00,0.0064
766.00,0.0064
765.00,0.0063
764.00,0.0063
763.00,0.0062
762.00,0.0062
761.00,0.0062
760.00,0.0063
759.00,0.0064
758.00,0.0065
757.00,0.0067
756.00,0.0067
755.00,0.0068
754.00,0.0069
753.00,0.0071
752.00,0.0072
751.00,0.0074
750.00,0.0077
749.00,0.0078
748.00,0.0079
747.00,0.0080
746.00,0.0080
745.00,0.0081
744.00,0.0083
743.00,0.0086
742.00,0.0089
741.00,0.0092
740.00,0.0095
739.00,0.0098
738.00,0.0102
737.00,0.0106
736.00,0.0110
735.00,0.0114
734.00,0.0119
733.00,0.0124
732.00,0.0130
731.00,0.0136
730.00,0.0141
729.00,0.0145
728.00,0.0146
727.00,0.0147
726.00,0.0149
725.00,0.0152
724.00,0.0156
723.00,0.0161
722.00,0.0166
721.00,0.0168
720.00,0.0166
719.00,0.0158
718.00,0.0147
717.00,0.0134
716.00,0.0124
715.00,0.0116
714.00,0.0111
713.00,0.0106
712.00,0.0103
711.00,0.0100
710.00,0.0098
709.00,0.0098
708.00,0.0097
707.00,0.0096
706.00,0.0095
705.00,0.0093
704.00,0.0092
703.00,0.0091
702.00,0.0090
701.00,0.0091
700.00,0.0091
699.00,0.0092
698.00,0.0091
697.00,0.0091
696.00,0.0091
695.00,0.0092
694.00,0.0093
693.00,0.0093
692.00,0.0092
691.00,0.0092
690.00,0.0091
689.00,0.0090
688.00,0.0090
687.00,0.0090
686.00,0.0089
685.00,0.0088
684.00,0.0086
683.00,0.0084
682.00,0.0084
681.00,0.0086
680.00,0.0088
679.00,0.0090
678.00,0.0091
677.00,0.0091
676.00,0.0093
675.00,0.0095
674.00,0.0098
673.00,0.0102
672.00,0.0104
671.00,0.0105
670.00,0.0104
669.00,0.0102
668.00,0.0098
667.00,0.0095
666.00,0.0093
665.00,0.0091
664.00,0.0091
663.00,0.0090
662.00,0.0089
661.00,0.0087
660.00,0.0085
659.00,0.0083
658.00,0.0083
657.00,0.0084
656.00,0.0086
655.00,0.0087
654.00,0.0086
653.00,0.0084
652.00,0.0082
651.00,0.0081
650.00,0.0081
649.00,0.0081
648.00,0.0080
647.00,0.0079
646.00,0.0078
645.00,0.0079
644.00,0.0080
643.00,0.0080
642.00,0.0080
641.00,0.0080
640.00,0.0080
639.00,0.0080
638.00,0.0079
637.00,0.0079
636.00,0.0078
635.00,0.0078
634.00,0.0079
633.00,0.0080
632.00,0.0082
631.00,0.0083
630.00,0.0082
629.00,0.0081
628.00,0.0081
627.00,0.0083
626.00,0.0084
625.00,0.0084
624.00,0.0083
623.00,0.0081
622.00,0.0080
621.00,0.0079
620.00,0.0079
619.00,0.0080
618.00,0.0080
617.00,0.0080
616.00,0.0079
615.00,0.0077
614.00,0.0075
613.00,0.0074
612.00,0.0075
611.00,0.0080
610.00,0.0085
609.00,0.0088
608.00,0.0088
607.00,0.0086
606.00,0.0083
605.00,0.0082
604.00,0.0083
603.00,0.0085
602.00,0.0085
601.00,0.0084
600.00,0.0081
599.00,0.0080
598.00,0.0079
597.00,0.0077
596.00,0.0076
595.00,0.0075
594.00,0.0076
593.00,0.0078
592.00,0.0080
591.00,0.0081
590.00,0.0081
589.00,0.0080
588.00,0.0078
587.00,0.0078
586.00,0.0079
585.00,0.0080
584.00,0.0082
583.00,0.0082
582.00,0.0080
581.00,0.0079
580.00,0.0079
579.00,0.0081
578.00,0.0083
577.00,0.0082
576.00,0.0081
575.00,0.0079
574.00,0.0079
573.00,0.0081
572.00,0.0084
571.00,0.0087
570.00,0.0088
569.00,0.0088
568.00,0.0086
567.00,0.0085
566.00,0.0084
565.00,0.0083
564.00,0.0083
563.00,0.0085
562.00,0.0087
561.00,0.0089
560.00,0.0090
559.00,0.0091
558.00,0.0092
557.00,0.0093
556.00,0.0094
555.00,0.0093
554.00,0.0090
553.00,0.0086
552.00,0.0083
551.00,0.0083
550.00,0.0085
549.00,0.0089
548.00,0.0092
547.00,0.0094
546.00,0.0096
545.00,0.0098
544.00,0.0100
543.00,0.0102
542.00,0.0103
541.00,0.0103
540.00,0.0102
539.00,0.0103
538.00,0.0106
537.00,0.0110
536.00,0.0116
535.00,0.0122
534.00,0.0124
533.00,0.0124
532.00,0.0121
531.00,0.0118
530.00,0.0116
529.00,0.0116
528.00,0.0118
527.00,0.0120
526.00,0.0121
525.00,0.0119
524.00,0.0114
523.00,0.0110
522.00,0.0107
521.00,0.0104
520.00,0.0101
519.00,0.0097
518.00,0.0093
517.00,0.0091
516.00,0.0089
515.00,0.0087
514.00,0.0086
513.00,0.0085
512.00,0.0086
511.00,0.0087
510.00,0.0088
509.00,0.0087
508.00,0.0086
507.00,0.0085
506.00,0.0086
505.00,0.0089
504.00,0.0091
503.00,0.0092
502.00,0.0092
501.00,0.0092
500.00,0.0094
499.00,0.0094
498.00,0.0092
497.00,0.0089
496.00,0.0086
495.00,0.0083
494.00,0.0077
493.00,0.0072
492.00,0.0073
491.00,0.0082
490.00,0.0092
489.00,0.0097
488.00,0.0093
487.00,0.0088
486.00,0.0086
485.00,0.0091
484.00,0.0097
483.00,0.0102
482.00,0.0105
481.00,0.0107
480.00,0.0106
479.00,0.0101
478.00,0.0092
477.00,0.0085
476.00,0.0087
475.00,0.0096
474.00,0.0105
473.00,0.0110
472.00,0.0112
471.00,0.0116
470.00,0.0128
469.00,0.0146
468.00,0.0168
467.00,0.0186
466.00,0.0199
465.00,0.0204
464.00,0.0204
463.00,0.0197
462.00,0.0187
461.00,0.0176
460.00,0.0169
459.00,0.0169
458.00,0.0173
457.00,0.0177
456.00,0.0178
455.00,0.0178
454.00,0.0178
453.00,0.0179
452.00,0.0180
451.00,0.0180
450.00,0.0183
