Created as New Dataset,Sample 033 By Administrator Date Thursday, September 04 2025
cm-1,A
4000.00,0.0008
3999.00,0.0008
3998.00,0.0008
3997.00,0.0008
3996.00,0.0008
3995.00,0.0008
3994.00,0.0008
3993.00,0.0008
3992.00,0.0007
3991.00,0.0007
3990.00,0.0007
3989.00,0.0007
3988.00,0.0007
3987.00,0.0007
3986.00,0.0007
3985.00,0.0007
3984.00,0.0007
3983.00,0.0007
3982.00,0.0007
3981.00,0.0006
3980.00,0.0006
3979.00,0.0006
3978.00,0.0006
3977.00,0.0006
3976.00,0.0006
3975.00,0.0006
3974.00,0.0006
3973.00,0.0006
3972.00,0.0006
3971.00,0.0006
3970.00,0.0006
3969.00,0.0006
3968.00,0.0007
3967.00,0.0006
3966.00,0.0006
3965.00,0.0006
3964.00,0.0006
3963.00,0.0006
3962.00,0.0006
3961.00,0.0006
3960.00,0.0005
3959.00,0.0005
3958.00,0.0005
3957.00,0.0005
3956.00,0.0005
3955.00,0.0005
3954.00,0.0005
3953.00,0.0005
3952.00,0.0005
3951.00,0.0005
3950.00,0.0005
3949.00,0.0005
3948.00,0.0004
3947.00,0.0004
3946.00,0.0004
3945.00,0.0004
3944.00,0.0005
3943.00,0.0005
3942.00,0.0005
3941.00,0.0005
3940.00,0.0005
3939.00,0.0006
3938.00,0.0006
3937.00,0.0006
3936.00,0.0005
3935.00,0.0005
3934.00,0.0005
3933.00,0.0005
3932.00,0.0006
3931.00,0.0006
3930.00,0.0006
3929.00,0.0006
3928.00,0.0006
3927.00,0.0006
3926.00,0.0006
3925.00,0.0006
3924.00,0.0006
3923.00,0.0006
3922.00,0.0006
3921.00,0.0006
3920.00,0.0006
3919.00,0.0006
3918.00,0.0006
3917.00,0.0006
3916.00,0.0006
3915.00,0.0006
3914.00,0.0006
3913.00,0.0006
3912.00,0.0006
3911.00,0.0006
3910.00,0.0006
3909.00,0.0005
3908.00,0.0005
3907.00,0.0005
3906.00,0.0005
3905.00,0.0005
3904.00,0.0004
3903.00,0.0004
3902.00,0.0004
3901.00,0.0004
3900.00,0.0004
3899.00,0.0004
3898.00,0.0004
3897.00,0.0004
3896.00,0.0005
3895.00,0.0005
3894.00,0.0005
3893.00,0.0006
3892.00,0.0006
3891.00,0.0006
3890.00,0.0006
3889.00,0.0006
3888.00,0.0005
3887.00,0.0005
3886.00,0.0004
3885.00,0.0004
3884.00,0.0004
3883.00,0.0005
3882.00,0.0005
3881.00,0.0005
3880.00,0.0005
3879.00,0.0005
3878.00,0.0005
3877.00,0.0005
3876.00,0.0005
3875.00,0.0005
3874.00,0.0005
3873.00,0.0004
3872.00,0.0004
3871.00,0.0003
3870.00,0.0003
3869.00,0.0003
3868.00,0.0003
3867.00,0.0004
3866.00,0.0004
3865.00,0.0005
3864.00,0.0005
3863.00,0.0004
3862.00,0.0004
3861.00,0.0004
3860.00,0.0004
3859.00,0.0004
3858.00,0.0004
3857.00,0.0004
3856.00,0.0004
3855.00,0.0003
3854.00,0.0003
3853.00,0.0003
3852.00,0.0004
3851.00,0.0004
3850.00,0.0004
3849.00,0.0004
3848.00,0.0004
3847.00,0.0005
3846.00,0.0005
3845.00,0.0005
3844.00,0.0005
3843.00,0.0004
3842.00,0.0004
3841.00,0.0004
3840.00,0.0004
3839.00,0.0004
3838.00,0.0004
3837.00,0.0004
3836.00,0.0004
3835.00,0.0004
3834.00,0.0005
3833.00,0.0005
3832.00,0.0005
3831.00,0.0005
3830.00,0.0005
3829.00,0.0004
3828.00,0.0004
3827.00,0.0004
3826.00,0.0004
3825.00,0.0004
3824.00,0.0004
3823.00,0.0004
3822.00,0.0004
3821.00,0.0004
3820.00,0.0005
3819.00,0.0005
3818.00,0.0005
3817.00,0.0005
3816.00,0.0005
3815.00,0.0005
3814.00,0.0005
3813.00,0.0005
3812.00,0.0005
3811.00,0.0005
3810.00,0.0005
3809.00,0.0005
3808.00,0.0005
3807.00,0.0005
3806.00,0.0005
3805.00,0.0005
3804.00,0.0005
3803.00,0.0004
3802.00,0.0004
3801.00,0.0004
3800.00,0.0004
3799.00,0.0004
3798.00,0.0004
3797.00,0.0005
3796.00,0.0005
3795.00,0.0006
3794.00,0.0006
3793.00,0.0006
3792.00,0.0005
3791.00,0.0005
3790.00,0.0005
3789.00,0.0005
3788.00,0.0005
3787.00,0.0005
3786.00,0.0005
3785.00,0.0005
3784.00,0.0005
3783.00,0.0005
3782.00,0.0005
3781.00,0.0005
3780.00,0.0005
3779.00,0.0005
3778.00,0.0005
3777.00,0.0005
3776.00,0.0005
3775.00,0.0005
3774.00,0.0005
3773.00,0.0005
3772.00,0.0005
3771.00,0.0005
3770.00,0.0005
3769.00,0.0005
3768.00,0.0005
3767.00,0.0005
3766.00,0.0005
3765.00,0.0005
3764.00,0.0005
3763.00,0.0005
3762.00,0.0005
3761.00,0.0005
3760.00,0.0005
3759.00,0.0005
3758.00,0.0005
3757.00,0.0005
3756.00,0.0005
3755.00,0.0004
3754.00,0.0004
3753.00,0.0004
3752.00,0.0004
3751.00,0.0003
3750.00,0.0003
3749.00,0.0002
3748.00,0.0002
3747.00,0.0002
3746.00,0.0002
3745.00,0.0002
3744.00,0.0002
3743.00,0.0002
3742.00,0.0003
3741.00,0.0003
3740.00,0.0003
3739.00,0.0003
3738.00,0.0003
3737.00,0.0003
3736.00,0.0003
3735.00,0.0004
3734.00,0.0004
3733.00,0.0004
3732.00,0.0004
3731.00,0.0003
3730.00,0.0003
3729.00,0.0002
3728.00,0.0002
3727.00,0.0003
3726.00,0.0003
3725.00,0.0003
3724.00,0.0003
3723.00,0.0003
3722.00,0.0003
3721.00,0.0003
3720.00,0.0003
3719.00,0.0003
3718.00,0.0004
3717.00,0.0004
3716.00,0.0004
3715.00,0.0004
3714.00,0.0004
3713.00,0.0003
3712.00,0.0003
3711.00,0.0004
3710.00,0.0004
3709.00,0.0005
3708.00,0.0005
3707.00,0.0004
3706.00,0.0004
3705.00,0.0004
3704.00,0.0004
3703.00,0.0003
3702.00,0.0003
3701.00,0.0003
3700.00,0.0004
3699.00,0.0004
3698.00,0.0004
3697.00,0.0004
3696.00,0.0004
3695.00,0.0004
3694.00,0.0004
3693.00,0.0004
3692.00,0.0004
3691.00,0.0004
3690.00,0.0004
3689.00,0.0005
3688.00,0.0005
3687.00,0.0005
3686.00,0.0005
3685.00,0.0005
3684.00,0.0005
3683.00,0.0005
3682.00,0.0005
3681.00,0.0005
3680.00,0.0004
3679.00,0.0004
3678.00,0.0004
3677.00,0.0003
3676.00,0.0003
3675.00,0.0003
3674.00,0.0003
3673.00,0.0003
3672.00,0.0004
3671.00,0.0004
3670.00,0.0005
3669.00,0.0006
3668.00,0.0006
3667.00,0.0006
3666.00,0.0006
3665.00,0.0006
3664.00,0.0006
3663.00,0.0006
3662.00,0.0006
3661.00,0.0006
3660.00,0.0005
3659.00,0.0005
3658.00,0.0005
3657.00,0.0006
3656.00,0.0006
3655.00,0.0006
3654.00,0.0006
3653.00,0.0005
3652.00,0.0004
3651.00,0.0003
3650.00,0.0003
3649.00,0.0003
3648.00,0.0004
3647.00,0.0005
3646.00,0.0006
3645.00,0.0006
3644.00,0.0006
3643.00,0.0007
3642.00,0.0007
3641.00,0.0007
3640.00,0.0006
3639.00,0.0006
3638.00,0.0005
3637.00,0.0005
3636.00,0.0005
3635.00,0.0004
3634.00,0.0004
3633.00,0.0004
3632.00,0.0004
3631.00,0.0005
3630.00,0.0005
3629.00,0.0006
3628.00,0.0006
3627.00,0.0006
3626.00,0.0006
3625.00,0.0005
3624.00,0.0005
3623.00,0.0005
3622.00,0.0005
3621.00,0.0005
3620.00,0.0005
3619.00,0.0005
3618.00,0.0005
3617.00,0.0005
3616.00,0.0005
3615.00,0.0006
3614.00,0.0006
3613.00,0.0006
3612.00,0.0006
3611.00,0.0006
3610.00,0.0006
3609.00,0.0006
3608.00,0.0006
3607.00,0.0006
3606.00,0.0007
3605.00,0.0007
3604.00,0.0007
3603.00,0.0007
3602.00,0.0007
3601.00,0.0007
3600.00,0.0008
3599.00,0.0008
3598.00,0.0008
3597.00,0.0008
3596.00,0.0008
3595.00,0.0008
3594.00,0.0008
3593.00,0.0008
3592.00,0.0009
3591.00,0.0009
3590.00,0.0009
3589.00,0.0009
3588.00,0.0009
3587.00,0.0009
3586.00,0.0009
3585.00,0.0009
3584.00,0.0009
3583.00,0.0010
3582.00,0.0010
3581.00,0.0010
3580.00,0.0011
3579.00,0.0011
3578.00,0.0011
3577.00,0.0011
3576.00,0.0011
3575.00,0.0012
3574.00,0.0012
3573.00,0.0012
3572.00,0.0012
3571.00,0.0013
3570.00,0.0013
3569.00,0.0012
3568.00,0.0012
3567.00,0.0011
3566.00,0.0011
3565.00,0.0012
3564.00,0.0012
3563.00,0.0012
3562.00,0.0012
3561.00,0.0013
3560.00,0.0014
3559.00,0.0014
3558.00,0.0015
3557.00,0.0015
3556.00,0.0016
3555.00,0.0016
3554.00,0.0016
3553.00,0.0016
3552.00,0.0016
3551.00,0.0016
3550.00,0.0016
3549.00,0.0016
3548.00,0.0016
3547.00,0.0017
3546.00,0.0017
3545.00,0.0018
3544.00,0.0018
3543.00,0.0018
3542.00,0.0018
3541.00,0.0018
3540.00,0.0018
3539.00,0.0019
3538.00,0.0019
3537.00,0.0019
3536.00,0.0019
3535.00,0.0019
3534.00,0.0020
3533.00,0.0020
3532.00,0.0020
3531.00,0.0021
3530.00,0.0021
3529.00,0.0021
3528.00,0.0021
3527.00,0.0021
3526.00,0.0022
3525.00,0.0022
3524.00,0.0022
3523.00,0.0022
3522.00,0.0022
3521.00,0.0022
3520.00,0.0023
3519.00,0.0023
3518.00,0.0023
3517.00,0.0023
3516.00,0.0023
3515.00,0.0023
3514.00,0.0024
3513.00,0.0024
3512.00,0.0025
3511.00,0.0025
3510.00,0.0025
3509.00,0.0025
3508.00,0.0024
3507.00,0.0024
3506.00,0.0024
3505.00,0.0025
3504.00,0.0025
3503.00,0.0026
3502.00,0.0026
3501.00,0.0027
3500.00,0.0027
3499.00,0.0027
3498.00,0.0027
3497.00,0.0027
3496.00,0.0027
3495.00,0.0028
3494.00,0.0028
3493.00,0.0028
3492.00,0.0028
3491.00,0.0028
3490.00,0.0028
3489.00,0.0028
3488.00,0.0028
3487.00,0.0029
3486.00,0.0029
3485.00,0.0029
3484.00,0.0030
3483.00,0.0030
3482.00,0.0031
3481.00,0.0031
3480.00,0.0031
3479.00,0.0032
3478.00,0.0032
3477.00,0.0032
3476.00,0.0032
3475.00,0.0032
3474.00,0.0032
3473.00,0.0032
3472.00,0.0032
3471.00,0.0032
3470.00,0.0033
3469.00,0.0033
3468.00,0.0033
3467.00,0.0033
3466.00,0.0033
3465.00,0.0033
3464.00,0.0034
3463.00,0.0034
3462.00,0.0034
3461.00,0.0035
3460.00,0.0035
3459.00,0.0035
3458.00,0.0035
3457.00,0.0035
3456.00,0.0035
3455.00,0.0035
3454.00,0.0036
3453.00,0.0036
3452.00,0.0036
3451.00,0.0036
3450.00,0.0036
3449.00,0.0036
3448.00,0.0037
3447.00,0.0037
3446.00,0.0038
3445.00,0.0038
3444.00,0.0038
3443.00,0.0038
3442.00,0.0039
3441.00,0.0039
3440.00,0.0039
3439.00,0.0039
3438.00,0.0040
3437.00,0.0040
3436.00,0.0040
3435.00,0.0040
3434.00,0.0040
3433.00,0.0040
3432.00,0.0041
3431.00,0.0041
3430.00,0.0042
3429.00,0.0043
3428.00,0.0043
3427.00,0.0043
3426.00,0.0043
3425.00,0.0043
3424.00,0.0043
3423.00,0.0044
3422.00,0.0044
3421.00,0.0045
3420.00,0.0045
3419.00,0.0045
3418.00,0.0046
3417.00,0.0046
3416.00,0.0046
3415.00,0.0046
3414.00,0.0047
3413.00,0.0047
3412.00,0.0048
3411.00,0.0048
3410.00,0.0049
3409.00,0.0050
3408.00,0.0051
3407.00,0.0052
3406.00,0.0053
3405.00,0.0054
3404.00,0.0055
3403.00,0.0056
3402.00,0.0057
3401.00,0.0058
3400.00,0.0059
3399.00,0.0060
3398.00,0.0060
3397.00,0.0061
3396.00,0.0061
3395.00,0.0061
3394.00,0.0061
3393.00,0.0061
3392.00,0.0060
3391.00,0.0060
3390.00,0.0059
3389.00,0.0058
3388.00,0.0057
3387.00,0.0057
3386.00,0.0056
3385.00,0.0055
3384.00,0.0054
3383.00,0.0054
3382.00,0.0053
3381.00,0.0053
3380.00,0.0052
3379.00,0.0052
3378.00,0.0052
3377.00,0.0052
3376.00,0.0052
3375.00,0.0052
3374.00,0.0052
3373.00,0.0052
3372.00,0.0052
3371.00,0.0052
3370.00,0.0051
3369.00,0.0051
3368.00,0.0050
3367.00,0.0050
3366.00,0.0049
3365.00,0.0049
3364.00,0.0049
3363.00,0.0049
3362.00,0.0049
3361.00,0.0049
3360.00,0.0049
3359.00,0.0049
3358.00,0.0049
3357.00,0.0049
3356.00,0.0049
3355.00,0.0049
3354.00,0.0049
3353.00,0.0049
3352.00,0.0050
3351.00,0.0050
3350.00,0.0050
3349.00,0.0050
3348.00,0.0050
3347.00,0.0049
3346.00,0.0049
3345.00,0.0049
3344.00,0.0049
3343.00,0.0049
3342.00,0.0049
3341.00,0.0049
3340.00,0.0049
3339.00,0.0049
3338.00,0.0049
3337.00,0.0049
3336.00,0.0049
3335.00,0.0049
3334.00,0.0049
3333.00,0.0049
3332.00,0.0048
3331.00,0.0048
3330.00,0.0048
3329.00,0.0048
3328.00,0.0048
3327.00,0.0048
3326.00,0.0048
3325.00,0.0047
3324.00,0.0047
3323.00,0.0047
3322.00,0.0048
3321.00,0.0048
3320.00,0.0048
3319.00,0.0048
3318.00,0.0048
3317.00,0.0048
3316.00,0.0048
3315.00,0.0048
3314.00,0.0048
3313.00,0.0048
3312.00,0.0048
3311.00,0.0048
3310.00,0.0048
3309.00,0.0049
3308.00,0.0049
3307.00,0.0049
3306.00,0.0049
3305.00,0.0049
3304.00,0.0049
3303.00,0.0049
3302.00,0.0049
3301.00,0.0049
3300.00,0.0049
3299.00,0.0048
3298.00,0.0048
3297.00,0.0048
3296.00,0.0048
3295.00,0.0047
3294.00,0.0047
3293.00,0.0046
3292.00,0.0046
3291.00,0.0046
3290.00,0.0046
3289.00,0.0046
3288.00,0.0046
3287.00,0.0046
3286.00,0.0046
3285.00,0.0045
3284.00,0.0045
3283.00,0.0044
3282.00,0.0044
3281.00,0.0043
3280.00,0.0043
3279.00,0.0042
3278.00,0.0043
3277.00,0.0043
3276.00,0.0043
3275.00,0.0044
3274.00,0.0043
3273.00,0.0043
3272.00,0.0042
3271.00,0.0042
3270.00,0.0041
3269.00,0.0041
3268.00,0.0041
3267.00,0.0041
3266.00,0.0041
3265.00,0.0041
3264.00,0.0041
3263.00,0.0041
3262.00,0.0041
3261.00,0.0041
3260.00,0.0041
3259.00,0.0041
3258.00,0.0040
3257.00,0.0040
3256.00,0.0039
3255.00,0.0039
3254.00,0.0039
3253.00,0.0039
3252.00,0.0038
3251.00,0.0038
3250.00,0.0039
3249.00,0.0039
3248.00,0.0039
3247.00,0.0039
3246.00,0.0039
3245.00,0.0039
3244.00,0.0039
3243.00,0.0039
3242.00,0.0039
3241.00,0.0039
3240.00,0.0039
3239.00,0.0039
3238.00,0.0039
3237.00,0.0039
3236.00,0.0039
3235.00,0.0039
3234.00,0.0039
3233.00,0.0039
3232.00,0.0040
3231.00,0.0041
3230.00,0.0041
3229.00,0.0042
3228.00,0.0042
3227.00,0.0042
3226.00,0.0042
3225.00,0.0043
3224.00,0.0043
3223.00,0.0043
3222.00,0.0043
3221.00,0.0044
3220.00,0.0044
3219.00,0.0044
3218.00,0.0044
3217.00,0.0044
3216.00,0.0044
3215.00,0.0045
3214.00,0.0045
3213.00,0.0046
3212.00,0.0047
3211.00,0.0048
3210.00,0.0048
3209.00,0.0048
3208.00,0.0048
3207.00,0.0048
3206.00,0.0048
3205.00,0.0048
3204.00,0.0048
3203.00,0.0048
3202.00,0.0048
3201.00,0.0049
3200.00,0.0050
3199.00,0.0050
3198.00,0.0050
3197.00,0.0050
3196.00,0.0050
3195.00,0.0050
3194.00,0.0050
3193.00,0.0051
3192.00,0.0051
3191.00,0.0051
3190.00,0.0051
3189.00,0.0051
3188.00,0.0051
3187.00,0.0051
3186.00,0.0051
3185.00,0.0050
3184.00,0.0050
3183.00,0.0050
3182.00,0.0050
3181.00,0.0050
3180.00,0.0049
3179.00,0.0049
3178.00,0.0048
3177.00,0.0048
3176.00,0.0047
3175.00,0.0046
3174.00,0.0045
3173.00,0.0045
3172.00,0.0044
3171.00,0.0044
3170.00,0.0044
3169.00,0.0043
3168.00,0.0043
3167.00,0.0042
3166.00,0.0042
3165.00,0.0041
3164.00,0.0041
3163.00,0.0041
3162.00,0.0041
3161.00,0.0041
3160.00,0.0041
3159.00,0.0040
3158.00,0.0040
3157.00,0.0039
3156.00,0.0039
3155.00,0.0040
3154.00,0.0040
3153.00,0.0040
3152.00,0.0040
3151.00,0.0040
3150.00,0.0040
3149.00,0.0040
3148.00,0.0040
3147.00,0.0039
3146.00,0.0039
3145.00,0.0038
3144.00,0.0038
3143.00,0.0038
3142.00,0.0038
3141.00,0.0038
3140.00,0.0038
3139.00,0.0038
3138.00,0.0038
3137.00,0.0037
3136.00,0.0037
3135.00,0.0036
3134.00,0.0036
3133.00,0.0036
3132.00,0.0036
3131.00,0.0035
3130.00,0.0035
3129.00,0.0035
3128.00,0.0035
3127.00,0.0035
3126.00,0.0034
3125.00,0.0034
3124.00,0.0034
3123.00,0.0033
3122.00,0.0033
3121.00,0.0033
3120.00,0.0033
3119.00,0.0032
3118.00,0.0032
3117.00,0.0031
3116.00,0.0031
3115.00,0.0031
3114.00,0.0031
3113.00,0.0031
3112.00,0.0031
3111.00,0.0031
3110.00,0.0031
3109.00,0.0030
3108.00,0.0030
3107.00,0.0030
3106.00,0.0030
3105.00,0.0031
3104.00,0.0031
3103.00,0.0031
3102.00,0.0031
3101.00,0.0030
3100.00,0.0030
3099.00,0.0030
3098.00,0.0030
3097.00,0.0030
3096.00,0.0030
3095.00,0.0030
3094.00,0.0029
3093.00,0.0029
3092.00,0.0029
3091.00,0.0029
3090.00,0.0029
3089.00,0.0030
3088.00,0.0030
3087.00,0.0030
3086.00,0.0029
3085.00,0.0029
3084.00,0.0029
3083.00,0.0028
3082.00,0.0028
3081.00,0.0028
3080.00,0.0028
3079.00,0.0028
3078.00,0.0028
3077.00,0.0028
3076.00,0.0028
3075.00,0.0028
3074.00,0.0028
3073.00,0.0029
3072.00,0.0029
3071.00,0.0029
3070.00,0.0030
3069.00,0.0030
3068.00,0.0030
3067.00,0.0030
3066.00,0.0030
3065.00,0.0030
3064.00,0.0030
3063.00,0.0030
3062.00,0.0031
3061.00,0.0031
3060.00,0.0032
3059.00,0.0032
3058.00,0.0032
3057.00,0.0032
3056.00,0.0032
3055.00,0.0032
3054.00,0.0032
3053.00,0.0032
3052.00,0.0032
3051.00,0.0032
3050.00,0.0032
3049.00,0.0032
3048.00,0.0033
3047.00,0.0033
3046.00,0.0033
3045.00,0.0033
3044.00,0.0034
3043.00,0.0034
3042.00,0.0035
3041.00,0.0035
3040.00,0.0035
3039.00,0.0035
3038.00,0.0035
3037.00,0.0035
3036.00,0.0035
3035.00,0.0035
3034.00,0.0035
3033.00,0.0036
3032.00,0.0036
3031.00,0.0037
3030.00,0.0038
3029.00,0.0039
3028.00,0.0039
3027.00,0.0040
3026.00,0.0040
3025.00,0.0041
3024.00,0.0041
3023.00,0.0042
3022.00,0.0043
3021.00,0.0044
3020.00,0.0045
3019.00,0.0046
3018.00,0.0046
3017.00,0.0047
3016.00,0.0048
3015.00,0.0050
3014.00,0.0051
3013.00,0.0053
3012.00,0.0054
3011.00,0.0056
3010.00,0.0057
3009.00,0.0058
3008.00,0.0060
3007.00,0.0062
3006.00,0.0064
3005.00,0.0066
3004.00,0.0068
3003.00,0.0070
3002.00,0.0072
3001.00,0.0074
3000.00,0.0077
2999.00,0.0080
2998.00,0.0083
2997.00,0.0086
2996.00,0.0089
2995.00,0.0093
2994.00,0.0097
2993.00,0.0101
2992.00,0.0106
2991.00,0.0112
2990.00,0.0118
2989.00,0.0125
2988.00,0.0132
2987.00,0.0140
2986.00,0.0150
2985.00,0.0160
2984.00,0.0173
2983.00,0.0186
2982.00,0.0201
2981.00,0.0217
2980.00,0.0234
2979.00,0.0254
2978.00,0.0276
2977.00,0.0301
2976.00,0.0331
2975.00,0.0365
2974.00,0.0404
2973.00,0.0448
2972.00,0.0498
2971.00,0.0554
2970.00,0.0615
2969.00,0.0682
2968.00,0.0754
2967.00,0.0830
2966.00,0.0909
2965.00,0.0988
2964.00,0.1065
2963.00,0.1135
2962.00,0.1197
2961.00,0.1250
2960.00,0.1295
2959.00,0.1336
2958.00,0.1378
2957.00,0.1426
2956.00,0.1485
2955.00,0.1555
2954.00,0.1634
2953.00,0.1715
2952.00,0.1788
2951.00,0.1841
2950.00,0.1863
2949.00,0.1846
2948.00,0.1789
2947.00,0.1696
2946.00,0.1580
2945.00,0.1455
2944.00,0.1336
2943.00,0.1232
2942.00,0.1151
2941.00,0.1096
2940.00,0.1065
2939.00,0.1056
2938.00,0.1068
2937.00,0.1098
2936.00,0.1145
2935.00,0.1207
2934.00,0.1283
2933.00,0.1372
2932.00,0.1472
2931.00,0.1582
2930.00,0.1700
2929.00,0.1821
2928.00,0.1942
2927.00,0.2063
2926.00,0.2181
2925.00,0.2296
2924.00,0.2410
2923.00,0.2524
2922.00,0.2637
2921.00,0.2746
2920.00,0.2844
2919.00,0.2920
2918.00,0.2963
2917.00,0.2962
2916.00,0.2916
2915.00,0.2831
2914.00,0.2718
2913.00,0.2593
2912.00,0.2467
2911.00,0.2348
2910.00,0.2240
2909.00,0.2143
2908.00,0.2054
2907.00,0.1971
2906.00,0.1892
2905.00,0.1815
2904.00,0.1740
2903.00,0.1666
2902.00,0.1594
2901.00,0.1525
2900.00,0.1460
2899.00,0.1398
2898.00,0.1340
2897.00,0.1287
2896.00,0.1240
2895.00,0.1199
2894.00,0.1165
2893.00,0.1136
2892.00,0.1113
2891.00,0.1096
2890.00,0.1085
2889.00,0.1078
2888.00,0.1075
2887.00,0.1075
2886.00,0.1079
2885.00,0.1087
2884.00,0.1100
2883.00,0.1118
2882.00,0.1141
2881.00,0.1167
2880.00,0.1194
2879.00,0.1219
2878.00,0.1236
2877.00,0.1243
2876.00,0.1242
2875.00,0.1235
2874.00,0.1229
2873.00,0.1227
2872.00,0.1233
2871.00,0.1246
2870.00,0.1263
2869.00,0.1281
2868.00,0.1291
2867.00,0.1287
2866.00,0.1262
2865.00,0.1213
2864.00,0.1145
2863.00,0.1067
2862.00,0.0989
2861.00,0.0919
2860.00,0.0865
2859.00,0.0828
2858.00,0.0806
2857.00,0.0799
2856.00,0.0803
2855.00,0.0815
2854.00,0.0835
2853.00,0.0858
2852.00,0.0882
2851.00,0.0903
2850.00,0.0917
2849.00,0.0925
2848.00,0.0929
2847.00,0.0935
2846.00,0.0947
2845.00,0.0970
2844.00,0.1005
2843.00,0.1049
2842.00,0.1099
2841.00,0.1148
2840.00,0.1189
2839.00,0.1212
2838.00,0.1211
2837.00,0.1180
2836.00,0.1120
2835.00,0.1035
2834.00,0.0933
2833.00,0.0825
2832.00,0.0722
2831.00,0.0630
2830.00,0.0552
2829.00,0.0487
2828.00,0.0436
2827.00,0.0394
2826.00,0.0360
2825.00,0.0332
2824.00,0.0309
2823.00,0.0289
2822.00,0.0272
2821.00,0.0258
2820.00,0.0245
2819.00,0.0234
2818.00,0.0225
2817.00,0.0217
2816.00,0.0209
2815.00,0.0202
2814.00,0.0195
2813.00,0.0189
2812.00,0.0183
2811.00,0.0178
2810.00,0.0173
2809.00,0.0167
2808.00,0.0161
2807.00,0.0155
2806.00,0.0148
2805.00,0.0142
2804.00,0.0135
2803.00,0.0129
2802.00,0.0124
2801.00,0.0119
2800.00,0.0115
2799.00,0.0112
2798.00,0.0109
2797.00,0.0107
2796.00,0.0104
2795.00,0.0102
2794.00,0.0099
2793.00,0.0097
2792.00,0.0094
2791.00,0.0091
2790.00,0.0088
2789.00,0.0085
2788.00,0.0082
2787.00,0.0079
2786.00,0.0077
2785.00,0.0074
2784.00,0.0072
2783.00,0.0070
2782.00,0.0069
2781.00,0.0067
2780.00,0.0065
2779.00,0.0063
2778.00,0.0062
2777.00,0.0060
2776.00,0.0059
2775.00,0.0059
2774.00,0.0058
2773.00,0.0057
2772.00,0.0056
2771.00,0.0056
2770.00,0.0055
2769.00,0.0055
2768.00,0.0054
2767.00,0.0054
2766.00,0.0054
2765.00,0.0054
2764.00,0.0054
2763.00,0.0053
2762.00,0.0053
2761.00,0.0053
2760.00,0.0052
2759.00,0.0052
2758.00,0.0051
2757.00,0.0051
2756.00,0.0051
2755.00,0.0051
2754.00,0.0051
2753.00,0.0051
2752.00,0.0051
2751.00,0.0050
2750.00,0.0050
2749.00,0.0050
2748.00,0.0050
2747.00,0.0050
2746.00,0.0051
2745.00,0.0051
2744.00,0.0051
2743.00,0.0052
2742.00,0.0053
2741.00,0.0054
2740.00,0.0055
2739.00,0.0057
2738.00,0.0058
2737.00,0.0060
2736.00,0.0061
2735.00,0.0062
2734.00,0.0064
2733.00,0.0066
2732.00,0.0068
2731.00,0.0070
2730.00,0.0072
2729.00,0.0074
2728.00,0.0076
2727.00,0.0079
2726.00,0.0082
2725.00,0.0084
2724.00,0.0086
2723.00,0.0086
2722.00,0.0085
2721.00,0.0084
2720.00,0.0081
2719.00,0.0078
2718.00,0.0074
2717.00,0.0071
2716.00,0.0068
2715.00,0.0066
2714.00,0.0064
2713.00,0.0062
2712.00,0.0060
2711.00,0.0057
2710.00,0.0055
2709.00,0.0053
2708.00,0.0051
2707.00,0.0050
2706.00,0.0049
2705.00,0.0048
2704.00,0.0047
2703.00,0.0046
2702.00,0.0046
2701.00,0.0045
2700.00,0.0044
2699.00,0.0043
2698.00,0.0043
2697.00,0.0043
2696.00,0.0043
2695.00,0.0043
2694.00,0.0043
2693.00,0.0043
2692.00,0.0043
2691.00,0.0043
2690.00,0.0043
2689.00,0.0043
2688.00,0.0043
2687.00,0.0042
2686.00,0.0042
2685.00,0.0042
2684.00,0.0042
2683.00,0.0043
2682.00,0.0044
2681.00,0.0044
2680.00,0.0044
2679.00,0.0044
2678.00,0.0044
2677.00,0.0044
2676.00,0.0044
2675.00,0.0044
2674.00,0.0044
2673.00,0.0044
2672.00,0.0043
2671.00,0.0043
2670.00,0.0043
2669.00,0.0043
2668.00,0.0044
2667.00,0.0044
2666.00,0.0044
2665.00,0.0045
2664.00,0.0045
2663.00,0.0045
2662.00,0.0046
2661.00,0.0046
2660.00,0.0047
2659.00,0.0047
2658.00,0.0047
2657.00,0.0046
2656.00,0.0046
2655.00,0.0045
2654.00,0.0044
2653.00,0.0044
2652.00,0.0043
2651.00,0.0043
2650.00,0.0043
2649.00,0.0042
2648.00,0.0042
2647.00,0.0041
2646.00,0.0041
2645.00,0.0040
2644.00,0.0040
2643.00,0.0040
2642.00,0.0040
2641.00,0.0040
2640.00,0.0039
2639.00,0.0039
2638.00,0.0038
2637.00,0.0038
2636.00,0.0038
2635.00,0.0037
2634.00,0.0037
2633.00,0.0037
2632.00,0.0037
2631.00,0.0037
2630.00,0.0036
2629.00,0.0036
2628.00,0.0036
2627.00,0.0037
2626.00,0.0037
2625.00,0.0037
2624.00,0.0038
2623.00,0.0038
2622.00,0.0038
2621.00,0.0039
2620.00,0.0039
2619.00,0.0039
2618.00,0.0039
2617.00,0.0039
2616.00,0.0039
2615.00,0.0039
2614.00,0.0038
2613.00,0.0038
2612.00,0.0038
2611.00,0.0037
2610.00,0.0036
2609.00,0.0035
2608.00,0.0034
2607.00,0.0033
2606.00,0.0033
2605.00,0.0032
2604.00,0.0032
2603.00,0.0032
2602.00,0.0031
2601.00,0.0032
2600.00,0.0032
2599.00,0.0032
2598.00,0.0032
2597.00,0.0032
2596.00,0.0031
2595.00,0.0030
2594.00,0.0030
2593.00,0.0029
2592.00,0.0030
2591.00,0.0031
2590.00,0.0032
2589.00,0.0033
2588.00,0.0035
2587.00,0.0035
2586.00,0.0036
2585.00,0.0036
2584.00,0.0037
2583.00,0.0037
2582.00,0.0037
2581.00,0.0038
2580.00,0.0037
2579.00,0.0036
2578.00,0.0035
2577.00,0.0034
2576.00,0.0033
2575.00,0.0031
2574.00,0.0030
2573.00,0.0029
2572.00,0.0028
2571.00,0.0027
2570.00,0.0026
2569.00,0.0025
2568.00,0.0024
2567.00,0.0024
2566.00,0.0023
2565.00,0.0023
2564.00,0.0023
2563.00,0.0022
2562.00,0.0021
2561.00,0.0021
2560.00,0.0021
2559.00,0.0020
2558.00,0.0020
2557.00,0.0020
2556.00,0.0020
2555.00,0.0020
2554.00,0.0020
2553.00,0.0020
2552.00,0.0020
2551.00,0.0020
2550.00,0.0019
2549.00,0.0018
2548.00,0.0018
2547.00,0.0018
2546.00,0.0018
2545.00,0.0018
2544.00,0.0017
2543.00,0.0017
2542.00,0.0016
2541.00,0.0016
2540.00,0.0016
2539.00,0.0016
2538.00,0.0015
2537.00,0.0015
2536.00,0.0015
2535.00,0.0015
2534.00,0.0015
2533.00,0.0014
2532.00,0.0014
2531.00,0.0013
2530.00,0.0013
2529.00,0.0012
2528.00,0.0012
2527.00,0.0012
2526.00,0.0012
2525.00,0.0013
2524.00,0.0013
2523.00,0.0014
2522.00,0.0014
2521.00,0.0013
2520.00,0.0012
2519.00,0.0011
2518.00,0.0010
2517.00,0.0011
2516.00,0.0011
2515.00,0.0011
2514.00,0.0011
2513.00,0.0010
2512.00,0.0010
2511.00,0.0010
2510.00,0.0010
2509.00,0.0010
2508.00,0.0010
2507.00,0.0009
2506.00,0.0009
2505.00,0.0010
2504.00,0.0010
2503.00,0.0010
2502.00,0.0010
2501.00,0.0009
2500.00,0.0009
2499.00,0.0009
2498.00,0.0009
2497.00,0.0009
2496.00,0.0009
2495.00,0.0008
2494.00,0.0008
2493.00,0.0008
2492.00,0.0008
2491.00,0.0009
2490.00,0.0010
2489.00,0.0010
2488.00,0.0010
2487.00,0.0010
2486.00,0.0009
2485.00,0.0009
2484.00,0.0010
2483.00,0.0009
2482.00,0.0009
2481.00,0.0009
2480.00,0.0009
2479.00,0.0008
2478.00,0.0008
2477.00,0.0008
2476.00,0.0008
2475.00,0.0008
2474.00,0.0008
2473.00,0.0009
2472.00,0.0009
2471.00,0.0009
2470.00,0.0008
2469.00,0.0008
2468.00,0.0007
2467.00,0.0007
2466.00,0.0007
2465.00,0.0007
2464.00,0.0007
2463.00,0.0007
2462.00,0.0007
2461.00,0.0008
2460.00,0.0009
2459.00,0.0009
2458.00,0.0010
2457.00,0.0010
2456.00,0.0010
2455.00,0.0011
2454.00,0.0011
2453.00,0.0011
2452.00,0.0010
2451.00,0.0009
2450.00,0.0009
2449.00,0.0009
2448.00,0.0008
2447.00,0.0008
2446.00,0.0008
2445.00,0.0009
2444.00,0.0009
2443.00,0.0009
2442.00,0.0009
2441.00,0.0009
2440.00,0.0008
2439.00,0.0008
2438.00,0.0007
2437.00,0.0008
2436.00,0.0008
2435.00,0.0010
2434.00,0.0011
2433.00,0.0011
2432.00,0.0010
2431.00,0.0010
2430.00,0.0009
2429.00,0.0009
2428.00,0.0009
2427.00,0.0010
2426.00,0.0009
2425.00,0.0009
2424.00,0.0009
2423.00,0.0009
2422.00,0.0009
2421.00,0.0009
2420.00,0.0009
2419.00,0.0008
2418.00,0.0008
2417.00,0.0008
2416.00,0.0007
2415.00,0.0007
2414.00,0.0007
2413.00,0.0007
2412.00,0.0007
2411.00,0.0007
2410.00,0.0007
2409.00,0.0008
2408.00,0.0008
2407.00,0.0007
2406.00,0.0007
2405.00,0.0007
2404.00,0.0007
2403.00,0.0006
2402.00,0.0006
2401.00,0.0006
2400.00,0.0006
2399.00,0.0006
2398.00,0.0007
2397.00,0.0007
2396.00,0.0007
2395.00,0.0006
2394.00,0.0006
2393.00,0.0006
2392.00,0.0006
2391.00,0.0006
2390.00,0.0006
2389.00,0.0006
2388.00,0.0005
2387.00,0.0005
2386.00,0.0004
2385.00,0.0003
2384.00,0.0003
2383.00,0.0002
2382.00,0.0001
2381.00,0.0000
2380.00,-0.0000
2379.00,-0.0001
2378.00,-0.0001
2377.00,-0.0001
2376.00,-0.0001
2375.00,-0.0001
2374.00,-0.0001
2373.00,-0.0001
2372.00,-0.0000
2371.00,0.0000
2370.00,0.0000
2369.00,-0.0000
2368.00,-0.0001
2367.00,-0.0002
2366.00,-0.0003
2365.00,-0.0002
2364.00,-0.0001
2363.00,-0.0001
2362.00,-0.0001
2361.00,-0.0001
2360.00,-0.0001
2359.00,-0.0001
2358.00,-0.0001
2357.00,-0.0000
2356.00,-0.0000
2355.00,-0.0000
2354.00,-0.0000
2353.00,-0.0000
2352.00,0.0000
2351.00,0.0000
2350.00,0.0000
2349.00,0.0000
2348.00,0.0000
2347.00,0.0001
2346.00,0.0001
2345.00,0.0002
2344.00,0.0002
2343.00,0.0003
2342.00,0.0003
2341.00,0.0003
2340.00,0.0003
2339.00,0.0004
2338.00,0.0004
2337.00,0.0004
2336.00,0.0005
2335.00,0.0005
2334.00,0.0005
2333.00,0.0005
2332.00,0.0004
2331.00,0.0004
2330.00,0.0004
2329.00,0.0005
2328.00,0.0006
2327.00,0.0009
2326.00,0.0013
2325.00,0.0016
2324.00,0.0017
2323.00,0.0017
2322.00,0.0015
2321.00,0.0013
2320.00,0.0013
2319.00,0.0012
2318.00,0.0012
2317.00,0.0011
2316.00,0.0010
2315.00,0.0009
2314.00,0.0009
2313.00,0.0008
2312.00,0.0008
2311.00,0.0008
2310.00,0.0008
2309.00,0.0008
2308.00,0.0009
2307.00,0.0009
2306.00,0.0010
2305.00,0.0010
2304.00,0.0010
2303.00,0.0010
2302.00,0.0010
2301.00,0.0010
2300.00,0.0011
2299.00,0.0011
2298.00,0.0011
2297.00,0.0011
2296.00,0.0012
2295.00,0.0012
2294.00,0.0012
2293.00,0.0013
2292.00,0.0014
2291.00,0.0014
2290.00,0.0015
2289.00,0.0015
2288.00,0.0015
2287.00,0.0015
2286.00,0.0016
2285.00,0.0017
2284.00,0.0018
2283.00,0.0018
2282.00,0.0017
2281.00,0.0017
2280.00,0.0015
2279.00,0.0014
2278.00,0.0013
2277.00,0.0012
2276.00,0.0013
2275.00,0.0013
2274.00,0.0013
2273.00,0.0013
2272.00,0.0013
2271.00,0.0013
2270.00,0.0013
2269.00,0.0013
2268.00,0.0013
2267.00,0.0011
2266.00,0.0010
2265.00,0.0010
2264.00,0.0010
2263.00,0.0010
2262.00,0.0010
2261.00,0.0010
2260.00,0.0010
2259.00,0.0010
2258.00,0.0009
2257.00,0.0009
2256.00,0.0008
2255.00,0.0008
2254.00,0.0007
2253.00,0.0007
2252.00,0.0007
2251.00,0.0007
2250.00,0.0007
2249.00,0.0006
2248.00,0.0006
2247.00,0.0006
2246.00,0.0006
2245.00,0.0006
2244.00,0.0006
2243.00,0.0007
2242.00,0.0007
2241.00,0.0009
2240.00,0.0010
2239.00,0.0011
2238.00,0.0012
2237.00,0.0012
2236.00,0.0012
2235.00,0.0010
2234.00,0.0008
2233.00,0.0008
2232.00,0.0009
2231.00,0.0010
2230.00,0.0010
2229.00,0.0009
2228.00,0.0008
2227.00,0.0006
2226.00,0.0005
2225.00,0.0005
2224.00,0.0005
2223.00,0.0006
2222.00,0.0006
2221.00,0.0006
2220.00,0.0005
2219.00,0.0004
2218.00,0.0004
2217.00,0.0004
2216.00,0.0005
2215.00,0.0005
2214.00,0.0006
2213.00,0.0007
2212.00,0.0008
2211.00,0.0008
2210.00,0.0007
2209.00,0.0005
2208.00,0.0002
2207.00,0.0001
2206.00,0.0001
2205.00,0.0001
2204.00,0.0002
2203.00,0.0002
2202.00,0.0002
2201.00,0.0004
2200.00,0.0005
2199.00,0.0006
2198.00,0.0007
2197.00,0.0008
2196.00,0.0009
2195.00,0.0008
2194.00,0.0006
2193.00,0.0005
2192.00,0.0004
2191.00,0.0004
2190.00,0.0005
2189.00,0.0006
2188.00,0.0008
2187.00,0.0009
2186.00,0.0011
2185.00,0.0011
2184.00,0.0010
2183.00,0.0008
2182.00,0.0005
2181.00,0.0004
2180.00,0.0004
2179.00,0.0002
2178.00,-0.0002
2177.00,-0.0007
2176.00,-0.0010
2175.00,-0.0009
2174.00,-0.0006
2173.00,-0.0002
2172.00,0.0002
2171.00,0.0007
2170.00,0.0012
2169.00,0.0016
2168.00,0.0018
2167.00,0.0017
2166.00,0.0016
2165.00,0.0015
2164.00,0.0016
2163.00,0.0017
2162.00,0.0017
2161.00,0.0010
2160.00,-0.0002
2159.00,-0.0018
2158.00,-0.0031
2157.00,-0.0036
2156.00,-0.0034
2155.00,-0.0029
2154.00,-0.0023
2153.00,-0.0019
2152.00,-0.0017
2151.00,-0.0015
2150.00,-0.0013
2149.00,-0.0012
2148.00,-0.0012
2147.00,-0.0012
2146.00,-0.0013
2145.00,-0.0013
2144.00,-0.0013
2143.00,-0.0014
2142.00,-0.0015
2141.00,-0.0016
2140.00,-0.0016
2139.00,-0.0016
2138.00,-0.0018
2137.00,-0.0020
2136.00,-0.0022
2135.00,-0.0024
2134.00,-0.0024
2133.00,-0.0023
2132.00,-0.0020
2131.00,-0.0017
2130.00,-0.0013
2129.00,-0.0010
2128.00,-0.0008
2127.00,-0.0008
2126.00,-0.0008
2125.00,-0.0009
2124.00,-0.0009
2123.00,-0.0009
2122.00,-0.0008
2121.00,-0.0007
2120.00,-0.0005
2119.00,-0.0003
2118.00,-0.0001
2117.00,-0.0000
2116.00,0.0000
2115.00,0.0000
2114.00,0.0000
2113.00,0.0000
2112.00,0.0000
2111.00,0.0001
2110.00,0.0001
2109.00,0.0000
2108.00,0.0000
2107.00,0.0000
2106.00,0.0001
2105.00,0.0002
2104.00,0.0001
2103.00,0.0000
2102.00,0.0000
2101.00,0.0001
2100.00,0.0001
2099.00,0.0001
2098.00,0.0001
2097.00,-0.0000
2096.00,-0.0002
2095.00,-0.0003
2094.00,-0.0003
2093.00,-0.0003
2092.00,-0.0002
2091.00,-0.0001
2090.00,-0.0001
2089.00,0.0000
2088.00,0.0001
2087.00,0.0001
2086.00,0.0001
2085.00,0.0001
2084.00,0.0001
2083.00,0.0001
2082.00,0.0002
2081.00,0.0003
2080.00,0.0004
2079.00,0.0004
2078.00,0.0004
2077.00,0.0002
2076.00,0.0001
2075.00,-0.0001
2074.00,-0.0000
2073.00,0.0002
2072.00,0.0003
2071.00,0.0004
2070.00,0.0003
2069.00,0.0001
2068.00,-0.0000
2067.00,-0.0001
2066.00,-0.0002
2065.00,-0.0002
2064.00,-0.0002
2063.00,-0.0003
2062.00,-0.0003
2061.00,-0.0003
2060.00,-0.0001
2059.00,0.0001
2058.00,0.0004
2057.00,0.0007
2056.00,0.0007
2055.00,0.0006
2054.00,0.0006
2053.00,0.0008
2052.00,0.0010
2051.00,0.0012
2050.00,0.0011
2049.00,0.0007
2048.00,0.0004
2047.00,0.0002
2046.00,0.0001
2045.00,0.0002
2044.00,0.0003
2043.00,0.0002
2042.00,0.0000
2041.00,-0.0002
2040.00,-0.0002
2039.00,-0.0001
2038.00,-0.0001
2037.00,-0.0001
2036.00,-0.0002
2035.00,-0.0005
2034.00,-0.0008
2033.00,-0.0010
2032.00,-0.0010
2031.00,-0.0009
2030.00,-0.0008
2029.00,-0.0008
2028.00,-0.0008
2027.00,-0.0009
2026.00,-0.0009
2025.00,-0.0008
2024.00,-0.0008
2023.00,-0.0008
2022.00,-0.0010
2021.00,-0.0011
2020.00,-0.0012
2019.00,-0.0012
2018.00,-0.0010
2017.00,-0.0007
2016.00,-0.0004
2015.00,-0.0002
2014.00,-0.0003
2013.00,-0.0005
2012.00,-0.0006
2011.00,-0.0006
2010.00,-0.0007
2009.00,-0.0010
2008.00,-0.0014
2007.00,-0.0018
2006.00,-0.0019
2005.00,-0.0017
2004.00,-0.0015
2003.00,-0.0014
2002.00,-0.0014
2001.00,-0.0013
2000.00,-0.0012
1999.00,-0.0011
1998.00,-0.0012
1997.00,-0.0012
1996.00,-0.0014
1995.00,-0.0014
1994.00,-0.0013
1993.00,-0.0010
1992.00,-0.0006
1991.00,-0.0004
1990.00,-0.0002
1989.00,-0.0000
1988.00,-0.0000
1987.00,-0.0001
1986.00,-0.0001
1985.00,0.0001
1984.00,0.0006
1983.00,0.0011
1982.00,0.0012
1981.00,0.0011
1980.00,0.0007
1979.00,0.0001
1978.00,-0.0005
1977.00,-0.0011
1976.00,-0.0014
1975.00,-0.0015
1974.00,-0.0013
1973.00,-0.0012
1972.00,-0.0011
1971.00,-0.0012
1970.00,-0.0014
1969.00,-0.0016
1968.00,-0.0016
1967.00,-0.0015
1966.00,-0.0014
1965.00,-0.0014
1964.00,-0.0014
1963.00,-0.0015
1962.00,-0.0016
1961.00,-0.0016
1960.00,-0.0018
1959.00,-0.0020
1958.00,-0.0022
1957.00,-0.0022
1956.00,-0.0020
1955.00,-0.0017
1954.00,-0.0015
1953.00,-0.0013
1952.00,-0.0013
1951.00,-0.0014
1950.00,-0.0015
1949.00,-0.0015
1948.00,-0.0014
1947.00,-0.0012
1946.00,-0.0010
1945.00,-0.0009
1944.00,-0.0009
1943.00,-0.0011
1942.00,-0.0011
1941.00,-0.0011
1940.00,-0.0009
1939.00,-0.0009
1938.00,-0.0009
1937.00,-0.0010
1936.00,-0.0010
1935.00,-0.0010
1934.00,-0.0009
1933.00,-0.0009
1932.00,-0.0008
1931.00,-0.0008
1930.00,-0.0009
1929.00,-0.0009
1928.00,-0.0009
1927.00,-0.0008
1926.00,-0.0007
1925.00,-0.0005
1924.00,-0.0004
1923.00,-0.0004
1922.00,-0.0004
1921.00,-0.0004
1920.00,-0.0004
1919.00,-0.0004
1918.00,-0.0004
1917.00,-0.0004
1916.00,-0.0004
1915.00,-0.0005
1914.00,-0.0005
1913.00,-0.0005
1912.00,-0.0004
1911.00,-0.0003
1910.00,-0.0002
1909.00,-0.0001
1908.00,-0.0001
1907.00,-0.0001
1906.00,-0.0001
1905.00,-0.0001
1904.00,-0.0000
1903.00,-0.0001
1902.00,-0.0001
1901.00,-0.0001
1900.00,-0.0001
1899.00,-0.0001
1898.00,-0.0001
1897.00,-0.0002
1896.00,-0.0002
1895.00,-0.0001
1894.00,-0.0001
1893.00,-0.0000
1892.00,0.0000
1891.00,-0.0000
1890.00,-0.0001
1889.00,-0.0002
1888.00,-0.0003
1887.00,-0.0003
1886.00,-0.0002
1885.00,-0.0002
1884.00,-0.0002
1883.00,-0.0001
1882.00,-0.0001
1881.00,-0.0000
1880.00,0.0000
1879.00,-0.0000
1878.00,-0.0001
1877.00,-0.0001
1876.00,-0.0001
1875.00,-0.0001
1874.00,-0.0001
1873.00,-0.0001
1872.00,-0.0001
1871.00,-0.0001
1870.00,-0.0001
1869.00,-0.0001
1868.00,-0.0001
1867.00,-0.0002
1866.00,-0.0002
1865.00,-0.0002
1864.00,-0.0001
1863.00,-0.0000
1862.00,0.0000
1861.00,0.0001
1860.00,0.0001
1859.00,-0.0000
1858.00,-0.0001
1857.00,-0.0000
1856.00,0.0000
1855.00,0.0001
1854.00,0.0001
1853.00,-0.0000
1852.00,-0.0001
1851.00,-0.0001
1850.00,-0.0001
1849.00,-0.0001
1848.00,-0.0000
1847.00,-0.0000
1846.00,-0.0000
1845.00,-0.0001
1844.00,-0.0001
1843.00,-0.0001
1842.00,-0.0001
1841.00,-0.0001
1840.00,-0.0001
1839.00,-0.0001
1838.00,-0.0000
1837.00,0.0001
1836.00,0.0002
1835.00,0.0002
1834.00,0.0003
1833.00,0.0003
1832.00,0.0003
1831.00,0.0002
1830.00,0.0003
1829.00,0.0003
1828.00,0.0003
1827.00,0.0003
1826.00,0.0003
1825.00,0.0003
1824.00,0.0003
1823.00,0.0003
1822.00,0.0002
1821.00,0.0001
1820.00,0.0001
1819.00,0.0001
1818.00,0.0000
1817.00,0.0000
1816.00,0.0000
1815.00,0.0000
1814.00,0.0000
1813.00,0.0001
1812.00,0.0001
1811.00,0.0002
1810.00,0.0002
1809.00,0.0003
1808.00,0.0003
1807.00,0.0003
1806.00,0.0003
1805.00,0.0003
1804.00,0.0003
1803.00,0.0004
1802.00,0.0004
1801.00,0.0005
1800.00,0.0006
1799.00,0.0006
1798.00,0.0006
1797.00,0.0005
1796.00,0.0005
1795.00,0.0005
1794.00,0.0005
1793.00,0.0005
1792.00,0.0005
1791.00,0.0006
1790.00,0.0006
1789.00,0.0006
1788.00,0.0007
1787.00,0.0007
1786.00,0.0007
1785.00,0.0007
1784.00,0.0006
1783.00,0.0005
1782.00,0.0005
1781.00,0.0005
1780.00,0.0006
1779.00,0.0006
1778.00,0.0006
1777.00,0.0007
1776.00,0.0007
1775.00,0.0007
1774.00,0.0007
1773.00,0.0007
1772.00,0.0008
1771.00,0.0008
1770.00,0.0008
1769.00,0.0009
1768.00,0.0010
1767.00,0.0010
1766.00,0.0010
1765.00,0.0010
1764.00,0.0010
1763.00,0.0010
1762.00,0.0010
1761.00,0.0011
1760.00,0.0011
1759.00,0.0011
1758.00,0.0010
1757.00,0.0010
1756.00,0.0010
1755.00,0.0010
1754.00,0.0010
1753.00,0.0010
1752.00,0.0010
1751.00,0.0011
1750.00,0.0011
1749.00,0.0011
1748.00,0.0012
1747.00,0.0012
1746.00,0.0012
1745.00,0.0012
1744.00,0.0012
1743.00,0.0012
1742.00,0.0012
1741.00,0.0012
1740.00,0.0012
1739.00,0.0013
1738.00,0.0013
1737.00,0.0013
1736.00,0.0014
1735.00,0.0014
1734.00,0.0014
1733.00,0.0015
1732.00,0.0016
1731.00,0.0016
1730.00,0.0017
1729.00,0.0018
1728.00,0.0019
1727.00,0.0019
1726.00,0.0020
1725.00,0.0020
1724.00,0.0020
1723.00,0.0020
1722.00,0.0020
1721.00,0.0020
1720.00,0.0020
1719.00,0.0019
1718.00,0.0018
1717.00,0.0019
1716.00,0.0021
1715.00,0.0021
1714.00,0.0021
1713.00,0.0021
1712.00,0.0021
1711.00,0.0021
1710.00,0.0021
1709.00,0.0021
1708.00,0.0021
1707.00,0.0021
1706.00,0.0022
1705.00,0.0023
1704.00,0.0024
1703.00,0.0025
1702.00,0.0025
1701.00,0.0025
1700.00,0.0026
1699.00,0.0026
1698.00,0.0026
1697.00,0.0026
1696.00,0.0027
1695.00,0.0028
1694.00,0.0029
1693.00,0.0029
1692.00,0.0029
1691.00,0.0030
1690.00,0.0030
1689.00,0.0031
1688.00,0.0031
1687.00,0.0032
1686.00,0.0033
1685.00,0.0035
1684.00,0.0036
1683.00,0.0038
1682.00,0.0038
1681.00,0.0039
1680.00,0.0039
1679.00,0.0040
1678.00,0.0040
1677.00,0.0041
1676.00,0.0042
1675.00,0.0043
1674.00,0.0044
1673.00,0.0044
1672.00,0.0045
1671.00,0.0045
1670.00,0.0045
1669.00,0.0046
1668.00,0.0047
1667.00,0.0048
1666.00,0.0048
1665.00,0.0049
1664.00,0.0050
1663.00,0.0050
1662.00,0.0052
1661.00,0.0053
1660.00,0.0054
1659.00,0.0055
1658.00,0.0055
1657.00,0.0056
1656.00,0.0056
1655.00,0.0057
1654.00,0.0060
1653.00,0.0067
1652.00,0.0075
1651.00,0.0079
1650.00,0.0082
1649.00,0.0087
1648.00,0.0092
1647.00,0.0096
1646.00,0.0097
1645.00,0.0096
1644.00,0.0093
1643.00,0.0089
1642.00,0.0086
1641.00,0.0082
1640.00,0.0079
1639.00,0.0077
1638.00,0.0075
1637.00,0.0074
1636.00,0.0073
1635.00,0.0072
1634.00,0.0072
1633.00,0.0072
1632.00,0.0073
1631.00,0.0073
1630.00,0.0073
1629.00,0.0072
1628.00,0.0071
1627.00,0.0070
1626.00,0.0069
1625.00,0.0067
1624.00,0.0065
1623.00,0.0063
1622.00,0.0060
1621.00,0.0059
1620.00,0.0058
1619.00,0.0058
1618.00,0.0057
1617.00,0.0057
1616.00,0.0057
1615.00,0.0056
1614.00,0.0056
1613.00,0.0056
1612.00,0.0056
1611.00,0.0055
1610.00,0.0055
1609.00,0.0054
1608.00,0.0055
1607.00,0.0055
1606.00,0.0054
1605.00,0.0054
1604.00,0.0054
1603.00,0.0054
1602.00,0.0054
1601.00,0.0054
1600.00,0.0054
1599.00,0.0054
1598.00,0.0053
1597.00,0.0053
1596.00,0.0053
1595.00,0.0053
1594.00,0.0052
1593.00,0.0052
1592.00,0.0052
1591.00,0.0052
1590.00,0.0052
1589.00,0.0051
1588.00,0.0052
1587.00,0.0052
1586.00,0.0053
1585.00,0.0053
1584.00,0.0053
1583.00,0.0054
1582.00,0.0054
1581.00,0.0055
1580.00,0.0056
1579.00,0.0057
1578.00,0.0058
1577.00,0.0058
1576.00,0.0059
1575.00,0.0059
1574.00,0.0058
1573.00,0.0058
1572.00,0.0058
1571.00,0.0058
1570.00,0.0058
1569.00,0.0058
1568.00,0.0058
1567.00,0.0059
1566.00,0.0059
1565.00,0.0059
1564.00,0.0059
1563.00,0.0059
1562.00,0.0059
1561.00,0.0059
1560.00,0.0059
1559.00,0.0060
1558.00,0.0060
1557.00,0.0060
1556.00,0.0060
1555.00,0.0061
1554.00,0.0061
1553.00,0.0062
1552.00,0.0062
1551.00,0.0063
1550.00,0.0063
1549.00,0.0063
1548.00,0.0063
1547.00,0.0064
1546.00,0.0064
1545.00,0.0065
1544.00,0.0067
1543.00,0.0067
1542.00,0.0066
1541.00,0.0065
1540.00,0.0065
1539.00,0.0065
1538.00,0.0064
1537.00,0.0063
1536.00,0.0061
1535.00,0.0059
1534.00,0.0057
1533.00,0.0056
1532.00,0.0055
1531.00,0.0054
1530.00,0.0054
1529.00,0.0053
1528.00,0.0053
1527.00,0.0053
1526.00,0.0053
1525.00,0.0053
1524.00,0.0054
1523.00,0.0053
1522.00,0.0053
1521.00,0.0053
1520.00,0.0054
1519.00,0.0054
1518.00,0.0053
1517.00,0.0053
1516.00,0.0053
1515.00,0.0053
1514.00,0.0053
1513.00,0.0053
1512.00,0.0054
1511.00,0.0054
1510.00,0.0054
1509.00,0.0055
1508.00,0.0058
1507.00,0.0059
1506.00,0.0061
1505.00,0.0062
1504.00,0.0063
1503.00,0.0064
1502.00,0.0064
1501.00,0.0066
1500.00,0.0069
1499.00,0.0071
1498.00,0.0073
1497.00,0.0077
1496.00,0.0082
1495.00,0.0085
1494.00,0.0088
1493.00,0.0091
1492.00,0.0094
1491.00,0.0097
1490.00,0.0100
1489.00,0.0104
1488.00,0.0110
1487.00,0.0114
1486.00,0.0119
1485.00,0.0125
1484.00,0.0132
1483.00,0.0139
1482.00,0.0147
1481.00,0.0157
1480.00,0.0169
1479.00,0.0181
1478.00,0.0196
1477.00,0.0216
1476.00,0.0242
1475.00,0.0273
1474.00,0.0315
1473.00,0.0376
1472.00,0.0448
1471.00,0.0517
1470.00,0.0581
1469.00,0.0648
1468.00,0.0719
1467.00,0.0797
1466.00,0.0886
1465.00,0.0983
1464.00,0.1068
1463.00,0.1125
1462.00,0.1160
1461.00,0.1182
1460.00,0.1194
1459.00,0.1200
1458.00,0.1203
1457.00,0.1202
1456.00,0.1193
1455.00,0.1178
1454.00,0.1160
1453.00,0.1137
1452.00,0.1104
1451.00,0.1062
1450.00,0.1007
1449.00,0.0933
1448.00,0.0842
1447.00,0.0748
1446.00,0.0666
1445.00,0.0597
1444.00,0.0539
1443.00,0.0492
1442.00,0.0456
1441.00,0.0432
1440.00,0.0419
1439.00,0.0415
1438.00,0.0419
1437.00,0.0425
1436.00,0.0419
1435.00,0.0396
1434.00,0.0361
1433.00,0.0318
1432.00,0.0273
1431.00,0.0233
1430.00,0.0201
1429.00,0.0179
1428.00,0.0164
1427.00,0.0155
1426.00,0.0149
1425.00,0.0143
1424.00,0.0139
1423.00,0.0136
1422.00,0.0135
1421.00,0.0133
1420.00,0.0130
1419.00,0.0128
1418.00,0.0126
1417.00,0.0123
1416.00,0.0120
1415.00,0.0117
1414.00,0.0116
1413.00,0.0114
1412.00,0.0112
1411.00,0.0111
1410.00,0.0110
1409.00,0.0109
1408.00,0.0107
1407.00,0.0108
1406.00,0.0109
1405.00,0.0109
1404.00,0.0109
1403.00,0.0110
1402.00,0.0111
1401.00,0.0112
1400.00,0.0113
1399.00,0.0115
1398.00,0.0118
1397.00,0.0120
1396.00,0.0122
1395.00,0.0126
1394.00,0.0131
1393.00,0.0136
1392.00,0.0141
1391.00,0.0149
1390.00,0.0159
1389.00,0.0173
1388.00,0.0193
1387.00,0.0224
1386.00,0.0266
1385.00,0.0322
1384.00,0.0401
1383.00,0.0513
1382.00,0.0667
1381.00,0.0870
1380.00,0.1124
1379.00,0.1416
1378.00,0.1699
1377.00,0.1906
1376.00,0.1977
1375.00,0.1874
1374.00,0.1630
1373.00,0.1337
1372.00,0.1072
1371.00,0.0856
1370.00,0.0685
1369.00,0.0556
1368.00,0.0467
1367.00,0.0412
1366.00,0.0382
1365.00,0.0370
1364.00,0.0373
1363.00,0.0387
1362.00,0.0409
1361.00,0.0433
1360.00,0.0451
1359.00,0.0457
1358.00,0.0447
1357.00,0.0422
1356.00,0.0385
1355.00,0.0343
1354.00,0.0303
1353.00,0.0269
1352.00,0.0241
1351.00,0.0218
1350.00,0.0200
1349.00,0.0184
1348.00,0.0172
1347.00,0.0162
1346.00,0.0153
1345.00,0.0146
1344.00,0.0140
1343.00,0.0134
1342.00,0.0130
1341.00,0.0125
1340.00,0.0122
1339.00,0.0119
1338.00,0.0117
1337.00,0.0117
1336.00,0.0118
1335.00,0.0120
1334.00,0.0123
1333.00,0.0127
1332.00,0.0132
1331.00,0.0136
1330.00,0.0138
1329.00,0.0137
1328.00,0.0133
1327.00,0.0128
1326.00,0.0122
1325.00,0.0116
1324.00,0.0110
1323.00,0.0105
1322.00,0.0101
1321.00,0.0098
1320.00,0.0095
1319.00,0.0093
1318.00,0.0091
1317.00,0.0090
1316.00,0.0089
1315.00,0.0088
1314.00,0.0088
1313.00,0.0089
1312.00,0.0090
1311.00,0.0091
1310.00,0.0093
1309.00,0.0098
1308.00,0.0104
1307.00,0.0113
1306.00,0.0122
1305.00,0.0128
1304.00,0.0131
1303.00,0.0130
1302.00,0.0128
1301.00,0.0126
1300.00,0.0125
1299.00,0.0125
1298.00,0.0126
1297.00,0.0127
1296.00,0.0127
1295.00,0.0125
1294.00,0.0122
1293.00,0.0117
1292.00,0.0112
1291.00,0.0107
1290.00,0.0102
1289.00,0.0098
1288.00,0.0094
1287.00,0.0092
1286.00,0.0090
1285.00,0.0088
1284.00,0.0086
1283.00,0.0084
1282.00,0.0082
1281.00,0.0080
1280.00,0.0079
1279.00,0.0079
1278.00,0.0079
1277.00,0.0079
1276.00,0.0079
1275.00,0.0079
1274.00,0.0079
1273.00,0.0079
1272.00,0.0080
1271.00,0.0081
1270.00,0.0083
1269.00,0.0086
1268.00,0.0089
1267.00,0.0093
1266.00,0.0097
1265.00,0.0100
1264.00,0.0103
1263.00,0.0106
1262.00,0.0108
1261.00,0.0111
1260.00,0.0115
1259.00,0.0118
1258.00,0.0122
1257.00,0.0125
1256.00,0.0125
1255.00,0.0122
1254.00,0.0117
1253.00,0.0110
1252.00,0.0104
1251.00,0.0099
1250.00,0.0095
1249.00,0.0092
1248.00,0.0089
1247.00,0.0087
1246.00,0.0086
1245.00,0.0084
1244.00,0.0082
1243.00,0.0081
1242.00,0.0080
1241.00,0.0080
1240.00,0.0079
1239.00,0.0078
1238.00,0.0077
1237.00,0.0076
1236.00,0.0075
1235.00,0.0075
1234.00,0.0076
1233.00,0.0077
1232.00,0.0077
1231.00,0.0078
1230.00,0.0078
1229.00,0.0079
1228.00,0.0080
1227.00,0.0082
1226.00,0.0084
1225.00,0.0087
1224.00,0.0091
1223.00,0.0094
1222.00,0.0098
1221.00,0.0101
1220.00,0.0103
1219.00,0.0104
1218.00,0.0103
1217.00,0.0101
1216.00,0.0098
1215.00,0.0094
1214.00,0.0090
1213.00,0.0087
1212.00,0.0084
1211.00,0.0081
1210.00,0.0079
1209.00,0.0078
1208.00,0.0077
1207.00,0.0077
1206.00,0.0076
1205.00,0.0075
1204.00,0.0074
1203.00,0.0074
1202.00,0.0073
1201.00,0.0074
1200.00,0.0073
1199.00,0.0073
1198.00,0.0073
1197.00,0.0073
1196.00,0.0073
1195.00,0.0073
1194.00,0.0074
1193.00,0.0074
1192.00,0.0074
1191.00,0.0074
1190.00,0.0073
1189.00,0.0073
1188.00,0.0073
1187.00,0.0074
1186.00,0.0074
1185.00,0.0075
1184.00,0.0075
1183.00,0.0076
1182.00,0.0077
1181.00,0.0078
1180.00,0.0081
1179.00,0.0085
1178.00,0.0090
1177.00,0.0096
1176.00,0.0104
1175.00,0.0115
1174.00,0.0130
1173.00,0.0149
1172.00,0.0171
1171.00,0.0195
1170.00,0.0218
1169.00,0.0237
1168.00,0.0249
1167.00,0.0252
1166.00,0.0248
1165.00,0.0240
1164.00,0.0230
1163.00,0.0219
1162.00,0.0210
1161.00,0.0203
1160.00,0.0197
1159.00,0.0193
1158.00,0.0191
1157.00,0.0190
1156.00,0.0190
1155.00,0.0191
1154.00,0.0191
1153.00,0.0189
1152.00,0.0185
1151.00,0.0180
1150.00,0.0173
1149.00,0.0164
1148.00,0.0155
1147.00,0.0146
1146.00,0.0138
1145.00,0.0131
1144.00,0.0124
1143.00,0.0118
1142.00,0.0111
1141.00,0.0105
1140.00,0.0101
1139.00,0.0097
1138.00,0.0094
1137.00,0.0091
1136.00,0.0089
1135.00,0.0088
1134.00,0.0086
1133.00,0.0086
1132.00,0.0086
1131.00,0.0086
1130.00,0.0086
1129.00,0.0086
1128.00,0.0086
1127.00,0.0087
1126.00,0.0088
1125.00,0.0089
1124.00,0.0091
1123.00,0.0092
1122.00,0.0094
1121.00,0.0095
1120.00,0.0096
1119.00,0.0097
1118.00,0.0097
1117.00,0.0097
1116.00,0.0098
1115.00,0.0100
1114.00,0.0101
1113.00,0.0104
1112.00,0.0106
1111.00,0.0109
1110.00,0.0113
1109.00,0.0117
1108.00,0.0122
1107.00,0.0128
1106.00,0.0135
1105.00,0.0142
1104.00,0.0147
1103.00,0.0151
1102.00,0.0151
1101.00,0.0147
1100.00,0.0141
1099.00,0.0134
1098.00,0.0127
1097.00,0.0121
1096.00,0.0116
1095.00,0.0112
1094.00,0.0109
1093.00,0.0106
1092.00,0.0103
1091.00,0.0101
1090.00,0.0100
1089.00,0.0100
1088.00,0.0100
1087.00,0.0099
1086.00,0.0098
1085.00,0.0098
1084.00,0.0098
1083.00,0.0098
1082.00,0.0097
1081.00,0.0096
1080.00,0.0095
1079.00,0.0093
1078.00,0.0092
1077.00,0.0090
1076.00,0.0089
1075.00,0.0088
1074.00,0.0087
1073.00,0.0086
1072.00,0.0085
1071.00,0.0085
1070.00,0.0084
1069.00,0.0084
1068.00,0.0084
1067.00,0.0084
1066.00,0.0085
1065.00,0.0085
1064.00,0.0085
1063.00,0.0085
1062.00,0.0084
1061.00,0.0083
1060.00,0.0083
1059.00,0.0082
1058.00,0.0082
1057.00,0.0083
1056.00,0.0083
1055.00,0.0084
1054.00,0.0084
1053.00,0.0085
1052.00,0.0086
1051.00,0.0087
1050.00,0.0089
1049.00,0.0091
1048.00,0.0094
1047.00,0.0095
1046.00,0.0096
1045.00,0.0097
1044.00,0.0097
1043.00,0.0097
1042.00,0.0097
1041.00,0.0096
1040.00,0.0095
1039.00,0.0095
1038.00,0.0095
1037.00,0.0096
1036.00,0.0096
1035.00,0.0096
1034.00,0.0095
1033.00,0.0094
1032.00,0.0092
1031.00,0.0091
1030.00,0.0090
1029.00,0.0089
1028.00,0.0088
1027.00,0.0088
1026.00,0.0087
1025.00,0.0087
1024.00,0.0086
1023.00,0.0086
1022.00,0.0086
1021.00,0.0086
1020.00,0.0087
1019.00,0.0088
1018.00,0.0090
1017.00,0.0091
1016.00,0.0092
1015.00,0.0093
1014.00,0.0094
1013.00,0.0095
1012.00,0.0095
1011.00,0.0096
1010.00,0.0097
1009.00,0.0100
1008.00,0.0104
1007.00,0.0109
1006.00,0.0115
1005.00,0.0122
1004.00,0.0132
1003.00,0.0148
1002.00,0.0170
1001.00,0.0197
1000.00,0.0226
999.00,0.0249
998.00,0.0259
997.00,0.0253
996.00,0.0233
995.00,0.0205
994.00,0.0176
993.00,0.0151
992.00,0.0132
991.00,0.0119
990.00,0.0110
989.00,0.0104
988.00,0.0100
987.00,0.0098
986.00,0.0098
985.00,0.0100
984.00,0.0103
983.00,0.0109
982.00,0.0119
981.00,0.0132
980.00,0.0151
979.00,0.0176
978.00,0.0206
977.00,0.0241
976.00,0.0277
975.00,0.0308
974.00,0.0329
973.00,0.0333
972.00,0.0318
971.00,0.0288
970.00,0.0251
969.00,0.0214
968.00,0.0182
967.00,0.0157
966.00,0.0139
965.00,0.0125
964.00,0.0115
963.00,0.0108
962.00,0.0103
961.00,0.0099
960.00,0.0097
959.00,0.0095
958.00,0.0093
957.00,0.0090
956.00,0.0087
955.00,0.0084
954.00,0.0081
953.00,0.0080
952.00,0.0078
951.00,0.0078
950.00,0.0078
949.00,0.0078
948.00,0.0078
947.00,0.0078
946.00,0.0080
945.00,0.0083
944.00,0.0086
943.00,0.0091
942.00,0.0094
941.00,0.0097
940.00,0.0097
939.00,0.0094
938.00,0.0090
937.00,0.0085
936.00,0.0080
935.00,0.0076
934.00,0.0072
933.00,0.0070
932.00,0.0068
931.00,0.0067
930.00,0.0066
929.00,0.0064
928.00,0.0063
927.00,0.0063
926.00,0.0062
925.00,0.0062
924.00,0.0062
923.00,0.0061
922.00,0.0060
921.00,0.0060
920.00,0.0060
919.00,0.0062
918.00,0.0064
917.00,0.0065
916.00,0.0066
915.00,0.0066
914.00,0.0068
913.00,0.0069
912.00,0.0071
911.00,0.0073
910.00,0.0074
909.00,0.0076
908.00,0.0079
907.00,0.0084
906.00,0.0091
905.00,0.0101
904.00,0.0115
903.00,0.0133
902.00,0.0154
901.00,0.0173
900.00,0.0186
899.00,0.0189
898.00,0.0181
897.00,0.0165
896.00,0.0144
895.00,0.0125
894.00,0.0109
893.00,0.0097
892.00,0.0089
891.00,0.0083
890.00,0.0079
889.00,0.0076
888.00,0.0074
887.00,0.0072
886.00,0.0071
885.00,0.0070
884.00,0.0070
883.00,0.0070
882.00,0.0071
881.00,0.0071
880.00,0.0072
879.00,0.0072
878.00,0.0071
877.00,0.0071
876.00,0.0071
875.00,0.0071
874.00,0.0072
873.00,0.0072
872.00,0.0073
871.00,0.0073
870.00,0.0073
869.00,0.0073
868.00,0.0073
867.00,0.0074
866.00,0.0076
865.00,0.0077
864.00,0.0078
863.00,0.0079
862.00,0.0079
861.00,0.0079
860.00,0.0079
859.00,0.0081
858.00,0.0083
857.00,0.0085
856.00,0.0087
855.00,0.0088
854.00,0.0089
853.00,0.0090
852.00,0.0093
851.00,0.0095
850.00,0.0099
849.00,0.0103
848.00,0.0109
847.00,0.0118
846.00,0.0134
845.00,0.0157
844.00,0.0189
843.00,0.0226
842.00,0.0254
841.00,0.0263
840.00,0.0247
839.00,0.0214
838.00,0.0179
837.00,0.0150
836.00,0.0131
835.00,0.0120
834.00,0.0113
833.00,0.0110
832.00,0.0108
831.00,0.0107
830.00,0.0106
829.00,0.0106
828.00,0.0106
827.00,0.0106
826.00,0.0106
825.00,0.0106
824.00,0.0106
823.00,0.0108
822.00,0.0111
821.00,0.0114
820.00,0.0116
819.00,0.0119
818.00,0.0124
817.00,0.0131
816.00,0.0140
815.00,0.0152
814.00,0.0167
813.00,0.0185
812.00,0.0206
811.00,0.0227
810.00,0.0243
809.00,0.0250
808.00,0.0248
807.00,0.0236
806.00,0.0218
805.00,0.0197
804.00,0.0177
803.00,0.0160
802.00,0.0148
801.00,0.0139
800.00,0.0132
799.00,0.0127
798.00,0.0121
797.00,0.0116
796.00,0.0111
795.00,0.0107
794.00,0.0103
793.00,0.0100
792.00,0.0096
791.00,0.0092
790.00,0.0088
789.00,0.0085
788.00,0.0083
787.00,0.0081
786.00,0.0080
785.00,0.0077
784.00,0.0074
783.00,0.0072
782.00,0.0070
781.00,0.0067
780.00,0.0065
779.00,0.0064
778.00,0.0064
777.00,0.0066
776.00,0.0067
775.00,0.0068
774.00,0.0069
773.00,0.0069
772.00,0.0069
771.00,0.0069
770.00,0.0070
769.00,0.0070
768.00,0.0070
767.00,0.0070
766.00,0.0072
765.00,0.0073
764.00,0.0073
763.00,0.0072
762.00,0.0071
761.00,0.0070
760.00,0.0071
759.00,0.0071
758.00,0.0072
757.00,0.0071
756.00,0.0070
755.00,0.0069
754.00,0.0070
753.00,0.0072
752.00,0.0076
751.00,0.0079
750.00,0.0082
749.00,0.0084
748.00,0.0085
747.00,0.0086
746.00,0.0086
745.00,0.0087
744.00,0.0089
743.00,0.0091
742.00,0.0094
741.00,0.0097
740.00,0.0099
739.00,0.0101
738.00,0.0104
737.00,0.0107
736.00,0.0111
735.00,0.0115
734.00,0.0120
733.00,0.0127
732.00,0.0137
731.00,0.0146
730.00,0.0154
729.00,0.0157
728.00,0.0158
727.00,0.0158
726.00,0.0158
725.00,0.0162
724.00,0.0169
723.00,0.0179
722.00,0.0188
721.00,0.0192
720.00,0.0190
719.00,0.0181
718.00,0.0168
717.00,0.0154
716.00,0.0143
715.00,0.0133
714.00,0.0125
713.00,0.0118
712.00,0.0112
711.00,0.0109
710.00,0.0107
709.00,0.0107
708.00,0.0108
707.00,0.0108
706.00,0.0107
705.00,0.0107
704.00,0.0106
703.00,0.0105
702.00,0.0103
701.00,0.0101
700.00,0.0098
699.00,0.0096
698.00,0.0094
697.00,0.0093
696.00,0.0091
695.00,0.0090
694.00,0.0090
693.00,0.0091
692.00,0.0091
691.00,0.0091
690.00,0.0090
689.00,0.0090
688.00,0.0090
687.00,0.0092
686.00,0.0094
685.00,0.0095
684.00,0.0095
683.00,0.0094
682.00,0.0093
681.00,0.0092
680.00,0.0090
679.00,0.0089
678.00,0.0089
677.00,0.0090
676.00,0.0091
675.00,0.0093
674.00,0.0094
673.00,0.0095
672.00,0.0095
671.00,0.0096
670.00,0.0096
669.00,0.0097
668.00,0.0099
667.00,0.0100
666.00,0.0099
665.00,0.0097
664.00,0.0095
663.00,0.0094
662.00,0.0093
661.00,0.0092
660.00,0.0092
659.00,0.0092
658.00,0.0090
657.00,0.0089
656.00,0.0089
655.00,0.0090
654.00,0.0092
653.00,0.0094
652.00,0.0094
651.00,0.0091
650.00,0.0089
649.00,0.0088
648.00,0.0090
647.00,0.0091
646.00,0.0092
645.00,0.0092
644.00,0.0091
643.00,0.0091
642.00,0.0089
641.00,0.0088
640.00,0.0087
639.00,0.0087
638.00,0.0087
637.00,0.0087
636.00,0.0086
635.00,0.0085
634.00,0.0085
633.00,0.0084
632.00,0.0084
631.00,0.0085
630.00,0.0086
629.00,0.0087
628.00,0.0087
627.00,0.0085
626.00,0.0083
625.00,0.0082
624.00,0.0082
623.00,0.0082
622.00,0.0082
621.00,0.0082
620.00,0.0081
619.00,0.0080
618.00,0.0078
617.00,0.0079
616.00,0.0080
615.00,0.0083
614.00,0.0083
613.00,0.0083
612.00,0.0082
611.00,0.0083
610.00,0.0084
609.00,0.0083
608.00,0.0080
607.00,0.0077
606.00,0.0076
605.00,0.0077
604.00,0.0079
603.00,0.0081
602.00,0.0084
601.00,0.0087
600.00,0.0089
599.00,0.0087
598.00,0.0084
597.00,0.0080
596.00,0.0077
595.00,0.0074
594.00,0.0073
593.00,0.0073
592.00,0.0074
591.00,0.0075
590.00,0.0077
589.00,0.0081
588.00,0.0083
587.00,0.0083
586.00,0.0081
585.00,0.0079
584.00,0.0078
583.00,0.0078
582.00,0.0078
581.00,0.0079
580.00,0.0081
579.00,0.0082
578.00,0.0081
577.00,0.0080
576.00,0.0079
575.00,0.0079
574.00,0.0079
573.00,0.0078
572.00,0.0077
571.00,0.0077
570.00,0.0077
569.00,0.0078
568.00,0.0080
567.00,0.0081
566.00,0.0081
565.00,0.0081
564.00,0.0083
563.00,0.0085
562.00,0.0087
561.00,0.0088
560.00,0.0089
559.00,0.0091
558.00,0.0091
557.00,0.0089
556.00,0.0086
555.00,0.0084
554.00,0.0085
553.00,0.0085
552.00,0.0085
551.00,0.0083
550.00,0.0082
549.00,0.0081
548.00,0.0081
547.00,0.0080
546.00,0.0078
545.00,0.0076
544.00,0.0073
543.00,0.0071
542.00,0.0069
541.00,0.0067
540.00,0.0066
539.00,0.0067
538.00,0.0069
537.00,0.0073
536.00,0.0078
535.00,0.0084
534.00,0.0089
533.00,0.0091
532.00,0.0090
531.00,0.0088
530.00,0.0089
529.00,0.0094
528.00,0.0100
527.00,0.0106
526.00,0.0108
525.00,0.0104
524.00,0.0098
523.00,0.0093
522.00,0.0093
521.00,0.0096
520.00,0.0098
519.00,0.0094
518.00,0.0086
517.00,0.0079
516.00,0.0073
515.00,0.0071
514.00,0.0069
513.00,0.0066
512.00,0.0062
511.00,0.0061
510.00,0.0063
509.00,0.0065
508.00,0.0067
507.00,0.0068
506.00,0.0070
505.00,0.0073
504.00,0.0076
503.00,0.0075
502.00,0.0073
501.00,0.0071
500.00,0.0068
499.00,0.0067
498.00,0.0068
497.00,0.0073
496.00,0.0079
495.00,0.0086
494.00,0.0090
493.00,0.0088
492.00,0.0080
491.00,0.0069
490.00,0.0062
489.00,0.0061
488.00,0.0062
487.00,0.0064
486.00,0.0067
485.00,0.0071
484.00,0.0075
483.00,0.0078
482.00,0.0078
481.00,0.0071
480.00,0.0057
479.00,0.0044
478.00,0.0040
477.00,0.0045
476.00,0.0051
475.00,0.0054
474.00,0.0052
473.00,0.0049
472.00,0.0046
471.00,0.0048
470.00,0.0059
469.00,0.0075
468.00,0.0089
467.00,0.0095
466.00,0.0097
465.00,0.0097
464.00,0.0097
463.00,0.0100
462.00,0.0114
461.00,0.0138
460.00,0.0158
459.00,0.0166
458.00,0.0160
457.00,0.0149
456.00,0.0141
455.00,0.0134
454.00,0.0127
453.00,0.0119
452.00,0.0111
451.00,0.0105
450.00,0.0108
