Created as New Dataset,Sample 014 By Administrator Date Thursday, September 04 2025
cm-1,A
4000.00,0.0009
3999.00,0.0009
3998.00,0.0010
3997.00,0.0010
3996.00,0.0010
3995.00,0.0011
3994.00,0.0011
3993.00,0.0010
3992.00,0.0010
3991.00,0.0010
3990.00,0.0010
3989.00,0.0009
3988.00,0.0009
3987.00,0.0009
3986.00,0.0009
3985.00,0.0009
3984.00,0.0009
3983.00,0.0009
3982.00,0.0009
3981.00,0.0009
3980.00,0.0010
3979.00,0.0010
3978.00,0.0010
3977.00,0.0009
3976.00,0.0009
3975.00,0.0009
3974.00,0.0009
3973.00,0.0009
3972.00,0.0009
3971.00,0.0009
3970.00,0.0008
3969.00,0.0008
3968.00,0.0008
3967.00,0.0007
3966.00,0.0007
3965.00,0.0007
3964.00,0.0007
3963.00,0.0007
3962.00,0.0008
3961.00,0.0008
3960.00,0.0008
3959.00,0.0008
3958.00,0.0008
3957.00,0.0008
3956.00,0.0008
3955.00,0.0008
3954.00,0.0008
3953.00,0.0008
3952.00,0.0008
3951.00,0.0009
3950.00,0.0009
3949.00,0.0009
3948.00,0.0009
3947.00,0.0008
3946.00,0.0008
3945.00,0.0008
3944.00,0.0008
3943.00,0.0008
3942.00,0.0008
3941.00,0.0008
3940.00,0.0008
3939.00,0.0008
3938.00,0.0008
3937.00,0.0008
3936.00,0.0009
3935.00,0.0009
3934.00,0.0009
3933.00,0.0009
3932.00,0.0009
3931.00,0.0008
3930.00,0.0008
3929.00,0.0008
3928.00,0.0008
3927.00,0.0008
3926.00,0.0008
3925.00,0.0008
3924.00,0.0008
3923.00,0.0008
3922.00,0.0008
3921.00,0.0008
3920.00,0.0008
3919.00,0.0007
3918.00,0.0007
3917.00,0.0007
3916.00,0.0007
3915.00,0.0007
3914.00,0.0007
3913.00,0.0007
3912.00,0.0008
3911.00,0.0008
3910.00,0.0008
3909.00,0.0008
3908.00,0.0008
3907.00,0.0008
3906.00,0.0007
3905.00,0.0007
3904.00,0.0006
3903.00,0.0006
3902.00,0.0006
3901.00,0.0007
3900.00,0.0007
3899.00,0.0007
3898.00,0.0007
3897.00,0.0007
3896.00,0.0007
3895.00,0.0007
3894.00,0.0008
3893.00,0.0008
3892.00,0.0008
3891.00,0.0007
3890.00,0.0007
3889.00,0.0007
3888.00,0.0007
3887.00,0.0007
3886.00,0.0007
3885.00,0.0007
3884.00,0.0007
3883.00,0.0007
3882.00,0.0007
3881.00,0.0007
3880.00,0.0007
3879.00,0.0007
3878.00,0.0008
3877.00,0.0008
3876.00,0.0008
3875.00,0.0007
3874.00,0.0007
3873.00,0.0007
3872.00,0.0007
3871.00,0.0007
3870.00,0.0007
3869.00,0.0008
3868.00,0.0008
3867.00,0.0008
3866.00,0.0007
3865.00,0.0007
3864.00,0.0007
3863.00,0.0007
3862.00,0.0007
3861.00,0.0007
3860.00,0.0007
3859.00,0.0008
3858.00,0.0008
3857.00,0.0009
3856.00,0.0009
3855.00,0.0008
3854.00,0.0007
3853.00,0.0007
3852.00,0.0007
3851.00,0.0007
3850.00,0.0007
3849.00,0.0007
3848.00,0.0007
3847.00,0.0007
3846.00,0.0007
3845.00,0.0007
3844.00,0.0007
3843.00,0.0007
3842.00,0.0007
3841.00,0.0008
3840.00,0.0008
3839.00,0.0007
3838.00,0.0007
3837.00,0.0006
3836.00,0.0006
3835.00,0.0006
3834.00,0.0006
3833.00,0.0006
3832.00,0.0006
3831.00,0.0006
3830.00,0.0006
3829.00,0.0006
3828.00,0.0007
3827.00,0.0007
3826.00,0.0007
3825.00,0.0007
3824.00,0.0007
3823.00,0.0006
3822.00,0.0006
3821.00,0.0006
3820.00,0.0007
3819.00,0.0007
3818.00,0.0007
3817.00,0.0007
3816.00,0.0007
3815.00,0.0008
3814.00,0.0008
3813.00,0.0008
3812.00,0.0008
3811.00,0.0007
3810.00,0.0007
3809.00,0.0007
3808.00,0.0007
3807.00,0.0007
3806.00,0.0007
3805.00,0.0007
3804.00,0.0006
3803.00,0.0006
3802.00,0.0006
3801.00,0.0006
3800.00,0.0005
3799.00,0.0005
3798.00,0.0005
3797.00,0.0005
3796.00,0.0006
3795.00,0.0006
3794.00,0.0006
3793.00,0.0006
3792.00,0.0007
3791.00,0.0007
3790.00,0.0007
3789.00,0.0007
3788.00,0.0007
3787.00,0.0007
3786.00,0.0007
3785.00,0.0007
3784.00,0.0007
3783.00,0.0007
3782.00,0.0007
3781.00,0.0007
3780.00,0.0007
3779.00,0.0007
3778.00,0.0007
3777.00,0.0007
3776.00,0.0007
3775.00,0.0007
3774.00,0.0007
3773.00,0.0007
3772.00,0.0007
3771.00,0.0007
3770.00,0.0007
3769.00,0.0007
3768.00,0.0007
3767.00,0.0007
3766.00,0.0007
3765.00,0.0007
3764.00,0.0007
3763.00,0.0007
3762.00,0.0007
3761.00,0.0007
3760.00,0.0007
3759.00,0.0007
3758.00,0.0007
3757.00,0.0007
3756.00,0.0007
3755.00,0.0007
3754.00,0.0007
3753.00,0.0007
3752.00,0.0007
3751.00,0.0007
3750.00,0.0007
3749.00,0.0007
3748.00,0.0007
3747.00,0.0007
3746.00,0.0006
3745.00,0.0006
3744.00,0.0006
3743.00,0.0006
3742.00,0.0006
3741.00,0.0006
3740.00,0.0006
3739.00,0.0006
3738.00,0.0006
3737.00,0.0005
3736.00,0.0005
3735.00,0.0005
3734.00,0.0005
3733.00,0.0004
3732.00,0.0004
3731.00,0.0004
3730.00,0.0004
3729.00,0.0005
3728.00,0.0005
3727.00,0.0005
3726.00,0.0006
3725.00,0.0006
3724.00,0.0005
3723.00,0.0005
3722.00,0.0005
3721.00,0.0005
3720.00,0.0005
3719.00,0.0005
3718.00,0.0005
3717.00,0.0005
3716.00,0.0005
3715.00,0.0005
3714.00,0.0006
3713.00,0.0006
3712.00,0.0006
3711.00,0.0006
3710.00,0.0006
3709.00,0.0006
3708.00,0.0006
3707.00,0.0005
3706.00,0.0005
3705.00,0.0006
3704.00,0.0006
3703.00,0.0006
3702.00,0.0006
3701.00,0.0006
3700.00,0.0006
3699.00,0.0006
3698.00,0.0005
3697.00,0.0005
3696.00,0.0006
3695.00,0.0006
3694.00,0.0006
3693.00,0.0006
3692.00,0.0006
3691.00,0.0006
3690.00,0.0006
3689.00,0.0006
3688.00,0.0005
3687.00,0.0006
3686.00,0.0006
3685.00,0.0006
3684.00,0.0006
3683.00,0.0006
3682.00,0.0007
3681.00,0.0007
3680.00,0.0008
3679.00,0.0008
3678.00,0.0008
3677.00,0.0008
3676.00,0.0007
3675.00,0.0007
3674.00,0.0007
3673.00,0.0008
3672.00,0.0008
3671.00,0.0008
3670.00,0.0008
3669.00,0.0008
3668.00,0.0008
3667.00,0.0008
3666.00,0.0008
3665.00,0.0008
3664.00,0.0008
3663.00,0.0008
3662.00,0.0008
3661.00,0.0009
3660.00,0.0009
3659.00,0.0009
3658.00,0.0009
3657.00,0.0008
3656.00,0.0009
3655.00,0.0009
3654.00,0.0009
3653.00,0.0009
3652.00,0.0009
3651.00,0.0009
3650.00,0.0009
3649.00,0.0009
3648.00,0.0009
3647.00,0.0009
3646.00,0.0009
3645.00,0.0010
3644.00,0.0010
3643.00,0.0010
3642.00,0.0010
3641.00,0.0010
3640.00,0.0010
3639.00,0.0010
3638.00,0.0010
3637.00,0.0010
3636.00,0.0010
3635.00,0.0009
3634.00,0.0009
3633.00,0.0009
3632.00,0.0009
3631.00,0.0009
3630.00,0.0010
3629.00,0.0011
3628.00,0.0011
3627.00,0.0012
3626.00,0.0011
3625.00,0.0011
3624.00,0.0011
3623.00,0.0012
3622.00,0.0012
3621.00,0.0012
3620.00,0.0012
3619.00,0.0012
3618.00,0.0012
3617.00,0.0012
3616.00,0.0012
3615.00,0.0013
3614.00,0.0013
3613.00,0.0013
3612.00,0.0013
3611.00,0.0013
3610.00,0.0013
3609.00,0.0014
3608.00,0.0015
3607.00,0.0015
3606.00,0.0015
3605.00,0.0015
3604.00,0.0015
3603.00,0.0015
3602.00,0.0016
3601.00,0.0016
3600.00,0.0016
3599.00,0.0016
3598.00,0.0016
3597.00,0.0016
3596.00,0.0016
3595.00,0.0017
3594.00,0.0017
3593.00,0.0018
3592.00,0.0018
3591.00,0.0018
3590.00,0.0018
3589.00,0.0018
3588.00,0.0018
3587.00,0.0018
3586.00,0.0018
3585.00,0.0018
3584.00,0.0019
3583.00,0.0019
3582.00,0.0020
3581.00,0.0020
3580.00,0.0020
3579.00,0.0020
3578.00,0.0020
3577.00,0.0021
3576.00,0.0021
3575.00,0.0021
3574.00,0.0022
3573.00,0.0022
3572.00,0.0023
3571.00,0.0023
3570.00,0.0024
3569.00,0.0024
3568.00,0.0025
3567.00,0.0025
3566.00,0.0025
3565.00,0.0025
3564.00,0.0026
3563.00,0.0026
3562.00,0.0027
3561.00,0.0027
3560.00,0.0027
3559.00,0.0028
3558.00,0.0028
3557.00,0.0028
3556.00,0.0028
3555.00,0.0029
3554.00,0.0030
3553.00,0.0030
3552.00,0.0030
3551.00,0.0031
3550.00,0.0031
3549.00,0.0031
3548.00,0.0031
3547.00,0.0031
3546.00,0.0032
3545.00,0.0032
3544.00,0.0033
3543.00,0.0033
3542.00,0.0034
3541.00,0.0034
3540.00,0.0034
3539.00,0.0034
3538.00,0.0035
3537.00,0.0035
3536.00,0.0036
3535.00,0.0036
3534.00,0.0036
3533.00,0.0036
3532.00,0.0036
3531.00,0.0037
3530.00,0.0037
3529.00,0.0037
3528.00,0.0037
3527.00,0.0038
3526.00,0.0038
3525.00,0.0039
3524.00,0.0039
3523.00,0.0040
3522.00,0.0040
3521.00,0.0040
3520.00,0.0041
3519.00,0.0041
3518.00,0.0042
3517.00,0.0043
3516.00,0.0043
3515.00,0.0044
3514.00,0.0044
3513.00,0.0045
3512.00,0.0045
3511.00,0.0046
3510.00,0.0046
3509.00,0.0046
3508.00,0.0046
3507.00,0.0046
3506.00,0.0046
3505.00,0.0047
3504.00,0.0047
3503.00,0.0048
3502.00,0.0049
3501.00,0.0050
3500.00,0.0050
3499.00,0.0050
3498.00,0.0050
3497.00,0.0050
3496.00,0.0050
3495.00,0.0051
3494.00,0.0052
3493.00,0.0052
3492.00,0.0052
3491.00,0.0053
3490.00,0.0053
3489.00,0.0053
3488.00,0.0054
3487.00,0.0054
3486.00,0.0054
3485.00,0.0054
3484.00,0.0055
3483.00,0.0055
3482.00,0.0055
3481.00,0.0056
3480.00,0.0056
3479.00,0.0057
3478.00,0.0057
3477.00,0.0057
3476.00,0.0058
3475.00,0.0058
3474.00,0.0058
3473.00,0.0059
3472.00,0.0059
3471.00,0.0059
3470.00,0.0059
3469.00,0.0059
3468.00,0.0060
3467.00,0.0061
3466.00,0.0061
3465.00,0.0062
3464.00,0.0062
3463.00,0.0063
3462.00,0.0063
3461.00,0.0063
3460.00,0.0063
3459.00,0.0063
3458.00,0.0063
3457.00,0.0063
3456.00,0.0064
3455.00,0.0064
3454.00,0.0064
3453.00,0.0065
3452.00,0.0065
3451.00,0.0066
3450.00,0.0066
3449.00,0.0067
3448.00,0.0067
3447.00,0.0068
3446.00,0.0069
3445.00,0.0069
3444.00,0.0069
3443.00,0.0069
3442.00,0.0069
3441.00,0.0069
3440.00,0.0069
3439.00,0.0070
3438.00,0.0070
3437.00,0.0070
3436.00,0.0071
3435.00,0.0071
3434.00,0.0071
3433.00,0.0071
3432.00,0.0072
3431.00,0.0072
3430.00,0.0072
3429.00,0.0073
3428.00,0.0073
3427.00,0.0073
3426.00,0.0074
3425.00,0.0074
3424.00,0.0074
3423.00,0.0074
3422.00,0.0074
3421.00,0.0074
3420.00,0.0074
3419.00,0.0074
3418.00,0.0075
3417.00,0.0075
3416.00,0.0075
3415.00,0.0076
3414.00,0.0076
3413.00,0.0076
3412.00,0.0077
3411.00,0.0077
3410.00,0.0077
3409.00,0.0077
3408.00,0.0077
3407.00,0.0077
3406.00,0.0077
3405.00,0.0077
3404.00,0.0077
3403.00,0.0077
3402.00,0.0077
3401.00,0.0077
3400.00,0.0077
3399.00,0.0077
3398.00,0.0078
3397.00,0.0078
3396.00,0.0078
3395.00,0.0078
3394.00,0.0078
3393.00,0.0078
3392.00,0.0079
3391.00,0.0079
3390.00,0.0079
3389.00,0.0079
3388.00,0.0079
3387.00,0.0079
3386.00,0.0079
3385.00,0.0079
3384.00,0.0079
3383.00,0.0080
3382.00,0.0080
3381.00,0.0080
3380.00,0.0080
3379.00,0.0079
3378.00,0.0080
3377.00,0.0080
3376.00,0.0080
3375.00,0.0080
3374.00,0.0080
3373.00,0.0081
3372.00,0.0080
3371.00,0.0080
3370.00,0.0080
3369.00,0.0080
3368.00,0.0080
3367.00,0.0080
3366.00,0.0080
3365.00,0.0081
3364.00,0.0081
3363.00,0.0081
3362.00,0.0081
3361.00,0.0080
3360.00,0.0080
3359.00,0.0080
3358.00,0.0080
3357.00,0.0081
3356.00,0.0081
3355.00,0.0080
3354.00,0.0080
3353.00,0.0080
3352.00,0.0080
3351.00,0.0081
3350.00,0.0081
3349.00,0.0081
3348.00,0.0080
3347.00,0.0080
3346.00,0.0080
3345.00,0.0080
3344.00,0.0080
3343.00,0.0080
3342.00,0.0079
3341.00,0.0079
3340.00,0.0079
3339.00,0.0079
3338.00,0.0079
3337.00,0.0079
3336.00,0.0079
3335.00,0.0079
3334.00,0.0079
3333.00,0.0078
3332.00,0.0078
3331.00,0.0078
3330.00,0.0079
3329.00,0.0079
3328.00,0.0079
3327.00,0.0078
3326.00,0.0078
3325.00,0.0078
3324.00,0.0077
3323.00,0.0077
3322.00,0.0077
3321.00,0.0077
3320.00,0.0077
3319.00,0.0077
3318.00,0.0077
3317.00,0.0077
3316.00,0.0077
3315.00,0.0077
3314.00,0.0077
3313.00,0.0077
3312.00,0.0077
3311.00,0.0076
3310.00,0.0076
3309.00,0.0076
3308.00,0.0076
3307.00,0.0076
3306.00,0.0076
3305.00,0.0076
3304.00,0.0077
3303.00,0.0077
3302.00,0.0078
3301.00,0.0078
3300.00,0.0078
3299.00,0.0077
3298.00,0.0076
3297.00,0.0075
3296.00,0.0075
3295.00,0.0074
3294.00,0.0074
3293.00,0.0074
3292.00,0.0073
3291.00,0.0073
3290.00,0.0073
3289.00,0.0072
3288.00,0.0072
3287.00,0.0072
3286.00,0.0071
3285.00,0.0071
3284.00,0.0071
3283.00,0.0070
3282.00,0.0070
3281.00,0.0070
3280.00,0.0070
3279.00,0.0070
3278.00,0.0070
3277.00,0.0070
3276.00,0.0069
3275.00,0.0069
3274.00,0.0069
3273.00,0.0069
3272.00,0.0068
3271.00,0.0068
3270.00,0.0068
3269.00,0.0068
3268.00,0.0067
3267.00,0.0067
3266.00,0.0067
3265.00,0.0067
3264.00,0.0066
3263.00,0.0066
3262.00,0.0066
3261.00,0.0066
3260.00,0.0065
3259.00,0.0065
3258.00,0.0064
3257.00,0.0064
3256.00,0.0063
3255.00,0.0063
3254.00,0.0063
3253.00,0.0063
3252.00,0.0063
3251.00,0.0062
3250.00,0.0062
3249.00,0.0061
3248.00,0.0061
3247.00,0.0061
3246.00,0.0061
3245.00,0.0061
3244.00,0.0061
3243.00,0.0061
3242.00,0.0061
3241.00,0.0061
3240.00,0.0061
3239.00,0.0061
3238.00,0.0061
3237.00,0.0061
3236.00,0.0060
3235.00,0.0060
3234.00,0.0060
3233.00,0.0060
3232.00,0.0060
3231.00,0.0060
3230.00,0.0060
3229.00,0.0060
3228.00,0.0061
3227.00,0.0061
3226.00,0.0061
3225.00,0.0061
3224.00,0.0061
3223.00,0.0060
3222.00,0.0060
3221.00,0.0060
3220.00,0.0060
3219.00,0.0060
3218.00,0.0060
3217.00,0.0060
3216.00,0.0060
3215.00,0.0060
3214.00,0.0060
3213.00,0.0060
3212.00,0.0061
3211.00,0.0061
3210.00,0.0061
3209.00,0.0061
3208.00,0.0060
3207.00,0.0060
3206.00,0.0061
3205.00,0.0061
3204.00,0.0061
3203.00,0.0061
3202.00,0.0061
3201.00,0.0061
3200.00,0.0061
3199.00,0.0061
3198.00,0.0061
3197.00,0.0061
3196.00,0.0061
3195.00,0.0061
3194.00,0.0060
3193.00,0.0060
3192.00,0.0059
3191.00,0.0059
3190.00,0.0059
3189.00,0.0058
3188.00,0.0059
3187.00,0.0059
3186.00,0.0059
3185.00,0.0058
3184.00,0.0058
3183.00,0.0057
3182.00,0.0057
3181.00,0.0057
3180.00,0.0056
3179.00,0.0057
3178.00,0.0056
3177.00,0.0056
3176.00,0.0056
3175.00,0.0056
3174.00,0.0056
3173.00,0.0056
3172.00,0.0056
3171.00,0.0055
3170.00,0.0055
3169.00,0.0054
3168.00,0.0054
3167.00,0.0054
3166.00,0.0053
3165.00,0.0053
3164.00,0.0053
3163.00,0.0053
3162.00,0.0053
3161.00,0.0053
3160.00,0.0052
3159.00,0.0052
3158.00,0.0052
3157.00,0.0052
3156.00,0.0052
3155.00,0.0052
3154.00,0.0052
3153.00,0.0052
3152.00,0.0052
3151.00,0.0051
3150.00,0.0051
3149.00,0.0051
3148.00,0.0051
3147.00,0.0051
3146.00,0.0051
3145.00,0.0051
3144.00,0.0050
3143.00,0.0050
3142.00,0.0050
3141.00,0.0050
3140.00,0.0049
3139.00,0.0049
3138.00,0.0049
3137.00,0.0049
3136.00,0.0049
3135.00,0.0049
3134.00,0.0048
3133.00,0.0047
3132.00,0.0047
3131.00,0.0046
3130.00,0.0046
3129.00,0.0046
3128.00,0.0046
3127.00,0.0046
3126.00,0.0046
3125.00,0.0046
3124.00,0.0045
3123.00,0.0045
3122.00,0.0045
3121.00,0.0045
3120.00,0.0044
3119.00,0.0044
3118.00,0.0043
3117.00,0.0043
3116.00,0.0043
3115.00,0.0042
3114.00,0.0042
3113.00,0.0042
3112.00,0.0042
3111.00,0.0042
3110.00,0.0042
3109.00,0.0042
3108.00,0.0042
3107.00,0.0042
3106.00,0.0042
3105.00,0.0042
3104.00,0.0042
3103.00,0.0042
3102.00,0.0042
3101.00,0.0041
3100.00,0.0041
3099.00,0.0040
3098.00,0.0040
3097.00,0.0040
3096.00,0.0040
3095.00,0.0040
3094.00,0.0040
3093.00,0.0040
3092.00,0.0040
3091.00,0.0040
3090.00,0.0040
3089.00,0.0040
3088.00,0.0039
3087.00,0.0039
3086.00,0.0039
3085.00,0.0039
3084.00,0.0039
3083.00,0.0039
3082.00,0.0039
3081.00,0.0038
3080.00,0.0038
3079.00,0.0038
3078.00,0.0038
3077.00,0.0039
3076.00,0.0039
3075.00,0.0039
3074.00,0.0039
3073.00,0.0039
3072.00,0.0040
3071.00,0.0040
3070.00,0.0040
3069.00,0.0040
3068.00,0.0040
3067.00,0.0040
3066.00,0.0040
3065.00,0.0041
3064.00,0.0041
3063.00,0.0041
3062.00,0.0042
3061.00,0.0042
3060.00,0.0042
3059.00,0.0042
3058.00,0.0042
3057.00,0.0042
3056.00,0.0042
3055.00,0.0042
3054.00,0.0042
3053.00,0.0042
3052.00,0.0042
3051.00,0.0042
3050.00,0.0042
3049.00,0.0043
3048.00,0.0043
3047.00,0.0043
3046.00,0.0044
3045.00,0.0044
3044.00,0.0044
3043.00,0.0044
3042.00,0.0045
3041.00,0.0045
3040.00,0.0046
3039.00,0.0046
3038.00,0.0046
3037.00,0.0047
3036.00,0.0047
3035.00,0.0047
3034.00,0.0048
3033.00,0.0048
3032.00,0.0048
3031.00,0.0048
3030.00,0.0048
3029.00,0.0048
3028.00,0.0049
3027.00,0.0049
3026.00,0.0050
3025.00,0.0051
3024.00,0.0052
3023.00,0.0052
3022.00,0.0053
3021.00,0.0054
3020.00,0.0055
3019.00,0.0055
3018.00,0.0056
3017.00,0.0056
3016.00,0.0057
3015.00,0.0058
3014.00,0.0059
3013.00,0.0061
3012.00,0.0062
3011.00,0.0064
3010.00,0.0065
3009.00,0.0067
3008.00,0.0069
3007.00,0.0071
3006.00,0.0074
3005.00,0.0076
3004.00,0.0077
3003.00,0.0079
3002.00,0.0081
3001.00,0.0083
3000.00,0.0086
2999.00,0.0089
2998.00,0.0092
2997.00,0.0096
2996.00,0.0099
2995.00,0.0103
2994.00,0.0107
2993.00,0.0112
2992.00,0.0117
2991.00,0.0123
2990.00,0.0130
2989.00,0.0137
2988.00,0.0145
2987.00,0.0154
2986.00,0.0164
2985.00,0.0174
2984.00,0.0187
2983.00,0.0200
2982.00,0.0215
2981.00,0.0231
2980.00,0.0249
2979.00,0.0270
2978.00,0.0293
2977.00,0.0320
2976.00,0.0351
2975.00,0.0388
2974.00,0.0430
2973.00,0.0478
2972.00,0.0532
2971.00,0.0593
2970.00,0.0662
2969.00,0.0737
2968.00,0.0820
2967.00,0.0910
2966.00,0.1006
2965.00,0.1105
2964.00,0.1204
2963.00,0.1299
2962.00,0.1383
2961.00,0.1452
2960.00,0.1504
2959.00,0.1542
2958.00,0.1571
2957.00,0.1596
2956.00,0.1626
2955.00,0.1663
2954.00,0.1708
2953.00,0.1755
2952.00,0.1797
2951.00,0.1821
2950.00,0.1819
2949.00,0.1783
2948.00,0.1715
2947.00,0.1619
2946.00,0.1508
2945.00,0.1392
2944.00,0.1284
2943.00,0.1191
2942.00,0.1120
2941.00,0.1072
2940.00,0.1047
2939.00,0.1041
2938.00,0.1054
2937.00,0.1083
2936.00,0.1126
2935.00,0.1183
2934.00,0.1253
2933.00,0.1334
2932.00,0.1425
2931.00,0.1524
2930.00,0.1629
2929.00,0.1736
2928.00,0.1843
2927.00,0.1947
2926.00,0.2046
2925.00,0.2141
2924.00,0.2231
2923.00,0.2318
2922.00,0.2403
2921.00,0.2481
2920.00,0.2548
2919.00,0.2594
2918.00,0.2613
2917.00,0.2600
2916.00,0.2553
2915.00,0.2480
2914.00,0.2390
2913.00,0.2294
2912.00,0.2201
2911.00,0.2117
2910.00,0.2042
2909.00,0.1976
2908.00,0.1916
2907.00,0.1858
2906.00,0.1800
2905.00,0.1741
2904.00,0.1679
2903.00,0.1615
2902.00,0.1551
2901.00,0.1487
2900.00,0.1425
2899.00,0.1366
2898.00,0.1310
2897.00,0.1259
2896.00,0.1213
2895.00,0.1173
2894.00,0.1138
2893.00,0.1109
2892.00,0.1085
2891.00,0.1067
2890.00,0.1053
2889.00,0.1044
2888.00,0.1039
2887.00,0.1036
2886.00,0.1037
2885.00,0.1041
2884.00,0.1048
2883.00,0.1060
2882.00,0.1075
2881.00,0.1092
2880.00,0.1109
2879.00,0.1122
2878.00,0.1130
2877.00,0.1131
2876.00,0.1127
2875.00,0.1121
2874.00,0.1117
2873.00,0.1118
2872.00,0.1125
2871.00,0.1138
2870.00,0.1155
2869.00,0.1172
2868.00,0.1183
2867.00,0.1180
2866.00,0.1159
2865.00,0.1119
2864.00,0.1063
2863.00,0.0999
2862.00,0.0937
2861.00,0.0883
2860.00,0.0843
2859.00,0.0817
2858.00,0.0804
2857.00,0.0802
2856.00,0.0809
2855.00,0.0822
2854.00,0.0838
2853.00,0.0856
2852.00,0.0873
2851.00,0.0886
2850.00,0.0896
2849.00,0.0901
2848.00,0.0906
2847.00,0.0915
2846.00,0.0932
2845.00,0.0960
2844.00,0.0999
2843.00,0.1046
2842.00,0.1096
2841.00,0.1143
2840.00,0.1179
2839.00,0.1196
2838.00,0.1188
2837.00,0.1152
2836.00,0.1087
2835.00,0.1001
2834.00,0.0901
2833.00,0.0798
2832.00,0.0701
2831.00,0.0614
2830.00,0.0541
2829.00,0.0480
2828.00,0.0431
2827.00,0.0391
2826.00,0.0359
2825.00,0.0332
2824.00,0.0309
2823.00,0.0290
2822.00,0.0273
2821.00,0.0259
2820.00,0.0246
2819.00,0.0236
2818.00,0.0226
2817.00,0.0218
2816.00,0.0211
2815.00,0.0204
2814.00,0.0198
2813.00,0.0192
2812.00,0.0186
2811.00,0.0181
2810.00,0.0176
2809.00,0.0171
2808.00,0.0165
2807.00,0.0159
2806.00,0.0153
2805.00,0.0147
2804.00,0.0141
2803.00,0.0136
2802.00,0.0131
2801.00,0.0127
2800.00,0.0123
2799.00,0.0120
2798.00,0.0117
2797.00,0.0114
2796.00,0.0112
2795.00,0.0110
2794.00,0.0108
2793.00,0.0105
2792.00,0.0102
2791.00,0.0098
2790.00,0.0094
2789.00,0.0091
2788.00,0.0088
2787.00,0.0086
2786.00,0.0083
2785.00,0.0080
2784.00,0.0078
2783.00,0.0075
2782.00,0.0073
2781.00,0.0071
2780.00,0.0069
2779.00,0.0067
2778.00,0.0066
2777.00,0.0065
2776.00,0.0063
2775.00,0.0062
2774.00,0.0061
2773.00,0.0061
2772.00,0.0060
2771.00,0.0059
2770.00,0.0059
2769.00,0.0059
2768.00,0.0058
2767.00,0.0058
2766.00,0.0058
2765.00,0.0058
2764.00,0.0058
2763.00,0.0057
2762.00,0.0056
2761.00,0.0056
2760.00,0.0056
2759.00,0.0056
2758.00,0.0056
2757.00,0.0056
2756.00,0.0056
2755.00,0.0055
2754.00,0.0055
2753.00,0.0054
2752.00,0.0054
2751.00,0.0053
2750.00,0.0053
2749.00,0.0053
2748.00,0.0053
2747.00,0.0054
2746.00,0.0054
2745.00,0.0055
2744.00,0.0056
2743.00,0.0056
2742.00,0.0057
2741.00,0.0058
2740.00,0.0059
2739.00,0.0060
2738.00,0.0061
2737.00,0.0063
2736.00,0.0064
2735.00,0.0065
2734.00,0.0066
2733.00,0.0067
2732.00,0.0069
2731.00,0.0070
2730.00,0.0072
2729.00,0.0074
2728.00,0.0077
2727.00,0.0079
2726.00,0.0081
2725.00,0.0083
2724.00,0.0085
2723.00,0.0085
2722.00,0.0084
2721.00,0.0083
2720.00,0.0081
2719.00,0.0078
2718.00,0.0075
2717.00,0.0073
2716.00,0.0070
2715.00,0.0068
2714.00,0.0065
2713.00,0.0063
2712.00,0.0061
2711.00,0.0059
2710.00,0.0058
2709.00,0.0057
2708.00,0.0056
2707.00,0.0055
2706.00,0.0053
2705.00,0.0052
2704.00,0.0051
2703.00,0.0050
2702.00,0.0050
2701.00,0.0049
2700.00,0.0048
2699.00,0.0048
2698.00,0.0047
2697.00,0.0047
2696.00,0.0046
2695.00,0.0047
2694.00,0.0047
2693.00,0.0047
2692.00,0.0047
2691.00,0.0047
2690.00,0.0047
2689.00,0.0047
2688.00,0.0047
2687.00,0.0047
2686.00,0.0047
2685.00,0.0047
2684.00,0.0047
2683.00,0.0047
2682.00,0.0047
2681.00,0.0047
2680.00,0.0047
2679.00,0.0047
2678.00,0.0047
2677.00,0.0047
2676.00,0.0047
2675.00,0.0047
2674.00,0.0046
2673.00,0.0046
2672.00,0.0046
2671.00,0.0045
2670.00,0.0045
2669.00,0.0045
2668.00,0.0046
2667.00,0.0046
2666.00,0.0046
2665.00,0.0047
2664.00,0.0047
2663.00,0.0048
2662.00,0.0049
2661.00,0.0049
2660.00,0.0049
2659.00,0.0049
2658.00,0.0049
2657.00,0.0048
2656.00,0.0048
2655.00,0.0047
2654.00,0.0047
2653.00,0.0046
2652.00,0.0045
2651.00,0.0045
2650.00,0.0044
2649.00,0.0043
2648.00,0.0043
2647.00,0.0042
2646.00,0.0042
2645.00,0.0042
2644.00,0.0042
2643.00,0.0042
2642.00,0.0041
2641.00,0.0040
2640.00,0.0040
2639.00,0.0039
2638.00,0.0039
2637.00,0.0039
2636.00,0.0039
2635.00,0.0039
2634.00,0.0039
2633.00,0.0039
2632.00,0.0039
2631.00,0.0039
2630.00,0.0040
2629.00,0.0039
2628.00,0.0039
2627.00,0.0040
2626.00,0.0040
2625.00,0.0040
2624.00,0.0040
2623.00,0.0040
2622.00,0.0040
2621.00,0.0040
2620.00,0.0041
2619.00,0.0041
2618.00,0.0041
2617.00,0.0040
2616.00,0.0040
2615.00,0.0040
2614.00,0.0040
2613.00,0.0040
2612.00,0.0040
2611.00,0.0039
2610.00,0.0038
2609.00,0.0037
2608.00,0.0037
2607.00,0.0036
2606.00,0.0036
2605.00,0.0035
2604.00,0.0035
2603.00,0.0034
2602.00,0.0034
2601.00,0.0033
2600.00,0.0032
2599.00,0.0031
2598.00,0.0031
2597.00,0.0031
2596.00,0.0031
2595.00,0.0032
2594.00,0.0032
2593.00,0.0033
2592.00,0.0033
2591.00,0.0034
2590.00,0.0034
2589.00,0.0035
2588.00,0.0036
2587.00,0.0036
2586.00,0.0037
2585.00,0.0037
2584.00,0.0038
2583.00,0.0039
2582.00,0.0039
2581.00,0.0038
2580.00,0.0037
2579.00,0.0036
2578.00,0.0035
2577.00,0.0035
2576.00,0.0034
2575.00,0.0033
2574.00,0.0032
2573.00,0.0031
2572.00,0.0030
2571.00,0.0029
2570.00,0.0028
2569.00,0.0028
2568.00,0.0027
2567.00,0.0027
2566.00,0.0026
2565.00,0.0026
2564.00,0.0026
2563.00,0.0025
2562.00,0.0025
2561.00,0.0025
2560.00,0.0025
2559.00,0.0024
2558.00,0.0024
2557.00,0.0024
2556.00,0.0023
2555.00,0.0023
2554.00,0.0023
2553.00,0.0023
2552.00,0.0022
2551.00,0.0022
2550.00,0.0022
2549.00,0.0022
2548.00,0.0021
2547.00,0.0021
2546.00,0.0020
2545.00,0.0020
2544.00,0.0020
2543.00,0.0020
2542.00,0.0020
2541.00,0.0020
2540.00,0.0019
2539.00,0.0019
2538.00,0.0019
2537.00,0.0018
2536.00,0.0018
2535.00,0.0018
2534.00,0.0018
2533.00,0.0017
2532.00,0.0017
2531.00,0.0016
2530.00,0.0016
2529.00,0.0016
2528.00,0.0016
2527.00,0.0016
2526.00,0.0016
2525.00,0.0016
2524.00,0.0016
2523.00,0.0016
2522.00,0.0015
2521.00,0.0014
2520.00,0.0014
2519.00,0.0014
2518.00,0.0013
2517.00,0.0013
2516.00,0.0013
2515.00,0.0012
2514.00,0.0013
2513.00,0.0013
2512.00,0.0013
2511.00,0.0013
2510.00,0.0013
2509.00,0.0013
2508.00,0.0012
2507.00,0.0012
2506.00,0.0012
2505.00,0.0011
2504.00,0.0011
2503.00,0.0010
2502.00,0.0010
2501.00,0.0010
2500.00,0.0010
2499.00,0.0011
2498.00,0.0012
2497.00,0.0013
2496.00,0.0013
2495.00,0.0013
2494.00,0.0013
2493.00,0.0013
2492.00,0.0012
2491.00,0.0012
2490.00,0.0012
2489.00,0.0012
2488.00,0.0012
2487.00,0.0011
2486.00,0.0011
2485.00,0.0011
2484.00,0.0011
2483.00,0.0011
2482.00,0.0011
2481.00,0.0011
2480.00,0.0011
2479.00,0.0011
2478.00,0.0011
2477.00,0.0011
2476.00,0.0011
2475.00,0.0011
2474.00,0.0011
2473.00,0.0010
2472.00,0.0009
2471.00,0.0009
2470.00,0.0008
2469.00,0.0008
2468.00,0.0008
2467.00,0.0008
2466.00,0.0009
2465.00,0.0009
2464.00,0.0010
2463.00,0.0010
2462.00,0.0011
2461.00,0.0011
2460.00,0.0011
2459.00,0.0011
2458.00,0.0011
2457.00,0.0012
2456.00,0.0012
2455.00,0.0012
2454.00,0.0012
2453.00,0.0012
2452.00,0.0012
2451.00,0.0012
2450.00,0.0011
2449.00,0.0011
2448.00,0.0011
2447.00,0.0012
2446.00,0.0012
2445.00,0.0013
2444.00,0.0013
2443.00,0.0012
2442.00,0.0012
2441.00,0.0011
2440.00,0.0011
2439.00,0.0011
2438.00,0.0011
2437.00,0.0011
2436.00,0.0012
2435.00,0.0012
2434.00,0.0012
2433.00,0.0013
2432.00,0.0013
2431.00,0.0013
2430.00,0.0013
2429.00,0.0013
2428.00,0.0013
2427.00,0.0012
2426.00,0.0012
2425.00,0.0011
2424.00,0.0012
2423.00,0.0012
2422.00,0.0012
2421.00,0.0011
2420.00,0.0011
2419.00,0.0010
2418.00,0.0010
2417.00,0.0010
2416.00,0.0010
2415.00,0.0011
2414.00,0.0011
2413.00,0.0011
2412.00,0.0011
2411.00,0.0011
2410.00,0.0011
2409.00,0.0012
2408.00,0.0011
2407.00,0.0011
2406.00,0.0010
2405.00,0.0010
2404.00,0.0010
2403.00,0.0010
2402.00,0.0011
2401.00,0.0011
2400.00,0.0011
2399.00,0.0011
2398.00,0.0010
2397.00,0.0010
2396.00,0.0009
2395.00,0.0009
2394.00,0.0009
2393.00,0.0009
2392.00,0.0009
2391.00,0.0009
2390.00,0.0008
2389.00,0.0008
2388.00,0.0008
2387.00,0.0008
2386.00,0.0008
2385.00,0.0008
2384.00,0.0008
2383.00,0.0007
2382.00,0.0007
2381.00,0.0007
2380.00,0.0006
2379.00,0.0006
2378.00,0.0006
2377.00,0.0007
2376.00,0.0007
2375.00,0.0007
2374.00,0.0006
2373.00,0.0006
2372.00,0.0006
2371.00,0.0006
2370.00,0.0006
2369.00,0.0006
2368.00,0.0005
2367.00,0.0005
2366.00,0.0004
2365.00,0.0003
2364.00,0.0004
2363.00,0.0005
2362.00,0.0006
2361.00,0.0007
2360.00,0.0007
2359.00,0.0007
2358.00,0.0007
2357.00,0.0006
2356.00,0.0006
2355.00,0.0006
2354.00,0.0007
2353.00,0.0007
2352.00,0.0006
2351.00,0.0006
2350.00,0.0006
2349.00,0.0007
2348.00,0.0008
2347.00,0.0009
2346.00,0.0009
2345.00,0.0008
2344.00,0.0008
2343.00,0.0008
2342.00,0.0008
2341.00,0.0008
2340.00,0.0009
2339.00,0.0010
2338.00,0.0010
2337.00,0.0010
2336.00,0.0009
2335.00,0.0009
2334.00,0.0009
2333.00,0.0009
2332.00,0.0009
2331.00,0.0008
2330.00,0.0008
2329.00,0.0008
2328.00,0.0010
2327.00,0.0013
2326.00,0.0018
2325.00,0.0021
2324.00,0.0022
2323.00,0.0021
2322.00,0.0019
2321.00,0.0016
2320.00,0.0015
2319.00,0.0014
2318.00,0.0014
2317.00,0.0014
2316.00,0.0014
2315.00,0.0013
2314.00,0.0012
2313.00,0.0011
2312.00,0.0010
2311.00,0.0009
2310.00,0.0009
2309.00,0.0008
2308.00,0.0008
2307.00,0.0008
2306.00,0.0008
2305.00,0.0008
2304.00,0.0009
2303.00,0.0010
2302.00,0.0010
2301.00,0.0011
2300.00,0.0011
2299.00,0.0011
2298.00,0.0011
2297.00,0.0012
2296.00,0.0012
2295.00,0.0012
2294.00,0.0012
2293.00,0.0013
2292.00,0.0015
2291.00,0.0016
2290.00,0.0017
2289.00,0.0017
2288.00,0.0017
2287.00,0.0017
2286.00,0.0017
2285.00,0.0017
2284.00,0.0018
2283.00,0.0018
2282.00,0.0017
2281.00,0.0016
2280.00,0.0016
2279.00,0.0015
2278.00,0.0014
2277.00,0.0014
2276.00,0.0013
2275.00,0.0013
2274.00,0.0014
2273.00,0.0015
2272.00,0.0016
2271.00,0.0017
2270.00,0.0017
2269.00,0.0015
2268.00,0.0014
2267.00,0.0013
2266.00,0.0012
2265.00,0.0012
2264.00,0.0012
2263.00,0.0012
2262.00,0.0012
2261.00,0.0013
2260.00,0.0013
2259.00,0.0013
2258.00,0.0013
2257.00,0.0013
2256.00,0.0012
2255.00,0.0010
2254.00,0.0009
2253.00,0.0007
2252.00,0.0007
2251.00,0.0007
2250.00,0.0009
2249.00,0.0010
2248.00,0.0011
2247.00,0.0011
2246.00,0.0010
2245.00,0.0009
2244.00,0.0009
2243.00,0.0010
2242.00,0.0010
2241.00,0.0011
2240.00,0.0011
2239.00,0.0012
2238.00,0.0012
2237.00,0.0012
2236.00,0.0011
2235.00,0.0011
2234.00,0.0011
2233.00,0.0011
2232.00,0.0011
2231.00,0.0011
2230.00,0.0010
2229.00,0.0009
2228.00,0.0008
2227.00,0.0008
2226.00,0.0008
2225.00,0.0008
2224.00,0.0008
2223.00,0.0009
2222.00,0.0009
2221.00,0.0009
2220.00,0.0008
2219.00,0.0008
2218.00,0.0008
2217.00,0.0009
2216.00,0.0008
2215.00,0.0008
2214.00,0.0008
2213.00,0.0007
2212.00,0.0007
2211.00,0.0007
2210.00,0.0007
2209.00,0.0007
2208.00,0.0006
2207.00,0.0007
2206.00,0.0010
2205.00,0.0013
2204.00,0.0015
2203.00,0.0015
2202.00,0.0013
2201.00,0.0011
2200.00,0.0009
2199.00,0.0009
2198.00,0.0010
2197.00,0.0011
2196.00,0.0012
2195.00,0.0013
2194.00,0.0015
2193.00,0.0016
2192.00,0.0017
2191.00,0.0016
2190.00,0.0016
2189.00,0.0017
2188.00,0.0017
2187.00,0.0015
2186.00,0.0011
2185.00,0.0008
2184.00,0.0005
2183.00,0.0004
2182.00,0.0004
2181.00,0.0005
2180.00,0.0006
2179.00,0.0005
2178.00,0.0004
2177.00,0.0003
2176.00,0.0002
2175.00,0.0003
2174.00,0.0004
2173.00,0.0005
2172.00,0.0005
2171.00,0.0005
2170.00,0.0006
2169.00,0.0009
2168.00,0.0011
2167.00,0.0012
2166.00,0.0012
2165.00,0.0012
2164.00,0.0014
2163.00,0.0016
2162.00,0.0017
2161.00,0.0013
2160.00,0.0003
2159.00,-0.0011
2158.00,-0.0022
2157.00,-0.0027
2156.00,-0.0027
2155.00,-0.0024
2154.00,-0.0021
2153.00,-0.0018
2152.00,-0.0017
2151.00,-0.0016
2150.00,-0.0015
2149.00,-0.0014
2148.00,-0.0013
2147.00,-0.0014
2146.00,-0.0014
2145.00,-0.0012
2144.00,-0.0010
2143.00,-0.0008
2142.00,-0.0008
2141.00,-0.0008
2140.00,-0.0008
2139.00,-0.0007
2138.00,-0.0007
2137.00,-0.0007
2136.00,-0.0010
2135.00,-0.0014
2134.00,-0.0016
2133.00,-0.0017
2132.00,-0.0015
2131.00,-0.0012
2130.00,-0.0010
2129.00,-0.0008
2128.00,-0.0006
2127.00,-0.0005
2126.00,-0.0005
2125.00,-0.0004
2124.00,-0.0003
2123.00,-0.0001
2122.00,-0.0001
2121.00,-0.0000
2120.00,-0.0000
2119.00,-0.0000
2118.00,0.0000
2117.00,0.0002
2116.00,0.0003
2115.00,0.0005
2114.00,0.0006
2113.00,0.0006
2112.00,0.0005
2111.00,0.0003
2110.00,0.0002
2109.00,0.0001
2108.00,0.0000
2107.00,0.0000
2106.00,0.0001
2105.00,0.0002
2104.00,0.0004
2103.00,0.0004
2102.00,0.0004
2101.00,0.0003
2100.00,0.0003
2099.00,0.0002
2098.00,0.0003
2097.00,0.0004
2096.00,0.0005
2095.00,0.0004
2094.00,0.0003
2093.00,0.0002
2092.00,0.0001
2091.00,0.0001
2090.00,0.0002
2089.00,0.0002
2088.00,0.0002
2087.00,0.0002
2086.00,0.0002
2085.00,0.0003
2084.00,0.0003
2083.00,0.0002
2082.00,0.0002
2081.00,0.0003
2080.00,0.0004
2079.00,0.0006
2078.00,0.0007
2077.00,0.0007
2076.00,0.0006
2075.00,0.0004
2074.00,0.0002
2073.00,0.0001
2072.00,0.0001
2071.00,0.0002
2070.00,0.0003
2069.00,0.0003
2068.00,0.0003
2067.00,0.0002
2066.00,0.0002
2065.00,0.0002
2064.00,0.0003
2063.00,0.0004
2062.00,0.0005
2061.00,0.0005
2060.00,0.0005
2059.00,0.0005
2058.00,0.0005
2057.00,0.0005
2056.00,0.0004
2055.00,0.0002
2054.00,0.0001
2053.00,0.0003
2052.00,0.0007
2051.00,0.0010
2050.00,0.0010
2049.00,0.0008
2048.00,0.0005
2047.00,0.0002
2046.00,0.0002
2045.00,0.0003
2044.00,0.0005
2043.00,0.0007
2042.00,0.0008
2041.00,0.0007
2040.00,0.0005
2039.00,0.0005
2038.00,0.0006
2037.00,0.0007
2036.00,0.0009
2035.00,0.0009
2034.00,0.0008
2033.00,0.0005
2032.00,0.0002
2031.00,-0.0002
2030.00,-0.0005
2029.00,-0.0006
2028.00,-0.0006
2027.00,-0.0005
2026.00,-0.0003
2025.00,-0.0001
2024.00,0.0000
2023.00,0.0000
2022.00,-0.0000
2021.00,-0.0001
2020.00,-0.0000
2019.00,-0.0001
2018.00,-0.0001
2017.00,0.0001
2016.00,0.0003
2015.00,0.0005
2014.00,0.0004
2013.00,0.0002
2012.00,-0.0001
2011.00,-0.0004
2010.00,-0.0007
2009.00,-0.0009
2008.00,-0.0010
2007.00,-0.0010
2006.00,-0.0010
2005.00,-0.0010
2004.00,-0.0010
2003.00,-0.0010
2002.00,-0.0010
2001.00,-0.0010
2000.00,-0.0011
1999.00,-0.0012
1998.00,-0.0013
1997.00,-0.0012
1996.00,-0.0011
1995.00,-0.0010
1994.00,-0.0008
1993.00,-0.0006
1992.00,-0.0005
1991.00,-0.0004
1990.00,-0.0004
1989.00,-0.0002
1988.00,-0.0001
1987.00,-0.0001
1986.00,-0.0000
1985.00,0.0000
1984.00,0.0003
1983.00,0.0006
1982.00,0.0009
1981.00,0.0011
1980.00,0.0010
1979.00,0.0004
1978.00,-0.0004
1977.00,-0.0011
1976.00,-0.0015
1975.00,-0.0016
1974.00,-0.0013
1973.00,-0.0010
1972.00,-0.0008
1971.00,-0.0009
1970.00,-0.0010
1969.00,-0.0009
1968.00,-0.0008
1967.00,-0.0007
1966.00,-0.0007
1965.00,-0.0007
1964.00,-0.0006
1963.00,-0.0006
1962.00,-0.0006
1961.00,-0.0008
1960.00,-0.0010
1959.00,-0.0012
1958.00,-0.0012
1957.00,-0.0012
1956.00,-0.0010
1955.00,-0.0010
1954.00,-0.0010
1953.00,-0.0010
1952.00,-0.0011
1951.00,-0.0011
1950.00,-0.0012
1949.00,-0.0011
1948.00,-0.0010
1947.00,-0.0009
1946.00,-0.0009
1945.00,-0.0011
1944.00,-0.0012
1943.00,-0.0013
1942.00,-0.0013
1941.00,-0.0013
1940.00,-0.0012
1939.00,-0.0011
1938.00,-0.0010
1937.00,-0.0009
1936.00,-0.0008
1935.00,-0.0007
1934.00,-0.0007
1933.00,-0.0007
1932.00,-0.0007
1931.00,-0.0006
1930.00,-0.0005
1929.00,-0.0003
1928.00,-0.0002
1927.00,-0.0002
1926.00,-0.0002
1925.00,-0.0003
1924.00,-0.0003
1923.00,-0.0004
1922.00,-0.0003
1921.00,-0.0002
1920.00,0.0000
1919.00,0.0001
1918.00,0.0001
1917.00,0.0001
1916.00,0.0001
1915.00,0.0000
1914.00,-0.0000
1913.00,-0.0000
1912.00,0.0000
1911.00,-0.0000
1910.00,-0.0002
1909.00,-0.0003
1908.00,-0.0005
1907.00,-0.0005
1906.00,-0.0004
1905.00,-0.0002
1904.00,-0.0000
1903.00,0.0000
1902.00,-0.0000
1901.00,-0.0001
1900.00,-0.0001
1899.00,-0.0001
1898.00,0.0000
1897.00,0.0001
1896.00,0.0002
1895.00,0.0003
1894.00,0.0003
1893.00,0.0004
1892.00,0.0003
1891.00,0.0002
1890.00,0.0001
1889.00,0.0001
1888.00,0.0001
1887.00,0.0001
1886.00,0.0001
1885.00,0.0001
1884.00,0.0001
1883.00,0.0000
1882.00,-0.0001
1881.00,-0.0001
1880.00,-0.0001
1879.00,-0.0001
1878.00,-0.0000
1877.00,0.0001
1876.00,0.0002
1875.00,0.0002
1874.00,0.0002
1873.00,0.0001
1872.00,0.0001
1871.00,0.0001
1870.00,0.0002
1869.00,0.0003
1868.00,0.0003
1867.00,0.0002
1866.00,0.0001
1865.00,0.0000
1864.00,-0.0000
1863.00,-0.0000
1862.00,0.0001
1861.00,0.0002
1860.00,0.0003
1859.00,0.0003
1858.00,0.0003
1857.00,0.0002
1856.00,0.0001
1855.00,0.0002
1854.00,0.0002
1853.00,0.0003
1852.00,0.0004
1851.00,0.0004
1850.00,0.0004
1849.00,0.0003
1848.00,0.0003
1847.00,0.0003
1846.00,0.0004
1845.00,0.0004
1844.00,0.0004
1843.00,0.0004
1842.00,0.0004
1841.00,0.0004
1840.00,0.0004
1839.00,0.0005
1838.00,0.0005
1837.00,0.0005
1836.00,0.0005
1835.00,0.0005
1834.00,0.0005
1833.00,0.0005
1832.00,0.0005
1831.00,0.0005
1830.00,0.0004
1829.00,0.0004
1828.00,0.0004
1827.00,0.0004
1826.00,0.0004
1825.00,0.0004
1824.00,0.0005
1823.00,0.0005
1822.00,0.0006
1821.00,0.0006
1820.00,0.0005
1819.00,0.0004
1818.00,0.0003
1817.00,0.0002
1816.00,0.0002
1815.00,0.0003
1814.00,0.0003
1813.00,0.0004
1812.00,0.0005
1811.00,0.0005
1810.00,0.0005
1809.00,0.0005
1808.00,0.0005
1807.00,0.0005
1806.00,0.0006
1805.00,0.0006
1804.00,0.0007
1803.00,0.0006
1802.00,0.0006
1801.00,0.0006
1800.00,0.0007
1799.00,0.0007
1798.00,0.0007
1797.00,0.0008
1796.00,0.0008
1795.00,0.0009
1794.00,0.0009
1793.00,0.0009
1792.00,0.0008
1791.00,0.0008
1790.00,0.0008
1789.00,0.0008
1788.00,0.0008
1787.00,0.0008
1786.00,0.0008
1785.00,0.0008
1784.00,0.0009
1783.00,0.0010
1782.00,0.0010
1781.00,0.0011
1780.00,0.0011
1779.00,0.0011
1778.00,0.0010
1777.00,0.0010
1776.00,0.0010
1775.00,0.0010
1774.00,0.0010
1773.00,0.0011
1772.00,0.0011
1771.00,0.0011
1770.00,0.0010
1769.00,0.0011
1768.00,0.0011
1767.00,0.0011
1766.00,0.0012
1765.00,0.0012
1764.00,0.0013
1763.00,0.0013
1762.00,0.0013
1761.00,0.0014
1760.00,0.0014
1759.00,0.0014
1758.00,0.0014
1757.00,0.0014
1756.00,0.0014
1755.00,0.0015
1754.00,0.0015
1753.00,0.0015
1752.00,0.0016
1751.00,0.0016
1750.00,0.0017
1749.00,0.0017
1748.00,0.0018
1747.00,0.0018
1746.00,0.0019
1745.00,0.0019
1744.00,0.0020
1743.00,0.0020
1742.00,0.0021
1741.00,0.0021
1740.00,0.0021
1739.00,0.0022
1738.00,0.0022
1737.00,0.0022
1736.00,0.0022
1735.00,0.0023
1734.00,0.0023
1733.00,0.0024
1732.00,0.0024
1731.00,0.0024
1730.00,0.0023
1729.00,0.0023
1728.00,0.0024
1727.00,0.0024
1726.00,0.0024
1725.00,0.0025
1724.00,0.0026
1723.00,0.0026
1722.00,0.0026
1721.00,0.0027
1720.00,0.0027
1719.00,0.0027
1718.00,0.0026
1717.00,0.0025
1716.00,0.0024
1715.00,0.0025
1714.00,0.0025
1713.00,0.0025
1712.00,0.0026
1711.00,0.0026
1710.00,0.0026
1709.00,0.0026
1708.00,0.0026
1707.00,0.0027
1706.00,0.0027
1705.00,0.0028
1704.00,0.0029
1703.00,0.0029
1702.00,0.0029
1701.00,0.0030
1700.00,0.0031
1699.00,0.0031
1698.00,0.0032
1697.00,0.0032
1696.00,0.0033
1695.00,0.0034
1694.00,0.0035
1693.00,0.0036
1692.00,0.0037
1691.00,0.0038
1690.00,0.0038
1689.00,0.0039
1688.00,0.0040
1687.00,0.0040
1686.00,0.0041
1685.00,0.0042
1684.00,0.0043
1683.00,0.0045
1682.00,0.0046
1681.00,0.0047
1680.00,0.0048
1679.00,0.0050
1678.00,0.0051
1677.00,0.0053
1676.00,0.0054
1675.00,0.0056
1674.00,0.0057
1673.00,0.0057
1672.00,0.0057
1671.00,0.0057
1670.00,0.0058
1669.00,0.0059
1668.00,0.0061
1667.00,0.0062
1666.00,0.0063
1665.00,0.0063
1664.00,0.0063
1663.00,0.0064
1662.00,0.0064
1661.00,0.0065
1660.00,0.0067
1659.00,0.0068
1658.00,0.0069
1657.00,0.0070
1656.00,0.0071
1655.00,0.0072
1654.00,0.0073
1653.00,0.0075
1652.00,0.0076
1651.00,0.0077
1650.00,0.0078
1649.00,0.0078
1648.00,0.0079
1647.00,0.0079
1646.00,0.0080
1645.00,0.0081
1644.00,0.0083
1643.00,0.0084
1642.00,0.0085
1641.00,0.0086
1640.00,0.0088
1639.00,0.0089
1638.00,0.0090
1637.00,0.0090
1636.00,0.0089
1635.00,0.0088
1634.00,0.0087
1633.00,0.0086
1632.00,0.0085
1631.00,0.0084
1630.00,0.0084
1629.00,0.0083
1628.00,0.0083
1627.00,0.0083
1626.00,0.0082
1625.00,0.0082
1624.00,0.0081
1623.00,0.0080
1622.00,0.0079
1621.00,0.0079
1620.00,0.0078
1619.00,0.0078
1618.00,0.0077
1617.00,0.0076
1616.00,0.0076
1615.00,0.0077
1614.00,0.0077
1613.00,0.0077
1612.00,0.0078
1611.00,0.0078
1610.00,0.0078
1609.00,0.0077
1608.00,0.0077
1607.00,0.0077
1606.00,0.0077
1605.00,0.0077
1604.00,0.0076
1603.00,0.0076
1602.00,0.0076
1601.00,0.0075
1600.00,0.0075
1599.00,0.0075
1598.00,0.0075
1597.00,0.0075
1596.00,0.0075
1595.00,0.0075
1594.00,0.0074
1593.00,0.0074
1592.00,0.0074
1591.00,0.0074
1590.00,0.0073
1589.00,0.0073
1588.00,0.0073
1587.00,0.0073
1586.00,0.0073
1585.00,0.0073
1584.00,0.0074
1583.00,0.0074
1582.00,0.0074
1581.00,0.0075
1580.00,0.0076
1579.00,0.0076
1578.00,0.0076
1577.00,0.0076
1576.00,0.0076
1575.00,0.0077
1574.00,0.0077
1573.00,0.0077
1572.00,0.0077
1571.00,0.0077
1570.00,0.0077
1569.00,0.0078
1568.00,0.0078
1567.00,0.0079
1566.00,0.0079
1565.00,0.0080
1564.00,0.0080
1563.00,0.0081
1562.00,0.0081
1561.00,0.0082
1560.00,0.0084
1559.00,0.0085
1558.00,0.0085
1557.00,0.0085
1556.00,0.0085
1555.00,0.0085
1554.00,0.0086
1553.00,0.0088
1552.00,0.0089
1551.00,0.0090
1550.00,0.0090
1549.00,0.0091
1548.00,0.0091
1547.00,0.0091
1546.00,0.0091
1545.00,0.0091
1544.00,0.0091
1543.00,0.0092
1542.00,0.0091
1541.00,0.0091
1540.00,0.0089
1539.00,0.0086
1538.00,0.0084
1537.00,0.0083
1536.00,0.0082
1535.00,0.0080
1534.00,0.0077
1533.00,0.0075
1532.00,0.0074
1531.00,0.0073
1530.00,0.0072
1529.00,0.0071
1528.00,0.0071
1527.00,0.0070
1526.00,0.0070
1525.00,0.0070
1524.00,0.0070
1523.00,0.0069
1522.00,0.0068
1521.00,0.0069
1520.00,0.0069
1519.00,0.0069
1518.00,0.0069
1517.00,0.0069
1516.00,0.0069
1515.00,0.0069
1514.00,0.0069
1513.00,0.0070
1512.00,0.0070
1511.00,0.0071
1510.00,0.0071
1509.00,0.0072
1508.00,0.0072
1507.00,0.0073
1506.00,0.0073
1505.00,0.0075
1504.00,0.0078
1503.00,0.0080
1502.00,0.0082
1501.00,0.0084
1500.00,0.0088
1499.00,0.0090
1498.00,0.0093
1497.00,0.0097
1496.00,0.0101
1495.00,0.0105
1494.00,0.0109
1493.00,0.0113
1492.00,0.0118
1491.00,0.0122
1490.00,0.0126
1489.00,0.0132
1488.00,0.0138
1487.00,0.0143
1486.00,0.0147
1485.00,0.0153
1484.00,0.0159
1483.00,0.0166
1482.00,0.0174
1481.00,0.0184
1480.00,0.0195
1479.00,0.0207
1478.00,0.0222
1477.00,0.0243
1476.00,0.0268
1475.00,0.0298
1474.00,0.0337
1473.00,0.0394
1472.00,0.0460
1471.00,0.0523
1470.00,0.0583
1469.00,0.0646
1468.00,0.0713
1467.00,0.0786
1466.00,0.0869
1465.00,0.0957
1464.00,0.1035
1463.00,0.1088
1462.00,0.1122
1461.00,0.1146
1460.00,0.1162
1459.00,0.1174
1458.00,0.1184
1457.00,0.1192
1456.00,0.1193
1455.00,0.1186
1454.00,0.1176
1453.00,0.1161
1452.00,0.1137
1451.00,0.1102
1450.00,0.1053
1449.00,0.0985
1448.00,0.0899
1447.00,0.0807
1446.00,0.0723
1445.00,0.0651
1444.00,0.0588
1443.00,0.0537
1442.00,0.0497
1441.00,0.0469
1440.00,0.0451
1439.00,0.0441
1438.00,0.0439
1437.00,0.0438
1436.00,0.0429
1435.00,0.0406
1434.00,0.0373
1433.00,0.0333
1432.00,0.0290
1431.00,0.0253
1430.00,0.0224
1429.00,0.0202
1428.00,0.0187
1427.00,0.0177
1426.00,0.0171
1425.00,0.0165
1424.00,0.0159
1423.00,0.0155
1422.00,0.0153
1421.00,0.0150
1420.00,0.0147
1419.00,0.0145
1418.00,0.0143
1417.00,0.0141
1416.00,0.0138
1415.00,0.0137
1414.00,0.0135
1413.00,0.0134
1412.00,0.0132
1411.00,0.0131
1410.00,0.0130
1409.00,0.0129
1408.00,0.0128
1407.00,0.0128
1406.00,0.0128
1405.00,0.0128
1404.00,0.0127
1403.00,0.0128
1402.00,0.0130
1401.00,0.0131
1400.00,0.0132
1399.00,0.0134
1398.00,0.0136
1397.00,0.0137
1396.00,0.0138
1395.00,0.0141
1394.00,0.0146
1393.00,0.0150
1392.00,0.0155
1391.00,0.0162
1390.00,0.0172
1389.00,0.0185
1388.00,0.0205
1387.00,0.0235
1386.00,0.0276
1385.00,0.0330
1384.00,0.0404
1383.00,0.0509
1382.00,0.0649
1381.00,0.0828
1380.00,0.1048
1379.00,0.1294
1378.00,0.1529
1377.00,0.1697
1376.00,0.1747
1375.00,0.1654
1374.00,0.1446
1373.00,0.1198
1372.00,0.0972
1371.00,0.0786
1370.00,0.0638
1369.00,0.0525
1368.00,0.0447
1367.00,0.0399
1366.00,0.0372
1365.00,0.0361
1364.00,0.0362
1363.00,0.0374
1362.00,0.0392
1361.00,0.0412
1360.00,0.0428
1359.00,0.0433
1358.00,0.0424
1357.00,0.0401
1356.00,0.0369
1355.00,0.0333
1354.00,0.0297
1353.00,0.0267
1352.00,0.0243
1351.00,0.0223
1350.00,0.0207
1349.00,0.0194
1348.00,0.0183
1347.00,0.0174
1346.00,0.0166
1345.00,0.0160
1344.00,0.0154
1343.00,0.0149
1342.00,0.0143
1341.00,0.0139
1340.00,0.0135
1339.00,0.0132
1338.00,0.0130
1337.00,0.0129
1336.00,0.0129
1335.00,0.0130
1334.00,0.0133
1333.00,0.0137
1332.00,0.0140
1331.00,0.0143
1330.00,0.0144
1329.00,0.0143
1328.00,0.0140
1327.00,0.0136
1326.00,0.0131
1325.00,0.0126
1324.00,0.0120
1323.00,0.0115
1322.00,0.0111
1321.00,0.0108
1320.00,0.0106
1319.00,0.0104
1318.00,0.0103
1317.00,0.0102
1316.00,0.0101
1315.00,0.0100
1314.00,0.0100
1313.00,0.0100
1312.00,0.0102
1311.00,0.0104
1310.00,0.0109
1309.00,0.0116
1308.00,0.0126
1307.00,0.0138
1306.00,0.0150
1305.00,0.0157
1304.00,0.0160
1303.00,0.0156
1302.00,0.0150
1301.00,0.0144
1300.00,0.0140
1299.00,0.0138
1298.00,0.0138
1297.00,0.0137
1296.00,0.0136
1295.00,0.0133
1294.00,0.0130
1293.00,0.0125
1292.00,0.0120
1291.00,0.0115
1290.00,0.0111
1289.00,0.0108
1288.00,0.0105
1287.00,0.0103
1286.00,0.0101
1285.00,0.0099
1284.00,0.0098
1283.00,0.0097
1282.00,0.0096
1281.00,0.0095
1280.00,0.0094
1279.00,0.0092
1278.00,0.0091
1277.00,0.0091
1276.00,0.0090
1275.00,0.0091
1274.00,0.0091
1273.00,0.0092
1272.00,0.0093
1271.00,0.0093
1270.00,0.0094
1269.00,0.0096
1268.00,0.0098
1267.00,0.0102
1266.00,0.0105
1265.00,0.0109
1264.00,0.0113
1263.00,0.0117
1262.00,0.0122
1261.00,0.0126
1260.00,0.0132
1259.00,0.0138
1258.00,0.0145
1257.00,0.0151
1256.00,0.0153
1255.00,0.0150
1254.00,0.0144
1253.00,0.0134
1252.00,0.0125
1251.00,0.0118
1250.00,0.0112
1249.00,0.0107
1248.00,0.0104
1247.00,0.0101
1246.00,0.0100
1245.00,0.0098
1244.00,0.0097
1243.00,0.0096
1242.00,0.0094
1241.00,0.0093
1240.00,0.0091
1239.00,0.0091
1238.00,0.0090
1237.00,0.0090
1236.00,0.0090
1235.00,0.0090
1234.00,0.0090
1233.00,0.0090
1232.00,0.0090
1231.00,0.0090
1230.00,0.0090
1229.00,0.0091
1228.00,0.0092
1227.00,0.0094
1226.00,0.0096
1225.00,0.0098
1224.00,0.0101
1223.00,0.0104
1222.00,0.0107
1221.00,0.0110
1220.00,0.0112
1219.00,0.0112
1218.00,0.0112
1217.00,0.0109
1216.00,0.0106
1215.00,0.0103
1214.00,0.0100
1213.00,0.0098
1212.00,0.0095
1211.00,0.0093
1210.00,0.0091
1209.00,0.0089
1208.00,0.0088
1207.00,0.0087
1206.00,0.0087
1205.00,0.0086
1204.00,0.0086
1203.00,0.0085
1202.00,0.0084
1201.00,0.0084
1200.00,0.0083
1199.00,0.0083
1198.00,0.0083
1197.00,0.0082
1196.00,0.0083
1195.00,0.0083
1194.00,0.0084
1193.00,0.0084
1192.00,0.0084
1191.00,0.0084
1190.00,0.0084
1189.00,0.0084
1188.00,0.0084
1187.00,0.0085
1186.00,0.0085
1185.00,0.0086
1184.00,0.0088
1183.00,0.0089
1182.00,0.0092
1181.00,0.0095
1180.00,0.0099
1179.00,0.0104
1178.00,0.0111
1177.00,0.0120
1176.00,0.0132
1175.00,0.0147
1174.00,0.0168
1173.00,0.0195
1172.00,0.0226
1171.00,0.0261
1170.00,0.0295
1169.00,0.0324
1168.00,0.0341
1167.00,0.0345
1166.00,0.0337
1165.00,0.0321
1164.00,0.0301
1163.00,0.0282
1162.00,0.0265
1161.00,0.0252
1160.00,0.0242
1159.00,0.0234
1158.00,0.0229
1157.00,0.0225
1156.00,0.0222
1155.00,0.0220
1154.00,0.0219
1153.00,0.0217
1152.00,0.0213
1151.00,0.0207
1150.00,0.0200
1149.00,0.0192
1148.00,0.0183
1147.00,0.0174
1146.00,0.0166
1145.00,0.0158
1144.00,0.0150
1143.00,0.0143
1142.00,0.0137
1141.00,0.0132
1140.00,0.0128
1139.00,0.0124
1138.00,0.0120
1137.00,0.0118
1136.00,0.0117
1135.00,0.0116
1134.00,0.0115
1133.00,0.0113
1132.00,0.0112
1131.00,0.0112
1130.00,0.0112
1129.00,0.0112
1128.00,0.0113
1127.00,0.0115
1126.00,0.0116
1125.00,0.0118
1124.00,0.0119
1123.00,0.0121
1122.00,0.0123
1121.00,0.0126
1120.00,0.0128
1119.00,0.0130
1118.00,0.0132
1117.00,0.0133
1116.00,0.0134
1115.00,0.0135
1114.00,0.0135
1113.00,0.0136
1112.00,0.0137
1111.00,0.0138
1110.00,0.0139
1109.00,0.0140
1108.00,0.0143
1107.00,0.0148
1106.00,0.0153
1105.00,0.0158
1104.00,0.0162
1103.00,0.0164
1102.00,0.0163
1101.00,0.0159
1100.00,0.0154
1099.00,0.0149
1098.00,0.0143
1097.00,0.0139
1096.00,0.0134
1095.00,0.0131
1094.00,0.0128
1093.00,0.0126
1092.00,0.0124
1091.00,0.0122
1090.00,0.0121
1089.00,0.0120
1088.00,0.0118
1087.00,0.0117
1086.00,0.0115
1085.00,0.0115
1084.00,0.0114
1083.00,0.0114
1082.00,0.0114
1081.00,0.0114
1080.00,0.0113
1079.00,0.0112
1078.00,0.0111
1077.00,0.0109
1076.00,0.0107
1075.00,0.0106
1074.00,0.0105
1073.00,0.0104
1072.00,0.0103
1071.00,0.0102
1070.00,0.0102
1069.00,0.0102
1068.00,0.0101
1067.00,0.0101
1066.00,0.0100
1065.00,0.0101
1064.00,0.0102
1063.00,0.0103
1062.00,0.0103
1061.00,0.0103
1060.00,0.0102
1059.00,0.0102
1058.00,0.0102
1057.00,0.0102
1056.00,0.0101
1055.00,0.0101
1054.00,0.0100
1053.00,0.0100
1052.00,0.0101
1051.00,0.0102
1050.00,0.0105
1049.00,0.0108
1048.00,0.0111
1047.00,0.0115
1046.00,0.0119
1045.00,0.0122
1044.00,0.0123
1043.00,0.0122
1042.00,0.0120
1041.00,0.0118
1040.00,0.0117
1039.00,0.0115
1038.00,0.0114
1037.00,0.0113
1036.00,0.0113
1035.00,0.0112
1034.00,0.0111
1033.00,0.0109
1032.00,0.0107
1031.00,0.0105
1030.00,0.0104
1029.00,0.0102
1028.00,0.0101
1027.00,0.0100
1026.00,0.0101
1025.00,0.0101
1024.00,0.0101
1023.00,0.0101
1022.00,0.0101
1021.00,0.0101
1020.00,0.0101
1019.00,0.0101
1018.00,0.0102
1017.00,0.0102
1016.00,0.0104
1015.00,0.0106
1014.00,0.0108
1013.00,0.0111
1012.00,0.0113
1011.00,0.0115
1010.00,0.0118
1009.00,0.0121
1008.00,0.0125
1007.00,0.0131
1006.00,0.0140
1005.00,0.0153
1004.00,0.0170
1003.00,0.0195
1002.00,0.0229
1001.00,0.0271
1000.00,0.0316
999.00,0.0354
998.00,0.0373
997.00,0.0367
996.00,0.0338
995.00,0.0295
994.00,0.0250
993.00,0.0211
992.00,0.0181
991.00,0.0160
990.00,0.0145
989.00,0.0135
988.00,0.0129
987.00,0.0125
986.00,0.0124
985.00,0.0125
984.00,0.0129
983.00,0.0136
982.00,0.0147
981.00,0.0163
980.00,0.0185
979.00,0.0213
978.00,0.0250
977.00,0.0293
976.00,0.0341
975.00,0.0389
974.00,0.0425
973.00,0.0441
972.00,0.0429
971.00,0.0391
970.00,0.0338
969.00,0.0283
968.00,0.0236
967.00,0.0199
966.00,0.0172
965.00,0.0154
964.00,0.0140
963.00,0.0130
962.00,0.0121
961.00,0.0114
960.00,0.0109
959.00,0.0106
958.00,0.0103
957.00,0.0102
956.00,0.0100
955.00,0.0099
954.00,0.0097
953.00,0.0096
952.00,0.0094
951.00,0.0093
950.00,0.0091
949.00,0.0090
948.00,0.0090
947.00,0.0091
946.00,0.0092
945.00,0.0094
944.00,0.0097
943.00,0.0100
942.00,0.0104
941.00,0.0106
940.00,0.0106
939.00,0.0103
938.00,0.0099
937.00,0.0094
936.00,0.0088
935.00,0.0084
934.00,0.0081
933.00,0.0079
932.00,0.0078
931.00,0.0077
930.00,0.0076
929.00,0.0075
928.00,0.0074
927.00,0.0074
926.00,0.0074
925.00,0.0073
924.00,0.0072
923.00,0.0071
922.00,0.0071
921.00,0.0071
920.00,0.0072
919.00,0.0073
918.00,0.0074
917.00,0.0074
916.00,0.0074
915.00,0.0074
914.00,0.0074
913.00,0.0075
912.00,0.0077
911.00,0.0079
910.00,0.0082
909.00,0.0085
908.00,0.0088
907.00,0.0093
906.00,0.0099
905.00,0.0107
904.00,0.0120
903.00,0.0136
902.00,0.0154
901.00,0.0171
900.00,0.0181
899.00,0.0182
898.00,0.0175
897.00,0.0160
896.00,0.0143
895.00,0.0127
894.00,0.0113
893.00,0.0104
892.00,0.0097
891.00,0.0092
890.00,0.0090
889.00,0.0088
888.00,0.0087
887.00,0.0086
886.00,0.0085
885.00,0.0084
884.00,0.0083
883.00,0.0082
882.00,0.0082
881.00,0.0083
880.00,0.0084
879.00,0.0085
878.00,0.0087
877.00,0.0089
876.00,0.0091
875.00,0.0092
874.00,0.0091
873.00,0.0090
872.00,0.0089
871.00,0.0088
870.00,0.0088
869.00,0.0087
868.00,0.0086
867.00,0.0086
866.00,0.0086
865.00,0.0088
864.00,0.0090
863.00,0.0092
862.00,0.0092
861.00,0.0092
860.00,0.0093
859.00,0.0094
858.00,0.0095
857.00,0.0097
856.00,0.0098
855.00,0.0099
854.00,0.0101
853.00,0.0103
852.00,0.0107
851.00,0.0111
850.00,0.0116
849.00,0.0122
848.00,0.0133
847.00,0.0147
846.00,0.0169
845.00,0.0203
844.00,0.0252
843.00,0.0310
842.00,0.0359
841.00,0.0378
840.00,0.0357
839.00,0.0305
838.00,0.0247
837.00,0.0199
836.00,0.0168
835.00,0.0149
834.00,0.0137
833.00,0.0130
832.00,0.0125
831.00,0.0122
830.00,0.0118
829.00,0.0115
828.00,0.0113
827.00,0.0112
826.00,0.0112
825.00,0.0111
824.00,0.0110
823.00,0.0108
822.00,0.0109
821.00,0.0111
820.00,0.0113
819.00,0.0116
818.00,0.0119
817.00,0.0125
816.00,0.0134
815.00,0.0145
814.00,0.0160
813.00,0.0177
812.00,0.0195
811.00,0.0211
810.00,0.0223
809.00,0.0229
808.00,0.0226
807.00,0.0215
806.00,0.0198
805.00,0.0180
804.00,0.0162
803.00,0.0149
802.00,0.0139
801.00,0.0132
800.00,0.0126
799.00,0.0121
798.00,0.0118
797.00,0.0115
796.00,0.0113
795.00,0.0111
794.00,0.0108
793.00,0.0104
792.00,0.0100
791.00,0.0096
790.00,0.0092
789.00,0.0089
788.00,0.0087
787.00,0.0087
786.00,0.0087
785.00,0.0087
784.00,0.0086
783.00,0.0084
782.00,0.0082
781.00,0.0081
780.00,0.0080
779.00,0.0080
778.00,0.0079
777.00,0.0078
776.00,0.0077
775.00,0.0076
774.00,0.0076
773.00,0.0076
772.00,0.0077
771.00,0.0079
770.00,0.0080
769.00,0.0081
768.00,0.0081
767.00,0.0082
766.00,0.0082
765.00,0.0081
764.00,0.0080
763.00,0.0079
762.00,0.0079
761.00,0.0080
760.00,0.0081
759.00,0.0082
758.00,0.0084
757.00,0.0085
756.00,0.0086
755.00,0.0087
754.00,0.0086
753.00,0.0086
752.00,0.0087
751.00,0.0090
750.00,0.0092
749.00,0.0094
748.00,0.0095
747.00,0.0096
746.00,0.0098
745.00,0.0100
744.00,0.0102
743.00,0.0105
742.00,0.0109
741.00,0.0113
740.00,0.0117
739.00,0.0121
738.00,0.0125
737.00,0.0128
736.00,0.0130
735.00,0.0133
734.00,0.0138
733.00,0.0145
732.00,0.0155
731.00,0.0164
730.00,0.0171
729.00,0.0175
728.00,0.0176
727.00,0.0176
726.00,0.0177
725.00,0.0180
724.00,0.0186
723.00,0.0193
722.00,0.0201
721.00,0.0205
720.00,0.0202
719.00,0.0193
718.00,0.0178
717.00,0.0163
716.00,0.0150
715.00,0.0142
714.00,0.0137
713.00,0.0133
712.00,0.0131
711.00,0.0128
710.00,0.0127
709.00,0.0126
708.00,0.0126
707.00,0.0126
706.00,0.0125
705.00,0.0123
704.00,0.0121
703.00,0.0118
702.00,0.0115
701.00,0.0112
700.00,0.0109
699.00,0.0106
698.00,0.0104
697.00,0.0102
696.00,0.0101
695.00,0.0100
694.00,0.0100
693.00,0.0099
692.00,0.0100
691.00,0.0102
690.00,0.0105
689.00,0.0106
688.00,0.0107
687.00,0.0107
686.00,0.0107
685.00,0.0106
684.00,0.0104
683.00,0.0102
682.00,0.0101
681.00,0.0099
680.00,0.0098
679.00,0.0099
678.00,0.0102
677.00,0.0105
676.00,0.0107
675.00,0.0107
674.00,0.0107
673.00,0.0105
672.00,0.0103
671.00,0.0100
670.00,0.0099
669.00,0.0098
668.00,0.0100
667.00,0.0102
666.00,0.0102
665.00,0.0101
664.00,0.0099
663.00,0.0099
662.00,0.0100
661.00,0.0102
660.00,0.0103
659.00,0.0104
658.00,0.0103
657.00,0.0101
656.00,0.0100
655.00,0.0100
654.00,0.0100
653.00,0.0101
652.00,0.0101
651.00,0.0101
650.00,0.0100
649.00,0.0101
648.00,0.0101
647.00,0.0102
646.00,0.0101
645.00,0.0099
644.00,0.0097
643.00,0.0094
642.00,0.0093
641.00,0.0093
640.00,0.0095
639.00,0.0097
638.00,0.0098
637.00,0.0100
636.00,0.0102
635.00,0.0103
634.00,0.0104
633.00,0.0104
632.00,0.0105
631.00,0.0104
630.00,0.0103
629.00,0.0100
628.00,0.0098
627.00,0.0097
626.00,0.0098
625.00,0.0101
624.00,0.0104
623.00,0.0105
622.00,0.0106
621.00,0.0105
620.00,0.0104
619.00,0.0104
618.00,0.0104
617.00,0.0105
616.00,0.0105
615.00,0.0104
614.00,0.0101
613.00,0.0098
612.00,0.0097
611.00,0.0098
610.00,0.0100
609.00,0.0101
608.00,0.0101
607.00,0.0100
606.00,0.0099
605.00,0.0097
604.00,0.0096
603.00,0.0099
602.00,0.0102
601.00,0.0104
600.00,0.0103
599.00,0.0101
598.00,0.0099
597.00,0.0098
596.00,0.0097
595.00,0.0098
594.00,0.0099
593.00,0.0101
592.00,0.0102
591.00,0.0103
590.00,0.0103
589.00,0.0103
588.00,0.0103
587.00,0.0103
586.00,0.0103
585.00,0.0102
584.00,0.0100
583.00,0.0100
582.00,0.0102
581.00,0.0106
580.00,0.0109
579.00,0.0110
578.00,0.0110
577.00,0.0108
576.00,0.0105
575.00,0.0104
574.00,0.0106
573.00,0.0110
572.00,0.0113
571.00,0.0111
570.00,0.0106
569.00,0.0102
568.00,0.0101
567.00,0.0102
566.00,0.0105
565.00,0.0106
564.00,0.0105
563.00,0.0104
562.00,0.0104
561.00,0.0105
560.00,0.0107
559.00,0.0110
558.00,0.0112
557.00,0.0114
556.00,0.0113
555.00,0.0111
554.00,0.0109
553.00,0.0108
552.00,0.0107
551.00,0.0104
550.00,0.0100
549.00,0.0097
548.00,0.0099
547.00,0.0102
546.00,0.0104
545.00,0.0102
544.00,0.0098
543.00,0.0096
542.00,0.0097
541.00,0.0100
540.00,0.0102
539.00,0.0104
538.00,0.0106
537.00,0.0111
536.00,0.0117
535.00,0.0121
534.00,0.0123
533.00,0.0123
532.00,0.0120
531.00,0.0116
530.00,0.0114
529.00,0.0114
528.00,0.0118
527.00,0.0123
526.00,0.0126
525.00,0.0126
524.00,0.0122
523.00,0.0118
522.00,0.0111
521.00,0.0102
520.00,0.0093
519.00,0.0088
518.00,0.0090
517.00,0.0096
516.00,0.0102
515.00,0.0104
514.00,0.0103
513.00,0.0099
512.00,0.0095
511.00,0.0093
510.00,0.0095
509.00,0.0100
508.00,0.0105
507.00,0.0107
506.00,0.0105
505.00,0.0102
504.00,0.0101
503.00,0.0103
502.00,0.0102
501.00,0.0098
500.00,0.0093
499.00,0.0092
498.00,0.0093
497.00,0.0095
496.00,0.0096
495.00,0.0097
494.00,0.0101
493.00,0.0104
492.00,0.0104
491.00,0.0103
490.00,0.0100
489.00,0.0095
488.00,0.0090
487.00,0.0087
486.00,0.0089
485.00,0.0095
484.00,0.0097
483.00,0.0094
482.00,0.0090
481.00,0.0090
480.00,0.0097
479.00,0.0104
478.00,0.0108
477.00,0.0108
476.00,0.0106
475.00,0.0101
474.00,0.0093
473.00,0.0083
472.00,0.0076
471.00,0.0079
470.00,0.0093
469.00,0.0110
468.00,0.0123
467.00,0.0127
466.00,0.0122
465.00,0.0116
464.00,0.0116
463.00,0.0127
462.00,0.0146
461.00,0.0162
460.00,0.0167
459.00,0.0162
458.00,0.0152
457.00,0.0141
456.00,0.0130
455.00,0.0122
454.00,0.0117
453.00,0.0116
452.00,0.0121
451.00,0.0133
450.00,0.0147
