Created as New Dataset,Sample 044 By Administrator Date Thursday, September 04 2025
cm-1,A
4000.00,0.0008
3999.00,0.0008
3998.00,0.0008
3997.00,0.0008
3996.00,0.0008
3995.00,0.0008
3994.00,0.0008
3993.00,0.0008
3992.00,0.0008
3991.00,0.0008
3990.00,0.0008
3989.00,0.0008
3988.00,0.0007
3987.00,0.0007
3986.00,0.0007
3985.00,0.0007
3984.00,0.0007
3983.00,0.0007
3982.00,0.0007
3981.00,0.0007
3980.00,0.0007
3979.00,0.0007
3978.00,0.0007
3977.00,0.0007
3976.00,0.0006
3975.00,0.0006
3974.00,0.0006
3973.00,0.0006
3972.00,0.0006
3971.00,0.0006
3970.00,0.0006
3969.00,0.0006
3968.00,0.0006
3967.00,0.0006
3966.00,0.0006
3965.00,0.0006
3964.00,0.0006
3963.00,0.0006
3962.00,0.0006
3961.00,0.0005
3960.00,0.0006
3959.00,0.0006
3958.00,0.0006
3957.00,0.0006
3956.00,0.0006
3955.00,0.0005
3954.00,0.0005
3953.00,0.0005
3952.00,0.0005
3951.00,0.0005
3950.00,0.0005
3949.00,0.0005
3948.00,0.0005
3947.00,0.0005
3946.00,0.0005
3945.00,0.0005
3944.00,0.0005
3943.00,0.0005
3942.00,0.0006
3941.00,0.0006
3940.00,0.0006
3939.00,0.0006
3938.00,0.0006
3937.00,0.0006
3936.00,0.0005
3935.00,0.0005
3934.00,0.0005
3933.00,0.0005
3932.00,0.0005
3931.00,0.0005
3930.00,0.0005
3929.00,0.0006
3928.00,0.0006
3927.00,0.0006
3926.00,0.0006
3925.00,0.0006
3924.00,0.0006
3923.00,0.0006
3922.00,0.0006
3921.00,0.0006
3920.00,0.0006
3919.00,0.0005
3918.00,0.0005
3917.00,0.0006
3916.00,0.0006
3915.00,0.0006
3914.00,0.0006
3913.00,0.0006
3912.00,0.0005
3911.00,0.0005
3910.00,0.0005
3909.00,0.0005
3908.00,0.0005
3907.00,0.0005
3906.00,0.0005
3905.00,0.0005
3904.00,0.0005
3903.00,0.0005
3902.00,0.0005
3901.00,0.0005
3900.00,0.0005
3899.00,0.0005
3898.00,0.0005
3897.00,0.0005
3896.00,0.0005
3895.00,0.0005
3894.00,0.0006
3893.00,0.0006
3892.00,0.0006
3891.00,0.0006
3890.00,0.0006
3889.00,0.0006
3888.00,0.0005
3887.00,0.0005
3886.00,0.0005
3885.00,0.0005
3884.00,0.0005
3883.00,0.0005
3882.00,0.0005
3881.00,0.0005
3880.00,0.0005
3879.00,0.0005
3878.00,0.0005
3877.00,0.0005
3876.00,0.0005
3875.00,0.0005
3874.00,0.0004
3873.00,0.0004
3872.00,0.0004
3871.00,0.0004
3870.00,0.0004
3869.00,0.0004
3868.00,0.0004
3867.00,0.0004
3866.00,0.0004
3865.00,0.0004
3864.00,0.0004
3863.00,0.0004
3862.00,0.0004
3861.00,0.0004
3860.00,0.0004
3859.00,0.0004
3858.00,0.0004
3857.00,0.0005
3856.00,0.0005
3855.00,0.0005
3854.00,0.0005
3853.00,0.0004
3852.00,0.0004
3851.00,0.0004
3850.00,0.0004
3849.00,0.0004
3848.00,0.0005
3847.00,0.0005
3846.00,0.0005
3845.00,0.0005
3844.00,0.0005
3843.00,0.0005
3842.00,0.0004
3841.00,0.0004
3840.00,0.0003
3839.00,0.0003
3838.00,0.0004
3837.00,0.0004
3836.00,0.0004
3835.00,0.0004
3834.00,0.0005
3833.00,0.0005
3832.00,0.0005
3831.00,0.0004
3830.00,0.0004
3829.00,0.0004
3828.00,0.0004
3827.00,0.0004
3826.00,0.0004
3825.00,0.0004
3824.00,0.0004
3823.00,0.0004
3822.00,0.0004
3821.00,0.0005
3820.00,0.0005
3819.00,0.0005
3818.00,0.0005
3817.00,0.0005
3816.00,0.0005
3815.00,0.0005
3814.00,0.0006
3813.00,0.0006
3812.00,0.0006
3811.00,0.0006
3810.00,0.0006
3809.00,0.0006
3808.00,0.0005
3807.00,0.0005
3806.00,0.0005
3805.00,0.0005
3804.00,0.0004
3803.00,0.0004
3802.00,0.0004
3801.00,0.0004
3800.00,0.0004
3799.00,0.0004
3798.00,0.0004
3797.00,0.0004
3796.00,0.0005
3795.00,0.0005
3794.00,0.0005
3793.00,0.0005
3792.00,0.0005
3791.00,0.0005
3790.00,0.0005
3789.00,0.0005
3788.00,0.0006
3787.00,0.0006
3786.00,0.0005
3785.00,0.0005
3784.00,0.0005
3783.00,0.0005
3782.00,0.0005
3781.00,0.0005
3780.00,0.0005
3779.00,0.0006
3778.00,0.0006
3777.00,0.0006
3776.00,0.0006
3775.00,0.0006
3774.00,0.0006
3773.00,0.0006
3772.00,0.0005
3771.00,0.0005
3770.00,0.0005
3769.00,0.0005
3768.00,0.0005
3767.00,0.0005
3766.00,0.0006
3765.00,0.0006
3764.00,0.0006
3763.00,0.0005
3762.00,0.0005
3761.00,0.0005
3760.00,0.0005
3759.00,0.0005
3758.00,0.0005
3757.00,0.0004
3756.00,0.0004
3755.00,0.0004
3754.00,0.0004
3753.00,0.0004
3752.00,0.0004
3751.00,0.0004
3750.00,0.0004
3749.00,0.0004
3748.00,0.0004
3747.00,0.0004
3746.00,0.0004
3745.00,0.0004
3744.00,0.0004
3743.00,0.0004
3742.00,0.0003
3741.00,0.0003
3740.00,0.0003
3739.00,0.0003
3738.00,0.0003
3737.00,0.0003
3736.00,0.0003
3735.00,0.0003
3734.00,0.0004
3733.00,0.0004
3732.00,0.0003
3731.00,0.0003
3730.00,0.0003
3729.00,0.0002
3728.00,0.0002
3727.00,0.0002
3726.00,0.0002
3725.00,0.0002
3724.00,0.0002
3723.00,0.0002
3722.00,0.0002
3721.00,0.0003
3720.00,0.0003
3719.00,0.0004
3718.00,0.0004
3717.00,0.0004
3716.00,0.0004
3715.00,0.0004
3714.00,0.0004
3713.00,0.0003
3712.00,0.0004
3711.00,0.0004
3710.00,0.0004
3709.00,0.0004
3708.00,0.0004
3707.00,0.0004
3706.00,0.0004
3705.00,0.0003
3704.00,0.0003
3703.00,0.0003
3702.00,0.0004
3701.00,0.0004
3700.00,0.0004
3699.00,0.0004
3698.00,0.0003
3697.00,0.0003
3696.00,0.0004
3695.00,0.0004
3694.00,0.0004
3693.00,0.0004
3692.00,0.0004
3691.00,0.0004
3690.00,0.0005
3689.00,0.0005
3688.00,0.0005
3687.00,0.0005
3686.00,0.0005
3685.00,0.0005
3684.00,0.0005
3683.00,0.0004
3682.00,0.0004
3681.00,0.0004
3680.00,0.0003
3679.00,0.0003
3678.00,0.0003
3677.00,0.0002
3676.00,0.0002
3675.00,0.0002
3674.00,0.0001
3673.00,0.0001
3672.00,0.0001
3671.00,0.0001
3670.00,0.0002
3669.00,0.0003
3668.00,0.0003
3667.00,0.0003
3666.00,0.0003
3665.00,0.0003
3664.00,0.0003
3663.00,0.0003
3662.00,0.0003
3661.00,0.0003
3660.00,0.0003
3659.00,0.0002
3658.00,0.0002
3657.00,0.0003
3656.00,0.0003
3655.00,0.0003
3654.00,0.0003
3653.00,0.0003
3652.00,0.0002
3651.00,0.0002
3650.00,0.0001
3649.00,0.0001
3648.00,0.0002
3647.00,0.0003
3646.00,0.0003
3645.00,0.0004
3644.00,0.0004
3643.00,0.0005
3642.00,0.0005
3641.00,0.0006
3640.00,0.0006
3639.00,0.0005
3638.00,0.0005
3637.00,0.0005
3636.00,0.0005
3635.00,0.0004
3634.00,0.0004
3633.00,0.0004
3632.00,0.0004
3631.00,0.0004
3630.00,0.0005
3629.00,0.0006
3628.00,0.0006
3627.00,0.0007
3626.00,0.0007
3625.00,0.0007
3624.00,0.0007
3623.00,0.0007
3622.00,0.0007
3621.00,0.0006
3620.00,0.0006
3619.00,0.0006
3618.00,0.0006
3617.00,0.0007
3616.00,0.0007
3615.00,0.0008
3614.00,0.0009
3613.00,0.0010
3612.00,0.0009
3611.00,0.0009
3610.00,0.0009
3609.00,0.0009
3608.00,0.0009
3607.00,0.0010
3606.00,0.0010
3605.00,0.0011
3604.00,0.0011
3603.00,0.0010
3602.00,0.0010
3601.00,0.0010
3600.00,0.0010
3599.00,0.0011
3598.00,0.0011
3597.00,0.0011
3596.00,0.0011
3595.00,0.0011
3594.00,0.0011
3593.00,0.0011
3592.00,0.0011
3591.00,0.0011
3590.00,0.0012
3589.00,0.0012
3588.00,0.0013
3587.00,0.0013
3586.00,0.0013
3585.00,0.0013
3584.00,0.0013
3583.00,0.0013
3582.00,0.0013
3581.00,0.0014
3580.00,0.0014
3579.00,0.0014
3578.00,0.0014
3577.00,0.0014
3576.00,0.0014
3575.00,0.0014
3574.00,0.0014
3573.00,0.0015
3572.00,0.0015
3571.00,0.0015
3570.00,0.0016
3569.00,0.0016
3568.00,0.0016
3567.00,0.0016
3566.00,0.0016
3565.00,0.0016
3564.00,0.0016
3563.00,0.0017
3562.00,0.0017
3561.00,0.0018
3560.00,0.0019
3559.00,0.0019
3558.00,0.0019
3557.00,0.0019
3556.00,0.0020
3555.00,0.0020
3554.00,0.0020
3553.00,0.0021
3552.00,0.0021
3551.00,0.0020
3550.00,0.0020
3549.00,0.0020
3548.00,0.0020
3547.00,0.0021
3546.00,0.0021
3545.00,0.0022
3544.00,0.0023
3543.00,0.0023
3542.00,0.0023
3541.00,0.0024
3540.00,0.0024
3539.00,0.0024
3538.00,0.0024
3537.00,0.0024
3536.00,0.0025
3535.00,0.0025
3534.00,0.0025
3533.00,0.0025
3532.00,0.0025
3531.00,0.0025
3530.00,0.0025
3529.00,0.0026
3528.00,0.0026
3527.00,0.0026
3526.00,0.0027
3525.00,0.0027
3524.00,0.0027
3523.00,0.0028
3522.00,0.0028
3521.00,0.0028
3520.00,0.0029
3519.00,0.0029
3518.00,0.0030
3517.00,0.0030
3516.00,0.0030
3515.00,0.0030
3514.00,0.0030
3513.00,0.0030
3512.00,0.0031
3511.00,0.0031
3510.00,0.0031
3509.00,0.0031
3508.00,0.0031
3507.00,0.0031
3506.00,0.0031
3505.00,0.0032
3504.00,0.0033
3503.00,0.0033
3502.00,0.0034
3501.00,0.0034
3500.00,0.0034
3499.00,0.0034
3498.00,0.0034
3497.00,0.0034
3496.00,0.0034
3495.00,0.0034
3494.00,0.0035
3493.00,0.0035
3492.00,0.0036
3491.00,0.0036
3490.00,0.0036
3489.00,0.0036
3488.00,0.0037
3487.00,0.0037
3486.00,0.0037
3485.00,0.0037
3484.00,0.0037
3483.00,0.0038
3482.00,0.0038
3481.00,0.0039
3480.00,0.0039
3479.00,0.0040
3478.00,0.0040
3477.00,0.0040
3476.00,0.0041
3475.00,0.0041
3474.00,0.0041
3473.00,0.0041
3472.00,0.0041
3471.00,0.0042
3470.00,0.0042
3469.00,0.0042
3468.00,0.0042
3467.00,0.0042
3466.00,0.0042
3465.00,0.0042
3464.00,0.0043
3463.00,0.0043
3462.00,0.0044
3461.00,0.0044
3460.00,0.0044
3459.00,0.0044
3458.00,0.0044
3457.00,0.0044
3456.00,0.0045
3455.00,0.0045
3454.00,0.0045
3453.00,0.0046
3452.00,0.0046
3451.00,0.0046
3450.00,0.0046
3449.00,0.0046
3448.00,0.0047
3447.00,0.0047
3446.00,0.0048
3445.00,0.0048
3444.00,0.0048
3443.00,0.0048
3442.00,0.0048
3441.00,0.0049
3440.00,0.0049
3439.00,0.0049
3438.00,0.0049
3437.00,0.0050
3436.00,0.0050
3435.00,0.0050
3434.00,0.0050
3433.00,0.0050
3432.00,0.0051
3431.00,0.0051
3430.00,0.0052
3429.00,0.0052
3428.00,0.0052
3427.00,0.0052
3426.00,0.0052
3425.00,0.0052
3424.00,0.0052
3423.00,0.0053
3422.00,0.0053
3421.00,0.0054
3420.00,0.0054
3419.00,0.0054
3418.00,0.0055
3417.00,0.0055
3416.00,0.0055
3415.00,0.0055
3414.00,0.0055
3413.00,0.0056
3412.00,0.0056
3411.00,0.0056
3410.00,0.0057
3409.00,0.0057
3408.00,0.0058
3407.00,0.0059
3406.00,0.0060
3405.00,0.0060
3404.00,0.0061
3403.00,0.0061
3402.00,0.0061
3401.00,0.0061
3400.00,0.0061
3399.00,0.0061
3398.00,0.0062
3397.00,0.0062
3396.00,0.0063
3395.00,0.0063
3394.00,0.0063
3393.00,0.0063
3392.00,0.0063
3391.00,0.0062
3390.00,0.0062
3389.00,0.0062
3388.00,0.0061
3387.00,0.0061
3386.00,0.0061
3385.00,0.0061
3384.00,0.0061
3383.00,0.0061
3382.00,0.0060
3381.00,0.0060
3380.00,0.0060
3379.00,0.0060
3378.00,0.0060
3377.00,0.0061
3376.00,0.0061
3375.00,0.0061
3374.00,0.0061
3373.00,0.0061
3372.00,0.0061
3371.00,0.0061
3370.00,0.0061
3369.00,0.0061
3368.00,0.0061
3367.00,0.0060
3366.00,0.0060
3365.00,0.0060
3364.00,0.0061
3363.00,0.0061
3362.00,0.0061
3361.00,0.0061
3360.00,0.0061
3359.00,0.0060
3358.00,0.0060
3357.00,0.0061
3356.00,0.0061
3355.00,0.0061
3354.00,0.0061
3353.00,0.0061
3352.00,0.0061
3351.00,0.0061
3350.00,0.0061
3349.00,0.0061
3348.00,0.0062
3347.00,0.0062
3346.00,0.0062
3345.00,0.0062
3344.00,0.0062
3343.00,0.0062
3342.00,0.0062
3341.00,0.0061
3340.00,0.0061
3339.00,0.0061
3338.00,0.0062
3337.00,0.0062
3336.00,0.0062
3335.00,0.0062
3334.00,0.0062
3333.00,0.0061
3332.00,0.0061
3331.00,0.0060
3330.00,0.0060
3329.00,0.0060
3328.00,0.0060
3327.00,0.0060
3326.00,0.0060
3325.00,0.0060
3324.00,0.0060
3323.00,0.0060
3322.00,0.0061
3321.00,0.0060
3320.00,0.0060
3319.00,0.0060
3318.00,0.0060
3317.00,0.0060
3316.00,0.0060
3315.00,0.0060
3314.00,0.0061
3313.00,0.0061
3312.00,0.0061
3311.00,0.0061
3310.00,0.0061
3309.00,0.0061
3308.00,0.0062
3307.00,0.0062
3306.00,0.0062
3305.00,0.0062
3304.00,0.0062
3303.00,0.0062
3302.00,0.0062
3301.00,0.0062
3300.00,0.0061
3299.00,0.0060
3298.00,0.0060
3297.00,0.0060
3296.00,0.0059
3295.00,0.0059
3294.00,0.0059
3293.00,0.0059
3292.00,0.0058
3291.00,0.0058
3290.00,0.0057
3289.00,0.0057
3288.00,0.0057
3287.00,0.0058
3286.00,0.0058
3285.00,0.0057
3284.00,0.0057
3283.00,0.0057
3282.00,0.0056
3281.00,0.0055
3280.00,0.0055
3279.00,0.0054
3278.00,0.0055
3277.00,0.0055
3276.00,0.0056
3275.00,0.0056
3274.00,0.0056
3273.00,0.0055
3272.00,0.0055
3271.00,0.0055
3270.00,0.0055
3269.00,0.0055
3268.00,0.0054
3267.00,0.0054
3266.00,0.0053
3265.00,0.0053
3264.00,0.0053
3263.00,0.0052
3262.00,0.0053
3261.00,0.0053
3260.00,0.0053
3259.00,0.0052
3258.00,0.0052
3257.00,0.0051
3256.00,0.0051
3255.00,0.0051
3254.00,0.0050
3253.00,0.0050
3252.00,0.0050
3251.00,0.0050
3250.00,0.0050
3249.00,0.0050
3248.00,0.0050
3247.00,0.0049
3246.00,0.0049
3245.00,0.0048
3244.00,0.0048
3243.00,0.0049
3242.00,0.0049
3241.00,0.0049
3240.00,0.0049
3239.00,0.0049
3238.00,0.0049
3237.00,0.0049
3236.00,0.0049
3235.00,0.0049
3234.00,0.0049
3233.00,0.0049
3232.00,0.0050
3231.00,0.0050
3230.00,0.0050
3229.00,0.0050
3228.00,0.0051
3227.00,0.0051
3226.00,0.0051
3225.00,0.0051
3224.00,0.0052
3223.00,0.0052
3222.00,0.0052
3221.00,0.0052
3220.00,0.0052
3219.00,0.0052
3218.00,0.0052
3217.00,0.0052
3216.00,0.0052
3215.00,0.0052
3214.00,0.0053
3213.00,0.0053
3212.00,0.0054
3211.00,0.0054
3210.00,0.0054
3209.00,0.0055
3208.00,0.0054
3207.00,0.0054
3206.00,0.0054
3205.00,0.0054
3204.00,0.0054
3203.00,0.0055
3202.00,0.0055
3201.00,0.0055
3200.00,0.0055
3199.00,0.0055
3198.00,0.0055
3197.00,0.0055
3196.00,0.0055
3195.00,0.0055
3194.00,0.0055
3193.00,0.0055
3192.00,0.0054
3191.00,0.0054
3190.00,0.0054
3189.00,0.0053
3188.00,0.0053
3187.00,0.0054
3186.00,0.0054
3185.00,0.0054
3184.00,0.0054
3183.00,0.0054
3182.00,0.0053
3181.00,0.0053
3180.00,0.0053
3179.00,0.0053
3178.00,0.0052
3177.00,0.0051
3176.00,0.0051
3175.00,0.0050
3174.00,0.0050
3173.00,0.0050
3172.00,0.0049
3171.00,0.0049
3170.00,0.0049
3169.00,0.0049
3168.00,0.0048
3167.00,0.0048
3166.00,0.0048
3165.00,0.0048
3164.00,0.0048
3163.00,0.0048
3162.00,0.0048
3161.00,0.0048
3160.00,0.0048
3159.00,0.0047
3158.00,0.0047
3157.00,0.0047
3156.00,0.0047
3155.00,0.0047
3154.00,0.0046
3153.00,0.0046
3152.00,0.0046
3151.00,0.0045
3150.00,0.0045
3149.00,0.0045
3148.00,0.0045
3147.00,0.0045
3146.00,0.0044
3145.00,0.0044
3144.00,0.0043
3143.00,0.0043
3142.00,0.0043
3141.00,0.0043
3140.00,0.0043
3139.00,0.0044
3138.00,0.0044
3137.00,0.0043
3136.00,0.0043
3135.00,0.0043
3134.00,0.0042
3133.00,0.0042
3132.00,0.0042
3131.00,0.0041
3130.00,0.0041
3129.00,0.0041
3128.00,0.0040
3127.00,0.0040
3126.00,0.0039
3125.00,0.0040
3124.00,0.0040
3123.00,0.0040
3122.00,0.0040
3121.00,0.0040
3120.00,0.0039
3119.00,0.0039
3118.00,0.0038
3117.00,0.0038
3116.00,0.0038
3115.00,0.0038
3114.00,0.0038
3113.00,0.0038
3112.00,0.0037
3111.00,0.0037
3110.00,0.0036
3109.00,0.0036
3108.00,0.0036
3107.00,0.0036
3106.00,0.0036
3105.00,0.0037
3104.00,0.0037
3103.00,0.0037
3102.00,0.0037
3101.00,0.0036
3100.00,0.0036
3099.00,0.0035
3098.00,0.0035
3097.00,0.0035
3096.00,0.0035
3095.00,0.0035
3094.00,0.0035
3093.00,0.0035
3092.00,0.0035
3091.00,0.0035
3090.00,0.0035
3089.00,0.0035
3088.00,0.0035
3087.00,0.0034
3086.00,0.0034
3085.00,0.0034
3084.00,0.0034
3083.00,0.0034
3082.00,0.0034
3081.00,0.0034
3080.00,0.0035
3079.00,0.0035
3078.00,0.0035
3077.00,0.0034
3076.00,0.0034
3075.00,0.0034
3074.00,0.0034
3073.00,0.0034
3072.00,0.0035
3071.00,0.0035
3070.00,0.0035
3069.00,0.0035
3068.00,0.0035
3067.00,0.0035
3066.00,0.0035
3065.00,0.0035
3064.00,0.0035
3063.00,0.0036
3062.00,0.0036
3061.00,0.0037
3060.00,0.0037
3059.00,0.0037
3058.00,0.0037
3057.00,0.0037
3056.00,0.0037
3055.00,0.0037
3054.00,0.0037
3053.00,0.0037
3052.00,0.0037
3051.00,0.0038
3050.00,0.0038
3049.00,0.0038
3048.00,0.0038
3047.00,0.0038
3046.00,0.0038
3045.00,0.0038
3044.00,0.0039
3043.00,0.0039
3042.00,0.0039
3041.00,0.0039
3040.00,0.0039
3039.00,0.0039
3038.00,0.0039
3037.00,0.0040
3036.00,0.0040
3035.00,0.0041
3034.00,0.0041
3033.00,0.0041
3032.00,0.0042
3031.00,0.0042
3030.00,0.0042
3029.00,0.0043
3028.00,0.0043
3027.00,0.0044
3026.00,0.0044
3025.00,0.0044
3024.00,0.0044
3023.00,0.0044
3022.00,0.0045
3021.00,0.0047
3020.00,0.0048
3019.00,0.0049
3018.00,0.0050
3017.00,0.0050
3016.00,0.0051
3015.00,0.0052
3014.00,0.0053
3013.00,0.0053
3012.00,0.0054
3011.00,0.0055
3010.00,0.0056
3009.00,0.0057
3008.00,0.0058
3007.00,0.0059
3006.00,0.0060
3005.00,0.0061
3004.00,0.0062
3003.00,0.0063
3002.00,0.0064
3001.00,0.0066
3000.00,0.0068
2999.00,0.0070
2998.00,0.0072
2997.00,0.0075
2996.00,0.0078
2995.00,0.0081
2994.00,0.0084
2993.00,0.0088
2992.00,0.0093
2991.00,0.0098
2990.00,0.0104
2989.00,0.0110
2988.00,0.0117
2987.00,0.0124
2986.00,0.0132
2985.00,0.0141
2984.00,0.0150
2983.00,0.0160
2982.00,0.0173
2981.00,0.0188
2980.00,0.0206
2979.00,0.0227
2978.00,0.0250
2977.00,0.0277
2976.00,0.0307
2975.00,0.0340
2974.00,0.0378
2973.00,0.0420
2972.00,0.0468
2971.00,0.0522
2970.00,0.0582
2969.00,0.0648
2968.00,0.0717
2967.00,0.0790
2966.00,0.0865
2965.00,0.0939
2964.00,0.1009
2963.00,0.1074
2962.00,0.1130
2961.00,0.1179
2960.00,0.1221
2959.00,0.1262
2958.00,0.1307
2957.00,0.1361
2956.00,0.1427
2955.00,0.1505
2954.00,0.1593
2953.00,0.1683
2952.00,0.1765
2951.00,0.1826
2950.00,0.1855
2949.00,0.1842
2948.00,0.1787
2947.00,0.1696
2946.00,0.1580
2945.00,0.1455
2944.00,0.1335
2943.00,0.1231
2942.00,0.1149
2941.00,0.1093
2940.00,0.1062
2939.00,0.1054
2938.00,0.1066
2937.00,0.1096
2936.00,0.1143
2935.00,0.1205
2934.00,0.1281
2933.00,0.1370
2932.00,0.1471
2931.00,0.1582
2930.00,0.1701
2929.00,0.1824
2928.00,0.1949
2927.00,0.2072
2926.00,0.2193
2925.00,0.2312
2924.00,0.2429
2923.00,0.2547
2922.00,0.2665
2921.00,0.2780
2920.00,0.2883
2919.00,0.2963
2918.00,0.3008
2917.00,0.3008
2916.00,0.2960
2915.00,0.2870
2914.00,0.2752
2913.00,0.2621
2912.00,0.2489
2911.00,0.2366
2910.00,0.2254
2909.00,0.2153
2908.00,0.2061
2907.00,0.1975
2906.00,0.1894
2905.00,0.1815
2904.00,0.1737
2903.00,0.1662
2902.00,0.1590
2901.00,0.1521
2900.00,0.1456
2899.00,0.1395
2898.00,0.1338
2897.00,0.1286
2896.00,0.1239
2895.00,0.1198
2894.00,0.1164
2893.00,0.1135
2892.00,0.1113
2891.00,0.1096
2890.00,0.1084
2889.00,0.1077
2888.00,0.1074
2887.00,0.1075
2886.00,0.1079
2885.00,0.1087
2884.00,0.1100
2883.00,0.1119
2882.00,0.1142
2881.00,0.1169
2880.00,0.1197
2879.00,0.1222
2878.00,0.1239
2877.00,0.1246
2876.00,0.1244
2875.00,0.1238
2874.00,0.1232
2873.00,0.1231
2872.00,0.1237
2871.00,0.1252
2870.00,0.1271
2869.00,0.1291
2868.00,0.1303
2867.00,0.1301
2866.00,0.1277
2865.00,0.1229
2864.00,0.1161
2863.00,0.1082
2862.00,0.1003
2861.00,0.0933
2860.00,0.0878
2859.00,0.0840
2858.00,0.0818
2857.00,0.0811
2856.00,0.0814
2855.00,0.0826
2854.00,0.0845
2853.00,0.0867
2852.00,0.0889
2851.00,0.0908
2850.00,0.0921
2849.00,0.0928
2848.00,0.0932
2847.00,0.0937
2846.00,0.0950
2845.00,0.0973
2844.00,0.1008
2843.00,0.1052
2842.00,0.1101
2841.00,0.1147
2840.00,0.1184
2839.00,0.1204
2838.00,0.1200
2837.00,0.1167
2836.00,0.1105
2835.00,0.1020
2834.00,0.0919
2833.00,0.0813
2832.00,0.0713
2831.00,0.0623
2830.00,0.0546
2829.00,0.0484
2828.00,0.0433
2827.00,0.0391
2826.00,0.0358
2825.00,0.0331
2824.00,0.0308
2823.00,0.0289
2822.00,0.0273
2821.00,0.0259
2820.00,0.0246
2819.00,0.0235
2818.00,0.0226
2817.00,0.0218
2816.00,0.0210
2815.00,0.0203
2814.00,0.0197
2813.00,0.0191
2812.00,0.0185
2811.00,0.0180
2810.00,0.0175
2809.00,0.0169
2808.00,0.0163
2807.00,0.0156
2806.00,0.0150
2805.00,0.0143
2804.00,0.0136
2803.00,0.0130
2802.00,0.0125
2801.00,0.0120
2800.00,0.0116
2799.00,0.0113
2798.00,0.0110
2797.00,0.0108
2796.00,0.0105
2795.00,0.0103
2794.00,0.0100
2793.00,0.0098
2792.00,0.0095
2791.00,0.0092
2790.00,0.0089
2789.00,0.0086
2788.00,0.0083
2787.00,0.0080
2786.00,0.0078
2785.00,0.0075
2784.00,0.0073
2783.00,0.0072
2782.00,0.0070
2781.00,0.0068
2780.00,0.0067
2779.00,0.0065
2778.00,0.0063
2777.00,0.0062
2776.00,0.0061
2775.00,0.0060
2774.00,0.0059
2773.00,0.0058
2772.00,0.0058
2771.00,0.0057
2770.00,0.0057
2769.00,0.0056
2768.00,0.0056
2767.00,0.0056
2766.00,0.0056
2765.00,0.0056
2764.00,0.0055
2763.00,0.0055
2762.00,0.0055
2761.00,0.0055
2760.00,0.0054
2759.00,0.0053
2758.00,0.0053
2757.00,0.0053
2756.00,0.0053
2755.00,0.0053
2754.00,0.0053
2753.00,0.0052
2752.00,0.0052
2751.00,0.0052
2750.00,0.0051
2749.00,0.0051
2748.00,0.0052
2747.00,0.0052
2746.00,0.0052
2745.00,0.0052
2744.00,0.0053
2743.00,0.0054
2742.00,0.0054
2741.00,0.0055
2740.00,0.0057
2739.00,0.0058
2738.00,0.0060
2737.00,0.0061
2736.00,0.0063
2735.00,0.0064
2734.00,0.0065
2733.00,0.0067
2732.00,0.0069
2731.00,0.0071
2730.00,0.0073
2729.00,0.0075
2728.00,0.0078
2727.00,0.0081
2726.00,0.0084
2725.00,0.0086
2724.00,0.0087
2723.00,0.0087
2722.00,0.0087
2721.00,0.0085
2720.00,0.0082
2719.00,0.0079
2718.00,0.0076
2717.00,0.0073
2716.00,0.0071
2715.00,0.0068
2714.00,0.0066
2713.00,0.0063
2712.00,0.0061
2711.00,0.0059
2710.00,0.0057
2709.00,0.0055
2708.00,0.0054
2707.00,0.0052
2706.00,0.0051
2705.00,0.0050
2704.00,0.0049
2703.00,0.0048
2702.00,0.0047
2701.00,0.0046
2700.00,0.0046
2699.00,0.0045
2698.00,0.0045
2697.00,0.0044
2696.00,0.0044
2695.00,0.0044
2694.00,0.0044
2693.00,0.0044
2692.00,0.0044
2691.00,0.0045
2690.00,0.0045
2689.00,0.0045
2688.00,0.0044
2687.00,0.0044
2686.00,0.0044
2685.00,0.0044
2684.00,0.0044
2683.00,0.0045
2682.00,0.0045
2681.00,0.0045
2680.00,0.0045
2679.00,0.0045
2678.00,0.0045
2677.00,0.0045
2676.00,0.0045
2675.00,0.0045
2674.00,0.0045
2673.00,0.0044
2672.00,0.0044
2671.00,0.0044
2670.00,0.0044
2669.00,0.0044
2668.00,0.0044
2667.00,0.0045
2666.00,0.0045
2665.00,0.0045
2664.00,0.0046
2663.00,0.0046
2662.00,0.0047
2661.00,0.0047
2660.00,0.0047
2659.00,0.0047
2658.00,0.0047
2657.00,0.0047
2656.00,0.0047
2655.00,0.0046
2654.00,0.0046
2653.00,0.0045
2652.00,0.0045
2651.00,0.0044
2650.00,0.0044
2649.00,0.0043
2648.00,0.0043
2647.00,0.0042
2646.00,0.0041
2645.00,0.0041
2644.00,0.0041
2643.00,0.0041
2642.00,0.0040
2641.00,0.0040
2640.00,0.0040
2639.00,0.0039
2638.00,0.0039
2637.00,0.0039
2636.00,0.0038
2635.00,0.0038
2634.00,0.0038
2633.00,0.0038
2632.00,0.0038
2631.00,0.0039
2630.00,0.0038
2629.00,0.0038
2628.00,0.0039
2627.00,0.0039
2626.00,0.0040
2625.00,0.0040
2624.00,0.0040
2623.00,0.0040
2622.00,0.0039
2621.00,0.0039
2620.00,0.0040
2619.00,0.0040
2618.00,0.0040
2617.00,0.0040
2616.00,0.0040
2615.00,0.0040
2614.00,0.0039
2613.00,0.0039
2612.00,0.0039
2611.00,0.0038
2610.00,0.0038
2609.00,0.0037
2608.00,0.0036
2607.00,0.0035
2606.00,0.0034
2605.00,0.0034
2604.00,0.0033
2603.00,0.0033
2602.00,0.0032
2601.00,0.0032
2600.00,0.0032
2599.00,0.0032
2598.00,0.0032
2597.00,0.0032
2596.00,0.0032
2595.00,0.0031
2594.00,0.0031
2593.00,0.0031
2592.00,0.0032
2591.00,0.0033
2590.00,0.0034
2589.00,0.0035
2588.00,0.0036
2587.00,0.0037
2586.00,0.0037
2585.00,0.0038
2584.00,0.0038
2583.00,0.0039
2582.00,0.0039
2581.00,0.0039
2580.00,0.0039
2579.00,0.0038
2578.00,0.0037
2577.00,0.0035
2576.00,0.0034
2575.00,0.0033
2574.00,0.0031
2573.00,0.0030
2572.00,0.0029
2571.00,0.0029
2570.00,0.0028
2569.00,0.0027
2568.00,0.0026
2567.00,0.0025
2566.00,0.0025
2565.00,0.0025
2564.00,0.0025
2563.00,0.0024
2562.00,0.0023
2561.00,0.0023
2560.00,0.0022
2559.00,0.0022
2558.00,0.0022
2557.00,0.0021
2556.00,0.0021
2555.00,0.0021
2554.00,0.0020
2553.00,0.0021
2552.00,0.0021
2551.00,0.0020
2550.00,0.0020
2549.00,0.0020
2548.00,0.0019
2547.00,0.0019
2546.00,0.0019
2545.00,0.0019
2544.00,0.0019
2543.00,0.0018
2542.00,0.0017
2541.00,0.0016
2540.00,0.0016
2539.00,0.0016
2538.00,0.0016
2537.00,0.0016
2536.00,0.0016
2535.00,0.0016
2534.00,0.0015
2533.00,0.0015
2532.00,0.0014
2531.00,0.0014
2530.00,0.0014
2529.00,0.0014
2528.00,0.0013
2527.00,0.0013
2526.00,0.0013
2525.00,0.0013
2524.00,0.0013
2523.00,0.0013
2522.00,0.0013
2521.00,0.0013
2520.00,0.0013
2519.00,0.0012
2518.00,0.0012
2517.00,0.0012
2516.00,0.0011
2515.00,0.0011
2514.00,0.0011
2513.00,0.0011
2512.00,0.0012
2511.00,0.0012
2510.00,0.0012
2509.00,0.0011
2508.00,0.0011
2507.00,0.0010
2506.00,0.0010
2505.00,0.0010
2504.00,0.0010
2503.00,0.0010
2502.00,0.0010
2501.00,0.0010
2500.00,0.0009
2499.00,0.0010
2498.00,0.0010
2497.00,0.0010
2496.00,0.0010
2495.00,0.0009
2494.00,0.0009
2493.00,0.0008
2492.00,0.0008
2491.00,0.0009
2490.00,0.0009
2489.00,0.0010
2488.00,0.0010
2487.00,0.0010
2486.00,0.0010
2485.00,0.0011
2484.00,0.0011
2483.00,0.0011
2482.00,0.0010
2481.00,0.0010
2480.00,0.0009
2479.00,0.0009
2478.00,0.0009
2477.00,0.0009
2476.00,0.0008
2475.00,0.0008
2474.00,0.0008
2473.00,0.0008
2472.00,0.0009
2471.00,0.0009
2470.00,0.0009
2469.00,0.0009
2468.00,0.0009
2467.00,0.0009
2466.00,0.0009
2465.00,0.0008
2464.00,0.0008
2463.00,0.0009
2462.00,0.0009
2461.00,0.0010
2460.00,0.0010
2459.00,0.0011
2458.00,0.0011
2457.00,0.0012
2456.00,0.0012
2455.00,0.0012
2454.00,0.0012
2453.00,0.0011
2452.00,0.0011
2451.00,0.0010
2450.00,0.0010
2449.00,0.0010
2448.00,0.0010
2447.00,0.0010
2446.00,0.0010
2445.00,0.0010
2444.00,0.0010
2443.00,0.0010
2442.00,0.0010
2441.00,0.0009
2440.00,0.0010
2439.00,0.0010
2438.00,0.0010
2437.00,0.0010
2436.00,0.0010
2435.00,0.0010
2434.00,0.0011
2433.00,0.0011
2432.00,0.0010
2431.00,0.0010
2430.00,0.0009
2429.00,0.0009
2428.00,0.0009
2427.00,0.0009
2426.00,0.0009
2425.00,0.0009
2424.00,0.0009
2423.00,0.0009
2422.00,0.0009
2421.00,0.0009
2420.00,0.0009
2419.00,0.0009
2418.00,0.0009
2417.00,0.0009
2416.00,0.0009
2415.00,0.0009
2414.00,0.0009
2413.00,0.0009
2412.00,0.0009
2411.00,0.0008
2410.00,0.0008
2409.00,0.0008
2408.00,0.0008
2407.00,0.0008
2406.00,0.0008
2405.00,0.0008
2404.00,0.0007
2403.00,0.0007
2402.00,0.0007
2401.00,0.0007
2400.00,0.0007
2399.00,0.0008
2398.00,0.0008
2397.00,0.0009
2396.00,0.0009
2395.00,0.0008
2394.00,0.0008
2393.00,0.0008
2392.00,0.0008
2391.00,0.0008
2390.00,0.0007
2389.00,0.0007
2388.00,0.0006
2387.00,0.0005
2386.00,0.0005
2385.00,0.0004
2384.00,0.0004
2383.00,0.0003
2382.00,0.0003
2381.00,0.0002
2380.00,0.0001
2379.00,0.0001
2378.00,0.0001
2377.00,0.0001
2376.00,0.0002
2375.00,0.0002
2374.00,0.0002
2373.00,0.0002
2372.00,0.0002
2371.00,0.0002
2370.00,0.0001
2369.00,0.0001
2368.00,-0.0000
2367.00,-0.0001
2366.00,-0.0001
2365.00,-0.0001
2364.00,-0.0000
2363.00,0.0001
2362.00,0.0002
2361.00,0.0002
2360.00,0.0002
2359.00,0.0002
2358.00,0.0001
2357.00,0.0001
2356.00,0.0001
2355.00,0.0002
2354.00,0.0002
2353.00,0.0001
2352.00,0.0001
2351.00,0.0001
2350.00,0.0002
2349.00,0.0003
2348.00,0.0003
2347.00,0.0003
2346.00,0.0002
2345.00,0.0002
2344.00,0.0003
2343.00,0.0004
2342.00,0.0005
2341.00,0.0005
2340.00,0.0005
2339.00,0.0005
2338.00,0.0005
2337.00,0.0005
2336.00,0.0005
2335.00,0.0005
2334.00,0.0006
2333.00,0.0005
2332.00,0.0005
2331.00,0.0004
2330.00,0.0005
2329.00,0.0006
2328.00,0.0008
2327.00,0.0012
2326.00,0.0016
2325.00,0.0019
2324.00,0.0020
2323.00,0.0019
2322.00,0.0017
2321.00,0.0015
2320.00,0.0014
2319.00,0.0013
2318.00,0.0013
2317.00,0.0013
2316.00,0.0012
2315.00,0.0011
2314.00,0.0010
2313.00,0.0010
2312.00,0.0009
2311.00,0.0009
2310.00,0.0009
2309.00,0.0009
2308.00,0.0010
2307.00,0.0011
2306.00,0.0011
2305.00,0.0012
2304.00,0.0012
2303.00,0.0011
2302.00,0.0011
2301.00,0.0011
2300.00,0.0012
2299.00,0.0012
2298.00,0.0012
2297.00,0.0013
2296.00,0.0013
2295.00,0.0012
2294.00,0.0012
2293.00,0.0013
2292.00,0.0013
2291.00,0.0014
2290.00,0.0016
2289.00,0.0018
2288.00,0.0019
2287.00,0.0019
2286.00,0.0020
2285.00,0.0019
2284.00,0.0018
2283.00,0.0017
2282.00,0.0016
2281.00,0.0015
2280.00,0.0015
2279.00,0.0015
2278.00,0.0014
2277.00,0.0013
2276.00,0.0012
2275.00,0.0012
2274.00,0.0012
2273.00,0.0013
2272.00,0.0014
2271.00,0.0014
2270.00,0.0014
2269.00,0.0013
2268.00,0.0011
2267.00,0.0009
2266.00,0.0008
2265.00,0.0008
2264.00,0.0009
2263.00,0.0010
2262.00,0.0012
2261.00,0.0013
2260.00,0.0013
2259.00,0.0013
2258.00,0.0012
2257.00,0.0011
2256.00,0.0011
2255.00,0.0011
2254.00,0.0011
2253.00,0.0010
2252.00,0.0010
2251.00,0.0010
2250.00,0.0009
2249.00,0.0009
2248.00,0.0009
2247.00,0.0009
2246.00,0.0009
2245.00,0.0009
2244.00,0.0009
2243.00,0.0008
2242.00,0.0008
2241.00,0.0008
2240.00,0.0008
2239.00,0.0008
2238.00,0.0008
2237.00,0.0008
2236.00,0.0008
2235.00,0.0008
2234.00,0.0007
2233.00,0.0006
2232.00,0.0007
2231.00,0.0009
2230.00,0.0010
2229.00,0.0009
2228.00,0.0008
2227.00,0.0006
2226.00,0.0006
2225.00,0.0007
2224.00,0.0009
2223.00,0.0010
2222.00,0.0011
2221.00,0.0011
2220.00,0.0009
2219.00,0.0007
2218.00,0.0006
2217.00,0.0006
2216.00,0.0006
2215.00,0.0008
2214.00,0.0009
2213.00,0.0010
2212.00,0.0010
2211.00,0.0010
2210.00,0.0009
2209.00,0.0008
2208.00,0.0007
2207.00,0.0007
2206.00,0.0007
2205.00,0.0006
2204.00,0.0005
2203.00,0.0005
2202.00,0.0006
2201.00,0.0007
2200.00,0.0008
2199.00,0.0008
2198.00,0.0009
2197.00,0.0010
2196.00,0.0010
2195.00,0.0010
2194.00,0.0009
2193.00,0.0008
2192.00,0.0007
2191.00,0.0007
2190.00,0.0006
2189.00,0.0006
2188.00,0.0005
2187.00,0.0005
2186.00,0.0005
2185.00,0.0005
2184.00,0.0004
2183.00,0.0002
2182.00,-0.0001
2181.00,-0.0003
2180.00,-0.0003
2179.00,-0.0002
2178.00,-0.0002
2177.00,-0.0003
2176.00,-0.0005
2175.00,-0.0005
2174.00,-0.0004
2173.00,-0.0002
2172.00,0.0001
2171.00,0.0005
2170.00,0.0009
2169.00,0.0014
2168.00,0.0017
2167.00,0.0018
2166.00,0.0017
2165.00,0.0016
2164.00,0.0018
2163.00,0.0021
2162.00,0.0022
2161.00,0.0018
2160.00,0.0007
2159.00,-0.0007
2158.00,-0.0018
2157.00,-0.0023
2156.00,-0.0023
2155.00,-0.0021
2154.00,-0.0019
2153.00,-0.0018
2152.00,-0.0017
2151.00,-0.0017
2150.00,-0.0016
2149.00,-0.0014
2148.00,-0.0013
2147.00,-0.0013
2146.00,-0.0013
2145.00,-0.0011
2144.00,-0.0010
2143.00,-0.0009
2142.00,-0.0008
2141.00,-0.0008
2140.00,-0.0009
2139.00,-0.0011
2138.00,-0.0013
2137.00,-0.0016
2136.00,-0.0018
2135.00,-0.0021
2134.00,-0.0021
2133.00,-0.0020
2132.00,-0.0018
2131.00,-0.0016
2130.00,-0.0013
2129.00,-0.0011
2128.00,-0.0009
2127.00,-0.0008
2126.00,-0.0008
2125.00,-0.0008
2124.00,-0.0007
2123.00,-0.0007
2122.00,-0.0006
2121.00,-0.0005
2120.00,-0.0004
2119.00,-0.0003
2118.00,-0.0002
2117.00,-0.0002
2116.00,-0.0001
2115.00,0.0000
2114.00,0.0002
2113.00,0.0003
2112.00,0.0003
2111.00,0.0003
2110.00,0.0002
2109.00,0.0001
2108.00,0.0001
2107.00,0.0001
2106.00,0.0001
2105.00,0.0002
2104.00,0.0002
2103.00,0.0002
2102.00,0.0001
2101.00,0.0001
2100.00,0.0002
2099.00,0.0002
2098.00,0.0001
2097.00,0.0000
2096.00,-0.0001
2095.00,-0.0003
2094.00,-0.0003
2093.00,-0.0003
2092.00,-0.0003
2091.00,-0.0002
2090.00,-0.0001
2089.00,-0.0001
2088.00,-0.0000
2087.00,0.0000
2086.00,0.0000
2085.00,0.0001
2084.00,0.0001
2083.00,0.0002
2082.00,0.0002
2081.00,0.0002
2080.00,0.0003
2079.00,0.0003
2078.00,0.0004
2077.00,0.0003
2076.00,0.0002
2075.00,0.0000
2074.00,-0.0001
2073.00,-0.0000
2072.00,0.0001
2071.00,0.0001
2070.00,0.0001
2069.00,0.0001
2068.00,0.0000
2067.00,-0.0001
2066.00,-0.0003
2065.00,-0.0003
2064.00,-0.0001
2063.00,0.0000
2062.00,0.0002
2061.00,0.0002
2060.00,0.0002
2059.00,0.0002
2058.00,0.0003
2057.00,0.0005
2056.00,0.0006
2055.00,0.0005
2054.00,0.0005
2053.00,0.0007
2052.00,0.0011
2051.00,0.0013
2050.00,0.0012
2049.00,0.0009
2048.00,0.0006
2047.00,0.0005
2046.00,0.0005
2045.00,0.0006
2044.00,0.0006
2043.00,0.0006
2042.00,0.0003
2041.00,0.0001
2040.00,-0.0001
2039.00,-0.0001
2038.00,-0.0001
2037.00,-0.0001
2036.00,-0.0003
2035.00,-0.0007
2034.00,-0.0011
2033.00,-0.0012
2032.00,-0.0012
2031.00,-0.0011
2030.00,-0.0011
2029.00,-0.0011
2028.00,-0.0011
2027.00,-0.0011
2026.00,-0.0011
2025.00,-0.0010
2024.00,-0.0009
2023.00,-0.0009
2022.00,-0.0012
2021.00,-0.0013
2020.00,-0.0013
2019.00,-0.0011
2018.00,-0.0008
2017.00,-0.0006
2016.00,-0.0006
2015.00,-0.0007
2014.00,-0.0008
2013.00,-0.0007
2012.00,-0.0007
2011.00,-0.0008
2010.00,-0.0010
2009.00,-0.0014
2008.00,-0.0017
2007.00,-0.0020
2006.00,-0.0021
2005.00,-0.0020
2004.00,-0.0019
2003.00,-0.0018
2002.00,-0.0016
2001.00,-0.0014
2000.00,-0.0013
1999.00,-0.0013
1998.00,-0.0014
1997.00,-0.0014
1996.00,-0.0012
1995.00,-0.0010
1994.00,-0.0006
1993.00,-0.0003
1992.00,-0.0001
1991.00,-0.0002
1990.00,-0.0004
1989.00,-0.0004
1988.00,-0.0003
1987.00,-0.0001
1986.00,0.0002
1985.00,0.0005
1984.00,0.0009
1983.00,0.0012
1982.00,0.0013
1981.00,0.0012
1980.00,0.0009
1979.00,0.0005
1978.00,-0.0001
1977.00,-0.0008
1976.00,-0.0012
1975.00,-0.0015
1974.00,-0.0014
1973.00,-0.0011
1972.00,-0.0009
1971.00,-0.0007
1970.00,-0.0008
1969.00,-0.0008
1968.00,-0.0008
1967.00,-0.0008
1966.00,-0.0008
1965.00,-0.0010
1964.00,-0.0013
1963.00,-0.0017
1962.00,-0.0020
1961.00,-0.0021
1960.00,-0.0021
1959.00,-0.0021
1958.00,-0.0021
1957.00,-0.0020
1956.00,-0.0019
1955.00,-0.0017
1954.00,-0.0015
1953.00,-0.0014
1952.00,-0.0014
1951.00,-0.0014
1950.00,-0.0014
1949.00,-0.0013
1948.00,-0.0012
1947.00,-0.0012
1946.00,-0.0012
1945.00,-0.0013
1944.00,-0.0014
1943.00,-0.0014
1942.00,-0.0013
1941.00,-0.0011
1940.00,-0.0009
1939.00,-0.0008
1938.00,-0.0009
1937.00,-0.0009
1936.00,-0.0009
1935.00,-0.0008
1934.00,-0.0006
1933.00,-0.0005
1932.00,-0.0005
1931.00,-0.0006
1930.00,-0.0007
1929.00,-0.0008
1928.00,-0.0008
1927.00,-0.0008
1926.00,-0.0007
1925.00,-0.0006
1924.00,-0.0004
1923.00,-0.0003
1922.00,-0.0002
1921.00,-0.0001
1920.00,-0.0001
1919.00,-0.0002
1918.00,-0.0002
1917.00,-0.0002
1916.00,-0.0002
1915.00,-0.0002
1914.00,-0.0001
1913.00,-0.0000
1912.00,0.0001
1911.00,0.0001
1910.00,0.0000
1909.00,-0.0000
1908.00,-0.0000
1907.00,-0.0000
1906.00,-0.0000
1905.00,-0.0000
1904.00,-0.0000
1903.00,-0.0001
1902.00,-0.0001
1901.00,-0.0001
1900.00,-0.0000
1899.00,0.0000
1898.00,0.0001
1897.00,0.0001
1896.00,0.0000
1895.00,0.0000
1894.00,-0.0000
1893.00,-0.0000
1892.00,-0.0000
1891.00,-0.0001
1890.00,-0.0001
1889.00,-0.0002
1888.00,-0.0002
1887.00,-0.0002
1886.00,-0.0002
1885.00,-0.0002
1884.00,-0.0001
1883.00,-0.0001
1882.00,-0.0001
1881.00,-0.0000
1880.00,-0.0001
1879.00,-0.0001
1878.00,-0.0001
1877.00,-0.0001
1876.00,-0.0001
1875.00,-0.0000
1874.00,-0.0001
1873.00,-0.0001
1872.00,-0.0001
1871.00,-0.0001
1870.00,-0.0001
1869.00,-0.0001
1868.00,-0.0000
1867.00,-0.0000
1866.00,-0.0001
1865.00,-0.0001
1864.00,-0.0001
1863.00,-0.0001
1862.00,0.0000
1861.00,0.0001
1860.00,0.0001
1859.00,0.0002
1858.00,0.0002
1857.00,0.0002
1856.00,0.0002
1855.00,0.0002
1854.00,0.0001
1853.00,0.0001
1852.00,0.0001
1851.00,0.0001
1850.00,0.0001
1849.00,0.0001
1848.00,0.0001
1847.00,0.0001
1846.00,0.0001
1845.00,0.0002
1844.00,0.0003
1843.00,0.0002
1842.00,0.0001
1841.00,0.0000
1840.00,0.0000
1839.00,0.0001
1838.00,0.0001
1837.00,0.0003
1836.00,0.0004
1835.00,0.0004
1834.00,0.0004
1833.00,0.0005
1832.00,0.0004
1831.00,0.0004
1830.00,0.0004
1829.00,0.0005
1828.00,0.0006
1827.00,0.0006
1826.00,0.0006
1825.00,0.0006
1824.00,0.0005
1823.00,0.0004
1822.00,0.0004
1821.00,0.0003
1820.00,0.0003
1819.00,0.0002
1818.00,0.0000
1817.00,-0.0000
1816.00,0.0000
1815.00,0.0001
1814.00,0.0002
1813.00,0.0003
1812.00,0.0003
1811.00,0.0004
1810.00,0.0004
1809.00,0.0005
1808.00,0.0005
1807.00,0.0005
1806.00,0.0004
1805.00,0.0004
1804.00,0.0004
1803.00,0.0004
1802.00,0.0004
1801.00,0.0004
1800.00,0.0005
1799.00,0.0006
1798.00,0.0006
1797.00,0.0006
1796.00,0.0006
1795.00,0.0006
1794.00,0.0006
1793.00,0.0006
1792.00,0.0007
1791.00,0.0007
1790.00,0.0008
1789.00,0.0008
1788.00,0.0008
1787.00,0.0008
1786.00,0.0008
1785.00,0.0007
1784.00,0.0007
1783.00,0.0006
1782.00,0.0006
1781.00,0.0007
1780.00,0.0007
1779.00,0.0007
1778.00,0.0007
1777.00,0.0008
1776.00,0.0009
1775.00,0.0009
1774.00,0.0009
1773.00,0.0009
1772.00,0.0010
1771.00,0.0010
1770.00,0.0009
1769.00,0.0009
1768.00,0.0009
1767.00,0.0009
1766.00,0.0010
1765.00,0.0010
1764.00,0.0010
1763.00,0.0010
1762.00,0.0010
1761.00,0.0010
1760.00,0.0010
1759.00,0.0010
1758.00,0.0011
1757.00,0.0011
1756.00,0.0012
1755.00,0.0012
1754.00,0.0012
1753.00,0.0013
1752.00,0.0013
1751.00,0.0014
1750.00,0.0015
1749.00,0.0016
1748.00,0.0017
1747.00,0.0017
1746.00,0.0018
1745.00,0.0018
1744.00,0.0018
1743.00,0.0018
1742.00,0.0018
1741.00,0.0018
1740.00,0.0019
1739.00,0.0019
1738.00,0.0020
1737.00,0.0020
1736.00,0.0020
1735.00,0.0020
1734.00,0.0020
1733.00,0.0020
1732.00,0.0022
1731.00,0.0023
1730.00,0.0024
1729.00,0.0025
1728.00,0.0025
1727.00,0.0025
1726.00,0.0025
1725.00,0.0026
1724.00,0.0026
1723.00,0.0026
1722.00,0.0027
1721.00,0.0027
1720.00,0.0026
1719.00,0.0026
1718.00,0.0025
1717.00,0.0025
1716.00,0.0026
1715.00,0.0026
1714.00,0.0026
1713.00,0.0026
1712.00,0.0026
1711.00,0.0026
1710.00,0.0026
1709.00,0.0026
1708.00,0.0026
1707.00,0.0027
1706.00,0.0028
1705.00,0.0029
1704.00,0.0030
1703.00,0.0030
1702.00,0.0030
1701.00,0.0030
1700.00,0.0030
1699.00,0.0030
1698.00,0.0031
1697.00,0.0032
1696.00,0.0033
1695.00,0.0034
1694.00,0.0034
1693.00,0.0035
1692.00,0.0036
1691.00,0.0037
1690.00,0.0038
1689.00,0.0038
1688.00,0.0039
1687.00,0.0040
1686.00,0.0041
1685.00,0.0043
1684.00,0.0045
1683.00,0.0047
1682.00,0.0048
1681.00,0.0049
1680.00,0.0050
1679.00,0.0051
1678.00,0.0050
1677.00,0.0051
1676.00,0.0051
1675.00,0.0053
1674.00,0.0054
1673.00,0.0055
1672.00,0.0057
1671.00,0.0057
1670.00,0.0058
1669.00,0.0059
1668.00,0.0060
1667.00,0.0061
1666.00,0.0061
1665.00,0.0062
1664.00,0.0062
1663.00,0.0063
1662.00,0.0064
1661.00,0.0065
1660.00,0.0066
1659.00,0.0067
1658.00,0.0067
1657.00,0.0068
1656.00,0.0068
1655.00,0.0068
1654.00,0.0070
1653.00,0.0074
1652.00,0.0077
1651.00,0.0078
1650.00,0.0080
1649.00,0.0082
1648.00,0.0084
1647.00,0.0087
1646.00,0.0088
1645.00,0.0087
1644.00,0.0087
1643.00,0.0086
1642.00,0.0085
1641.00,0.0084
1640.00,0.0084
1639.00,0.0083
1638.00,0.0082
1637.00,0.0082
1636.00,0.0082
1635.00,0.0082
1634.00,0.0081
1633.00,0.0081
1632.00,0.0081
1631.00,0.0081
1630.00,0.0081
1629.00,0.0081
1628.00,0.0081
1627.00,0.0080
1626.00,0.0079
1625.00,0.0078
1624.00,0.0077
1623.00,0.0076
1622.00,0.0074
1621.00,0.0074
1620.00,0.0074
1619.00,0.0074
1618.00,0.0074
1617.00,0.0075
1616.00,0.0075
1615.00,0.0075
1614.00,0.0075
1613.00,0.0075
1612.00,0.0075
1611.00,0.0075
1610.00,0.0074
1609.00,0.0074
1608.00,0.0075
1607.00,0.0075
1606.00,0.0074
1605.00,0.0074
1604.00,0.0074
1603.00,0.0073
1602.00,0.0073
1601.00,0.0073
1600.00,0.0073
1599.00,0.0073
1598.00,0.0073
1597.00,0.0073
1596.00,0.0073
1595.00,0.0072
1594.00,0.0072
1593.00,0.0072
1592.00,0.0072
1591.00,0.0072
1590.00,0.0072
1589.00,0.0072
1588.00,0.0072
1587.00,0.0072
1586.00,0.0072
1585.00,0.0073
1584.00,0.0073
1583.00,0.0073
1582.00,0.0073
1581.00,0.0074
1580.00,0.0074
1579.00,0.0074
1578.00,0.0074
1577.00,0.0074
1576.00,0.0074
1575.00,0.0073
1574.00,0.0073
1573.00,0.0073
1572.00,0.0073
1571.00,0.0073
1570.00,0.0073
1569.00,0.0073
1568.00,0.0073
1567.00,0.0073
1566.00,0.0073
1565.00,0.0073
1564.00,0.0073
1563.00,0.0073
1562.00,0.0073
1561.00,0.0074
1560.00,0.0074
1559.00,0.0074
1558.00,0.0074
1557.00,0.0073
1556.00,0.0074
1555.00,0.0074
1554.00,0.0074
1553.00,0.0075
1552.00,0.0077
1551.00,0.0078
1550.00,0.0078
1549.00,0.0078
1548.00,0.0079
1547.00,0.0079
1546.00,0.0080
1545.00,0.0081
1544.00,0.0081
1543.00,0.0081
1542.00,0.0079
1541.00,0.0078
1540.00,0.0078
1539.00,0.0077
1538.00,0.0076
1537.00,0.0075
1536.00,0.0074
1535.00,0.0073
1534.00,0.0071
1533.00,0.0069
1532.00,0.0068
1531.00,0.0067
1530.00,0.0066
1529.00,0.0065
1528.00,0.0065
1527.00,0.0065
1526.00,0.0064
1525.00,0.0063
1524.00,0.0063
1523.00,0.0063
1522.00,0.0062
1521.00,0.0062
1520.00,0.0063
1519.00,0.0062
1518.00,0.0062
1517.00,0.0063
1516.00,0.0063
1515.00,0.0063
1514.00,0.0063
1513.00,0.0063
1512.00,0.0064
1511.00,0.0064
1510.00,0.0063
1509.00,0.0064
1508.00,0.0065
1507.00,0.0066
1506.00,0.0067
1505.00,0.0068
1504.00,0.0070
1503.00,0.0071
1502.00,0.0073
1501.00,0.0075
1500.00,0.0078
1499.00,0.0080
1498.00,0.0082
1497.00,0.0085
1496.00,0.0089
1495.00,0.0092
1494.00,0.0095
1493.00,0.0098
1492.00,0.0102
1491.00,0.0105
1490.00,0.0108
1489.00,0.0113
1488.00,0.0119
1487.00,0.0124
1486.00,0.0128
1485.00,0.0134
1484.00,0.0141
1483.00,0.0148
1482.00,0.0156
1481.00,0.0167
1480.00,0.0179
1479.00,0.0191
1478.00,0.0206
1477.00,0.0227
1476.00,0.0252
1475.00,0.0282
1474.00,0.0323
1473.00,0.0383
1472.00,0.0454
1471.00,0.0522
1470.00,0.0587
1469.00,0.0655
1468.00,0.0728
1467.00,0.0807
1466.00,0.0899
1465.00,0.0997
1464.00,0.1084
1463.00,0.1142
1462.00,0.1177
1461.00,0.1199
1460.00,0.1212
1459.00,0.1217
1458.00,0.1218
1457.00,0.1214
1456.00,0.1204
1455.00,0.1188
1454.00,0.1169
1453.00,0.1146
1452.00,0.1113
1451.00,0.1069
1450.00,0.1013
1449.00,0.0940
1448.00,0.0850
1447.00,0.0757
1446.00,0.0676
1445.00,0.0608
1444.00,0.0551
1443.00,0.0505
1442.00,0.0471
1441.00,0.0448
1440.00,0.0435
1439.00,0.0432
1438.00,0.0436
1437.00,0.0441
1436.00,0.0435
1435.00,0.0412
1434.00,0.0377
1433.00,0.0334
1432.00,0.0288
1431.00,0.0248
1430.00,0.0216
1429.00,0.0193
1428.00,0.0177
1427.00,0.0168
1426.00,0.0161
1425.00,0.0156
1424.00,0.0150
1423.00,0.0147
1422.00,0.0145
1421.00,0.0142
1420.00,0.0138
1419.00,0.0136
1418.00,0.0134
1417.00,0.0132
1416.00,0.0130
1415.00,0.0128
1414.00,0.0128
1413.00,0.0126
1412.00,0.0124
1411.00,0.0122
1410.00,0.0120
1409.00,0.0118
1408.00,0.0117
1407.00,0.0116
1406.00,0.0117
1405.00,0.0116
1404.00,0.0116
1403.00,0.0116
1402.00,0.0117
1401.00,0.0117
1400.00,0.0117
1399.00,0.0119
1398.00,0.0121
1397.00,0.0123
1396.00,0.0124
1395.00,0.0127
1394.00,0.0131
1393.00,0.0136
1392.00,0.0141
1391.00,0.0148
1390.00,0.0158
1389.00,0.0171
1388.00,0.0191
1387.00,0.0221
1386.00,0.0264
1385.00,0.0319
1384.00,0.0398
1383.00,0.0509
1382.00,0.0663
1381.00,0.0865
1380.00,0.1119
1379.00,0.1415
1378.00,0.1706
1377.00,0.1925
1376.00,0.2006
1375.00,0.1910
1374.00,0.1666
1373.00,0.1368
1372.00,0.1096
1371.00,0.0874
1370.00,0.0698
1369.00,0.0566
1368.00,0.0476
1367.00,0.0420
1366.00,0.0390
1365.00,0.0378
1364.00,0.0380
1363.00,0.0395
1362.00,0.0418
1361.00,0.0443
1360.00,0.0462
1359.00,0.0468
1358.00,0.0458
1357.00,0.0432
1356.00,0.0394
1355.00,0.0352
1354.00,0.0311
1353.00,0.0276
1352.00,0.0248
1351.00,0.0225
1350.00,0.0206
1349.00,0.0190
1348.00,0.0178
1347.00,0.0167
1346.00,0.0158
1345.00,0.0151
1344.00,0.0145
1343.00,0.0140
1342.00,0.0135
1341.00,0.0130
1340.00,0.0127
1339.00,0.0124
1338.00,0.0122
1337.00,0.0122
1336.00,0.0123
1335.00,0.0125
1334.00,0.0128
1333.00,0.0132
1332.00,0.0137
1331.00,0.0141
1330.00,0.0143
1329.00,0.0141
1328.00,0.0138
1327.00,0.0132
1326.00,0.0126
1325.00,0.0120
1324.00,0.0115
1323.00,0.0110
1322.00,0.0107
1321.00,0.0104
1320.00,0.0102
1319.00,0.0099
1318.00,0.0098
1317.00,0.0096
1316.00,0.0095
1315.00,0.0095
1314.00,0.0094
1313.00,0.0094
1312.00,0.0095
1311.00,0.0096
1310.00,0.0099
1309.00,0.0103
1308.00,0.0109
1307.00,0.0116
1306.00,0.0124
1305.00,0.0129
1304.00,0.0131
1303.00,0.0130
1302.00,0.0129
1301.00,0.0127
1300.00,0.0128
1299.00,0.0130
1298.00,0.0132
1297.00,0.0133
1296.00,0.0132
1295.00,0.0131
1294.00,0.0127
1293.00,0.0123
1292.00,0.0118
1291.00,0.0113
1290.00,0.0108
1289.00,0.0104
1288.00,0.0100
1287.00,0.0097
1286.00,0.0095
1285.00,0.0093
1284.00,0.0091
1283.00,0.0089
1282.00,0.0088
1281.00,0.0086
1280.00,0.0085
1279.00,0.0084
1278.00,0.0084
1277.00,0.0083
1276.00,0.0084
1275.00,0.0084
1274.00,0.0084
1273.00,0.0084
1272.00,0.0084
1271.00,0.0085
1270.00,0.0086
1269.00,0.0088
1268.00,0.0091
1267.00,0.0093
1266.00,0.0096
1265.00,0.0099
1264.00,0.0102
1263.00,0.0105
1262.00,0.0107
1261.00,0.0110
1260.00,0.0113
1259.00,0.0116
1258.00,0.0119
1257.00,0.0121
1256.00,0.0121
1255.00,0.0118
1254.00,0.0113
1253.00,0.0107
1252.00,0.0102
1251.00,0.0098
1250.00,0.0095
1249.00,0.0092
1248.00,0.0090
1247.00,0.0088
1246.00,0.0087
1245.00,0.0086
1244.00,0.0085
1243.00,0.0084
1242.00,0.0082
1241.00,0.0081
1240.00,0.0080
1239.00,0.0079
1238.00,0.0079
1237.00,0.0078
1236.00,0.0078
1235.00,0.0078
1234.00,0.0079
1233.00,0.0080
1232.00,0.0081
1231.00,0.0082
1230.00,0.0083
1229.00,0.0083
1228.00,0.0085
1227.00,0.0086
1226.00,0.0089
1225.00,0.0092
1224.00,0.0096
1223.00,0.0100
1222.00,0.0104
1221.00,0.0107
1220.00,0.0109
1219.00,0.0109
1218.00,0.0108
1217.00,0.0106
1216.00,0.0103
1215.00,0.0099
1214.00,0.0096
1213.00,0.0093
1212.00,0.0090
1211.00,0.0087
1210.00,0.0086
1209.00,0.0084
1208.00,0.0083
1207.00,0.0082
1206.00,0.0082
1205.00,0.0081
1204.00,0.0080
1203.00,0.0080
1202.00,0.0079
1201.00,0.0078
1200.00,0.0077
1199.00,0.0077
1198.00,0.0076
1197.00,0.0077
1196.00,0.0077
1195.00,0.0078
1194.00,0.0078
1193.00,0.0078
1192.00,0.0077
1191.00,0.0076
1190.00,0.0076
1189.00,0.0075
1188.00,0.0075
1187.00,0.0076
1186.00,0.0077
1185.00,0.0077
1184.00,0.0078
1183.00,0.0079
1182.00,0.0080
1181.00,0.0081
1180.00,0.0083
1179.00,0.0086
1178.00,0.0090
1177.00,0.0096
1176.00,0.0103
1175.00,0.0114
1174.00,0.0127
1173.00,0.0144
1172.00,0.0164
1171.00,0.0185
1170.00,0.0206
1169.00,0.0222
1168.00,0.0232
1167.00,0.0235
1166.00,0.0232
1165.00,0.0225
1164.00,0.0217
1163.00,0.0209
1162.00,0.0202
1161.00,0.0197
1160.00,0.0192
1159.00,0.0189
1158.00,0.0186
1157.00,0.0185
1156.00,0.0186
1155.00,0.0187
1154.00,0.0188
1153.00,0.0187
1152.00,0.0184
1151.00,0.0179
1150.00,0.0172
1149.00,0.0163
1148.00,0.0154
1147.00,0.0146
1146.00,0.0138
1145.00,0.0131
1144.00,0.0125
1143.00,0.0119
1142.00,0.0113
1141.00,0.0108
1140.00,0.0103
1139.00,0.0100
1138.00,0.0097
1137.00,0.0095
1136.00,0.0093
1135.00,0.0091
1134.00,0.0090
1133.00,0.0089
1132.00,0.0090
1131.00,0.0091
1130.00,0.0092
1129.00,0.0093
1128.00,0.0094
1127.00,0.0095
1126.00,0.0096
1125.00,0.0097
1124.00,0.0098
1123.00,0.0099
1122.00,0.0101
1121.00,0.0102
1120.00,0.0103
1119.00,0.0104
1118.00,0.0105
1117.00,0.0106
1116.00,0.0108
1115.00,0.0110
1114.00,0.0112
1113.00,0.0114
1112.00,0.0115
1111.00,0.0117
1110.00,0.0120
1109.00,0.0125
1108.00,0.0130
1107.00,0.0137
1106.00,0.0143
1105.00,0.0150
1104.00,0.0155
1103.00,0.0157
1102.00,0.0157
1101.00,0.0154
1100.00,0.0148
1099.00,0.0141
1098.00,0.0134
1097.00,0.0128
1096.00,0.0122
1095.00,0.0118
1094.00,0.0115
1093.00,0.0112
1092.00,0.0110
1091.00,0.0108
1090.00,0.0106
1089.00,0.0104
1088.00,0.0103
1087.00,0.0102
1086.00,0.0101
1085.00,0.0101
1084.00,0.0102
1083.00,0.0103
1082.00,0.0103
1081.00,0.0102
1080.00,0.0101
1079.00,0.0099
1078.00,0.0097
1077.00,0.0094
1076.00,0.0092
1075.00,0.0090
1074.00,0.0089
1073.00,0.0088
1072.00,0.0088
1071.00,0.0088
1070.00,0.0088
1069.00,0.0088
1068.00,0.0088
1067.00,0.0088
1066.00,0.0088
1065.00,0.0088
1064.00,0.0088
1063.00,0.0087
1062.00,0.0087
1061.00,0.0087
1060.00,0.0086
1059.00,0.0086
1058.00,0.0087
1057.00,0.0087
1056.00,0.0087
1055.00,0.0088
1054.00,0.0089
1053.00,0.0090
1052.00,0.0092
1051.00,0.0094
1050.00,0.0096
1049.00,0.0098
1048.00,0.0100
1047.00,0.0102
1046.00,0.0103
1045.00,0.0104
1044.00,0.0104
1043.00,0.0105
1042.00,0.0105
1041.00,0.0104
1040.00,0.0104
1039.00,0.0104
1038.00,0.0104
1037.00,0.0105
1036.00,0.0104
1035.00,0.0103
1034.00,0.0102
1033.00,0.0100
1032.00,0.0099
1031.00,0.0098
1030.00,0.0097
1029.00,0.0096
1028.00,0.0095
1027.00,0.0095
1026.00,0.0094
1025.00,0.0094
1024.00,0.0093
1023.00,0.0093
1022.00,0.0093
1021.00,0.0093
1020.00,0.0093
1019.00,0.0094
1018.00,0.0094
1017.00,0.0095
1016.00,0.0096
1015.00,0.0097
1014.00,0.0098
1013.00,0.0099
1012.00,0.0100
1011.00,0.0101
1010.00,0.0102
1009.00,0.0104
1008.00,0.0107
1007.00,0.0111
1006.00,0.0117
1005.00,0.0124
1004.00,0.0135
1003.00,0.0150
1002.00,0.0169
1001.00,0.0191
1000.00,0.0215
999.00,0.0233
998.00,0.0241
997.00,0.0236
996.00,0.0217
995.00,0.0192
994.00,0.0166
993.00,0.0145
992.00,0.0129
991.00,0.0118
990.00,0.0110
989.00,0.0104
988.00,0.0099
987.00,0.0097
986.00,0.0096
985.00,0.0097
984.00,0.0101
983.00,0.0107
982.00,0.0116
981.00,0.0129
980.00,0.0148
979.00,0.0171
978.00,0.0200
977.00,0.0232
976.00,0.0264
975.00,0.0291
974.00,0.0308
973.00,0.0310
972.00,0.0296
971.00,0.0268
970.00,0.0233
969.00,0.0199
968.00,0.0169
967.00,0.0146
966.00,0.0129
965.00,0.0117
964.00,0.0108
963.00,0.0101
962.00,0.0096
961.00,0.0092
960.00,0.0089
959.00,0.0087
958.00,0.0084
957.00,0.0080
956.00,0.0077
955.00,0.0075
954.00,0.0073
953.00,0.0071
952.00,0.0070
951.00,0.0070
950.00,0.0071
949.00,0.0071
948.00,0.0071
947.00,0.0072
946.00,0.0075
945.00,0.0078
944.00,0.0083
943.00,0.0086
942.00,0.0089
941.00,0.0091
940.00,0.0092
939.00,0.0091
938.00,0.0088
937.00,0.0083
936.00,0.0078
935.00,0.0073
934.00,0.0070
933.00,0.0069
932.00,0.0068
931.00,0.0066
930.00,0.0065
929.00,0.0063
928.00,0.0062
927.00,0.0061
926.00,0.0061
925.00,0.0062
924.00,0.0062
923.00,0.0063
922.00,0.0063
921.00,0.0062
920.00,0.0063
919.00,0.0065
918.00,0.0067
917.00,0.0068
916.00,0.0069
915.00,0.0069
914.00,0.0069
913.00,0.0070
912.00,0.0072
911.00,0.0074
910.00,0.0076
909.00,0.0079
908.00,0.0083
907.00,0.0088
906.00,0.0095
905.00,0.0106
904.00,0.0121
903.00,0.0140
902.00,0.0161
901.00,0.0180
900.00,0.0193
899.00,0.0195
898.00,0.0186
897.00,0.0169
896.00,0.0149
895.00,0.0130
894.00,0.0114
893.00,0.0101
892.00,0.0092
891.00,0.0085
890.00,0.0082
889.00,0.0080
888.00,0.0078
887.00,0.0078
886.00,0.0077
885.00,0.0076
884.00,0.0076
883.00,0.0076
882.00,0.0076
881.00,0.0077
880.00,0.0077
879.00,0.0076
878.00,0.0077
877.00,0.0077
876.00,0.0078
875.00,0.0078
874.00,0.0079
873.00,0.0080
872.00,0.0080
871.00,0.0080
870.00,0.0079
869.00,0.0079
868.00,0.0080
867.00,0.0081
866.00,0.0083
865.00,0.0084
864.00,0.0084
863.00,0.0084
862.00,0.0083
861.00,0.0083
860.00,0.0083
859.00,0.0085
858.00,0.0087
857.00,0.0090
856.00,0.0091
855.00,0.0092
854.00,0.0093
853.00,0.0095
852.00,0.0098
851.00,0.0101
850.00,0.0104
849.00,0.0107
848.00,0.0111
847.00,0.0119
846.00,0.0132
845.00,0.0152
844.00,0.0179
843.00,0.0208
842.00,0.0231
841.00,0.0236
840.00,0.0220
839.00,0.0192
838.00,0.0163
837.00,0.0140
836.00,0.0125
835.00,0.0116
834.00,0.0112
833.00,0.0109
832.00,0.0107
831.00,0.0107
830.00,0.0107
829.00,0.0108
828.00,0.0107
827.00,0.0106
826.00,0.0105
825.00,0.0106
824.00,0.0107
823.00,0.0109
822.00,0.0111
821.00,0.0114
820.00,0.0117
819.00,0.0121
818.00,0.0125
817.00,0.0130
816.00,0.0138
815.00,0.0150
814.00,0.0166
813.00,0.0185
812.00,0.0206
811.00,0.0226
810.00,0.0242
809.00,0.0250
808.00,0.0248
807.00,0.0236
806.00,0.0218
805.00,0.0196
804.00,0.0176
803.00,0.0159
802.00,0.0146
801.00,0.0138
800.00,0.0131
799.00,0.0126
798.00,0.0121
797.00,0.0117
796.00,0.0113
795.00,0.0109
794.00,0.0104
793.00,0.0100
792.00,0.0096
791.00,0.0093
790.00,0.0091
789.00,0.0089
788.00,0.0087
787.00,0.0085
786.00,0.0083
785.00,0.0081
784.00,0.0080
783.00,0.0079
782.00,0.0077
781.00,0.0075
780.00,0.0073
779.00,0.0072
778.00,0.0072
777.00,0.0072
776.00,0.0072
775.00,0.0071
774.00,0.0070
773.00,0.0070
772.00,0.0071
771.00,0.0071
770.00,0.0072
769.00,0.0073
768.00,0.0072
767.00,0.0072
766.00,0.0071
765.00,0.0071
764.00,0.0072
763.00,0.0072
762.00,0.0073
761.00,0.0073
760.00,0.0073
759.00,0.0073
758.00,0.0073
757.00,0.0075
756.00,0.0076
755.00,0.0078
754.00,0.0079
753.00,0.0081
752.00,0.0082
751.00,0.0085
750.00,0.0087
749.00,0.0089
748.00,0.0091
747.00,0.0091
746.00,0.0091
745.00,0.0092
744.00,0.0094
743.00,0.0097
742.00,0.0100
741.00,0.0104
740.00,0.0107
739.00,0.0111
738.00,0.0114
737.00,0.0117
736.00,0.0120
735.00,0.0123
734.00,0.0128
733.00,0.0135
732.00,0.0145
731.00,0.0155
730.00,0.0161
729.00,0.0164
728.00,0.0165
727.00,0.0165
726.00,0.0167
725.00,0.0171
724.00,0.0178
723.00,0.0188
722.00,0.0198
721.00,0.0204
720.00,0.0202
719.00,0.0192
718.00,0.0177
717.00,0.0162
716.00,0.0149
715.00,0.0139
714.00,0.0131
713.00,0.0125
712.00,0.0120
711.00,0.0118
710.00,0.0118
709.00,0.0119
708.00,0.0119
707.00,0.0119
706.00,0.0118
705.00,0.0116
704.00,0.0114
703.00,0.0112
702.00,0.0109
701.00,0.0105
700.00,0.0102
699.00,0.0099
698.00,0.0096
697.00,0.0094
696.00,0.0095
695.00,0.0097
694.00,0.0100
693.00,0.0101
692.00,0.0100
691.00,0.0099
690.00,0.0097
689.00,0.0095
688.00,0.0095
687.00,0.0096
686.00,0.0097
685.00,0.0099
684.00,0.0099
683.00,0.0099
682.00,0.0098
681.00,0.0097
680.00,0.0096
679.00,0.0096
678.00,0.0096
677.00,0.0096
676.00,0.0095
675.00,0.0094
674.00,0.0094
673.00,0.0094
672.00,0.0095
671.00,0.0096
670.00,0.0097
669.00,0.0099
668.00,0.0100
667.00,0.0102
666.00,0.0103
665.00,0.0102
664.00,0.0101
663.00,0.0100
662.00,0.0098
661.00,0.0097
660.00,0.0096
659.00,0.0095
658.00,0.0094
657.00,0.0093
656.00,0.0093
655.00,0.0093
654.00,0.0095
653.00,0.0096
652.00,0.0096
651.00,0.0095
650.00,0.0093
649.00,0.0092
648.00,0.0093
647.00,0.0094
646.00,0.0095
645.00,0.0096
644.00,0.0096
643.00,0.0096
642.00,0.0095
641.00,0.0095
640.00,0.0095
639.00,0.0096
638.00,0.0097
637.00,0.0096
636.00,0.0094
635.00,0.0091
634.00,0.0089
633.00,0.0089
632.00,0.0090
631.00,0.0091
630.00,0.0093
629.00,0.0094
628.00,0.0093
627.00,0.0089
626.00,0.0087
625.00,0.0086
624.00,0.0087
623.00,0.0089
622.00,0.0090
621.00,0.0090
620.00,0.0089
619.00,0.0089
618.00,0.0089
617.00,0.0089
616.00,0.0089
615.00,0.0090
614.00,0.0092
613.00,0.0093
612.00,0.0095
611.00,0.0097
610.00,0.0098
609.00,0.0095
608.00,0.0090
607.00,0.0085
606.00,0.0083
605.00,0.0083
604.00,0.0084
603.00,0.0086
602.00,0.0089
601.00,0.0091
600.00,0.0092
599.00,0.0092
598.00,0.0092
597.00,0.0092
596.00,0.0091
595.00,0.0088
594.00,0.0086
593.00,0.0084
592.00,0.0084
591.00,0.0084
590.00,0.0084
589.00,0.0085
588.00,0.0087
587.00,0.0089
586.00,0.0091
585.00,0.0090
584.00,0.0087
583.00,0.0085
582.00,0.0086
581.00,0.0090
580.00,0.0095
579.00,0.0097
578.00,0.0097
577.00,0.0094
576.00,0.0091
575.00,0.0090
574.00,0.0089
573.00,0.0088
572.00,0.0086
571.00,0.0085
570.00,0.0086
569.00,0.0087
568.00,0.0088
567.00,0.0089
566.00,0.0089
565.00,0.0089
564.00,0.0089
563.00,0.0089
562.00,0.0091
561.00,0.0093
560.00,0.0094
559.00,0.0094
558.00,0.0093
557.00,0.0090
556.00,0.0087
555.00,0.0084
554.00,0.0084
553.00,0.0085
552.00,0.0085
551.00,0.0084
550.00,0.0084
549.00,0.0085
548.00,0.0086
547.00,0.0086
546.00,0.0086
545.00,0.0087
544.00,0.0088
543.00,0.0088
542.00,0.0088
541.00,0.0087
540.00,0.0086
539.00,0.0084
538.00,0.0082
537.00,0.0084
536.00,0.0088
535.00,0.0094
534.00,0.0099
533.00,0.0100
532.00,0.0099
531.00,0.0096
530.00,0.0094
529.00,0.0095
528.00,0.0100
527.00,0.0103
526.00,0.0102
525.00,0.0097
524.00,0.0093
523.00,0.0093
522.00,0.0097
521.00,0.0100
520.00,0.0099
519.00,0.0093
518.00,0.0084
517.00,0.0075
516.00,0.0071
515.00,0.0069
514.00,0.0068
513.00,0.0066
512.00,0.0064
511.00,0.0062
510.00,0.0060
509.00,0.0059
508.00,0.0060
507.00,0.0065
506.00,0.0071
505.00,0.0075
504.00,0.0077
503.00,0.0077
502.00,0.0077
501.00,0.0077
500.00,0.0077
499.00,0.0077
498.00,0.0075
497.00,0.0073
496.00,0.0070
495.00,0.0072
494.00,0.0076
493.00,0.0079
492.00,0.0080
491.00,0.0076
490.00,0.0071
489.00,0.0067
488.00,0.0066
487.00,0.0065
486.00,0.0062
485.00,0.0060
484.00,0.0061
483.00,0.0065
482.00,0.0066
481.00,0.0063
480.00,0.0057
479.00,0.0054
478.00,0.0052
477.00,0.0050
476.00,0.0048
475.00,0.0048
474.00,0.0052
473.00,0.0057
472.00,0.0062
471.00,0.0069
470.00,0.0079
469.00,0.0091
468.00,0.0099
467.00,0.0102
466.00,0.0101
465.00,0.0099
464.00,0.0098
463.00,0.0104
462.00,0.0117
461.00,0.0136
460.00,0.0153
459.00,0.0158
458.00,0.0151
457.00,0.0139
456.00,0.0133
455.00,0.0131
454.00,0.0128
453.00,0.0121
452.00,0.0113
451.00,0.0107
450.00,0.0106
