Created as New Dataset,Sample 020 By Administrator Date Thursday, September 04 2025
cm-1,A
4000.00,0.0009
3999.00,0.0009
3998.00,0.0009
3997.00,0.0009
3996.00,0.0008
3995.00,0.0008
3994.00,0.0008
3993.00,0.0009
3992.00,0.0009
3991.00,0.0009
3990.00,0.0009
3989.00,0.0008
3988.00,0.0008
3987.00,0.0008
3986.00,0.0008
3985.00,0.0008
3984.00,0.0007
3983.00,0.0007
3982.00,0.0007
3981.00,0.0007
3980.00,0.0007
3979.00,0.0007
3978.00,0.0007
3977.00,0.0007
3976.00,0.0007
3975.00,0.0007
3974.00,0.0007
3973.00,0.0007
3972.00,0.0007
3971.00,0.0007
3970.00,0.0007
3969.00,0.0007
3968.00,0.0007
3967.00,0.0007
3966.00,0.0007
3965.00,0.0007
3964.00,0.0007
3963.00,0.0007
3962.00,0.0006
3961.00,0.0007
3960.00,0.0007
3959.00,0.0007
3958.00,0.0007
3957.00,0.0007
3956.00,0.0006
3955.00,0.0007
3954.00,0.0007
3953.00,0.0007
3952.00,0.0007
3951.00,0.0007
3950.00,0.0007
3949.00,0.0007
3948.00,0.0007
3947.00,0.0007
3946.00,0.0007
3945.00,0.0007
3944.00,0.0007
3943.00,0.0007
3942.00,0.0007
3941.00,0.0007
3940.00,0.0007
3939.00,0.0007
3938.00,0.0006
3937.00,0.0006
3936.00,0.0007
3935.00,0.0007
3934.00,0.0007
3933.00,0.0007
3932.00,0.0007
3931.00,0.0007
3930.00,0.0007
3929.00,0.0007
3928.00,0.0008
3927.00,0.0008
3926.00,0.0008
3925.00,0.0009
3924.00,0.0009
3923.00,0.0009
3922.00,0.0008
3921.00,0.0008
3920.00,0.0008
3919.00,0.0008
3918.00,0.0008
3917.00,0.0008
3916.00,0.0007
3915.00,0.0007
3914.00,0.0007
3913.00,0.0006
3912.00,0.0006
3911.00,0.0006
3910.00,0.0007
3909.00,0.0007
3908.00,0.0007
3907.00,0.0008
3906.00,0.0008
3905.00,0.0008
3904.00,0.0008
3903.00,0.0008
3902.00,0.0008
3901.00,0.0008
3900.00,0.0008
3899.00,0.0008
3898.00,0.0007
3897.00,0.0007
3896.00,0.0007
3895.00,0.0007
3894.00,0.0007
3893.00,0.0007
3892.00,0.0007
3891.00,0.0007
3890.00,0.0007
3889.00,0.0007
3888.00,0.0007
3887.00,0.0008
3886.00,0.0008
3885.00,0.0007
3884.00,0.0007
3883.00,0.0008
3882.00,0.0008
3881.00,0.0008
3880.00,0.0007
3879.00,0.0007
3878.00,0.0007
3877.00,0.0007
3876.00,0.0006
3875.00,0.0006
3874.00,0.0006
3873.00,0.0006
3872.00,0.0007
3871.00,0.0007
3870.00,0.0008
3869.00,0.0008
3868.00,0.0008
3867.00,0.0007
3866.00,0.0007
3865.00,0.0007
3864.00,0.0007
3863.00,0.0007
3862.00,0.0007
3861.00,0.0007
3860.00,0.0007
3859.00,0.0007
3858.00,0.0007
3857.00,0.0007
3856.00,0.0007
3855.00,0.0007
3854.00,0.0006
3853.00,0.0006
3852.00,0.0006
3851.00,0.0007
3850.00,0.0007
3849.00,0.0007
3848.00,0.0007
3847.00,0.0007
3846.00,0.0007
3845.00,0.0007
3844.00,0.0006
3843.00,0.0006
3842.00,0.0005
3841.00,0.0005
3840.00,0.0005
3839.00,0.0006
3838.00,0.0006
3837.00,0.0006
3836.00,0.0007
3835.00,0.0007
3834.00,0.0007
3833.00,0.0007
3832.00,0.0007
3831.00,0.0006
3830.00,0.0006
3829.00,0.0006
3828.00,0.0006
3827.00,0.0006
3826.00,0.0006
3825.00,0.0006
3824.00,0.0006
3823.00,0.0006
3822.00,0.0005
3821.00,0.0005
3820.00,0.0005
3819.00,0.0006
3818.00,0.0006
3817.00,0.0006
3816.00,0.0006
3815.00,0.0006
3814.00,0.0007
3813.00,0.0007
3812.00,0.0007
3811.00,0.0007
3810.00,0.0007
3809.00,0.0007
3808.00,0.0007
3807.00,0.0007
3806.00,0.0006
3805.00,0.0006
3804.00,0.0006
3803.00,0.0006
3802.00,0.0005
3801.00,0.0005
3800.00,0.0005
3799.00,0.0005
3798.00,0.0005
3797.00,0.0006
3796.00,0.0006
3795.00,0.0006
3794.00,0.0006
3793.00,0.0006
3792.00,0.0006
3791.00,0.0006
3790.00,0.0006
3789.00,0.0006
3788.00,0.0006
3787.00,0.0006
3786.00,0.0006
3785.00,0.0006
3784.00,0.0006
3783.00,0.0006
3782.00,0.0006
3781.00,0.0007
3780.00,0.0007
3779.00,0.0007
3778.00,0.0007
3777.00,0.0007
3776.00,0.0007
3775.00,0.0007
3774.00,0.0007
3773.00,0.0007
3772.00,0.0007
3771.00,0.0007
3770.00,0.0007
3769.00,0.0007
3768.00,0.0006
3767.00,0.0006
3766.00,0.0007
3765.00,0.0007
3764.00,0.0007
3763.00,0.0007
3762.00,0.0007
3761.00,0.0007
3760.00,0.0007
3759.00,0.0007
3758.00,0.0007
3757.00,0.0007
3756.00,0.0007
3755.00,0.0007
3754.00,0.0007
3753.00,0.0008
3752.00,0.0008
3751.00,0.0008
3750.00,0.0008
3749.00,0.0008
3748.00,0.0009
3747.00,0.0009
3746.00,0.0008
3745.00,0.0008
3744.00,0.0008
3743.00,0.0008
3742.00,0.0008
3741.00,0.0007
3740.00,0.0007
3739.00,0.0007
3738.00,0.0007
3737.00,0.0007
3736.00,0.0007
3735.00,0.0007
3734.00,0.0007
3733.00,0.0007
3732.00,0.0007
3731.00,0.0007
3730.00,0.0007
3729.00,0.0007
3728.00,0.0007
3727.00,0.0007
3726.00,0.0007
3725.00,0.0007
3724.00,0.0007
3723.00,0.0007
3722.00,0.0006
3721.00,0.0006
3720.00,0.0006
3719.00,0.0006
3718.00,0.0006
3717.00,0.0006
3716.00,0.0006
3715.00,0.0006
3714.00,0.0005
3713.00,0.0005
3712.00,0.0006
3711.00,0.0006
3710.00,0.0006
3709.00,0.0005
3708.00,0.0005
3707.00,0.0005
3706.00,0.0005
3705.00,0.0006
3704.00,0.0006
3703.00,0.0005
3702.00,0.0005
3701.00,0.0005
3700.00,0.0005
3699.00,0.0006
3698.00,0.0006
3697.00,0.0006
3696.00,0.0005
3695.00,0.0005
3694.00,0.0005
3693.00,0.0005
3692.00,0.0006
3691.00,0.0006
3690.00,0.0006
3689.00,0.0005
3688.00,0.0005
3687.00,0.0005
3686.00,0.0005
3685.00,0.0006
3684.00,0.0006
3683.00,0.0006
3682.00,0.0006
3681.00,0.0006
3680.00,0.0006
3679.00,0.0006
3678.00,0.0006
3677.00,0.0007
3676.00,0.0007
3675.00,0.0007
3674.00,0.0007
3673.00,0.0006
3672.00,0.0006
3671.00,0.0006
3670.00,0.0006
3669.00,0.0006
3668.00,0.0006
3667.00,0.0006
3666.00,0.0006
3665.00,0.0006
3664.00,0.0006
3663.00,0.0005
3662.00,0.0005
3661.00,0.0005
3660.00,0.0005
3659.00,0.0005
3658.00,0.0005
3657.00,0.0005
3656.00,0.0006
3655.00,0.0006
3654.00,0.0006
3653.00,0.0006
3652.00,0.0006
3651.00,0.0007
3650.00,0.0007
3649.00,0.0007
3648.00,0.0007
3647.00,0.0007
3646.00,0.0007
3645.00,0.0007
3644.00,0.0007
3643.00,0.0007
3642.00,0.0007
3641.00,0.0007
3640.00,0.0007
3639.00,0.0007
3638.00,0.0007
3637.00,0.0007
3636.00,0.0007
3635.00,0.0007
3634.00,0.0008
3633.00,0.0008
3632.00,0.0009
3631.00,0.0009
3630.00,0.0010
3629.00,0.0010
3628.00,0.0009
3627.00,0.0009
3626.00,0.0009
3625.00,0.0009
3624.00,0.0008
3623.00,0.0008
3622.00,0.0007
3621.00,0.0007
3620.00,0.0007
3619.00,0.0008
3618.00,0.0009
3617.00,0.0009
3616.00,0.0010
3615.00,0.0011
3614.00,0.0011
3613.00,0.0011
3612.00,0.0010
3611.00,0.0010
3610.00,0.0010
3609.00,0.0011
3608.00,0.0011
3607.00,0.0011
3606.00,0.0011
3605.00,0.0011
3604.00,0.0011
3603.00,0.0011
3602.00,0.0011
3601.00,0.0011
3600.00,0.0011
3599.00,0.0011
3598.00,0.0011
3597.00,0.0011
3596.00,0.0011
3595.00,0.0011
3594.00,0.0012
3593.00,0.0012
3592.00,0.0012
3591.00,0.0013
3590.00,0.0013
3589.00,0.0014
3588.00,0.0014
3587.00,0.0014
3586.00,0.0014
3585.00,0.0014
3584.00,0.0014
3583.00,0.0014
3582.00,0.0014
3581.00,0.0014
3580.00,0.0015
3579.00,0.0015
3578.00,0.0015
3577.00,0.0016
3576.00,0.0016
3575.00,0.0016
3574.00,0.0016
3573.00,0.0016
3572.00,0.0016
3571.00,0.0016
3570.00,0.0017
3569.00,0.0018
3568.00,0.0018
3567.00,0.0018
3566.00,0.0018
3565.00,0.0018
3564.00,0.0018
3563.00,0.0018
3562.00,0.0018
3561.00,0.0018
3560.00,0.0018
3559.00,0.0019
3558.00,0.0019
3557.00,0.0019
3556.00,0.0019
3555.00,0.0020
3554.00,0.0020
3553.00,0.0020
3552.00,0.0021
3551.00,0.0021
3550.00,0.0022
3549.00,0.0023
3548.00,0.0023
3547.00,0.0024
3546.00,0.0024
3545.00,0.0024
3544.00,0.0024
3543.00,0.0024
3542.00,0.0023
3541.00,0.0023
3540.00,0.0023
3539.00,0.0023
3538.00,0.0023
3537.00,0.0024
3536.00,0.0024
3535.00,0.0025
3534.00,0.0026
3533.00,0.0026
3532.00,0.0026
3531.00,0.0026
3530.00,0.0026
3529.00,0.0026
3528.00,0.0026
3527.00,0.0027
3526.00,0.0028
3525.00,0.0028
3524.00,0.0028
3523.00,0.0028
3522.00,0.0028
3521.00,0.0029
3520.00,0.0029
3519.00,0.0029
3518.00,0.0029
3517.00,0.0029
3516.00,0.0030
3515.00,0.0030
3514.00,0.0030
3513.00,0.0030
3512.00,0.0031
3511.00,0.0031
3510.00,0.0031
3509.00,0.0032
3508.00,0.0032
3507.00,0.0032
3506.00,0.0032
3505.00,0.0033
3504.00,0.0034
3503.00,0.0034
3502.00,0.0035
3501.00,0.0035
3500.00,0.0035
3499.00,0.0035
3498.00,0.0035
3497.00,0.0035
3496.00,0.0036
3495.00,0.0036
3494.00,0.0037
3493.00,0.0037
3492.00,0.0038
3491.00,0.0038
3490.00,0.0038
3489.00,0.0038
3488.00,0.0038
3487.00,0.0038
3486.00,0.0038
3485.00,0.0039
3484.00,0.0038
3483.00,0.0038
3482.00,0.0038
3481.00,0.0038
3480.00,0.0039
3479.00,0.0039
3478.00,0.0040
3477.00,0.0040
3476.00,0.0040
3475.00,0.0040
3474.00,0.0040
3473.00,0.0040
3472.00,0.0041
3471.00,0.0041
3470.00,0.0042
3469.00,0.0042
3468.00,0.0042
3467.00,0.0043
3466.00,0.0043
3465.00,0.0043
3464.00,0.0043
3463.00,0.0043
3462.00,0.0043
3461.00,0.0043
3460.00,0.0044
3459.00,0.0044
3458.00,0.0045
3457.00,0.0045
3456.00,0.0046
3455.00,0.0046
3454.00,0.0046
3453.00,0.0046
3452.00,0.0047
3451.00,0.0047
3450.00,0.0048
3449.00,0.0048
3448.00,0.0047
3447.00,0.0047
3446.00,0.0047
3445.00,0.0048
3444.00,0.0048
3443.00,0.0048
3442.00,0.0048
3441.00,0.0048
3440.00,0.0048
3439.00,0.0048
3438.00,0.0049
3437.00,0.0049
3436.00,0.0049
3435.00,0.0049
3434.00,0.0049
3433.00,0.0050
3432.00,0.0050
3431.00,0.0050
3430.00,0.0051
3429.00,0.0051
3428.00,0.0052
3427.00,0.0052
3426.00,0.0052
3425.00,0.0052
3424.00,0.0053
3423.00,0.0053
3422.00,0.0054
3421.00,0.0054
3420.00,0.0054
3419.00,0.0054
3418.00,0.0055
3417.00,0.0055
3416.00,0.0055
3415.00,0.0055
3414.00,0.0055
3413.00,0.0055
3412.00,0.0055
3411.00,0.0055
3410.00,0.0055
3409.00,0.0056
3408.00,0.0056
3407.00,0.0056
3406.00,0.0056
3405.00,0.0056
3404.00,0.0056
3403.00,0.0056
3402.00,0.0056
3401.00,0.0056
3400.00,0.0056
3399.00,0.0056
3398.00,0.0056
3397.00,0.0056
3396.00,0.0056
3395.00,0.0056
3394.00,0.0056
3393.00,0.0056
3392.00,0.0056
3391.00,0.0056
3390.00,0.0056
3389.00,0.0057
3388.00,0.0057
3387.00,0.0058
3386.00,0.0059
3385.00,0.0059
3384.00,0.0059
3383.00,0.0059
3382.00,0.0059
3381.00,0.0060
3380.00,0.0060
3379.00,0.0060
3378.00,0.0060
3377.00,0.0060
3376.00,0.0060
3375.00,0.0060
3374.00,0.0060
3373.00,0.0060
3372.00,0.0060
3371.00,0.0060
3370.00,0.0061
3369.00,0.0061
3368.00,0.0062
3367.00,0.0062
3366.00,0.0062
3365.00,0.0062
3364.00,0.0062
3363.00,0.0062
3362.00,0.0062
3361.00,0.0062
3360.00,0.0062
3359.00,0.0062
3358.00,0.0062
3357.00,0.0062
3356.00,0.0062
3355.00,0.0062
3354.00,0.0063
3353.00,0.0063
3352.00,0.0063
3351.00,0.0063
3350.00,0.0063
3349.00,0.0063
3348.00,0.0064
3347.00,0.0064
3346.00,0.0065
3345.00,0.0064
3344.00,0.0064
3343.00,0.0064
3342.00,0.0064
3341.00,0.0063
3340.00,0.0064
3339.00,0.0064
3338.00,0.0064
3337.00,0.0064
3336.00,0.0064
3335.00,0.0064
3334.00,0.0064
3333.00,0.0064
3332.00,0.0063
3331.00,0.0063
3330.00,0.0063
3329.00,0.0063
3328.00,0.0063
3327.00,0.0063
3326.00,0.0063
3325.00,0.0063
3324.00,0.0062
3323.00,0.0062
3322.00,0.0062
3321.00,0.0062
3320.00,0.0062
3319.00,0.0062
3318.00,0.0062
3317.00,0.0062
3316.00,0.0063
3315.00,0.0063
3314.00,0.0063
3313.00,0.0063
3312.00,0.0062
3311.00,0.0062
3310.00,0.0062
3309.00,0.0063
3308.00,0.0063
3307.00,0.0064
3306.00,0.0064
3305.00,0.0064
3304.00,0.0064
3303.00,0.0064
3302.00,0.0064
3301.00,0.0064
3300.00,0.0064
3299.00,0.0064
3298.00,0.0064
3297.00,0.0063
3296.00,0.0063
3295.00,0.0062
3294.00,0.0062
3293.00,0.0062
3292.00,0.0061
3291.00,0.0061
3290.00,0.0061
3289.00,0.0061
3288.00,0.0060
3287.00,0.0060
3286.00,0.0060
3285.00,0.0060
3284.00,0.0060
3283.00,0.0060
3282.00,0.0060
3281.00,0.0060
3280.00,0.0060
3279.00,0.0059
3278.00,0.0059
3277.00,0.0058
3276.00,0.0058
3275.00,0.0058
3274.00,0.0057
3273.00,0.0057
3272.00,0.0057
3271.00,0.0057
3270.00,0.0056
3269.00,0.0056
3268.00,0.0056
3267.00,0.0056
3266.00,0.0056
3265.00,0.0055
3264.00,0.0055
3263.00,0.0055
3262.00,0.0055
3261.00,0.0055
3260.00,0.0054
3259.00,0.0054
3258.00,0.0054
3257.00,0.0054
3256.00,0.0054
3255.00,0.0054
3254.00,0.0054
3253.00,0.0054
3252.00,0.0053
3251.00,0.0053
3250.00,0.0053
3249.00,0.0053
3248.00,0.0053
3247.00,0.0053
3246.00,0.0052
3245.00,0.0052
3244.00,0.0052
3243.00,0.0052
3242.00,0.0051
3241.00,0.0051
3240.00,0.0051
3239.00,0.0051
3238.00,0.0051
3237.00,0.0051
3236.00,0.0051
3235.00,0.0051
3234.00,0.0051
3233.00,0.0051
3232.00,0.0051
3231.00,0.0052
3230.00,0.0052
3229.00,0.0052
3228.00,0.0052
3227.00,0.0052
3226.00,0.0051
3225.00,0.0051
3224.00,0.0052
3223.00,0.0052
3222.00,0.0052
3221.00,0.0052
3220.00,0.0053
3219.00,0.0053
3218.00,0.0053
3217.00,0.0053
3216.00,0.0054
3215.00,0.0054
3214.00,0.0054
3213.00,0.0054
3212.00,0.0054
3211.00,0.0054
3210.00,0.0055
3209.00,0.0054
3208.00,0.0054
3207.00,0.0054
3206.00,0.0054
3205.00,0.0054
3204.00,0.0055
3203.00,0.0055
3202.00,0.0055
3201.00,0.0055
3200.00,0.0054
3199.00,0.0054
3198.00,0.0054
3197.00,0.0054
3196.00,0.0054
3195.00,0.0053
3194.00,0.0053
3193.00,0.0053
3192.00,0.0053
3191.00,0.0053
3190.00,0.0053
3189.00,0.0053
3188.00,0.0053
3187.00,0.0053
3186.00,0.0053
3185.00,0.0053
3184.00,0.0053
3183.00,0.0053
3182.00,0.0053
3181.00,0.0053
3180.00,0.0052
3179.00,0.0052
3178.00,0.0052
3177.00,0.0051
3176.00,0.0051
3175.00,0.0051
3174.00,0.0050
3173.00,0.0050
3172.00,0.0050
3171.00,0.0050
3170.00,0.0050
3169.00,0.0050
3168.00,0.0050
3167.00,0.0051
3166.00,0.0051
3165.00,0.0050
3164.00,0.0050
3163.00,0.0049
3162.00,0.0049
3161.00,0.0048
3160.00,0.0049
3159.00,0.0049
3158.00,0.0048
3157.00,0.0048
3156.00,0.0048
3155.00,0.0048
3154.00,0.0047
3153.00,0.0048
3152.00,0.0048
3151.00,0.0048
3150.00,0.0049
3149.00,0.0049
3148.00,0.0049
3147.00,0.0049
3146.00,0.0049
3145.00,0.0048
3144.00,0.0048
3143.00,0.0048
3142.00,0.0048
3141.00,0.0047
3140.00,0.0047
3139.00,0.0046
3138.00,0.0046
3137.00,0.0045
3136.00,0.0045
3135.00,0.0045
3134.00,0.0044
3133.00,0.0044
3132.00,0.0044
3131.00,0.0045
3130.00,0.0044
3129.00,0.0044
3128.00,0.0044
3127.00,0.0043
3126.00,0.0043
3125.00,0.0043
3124.00,0.0043
3123.00,0.0042
3122.00,0.0042
3121.00,0.0041
3120.00,0.0041
3119.00,0.0041
3118.00,0.0041
3117.00,0.0041
3116.00,0.0041
3115.00,0.0041
3114.00,0.0041
3113.00,0.0041
3112.00,0.0040
3111.00,0.0040
3110.00,0.0040
3109.00,0.0040
3108.00,0.0039
3107.00,0.0040
3106.00,0.0040
3105.00,0.0040
3104.00,0.0040
3103.00,0.0039
3102.00,0.0039
3101.00,0.0039
3100.00,0.0039
3099.00,0.0038
3098.00,0.0038
3097.00,0.0038
3096.00,0.0038
3095.00,0.0038
3094.00,0.0038
3093.00,0.0038
3092.00,0.0038
3091.00,0.0038
3090.00,0.0038
3089.00,0.0038
3088.00,0.0038
3087.00,0.0038
3086.00,0.0038
3085.00,0.0038
3084.00,0.0037
3083.00,0.0037
3082.00,0.0037
3081.00,0.0038
3080.00,0.0038
3079.00,0.0037
3078.00,0.0037
3077.00,0.0037
3076.00,0.0037
3075.00,0.0037
3074.00,0.0038
3073.00,0.0037
3072.00,0.0037
3071.00,0.0038
3070.00,0.0038
3069.00,0.0038
3068.00,0.0038
3067.00,0.0039
3066.00,0.0039
3065.00,0.0039
3064.00,0.0039
3063.00,0.0039
3062.00,0.0039
3061.00,0.0039
3060.00,0.0039
3059.00,0.0039
3058.00,0.0039
3057.00,0.0039
3056.00,0.0040
3055.00,0.0040
3054.00,0.0040
3053.00,0.0040
3052.00,0.0040
3051.00,0.0040
3050.00,0.0040
3049.00,0.0041
3048.00,0.0041
3047.00,0.0042
3046.00,0.0042
3045.00,0.0042
3044.00,0.0042
3043.00,0.0042
3042.00,0.0042
3041.00,0.0042
3040.00,0.0042
3039.00,0.0043
3038.00,0.0044
3037.00,0.0044
3036.00,0.0045
3035.00,0.0045
3034.00,0.0045
3033.00,0.0046
3032.00,0.0046
3031.00,0.0047
3030.00,0.0047
3029.00,0.0047
3028.00,0.0048
3027.00,0.0048
3026.00,0.0049
3025.00,0.0049
3024.00,0.0049
3023.00,0.0050
3022.00,0.0050
3021.00,0.0051
3020.00,0.0052
3019.00,0.0053
3018.00,0.0053
3017.00,0.0054
3016.00,0.0054
3015.00,0.0055
3014.00,0.0056
3013.00,0.0056
3012.00,0.0057
3011.00,0.0059
3010.00,0.0060
3009.00,0.0062
3008.00,0.0063
3007.00,0.0065
3006.00,0.0066
3005.00,0.0067
3004.00,0.0069
3003.00,0.0071
3002.00,0.0073
3001.00,0.0075
3000.00,0.0077
2999.00,0.0080
2998.00,0.0082
2997.00,0.0086
2996.00,0.0089
2995.00,0.0093
2994.00,0.0097
2993.00,0.0102
2992.00,0.0107
2991.00,0.0112
2990.00,0.0118
2989.00,0.0124
2988.00,0.0132
2987.00,0.0140
2986.00,0.0148
2985.00,0.0158
2984.00,0.0169
2983.00,0.0182
2982.00,0.0196
2981.00,0.0213
2980.00,0.0232
2979.00,0.0254
2978.00,0.0279
2977.00,0.0307
2976.00,0.0339
2975.00,0.0376
2974.00,0.0419
2973.00,0.0468
2972.00,0.0523
2971.00,0.0586
2970.00,0.0656
2969.00,0.0734
2968.00,0.0819
2967.00,0.0910
2966.00,0.1006
2965.00,0.1104
2964.00,0.1201
2963.00,0.1291
2962.00,0.1367
2961.00,0.1427
2960.00,0.1469
2959.00,0.1497
2958.00,0.1518
2957.00,0.1541
2956.00,0.1574
2955.00,0.1622
2954.00,0.1683
2953.00,0.1750
2952.00,0.1810
2951.00,0.1850
2950.00,0.1857
2949.00,0.1823
2948.00,0.1751
2947.00,0.1647
2946.00,0.1526
2945.00,0.1402
2944.00,0.1287
2943.00,0.1190
2942.00,0.1116
2941.00,0.1064
2940.00,0.1035
2939.00,0.1027
2938.00,0.1036
2937.00,0.1062
2936.00,0.1102
2935.00,0.1157
2934.00,0.1224
2933.00,0.1303
2932.00,0.1393
2931.00,0.1492
2930.00,0.1597
2929.00,0.1707
2928.00,0.1817
2927.00,0.1925
2926.00,0.2030
2925.00,0.2132
2924.00,0.2230
2923.00,0.2327
2922.00,0.2422
2921.00,0.2512
2920.00,0.2590
2919.00,0.2645
2918.00,0.2668
2917.00,0.2652
2916.00,0.2598
2915.00,0.2515
2914.00,0.2415
2913.00,0.2311
2912.00,0.2212
2911.00,0.2125
2910.00,0.2050
2909.00,0.1984
2908.00,0.1925
2907.00,0.1867
2906.00,0.1809
2905.00,0.1748
2904.00,0.1685
2903.00,0.1620
2902.00,0.1555
2901.00,0.1491
2900.00,0.1429
2899.00,0.1370
2898.00,0.1314
2897.00,0.1262
2896.00,0.1215
2895.00,0.1174
2894.00,0.1139
2893.00,0.1111
2892.00,0.1088
2891.00,0.1071
2890.00,0.1058
2889.00,0.1049
2888.00,0.1044
2887.00,0.1042
2886.00,0.1042
2885.00,0.1046
2884.00,0.1053
2883.00,0.1063
2882.00,0.1077
2881.00,0.1092
2880.00,0.1106
2879.00,0.1116
2878.00,0.1119
2877.00,0.1117
2876.00,0.1110
2875.00,0.1103
2874.00,0.1100
2873.00,0.1104
2872.00,0.1115
2871.00,0.1132
2870.00,0.1153
2869.00,0.1174
2868.00,0.1187
2867.00,0.1186
2866.00,0.1166
2865.00,0.1125
2864.00,0.1067
2863.00,0.1001
2862.00,0.0935
2861.00,0.0877
2860.00,0.0832
2859.00,0.0802
2858.00,0.0785
2857.00,0.0780
2856.00,0.0783
2855.00,0.0792
2854.00,0.0805
2853.00,0.0820
2852.00,0.0835
2851.00,0.0849
2850.00,0.0861
2849.00,0.0872
2848.00,0.0884
2847.00,0.0902
2846.00,0.0929
2845.00,0.0965
2844.00,0.1011
2843.00,0.1062
2842.00,0.1114
2841.00,0.1159
2840.00,0.1189
2839.00,0.1199
2838.00,0.1181
2837.00,0.1136
2836.00,0.1065
2835.00,0.0975
2834.00,0.0875
2833.00,0.0774
2832.00,0.0681
2831.00,0.0598
2830.00,0.0529
2829.00,0.0472
2828.00,0.0426
2827.00,0.0388
2826.00,0.0357
2825.00,0.0332
2824.00,0.0310
2823.00,0.0291
2822.00,0.0275
2821.00,0.0261
2820.00,0.0248
2819.00,0.0237
2818.00,0.0228
2817.00,0.0219
2816.00,0.0212
2815.00,0.0205
2814.00,0.0199
2813.00,0.0193
2812.00,0.0187
2811.00,0.0182
2810.00,0.0177
2809.00,0.0172
2808.00,0.0166
2807.00,0.0161
2806.00,0.0155
2805.00,0.0148
2804.00,0.0142
2803.00,0.0137
2802.00,0.0132
2801.00,0.0127
2800.00,0.0124
2799.00,0.0121
2798.00,0.0118
2797.00,0.0116
2796.00,0.0114
2795.00,0.0111
2794.00,0.0109
2793.00,0.0106
2792.00,0.0103
2791.00,0.0099
2790.00,0.0096
2789.00,0.0093
2788.00,0.0090
2787.00,0.0087
2786.00,0.0084
2785.00,0.0082
2784.00,0.0079
2783.00,0.0076
2782.00,0.0074
2781.00,0.0072
2780.00,0.0070
2779.00,0.0069
2778.00,0.0067
2777.00,0.0066
2776.00,0.0065
2775.00,0.0064
2774.00,0.0063
2773.00,0.0062
2772.00,0.0062
2771.00,0.0061
2770.00,0.0061
2769.00,0.0060
2768.00,0.0060
2767.00,0.0059
2766.00,0.0059
2765.00,0.0059
2764.00,0.0058
2763.00,0.0058
2762.00,0.0057
2761.00,0.0057
2760.00,0.0057
2759.00,0.0056
2758.00,0.0056
2757.00,0.0056
2756.00,0.0056
2755.00,0.0056
2754.00,0.0056
2753.00,0.0056
2752.00,0.0055
2751.00,0.0055
2750.00,0.0054
2749.00,0.0054
2748.00,0.0054
2747.00,0.0055
2746.00,0.0055
2745.00,0.0056
2744.00,0.0057
2743.00,0.0057
2742.00,0.0058
2741.00,0.0059
2740.00,0.0060
2739.00,0.0061
2738.00,0.0062
2737.00,0.0064
2736.00,0.0065
2735.00,0.0066
2734.00,0.0067
2733.00,0.0068
2732.00,0.0070
2731.00,0.0072
2730.00,0.0074
2729.00,0.0076
2728.00,0.0079
2727.00,0.0081
2726.00,0.0084
2725.00,0.0086
2724.00,0.0087
2723.00,0.0088
2722.00,0.0087
2721.00,0.0085
2720.00,0.0083
2719.00,0.0080
2718.00,0.0076
2717.00,0.0074
2716.00,0.0071
2715.00,0.0069
2714.00,0.0067
2713.00,0.0064
2712.00,0.0062
2711.00,0.0060
2710.00,0.0059
2709.00,0.0057
2708.00,0.0056
2707.00,0.0055
2706.00,0.0054
2705.00,0.0053
2704.00,0.0052
2703.00,0.0051
2702.00,0.0050
2701.00,0.0049
2700.00,0.0048
2699.00,0.0048
2698.00,0.0048
2697.00,0.0048
2696.00,0.0048
2695.00,0.0048
2694.00,0.0048
2693.00,0.0048
2692.00,0.0048
2691.00,0.0048
2690.00,0.0048
2689.00,0.0048
2688.00,0.0048
2687.00,0.0048
2686.00,0.0048
2685.00,0.0048
2684.00,0.0048
2683.00,0.0048
2682.00,0.0048
2681.00,0.0048
2680.00,0.0048
2679.00,0.0049
2678.00,0.0049
2677.00,0.0048
2676.00,0.0048
2675.00,0.0048
2674.00,0.0047
2673.00,0.0047
2672.00,0.0046
2671.00,0.0047
2670.00,0.0047
2669.00,0.0047
2668.00,0.0047
2667.00,0.0047
2666.00,0.0048
2665.00,0.0048
2664.00,0.0049
2663.00,0.0049
2662.00,0.0050
2661.00,0.0050
2660.00,0.0050
2659.00,0.0050
2658.00,0.0050
2657.00,0.0050
2656.00,0.0049
2655.00,0.0049
2654.00,0.0048
2653.00,0.0047
2652.00,0.0047
2651.00,0.0046
2650.00,0.0045
2649.00,0.0045
2648.00,0.0044
2647.00,0.0044
2646.00,0.0045
2645.00,0.0045
2644.00,0.0044
2643.00,0.0043
2642.00,0.0043
2641.00,0.0042
2640.00,0.0042
2639.00,0.0042
2638.00,0.0041
2637.00,0.0041
2636.00,0.0041
2635.00,0.0041
2634.00,0.0041
2633.00,0.0041
2632.00,0.0041
2631.00,0.0041
2630.00,0.0041
2629.00,0.0041
2628.00,0.0041
2627.00,0.0041
2626.00,0.0041
2625.00,0.0041
2624.00,0.0041
2623.00,0.0041
2622.00,0.0041
2621.00,0.0041
2620.00,0.0041
2619.00,0.0041
2618.00,0.0041
2617.00,0.0042
2616.00,0.0042
2615.00,0.0042
2614.00,0.0042
2613.00,0.0042
2612.00,0.0041
2611.00,0.0040
2610.00,0.0039
2609.00,0.0039
2608.00,0.0038
2607.00,0.0038
2606.00,0.0037
2605.00,0.0037
2604.00,0.0036
2603.00,0.0036
2602.00,0.0035
2601.00,0.0035
2600.00,0.0035
2599.00,0.0034
2598.00,0.0034
2597.00,0.0034
2596.00,0.0034
2595.00,0.0034
2594.00,0.0034
2593.00,0.0035
2592.00,0.0035
2591.00,0.0036
2590.00,0.0037
2589.00,0.0038
2588.00,0.0039
2587.00,0.0039
2586.00,0.0040
2585.00,0.0040
2584.00,0.0041
2583.00,0.0041
2582.00,0.0040
2581.00,0.0040
2580.00,0.0039
2579.00,0.0038
2578.00,0.0037
2577.00,0.0036
2576.00,0.0036
2575.00,0.0035
2574.00,0.0034
2573.00,0.0033
2572.00,0.0031
2571.00,0.0030
2570.00,0.0029
2569.00,0.0029
2568.00,0.0029
2567.00,0.0029
2566.00,0.0028
2565.00,0.0028
2564.00,0.0027
2563.00,0.0027
2562.00,0.0026
2561.00,0.0025
2560.00,0.0024
2559.00,0.0024
2558.00,0.0024
2557.00,0.0024
2556.00,0.0024
2555.00,0.0024
2554.00,0.0024
2553.00,0.0024
2552.00,0.0024
2551.00,0.0024
2550.00,0.0023
2549.00,0.0022
2548.00,0.0022
2547.00,0.0022
2546.00,0.0021
2545.00,0.0021
2544.00,0.0021
2543.00,0.0021
2542.00,0.0021
2541.00,0.0021
2540.00,0.0020
2539.00,0.0020
2538.00,0.0019
2537.00,0.0019
2536.00,0.0019
2535.00,0.0019
2534.00,0.0018
2533.00,0.0018
2532.00,0.0017
2531.00,0.0017
2530.00,0.0017
2529.00,0.0017
2528.00,0.0017
2527.00,0.0017
2526.00,0.0017
2525.00,0.0017
2524.00,0.0017
2523.00,0.0017
2522.00,0.0017
2521.00,0.0016
2520.00,0.0015
2519.00,0.0014
2518.00,0.0013
2517.00,0.0013
2516.00,0.0013
2515.00,0.0014
2514.00,0.0014
2513.00,0.0014
2512.00,0.0014
2511.00,0.0013
2510.00,0.0013
2509.00,0.0013
2508.00,0.0013
2507.00,0.0012
2506.00,0.0012
2505.00,0.0011
2504.00,0.0011
2503.00,0.0011
2502.00,0.0011
2501.00,0.0012
2500.00,0.0012
2499.00,0.0013
2498.00,0.0013
2497.00,0.0012
2496.00,0.0012
2495.00,0.0012
2494.00,0.0012
2493.00,0.0012
2492.00,0.0012
2491.00,0.0012
2490.00,0.0012
2489.00,0.0013
2488.00,0.0013
2487.00,0.0013
2486.00,0.0013
2485.00,0.0013
2484.00,0.0013
2483.00,0.0013
2482.00,0.0013
2481.00,0.0013
2480.00,0.0012
2479.00,0.0011
2478.00,0.0011
2477.00,0.0011
2476.00,0.0011
2475.00,0.0011
2474.00,0.0011
2473.00,0.0011
2472.00,0.0011
2471.00,0.0011
2470.00,0.0011
2469.00,0.0011
2468.00,0.0012
2467.00,0.0012
2466.00,0.0012
2465.00,0.0012
2464.00,0.0012
2463.00,0.0011
2462.00,0.0011
2461.00,0.0010
2460.00,0.0010
2459.00,0.0010
2458.00,0.0011
2457.00,0.0012
2456.00,0.0012
2455.00,0.0013
2454.00,0.0013
2453.00,0.0013
2452.00,0.0014
2451.00,0.0014
2450.00,0.0014
2449.00,0.0014
2448.00,0.0014
2447.00,0.0014
2446.00,0.0013
2445.00,0.0013
2444.00,0.0013
2443.00,0.0013
2442.00,0.0012
2441.00,0.0012
2440.00,0.0012
2439.00,0.0012
2438.00,0.0012
2437.00,0.0013
2436.00,0.0014
2435.00,0.0014
2434.00,0.0014
2433.00,0.0014
2432.00,0.0014
2431.00,0.0014
2430.00,0.0014
2429.00,0.0014
2428.00,0.0014
2427.00,0.0014
2426.00,0.0014
2425.00,0.0013
2424.00,0.0012
2423.00,0.0012
2422.00,0.0012
2421.00,0.0011
2420.00,0.0011
2419.00,0.0012
2418.00,0.0012
2417.00,0.0012
2416.00,0.0012
2415.00,0.0012
2414.00,0.0012
2413.00,0.0012
2412.00,0.0012
2411.00,0.0012
2410.00,0.0011
2409.00,0.0011
2408.00,0.0010
2407.00,0.0010
2406.00,0.0010
2405.00,0.0010
2404.00,0.0010
2403.00,0.0011
2402.00,0.0011
2401.00,0.0011
2400.00,0.0011
2399.00,0.0010
2398.00,0.0010
2397.00,0.0010
2396.00,0.0011
2395.00,0.0011
2394.00,0.0011
2393.00,0.0010
2392.00,0.0010
2391.00,0.0009
2390.00,0.0009
2389.00,0.0009
2388.00,0.0009
2387.00,0.0009
2386.00,0.0009
2385.00,0.0009
2384.00,0.0009
2383.00,0.0008
2382.00,0.0008
2381.00,0.0007
2380.00,0.0007
2379.00,0.0007
2378.00,0.0007
2377.00,0.0007
2376.00,0.0007
2375.00,0.0007
2374.00,0.0006
2373.00,0.0006
2372.00,0.0006
2371.00,0.0006
2370.00,0.0006
2369.00,0.0005
2368.00,0.0005
2367.00,0.0005
2366.00,0.0005
2365.00,0.0006
2364.00,0.0007
2363.00,0.0008
2362.00,0.0007
2361.00,0.0007
2360.00,0.0006
2359.00,0.0006
2358.00,0.0006
2357.00,0.0005
2356.00,0.0005
2355.00,0.0004
2354.00,0.0002
2353.00,0.0001
2352.00,-0.0000
2351.00,-0.0001
2350.00,0.0000
2349.00,0.0003
2348.00,0.0007
2347.00,0.0010
2346.00,0.0012
2345.00,0.0011
2344.00,0.0010
2343.00,0.0009
2342.00,0.0009
2341.00,0.0008
2340.00,0.0008
2339.00,0.0007
2338.00,0.0007
2337.00,0.0007
2336.00,0.0008
2335.00,0.0008
2334.00,0.0007
2333.00,0.0007
2332.00,0.0006
2331.00,0.0006
2330.00,0.0006
2329.00,0.0006
2328.00,0.0008
2327.00,0.0011
2326.00,0.0015
2325.00,0.0019
2324.00,0.0020
2323.00,0.0019
2322.00,0.0016
2321.00,0.0014
2320.00,0.0012
2319.00,0.0011
2318.00,0.0011
2317.00,0.0011
2316.00,0.0011
2315.00,0.0010
2314.00,0.0009
2313.00,0.0008
2312.00,0.0008
2311.00,0.0007
2310.00,0.0007
2309.00,0.0006
2308.00,0.0006
2307.00,0.0006
2306.00,0.0005
2305.00,0.0006
2304.00,0.0007
2303.00,0.0008
2302.00,0.0009
2301.00,0.0010
2300.00,0.0010
2299.00,0.0010
2298.00,0.0010
2297.00,0.0011
2296.00,0.0012
2295.00,0.0013
2294.00,0.0014
2293.00,0.0015
2292.00,0.0017
2291.00,0.0017
2290.00,0.0018
2289.00,0.0018
2288.00,0.0018
2287.00,0.0019
2286.00,0.0019
2285.00,0.0019
2284.00,0.0019
2283.00,0.0019
2282.00,0.0018
2281.00,0.0018
2280.00,0.0018
2279.00,0.0018
2278.00,0.0017
2277.00,0.0017
2276.00,0.0016
2275.00,0.0015
2274.00,0.0014
2273.00,0.0014
2272.00,0.0014
2271.00,0.0014
2270.00,0.0014
2269.00,0.0013
2268.00,0.0012
2267.00,0.0011
2266.00,0.0009
2265.00,0.0009
2264.00,0.0009
2263.00,0.0009
2262.00,0.0010
2261.00,0.0010
2260.00,0.0010
2259.00,0.0010
2258.00,0.0011
2257.00,0.0011
2256.00,0.0012
2255.00,0.0012
2254.00,0.0012
2253.00,0.0012
2252.00,0.0012
2251.00,0.0012
2250.00,0.0011
2249.00,0.0011
2248.00,0.0010
2247.00,0.0009
2246.00,0.0008
2245.00,0.0008
2244.00,0.0009
2243.00,0.0010
2242.00,0.0010
2241.00,0.0010
2240.00,0.0010
2239.00,0.0009
2238.00,0.0009
2237.00,0.0009
2236.00,0.0009
2235.00,0.0010
2234.00,0.0010
2233.00,0.0011
2232.00,0.0012
2231.00,0.0011
2230.00,0.0010
2229.00,0.0008
2228.00,0.0007
2227.00,0.0007
2226.00,0.0008
2225.00,0.0010
2224.00,0.0011
2223.00,0.0010
2222.00,0.0008
2221.00,0.0006
2220.00,0.0004
2219.00,0.0003
2218.00,0.0002
2217.00,0.0002
2216.00,0.0002
2215.00,0.0003
2214.00,0.0004
2213.00,0.0004
2212.00,0.0005
2211.00,0.0005
2210.00,0.0005
2209.00,0.0005
2208.00,0.0005
2207.00,0.0006
2206.00,0.0007
2205.00,0.0008
2204.00,0.0008
2203.00,0.0008
2202.00,0.0007
2201.00,0.0007
2200.00,0.0008
2199.00,0.0008
2198.00,0.0008
2197.00,0.0007
2196.00,0.0007
2195.00,0.0007
2194.00,0.0008
2193.00,0.0009
2192.00,0.0010
2191.00,0.0011
2190.00,0.0011
2189.00,0.0011
2188.00,0.0010
2187.00,0.0008
2186.00,0.0006
2185.00,0.0007
2184.00,0.0007
2183.00,0.0006
2182.00,0.0005
2181.00,0.0004
2180.00,0.0005
2179.00,0.0007
2178.00,0.0009
2177.00,0.0009
2176.00,0.0009
2175.00,0.0009
2174.00,0.0010
2173.00,0.0012
2172.00,0.0012
2171.00,0.0011
2170.00,0.0010
2169.00,0.0011
2168.00,0.0011
2167.00,0.0009
2166.00,0.0007
2165.00,0.0008
2164.00,0.0012
2163.00,0.0018
2162.00,0.0021
2161.00,0.0019
2160.00,0.0010
2159.00,-0.0004
2158.00,-0.0017
2157.00,-0.0023
2156.00,-0.0023
2155.00,-0.0020
2154.00,-0.0017
2153.00,-0.0015
2152.00,-0.0013
2151.00,-0.0013
2150.00,-0.0012
2149.00,-0.0012
2148.00,-0.0012
2147.00,-0.0013
2146.00,-0.0014
2145.00,-0.0014
2144.00,-0.0014
2143.00,-0.0013
2142.00,-0.0012
2141.00,-0.0011
2140.00,-0.0010
2139.00,-0.0010
2138.00,-0.0011
2137.00,-0.0012
2136.00,-0.0013
2135.00,-0.0014
2134.00,-0.0015
2133.00,-0.0014
2132.00,-0.0012
2131.00,-0.0010
2130.00,-0.0008
2129.00,-0.0006
2128.00,-0.0005
2127.00,-0.0005
2126.00,-0.0005
2125.00,-0.0005
2124.00,-0.0005
2123.00,-0.0004
2122.00,-0.0003
2121.00,-0.0003
2120.00,-0.0002
2119.00,-0.0002
2118.00,-0.0001
2117.00,-0.0000
2116.00,0.0002
2115.00,0.0004
2114.00,0.0005
2113.00,0.0006
2112.00,0.0006
2111.00,0.0005
2110.00,0.0003
2109.00,0.0002
2108.00,0.0001
2107.00,-0.0000
2106.00,-0.0001
2105.00,-0.0001
2104.00,0.0000
2103.00,0.0001
2102.00,0.0001
2101.00,0.0002
2100.00,0.0003
2099.00,0.0004
2098.00,0.0003
2097.00,0.0001
2096.00,-0.0001
2095.00,-0.0002
2094.00,-0.0002
2093.00,-0.0001
2092.00,-0.0000
2091.00,0.0000
2090.00,0.0000
2089.00,0.0001
2088.00,0.0002
2087.00,0.0003
2086.00,0.0004
2085.00,0.0003
2084.00,0.0002
2083.00,0.0001
2082.00,0.0001
2081.00,0.0003
2080.00,0.0006
2079.00,0.0009
2078.00,0.0009
2077.00,0.0007
2076.00,0.0003
2075.00,0.0001
2074.00,-0.0000
2073.00,0.0000
2072.00,0.0001
2071.00,0.0002
2070.00,0.0001
2069.00,-0.0000
2068.00,-0.0001
2067.00,-0.0000
2066.00,0.0001
2065.00,0.0003
2064.00,0.0003
2063.00,0.0002
2062.00,-0.0000
2061.00,-0.0001
2060.00,-0.0001
2059.00,-0.0001
2058.00,-0.0001
2057.00,0.0000
2056.00,0.0000
2055.00,0.0000
2054.00,0.0001
2053.00,0.0005
2052.00,0.0010
2051.00,0.0012
2050.00,0.0011
2049.00,0.0007
2048.00,0.0004
2047.00,0.0001
2046.00,-0.0000
2045.00,-0.0002
2044.00,-0.0002
2043.00,-0.0001
2042.00,0.0000
2041.00,0.0001
2040.00,0.0001
2039.00,0.0002
2038.00,0.0002
2037.00,0.0003
2036.00,0.0003
2035.00,0.0001
2034.00,-0.0002
2033.00,-0.0006
2032.00,-0.0009
2031.00,-0.0011
2030.00,-0.0012
2029.00,-0.0013
2028.00,-0.0013
2027.00,-0.0013
2026.00,-0.0014
2025.00,-0.0015
2024.00,-0.0015
2023.00,-0.0013
2022.00,-0.0011
2021.00,-0.0010
2020.00,-0.0010
2019.00,-0.0011
2018.00,-0.0011
2017.00,-0.0010
2016.00,-0.0009
2015.00,-0.0009
2014.00,-0.0010
2013.00,-0.0010
2012.00,-0.0009
2011.00,-0.0007
2010.00,-0.0006
2009.00,-0.0006
2008.00,-0.0010
2007.00,-0.0016
2006.00,-0.0020
2005.00,-0.0021
2004.00,-0.0017
2003.00,-0.0014
2002.00,-0.0013
2001.00,-0.0014
2000.00,-0.0015
1999.00,-0.0016
1998.00,-0.0015
1997.00,-0.0014
1996.00,-0.0014
1995.00,-0.0014
1994.00,-0.0014
1993.00,-0.0014
1992.00,-0.0012
1991.00,-0.0009
1990.00,-0.0007
1989.00,-0.0004
1988.00,-0.0001
1987.00,0.0001
1986.00,0.0003
1985.00,0.0004
1984.00,0.0004
1983.00,0.0004
1982.00,0.0004
1981.00,0.0005
1980.00,0.0005
1979.00,0.0003
1978.00,-0.0001
1977.00,-0.0003
1976.00,-0.0005
1975.00,-0.0006
1974.00,-0.0010
1973.00,-0.0013
1972.00,-0.0014
1971.00,-0.0015
1970.00,-0.0016
1969.00,-0.0018
1968.00,-0.0020
1967.00,-0.0020
1966.00,-0.0019
1965.00,-0.0016
1964.00,-0.0014
1963.00,-0.0014
1962.00,-0.0015
1961.00,-0.0017
1960.00,-0.0018
1959.00,-0.0018
1958.00,-0.0017
1957.00,-0.0015
1956.00,-0.0013
1955.00,-0.0011
1954.00,-0.0010
1953.00,-0.0010
1952.00,-0.0011
1951.00,-0.0012
1950.00,-0.0013
1949.00,-0.0013
1948.00,-0.0013
1947.00,-0.0015
1946.00,-0.0016
1945.00,-0.0017
1944.00,-0.0016
1943.00,-0.0014
1942.00,-0.0013
1941.00,-0.0012
1940.00,-0.0013
1939.00,-0.0014
1938.00,-0.0014
1937.00,-0.0014
1936.00,-0.0013
1935.00,-0.0011
1934.00,-0.0010
1933.00,-0.0009
1932.00,-0.0009
1931.00,-0.0010
1930.00,-0.0010
1929.00,-0.0010
1928.00,-0.0009
1927.00,-0.0008
1926.00,-0.0006
1925.00,-0.0005
1924.00,-0.0004
1923.00,-0.0004
1922.00,-0.0004
1921.00,-0.0004
1920.00,-0.0005
1919.00,-0.0006
1918.00,-0.0005
1917.00,-0.0003
1916.00,-0.0001
1915.00,-0.0000
1914.00,-0.0001
1913.00,-0.0002
1912.00,-0.0002
1911.00,-0.0001
1910.00,-0.0001
1909.00,-0.0001
1908.00,-0.0001
1907.00,-0.0001
1906.00,-0.0001
1905.00,-0.0002
1904.00,-0.0002
1903.00,-0.0002
1902.00,-0.0001
1901.00,-0.0000
1900.00,0.0001
1899.00,0.0001
1898.00,0.0001
1897.00,0.0001
1896.00,-0.0000
1895.00,-0.0001
1894.00,-0.0002
1893.00,-0.0003
1892.00,-0.0002
1891.00,-0.0002
1890.00,-0.0002
1889.00,-0.0002
1888.00,-0.0000
1887.00,0.0001
1886.00,0.0001
1885.00,0.0000
1884.00,-0.0000
1883.00,-0.0001
1882.00,-0.0001
1881.00,-0.0000
1880.00,-0.0000
1879.00,-0.0000
1878.00,-0.0000
1877.00,-0.0000
1876.00,-0.0000
1875.00,0.0001
1874.00,0.0001
1873.00,0.0002
1872.00,0.0003
1871.00,0.0004
1870.00,0.0004
1869.00,0.0003
1868.00,0.0002
1867.00,0.0001
1866.00,-0.0000
1865.00,0.0000
1864.00,0.0001
1863.00,0.0002
1862.00,0.0003
1861.00,0.0003
1860.00,0.0002
1859.00,0.0002
1858.00,0.0002
1857.00,0.0001
1856.00,0.0001
1855.00,0.0001
1854.00,0.0000
1853.00,0.0001
1852.00,0.0002
1851.00,0.0003
1850.00,0.0003
1849.00,0.0003
1848.00,0.0003
1847.00,0.0002
1846.00,0.0002
1845.00,0.0002
1844.00,0.0003
1843.00,0.0003
1842.00,0.0003
1841.00,0.0003
1840.00,0.0003
1839.00,0.0003
1838.00,0.0002
1837.00,0.0003
1836.00,0.0004
1835.00,0.0005
1834.00,0.0005
1833.00,0.0005
1832.00,0.0005
1831.00,0.0005
1830.00,0.0005
1829.00,0.0005
1828.00,0.0005
1827.00,0.0004
1826.00,0.0004
1825.00,0.0004
1824.00,0.0004
1823.00,0.0004
1822.00,0.0004
1821.00,0.0004
1820.00,0.0004
1819.00,0.0003
1818.00,0.0001
1817.00,0.0000
1816.00,0.0001
1815.00,0.0002
1814.00,0.0003
1813.00,0.0003
1812.00,0.0004
1811.00,0.0005
1810.00,0.0005
1809.00,0.0005
1808.00,0.0006
1807.00,0.0006
1806.00,0.0007
1805.00,0.0008
1804.00,0.0008
1803.00,0.0008
1802.00,0.0008
1801.00,0.0008
1800.00,0.0008
1799.00,0.0008
1798.00,0.0008
1797.00,0.0009
1796.00,0.0009
1795.00,0.0008
1794.00,0.0008
1793.00,0.0009
1792.00,0.0009
1791.00,0.0010
1790.00,0.0010
1789.00,0.0010
1788.00,0.0010
1787.00,0.0011
1786.00,0.0012
1785.00,0.0012
1784.00,0.0013
1783.00,0.0012
1782.00,0.0012
1781.00,0.0013
1780.00,0.0013
1779.00,0.0014
1778.00,0.0015
1777.00,0.0015
1776.00,0.0016
1775.00,0.0017
1774.00,0.0018
1773.00,0.0019
1772.00,0.0021
1771.00,0.0022
1770.00,0.0023
1769.00,0.0023
1768.00,0.0023
1767.00,0.0023
1766.00,0.0023
1765.00,0.0023
1764.00,0.0023
1763.00,0.0023
1762.00,0.0023
1761.00,0.0023
1760.00,0.0024
1759.00,0.0025
1758.00,0.0026
1757.00,0.0026
1756.00,0.0026
1755.00,0.0027
1754.00,0.0027
1753.00,0.0028
1752.00,0.0030
1751.00,0.0031
1750.00,0.0032
1749.00,0.0032
1748.00,0.0032
1747.00,0.0032
1746.00,0.0033
1745.00,0.0033
1744.00,0.0033
1743.00,0.0034
1742.00,0.0034
1741.00,0.0034
1740.00,0.0035
1739.00,0.0036
1738.00,0.0036
1737.00,0.0036
1736.00,0.0037
1735.00,0.0037
1734.00,0.0037
1733.00,0.0038
1732.00,0.0038
1731.00,0.0038
1730.00,0.0037
1729.00,0.0037
1728.00,0.0038
1727.00,0.0038
1726.00,0.0039
1725.00,0.0039
1724.00,0.0039
1723.00,0.0039
1722.00,0.0039
1721.00,0.0039
1720.00,0.0039
1719.00,0.0038
1718.00,0.0038
1717.00,0.0038
1716.00,0.0038
1715.00,0.0038
1714.00,0.0038
1713.00,0.0037
1712.00,0.0037
1711.00,0.0037
1710.00,0.0037
1709.00,0.0037
1708.00,0.0037
1707.00,0.0037
1706.00,0.0037
1705.00,0.0037
1704.00,0.0037
1703.00,0.0037
1702.00,0.0037
1701.00,0.0037
1700.00,0.0038
1699.00,0.0039
1698.00,0.0039
1697.00,0.0040
1696.00,0.0040
1695.00,0.0040
1694.00,0.0040
1693.00,0.0040
1692.00,0.0041
1691.00,0.0041
1690.00,0.0042
1689.00,0.0042
1688.00,0.0043
1687.00,0.0044
1686.00,0.0045
1685.00,0.0046
1684.00,0.0048
1683.00,0.0049
1682.00,0.0050
1681.00,0.0050
1680.00,0.0051
1679.00,0.0051
1678.00,0.0052
1677.00,0.0054
1676.00,0.0055
1675.00,0.0056
1674.00,0.0057
1673.00,0.0057
1672.00,0.0058
1671.00,0.0059
1670.00,0.0060
1669.00,0.0061
1668.00,0.0062
1667.00,0.0063
1666.00,0.0063
1665.00,0.0064
1664.00,0.0064
1663.00,0.0065
1662.00,0.0066
1661.00,0.0066
1660.00,0.0067
1659.00,0.0067
1658.00,0.0068
1657.00,0.0068
1656.00,0.0069
1655.00,0.0070
1654.00,0.0070
1653.00,0.0070
1652.00,0.0070
1651.00,0.0071
1650.00,0.0071
1649.00,0.0071
1648.00,0.0072
1647.00,0.0072
1646.00,0.0073
1645.00,0.0074
1644.00,0.0075
1643.00,0.0077
1642.00,0.0078
1641.00,0.0080
1640.00,0.0081
1639.00,0.0083
1638.00,0.0084
1637.00,0.0085
1636.00,0.0085
1635.00,0.0084
1634.00,0.0083
1633.00,0.0082
1632.00,0.0081
1631.00,0.0081
1630.00,0.0081
1629.00,0.0081
1628.00,0.0080
1627.00,0.0080
1626.00,0.0079
1625.00,0.0079
1624.00,0.0079
1623.00,0.0079
1622.00,0.0079
1621.00,0.0078
1620.00,0.0078
1619.00,0.0078
1618.00,0.0078
1617.00,0.0077
1616.00,0.0078
1615.00,0.0078
1614.00,0.0078
1613.00,0.0078
1612.00,0.0079
1611.00,0.0080
1610.00,0.0081
1609.00,0.0082
1608.00,0.0083
1607.00,0.0082
1606.00,0.0082
1605.00,0.0081
1604.00,0.0081
1603.00,0.0080
1602.00,0.0080
1601.00,0.0079
1600.00,0.0079
1599.00,0.0078
1598.00,0.0078
1597.00,0.0077
1596.00,0.0077
1595.00,0.0077
1594.00,0.0077
1593.00,0.0077
1592.00,0.0076
1591.00,0.0075
1590.00,0.0074
1589.00,0.0074
1588.00,0.0073
1587.00,0.0073
1586.00,0.0072
1585.00,0.0072
1584.00,0.0072
1583.00,0.0072
1582.00,0.0071
1581.00,0.0072
1580.00,0.0072
1579.00,0.0072
1578.00,0.0072
1577.00,0.0072
1576.00,0.0073
1575.00,0.0073
1574.00,0.0073
1573.00,0.0073
1572.00,0.0074
1571.00,0.0074
1570.00,0.0075
1569.00,0.0076
1568.00,0.0078
1567.00,0.0079
1566.00,0.0080
1565.00,0.0080
1564.00,0.0081
1563.00,0.0081
1562.00,0.0082
1561.00,0.0083
1560.00,0.0084
1559.00,0.0084
1558.00,0.0084
1557.00,0.0084
1556.00,0.0084
1555.00,0.0085
1554.00,0.0085
1553.00,0.0085
1552.00,0.0086
1551.00,0.0086
1550.00,0.0087
1549.00,0.0088
1548.00,0.0088
1547.00,0.0088
1546.00,0.0087
1545.00,0.0086
1544.00,0.0086
1543.00,0.0085
1542.00,0.0084
1541.00,0.0083
1540.00,0.0081
1539.00,0.0079
1538.00,0.0077
1537.00,0.0076
1536.00,0.0075
1535.00,0.0075
1534.00,0.0073
1533.00,0.0072
1532.00,0.0071
1531.00,0.0070
1530.00,0.0069
1529.00,0.0068
1528.00,0.0068
1527.00,0.0068
1526.00,0.0068
1525.00,0.0067
1524.00,0.0067
1523.00,0.0066
1522.00,0.0065
1521.00,0.0065
1520.00,0.0065
1519.00,0.0066
1518.00,0.0066
1517.00,0.0066
1516.00,0.0066
1515.00,0.0066
1514.00,0.0065
1513.00,0.0066
1512.00,0.0066
1511.00,0.0066
1510.00,0.0067
1509.00,0.0068
1508.00,0.0069
1507.00,0.0069
1506.00,0.0069
1505.00,0.0070
1504.00,0.0072
1503.00,0.0073
1502.00,0.0075
1501.00,0.0077
1500.00,0.0080
1499.00,0.0083
1498.00,0.0085
1497.00,0.0089
1496.00,0.0094
1495.00,0.0097
1494.00,0.0101
1493.00,0.0105
1492.00,0.0109
1491.00,0.0113
1490.00,0.0117
1489.00,0.0121
1488.00,0.0126
1487.00,0.0131
1486.00,0.0135
1485.00,0.0141
1484.00,0.0147
1483.00,0.0154
1482.00,0.0162
1481.00,0.0172
1480.00,0.0184
1479.00,0.0195
1478.00,0.0210
1477.00,0.0230
1476.00,0.0256
1475.00,0.0285
1474.00,0.0324
1473.00,0.0378
1472.00,0.0442
1471.00,0.0505
1470.00,0.0566
1469.00,0.0630
1468.00,0.0699
1467.00,0.0775
1466.00,0.0860
1465.00,0.0950
1464.00,0.1029
1463.00,0.1084
1462.00,0.1119
1461.00,0.1143
1460.00,0.1160
1459.00,0.1172
1458.00,0.1181
1457.00,0.1189
1456.00,0.1189
1455.00,0.1182
1454.00,0.1172
1453.00,0.1157
1452.00,0.1135
1451.00,0.1102
1450.00,0.1055
1449.00,0.0989
1448.00,0.0903
1447.00,0.0810
1446.00,0.0725
1445.00,0.0651
1444.00,0.0587
1443.00,0.0534
1442.00,0.0493
1441.00,0.0465
1440.00,0.0446
1439.00,0.0437
1438.00,0.0435
1437.00,0.0433
1436.00,0.0422
1435.00,0.0398
1434.00,0.0364
1433.00,0.0324
1432.00,0.0281
1431.00,0.0244
1430.00,0.0214
1429.00,0.0192
1428.00,0.0176
1427.00,0.0166
1426.00,0.0159
1425.00,0.0153
1424.00,0.0148
1423.00,0.0144
1422.00,0.0142
1421.00,0.0139
1420.00,0.0136
1419.00,0.0133
1418.00,0.0132
1417.00,0.0129
1416.00,0.0127
1415.00,0.0126
1414.00,0.0125
1413.00,0.0123
1412.00,0.0121
1411.00,0.0120
1410.00,0.0120
1409.00,0.0119
1408.00,0.0118
1407.00,0.0119
1406.00,0.0119
1405.00,0.0119
1404.00,0.0119
1403.00,0.0119
1402.00,0.0121
1401.00,0.0122
1400.00,0.0122
1399.00,0.0124
1398.00,0.0126
1397.00,0.0128
1396.00,0.0130
1395.00,0.0134
1394.00,0.0138
1393.00,0.0143
1392.00,0.0148
1391.00,0.0156
1390.00,0.0166
1389.00,0.0180
1388.00,0.0200
1387.00,0.0229
1386.00,0.0269
1385.00,0.0322
1384.00,0.0394
1383.00,0.0496
1382.00,0.0632
1381.00,0.0807
1380.00,0.1023
1379.00,0.1274
1378.00,0.1522
1377.00,0.1711
1376.00,0.1783
1375.00,0.1704
1374.00,0.1498
1373.00,0.1245
1372.00,0.1011
1371.00,0.0817
1370.00,0.0663
1369.00,0.0545
1368.00,0.0464
1367.00,0.0414
1366.00,0.0386
1365.00,0.0375
1364.00,0.0376
1363.00,0.0387
1362.00,0.0405
1361.00,0.0425
1360.00,0.0440
1359.00,0.0444
1358.00,0.0434
1357.00,0.0410
1356.00,0.0376
1355.00,0.0338
1354.00,0.0301
1353.00,0.0270
1352.00,0.0244
1351.00,0.0224
1350.00,0.0207
1349.00,0.0193
1348.00,0.0182
1347.00,0.0172
1346.00,0.0163
1345.00,0.0156
1344.00,0.0150
1343.00,0.0144
1342.00,0.0140
1341.00,0.0136
1340.00,0.0133
1339.00,0.0131
1338.00,0.0129
1337.00,0.0128
1336.00,0.0128
1335.00,0.0129
1334.00,0.0132
1333.00,0.0135
1332.00,0.0139
1331.00,0.0142
1330.00,0.0143
1329.00,0.0143
1328.00,0.0140
1327.00,0.0136
1326.00,0.0131
1325.00,0.0125
1324.00,0.0120
1323.00,0.0116
1322.00,0.0112
1321.00,0.0110
1320.00,0.0108
1319.00,0.0106
1318.00,0.0105
1317.00,0.0103
1316.00,0.0102
1315.00,0.0101
1314.00,0.0101
1313.00,0.0101
1312.00,0.0102
1311.00,0.0104
1310.00,0.0108
1309.00,0.0115
1308.00,0.0125
1307.00,0.0137
1306.00,0.0149
1305.00,0.0157
1304.00,0.0159
1303.00,0.0156
1302.00,0.0150
1301.00,0.0144
1300.00,0.0140
1299.00,0.0139
1298.00,0.0139
1297.00,0.0138
1296.00,0.0138
1295.00,0.0136
1294.00,0.0132
1293.00,0.0128
1292.00,0.0123
1291.00,0.0119
1290.00,0.0115
1289.00,0.0111
1288.00,0.0109
1287.00,0.0106
1286.00,0.0104
1285.00,0.0102
1284.00,0.0100
1283.00,0.0099
1282.00,0.0097
1281.00,0.0096
1280.00,0.0096
1279.00,0.0095
1278.00,0.0095
1277.00,0.0094
1276.00,0.0094
1275.00,0.0093
1274.00,0.0093
1273.00,0.0094
1272.00,0.0095
1271.00,0.0097
1270.00,0.0099
1269.00,0.0101
1268.00,0.0103
1267.00,0.0106
1266.00,0.0109
1265.00,0.0112
1264.00,0.0115
1263.00,0.0119
1262.00,0.0122
1261.00,0.0126
1260.00,0.0131
1259.00,0.0138
1258.00,0.0144
1257.00,0.0150
1256.00,0.0152
1255.00,0.0150
1254.00,0.0143
1253.00,0.0135
1252.00,0.0126
1251.00,0.0118
1250.00,0.0112
1249.00,0.0108
1248.00,0.0105
1247.00,0.0103
1246.00,0.0101
1245.00,0.0100
1244.00,0.0099
1243.00,0.0098
1242.00,0.0098
1241.00,0.0097
1240.00,0.0096
1239.00,0.0096
1238.00,0.0095
1237.00,0.0095
1236.00,0.0096
1235.00,0.0097
1234.00,0.0098
1233.00,0.0099
1232.00,0.0099
1231.00,0.0100
1230.00,0.0101
1229.00,0.0102
1228.00,0.0104
1227.00,0.0106
1226.00,0.0108
1225.00,0.0111
1224.00,0.0114
1223.00,0.0117
1222.00,0.0121
1221.00,0.0123
1220.00,0.0125
1219.00,0.0125
1218.00,0.0123
1217.00,0.0120
1216.00,0.0117
1215.00,0.0113
1214.00,0.0110
1213.00,0.0107
1212.00,0.0105
1211.00,0.0103
1210.00,0.0102
1209.00,0.0101
1208.00,0.0101
1207.00,0.0101
1206.00,0.0101
1205.00,0.0101
1204.00,0.0101
1203.00,0.0102
1202.00,0.0103
1201.00,0.0105
1200.00,0.0107
1199.00,0.0109
1198.00,0.0110
1197.00,0.0110
1196.00,0.0110
1195.00,0.0110
1194.00,0.0109
1193.00,0.0108
1192.00,0.0107
1191.00,0.0107
1190.00,0.0106
1189.00,0.0105
1188.00,0.0104
1187.00,0.0103
1186.00,0.0102
1185.00,0.0101
1184.00,0.0101
1183.00,0.0101
1182.00,0.0103
1181.00,0.0105
1180.00,0.0109
1179.00,0.0113
1178.00,0.0119
1177.00,0.0127
1176.00,0.0138
1175.00,0.0153
1174.00,0.0173
1173.00,0.0199
1172.00,0.0231
1171.00,0.0267
1170.00,0.0302
1169.00,0.0331
1168.00,0.0348
1167.00,0.0351
1166.00,0.0342
1165.00,0.0325
1164.00,0.0305
1163.00,0.0285
1162.00,0.0267
1161.00,0.0253
1160.00,0.0242
1159.00,0.0233
1158.00,0.0227
1157.00,0.0223
1156.00,0.0221
1155.00,0.0219
1154.00,0.0217
1153.00,0.0214
1152.00,0.0210
1151.00,0.0204
1150.00,0.0195
1149.00,0.0186
1148.00,0.0176
1147.00,0.0166
1146.00,0.0158
1145.00,0.0150
1144.00,0.0144
1143.00,0.0138
1142.00,0.0133
1141.00,0.0128
1140.00,0.0123
1139.00,0.0119
1138.00,0.0116
1137.00,0.0113
1136.00,0.0111
1135.00,0.0109
1134.00,0.0107
1133.00,0.0106
1132.00,0.0106
1131.00,0.0105
1130.00,0.0106
1129.00,0.0106
1128.00,0.0107
1127.00,0.0108
1126.00,0.0109
1125.00,0.0109
1124.00,0.0110
1123.00,0.0110
1122.00,0.0112
1121.00,0.0114
1120.00,0.0116
1119.00,0.0118
1118.00,0.0120
1117.00,0.0121
1116.00,0.0122
1115.00,0.0123
1114.00,0.0123
1113.00,0.0123
1112.00,0.0124
1111.00,0.0126
1110.00,0.0128
1109.00,0.0131
1108.00,0.0135
1107.00,0.0140
1106.00,0.0146
1105.00,0.0152
1104.00,0.0156
1103.00,0.0158
1102.00,0.0158
1101.00,0.0156
1100.00,0.0151
1099.00,0.0145
1098.00,0.0139
1097.00,0.0135
1096.00,0.0132
1095.00,0.0129
1094.00,0.0127
1093.00,0.0125
1092.00,0.0122
1091.00,0.0120
1090.00,0.0119
1089.00,0.0117
1088.00,0.0115
1087.00,0.0115
1086.00,0.0114
1085.00,0.0114
1084.00,0.0114
1083.00,0.0113
1082.00,0.0113
1081.00,0.0111
1080.00,0.0110
1079.00,0.0108
1078.00,0.0106
1077.00,0.0105
1076.00,0.0105
1075.00,0.0105
1074.00,0.0105
1073.00,0.0104
1072.00,0.0104
1071.00,0.0103
1070.00,0.0102
1069.00,0.0101
1068.00,0.0100
1067.00,0.0100
1066.00,0.0101
1065.00,0.0102
1064.00,0.0103
1063.00,0.0104
1062.00,0.0105
1061.00,0.0106
1060.00,0.0107
1059.00,0.0108
1058.00,0.0109
1057.00,0.0110
1056.00,0.0111
1055.00,0.0113
1054.00,0.0114
1053.00,0.0116
1052.00,0.0118
1051.00,0.0121
1050.00,0.0125
1049.00,0.0131
1048.00,0.0136
1047.00,0.0142
1046.00,0.0147
1045.00,0.0150
1044.00,0.0151
1043.00,0.0151
1042.00,0.0150
1041.00,0.0148
1040.00,0.0146
1039.00,0.0143
1038.00,0.0141
1037.00,0.0139
1036.00,0.0138
1035.00,0.0137
1034.00,0.0136
1033.00,0.0135
1032.00,0.0134
1031.00,0.0133
1030.00,0.0133
1029.00,0.0133
1028.00,0.0133
1027.00,0.0134
1026.00,0.0136
1025.00,0.0139
1024.00,0.0142
1023.00,0.0145
1022.00,0.0147
1021.00,0.0149
1020.00,0.0151
1019.00,0.0152
1018.00,0.0153
1017.00,0.0154
1016.00,0.0154
1015.00,0.0153
1014.00,0.0152
1013.00,0.0152
1012.00,0.0152
1011.00,0.0152
1010.00,0.0153
1009.00,0.0154
1008.00,0.0157
1007.00,0.0162
1006.00,0.0170
1005.00,0.0180
1004.00,0.0197
1003.00,0.0220
1002.00,0.0253
1001.00,0.0294
1000.00,0.0338
999.00,0.0375
998.00,0.0394
997.00,0.0386
996.00,0.0356
995.00,0.0312
994.00,0.0266
993.00,0.0226
992.00,0.0195
991.00,0.0173
990.00,0.0158
989.00,0.0147
988.00,0.0141
987.00,0.0137
986.00,0.0135
985.00,0.0136
984.00,0.0139
983.00,0.0145
982.00,0.0154
981.00,0.0169
980.00,0.0190
979.00,0.0219
978.00,0.0255
977.00,0.0299
976.00,0.0348
975.00,0.0395
974.00,0.0431
973.00,0.0446
972.00,0.0433
971.00,0.0393
970.00,0.0338
969.00,0.0282
968.00,0.0234
967.00,0.0197
966.00,0.0170
965.00,0.0151
964.00,0.0137
963.00,0.0128
962.00,0.0121
961.00,0.0116
960.00,0.0111
959.00,0.0106
958.00,0.0102
957.00,0.0099
956.00,0.0096
955.00,0.0094
954.00,0.0092
953.00,0.0090
952.00,0.0089
951.00,0.0088
950.00,0.0087
949.00,0.0087
948.00,0.0087
947.00,0.0087
946.00,0.0088
945.00,0.0090
944.00,0.0093
943.00,0.0096
942.00,0.0099
941.00,0.0101
940.00,0.0102
939.00,0.0100
938.00,0.0095
937.00,0.0090
936.00,0.0086
935.00,0.0082
934.00,0.0079
933.00,0.0077
932.00,0.0075
931.00,0.0074
930.00,0.0073
929.00,0.0073
928.00,0.0073
927.00,0.0072
926.00,0.0072
925.00,0.0071
924.00,0.0072
923.00,0.0072
922.00,0.0073
921.00,0.0074
920.00,0.0075
919.00,0.0075
918.00,0.0075
917.00,0.0075
916.00,0.0075
915.00,0.0075
914.00,0.0075
913.00,0.0075
912.00,0.0076
911.00,0.0076
910.00,0.0078
909.00,0.0080
908.00,0.0083
907.00,0.0087
906.00,0.0094
905.00,0.0102
904.00,0.0114
903.00,0.0130
902.00,0.0147
901.00,0.0164
900.00,0.0176
899.00,0.0178
898.00,0.0171
897.00,0.0158
896.00,0.0141
895.00,0.0126
894.00,0.0113
893.00,0.0104
892.00,0.0097
891.00,0.0092
890.00,0.0088
889.00,0.0085
888.00,0.0083
887.00,0.0082
886.00,0.0082
885.00,0.0081
884.00,0.0081
883.00,0.0081
882.00,0.0081
881.00,0.0082
880.00,0.0084
879.00,0.0085
878.00,0.0087
877.00,0.0087
876.00,0.0087
875.00,0.0086
874.00,0.0086
873.00,0.0085
872.00,0.0085
871.00,0.0084
870.00,0.0085
869.00,0.0085
868.00,0.0085
867.00,0.0085
866.00,0.0085
865.00,0.0086
864.00,0.0087
863.00,0.0088
862.00,0.0089
861.00,0.0089
860.00,0.0090
859.00,0.0091
858.00,0.0093
857.00,0.0095
856.00,0.0097
855.00,0.0099
854.00,0.0101
853.00,0.0102
852.00,0.0104
851.00,0.0108
850.00,0.0114
849.00,0.0121
848.00,0.0131
847.00,0.0145
846.00,0.0167
845.00,0.0200
844.00,0.0248
843.00,0.0306
842.00,0.0357
841.00,0.0378
840.00,0.0357
839.00,0.0306
838.00,0.0246
837.00,0.0198
836.00,0.0165
835.00,0.0146
834.00,0.0135
833.00,0.0128
832.00,0.0122
831.00,0.0118
830.00,0.0114
829.00,0.0112
828.00,0.0111
827.00,0.0110
826.00,0.0109
825.00,0.0109
824.00,0.0110
823.00,0.0111
822.00,0.0111
821.00,0.0112
820.00,0.0112
819.00,0.0114
818.00,0.0117
817.00,0.0124
816.00,0.0134
815.00,0.0145
814.00,0.0159
813.00,0.0174
812.00,0.0191
811.00,0.0207
810.00,0.0220
809.00,0.0227
808.00,0.0225
807.00,0.0214
806.00,0.0197
805.00,0.0179
804.00,0.0165
803.00,0.0153
802.00,0.0144
801.00,0.0138
800.00,0.0132
799.00,0.0127
798.00,0.0123
797.00,0.0119
796.00,0.0116
795.00,0.0113
794.00,0.0110
793.00,0.0107
792.00,0.0104
791.00,0.0101
790.00,0.0097
789.00,0.0093
788.00,0.0090
787.00,0.0087
786.00,0.0084
785.00,0.0082
784.00,0.0080
783.00,0.0078
782.00,0.0077
781.00,0.0076
780.00,0.0075
779.00,0.0074
778.00,0.0074
777.00,0.0075
776.00,0.0076
775.00,0.0077
774.00,0.0077
773.00,0.0078
772.00,0.0077
771.00,0.0077
770.00,0.0077
769.00,0.0078
768.00,0.0078
767.00,0.0078
766.00,0.0077
765.00,0.0077
764.00,0.0077
763.00,0.0076
762.00,0.0075
761.00,0.0074
760.00,0.0074
759.00,0.0076
758.00,0.0078
757.00,0.0081
756.00,0.0084
755.00,0.0087
754.00,0.0089
753.00,0.0090
752.00,0.0090
751.00,0.0090
750.00,0.0090
749.00,0.0091
748.00,0.0092
747.00,0.0094
746.00,0.0096
745.00,0.0097
744.00,0.0099
743.00,0.0101
742.00,0.0104
741.00,0.0107
740.00,0.0111
739.00,0.0114
738.00,0.0118
737.00,0.0121
736.00,0.0125
735.00,0.0130
734.00,0.0135
733.00,0.0141
732.00,0.0148
731.00,0.0156
730.00,0.0163
729.00,0.0167
728.00,0.0169
727.00,0.0169
726.00,0.0170
725.00,0.0172
724.00,0.0177
723.00,0.0183
722.00,0.0188
721.00,0.0190
720.00,0.0186
719.00,0.0177
718.00,0.0166
717.00,0.0155
716.00,0.0145
715.00,0.0137
714.00,0.0131
713.00,0.0126
712.00,0.0122
711.00,0.0118
710.00,0.0116
709.00,0.0114
708.00,0.0113
707.00,0.0113
706.00,0.0114
705.00,0.0116
704.00,0.0117
703.00,0.0115
702.00,0.0113
701.00,0.0110
700.00,0.0107
699.00,0.0105
698.00,0.0103
697.00,0.0102
696.00,0.0103
695.00,0.0104
694.00,0.0105
693.00,0.0105
692.00,0.0103
691.00,0.0102
690.00,0.0101
689.00,0.0101
688.00,0.0102
687.00,0.0103
686.00,0.0104
685.00,0.0104
684.00,0.0104
683.00,0.0104
682.00,0.0104
681.00,0.0105
680.00,0.0105
679.00,0.0105
678.00,0.0105
677.00,0.0105
676.00,0.0106
675.00,0.0108
674.00,0.0109
673.00,0.0109
672.00,0.0109
671.00,0.0110
670.00,0.0112
669.00,0.0113
668.00,0.0110
667.00,0.0107
666.00,0.0107
665.00,0.0107
664.00,0.0107
663.00,0.0105
662.00,0.0104
661.00,0.0102
660.00,0.0100
659.00,0.0098
658.00,0.0096
657.00,0.0095
656.00,0.0095
655.00,0.0096
654.00,0.0098
653.00,0.0099
652.00,0.0099
651.00,0.0098
650.00,0.0096
649.00,0.0095
648.00,0.0095
647.00,0.0095
646.00,0.0096
645.00,0.0096
644.00,0.0096
643.00,0.0094
642.00,0.0094
641.00,0.0094
640.00,0.0094
639.00,0.0095
638.00,0.0094
637.00,0.0094
636.00,0.0093
635.00,0.0093
634.00,0.0094
633.00,0.0095
632.00,0.0096
631.00,0.0097
630.00,0.0098
629.00,0.0099
628.00,0.0098
627.00,0.0096
626.00,0.0094
625.00,0.0094
624.00,0.0096
623.00,0.0097
622.00,0.0097
621.00,0.0095
620.00,0.0094
619.00,0.0094
618.00,0.0096
617.00,0.0098
616.00,0.0099
615.00,0.0097
614.00,0.0094
613.00,0.0093
612.00,0.0095
611.00,0.0097
610.00,0.0098
609.00,0.0098
608.00,0.0096
607.00,0.0096
606.00,0.0095
605.00,0.0096
604.00,0.0097
603.00,0.0098
602.00,0.0098
601.00,0.0097
600.00,0.0096
599.00,0.0095
598.00,0.0095
597.00,0.0095
596.00,0.0094
595.00,0.0092
594.00,0.0091
593.00,0.0091
592.00,0.0092
591.00,0.0095
590.00,0.0097
589.00,0.0099
588.00,0.0100
587.00,0.0099
586.00,0.0096
585.00,0.0095
584.00,0.0097
583.00,0.0100
582.00,0.0103
581.00,0.0103
580.00,0.0099
579.00,0.0095
578.00,0.0093
577.00,0.0094
576.00,0.0095
575.00,0.0097
574.00,0.0097
573.00,0.0096
572.00,0.0093
571.00,0.0091
570.00,0.0092
569.00,0.0095
568.00,0.0100
567.00,0.0103
566.00,0.0104
565.00,0.0102
564.00,0.0100
563.00,0.0099
562.00,0.0098
561.00,0.0096
560.00,0.0092
559.00,0.0088
558.00,0.0084
557.00,0.0084
556.00,0.0086
555.00,0.0090
554.00,0.0093
553.00,0.0096
552.00,0.0099
551.00,0.0102
550.00,0.0103
549.00,0.0103
548.00,0.0103
547.00,0.0103
546.00,0.0103
545.00,0.0104
544.00,0.0106
543.00,0.0106
542.00,0.0107
541.00,0.0110
540.00,0.0115
539.00,0.0120
538.00,0.0124
537.00,0.0125
536.00,0.0124
535.00,0.0123
534.00,0.0123
533.00,0.0121
532.00,0.0120
531.00,0.0117
530.00,0.0116
529.00,0.0115
528.00,0.0116
527.00,0.0116
526.00,0.0116
525.00,0.0115
524.00,0.0115
523.00,0.0115
522.00,0.0115
521.00,0.0114
520.00,0.0111
519.00,0.0111
518.00,0.0113
517.00,0.0115
516.00,0.0114
515.00,0.0111
514.00,0.0106
513.00,0.0103
512.00,0.0102
511.00,0.0100
510.00,0.0096
509.00,0.0094
508.00,0.0092
507.00,0.0091
506.00,0.0089
505.00,0.0089
504.00,0.0092
503.00,0.0097
502.00,0.0100
501.00,0.0100
500.00,0.0099
499.00,0.0097
498.00,0.0097
497.00,0.0099
496.00,0.0100
495.00,0.0099
494.00,0.0094
493.00,0.0088
492.00,0.0090
491.00,0.0099
490.00,0.0107
489.00,0.0107
488.00,0.0099
487.00,0.0093
486.00,0.0092
485.00,0.0098
484.00,0.0108
483.00,0.0116
482.00,0.0121
481.00,0.0123
480.00,0.0122
479.00,0.0123
478.00,0.0128
477.00,0.0139
476.00,0.0153
475.00,0.0166
474.00,0.0173
473.00,0.0174
472.00,0.0178
471.00,0.0186
470.00,0.0194
469.00,0.0194
468.00,0.0186
467.00,0.0178
466.00,0.0177
465.00,0.0186
464.00,0.0197
463.00,0.0203
462.00,0.0202
461.00,0.0196
460.00,0.0194
459.00,0.0197
458.00,0.0204
457.00,0.0209
456.00,0.0212
455.00,0.0215
454.00,0.0218
453.00,0.0218
452.00,0.0211
451.00,0.0198
450.00,0.0184
