Created as New Dataset,Sample 021 By Administrator Date Thursday, September 04 2025
cm-1,A
4000.00,0.0010
3999.00,0.0010
3998.00,0.0010
3997.00,0.0010
3996.00,0.0010
3995.00,0.0010
3994.00,0.0010
3993.00,0.0010
3992.00,0.0010
3991.00,0.0010
3990.00,0.0010
3989.00,0.0010
3988.00,0.0009
3987.00,0.0009
3986.00,0.0009
3985.00,0.0009
3984.00,0.0010
3983.00,0.0010
3982.00,0.0009
3981.00,0.0009
3980.00,0.0009
3979.00,0.0009
3978.00,0.0008
3977.00,0.0008
3976.00,0.0008
3975.00,0.0008
3974.00,0.0009
3973.00,0.0009
3972.00,0.0009
3971.00,0.0009
3970.00,0.0009
3969.00,0.0009
3968.00,0.0009
3967.00,0.0009
3966.00,0.0009
3965.00,0.0008
3964.00,0.0008
3963.00,0.0008
3962.00,0.0008
3961.00,0.0008
3960.00,0.0008
3959.00,0.0008
3958.00,0.0008
3957.00,0.0008
3956.00,0.0008
3955.00,0.0008
3954.00,0.0008
3953.00,0.0008
3952.00,0.0007
3951.00,0.0007
3950.00,0.0008
3949.00,0.0008
3948.00,0.0008
3947.00,0.0008
3946.00,0.0008
3945.00,0.0008
3944.00,0.0008
3943.00,0.0008
3942.00,0.0008
3941.00,0.0008
3940.00,0.0008
3939.00,0.0008
3938.00,0.0008
3937.00,0.0008
3936.00,0.0008
3935.00,0.0009
3934.00,0.0009
3933.00,0.0009
3932.00,0.0009
3931.00,0.0009
3930.00,0.0009
3929.00,0.0009
3928.00,0.0009
3927.00,0.0009
3926.00,0.0009
3925.00,0.0009
3924.00,0.0009
3923.00,0.0009
3922.00,0.0009
3921.00,0.0009
3920.00,0.0009
3919.00,0.0009
3918.00,0.0009
3917.00,0.0009
3916.00,0.0008
3915.00,0.0008
3914.00,0.0008
3913.00,0.0008
3912.00,0.0008
3911.00,0.0007
3910.00,0.0007
3909.00,0.0007
3908.00,0.0008
3907.00,0.0008
3906.00,0.0008
3905.00,0.0008
3904.00,0.0008
3903.00,0.0008
3902.00,0.0008
3901.00,0.0008
3900.00,0.0008
3899.00,0.0008
3898.00,0.0008
3897.00,0.0008
3896.00,0.0008
3895.00,0.0008
3894.00,0.0008
3893.00,0.0008
3892.00,0.0007
3891.00,0.0007
3890.00,0.0007
3889.00,0.0007
3888.00,0.0007
3887.00,0.0007
3886.00,0.0007
3885.00,0.0007
3884.00,0.0007
3883.00,0.0007
3882.00,0.0007
3881.00,0.0007
3880.00,0.0008
3879.00,0.0008
3878.00,0.0008
3877.00,0.0008
3876.00,0.0008
3875.00,0.0008
3874.00,0.0008
3873.00,0.0007
3872.00,0.0007
3871.00,0.0006
3870.00,0.0006
3869.00,0.0006
3868.00,0.0006
3867.00,0.0006
3866.00,0.0006
3865.00,0.0007
3864.00,0.0007
3863.00,0.0007
3862.00,0.0007
3861.00,0.0007
3860.00,0.0007
3859.00,0.0007
3858.00,0.0007
3857.00,0.0007
3856.00,0.0006
3855.00,0.0006
3854.00,0.0006
3853.00,0.0006
3852.00,0.0005
3851.00,0.0005
3850.00,0.0006
3849.00,0.0006
3848.00,0.0006
3847.00,0.0007
3846.00,0.0007
3845.00,0.0007
3844.00,0.0007
3843.00,0.0007
3842.00,0.0007
3841.00,0.0006
3840.00,0.0005
3839.00,0.0005
3838.00,0.0005
3837.00,0.0005
3836.00,0.0006
3835.00,0.0006
3834.00,0.0007
3833.00,0.0007
3832.00,0.0007
3831.00,0.0007
3830.00,0.0007
3829.00,0.0007
3828.00,0.0007
3827.00,0.0006
3826.00,0.0006
3825.00,0.0006
3824.00,0.0006
3823.00,0.0006
3822.00,0.0006
3821.00,0.0006
3820.00,0.0006
3819.00,0.0006
3818.00,0.0006
3817.00,0.0006
3816.00,0.0006
3815.00,0.0007
3814.00,0.0007
3813.00,0.0007
3812.00,0.0007
3811.00,0.0007
3810.00,0.0007
3809.00,0.0006
3808.00,0.0006
3807.00,0.0006
3806.00,0.0006
3805.00,0.0007
3804.00,0.0006
3803.00,0.0006
3802.00,0.0006
3801.00,0.0006
3800.00,0.0006
3799.00,0.0006
3798.00,0.0006
3797.00,0.0006
3796.00,0.0007
3795.00,0.0007
3794.00,0.0007
3793.00,0.0007
3792.00,0.0007
3791.00,0.0007
3790.00,0.0007
3789.00,0.0007
3788.00,0.0008
3787.00,0.0008
3786.00,0.0008
3785.00,0.0007
3784.00,0.0007
3783.00,0.0007
3782.00,0.0006
3781.00,0.0006
3780.00,0.0007
3779.00,0.0007
3778.00,0.0007
3777.00,0.0008
3776.00,0.0008
3775.00,0.0008
3774.00,0.0008
3773.00,0.0008
3772.00,0.0007
3771.00,0.0007
3770.00,0.0008
3769.00,0.0008
3768.00,0.0008
3767.00,0.0008
3766.00,0.0008
3765.00,0.0007
3764.00,0.0008
3763.00,0.0008
3762.00,0.0008
3761.00,0.0008
3760.00,0.0008
3759.00,0.0008
3758.00,0.0008
3757.00,0.0007
3756.00,0.0007
3755.00,0.0007
3754.00,0.0007
3753.00,0.0007
3752.00,0.0007
3751.00,0.0006
3750.00,0.0005
3749.00,0.0005
3748.00,0.0005
3747.00,0.0005
3746.00,0.0005
3745.00,0.0005
3744.00,0.0005
3743.00,0.0005
3742.00,0.0005
3741.00,0.0005
3740.00,0.0006
3739.00,0.0005
3738.00,0.0005
3737.00,0.0005
3736.00,0.0005
3735.00,0.0005
3734.00,0.0005
3733.00,0.0005
3732.00,0.0005
3731.00,0.0005
3730.00,0.0006
3729.00,0.0006
3728.00,0.0006
3727.00,0.0006
3726.00,0.0006
3725.00,0.0006
3724.00,0.0006
3723.00,0.0005
3722.00,0.0005
3721.00,0.0005
3720.00,0.0005
3719.00,0.0006
3718.00,0.0006
3717.00,0.0006
3716.00,0.0007
3715.00,0.0007
3714.00,0.0007
3713.00,0.0007
3712.00,0.0007
3711.00,0.0007
3710.00,0.0007
3709.00,0.0007
3708.00,0.0006
3707.00,0.0006
3706.00,0.0006
3705.00,0.0006
3704.00,0.0006
3703.00,0.0006
3702.00,0.0006
3701.00,0.0007
3700.00,0.0007
3699.00,0.0007
3698.00,0.0007
3697.00,0.0007
3696.00,0.0007
3695.00,0.0007
3694.00,0.0006
3693.00,0.0006
3692.00,0.0006
3691.00,0.0006
3690.00,0.0006
3689.00,0.0006
3688.00,0.0006
3687.00,0.0006
3686.00,0.0007
3685.00,0.0007
3684.00,0.0007
3683.00,0.0007
3682.00,0.0008
3681.00,0.0008
3680.00,0.0009
3679.00,0.0009
3678.00,0.0009
3677.00,0.0009
3676.00,0.0008
3675.00,0.0008
3674.00,0.0008
3673.00,0.0008
3672.00,0.0009
3671.00,0.0009
3670.00,0.0009
3669.00,0.0009
3668.00,0.0009
3667.00,0.0010
3666.00,0.0010
3665.00,0.0010
3664.00,0.0010
3663.00,0.0010
3662.00,0.0010
3661.00,0.0011
3660.00,0.0011
3659.00,0.0011
3658.00,0.0011
3657.00,0.0011
3656.00,0.0011
3655.00,0.0011
3654.00,0.0011
3653.00,0.0011
3652.00,0.0011
3651.00,0.0011
3650.00,0.0011
3649.00,0.0011
3648.00,0.0011
3647.00,0.0011
3646.00,0.0010
3645.00,0.0010
3644.00,0.0010
3643.00,0.0010
3642.00,0.0010
3641.00,0.0010
3640.00,0.0010
3639.00,0.0010
3638.00,0.0010
3637.00,0.0010
3636.00,0.0010
3635.00,0.0010
3634.00,0.0010
3633.00,0.0010
3632.00,0.0010
3631.00,0.0009
3630.00,0.0009
3629.00,0.0009
3628.00,0.0009
3627.00,0.0009
3626.00,0.0009
3625.00,0.0009
3624.00,0.0009
3623.00,0.0009
3622.00,0.0009
3621.00,0.0009
3620.00,0.0008
3619.00,0.0009
3618.00,0.0009
3617.00,0.0009
3616.00,0.0009
3615.00,0.0010
3614.00,0.0010
3613.00,0.0010
3612.00,0.0010
3611.00,0.0010
3610.00,0.0011
3609.00,0.0011
3608.00,0.0011
3607.00,0.0011
3606.00,0.0011
3605.00,0.0011
3604.00,0.0011
3603.00,0.0011
3602.00,0.0011
3601.00,0.0012
3600.00,0.0012
3599.00,0.0012
3598.00,0.0012
3597.00,0.0012
3596.00,0.0011
3595.00,0.0011
3594.00,0.0011
3593.00,0.0011
3592.00,0.0011
3591.00,0.0012
3590.00,0.0012
3589.00,0.0013
3588.00,0.0014
3587.00,0.0014
3586.00,0.0013
3585.00,0.0013
3584.00,0.0013
3583.00,0.0014
3582.00,0.0014
3581.00,0.0014
3580.00,0.0014
3579.00,0.0014
3578.00,0.0015
3577.00,0.0015
3576.00,0.0015
3575.00,0.0015
3574.00,0.0016
3573.00,0.0016
3572.00,0.0015
3571.00,0.0016
3570.00,0.0016
3569.00,0.0016
3568.00,0.0016
3567.00,0.0017
3566.00,0.0017
3565.00,0.0018
3564.00,0.0018
3563.00,0.0019
3562.00,0.0019
3561.00,0.0019
3560.00,0.0019
3559.00,0.0019
3558.00,0.0019
3557.00,0.0019
3556.00,0.0019
3555.00,0.0020
3554.00,0.0020
3553.00,0.0020
3552.00,0.0020
3551.00,0.0020
3550.00,0.0021
3549.00,0.0021
3548.00,0.0021
3547.00,0.0021
3546.00,0.0022
3545.00,0.0022
3544.00,0.0023
3543.00,0.0023
3542.00,0.0023
3541.00,0.0024
3540.00,0.0024
3539.00,0.0024
3538.00,0.0024
3537.00,0.0024
3536.00,0.0024
3535.00,0.0024
3534.00,0.0024
3533.00,0.0024
3532.00,0.0024
3531.00,0.0025
3530.00,0.0025
3529.00,0.0025
3528.00,0.0026
3527.00,0.0026
3526.00,0.0027
3525.00,0.0027
3524.00,0.0028
3523.00,0.0028
3522.00,0.0028
3521.00,0.0028
3520.00,0.0028
3519.00,0.0028
3518.00,0.0028
3517.00,0.0029
3516.00,0.0029
3515.00,0.0029
3514.00,0.0029
3513.00,0.0029
3512.00,0.0030
3511.00,0.0030
3510.00,0.0031
3509.00,0.0031
3508.00,0.0031
3507.00,0.0031
3506.00,0.0031
3505.00,0.0032
3504.00,0.0032
3503.00,0.0032
3502.00,0.0033
3501.00,0.0033
3500.00,0.0034
3499.00,0.0034
3498.00,0.0034
3497.00,0.0034
3496.00,0.0034
3495.00,0.0034
3494.00,0.0035
3493.00,0.0035
3492.00,0.0036
3491.00,0.0036
3490.00,0.0036
3489.00,0.0036
3488.00,0.0037
3487.00,0.0037
3486.00,0.0037
3485.00,0.0037
3484.00,0.0037
3483.00,0.0037
3482.00,0.0037
3481.00,0.0037
3480.00,0.0037
3479.00,0.0038
3478.00,0.0038
3477.00,0.0039
3476.00,0.0039
3475.00,0.0039
3474.00,0.0039
3473.00,0.0039
3472.00,0.0040
3471.00,0.0040
3470.00,0.0040
3469.00,0.0040
3468.00,0.0041
3467.00,0.0041
3466.00,0.0041
3465.00,0.0042
3464.00,0.0043
3463.00,0.0043
3462.00,0.0044
3461.00,0.0044
3460.00,0.0044
3459.00,0.0044
3458.00,0.0044
3457.00,0.0044
3456.00,0.0044
3455.00,0.0044
3454.00,0.0044
3453.00,0.0044
3452.00,0.0044
3451.00,0.0044
3450.00,0.0044
3449.00,0.0044
3448.00,0.0045
3447.00,0.0045
3446.00,0.0046
3445.00,0.0046
3444.00,0.0047
3443.00,0.0047
3442.00,0.0047
3441.00,0.0048
3440.00,0.0048
3439.00,0.0048
3438.00,0.0048
3437.00,0.0048
3436.00,0.0048
3435.00,0.0048
3434.00,0.0048
3433.00,0.0048
3432.00,0.0049
3431.00,0.0049
3430.00,0.0049
3429.00,0.0049
3428.00,0.0049
3427.00,0.0049
3426.00,0.0050
3425.00,0.0050
3424.00,0.0051
3423.00,0.0051
3422.00,0.0051
3421.00,0.0051
3420.00,0.0051
3419.00,0.0051
3418.00,0.0051
3417.00,0.0052
3416.00,0.0052
3415.00,0.0053
3414.00,0.0054
3413.00,0.0054
3412.00,0.0054
3411.00,0.0054
3410.00,0.0054
3409.00,0.0053
3408.00,0.0053
3407.00,0.0053
3406.00,0.0053
3405.00,0.0053
3404.00,0.0053
3403.00,0.0053
3402.00,0.0054
3401.00,0.0054
3400.00,0.0054
3399.00,0.0054
3398.00,0.0054
3397.00,0.0054
3396.00,0.0053
3395.00,0.0053
3394.00,0.0053
3393.00,0.0053
3392.00,0.0054
3391.00,0.0054
3390.00,0.0054
3389.00,0.0054
3388.00,0.0054
3387.00,0.0055
3386.00,0.0055
3385.00,0.0056
3384.00,0.0056
3383.00,0.0056
3382.00,0.0056
3381.00,0.0056
3380.00,0.0056
3379.00,0.0056
3378.00,0.0056
3377.00,0.0056
3376.00,0.0056
3375.00,0.0056
3374.00,0.0056
3373.00,0.0056
3372.00,0.0056
3371.00,0.0056
3370.00,0.0056
3369.00,0.0056
3368.00,0.0056
3367.00,0.0056
3366.00,0.0056
3365.00,0.0056
3364.00,0.0056
3363.00,0.0057
3362.00,0.0057
3361.00,0.0058
3360.00,0.0058
3359.00,0.0058
3358.00,0.0058
3357.00,0.0058
3356.00,0.0058
3355.00,0.0058
3354.00,0.0058
3353.00,0.0058
3352.00,0.0057
3351.00,0.0057
3350.00,0.0056
3349.00,0.0057
3348.00,0.0057
3347.00,0.0057
3346.00,0.0057
3345.00,0.0057
3344.00,0.0057
3343.00,0.0056
3342.00,0.0056
3341.00,0.0056
3340.00,0.0057
3339.00,0.0057
3338.00,0.0057
3337.00,0.0056
3336.00,0.0056
3335.00,0.0056
3334.00,0.0056
3333.00,0.0056
3332.00,0.0056
3331.00,0.0055
3330.00,0.0055
3329.00,0.0055
3328.00,0.0055
3327.00,0.0054
3326.00,0.0055
3325.00,0.0055
3324.00,0.0055
3323.00,0.0056
3322.00,0.0056
3321.00,0.0055
3320.00,0.0055
3319.00,0.0055
3318.00,0.0055
3317.00,0.0055
3316.00,0.0055
3315.00,0.0054
3314.00,0.0054
3313.00,0.0054
3312.00,0.0054
3311.00,0.0054
3310.00,0.0054
3309.00,0.0054
3308.00,0.0055
3307.00,0.0055
3306.00,0.0055
3305.00,0.0055
3304.00,0.0055
3303.00,0.0055
3302.00,0.0054
3301.00,0.0054
3300.00,0.0054
3299.00,0.0054
3298.00,0.0054
3297.00,0.0053
3296.00,0.0053
3295.00,0.0053
3294.00,0.0053
3293.00,0.0052
3292.00,0.0052
3291.00,0.0052
3290.00,0.0052
3289.00,0.0052
3288.00,0.0052
3287.00,0.0052
3286.00,0.0052
3285.00,0.0051
3284.00,0.0051
3283.00,0.0051
3282.00,0.0051
3281.00,0.0050
3280.00,0.0050
3279.00,0.0050
3278.00,0.0050
3277.00,0.0050
3276.00,0.0049
3275.00,0.0049
3274.00,0.0050
3273.00,0.0050
3272.00,0.0050
3271.00,0.0049
3270.00,0.0049
3269.00,0.0049
3268.00,0.0049
3267.00,0.0049
3266.00,0.0049
3265.00,0.0049
3264.00,0.0048
3263.00,0.0048
3262.00,0.0048
3261.00,0.0047
3260.00,0.0047
3259.00,0.0046
3258.00,0.0046
3257.00,0.0045
3256.00,0.0045
3255.00,0.0045
3254.00,0.0045
3253.00,0.0045
3252.00,0.0045
3251.00,0.0045
3250.00,0.0045
3249.00,0.0045
3248.00,0.0045
3247.00,0.0044
3246.00,0.0044
3245.00,0.0044
3244.00,0.0044
3243.00,0.0044
3242.00,0.0044
3241.00,0.0044
3240.00,0.0044
3239.00,0.0044
3238.00,0.0043
3237.00,0.0043
3236.00,0.0042
3235.00,0.0042
3234.00,0.0043
3233.00,0.0044
3232.00,0.0044
3231.00,0.0044
3230.00,0.0044
3229.00,0.0045
3228.00,0.0045
3227.00,0.0045
3226.00,0.0045
3225.00,0.0045
3224.00,0.0045
3223.00,0.0045
3222.00,0.0045
3221.00,0.0045
3220.00,0.0046
3219.00,0.0046
3218.00,0.0046
3217.00,0.0046
3216.00,0.0046
3215.00,0.0046
3214.00,0.0046
3213.00,0.0046
3212.00,0.0047
3211.00,0.0047
3210.00,0.0047
3209.00,0.0047
3208.00,0.0047
3207.00,0.0047
3206.00,0.0047
3205.00,0.0047
3204.00,0.0047
3203.00,0.0047
3202.00,0.0047
3201.00,0.0047
3200.00,0.0047
3199.00,0.0047
3198.00,0.0048
3197.00,0.0048
3196.00,0.0048
3195.00,0.0048
3194.00,0.0048
3193.00,0.0047
3192.00,0.0047
3191.00,0.0047
3190.00,0.0047
3189.00,0.0047
3188.00,0.0047
3187.00,0.0047
3186.00,0.0047
3185.00,0.0046
3184.00,0.0046
3183.00,0.0046
3182.00,0.0045
3181.00,0.0045
3180.00,0.0045
3179.00,0.0044
3178.00,0.0044
3177.00,0.0044
3176.00,0.0044
3175.00,0.0043
3174.00,0.0043
3173.00,0.0043
3172.00,0.0042
3171.00,0.0042
3170.00,0.0042
3169.00,0.0042
3168.00,0.0042
3167.00,0.0042
3166.00,0.0042
3165.00,0.0041
3164.00,0.0041
3163.00,0.0041
3162.00,0.0041
3161.00,0.0041
3160.00,0.0041
3159.00,0.0041
3158.00,0.0041
3157.00,0.0041
3156.00,0.0041
3155.00,0.0041
3154.00,0.0042
3153.00,0.0042
3152.00,0.0042
3151.00,0.0041
3150.00,0.0041
3149.00,0.0041
3148.00,0.0041
3147.00,0.0041
3146.00,0.0041
3145.00,0.0041
3144.00,0.0041
3143.00,0.0041
3142.00,0.0040
3141.00,0.0040
3140.00,0.0040
3139.00,0.0040
3138.00,0.0040
3137.00,0.0039
3136.00,0.0039
3135.00,0.0039
3134.00,0.0039
3133.00,0.0039
3132.00,0.0038
3131.00,0.0038
3130.00,0.0038
3129.00,0.0038
3128.00,0.0038
3127.00,0.0038
3126.00,0.0038
3125.00,0.0037
3124.00,0.0037
3123.00,0.0036
3122.00,0.0036
3121.00,0.0035
3120.00,0.0035
3119.00,0.0034
3118.00,0.0034
3117.00,0.0034
3116.00,0.0034
3115.00,0.0034
3114.00,0.0034
3113.00,0.0034
3112.00,0.0034
3111.00,0.0034
3110.00,0.0034
3109.00,0.0034
3108.00,0.0034
3107.00,0.0033
3106.00,0.0033
3105.00,0.0032
3104.00,0.0032
3103.00,0.0031
3102.00,0.0031
3101.00,0.0031
3100.00,0.0031
3099.00,0.0032
3098.00,0.0032
3097.00,0.0032
3096.00,0.0032
3095.00,0.0031
3094.00,0.0031
3093.00,0.0031
3092.00,0.0031
3091.00,0.0031
3090.00,0.0031
3089.00,0.0031
3088.00,0.0031
3087.00,0.0030
3086.00,0.0030
3085.00,0.0030
3084.00,0.0030
3083.00,0.0030
3082.00,0.0031
3081.00,0.0031
3080.00,0.0031
3079.00,0.0031
3078.00,0.0031
3077.00,0.0031
3076.00,0.0031
3075.00,0.0031
3074.00,0.0031
3073.00,0.0031
3072.00,0.0031
3071.00,0.0032
3070.00,0.0032
3069.00,0.0032
3068.00,0.0032
3067.00,0.0032
3066.00,0.0032
3065.00,0.0031
3064.00,0.0031
3063.00,0.0031
3062.00,0.0032
3061.00,0.0032
3060.00,0.0032
3059.00,0.0033
3058.00,0.0033
3057.00,0.0033
3056.00,0.0033
3055.00,0.0034
3054.00,0.0034
3053.00,0.0034
3052.00,0.0034
3051.00,0.0034
3050.00,0.0034
3049.00,0.0034
3048.00,0.0034
3047.00,0.0034
3046.00,0.0034
3045.00,0.0034
3044.00,0.0034
3043.00,0.0035
3042.00,0.0035
3041.00,0.0036
3040.00,0.0036
3039.00,0.0037
3038.00,0.0037
3037.00,0.0037
3036.00,0.0037
3035.00,0.0037
3034.00,0.0037
3033.00,0.0038
3032.00,0.0038
3031.00,0.0039
3030.00,0.0039
3029.00,0.0040
3028.00,0.0041
3027.00,0.0042
3026.00,0.0042
3025.00,0.0042
3024.00,0.0043
3023.00,0.0043
3022.00,0.0044
3021.00,0.0045
3020.00,0.0046
3019.00,0.0047
3018.00,0.0048
3017.00,0.0049
3016.00,0.0051
3015.00,0.0052
3014.00,0.0054
3013.00,0.0055
3012.00,0.0058
3011.00,0.0060
3010.00,0.0062
3009.00,0.0064
3008.00,0.0067
3007.00,0.0069
3006.00,0.0071
3005.00,0.0074
3004.00,0.0077
3003.00,0.0080
3002.00,0.0084
3001.00,0.0088
3000.00,0.0092
2999.00,0.0095
2998.00,0.0099
2997.00,0.0102
2996.00,0.0106
2995.00,0.0110
2994.00,0.0114
2993.00,0.0119
2992.00,0.0125
2991.00,0.0132
2990.00,0.0139
2989.00,0.0146
2988.00,0.0155
2987.00,0.0164
2986.00,0.0176
2985.00,0.0189
2984.00,0.0204
2983.00,0.0221
2982.00,0.0239
2981.00,0.0257
2980.00,0.0275
2979.00,0.0296
2978.00,0.0320
2977.00,0.0348
2976.00,0.0381
2975.00,0.0419
2974.00,0.0464
2973.00,0.0514
2972.00,0.0572
2971.00,0.0637
2970.00,0.0709
2969.00,0.0788
2968.00,0.0876
2967.00,0.0971
2966.00,0.1073
2965.00,0.1180
2964.00,0.1289
2963.00,0.1395
2962.00,0.1492
2961.00,0.1576
2960.00,0.1644
2959.00,0.1696
2958.00,0.1734
2957.00,0.1763
2956.00,0.1789
2955.00,0.1816
2954.00,0.1846
2953.00,0.1876
2952.00,0.1901
2951.00,0.1910
2950.00,0.1896
2949.00,0.1852
2948.00,0.1777
2947.00,0.1675
2946.00,0.1557
2945.00,0.1436
2944.00,0.1321
2943.00,0.1224
2942.00,0.1149
2941.00,0.1098
2940.00,0.1071
2939.00,0.1064
2938.00,0.1077
2937.00,0.1106
2936.00,0.1151
2935.00,0.1209
2934.00,0.1280
2933.00,0.1362
2932.00,0.1454
2931.00,0.1552
2930.00,0.1655
2929.00,0.1760
2928.00,0.1863
2927.00,0.1963
2926.00,0.2057
2925.00,0.2145
2924.00,0.2227
2923.00,0.2306
2922.00,0.2381
2921.00,0.2452
2920.00,0.2512
2919.00,0.2556
2918.00,0.2575
2917.00,0.2566
2916.00,0.2527
2915.00,0.2465
2914.00,0.2386
2913.00,0.2300
2912.00,0.2216
2911.00,0.2138
2910.00,0.2068
2909.00,0.2006
2908.00,0.1949
2907.00,0.1894
2906.00,0.1838
2905.00,0.1780
2904.00,0.1719
2903.00,0.1655
2902.00,0.1591
2901.00,0.1526
2900.00,0.1463
2899.00,0.1402
2898.00,0.1344
2897.00,0.1291
2896.00,0.1243
2895.00,0.1200
2894.00,0.1164
2893.00,0.1134
2892.00,0.1110
2891.00,0.1092
2890.00,0.1078
2889.00,0.1069
2888.00,0.1064
2887.00,0.1061
2886.00,0.1062
2885.00,0.1067
2884.00,0.1075
2883.00,0.1088
2882.00,0.1104
2881.00,0.1123
2880.00,0.1141
2879.00,0.1156
2878.00,0.1165
2877.00,0.1167
2876.00,0.1162
2875.00,0.1155
2874.00,0.1148
2873.00,0.1147
2872.00,0.1152
2871.00,0.1164
2870.00,0.1179
2869.00,0.1194
2868.00,0.1202
2867.00,0.1197
2866.00,0.1172
2865.00,0.1128
2864.00,0.1069
2863.00,0.1001
2862.00,0.0935
2861.00,0.0877
2860.00,0.0833
2859.00,0.0803
2858.00,0.0787
2857.00,0.0782
2856.00,0.0786
2855.00,0.0797
2854.00,0.0811
2853.00,0.0827
2852.00,0.0843
2851.00,0.0857
2850.00,0.0868
2849.00,0.0876
2848.00,0.0886
2847.00,0.0901
2846.00,0.0925
2845.00,0.0960
2844.00,0.1007
2843.00,0.1063
2842.00,0.1122
2841.00,0.1180
2840.00,0.1226
2839.00,0.1254
2838.00,0.1254
2837.00,0.1223
2836.00,0.1160
2835.00,0.1070
2834.00,0.0964
2833.00,0.0852
2832.00,0.0746
2831.00,0.0652
2830.00,0.0571
2829.00,0.0506
2828.00,0.0452
2827.00,0.0409
2826.00,0.0374
2825.00,0.0344
2824.00,0.0320
2823.00,0.0299
2822.00,0.0281
2821.00,0.0265
2820.00,0.0252
2819.00,0.0241
2818.00,0.0231
2817.00,0.0222
2816.00,0.0214
2815.00,0.0207
2814.00,0.0201
2813.00,0.0195
2812.00,0.0190
2811.00,0.0184
2810.00,0.0179
2809.00,0.0173
2808.00,0.0168
2807.00,0.0161
2806.00,0.0155
2805.00,0.0148
2804.00,0.0142
2803.00,0.0136
2802.00,0.0131
2801.00,0.0127
2800.00,0.0123
2799.00,0.0121
2798.00,0.0118
2797.00,0.0116
2796.00,0.0113
2795.00,0.0110
2794.00,0.0107
2793.00,0.0104
2792.00,0.0101
2791.00,0.0098
2790.00,0.0094
2789.00,0.0091
2788.00,0.0088
2787.00,0.0085
2786.00,0.0082
2785.00,0.0079
2784.00,0.0076
2783.00,0.0074
2782.00,0.0072
2781.00,0.0070
2780.00,0.0068
2779.00,0.0066
2778.00,0.0065
2777.00,0.0063
2776.00,0.0062
2775.00,0.0061
2774.00,0.0059
2773.00,0.0059
2772.00,0.0058
2771.00,0.0058
2770.00,0.0058
2769.00,0.0058
2768.00,0.0057
2767.00,0.0057
2766.00,0.0056
2765.00,0.0056
2764.00,0.0055
2763.00,0.0055
2762.00,0.0055
2761.00,0.0054
2760.00,0.0054
2759.00,0.0054
2758.00,0.0054
2757.00,0.0053
2756.00,0.0053
2755.00,0.0053
2754.00,0.0053
2753.00,0.0053
2752.00,0.0053
2751.00,0.0052
2750.00,0.0052
2749.00,0.0052
2748.00,0.0052
2747.00,0.0052
2746.00,0.0052
2745.00,0.0053
2744.00,0.0054
2743.00,0.0055
2742.00,0.0056
2741.00,0.0057
2740.00,0.0058
2739.00,0.0059
2738.00,0.0060
2737.00,0.0061
2736.00,0.0062
2735.00,0.0064
2734.00,0.0065
2733.00,0.0066
2732.00,0.0068
2731.00,0.0070
2730.00,0.0072
2729.00,0.0075
2728.00,0.0078
2727.00,0.0080
2726.00,0.0083
2725.00,0.0085
2724.00,0.0087
2723.00,0.0087
2722.00,0.0086
2721.00,0.0084
2720.00,0.0081
2719.00,0.0078
2718.00,0.0075
2717.00,0.0072
2716.00,0.0069
2715.00,0.0067
2714.00,0.0065
2713.00,0.0063
2712.00,0.0061
2711.00,0.0059
2710.00,0.0058
2709.00,0.0056
2708.00,0.0055
2707.00,0.0053
2706.00,0.0052
2705.00,0.0051
2704.00,0.0050
2703.00,0.0049
2702.00,0.0048
2701.00,0.0048
2700.00,0.0047
2699.00,0.0047
2698.00,0.0046
2697.00,0.0046
2696.00,0.0045
2695.00,0.0045
2694.00,0.0045
2693.00,0.0045
2692.00,0.0045
2691.00,0.0045
2690.00,0.0045
2689.00,0.0046
2688.00,0.0046
2687.00,0.0046
2686.00,0.0046
2685.00,0.0046
2684.00,0.0046
2683.00,0.0047
2682.00,0.0047
2681.00,0.0047
2680.00,0.0047
2679.00,0.0047
2678.00,0.0047
2677.00,0.0047
2676.00,0.0047
2675.00,0.0047
2674.00,0.0046
2673.00,0.0046
2672.00,0.0046
2671.00,0.0045
2670.00,0.0045
2669.00,0.0045
2668.00,0.0045
2667.00,0.0045
2666.00,0.0046
2665.00,0.0046
2664.00,0.0047
2663.00,0.0047
2662.00,0.0048
2661.00,0.0048
2660.00,0.0048
2659.00,0.0049
2658.00,0.0049
2657.00,0.0049
2656.00,0.0048
2655.00,0.0048
2654.00,0.0047
2653.00,0.0046
2652.00,0.0045
2651.00,0.0045
2650.00,0.0044
2649.00,0.0044
2648.00,0.0044
2647.00,0.0043
2646.00,0.0043
2645.00,0.0043
2644.00,0.0043
2643.00,0.0042
2642.00,0.0042
2641.00,0.0041
2640.00,0.0041
2639.00,0.0040
2638.00,0.0039
2637.00,0.0039
2636.00,0.0039
2635.00,0.0039
2634.00,0.0039
2633.00,0.0039
2632.00,0.0040
2631.00,0.0040
2630.00,0.0040
2629.00,0.0040
2628.00,0.0040
2627.00,0.0040
2626.00,0.0040
2625.00,0.0041
2624.00,0.0041
2623.00,0.0041
2622.00,0.0041
2621.00,0.0041
2620.00,0.0041
2619.00,0.0041
2618.00,0.0041
2617.00,0.0041
2616.00,0.0040
2615.00,0.0040
2614.00,0.0039
2613.00,0.0039
2612.00,0.0039
2611.00,0.0038
2610.00,0.0037
2609.00,0.0036
2608.00,0.0036
2607.00,0.0036
2606.00,0.0036
2605.00,0.0036
2604.00,0.0035
2603.00,0.0034
2602.00,0.0032
2601.00,0.0031
2600.00,0.0031
2599.00,0.0031
2598.00,0.0031
2597.00,0.0031
2596.00,0.0031
2595.00,0.0031
2594.00,0.0031
2593.00,0.0031
2592.00,0.0032
2591.00,0.0032
2590.00,0.0032
2589.00,0.0033
2588.00,0.0034
2587.00,0.0035
2586.00,0.0036
2585.00,0.0037
2584.00,0.0038
2583.00,0.0038
2582.00,0.0038
2581.00,0.0039
2580.00,0.0038
2579.00,0.0038
2578.00,0.0037
2577.00,0.0036
2576.00,0.0034
2575.00,0.0033
2574.00,0.0031
2573.00,0.0030
2572.00,0.0029
2571.00,0.0028
2570.00,0.0027
2569.00,0.0026
2568.00,0.0026
2567.00,0.0026
2566.00,0.0025
2565.00,0.0025
2564.00,0.0024
2563.00,0.0024
2562.00,0.0023
2561.00,0.0023
2560.00,0.0023
2559.00,0.0023
2558.00,0.0023
2557.00,0.0023
2556.00,0.0023
2555.00,0.0022
2554.00,0.0022
2553.00,0.0022
2552.00,0.0022
2551.00,0.0021
2550.00,0.0021
2549.00,0.0021
2548.00,0.0020
2547.00,0.0019
2546.00,0.0019
2545.00,0.0018
2544.00,0.0017
2543.00,0.0016
2542.00,0.0016
2541.00,0.0016
2540.00,0.0016
2539.00,0.0016
2538.00,0.0016
2537.00,0.0017
2536.00,0.0017
2535.00,0.0017
2534.00,0.0016
2533.00,0.0016
2532.00,0.0015
2531.00,0.0015
2530.00,0.0014
2529.00,0.0014
2528.00,0.0014
2527.00,0.0014
2526.00,0.0013
2525.00,0.0013
2524.00,0.0013
2523.00,0.0013
2522.00,0.0013
2521.00,0.0013
2520.00,0.0013
2519.00,0.0013
2518.00,0.0013
2517.00,0.0013
2516.00,0.0012
2515.00,0.0012
2514.00,0.0012
2513.00,0.0012
2512.00,0.0012
2511.00,0.0012
2510.00,0.0011
2509.00,0.0011
2508.00,0.0010
2507.00,0.0010
2506.00,0.0010
2505.00,0.0010
2504.00,0.0010
2503.00,0.0010
2502.00,0.0010
2501.00,0.0010
2500.00,0.0010
2499.00,0.0010
2498.00,0.0011
2497.00,0.0011
2496.00,0.0011
2495.00,0.0010
2494.00,0.0010
2493.00,0.0009
2492.00,0.0009
2491.00,0.0010
2490.00,0.0010
2489.00,0.0010
2488.00,0.0010
2487.00,0.0010
2486.00,0.0010
2485.00,0.0010
2484.00,0.0009
2483.00,0.0009
2482.00,0.0010
2481.00,0.0010
2480.00,0.0010
2479.00,0.0010
2478.00,0.0010
2477.00,0.0010
2476.00,0.0010
2475.00,0.0010
2474.00,0.0009
2473.00,0.0009
2472.00,0.0009
2471.00,0.0009
2470.00,0.0009
2469.00,0.0009
2468.00,0.0009
2467.00,0.0008
2466.00,0.0008
2465.00,0.0008
2464.00,0.0008
2463.00,0.0009
2462.00,0.0009
2461.00,0.0010
2460.00,0.0010
2459.00,0.0010
2458.00,0.0010
2457.00,0.0010
2456.00,0.0010
2455.00,0.0010
2454.00,0.0011
2453.00,0.0011
2452.00,0.0011
2451.00,0.0011
2450.00,0.0010
2449.00,0.0010
2448.00,0.0011
2447.00,0.0011
2446.00,0.0011
2445.00,0.0011
2444.00,0.0011
2443.00,0.0011
2442.00,0.0011
2441.00,0.0011
2440.00,0.0011
2439.00,0.0010
2438.00,0.0010
2437.00,0.0010
2436.00,0.0010
2435.00,0.0010
2434.00,0.0010
2433.00,0.0010
2432.00,0.0011
2431.00,0.0011
2430.00,0.0011
2429.00,0.0012
2428.00,0.0012
2427.00,0.0012
2426.00,0.0011
2425.00,0.0011
2424.00,0.0010
2423.00,0.0009
2422.00,0.0009
2421.00,0.0009
2420.00,0.0010
2419.00,0.0010
2418.00,0.0011
2417.00,0.0011
2416.00,0.0010
2415.00,0.0010
2414.00,0.0009
2413.00,0.0009
2412.00,0.0008
2411.00,0.0008
2410.00,0.0009
2409.00,0.0009
2408.00,0.0009
2407.00,0.0009
2406.00,0.0009
2405.00,0.0009
2404.00,0.0009
2403.00,0.0008
2402.00,0.0008
2401.00,0.0008
2400.00,0.0008
2399.00,0.0008
2398.00,0.0008
2397.00,0.0008
2396.00,0.0008
2395.00,0.0009
2394.00,0.0009
2393.00,0.0009
2392.00,0.0009
2391.00,0.0008
2390.00,0.0007
2389.00,0.0007
2388.00,0.0007
2387.00,0.0006
2386.00,0.0006
2385.00,0.0006
2384.00,0.0006
2383.00,0.0006
2382.00,0.0006
2381.00,0.0006
2380.00,0.0006
2379.00,0.0006
2378.00,0.0005
2377.00,0.0005
2376.00,0.0005
2375.00,0.0005
2374.00,0.0005
2373.00,0.0004
2372.00,0.0004
2371.00,0.0004
2370.00,0.0005
2369.00,0.0006
2368.00,0.0006
2367.00,0.0006
2366.00,0.0005
2365.00,0.0005
2364.00,0.0005
2363.00,0.0006
2362.00,0.0006
2361.00,0.0007
2360.00,0.0006
2359.00,0.0007
2358.00,0.0007
2357.00,0.0008
2356.00,0.0008
2355.00,0.0008
2354.00,0.0007
2353.00,0.0007
2352.00,0.0007
2351.00,0.0007
2350.00,0.0007
2349.00,0.0008
2348.00,0.0008
2347.00,0.0008
2346.00,0.0008
2345.00,0.0008
2344.00,0.0009
2343.00,0.0009
2342.00,0.0010
2341.00,0.0010
2340.00,0.0010
2339.00,0.0010
2338.00,0.0010
2337.00,0.0009
2336.00,0.0009
2335.00,0.0009
2334.00,0.0008
2333.00,0.0008
2332.00,0.0008
2331.00,0.0008
2330.00,0.0008
2329.00,0.0009
2328.00,0.0011
2327.00,0.0015
2326.00,0.0019
2325.00,0.0022
2324.00,0.0024
2323.00,0.0023
2322.00,0.0021
2321.00,0.0019
2320.00,0.0017
2319.00,0.0016
2318.00,0.0016
2317.00,0.0015
2316.00,0.0014
2315.00,0.0013
2314.00,0.0013
2313.00,0.0013
2312.00,0.0013
2311.00,0.0014
2310.00,0.0014
2309.00,0.0013
2308.00,0.0012
2307.00,0.0011
2306.00,0.0011
2305.00,0.0011
2304.00,0.0012
2303.00,0.0012
2302.00,0.0013
2301.00,0.0013
2300.00,0.0012
2299.00,0.0012
2298.00,0.0012
2297.00,0.0013
2296.00,0.0013
2295.00,0.0014
2294.00,0.0015
2293.00,0.0015
2292.00,0.0015
2291.00,0.0015
2290.00,0.0015
2289.00,0.0015
2288.00,0.0015
2287.00,0.0016
2286.00,0.0016
2285.00,0.0016
2284.00,0.0016
2283.00,0.0015
2282.00,0.0014
2281.00,0.0014
2280.00,0.0013
2279.00,0.0013
2278.00,0.0013
2277.00,0.0014
2276.00,0.0014
2275.00,0.0014
2274.00,0.0014
2273.00,0.0014
2272.00,0.0014
2271.00,0.0013
2270.00,0.0013
2269.00,0.0014
2268.00,0.0014
2267.00,0.0014
2266.00,0.0013
2265.00,0.0012
2264.00,0.0012
2263.00,0.0012
2262.00,0.0012
2261.00,0.0012
2260.00,0.0012
2259.00,0.0012
2258.00,0.0011
2257.00,0.0010
2256.00,0.0008
2255.00,0.0007
2254.00,0.0007
2253.00,0.0007
2252.00,0.0008
2251.00,0.0008
2250.00,0.0008
2249.00,0.0008
2248.00,0.0006
2247.00,0.0005
2246.00,0.0004
2245.00,0.0004
2244.00,0.0004
2243.00,0.0005
2242.00,0.0006
2241.00,0.0007
2240.00,0.0008
2239.00,0.0008
2238.00,0.0008
2237.00,0.0007
2236.00,0.0007
2235.00,0.0007
2234.00,0.0006
2233.00,0.0006
2232.00,0.0005
2231.00,0.0005
2230.00,0.0005
2229.00,0.0006
2228.00,0.0007
2227.00,0.0007
2226.00,0.0006
2225.00,0.0006
2224.00,0.0006
2223.00,0.0006
2222.00,0.0006
2221.00,0.0007
2220.00,0.0009
2219.00,0.0010
2218.00,0.0011
2217.00,0.0010
2216.00,0.0008
2215.00,0.0006
2214.00,0.0004
2213.00,0.0004
2212.00,0.0005
2211.00,0.0006
2210.00,0.0007
2209.00,0.0007
2208.00,0.0007
2207.00,0.0006
2206.00,0.0005
2205.00,0.0005
2204.00,0.0004
2203.00,0.0003
2202.00,0.0003
2201.00,0.0003
2200.00,0.0003
2199.00,0.0004
2198.00,0.0005
2197.00,0.0007
2196.00,0.0008
2195.00,0.0009
2194.00,0.0010
2193.00,0.0009
2192.00,0.0008
2191.00,0.0006
2190.00,0.0005
2189.00,0.0007
2188.00,0.0011
2187.00,0.0014
2186.00,0.0016
2185.00,0.0017
2184.00,0.0015
2183.00,0.0012
2182.00,0.0009
2181.00,0.0006
2180.00,0.0004
2179.00,0.0003
2178.00,0.0002
2177.00,0.0002
2176.00,0.0001
2175.00,-0.0000
2174.00,-0.0003
2173.00,-0.0004
2172.00,-0.0004
2171.00,-0.0001
2170.00,0.0005
2169.00,0.0010
2168.00,0.0014
2167.00,0.0015
2166.00,0.0015
2165.00,0.0015
2164.00,0.0015
2163.00,0.0015
2162.00,0.0013
2161.00,0.0007
2160.00,-0.0003
2159.00,-0.0016
2158.00,-0.0026
2157.00,-0.0031
2156.00,-0.0029
2155.00,-0.0024
2154.00,-0.0019
2153.00,-0.0015
2152.00,-0.0012
2151.00,-0.0011
2150.00,-0.0011
2149.00,-0.0011
2148.00,-0.0011
2147.00,-0.0011
2146.00,-0.0012
2145.00,-0.0013
2144.00,-0.0013
2143.00,-0.0012
2142.00,-0.0010
2141.00,-0.0008
2140.00,-0.0008
2139.00,-0.0008
2138.00,-0.0010
2137.00,-0.0011
2136.00,-0.0013
2135.00,-0.0014
2134.00,-0.0015
2133.00,-0.0015
2132.00,-0.0014
2131.00,-0.0013
2130.00,-0.0012
2129.00,-0.0011
2128.00,-0.0010
2127.00,-0.0010
2126.00,-0.0009
2125.00,-0.0008
2124.00,-0.0007
2123.00,-0.0005
2122.00,-0.0003
2121.00,-0.0001
2120.00,-0.0001
2119.00,-0.0001
2118.00,-0.0001
2117.00,-0.0001
2116.00,0.0000
2115.00,0.0002
2114.00,0.0003
2113.00,0.0003
2112.00,0.0002
2111.00,0.0002
2110.00,0.0001
2109.00,0.0000
2108.00,0.0000
2107.00,0.0001
2106.00,0.0001
2105.00,0.0002
2104.00,0.0001
2103.00,0.0001
2102.00,0.0000
2101.00,0.0001
2100.00,0.0001
2099.00,0.0002
2098.00,0.0002
2097.00,0.0000
2096.00,-0.0002
2095.00,-0.0004
2094.00,-0.0005
2093.00,-0.0004
2092.00,-0.0002
2091.00,-0.0001
2090.00,-0.0002
2089.00,-0.0001
2088.00,-0.0000
2087.00,0.0000
2086.00,0.0001
2085.00,0.0000
2084.00,-0.0000
2083.00,-0.0001
2082.00,-0.0001
2081.00,-0.0000
2080.00,0.0001
2079.00,0.0002
2078.00,0.0002
2077.00,0.0002
2076.00,0.0002
2075.00,0.0000
2074.00,-0.0001
2073.00,-0.0002
2072.00,-0.0001
2071.00,0.0000
2070.00,0.0001
2069.00,0.0001
2068.00,0.0001
2067.00,0.0001
2066.00,0.0000
2065.00,0.0000
2064.00,-0.0000
2063.00,-0.0000
2062.00,-0.0001
2061.00,-0.0001
2060.00,-0.0000
2059.00,0.0000
2058.00,0.0001
2057.00,0.0002
2056.00,0.0002
2055.00,0.0001
2054.00,0.0001
2053.00,0.0004
2052.00,0.0009
2051.00,0.0011
2050.00,0.0011
2049.00,0.0009
2048.00,0.0007
2047.00,0.0006
2046.00,0.0004
2045.00,0.0000
2044.00,-0.0003
2043.00,-0.0004
2042.00,-0.0002
2041.00,0.0001
2040.00,0.0004
2039.00,0.0004
2038.00,0.0004
2037.00,0.0002
2036.00,0.0001
2035.00,-0.0001
2034.00,-0.0002
2033.00,-0.0004
2032.00,-0.0007
2031.00,-0.0010
2030.00,-0.0014
2029.00,-0.0017
2028.00,-0.0018
2027.00,-0.0017
2026.00,-0.0015
2025.00,-0.0013
2024.00,-0.0011
2023.00,-0.0011
2022.00,-0.0010
2021.00,-0.0010
2020.00,-0.0010
2019.00,-0.0010
2018.00,-0.0011
2017.00,-0.0012
2016.00,-0.0013
2015.00,-0.0013
2014.00,-0.0012
2013.00,-0.0010
2012.00,-0.0008
2011.00,-0.0007
2010.00,-0.0008
2009.00,-0.0010
2008.00,-0.0013
2007.00,-0.0016
2006.00,-0.0017
2005.00,-0.0016
2004.00,-0.0014
2003.00,-0.0011
2002.00,-0.0009
2001.00,-0.0008
2000.00,-0.0009
1999.00,-0.0010
1998.00,-0.0012
1997.00,-0.0012
1996.00,-0.0011
1995.00,-0.0011
1994.00,-0.0010
1993.00,-0.0008
1992.00,-0.0006
1991.00,-0.0005
1990.00,-0.0005
1989.00,-0.0005
1988.00,-0.0005
1987.00,-0.0005
1986.00,-0.0004
1985.00,-0.0003
1984.00,-0.0001
1983.00,0.0001
1982.00,0.0004
1981.00,0.0007
1980.00,0.0008
1979.00,0.0006
1978.00,0.0001
1977.00,-0.0002
1976.00,-0.0004
1975.00,-0.0006
1974.00,-0.0010
1973.00,-0.0013
1972.00,-0.0015
1971.00,-0.0015
1970.00,-0.0015
1969.00,-0.0016
1968.00,-0.0018
1967.00,-0.0020
1966.00,-0.0021
1965.00,-0.0020
1964.00,-0.0016
1963.00,-0.0014
1962.00,-0.0014
1961.00,-0.0015
1960.00,-0.0017
1959.00,-0.0018
1958.00,-0.0019
1957.00,-0.0019
1956.00,-0.0020
1955.00,-0.0020
1954.00,-0.0020
1953.00,-0.0020
1952.00,-0.0019
1951.00,-0.0018
1950.00,-0.0016
1949.00,-0.0016
1948.00,-0.0015
1947.00,-0.0014
1946.00,-0.0013
1945.00,-0.0013
1944.00,-0.0012
1943.00,-0.0012
1942.00,-0.0012
1941.00,-0.0010
1940.00,-0.0009
1939.00,-0.0008
1938.00,-0.0008
1937.00,-0.0007
1936.00,-0.0007
1935.00,-0.0006
1934.00,-0.0006
1933.00,-0.0007
1932.00,-0.0007
1931.00,-0.0008
1930.00,-0.0008
1929.00,-0.0007
1928.00,-0.0006
1927.00,-0.0005
1926.00,-0.0005
1925.00,-0.0005
1924.00,-0.0005
1923.00,-0.0006
1922.00,-0.0007
1921.00,-0.0006
1920.00,-0.0005
1919.00,-0.0004
1918.00,-0.0003
1917.00,-0.0002
1916.00,-0.0003
1915.00,-0.0004
1914.00,-0.0005
1913.00,-0.0004
1912.00,-0.0003
1911.00,-0.0001
1910.00,-0.0001
1909.00,-0.0001
1908.00,-0.0001
1907.00,-0.0002
1906.00,-0.0002
1905.00,-0.0002
1904.00,-0.0002
1903.00,-0.0002
1902.00,-0.0002
1901.00,-0.0002
1900.00,-0.0002
1899.00,-0.0002
1898.00,-0.0002
1897.00,-0.0001
1896.00,-0.0000
1895.00,-0.0000
1894.00,-0.0000
1893.00,-0.0001
1892.00,-0.0001
1891.00,-0.0000
1890.00,0.0001
1889.00,0.0003
1888.00,0.0004
1887.00,0.0003
1886.00,0.0002
1885.00,0.0000
1884.00,0.0000
1883.00,0.0000
1882.00,0.0001
1881.00,0.0001
1880.00,0.0002
1879.00,0.0002
1878.00,0.0002
1877.00,0.0002
1876.00,0.0001
1875.00,-0.0000
1874.00,-0.0001
1873.00,-0.0001
1872.00,-0.0000
1871.00,-0.0000
1870.00,0.0000
1869.00,0.0001
1868.00,0.0001
1867.00,0.0001
1866.00,0.0001
1865.00,0.0000
1864.00,0.0000
1863.00,-0.0000
1862.00,-0.0000
1861.00,0.0000
1860.00,0.0001
1859.00,0.0002
1858.00,0.0003
1857.00,0.0003
1856.00,0.0004
1855.00,0.0003
1854.00,0.0002
1853.00,0.0001
1852.00,0.0001
1851.00,0.0001
1850.00,0.0002
1849.00,0.0003
1848.00,0.0004
1847.00,0.0004
1846.00,0.0003
1845.00,0.0003
1844.00,0.0004
1843.00,0.0004
1842.00,0.0004
1841.00,0.0004
1840.00,0.0004
1839.00,0.0004
1838.00,0.0004
1837.00,0.0003
1836.00,0.0003
1835.00,0.0003
1834.00,0.0003
1833.00,0.0003
1832.00,0.0003
1831.00,0.0003
1830.00,0.0003
1829.00,0.0004
1828.00,0.0004
1827.00,0.0005
1826.00,0.0005
1825.00,0.0005
1824.00,0.0005
1823.00,0.0004
1822.00,0.0004
1821.00,0.0004
1820.00,0.0004
1819.00,0.0003
1818.00,0.0002
1817.00,0.0001
1816.00,0.0001
1815.00,0.0002
1814.00,0.0002
1813.00,0.0003
1812.00,0.0004
1811.00,0.0004
1810.00,0.0004
1809.00,0.0004
1808.00,0.0004
1807.00,0.0004
1806.00,0.0004
1805.00,0.0005
1804.00,0.0005
1803.00,0.0004
1802.00,0.0004
1801.00,0.0004
1800.00,0.0005
1799.00,0.0006
1798.00,0.0007
1797.00,0.0007
1796.00,0.0008
1795.00,0.0008
1794.00,0.0008
1793.00,0.0008
1792.00,0.0008
1791.00,0.0008
1790.00,0.0008
1789.00,0.0008
1788.00,0.0008
1787.00,0.0008
1786.00,0.0009
1785.00,0.0009
1784.00,0.0008
1783.00,0.0008
1782.00,0.0008
1781.00,0.0008
1780.00,0.0009
1779.00,0.0009
1778.00,0.0009
1777.00,0.0010
1776.00,0.0010
1775.00,0.0010
1774.00,0.0010
1773.00,0.0010
1772.00,0.0010
1771.00,0.0011
1770.00,0.0011
1769.00,0.0011
1768.00,0.0011
1767.00,0.0011
1766.00,0.0011
1765.00,0.0011
1764.00,0.0011
1763.00,0.0011
1762.00,0.0012
1761.00,0.0012
1760.00,0.0013
1759.00,0.0013
1758.00,0.0013
1757.00,0.0014
1756.00,0.0014
1755.00,0.0014
1754.00,0.0015
1753.00,0.0016
1752.00,0.0017
1751.00,0.0018
1750.00,0.0019
1749.00,0.0020
1748.00,0.0020
1747.00,0.0021
1746.00,0.0021
1745.00,0.0021
1744.00,0.0021
1743.00,0.0021
1742.00,0.0021
1741.00,0.0022
1740.00,0.0023
1739.00,0.0023
1738.00,0.0024
1737.00,0.0024
1736.00,0.0024
1735.00,0.0024
1734.00,0.0024
1733.00,0.0025
1732.00,0.0025
1731.00,0.0025
1730.00,0.0025
1729.00,0.0025
1728.00,0.0025
1727.00,0.0025
1726.00,0.0025
1725.00,0.0026
1724.00,0.0026
1723.00,0.0026
1722.00,0.0026
1721.00,0.0025
1720.00,0.0025
1719.00,0.0024
1718.00,0.0023
1717.00,0.0023
1716.00,0.0023
1715.00,0.0023
1714.00,0.0023
1713.00,0.0023
1712.00,0.0023
1711.00,0.0024
1710.00,0.0024
1709.00,0.0024
1708.00,0.0024
1707.00,0.0024
1706.00,0.0025
1705.00,0.0025
1704.00,0.0025
1703.00,0.0026
1702.00,0.0026
1701.00,0.0026
1700.00,0.0026
1699.00,0.0026
1698.00,0.0026
1697.00,0.0027
1696.00,0.0028
1695.00,0.0028
1694.00,0.0029
1693.00,0.0029
1692.00,0.0030
1691.00,0.0030
1690.00,0.0031
1689.00,0.0032
1688.00,0.0033
1687.00,0.0034
1686.00,0.0034
1685.00,0.0034
1684.00,0.0034
1683.00,0.0034
1682.00,0.0035
1681.00,0.0036
1680.00,0.0037
1679.00,0.0038
1678.00,0.0038
1677.00,0.0039
1676.00,0.0040
1675.00,0.0040
1674.00,0.0041
1673.00,0.0042
1672.00,0.0042
1671.00,0.0043
1670.00,0.0044
1669.00,0.0045
1668.00,0.0046
1667.00,0.0047
1666.00,0.0047
1665.00,0.0048
1664.00,0.0048
1663.00,0.0049
1662.00,0.0049
1661.00,0.0049
1660.00,0.0049
1659.00,0.0050
1658.00,0.0050
1657.00,0.0050
1656.00,0.0051
1655.00,0.0052
1654.00,0.0053
1653.00,0.0055
1652.00,0.0055
1651.00,0.0055
1650.00,0.0055
1649.00,0.0056
1648.00,0.0057
1647.00,0.0058
1646.00,0.0059
1645.00,0.0059
1644.00,0.0059
1643.00,0.0060
1642.00,0.0061
1641.00,0.0062
1640.00,0.0063
1639.00,0.0064
1638.00,0.0065
1637.00,0.0065
1636.00,0.0065
1635.00,0.0064
1634.00,0.0063
1633.00,0.0063
1632.00,0.0063
1631.00,0.0063
1630.00,0.0062
1629.00,0.0062
1628.00,0.0062
1627.00,0.0061
1626.00,0.0061
1625.00,0.0061
1624.00,0.0060
1623.00,0.0060
1622.00,0.0059
1621.00,0.0059
1620.00,0.0059
1619.00,0.0059
1618.00,0.0059
1617.00,0.0060
1616.00,0.0060
1615.00,0.0060
1614.00,0.0060
1613.00,0.0059
1612.00,0.0059
1611.00,0.0059
1610.00,0.0059
1609.00,0.0059
1608.00,0.0059
1607.00,0.0059
1606.00,0.0059
1605.00,0.0059
1604.00,0.0059
1603.00,0.0059
1602.00,0.0059
1601.00,0.0059
1600.00,0.0058
1599.00,0.0058
1598.00,0.0057
1597.00,0.0057
1596.00,0.0057
1595.00,0.0057
1594.00,0.0057
1593.00,0.0057
1592.00,0.0057
1591.00,0.0057
1590.00,0.0056
1589.00,0.0056
1588.00,0.0055
1587.00,0.0055
1586.00,0.0055
1585.00,0.0056
1584.00,0.0057
1583.00,0.0057
1582.00,0.0057
1581.00,0.0057
1580.00,0.0058
1579.00,0.0058
1578.00,0.0058
1577.00,0.0059
1576.00,0.0059
1575.00,0.0059
1574.00,0.0059
1573.00,0.0060
1572.00,0.0060
1571.00,0.0060
1570.00,0.0060
1569.00,0.0061
1568.00,0.0061
1567.00,0.0062
1566.00,0.0063
1565.00,0.0063
1564.00,0.0063
1563.00,0.0063
1562.00,0.0063
1561.00,0.0064
1560.00,0.0065
1559.00,0.0066
1558.00,0.0066
1557.00,0.0067
1556.00,0.0069
1555.00,0.0069
1554.00,0.0069
1553.00,0.0069
1552.00,0.0069
1551.00,0.0070
1550.00,0.0070
1549.00,0.0070
1548.00,0.0071
1547.00,0.0071
1546.00,0.0071
1545.00,0.0071
1544.00,0.0071
1543.00,0.0070
1542.00,0.0069
1541.00,0.0068
1540.00,0.0066
1539.00,0.0064
1538.00,0.0062
1537.00,0.0062
1536.00,0.0061
1535.00,0.0061
1534.00,0.0059
1533.00,0.0058
1532.00,0.0057
1531.00,0.0057
1530.00,0.0057
1529.00,0.0057
1528.00,0.0057
1527.00,0.0057
1526.00,0.0056
1525.00,0.0055
1524.00,0.0055
1523.00,0.0055
1522.00,0.0055
1521.00,0.0055
1520.00,0.0055
1519.00,0.0055
1518.00,0.0055
1517.00,0.0056
1516.00,0.0057
1515.00,0.0058
1514.00,0.0057
1513.00,0.0058
1512.00,0.0059
1511.00,0.0059
1510.00,0.0060
1509.00,0.0061
1508.00,0.0063
1507.00,0.0063
1506.00,0.0062
1505.00,0.0063
1504.00,0.0066
1503.00,0.0068
1502.00,0.0070
1501.00,0.0072
1500.00,0.0075
1499.00,0.0077
1498.00,0.0079
1497.00,0.0082
1496.00,0.0085
1495.00,0.0088
1494.00,0.0090
1493.00,0.0094
1492.00,0.0098
1491.00,0.0102
1490.00,0.0106
1489.00,0.0110
1488.00,0.0115
1487.00,0.0119
1486.00,0.0123
1485.00,0.0129
1484.00,0.0136
1483.00,0.0143
1482.00,0.0152
1481.00,0.0162
1480.00,0.0174
1479.00,0.0186
1478.00,0.0200
1477.00,0.0221
1476.00,0.0246
1475.00,0.0277
1474.00,0.0317
1473.00,0.0375
1472.00,0.0442
1471.00,0.0505
1470.00,0.0567
1469.00,0.0631
1468.00,0.0700
1467.00,0.0776
1466.00,0.0861
1465.00,0.0953
1464.00,0.1033
1463.00,0.1089
1462.00,0.1125
1461.00,0.1150
1460.00,0.1167
1459.00,0.1180
1458.00,0.1191
1457.00,0.1202
1456.00,0.1206
1455.00,0.1202
1454.00,0.1194
1453.00,0.1180
1452.00,0.1157
1451.00,0.1122
1450.00,0.1073
1449.00,0.1003
1448.00,0.0912
1447.00,0.0814
1446.00,0.0726
1445.00,0.0650
1444.00,0.0585
1443.00,0.0531
1442.00,0.0489
1441.00,0.0460
1440.00,0.0442
1439.00,0.0433
1438.00,0.0432
1437.00,0.0429
1436.00,0.0417
1435.00,0.0392
1434.00,0.0359
1433.00,0.0318
1432.00,0.0276
1431.00,0.0238
1430.00,0.0208
1429.00,0.0185
1428.00,0.0170
1427.00,0.0160
1426.00,0.0154
1425.00,0.0147
1424.00,0.0141
1423.00,0.0138
1422.00,0.0135
1421.00,0.0133
1420.00,0.0130
1419.00,0.0128
1418.00,0.0126
1417.00,0.0124
1416.00,0.0121
1415.00,0.0120
1414.00,0.0120
1413.00,0.0119
1412.00,0.0118
1411.00,0.0117
1410.00,0.0117
1409.00,0.0117
1408.00,0.0116
1407.00,0.0116
1406.00,0.0117
1405.00,0.0118
1404.00,0.0118
1403.00,0.0119
1402.00,0.0121
1401.00,0.0122
1400.00,0.0123
1399.00,0.0126
1398.00,0.0129
1397.00,0.0131
1396.00,0.0134
1395.00,0.0138
1394.00,0.0143
1393.00,0.0148
1392.00,0.0154
1391.00,0.0161
1390.00,0.0172
1389.00,0.0186
1388.00,0.0207
1387.00,0.0239
1386.00,0.0281
1385.00,0.0337
1384.00,0.0414
1383.00,0.0523
1382.00,0.0670
1381.00,0.0858
1380.00,0.1085
1379.00,0.1334
1378.00,0.1565
1377.00,0.1721
1376.00,0.1757
1375.00,0.1652
1374.00,0.1435
1373.00,0.1185
1372.00,0.0962
1371.00,0.0779
1370.00,0.0633
1369.00,0.0522
1368.00,0.0445
1367.00,0.0397
1366.00,0.0370
1365.00,0.0359
1364.00,0.0360
1363.00,0.0371
1362.00,0.0389
1361.00,0.0409
1360.00,0.0424
1359.00,0.0429
1358.00,0.0419
1357.00,0.0396
1356.00,0.0363
1355.00,0.0326
1354.00,0.0291
1353.00,0.0260
1352.00,0.0235
1351.00,0.0215
1350.00,0.0198
1349.00,0.0184
1348.00,0.0173
1347.00,0.0163
1346.00,0.0155
1345.00,0.0148
1344.00,0.0142
1343.00,0.0137
1342.00,0.0133
1341.00,0.0129
1340.00,0.0126
1339.00,0.0124
1338.00,0.0122
1337.00,0.0122
1336.00,0.0122
1335.00,0.0124
1334.00,0.0127
1333.00,0.0131
1332.00,0.0135
1331.00,0.0138
1330.00,0.0139
1329.00,0.0138
1328.00,0.0135
1327.00,0.0130
1326.00,0.0125
1325.00,0.0119
1324.00,0.0113
1323.00,0.0108
1322.00,0.0104
1321.00,0.0100
1320.00,0.0099
1319.00,0.0097
1318.00,0.0096
1317.00,0.0095
1316.00,0.0094
1315.00,0.0093
1314.00,0.0094
1313.00,0.0095
1312.00,0.0097
1311.00,0.0099
1310.00,0.0104
1309.00,0.0112
1308.00,0.0123
1307.00,0.0137
1306.00,0.0149
1305.00,0.0157
1304.00,0.0159
1303.00,0.0154
1302.00,0.0147
1301.00,0.0140
1300.00,0.0135
1299.00,0.0133
1298.00,0.0133
1297.00,0.0133
1296.00,0.0131
1295.00,0.0129
1294.00,0.0125
1293.00,0.0120
1292.00,0.0114
1291.00,0.0109
1290.00,0.0105
1289.00,0.0101
1288.00,0.0099
1287.00,0.0097
1286.00,0.0095
1285.00,0.0093
1284.00,0.0091
1283.00,0.0089
1282.00,0.0088
1281.00,0.0087
1280.00,0.0087
1279.00,0.0086
1278.00,0.0086
1277.00,0.0086
1276.00,0.0086
1275.00,0.0086
1274.00,0.0086
1273.00,0.0086
1272.00,0.0087
1271.00,0.0089
1270.00,0.0091
1269.00,0.0092
1268.00,0.0095
1267.00,0.0097
1266.00,0.0100
1265.00,0.0104
1264.00,0.0108
1263.00,0.0111
1262.00,0.0115
1261.00,0.0120
1260.00,0.0127
1259.00,0.0135
1258.00,0.0144
1257.00,0.0152
1256.00,0.0155
1255.00,0.0153
1254.00,0.0146
1253.00,0.0136
1252.00,0.0125
1251.00,0.0116
1250.00,0.0109
1249.00,0.0105
1248.00,0.0101
1247.00,0.0098
1246.00,0.0095
1245.00,0.0093
1244.00,0.0091
1243.00,0.0090
1242.00,0.0089
1241.00,0.0089
1240.00,0.0088
1239.00,0.0087
1238.00,0.0086
1237.00,0.0086
1236.00,0.0085
1235.00,0.0085
1234.00,0.0085
1233.00,0.0085
1232.00,0.0085
1231.00,0.0085
1230.00,0.0084
1229.00,0.0085
1228.00,0.0085
1227.00,0.0086
1226.00,0.0088
1225.00,0.0091
1224.00,0.0094
1223.00,0.0098
1222.00,0.0101
1221.00,0.0104
1220.00,0.0105
1219.00,0.0105
1218.00,0.0104
1217.00,0.0102
1216.00,0.0099
1215.00,0.0096
1214.00,0.0094
1213.00,0.0091
1212.00,0.0089
1211.00,0.0086
1210.00,0.0085
1209.00,0.0083
1208.00,0.0082
1207.00,0.0080
1206.00,0.0080
1205.00,0.0079
1204.00,0.0079
1203.00,0.0079
1202.00,0.0079
1201.00,0.0079
1200.00,0.0080
1199.00,0.0080
1198.00,0.0080
1197.00,0.0080
1196.00,0.0080
1195.00,0.0080
1194.00,0.0080
1193.00,0.0081
1192.00,0.0081
1191.00,0.0082
1190.00,0.0082
1189.00,0.0082
1188.00,0.0083
1187.00,0.0084
1186.00,0.0086
1185.00,0.0088
1184.00,0.0090
1183.00,0.0092
1182.00,0.0095
1181.00,0.0099
1180.00,0.0103
1179.00,0.0110
1178.00,0.0118
1177.00,0.0127
1176.00,0.0140
1175.00,0.0157
1174.00,0.0180
1173.00,0.0209
1172.00,0.0244
1171.00,0.0282
1170.00,0.0320
1169.00,0.0351
1168.00,0.0369
1167.00,0.0373
1166.00,0.0363
1165.00,0.0344
1164.00,0.0321
1163.00,0.0298
1162.00,0.0279
1161.00,0.0263
1160.00,0.0252
1159.00,0.0244
1158.00,0.0238
1157.00,0.0232
1156.00,0.0228
1155.00,0.0225
1154.00,0.0222
1153.00,0.0218
1152.00,0.0213
1151.00,0.0206
1150.00,0.0197
1149.00,0.0187
1148.00,0.0177
1147.00,0.0168
1146.00,0.0159
1145.00,0.0151
1144.00,0.0144
1143.00,0.0137
1142.00,0.0132
1141.00,0.0127
1140.00,0.0122
1139.00,0.0117
1138.00,0.0112
1137.00,0.0109
1136.00,0.0106
1135.00,0.0104
1134.00,0.0103
1133.00,0.0101
1132.00,0.0100
1131.00,0.0099
1130.00,0.0099
1129.00,0.0099
1128.00,0.0100
1127.00,0.0100
1126.00,0.0101
1125.00,0.0101
1124.00,0.0101
1123.00,0.0102
1122.00,0.0103
1121.00,0.0104
1120.00,0.0104
1119.00,0.0105
1118.00,0.0105
1117.00,0.0105
1116.00,0.0105
1115.00,0.0106
1114.00,0.0107
1113.00,0.0110
1112.00,0.0112
1111.00,0.0115
1110.00,0.0117
1109.00,0.0119
1108.00,0.0122
1107.00,0.0127
1106.00,0.0133
1105.00,0.0139
1104.00,0.0145
1103.00,0.0148
1102.00,0.0149
1101.00,0.0146
1100.00,0.0141
1099.00,0.0135
1098.00,0.0129
1097.00,0.0124
1096.00,0.0120
1095.00,0.0116
1094.00,0.0113
1093.00,0.0111
1092.00,0.0109
1091.00,0.0108
1090.00,0.0107
1089.00,0.0106
1088.00,0.0105
1087.00,0.0104
1086.00,0.0104
1085.00,0.0105
1084.00,0.0105
1083.00,0.0105
1082.00,0.0104
1081.00,0.0103
1080.00,0.0101
1079.00,0.0100
1078.00,0.0099
1077.00,0.0098
1076.00,0.0097
1075.00,0.0097
1074.00,0.0097
1073.00,0.0097
1072.00,0.0097
1071.00,0.0098
1070.00,0.0098
1069.00,0.0098
1068.00,0.0097
1067.00,0.0095
1066.00,0.0094
1065.00,0.0094
1064.00,0.0095
1063.00,0.0096
1062.00,0.0097
1061.00,0.0098
1060.00,0.0099
1059.00,0.0100
1058.00,0.0100
1057.00,0.0100
1056.00,0.0101
1055.00,0.0103
1054.00,0.0106
1053.00,0.0109
1052.00,0.0113
1051.00,0.0117
1050.00,0.0120
1049.00,0.0124
1048.00,0.0129
1047.00,0.0135
1046.00,0.0140
1045.00,0.0143
1044.00,0.0145
1043.00,0.0144
1042.00,0.0142
1041.00,0.0138
1040.00,0.0135
1039.00,0.0132
1038.00,0.0130
1037.00,0.0129
1036.00,0.0127
1035.00,0.0126
1034.00,0.0125
1033.00,0.0124
1032.00,0.0123
1031.00,0.0122
1030.00,0.0122
1029.00,0.0122
1028.00,0.0122
1027.00,0.0122
1026.00,0.0123
1025.00,0.0124
1024.00,0.0127
1023.00,0.0130
1022.00,0.0133
1021.00,0.0136
1020.00,0.0138
1019.00,0.0140
1018.00,0.0141
1017.00,0.0141
1016.00,0.0141
1015.00,0.0141
1014.00,0.0141
1013.00,0.0141
1012.00,0.0141
1011.00,0.0141
1010.00,0.0141
1009.00,0.0143
1008.00,0.0147
1007.00,0.0152
1006.00,0.0161
1005.00,0.0173
1004.00,0.0192
1003.00,0.0218
1002.00,0.0255
1001.00,0.0301
1000.00,0.0351
999.00,0.0394
998.00,0.0416
997.00,0.0411
996.00,0.0380
995.00,0.0333
994.00,0.0282
993.00,0.0237
992.00,0.0202
991.00,0.0176
990.00,0.0160
989.00,0.0149
988.00,0.0141
987.00,0.0137
986.00,0.0135
985.00,0.0136
984.00,0.0139
983.00,0.0145
982.00,0.0156
981.00,0.0172
980.00,0.0196
979.00,0.0228
978.00,0.0269
977.00,0.0317
976.00,0.0371
975.00,0.0423
974.00,0.0464
973.00,0.0482
972.00,0.0470
971.00,0.0428
970.00,0.0369
969.00,0.0308
968.00,0.0255
967.00,0.0214
966.00,0.0184
965.00,0.0162
964.00,0.0147
963.00,0.0136
962.00,0.0128
961.00,0.0121
960.00,0.0115
959.00,0.0111
958.00,0.0108
957.00,0.0106
956.00,0.0105
955.00,0.0103
954.00,0.0102
953.00,0.0100
952.00,0.0099
951.00,0.0098
950.00,0.0096
949.00,0.0094
948.00,0.0092
947.00,0.0091
946.00,0.0091
945.00,0.0093
944.00,0.0096
943.00,0.0100
942.00,0.0104
941.00,0.0107
940.00,0.0107
939.00,0.0104
938.00,0.0099
937.00,0.0093
936.00,0.0087
935.00,0.0083
934.00,0.0079
933.00,0.0077
932.00,0.0075
931.00,0.0073
930.00,0.0071
929.00,0.0070
928.00,0.0069
927.00,0.0069
926.00,0.0069
925.00,0.0068
924.00,0.0068
923.00,0.0068
922.00,0.0068
921.00,0.0067
920.00,0.0066
919.00,0.0065
918.00,0.0065
917.00,0.0065
916.00,0.0065
915.00,0.0066
914.00,0.0068
913.00,0.0069
912.00,0.0071
911.00,0.0072
910.00,0.0074
909.00,0.0077
908.00,0.0080
907.00,0.0086
906.00,0.0093
905.00,0.0103
904.00,0.0116
903.00,0.0131
902.00,0.0147
901.00,0.0162
900.00,0.0171
899.00,0.0173
898.00,0.0165
897.00,0.0150
896.00,0.0132
895.00,0.0116
894.00,0.0103
893.00,0.0094
892.00,0.0089
891.00,0.0085
890.00,0.0083
889.00,0.0082
888.00,0.0080
887.00,0.0079
886.00,0.0078
885.00,0.0077
884.00,0.0077
883.00,0.0077
882.00,0.0077
881.00,0.0076
880.00,0.0077
879.00,0.0079
878.00,0.0080
877.00,0.0081
876.00,0.0080
875.00,0.0080
874.00,0.0079
873.00,0.0079
872.00,0.0079
871.00,0.0079
870.00,0.0080
869.00,0.0081
868.00,0.0080
867.00,0.0080
866.00,0.0080
865.00,0.0081
864.00,0.0082
863.00,0.0083
862.00,0.0084
861.00,0.0085
860.00,0.0085
859.00,0.0087
858.00,0.0088
857.00,0.0089
856.00,0.0091
855.00,0.0093
854.00,0.0095
853.00,0.0098
852.00,0.0102
851.00,0.0107
850.00,0.0114
849.00,0.0122
848.00,0.0134
847.00,0.0149
846.00,0.0173
845.00,0.0212
844.00,0.0268
843.00,0.0336
842.00,0.0394
841.00,0.0417
840.00,0.0393
839.00,0.0333
838.00,0.0265
837.00,0.0209
836.00,0.0172
835.00,0.0150
834.00,0.0137
833.00,0.0127
832.00,0.0121
831.00,0.0116
830.00,0.0112
829.00,0.0110
828.00,0.0109
827.00,0.0109
826.00,0.0108
825.00,0.0108
824.00,0.0107
823.00,0.0106
822.00,0.0106
821.00,0.0107
820.00,0.0108
819.00,0.0111
818.00,0.0115
817.00,0.0120
816.00,0.0127
815.00,0.0137
814.00,0.0150
813.00,0.0168
812.00,0.0187
811.00,0.0206
810.00,0.0220
809.00,0.0226
808.00,0.0221
807.00,0.0208
806.00,0.0189
805.00,0.0170
804.00,0.0155
803.00,0.0142
802.00,0.0133
801.00,0.0125
800.00,0.0120
799.00,0.0114
798.00,0.0110
797.00,0.0106
796.00,0.0102
795.00,0.0099
794.00,0.0096
793.00,0.0093
792.00,0.0092
791.00,0.0091
790.00,0.0088
789.00,0.0085
788.00,0.0082
787.00,0.0080
786.00,0.0078
785.00,0.0077
784.00,0.0075
783.00,0.0074
782.00,0.0072
781.00,0.0071
780.00,0.0070
779.00,0.0069
778.00,0.0067
777.00,0.0066
776.00,0.0066
775.00,0.0066
774.00,0.0066
773.00,0.0067
772.00,0.0068
771.00,0.0069
770.00,0.0069
769.00,0.0069
768.00,0.0068
767.00,0.0068
766.00,0.0068
765.00,0.0068
764.00,0.0068
763.00,0.0068
762.00,0.0068
761.00,0.0067
760.00,0.0067
759.00,0.0068
758.00,0.0070
757.00,0.0072
756.00,0.0073
755.00,0.0074
754.00,0.0075
753.00,0.0076
752.00,0.0077
751.00,0.0080
750.00,0.0083
749.00,0.0084
748.00,0.0085
747.00,0.0085
746.00,0.0085
745.00,0.0087
744.00,0.0089
743.00,0.0092
742.00,0.0095
741.00,0.0099
740.00,0.0103
739.00,0.0108
738.00,0.0113
737.00,0.0117
736.00,0.0120
735.00,0.0124
734.00,0.0128
733.00,0.0134
732.00,0.0140
731.00,0.0147
730.00,0.0152
729.00,0.0154
728.00,0.0155
727.00,0.0155
726.00,0.0157
725.00,0.0160
724.00,0.0164
723.00,0.0168
722.00,0.0172
721.00,0.0175
720.00,0.0174
719.00,0.0167
718.00,0.0155
717.00,0.0143
716.00,0.0132
715.00,0.0125
714.00,0.0121
713.00,0.0117
712.00,0.0114
711.00,0.0111
710.00,0.0110
709.00,0.0109
708.00,0.0108
707.00,0.0107
706.00,0.0106
705.00,0.0105
704.00,0.0104
703.00,0.0104
702.00,0.0103
701.00,0.0101
700.00,0.0099
699.00,0.0098
698.00,0.0098
697.00,0.0099
696.00,0.0101
695.00,0.0102
694.00,0.0103
693.00,0.0102
692.00,0.0101
691.00,0.0098
690.00,0.0095
689.00,0.0093
688.00,0.0092
687.00,0.0093
686.00,0.0094
685.00,0.0094
684.00,0.0094
683.00,0.0094
682.00,0.0095
681.00,0.0096
680.00,0.0096
679.00,0.0096
678.00,0.0096
677.00,0.0096
676.00,0.0097
675.00,0.0099
674.00,0.0101
673.00,0.0105
672.00,0.0109
671.00,0.0111
670.00,0.0111
669.00,0.0107
668.00,0.0100
667.00,0.0095
666.00,0.0093
665.00,0.0095
664.00,0.0096
663.00,0.0097
662.00,0.0096
661.00,0.0094
660.00,0.0093
659.00,0.0092
658.00,0.0092
657.00,0.0090
656.00,0.0089
655.00,0.0090
654.00,0.0091
653.00,0.0093
652.00,0.0093
651.00,0.0091
650.00,0.0089
649.00,0.0088
648.00,0.0089
647.00,0.0090
646.00,0.0091
645.00,0.0090
644.00,0.0089
643.00,0.0088
642.00,0.0088
641.00,0.0088
640.00,0.0086
639.00,0.0084
638.00,0.0083
637.00,0.0081
636.00,0.0082
635.00,0.0084
634.00,0.0087
633.00,0.0091
632.00,0.0093
631.00,0.0092
630.00,0.0090
629.00,0.0088
628.00,0.0088
627.00,0.0091
626.00,0.0094
625.00,0.0096
624.00,0.0096
623.00,0.0094
622.00,0.0091
621.00,0.0089
620.00,0.0088
619.00,0.0086
618.00,0.0084
617.00,0.0082
616.00,0.0081
615.00,0.0082
614.00,0.0084
613.00,0.0088
612.00,0.0090
611.00,0.0090
610.00,0.0089
609.00,0.0089
608.00,0.0089
607.00,0.0090
606.00,0.0090
605.00,0.0089
604.00,0.0089
603.00,0.0090
602.00,0.0092
601.00,0.0092
600.00,0.0090
599.00,0.0088
598.00,0.0088
597.00,0.0090
596.00,0.0090
595.00,0.0089
594.00,0.0087
593.00,0.0085
592.00,0.0084
591.00,0.0082
590.00,0.0081
589.00,0.0080
588.00,0.0080
587.00,0.0080
586.00,0.0081
585.00,0.0082
584.00,0.0083
583.00,0.0083
582.00,0.0085
581.00,0.0087
580.00,0.0089
579.00,0.0090
578.00,0.0091
577.00,0.0090
576.00,0.0090
575.00,0.0090
574.00,0.0089
573.00,0.0088
572.00,0.0088
571.00,0.0090
570.00,0.0092
569.00,0.0093
568.00,0.0092
567.00,0.0089
566.00,0.0086
565.00,0.0084
564.00,0.0084
563.00,0.0085
562.00,0.0087
561.00,0.0090
560.00,0.0091
559.00,0.0092
558.00,0.0091
557.00,0.0089
556.00,0.0089
555.00,0.0091
554.00,0.0093
553.00,0.0094
552.00,0.0094
551.00,0.0092
550.00,0.0092
549.00,0.0093
548.00,0.0096
547.00,0.0099
546.00,0.0103
545.00,0.0106
544.00,0.0109
543.00,0.0110
542.00,0.0108
541.00,0.0105
540.00,0.0104
539.00,0.0105
538.00,0.0109
537.00,0.0114
536.00,0.0120
535.00,0.0125
534.00,0.0130
533.00,0.0132
532.00,0.0132
531.00,0.0130
530.00,0.0126
529.00,0.0122
528.00,0.0118
527.00,0.0115
526.00,0.0113
525.00,0.0113
524.00,0.0116
523.00,0.0121
522.00,0.0124
521.00,0.0123
520.00,0.0115
519.00,0.0104
518.00,0.0096
517.00,0.0095
516.00,0.0098
515.00,0.0101
514.00,0.0101
513.00,0.0096
512.00,0.0090
511.00,0.0086
510.00,0.0083
509.00,0.0083
508.00,0.0083
507.00,0.0085
506.00,0.0089
505.00,0.0093
504.00,0.0097
503.00,0.0101
502.00,0.0102
501.00,0.0099
500.00,0.0091
499.00,0.0082
498.00,0.0074
497.00,0.0070
496.00,0.0070
495.00,0.0075
494.00,0.0083
493.00,0.0089
492.00,0.0092
491.00,0.0093
490.00,0.0092
489.00,0.0090
488.00,0.0085
487.00,0.0082
486.00,0.0085
485.00,0.0094
484.00,0.0104
483.00,0.0109
482.00,0.0105
481.00,0.0098
480.00,0.0091
479.00,0.0089
478.00,0.0089
477.00,0.0091
476.00,0.0093
475.00,0.0100
474.00,0.0111
473.00,0.0119
472.00,0.0122
471.00,0.0122
470.00,0.0128
469.00,0.0140
468.00,0.0158
467.00,0.0176
466.00,0.0195
465.00,0.0209
464.00,0.0213
463.00,0.0205
462.00,0.0192
461.00,0.0182
460.00,0.0177
459.00,0.0173
458.00,0.0170
457.00,0.0165
456.00,0.0159
455.00,0.0155
454.00,0.0160
453.00,0.0175
452.00,0.0191
451.00,0.0197
450.00,0.0190
