Created as New Dataset,Sample 027 By Administrator Date Thursday, September 04 2025
cm-1,A
4000.00,0.0013
3999.00,0.0013
3998.00,0.0014
3997.00,0.0014
3996.00,0.0014
3995.00,0.0013
3994.00,0.0013
3993.00,0.0013
3992.00,0.0013
3991.00,0.0013
3990.00,0.0013
3989.00,0.0013
3988.00,0.0013
3987.00,0.0012
3986.00,0.0012
3985.00,0.0012
3984.00,0.0012
3983.00,0.0012
3982.00,0.0012
3981.00,0.0012
3980.00,0.0012
3979.00,0.0012
3978.00,0.0012
3977.00,0.0012
3976.00,0.0012
3975.00,0.0012
3974.00,0.0012
3973.00,0.0012
3972.00,0.0012
3971.00,0.0012
3970.00,0.0012
3969.00,0.0012
3968.00,0.0012
3967.00,0.0012
3966.00,0.0012
3965.00,0.0012
3964.00,0.0012
3963.00,0.0012
3962.00,0.0012
3961.00,0.0012
3960.00,0.0012
3959.00,0.0012
3958.00,0.0012
3957.00,0.0012
3956.00,0.0012
3955.00,0.0012
3954.00,0.0012
3953.00,0.0012
3952.00,0.0012
3951.00,0.0012
3950.00,0.0012
3949.00,0.0012
3948.00,0.0012
3947.00,0.0011
3946.00,0.0011
3945.00,0.0011
3944.00,0.0011
3943.00,0.0011
3942.00,0.0011
3941.00,0.0011
3940.00,0.0011
3939.00,0.0011
3938.00,0.0011
3937.00,0.0012
3936.00,0.0012
3935.00,0.0012
3934.00,0.0012
3933.00,0.0012
3932.00,0.0012
3931.00,0.0011
3930.00,0.0011
3929.00,0.0011
3928.00,0.0011
3927.00,0.0011
3926.00,0.0012
3925.00,0.0012
3924.00,0.0012
3923.00,0.0012
3922.00,0.0012
3921.00,0.0012
3920.00,0.0012
3919.00,0.0012
3918.00,0.0012
3917.00,0.0012
3916.00,0.0012
3915.00,0.0011
3914.00,0.0011
3913.00,0.0011
3912.00,0.0011
3911.00,0.0011
3910.00,0.0011
3909.00,0.0011
3908.00,0.0012
3907.00,0.0012
3906.00,0.0012
3905.00,0.0012
3904.00,0.0011
3903.00,0.0011
3902.00,0.0011
3901.00,0.0011
3900.00,0.0011
3899.00,0.0011
3898.00,0.0011
3897.00,0.0011
3896.00,0.0011
3895.00,0.0011
3894.00,0.0011
3893.00,0.0011
3892.00,0.0011
3891.00,0.0011
3890.00,0.0011
3889.00,0.0011
3888.00,0.0011
3887.00,0.0011
3886.00,0.0011
3885.00,0.0011
3884.00,0.0010
3883.00,0.0010
3882.00,0.0010
3881.00,0.0011
3880.00,0.0011
3879.00,0.0011
3878.00,0.0011
3877.00,0.0011
3876.00,0.0010
3875.00,0.0010
3874.00,0.0011
3873.00,0.0011
3872.00,0.0010
3871.00,0.0010
3870.00,0.0010
3869.00,0.0009
3868.00,0.0010
3867.00,0.0010
3866.00,0.0010
3865.00,0.0010
3864.00,0.0010
3863.00,0.0010
3862.00,0.0010
3861.00,0.0010
3860.00,0.0010
3859.00,0.0010
3858.00,0.0010
3857.00,0.0009
3856.00,0.0009
3855.00,0.0009
3854.00,0.0009
3853.00,0.0009
3852.00,0.0009
3851.00,0.0009
3850.00,0.0009
3849.00,0.0009
3848.00,0.0010
3847.00,0.0010
3846.00,0.0010
3845.00,0.0010
3844.00,0.0010
3843.00,0.0010
3842.00,0.0009
3841.00,0.0009
3840.00,0.0009
3839.00,0.0009
3838.00,0.0009
3837.00,0.0009
3836.00,0.0010
3835.00,0.0010
3834.00,0.0010
3833.00,0.0010
3832.00,0.0011
3831.00,0.0011
3830.00,0.0011
3829.00,0.0010
3828.00,0.0010
3827.00,0.0010
3826.00,0.0010
3825.00,0.0010
3824.00,0.0010
3823.00,0.0010
3822.00,0.0010
3821.00,0.0010
3820.00,0.0009
3819.00,0.0009
3818.00,0.0009
3817.00,0.0010
3816.00,0.0010
3815.00,0.0010
3814.00,0.0011
3813.00,0.0011
3812.00,0.0011
3811.00,0.0011
3810.00,0.0011
3809.00,0.0011
3808.00,0.0010
3807.00,0.0010
3806.00,0.0010
3805.00,0.0010
3804.00,0.0010
3803.00,0.0010
3802.00,0.0010
3801.00,0.0010
3800.00,0.0010
3799.00,0.0010
3798.00,0.0010
3797.00,0.0010
3796.00,0.0011
3795.00,0.0011
3794.00,0.0011
3793.00,0.0011
3792.00,0.0011
3791.00,0.0010
3790.00,0.0010
3789.00,0.0010
3788.00,0.0010
3787.00,0.0011
3786.00,0.0010
3785.00,0.0010
3784.00,0.0010
3783.00,0.0010
3782.00,0.0010
3781.00,0.0010
3780.00,0.0010
3779.00,0.0010
3778.00,0.0010
3777.00,0.0010
3776.00,0.0011
3775.00,0.0011
3774.00,0.0011
3773.00,0.0011
3772.00,0.0011
3771.00,0.0011
3770.00,0.0011
3769.00,0.0011
3768.00,0.0011
3767.00,0.0011
3766.00,0.0011
3765.00,0.0010
3764.00,0.0010
3763.00,0.0010
3762.00,0.0011
3761.00,0.0011
3760.00,0.0011
3759.00,0.0011
3758.00,0.0011
3757.00,0.0011
3756.00,0.0011
3755.00,0.0011
3754.00,0.0010
3753.00,0.0010
3752.00,0.0009
3751.00,0.0009
3750.00,0.0009
3749.00,0.0008
3748.00,0.0008
3747.00,0.0008
3746.00,0.0008
3745.00,0.0008
3744.00,0.0008
3743.00,0.0009
3742.00,0.0009
3741.00,0.0009
3740.00,0.0010
3739.00,0.0010
3738.00,0.0009
3737.00,0.0008
3736.00,0.0008
3735.00,0.0008
3734.00,0.0008
3733.00,0.0009
3732.00,0.0009
3731.00,0.0009
3730.00,0.0009
3729.00,0.0009
3728.00,0.0009
3727.00,0.0009
3726.00,0.0009
3725.00,0.0009
3724.00,0.0009
3723.00,0.0008
3722.00,0.0008
3721.00,0.0008
3720.00,0.0008
3719.00,0.0008
3718.00,0.0009
3717.00,0.0009
3716.00,0.0009
3715.00,0.0010
3714.00,0.0010
3713.00,0.0011
3712.00,0.0011
3711.00,0.0010
3710.00,0.0010
3709.00,0.0010
3708.00,0.0009
3707.00,0.0009
3706.00,0.0009
3705.00,0.0009
3704.00,0.0009
3703.00,0.0009
3702.00,0.0010
3701.00,0.0010
3700.00,0.0011
3699.00,0.0011
3698.00,0.0011
3697.00,0.0011
3696.00,0.0011
3695.00,0.0011
3694.00,0.0010
3693.00,0.0010
3692.00,0.0010
3691.00,0.0010
3690.00,0.0010
3689.00,0.0010
3688.00,0.0010
3687.00,0.0010
3686.00,0.0010
3685.00,0.0011
3684.00,0.0011
3683.00,0.0011
3682.00,0.0011
3681.00,0.0011
3680.00,0.0011
3679.00,0.0012
3678.00,0.0012
3677.00,0.0012
3676.00,0.0011
3675.00,0.0011
3674.00,0.0012
3673.00,0.0012
3672.00,0.0012
3671.00,0.0012
3670.00,0.0012
3669.00,0.0012
3668.00,0.0012
3667.00,0.0012
3666.00,0.0012
3665.00,0.0013
3664.00,0.0013
3663.00,0.0014
3662.00,0.0014
3661.00,0.0015
3660.00,0.0015
3659.00,0.0015
3658.00,0.0015
3657.00,0.0014
3656.00,0.0014
3655.00,0.0014
3654.00,0.0014
3653.00,0.0014
3652.00,0.0014
3651.00,0.0014
3650.00,0.0014
3649.00,0.0014
3648.00,0.0014
3647.00,0.0014
3646.00,0.0015
3645.00,0.0015
3644.00,0.0015
3643.00,0.0015
3642.00,0.0016
3641.00,0.0016
3640.00,0.0016
3639.00,0.0016
3638.00,0.0016
3637.00,0.0017
3636.00,0.0017
3635.00,0.0017
3634.00,0.0017
3633.00,0.0017
3632.00,0.0017
3631.00,0.0017
3630.00,0.0017
3629.00,0.0018
3628.00,0.0018
3627.00,0.0018
3626.00,0.0018
3625.00,0.0018
3624.00,0.0018
3623.00,0.0018
3622.00,0.0019
3621.00,0.0019
3620.00,0.0019
3619.00,0.0019
3618.00,0.0019
3617.00,0.0020
3616.00,0.0020
3615.00,0.0021
3614.00,0.0021
3613.00,0.0022
3612.00,0.0023
3611.00,0.0023
3610.00,0.0024
3609.00,0.0025
3608.00,0.0025
3607.00,0.0025
3606.00,0.0025
3605.00,0.0025
3604.00,0.0024
3603.00,0.0025
3602.00,0.0025
3601.00,0.0025
3600.00,0.0026
3599.00,0.0026
3598.00,0.0027
3597.00,0.0027
3596.00,0.0027
3595.00,0.0027
3594.00,0.0028
3593.00,0.0028
3592.00,0.0028
3591.00,0.0029
3590.00,0.0030
3589.00,0.0030
3588.00,0.0031
3587.00,0.0032
3586.00,0.0032
3585.00,0.0033
3584.00,0.0033
3583.00,0.0033
3582.00,0.0033
3581.00,0.0033
3580.00,0.0033
3579.00,0.0034
3578.00,0.0034
3577.00,0.0034
3576.00,0.0035
3575.00,0.0035
3574.00,0.0036
3573.00,0.0036
3572.00,0.0037
3571.00,0.0037
3570.00,0.0037
3569.00,0.0037
3568.00,0.0038
3567.00,0.0038
3566.00,0.0039
3565.00,0.0040
3564.00,0.0040
3563.00,0.0041
3562.00,0.0041
3561.00,0.0041
3560.00,0.0041
3559.00,0.0042
3558.00,0.0042
3557.00,0.0042
3556.00,0.0042
3555.00,0.0042
3554.00,0.0043
3553.00,0.0043
3552.00,0.0043
3551.00,0.0043
3550.00,0.0044
3549.00,0.0044
3548.00,0.0044
3547.00,0.0045
3546.00,0.0045
3545.00,0.0046
3544.00,0.0046
3543.00,0.0047
3542.00,0.0047
3541.00,0.0047
3540.00,0.0047
3539.00,0.0047
3538.00,0.0047
3537.00,0.0047
3536.00,0.0047
3535.00,0.0047
3534.00,0.0047
3533.00,0.0048
3532.00,0.0048
3531.00,0.0048
3530.00,0.0049
3529.00,0.0049
3528.00,0.0049
3527.00,0.0050
3526.00,0.0051
3525.00,0.0051
3524.00,0.0051
3523.00,0.0051
3522.00,0.0051
3521.00,0.0051
3520.00,0.0052
3519.00,0.0052
3518.00,0.0053
3517.00,0.0053
3516.00,0.0053
3515.00,0.0053
3514.00,0.0053
3513.00,0.0053
3512.00,0.0054
3511.00,0.0054
3510.00,0.0055
3509.00,0.0055
3508.00,0.0055
3507.00,0.0055
3506.00,0.0055
3505.00,0.0056
3504.00,0.0056
3503.00,0.0057
3502.00,0.0057
3501.00,0.0058
3500.00,0.0058
3499.00,0.0059
3498.00,0.0059
3497.00,0.0059
3496.00,0.0059
3495.00,0.0059
3494.00,0.0059
3493.00,0.0060
3492.00,0.0060
3491.00,0.0060
3490.00,0.0061
3489.00,0.0061
3488.00,0.0062
3487.00,0.0062
3486.00,0.0062
3485.00,0.0062
3484.00,0.0062
3483.00,0.0062
3482.00,0.0062
3481.00,0.0062
3480.00,0.0063
3479.00,0.0063
3478.00,0.0063
3477.00,0.0064
3476.00,0.0064
3475.00,0.0065
3474.00,0.0065
3473.00,0.0065
3472.00,0.0065
3471.00,0.0065
3470.00,0.0066
3469.00,0.0066
3468.00,0.0066
3467.00,0.0067
3466.00,0.0067
3465.00,0.0068
3464.00,0.0069
3463.00,0.0069
3462.00,0.0070
3461.00,0.0070
3460.00,0.0070
3459.00,0.0070
3458.00,0.0070
3457.00,0.0070
3456.00,0.0070
3455.00,0.0070
3454.00,0.0071
3453.00,0.0071
3452.00,0.0071
3451.00,0.0071
3450.00,0.0071
3449.00,0.0071
3448.00,0.0071
3447.00,0.0071
3446.00,0.0072
3445.00,0.0073
3444.00,0.0073
3443.00,0.0074
3442.00,0.0074
3441.00,0.0075
3440.00,0.0075
3439.00,0.0075
3438.00,0.0075
3437.00,0.0075
3436.00,0.0075
3435.00,0.0075
3434.00,0.0076
3433.00,0.0076
3432.00,0.0076
3431.00,0.0077
3430.00,0.0077
3429.00,0.0077
3428.00,0.0077
3427.00,0.0077
3426.00,0.0077
3425.00,0.0077
3424.00,0.0078
3423.00,0.0078
3422.00,0.0078
3421.00,0.0078
3420.00,0.0078
3419.00,0.0078
3418.00,0.0078
3417.00,0.0079
3416.00,0.0079
3415.00,0.0080
3414.00,0.0081
3413.00,0.0081
3412.00,0.0081
3411.00,0.0081
3410.00,0.0081
3409.00,0.0081
3408.00,0.0081
3407.00,0.0081
3406.00,0.0081
3405.00,0.0081
3404.00,0.0081
3403.00,0.0081
3402.00,0.0082
3401.00,0.0082
3400.00,0.0083
3399.00,0.0083
3398.00,0.0083
3397.00,0.0083
3396.00,0.0083
3395.00,0.0083
3394.00,0.0083
3393.00,0.0083
3392.00,0.0083
3391.00,0.0083
3390.00,0.0083
3389.00,0.0082
3388.00,0.0082
3387.00,0.0083
3386.00,0.0083
3385.00,0.0083
3384.00,0.0083
3383.00,0.0083
3382.00,0.0083
3381.00,0.0084
3380.00,0.0084
3379.00,0.0085
3378.00,0.0085
3377.00,0.0085
3376.00,0.0085
3375.00,0.0085
3374.00,0.0084
3373.00,0.0084
3372.00,0.0084
3371.00,0.0084
3370.00,0.0084
3369.00,0.0084
3368.00,0.0084
3367.00,0.0084
3366.00,0.0084
3365.00,0.0085
3364.00,0.0085
3363.00,0.0085
3362.00,0.0085
3361.00,0.0085
3360.00,0.0085
3359.00,0.0085
3358.00,0.0085
3357.00,0.0085
3356.00,0.0085
3355.00,0.0085
3354.00,0.0086
3353.00,0.0085
3352.00,0.0085
3351.00,0.0085
3350.00,0.0084
3349.00,0.0084
3348.00,0.0084
3347.00,0.0084
3346.00,0.0084
3345.00,0.0084
3344.00,0.0084
3343.00,0.0084
3342.00,0.0084
3341.00,0.0084
3340.00,0.0084
3339.00,0.0084
3338.00,0.0084
3337.00,0.0083
3336.00,0.0083
3335.00,0.0083
3334.00,0.0082
3333.00,0.0082
3332.00,0.0082
3331.00,0.0082
3330.00,0.0082
3329.00,0.0081
3328.00,0.0081
3327.00,0.0081
3326.00,0.0081
3325.00,0.0081
3324.00,0.0082
3323.00,0.0082
3322.00,0.0081
3321.00,0.0081
3320.00,0.0081
3319.00,0.0081
3318.00,0.0081
3317.00,0.0080
3316.00,0.0080
3315.00,0.0079
3314.00,0.0079
3313.00,0.0079
3312.00,0.0079
3311.00,0.0079
3310.00,0.0079
3309.00,0.0079
3308.00,0.0079
3307.00,0.0079
3306.00,0.0080
3305.00,0.0080
3304.00,0.0080
3303.00,0.0079
3302.00,0.0079
3301.00,0.0079
3300.00,0.0079
3299.00,0.0079
3298.00,0.0078
3297.00,0.0078
3296.00,0.0077
3295.00,0.0077
3294.00,0.0077
3293.00,0.0076
3292.00,0.0076
3291.00,0.0075
3290.00,0.0075
3289.00,0.0075
3288.00,0.0075
3287.00,0.0075
3286.00,0.0075
3285.00,0.0075
3284.00,0.0075
3283.00,0.0074
3282.00,0.0074
3281.00,0.0073
3280.00,0.0073
3279.00,0.0073
3278.00,0.0072
3277.00,0.0072
3276.00,0.0072
3275.00,0.0072
3274.00,0.0071
3273.00,0.0071
3272.00,0.0070
3271.00,0.0070
3270.00,0.0070
3269.00,0.0070
3268.00,0.0070
3267.00,0.0070
3266.00,0.0070
3265.00,0.0070
3264.00,0.0069
3263.00,0.0069
3262.00,0.0068
3261.00,0.0067
3260.00,0.0067
3259.00,0.0067
3258.00,0.0066
3257.00,0.0066
3256.00,0.0066
3255.00,0.0066
3254.00,0.0066
3253.00,0.0066
3252.00,0.0065
3251.00,0.0065
3250.00,0.0065
3249.00,0.0065
3248.00,0.0065
3247.00,0.0065
3246.00,0.0065
3245.00,0.0064
3244.00,0.0064
3243.00,0.0064
3242.00,0.0064
3241.00,0.0064
3240.00,0.0064
3239.00,0.0064
3238.00,0.0064
3237.00,0.0063
3236.00,0.0063
3235.00,0.0063
3234.00,0.0063
3233.00,0.0063
3232.00,0.0064
3231.00,0.0064
3230.00,0.0064
3229.00,0.0064
3228.00,0.0064
3227.00,0.0064
3226.00,0.0063
3225.00,0.0063
3224.00,0.0064
3223.00,0.0064
3222.00,0.0064
3221.00,0.0064
3220.00,0.0064
3219.00,0.0064
3218.00,0.0064
3217.00,0.0064
3216.00,0.0064
3215.00,0.0064
3214.00,0.0064
3213.00,0.0064
3212.00,0.0064
3211.00,0.0065
3210.00,0.0066
3209.00,0.0066
3208.00,0.0066
3207.00,0.0066
3206.00,0.0066
3205.00,0.0065
3204.00,0.0065
3203.00,0.0065
3202.00,0.0065
3201.00,0.0065
3200.00,0.0065
3199.00,0.0065
3198.00,0.0065
3197.00,0.0065
3196.00,0.0065
3195.00,0.0065
3194.00,0.0064
3193.00,0.0064
3192.00,0.0065
3191.00,0.0065
3190.00,0.0065
3189.00,0.0064
3188.00,0.0064
3187.00,0.0064
3186.00,0.0063
3185.00,0.0063
3184.00,0.0063
3183.00,0.0062
3182.00,0.0062
3181.00,0.0062
3180.00,0.0062
3179.00,0.0061
3178.00,0.0061
3177.00,0.0060
3176.00,0.0060
3175.00,0.0060
3174.00,0.0059
3173.00,0.0059
3172.00,0.0059
3171.00,0.0059
3170.00,0.0059
3169.00,0.0059
3168.00,0.0058
3167.00,0.0058
3166.00,0.0057
3165.00,0.0057
3164.00,0.0056
3163.00,0.0056
3162.00,0.0056
3161.00,0.0057
3160.00,0.0057
3159.00,0.0057
3158.00,0.0057
3157.00,0.0056
3156.00,0.0056
3155.00,0.0055
3154.00,0.0055
3153.00,0.0055
3152.00,0.0054
3151.00,0.0054
3150.00,0.0055
3149.00,0.0055
3148.00,0.0055
3147.00,0.0055
3146.00,0.0055
3145.00,0.0054
3144.00,0.0054
3143.00,0.0054
3142.00,0.0054
3141.00,0.0053
3140.00,0.0053
3139.00,0.0052
3138.00,0.0052
3137.00,0.0052
3136.00,0.0052
3135.00,0.0052
3134.00,0.0052
3133.00,0.0051
3132.00,0.0051
3131.00,0.0051
3130.00,0.0051
3129.00,0.0050
3128.00,0.0050
3127.00,0.0049
3126.00,0.0049
3125.00,0.0048
3124.00,0.0048
3123.00,0.0047
3122.00,0.0047
3121.00,0.0047
3120.00,0.0046
3119.00,0.0046
3118.00,0.0045
3117.00,0.0045
3116.00,0.0045
3115.00,0.0045
3114.00,0.0045
3113.00,0.0045
3112.00,0.0045
3111.00,0.0045
3110.00,0.0045
3109.00,0.0045
3108.00,0.0045
3107.00,0.0045
3106.00,0.0044
3105.00,0.0044
3104.00,0.0043
3103.00,0.0043
3102.00,0.0042
3101.00,0.0042
3100.00,0.0042
3099.00,0.0043
3098.00,0.0043
3097.00,0.0043
3096.00,0.0043
3095.00,0.0043
3094.00,0.0043
3093.00,0.0042
3092.00,0.0042
3091.00,0.0042
3090.00,0.0042
3089.00,0.0042
3088.00,0.0042
3087.00,0.0041
3086.00,0.0041
3085.00,0.0041
3084.00,0.0041
3083.00,0.0042
3082.00,0.0042
3081.00,0.0042
3080.00,0.0042
3079.00,0.0042
3078.00,0.0042
3077.00,0.0042
3076.00,0.0042
3075.00,0.0042
3074.00,0.0043
3073.00,0.0043
3072.00,0.0043
3071.00,0.0043
3070.00,0.0043
3069.00,0.0043
3068.00,0.0043
3067.00,0.0043
3066.00,0.0043
3065.00,0.0043
3064.00,0.0043
3063.00,0.0044
3062.00,0.0044
3061.00,0.0044
3060.00,0.0044
3059.00,0.0044
3058.00,0.0044
3057.00,0.0044
3056.00,0.0044
3055.00,0.0044
3054.00,0.0045
3053.00,0.0045
3052.00,0.0045
3051.00,0.0045
3050.00,0.0045
3049.00,0.0045
3048.00,0.0045
3047.00,0.0046
3046.00,0.0045
3045.00,0.0045
3044.00,0.0045
3043.00,0.0045
3042.00,0.0046
3041.00,0.0046
3040.00,0.0047
3039.00,0.0048
3038.00,0.0048
3037.00,0.0049
3036.00,0.0049
3035.00,0.0049
3034.00,0.0049
3033.00,0.0049
3032.00,0.0050
3031.00,0.0050
3030.00,0.0051
3029.00,0.0051
3028.00,0.0052
3027.00,0.0052
3026.00,0.0052
3025.00,0.0052
3024.00,0.0052
3023.00,0.0053
3022.00,0.0054
3021.00,0.0055
3020.00,0.0056
3019.00,0.0057
3018.00,0.0058
3017.00,0.0058
3016.00,0.0059
3015.00,0.0059
3014.00,0.0061
3013.00,0.0062
3012.00,0.0064
3011.00,0.0066
3010.00,0.0068
3009.00,0.0069
3008.00,0.0071
3007.00,0.0073
3006.00,0.0075
3005.00,0.0077
3004.00,0.0079
3003.00,0.0082
3002.00,0.0084
3001.00,0.0087
3000.00,0.0090
2999.00,0.0093
2998.00,0.0096
2997.00,0.0099
2996.00,0.0103
2995.00,0.0106
2994.00,0.0110
2993.00,0.0115
2992.00,0.0120
2991.00,0.0126
2990.00,0.0133
2989.00,0.0140
2988.00,0.0148
2987.00,0.0157
2986.00,0.0167
2985.00,0.0178
2984.00,0.0191
2983.00,0.0205
2982.00,0.0221
2981.00,0.0238
2980.00,0.0256
2979.00,0.0277
2978.00,0.0300
2977.00,0.0327
2976.00,0.0358
2975.00,0.0394
2974.00,0.0436
2973.00,0.0483
2972.00,0.0537
2971.00,0.0597
2970.00,0.0664
2969.00,0.0739
2968.00,0.0821
2967.00,0.0911
2966.00,0.1008
2965.00,0.1110
2964.00,0.1215
2963.00,0.1319
2962.00,0.1417
2961.00,0.1505
2960.00,0.1578
2959.00,0.1635
2958.00,0.1676
2957.00,0.1706
2956.00,0.1727
2955.00,0.1745
2954.00,0.1762
2953.00,0.1778
2952.00,0.1788
2951.00,0.1785
2950.00,0.1764
2949.00,0.1719
2948.00,0.1650
2947.00,0.1560
2946.00,0.1457
2945.00,0.1352
2944.00,0.1254
2943.00,0.1172
2942.00,0.1110
2941.00,0.1068
2940.00,0.1048
2939.00,0.1047
2938.00,0.1063
2937.00,0.1094
2936.00,0.1140
2935.00,0.1199
2934.00,0.1269
2933.00,0.1350
2932.00,0.1440
2931.00,0.1536
2930.00,0.1638
2929.00,0.1742
2928.00,0.1846
2927.00,0.1949
2926.00,0.2049
2925.00,0.2146
2924.00,0.2240
2923.00,0.2331
2922.00,0.2420
2921.00,0.2505
2920.00,0.2578
2919.00,0.2634
2918.00,0.2661
2917.00,0.2653
2916.00,0.2607
2915.00,0.2529
2914.00,0.2429
2913.00,0.2320
2912.00,0.2214
2911.00,0.2119
2910.00,0.2037
2909.00,0.1967
2908.00,0.1905
2907.00,0.1848
2906.00,0.1791
2905.00,0.1734
2904.00,0.1675
2903.00,0.1615
2902.00,0.1553
2901.00,0.1492
2900.00,0.1431
2899.00,0.1372
2898.00,0.1316
2897.00,0.1264
2896.00,0.1217
2895.00,0.1175
2894.00,0.1139
2893.00,0.1108
2892.00,0.1082
2891.00,0.1062
2890.00,0.1046
2889.00,0.1034
2888.00,0.1026
2887.00,0.1021
2886.00,0.1019
2885.00,0.1021
2884.00,0.1026
2883.00,0.1036
2882.00,0.1049
2881.00,0.1064
2880.00,0.1080
2879.00,0.1093
2878.00,0.1102
2877.00,0.1104
2876.00,0.1102
2875.00,0.1096
2874.00,0.1092
2873.00,0.1091
2872.00,0.1096
2871.00,0.1105
2870.00,0.1119
2869.00,0.1132
2868.00,0.1139
2867.00,0.1135
2866.00,0.1117
2865.00,0.1082
2864.00,0.1034
2863.00,0.0980
2862.00,0.0928
2861.00,0.0884
2860.00,0.0852
2859.00,0.0834
2858.00,0.0830
2857.00,0.0837
2856.00,0.0855
2855.00,0.0882
2854.00,0.0916
2853.00,0.0954
2852.00,0.0991
2851.00,0.1021
2850.00,0.1038
2849.00,0.1039
2848.00,0.1029
2847.00,0.1015
2846.00,0.1007
2845.00,0.1011
2844.00,0.1030
2843.00,0.1063
2842.00,0.1103
2841.00,0.1144
2840.00,0.1178
2839.00,0.1196
2838.00,0.1192
2837.00,0.1159
2836.00,0.1098
2835.00,0.1014
2834.00,0.0916
2833.00,0.0813
2832.00,0.0714
2831.00,0.0627
2830.00,0.0552
2829.00,0.0490
2828.00,0.0440
2827.00,0.0399
2826.00,0.0366
2825.00,0.0339
2824.00,0.0316
2823.00,0.0296
2822.00,0.0279
2821.00,0.0264
2820.00,0.0251
2819.00,0.0240
2818.00,0.0230
2817.00,0.0221
2816.00,0.0213
2815.00,0.0206
2814.00,0.0200
2813.00,0.0194
2812.00,0.0189
2811.00,0.0184
2810.00,0.0179
2809.00,0.0174
2808.00,0.0169
2807.00,0.0163
2806.00,0.0157
2805.00,0.0150
2804.00,0.0144
2803.00,0.0138
2802.00,0.0133
2801.00,0.0129
2800.00,0.0126
2799.00,0.0123
2798.00,0.0121
2797.00,0.0118
2796.00,0.0116
2795.00,0.0113
2794.00,0.0111
2793.00,0.0107
2792.00,0.0104
2791.00,0.0101
2790.00,0.0098
2789.00,0.0095
2788.00,0.0091
2787.00,0.0088
2786.00,0.0086
2785.00,0.0083
2784.00,0.0081
2783.00,0.0078
2782.00,0.0076
2781.00,0.0074
2780.00,0.0072
2779.00,0.0070
2778.00,0.0069
2777.00,0.0068
2776.00,0.0067
2775.00,0.0066
2774.00,0.0065
2773.00,0.0064
2772.00,0.0063
2771.00,0.0063
2770.00,0.0062
2769.00,0.0062
2768.00,0.0062
2767.00,0.0061
2766.00,0.0061
2765.00,0.0060
2764.00,0.0060
2763.00,0.0059
2762.00,0.0059
2761.00,0.0059
2760.00,0.0059
2759.00,0.0058
2758.00,0.0058
2757.00,0.0058
2756.00,0.0058
2755.00,0.0058
2754.00,0.0057
2753.00,0.0057
2752.00,0.0056
2751.00,0.0056
2750.00,0.0055
2749.00,0.0055
2748.00,0.0056
2747.00,0.0056
2746.00,0.0057
2745.00,0.0057
2744.00,0.0058
2743.00,0.0059
2742.00,0.0060
2741.00,0.0061
2740.00,0.0062
2739.00,0.0063
2738.00,0.0063
2737.00,0.0064
2736.00,0.0066
2735.00,0.0067
2734.00,0.0068
2733.00,0.0070
2732.00,0.0071
2731.00,0.0073
2730.00,0.0075
2729.00,0.0077
2728.00,0.0079
2727.00,0.0081
2726.00,0.0083
2725.00,0.0085
2724.00,0.0087
2723.00,0.0087
2722.00,0.0086
2721.00,0.0084
2720.00,0.0082
2719.00,0.0079
2718.00,0.0076
2717.00,0.0073
2716.00,0.0071
2715.00,0.0068
2714.00,0.0066
2713.00,0.0065
2712.00,0.0063
2711.00,0.0062
2710.00,0.0060
2709.00,0.0059
2708.00,0.0058
2707.00,0.0057
2706.00,0.0056
2705.00,0.0055
2704.00,0.0054
2703.00,0.0053
2702.00,0.0052
2701.00,0.0051
2700.00,0.0051
2699.00,0.0050
2698.00,0.0050
2697.00,0.0050
2696.00,0.0050
2695.00,0.0049
2694.00,0.0049
2693.00,0.0050
2692.00,0.0050
2691.00,0.0050
2690.00,0.0050
2689.00,0.0050
2688.00,0.0050
2687.00,0.0050
2686.00,0.0050
2685.00,0.0050
2684.00,0.0050
2683.00,0.0050
2682.00,0.0050
2681.00,0.0051
2680.00,0.0051
2679.00,0.0051
2678.00,0.0051
2677.00,0.0051
2676.00,0.0051
2675.00,0.0050
2674.00,0.0050
2673.00,0.0049
2672.00,0.0049
2671.00,0.0049
2670.00,0.0049
2669.00,0.0049
2668.00,0.0049
2667.00,0.0049
2666.00,0.0050
2665.00,0.0050
2664.00,0.0050
2663.00,0.0051
2662.00,0.0051
2661.00,0.0052
2660.00,0.0052
2659.00,0.0052
2658.00,0.0052
2657.00,0.0052
2656.00,0.0052
2655.00,0.0051
2654.00,0.0050
2653.00,0.0050
2652.00,0.0049
2651.00,0.0049
2650.00,0.0048
2649.00,0.0048
2648.00,0.0048
2647.00,0.0048
2646.00,0.0047
2645.00,0.0047
2644.00,0.0047
2643.00,0.0046
2642.00,0.0046
2641.00,0.0046
2640.00,0.0045
2639.00,0.0045
2638.00,0.0044
2637.00,0.0043
2636.00,0.0043
2635.00,0.0043
2634.00,0.0043
2633.00,0.0043
2632.00,0.0044
2631.00,0.0043
2630.00,0.0043
2629.00,0.0043
2628.00,0.0043
2627.00,0.0043
2626.00,0.0043
2625.00,0.0044
2624.00,0.0044
2623.00,0.0045
2622.00,0.0045
2621.00,0.0044
2620.00,0.0044
2619.00,0.0044
2618.00,0.0044
2617.00,0.0044
2616.00,0.0044
2615.00,0.0044
2614.00,0.0044
2613.00,0.0043
2612.00,0.0042
2611.00,0.0041
2610.00,0.0040
2609.00,0.0040
2608.00,0.0039
2607.00,0.0039
2606.00,0.0039
2605.00,0.0039
2604.00,0.0039
2603.00,0.0038
2602.00,0.0037
2601.00,0.0036
2600.00,0.0036
2599.00,0.0035
2598.00,0.0035
2597.00,0.0035
2596.00,0.0035
2595.00,0.0035
2594.00,0.0034
2593.00,0.0034
2592.00,0.0034
2591.00,0.0035
2590.00,0.0035
2589.00,0.0036
2588.00,0.0037
2587.00,0.0038
2586.00,0.0040
2585.00,0.0040
2584.00,0.0041
2583.00,0.0040
2582.00,0.0040
2581.00,0.0040
2580.00,0.0039
2579.00,0.0039
2578.00,0.0038
2577.00,0.0037
2576.00,0.0036
2575.00,0.0035
2574.00,0.0034
2573.00,0.0033
2572.00,0.0032
2571.00,0.0030
2570.00,0.0029
2569.00,0.0029
2568.00,0.0029
2567.00,0.0029
2566.00,0.0029
2565.00,0.0029
2564.00,0.0028
2563.00,0.0028
2562.00,0.0027
2561.00,0.0027
2560.00,0.0026
2559.00,0.0026
2558.00,0.0026
2557.00,0.0026
2556.00,0.0026
2555.00,0.0026
2554.00,0.0026
2553.00,0.0026
2552.00,0.0025
2551.00,0.0025
2550.00,0.0025
2549.00,0.0024
2548.00,0.0023
2547.00,0.0023
2546.00,0.0022
2545.00,0.0022
2544.00,0.0021
2543.00,0.0021
2542.00,0.0021
2541.00,0.0021
2540.00,0.0020
2539.00,0.0020
2538.00,0.0020
2537.00,0.0021
2536.00,0.0021
2535.00,0.0021
2534.00,0.0021
2533.00,0.0021
2532.00,0.0021
2531.00,0.0020
2530.00,0.0020
2529.00,0.0019
2528.00,0.0019
2527.00,0.0018
2526.00,0.0018
2525.00,0.0019
2524.00,0.0019
2523.00,0.0018
2522.00,0.0018
2521.00,0.0018
2520.00,0.0017
2519.00,0.0017
2518.00,0.0018
2517.00,0.0018
2516.00,0.0018
2515.00,0.0018
2514.00,0.0017
2513.00,0.0017
2512.00,0.0017
2511.00,0.0017
2510.00,0.0017
2509.00,0.0017
2508.00,0.0016
2507.00,0.0016
2506.00,0.0015
2505.00,0.0015
2504.00,0.0014
2503.00,0.0014
2502.00,0.0013
2501.00,0.0013
2500.00,0.0014
2499.00,0.0014
2498.00,0.0015
2497.00,0.0015
2496.00,0.0015
2495.00,0.0015
2494.00,0.0014
2493.00,0.0014
2492.00,0.0014
2491.00,0.0014
2490.00,0.0014
2489.00,0.0014
2488.00,0.0014
2487.00,0.0014
2486.00,0.0014
2485.00,0.0014
2484.00,0.0014
2483.00,0.0014
2482.00,0.0014
2481.00,0.0015
2480.00,0.0014
2479.00,0.0014
2478.00,0.0014
2477.00,0.0014
2476.00,0.0015
2475.00,0.0014
2474.00,0.0014
2473.00,0.0014
2472.00,0.0013
2471.00,0.0013
2470.00,0.0013
2469.00,0.0013
2468.00,0.0013
2467.00,0.0013
2466.00,0.0013
2465.00,0.0013
2464.00,0.0013
2463.00,0.0013
2462.00,0.0013
2461.00,0.0013
2460.00,0.0013
2459.00,0.0014
2458.00,0.0014
2457.00,0.0014
2456.00,0.0015
2455.00,0.0016
2454.00,0.0017
2453.00,0.0018
2452.00,0.0017
2451.00,0.0017
2450.00,0.0016
2449.00,0.0015
2448.00,0.0015
2447.00,0.0015
2446.00,0.0014
2445.00,0.0014
2444.00,0.0014
2443.00,0.0014
2442.00,0.0015
2441.00,0.0016
2440.00,0.0016
2439.00,0.0016
2438.00,0.0016
2437.00,0.0015
2436.00,0.0015
2435.00,0.0015
2434.00,0.0014
2433.00,0.0014
2432.00,0.0014
2431.00,0.0014
2430.00,0.0014
2429.00,0.0015
2428.00,0.0016
2427.00,0.0016
2426.00,0.0016
2425.00,0.0016
2424.00,0.0015
2423.00,0.0015
2422.00,0.0014
2421.00,0.0014
2420.00,0.0014
2419.00,0.0014
2418.00,0.0014
2417.00,0.0014
2416.00,0.0015
2415.00,0.0014
2414.00,0.0014
2413.00,0.0014
2412.00,0.0014
2411.00,0.0014
2410.00,0.0014
2409.00,0.0014
2408.00,0.0014
2407.00,0.0013
2406.00,0.0013
2405.00,0.0012
2404.00,0.0012
2403.00,0.0012
2402.00,0.0012
2401.00,0.0012
2400.00,0.0012
2399.00,0.0012
2398.00,0.0012
2397.00,0.0012
2396.00,0.0013
2395.00,0.0013
2394.00,0.0013
2393.00,0.0012
2392.00,0.0011
2391.00,0.0011
2390.00,0.0010
2389.00,0.0010
2388.00,0.0010
2387.00,0.0010
2386.00,0.0010
2385.00,0.0010
2384.00,0.0009
2383.00,0.0009
2382.00,0.0008
2381.00,0.0008
2380.00,0.0008
2379.00,0.0008
2378.00,0.0008
2377.00,0.0008
2376.00,0.0008
2375.00,0.0007
2374.00,0.0006
2373.00,0.0004
2372.00,0.0004
2371.00,0.0004
2370.00,0.0005
2369.00,0.0006
2368.00,0.0007
2367.00,0.0007
2366.00,0.0007
2365.00,0.0006
2364.00,0.0006
2363.00,0.0006
2362.00,0.0007
2361.00,0.0007
2360.00,0.0007
2359.00,0.0007
2358.00,0.0007
2357.00,0.0008
2356.00,0.0008
2355.00,0.0008
2354.00,0.0008
2353.00,0.0007
2352.00,0.0007
2351.00,0.0007
2350.00,0.0007
2349.00,0.0008
2348.00,0.0008
2347.00,0.0009
2346.00,0.0009
2345.00,0.0009
2344.00,0.0009
2343.00,0.0009
2342.00,0.0009
2341.00,0.0010
2340.00,0.0010
2339.00,0.0011
2338.00,0.0011
2337.00,0.0011
2336.00,0.0011
2335.00,0.0011
2334.00,0.0011
2333.00,0.0011
2332.00,0.0010
2331.00,0.0010
2330.00,0.0010
2329.00,0.0010
2328.00,0.0012
2327.00,0.0015
2326.00,0.0019
2325.00,0.0023
2324.00,0.0024
2323.00,0.0023
2322.00,0.0020
2321.00,0.0018
2320.00,0.0016
2319.00,0.0015
2318.00,0.0015
2317.00,0.0015
2316.00,0.0015
2315.00,0.0014
2314.00,0.0013
2313.00,0.0012
2312.00,0.0012
2311.00,0.0012
2310.00,0.0012
2309.00,0.0012
2308.00,0.0012
2307.00,0.0012
2306.00,0.0012
2305.00,0.0012
2304.00,0.0012
2303.00,0.0013
2302.00,0.0013
2301.00,0.0013
2300.00,0.0014
2299.00,0.0014
2298.00,0.0015
2297.00,0.0016
2296.00,0.0017
2295.00,0.0017
2294.00,0.0017
2293.00,0.0017
2292.00,0.0018
2291.00,0.0018
2290.00,0.0019
2289.00,0.0020
2288.00,0.0021
2287.00,0.0022
2286.00,0.0023
2285.00,0.0022
2284.00,0.0021
2283.00,0.0019
2282.00,0.0017
2281.00,0.0016
2280.00,0.0016
2279.00,0.0017
2278.00,0.0017
2277.00,0.0017
2276.00,0.0016
2275.00,0.0016
2274.00,0.0017
2273.00,0.0017
2272.00,0.0017
2271.00,0.0017
2270.00,0.0017
2269.00,0.0017
2268.00,0.0017
2267.00,0.0016
2266.00,0.0014
2265.00,0.0014
2264.00,0.0014
2263.00,0.0014
2262.00,0.0015
2261.00,0.0014
2260.00,0.0014
2259.00,0.0014
2258.00,0.0013
2257.00,0.0013
2256.00,0.0013
2255.00,0.0012
2254.00,0.0012
2253.00,0.0012
2252.00,0.0011
2251.00,0.0011
2250.00,0.0011
2249.00,0.0012
2248.00,0.0011
2247.00,0.0010
2246.00,0.0010
2245.00,0.0011
2244.00,0.0013
2243.00,0.0014
2242.00,0.0013
2241.00,0.0012
2240.00,0.0011
2239.00,0.0011
2238.00,0.0011
2237.00,0.0011
2236.00,0.0011
2235.00,0.0011
2234.00,0.0011
2233.00,0.0011
2232.00,0.0011
2231.00,0.0011
2230.00,0.0011
2229.00,0.0011
2228.00,0.0011
2227.00,0.0011
2226.00,0.0012
2225.00,0.0013
2224.00,0.0013
2223.00,0.0012
2222.00,0.0011
2221.00,0.0011
2220.00,0.0012
2219.00,0.0013
2218.00,0.0014
2217.00,0.0013
2216.00,0.0011
2215.00,0.0008
2214.00,0.0005
2213.00,0.0005
2212.00,0.0006
2211.00,0.0008
2210.00,0.0010
2209.00,0.0012
2208.00,0.0013
2207.00,0.0012
2206.00,0.0011
2205.00,0.0011
2204.00,0.0011
2203.00,0.0012
2202.00,0.0012
2201.00,0.0012
2200.00,0.0012
2199.00,0.0011
2198.00,0.0011
2197.00,0.0010
2196.00,0.0011
2195.00,0.0012
2194.00,0.0014
2193.00,0.0014
2192.00,0.0014
2191.00,0.0013
2190.00,0.0012
2189.00,0.0012
2188.00,0.0014
2187.00,0.0015
2186.00,0.0016
2185.00,0.0016
2184.00,0.0016
2183.00,0.0015
2182.00,0.0014
2181.00,0.0013
2180.00,0.0013
2179.00,0.0013
2178.00,0.0013
2177.00,0.0012
2176.00,0.0011
2175.00,0.0010
2174.00,0.0008
2173.00,0.0007
2172.00,0.0006
2171.00,0.0007
2170.00,0.0010
2169.00,0.0013
2168.00,0.0016
2167.00,0.0019
2166.00,0.0021
2165.00,0.0022
2164.00,0.0024
2163.00,0.0025
2162.00,0.0025
2161.00,0.0019
2160.00,0.0006
2159.00,-0.0010
2158.00,-0.0025
2157.00,-0.0032
2156.00,-0.0031
2155.00,-0.0027
2154.00,-0.0021
2153.00,-0.0016
2152.00,-0.0011
2151.00,-0.0009
2150.00,-0.0008
2149.00,-0.0009
2148.00,-0.0010
2147.00,-0.0010
2146.00,-0.0011
2145.00,-0.0011
2144.00,-0.0011
2143.00,-0.0010
2142.00,-0.0008
2141.00,-0.0007
2140.00,-0.0006
2139.00,-0.0006
2138.00,-0.0007
2137.00,-0.0008
2136.00,-0.0010
2135.00,-0.0012
2134.00,-0.0012
2133.00,-0.0011
2132.00,-0.0009
2131.00,-0.0008
2130.00,-0.0007
2129.00,-0.0006
2128.00,-0.0006
2127.00,-0.0005
2126.00,-0.0004
2125.00,-0.0002
2124.00,-0.0001
2123.00,0.0000
2122.00,0.0001
2121.00,0.0002
2120.00,0.0004
2119.00,0.0004
2118.00,0.0004
2117.00,0.0004
2116.00,0.0004
2115.00,0.0005
2114.00,0.0005
2113.00,0.0006
2112.00,0.0006
2111.00,0.0006
2110.00,0.0006
2109.00,0.0006
2108.00,0.0006
2107.00,0.0006
2106.00,0.0006
2105.00,0.0006
2104.00,0.0006
2103.00,0.0006
2102.00,0.0005
2101.00,0.0004
2100.00,0.0004
2099.00,0.0003
2098.00,0.0002
2097.00,0.0001
2096.00,0.0000
2095.00,-0.0000
2094.00,-0.0001
2093.00,-0.0000
2092.00,0.0001
2091.00,0.0002
2090.00,0.0004
2089.00,0.0005
2088.00,0.0006
2087.00,0.0006
2086.00,0.0006
2085.00,0.0005
2084.00,0.0005
2083.00,0.0006
2082.00,0.0006
2081.00,0.0007
2080.00,0.0007
2079.00,0.0006
2078.00,0.0006
2077.00,0.0006
2076.00,0.0006
2075.00,0.0005
2074.00,0.0003
2073.00,0.0001
2072.00,0.0001
2071.00,0.0002
2070.00,0.0003
2069.00,0.0004
2068.00,0.0005
2067.00,0.0005
2066.00,0.0004
2065.00,0.0003
2064.00,0.0003
2063.00,0.0002
2062.00,0.0003
2061.00,0.0004
2060.00,0.0005
2059.00,0.0006
2058.00,0.0006
2057.00,0.0006
2056.00,0.0007
2055.00,0.0006
2054.00,0.0007
2053.00,0.0010
2052.00,0.0014
2051.00,0.0017
2050.00,0.0016
2049.00,0.0014
2048.00,0.0011
2047.00,0.0009
2046.00,0.0006
2045.00,0.0003
2044.00,0.0001
2043.00,-0.0000
2042.00,0.0001
2041.00,0.0005
2040.00,0.0008
2039.00,0.0011
2038.00,0.0013
2037.00,0.0012
2036.00,0.0009
2035.00,0.0006
2034.00,0.0004
2033.00,0.0002
2032.00,-0.0001
2031.00,-0.0005
2030.00,-0.0008
2029.00,-0.0010
2028.00,-0.0010
2027.00,-0.0009
2026.00,-0.0008
2025.00,-0.0009
2024.00,-0.0010
2023.00,-0.0011
2022.00,-0.0012
2021.00,-0.0012
2020.00,-0.0012
2019.00,-0.0011
2018.00,-0.0010
2017.00,-0.0009
2016.00,-0.0008
2015.00,-0.0007
2014.00,-0.0004
2013.00,-0.0001
2012.00,0.0002
2011.00,0.0002
2010.00,-0.0000
2009.00,-0.0005
2008.00,-0.0010
2007.00,-0.0014
2006.00,-0.0017
2005.00,-0.0016
2004.00,-0.0014
2003.00,-0.0011
2002.00,-0.0008
2001.00,-0.0007
2000.00,-0.0007
1999.00,-0.0008
1998.00,-0.0009
1997.00,-0.0009
1996.00,-0.0009
1995.00,-0.0008
1994.00,-0.0006
1993.00,-0.0004
1992.00,-0.0003
1991.00,-0.0004
1990.00,-0.0004
1989.00,-0.0004
1988.00,-0.0003
1987.00,-0.0003
1986.00,-0.0002
1985.00,-0.0000
1984.00,0.0003
1983.00,0.0007
1982.00,0.0011
1981.00,0.0013
1980.00,0.0013
1979.00,0.0009
1978.00,0.0001
1977.00,-0.0004
1976.00,-0.0007
1975.00,-0.0008
1974.00,-0.0008
1973.00,-0.0008
1972.00,-0.0009
1971.00,-0.0011
1970.00,-0.0013
1969.00,-0.0013
1968.00,-0.0013
1967.00,-0.0012
1966.00,-0.0010
1965.00,-0.0007
1964.00,-0.0005
1963.00,-0.0004
1962.00,-0.0005
1961.00,-0.0008
1960.00,-0.0012
1959.00,-0.0015
1958.00,-0.0017
1957.00,-0.0017
1956.00,-0.0015
1955.00,-0.0013
1954.00,-0.0011
1953.00,-0.0011
1952.00,-0.0011
1951.00,-0.0010
1950.00,-0.0010
1949.00,-0.0009
1948.00,-0.0008
1947.00,-0.0009
1946.00,-0.0010
1945.00,-0.0010
1944.00,-0.0011
1943.00,-0.0011
1942.00,-0.0010
1941.00,-0.0008
1940.00,-0.0006
1939.00,-0.0005
1938.00,-0.0005
1937.00,-0.0004
1936.00,-0.0002
1935.00,-0.0001
1934.00,-0.0002
1933.00,-0.0003
1932.00,-0.0004
1931.00,-0.0004
1930.00,-0.0004
1929.00,-0.0002
1928.00,-0.0001
1927.00,-0.0000
1926.00,0.0000
1925.00,0.0000
1924.00,0.0000
1923.00,-0.0000
1922.00,-0.0001
1921.00,0.0000
1920.00,0.0002
1919.00,0.0004
1918.00,0.0005
1917.00,0.0005
1916.00,0.0005
1915.00,0.0003
1914.00,0.0002
1913.00,0.0002
1912.00,0.0002
1911.00,0.0003
1910.00,0.0004
1909.00,0.0004
1908.00,0.0004
1907.00,0.0003
1906.00,0.0002
1905.00,0.0002
1904.00,0.0002
1903.00,0.0003
1902.00,0.0003
1901.00,0.0004
1900.00,0.0004
1899.00,0.0004
1898.00,0.0004
1897.00,0.0004
1896.00,0.0005
1895.00,0.0005
1894.00,0.0004
1893.00,0.0004
1892.00,0.0004
1891.00,0.0004
1890.00,0.0004
1889.00,0.0005
1888.00,0.0005
1887.00,0.0005
1886.00,0.0005
1885.00,0.0005
1884.00,0.0005
1883.00,0.0005
1882.00,0.0006
1881.00,0.0006
1880.00,0.0006
1879.00,0.0006
1878.00,0.0005
1877.00,0.0005
1876.00,0.0005
1875.00,0.0005
1874.00,0.0004
1873.00,0.0004
1872.00,0.0004
1871.00,0.0004
1870.00,0.0004
1869.00,0.0005
1868.00,0.0006
1867.00,0.0006
1866.00,0.0006
1865.00,0.0006
1864.00,0.0006
1863.00,0.0006
1862.00,0.0006
1861.00,0.0006
1860.00,0.0005
1859.00,0.0005
1858.00,0.0006
1857.00,0.0007
1856.00,0.0007
1855.00,0.0007
1854.00,0.0006
1853.00,0.0005
1852.00,0.0005
1851.00,0.0006
1850.00,0.0006
1849.00,0.0007
1848.00,0.0008
1847.00,0.0008
1846.00,0.0008
1845.00,0.0008
1844.00,0.0007
1843.00,0.0006
1842.00,0.0006
1841.00,0.0006
1840.00,0.0006
1839.00,0.0006
1838.00,0.0006
1837.00,0.0006
1836.00,0.0006
1835.00,0.0006
1834.00,0.0007
1833.00,0.0007
1832.00,0.0007
1831.00,0.0007
1830.00,0.0007
1829.00,0.0008
1828.00,0.0009
1827.00,0.0010
1826.00,0.0010
1825.00,0.0010
1824.00,0.0010
1823.00,0.0009
1822.00,0.0009
1821.00,0.0008
1820.00,0.0008
1819.00,0.0007
1818.00,0.0006
1817.00,0.0005
1816.00,0.0005
1815.00,0.0006
1814.00,0.0006
1813.00,0.0007
1812.00,0.0007
1811.00,0.0007
1810.00,0.0007
1809.00,0.0007
1808.00,0.0008
1807.00,0.0009
1806.00,0.0010
1805.00,0.0010
1804.00,0.0010
1803.00,0.0010
1802.00,0.0010
1801.00,0.0011
1800.00,0.0012
1799.00,0.0012
1798.00,0.0013
1797.00,0.0013
1796.00,0.0012
1795.00,0.0012
1794.00,0.0012
1793.00,0.0012
1792.00,0.0012
1791.00,0.0013
1790.00,0.0013
1789.00,0.0014
1788.00,0.0014
1787.00,0.0014
1786.00,0.0014
1785.00,0.0014
1784.00,0.0013
1783.00,0.0012
1782.00,0.0012
1781.00,0.0013
1780.00,0.0013
1779.00,0.0013
1778.00,0.0013
1777.00,0.0013
1776.00,0.0014
1775.00,0.0014
1774.00,0.0014
1773.00,0.0015
1772.00,0.0016
1771.00,0.0016
1770.00,0.0016
1769.00,0.0017
1768.00,0.0017
1767.00,0.0017
1766.00,0.0017
1765.00,0.0017
1764.00,0.0017
1763.00,0.0017
1762.00,0.0017
1761.00,0.0018
1760.00,0.0019
1759.00,0.0020
1758.00,0.0021
1757.00,0.0021
1756.00,0.0022
1755.00,0.0022
1754.00,0.0023
1753.00,0.0024
1752.00,0.0025
1751.00,0.0026
1750.00,0.0026
1749.00,0.0028
1748.00,0.0029
1747.00,0.0030
1746.00,0.0030
1745.00,0.0031
1744.00,0.0031
1743.00,0.0031
1742.00,0.0032
1741.00,0.0032
1740.00,0.0033
1739.00,0.0033
1738.00,0.0033
1737.00,0.0033
1736.00,0.0033
1735.00,0.0033
1734.00,0.0033
1733.00,0.0033
1732.00,0.0033
1731.00,0.0033
1730.00,0.0033
1729.00,0.0033
1728.00,0.0033
1727.00,0.0033
1726.00,0.0033
1725.00,0.0033
1724.00,0.0033
1723.00,0.0034
1722.00,0.0034
1721.00,0.0033
1720.00,0.0033
1719.00,0.0032
1718.00,0.0031
1717.00,0.0031
1716.00,0.0032
1715.00,0.0032
1714.00,0.0032
1713.00,0.0032
1712.00,0.0032
1711.00,0.0032
1710.00,0.0032
1709.00,0.0032
1708.00,0.0032
1707.00,0.0033
1706.00,0.0033
1705.00,0.0034
1704.00,0.0035
1703.00,0.0036
1702.00,0.0036
1701.00,0.0037
1700.00,0.0038
1699.00,0.0038
1698.00,0.0039
1697.00,0.0039
1696.00,0.0041
1695.00,0.0041
1694.00,0.0042
1693.00,0.0042
1692.00,0.0043
1691.00,0.0043
1690.00,0.0045
1689.00,0.0047
1688.00,0.0048
1687.00,0.0049
1686.00,0.0049
1685.00,0.0050
1684.00,0.0050
1683.00,0.0051
1682.00,0.0052
1681.00,0.0054
1680.00,0.0056
1679.00,0.0057
1678.00,0.0058
1677.00,0.0059
1676.00,0.0060
1675.00,0.0062
1674.00,0.0063
1673.00,0.0063
1672.00,0.0064
1671.00,0.0064
1670.00,0.0065
1669.00,0.0066
1668.00,0.0068
1667.00,0.0069
1666.00,0.0070
1665.00,0.0071
1664.00,0.0071
1663.00,0.0072
1662.00,0.0073
1661.00,0.0074
1660.00,0.0076
1659.00,0.0077
1658.00,0.0078
1657.00,0.0079
1656.00,0.0080
1655.00,0.0081
1654.00,0.0083
1653.00,0.0085
1652.00,0.0087
1651.00,0.0087
1650.00,0.0087
1649.00,0.0089
1648.00,0.0091
1647.00,0.0094
1646.00,0.0095
1645.00,0.0095
1644.00,0.0096
1643.00,0.0096
1642.00,0.0097
1641.00,0.0098
1640.00,0.0099
1639.00,0.0100
1638.00,0.0101
1637.00,0.0103
1636.00,0.0104
1635.00,0.0104
1634.00,0.0104
1633.00,0.0104
1632.00,0.0104
1631.00,0.0104
1630.00,0.0104
1629.00,0.0104
1628.00,0.0104
1627.00,0.0104
1626.00,0.0104
1625.00,0.0104
1624.00,0.0104
1623.00,0.0103
1622.00,0.0103
1621.00,0.0103
1620.00,0.0102
1619.00,0.0102
1618.00,0.0101
1617.00,0.0102
1616.00,0.0102
1615.00,0.0101
1614.00,0.0101
1613.00,0.0100
1612.00,0.0100
1611.00,0.0099
1610.00,0.0099
1609.00,0.0099
1608.00,0.0099
1607.00,0.0099
1606.00,0.0099
1605.00,0.0100
1604.00,0.0101
1603.00,0.0102
1602.00,0.0103
1601.00,0.0104
1600.00,0.0105
1599.00,0.0105
1598.00,0.0106
1597.00,0.0107
1596.00,0.0109
1595.00,0.0112
1594.00,0.0114
1593.00,0.0117
1592.00,0.0121
1591.00,0.0125
1590.00,0.0130
1589.00,0.0136
1588.00,0.0143
1587.00,0.0151
1586.00,0.0161
1585.00,0.0173
1584.00,0.0186
1583.00,0.0201
1582.00,0.0217
1581.00,0.0231
1580.00,0.0244
1579.00,0.0253
1578.00,0.0257
1577.00,0.0258
1576.00,0.0254
1575.00,0.0246
1574.00,0.0238
1573.00,0.0228
1572.00,0.0219
1571.00,0.0207
1570.00,0.0193
1569.00,0.0180
1568.00,0.0171
1567.00,0.0164
1566.00,0.0158
1565.00,0.0153
1564.00,0.0149
1563.00,0.0146
1562.00,0.0144
1561.00,0.0143
1560.00,0.0143
1559.00,0.0144
1558.00,0.0146
1557.00,0.0148
1556.00,0.0151
1555.00,0.0154
1554.00,0.0158
1553.00,0.0162
1552.00,0.0168
1551.00,0.0175
1550.00,0.0186
1549.00,0.0197
1548.00,0.0208
1547.00,0.0220
1546.00,0.0236
1545.00,0.0253
1544.00,0.0271
1543.00,0.0286
1542.00,0.0297
1541.00,0.0300
1540.00,0.0291
1539.00,0.0274
1538.00,0.0256
1537.00,0.0241
1536.00,0.0226
1535.00,0.0209
1534.00,0.0189
1533.00,0.0170
1532.00,0.0156
1531.00,0.0147
1530.00,0.0140
1529.00,0.0134
1528.00,0.0129
1527.00,0.0124
1526.00,0.0120
1525.00,0.0116
1524.00,0.0114
1523.00,0.0112
1522.00,0.0110
1521.00,0.0108
1520.00,0.0108
1519.00,0.0107
1518.00,0.0107
1517.00,0.0107
1516.00,0.0108
1515.00,0.0107
1514.00,0.0107
1513.00,0.0107
1512.00,0.0107
1511.00,0.0107
1510.00,0.0107
1509.00,0.0108
1508.00,0.0109
1507.00,0.0108
1506.00,0.0107
1505.00,0.0107
1504.00,0.0109
1503.00,0.0111
1502.00,0.0113
1501.00,0.0115
1500.00,0.0118
1499.00,0.0121
1498.00,0.0123
1497.00,0.0128
1496.00,0.0132
1495.00,0.0135
1494.00,0.0138
1493.00,0.0142
1492.00,0.0148
1491.00,0.0154
1490.00,0.0161
1489.00,0.0170
1488.00,0.0179
1487.00,0.0188
1486.00,0.0198
1485.00,0.0210
1484.00,0.0224
1483.00,0.0240
1482.00,0.0258
1481.00,0.0280
1480.00,0.0302
1479.00,0.0323
1478.00,0.0346
1477.00,0.0372
1476.00,0.0403
1475.00,0.0436
1474.00,0.0477
1473.00,0.0532
1472.00,0.0593
1471.00,0.0649
1470.00,0.0702
1469.00,0.0758
1468.00,0.0819
1467.00,0.0885
1466.00,0.0960
1465.00,0.1040
1464.00,0.1108
1463.00,0.1153
1462.00,0.1179
1461.00,0.1196
1460.00,0.1208
1459.00,0.1216
1458.00,0.1226
1457.00,0.1236
1456.00,0.1239
1455.00,0.1233
1454.00,0.1223
1453.00,0.1208
1452.00,0.1186
1451.00,0.1152
1450.00,0.1106
1449.00,0.1040
1448.00,0.0953
1447.00,0.0860
1446.00,0.0775
1445.00,0.0701
1444.00,0.0639
1443.00,0.0587
1442.00,0.0549
1441.00,0.0522
1440.00,0.0506
1439.00,0.0499
1438.00,0.0500
1437.00,0.0501
1436.00,0.0492
1435.00,0.0470
1434.00,0.0437
1433.00,0.0398
1432.00,0.0357
1431.00,0.0319
1430.00,0.0289
1429.00,0.0267
1428.00,0.0252
1427.00,0.0243
1426.00,0.0238
1425.00,0.0234
1424.00,0.0230
1423.00,0.0229
1422.00,0.0228
1421.00,0.0226
1420.00,0.0223
1419.00,0.0219
1418.00,0.0213
1417.00,0.0207
1416.00,0.0201
1415.00,0.0197
1414.00,0.0194
1413.00,0.0190
1412.00,0.0186
1411.00,0.0183
1410.00,0.0180
1409.00,0.0177
1408.00,0.0174
1407.00,0.0171
1406.00,0.0169
1405.00,0.0167
1404.00,0.0164
1403.00,0.0163
1402.00,0.0163
1401.00,0.0162
1400.00,0.0161
1399.00,0.0161
1398.00,0.0163
1397.00,0.0163
1396.00,0.0164
1395.00,0.0166
1394.00,0.0169
1393.00,0.0172
1392.00,0.0176
1391.00,0.0183
1390.00,0.0193
1389.00,0.0206
1388.00,0.0226
1387.00,0.0256
1386.00,0.0295
1385.00,0.0348
1384.00,0.0421
1383.00,0.0524
1382.00,0.0662
1381.00,0.0837
1380.00,0.1047
1379.00,0.1276
1378.00,0.1486
1377.00,0.1625
1376.00,0.1656
1375.00,0.1559
1374.00,0.1361
1373.00,0.1133
1372.00,0.0927
1371.00,0.0759
1370.00,0.0625
1369.00,0.0521
1368.00,0.0448
1367.00,0.0403
1366.00,0.0378
1365.00,0.0367
1364.00,0.0368
1363.00,0.0379
1362.00,0.0396
1361.00,0.0414
1360.00,0.0427
1359.00,0.0431
1358.00,0.0422
1357.00,0.0401
1356.00,0.0371
1355.00,0.0338
1354.00,0.0305
1353.00,0.0277
1352.00,0.0253
1351.00,0.0234
1350.00,0.0219
1349.00,0.0206
1348.00,0.0195
1347.00,0.0185
1346.00,0.0177
1345.00,0.0170
1344.00,0.0164
1343.00,0.0159
1342.00,0.0155
1341.00,0.0153
1340.00,0.0151
1339.00,0.0149
1338.00,0.0148
1337.00,0.0147
1336.00,0.0148
1335.00,0.0149
1334.00,0.0151
1333.00,0.0154
1332.00,0.0157
1331.00,0.0160
1330.00,0.0160
1329.00,0.0159
1328.00,0.0156
1327.00,0.0152
1326.00,0.0147
1325.00,0.0141
1324.00,0.0136
1323.00,0.0132
1322.00,0.0130
1321.00,0.0127
1320.00,0.0126
1319.00,0.0124
1318.00,0.0122
1317.00,0.0120
1316.00,0.0118
1315.00,0.0117
1314.00,0.0116
1313.00,0.0117
1312.00,0.0118
1311.00,0.0120
1310.00,0.0125
1309.00,0.0133
1308.00,0.0144
1307.00,0.0159
1306.00,0.0173
1305.00,0.0182
1304.00,0.0184
1303.00,0.0179
1302.00,0.0171
1301.00,0.0164
1300.00,0.0159
1299.00,0.0156
1298.00,0.0155
1297.00,0.0154
1296.00,0.0151
1295.00,0.0148
1294.00,0.0143
1293.00,0.0138
1292.00,0.0133
1291.00,0.0128
1290.00,0.0124
1289.00,0.0121
1288.00,0.0118
1287.00,0.0115
1286.00,0.0113
1285.00,0.0110
1284.00,0.0108
1283.00,0.0107
1282.00,0.0106
1281.00,0.0105
1280.00,0.0105
1279.00,0.0105
1278.00,0.0105
1277.00,0.0104
1276.00,0.0104
1275.00,0.0103
1274.00,0.0103
1273.00,0.0104
1272.00,0.0104
1271.00,0.0105
1270.00,0.0107
1269.00,0.0108
1268.00,0.0110
1267.00,0.0113
1266.00,0.0116
1265.00,0.0120
1264.00,0.0125
1263.00,0.0129
1262.00,0.0134
1261.00,0.0139
1260.00,0.0146
1259.00,0.0155
1258.00,0.0164
1257.00,0.0172
1256.00,0.0174
1255.00,0.0172
1254.00,0.0164
1253.00,0.0154
1252.00,0.0144
1251.00,0.0136
1250.00,0.0130
1249.00,0.0125
1248.00,0.0122
1247.00,0.0119
1246.00,0.0117
1245.00,0.0116
1244.00,0.0114
1243.00,0.0113
1242.00,0.0113
1241.00,0.0114
1240.00,0.0114
1239.00,0.0115
1238.00,0.0116
1237.00,0.0117
1236.00,0.0118
1235.00,0.0120
1234.00,0.0121
1233.00,0.0122
1232.00,0.0123
1231.00,0.0124
1230.00,0.0125
1229.00,0.0127
1228.00,0.0128
1227.00,0.0130
1226.00,0.0132
1225.00,0.0135
1224.00,0.0139
1223.00,0.0142
1222.00,0.0146
1221.00,0.0149
1220.00,0.0150
1219.00,0.0151
1218.00,0.0149
1217.00,0.0147
1216.00,0.0145
1215.00,0.0143
1214.00,0.0141
1213.00,0.0139
1212.00,0.0136
1211.00,0.0134
1210.00,0.0132
1209.00,0.0130
1208.00,0.0129
1207.00,0.0128
1206.00,0.0128
1205.00,0.0128
1204.00,0.0128
1203.00,0.0128
1202.00,0.0128
1201.00,0.0129
1200.00,0.0129
1199.00,0.0130
1198.00,0.0131
1197.00,0.0132
1196.00,0.0134
1195.00,0.0135
1194.00,0.0136
1193.00,0.0136
1192.00,0.0136
1191.00,0.0136
1190.00,0.0136
1189.00,0.0136
1188.00,0.0136
1187.00,0.0137
1186.00,0.0137
1185.00,0.0138
1184.00,0.0139
1183.00,0.0141
1182.00,0.0143
1181.00,0.0145
1180.00,0.0148
1179.00,0.0153
1178.00,0.0159
1177.00,0.0168
1176.00,0.0180
1175.00,0.0197
1174.00,0.0219
1173.00,0.0247
1172.00,0.0281
1171.00,0.0318
1170.00,0.0355
1169.00,0.0385
1168.00,0.0403
1167.00,0.0405
1166.00,0.0393
1165.00,0.0373
1164.00,0.0348
1163.00,0.0324
1162.00,0.0302
1161.00,0.0285
1160.00,0.0272
1159.00,0.0262
1158.00,0.0254
1157.00,0.0248
1156.00,0.0242
1155.00,0.0238
1154.00,0.0235
1153.00,0.0231
1152.00,0.0226
1151.00,0.0219
1150.00,0.0211
1149.00,0.0202
1148.00,0.0192
1147.00,0.0183
1146.00,0.0175
1145.00,0.0167
1144.00,0.0160
1143.00,0.0155
1142.00,0.0151
1141.00,0.0147
1140.00,0.0143
1139.00,0.0140
1138.00,0.0137
1137.00,0.0136
1136.00,0.0135
1135.00,0.0134
1134.00,0.0133
1133.00,0.0133
1132.00,0.0134
1131.00,0.0136
1130.00,0.0138
1129.00,0.0139
1128.00,0.0140
1127.00,0.0140
1126.00,0.0139
1125.00,0.0139
1124.00,0.0137
1123.00,0.0136
1122.00,0.0136
1121.00,0.0135
1120.00,0.0135
1119.00,0.0136
1118.00,0.0137
1117.00,0.0138
1116.00,0.0140
1115.00,0.0142
1114.00,0.0145
1113.00,0.0147
1112.00,0.0148
1111.00,0.0150
1110.00,0.0151
1109.00,0.0152
1108.00,0.0154
1107.00,0.0158
1106.00,0.0162
1105.00,0.0167
1104.00,0.0171
1103.00,0.0173
1102.00,0.0173
1101.00,0.0170
1100.00,0.0166
1099.00,0.0160
1098.00,0.0154
1097.00,0.0148
1096.00,0.0144
1095.00,0.0139
1094.00,0.0136
1093.00,0.0133
1092.00,0.0130
1091.00,0.0128
1090.00,0.0127
1089.00,0.0126
1088.00,0.0125
1087.00,0.0124
1086.00,0.0124
1085.00,0.0124
1084.00,0.0124
1083.00,0.0123
1082.00,0.0122
1081.00,0.0120
1080.00,0.0118
1079.00,0.0116
1078.00,0.0116
1077.00,0.0115
1076.00,0.0114
1075.00,0.0114
1074.00,0.0113
1073.00,0.0113
1072.00,0.0113
1071.00,0.0113
1070.00,0.0112
1069.00,0.0111
1068.00,0.0110
1067.00,0.0110
1066.00,0.0111
1065.00,0.0112
1064.00,0.0113
1063.00,0.0115
1062.00,0.0116
1061.00,0.0116
1060.00,0.0117
1059.00,0.0118
1058.00,0.0120
1057.00,0.0122
1056.00,0.0125
1055.00,0.0128
1054.00,0.0131
1053.00,0.0134
1052.00,0.0137
1051.00,0.0142
1050.00,0.0147
1049.00,0.0152
1048.00,0.0159
1047.00,0.0165
1046.00,0.0170
1045.00,0.0174
1044.00,0.0176
1043.00,0.0176
1042.00,0.0174
1041.00,0.0171
1040.00,0.0169
1039.00,0.0169
1038.00,0.0169
1037.00,0.0169
1036.00,0.0169
1035.00,0.0167
1034.00,0.0164
1033.00,0.0160
1032.00,0.0156
1031.00,0.0152
1030.00,0.0149
1029.00,0.0146
1028.00,0.0145
1027.00,0.0145
1026.00,0.0146
1025.00,0.0147
1024.00,0.0149
1023.00,0.0152
1022.00,0.0155
1021.00,0.0158
1020.00,0.0160
1019.00,0.0162
1018.00,0.0163
1017.00,0.0165
1016.00,0.0168
1015.00,0.0172
1014.00,0.0177
1013.00,0.0181
1012.00,0.0183
1011.00,0.0183
1010.00,0.0182
1009.00,0.0180
1008.00,0.0180
1007.00,0.0183
1006.00,0.0189
1005.00,0.0199
1004.00,0.0216
1003.00,0.0241
1002.00,0.0276
1001.00,0.0322
1000.00,0.0371
999.00,0.0414
998.00,0.0438
997.00,0.0434
996.00,0.0403
995.00,0.0355
994.00,0.0304
993.00,0.0258
992.00,0.0222
991.00,0.0196
990.00,0.0178
989.00,0.0164
988.00,0.0155
987.00,0.0150
986.00,0.0148
985.00,0.0148
984.00,0.0151
983.00,0.0158
982.00,0.0169
981.00,0.0185
980.00,0.0208
979.00,0.0239
978.00,0.0278
977.00,0.0326
976.00,0.0380
975.00,0.0435
974.00,0.0478
973.00,0.0497
972.00,0.0484
971.00,0.0441
970.00,0.0379
969.00,0.0316
968.00,0.0262
967.00,0.0221
966.00,0.0191
965.00,0.0170
964.00,0.0154
963.00,0.0143
962.00,0.0134
961.00,0.0127
960.00,0.0122
959.00,0.0118
958.00,0.0115
957.00,0.0112
956.00,0.0111
955.00,0.0109
954.00,0.0107
953.00,0.0105
952.00,0.0103
951.00,0.0100
950.00,0.0099
949.00,0.0098
948.00,0.0097
947.00,0.0097
946.00,0.0098
945.00,0.0099
944.00,0.0102
943.00,0.0106
942.00,0.0110
941.00,0.0112
940.00,0.0112
939.00,0.0109
938.00,0.0105
937.00,0.0100
936.00,0.0095
935.00,0.0091
934.00,0.0088
933.00,0.0086
932.00,0.0084
931.00,0.0083
930.00,0.0081
929.00,0.0080
928.00,0.0078
927.00,0.0077
926.00,0.0077
925.00,0.0077
924.00,0.0078
923.00,0.0079
922.00,0.0078
921.00,0.0076
920.00,0.0074
919.00,0.0073
918.00,0.0073
917.00,0.0073
916.00,0.0074
915.00,0.0075
914.00,0.0077
913.00,0.0078
912.00,0.0079
911.00,0.0080
910.00,0.0082
909.00,0.0085
908.00,0.0088
907.00,0.0093
906.00,0.0100
905.00,0.0109
904.00,0.0120
903.00,0.0134
902.00,0.0150
901.00,0.0164
900.00,0.0173
899.00,0.0175
898.00,0.0169
897.00,0.0157
896.00,0.0140
895.00,0.0125
894.00,0.0112
893.00,0.0103
892.00,0.0097
891.00,0.0094
890.00,0.0093
889.00,0.0092
888.00,0.0090
887.00,0.0088
886.00,0.0086
885.00,0.0086
884.00,0.0088
883.00,0.0090
882.00,0.0092
881.00,0.0094
880.00,0.0095
879.00,0.0096
878.00,0.0096
877.00,0.0096
876.00,0.0097
875.00,0.0097
874.00,0.0097
873.00,0.0096
872.00,0.0094
871.00,0.0092
870.00,0.0090
869.00,0.0090
868.00,0.0090
867.00,0.0090
866.00,0.0090
865.00,0.0090
864.00,0.0092
863.00,0.0094
862.00,0.0096
861.00,0.0097
860.00,0.0097
859.00,0.0098
858.00,0.0100
857.00,0.0103
856.00,0.0105
855.00,0.0107
854.00,0.0110
853.00,0.0113
852.00,0.0116
851.00,0.0120
850.00,0.0127
849.00,0.0135
848.00,0.0146
847.00,0.0162
846.00,0.0188
845.00,0.0229
844.00,0.0288
843.00,0.0357
842.00,0.0417
841.00,0.0441
840.00,0.0417
839.00,0.0357
838.00,0.0289
837.00,0.0232
836.00,0.0194
835.00,0.0172
834.00,0.0158
833.00,0.0148
832.00,0.0141
831.00,0.0135
830.00,0.0131
829.00,0.0128
828.00,0.0125
827.00,0.0123
826.00,0.0121
825.00,0.0119
824.00,0.0118
823.00,0.0117
822.00,0.0118
821.00,0.0119
820.00,0.0121
819.00,0.0123
818.00,0.0127
817.00,0.0132
816.00,0.0139
815.00,0.0150
814.00,0.0163
813.00,0.0180
812.00,0.0198
811.00,0.0213
810.00,0.0224
809.00,0.0228
808.00,0.0224
807.00,0.0212
806.00,0.0196
805.00,0.0180
804.00,0.0167
803.00,0.0156
802.00,0.0148
801.00,0.0141
800.00,0.0136
799.00,0.0131
798.00,0.0127
797.00,0.0122
796.00,0.0118
795.00,0.0115
794.00,0.0111
793.00,0.0108
792.00,0.0105
791.00,0.0103
790.00,0.0102
789.00,0.0101
788.00,0.0099
787.00,0.0097
786.00,0.0095
785.00,0.0093
784.00,0.0092
783.00,0.0092
782.00,0.0092
781.00,0.0092
780.00,0.0091
779.00,0.0089
778.00,0.0089
777.00,0.0088
776.00,0.0088
775.00,0.0087
774.00,0.0087
773.00,0.0088
772.00,0.0090
771.00,0.0092
770.00,0.0094
769.00,0.0094
768.00,0.0093
767.00,0.0092
766.00,0.0091
765.00,0.0090
764.00,0.0090
763.00,0.0090
762.00,0.0090
761.00,0.0090
760.00,0.0090
759.00,0.0090
758.00,0.0092
757.00,0.0094
756.00,0.0096
755.00,0.0098
754.00,0.0098
753.00,0.0099
752.00,0.0099
751.00,0.0101
750.00,0.0103
749.00,0.0105
748.00,0.0106
747.00,0.0108
746.00,0.0110
745.00,0.0113
744.00,0.0115
743.00,0.0118
742.00,0.0121
741.00,0.0124
740.00,0.0128
739.00,0.0133
738.00,0.0137
737.00,0.0141
736.00,0.0145
735.00,0.0149
734.00,0.0154
733.00,0.0161
732.00,0.0170
731.00,0.0179
730.00,0.0188
729.00,0.0193
728.00,0.0196
727.00,0.0197
726.00,0.0199
725.00,0.0203
724.00,0.0209
723.00,0.0216
722.00,0.0221
721.00,0.0224
720.00,0.0221
719.00,0.0211
718.00,0.0197
717.00,0.0180
716.00,0.0166
715.00,0.0157
714.00,0.0151
713.00,0.0147
712.00,0.0143
711.00,0.0140
710.00,0.0138
709.00,0.0137
708.00,0.0136
707.00,0.0136
706.00,0.0136
705.00,0.0135
704.00,0.0135
703.00,0.0134
702.00,0.0134
701.00,0.0134
700.00,0.0134
699.00,0.0135
698.00,0.0135
697.00,0.0135
696.00,0.0135
695.00,0.0135
694.00,0.0135
693.00,0.0134
692.00,0.0134
691.00,0.0134
690.00,0.0135
689.00,0.0137
688.00,0.0139
687.00,0.0139
686.00,0.0140
685.00,0.0139
684.00,0.0138
683.00,0.0139
682.00,0.0140
681.00,0.0141
680.00,0.0141
679.00,0.0140
678.00,0.0141
677.00,0.0141
676.00,0.0143
675.00,0.0144
674.00,0.0146
673.00,0.0149
672.00,0.0152
671.00,0.0153
670.00,0.0153
669.00,0.0151
668.00,0.0147
667.00,0.0143
666.00,0.0141
665.00,0.0139
664.00,0.0137
663.00,0.0134
662.00,0.0131
661.00,0.0128
660.00,0.0126
659.00,0.0125
658.00,0.0125
657.00,0.0125
656.00,0.0126
655.00,0.0125
654.00,0.0124
653.00,0.0121
652.00,0.0118
651.00,0.0115
650.00,0.0114
649.00,0.0114
648.00,0.0114
647.00,0.0115
646.00,0.0116
645.00,0.0116
644.00,0.0116
643.00,0.0116
642.00,0.0116
641.00,0.0115
640.00,0.0115
639.00,0.0115
638.00,0.0116
637.00,0.0116
636.00,0.0116
635.00,0.0117
634.00,0.0120
633.00,0.0123
632.00,0.0126
631.00,0.0126
630.00,0.0123
629.00,0.0121
628.00,0.0121
627.00,0.0123
626.00,0.0125
625.00,0.0126
624.00,0.0126
623.00,0.0125
622.00,0.0125
621.00,0.0125
620.00,0.0125
619.00,0.0124
618.00,0.0123
617.00,0.0123
616.00,0.0123
615.00,0.0124
614.00,0.0125
613.00,0.0126
612.00,0.0126
611.00,0.0126
610.00,0.0126
609.00,0.0128
608.00,0.0130
607.00,0.0132
606.00,0.0132
605.00,0.0131
604.00,0.0129
603.00,0.0126
602.00,0.0123
601.00,0.0121
600.00,0.0120
599.00,0.0121
598.00,0.0123
597.00,0.0124
596.00,0.0124
595.00,0.0124
594.00,0.0124
593.00,0.0125
592.00,0.0125
591.00,0.0124
590.00,0.0122
589.00,0.0121
588.00,0.0122
587.00,0.0124
586.00,0.0128
585.00,0.0131
584.00,0.0131
583.00,0.0129
582.00,0.0127
581.00,0.0128
580.00,0.0130
579.00,0.0130
578.00,0.0128
577.00,0.0126
576.00,0.0125
575.00,0.0125
574.00,0.0125
573.00,0.0123
572.00,0.0121
571.00,0.0119
570.00,0.0120
569.00,0.0121
568.00,0.0122
567.00,0.0121
566.00,0.0118
565.00,0.0116
564.00,0.0116
563.00,0.0118
562.00,0.0121
561.00,0.0123
560.00,0.0124
559.00,0.0124
558.00,0.0124
557.00,0.0123
556.00,0.0123
555.00,0.0123
554.00,0.0122
553.00,0.0120
552.00,0.0117
551.00,0.0116
550.00,0.0117
549.00,0.0120
548.00,0.0124
547.00,0.0128
546.00,0.0132
545.00,0.0135
544.00,0.0136
543.00,0.0138
542.00,0.0141
541.00,0.0147
540.00,0.0153
539.00,0.0157
538.00,0.0157
537.00,0.0155
536.00,0.0152
535.00,0.0150
534.00,0.0149
533.00,0.0148
532.00,0.0148
531.00,0.0147
530.00,0.0146
529.00,0.0146
528.00,0.0146
527.00,0.0148
526.00,0.0149
525.00,0.0149
524.00,0.0149
523.00,0.0151
522.00,0.0153
521.00,0.0151
520.00,0.0145
519.00,0.0136
518.00,0.0130
517.00,0.0129
516.00,0.0130
515.00,0.0130
514.00,0.0127
513.00,0.0127
512.00,0.0130
511.00,0.0136
510.00,0.0139
509.00,0.0138
508.00,0.0132
507.00,0.0125
506.00,0.0119
505.00,0.0118
504.00,0.0121
503.00,0.0125
502.00,0.0129
501.00,0.0131
500.00,0.0132
499.00,0.0132
498.00,0.0131
497.00,0.0125
496.00,0.0118
495.00,0.0112
494.00,0.0111
493.00,0.0111
492.00,0.0113
491.00,0.0116
490.00,0.0122
489.00,0.0128
488.00,0.0131
487.00,0.0130
486.00,0.0127
485.00,0.0126
484.00,0.0130
483.00,0.0139
482.00,0.0147
481.00,0.0151
480.00,0.0149
479.00,0.0146
478.00,0.0146
477.00,0.0149
476.00,0.0153
475.00,0.0157
474.00,0.0161
473.00,0.0165
472.00,0.0168
471.00,0.0173
470.00,0.0183
469.00,0.0194
468.00,0.0204
467.00,0.0212
466.00,0.0219
465.00,0.0224
464.00,0.0223
463.00,0.0216
462.00,0.0208
461.00,0.0207
460.00,0.0213
459.00,0.0219
458.00,0.0223
457.00,0.0221
456.00,0.0214
455.00,0.0202
454.00,0.0191
453.00,0.0186
452.00,0.0189
451.00,0.0195
450.00,0.0197
