Created as New Dataset,Sample 234 By Administrator Date Wednesday, September 03 2025
cm-1,A
4000.00,0.0009
3999.00,0.0009
3998.00,0.0008
3997.00,0.0008
3996.00,0.0008
3995.00,0.0008
3994.00,0.0008
3993.00,0.0008
3992.00,0.0009
3991.00,0.0008
3990.00,0.0008
3989.00,0.0008
3988.00,0.0008
3987.00,0.0008
3986.00,0.0007
3985.00,0.0007
3984.00,0.0007
3983.00,0.0007
3982.00,0.0006
3981.00,0.0006
3980.00,0.0006
3979.00,0.0006
3978.00,0.0006
3977.00,0.0007
3976.00,0.0007
3975.00,0.0007
3974.00,0.0007
3973.00,0.0007
3972.00,0.0007
3971.00,0.0007
3970.00,0.0007
3969.00,0.0007
3968.00,0.0007
3967.00,0.0007
3966.00,0.0007
3965.00,0.0007
3964.00,0.0007
3963.00,0.0007
3962.00,0.0007
3961.00,0.0007
3960.00,0.0006
3959.00,0.0006
3958.00,0.0006
3957.00,0.0006
3956.00,0.0006
3955.00,0.0006
3954.00,0.0006
3953.00,0.0006
3952.00,0.0006
3951.00,0.0006
3950.00,0.0006
3949.00,0.0006
3948.00,0.0006
3947.00,0.0005
3946.00,0.0005
3945.00,0.0005
3944.00,0.0005
3943.00,0.0005
3942.00,0.0006
3941.00,0.0006
3940.00,0.0006
3939.00,0.0006
3938.00,0.0006
3937.00,0.0006
3936.00,0.0007
3935.00,0.0007
3934.00,0.0006
3933.00,0.0006
3932.00,0.0006
3931.00,0.0006
3930.00,0.0006
3929.00,0.0006
3928.00,0.0007
3927.00,0.0007
3926.00,0.0007
3925.00,0.0007
3924.00,0.0007
3923.00,0.0006
3922.00,0.0007
3921.00,0.0007
3920.00,0.0007
3919.00,0.0007
3918.00,0.0006
3917.00,0.0006
3916.00,0.0006
3915.00,0.0006
3914.00,0.0006
3913.00,0.0006
3912.00,0.0006
3911.00,0.0006
3910.00,0.0005
3909.00,0.0005
3908.00,0.0005
3907.00,0.0005
3906.00,0.0005
3905.00,0.0005
3904.00,0.0004
3903.00,0.0004
3902.00,0.0004
3901.00,0.0004
3900.00,0.0004
3899.00,0.0005
3898.00,0.0005
3897.00,0.0006
3896.00,0.0006
3895.00,0.0006
3894.00,0.0006
3893.00,0.0006
3892.00,0.0006
3891.00,0.0006
3890.00,0.0006
3889.00,0.0006
3888.00,0.0006
3887.00,0.0006
3886.00,0.0005
3885.00,0.0005
3884.00,0.0004
3883.00,0.0004
3882.00,0.0004
3881.00,0.0004
3880.00,0.0004
3879.00,0.0004
3878.00,0.0004
3877.00,0.0004
3876.00,0.0005
3875.00,0.0005
3874.00,0.0006
3873.00,0.0006
3872.00,0.0006
3871.00,0.0006
3870.00,0.0006
3869.00,0.0005
3868.00,0.0005
3867.00,0.0005
3866.00,0.0005
3865.00,0.0006
3864.00,0.0005
3863.00,0.0005
3862.00,0.0005
3861.00,0.0004
3860.00,0.0004
3859.00,0.0004
3858.00,0.0003
3857.00,0.0003
3856.00,0.0003
3855.00,0.0003
3854.00,0.0003
3853.00,0.0003
3852.00,0.0003
3851.00,0.0004
3850.00,0.0004
3849.00,0.0004
3848.00,0.0005
3847.00,0.0005
3846.00,0.0005
3845.00,0.0005
3844.00,0.0004
3843.00,0.0004
3842.00,0.0004
3841.00,0.0004
3840.00,0.0005
3839.00,0.0005
3838.00,0.0005
3837.00,0.0005
3836.00,0.0004
3835.00,0.0004
3834.00,0.0004
3833.00,0.0004
3832.00,0.0004
3831.00,0.0004
3830.00,0.0004
3829.00,0.0004
3828.00,0.0004
3827.00,0.0004
3826.00,0.0004
3825.00,0.0003
3824.00,0.0003
3823.00,0.0003
3822.00,0.0004
3821.00,0.0004
3820.00,0.0005
3819.00,0.0005
3818.00,0.0005
3817.00,0.0005
3816.00,0.0005
3815.00,0.0005
3814.00,0.0005
3813.00,0.0005
3812.00,0.0005
3811.00,0.0005
3810.00,0.0005
3809.00,0.0005
3808.00,0.0005
3807.00,0.0005
3806.00,0.0005
3805.00,0.0005
3804.00,0.0006
3803.00,0.0006
3802.00,0.0006
3801.00,0.0006
3800.00,0.0005
3799.00,0.0005
3798.00,0.0005
3797.00,0.0005
3796.00,0.0005
3795.00,0.0005
3794.00,0.0005
3793.00,0.0005
3792.00,0.0005
3791.00,0.0005
3790.00,0.0006
3789.00,0.0006
3788.00,0.0006
3787.00,0.0006
3786.00,0.0006
3785.00,0.0006
3784.00,0.0006
3783.00,0.0006
3782.00,0.0006
3781.00,0.0006
3780.00,0.0006
3779.00,0.0006
3778.00,0.0006
3777.00,0.0006
3776.00,0.0006
3775.00,0.0006
3774.00,0.0006
3773.00,0.0006
3772.00,0.0005
3771.00,0.0005
3770.00,0.0005
3769.00,0.0006
3768.00,0.0006
3767.00,0.0006
3766.00,0.0006
3765.00,0.0006
3764.00,0.0006
3763.00,0.0006
3762.00,0.0007
3761.00,0.0007
3760.00,0.0007
3759.00,0.0007
3758.00,0.0006
3757.00,0.0006
3756.00,0.0006
3755.00,0.0005
3754.00,0.0005
3753.00,0.0005
3752.00,0.0005
3751.00,0.0004
3750.00,0.0004
3749.00,0.0003
3748.00,0.0003
3747.00,0.0002
3746.00,0.0002
3745.00,0.0003
3744.00,0.0003
3743.00,0.0004
3742.00,0.0004
3741.00,0.0004
3740.00,0.0004
3739.00,0.0004
3738.00,0.0004
3737.00,0.0004
3736.00,0.0004
3735.00,0.0004
3734.00,0.0004
3733.00,0.0004
3732.00,0.0004
3731.00,0.0004
3730.00,0.0004
3729.00,0.0004
3728.00,0.0005
3727.00,0.0005
3726.00,0.0005
3725.00,0.0004
3724.00,0.0004
3723.00,0.0004
3722.00,0.0004
3721.00,0.0004
3720.00,0.0004
3719.00,0.0004
3718.00,0.0004
3717.00,0.0004
3716.00,0.0004
3715.00,0.0004
3714.00,0.0003
3713.00,0.0003
3712.00,0.0003
3711.00,0.0002
3710.00,0.0002
3709.00,0.0002
3708.00,0.0002
3707.00,0.0002
3706.00,0.0002
3705.00,0.0003
3704.00,0.0003
3703.00,0.0003
3702.00,0.0003
3701.00,0.0004
3700.00,0.0004
3699.00,0.0004
3698.00,0.0004
3697.00,0.0004
3696.00,0.0003
3695.00,0.0003
3694.00,0.0003
3693.00,0.0002
3692.00,0.0002
3691.00,0.0002
3690.00,0.0002
3689.00,0.0002
3688.00,0.0002
3687.00,0.0002
3686.00,0.0002
3685.00,0.0003
3684.00,0.0003
3683.00,0.0003
3682.00,0.0004
3681.00,0.0004
3680.00,0.0004
3679.00,0.0004
3678.00,0.0004
3677.00,0.0004
3676.00,0.0004
3675.00,0.0004
3674.00,0.0003
3673.00,0.0002
3672.00,0.0001
3671.00,0.0001
3670.00,0.0002
3669.00,0.0002
3668.00,0.0003
3667.00,0.0003
3666.00,0.0004
3665.00,0.0004
3664.00,0.0004
3663.00,0.0004
3662.00,0.0004
3661.00,0.0004
3660.00,0.0003
3659.00,0.0003
3658.00,0.0002
3657.00,0.0002
3656.00,0.0002
3655.00,0.0002
3654.00,0.0002
3653.00,0.0002
3652.00,0.0001
3651.00,0.0001
3650.00,0.0001
3649.00,0.0001
3648.00,0.0002
3647.00,0.0003
3646.00,0.0003
3645.00,0.0004
3644.00,0.0004
3643.00,0.0004
3642.00,0.0003
3641.00,0.0003
3640.00,0.0003
3639.00,0.0003
3638.00,0.0003
3637.00,0.0003
3636.00,0.0003
3635.00,0.0004
3634.00,0.0004
3633.00,0.0003
3632.00,0.0003
3631.00,0.0003
3630.00,0.0003
3629.00,0.0002
3628.00,0.0002
3627.00,0.0003
3626.00,0.0003
3625.00,0.0003
3624.00,0.0004
3623.00,0.0004
3622.00,0.0003
3621.00,0.0003
3620.00,0.0003
3619.00,0.0003
3618.00,0.0003
3617.00,0.0003
3616.00,0.0003
3615.00,0.0003
3614.00,0.0004
3613.00,0.0004
3612.00,0.0004
3611.00,0.0004
3610.00,0.0004
3609.00,0.0004
3608.00,0.0005
3607.00,0.0005
3606.00,0.0005
3605.00,0.0005
3604.00,0.0005
3603.00,0.0005
3602.00,0.0006
3601.00,0.0006
3600.00,0.0006
3599.00,0.0006
3598.00,0.0005
3597.00,0.0005
3596.00,0.0005
3595.00,0.0005
3594.00,0.0005
3593.00,0.0005
3592.00,0.0005
3591.00,0.0005
3590.00,0.0005
3589.00,0.0005
3588.00,0.0005
3587.00,0.0004
3586.00,0.0004
3585.00,0.0004
3584.00,0.0005
3583.00,0.0005
3582.00,0.0006
3581.00,0.0006
3580.00,0.0007
3579.00,0.0007
3578.00,0.0007
3577.00,0.0007
3576.00,0.0007
3575.00,0.0007
3574.00,0.0007
3573.00,0.0007
3572.00,0.0007
3571.00,0.0007
3570.00,0.0007
3569.00,0.0007
3568.00,0.0007
3567.00,0.0007
3566.00,0.0008
3565.00,0.0008
3564.00,0.0008
3563.00,0.0008
3562.00,0.0008
3561.00,0.0009
3560.00,0.0009
3559.00,0.0009
3558.00,0.0009
3557.00,0.0010
3556.00,0.0010
3555.00,0.0010
3554.00,0.0010
3553.00,0.0009
3552.00,0.0009
3551.00,0.0010
3550.00,0.0010
3549.00,0.0010
3548.00,0.0011
3547.00,0.0011
3546.00,0.0011
3545.00,0.0011
3544.00,0.0012
3543.00,0.0012
3542.00,0.0012
3541.00,0.0012
3540.00,0.0012
3539.00,0.0012
3538.00,0.0012
3537.00,0.0012
3536.00,0.0012
3535.00,0.0012
3534.00,0.0012
3533.00,0.0012
3532.00,0.0013
3531.00,0.0013
3530.00,0.0013
3529.00,0.0014
3528.00,0.0014
3527.00,0.0014
3526.00,0.0014
3525.00,0.0014
3524.00,0.0013
3523.00,0.0013
3522.00,0.0014
3521.00,0.0014
3520.00,0.0014
3519.00,0.0014
3518.00,0.0015
3517.00,0.0015
3516.00,0.0015
3515.00,0.0015
3514.00,0.0015
3513.00,0.0016
3512.00,0.0016
3511.00,0.0016
3510.00,0.0017
3509.00,0.0017
3508.00,0.0017
3507.00,0.0017
3506.00,0.0017
3505.00,0.0016
3504.00,0.0016
3503.00,0.0016
3502.00,0.0016
3501.00,0.0016
3500.00,0.0017
3499.00,0.0017
3498.00,0.0017
3497.00,0.0017
3496.00,0.0017
3495.00,0.0017
3494.00,0.0018
3493.00,0.0018
3492.00,0.0018
3491.00,0.0018
3490.00,0.0018
3489.00,0.0018
3488.00,0.0018
3487.00,0.0019
3486.00,0.0019
3485.00,0.0019
3484.00,0.0019
3483.00,0.0019
3482.00,0.0018
3481.00,0.0018
3480.00,0.0019
3479.00,0.0019
3478.00,0.0020
3477.00,0.0020
3476.00,0.0021
3475.00,0.0021
3474.00,0.0021
3473.00,0.0021
3472.00,0.0021
3471.00,0.0021
3470.00,0.0021
3469.00,0.0021
3468.00,0.0021
3467.00,0.0021
3466.00,0.0021
3465.00,0.0021
3464.00,0.0021
3463.00,0.0021
3462.00,0.0021
3461.00,0.0022
3460.00,0.0022
3459.00,0.0023
3458.00,0.0023
3457.00,0.0023
3456.00,0.0023
3455.00,0.0023
3454.00,0.0023
3453.00,0.0023
3452.00,0.0023
3451.00,0.0023
3450.00,0.0023
3449.00,0.0023
3448.00,0.0024
3447.00,0.0024
3446.00,0.0024
3445.00,0.0024
3444.00,0.0024
3443.00,0.0024
3442.00,0.0025
3441.00,0.0025
3440.00,0.0025
3439.00,0.0026
3438.00,0.0026
3437.00,0.0026
3436.00,0.0026
3435.00,0.0026
3434.00,0.0027
3433.00,0.0027
3432.00,0.0027
3431.00,0.0027
3430.00,0.0027
3429.00,0.0027
3428.00,0.0027
3427.00,0.0027
3426.00,0.0027
3425.00,0.0028
3424.00,0.0027
3423.00,0.0027
3422.00,0.0027
3421.00,0.0027
3420.00,0.0027
3419.00,0.0027
3418.00,0.0027
3417.00,0.0027
3416.00,0.0027
3415.00,0.0028
3414.00,0.0028
3413.00,0.0028
3412.00,0.0029
3411.00,0.0029
3410.00,0.0029
3409.00,0.0029
3408.00,0.0029
3407.00,0.0029
3406.00,0.0029
3405.00,0.0029
3404.00,0.0029
3403.00,0.0030
3402.00,0.0030
3401.00,0.0030
3400.00,0.0030
3399.00,0.0030
3398.00,0.0030
3397.00,0.0030
3396.00,0.0030
3395.00,0.0030
3394.00,0.0030
3393.00,0.0030
3392.00,0.0029
3391.00,0.0029
3390.00,0.0030
3389.00,0.0030
3388.00,0.0030
3387.00,0.0030
3386.00,0.0030
3385.00,0.0030
3384.00,0.0030
3383.00,0.0030
3382.00,0.0029
3381.00,0.0029
3380.00,0.0029
3379.00,0.0029
3378.00,0.0030
3377.00,0.0030
3376.00,0.0030
3375.00,0.0030
3374.00,0.0030
3373.00,0.0030
3372.00,0.0030
3371.00,0.0030
3370.00,0.0030
3369.00,0.0030
3368.00,0.0029
3367.00,0.0029
3366.00,0.0029
3365.00,0.0029
3364.00,0.0029
3363.00,0.0030
3362.00,0.0030
3361.00,0.0030
3360.00,0.0030
3359.00,0.0030
3358.00,0.0031
3357.00,0.0031
3356.00,0.0031
3355.00,0.0031
3354.00,0.0031
3353.00,0.0031
3352.00,0.0031
3351.00,0.0031
3350.00,0.0031
3349.00,0.0030
3348.00,0.0030
3347.00,0.0030
3346.00,0.0029
3345.00,0.0029
3344.00,0.0029
3343.00,0.0029
3342.00,0.0030
3341.00,0.0030
3340.00,0.0030
3339.00,0.0030
3338.00,0.0030
3337.00,0.0029
3336.00,0.0029
3335.00,0.0029
3334.00,0.0029
3333.00,0.0028
3332.00,0.0028
3331.00,0.0028
3330.00,0.0028
3329.00,0.0028
3328.00,0.0028
3327.00,0.0028
3326.00,0.0028
3325.00,0.0028
3324.00,0.0028
3323.00,0.0028
3322.00,0.0028
3321.00,0.0028
3320.00,0.0028
3319.00,0.0029
3318.00,0.0029
3317.00,0.0028
3316.00,0.0028
3315.00,0.0028
3314.00,0.0028
3313.00,0.0028
3312.00,0.0028
3311.00,0.0028
3310.00,0.0028
3309.00,0.0028
3308.00,0.0028
3307.00,0.0028
3306.00,0.0028
3305.00,0.0029
3304.00,0.0029
3303.00,0.0030
3302.00,0.0030
3301.00,0.0029
3300.00,0.0029
3299.00,0.0029
3298.00,0.0029
3297.00,0.0029
3296.00,0.0029
3295.00,0.0029
3294.00,0.0028
3293.00,0.0028
3292.00,0.0028
3291.00,0.0028
3290.00,0.0028
3289.00,0.0028
3288.00,0.0027
3287.00,0.0027
3286.00,0.0027
3285.00,0.0027
3284.00,0.0027
3283.00,0.0027
3282.00,0.0027
3281.00,0.0027
3280.00,0.0027
3279.00,0.0027
3278.00,0.0027
3277.00,0.0026
3276.00,0.0026
3275.00,0.0026
3274.00,0.0026
3273.00,0.0026
3272.00,0.0026
3271.00,0.0025
3270.00,0.0025
3269.00,0.0024
3268.00,0.0024
3267.00,0.0024
3266.00,0.0024
3265.00,0.0024
3264.00,0.0024
3263.00,0.0024
3262.00,0.0023
3261.00,0.0023
3260.00,0.0023
3259.00,0.0023
3258.00,0.0023
3257.00,0.0023
3256.00,0.0023
3255.00,0.0023
3254.00,0.0023
3253.00,0.0023
3252.00,0.0024
3251.00,0.0024
3250.00,0.0024
3249.00,0.0024
3248.00,0.0024
3247.00,0.0024
3246.00,0.0023
3245.00,0.0023
3244.00,0.0022
3243.00,0.0022
3242.00,0.0022
3241.00,0.0023
3240.00,0.0023
3239.00,0.0023
3238.00,0.0023
3237.00,0.0023
3236.00,0.0023
3235.00,0.0023
3234.00,0.0023
3233.00,0.0023
3232.00,0.0023
3231.00,0.0023
3230.00,0.0024
3229.00,0.0024
3228.00,0.0024
3227.00,0.0024
3226.00,0.0024
3225.00,0.0025
3224.00,0.0025
3223.00,0.0025
3222.00,0.0025
3221.00,0.0025
3220.00,0.0025
3219.00,0.0025
3218.00,0.0025
3217.00,0.0026
3216.00,0.0026
3215.00,0.0026
3214.00,0.0026
3213.00,0.0026
3212.00,0.0027
3211.00,0.0027
3210.00,0.0027
3209.00,0.0028
3208.00,0.0028
3207.00,0.0028
3206.00,0.0027
3205.00,0.0027
3204.00,0.0028
3203.00,0.0028
3202.00,0.0028
3201.00,0.0029
3200.00,0.0029
3199.00,0.0029
3198.00,0.0029
3197.00,0.0028
3196.00,0.0028
3195.00,0.0028
3194.00,0.0028
3193.00,0.0028
3192.00,0.0028
3191.00,0.0027
3190.00,0.0027
3189.00,0.0027
3188.00,0.0027
3187.00,0.0027
3186.00,0.0027
3185.00,0.0026
3184.00,0.0026
3183.00,0.0026
3182.00,0.0026
3181.00,0.0026
3180.00,0.0025
3179.00,0.0025
3178.00,0.0025
3177.00,0.0025
3176.00,0.0025
3175.00,0.0026
3174.00,0.0025
3173.00,0.0025
3172.00,0.0025
3171.00,0.0024
3170.00,0.0024
3169.00,0.0025
3168.00,0.0025
3167.00,0.0025
3166.00,0.0025
3165.00,0.0025
3164.00,0.0025
3163.00,0.0026
3162.00,0.0026
3161.00,0.0025
3160.00,0.0025
3159.00,0.0025
3158.00,0.0025
3157.00,0.0025
3156.00,0.0024
3155.00,0.0024
3154.00,0.0024
3153.00,0.0024
3152.00,0.0024
3151.00,0.0025
3150.00,0.0025
3149.00,0.0025
3148.00,0.0024
3147.00,0.0024
3146.00,0.0024
3145.00,0.0024
3144.00,0.0024
3143.00,0.0024
3142.00,0.0024
3141.00,0.0025
3140.00,0.0025
3139.00,0.0024
3138.00,0.0024
3137.00,0.0024
3136.00,0.0023
3135.00,0.0023
3134.00,0.0023
3133.00,0.0023
3132.00,0.0023
3131.00,0.0023
3130.00,0.0023
3129.00,0.0022
3128.00,0.0022
3127.00,0.0022
3126.00,0.0022
3125.00,0.0022
3124.00,0.0021
3123.00,0.0021
3122.00,0.0021
3121.00,0.0021
3120.00,0.0021
3119.00,0.0021
3118.00,0.0021
3117.00,0.0021
3116.00,0.0021
3115.00,0.0021
3114.00,0.0021
3113.00,0.0020
3112.00,0.0020
3111.00,0.0020
3110.00,0.0021
3109.00,0.0021
3108.00,0.0021
3107.00,0.0021
3106.00,0.0021
3105.00,0.0020
3104.00,0.0020
3103.00,0.0020
3102.00,0.0020
3101.00,0.0020
3100.00,0.0020
3099.00,0.0020
3098.00,0.0020
3097.00,0.0020
3096.00,0.0020
3095.00,0.0020
3094.00,0.0020
3093.00,0.0020
3092.00,0.0020
3091.00,0.0020
3090.00,0.0020
3089.00,0.0019
3088.00,0.0019
3087.00,0.0019
3086.00,0.0018
3085.00,0.0019
3084.00,0.0019
3083.00,0.0019
3082.00,0.0019
3081.00,0.0020
3080.00,0.0020
3079.00,0.0020
3078.00,0.0020
3077.00,0.0021
3076.00,0.0021
3075.00,0.0021
3074.00,0.0021
3073.00,0.0021
3072.00,0.0020
3071.00,0.0021
3070.00,0.0021
3069.00,0.0021
3068.00,0.0021
3067.00,0.0022
3066.00,0.0022
3065.00,0.0022
3064.00,0.0022
3063.00,0.0022
3062.00,0.0022
3061.00,0.0022
3060.00,0.0022
3059.00,0.0023
3058.00,0.0023
3057.00,0.0024
3056.00,0.0024
3055.00,0.0024
3054.00,0.0025
3053.00,0.0025
3052.00,0.0025
3051.00,0.0025
3050.00,0.0025
3049.00,0.0025
3048.00,0.0025
3047.00,0.0026
3046.00,0.0026
3045.00,0.0026
3044.00,0.0026
3043.00,0.0026
3042.00,0.0026
3041.00,0.0026
3040.00,0.0027
3039.00,0.0028
3038.00,0.0028
3037.00,0.0029
3036.00,0.0029
3035.00,0.0029
3034.00,0.0029
3033.00,0.0030
3032.00,0.0030
3031.00,0.0031
3030.00,0.0031
3029.00,0.0032
3028.00,0.0032
3027.00,0.0033
3026.00,0.0033
3025.00,0.0034
3024.00,0.0035
3023.00,0.0036
3022.00,0.0037
3021.00,0.0038
3020.00,0.0038
3019.00,0.0038
3018.00,0.0039
3017.00,0.0040
3016.00,0.0041
3015.00,0.0042
3014.00,0.0043
3013.00,0.0044
3012.00,0.0046
3011.00,0.0047
3010.00,0.0048
3009.00,0.0049
3008.00,0.0051
3007.00,0.0052
3006.00,0.0054
3005.00,0.0056
3004.00,0.0058
3003.00,0.0060
3002.00,0.0062
3001.00,0.0064
3000.00,0.0067
2999.00,0.0069
2998.00,0.0072
2997.00,0.0075
2996.00,0.0079
2995.00,0.0083
2994.00,0.0087
2993.00,0.0091
2992.00,0.0096
2991.00,0.0102
2990.00,0.0108
2989.00,0.0114
2988.00,0.0121
2987.00,0.0129
2986.00,0.0138
2985.00,0.0148
2984.00,0.0159
2983.00,0.0172
2982.00,0.0186
2981.00,0.0202
2980.00,0.0220
2979.00,0.0241
2978.00,0.0265
2977.00,0.0292
2976.00,0.0323
2975.00,0.0358
2974.00,0.0399
2973.00,0.0445
2972.00,0.0497
2971.00,0.0555
2970.00,0.0620
2969.00,0.0690
2968.00,0.0767
2967.00,0.0847
2966.00,0.0931
2965.00,0.1015
2964.00,0.1096
2963.00,0.1170
2962.00,0.1234
2961.00,0.1286
2960.00,0.1330
2959.00,0.1370
2958.00,0.1411
2957.00,0.1460
2956.00,0.1520
2955.00,0.1595
2954.00,0.1681
2953.00,0.1771
2952.00,0.1855
2951.00,0.1917
2950.00,0.1946
2949.00,0.1930
2948.00,0.1868
2947.00,0.1767
2946.00,0.1641
2945.00,0.1505
2944.00,0.1376
2943.00,0.1265
2942.00,0.1178
2941.00,0.1118
2940.00,0.1084
2939.00,0.1074
2938.00,0.1084
2937.00,0.1114
2936.00,0.1160
2935.00,0.1223
2934.00,0.1301
2933.00,0.1392
2932.00,0.1496
2931.00,0.1609
2930.00,0.1730
2929.00,0.1856
2928.00,0.1982
2927.00,0.2108
2926.00,0.2229
2925.00,0.2348
2924.00,0.2464
2923.00,0.2581
2922.00,0.2698
2921.00,0.2811
2920.00,0.2913
2919.00,0.2991
2918.00,0.3033
2917.00,0.3028
2916.00,0.2975
2915.00,0.2882
2914.00,0.2761
2913.00,0.2629
2912.00,0.2498
2911.00,0.2377
2910.00,0.2268
2909.00,0.2172
2908.00,0.2084
2907.00,0.2001
2906.00,0.1922
2905.00,0.1844
2904.00,0.1768
2903.00,0.1692
2902.00,0.1619
2901.00,0.1549
2900.00,0.1482
2899.00,0.1419
2898.00,0.1360
2897.00,0.1306
2896.00,0.1258
2895.00,0.1216
2894.00,0.1180
2893.00,0.1151
2892.00,0.1128
2891.00,0.1112
2890.00,0.1101
2889.00,0.1095
2888.00,0.1092
2887.00,0.1094
2886.00,0.1099
2885.00,0.1108
2884.00,0.1121
2883.00,0.1140
2882.00,0.1163
2881.00,0.1190
2880.00,0.1217
2879.00,0.1239
2878.00,0.1254
2877.00,0.1260
2876.00,0.1256
2875.00,0.1248
2874.00,0.1241
2873.00,0.1239
2872.00,0.1245
2871.00,0.1261
2870.00,0.1281
2869.00,0.1303
2868.00,0.1318
2867.00,0.1316
2866.00,0.1293
2865.00,0.1244
2864.00,0.1174
2863.00,0.1091
2862.00,0.1009
2861.00,0.0935
2860.00,0.0877
2859.00,0.0836
2858.00,0.0811
2857.00,0.0801
2856.00,0.0802
2855.00,0.0811
2854.00,0.0826
2853.00,0.0845
2852.00,0.0864
2851.00,0.0882
2850.00,0.0894
2849.00,0.0903
2848.00,0.0911
2847.00,0.0923
2846.00,0.0945
2845.00,0.0978
2844.00,0.1022
2843.00,0.1075
2842.00,0.1131
2841.00,0.1184
2840.00,0.1227
2839.00,0.1249
2838.00,0.1245
2837.00,0.1210
2836.00,0.1144
2835.00,0.1053
2834.00,0.0946
2833.00,0.0836
2832.00,0.0731
2831.00,0.0638
2830.00,0.0558
2829.00,0.0493
2828.00,0.0440
2827.00,0.0398
2826.00,0.0364
2825.00,0.0335
2824.00,0.0312
2823.00,0.0292
2822.00,0.0275
2821.00,0.0260
2820.00,0.0247
2819.00,0.0236
2818.00,0.0226
2817.00,0.0217
2816.00,0.0210
2815.00,0.0203
2814.00,0.0197
2813.00,0.0191
2812.00,0.0185
2811.00,0.0179
2810.00,0.0174
2809.00,0.0168
2808.00,0.0161
2807.00,0.0155
2806.00,0.0148
2805.00,0.0141
2804.00,0.0134
2803.00,0.0128
2802.00,0.0123
2801.00,0.0119
2800.00,0.0115
2799.00,0.0112
2798.00,0.0109
2797.00,0.0106
2796.00,0.0103
2795.00,0.0101
2794.00,0.0098
2793.00,0.0096
2792.00,0.0093
2791.00,0.0089
2790.00,0.0086
2789.00,0.0084
2788.00,0.0081
2787.00,0.0078
2786.00,0.0075
2785.00,0.0073
2784.00,0.0070
2783.00,0.0068
2782.00,0.0066
2781.00,0.0065
2780.00,0.0063
2779.00,0.0062
2778.00,0.0060
2777.00,0.0058
2776.00,0.0057
2775.00,0.0056
2774.00,0.0055
2773.00,0.0055
2772.00,0.0054
2771.00,0.0054
2770.00,0.0054
2769.00,0.0053
2768.00,0.0053
2767.00,0.0053
2766.00,0.0052
2765.00,0.0052
2764.00,0.0052
2763.00,0.0051
2762.00,0.0051
2761.00,0.0050
2760.00,0.0050
2759.00,0.0050
2758.00,0.0049
2757.00,0.0049
2756.00,0.0049
2755.00,0.0049
2754.00,0.0049
2753.00,0.0049
2752.00,0.0048
2751.00,0.0048
2750.00,0.0048
2749.00,0.0048
2748.00,0.0048
2747.00,0.0049
2746.00,0.0049
2745.00,0.0050
2744.00,0.0050
2743.00,0.0051
2742.00,0.0052
2741.00,0.0053
2740.00,0.0054
2739.00,0.0056
2738.00,0.0057
2737.00,0.0058
2736.00,0.0060
2735.00,0.0061
2734.00,0.0063
2733.00,0.0064
2732.00,0.0066
2731.00,0.0068
2730.00,0.0071
2729.00,0.0073
2728.00,0.0077
2727.00,0.0080
2726.00,0.0082
2725.00,0.0085
2724.00,0.0086
2723.00,0.0086
2722.00,0.0086
2721.00,0.0084
2720.00,0.0081
2719.00,0.0078
2718.00,0.0075
2717.00,0.0071
2716.00,0.0068
2715.00,0.0065
2714.00,0.0063
2713.00,0.0060
2712.00,0.0058
2711.00,0.0056
2710.00,0.0054
2709.00,0.0053
2708.00,0.0051
2707.00,0.0050
2706.00,0.0049
2705.00,0.0048
2704.00,0.0047
2703.00,0.0046
2702.00,0.0045
2701.00,0.0044
2700.00,0.0043
2699.00,0.0043
2698.00,0.0042
2697.00,0.0042
2696.00,0.0042
2695.00,0.0042
2694.00,0.0042
2693.00,0.0042
2692.00,0.0042
2691.00,0.0042
2690.00,0.0042
2689.00,0.0042
2688.00,0.0041
2687.00,0.0041
2686.00,0.0042
2685.00,0.0042
2684.00,0.0043
2683.00,0.0043
2682.00,0.0043
2681.00,0.0043
2680.00,0.0043
2679.00,0.0043
2678.00,0.0043
2677.00,0.0043
2676.00,0.0044
2675.00,0.0043
2674.00,0.0043
2673.00,0.0042
2672.00,0.0042
2671.00,0.0042
2670.00,0.0042
2669.00,0.0042
2668.00,0.0042
2667.00,0.0042
2666.00,0.0042
2665.00,0.0043
2664.00,0.0044
2663.00,0.0045
2662.00,0.0045
2661.00,0.0046
2660.00,0.0046
2659.00,0.0046
2658.00,0.0046
2657.00,0.0046
2656.00,0.0046
2655.00,0.0045
2654.00,0.0044
2653.00,0.0044
2652.00,0.0043
2651.00,0.0043
2650.00,0.0042
2649.00,0.0042
2648.00,0.0041
2647.00,0.0041
2646.00,0.0041
2645.00,0.0040
2644.00,0.0039
2643.00,0.0038
2642.00,0.0038
2641.00,0.0037
2640.00,0.0037
2639.00,0.0037
2638.00,0.0036
2637.00,0.0036
2636.00,0.0036
2635.00,0.0036
2634.00,0.0036
2633.00,0.0036
2632.00,0.0036
2631.00,0.0036
2630.00,0.0037
2629.00,0.0037
2628.00,0.0037
2627.00,0.0038
2626.00,0.0038
2625.00,0.0038
2624.00,0.0038
2623.00,0.0038
2622.00,0.0038
2621.00,0.0038
2620.00,0.0038
2619.00,0.0038
2618.00,0.0038
2617.00,0.0038
2616.00,0.0038
2615.00,0.0039
2614.00,0.0039
2613.00,0.0039
2612.00,0.0038
2611.00,0.0038
2610.00,0.0037
2609.00,0.0036
2608.00,0.0035
2607.00,0.0034
2606.00,0.0033
2605.00,0.0032
2604.00,0.0032
2603.00,0.0031
2602.00,0.0031
2601.00,0.0030
2600.00,0.0030
2599.00,0.0030
2598.00,0.0030
2597.00,0.0031
2596.00,0.0031
2595.00,0.0031
2594.00,0.0030
2593.00,0.0030
2592.00,0.0030
2591.00,0.0031
2590.00,0.0032
2589.00,0.0033
2588.00,0.0035
2587.00,0.0036
2586.00,0.0037
2585.00,0.0038
2584.00,0.0038
2583.00,0.0039
2582.00,0.0039
2581.00,0.0039
2580.00,0.0038
2579.00,0.0037
2578.00,0.0036
2577.00,0.0034
2576.00,0.0033
2575.00,0.0032
2574.00,0.0031
2573.00,0.0030
2572.00,0.0029
2571.00,0.0027
2570.00,0.0026
2569.00,0.0025
2568.00,0.0025
2567.00,0.0024
2566.00,0.0024
2565.00,0.0023
2564.00,0.0023
2563.00,0.0022
2562.00,0.0021
2561.00,0.0021
2560.00,0.0020
2559.00,0.0020
2558.00,0.0021
2557.00,0.0021
2556.00,0.0022
2555.00,0.0022
2554.00,0.0021
2553.00,0.0020
2552.00,0.0019
2551.00,0.0018
2550.00,0.0018
2549.00,0.0017
2548.00,0.0017
2547.00,0.0016
2546.00,0.0016
2545.00,0.0016
2544.00,0.0016
2543.00,0.0016
2542.00,0.0016
2541.00,0.0016
2540.00,0.0017
2539.00,0.0017
2538.00,0.0017
2537.00,0.0016
2536.00,0.0016
2535.00,0.0015
2534.00,0.0015
2533.00,0.0015
2532.00,0.0015
2531.00,0.0015
2530.00,0.0014
2529.00,0.0014
2528.00,0.0013
2527.00,0.0013
2526.00,0.0013
2525.00,0.0013
2524.00,0.0013
2523.00,0.0014
2522.00,0.0014
2521.00,0.0013
2520.00,0.0013
2519.00,0.0012
2518.00,0.0011
2517.00,0.0010
2516.00,0.0010
2515.00,0.0010
2514.00,0.0010
2513.00,0.0010
2512.00,0.0010
2511.00,0.0010
2510.00,0.0010
2509.00,0.0010
2508.00,0.0010
2507.00,0.0010
2506.00,0.0010
2505.00,0.0010
2504.00,0.0009
2503.00,0.0009
2502.00,0.0008
2501.00,0.0007
2500.00,0.0007
2499.00,0.0008
2498.00,0.0008
2497.00,0.0008
2496.00,0.0008
2495.00,0.0009
2494.00,0.0009
2493.00,0.0009
2492.00,0.0009
2491.00,0.0008
2490.00,0.0008
2489.00,0.0008
2488.00,0.0008
2487.00,0.0009
2486.00,0.0009
2485.00,0.0008
2484.00,0.0008
2483.00,0.0007
2482.00,0.0007
2481.00,0.0007
2480.00,0.0007
2479.00,0.0007
2478.00,0.0007
2477.00,0.0007
2476.00,0.0007
2475.00,0.0007
2474.00,0.0007
2473.00,0.0007
2472.00,0.0007
2471.00,0.0007
2470.00,0.0007
2469.00,0.0007
2468.00,0.0008
2467.00,0.0008
2466.00,0.0008
2465.00,0.0009
2464.00,0.0009
2463.00,0.0009
2462.00,0.0009
2461.00,0.0010
2460.00,0.0010
2459.00,0.0010
2458.00,0.0010
2457.00,0.0010
2456.00,0.0010
2455.00,0.0011
2454.00,0.0011
2453.00,0.0011
2452.00,0.0010
2451.00,0.0009
2450.00,0.0009
2449.00,0.0008
2448.00,0.0008
2447.00,0.0008
2446.00,0.0008
2445.00,0.0008
2444.00,0.0008
2443.00,0.0009
2442.00,0.0009
2441.00,0.0009
2440.00,0.0009
2439.00,0.0009
2438.00,0.0009
2437.00,0.0010
2436.00,0.0010
2435.00,0.0010
2434.00,0.0010
2433.00,0.0011
2432.00,0.0012
2431.00,0.0012
2430.00,0.0012
2429.00,0.0012
2428.00,0.0011
2427.00,0.0011
2426.00,0.0011
2425.00,0.0011
2424.00,0.0010
2423.00,0.0009
2422.00,0.0009
2421.00,0.0008
2420.00,0.0008
2419.00,0.0008
2418.00,0.0008
2417.00,0.0008
2416.00,0.0008
2415.00,0.0008
2414.00,0.0008
2413.00,0.0008
2412.00,0.0008
2411.00,0.0009
2410.00,0.0008
2409.00,0.0008
2408.00,0.0007
2407.00,0.0006
2406.00,0.0005
2405.00,0.0005
2404.00,0.0006
2403.00,0.0006
2402.00,0.0006
2401.00,0.0006
2400.00,0.0006
2399.00,0.0006
2398.00,0.0005
2397.00,0.0005
2396.00,0.0005
2395.00,0.0006
2394.00,0.0006
2393.00,0.0006
2392.00,0.0006
2391.00,0.0006
2390.00,0.0006
2389.00,0.0006
2388.00,0.0006
2387.00,0.0005
2386.00,0.0004
2385.00,0.0004
2384.00,0.0003
2383.00,0.0002
2382.00,0.0001
2381.00,0.0000
2380.00,0.0000
2379.00,0.0000
2378.00,0.0000
2377.00,0.0000
2376.00,0.0000
2375.00,0.0000
2374.00,0.0000
2373.00,0.0000
2372.00,-0.0000
2371.00,-0.0000
2370.00,-0.0001
2369.00,-0.0001
2368.00,-0.0001
2367.00,-0.0001
2366.00,-0.0001
2365.00,-0.0001
2364.00,-0.0001
2363.00,-0.0001
2362.00,-0.0001
2361.00,-0.0001
2360.00,-0.0001
2359.00,-0.0001
2358.00,-0.0001
2357.00,-0.0000
2356.00,0.0000
2355.00,-0.0001
2354.00,-0.0002
2353.00,-0.0002
2352.00,-0.0002
2351.00,-0.0001
2350.00,0.0000
2349.00,0.0001
2348.00,0.0001
2347.00,0.0001
2346.00,0.0001
2345.00,0.0001
2344.00,0.0001
2343.00,0.0001
2342.00,0.0002
2341.00,0.0003
2340.00,0.0003
2339.00,0.0004
2338.00,0.0004
2337.00,0.0004
2336.00,0.0004
2335.00,0.0004
2334.00,0.0004
2333.00,0.0004
2332.00,0.0004
2331.00,0.0003
2330.00,0.0003
2329.00,0.0004
2328.00,0.0006
2327.00,0.0010
2326.00,0.0014
2325.00,0.0018
2324.00,0.0019
2323.00,0.0019
2322.00,0.0017
2321.00,0.0016
2320.00,0.0014
2319.00,0.0013
2318.00,0.0011
2317.00,0.0009
2316.00,0.0008
2315.00,0.0007
2314.00,0.0006
2313.00,0.0005
2312.00,0.0005
2311.00,0.0004
2310.00,0.0004
2309.00,0.0005
2308.00,0.0005
2307.00,0.0006
2306.00,0.0006
2305.00,0.0007
2304.00,0.0007
2303.00,0.0007
2302.00,0.0007
2301.00,0.0007
2300.00,0.0007
2299.00,0.0008
2298.00,0.0008
2297.00,0.0009
2296.00,0.0010
2295.00,0.0010
2294.00,0.0011
2293.00,0.0013
2292.00,0.0014
2291.00,0.0016
2290.00,0.0017
2289.00,0.0018
2288.00,0.0018
2287.00,0.0018
2286.00,0.0017
2285.00,0.0017
2284.00,0.0016
2283.00,0.0015
2282.00,0.0014
2281.00,0.0013
2280.00,0.0012
2279.00,0.0011
2278.00,0.0012
2277.00,0.0012
2276.00,0.0012
2275.00,0.0012
2274.00,0.0011
2273.00,0.0011
2272.00,0.0011
2271.00,0.0010
2270.00,0.0009
2269.00,0.0009
2268.00,0.0010
2267.00,0.0011
2266.00,0.0011
2265.00,0.0011
2264.00,0.0011
2263.00,0.0012
2262.00,0.0012
2261.00,0.0013
2260.00,0.0013
2259.00,0.0011
2258.00,0.0010
2257.00,0.0009
2256.00,0.0009
2255.00,0.0008
2254.00,0.0007
2253.00,0.0006
2252.00,0.0006
2251.00,0.0006
2250.00,0.0006
2249.00,0.0006
2248.00,0.0005
2247.00,0.0005
2246.00,0.0006
2245.00,0.0007
2244.00,0.0008
2243.00,0.0009
2242.00,0.0010
2241.00,0.0009
2240.00,0.0009
2239.00,0.0008
2238.00,0.0007
2237.00,0.0006
2236.00,0.0005
2235.00,0.0005
2234.00,0.0005
2233.00,0.0006
2232.00,0.0008
2231.00,0.0008
2230.00,0.0009
2229.00,0.0008
2228.00,0.0007
2227.00,0.0006
2226.00,0.0005
2225.00,0.0005
2224.00,0.0004
2223.00,0.0004
2222.00,0.0004
2221.00,0.0004
2220.00,0.0003
2219.00,0.0003
2218.00,0.0003
2217.00,0.0004
2216.00,0.0006
2215.00,0.0008
2214.00,0.0009
2213.00,0.0009
2212.00,0.0009
2211.00,0.0008
2210.00,0.0007
2209.00,0.0005
2208.00,0.0003
2207.00,0.0003
2206.00,0.0003
2205.00,0.0004
2204.00,0.0005
2203.00,0.0004
2202.00,0.0004
2201.00,0.0004
2200.00,0.0005
2199.00,0.0005
2198.00,0.0005
2197.00,0.0004
2196.00,0.0004
2195.00,0.0005
2194.00,0.0006
2193.00,0.0007
2192.00,0.0007
2191.00,0.0006
2190.00,0.0004
2189.00,0.0003
2188.00,0.0003
2187.00,0.0005
2186.00,0.0007
2185.00,0.0008
2184.00,0.0007
2183.00,0.0004
2182.00,0.0001
2181.00,-0.0001
2180.00,-0.0000
2179.00,0.0001
2178.00,0.0002
2177.00,0.0003
2176.00,0.0002
2175.00,0.0002
2174.00,0.0002
2173.00,0.0002
2172.00,0.0004
2171.00,0.0006
2170.00,0.0009
2169.00,0.0013
2168.00,0.0016
2167.00,0.0019
2166.00,0.0020
2165.00,0.0020
2164.00,0.0020
2163.00,0.0019
2162.00,0.0015
2161.00,0.0007
2160.00,-0.0008
2159.00,-0.0025
2158.00,-0.0038
2157.00,-0.0042
2156.00,-0.0040
2155.00,-0.0035
2154.00,-0.0030
2153.00,-0.0025
2152.00,-0.0020
2151.00,-0.0018
2150.00,-0.0017
2149.00,-0.0017
2148.00,-0.0019
2147.00,-0.0020
2146.00,-0.0019
2145.00,-0.0017
2144.00,-0.0015
2143.00,-0.0014
2142.00,-0.0013
2141.00,-0.0012
2140.00,-0.0012
2139.00,-0.0012
2138.00,-0.0013
2137.00,-0.0014
2136.00,-0.0017
2135.00,-0.0020
2134.00,-0.0022
2133.00,-0.0021
2132.00,-0.0020
2131.00,-0.0018
2130.00,-0.0017
2129.00,-0.0016
2128.00,-0.0015
2127.00,-0.0013
2126.00,-0.0011
2125.00,-0.0008
2124.00,-0.0005
2123.00,-0.0004
2122.00,-0.0003
2121.00,-0.0003
2120.00,-0.0005
2119.00,-0.0006
2118.00,-0.0005
2117.00,-0.0004
2116.00,-0.0001
2115.00,0.0001
2114.00,0.0003
2113.00,0.0003
2112.00,0.0002
2111.00,0.0001
2110.00,-0.0000
2109.00,-0.0001
2108.00,-0.0001
2107.00,-0.0002
2106.00,-0.0002
2105.00,-0.0001
2104.00,0.0000
2103.00,0.0002
2102.00,0.0003
2101.00,0.0002
2100.00,0.0001
2099.00,-0.0001
2098.00,-0.0002
2097.00,-0.0003
2096.00,-0.0004
2095.00,-0.0005
2094.00,-0.0006
2093.00,-0.0005
2092.00,-0.0004
2091.00,-0.0003
2090.00,-0.0003
2089.00,-0.0002
2088.00,-0.0001
2087.00,-0.0000
2086.00,0.0000
2085.00,0.0001
2084.00,0.0000
2083.00,-0.0000
2082.00,-0.0000
2081.00,-0.0000
2080.00,-0.0001
2079.00,-0.0001
2078.00,-0.0003
2077.00,-0.0004
2076.00,-0.0005
2075.00,-0.0005
2074.00,-0.0006
2073.00,-0.0006
2072.00,-0.0005
2071.00,-0.0004
2070.00,-0.0003
2069.00,-0.0002
2068.00,-0.0002
2067.00,-0.0003
2066.00,-0.0003
2065.00,-0.0004
2064.00,-0.0004
2063.00,-0.0005
2062.00,-0.0004
2061.00,-0.0003
2060.00,-0.0002
2059.00,0.0000
2058.00,0.0003
2057.00,0.0005
2056.00,0.0006
2055.00,0.0004
2054.00,0.0003
2053.00,0.0003
2052.00,0.0006
2051.00,0.0008
2050.00,0.0008
2049.00,0.0005
2048.00,0.0003
2047.00,0.0001
2046.00,0.0000
2045.00,0.0000
2044.00,0.0002
2043.00,0.0004
2042.00,0.0006
2041.00,0.0006
2040.00,0.0005
2039.00,0.0002
2038.00,-0.0001
2037.00,-0.0003
2036.00,-0.0005
2035.00,-0.0006
2034.00,-0.0007
2033.00,-0.0007
2032.00,-0.0008
2031.00,-0.0009
2030.00,-0.0010
2029.00,-0.0011
2028.00,-0.0011
2027.00,-0.0011
2026.00,-0.0011
2025.00,-0.0009
2024.00,-0.0007
2023.00,-0.0006
2022.00,-0.0007
2021.00,-0.0010
2020.00,-0.0013
2019.00,-0.0016
2018.00,-0.0016
2017.00,-0.0014
2016.00,-0.0011
2015.00,-0.0011
2014.00,-0.0012
2013.00,-0.0014
2012.00,-0.0016
2011.00,-0.0016
2010.00,-0.0016
2009.00,-0.0016
2008.00,-0.0015
2007.00,-0.0015
2006.00,-0.0014
2005.00,-0.0014
2004.00,-0.0016
2003.00,-0.0018
2002.00,-0.0019
2001.00,-0.0019
2000.00,-0.0018
1999.00,-0.0017
1998.00,-0.0017
1997.00,-0.0017
1996.00,-0.0016
1995.00,-0.0016
1994.00,-0.0016
1993.00,-0.0015
1992.00,-0.0013
1991.00,-0.0011
1990.00,-0.0009
1989.00,-0.0008
1988.00,-0.0006
1987.00,-0.0004
1986.00,-0.0004
1985.00,-0.0004
1984.00,-0.0004
1983.00,-0.0003
1982.00,0.0001
1981.00,0.0007
1980.00,0.0011
1979.00,0.0010
1978.00,0.0004
1977.00,-0.0005
1976.00,-0.0013
1975.00,-0.0018
1974.00,-0.0020
1973.00,-0.0019
1972.00,-0.0016
1971.00,-0.0015
1970.00,-0.0015
1969.00,-0.0017
1968.00,-0.0017
1967.00,-0.0016
1966.00,-0.0015
1965.00,-0.0015
1964.00,-0.0015
1963.00,-0.0017
1962.00,-0.0021
1961.00,-0.0025
1960.00,-0.0027
1959.00,-0.0027
1958.00,-0.0025
1957.00,-0.0021
1956.00,-0.0019
1955.00,-0.0018
1954.00,-0.0018
1953.00,-0.0019
1952.00,-0.0019
1951.00,-0.0019
1950.00,-0.0019
1949.00,-0.0018
1948.00,-0.0019
1947.00,-0.0020
1946.00,-0.0021
1945.00,-0.0022
1944.00,-0.0022
1943.00,-0.0020
1942.00,-0.0018
1941.00,-0.0015
1940.00,-0.0014
1939.00,-0.0014
1938.00,-0.0014
1937.00,-0.0015
1936.00,-0.0015
1935.00,-0.0015
1934.00,-0.0015
1933.00,-0.0014
1932.00,-0.0013
1931.00,-0.0011
1930.00,-0.0010
1929.00,-0.0009
1928.00,-0.0009
1927.00,-0.0009
1926.00,-0.0009
1925.00,-0.0010
1924.00,-0.0009
1923.00,-0.0009
1922.00,-0.0008
1921.00,-0.0007
1920.00,-0.0006
1919.00,-0.0005
1918.00,-0.0004
1917.00,-0.0004
1916.00,-0.0006
1915.00,-0.0007
1914.00,-0.0008
1913.00,-0.0008
1912.00,-0.0008
1911.00,-0.0007
1910.00,-0.0007
1909.00,-0.0006
1908.00,-0.0005
1907.00,-0.0004
1906.00,-0.0003
1905.00,-0.0003
1904.00,-0.0003
1903.00,-0.0004
1902.00,-0.0004
1901.00,-0.0003
1900.00,-0.0002
1899.00,-0.0002
1898.00,-0.0002
1897.00,-0.0002
1896.00,-0.0003
1895.00,-0.0003
1894.00,-0.0003
1893.00,-0.0003
1892.00,-0.0004
1891.00,-0.0004
1890.00,-0.0004
1889.00,-0.0004
1888.00,-0.0004
1887.00,-0.0004
1886.00,-0.0003
1885.00,-0.0003
1884.00,-0.0003
1883.00,-0.0003
1882.00,-0.0004
1881.00,-0.0004
1880.00,-0.0003
1879.00,-0.0003
1878.00,-0.0002
1877.00,-0.0003
1876.00,-0.0003
1875.00,-0.0004
1874.00,-0.0004
1873.00,-0.0004
1872.00,-0.0003
1871.00,-0.0002
1870.00,-0.0003
1869.00,-0.0003
1868.00,-0.0004
1867.00,-0.0004
1866.00,-0.0004
1865.00,-0.0004
1864.00,-0.0004
1863.00,-0.0004
1862.00,-0.0003
1861.00,-0.0003
1860.00,-0.0003
1859.00,-0.0003
1858.00,-0.0002
1857.00,-0.0001
1856.00,-0.0001
1855.00,-0.0001
1854.00,-0.0001
1853.00,-0.0001
1852.00,-0.0002
1851.00,-0.0002
1850.00,-0.0002
1849.00,-0.0002
1848.00,-0.0002
1847.00,-0.0002
1846.00,-0.0002
1845.00,-0.0001
1844.00,-0.0001
1843.00,-0.0001
1842.00,-0.0000
1841.00,-0.0000
1840.00,-0.0000
1839.00,-0.0000
1838.00,-0.0000
1837.00,-0.0001
1836.00,-0.0001
1835.00,-0.0001
1834.00,-0.0001
1833.00,-0.0001
1832.00,-0.0002
1831.00,-0.0002
1830.00,-0.0002
1829.00,-0.0001
1828.00,-0.0000
1827.00,0.0000
1826.00,0.0000
1825.00,0.0000
1824.00,0.0001
1823.00,0.0001
1822.00,0.0001
1821.00,0.0001
1820.00,-0.0000
1819.00,-0.0002
1818.00,-0.0003
1817.00,-0.0004
1816.00,-0.0004
1815.00,-0.0004
1814.00,-0.0003
1813.00,-0.0002
1812.00,-0.0002
1811.00,-0.0001
1810.00,-0.0001
1809.00,-0.0000
1808.00,0.0001
1807.00,0.0001
1806.00,0.0001
1805.00,0.0002
1804.00,0.0002
1803.00,0.0002
1802.00,0.0003
1801.00,0.0003
1800.00,0.0003
1799.00,0.0003
1798.00,0.0003
1797.00,0.0003
1796.00,0.0002
1795.00,0.0003
1794.00,0.0003
1793.00,0.0003
1792.00,0.0003
1791.00,0.0003
1790.00,0.0003
1789.00,0.0004
1788.00,0.0004
1787.00,0.0004
1786.00,0.0004
1785.00,0.0004
1784.00,0.0005
1783.00,0.0005
1782.00,0.0005
1781.00,0.0005
1780.00,0.0005
1779.00,0.0005
1778.00,0.0006
1777.00,0.0006
1776.00,0.0005
1775.00,0.0005
1774.00,0.0005
1773.00,0.0005
1772.00,0.0005
1771.00,0.0006
1770.00,0.0006
1769.00,0.0006
1768.00,0.0006
1767.00,0.0006
1766.00,0.0006
1765.00,0.0006
1764.00,0.0007
1763.00,0.0007
1762.00,0.0007
1761.00,0.0008
1760.00,0.0008
1759.00,0.0008
1758.00,0.0009
1757.00,0.0009
1756.00,0.0009
1755.00,0.0009
1754.00,0.0009
1753.00,0.0010
1752.00,0.0010
1751.00,0.0011
1750.00,0.0012
1749.00,0.0013
1748.00,0.0013
1747.00,0.0014
1746.00,0.0014
1745.00,0.0014
1744.00,0.0015
1743.00,0.0015
1742.00,0.0016
1741.00,0.0016
1740.00,0.0017
1739.00,0.0017
1738.00,0.0017
1737.00,0.0017
1736.00,0.0017
1735.00,0.0017
1734.00,0.0017
1733.00,0.0017
1732.00,0.0018
1731.00,0.0018
1730.00,0.0019
1729.00,0.0019
1728.00,0.0020
1727.00,0.0020
1726.00,0.0020
1725.00,0.0021
1724.00,0.0021
1723.00,0.0021
1722.00,0.0021
1721.00,0.0021
1720.00,0.0021
1719.00,0.0021
1718.00,0.0021
1717.00,0.0020
1716.00,0.0019
1715.00,0.0019
1714.00,0.0019
1713.00,0.0019
1712.00,0.0019
1711.00,0.0019
1710.00,0.0018
1709.00,0.0018
1708.00,0.0019
1707.00,0.0019
1706.00,0.0019
1705.00,0.0019
1704.00,0.0019
1703.00,0.0019
1702.00,0.0020
1701.00,0.0020
1700.00,0.0020
1699.00,0.0020
1698.00,0.0020
1697.00,0.0020
1696.00,0.0020
1695.00,0.0020
1694.00,0.0020
1693.00,0.0020
1692.00,0.0021
1691.00,0.0021
1690.00,0.0021
1689.00,0.0022
1688.00,0.0022
1687.00,0.0022
1686.00,0.0022
1685.00,0.0022
1684.00,0.0022
1683.00,0.0022
1682.00,0.0023
1681.00,0.0023
1680.00,0.0024
1679.00,0.0024
1678.00,0.0025
1677.00,0.0025
1676.00,0.0026
1675.00,0.0026
1674.00,0.0026
1673.00,0.0026
1672.00,0.0026
1671.00,0.0025
1670.00,0.0025
1669.00,0.0025
1668.00,0.0026
1667.00,0.0026
1666.00,0.0027
1665.00,0.0027
1664.00,0.0027
1663.00,0.0027
1662.00,0.0027
1661.00,0.0028
1660.00,0.0028
1659.00,0.0029
1658.00,0.0029
1657.00,0.0029
1656.00,0.0030
1655.00,0.0031
1654.00,0.0032
1653.00,0.0032
1652.00,0.0032
1651.00,0.0032
1650.00,0.0032
1649.00,0.0034
1648.00,0.0035
1647.00,0.0036
1646.00,0.0037
1645.00,0.0037
1644.00,0.0037
1643.00,0.0037
1642.00,0.0038
1641.00,0.0038
1640.00,0.0039
1639.00,0.0039
1638.00,0.0038
1637.00,0.0038
1636.00,0.0038
1635.00,0.0038
1634.00,0.0038
1633.00,0.0038
1632.00,0.0038
1631.00,0.0037
1630.00,0.0037
1629.00,0.0037
1628.00,0.0036
1627.00,0.0036
1626.00,0.0035
1625.00,0.0035
1624.00,0.0035
1623.00,0.0034
1622.00,0.0034
1621.00,0.0033
1620.00,0.0033
1619.00,0.0033
1618.00,0.0032
1617.00,0.0032
1616.00,0.0032
1615.00,0.0032
1614.00,0.0031
1613.00,0.0032
1612.00,0.0032
1611.00,0.0032
1610.00,0.0032
1609.00,0.0033
1608.00,0.0033
1607.00,0.0032
1606.00,0.0032
1605.00,0.0032
1604.00,0.0032
1603.00,0.0031
1602.00,0.0031
1601.00,0.0031
1600.00,0.0031
1599.00,0.0031
1598.00,0.0031
1597.00,0.0031
1596.00,0.0031
1595.00,0.0031
1594.00,0.0031
1593.00,0.0031
1592.00,0.0031
1591.00,0.0031
1590.00,0.0031
1589.00,0.0031
1588.00,0.0031
1587.00,0.0031
1586.00,0.0031
1585.00,0.0032
1584.00,0.0033
1583.00,0.0033
1582.00,0.0033
1581.00,0.0034
1580.00,0.0034
1579.00,0.0035
1578.00,0.0035
1577.00,0.0036
1576.00,0.0036
1575.00,0.0036
1574.00,0.0036
1573.00,0.0036
1572.00,0.0036
1571.00,0.0036
1570.00,0.0036
1569.00,0.0036
1568.00,0.0036
1567.00,0.0036
1566.00,0.0036
1565.00,0.0037
1564.00,0.0038
1563.00,0.0038
1562.00,0.0038
1561.00,0.0037
1560.00,0.0038
1559.00,0.0038
1558.00,0.0038
1557.00,0.0038
1556.00,0.0038
1555.00,0.0038
1554.00,0.0039
1553.00,0.0039
1552.00,0.0039
1551.00,0.0039
1550.00,0.0039
1549.00,0.0039
1548.00,0.0039
1547.00,0.0040
1546.00,0.0041
1545.00,0.0042
1544.00,0.0042
1543.00,0.0042
1542.00,0.0042
1541.00,0.0042
1540.00,0.0042
1539.00,0.0041
1538.00,0.0040
1537.00,0.0040
1536.00,0.0039
1535.00,0.0039
1534.00,0.0038
1533.00,0.0038
1532.00,0.0038
1531.00,0.0037
1530.00,0.0037
1529.00,0.0037
1528.00,0.0037
1527.00,0.0037
1526.00,0.0037
1525.00,0.0038
1524.00,0.0039
1523.00,0.0040
1522.00,0.0040
1521.00,0.0040
1520.00,0.0040
1519.00,0.0041
1518.00,0.0041
1517.00,0.0042
1516.00,0.0043
1515.00,0.0044
1514.00,0.0044
1513.00,0.0045
1512.00,0.0046
1511.00,0.0047
1510.00,0.0048
1509.00,0.0050
1508.00,0.0051
1507.00,0.0051
1506.00,0.0051
1505.00,0.0052
1504.00,0.0054
1503.00,0.0055
1502.00,0.0056
1501.00,0.0059
1500.00,0.0061
1499.00,0.0063
1498.00,0.0065
1497.00,0.0068
1496.00,0.0071
1495.00,0.0074
1494.00,0.0076
1493.00,0.0079
1492.00,0.0082
1491.00,0.0085
1490.00,0.0089
1489.00,0.0094
1488.00,0.0099
1487.00,0.0104
1486.00,0.0108
1485.00,0.0114
1484.00,0.0120
1483.00,0.0127
1482.00,0.0136
1481.00,0.0146
1480.00,0.0158
1479.00,0.0170
1478.00,0.0185
1477.00,0.0206
1476.00,0.0232
1475.00,0.0262
1474.00,0.0303
1473.00,0.0361
1472.00,0.0430
1471.00,0.0497
1470.00,0.0563
1469.00,0.0632
1468.00,0.0707
1467.00,0.0789
1466.00,0.0882
1465.00,0.0982
1464.00,0.1070
1463.00,0.1130
1462.00,0.1167
1461.00,0.1191
1460.00,0.1205
1459.00,0.1212
1458.00,0.1214
1457.00,0.1213
1456.00,0.1205
1455.00,0.1194
1454.00,0.1179
1453.00,0.1158
1452.00,0.1129
1451.00,0.1088
1450.00,0.1033
1449.00,0.0959
1448.00,0.0867
1447.00,0.0771
1446.00,0.0685
1445.00,0.0612
1444.00,0.0550
1443.00,0.0499
1442.00,0.0461
1441.00,0.0434
1440.00,0.0419
1439.00,0.0415
1438.00,0.0418
1437.00,0.0423
1436.00,0.0417
1435.00,0.0394
1434.00,0.0358
1433.00,0.0314
1432.00,0.0268
1431.00,0.0226
1430.00,0.0195
1429.00,0.0171
1428.00,0.0155
1427.00,0.0144
1426.00,0.0137
1425.00,0.0131
1424.00,0.0124
1423.00,0.0120
1422.00,0.0117
1421.00,0.0115
1420.00,0.0113
1419.00,0.0111
1418.00,0.0110
1417.00,0.0107
1416.00,0.0105
1415.00,0.0103
1414.00,0.0103
1413.00,0.0102
1412.00,0.0100
1411.00,0.0099
1410.00,0.0099
1409.00,0.0098
1408.00,0.0097
1407.00,0.0097
1406.00,0.0098
1405.00,0.0098
1404.00,0.0098
1403.00,0.0099
1402.00,0.0101
1401.00,0.0101
1400.00,0.0102
1399.00,0.0104
1398.00,0.0106
1397.00,0.0108
1396.00,0.0110
1395.00,0.0114
1394.00,0.0119
1393.00,0.0124
1392.00,0.0130
1391.00,0.0138
1390.00,0.0148
1389.00,0.0162
1388.00,0.0183
1387.00,0.0215
1386.00,0.0257
1385.00,0.0313
1384.00,0.0391
1383.00,0.0501
1382.00,0.0654
1381.00,0.0855
1380.00,0.1111
1379.00,0.1408
1378.00,0.1703
1377.00,0.1925
1376.00,0.2008
1375.00,0.1911
1374.00,0.1667
1373.00,0.1367
1372.00,0.1093
1371.00,0.0867
1370.00,0.0689
1369.00,0.0555
1368.00,0.0464
1367.00,0.0408
1366.00,0.0378
1365.00,0.0366
1364.00,0.0369
1363.00,0.0385
1362.00,0.0408
1361.00,0.0433
1360.00,0.0452
1359.00,0.0458
1358.00,0.0447
1357.00,0.0420
1356.00,0.0382
1355.00,0.0338
1354.00,0.0297
1353.00,0.0262
1352.00,0.0233
1351.00,0.0210
1350.00,0.0191
1349.00,0.0175
1348.00,0.0162
1347.00,0.0151
1346.00,0.0142
1345.00,0.0135
1344.00,0.0129
1343.00,0.0124
1342.00,0.0120
1341.00,0.0116
1340.00,0.0112
1339.00,0.0110
1338.00,0.0108
1337.00,0.0108
1336.00,0.0109
1335.00,0.0112
1334.00,0.0116
1333.00,0.0120
1332.00,0.0125
1331.00,0.0129
1330.00,0.0130
1329.00,0.0129
1328.00,0.0125
1327.00,0.0121
1326.00,0.0115
1325.00,0.0109
1324.00,0.0103
1323.00,0.0097
1322.00,0.0093
1321.00,0.0090
1320.00,0.0087
1319.00,0.0085
1318.00,0.0083
1317.00,0.0082
1316.00,0.0081
1315.00,0.0080
1314.00,0.0080
1313.00,0.0081
1312.00,0.0082
1311.00,0.0084
1310.00,0.0087
1309.00,0.0092
1308.00,0.0099
1307.00,0.0108
1306.00,0.0117
1305.00,0.0123
1304.00,0.0126
1303.00,0.0124
1302.00,0.0121
1301.00,0.0118
1300.00,0.0117
1299.00,0.0118
1298.00,0.0120
1297.00,0.0122
1296.00,0.0122
1295.00,0.0120
1294.00,0.0116
1293.00,0.0111
1292.00,0.0105
1291.00,0.0100
1290.00,0.0095
1289.00,0.0091
1288.00,0.0087
1287.00,0.0085
1286.00,0.0082
1285.00,0.0080
1284.00,0.0079
1283.00,0.0078
1282.00,0.0077
1281.00,0.0076
1280.00,0.0075
1279.00,0.0074
1278.00,0.0073
1277.00,0.0072
1276.00,0.0072
1275.00,0.0072
1274.00,0.0072
1273.00,0.0072
1272.00,0.0072
1271.00,0.0073
1270.00,0.0074
1269.00,0.0076
1268.00,0.0077
1267.00,0.0080
1266.00,0.0082
1265.00,0.0085
1264.00,0.0087
1263.00,0.0090
1262.00,0.0093
1261.00,0.0096
1260.00,0.0100
1259.00,0.0105
1258.00,0.0110
1257.00,0.0113
1256.00,0.0115
1255.00,0.0113
1254.00,0.0108
1253.00,0.0101
1252.00,0.0094
1251.00,0.0089
1250.00,0.0085
1249.00,0.0081
1248.00,0.0079
1247.00,0.0077
1246.00,0.0075
1245.00,0.0073
1244.00,0.0072
1243.00,0.0071
1242.00,0.0070
1241.00,0.0069
1240.00,0.0069
1239.00,0.0068
1238.00,0.0068
1237.00,0.0068
1236.00,0.0068
1235.00,0.0068
1234.00,0.0068
1233.00,0.0068
1232.00,0.0069
1231.00,0.0070
1230.00,0.0070
1229.00,0.0072
1228.00,0.0073
1227.00,0.0075
1226.00,0.0077
1225.00,0.0080
1224.00,0.0083
1223.00,0.0087
1222.00,0.0091
1221.00,0.0094
1220.00,0.0097
1219.00,0.0098
1218.00,0.0097
1217.00,0.0094
1216.00,0.0091
1215.00,0.0087
1214.00,0.0084
1213.00,0.0081
1212.00,0.0078
1211.00,0.0076
1210.00,0.0074
1209.00,0.0072
1208.00,0.0070
1207.00,0.0069
1206.00,0.0069
1205.00,0.0068
1204.00,0.0067
1203.00,0.0067
1202.00,0.0067
1201.00,0.0067
1200.00,0.0068
1199.00,0.0068
1198.00,0.0069
1197.00,0.0069
1196.00,0.0069
1195.00,0.0068
1194.00,0.0068
1193.00,0.0068
1192.00,0.0068
1191.00,0.0068
1190.00,0.0068
1189.00,0.0068
1188.00,0.0068
1187.00,0.0069
1186.00,0.0070
1185.00,0.0070
1184.00,0.0071
1183.00,0.0072
1182.00,0.0073
1181.00,0.0076
1180.00,0.0078
1179.00,0.0082
1178.00,0.0087
1177.00,0.0094
1176.00,0.0103
1175.00,0.0115
1174.00,0.0131
1173.00,0.0150
1172.00,0.0175
1171.00,0.0201
1170.00,0.0227
1169.00,0.0247
1168.00,0.0259
1167.00,0.0260
1166.00,0.0254
1165.00,0.0243
1164.00,0.0230
1163.00,0.0218
1162.00,0.0207
1161.00,0.0198
1160.00,0.0192
1159.00,0.0187
1158.00,0.0184
1157.00,0.0183
1156.00,0.0182
1155.00,0.0182
1154.00,0.0182
1153.00,0.0180
1152.00,0.0176
1151.00,0.0169
1150.00,0.0160
1149.00,0.0151
1148.00,0.0141
1147.00,0.0132
1146.00,0.0123
1145.00,0.0116
1144.00,0.0109
1143.00,0.0103
1142.00,0.0098
1141.00,0.0094
1140.00,0.0089
1139.00,0.0085
1138.00,0.0081
1137.00,0.0078
1136.00,0.0075
1135.00,0.0073
1134.00,0.0072
1133.00,0.0070
1132.00,0.0068
1131.00,0.0068
1130.00,0.0068
1129.00,0.0068
1128.00,0.0069
1127.00,0.0070
1126.00,0.0071
1125.00,0.0072
1124.00,0.0072
1123.00,0.0072
1122.00,0.0073
1121.00,0.0074
1120.00,0.0074
1119.00,0.0075
1118.00,0.0075
1117.00,0.0076
1116.00,0.0077
1115.00,0.0078
1114.00,0.0079
1113.00,0.0080
1112.00,0.0082
1111.00,0.0084
1110.00,0.0087
1109.00,0.0091
1108.00,0.0097
1107.00,0.0105
1106.00,0.0113
1105.00,0.0121
1104.00,0.0126
1103.00,0.0129
1102.00,0.0129
1101.00,0.0125
1100.00,0.0119
1099.00,0.0112
1098.00,0.0105
1097.00,0.0099
1096.00,0.0094
1095.00,0.0089
1094.00,0.0086
1093.00,0.0083
1092.00,0.0081
1091.00,0.0080
1090.00,0.0079
1089.00,0.0078
1088.00,0.0078
1087.00,0.0077
1086.00,0.0077
1085.00,0.0077
1084.00,0.0077
1083.00,0.0077
1082.00,0.0077
1081.00,0.0076
1080.00,0.0075
1079.00,0.0075
1078.00,0.0074
1077.00,0.0074
1076.00,0.0074
1075.00,0.0073
1074.00,0.0072
1073.00,0.0072
1072.00,0.0071
1071.00,0.0071
1070.00,0.0071
1069.00,0.0071
1068.00,0.0072
1067.00,0.0073
1066.00,0.0074
1065.00,0.0074
1064.00,0.0075
1063.00,0.0075
1062.00,0.0076
1061.00,0.0076
1060.00,0.0078
1059.00,0.0079
1058.00,0.0081
1057.00,0.0082
1056.00,0.0083
1055.00,0.0084
1054.00,0.0086
1053.00,0.0088
1052.00,0.0091
1051.00,0.0094
1050.00,0.0097
1049.00,0.0101
1048.00,0.0105
1047.00,0.0109
1046.00,0.0113
1045.00,0.0116
1044.00,0.0117
1043.00,0.0116
1042.00,0.0114
1041.00,0.0111
1040.00,0.0109
1039.00,0.0108
1038.00,0.0109
1037.00,0.0110
1036.00,0.0110
1035.00,0.0110
1034.00,0.0110
1033.00,0.0109
1032.00,0.0108
1031.00,0.0107
1030.00,0.0106
1029.00,0.0106
1028.00,0.0107
1027.00,0.0108
1026.00,0.0109
1025.00,0.0111
1024.00,0.0113
1023.00,0.0116
1022.00,0.0118
1021.00,0.0120
1020.00,0.0122
1019.00,0.0124
1018.00,0.0125
1017.00,0.0126
1016.00,0.0126
1015.00,0.0125
1014.00,0.0124
1013.00,0.0123
1012.00,0.0123
1011.00,0.0123
1010.00,0.0124
1009.00,0.0124
1008.00,0.0126
1007.00,0.0129
1006.00,0.0134
1005.00,0.0143
1004.00,0.0155
1003.00,0.0172
1002.00,0.0196
1001.00,0.0225
1000.00,0.0256
999.00,0.0281
998.00,0.0292
997.00,0.0285
996.00,0.0262
995.00,0.0231
994.00,0.0198
993.00,0.0170
992.00,0.0148
991.00,0.0133
990.00,0.0123
989.00,0.0116
988.00,0.0112
987.00,0.0109
986.00,0.0108
985.00,0.0110
984.00,0.0113
983.00,0.0119
982.00,0.0128
981.00,0.0141
980.00,0.0159
979.00,0.0184
978.00,0.0215
977.00,0.0251
976.00,0.0289
975.00,0.0322
974.00,0.0346
973.00,0.0352
972.00,0.0338
971.00,0.0306
970.00,0.0264
969.00,0.0222
968.00,0.0187
967.00,0.0159
966.00,0.0139
965.00,0.0125
964.00,0.0114
963.00,0.0106
962.00,0.0100
961.00,0.0095
960.00,0.0093
959.00,0.0090
958.00,0.0088
957.00,0.0086
956.00,0.0083
955.00,0.0081
954.00,0.0079
953.00,0.0078
952.00,0.0076
951.00,0.0076
950.00,0.0075
949.00,0.0075
948.00,0.0075
947.00,0.0076
946.00,0.0078
945.00,0.0080
944.00,0.0084
943.00,0.0088
942.00,0.0092
941.00,0.0094
940.00,0.0095
939.00,0.0093
938.00,0.0088
937.00,0.0082
936.00,0.0076
935.00,0.0072
934.00,0.0067
933.00,0.0063
932.00,0.0060
931.00,0.0059
930.00,0.0058
929.00,0.0059
928.00,0.0059
927.00,0.0060
926.00,0.0060
925.00,0.0059
924.00,0.0059
923.00,0.0059
922.00,0.0059
921.00,0.0058
920.00,0.0059
919.00,0.0060
918.00,0.0061
917.00,0.0062
916.00,0.0062
915.00,0.0062
914.00,0.0063
913.00,0.0064
912.00,0.0065
911.00,0.0067
910.00,0.0069
909.00,0.0071
908.00,0.0074
907.00,0.0079
906.00,0.0087
905.00,0.0098
904.00,0.0113
903.00,0.0132
902.00,0.0153
901.00,0.0172
900.00,0.0185
899.00,0.0187
898.00,0.0178
897.00,0.0161
896.00,0.0141
895.00,0.0122
894.00,0.0106
893.00,0.0094
892.00,0.0085
891.00,0.0080
890.00,0.0077
889.00,0.0074
888.00,0.0071
887.00,0.0069
886.00,0.0068
885.00,0.0066
884.00,0.0065
883.00,0.0064
882.00,0.0064
881.00,0.0064
880.00,0.0065
879.00,0.0067
878.00,0.0070
877.00,0.0072
876.00,0.0073
875.00,0.0073
874.00,0.0073
873.00,0.0073
872.00,0.0073
871.00,0.0073
870.00,0.0072
869.00,0.0071
868.00,0.0070
867.00,0.0070
866.00,0.0071
865.00,0.0072
864.00,0.0072
863.00,0.0073
862.00,0.0074
861.00,0.0076
860.00,0.0078
859.00,0.0081
858.00,0.0083
857.00,0.0084
856.00,0.0085
855.00,0.0086
854.00,0.0087
853.00,0.0088
852.00,0.0090
851.00,0.0093
850.00,0.0096
849.00,0.0101
848.00,0.0109
847.00,0.0119
846.00,0.0134
845.00,0.0157
844.00,0.0191
843.00,0.0232
842.00,0.0266
841.00,0.0278
840.00,0.0261
839.00,0.0223
838.00,0.0181
837.00,0.0148
836.00,0.0127
835.00,0.0114
834.00,0.0107
833.00,0.0102
832.00,0.0100
831.00,0.0099
830.00,0.0098
829.00,0.0097
828.00,0.0095
827.00,0.0094
826.00,0.0093
825.00,0.0092
824.00,0.0092
823.00,0.0092
822.00,0.0094
821.00,0.0096
820.00,0.0099
819.00,0.0103
818.00,0.0109
817.00,0.0116
816.00,0.0125
815.00,0.0136
814.00,0.0152
813.00,0.0173
812.00,0.0196
811.00,0.0218
810.00,0.0233
809.00,0.0239
808.00,0.0235
807.00,0.0221
806.00,0.0201
805.00,0.0179
804.00,0.0159
803.00,0.0143
802.00,0.0131
801.00,0.0122
800.00,0.0116
799.00,0.0111
798.00,0.0106
797.00,0.0101
796.00,0.0097
795.00,0.0093
794.00,0.0089
793.00,0.0087
792.00,0.0083
791.00,0.0080
790.00,0.0076
789.00,0.0073
788.00,0.0071
787.00,0.0069
786.00,0.0068
785.00,0.0067
784.00,0.0066
783.00,0.0065
782.00,0.0063
781.00,0.0061
780.00,0.0060
779.00,0.0060
778.00,0.0060
777.00,0.0060
776.00,0.0060
775.00,0.0060
774.00,0.0060
773.00,0.0060
772.00,0.0061
771.00,0.0061
770.00,0.0061
769.00,0.0062
768.00,0.0062
767.00,0.0062
766.00,0.0060
765.00,0.0058
764.00,0.0057
763.00,0.0057
762.00,0.0058
761.00,0.0059
760.00,0.0061
759.00,0.0061
758.00,0.0062
757.00,0.0065
756.00,0.0068
755.00,0.0072
754.00,0.0074
753.00,0.0074
752.00,0.0074
751.00,0.0074
750.00,0.0074
749.00,0.0075
748.00,0.0076
747.00,0.0077
746.00,0.0079
745.00,0.0081
744.00,0.0082
743.00,0.0083
742.00,0.0086
741.00,0.0090
740.00,0.0094
739.00,0.0097
738.00,0.0100
737.00,0.0104
736.00,0.0109
735.00,0.0113
734.00,0.0118
733.00,0.0123
732.00,0.0129
731.00,0.0135
730.00,0.0139
729.00,0.0141
728.00,0.0143
727.00,0.0145
726.00,0.0148
725.00,0.0152
724.00,0.0157
723.00,0.0162
722.00,0.0167
721.00,0.0171
720.00,0.0170
719.00,0.0163
718.00,0.0152
717.00,0.0138
716.00,0.0126
715.00,0.0116
714.00,0.0110
713.00,0.0108
712.00,0.0107
711.00,0.0106
710.00,0.0104
709.00,0.0102
708.00,0.0100
707.00,0.0097
706.00,0.0095
705.00,0.0094
704.00,0.0092
703.00,0.0090
702.00,0.0088
701.00,0.0088
700.00,0.0088
699.00,0.0087
698.00,0.0086
697.00,0.0086
696.00,0.0086
695.00,0.0087
694.00,0.0089
693.00,0.0091
692.00,0.0091
691.00,0.0089
690.00,0.0087
689.00,0.0086
688.00,0.0085
687.00,0.0086
686.00,0.0086
685.00,0.0087
684.00,0.0088
683.00,0.0090
682.00,0.0091
681.00,0.0092
680.00,0.0090
679.00,0.0089
678.00,0.0088
677.00,0.0088
676.00,0.0091
675.00,0.0094
674.00,0.0098
673.00,0.0099
672.00,0.0098
671.00,0.0098
670.00,0.0099
669.00,0.0101
668.00,0.0102
667.00,0.0099
666.00,0.0091
665.00,0.0085
664.00,0.0083
663.00,0.0082
662.00,0.0081
661.00,0.0082
660.00,0.0083
659.00,0.0084
658.00,0.0084
657.00,0.0083
656.00,0.0081
655.00,0.0080
654.00,0.0080
653.00,0.0080
652.00,0.0080
651.00,0.0079
650.00,0.0079
649.00,0.0078
648.00,0.0078
647.00,0.0079
646.00,0.0080
645.00,0.0081
644.00,0.0080
643.00,0.0080
642.00,0.0081
641.00,0.0082
640.00,0.0082
639.00,0.0079
638.00,0.0076
637.00,0.0075
636.00,0.0075
635.00,0.0075
634.00,0.0076
633.00,0.0077
632.00,0.0079
631.00,0.0082
630.00,0.0084
629.00,0.0085
628.00,0.0085
627.00,0.0083
626.00,0.0081
625.00,0.0081
624.00,0.0081
623.00,0.0082
622.00,0.0081
621.00,0.0080
620.00,0.0077
619.00,0.0073
618.00,0.0069
617.00,0.0067
616.00,0.0067
615.00,0.0068
614.00,0.0070
613.00,0.0071
612.00,0.0072
611.00,0.0074
610.00,0.0077
609.00,0.0079
608.00,0.0080
607.00,0.0078
606.00,0.0075
605.00,0.0073
604.00,0.0073
603.00,0.0076
602.00,0.0079
601.00,0.0081
600.00,0.0080
599.00,0.0079
598.00,0.0078
597.00,0.0077
596.00,0.0076
595.00,0.0075
594.00,0.0075
593.00,0.0075
592.00,0.0074
591.00,0.0075
590.00,0.0076
589.00,0.0078
588.00,0.0079
587.00,0.0077
586.00,0.0074
585.00,0.0071
584.00,0.0069
583.00,0.0069
582.00,0.0071
581.00,0.0074
580.00,0.0076
579.00,0.0076
578.00,0.0075
577.00,0.0074
576.00,0.0075
575.00,0.0076
574.00,0.0076
573.00,0.0074
572.00,0.0072
571.00,0.0073
570.00,0.0076
569.00,0.0080
568.00,0.0081
567.00,0.0080
566.00,0.0078
565.00,0.0075
564.00,0.0073
563.00,0.0071
562.00,0.0070
561.00,0.0068
560.00,0.0067
559.00,0.0068
558.00,0.0068
557.00,0.0069
556.00,0.0069
555.00,0.0071
554.00,0.0075
553.00,0.0080
552.00,0.0084
551.00,0.0083
550.00,0.0079
549.00,0.0075
548.00,0.0075
547.00,0.0078
546.00,0.0082
545.00,0.0083
544.00,0.0084
543.00,0.0084
542.00,0.0085
541.00,0.0087
540.00,0.0090
539.00,0.0096
538.00,0.0103
537.00,0.0109
536.00,0.0114
535.00,0.0115
534.00,0.0113
533.00,0.0111
532.00,0.0109
531.00,0.0109
530.00,0.0110
529.00,0.0112
528.00,0.0114
527.00,0.0115
526.00,0.0113
525.00,0.0110
524.00,0.0106
523.00,0.0102
522.00,0.0097
521.00,0.0091
520.00,0.0084
519.00,0.0079
518.00,0.0076
517.00,0.0076
516.00,0.0076
515.00,0.0077
514.00,0.0079
513.00,0.0079
512.00,0.0076
511.00,0.0072
510.00,0.0072
509.00,0.0077
508.00,0.0083
507.00,0.0088
506.00,0.0090
505.00,0.0088
504.00,0.0084
503.00,0.0080
502.00,0.0076
501.00,0.0076
500.00,0.0077
499.00,0.0082
498.00,0.0087
497.00,0.0091
496.00,0.0092
495.00,0.0088
494.00,0.0085
493.00,0.0083
492.00,0.0083
491.00,0.0083
490.00,0.0080
489.00,0.0072
488.00,0.0063
487.00,0.0058
486.00,0.0062
485.00,0.0073
484.00,0.0085
483.00,0.0095
482.00,0.0102
481.00,0.0106
480.00,0.0104
479.00,0.0098
478.00,0.0094
477.00,0.0096
476.00,0.0101
475.00,0.0103
474.00,0.0100
473.00,0.0097
472.00,0.0095
471.00,0.0098
470.00,0.0106
469.00,0.0120
468.00,0.0140
467.00,0.0159
466.00,0.0171
465.00,0.0174
464.00,0.0174
463.00,0.0173
462.00,0.0174
461.00,0.0176
460.00,0.0180
459.00,0.0183
458.00,0.0186
457.00,0.0187
456.00,0.0187
455.00,0.0186
454.00,0.0183
453.00,0.0176
452.00,0.0166
451.00,0.0157
450.00,0.0153
