Created as New Dataset,Sample 068 By Administrator Date Thursday, September 04 2025
cm-1,A
4000.00,0.0009
3999.00,0.0009
3998.00,0.0009
3997.00,0.0009
3996.00,0.0010
3995.00,0.0010
3994.00,0.0009
3993.00,0.0009
3992.00,0.0009
3991.00,0.0009
3990.00,0.0009
3989.00,0.0009
3988.00,0.0009
3987.00,0.0009
3986.00,0.0008
3985.00,0.0008
3984.00,0.0007
3983.00,0.0007
3982.00,0.0007
3981.00,0.0007
3980.00,0.0008
3979.00,0.0008
3978.00,0.0008
3977.00,0.0008
3976.00,0.0008
3975.00,0.0008
3974.00,0.0008
3973.00,0.0008
3972.00,0.0008
3971.00,0.0008
3970.00,0.0008
3969.00,0.0007
3968.00,0.0007
3967.00,0.0007
3966.00,0.0007
3965.00,0.0007
3964.00,0.0008
3963.00,0.0008
3962.00,0.0008
3961.00,0.0008
3960.00,0.0008
3959.00,0.0008
3958.00,0.0008
3957.00,0.0008
3956.00,0.0008
3955.00,0.0008
3954.00,0.0008
3953.00,0.0008
3952.00,0.0008
3951.00,0.0008
3950.00,0.0008
3949.00,0.0007
3948.00,0.0007
3947.00,0.0007
3946.00,0.0007
3945.00,0.0007
3944.00,0.0007
3943.00,0.0007
3942.00,0.0007
3941.00,0.0007
3940.00,0.0007
3939.00,0.0007
3938.00,0.0007
3937.00,0.0007
3936.00,0.0007
3935.00,0.0007
3934.00,0.0007
3933.00,0.0007
3932.00,0.0007
3931.00,0.0007
3930.00,0.0007
3929.00,0.0007
3928.00,0.0007
3927.00,0.0007
3926.00,0.0007
3925.00,0.0007
3924.00,0.0007
3923.00,0.0007
3922.00,0.0007
3921.00,0.0007
3920.00,0.0007
3919.00,0.0006
3918.00,0.0006
3917.00,0.0006
3916.00,0.0006
3915.00,0.0006
3914.00,0.0006
3913.00,0.0006
3912.00,0.0006
3911.00,0.0007
3910.00,0.0007
3909.00,0.0007
3908.00,0.0007
3907.00,0.0007
3906.00,0.0006
3905.00,0.0006
3904.00,0.0006
3903.00,0.0006
3902.00,0.0006
3901.00,0.0007
3900.00,0.0007
3899.00,0.0007
3898.00,0.0007
3897.00,0.0007
3896.00,0.0007
3895.00,0.0007
3894.00,0.0007
3893.00,0.0007
3892.00,0.0007
3891.00,0.0006
3890.00,0.0006
3889.00,0.0006
3888.00,0.0006
3887.00,0.0006
3886.00,0.0006
3885.00,0.0006
3884.00,0.0006
3883.00,0.0006
3882.00,0.0006
3881.00,0.0006
3880.00,0.0006
3879.00,0.0006
3878.00,0.0006
3877.00,0.0006
3876.00,0.0006
3875.00,0.0005
3874.00,0.0005
3873.00,0.0005
3872.00,0.0005
3871.00,0.0005
3870.00,0.0005
3869.00,0.0006
3868.00,0.0006
3867.00,0.0006
3866.00,0.0006
3865.00,0.0007
3864.00,0.0007
3863.00,0.0007
3862.00,0.0006
3861.00,0.0006
3860.00,0.0006
3859.00,0.0006
3858.00,0.0006
3857.00,0.0006
3856.00,0.0006
3855.00,0.0005
3854.00,0.0005
3853.00,0.0004
3852.00,0.0004
3851.00,0.0004
3850.00,0.0005
3849.00,0.0005
3848.00,0.0005
3847.00,0.0005
3846.00,0.0005
3845.00,0.0005
3844.00,0.0005
3843.00,0.0004
3842.00,0.0004
3841.00,0.0004
3840.00,0.0004
3839.00,0.0004
3838.00,0.0005
3837.00,0.0005
3836.00,0.0005
3835.00,0.0005
3834.00,0.0005
3833.00,0.0005
3832.00,0.0005
3831.00,0.0005
3830.00,0.0005
3829.00,0.0004
3828.00,0.0004
3827.00,0.0004
3826.00,0.0005
3825.00,0.0005
3824.00,0.0005
3823.00,0.0005
3822.00,0.0005
3821.00,0.0005
3820.00,0.0005
3819.00,0.0005
3818.00,0.0005
3817.00,0.0005
3816.00,0.0005
3815.00,0.0005
3814.00,0.0005
3813.00,0.0006
3812.00,0.0006
3811.00,0.0006
3810.00,0.0006
3809.00,0.0006
3808.00,0.0006
3807.00,0.0006
3806.00,0.0006
3805.00,0.0006
3804.00,0.0005
3803.00,0.0005
3802.00,0.0005
3801.00,0.0005
3800.00,0.0005
3799.00,0.0006
3798.00,0.0006
3797.00,0.0007
3796.00,0.0007
3795.00,0.0007
3794.00,0.0007
3793.00,0.0007
3792.00,0.0006
3791.00,0.0006
3790.00,0.0006
3789.00,0.0006
3788.00,0.0006
3787.00,0.0006
3786.00,0.0006
3785.00,0.0006
3784.00,0.0005
3783.00,0.0005
3782.00,0.0005
3781.00,0.0005
3780.00,0.0005
3779.00,0.0006
3778.00,0.0006
3777.00,0.0006
3776.00,0.0006
3775.00,0.0006
3774.00,0.0006
3773.00,0.0006
3772.00,0.0007
3771.00,0.0007
3770.00,0.0007
3769.00,0.0006
3768.00,0.0006
3767.00,0.0007
3766.00,0.0007
3765.00,0.0007
3764.00,0.0007
3763.00,0.0006
3762.00,0.0006
3761.00,0.0006
3760.00,0.0006
3759.00,0.0006
3758.00,0.0006
3757.00,0.0006
3756.00,0.0005
3755.00,0.0005
3754.00,0.0004
3753.00,0.0003
3752.00,0.0002
3751.00,0.0001
3750.00,0.0001
3749.00,0.0001
3748.00,0.0002
3747.00,0.0003
3746.00,0.0003
3745.00,0.0004
3744.00,0.0004
3743.00,0.0004
3742.00,0.0004
3741.00,0.0004
3740.00,0.0004
3739.00,0.0004
3738.00,0.0004
3737.00,0.0004
3736.00,0.0004
3735.00,0.0005
3734.00,0.0005
3733.00,0.0005
3732.00,0.0005
3731.00,0.0005
3730.00,0.0004
3729.00,0.0004
3728.00,0.0004
3727.00,0.0004
3726.00,0.0004
3725.00,0.0004
3724.00,0.0004
3723.00,0.0004
3722.00,0.0004
3721.00,0.0004
3720.00,0.0004
3719.00,0.0004
3718.00,0.0004
3717.00,0.0004
3716.00,0.0004
3715.00,0.0005
3714.00,0.0005
3713.00,0.0005
3712.00,0.0005
3711.00,0.0005
3710.00,0.0005
3709.00,0.0005
3708.00,0.0005
3707.00,0.0005
3706.00,0.0005
3705.00,0.0005
3704.00,0.0005
3703.00,0.0005
3702.00,0.0006
3701.00,0.0006
3700.00,0.0006
3699.00,0.0006
3698.00,0.0006
3697.00,0.0005
3696.00,0.0005
3695.00,0.0004
3694.00,0.0004
3693.00,0.0004
3692.00,0.0004
3691.00,0.0004
3690.00,0.0004
3689.00,0.0005
3688.00,0.0005
3687.00,0.0005
3686.00,0.0005
3685.00,0.0005
3684.00,0.0005
3683.00,0.0004
3682.00,0.0004
3681.00,0.0004
3680.00,0.0004
3679.00,0.0004
3678.00,0.0004
3677.00,0.0004
3676.00,0.0004
3675.00,0.0003
3674.00,0.0003
3673.00,0.0002
3672.00,0.0002
3671.00,0.0003
3670.00,0.0004
3669.00,0.0004
3668.00,0.0004
3667.00,0.0004
3666.00,0.0004
3665.00,0.0004
3664.00,0.0004
3663.00,0.0005
3662.00,0.0005
3661.00,0.0005
3660.00,0.0005
3659.00,0.0005
3658.00,0.0005
3657.00,0.0005
3656.00,0.0005
3655.00,0.0005
3654.00,0.0004
3653.00,0.0004
3652.00,0.0004
3651.00,0.0003
3650.00,0.0003
3649.00,0.0003
3648.00,0.0004
3647.00,0.0005
3646.00,0.0006
3645.00,0.0006
3644.00,0.0007
3643.00,0.0007
3642.00,0.0007
3641.00,0.0008
3640.00,0.0008
3639.00,0.0008
3638.00,0.0008
3637.00,0.0009
3636.00,0.0009
3635.00,0.0009
3634.00,0.0009
3633.00,0.0009
3632.00,0.0009
3631.00,0.0009
3630.00,0.0009
3629.00,0.0008
3628.00,0.0008
3627.00,0.0009
3626.00,0.0009
3625.00,0.0010
3624.00,0.0011
3623.00,0.0011
3622.00,0.0011
3621.00,0.0012
3620.00,0.0012
3619.00,0.0013
3618.00,0.0013
3617.00,0.0013
3616.00,0.0013
3615.00,0.0013
3614.00,0.0013
3613.00,0.0014
3612.00,0.0014
3611.00,0.0014
3610.00,0.0014
3609.00,0.0014
3608.00,0.0015
3607.00,0.0015
3606.00,0.0016
3605.00,0.0016
3604.00,0.0017
3603.00,0.0017
3602.00,0.0018
3601.00,0.0018
3600.00,0.0019
3599.00,0.0019
3598.00,0.0019
3597.00,0.0019
3596.00,0.0019
3595.00,0.0019
3594.00,0.0020
3593.00,0.0020
3592.00,0.0021
3591.00,0.0021
3590.00,0.0021
3589.00,0.0021
3588.00,0.0021
3587.00,0.0022
3586.00,0.0022
3585.00,0.0022
3584.00,0.0023
3583.00,0.0024
3582.00,0.0024
3581.00,0.0025
3580.00,0.0026
3579.00,0.0026
3578.00,0.0026
3577.00,0.0026
3576.00,0.0026
3575.00,0.0026
3574.00,0.0027
3573.00,0.0027
3572.00,0.0028
3571.00,0.0028
3570.00,0.0028
3569.00,0.0028
3568.00,0.0028
3567.00,0.0029
3566.00,0.0029
3565.00,0.0030
3564.00,0.0030
3563.00,0.0031
3562.00,0.0032
3561.00,0.0033
3560.00,0.0033
3559.00,0.0034
3558.00,0.0034
3557.00,0.0035
3556.00,0.0035
3555.00,0.0036
3554.00,0.0036
3553.00,0.0036
3552.00,0.0036
3551.00,0.0036
3550.00,0.0037
3549.00,0.0037
3548.00,0.0038
3547.00,0.0039
3546.00,0.0039
3545.00,0.0040
3544.00,0.0041
3543.00,0.0041
3542.00,0.0042
3541.00,0.0043
3540.00,0.0043
3539.00,0.0043
3538.00,0.0044
3537.00,0.0045
3536.00,0.0045
3535.00,0.0046
3534.00,0.0046
3533.00,0.0046
3532.00,0.0046
3531.00,0.0046
3530.00,0.0047
3529.00,0.0047
3528.00,0.0048
3527.00,0.0048
3526.00,0.0049
3525.00,0.0050
3524.00,0.0051
3523.00,0.0052
3522.00,0.0053
3521.00,0.0054
3520.00,0.0054
3519.00,0.0055
3518.00,0.0055
3517.00,0.0055
3516.00,0.0055
3515.00,0.0056
3514.00,0.0056
3513.00,0.0057
3512.00,0.0057
3511.00,0.0058
3510.00,0.0058
3509.00,0.0059
3508.00,0.0059
3507.00,0.0060
3506.00,0.0060
3505.00,0.0061
3504.00,0.0062
3503.00,0.0062
3502.00,0.0063
3501.00,0.0064
3500.00,0.0065
3499.00,0.0065
3498.00,0.0065
3497.00,0.0065
3496.00,0.0065
3495.00,0.0066
3494.00,0.0066
3493.00,0.0067
3492.00,0.0067
3491.00,0.0068
3490.00,0.0069
3489.00,0.0069
3488.00,0.0070
3487.00,0.0071
3486.00,0.0072
3485.00,0.0072
3484.00,0.0073
3483.00,0.0073
3482.00,0.0073
3481.00,0.0073
3480.00,0.0074
3479.00,0.0075
3478.00,0.0075
3477.00,0.0076
3476.00,0.0076
3475.00,0.0077
3474.00,0.0078
3473.00,0.0079
3472.00,0.0079
3471.00,0.0079
3470.00,0.0079
3469.00,0.0079
3468.00,0.0079
3467.00,0.0079
3466.00,0.0080
3465.00,0.0080
3464.00,0.0081
3463.00,0.0082
3462.00,0.0083
3461.00,0.0083
3460.00,0.0084
3459.00,0.0084
3458.00,0.0085
3457.00,0.0085
3456.00,0.0086
3455.00,0.0086
3454.00,0.0087
3453.00,0.0087
3452.00,0.0087
3451.00,0.0087
3450.00,0.0087
3449.00,0.0087
3448.00,0.0087
3447.00,0.0088
3446.00,0.0088
3445.00,0.0089
3444.00,0.0089
3443.00,0.0090
3442.00,0.0091
3441.00,0.0091
3440.00,0.0092
3439.00,0.0092
3438.00,0.0092
3437.00,0.0093
3436.00,0.0093
3435.00,0.0093
3434.00,0.0093
3433.00,0.0094
3432.00,0.0094
3431.00,0.0094
3430.00,0.0095
3429.00,0.0095
3428.00,0.0095
3427.00,0.0096
3426.00,0.0096
3425.00,0.0097
3424.00,0.0097
3423.00,0.0097
3422.00,0.0097
3421.00,0.0097
3420.00,0.0098
3419.00,0.0099
3418.00,0.0099
3417.00,0.0100
3416.00,0.0100
3415.00,0.0100
3414.00,0.0100
3413.00,0.0100
3412.00,0.0100
3411.00,0.0100
3410.00,0.0100
3409.00,0.0100
3408.00,0.0101
3407.00,0.0101
3406.00,0.0102
3405.00,0.0102
3404.00,0.0103
3403.00,0.0103
3402.00,0.0104
3401.00,0.0104
3400.00,0.0105
3399.00,0.0105
3398.00,0.0105
3397.00,0.0105
3396.00,0.0105
3395.00,0.0105
3394.00,0.0106
3393.00,0.0106
3392.00,0.0106
3391.00,0.0106
3390.00,0.0106
3389.00,0.0106
3388.00,0.0107
3387.00,0.0107
3386.00,0.0106
3385.00,0.0106
3384.00,0.0106
3383.00,0.0107
3382.00,0.0107
3381.00,0.0107
3380.00,0.0107
3379.00,0.0107
3378.00,0.0107
3377.00,0.0107
3376.00,0.0107
3375.00,0.0107
3374.00,0.0107
3373.00,0.0106
3372.00,0.0106
3371.00,0.0107
3370.00,0.0107
3369.00,0.0108
3368.00,0.0108
3367.00,0.0108
3366.00,0.0109
3365.00,0.0109
3364.00,0.0109
3363.00,0.0109
3362.00,0.0109
3361.00,0.0108
3360.00,0.0108
3359.00,0.0108
3358.00,0.0107
3357.00,0.0107
3356.00,0.0107
3355.00,0.0107
3354.00,0.0108
3353.00,0.0108
3352.00,0.0108
3351.00,0.0108
3350.00,0.0108
3349.00,0.0108
3348.00,0.0107
3347.00,0.0107
3346.00,0.0107
3345.00,0.0107
3344.00,0.0107
3343.00,0.0107
3342.00,0.0107
3341.00,0.0107
3340.00,0.0106
3339.00,0.0106
3338.00,0.0106
3337.00,0.0106
3336.00,0.0106
3335.00,0.0106
3334.00,0.0106
3333.00,0.0105
3332.00,0.0105
3331.00,0.0105
3330.00,0.0105
3329.00,0.0105
3328.00,0.0105
3327.00,0.0105
3326.00,0.0104
3325.00,0.0104
3324.00,0.0103
3323.00,0.0103
3322.00,0.0103
3321.00,0.0102
3320.00,0.0103
3319.00,0.0103
3318.00,0.0103
3317.00,0.0103
3316.00,0.0103
3315.00,0.0103
3314.00,0.0102
3313.00,0.0102
3312.00,0.0102
3311.00,0.0103
3310.00,0.0103
3309.00,0.0103
3308.00,0.0103
3307.00,0.0103
3306.00,0.0103
3305.00,0.0103
3304.00,0.0103
3303.00,0.0104
3302.00,0.0104
3301.00,0.0104
3300.00,0.0103
3299.00,0.0103
3298.00,0.0102
3297.00,0.0102
3296.00,0.0101
3295.00,0.0101
3294.00,0.0101
3293.00,0.0100
3292.00,0.0100
3291.00,0.0099
3290.00,0.0099
3289.00,0.0098
3288.00,0.0098
3287.00,0.0097
3286.00,0.0096
3285.00,0.0095
3284.00,0.0095
3283.00,0.0095
3282.00,0.0095
3281.00,0.0095
3280.00,0.0095
3279.00,0.0094
3278.00,0.0094
3277.00,0.0093
3276.00,0.0093
3275.00,0.0092
3274.00,0.0092
3273.00,0.0092
3272.00,0.0091
3271.00,0.0091
3270.00,0.0091
3269.00,0.0090
3268.00,0.0090
3267.00,0.0090
3266.00,0.0090
3265.00,0.0089
3264.00,0.0089
3263.00,0.0088
3262.00,0.0088
3261.00,0.0088
3260.00,0.0088
3259.00,0.0087
3258.00,0.0087
3257.00,0.0087
3256.00,0.0087
3255.00,0.0086
3254.00,0.0086
3253.00,0.0085
3252.00,0.0085
3251.00,0.0084
3250.00,0.0084
3249.00,0.0084
3248.00,0.0083
3247.00,0.0083
3246.00,0.0082
3245.00,0.0082
3244.00,0.0081
3243.00,0.0080
3242.00,0.0080
3241.00,0.0080
3240.00,0.0080
3239.00,0.0080
3238.00,0.0080
3237.00,0.0080
3236.00,0.0080
3235.00,0.0079
3234.00,0.0079
3233.00,0.0079
3232.00,0.0079
3231.00,0.0079
3230.00,0.0079
3229.00,0.0079
3228.00,0.0078
3227.00,0.0078
3226.00,0.0078
3225.00,0.0078
3224.00,0.0078
3223.00,0.0079
3222.00,0.0079
3221.00,0.0079
3220.00,0.0079
3219.00,0.0078
3218.00,0.0078
3217.00,0.0077
3216.00,0.0077
3215.00,0.0077
3214.00,0.0078
3213.00,0.0078
3212.00,0.0078
3211.00,0.0078
3210.00,0.0078
3209.00,0.0078
3208.00,0.0078
3207.00,0.0078
3206.00,0.0078
3205.00,0.0078
3204.00,0.0079
3203.00,0.0079
3202.00,0.0080
3201.00,0.0080
3200.00,0.0079
3199.00,0.0079
3198.00,0.0078
3197.00,0.0078
3196.00,0.0078
3195.00,0.0077
3194.00,0.0077
3193.00,0.0077
3192.00,0.0076
3191.00,0.0076
3190.00,0.0076
3189.00,0.0076
3188.00,0.0076
3187.00,0.0076
3186.00,0.0076
3185.00,0.0076
3184.00,0.0076
3183.00,0.0076
3182.00,0.0075
3181.00,0.0075
3180.00,0.0074
3179.00,0.0074
3178.00,0.0073
3177.00,0.0073
3176.00,0.0072
3175.00,0.0072
3174.00,0.0072
3173.00,0.0071
3172.00,0.0071
3171.00,0.0070
3170.00,0.0070
3169.00,0.0070
3168.00,0.0069
3167.00,0.0069
3166.00,0.0069
3165.00,0.0068
3164.00,0.0068
3163.00,0.0068
3162.00,0.0068
3161.00,0.0068
3160.00,0.0068
3159.00,0.0068
3158.00,0.0068
3157.00,0.0067
3156.00,0.0067
3155.00,0.0066
3154.00,0.0066
3153.00,0.0066
3152.00,0.0065
3151.00,0.0065
3150.00,0.0065
3149.00,0.0065
3148.00,0.0065
3147.00,0.0065
3146.00,0.0065
3145.00,0.0064
3144.00,0.0064
3143.00,0.0063
3142.00,0.0063
3141.00,0.0063
3140.00,0.0062
3139.00,0.0062
3138.00,0.0062
3137.00,0.0062
3136.00,0.0062
3135.00,0.0061
3134.00,0.0061
3133.00,0.0061
3132.00,0.0060
3131.00,0.0060
3130.00,0.0059
3129.00,0.0060
3128.00,0.0059
3127.00,0.0059
3126.00,0.0058
3125.00,0.0057
3124.00,0.0056
3123.00,0.0056
3122.00,0.0056
3121.00,0.0055
3120.00,0.0055
3119.00,0.0055
3118.00,0.0055
3117.00,0.0055
3116.00,0.0054
3115.00,0.0054
3114.00,0.0054
3113.00,0.0054
3112.00,0.0053
3111.00,0.0053
3110.00,0.0053
3109.00,0.0052
3108.00,0.0052
3107.00,0.0052
3106.00,0.0052
3105.00,0.0051
3104.00,0.0051
3103.00,0.0050
3102.00,0.0050
3101.00,0.0050
3100.00,0.0051
3099.00,0.0050
3098.00,0.0050
3097.00,0.0050
3096.00,0.0049
3095.00,0.0049
3094.00,0.0049
3093.00,0.0049
3092.00,0.0049
3091.00,0.0049
3090.00,0.0049
3089.00,0.0049
3088.00,0.0049
3087.00,0.0049
3086.00,0.0049
3085.00,0.0048
3084.00,0.0048
3083.00,0.0048
3082.00,0.0047
3081.00,0.0047
3080.00,0.0047
3079.00,0.0046
3078.00,0.0046
3077.00,0.0046
3076.00,0.0047
3075.00,0.0047
3074.00,0.0048
3073.00,0.0048
3072.00,0.0048
3071.00,0.0048
3070.00,0.0049
3069.00,0.0049
3068.00,0.0049
3067.00,0.0049
3066.00,0.0049
3065.00,0.0049
3064.00,0.0049
3063.00,0.0049
3062.00,0.0050
3061.00,0.0050
3060.00,0.0050
3059.00,0.0050
3058.00,0.0050
3057.00,0.0050
3056.00,0.0050
3055.00,0.0050
3054.00,0.0050
3053.00,0.0051
3052.00,0.0050
3051.00,0.0050
3050.00,0.0050
3049.00,0.0050
3048.00,0.0050
3047.00,0.0050
3046.00,0.0051
3045.00,0.0052
3044.00,0.0052
3043.00,0.0053
3042.00,0.0053
3041.00,0.0053
3040.00,0.0054
3039.00,0.0054
3038.00,0.0055
3037.00,0.0056
3036.00,0.0056
3035.00,0.0056
3034.00,0.0056
3033.00,0.0056
3032.00,0.0057
3031.00,0.0057
3030.00,0.0058
3029.00,0.0059
3028.00,0.0059
3027.00,0.0060
3026.00,0.0060
3025.00,0.0060
3024.00,0.0061
3023.00,0.0062
3022.00,0.0063
3021.00,0.0063
3020.00,0.0063
3019.00,0.0064
3018.00,0.0064
3017.00,0.0064
3016.00,0.0064
3015.00,0.0065
3014.00,0.0065
3013.00,0.0066
3012.00,0.0067
3011.00,0.0067
3010.00,0.0068
3009.00,0.0069
3008.00,0.0070
3007.00,0.0070
3006.00,0.0070
3005.00,0.0071
3004.00,0.0072
3003.00,0.0073
3002.00,0.0074
3001.00,0.0076
3000.00,0.0077
2999.00,0.0079
2998.00,0.0082
2997.00,0.0084
2996.00,0.0087
2995.00,0.0090
2994.00,0.0094
2993.00,0.0098
2992.00,0.0103
2991.00,0.0108
2990.00,0.0114
2989.00,0.0120
2988.00,0.0127
2987.00,0.0134
2986.00,0.0142
2985.00,0.0150
2984.00,0.0158
2983.00,0.0169
2982.00,0.0182
2981.00,0.0198
2980.00,0.0217
2979.00,0.0239
2978.00,0.0265
2977.00,0.0293
2976.00,0.0325
2975.00,0.0361
2974.00,0.0402
2973.00,0.0448
2972.00,0.0501
2971.00,0.0561
2970.00,0.0628
2969.00,0.0703
2968.00,0.0785
2967.00,0.0873
2966.00,0.0966
2965.00,0.1064
2964.00,0.1162
2963.00,0.1257
2962.00,0.1343
2961.00,0.1416
2960.00,0.1474
2959.00,0.1518
2958.00,0.1551
2957.00,0.1580
2956.00,0.1609
2955.00,0.1643
2954.00,0.1683
2953.00,0.1724
2952.00,0.1759
2951.00,0.1779
2950.00,0.1774
2949.00,0.1739
2948.00,0.1674
2947.00,0.1583
2946.00,0.1478
2945.00,0.1369
2944.00,0.1267
2943.00,0.1181
2942.00,0.1116
2941.00,0.1072
2940.00,0.1049
2939.00,0.1046
2938.00,0.1061
2937.00,0.1092
2936.00,0.1136
2935.00,0.1194
2934.00,0.1263
2933.00,0.1343
2932.00,0.1432
2931.00,0.1528
2930.00,0.1630
2929.00,0.1735
2928.00,0.1838
2927.00,0.1938
2926.00,0.2033
2925.00,0.2123
2924.00,0.2207
2923.00,0.2288
2922.00,0.2365
2921.00,0.2435
2920.00,0.2495
2919.00,0.2537
2918.00,0.2552
2917.00,0.2537
2916.00,0.2492
2915.00,0.2422
2914.00,0.2336
2913.00,0.2245
2912.00,0.2156
2911.00,0.2074
2910.00,0.2002
2909.00,0.1937
2908.00,0.1879
2907.00,0.1823
2906.00,0.1767
2905.00,0.1710
2904.00,0.1650
2903.00,0.1590
2902.00,0.1528
2901.00,0.1467
2900.00,0.1406
2899.00,0.1349
2898.00,0.1294
2897.00,0.1244
2896.00,0.1198
2895.00,0.1158
2894.00,0.1123
2893.00,0.1094
2892.00,0.1071
2891.00,0.1053
2890.00,0.1039
2889.00,0.1029
2888.00,0.1023
2887.00,0.1021
2886.00,0.1021
2885.00,0.1025
2884.00,0.1032
2883.00,0.1043
2882.00,0.1058
2881.00,0.1076
2880.00,0.1093
2879.00,0.1108
2878.00,0.1117
2877.00,0.1120
2876.00,0.1117
2875.00,0.1111
2874.00,0.1107
2873.00,0.1108
2872.00,0.1115
2871.00,0.1127
2870.00,0.1144
2869.00,0.1159
2868.00,0.1170
2867.00,0.1168
2866.00,0.1149
2865.00,0.1113
2864.00,0.1062
2863.00,0.1005
2862.00,0.0948
2861.00,0.0899
2860.00,0.0862
2859.00,0.0839
2858.00,0.0828
2857.00,0.0827
2856.00,0.0834
2855.00,0.0845
2854.00,0.0859
2853.00,0.0874
2852.00,0.0887
2851.00,0.0898
2850.00,0.0904
2849.00,0.0906
2848.00,0.0908
2847.00,0.0913
2846.00,0.0927
2845.00,0.0951
2844.00,0.0987
2843.00,0.1031
2842.00,0.1079
2841.00,0.1125
2840.00,0.1162
2839.00,0.1181
2838.00,0.1176
2837.00,0.1143
2836.00,0.1083
2835.00,0.1000
2834.00,0.0903
2833.00,0.0801
2832.00,0.0705
2831.00,0.0618
2830.00,0.0545
2829.00,0.0485
2828.00,0.0436
2827.00,0.0396
2826.00,0.0363
2825.00,0.0336
2824.00,0.0313
2823.00,0.0294
2822.00,0.0277
2821.00,0.0262
2820.00,0.0250
2819.00,0.0239
2818.00,0.0229
2817.00,0.0221
2816.00,0.0213
2815.00,0.0206
2814.00,0.0200
2813.00,0.0195
2812.00,0.0190
2811.00,0.0184
2810.00,0.0179
2809.00,0.0174
2808.00,0.0168
2807.00,0.0162
2806.00,0.0155
2805.00,0.0149
2804.00,0.0143
2803.00,0.0137
2802.00,0.0133
2801.00,0.0128
2800.00,0.0125
2799.00,0.0122
2798.00,0.0119
2797.00,0.0117
2796.00,0.0114
2795.00,0.0112
2794.00,0.0110
2793.00,0.0107
2792.00,0.0104
2791.00,0.0101
2790.00,0.0098
2789.00,0.0094
2788.00,0.0091
2787.00,0.0088
2786.00,0.0085
2785.00,0.0082
2784.00,0.0079
2783.00,0.0077
2782.00,0.0075
2781.00,0.0073
2780.00,0.0071
2779.00,0.0070
2778.00,0.0068
2777.00,0.0067
2776.00,0.0066
2775.00,0.0065
2774.00,0.0063
2773.00,0.0062
2772.00,0.0062
2771.00,0.0061
2770.00,0.0061
2769.00,0.0061
2768.00,0.0061
2767.00,0.0060
2766.00,0.0060
2765.00,0.0060
2764.00,0.0059
2763.00,0.0059
2762.00,0.0058
2761.00,0.0058
2760.00,0.0058
2759.00,0.0058
2758.00,0.0057
2757.00,0.0057
2756.00,0.0056
2755.00,0.0056
2754.00,0.0056
2753.00,0.0056
2752.00,0.0056
2751.00,0.0055
2750.00,0.0055
2749.00,0.0055
2748.00,0.0056
2747.00,0.0056
2746.00,0.0056
2745.00,0.0057
2744.00,0.0057
2743.00,0.0058
2742.00,0.0059
2741.00,0.0060
2740.00,0.0061
2739.00,0.0062
2738.00,0.0063
2737.00,0.0064
2736.00,0.0065
2735.00,0.0067
2734.00,0.0068
2733.00,0.0069
2732.00,0.0070
2731.00,0.0072
2730.00,0.0074
2729.00,0.0076
2728.00,0.0078
2727.00,0.0080
2726.00,0.0083
2725.00,0.0084
2724.00,0.0086
2723.00,0.0086
2722.00,0.0086
2721.00,0.0084
2720.00,0.0082
2719.00,0.0079
2718.00,0.0076
2717.00,0.0073
2716.00,0.0070
2715.00,0.0067
2714.00,0.0065
2713.00,0.0063
2712.00,0.0061
2711.00,0.0060
2710.00,0.0059
2709.00,0.0058
2708.00,0.0056
2707.00,0.0055
2706.00,0.0054
2705.00,0.0052
2704.00,0.0052
2703.00,0.0051
2702.00,0.0050
2701.00,0.0050
2700.00,0.0049
2699.00,0.0049
2698.00,0.0048
2697.00,0.0048
2696.00,0.0048
2695.00,0.0047
2694.00,0.0047
2693.00,0.0047
2692.00,0.0047
2691.00,0.0048
2690.00,0.0048
2689.00,0.0048
2688.00,0.0048
2687.00,0.0048
2686.00,0.0048
2685.00,0.0047
2684.00,0.0047
2683.00,0.0047
2682.00,0.0047
2681.00,0.0047
2680.00,0.0048
2679.00,0.0048
2678.00,0.0048
2677.00,0.0048
2676.00,0.0048
2675.00,0.0047
2674.00,0.0047
2673.00,0.0046
2672.00,0.0046
2671.00,0.0046
2670.00,0.0046
2669.00,0.0046
2668.00,0.0046
2667.00,0.0046
2666.00,0.0046
2665.00,0.0047
2664.00,0.0047
2663.00,0.0048
2662.00,0.0049
2661.00,0.0049
2660.00,0.0049
2659.00,0.0049
2658.00,0.0049
2657.00,0.0048
2656.00,0.0048
2655.00,0.0048
2654.00,0.0047
2653.00,0.0047
2652.00,0.0047
2651.00,0.0046
2650.00,0.0046
2649.00,0.0045
2648.00,0.0045
2647.00,0.0044
2646.00,0.0044
2645.00,0.0044
2644.00,0.0044
2643.00,0.0043
2642.00,0.0043
2641.00,0.0042
2640.00,0.0042
2639.00,0.0041
2638.00,0.0041
2637.00,0.0041
2636.00,0.0041
2635.00,0.0040
2634.00,0.0040
2633.00,0.0040
2632.00,0.0040
2631.00,0.0040
2630.00,0.0040
2629.00,0.0040
2628.00,0.0040
2627.00,0.0041
2626.00,0.0041
2625.00,0.0041
2624.00,0.0042
2623.00,0.0042
2622.00,0.0042
2621.00,0.0042
2620.00,0.0042
2619.00,0.0042
2618.00,0.0042
2617.00,0.0043
2616.00,0.0042
2615.00,0.0042
2614.00,0.0041
2613.00,0.0041
2612.00,0.0040
2611.00,0.0039
2610.00,0.0038
2609.00,0.0037
2608.00,0.0037
2607.00,0.0036
2606.00,0.0035
2605.00,0.0035
2604.00,0.0035
2603.00,0.0034
2602.00,0.0034
2601.00,0.0034
2600.00,0.0034
2599.00,0.0034
2598.00,0.0033
2597.00,0.0033
2596.00,0.0033
2595.00,0.0032
2594.00,0.0033
2593.00,0.0033
2592.00,0.0034
2591.00,0.0035
2590.00,0.0035
2589.00,0.0036
2588.00,0.0036
2587.00,0.0037
2586.00,0.0037
2585.00,0.0037
2584.00,0.0038
2583.00,0.0038
2582.00,0.0039
2581.00,0.0038
2580.00,0.0037
2579.00,0.0036
2578.00,0.0036
2577.00,0.0035
2576.00,0.0034
2575.00,0.0033
2574.00,0.0032
2573.00,0.0030
2572.00,0.0029
2571.00,0.0029
2570.00,0.0028
2569.00,0.0028
2568.00,0.0028
2567.00,0.0027
2566.00,0.0026
2565.00,0.0026
2564.00,0.0025
2563.00,0.0025
2562.00,0.0025
2561.00,0.0024
2560.00,0.0024
2559.00,0.0024
2558.00,0.0024
2557.00,0.0024
2556.00,0.0024
2555.00,0.0024
2554.00,0.0023
2553.00,0.0022
2552.00,0.0022
2551.00,0.0021
2550.00,0.0021
2549.00,0.0021
2548.00,0.0021
2547.00,0.0021
2546.00,0.0021
2545.00,0.0020
2544.00,0.0020
2543.00,0.0020
2542.00,0.0020
2541.00,0.0020
2540.00,0.0020
2539.00,0.0020
2538.00,0.0020
2537.00,0.0020
2536.00,0.0019
2535.00,0.0019
2534.00,0.0018
2533.00,0.0017
2532.00,0.0016
2531.00,0.0016
2530.00,0.0016
2529.00,0.0015
2528.00,0.0014
2527.00,0.0014
2526.00,0.0014
2525.00,0.0014
2524.00,0.0015
2523.00,0.0015
2522.00,0.0015
2521.00,0.0015
2520.00,0.0014
2519.00,0.0014
2518.00,0.0014
2517.00,0.0014
2516.00,0.0014
2515.00,0.0014
2514.00,0.0013
2513.00,0.0013
2512.00,0.0012
2511.00,0.0012
2510.00,0.0012
2509.00,0.0012
2508.00,0.0013
2507.00,0.0012
2506.00,0.0012
2505.00,0.0012
2504.00,0.0011
2503.00,0.0011
2502.00,0.0011
2501.00,0.0011
2500.00,0.0012
2499.00,0.0012
2498.00,0.0012
2497.00,0.0012
2496.00,0.0012
2495.00,0.0012
2494.00,0.0012
2493.00,0.0011
2492.00,0.0011
2491.00,0.0012
2490.00,0.0012
2489.00,0.0012
2488.00,0.0012
2487.00,0.0011
2486.00,0.0011
2485.00,0.0010
2484.00,0.0010
2483.00,0.0010
2482.00,0.0010
2481.00,0.0010
2480.00,0.0011
2479.00,0.0011
2478.00,0.0011
2477.00,0.0011
2476.00,0.0010
2475.00,0.0010
2474.00,0.0010
2473.00,0.0010
2472.00,0.0010
2471.00,0.0010
2470.00,0.0010
2469.00,0.0010
2468.00,0.0010
2467.00,0.0009
2466.00,0.0009
2465.00,0.0010
2464.00,0.0011
2463.00,0.0012
2462.00,0.0012
2461.00,0.0012
2460.00,0.0012
2459.00,0.0011
2458.00,0.0011
2457.00,0.0010
2456.00,0.0010
2455.00,0.0010
2454.00,0.0011
2453.00,0.0011
2452.00,0.0012
2451.00,0.0012
2450.00,0.0012
2449.00,0.0011
2448.00,0.0011
2447.00,0.0011
2446.00,0.0011
2445.00,0.0011
2444.00,0.0011
2443.00,0.0011
2442.00,0.0011
2441.00,0.0012
2440.00,0.0012
2439.00,0.0012
2438.00,0.0011
2437.00,0.0011
2436.00,0.0011
2435.00,0.0011
2434.00,0.0012
2433.00,0.0013
2432.00,0.0014
2431.00,0.0014
2430.00,0.0014
2429.00,0.0013
2428.00,0.0013
2427.00,0.0013
2426.00,0.0012
2425.00,0.0011
2424.00,0.0011
2423.00,0.0010
2422.00,0.0010
2421.00,0.0010
2420.00,0.0010
2419.00,0.0011
2418.00,0.0011
2417.00,0.0011
2416.00,0.0011
2415.00,0.0011
2414.00,0.0012
2413.00,0.0012
2412.00,0.0013
2411.00,0.0012
2410.00,0.0011
2409.00,0.0010
2408.00,0.0010
2407.00,0.0010
2406.00,0.0010
2405.00,0.0009
2404.00,0.0009
2403.00,0.0008
2402.00,0.0008
2401.00,0.0008
2400.00,0.0009
2399.00,0.0010
2398.00,0.0010
2397.00,0.0010
2396.00,0.0010
2395.00,0.0009
2394.00,0.0009
2393.00,0.0009
2392.00,0.0009
2391.00,0.0009
2390.00,0.0009
2389.00,0.0009
2388.00,0.0009
2387.00,0.0009
2386.00,0.0009
2385.00,0.0009
2384.00,0.0008
2383.00,0.0008
2382.00,0.0007
2381.00,0.0007
2380.00,0.0007
2379.00,0.0007
2378.00,0.0007
2377.00,0.0007
2376.00,0.0007
2375.00,0.0007
2374.00,0.0008
2373.00,0.0009
2372.00,0.0009
2371.00,0.0009
2370.00,0.0008
2369.00,0.0007
2368.00,0.0007
2367.00,0.0007
2366.00,0.0008
2365.00,0.0008
2364.00,0.0008
2363.00,0.0009
2362.00,0.0009
2361.00,0.0010
2360.00,0.0010
2359.00,0.0011
2358.00,0.0011
2357.00,0.0010
2356.00,0.0010
2355.00,0.0010
2354.00,0.0010
2353.00,0.0010
2352.00,0.0010
2351.00,0.0010
2350.00,0.0010
2349.00,0.0010
2348.00,0.0011
2347.00,0.0011
2346.00,0.0011
2345.00,0.0011
2344.00,0.0011
2343.00,0.0012
2342.00,0.0012
2341.00,0.0012
2340.00,0.0013
2339.00,0.0013
2338.00,0.0013
2337.00,0.0013
2336.00,0.0013
2335.00,0.0012
2334.00,0.0012
2333.00,0.0011
2332.00,0.0011
2331.00,0.0011
2330.00,0.0011
2329.00,0.0011
2328.00,0.0013
2327.00,0.0016
2326.00,0.0021
2325.00,0.0025
2324.00,0.0026
2323.00,0.0025
2322.00,0.0023
2321.00,0.0021
2320.00,0.0019
2319.00,0.0018
2318.00,0.0017
2317.00,0.0016
2316.00,0.0015
2315.00,0.0014
2314.00,0.0013
2313.00,0.0012
2312.00,0.0012
2311.00,0.0012
2310.00,0.0012
2309.00,0.0012
2308.00,0.0012
2307.00,0.0012
2306.00,0.0013
2305.00,0.0013
2304.00,0.0013
2303.00,0.0013
2302.00,0.0013
2301.00,0.0013
2300.00,0.0013
2299.00,0.0013
2298.00,0.0014
2297.00,0.0015
2296.00,0.0016
2295.00,0.0016
2294.00,0.0016
2293.00,0.0016
2292.00,0.0018
2291.00,0.0019
2290.00,0.0019
2289.00,0.0019
2288.00,0.0019
2287.00,0.0019
2286.00,0.0019
2285.00,0.0019
2284.00,0.0018
2283.00,0.0017
2282.00,0.0016
2281.00,0.0015
2280.00,0.0015
2279.00,0.0014
2278.00,0.0015
2277.00,0.0015
2276.00,0.0016
2275.00,0.0017
2274.00,0.0017
2273.00,0.0016
2272.00,0.0016
2271.00,0.0015
2270.00,0.0014
2269.00,0.0014
2268.00,0.0014
2267.00,0.0014
2266.00,0.0013
2265.00,0.0013
2264.00,0.0013
2263.00,0.0013
2262.00,0.0013
2261.00,0.0013
2260.00,0.0014
2259.00,0.0015
2258.00,0.0015
2257.00,0.0015
2256.00,0.0014
2255.00,0.0013
2254.00,0.0011
2253.00,0.0010
2252.00,0.0010
2251.00,0.0009
2250.00,0.0009
2249.00,0.0008
2248.00,0.0008
2247.00,0.0007
2246.00,0.0007
2245.00,0.0007
2244.00,0.0007
2243.00,0.0008
2242.00,0.0010
2241.00,0.0013
2240.00,0.0014
2239.00,0.0015
2238.00,0.0015
2237.00,0.0014
2236.00,0.0012
2235.00,0.0010
2234.00,0.0009
2233.00,0.0009
2232.00,0.0010
2231.00,0.0011
2230.00,0.0011
2229.00,0.0011
2228.00,0.0010
2227.00,0.0010
2226.00,0.0010
2225.00,0.0010
2224.00,0.0009
2223.00,0.0009
2222.00,0.0008
2221.00,0.0007
2220.00,0.0005
2219.00,0.0004
2218.00,0.0004
2217.00,0.0006
2216.00,0.0008
2215.00,0.0009
2214.00,0.0010
2213.00,0.0009
2212.00,0.0007
2211.00,0.0005
2210.00,0.0003
2209.00,0.0002
2208.00,0.0004
2207.00,0.0005
2206.00,0.0005
2205.00,0.0005
2204.00,0.0005
2203.00,0.0005
2202.00,0.0006
2201.00,0.0007
2200.00,0.0008
2199.00,0.0010
2198.00,0.0011
2197.00,0.0011
2196.00,0.0012
2195.00,0.0012
2194.00,0.0012
2193.00,0.0013
2192.00,0.0013
2191.00,0.0013
2190.00,0.0013
2189.00,0.0013
2188.00,0.0015
2187.00,0.0016
2186.00,0.0016
2185.00,0.0014
2184.00,0.0011
2183.00,0.0009
2182.00,0.0006
2181.00,0.0004
2180.00,0.0003
2179.00,0.0003
2178.00,0.0004
2177.00,0.0005
2176.00,0.0006
2175.00,0.0006
2174.00,0.0006
2173.00,0.0007
2172.00,0.0009
2171.00,0.0011
2170.00,0.0014
2169.00,0.0015
2168.00,0.0013
2167.00,0.0011
2166.00,0.0009
2165.00,0.0011
2164.00,0.0014
2163.00,0.0019
2162.00,0.0021
2161.00,0.0018
2160.00,0.0007
2159.00,-0.0008
2158.00,-0.0021
2157.00,-0.0029
2156.00,-0.0030
2155.00,-0.0027
2154.00,-0.0023
2153.00,-0.0019
2152.00,-0.0015
2151.00,-0.0013
2150.00,-0.0012
2149.00,-0.0012
2148.00,-0.0011
2147.00,-0.0009
2146.00,-0.0008
2145.00,-0.0008
2144.00,-0.0008
2143.00,-0.0009
2142.00,-0.0011
2141.00,-0.0012
2140.00,-0.0012
2139.00,-0.0011
2138.00,-0.0011
2137.00,-0.0010
2136.00,-0.0010
2135.00,-0.0011
2134.00,-0.0012
2133.00,-0.0013
2132.00,-0.0013
2131.00,-0.0012
2130.00,-0.0011
2129.00,-0.0010
2128.00,-0.0009
2127.00,-0.0009
2126.00,-0.0010
2125.00,-0.0010
2124.00,-0.0009
2123.00,-0.0006
2122.00,-0.0004
2121.00,-0.0003
2120.00,-0.0002
2119.00,-0.0001
2118.00,-0.0000
2117.00,0.0001
2116.00,0.0003
2115.00,0.0005
2114.00,0.0006
2113.00,0.0006
2112.00,0.0005
2111.00,0.0004
2110.00,0.0005
2109.00,0.0006
2108.00,0.0008
2107.00,0.0008
2106.00,0.0007
2105.00,0.0005
2104.00,0.0003
2103.00,0.0002
2102.00,0.0002
2101.00,0.0002
2100.00,0.0003
2099.00,0.0003
2098.00,0.0003
2097.00,0.0002
2096.00,0.0001
2095.00,0.0000
2094.00,-0.0000
2093.00,-0.0001
2092.00,-0.0000
2091.00,0.0001
2090.00,0.0001
2089.00,0.0001
2088.00,0.0002
2087.00,0.0002
2086.00,0.0003
2085.00,0.0004
2084.00,0.0006
2083.00,0.0007
2082.00,0.0007
2081.00,0.0006
2080.00,0.0006
2079.00,0.0006
2078.00,0.0006
2077.00,0.0007
2076.00,0.0007
2075.00,0.0008
2074.00,0.0007
2073.00,0.0005
2072.00,0.0003
2071.00,0.0000
2070.00,-0.0000
2069.00,0.0001
2068.00,0.0002
2067.00,0.0003
2066.00,0.0003
2065.00,0.0002
2064.00,0.0002
2063.00,0.0002
2062.00,0.0002
2061.00,0.0001
2060.00,0.0000
2059.00,-0.0000
2058.00,-0.0000
2057.00,-0.0000
2056.00,-0.0001
2055.00,-0.0000
2054.00,0.0003
2053.00,0.0010
2052.00,0.0017
2051.00,0.0023
2050.00,0.0023
2049.00,0.0018
2048.00,0.0012
2047.00,0.0006
2046.00,0.0002
2045.00,0.0001
2044.00,0.0001
2043.00,0.0001
2042.00,0.0000
2041.00,-0.0000
2040.00,-0.0000
2039.00,0.0000
2038.00,0.0000
2037.00,0.0001
2036.00,0.0002
2035.00,0.0001
2034.00,0.0000
2033.00,-0.0001
2032.00,-0.0002
2031.00,-0.0001
2030.00,0.0001
2029.00,0.0003
2028.00,0.0003
2027.00,0.0001
2026.00,-0.0001
2025.00,-0.0003
2024.00,-0.0005
2023.00,-0.0008
2022.00,-0.0012
2021.00,-0.0016
2020.00,-0.0018
2019.00,-0.0019
2018.00,-0.0017
2017.00,-0.0013
2016.00,-0.0009
2015.00,-0.0006
2014.00,-0.0005
2013.00,-0.0006
2012.00,-0.0007
2011.00,-0.0009
2010.00,-0.0012
2009.00,-0.0015
2008.00,-0.0018
2007.00,-0.0019
2006.00,-0.0018
2005.00,-0.0015
2004.00,-0.0013
2003.00,-0.0012
2002.00,-0.0013
2001.00,-0.0013
2000.00,-0.0013
1999.00,-0.0013
1998.00,-0.0012
1997.00,-0.0012
1996.00,-0.0012
1995.00,-0.0013
1994.00,-0.0013
1993.00,-0.0011
1992.00,-0.0007
1991.00,-0.0004
1990.00,-0.0002
1989.00,-0.0001
1988.00,0.0001
1987.00,0.0003
1986.00,0.0003
1985.00,0.0003
1984.00,0.0003
1983.00,0.0002
1982.00,0.0003
1981.00,0.0004
1980.00,0.0004
1979.00,0.0002
1978.00,-0.0004
1977.00,-0.0011
1976.00,-0.0017
1975.00,-0.0019
1974.00,-0.0018
1973.00,-0.0015
1972.00,-0.0012
1971.00,-0.0012
1970.00,-0.0014
1969.00,-0.0015
1968.00,-0.0015
1967.00,-0.0015
1966.00,-0.0016
1965.00,-0.0017
1964.00,-0.0017
1963.00,-0.0017
1962.00,-0.0017
1961.00,-0.0019
1960.00,-0.0021
1959.00,-0.0023
1958.00,-0.0024
1957.00,-0.0023
1956.00,-0.0021
1955.00,-0.0019
1954.00,-0.0017
1953.00,-0.0017
1952.00,-0.0016
1951.00,-0.0016
1950.00,-0.0014
1949.00,-0.0013
1948.00,-0.0013
1947.00,-0.0013
1946.00,-0.0013
1945.00,-0.0012
1944.00,-0.0012
1943.00,-0.0013
1942.00,-0.0014
1941.00,-0.0013
1940.00,-0.0012
1939.00,-0.0011
1938.00,-0.0009
1937.00,-0.0008
1936.00,-0.0007
1935.00,-0.0007
1934.00,-0.0008
1933.00,-0.0009
1932.00,-0.0009
1931.00,-0.0008
1930.00,-0.0006
1929.00,-0.0003
1928.00,-0.0003
1927.00,-0.0004
1926.00,-0.0006
1925.00,-0.0006
1924.00,-0.0005
1923.00,-0.0004
1922.00,-0.0002
1921.00,-0.0002
1920.00,-0.0001
1919.00,-0.0001
1918.00,-0.0002
1917.00,-0.0002
1916.00,-0.0002
1915.00,-0.0002
1914.00,-0.0001
1913.00,-0.0001
1912.00,-0.0001
1911.00,-0.0001
1910.00,-0.0001
1909.00,-0.0001
1908.00,-0.0000
1907.00,-0.0001
1906.00,-0.0001
1905.00,-0.0002
1904.00,-0.0002
1903.00,-0.0002
1902.00,-0.0002
1901.00,-0.0002
1900.00,-0.0002
1899.00,-0.0002
1898.00,-0.0001
1897.00,-0.0000
1896.00,0.0000
1895.00,0.0000
1894.00,0.0001
1893.00,0.0001
1892.00,0.0002
1891.00,0.0002
1890.00,0.0002
1889.00,0.0001
1888.00,0.0001
1887.00,0.0001
1886.00,0.0001
1885.00,0.0001
1884.00,0.0001
1883.00,-0.0001
1882.00,-0.0002
1881.00,-0.0002
1880.00,-0.0001
1879.00,-0.0001
1878.00,-0.0002
1877.00,-0.0003
1876.00,-0.0004
1875.00,-0.0004
1874.00,-0.0003
1873.00,-0.0002
1872.00,-0.0001
1871.00,-0.0000
1870.00,-0.0000
1869.00,0.0000
1868.00,0.0001
1867.00,0.0001
1866.00,0.0000
1865.00,0.0000
1864.00,0.0001
1863.00,0.0002
1862.00,0.0003
1861.00,0.0003
1860.00,0.0003
1859.00,0.0002
1858.00,0.0001
1857.00,0.0001
1856.00,0.0001
1855.00,0.0001
1854.00,0.0001
1853.00,0.0002
1852.00,0.0003
1851.00,0.0002
1850.00,0.0002
1849.00,0.0002
1848.00,0.0002
1847.00,0.0002
1846.00,0.0001
1845.00,0.0001
1844.00,0.0002
1843.00,0.0002
1842.00,0.0002
1841.00,0.0003
1840.00,0.0004
1839.00,0.0004
1838.00,0.0004
1837.00,0.0005
1836.00,0.0004
1835.00,0.0004
1834.00,0.0003
1833.00,0.0003
1832.00,0.0003
1831.00,0.0003
1830.00,0.0003
1829.00,0.0004
1828.00,0.0004
1827.00,0.0004
1826.00,0.0004
1825.00,0.0004
1824.00,0.0004
1823.00,0.0003
1822.00,0.0002
1821.00,0.0002
1820.00,0.0002
1819.00,0.0002
1818.00,0.0001
1817.00,-0.0000
1816.00,0.0000
1815.00,0.0001
1814.00,0.0002
1813.00,0.0004
1812.00,0.0005
1811.00,0.0006
1810.00,0.0006
1809.00,0.0006
1808.00,0.0006
1807.00,0.0006
1806.00,0.0005
1805.00,0.0005
1804.00,0.0005
1803.00,0.0006
1802.00,0.0006
1801.00,0.0006
1800.00,0.0007
1799.00,0.0007
1798.00,0.0007
1797.00,0.0008
1796.00,0.0009
1795.00,0.0009
1794.00,0.0009
1793.00,0.0008
1792.00,0.0009
1791.00,0.0009
1790.00,0.0010
1789.00,0.0010
1788.00,0.0011
1787.00,0.0010
1786.00,0.0010
1785.00,0.0010
1784.00,0.0010
1783.00,0.0011
1782.00,0.0011
1781.00,0.0011
1780.00,0.0011
1779.00,0.0011
1778.00,0.0011
1777.00,0.0011
1776.00,0.0012
1775.00,0.0013
1774.00,0.0013
1773.00,0.0014
1772.00,0.0015
1771.00,0.0015
1770.00,0.0015
1769.00,0.0016
1768.00,0.0016
1767.00,0.0016
1766.00,0.0017
1765.00,0.0018
1764.00,0.0019
1763.00,0.0019
1762.00,0.0020
1761.00,0.0021
1760.00,0.0021
1759.00,0.0022
1758.00,0.0023
1757.00,0.0023
1756.00,0.0024
1755.00,0.0025
1754.00,0.0026
1753.00,0.0027
1752.00,0.0027
1751.00,0.0028
1750.00,0.0029
1749.00,0.0030
1748.00,0.0031
1747.00,0.0032
1746.00,0.0032
1745.00,0.0033
1744.00,0.0033
1743.00,0.0034
1742.00,0.0034
1741.00,0.0034
1740.00,0.0035
1739.00,0.0036
1738.00,0.0037
1737.00,0.0037
1736.00,0.0037
1735.00,0.0036
1734.00,0.0035
1733.00,0.0034
1732.00,0.0034
1731.00,0.0034
1730.00,0.0035
1729.00,0.0035
1728.00,0.0035
1727.00,0.0035
1726.00,0.0036
1725.00,0.0036
1724.00,0.0037
1723.00,0.0037
1722.00,0.0037
1721.00,0.0037
1720.00,0.0037
1719.00,0.0036
1718.00,0.0035
1717.00,0.0034
1716.00,0.0034
1715.00,0.0034
1714.00,0.0033
1713.00,0.0033
1712.00,0.0032
1711.00,0.0032
1710.00,0.0032
1709.00,0.0032
1708.00,0.0032
1707.00,0.0032
1706.00,0.0032
1705.00,0.0032
1704.00,0.0033
1703.00,0.0034
1702.00,0.0034
1701.00,0.0034
1700.00,0.0035
1699.00,0.0036
1698.00,0.0036
1697.00,0.0036
1696.00,0.0037
1695.00,0.0037
1694.00,0.0038
1693.00,0.0039
1692.00,0.0040
1691.00,0.0041
1690.00,0.0042
1689.00,0.0042
1688.00,0.0043
1687.00,0.0044
1686.00,0.0044
1685.00,0.0046
1684.00,0.0049
1683.00,0.0052
1682.00,0.0055
1681.00,0.0056
1680.00,0.0058
1679.00,0.0060
1678.00,0.0060
1677.00,0.0061
1676.00,0.0062
1675.00,0.0064
1674.00,0.0066
1673.00,0.0068
1672.00,0.0070
1671.00,0.0071
1670.00,0.0072
1669.00,0.0074
1668.00,0.0074
1667.00,0.0075
1666.00,0.0075
1665.00,0.0075
1664.00,0.0076
1663.00,0.0078
1662.00,0.0080
1661.00,0.0081
1660.00,0.0081
1659.00,0.0081
1658.00,0.0081
1657.00,0.0082
1656.00,0.0082
1655.00,0.0083
1654.00,0.0084
1653.00,0.0088
1652.00,0.0089
1651.00,0.0090
1650.00,0.0090
1649.00,0.0091
1648.00,0.0092
1647.00,0.0093
1646.00,0.0095
1645.00,0.0097
1644.00,0.0098
1643.00,0.0099
1642.00,0.0100
1641.00,0.0101
1640.00,0.0102
1639.00,0.0103
1638.00,0.0104
1637.00,0.0105
1636.00,0.0106
1635.00,0.0107
1634.00,0.0105
1633.00,0.0104
1632.00,0.0103
1631.00,0.0103
1630.00,0.0102
1629.00,0.0102
1628.00,0.0101
1627.00,0.0100
1626.00,0.0099
1625.00,0.0099
1624.00,0.0098
1623.00,0.0098
1622.00,0.0098
1621.00,0.0098
1620.00,0.0098
1619.00,0.0097
1618.00,0.0097
1617.00,0.0097
1616.00,0.0097
1615.00,0.0098
1614.00,0.0098
1613.00,0.0098
1612.00,0.0098
1611.00,0.0097
1610.00,0.0097
1609.00,0.0097
1608.00,0.0097
1607.00,0.0097
1606.00,0.0096
1605.00,0.0096
1604.00,0.0096
1603.00,0.0095
1602.00,0.0095
1601.00,0.0094
1600.00,0.0094
1599.00,0.0093
1598.00,0.0093
1597.00,0.0092
1596.00,0.0092
1595.00,0.0092
1594.00,0.0091
1593.00,0.0091
1592.00,0.0090
1591.00,0.0090
1590.00,0.0089
1589.00,0.0089
1588.00,0.0088
1587.00,0.0088
1586.00,0.0087
1585.00,0.0087
1584.00,0.0087
1583.00,0.0087
1582.00,0.0088
1581.00,0.0088
1580.00,0.0088
1579.00,0.0088
1578.00,0.0088
1577.00,0.0088
1576.00,0.0089
1575.00,0.0090
1574.00,0.0090
1573.00,0.0091
1572.00,0.0091
1571.00,0.0091
1570.00,0.0092
1569.00,0.0094
1568.00,0.0095
1567.00,0.0095
1566.00,0.0096
1565.00,0.0097
1564.00,0.0098
1563.00,0.0099
1562.00,0.0099
1561.00,0.0100
1560.00,0.0102
1559.00,0.0104
1558.00,0.0106
1557.00,0.0106
1556.00,0.0107
1555.00,0.0108
1554.00,0.0109
1553.00,0.0109
1552.00,0.0110
1551.00,0.0111
1550.00,0.0111
1549.00,0.0112
1548.00,0.0112
1547.00,0.0112
1546.00,0.0111
1545.00,0.0110
1544.00,0.0109
1543.00,0.0107
1542.00,0.0105
1541.00,0.0103
1540.00,0.0101
1539.00,0.0099
1538.00,0.0096
1537.00,0.0095
1536.00,0.0094
1535.00,0.0093
1534.00,0.0091
1533.00,0.0088
1532.00,0.0086
1531.00,0.0084
1530.00,0.0082
1529.00,0.0081
1528.00,0.0080
1527.00,0.0079
1526.00,0.0077
1525.00,0.0076
1524.00,0.0076
1523.00,0.0075
1522.00,0.0075
1521.00,0.0075
1520.00,0.0076
1519.00,0.0076
1518.00,0.0076
1517.00,0.0077
1516.00,0.0077
1515.00,0.0076
1514.00,0.0075
1513.00,0.0075
1512.00,0.0076
1511.00,0.0077
1510.00,0.0078
1509.00,0.0079
1508.00,0.0080
1507.00,0.0081
1506.00,0.0081
1505.00,0.0082
1504.00,0.0084
1503.00,0.0086
1502.00,0.0088
1501.00,0.0091
1500.00,0.0094
1499.00,0.0098
1498.00,0.0101
1497.00,0.0105
1496.00,0.0110
1495.00,0.0114
1494.00,0.0117
1493.00,0.0121
1492.00,0.0126
1491.00,0.0131
1490.00,0.0137
1489.00,0.0144
1488.00,0.0150
1487.00,0.0155
1486.00,0.0159
1485.00,0.0164
1484.00,0.0170
1483.00,0.0177
1482.00,0.0184
1481.00,0.0194
1480.00,0.0205
1479.00,0.0216
1478.00,0.0230
1477.00,0.0250
1476.00,0.0275
1475.00,0.0305
1474.00,0.0344
1473.00,0.0400
1472.00,0.0467
1471.00,0.0530
1470.00,0.0591
1469.00,0.0653
1468.00,0.0721
1467.00,0.0793
1466.00,0.0873
1465.00,0.0959
1464.00,0.1033
1463.00,0.1085
1462.00,0.1119
1461.00,0.1143
1460.00,0.1160
1459.00,0.1172
1458.00,0.1183
1457.00,0.1192
1456.00,0.1193
1455.00,0.1188
1454.00,0.1179
1453.00,0.1164
1452.00,0.1141
1451.00,0.1107
1450.00,0.1060
1449.00,0.0995
1448.00,0.0909
1447.00,0.0817
1446.00,0.0733
1445.00,0.0660
1444.00,0.0597
1443.00,0.0545
1442.00,0.0506
1441.00,0.0478
1440.00,0.0460
1439.00,0.0451
1438.00,0.0449
1437.00,0.0447
1436.00,0.0436
1435.00,0.0412
1434.00,0.0379
1433.00,0.0339
1432.00,0.0297
1431.00,0.0260
1430.00,0.0230
1429.00,0.0208
1428.00,0.0192
1427.00,0.0182
1426.00,0.0175
1425.00,0.0170
1424.00,0.0164
1423.00,0.0161
1422.00,0.0159
1421.00,0.0157
1420.00,0.0154
1419.00,0.0152
1418.00,0.0150
1417.00,0.0147
1416.00,0.0144
1415.00,0.0142
1414.00,0.0140
1413.00,0.0138
1412.00,0.0135
1411.00,0.0134
1410.00,0.0133
1409.00,0.0132
1408.00,0.0130
1407.00,0.0130
1406.00,0.0130
1405.00,0.0130
1404.00,0.0129
1403.00,0.0129
1402.00,0.0129
1401.00,0.0129
1400.00,0.0129
1399.00,0.0131
1398.00,0.0133
1397.00,0.0134
1396.00,0.0135
1395.00,0.0138
1394.00,0.0142
1393.00,0.0146
1392.00,0.0150
1391.00,0.0157
1390.00,0.0167
1389.00,0.0180
1388.00,0.0199
1387.00,0.0229
1386.00,0.0270
1385.00,0.0324
1384.00,0.0397
1383.00,0.0501
1382.00,0.0640
1381.00,0.0818
1380.00,0.1037
1379.00,0.1280
1378.00,0.1510
1377.00,0.1671
1376.00,0.1716
1375.00,0.1623
1374.00,0.1418
1373.00,0.1176
1372.00,0.0958
1371.00,0.0779
1370.00,0.0637
1369.00,0.0529
1368.00,0.0453
1367.00,0.0406
1366.00,0.0380
1365.00,0.0369
1364.00,0.0370
1363.00,0.0382
1362.00,0.0400
1361.00,0.0420
1360.00,0.0434
1359.00,0.0438
1358.00,0.0429
1357.00,0.0407
1356.00,0.0376
1355.00,0.0340
1354.00,0.0307
1353.00,0.0277
1352.00,0.0253
1351.00,0.0234
1350.00,0.0218
1349.00,0.0205
1348.00,0.0194
1347.00,0.0186
1346.00,0.0180
1345.00,0.0174
1344.00,0.0167
1343.00,0.0161
1342.00,0.0154
1341.00,0.0148
1340.00,0.0143
1339.00,0.0139
1338.00,0.0137
1337.00,0.0135
1336.00,0.0135
1335.00,0.0136
1334.00,0.0138
1333.00,0.0141
1332.00,0.0144
1331.00,0.0147
1330.00,0.0148
1329.00,0.0147
1328.00,0.0144
1327.00,0.0140
1326.00,0.0135
1325.00,0.0129
1324.00,0.0124
1323.00,0.0119
1322.00,0.0115
1321.00,0.0113
1320.00,0.0111
1319.00,0.0110
1318.00,0.0108
1317.00,0.0107
1316.00,0.0106
1315.00,0.0105
1314.00,0.0105
1313.00,0.0106
1312.00,0.0107
1311.00,0.0110
1310.00,0.0114
1309.00,0.0121
1308.00,0.0131
1307.00,0.0143
1306.00,0.0155
1305.00,0.0163
1304.00,0.0165
1303.00,0.0161
1302.00,0.0154
1301.00,0.0147
1300.00,0.0142
1299.00,0.0140
1298.00,0.0139
1297.00,0.0138
1296.00,0.0137
1295.00,0.0134
1294.00,0.0130
1293.00,0.0126
1292.00,0.0121
1291.00,0.0116
1290.00,0.0111
1289.00,0.0107
1288.00,0.0104
1287.00,0.0102
1286.00,0.0100
1285.00,0.0098
1284.00,0.0097
1283.00,0.0096
1282.00,0.0095
1281.00,0.0093
1280.00,0.0092
1279.00,0.0091
1278.00,0.0090
1277.00,0.0090
1276.00,0.0090
1275.00,0.0089
1274.00,0.0089
1273.00,0.0089
1272.00,0.0090
1271.00,0.0090
1270.00,0.0091
1269.00,0.0092
1268.00,0.0093
1267.00,0.0095
1266.00,0.0098
1265.00,0.0101
1264.00,0.0105
1263.00,0.0108
1262.00,0.0113
1261.00,0.0117
1260.00,0.0123
1259.00,0.0131
1258.00,0.0138
1257.00,0.0145
1256.00,0.0148
1255.00,0.0147
1254.00,0.0141
1253.00,0.0132
1252.00,0.0123
1251.00,0.0115
1250.00,0.0110
1249.00,0.0106
1248.00,0.0103
1247.00,0.0101
1246.00,0.0099
1245.00,0.0098
1244.00,0.0097
1243.00,0.0097
1242.00,0.0096
1241.00,0.0096
1240.00,0.0096
1239.00,0.0096
1238.00,0.0096
1237.00,0.0096
1236.00,0.0096
1235.00,0.0096
1234.00,0.0096
1233.00,0.0096
1232.00,0.0097
1231.00,0.0098
1230.00,0.0100
1229.00,0.0101
1228.00,0.0103
1227.00,0.0104
1226.00,0.0106
1225.00,0.0108
1224.00,0.0112
1223.00,0.0115
1222.00,0.0119
1221.00,0.0122
1220.00,0.0124
1219.00,0.0126
1218.00,0.0127
1217.00,0.0126
1216.00,0.0122
1215.00,0.0118
1214.00,0.0114
1213.00,0.0111
1212.00,0.0108
1211.00,0.0105
1210.00,0.0103
1209.00,0.0102
1208.00,0.0101
1207.00,0.0100
1206.00,0.0099
1205.00,0.0098
1204.00,0.0097
1203.00,0.0096
1202.00,0.0096
1201.00,0.0095
1200.00,0.0094
1199.00,0.0094
1198.00,0.0093
1197.00,0.0092
1196.00,0.0092
1195.00,0.0091
1194.00,0.0091
1193.00,0.0091
1192.00,0.0091
1191.00,0.0090
1190.00,0.0089
1189.00,0.0088
1188.00,0.0087
1187.00,0.0087
1186.00,0.0088
1185.00,0.0089
1184.00,0.0090
1183.00,0.0092
1182.00,0.0093
1181.00,0.0096
1180.00,0.0099
1179.00,0.0104
1178.00,0.0111
1177.00,0.0120
1176.00,0.0132
1175.00,0.0148
1174.00,0.0169
1173.00,0.0195
1172.00,0.0226
1171.00,0.0261
1170.00,0.0296
1169.00,0.0324
1168.00,0.0342
1167.00,0.0346
1166.00,0.0338
1165.00,0.0322
1164.00,0.0303
1163.00,0.0283
1162.00,0.0265
1161.00,0.0250
1160.00,0.0239
1159.00,0.0231
1158.00,0.0227
1157.00,0.0224
1156.00,0.0221
1155.00,0.0219
1154.00,0.0218
1153.00,0.0215
1152.00,0.0211
1151.00,0.0205
1150.00,0.0198
1149.00,0.0190
1148.00,0.0181
1147.00,0.0174
1146.00,0.0166
1145.00,0.0159
1144.00,0.0153
1143.00,0.0147
1142.00,0.0142
1141.00,0.0137
1140.00,0.0132
1139.00,0.0128
1138.00,0.0125
1137.00,0.0122
1136.00,0.0121
1135.00,0.0120
1134.00,0.0119
1133.00,0.0119
1132.00,0.0119
1131.00,0.0119
1130.00,0.0120
1129.00,0.0121
1128.00,0.0122
1127.00,0.0125
1126.00,0.0128
1125.00,0.0131
1124.00,0.0135
1123.00,0.0139
1122.00,0.0143
1121.00,0.0148
1120.00,0.0152
1119.00,0.0155
1118.00,0.0157
1117.00,0.0158
1116.00,0.0158
1115.00,0.0157
1114.00,0.0157
1113.00,0.0156
1112.00,0.0155
1111.00,0.0156
1110.00,0.0157
1109.00,0.0159
1108.00,0.0162
1107.00,0.0166
1106.00,0.0170
1105.00,0.0174
1104.00,0.0177
1103.00,0.0179
1102.00,0.0177
1101.00,0.0174
1100.00,0.0168
1099.00,0.0161
1098.00,0.0154
1097.00,0.0149
1096.00,0.0145
1095.00,0.0141
1094.00,0.0138
1093.00,0.0136
1092.00,0.0133
1091.00,0.0130
1090.00,0.0127
1089.00,0.0125
1088.00,0.0123
1087.00,0.0123
1086.00,0.0123
1085.00,0.0123
1084.00,0.0121
1083.00,0.0119
1082.00,0.0117
1081.00,0.0116
1080.00,0.0115
1079.00,0.0114
1078.00,0.0112
1077.00,0.0110
1076.00,0.0109
1075.00,0.0108
1074.00,0.0108
1073.00,0.0108
1072.00,0.0107
1071.00,0.0107
1070.00,0.0105
1069.00,0.0105
1068.00,0.0104
1067.00,0.0104
1066.00,0.0104
1065.00,0.0104
1064.00,0.0104
1063.00,0.0103
1062.00,0.0104
1061.00,0.0104
1060.00,0.0105
1059.00,0.0105
1058.00,0.0105
1057.00,0.0105
1056.00,0.0106
1055.00,0.0107
1054.00,0.0108
1053.00,0.0109
1052.00,0.0110
1051.00,0.0111
1050.00,0.0114
1049.00,0.0118
1048.00,0.0122
1047.00,0.0126
1046.00,0.0129
1045.00,0.0130
1044.00,0.0131
1043.00,0.0130
1042.00,0.0129
1041.00,0.0126
1040.00,0.0123
1039.00,0.0121
1038.00,0.0120
1037.00,0.0119
1036.00,0.0120
1035.00,0.0121
1034.00,0.0120
1033.00,0.0118
1032.00,0.0115
1031.00,0.0112
1030.00,0.0110
1029.00,0.0108
1028.00,0.0107
1027.00,0.0107
1026.00,0.0106
1025.00,0.0106
1024.00,0.0106
1023.00,0.0106
1022.00,0.0107
1021.00,0.0107
1020.00,0.0106
1019.00,0.0106
1018.00,0.0107
1017.00,0.0108
1016.00,0.0109
1015.00,0.0110
1014.00,0.0112
1013.00,0.0113
1012.00,0.0115
1011.00,0.0118
1010.00,0.0121
1009.00,0.0124
1008.00,0.0129
1007.00,0.0136
1006.00,0.0147
1005.00,0.0161
1004.00,0.0180
1003.00,0.0205
1002.00,0.0238
1001.00,0.0279
1000.00,0.0325
999.00,0.0364
998.00,0.0386
997.00,0.0382
996.00,0.0352
995.00,0.0308
994.00,0.0262
993.00,0.0222
992.00,0.0191
991.00,0.0169
990.00,0.0154
989.00,0.0143
988.00,0.0135
987.00,0.0131
986.00,0.0129
985.00,0.0130
984.00,0.0133
983.00,0.0139
982.00,0.0149
981.00,0.0165
980.00,0.0187
979.00,0.0216
978.00,0.0252
977.00,0.0295
976.00,0.0344
975.00,0.0392
974.00,0.0429
973.00,0.0446
972.00,0.0433
971.00,0.0394
970.00,0.0339
969.00,0.0282
968.00,0.0233
967.00,0.0195
966.00,0.0169
965.00,0.0150
964.00,0.0135
963.00,0.0125
962.00,0.0116
961.00,0.0109
960.00,0.0104
959.00,0.0099
958.00,0.0096
957.00,0.0094
956.00,0.0091
955.00,0.0089
954.00,0.0087
953.00,0.0086
952.00,0.0084
951.00,0.0083
950.00,0.0083
949.00,0.0084
948.00,0.0085
947.00,0.0085
946.00,0.0087
945.00,0.0089
944.00,0.0091
943.00,0.0095
942.00,0.0098
941.00,0.0100
940.00,0.0101
939.00,0.0099
938.00,0.0096
937.00,0.0091
936.00,0.0086
935.00,0.0082
934.00,0.0079
933.00,0.0077
932.00,0.0077
931.00,0.0078
930.00,0.0078
929.00,0.0078
928.00,0.0078
927.00,0.0077
926.00,0.0077
925.00,0.0077
924.00,0.0076
923.00,0.0076
922.00,0.0076
921.00,0.0076
920.00,0.0076
919.00,0.0077
918.00,0.0077
917.00,0.0077
916.00,0.0078
915.00,0.0079
914.00,0.0080
913.00,0.0082
912.00,0.0084
911.00,0.0085
910.00,0.0086
909.00,0.0088
908.00,0.0091
907.00,0.0096
906.00,0.0103
905.00,0.0112
904.00,0.0126
903.00,0.0142
902.00,0.0159
901.00,0.0174
900.00,0.0183
899.00,0.0184
898.00,0.0177
897.00,0.0164
896.00,0.0148
895.00,0.0132
894.00,0.0120
893.00,0.0110
892.00,0.0103
891.00,0.0099
890.00,0.0097
889.00,0.0095
888.00,0.0093
887.00,0.0093
886.00,0.0092
885.00,0.0091
884.00,0.0090
883.00,0.0089
882.00,0.0090
881.00,0.0091
880.00,0.0092
879.00,0.0094
878.00,0.0094
877.00,0.0095
876.00,0.0094
875.00,0.0095
874.00,0.0096
873.00,0.0096
872.00,0.0095
871.00,0.0094
870.00,0.0092
869.00,0.0092
868.00,0.0092
867.00,0.0092
866.00,0.0092
865.00,0.0092
864.00,0.0093
863.00,0.0094
862.00,0.0095
861.00,0.0096
860.00,0.0097
859.00,0.0099
858.00,0.0100
857.00,0.0100
856.00,0.0101
855.00,0.0102
854.00,0.0104
853.00,0.0107
852.00,0.0110
851.00,0.0115
850.00,0.0120
849.00,0.0127
848.00,0.0137
847.00,0.0153
846.00,0.0177
845.00,0.0214
844.00,0.0266
843.00,0.0327
842.00,0.0379
841.00,0.0399
840.00,0.0376
839.00,0.0320
838.00,0.0257
837.00,0.0205
836.00,0.0171
835.00,0.0152
834.00,0.0140
833.00,0.0133
832.00,0.0129
831.00,0.0126
830.00,0.0123
829.00,0.0121
828.00,0.0118
827.00,0.0115
826.00,0.0113
825.00,0.0112
824.00,0.0112
823.00,0.0112
822.00,0.0114
821.00,0.0115
820.00,0.0115
819.00,0.0116
818.00,0.0119
817.00,0.0124
816.00,0.0132
815.00,0.0143
814.00,0.0157
813.00,0.0174
812.00,0.0193
811.00,0.0210
810.00,0.0223
809.00,0.0228
808.00,0.0224
807.00,0.0213
806.00,0.0196
805.00,0.0179
804.00,0.0163
803.00,0.0151
802.00,0.0143
801.00,0.0138
800.00,0.0133
799.00,0.0127
798.00,0.0122
797.00,0.0118
796.00,0.0115
795.00,0.0113
794.00,0.0109
793.00,0.0105
792.00,0.0100
791.00,0.0096
790.00,0.0094
789.00,0.0093
788.00,0.0092
787.00,0.0091
786.00,0.0089
785.00,0.0088
784.00,0.0086
783.00,0.0086
782.00,0.0085
781.00,0.0085
780.00,0.0084
779.00,0.0084
778.00,0.0085
777.00,0.0086
776.00,0.0086
775.00,0.0085
774.00,0.0083
773.00,0.0082
772.00,0.0080
771.00,0.0080
770.00,0.0081
769.00,0.0083
768.00,0.0084
767.00,0.0084
766.00,0.0084
765.00,0.0084
764.00,0.0083
763.00,0.0083
762.00,0.0083
761.00,0.0085
760.00,0.0086
759.00,0.0088
758.00,0.0089
757.00,0.0089
756.00,0.0089
755.00,0.0089
754.00,0.0089
753.00,0.0089
752.00,0.0089
751.00,0.0090
750.00,0.0093
749.00,0.0096
748.00,0.0100
747.00,0.0103
746.00,0.0105
745.00,0.0107
744.00,0.0109
743.00,0.0111
742.00,0.0114
741.00,0.0118
740.00,0.0123
739.00,0.0128
738.00,0.0134
737.00,0.0139
736.00,0.0144
735.00,0.0149
734.00,0.0154
733.00,0.0160
732.00,0.0168
731.00,0.0176
730.00,0.0183
729.00,0.0188
728.00,0.0189
727.00,0.0189
726.00,0.0188
725.00,0.0191
724.00,0.0196
723.00,0.0203
722.00,0.0210
721.00,0.0214
720.00,0.0212
719.00,0.0204
718.00,0.0191
717.00,0.0176
716.00,0.0163
715.00,0.0153
714.00,0.0146
713.00,0.0141
712.00,0.0138
711.00,0.0137
710.00,0.0135
709.00,0.0135
708.00,0.0135
707.00,0.0136
706.00,0.0136
705.00,0.0136
704.00,0.0135
703.00,0.0134
702.00,0.0132
701.00,0.0129
700.00,0.0125
699.00,0.0122
698.00,0.0119
697.00,0.0117
696.00,0.0116
695.00,0.0114
694.00,0.0113
693.00,0.0111
692.00,0.0109
691.00,0.0108
690.00,0.0107
689.00,0.0107
688.00,0.0106
687.00,0.0107
686.00,0.0109
685.00,0.0109
684.00,0.0109
683.00,0.0108
682.00,0.0108
681.00,0.0108
680.00,0.0108
679.00,0.0110
678.00,0.0112
677.00,0.0113
676.00,0.0112
675.00,0.0112
674.00,0.0112
673.00,0.0113
672.00,0.0114
671.00,0.0115
670.00,0.0117
669.00,0.0118
668.00,0.0118
667.00,0.0117
666.00,0.0115
665.00,0.0112
664.00,0.0110
663.00,0.0108
662.00,0.0107
661.00,0.0108
660.00,0.0109
659.00,0.0109
658.00,0.0110
657.00,0.0112
656.00,0.0113
655.00,0.0113
654.00,0.0112
653.00,0.0111
652.00,0.0110
651.00,0.0108
650.00,0.0106
649.00,0.0106
648.00,0.0106
647.00,0.0106
646.00,0.0106
645.00,0.0105
644.00,0.0104
643.00,0.0105
642.00,0.0106
641.00,0.0107
640.00,0.0106
639.00,0.0104
638.00,0.0103
637.00,0.0104
636.00,0.0105
635.00,0.0107
634.00,0.0108
633.00,0.0108
632.00,0.0108
631.00,0.0108
630.00,0.0109
629.00,0.0110
628.00,0.0110
627.00,0.0110
626.00,0.0110
625.00,0.0110
624.00,0.0111
623.00,0.0111
622.00,0.0112
621.00,0.0112
620.00,0.0111
619.00,0.0111
618.00,0.0112
617.00,0.0113
616.00,0.0113
615.00,0.0111
614.00,0.0110
613.00,0.0111
612.00,0.0114
611.00,0.0117
610.00,0.0118
609.00,0.0117
608.00,0.0114
607.00,0.0111
606.00,0.0108
605.00,0.0108
604.00,0.0110
603.00,0.0111
602.00,0.0112
601.00,0.0112
600.00,0.0111
599.00,0.0110
598.00,0.0107
597.00,0.0105
596.00,0.0105
595.00,0.0106
594.00,0.0108
593.00,0.0109
592.00,0.0111
591.00,0.0111
590.00,0.0112
589.00,0.0113
588.00,0.0114
587.00,0.0116
586.00,0.0116
585.00,0.0113
584.00,0.0110
583.00,0.0107
582.00,0.0107
581.00,0.0109
580.00,0.0112
579.00,0.0115
578.00,0.0118
577.00,0.0120
576.00,0.0120
575.00,0.0119
574.00,0.0117
573.00,0.0114
572.00,0.0112
571.00,0.0111
570.00,0.0110
569.00,0.0110
568.00,0.0112
567.00,0.0115
566.00,0.0117
565.00,0.0117
564.00,0.0115
563.00,0.0114
562.00,0.0115
561.00,0.0115
560.00,0.0115
559.00,0.0114
558.00,0.0114
557.00,0.0114
556.00,0.0113
555.00,0.0110
554.00,0.0106
553.00,0.0103
552.00,0.0102
551.00,0.0103
550.00,0.0106
549.00,0.0109
548.00,0.0109
547.00,0.0106
546.00,0.0103
545.00,0.0103
544.00,0.0106
543.00,0.0111
542.00,0.0115
541.00,0.0120
540.00,0.0126
539.00,0.0129
538.00,0.0128
537.00,0.0124
536.00,0.0117
535.00,0.0114
534.00,0.0113
533.00,0.0114
532.00,0.0117
531.00,0.0121
530.00,0.0124
529.00,0.0124
528.00,0.0122
527.00,0.0120
526.00,0.0121
525.00,0.0123
524.00,0.0125
523.00,0.0125
522.00,0.0124
521.00,0.0121
520.00,0.0116
519.00,0.0111
518.00,0.0105
517.00,0.0101
516.00,0.0100
515.00,0.0102
514.00,0.0107
513.00,0.0109
512.00,0.0106
511.00,0.0100
510.00,0.0095
509.00,0.0090
508.00,0.0087
507.00,0.0087
506.00,0.0091
505.00,0.0097
504.00,0.0103
503.00,0.0108
502.00,0.0111
501.00,0.0111
500.00,0.0108
499.00,0.0101
498.00,0.0096
497.00,0.0093
496.00,0.0093
495.00,0.0093
494.00,0.0090
493.00,0.0087
492.00,0.0086
491.00,0.0088
490.00,0.0090
489.00,0.0089
488.00,0.0085
487.00,0.0080
486.00,0.0082
485.00,0.0093
484.00,0.0108
483.00,0.0117
482.00,0.0117
481.00,0.0110
480.00,0.0102
479.00,0.0096
478.00,0.0094
477.00,0.0097
476.00,0.0103
475.00,0.0109
474.00,0.0115
473.00,0.0117
472.00,0.0117
471.00,0.0117
470.00,0.0116
469.00,0.0112
468.00,0.0109
467.00,0.0111
466.00,0.0117
465.00,0.0124
464.00,0.0132
463.00,0.0145
462.00,0.0166
461.00,0.0187
460.00,0.0203
459.00,0.0209
458.00,0.0206
457.00,0.0197
456.00,0.0184
455.00,0.0169
454.00,0.0152
453.00,0.0139
452.00,0.0131
451.00,0.0125
450.00,0.0119
