Created as New Dataset,Sample 011 By Administrator Date Thursday, September 04 2025
cm-1,A
4000.00,0.0012
3999.00,0.0013
3998.00,0.0013
3997.00,0.0013
3996.00,0.0013
3995.00,0.0013
3994.00,0.0012
3993.00,0.0012
3992.00,0.0012
3991.00,0.0012
3990.00,0.0012
3989.00,0.0012
3988.00,0.0012
3987.00,0.0012
3986.00,0.0012
3985.00,0.0012
3984.00,0.0012
3983.00,0.0012
3982.00,0.0011
3981.00,0.0011
3980.00,0.0011
3979.00,0.0010
3978.00,0.0010
3977.00,0.0010
3976.00,0.0010
3975.00,0.0010
3974.00,0.0010
3973.00,0.0010
3972.00,0.0010
3971.00,0.0010
3970.00,0.0010
3969.00,0.0010
3968.00,0.0010
3967.00,0.0010
3966.00,0.0010
3965.00,0.0010
3964.00,0.0010
3963.00,0.0010
3962.00,0.0010
3961.00,0.0010
3960.00,0.0010
3959.00,0.0010
3958.00,0.0010
3957.00,0.0010
3956.00,0.0010
3955.00,0.0010
3954.00,0.0010
3953.00,0.0010
3952.00,0.0010
3951.00,0.0010
3950.00,0.0010
3949.00,0.0010
3948.00,0.0010
3947.00,0.0010
3946.00,0.0010
3945.00,0.0010
3944.00,0.0010
3943.00,0.0010
3942.00,0.0010
3941.00,0.0010
3940.00,0.0010
3939.00,0.0010
3938.00,0.0010
3937.00,0.0010
3936.00,0.0010
3935.00,0.0010
3934.00,0.0010
3933.00,0.0011
3932.00,0.0011
3931.00,0.0011
3930.00,0.0012
3929.00,0.0012
3928.00,0.0012
3927.00,0.0012
3926.00,0.0011
3925.00,0.0011
3924.00,0.0011
3923.00,0.0011
3922.00,0.0011
3921.00,0.0011
3920.00,0.0011
3919.00,0.0011
3918.00,0.0011
3917.00,0.0012
3916.00,0.0012
3915.00,0.0012
3914.00,0.0011
3913.00,0.0011
3912.00,0.0011
3911.00,0.0010
3910.00,0.0010
3909.00,0.0011
3908.00,0.0011
3907.00,0.0012
3906.00,0.0012
3905.00,0.0013
3904.00,0.0013
3903.00,0.0013
3902.00,0.0013
3901.00,0.0012
3900.00,0.0012
3899.00,0.0011
3898.00,0.0011
3897.00,0.0011
3896.00,0.0012
3895.00,0.0012
3894.00,0.0012
3893.00,0.0012
3892.00,0.0012
3891.00,0.0012
3890.00,0.0012
3889.00,0.0012
3888.00,0.0012
3887.00,0.0012
3886.00,0.0012
3885.00,0.0012
3884.00,0.0012
3883.00,0.0012
3882.00,0.0011
3881.00,0.0011
3880.00,0.0011
3879.00,0.0011
3878.00,0.0011
3877.00,0.0012
3876.00,0.0011
3875.00,0.0011
3874.00,0.0011
3873.00,0.0012
3872.00,0.0012
3871.00,0.0011
3870.00,0.0012
3869.00,0.0012
3868.00,0.0012
3867.00,0.0012
3866.00,0.0011
3865.00,0.0011
3864.00,0.0011
3863.00,0.0011
3862.00,0.0011
3861.00,0.0011
3860.00,0.0011
3859.00,0.0011
3858.00,0.0011
3857.00,0.0012
3856.00,0.0012
3855.00,0.0012
3854.00,0.0011
3853.00,0.0011
3852.00,0.0011
3851.00,0.0011
3850.00,0.0011
3849.00,0.0010
3848.00,0.0010
3847.00,0.0010
3846.00,0.0009
3845.00,0.0010
3844.00,0.0010
3843.00,0.0010
3842.00,0.0011
3841.00,0.0011
3840.00,0.0011
3839.00,0.0011
3838.00,0.0011
3837.00,0.0011
3836.00,0.0011
3835.00,0.0011
3834.00,0.0011
3833.00,0.0011
3832.00,0.0011
3831.00,0.0011
3830.00,0.0011
3829.00,0.0011
3828.00,0.0011
3827.00,0.0010
3826.00,0.0010
3825.00,0.0011
3824.00,0.0011
3823.00,0.0011
3822.00,0.0012
3821.00,0.0012
3820.00,0.0012
3819.00,0.0012
3818.00,0.0012
3817.00,0.0012
3816.00,0.0012
3815.00,0.0012
3814.00,0.0012
3813.00,0.0011
3812.00,0.0011
3811.00,0.0011
3810.00,0.0011
3809.00,0.0011
3808.00,0.0011
3807.00,0.0011
3806.00,0.0011
3805.00,0.0011
3804.00,0.0010
3803.00,0.0010
3802.00,0.0010
3801.00,0.0010
3800.00,0.0011
3799.00,0.0011
3798.00,0.0011
3797.00,0.0010
3796.00,0.0010
3795.00,0.0010
3794.00,0.0011
3793.00,0.0011
3792.00,0.0011
3791.00,0.0011
3790.00,0.0010
3789.00,0.0010
3788.00,0.0010
3787.00,0.0010
3786.00,0.0010
3785.00,0.0010
3784.00,0.0010
3783.00,0.0010
3782.00,0.0010
3781.00,0.0009
3780.00,0.0009
3779.00,0.0009
3778.00,0.0009
3777.00,0.0009
3776.00,0.0009
3775.00,0.0009
3774.00,0.0010
3773.00,0.0010
3772.00,0.0010
3771.00,0.0010
3770.00,0.0011
3769.00,0.0011
3768.00,0.0012
3767.00,0.0012
3766.00,0.0012
3765.00,0.0012
3764.00,0.0012
3763.00,0.0012
3762.00,0.0012
3761.00,0.0012
3760.00,0.0011
3759.00,0.0011
3758.00,0.0011
3757.00,0.0011
3756.00,0.0011
3755.00,0.0012
3754.00,0.0012
3753.00,0.0013
3752.00,0.0013
3751.00,0.0012
3750.00,0.0012
3749.00,0.0012
3748.00,0.0012
3747.00,0.0012
3746.00,0.0011
3745.00,0.0011
3744.00,0.0011
3743.00,0.0011
3742.00,0.0011
3741.00,0.0011
3740.00,0.0011
3739.00,0.0012
3738.00,0.0012
3737.00,0.0012
3736.00,0.0012
3735.00,0.0011
3734.00,0.0010
3733.00,0.0010
3732.00,0.0010
3731.00,0.0010
3730.00,0.0010
3729.00,0.0011
3728.00,0.0011
3727.00,0.0011
3726.00,0.0010
3725.00,0.0010
3724.00,0.0010
3723.00,0.0009
3722.00,0.0009
3721.00,0.0010
3720.00,0.0010
3719.00,0.0010
3718.00,0.0010
3717.00,0.0010
3716.00,0.0010
3715.00,0.0010
3714.00,0.0010
3713.00,0.0010
3712.00,0.0010
3711.00,0.0010
3710.00,0.0010
3709.00,0.0010
3708.00,0.0010
3707.00,0.0009
3706.00,0.0009
3705.00,0.0009
3704.00,0.0009
3703.00,0.0008
3702.00,0.0008
3701.00,0.0008
3700.00,0.0008
3699.00,0.0009
3698.00,0.0009
3697.00,0.0009
3696.00,0.0010
3695.00,0.0010
3694.00,0.0010
3693.00,0.0010
3692.00,0.0010
3691.00,0.0009
3690.00,0.0010
3689.00,0.0010
3688.00,0.0011
3687.00,0.0012
3686.00,0.0012
3685.00,0.0012
3684.00,0.0013
3683.00,0.0014
3682.00,0.0015
3681.00,0.0015
3680.00,0.0017
3679.00,0.0018
3678.00,0.0019
3677.00,0.0020
3676.00,0.0021
3675.00,0.0022
3674.00,0.0022
3673.00,0.0023
3672.00,0.0022
3671.00,0.0022
3670.00,0.0022
3669.00,0.0022
3668.00,0.0022
3667.00,0.0021
3666.00,0.0021
3665.00,0.0021
3664.00,0.0021
3663.00,0.0021
3662.00,0.0021
3661.00,0.0022
3660.00,0.0023
3659.00,0.0023
3658.00,0.0024
3657.00,0.0024
3656.00,0.0023
3655.00,0.0023
3654.00,0.0023
3653.00,0.0023
3652.00,0.0024
3651.00,0.0024
3650.00,0.0024
3649.00,0.0024
3648.00,0.0023
3647.00,0.0023
3646.00,0.0022
3645.00,0.0021
3644.00,0.0021
3643.00,0.0020
3642.00,0.0020
3641.00,0.0020
3640.00,0.0019
3639.00,0.0019
3638.00,0.0019
3637.00,0.0019
3636.00,0.0019
3635.00,0.0018
3634.00,0.0018
3633.00,0.0018
3632.00,0.0018
3631.00,0.0018
3630.00,0.0017
3629.00,0.0016
3628.00,0.0016
3627.00,0.0016
3626.00,0.0016
3625.00,0.0015
3624.00,0.0015
3623.00,0.0015
3622.00,0.0016
3621.00,0.0015
3620.00,0.0015
3619.00,0.0015
3618.00,0.0015
3617.00,0.0015
3616.00,0.0015
3615.00,0.0016
3614.00,0.0016
3613.00,0.0016
3612.00,0.0016
3611.00,0.0017
3610.00,0.0017
3609.00,0.0018
3608.00,0.0018
3607.00,0.0018
3606.00,0.0017
3605.00,0.0017
3604.00,0.0017
3603.00,0.0017
3602.00,0.0017
3601.00,0.0017
3600.00,0.0017
3599.00,0.0017
3598.00,0.0017
3597.00,0.0017
3596.00,0.0017
3595.00,0.0017
3594.00,0.0017
3593.00,0.0018
3592.00,0.0018
3591.00,0.0019
3590.00,0.0019
3589.00,0.0019
3588.00,0.0018
3587.00,0.0018
3586.00,0.0018
3585.00,0.0018
3584.00,0.0018
3583.00,0.0019
3582.00,0.0019
3581.00,0.0020
3580.00,0.0020
3579.00,0.0020
3578.00,0.0020
3577.00,0.0021
3576.00,0.0021
3575.00,0.0022
3574.00,0.0022
3573.00,0.0022
3572.00,0.0023
3571.00,0.0023
3570.00,0.0023
3569.00,0.0024
3568.00,0.0024
3567.00,0.0024
3566.00,0.0024
3565.00,0.0024
3564.00,0.0025
3563.00,0.0025
3562.00,0.0025
3561.00,0.0025
3560.00,0.0025
3559.00,0.0025
3558.00,0.0025
3557.00,0.0025
3556.00,0.0026
3555.00,0.0026
3554.00,0.0027
3553.00,0.0027
3552.00,0.0027
3551.00,0.0027
3550.00,0.0028
3549.00,0.0028
3548.00,0.0029
3547.00,0.0029
3546.00,0.0029
3545.00,0.0029
3544.00,0.0029
3543.00,0.0029
3542.00,0.0029
3541.00,0.0029
3540.00,0.0029
3539.00,0.0030
3538.00,0.0030
3537.00,0.0030
3536.00,0.0031
3535.00,0.0031
3534.00,0.0031
3533.00,0.0031
3532.00,0.0032
3531.00,0.0032
3530.00,0.0033
3529.00,0.0033
3528.00,0.0033
3527.00,0.0034
3526.00,0.0034
3525.00,0.0034
3524.00,0.0034
3523.00,0.0034
3522.00,0.0034
3521.00,0.0034
3520.00,0.0034
3519.00,0.0034
3518.00,0.0034
3517.00,0.0034
3516.00,0.0034
3515.00,0.0035
3514.00,0.0035
3513.00,0.0035
3512.00,0.0036
3511.00,0.0036
3510.00,0.0036
3509.00,0.0036
3508.00,0.0036
3507.00,0.0037
3506.00,0.0037
3505.00,0.0038
3504.00,0.0038
3503.00,0.0038
3502.00,0.0039
3501.00,0.0039
3500.00,0.0039
3499.00,0.0040
3498.00,0.0039
3497.00,0.0039
3496.00,0.0039
3495.00,0.0039
3494.00,0.0040
3493.00,0.0040
3492.00,0.0040
3491.00,0.0041
3490.00,0.0041
3489.00,0.0041
3488.00,0.0042
3487.00,0.0042
3486.00,0.0043
3485.00,0.0043
3484.00,0.0043
3483.00,0.0044
3482.00,0.0044
3481.00,0.0044
3480.00,0.0045
3479.00,0.0045
3478.00,0.0045
3477.00,0.0045
3476.00,0.0045
3475.00,0.0045
3474.00,0.0045
3473.00,0.0045
3472.00,0.0045
3471.00,0.0045
3470.00,0.0045
3469.00,0.0045
3468.00,0.0046
3467.00,0.0047
3466.00,0.0048
3465.00,0.0048
3464.00,0.0049
3463.00,0.0049
3462.00,0.0049
3461.00,0.0049
3460.00,0.0049
3459.00,0.0050
3458.00,0.0050
3457.00,0.0050
3456.00,0.0050
3455.00,0.0050
3454.00,0.0050
3453.00,0.0051
3452.00,0.0051
3451.00,0.0051
3450.00,0.0052
3449.00,0.0052
3448.00,0.0052
3447.00,0.0052
3446.00,0.0052
3445.00,0.0052
3444.00,0.0052
3443.00,0.0052
3442.00,0.0052
3441.00,0.0053
3440.00,0.0053
3439.00,0.0053
3438.00,0.0053
3437.00,0.0053
3436.00,0.0053
3435.00,0.0054
3434.00,0.0054
3433.00,0.0054
3432.00,0.0054
3431.00,0.0054
3430.00,0.0055
3429.00,0.0055
3428.00,0.0055
3427.00,0.0055
3426.00,0.0056
3425.00,0.0057
3424.00,0.0057
3423.00,0.0058
3422.00,0.0057
3421.00,0.0057
3420.00,0.0057
3419.00,0.0057
3418.00,0.0056
3417.00,0.0056
3416.00,0.0056
3415.00,0.0057
3414.00,0.0057
3413.00,0.0058
3412.00,0.0058
3411.00,0.0059
3410.00,0.0059
3409.00,0.0059
3408.00,0.0058
3407.00,0.0058
3406.00,0.0058
3405.00,0.0059
3404.00,0.0058
3403.00,0.0058
3402.00,0.0058
3401.00,0.0058
3400.00,0.0059
3399.00,0.0059
3398.00,0.0059
3397.00,0.0059
3396.00,0.0059
3395.00,0.0059
3394.00,0.0059
3393.00,0.0059
3392.00,0.0059
3391.00,0.0059
3390.00,0.0059
3389.00,0.0060
3388.00,0.0060
3387.00,0.0060
3386.00,0.0060
3385.00,0.0060
3384.00,0.0060
3383.00,0.0059
3382.00,0.0059
3381.00,0.0059
3380.00,0.0059
3379.00,0.0059
3378.00,0.0060
3377.00,0.0060
3376.00,0.0061
3375.00,0.0061
3374.00,0.0061
3373.00,0.0061
3372.00,0.0061
3371.00,0.0061
3370.00,0.0061
3369.00,0.0061
3368.00,0.0061
3367.00,0.0061
3366.00,0.0061
3365.00,0.0061
3364.00,0.0062
3363.00,0.0062
3362.00,0.0061
3361.00,0.0061
3360.00,0.0061
3359.00,0.0061
3358.00,0.0061
3357.00,0.0061
3356.00,0.0061
3355.00,0.0061
3354.00,0.0060
3353.00,0.0061
3352.00,0.0061
3351.00,0.0062
3350.00,0.0062
3349.00,0.0062
3348.00,0.0062
3347.00,0.0062
3346.00,0.0061
3345.00,0.0061
3344.00,0.0061
3343.00,0.0061
3342.00,0.0062
3341.00,0.0062
3340.00,0.0062
3339.00,0.0061
3338.00,0.0061
3337.00,0.0060
3336.00,0.0060
3335.00,0.0060
3334.00,0.0060
3333.00,0.0060
3332.00,0.0060
3331.00,0.0060
3330.00,0.0060
3329.00,0.0060
3328.00,0.0060
3327.00,0.0060
3326.00,0.0060
3325.00,0.0059
3324.00,0.0059
3323.00,0.0059
3322.00,0.0059
3321.00,0.0058
3320.00,0.0058
3319.00,0.0058
3318.00,0.0059
3317.00,0.0059
3316.00,0.0059
3315.00,0.0059
3314.00,0.0059
3313.00,0.0059
3312.00,0.0059
3311.00,0.0059
3310.00,0.0059
3309.00,0.0059
3308.00,0.0059
3307.00,0.0059
3306.00,0.0059
3305.00,0.0059
3304.00,0.0059
3303.00,0.0059
3302.00,0.0059
3301.00,0.0059
3300.00,0.0059
3299.00,0.0059
3298.00,0.0059
3297.00,0.0058
3296.00,0.0059
3295.00,0.0059
3294.00,0.0058
3293.00,0.0058
3292.00,0.0058
3291.00,0.0058
3290.00,0.0057
3289.00,0.0057
3288.00,0.0057
3287.00,0.0056
3286.00,0.0056
3285.00,0.0056
3284.00,0.0056
3283.00,0.0056
3282.00,0.0056
3281.00,0.0056
3280.00,0.0055
3279.00,0.0055
3278.00,0.0055
3277.00,0.0055
3276.00,0.0055
3275.00,0.0054
3274.00,0.0055
3273.00,0.0055
3272.00,0.0055
3271.00,0.0055
3270.00,0.0054
3269.00,0.0054
3268.00,0.0054
3267.00,0.0054
3266.00,0.0054
3265.00,0.0054
3264.00,0.0054
3263.00,0.0054
3262.00,0.0053
3261.00,0.0052
3260.00,0.0052
3259.00,0.0052
3258.00,0.0051
3257.00,0.0052
3256.00,0.0052
3255.00,0.0052
3254.00,0.0052
3253.00,0.0052
3252.00,0.0052
3251.00,0.0051
3250.00,0.0051
3249.00,0.0051
3248.00,0.0051
3247.00,0.0051
3246.00,0.0051
3245.00,0.0051
3244.00,0.0051
3243.00,0.0051
3242.00,0.0051
3241.00,0.0051
3240.00,0.0051
3239.00,0.0051
3238.00,0.0050
3237.00,0.0050
3236.00,0.0051
3235.00,0.0051
3234.00,0.0051
3233.00,0.0051
3232.00,0.0051
3231.00,0.0051
3230.00,0.0051
3229.00,0.0052
3228.00,0.0052
3227.00,0.0053
3226.00,0.0053
3225.00,0.0052
3224.00,0.0052
3223.00,0.0052
3222.00,0.0052
3221.00,0.0052
3220.00,0.0052
3219.00,0.0053
3218.00,0.0053
3217.00,0.0053
3216.00,0.0053
3215.00,0.0053
3214.00,0.0053
3213.00,0.0054
3212.00,0.0053
3211.00,0.0053
3210.00,0.0053
3209.00,0.0054
3208.00,0.0054
3207.00,0.0054
3206.00,0.0054
3205.00,0.0055
3204.00,0.0055
3203.00,0.0054
3202.00,0.0054
3201.00,0.0054
3200.00,0.0054
3199.00,0.0054
3198.00,0.0054
3197.00,0.0053
3196.00,0.0053
3195.00,0.0053
3194.00,0.0053
3193.00,0.0053
3192.00,0.0053
3191.00,0.0053
3190.00,0.0053
3189.00,0.0053
3188.00,0.0053
3187.00,0.0053
3186.00,0.0052
3185.00,0.0052
3184.00,0.0052
3183.00,0.0052
3182.00,0.0051
3181.00,0.0051
3180.00,0.0050
3179.00,0.0049
3178.00,0.0049
3177.00,0.0049
3176.00,0.0049
3175.00,0.0048
3174.00,0.0048
3173.00,0.0048
3172.00,0.0048
3171.00,0.0048
3170.00,0.0048
3169.00,0.0048
3168.00,0.0047
3167.00,0.0047
3166.00,0.0047
3165.00,0.0047
3164.00,0.0047
3163.00,0.0047
3162.00,0.0047
3161.00,0.0046
3160.00,0.0046
3159.00,0.0046
3158.00,0.0046
3157.00,0.0046
3156.00,0.0046
3155.00,0.0046
3154.00,0.0046
3153.00,0.0046
3152.00,0.0046
3151.00,0.0046
3150.00,0.0046
3149.00,0.0046
3148.00,0.0046
3147.00,0.0046
3146.00,0.0046
3145.00,0.0046
3144.00,0.0045
3143.00,0.0045
3142.00,0.0045
3141.00,0.0044
3140.00,0.0044
3139.00,0.0043
3138.00,0.0043
3137.00,0.0043
3136.00,0.0042
3135.00,0.0042
3134.00,0.0042
3133.00,0.0042
3132.00,0.0041
3131.00,0.0041
3130.00,0.0041
3129.00,0.0041
3128.00,0.0041
3127.00,0.0041
3126.00,0.0041
3125.00,0.0041
3124.00,0.0041
3123.00,0.0041
3122.00,0.0040
3121.00,0.0040
3120.00,0.0039
3119.00,0.0039
3118.00,0.0038
3117.00,0.0038
3116.00,0.0038
3115.00,0.0038
3114.00,0.0038
3113.00,0.0038
3112.00,0.0038
3111.00,0.0038
3110.00,0.0038
3109.00,0.0038
3108.00,0.0038
3107.00,0.0038
3106.00,0.0038
3105.00,0.0037
3104.00,0.0037
3103.00,0.0037
3102.00,0.0037
3101.00,0.0036
3100.00,0.0036
3099.00,0.0036
3098.00,0.0036
3097.00,0.0036
3096.00,0.0036
3095.00,0.0036
3094.00,0.0036
3093.00,0.0037
3092.00,0.0037
3091.00,0.0037
3090.00,0.0038
3089.00,0.0037
3088.00,0.0037
3087.00,0.0036
3086.00,0.0036
3085.00,0.0036
3084.00,0.0037
3083.00,0.0037
3082.00,0.0037
3081.00,0.0037
3080.00,0.0036
3079.00,0.0036
3078.00,0.0036
3077.00,0.0036
3076.00,0.0036
3075.00,0.0036
3074.00,0.0036
3073.00,0.0037
3072.00,0.0037
3071.00,0.0037
3070.00,0.0037
3069.00,0.0037
3068.00,0.0037
3067.00,0.0037
3066.00,0.0037
3065.00,0.0037
3064.00,0.0037
3063.00,0.0037
3062.00,0.0037
3061.00,0.0038
3060.00,0.0038
3059.00,0.0038
3058.00,0.0038
3057.00,0.0038
3056.00,0.0039
3055.00,0.0039
3054.00,0.0039
3053.00,0.0039
3052.00,0.0040
3051.00,0.0040
3050.00,0.0040
3049.00,0.0040
3048.00,0.0040
3047.00,0.0040
3046.00,0.0040
3045.00,0.0040
3044.00,0.0040
3043.00,0.0040
3042.00,0.0040
3041.00,0.0040
3040.00,0.0041
3039.00,0.0041
3038.00,0.0042
3037.00,0.0042
3036.00,0.0042
3035.00,0.0042
3034.00,0.0042
3033.00,0.0043
3032.00,0.0044
3031.00,0.0044
3030.00,0.0045
3029.00,0.0046
3028.00,0.0046
3027.00,0.0047
3026.00,0.0047
3025.00,0.0048
3024.00,0.0049
3023.00,0.0049
3022.00,0.0050
3021.00,0.0051
3020.00,0.0053
3019.00,0.0054
3018.00,0.0056
3017.00,0.0058
3016.00,0.0060
3015.00,0.0063
3014.00,0.0066
3013.00,0.0069
3012.00,0.0072
3011.00,0.0075
3010.00,0.0079
3009.00,0.0083
3008.00,0.0087
3007.00,0.0091
3006.00,0.0096
3005.00,0.0101
3004.00,0.0106
3003.00,0.0112
3002.00,0.0117
3001.00,0.0123
3000.00,0.0129
2999.00,0.0135
2998.00,0.0140
2997.00,0.0146
2996.00,0.0151
2995.00,0.0156
2994.00,0.0161
2993.00,0.0167
2992.00,0.0174
2991.00,0.0181
2990.00,0.0188
2989.00,0.0196
2988.00,0.0206
2987.00,0.0217
2986.00,0.0232
2985.00,0.0251
2984.00,0.0272
2983.00,0.0295
2982.00,0.0315
2981.00,0.0332
2980.00,0.0347
2979.00,0.0362
2978.00,0.0379
2977.00,0.0399
2976.00,0.0425
2975.00,0.0457
2974.00,0.0496
2973.00,0.0541
2972.00,0.0591
2971.00,0.0645
2970.00,0.0702
2969.00,0.0763
2968.00,0.0829
2967.00,0.0900
2966.00,0.0974
2965.00,0.1049
2964.00,0.1121
2963.00,0.1187
2962.00,0.1244
2961.00,0.1293
2960.00,0.1334
2959.00,0.1373
2958.00,0.1415
2957.00,0.1465
2956.00,0.1527
2955.00,0.1601
2954.00,0.1686
2953.00,0.1774
2952.00,0.1855
2951.00,0.1917
2950.00,0.1946
2949.00,0.1933
2948.00,0.1876
2947.00,0.1781
2946.00,0.1659
2945.00,0.1528
2944.00,0.1402
2943.00,0.1293
2942.00,0.1208
2941.00,0.1150
2940.00,0.1117
2939.00,0.1108
2938.00,0.1119
2937.00,0.1149
2936.00,0.1196
2935.00,0.1259
2934.00,0.1336
2933.00,0.1427
2932.00,0.1530
2931.00,0.1642
2930.00,0.1762
2929.00,0.1886
2928.00,0.2012
2927.00,0.2135
2926.00,0.2256
2925.00,0.2374
2924.00,0.2491
2923.00,0.2607
2922.00,0.2724
2921.00,0.2837
2920.00,0.2940
2919.00,0.3021
2918.00,0.3067
2917.00,0.3067
2916.00,0.3019
2915.00,0.2930
2914.00,0.2811
2913.00,0.2679
2912.00,0.2545
2911.00,0.2420
2910.00,0.2306
2909.00,0.2205
2908.00,0.2114
2907.00,0.2028
2906.00,0.1947
2905.00,0.1867
2904.00,0.1790
2903.00,0.1714
2902.00,0.1641
2901.00,0.1572
2900.00,0.1506
2899.00,0.1444
2898.00,0.1387
2897.00,0.1335
2896.00,0.1288
2895.00,0.1247
2894.00,0.1213
2893.00,0.1185
2892.00,0.1163
2891.00,0.1148
2890.00,0.1138
2889.00,0.1132
2888.00,0.1129
2887.00,0.1130
2886.00,0.1134
2885.00,0.1143
2884.00,0.1156
2883.00,0.1174
2882.00,0.1196
2881.00,0.1222
2880.00,0.1248
2879.00,0.1272
2878.00,0.1288
2877.00,0.1294
2876.00,0.1292
2875.00,0.1284
2874.00,0.1276
2873.00,0.1273
2872.00,0.1278
2871.00,0.1292
2870.00,0.1311
2869.00,0.1332
2868.00,0.1346
2867.00,0.1344
2866.00,0.1321
2865.00,0.1272
2864.00,0.1203
2863.00,0.1122
2862.00,0.1040
2861.00,0.0967
2860.00,0.0909
2859.00,0.0868
2858.00,0.0844
2857.00,0.0835
2856.00,0.0836
2855.00,0.0846
2854.00,0.0861
2853.00,0.0880
2852.00,0.0900
2851.00,0.0916
2850.00,0.0927
2849.00,0.0933
2848.00,0.0936
2847.00,0.0942
2846.00,0.0957
2845.00,0.0983
2844.00,0.1022
2843.00,0.1070
2842.00,0.1123
2841.00,0.1174
2840.00,0.1215
2839.00,0.1238
2838.00,0.1236
2837.00,0.1204
2836.00,0.1141
2835.00,0.1054
2834.00,0.0950
2833.00,0.0842
2832.00,0.0738
2831.00,0.0645
2830.00,0.0567
2829.00,0.0502
2828.00,0.0450
2827.00,0.0407
2826.00,0.0372
2825.00,0.0344
2824.00,0.0320
2823.00,0.0301
2822.00,0.0284
2821.00,0.0269
2820.00,0.0256
2819.00,0.0245
2818.00,0.0235
2817.00,0.0227
2816.00,0.0220
2815.00,0.0213
2814.00,0.0207
2813.00,0.0201
2812.00,0.0195
2811.00,0.0190
2810.00,0.0184
2809.00,0.0178
2808.00,0.0172
2807.00,0.0165
2806.00,0.0159
2805.00,0.0152
2804.00,0.0145
2803.00,0.0139
2802.00,0.0133
2801.00,0.0128
2800.00,0.0124
2799.00,0.0121
2798.00,0.0117
2797.00,0.0115
2796.00,0.0112
2795.00,0.0109
2794.00,0.0107
2793.00,0.0104
2792.00,0.0101
2791.00,0.0098
2790.00,0.0096
2789.00,0.0093
2788.00,0.0090
2787.00,0.0088
2786.00,0.0085
2785.00,0.0083
2784.00,0.0080
2783.00,0.0078
2782.00,0.0076
2781.00,0.0074
2780.00,0.0072
2779.00,0.0070
2778.00,0.0068
2777.00,0.0067
2776.00,0.0066
2775.00,0.0065
2774.00,0.0064
2773.00,0.0064
2772.00,0.0064
2771.00,0.0063
2770.00,0.0063
2769.00,0.0063
2768.00,0.0062
2767.00,0.0062
2766.00,0.0062
2765.00,0.0062
2764.00,0.0061
2763.00,0.0061
2762.00,0.0060
2761.00,0.0060
2760.00,0.0059
2759.00,0.0059
2758.00,0.0059
2757.00,0.0059
2756.00,0.0059
2755.00,0.0059
2754.00,0.0058
2753.00,0.0058
2752.00,0.0058
2751.00,0.0057
2750.00,0.0057
2749.00,0.0057
2748.00,0.0057
2747.00,0.0057
2746.00,0.0058
2745.00,0.0059
2744.00,0.0059
2743.00,0.0060
2742.00,0.0061
2741.00,0.0062
2740.00,0.0063
2739.00,0.0064
2738.00,0.0065
2737.00,0.0066
2736.00,0.0068
2735.00,0.0070
2734.00,0.0071
2733.00,0.0073
2732.00,0.0075
2731.00,0.0077
2730.00,0.0079
2729.00,0.0082
2728.00,0.0085
2727.00,0.0088
2726.00,0.0091
2725.00,0.0093
2724.00,0.0095
2723.00,0.0095
2722.00,0.0094
2721.00,0.0093
2720.00,0.0090
2719.00,0.0086
2718.00,0.0083
2717.00,0.0079
2716.00,0.0076
2715.00,0.0073
2714.00,0.0071
2713.00,0.0069
2712.00,0.0067
2711.00,0.0065
2710.00,0.0063
2709.00,0.0061
2708.00,0.0059
2707.00,0.0058
2706.00,0.0056
2705.00,0.0055
2704.00,0.0054
2703.00,0.0053
2702.00,0.0052
2701.00,0.0052
2700.00,0.0051
2699.00,0.0050
2698.00,0.0050
2697.00,0.0050
2696.00,0.0050
2695.00,0.0050
2694.00,0.0050
2693.00,0.0050
2692.00,0.0050
2691.00,0.0050
2690.00,0.0050
2689.00,0.0050
2688.00,0.0050
2687.00,0.0051
2686.00,0.0051
2685.00,0.0051
2684.00,0.0051
2683.00,0.0051
2682.00,0.0051
2681.00,0.0051
2680.00,0.0051
2679.00,0.0051
2678.00,0.0051
2677.00,0.0052
2676.00,0.0052
2675.00,0.0051
2674.00,0.0051
2673.00,0.0051
2672.00,0.0050
2671.00,0.0050
2670.00,0.0050
2669.00,0.0050
2668.00,0.0050
2667.00,0.0051
2666.00,0.0051
2665.00,0.0052
2664.00,0.0052
2663.00,0.0053
2662.00,0.0053
2661.00,0.0054
2660.00,0.0054
2659.00,0.0054
2658.00,0.0054
2657.00,0.0054
2656.00,0.0053
2655.00,0.0052
2654.00,0.0052
2653.00,0.0051
2652.00,0.0050
2651.00,0.0050
2650.00,0.0050
2649.00,0.0049
2648.00,0.0049
2647.00,0.0049
2646.00,0.0048
2645.00,0.0048
2644.00,0.0047
2643.00,0.0046
2642.00,0.0046
2641.00,0.0045
2640.00,0.0045
2639.00,0.0045
2638.00,0.0044
2637.00,0.0044
2636.00,0.0044
2635.00,0.0044
2634.00,0.0044
2633.00,0.0044
2632.00,0.0044
2631.00,0.0044
2630.00,0.0045
2629.00,0.0045
2628.00,0.0045
2627.00,0.0045
2626.00,0.0045
2625.00,0.0045
2624.00,0.0045
2623.00,0.0044
2622.00,0.0044
2621.00,0.0045
2620.00,0.0045
2619.00,0.0045
2618.00,0.0045
2617.00,0.0046
2616.00,0.0046
2615.00,0.0045
2614.00,0.0045
2613.00,0.0045
2612.00,0.0044
2611.00,0.0044
2610.00,0.0043
2609.00,0.0042
2608.00,0.0040
2607.00,0.0039
2606.00,0.0038
2605.00,0.0037
2604.00,0.0037
2603.00,0.0037
2602.00,0.0037
2601.00,0.0037
2600.00,0.0037
2599.00,0.0036
2598.00,0.0036
2597.00,0.0036
2596.00,0.0036
2595.00,0.0036
2594.00,0.0036
2593.00,0.0037
2592.00,0.0037
2591.00,0.0038
2590.00,0.0038
2589.00,0.0039
2588.00,0.0040
2587.00,0.0041
2586.00,0.0042
2585.00,0.0044
2584.00,0.0045
2583.00,0.0046
2582.00,0.0046
2581.00,0.0046
2580.00,0.0044
2579.00,0.0043
2578.00,0.0041
2577.00,0.0039
2576.00,0.0038
2575.00,0.0036
2574.00,0.0035
2573.00,0.0033
2572.00,0.0032
2571.00,0.0031
2570.00,0.0030
2569.00,0.0029
2568.00,0.0028
2567.00,0.0028
2566.00,0.0028
2565.00,0.0027
2564.00,0.0027
2563.00,0.0027
2562.00,0.0027
2561.00,0.0027
2560.00,0.0027
2559.00,0.0027
2558.00,0.0027
2557.00,0.0026
2556.00,0.0026
2555.00,0.0025
2554.00,0.0024
2553.00,0.0024
2552.00,0.0024
2551.00,0.0024
2550.00,0.0024
2549.00,0.0024
2548.00,0.0024
2547.00,0.0023
2546.00,0.0023
2545.00,0.0023
2544.00,0.0022
2543.00,0.0022
2542.00,0.0021
2541.00,0.0020
2540.00,0.0020
2539.00,0.0020
2538.00,0.0020
2537.00,0.0021
2536.00,0.0021
2535.00,0.0021
2534.00,0.0020
2533.00,0.0020
2532.00,0.0019
2531.00,0.0019
2530.00,0.0019
2529.00,0.0020
2528.00,0.0020
2527.00,0.0019
2526.00,0.0019
2525.00,0.0018
2524.00,0.0018
2523.00,0.0018
2522.00,0.0018
2521.00,0.0018
2520.00,0.0017
2519.00,0.0016
2518.00,0.0016
2517.00,0.0016
2516.00,0.0016
2515.00,0.0016
2514.00,0.0016
2513.00,0.0015
2512.00,0.0015
2511.00,0.0015
2510.00,0.0014
2509.00,0.0015
2508.00,0.0015
2507.00,0.0015
2506.00,0.0015
2505.00,0.0015
2504.00,0.0014
2503.00,0.0014
2502.00,0.0014
2501.00,0.0014
2500.00,0.0014
2499.00,0.0014
2498.00,0.0015
2497.00,0.0015
2496.00,0.0015
2495.00,0.0015
2494.00,0.0015
2493.00,0.0014
2492.00,0.0014
2491.00,0.0013
2490.00,0.0012
2489.00,0.0012
2488.00,0.0013
2487.00,0.0013
2486.00,0.0013
2485.00,0.0013
2484.00,0.0013
2483.00,0.0012
2482.00,0.0012
2481.00,0.0012
2480.00,0.0013
2479.00,0.0013
2478.00,0.0014
2477.00,0.0014
2476.00,0.0014
2475.00,0.0014
2474.00,0.0013
2473.00,0.0012
2472.00,0.0012
2471.00,0.0012
2470.00,0.0011
2469.00,0.0012
2468.00,0.0012
2467.00,0.0013
2466.00,0.0013
2465.00,0.0013
2464.00,0.0013
2463.00,0.0012
2462.00,0.0012
2461.00,0.0012
2460.00,0.0012
2459.00,0.0012
2458.00,0.0013
2457.00,0.0014
2456.00,0.0015
2455.00,0.0015
2454.00,0.0015
2453.00,0.0015
2452.00,0.0015
2451.00,0.0015
2450.00,0.0015
2449.00,0.0015
2448.00,0.0014
2447.00,0.0014
2446.00,0.0014
2445.00,0.0013
2444.00,0.0013
2443.00,0.0013
2442.00,0.0013
2441.00,0.0014
2440.00,0.0014
2439.00,0.0014
2438.00,0.0014
2437.00,0.0014
2436.00,0.0015
2435.00,0.0015
2434.00,0.0016
2433.00,0.0015
2432.00,0.0015
2431.00,0.0015
2430.00,0.0015
2429.00,0.0015
2428.00,0.0015
2427.00,0.0015
2426.00,0.0015
2425.00,0.0015
2424.00,0.0015
2423.00,0.0014
2422.00,0.0014
2421.00,0.0014
2420.00,0.0014
2419.00,0.0013
2418.00,0.0013
2417.00,0.0013
2416.00,0.0013
2415.00,0.0012
2414.00,0.0012
2413.00,0.0012
2412.00,0.0012
2411.00,0.0013
2410.00,0.0013
2409.00,0.0013
2408.00,0.0013
2407.00,0.0013
2406.00,0.0013
2405.00,0.0013
2404.00,0.0012
2403.00,0.0012
2402.00,0.0012
2401.00,0.0012
2400.00,0.0012
2399.00,0.0011
2398.00,0.0010
2397.00,0.0010
2396.00,0.0009
2395.00,0.0009
2394.00,0.0010
2393.00,0.0010
2392.00,0.0011
2391.00,0.0012
2390.00,0.0012
2389.00,0.0012
2388.00,0.0011
2387.00,0.0010
2386.00,0.0010
2385.00,0.0010
2384.00,0.0009
2383.00,0.0009
2382.00,0.0008
2381.00,0.0007
2380.00,0.0007
2379.00,0.0006
2378.00,0.0006
2377.00,0.0006
2376.00,0.0006
2375.00,0.0006
2374.00,0.0005
2373.00,0.0005
2372.00,0.0005
2371.00,0.0005
2370.00,0.0005
2369.00,0.0004
2368.00,0.0003
2367.00,0.0003
2366.00,0.0003
2365.00,0.0004
2364.00,0.0004
2363.00,0.0004
2362.00,0.0004
2361.00,0.0004
2360.00,0.0004
2359.00,0.0004
2358.00,0.0004
2357.00,0.0003
2356.00,0.0003
2355.00,0.0004
2354.00,0.0004
2353.00,0.0004
2352.00,0.0004
2351.00,0.0004
2350.00,0.0004
2349.00,0.0004
2348.00,0.0005
2347.00,0.0006
2346.00,0.0007
2345.00,0.0006
2344.00,0.0006
2343.00,0.0005
2342.00,0.0004
2341.00,0.0005
2340.00,0.0005
2339.00,0.0006
2338.00,0.0007
2337.00,0.0008
2336.00,0.0008
2335.00,0.0008
2334.00,0.0008
2333.00,0.0008
2332.00,0.0007
2331.00,0.0007
2330.00,0.0007
2329.00,0.0008
2328.00,0.0010
2327.00,0.0013
2326.00,0.0018
2325.00,0.0022
2324.00,0.0024
2323.00,0.0023
2322.00,0.0020
2321.00,0.0017
2320.00,0.0015
2319.00,0.0014
2318.00,0.0013
2317.00,0.0013
2316.00,0.0012
2315.00,0.0012
2314.00,0.0011
2313.00,0.0011
2312.00,0.0011
2311.00,0.0011
2310.00,0.0011
2309.00,0.0011
2308.00,0.0012
2307.00,0.0012
2306.00,0.0013
2305.00,0.0013
2304.00,0.0013
2303.00,0.0013
2302.00,0.0013
2301.00,0.0013
2300.00,0.0012
2299.00,0.0012
2298.00,0.0012
2297.00,0.0013
2296.00,0.0013
2295.00,0.0014
2294.00,0.0016
2293.00,0.0016
2292.00,0.0017
2291.00,0.0018
2290.00,0.0019
2289.00,0.0020
2288.00,0.0021
2287.00,0.0021
2286.00,0.0021
2285.00,0.0020
2284.00,0.0019
2283.00,0.0018
2282.00,0.0017
2281.00,0.0017
2280.00,0.0017
2279.00,0.0018
2278.00,0.0018
2277.00,0.0018
2276.00,0.0018
2275.00,0.0017
2274.00,0.0016
2273.00,0.0016
2272.00,0.0016
2271.00,0.0016
2270.00,0.0017
2269.00,0.0018
2268.00,0.0018
2267.00,0.0016
2266.00,0.0014
2265.00,0.0012
2264.00,0.0011
2263.00,0.0010
2262.00,0.0010
2261.00,0.0011
2260.00,0.0012
2259.00,0.0013
2258.00,0.0015
2257.00,0.0015
2256.00,0.0015
2255.00,0.0014
2254.00,0.0013
2253.00,0.0013
2252.00,0.0012
2251.00,0.0012
2250.00,0.0012
2249.00,0.0013
2248.00,0.0013
2247.00,0.0013
2246.00,0.0012
2245.00,0.0011
2244.00,0.0009
2243.00,0.0008
2242.00,0.0008
2241.00,0.0010
2240.00,0.0012
2239.00,0.0013
2238.00,0.0013
2237.00,0.0013
2236.00,0.0014
2235.00,0.0015
2234.00,0.0016
2233.00,0.0018
2232.00,0.0018
2231.00,0.0016
2230.00,0.0013
2229.00,0.0011
2228.00,0.0010
2227.00,0.0011
2226.00,0.0012
2225.00,0.0012
2224.00,0.0012
2223.00,0.0011
2222.00,0.0010
2221.00,0.0009
2220.00,0.0009
2219.00,0.0009
2218.00,0.0010
2217.00,0.0009
2216.00,0.0009
2215.00,0.0008
2214.00,0.0007
2213.00,0.0006
2212.00,0.0006
2211.00,0.0007
2210.00,0.0007
2209.00,0.0008
2208.00,0.0008
2207.00,0.0007
2206.00,0.0007
2205.00,0.0007
2204.00,0.0008
2203.00,0.0008
2202.00,0.0007
2201.00,0.0006
2200.00,0.0007
2199.00,0.0009
2198.00,0.0011
2197.00,0.0012
2196.00,0.0014
2195.00,0.0014
2194.00,0.0014
2193.00,0.0014
2192.00,0.0015
2191.00,0.0017
2190.00,0.0019
2189.00,0.0020
2188.00,0.0019
2187.00,0.0017
2186.00,0.0016
2185.00,0.0015
2184.00,0.0015
2183.00,0.0015
2182.00,0.0014
2181.00,0.0013
2180.00,0.0013
2179.00,0.0014
2178.00,0.0015
2177.00,0.0015
2176.00,0.0012
2175.00,0.0007
2174.00,0.0004
2173.00,0.0004
2172.00,0.0007
2171.00,0.0011
2170.00,0.0014
2169.00,0.0017
2168.00,0.0020
2167.00,0.0022
2166.00,0.0022
2165.00,0.0022
2164.00,0.0020
2163.00,0.0019
2162.00,0.0015
2161.00,0.0009
2160.00,-0.0001
2159.00,-0.0012
2158.00,-0.0020
2157.00,-0.0023
2156.00,-0.0022
2155.00,-0.0021
2154.00,-0.0019
2153.00,-0.0017
2152.00,-0.0014
2151.00,-0.0010
2150.00,-0.0009
2149.00,-0.0009
2148.00,-0.0011
2147.00,-0.0013
2146.00,-0.0014
2145.00,-0.0013
2144.00,-0.0013
2143.00,-0.0013
2142.00,-0.0012
2141.00,-0.0010
2140.00,-0.0007
2139.00,-0.0005
2138.00,-0.0004
2137.00,-0.0006
2136.00,-0.0010
2135.00,-0.0015
2134.00,-0.0018
2133.00,-0.0017
2132.00,-0.0013
2131.00,-0.0009
2130.00,-0.0006
2129.00,-0.0005
2128.00,-0.0005
2127.00,-0.0006
2126.00,-0.0006
2125.00,-0.0004
2124.00,-0.0003
2123.00,-0.0002
2122.00,-0.0001
2121.00,-0.0001
2120.00,0.0000
2119.00,0.0001
2118.00,0.0002
2117.00,0.0003
2116.00,0.0005
2115.00,0.0006
2114.00,0.0007
2113.00,0.0007
2112.00,0.0007
2111.00,0.0005
2110.00,0.0003
2109.00,0.0001
2108.00,0.0001
2107.00,0.0001
2106.00,0.0002
2105.00,0.0002
2104.00,0.0002
2103.00,0.0003
2102.00,0.0004
2101.00,0.0006
2100.00,0.0007
2099.00,0.0007
2098.00,0.0004
2097.00,0.0001
2096.00,-0.0001
2095.00,-0.0003
2094.00,-0.0002
2093.00,-0.0001
2092.00,0.0000
2091.00,-0.0000
2090.00,-0.0001
2089.00,-0.0000
2088.00,0.0001
2087.00,0.0003
2086.00,0.0004
2085.00,0.0005
2084.00,0.0006
2083.00,0.0006
2082.00,0.0006
2081.00,0.0005
2080.00,0.0005
2079.00,0.0004
2078.00,0.0003
2077.00,0.0003
2076.00,0.0004
2075.00,0.0004
2074.00,0.0003
2073.00,0.0003
2072.00,0.0004
2071.00,0.0004
2070.00,0.0004
2069.00,0.0004
2068.00,0.0004
2067.00,0.0004
2066.00,0.0004
2065.00,0.0005
2064.00,0.0004
2063.00,0.0001
2062.00,-0.0001
2061.00,-0.0001
2060.00,0.0000
2059.00,0.0003
2058.00,0.0006
2057.00,0.0008
2056.00,0.0009
2055.00,0.0008
2054.00,0.0008
2053.00,0.0010
2052.00,0.0012
2051.00,0.0013
2050.00,0.0012
2049.00,0.0007
2048.00,0.0002
2047.00,-0.0001
2046.00,-0.0001
2045.00,0.0001
2044.00,0.0004
2043.00,0.0006
2042.00,0.0007
2041.00,0.0006
2040.00,0.0004
2039.00,0.0003
2038.00,0.0003
2037.00,0.0003
2036.00,0.0002
2035.00,-0.0001
2034.00,-0.0003
2033.00,-0.0005
2032.00,-0.0005
2031.00,-0.0007
2030.00,-0.0010
2029.00,-0.0012
2028.00,-0.0013
2027.00,-0.0012
2026.00,-0.0011
2025.00,-0.0010
2024.00,-0.0009
2023.00,-0.0009
2022.00,-0.0007
2021.00,-0.0005
2020.00,-0.0002
2019.00,0.0001
2018.00,0.0003
2017.00,0.0003
2016.00,0.0003
2015.00,0.0002
2014.00,0.0002
2013.00,0.0003
2012.00,0.0003
2011.00,0.0003
2010.00,0.0001
2009.00,-0.0002
2008.00,-0.0007
2007.00,-0.0011
2006.00,-0.0014
2005.00,-0.0014
2004.00,-0.0012
2003.00,-0.0011
2002.00,-0.0010
2001.00,-0.0009
2000.00,-0.0009
1999.00,-0.0008
1998.00,-0.0009
1997.00,-0.0010
1996.00,-0.0011
1995.00,-0.0011
1994.00,-0.0010
1993.00,-0.0007
1992.00,-0.0004
1991.00,-0.0001
1990.00,0.0001
1989.00,0.0002
1988.00,0.0003
1987.00,0.0003
1986.00,0.0003
1985.00,0.0004
1984.00,0.0006
1983.00,0.0009
1982.00,0.0013
1981.00,0.0016
1980.00,0.0017
1979.00,0.0013
1978.00,0.0006
1977.00,-0.0001
1976.00,-0.0007
1975.00,-0.0010
1974.00,-0.0010
1973.00,-0.0006
1972.00,-0.0001
1971.00,0.0002
1970.00,0.0001
1969.00,-0.0004
1968.00,-0.0009
1967.00,-0.0012
1966.00,-0.0012
1965.00,-0.0011
1964.00,-0.0009
1963.00,-0.0008
1962.00,-0.0008
1961.00,-0.0009
1960.00,-0.0010
1959.00,-0.0011
1958.00,-0.0010
1957.00,-0.0008
1956.00,-0.0007
1955.00,-0.0007
1954.00,-0.0008
1953.00,-0.0007
1952.00,-0.0006
1951.00,-0.0005
1950.00,-0.0006
1949.00,-0.0007
1948.00,-0.0007
1947.00,-0.0008
1946.00,-0.0008
1945.00,-0.0009
1944.00,-0.0009
1943.00,-0.0009
1942.00,-0.0007
1941.00,-0.0005
1940.00,-0.0003
1939.00,-0.0003
1938.00,-0.0003
1937.00,-0.0003
1936.00,-0.0002
1935.00,-0.0002
1934.00,-0.0003
1933.00,-0.0003
1932.00,-0.0003
1931.00,-0.0002
1930.00,-0.0002
1929.00,-0.0002
1928.00,-0.0003
1927.00,-0.0003
1926.00,-0.0003
1925.00,-0.0004
1924.00,-0.0004
1923.00,-0.0003
1922.00,-0.0003
1921.00,-0.0002
1920.00,-0.0000
1919.00,0.0002
1918.00,0.0003
1917.00,0.0004
1916.00,0.0004
1915.00,0.0004
1914.00,0.0003
1913.00,0.0002
1912.00,0.0002
1911.00,0.0001
1910.00,0.0001
1909.00,0.0001
1908.00,0.0001
1907.00,0.0001
1906.00,0.0002
1905.00,0.0003
1904.00,0.0003
1903.00,0.0003
1902.00,0.0003
1901.00,0.0003
1900.00,0.0004
1899.00,0.0003
1898.00,0.0003
1897.00,0.0003
1896.00,0.0003
1895.00,0.0003
1894.00,0.0004
1893.00,0.0005
1892.00,0.0005
1891.00,0.0005
1890.00,0.0003
1889.00,0.0002
1888.00,0.0002
1887.00,0.0001
1886.00,0.0001
1885.00,0.0001
1884.00,0.0001
1883.00,0.0002
1882.00,0.0001
1881.00,0.0001
1880.00,0.0002
1879.00,0.0002
1878.00,0.0002
1877.00,0.0002
1876.00,0.0003
1875.00,0.0003
1874.00,0.0002
1873.00,0.0003
1872.00,0.0004
1871.00,0.0005
1870.00,0.0006
1869.00,0.0005
1868.00,0.0005
1867.00,0.0004
1866.00,0.0004
1865.00,0.0004
1864.00,0.0005
1863.00,0.0004
1862.00,0.0004
1861.00,0.0003
1860.00,0.0003
1859.00,0.0003
1858.00,0.0003
1857.00,0.0004
1856.00,0.0005
1855.00,0.0005
1854.00,0.0006
1853.00,0.0006
1852.00,0.0006
1851.00,0.0006
1850.00,0.0006
1849.00,0.0006
1848.00,0.0005
1847.00,0.0005
1846.00,0.0005
1845.00,0.0005
1844.00,0.0006
1843.00,0.0006
1842.00,0.0006
1841.00,0.0006
1840.00,0.0006
1839.00,0.0006
1838.00,0.0006
1837.00,0.0006
1836.00,0.0007
1835.00,0.0008
1834.00,0.0008
1833.00,0.0008
1832.00,0.0007
1831.00,0.0008
1830.00,0.0008
1829.00,0.0008
1828.00,0.0008
1827.00,0.0008
1826.00,0.0007
1825.00,0.0007
1824.00,0.0008
1823.00,0.0008
1822.00,0.0008
1821.00,0.0007
1820.00,0.0007
1819.00,0.0005
1818.00,0.0004
1817.00,0.0004
1816.00,0.0004
1815.00,0.0005
1814.00,0.0007
1813.00,0.0008
1812.00,0.0008
1811.00,0.0008
1810.00,0.0007
1809.00,0.0008
1808.00,0.0008
1807.00,0.0008
1806.00,0.0008
1805.00,0.0008
1804.00,0.0008
1803.00,0.0008
1802.00,0.0008
1801.00,0.0008
1800.00,0.0008
1799.00,0.0008
1798.00,0.0008
1797.00,0.0008
1796.00,0.0008
1795.00,0.0008
1794.00,0.0009
1793.00,0.0010
1792.00,0.0011
1791.00,0.0011
1790.00,0.0011
1789.00,0.0012
1788.00,0.0012
1787.00,0.0012
1786.00,0.0012
1785.00,0.0012
1784.00,0.0012
1783.00,0.0012
1782.00,0.0012
1781.00,0.0012
1780.00,0.0012
1779.00,0.0011
1778.00,0.0011
1777.00,0.0011
1776.00,0.0011
1775.00,0.0012
1774.00,0.0013
1773.00,0.0013
1772.00,0.0014
1771.00,0.0014
1770.00,0.0014
1769.00,0.0015
1768.00,0.0015
1767.00,0.0016
1766.00,0.0017
1765.00,0.0017
1764.00,0.0016
1763.00,0.0016
1762.00,0.0016
1761.00,0.0017
1760.00,0.0018
1759.00,0.0019
1758.00,0.0019
1757.00,0.0021
1756.00,0.0022
1755.00,0.0023
1754.00,0.0024
1753.00,0.0025
1752.00,0.0025
1751.00,0.0026
1750.00,0.0027
1749.00,0.0028
1748.00,0.0029
1747.00,0.0030
1746.00,0.0030
1745.00,0.0031
1744.00,0.0031
1743.00,0.0031
1742.00,0.0031
1741.00,0.0032
1740.00,0.0032
1739.00,0.0033
1738.00,0.0032
1737.00,0.0033
1736.00,0.0033
1735.00,0.0034
1734.00,0.0034
1733.00,0.0034
1732.00,0.0034
1731.00,0.0033
1730.00,0.0032
1729.00,0.0032
1728.00,0.0032
1727.00,0.0033
1726.00,0.0033
1725.00,0.0034
1724.00,0.0034
1723.00,0.0035
1722.00,0.0035
1721.00,0.0035
1720.00,0.0034
1719.00,0.0034
1718.00,0.0034
1717.00,0.0034
1716.00,0.0034
1715.00,0.0033
1714.00,0.0032
1713.00,0.0032
1712.00,0.0032
1711.00,0.0032
1710.00,0.0032
1709.00,0.0032
1708.00,0.0032
1707.00,0.0033
1706.00,0.0033
1705.00,0.0033
1704.00,0.0033
1703.00,0.0033
1702.00,0.0034
1701.00,0.0036
1700.00,0.0038
1699.00,0.0039
1698.00,0.0039
1697.00,0.0039
1696.00,0.0040
1695.00,0.0041
1694.00,0.0042
1693.00,0.0043
1692.00,0.0043
1691.00,0.0044
1690.00,0.0044
1689.00,0.0045
1688.00,0.0045
1687.00,0.0046
1686.00,0.0046
1685.00,0.0048
1684.00,0.0049
1683.00,0.0051
1682.00,0.0052
1681.00,0.0053
1680.00,0.0054
1679.00,0.0055
1678.00,0.0056
1677.00,0.0057
1676.00,0.0058
1675.00,0.0060
1674.00,0.0061
1673.00,0.0062
1672.00,0.0063
1671.00,0.0064
1670.00,0.0064
1669.00,0.0064
1668.00,0.0065
1667.00,0.0065
1666.00,0.0066
1665.00,0.0066
1664.00,0.0068
1663.00,0.0068
1662.00,0.0069
1661.00,0.0070
1660.00,0.0070
1659.00,0.0071
1658.00,0.0072
1657.00,0.0072
1656.00,0.0073
1655.00,0.0072
1654.00,0.0072
1653.00,0.0072
1652.00,0.0074
1651.00,0.0075
1650.00,0.0074
1649.00,0.0074
1648.00,0.0075
1647.00,0.0076
1646.00,0.0077
1645.00,0.0078
1644.00,0.0078
1643.00,0.0078
1642.00,0.0078
1641.00,0.0078
1640.00,0.0079
1639.00,0.0079
1638.00,0.0080
1637.00,0.0080
1636.00,0.0080
1635.00,0.0080
1634.00,0.0080
1633.00,0.0080
1632.00,0.0079
1631.00,0.0079
1630.00,0.0079
1629.00,0.0078
1628.00,0.0077
1627.00,0.0077
1626.00,0.0076
1625.00,0.0076
1624.00,0.0076
1623.00,0.0076
1622.00,0.0076
1621.00,0.0075
1620.00,0.0075
1619.00,0.0075
1618.00,0.0074
1617.00,0.0074
1616.00,0.0074
1615.00,0.0075
1614.00,0.0075
1613.00,0.0075
1612.00,0.0075
1611.00,0.0075
1610.00,0.0075
1609.00,0.0075
1608.00,0.0076
1607.00,0.0076
1606.00,0.0076
1605.00,0.0076
1604.00,0.0076
1603.00,0.0076
1602.00,0.0076
1601.00,0.0076
1600.00,0.0076
1599.00,0.0077
1598.00,0.0077
1597.00,0.0077
1596.00,0.0077
1595.00,0.0076
1594.00,0.0077
1593.00,0.0077
1592.00,0.0077
1591.00,0.0077
1590.00,0.0077
1589.00,0.0077
1588.00,0.0078
1587.00,0.0079
1586.00,0.0080
1585.00,0.0080
1584.00,0.0081
1583.00,0.0081
1582.00,0.0082
1581.00,0.0083
1580.00,0.0085
1579.00,0.0085
1578.00,0.0085
1577.00,0.0085
1576.00,0.0084
1575.00,0.0083
1574.00,0.0082
1573.00,0.0081
1572.00,0.0081
1571.00,0.0080
1570.00,0.0078
1569.00,0.0077
1568.00,0.0077
1567.00,0.0076
1566.00,0.0076
1565.00,0.0075
1564.00,0.0075
1563.00,0.0074
1562.00,0.0073
1561.00,0.0074
1560.00,0.0074
1559.00,0.0072
1558.00,0.0071
1557.00,0.0073
1556.00,0.0073
1555.00,0.0073
1554.00,0.0073
1553.00,0.0074
1552.00,0.0074
1551.00,0.0075
1550.00,0.0075
1549.00,0.0076
1548.00,0.0077
1547.00,0.0079
1546.00,0.0080
1545.00,0.0081
1544.00,0.0081
1543.00,0.0081
1542.00,0.0082
1541.00,0.0082
1540.00,0.0081
1539.00,0.0079
1538.00,0.0077
1537.00,0.0076
1536.00,0.0074
1535.00,0.0072
1534.00,0.0070
1533.00,0.0069
1532.00,0.0067
1531.00,0.0066
1530.00,0.0065
1529.00,0.0065
1528.00,0.0065
1527.00,0.0064
1526.00,0.0063
1525.00,0.0063
1524.00,0.0064
1523.00,0.0063
1522.00,0.0063
1521.00,0.0063
1520.00,0.0063
1519.00,0.0064
1518.00,0.0064
1517.00,0.0064
1516.00,0.0064
1515.00,0.0065
1514.00,0.0065
1513.00,0.0066
1512.00,0.0067
1511.00,0.0067
1510.00,0.0068
1509.00,0.0069
1508.00,0.0071
1507.00,0.0071
1506.00,0.0071
1505.00,0.0073
1504.00,0.0075
1503.00,0.0076
1502.00,0.0077
1501.00,0.0079
1500.00,0.0081
1499.00,0.0083
1498.00,0.0085
1497.00,0.0089
1496.00,0.0093
1495.00,0.0096
1494.00,0.0098
1493.00,0.0101
1492.00,0.0106
1491.00,0.0110
1490.00,0.0113
1489.00,0.0118
1488.00,0.0123
1487.00,0.0128
1486.00,0.0133
1485.00,0.0140
1484.00,0.0147
1483.00,0.0155
1482.00,0.0164
1481.00,0.0176
1480.00,0.0188
1479.00,0.0201
1478.00,0.0217
1477.00,0.0239
1476.00,0.0266
1475.00,0.0299
1474.00,0.0342
1473.00,0.0401
1472.00,0.0469
1471.00,0.0534
1470.00,0.0597
1469.00,0.0664
1468.00,0.0736
1467.00,0.0818
1466.00,0.0913
1465.00,0.1016
1464.00,0.1106
1463.00,0.1166
1462.00,0.1201
1461.00,0.1222
1460.00,0.1234
1459.00,0.1240
1458.00,0.1241
1457.00,0.1238
1456.00,0.1228
1455.00,0.1213
1454.00,0.1196
1453.00,0.1173
1452.00,0.1141
1451.00,0.1099
1450.00,0.1043
1449.00,0.0968
1448.00,0.0876
1447.00,0.0779
1446.00,0.0695
1445.00,0.0624
1444.00,0.0564
1443.00,0.0515
1442.00,0.0479
1441.00,0.0455
1440.00,0.0441
1439.00,0.0438
1438.00,0.0443
1437.00,0.0449
1436.00,0.0444
1435.00,0.0421
1434.00,0.0385
1433.00,0.0341
1432.00,0.0294
1431.00,0.0253
1430.00,0.0220
1429.00,0.0196
1428.00,0.0180
1427.00,0.0170
1426.00,0.0164
1425.00,0.0158
1424.00,0.0153
1423.00,0.0150
1422.00,0.0149
1421.00,0.0147
1420.00,0.0145
1419.00,0.0143
1418.00,0.0141
1417.00,0.0139
1416.00,0.0137
1415.00,0.0137
1414.00,0.0138
1413.00,0.0137
1412.00,0.0136
1411.00,0.0135
1410.00,0.0136
1409.00,0.0136
1408.00,0.0136
1407.00,0.0138
1406.00,0.0140
1405.00,0.0141
1404.00,0.0142
1403.00,0.0145
1402.00,0.0149
1401.00,0.0153
1400.00,0.0156
1399.00,0.0159
1398.00,0.0163
1397.00,0.0167
1396.00,0.0171
1395.00,0.0177
1394.00,0.0183
1393.00,0.0189
1392.00,0.0194
1391.00,0.0201
1390.00,0.0211
1389.00,0.0226
1388.00,0.0247
1387.00,0.0278
1386.00,0.0320
1385.00,0.0376
1384.00,0.0454
1383.00,0.0565
1382.00,0.0719
1381.00,0.0922
1380.00,0.1180
1379.00,0.1481
1378.00,0.1777
1377.00,0.2001
1376.00,0.2083
1375.00,0.1983
1374.00,0.1731
1373.00,0.1426
1372.00,0.1148
1371.00,0.0921
1370.00,0.0741
1369.00,0.0606
1368.00,0.0512
1367.00,0.0454
1366.00,0.0422
1365.00,0.0409
1364.00,0.0411
1363.00,0.0424
1362.00,0.0447
1361.00,0.0471
1360.00,0.0490
1359.00,0.0496
1358.00,0.0485
1357.00,0.0457
1356.00,0.0418
1355.00,0.0374
1354.00,0.0332
1353.00,0.0295
1352.00,0.0266
1351.00,0.0242
1350.00,0.0223
1349.00,0.0207
1348.00,0.0194
1347.00,0.0183
1346.00,0.0173
1345.00,0.0165
1344.00,0.0158
1343.00,0.0152
1342.00,0.0148
1341.00,0.0144
1340.00,0.0140
1339.00,0.0138
1338.00,0.0136
1337.00,0.0136
1336.00,0.0137
1335.00,0.0139
1334.00,0.0143
1333.00,0.0147
1332.00,0.0152
1331.00,0.0155
1330.00,0.0157
1329.00,0.0155
1328.00,0.0151
1327.00,0.0145
1326.00,0.0139
1325.00,0.0132
1324.00,0.0126
1323.00,0.0121
1322.00,0.0117
1321.00,0.0114
1320.00,0.0112
1319.00,0.0109
1318.00,0.0107
1317.00,0.0105
1316.00,0.0104
1315.00,0.0103
1314.00,0.0103
1313.00,0.0102
1312.00,0.0103
1311.00,0.0104
1310.00,0.0107
1309.00,0.0112
1308.00,0.0119
1307.00,0.0127
1306.00,0.0135
1305.00,0.0141
1304.00,0.0143
1303.00,0.0142
1302.00,0.0140
1301.00,0.0138
1300.00,0.0138
1299.00,0.0140
1298.00,0.0142
1297.00,0.0143
1296.00,0.0143
1295.00,0.0141
1294.00,0.0137
1293.00,0.0132
1292.00,0.0126
1291.00,0.0121
1290.00,0.0116
1289.00,0.0112
1288.00,0.0110
1287.00,0.0107
1286.00,0.0106
1285.00,0.0104
1284.00,0.0103
1283.00,0.0102
1282.00,0.0101
1281.00,0.0100
1280.00,0.0100
1279.00,0.0100
1278.00,0.0100
1277.00,0.0100
1276.00,0.0100
1275.00,0.0101
1274.00,0.0102
1273.00,0.0104
1272.00,0.0106
1271.00,0.0108
1270.00,0.0110
1269.00,0.0112
1268.00,0.0115
1267.00,0.0118
1266.00,0.0122
1265.00,0.0125
1264.00,0.0128
1263.00,0.0131
1262.00,0.0134
1261.00,0.0138
1260.00,0.0142
1259.00,0.0146
1258.00,0.0151
1257.00,0.0155
1256.00,0.0156
1255.00,0.0154
1254.00,0.0150
1253.00,0.0145
1252.00,0.0139
1251.00,0.0134
1250.00,0.0130
1249.00,0.0127
1248.00,0.0123
1247.00,0.0119
1246.00,0.0116
1245.00,0.0114
1244.00,0.0113
1243.00,0.0112
1242.00,0.0111
1241.00,0.0110
1240.00,0.0109
1239.00,0.0108
1238.00,0.0107
1237.00,0.0106
1236.00,0.0105
1235.00,0.0104
1234.00,0.0104
1233.00,0.0104
1232.00,0.0104
1231.00,0.0103
1230.00,0.0103
1229.00,0.0103
1228.00,0.0103
1227.00,0.0104
1226.00,0.0105
1225.00,0.0107
1224.00,0.0110
1223.00,0.0113
1222.00,0.0117
1221.00,0.0121
1220.00,0.0123
1219.00,0.0123
1218.00,0.0122
1217.00,0.0119
1216.00,0.0115
1215.00,0.0111
1214.00,0.0107
1213.00,0.0103
1212.00,0.0100
1211.00,0.0098
1210.00,0.0096
1209.00,0.0095
1208.00,0.0094
1207.00,0.0093
1206.00,0.0092
1205.00,0.0092
1204.00,0.0091
1203.00,0.0091
1202.00,0.0090
1201.00,0.0089
1200.00,0.0089
1199.00,0.0089
1198.00,0.0090
1197.00,0.0091
1196.00,0.0091
1195.00,0.0092
1194.00,0.0093
1193.00,0.0094
1192.00,0.0094
1191.00,0.0094
1190.00,0.0095
1189.00,0.0096
1188.00,0.0097
1187.00,0.0099
1186.00,0.0100
1185.00,0.0102
1184.00,0.0104
1183.00,0.0106
1182.00,0.0109
1181.00,0.0112
1180.00,0.0115
1179.00,0.0119
1178.00,0.0124
1177.00,0.0131
1176.00,0.0140
1175.00,0.0152
1174.00,0.0168
1173.00,0.0188
1172.00,0.0211
1171.00,0.0235
1170.00,0.0259
1169.00,0.0278
1168.00,0.0290
1167.00,0.0294
1166.00,0.0290
1165.00,0.0281
1164.00,0.0271
1163.00,0.0261
1162.00,0.0253
1161.00,0.0246
1160.00,0.0240
1159.00,0.0237
1158.00,0.0236
1157.00,0.0235
1156.00,0.0236
1155.00,0.0237
1154.00,0.0237
1153.00,0.0237
1152.00,0.0233
1151.00,0.0227
1150.00,0.0219
1149.00,0.0210
1148.00,0.0200
1147.00,0.0190
1146.00,0.0180
1145.00,0.0172
1144.00,0.0164
1143.00,0.0157
1142.00,0.0151
1141.00,0.0146
1140.00,0.0142
1139.00,0.0138
1138.00,0.0134
1137.00,0.0131
1136.00,0.0128
1135.00,0.0125
1134.00,0.0123
1133.00,0.0122
1132.00,0.0121
1131.00,0.0121
1130.00,0.0120
1129.00,0.0120
1128.00,0.0120
1127.00,0.0120
1126.00,0.0121
1125.00,0.0121
1124.00,0.0121
1123.00,0.0121
1122.00,0.0121
1121.00,0.0121
1120.00,0.0121
1119.00,0.0120
1118.00,0.0120
1117.00,0.0120
1116.00,0.0121
1115.00,0.0122
1114.00,0.0123
1113.00,0.0124
1112.00,0.0125
1111.00,0.0127
1110.00,0.0130
1109.00,0.0134
1108.00,0.0138
1107.00,0.0145
1106.00,0.0152
1105.00,0.0160
1104.00,0.0165
1103.00,0.0168
1102.00,0.0168
1101.00,0.0165
1100.00,0.0160
1099.00,0.0154
1098.00,0.0148
1097.00,0.0143
1096.00,0.0138
1095.00,0.0135
1094.00,0.0133
1093.00,0.0132
1092.00,0.0132
1091.00,0.0131
1090.00,0.0131
1089.00,0.0129
1088.00,0.0128
1087.00,0.0128
1086.00,0.0128
1085.00,0.0128
1084.00,0.0129
1083.00,0.0129
1082.00,0.0129
1081.00,0.0128
1080.00,0.0127
1079.00,0.0127
1078.00,0.0126
1077.00,0.0126
1076.00,0.0125
1075.00,0.0123
1074.00,0.0122
1073.00,0.0122
1072.00,0.0122
1071.00,0.0121
1070.00,0.0120
1069.00,0.0118
1068.00,0.0117
1067.00,0.0116
1066.00,0.0115
1065.00,0.0114
1064.00,0.0114
1063.00,0.0115
1062.00,0.0116
1061.00,0.0116
1060.00,0.0116
1059.00,0.0115
1058.00,0.0115
1057.00,0.0115
1056.00,0.0115
1055.00,0.0116
1054.00,0.0118
1053.00,0.0120
1052.00,0.0121
1051.00,0.0123
1050.00,0.0125
1049.00,0.0128
1048.00,0.0131
1047.00,0.0135
1046.00,0.0139
1045.00,0.0142
1044.00,0.0142
1043.00,0.0141
1042.00,0.0139
1041.00,0.0136
1040.00,0.0135
1039.00,0.0134
1038.00,0.0133
1037.00,0.0133
1036.00,0.0132
1035.00,0.0131
1034.00,0.0129
1033.00,0.0128
1032.00,0.0126
1031.00,0.0126
1030.00,0.0126
1029.00,0.0126
1028.00,0.0127
1027.00,0.0127
1026.00,0.0128
1025.00,0.0130
1024.00,0.0132
1023.00,0.0134
1022.00,0.0136
1021.00,0.0139
1020.00,0.0141
1019.00,0.0143
1018.00,0.0144
1017.00,0.0144
1016.00,0.0143
1015.00,0.0143
1014.00,0.0141
1013.00,0.0140
1012.00,0.0139
1011.00,0.0138
1010.00,0.0138
1009.00,0.0138
1008.00,0.0140
1007.00,0.0142
1006.00,0.0147
1005.00,0.0153
1004.00,0.0163
1003.00,0.0178
1002.00,0.0198
1001.00,0.0224
1000.00,0.0250
999.00,0.0271
998.00,0.0280
997.00,0.0273
996.00,0.0252
995.00,0.0224
994.00,0.0196
993.00,0.0171
992.00,0.0151
991.00,0.0137
990.00,0.0128
989.00,0.0121
988.00,0.0117
987.00,0.0116
986.00,0.0116
985.00,0.0118
984.00,0.0122
983.00,0.0128
982.00,0.0138
981.00,0.0152
980.00,0.0171
979.00,0.0195
978.00,0.0225
977.00,0.0260
976.00,0.0296
975.00,0.0329
974.00,0.0351
973.00,0.0358
972.00,0.0347
971.00,0.0320
970.00,0.0284
969.00,0.0248
968.00,0.0217
967.00,0.0193
966.00,0.0176
965.00,0.0163
964.00,0.0154
963.00,0.0147
962.00,0.0141
961.00,0.0137
960.00,0.0134
959.00,0.0133
958.00,0.0132
957.00,0.0131
956.00,0.0130
955.00,0.0128
954.00,0.0127
953.00,0.0126
952.00,0.0125
951.00,0.0123
950.00,0.0122
949.00,0.0121
948.00,0.0121
947.00,0.0120
946.00,0.0120
945.00,0.0122
944.00,0.0124
943.00,0.0128
942.00,0.0132
941.00,0.0135
940.00,0.0135
939.00,0.0132
938.00,0.0125
937.00,0.0117
936.00,0.0109
935.00,0.0103
934.00,0.0098
933.00,0.0094
932.00,0.0090
931.00,0.0087
930.00,0.0084
929.00,0.0082
928.00,0.0080
927.00,0.0079
926.00,0.0078
925.00,0.0076
924.00,0.0075
923.00,0.0073
922.00,0.0072
921.00,0.0072
920.00,0.0073
919.00,0.0073
918.00,0.0073
917.00,0.0073
916.00,0.0074
915.00,0.0074
914.00,0.0075
913.00,0.0077
912.00,0.0078
911.00,0.0080
910.00,0.0082
909.00,0.0084
908.00,0.0087
907.00,0.0091
906.00,0.0098
905.00,0.0108
904.00,0.0123
903.00,0.0143
902.00,0.0166
901.00,0.0187
900.00,0.0200
899.00,0.0200
898.00,0.0189
897.00,0.0169
896.00,0.0148
895.00,0.0128
894.00,0.0113
893.00,0.0102
892.00,0.0094
891.00,0.0089
890.00,0.0085
889.00,0.0083
888.00,0.0081
887.00,0.0079
886.00,0.0077
885.00,0.0076
884.00,0.0076
883.00,0.0076
882.00,0.0076
881.00,0.0077
880.00,0.0077
879.00,0.0078
878.00,0.0077
877.00,0.0077
876.00,0.0077
875.00,0.0078
874.00,0.0079
873.00,0.0080
872.00,0.0081
871.00,0.0082
870.00,0.0082
869.00,0.0081
868.00,0.0081
867.00,0.0083
866.00,0.0084
865.00,0.0085
864.00,0.0085
863.00,0.0085
862.00,0.0086
861.00,0.0087
860.00,0.0089
859.00,0.0091
858.00,0.0093
857.00,0.0095
856.00,0.0096
855.00,0.0097
854.00,0.0097
853.00,0.0097
852.00,0.0098
851.00,0.0100
850.00,0.0103
849.00,0.0107
848.00,0.0114
847.00,0.0123
846.00,0.0137
845.00,0.0159
844.00,0.0190
843.00,0.0224
842.00,0.0252
841.00,0.0261
840.00,0.0245
839.00,0.0213
838.00,0.0179
837.00,0.0152
836.00,0.0135
835.00,0.0125
834.00,0.0120
833.00,0.0117
832.00,0.0115
831.00,0.0113
830.00,0.0111
829.00,0.0109
828.00,0.0108
827.00,0.0107
826.00,0.0107
825.00,0.0108
824.00,0.0110
823.00,0.0111
822.00,0.0113
821.00,0.0115
820.00,0.0118
819.00,0.0122
818.00,0.0127
817.00,0.0134
816.00,0.0143
815.00,0.0155
814.00,0.0171
813.00,0.0192
812.00,0.0216
811.00,0.0239
810.00,0.0255
809.00,0.0261
808.00,0.0255
807.00,0.0240
806.00,0.0220
805.00,0.0199
804.00,0.0181
803.00,0.0166
802.00,0.0153
801.00,0.0144
800.00,0.0136
799.00,0.0129
798.00,0.0123
797.00,0.0117
796.00,0.0112
795.00,0.0109
794.00,0.0106
793.00,0.0104
792.00,0.0100
791.00,0.0097
790.00,0.0093
789.00,0.0090
788.00,0.0088
787.00,0.0085
786.00,0.0084
785.00,0.0082
784.00,0.0080
783.00,0.0077
782.00,0.0075
781.00,0.0073
780.00,0.0072
779.00,0.0073
778.00,0.0076
777.00,0.0077
776.00,0.0077
775.00,0.0077
774.00,0.0077
773.00,0.0078
772.00,0.0077
771.00,0.0076
770.00,0.0075
769.00,0.0074
768.00,0.0074
767.00,0.0074
766.00,0.0075
765.00,0.0075
764.00,0.0076
763.00,0.0076
762.00,0.0077
761.00,0.0079
760.00,0.0080
759.00,0.0080
758.00,0.0080
757.00,0.0081
756.00,0.0083
755.00,0.0084
754.00,0.0085
753.00,0.0086
752.00,0.0086
751.00,0.0086
750.00,0.0086
749.00,0.0087
748.00,0.0089
747.00,0.0091
746.00,0.0093
745.00,0.0095
744.00,0.0097
743.00,0.0100
742.00,0.0103
741.00,0.0106
740.00,0.0108
739.00,0.0110
738.00,0.0112
737.00,0.0115
736.00,0.0120
735.00,0.0125
734.00,0.0131
733.00,0.0138
732.00,0.0147
731.00,0.0155
730.00,0.0161
729.00,0.0164
728.00,0.0164
727.00,0.0163
726.00,0.0164
725.00,0.0166
724.00,0.0170
723.00,0.0176
722.00,0.0181
721.00,0.0185
720.00,0.0184
719.00,0.0178
718.00,0.0168
717.00,0.0155
716.00,0.0144
715.00,0.0135
714.00,0.0129
713.00,0.0125
712.00,0.0122
711.00,0.0119
710.00,0.0118
709.00,0.0117
708.00,0.0116
707.00,0.0115
706.00,0.0115
705.00,0.0114
704.00,0.0112
703.00,0.0110
702.00,0.0108
701.00,0.0107
700.00,0.0106
699.00,0.0107
698.00,0.0108
697.00,0.0109
696.00,0.0109
695.00,0.0108
694.00,0.0106
693.00,0.0106
692.00,0.0106
691.00,0.0107
690.00,0.0108
689.00,0.0108
688.00,0.0108
687.00,0.0107
686.00,0.0106
685.00,0.0105
684.00,0.0105
683.00,0.0107
682.00,0.0108
681.00,0.0109
680.00,0.0109
679.00,0.0108
678.00,0.0107
677.00,0.0107
676.00,0.0108
675.00,0.0109
674.00,0.0110
673.00,0.0111
672.00,0.0112
671.00,0.0114
670.00,0.0115
669.00,0.0115
668.00,0.0113
667.00,0.0111
666.00,0.0109
665.00,0.0107
664.00,0.0106
663.00,0.0105
662.00,0.0103
661.00,0.0101
660.00,0.0100
659.00,0.0099
658.00,0.0099
657.00,0.0099
656.00,0.0099
655.00,0.0099
654.00,0.0099
653.00,0.0098
652.00,0.0096
651.00,0.0095
650.00,0.0094
649.00,0.0094
648.00,0.0092
647.00,0.0091
646.00,0.0092
645.00,0.0093
644.00,0.0095
643.00,0.0095
642.00,0.0096
641.00,0.0097
640.00,0.0099
639.00,0.0100
638.00,0.0099
637.00,0.0098
636.00,0.0097
635.00,0.0097
634.00,0.0098
633.00,0.0099
632.00,0.0099
631.00,0.0099
630.00,0.0098
629.00,0.0096
628.00,0.0095
627.00,0.0094
626.00,0.0093
625.00,0.0093
624.00,0.0092
623.00,0.0094
622.00,0.0096
621.00,0.0097
620.00,0.0097
619.00,0.0096
618.00,0.0094
617.00,0.0092
616.00,0.0091
615.00,0.0090
614.00,0.0091
613.00,0.0091
612.00,0.0090
611.00,0.0089
610.00,0.0089
609.00,0.0091
608.00,0.0093
607.00,0.0095
606.00,0.0097
605.00,0.0097
604.00,0.0097
603.00,0.0097
602.00,0.0096
601.00,0.0094
600.00,0.0091
599.00,0.0088
598.00,0.0088
597.00,0.0090
596.00,0.0092
595.00,0.0095
594.00,0.0097
593.00,0.0097
592.00,0.0095
591.00,0.0092
590.00,0.0090
589.00,0.0089
588.00,0.0089
587.00,0.0090
586.00,0.0091
585.00,0.0092
584.00,0.0093
583.00,0.0094
582.00,0.0095
581.00,0.0098
580.00,0.0100
579.00,0.0100
578.00,0.0099
577.00,0.0098
576.00,0.0097
575.00,0.0097
574.00,0.0096
573.00,0.0095
572.00,0.0096
571.00,0.0097
570.00,0.0099
569.00,0.0099
568.00,0.0098
567.00,0.0095
566.00,0.0090
565.00,0.0086
564.00,0.0083
563.00,0.0083
562.00,0.0085
561.00,0.0086
560.00,0.0088
559.00,0.0089
558.00,0.0090
557.00,0.0091
556.00,0.0091
555.00,0.0093
554.00,0.0096
553.00,0.0101
552.00,0.0103
551.00,0.0104
550.00,0.0103
549.00,0.0102
548.00,0.0102
547.00,0.0103
546.00,0.0103
545.00,0.0103
544.00,0.0102
543.00,0.0101
542.00,0.0101
541.00,0.0102
540.00,0.0107
539.00,0.0112
538.00,0.0118
537.00,0.0121
536.00,0.0123
535.00,0.0124
534.00,0.0125
533.00,0.0125
532.00,0.0126
531.00,0.0126
530.00,0.0126
529.00,0.0124
528.00,0.0122
527.00,0.0120
526.00,0.0118
525.00,0.0115
524.00,0.0109
523.00,0.0103
522.00,0.0100
521.00,0.0100
520.00,0.0100
519.00,0.0099
518.00,0.0098
517.00,0.0098
516.00,0.0101
515.00,0.0104
514.00,0.0105
513.00,0.0103
512.00,0.0100
511.00,0.0097
510.00,0.0095
509.00,0.0093
508.00,0.0093
507.00,0.0094
506.00,0.0095
505.00,0.0093
504.00,0.0091
503.00,0.0091
502.00,0.0093
501.00,0.0095
500.00,0.0095
499.00,0.0093
498.00,0.0090
497.00,0.0088
496.00,0.0088
495.00,0.0089
494.00,0.0091
493.00,0.0096
492.00,0.0102
491.00,0.0107
490.00,0.0107
489.00,0.0103
488.00,0.0103
487.00,0.0107
486.00,0.0113
485.00,0.0115
484.00,0.0111
483.00,0.0106
482.00,0.0102
481.00,0.0101
480.00,0.0103
479.00,0.0108
478.00,0.0114
477.00,0.0117
476.00,0.0121
475.00,0.0130
474.00,0.0140
473.00,0.0145
472.00,0.0143
471.00,0.0138
470.00,0.0140
469.00,0.0148
468.00,0.0158
467.00,0.0164
466.00,0.0163
465.00,0.0157
464.00,0.0154
463.00,0.0159
462.00,0.0176
461.00,0.0195
460.00,0.0212
459.00,0.0224
458.00,0.0229
457.00,0.0227
456.00,0.0220
455.00,0.0213
454.00,0.0203
453.00,0.0190
452.00,0.0173
451.00,0.0159
450.00,0.0147
