Created as New Dataset,Sample 030 By Administrator Date Thursday, September 04 2025
cm-1,A
4000.00,0.0012
3999.00,0.0013
3998.00,0.0013
3997.00,0.0013
3996.00,0.0013
3995.00,0.0012
3994.00,0.0012
3993.00,0.0012
3992.00,0.0012
3991.00,0.0012
3990.00,0.0012
3989.00,0.0012
3988.00,0.0012
3987.00,0.0012
3986.00,0.0012
3985.00,0.0012
3984.00,0.0012
3983.00,0.0011
3982.00,0.0011
3981.00,0.0011
3980.00,0.0011
3979.00,0.0011
3978.00,0.0011
3977.00,0.0011
3976.00,0.0011
3975.00,0.0010
3974.00,0.0010
3973.00,0.0010
3972.00,0.0010
3971.00,0.0010
3970.00,0.0011
3969.00,0.0011
3968.00,0.0011
3967.00,0.0010
3966.00,0.0010
3965.00,0.0010
3964.00,0.0010
3963.00,0.0010
3962.00,0.0010
3961.00,0.0010
3960.00,0.0010
3959.00,0.0010
3958.00,0.0010
3957.00,0.0011
3956.00,0.0011
3955.00,0.0011
3954.00,0.0011
3953.00,0.0011
3952.00,0.0010
3951.00,0.0010
3950.00,0.0010
3949.00,0.0009
3948.00,0.0010
3947.00,0.0010
3946.00,0.0010
3945.00,0.0010
3944.00,0.0010
3943.00,0.0010
3942.00,0.0010
3941.00,0.0010
3940.00,0.0010
3939.00,0.0010
3938.00,0.0010
3937.00,0.0010
3936.00,0.0011
3935.00,0.0011
3934.00,0.0011
3933.00,0.0011
3932.00,0.0011
3931.00,0.0011
3930.00,0.0011
3929.00,0.0011
3928.00,0.0011
3927.00,0.0012
3926.00,0.0012
3925.00,0.0012
3924.00,0.0011
3923.00,0.0011
3922.00,0.0011
3921.00,0.0010
3920.00,0.0010
3919.00,0.0010
3918.00,0.0010
3917.00,0.0011
3916.00,0.0011
3915.00,0.0011
3914.00,0.0011
3913.00,0.0010
3912.00,0.0010
3911.00,0.0010
3910.00,0.0010
3909.00,0.0010
3908.00,0.0011
3907.00,0.0011
3906.00,0.0011
3905.00,0.0011
3904.00,0.0011
3903.00,0.0011
3902.00,0.0011
3901.00,0.0010
3900.00,0.0010
3899.00,0.0010
3898.00,0.0010
3897.00,0.0010
3896.00,0.0010
3895.00,0.0010
3894.00,0.0010
3893.00,0.0010
3892.00,0.0010
3891.00,0.0010
3890.00,0.0011
3889.00,0.0011
3888.00,0.0010
3887.00,0.0010
3886.00,0.0010
3885.00,0.0010
3884.00,0.0010
3883.00,0.0010
3882.00,0.0011
3881.00,0.0011
3880.00,0.0011
3879.00,0.0011
3878.00,0.0011
3877.00,0.0011
3876.00,0.0011
3875.00,0.0011
3874.00,0.0011
3873.00,0.0011
3872.00,0.0011
3871.00,0.0011
3870.00,0.0011
3869.00,0.0011
3868.00,0.0011
3867.00,0.0010
3866.00,0.0010
3865.00,0.0010
3864.00,0.0010
3863.00,0.0010
3862.00,0.0010
3861.00,0.0010
3860.00,0.0010
3859.00,0.0010
3858.00,0.0010
3857.00,0.0010
3856.00,0.0009
3855.00,0.0009
3854.00,0.0009
3853.00,0.0009
3852.00,0.0009
3851.00,0.0009
3850.00,0.0008
3849.00,0.0008
3848.00,0.0008
3847.00,0.0008
3846.00,0.0009
3845.00,0.0010
3844.00,0.0010
3843.00,0.0011
3842.00,0.0011
3841.00,0.0011
3840.00,0.0011
3839.00,0.0010
3838.00,0.0010
3837.00,0.0009
3836.00,0.0009
3835.00,0.0009
3834.00,0.0009
3833.00,0.0009
3832.00,0.0009
3831.00,0.0009
3830.00,0.0010
3829.00,0.0010
3828.00,0.0009
3827.00,0.0009
3826.00,0.0010
3825.00,0.0010
3824.00,0.0010
3823.00,0.0011
3822.00,0.0010
3821.00,0.0010
3820.00,0.0010
3819.00,0.0010
3818.00,0.0010
3817.00,0.0010
3816.00,0.0009
3815.00,0.0009
3814.00,0.0009
3813.00,0.0010
3812.00,0.0010
3811.00,0.0010
3810.00,0.0010
3809.00,0.0011
3808.00,0.0010
3807.00,0.0010
3806.00,0.0010
3805.00,0.0010
3804.00,0.0010
3803.00,0.0009
3802.00,0.0009
3801.00,0.0009
3800.00,0.0009
3799.00,0.0009
3798.00,0.0009
3797.00,0.0009
3796.00,0.0010
3795.00,0.0010
3794.00,0.0010
3793.00,0.0010
3792.00,0.0010
3791.00,0.0010
3790.00,0.0010
3789.00,0.0010
3788.00,0.0010
3787.00,0.0010
3786.00,0.0010
3785.00,0.0010
3784.00,0.0010
3783.00,0.0010
3782.00,0.0010
3781.00,0.0011
3780.00,0.0011
3779.00,0.0010
3778.00,0.0010
3777.00,0.0010
3776.00,0.0009
3775.00,0.0009
3774.00,0.0009
3773.00,0.0010
3772.00,0.0011
3771.00,0.0011
3770.00,0.0012
3769.00,0.0012
3768.00,0.0011
3767.00,0.0011
3766.00,0.0010
3765.00,0.0010
3764.00,0.0010
3763.00,0.0010
3762.00,0.0010
3761.00,0.0010
3760.00,0.0010
3759.00,0.0010
3758.00,0.0010
3757.00,0.0011
3756.00,0.0011
3755.00,0.0012
3754.00,0.0012
3753.00,0.0013
3752.00,0.0013
3751.00,0.0013
3750.00,0.0013
3749.00,0.0012
3748.00,0.0012
3747.00,0.0012
3746.00,0.0012
3745.00,0.0011
3744.00,0.0011
3743.00,0.0011
3742.00,0.0011
3741.00,0.0010
3740.00,0.0010
3739.00,0.0010
3738.00,0.0010
3737.00,0.0010
3736.00,0.0009
3735.00,0.0008
3734.00,0.0008
3733.00,0.0007
3732.00,0.0006
3731.00,0.0006
3730.00,0.0006
3729.00,0.0006
3728.00,0.0006
3727.00,0.0007
3726.00,0.0007
3725.00,0.0007
3724.00,0.0007
3723.00,0.0007
3722.00,0.0007
3721.00,0.0007
3720.00,0.0007
3719.00,0.0008
3718.00,0.0008
3717.00,0.0008
3716.00,0.0008
3715.00,0.0009
3714.00,0.0009
3713.00,0.0009
3712.00,0.0009
3711.00,0.0009
3710.00,0.0009
3709.00,0.0009
3708.00,0.0008
3707.00,0.0008
3706.00,0.0007
3705.00,0.0007
3704.00,0.0007
3703.00,0.0007
3702.00,0.0007
3701.00,0.0008
3700.00,0.0008
3699.00,0.0008
3698.00,0.0008
3697.00,0.0008
3696.00,0.0008
3695.00,0.0008
3694.00,0.0008
3693.00,0.0009
3692.00,0.0008
3691.00,0.0008
3690.00,0.0008
3689.00,0.0008
3688.00,0.0008
3687.00,0.0008
3686.00,0.0008
3685.00,0.0008
3684.00,0.0007
3683.00,0.0007
3682.00,0.0007
3681.00,0.0008
3680.00,0.0008
3679.00,0.0009
3678.00,0.0009
3677.00,0.0009
3676.00,0.0009
3675.00,0.0008
3674.00,0.0007
3673.00,0.0006
3672.00,0.0006
3671.00,0.0006
3670.00,0.0005
3669.00,0.0005
3668.00,0.0005
3667.00,0.0005
3666.00,0.0005
3665.00,0.0005
3664.00,0.0006
3663.00,0.0006
3662.00,0.0006
3661.00,0.0006
3660.00,0.0006
3659.00,0.0006
3658.00,0.0006
3657.00,0.0007
3656.00,0.0007
3655.00,0.0007
3654.00,0.0008
3653.00,0.0008
3652.00,0.0008
3651.00,0.0008
3650.00,0.0008
3649.00,0.0008
3648.00,0.0007
3647.00,0.0007
3646.00,0.0007
3645.00,0.0007
3644.00,0.0006
3643.00,0.0006
3642.00,0.0006
3641.00,0.0006
3640.00,0.0006
3639.00,0.0007
3638.00,0.0007
3637.00,0.0007
3636.00,0.0007
3635.00,0.0007
3634.00,0.0007
3633.00,0.0007
3632.00,0.0007
3631.00,0.0007
3630.00,0.0007
3629.00,0.0007
3628.00,0.0007
3627.00,0.0007
3626.00,0.0007
3625.00,0.0007
3624.00,0.0007
3623.00,0.0007
3622.00,0.0007
3621.00,0.0007
3620.00,0.0007
3619.00,0.0007
3618.00,0.0007
3617.00,0.0006
3616.00,0.0006
3615.00,0.0006
3614.00,0.0007
3613.00,0.0007
3612.00,0.0007
3611.00,0.0007
3610.00,0.0007
3609.00,0.0007
3608.00,0.0007
3607.00,0.0008
3606.00,0.0008
3605.00,0.0008
3604.00,0.0008
3603.00,0.0007
3602.00,0.0007
3601.00,0.0007
3600.00,0.0008
3599.00,0.0008
3598.00,0.0008
3597.00,0.0008
3596.00,0.0008
3595.00,0.0008
3594.00,0.0008
3593.00,0.0008
3592.00,0.0008
3591.00,0.0008
3590.00,0.0008
3589.00,0.0008
3588.00,0.0008
3587.00,0.0008
3586.00,0.0008
3585.00,0.0007
3584.00,0.0007
3583.00,0.0007
3582.00,0.0007
3581.00,0.0008
3580.00,0.0008
3579.00,0.0008
3578.00,0.0008
3577.00,0.0008
3576.00,0.0009
3575.00,0.0009
3574.00,0.0010
3573.00,0.0010
3572.00,0.0010
3571.00,0.0010
3570.00,0.0009
3569.00,0.0009
3568.00,0.0009
3567.00,0.0010
3566.00,0.0010
3565.00,0.0010
3564.00,0.0011
3563.00,0.0011
3562.00,0.0011
3561.00,0.0011
3560.00,0.0010
3559.00,0.0010
3558.00,0.0010
3557.00,0.0010
3556.00,0.0010
3555.00,0.0011
3554.00,0.0011
3553.00,0.0011
3552.00,0.0011
3551.00,0.0011
3550.00,0.0011
3549.00,0.0011
3548.00,0.0011
3547.00,0.0012
3546.00,0.0012
3545.00,0.0012
3544.00,0.0012
3543.00,0.0013
3542.00,0.0013
3541.00,0.0013
3540.00,0.0013
3539.00,0.0013
3538.00,0.0012
3537.00,0.0012
3536.00,0.0012
3535.00,0.0013
3534.00,0.0013
3533.00,0.0013
3532.00,0.0013
3531.00,0.0013
3530.00,0.0013
3529.00,0.0014
3528.00,0.0014
3527.00,0.0014
3526.00,0.0014
3525.00,0.0014
3524.00,0.0014
3523.00,0.0014
3522.00,0.0015
3521.00,0.0014
3520.00,0.0014
3519.00,0.0014
3518.00,0.0014
3517.00,0.0014
3516.00,0.0014
3515.00,0.0014
3514.00,0.0014
3513.00,0.0014
3512.00,0.0014
3511.00,0.0014
3510.00,0.0014
3509.00,0.0014
3508.00,0.0015
3507.00,0.0015
3506.00,0.0015
3505.00,0.0015
3504.00,0.0015
3503.00,0.0015
3502.00,0.0015
3501.00,0.0016
3500.00,0.0016
3499.00,0.0016
3498.00,0.0016
3497.00,0.0016
3496.00,0.0016
3495.00,0.0016
3494.00,0.0017
3493.00,0.0017
3492.00,0.0017
3491.00,0.0017
3490.00,0.0017
3489.00,0.0016
3488.00,0.0016
3487.00,0.0016
3486.00,0.0016
3485.00,0.0016
3484.00,0.0016
3483.00,0.0016
3482.00,0.0017
3481.00,0.0017
3480.00,0.0017
3479.00,0.0018
3478.00,0.0018
3477.00,0.0018
3476.00,0.0018
3475.00,0.0018
3474.00,0.0018
3473.00,0.0018
3472.00,0.0018
3471.00,0.0018
3470.00,0.0018
3469.00,0.0018
3468.00,0.0018
3467.00,0.0018
3466.00,0.0019
3465.00,0.0019
3464.00,0.0019
3463.00,0.0018
3462.00,0.0018
3461.00,0.0018
3460.00,0.0018
3459.00,0.0018
3458.00,0.0018
3457.00,0.0018
3456.00,0.0019
3455.00,0.0019
3454.00,0.0019
3453.00,0.0019
3452.00,0.0020
3451.00,0.0019
3450.00,0.0019
3449.00,0.0019
3448.00,0.0019
3447.00,0.0020
3446.00,0.0020
3445.00,0.0020
3444.00,0.0021
3443.00,0.0021
3442.00,0.0021
3441.00,0.0021
3440.00,0.0021
3439.00,0.0021
3438.00,0.0021
3437.00,0.0020
3436.00,0.0021
3435.00,0.0021
3434.00,0.0022
3433.00,0.0022
3432.00,0.0022
3431.00,0.0022
3430.00,0.0022
3429.00,0.0022
3428.00,0.0022
3427.00,0.0022
3426.00,0.0022
3425.00,0.0022
3424.00,0.0023
3423.00,0.0023
3422.00,0.0023
3421.00,0.0023
3420.00,0.0023
3419.00,0.0023
3418.00,0.0022
3417.00,0.0022
3416.00,0.0022
3415.00,0.0022
3414.00,0.0022
3413.00,0.0022
3412.00,0.0022
3411.00,0.0023
3410.00,0.0023
3409.00,0.0023
3408.00,0.0023
3407.00,0.0023
3406.00,0.0023
3405.00,0.0023
3404.00,0.0023
3403.00,0.0022
3402.00,0.0022
3401.00,0.0022
3400.00,0.0022
3399.00,0.0022
3398.00,0.0022
3397.00,0.0023
3396.00,0.0023
3395.00,0.0022
3394.00,0.0022
3393.00,0.0021
3392.00,0.0021
3391.00,0.0021
3390.00,0.0021
3389.00,0.0021
3388.00,0.0022
3387.00,0.0022
3386.00,0.0022
3385.00,0.0023
3384.00,0.0023
3383.00,0.0023
3382.00,0.0023
3381.00,0.0022
3380.00,0.0022
3379.00,0.0022
3378.00,0.0022
3377.00,0.0022
3376.00,0.0022
3375.00,0.0023
3374.00,0.0023
3373.00,0.0023
3372.00,0.0023
3371.00,0.0023
3370.00,0.0023
3369.00,0.0023
3368.00,0.0023
3367.00,0.0023
3366.00,0.0023
3365.00,0.0023
3364.00,0.0023
3363.00,0.0023
3362.00,0.0023
3361.00,0.0023
3360.00,0.0023
3359.00,0.0023
3358.00,0.0023
3357.00,0.0023
3356.00,0.0023
3355.00,0.0023
3354.00,0.0023
3353.00,0.0023
3352.00,0.0024
3351.00,0.0024
3350.00,0.0024
3349.00,0.0024
3348.00,0.0024
3347.00,0.0024
3346.00,0.0024
3345.00,0.0024
3344.00,0.0024
3343.00,0.0024
3342.00,0.0023
3341.00,0.0023
3340.00,0.0022
3339.00,0.0022
3338.00,0.0022
3337.00,0.0022
3336.00,0.0022
3335.00,0.0022
3334.00,0.0022
3333.00,0.0022
3332.00,0.0022
3331.00,0.0022
3330.00,0.0021
3329.00,0.0021
3328.00,0.0022
3327.00,0.0022
3326.00,0.0022
3325.00,0.0022
3324.00,0.0022
3323.00,0.0021
3322.00,0.0021
3321.00,0.0021
3320.00,0.0021
3319.00,0.0021
3318.00,0.0021
3317.00,0.0021
3316.00,0.0021
3315.00,0.0021
3314.00,0.0021
3313.00,0.0022
3312.00,0.0022
3311.00,0.0022
3310.00,0.0022
3309.00,0.0022
3308.00,0.0022
3307.00,0.0022
3306.00,0.0022
3305.00,0.0022
3304.00,0.0022
3303.00,0.0022
3302.00,0.0022
3301.00,0.0023
3300.00,0.0023
3299.00,0.0023
3298.00,0.0023
3297.00,0.0022
3296.00,0.0022
3295.00,0.0022
3294.00,0.0022
3293.00,0.0022
3292.00,0.0022
3291.00,0.0022
3290.00,0.0022
3289.00,0.0022
3288.00,0.0022
3287.00,0.0022
3286.00,0.0021
3285.00,0.0021
3284.00,0.0021
3283.00,0.0021
3282.00,0.0021
3281.00,0.0022
3280.00,0.0022
3279.00,0.0021
3278.00,0.0021
3277.00,0.0021
3276.00,0.0021
3275.00,0.0020
3274.00,0.0020
3273.00,0.0020
3272.00,0.0020
3271.00,0.0020
3270.00,0.0020
3269.00,0.0020
3268.00,0.0020
3267.00,0.0020
3266.00,0.0019
3265.00,0.0019
3264.00,0.0020
3263.00,0.0020
3262.00,0.0020
3261.00,0.0020
3260.00,0.0020
3259.00,0.0020
3258.00,0.0019
3257.00,0.0019
3256.00,0.0019
3255.00,0.0019
3254.00,0.0019
3253.00,0.0018
3252.00,0.0018
3251.00,0.0018
3250.00,0.0017
3249.00,0.0017
3248.00,0.0018
3247.00,0.0018
3246.00,0.0018
3245.00,0.0018
3244.00,0.0018
3243.00,0.0019
3242.00,0.0019
3241.00,0.0019
3240.00,0.0018
3239.00,0.0018
3238.00,0.0018
3237.00,0.0018
3236.00,0.0018
3235.00,0.0019
3234.00,0.0019
3233.00,0.0019
3232.00,0.0019
3231.00,0.0020
3230.00,0.0020
3229.00,0.0020
3228.00,0.0020
3227.00,0.0020
3226.00,0.0020
3225.00,0.0021
3224.00,0.0021
3223.00,0.0021
3222.00,0.0021
3221.00,0.0021
3220.00,0.0022
3219.00,0.0022
3218.00,0.0023
3217.00,0.0023
3216.00,0.0023
3215.00,0.0024
3214.00,0.0024
3213.00,0.0024
3212.00,0.0024
3211.00,0.0024
3210.00,0.0024
3209.00,0.0024
3208.00,0.0024
3207.00,0.0024
3206.00,0.0024
3205.00,0.0025
3204.00,0.0025
3203.00,0.0025
3202.00,0.0025
3201.00,0.0025
3200.00,0.0025
3199.00,0.0025
3198.00,0.0025
3197.00,0.0025
3196.00,0.0025
3195.00,0.0025
3194.00,0.0025
3193.00,0.0025
3192.00,0.0025
3191.00,0.0025
3190.00,0.0025
3189.00,0.0025
3188.00,0.0024
3187.00,0.0024
3186.00,0.0024
3185.00,0.0023
3184.00,0.0023
3183.00,0.0023
3182.00,0.0023
3181.00,0.0023
3180.00,0.0023
3179.00,0.0023
3178.00,0.0022
3177.00,0.0022
3176.00,0.0022
3175.00,0.0022
3174.00,0.0022
3173.00,0.0022
3172.00,0.0022
3171.00,0.0022
3170.00,0.0022
3169.00,0.0022
3168.00,0.0022
3167.00,0.0023
3166.00,0.0023
3165.00,0.0023
3164.00,0.0023
3163.00,0.0023
3162.00,0.0023
3161.00,0.0023
3160.00,0.0023
3159.00,0.0022
3158.00,0.0022
3157.00,0.0023
3156.00,0.0023
3155.00,0.0023
3154.00,0.0023
3153.00,0.0023
3152.00,0.0023
3151.00,0.0023
3150.00,0.0023
3149.00,0.0023
3148.00,0.0023
3147.00,0.0023
3146.00,0.0023
3145.00,0.0023
3144.00,0.0023
3143.00,0.0023
3142.00,0.0023
3141.00,0.0023
3140.00,0.0023
3139.00,0.0023
3138.00,0.0023
3137.00,0.0023
3136.00,0.0023
3135.00,0.0023
3134.00,0.0022
3133.00,0.0022
3132.00,0.0022
3131.00,0.0022
3130.00,0.0021
3129.00,0.0021
3128.00,0.0022
3127.00,0.0022
3126.00,0.0022
3125.00,0.0022
3124.00,0.0022
3123.00,0.0021
3122.00,0.0020
3121.00,0.0020
3120.00,0.0020
3119.00,0.0020
3118.00,0.0020
3117.00,0.0020
3116.00,0.0019
3115.00,0.0019
3114.00,0.0019
3113.00,0.0019
3112.00,0.0019
3111.00,0.0019
3110.00,0.0019
3109.00,0.0019
3108.00,0.0019
3107.00,0.0019
3106.00,0.0019
3105.00,0.0018
3104.00,0.0018
3103.00,0.0018
3102.00,0.0019
3101.00,0.0019
3100.00,0.0019
3099.00,0.0019
3098.00,0.0019
3097.00,0.0019
3096.00,0.0019
3095.00,0.0019
3094.00,0.0019
3093.00,0.0019
3092.00,0.0019
3091.00,0.0019
3090.00,0.0019
3089.00,0.0019
3088.00,0.0018
3087.00,0.0018
3086.00,0.0018
3085.00,0.0019
3084.00,0.0019
3083.00,0.0019
3082.00,0.0019
3081.00,0.0019
3080.00,0.0019
3079.00,0.0020
3078.00,0.0020
3077.00,0.0020
3076.00,0.0020
3075.00,0.0020
3074.00,0.0020
3073.00,0.0020
3072.00,0.0021
3071.00,0.0021
3070.00,0.0021
3069.00,0.0021
3068.00,0.0021
3067.00,0.0021
3066.00,0.0021
3065.00,0.0021
3064.00,0.0021
3063.00,0.0022
3062.00,0.0022
3061.00,0.0023
3060.00,0.0023
3059.00,0.0023
3058.00,0.0023
3057.00,0.0023
3056.00,0.0023
3055.00,0.0023
3054.00,0.0024
3053.00,0.0024
3052.00,0.0025
3051.00,0.0025
3050.00,0.0025
3049.00,0.0025
3048.00,0.0025
3047.00,0.0025
3046.00,0.0025
3045.00,0.0026
3044.00,0.0026
3043.00,0.0026
3042.00,0.0026
3041.00,0.0026
3040.00,0.0027
3039.00,0.0027
3038.00,0.0027
3037.00,0.0027
3036.00,0.0028
3035.00,0.0029
3034.00,0.0029
3033.00,0.0029
3032.00,0.0030
3031.00,0.0030
3030.00,0.0030
3029.00,0.0030
3028.00,0.0031
3027.00,0.0031
3026.00,0.0032
3025.00,0.0032
3024.00,0.0032
3023.00,0.0032
3022.00,0.0033
3021.00,0.0034
3020.00,0.0036
3019.00,0.0037
3018.00,0.0038
3017.00,0.0039
3016.00,0.0040
3015.00,0.0041
3014.00,0.0042
3013.00,0.0043
3012.00,0.0044
3011.00,0.0045
3010.00,0.0046
3009.00,0.0048
3008.00,0.0049
3007.00,0.0051
3006.00,0.0052
3005.00,0.0054
3004.00,0.0056
3003.00,0.0058
3002.00,0.0060
3001.00,0.0062
3000.00,0.0064
2999.00,0.0067
2998.00,0.0070
2997.00,0.0073
2996.00,0.0077
2995.00,0.0081
2994.00,0.0085
2993.00,0.0089
2992.00,0.0094
2991.00,0.0100
2990.00,0.0106
2989.00,0.0113
2988.00,0.0121
2987.00,0.0129
2986.00,0.0138
2985.00,0.0148
2984.00,0.0159
2983.00,0.0172
2982.00,0.0186
2981.00,0.0202
2980.00,0.0221
2979.00,0.0242
2978.00,0.0266
2977.00,0.0293
2976.00,0.0325
2975.00,0.0360
2974.00,0.0401
2973.00,0.0446
2972.00,0.0498
2971.00,0.0555
2970.00,0.0619
2969.00,0.0687
2968.00,0.0761
2967.00,0.0838
2966.00,0.0918
2965.00,0.0997
2964.00,0.1073
2963.00,0.1142
2962.00,0.1201
2961.00,0.1251
2960.00,0.1295
2959.00,0.1336
2958.00,0.1381
2957.00,0.1434
2956.00,0.1501
2955.00,0.1581
2954.00,0.1672
2953.00,0.1766
2952.00,0.1853
2951.00,0.1918
2950.00,0.1949
2949.00,0.1935
2948.00,0.1875
2947.00,0.1774
2946.00,0.1647
2945.00,0.1510
2944.00,0.1379
2943.00,0.1266
2942.00,0.1177
2941.00,0.1115
2940.00,0.1080
2939.00,0.1068
2938.00,0.1078
2937.00,0.1107
2936.00,0.1153
2935.00,0.1215
2934.00,0.1292
2933.00,0.1384
2932.00,0.1488
2931.00,0.1602
2930.00,0.1723
2929.00,0.1848
2928.00,0.1974
2927.00,0.2099
2926.00,0.2221
2925.00,0.2341
2924.00,0.2460
2923.00,0.2579
2922.00,0.2698
2921.00,0.2815
2920.00,0.2921
2919.00,0.3005
2918.00,0.3051
2917.00,0.3050
2916.00,0.2999
2915.00,0.2906
2914.00,0.2786
2913.00,0.2653
2912.00,0.2520
2911.00,0.2397
2910.00,0.2286
2909.00,0.2186
2908.00,0.2096
2907.00,0.2012
2906.00,0.1930
2905.00,0.1851
2904.00,0.1773
2903.00,0.1697
2902.00,0.1624
2901.00,0.1554
2900.00,0.1487
2899.00,0.1425
2898.00,0.1366
2897.00,0.1313
2896.00,0.1265
2895.00,0.1224
2894.00,0.1189
2893.00,0.1160
2892.00,0.1138
2891.00,0.1122
2890.00,0.1111
2889.00,0.1104
2888.00,0.1102
2887.00,0.1104
2886.00,0.1109
2885.00,0.1118
2884.00,0.1131
2883.00,0.1149
2882.00,0.1173
2881.00,0.1199
2880.00,0.1226
2879.00,0.1249
2878.00,0.1264
2877.00,0.1268
2876.00,0.1265
2875.00,0.1257
2874.00,0.1250
2873.00,0.1248
2872.00,0.1256
2871.00,0.1271
2870.00,0.1292
2869.00,0.1314
2868.00,0.1327
2867.00,0.1324
2866.00,0.1297
2865.00,0.1245
2864.00,0.1171
2863.00,0.1085
2862.00,0.0999
2861.00,0.0923
2860.00,0.0863
2859.00,0.0820
2858.00,0.0793
2857.00,0.0781
2856.00,0.0781
2855.00,0.0790
2854.00,0.0805
2853.00,0.0824
2852.00,0.0844
2851.00,0.0863
2850.00,0.0879
2849.00,0.0892
2848.00,0.0905
2847.00,0.0921
2846.00,0.0945
2845.00,0.0979
2844.00,0.1023
2843.00,0.1076
2842.00,0.1131
2841.00,0.1182
2840.00,0.1222
2839.00,0.1242
2838.00,0.1236
2837.00,0.1199
2836.00,0.1133
2835.00,0.1042
2834.00,0.0936
2833.00,0.0827
2832.00,0.0723
2831.00,0.0632
2830.00,0.0554
2829.00,0.0490
2828.00,0.0438
2827.00,0.0396
2826.00,0.0362
2825.00,0.0334
2824.00,0.0311
2823.00,0.0291
2822.00,0.0274
2821.00,0.0260
2820.00,0.0247
2819.00,0.0236
2818.00,0.0227
2817.00,0.0218
2816.00,0.0210
2815.00,0.0204
2814.00,0.0197
2813.00,0.0191
2812.00,0.0185
2811.00,0.0180
2810.00,0.0174
2809.00,0.0168
2808.00,0.0162
2807.00,0.0155
2806.00,0.0148
2805.00,0.0142
2804.00,0.0135
2803.00,0.0129
2802.00,0.0124
2801.00,0.0119
2800.00,0.0115
2799.00,0.0112
2798.00,0.0109
2797.00,0.0106
2796.00,0.0104
2795.00,0.0102
2794.00,0.0099
2793.00,0.0097
2792.00,0.0094
2791.00,0.0091
2790.00,0.0088
2789.00,0.0085
2788.00,0.0082
2787.00,0.0079
2786.00,0.0077
2785.00,0.0074
2784.00,0.0072
2783.00,0.0070
2782.00,0.0068
2781.00,0.0066
2780.00,0.0064
2779.00,0.0063
2778.00,0.0061
2777.00,0.0060
2776.00,0.0059
2775.00,0.0058
2774.00,0.0057
2773.00,0.0057
2772.00,0.0056
2771.00,0.0056
2770.00,0.0055
2769.00,0.0055
2768.00,0.0054
2767.00,0.0054
2766.00,0.0054
2765.00,0.0053
2764.00,0.0053
2763.00,0.0053
2762.00,0.0053
2761.00,0.0052
2760.00,0.0052
2759.00,0.0052
2758.00,0.0051
2757.00,0.0051
2756.00,0.0051
2755.00,0.0051
2754.00,0.0051
2753.00,0.0051
2752.00,0.0050
2751.00,0.0050
2750.00,0.0050
2749.00,0.0050
2748.00,0.0050
2747.00,0.0051
2746.00,0.0051
2745.00,0.0052
2744.00,0.0052
2743.00,0.0053
2742.00,0.0054
2741.00,0.0055
2740.00,0.0057
2739.00,0.0058
2738.00,0.0059
2737.00,0.0060
2736.00,0.0062
2735.00,0.0063
2734.00,0.0065
2733.00,0.0067
2732.00,0.0069
2731.00,0.0071
2730.00,0.0074
2729.00,0.0076
2728.00,0.0079
2727.00,0.0082
2726.00,0.0085
2725.00,0.0087
2724.00,0.0089
2723.00,0.0089
2722.00,0.0088
2721.00,0.0086
2720.00,0.0084
2719.00,0.0081
2718.00,0.0078
2717.00,0.0074
2716.00,0.0071
2715.00,0.0067
2714.00,0.0065
2713.00,0.0062
2712.00,0.0060
2711.00,0.0058
2710.00,0.0056
2709.00,0.0055
2708.00,0.0054
2707.00,0.0053
2706.00,0.0052
2705.00,0.0050
2704.00,0.0049
2703.00,0.0048
2702.00,0.0047
2701.00,0.0046
2700.00,0.0045
2699.00,0.0044
2698.00,0.0044
2697.00,0.0044
2696.00,0.0044
2695.00,0.0044
2694.00,0.0044
2693.00,0.0044
2692.00,0.0044
2691.00,0.0044
2690.00,0.0044
2689.00,0.0044
2688.00,0.0044
2687.00,0.0044
2686.00,0.0044
2685.00,0.0044
2684.00,0.0044
2683.00,0.0044
2682.00,0.0044
2681.00,0.0044
2680.00,0.0045
2679.00,0.0045
2678.00,0.0046
2677.00,0.0046
2676.00,0.0046
2675.00,0.0045
2674.00,0.0045
2673.00,0.0045
2672.00,0.0044
2671.00,0.0044
2670.00,0.0044
2669.00,0.0045
2668.00,0.0045
2667.00,0.0045
2666.00,0.0045
2665.00,0.0046
2664.00,0.0046
2663.00,0.0047
2662.00,0.0048
2661.00,0.0048
2660.00,0.0049
2659.00,0.0049
2658.00,0.0049
2657.00,0.0048
2656.00,0.0048
2655.00,0.0047
2654.00,0.0047
2653.00,0.0046
2652.00,0.0046
2651.00,0.0045
2650.00,0.0045
2649.00,0.0044
2648.00,0.0044
2647.00,0.0044
2646.00,0.0043
2645.00,0.0042
2644.00,0.0041
2643.00,0.0041
2642.00,0.0040
2641.00,0.0039
2640.00,0.0039
2639.00,0.0039
2638.00,0.0039
2637.00,0.0039
2636.00,0.0039
2635.00,0.0039
2634.00,0.0039
2633.00,0.0039
2632.00,0.0039
2631.00,0.0039
2630.00,0.0039
2629.00,0.0039
2628.00,0.0039
2627.00,0.0039
2626.00,0.0039
2625.00,0.0040
2624.00,0.0040
2623.00,0.0040
2622.00,0.0040
2621.00,0.0040
2620.00,0.0040
2619.00,0.0040
2618.00,0.0040
2617.00,0.0040
2616.00,0.0040
2615.00,0.0040
2614.00,0.0040
2613.00,0.0040
2612.00,0.0040
2611.00,0.0039
2610.00,0.0038
2609.00,0.0037
2608.00,0.0036
2607.00,0.0035
2606.00,0.0035
2605.00,0.0034
2604.00,0.0033
2603.00,0.0033
2602.00,0.0032
2601.00,0.0032
2600.00,0.0032
2599.00,0.0032
2598.00,0.0032
2597.00,0.0032
2596.00,0.0032
2595.00,0.0032
2594.00,0.0032
2593.00,0.0033
2592.00,0.0033
2591.00,0.0034
2590.00,0.0035
2589.00,0.0036
2588.00,0.0037
2587.00,0.0038
2586.00,0.0040
2585.00,0.0041
2584.00,0.0041
2583.00,0.0041
2582.00,0.0041
2581.00,0.0040
2580.00,0.0039
2579.00,0.0038
2578.00,0.0037
2577.00,0.0035
2576.00,0.0034
2575.00,0.0034
2574.00,0.0033
2573.00,0.0032
2572.00,0.0031
2571.00,0.0030
2570.00,0.0029
2569.00,0.0028
2568.00,0.0028
2567.00,0.0027
2566.00,0.0027
2565.00,0.0026
2564.00,0.0026
2563.00,0.0026
2562.00,0.0025
2561.00,0.0025
2560.00,0.0025
2559.00,0.0024
2558.00,0.0024
2557.00,0.0023
2556.00,0.0023
2555.00,0.0023
2554.00,0.0023
2553.00,0.0023
2552.00,0.0022
2551.00,0.0022
2550.00,0.0021
2549.00,0.0021
2548.00,0.0021
2547.00,0.0020
2546.00,0.0019
2545.00,0.0019
2544.00,0.0019
2543.00,0.0019
2542.00,0.0019
2541.00,0.0019
2540.00,0.0018
2539.00,0.0018
2538.00,0.0017
2537.00,0.0016
2536.00,0.0015
2535.00,0.0015
2534.00,0.0015
2533.00,0.0015
2532.00,0.0015
2531.00,0.0014
2530.00,0.0014
2529.00,0.0014
2528.00,0.0014
2527.00,0.0014
2526.00,0.0014
2525.00,0.0014
2524.00,0.0014
2523.00,0.0013
2522.00,0.0013
2521.00,0.0012
2520.00,0.0012
2519.00,0.0012
2518.00,0.0012
2517.00,0.0013
2516.00,0.0013
2515.00,0.0013
2514.00,0.0013
2513.00,0.0012
2512.00,0.0011
2511.00,0.0011
2510.00,0.0010
2509.00,0.0011
2508.00,0.0011
2507.00,0.0011
2506.00,0.0011
2505.00,0.0011
2504.00,0.0011
2503.00,0.0010
2502.00,0.0010
2501.00,0.0010
2500.00,0.0010
2499.00,0.0010
2498.00,0.0010
2497.00,0.0010
2496.00,0.0010
2495.00,0.0011
2494.00,0.0011
2493.00,0.0011
2492.00,0.0011
2491.00,0.0010
2490.00,0.0010
2489.00,0.0009
2488.00,0.0009
2487.00,0.0009
2486.00,0.0009
2485.00,0.0009
2484.00,0.0009
2483.00,0.0009
2482.00,0.0009
2481.00,0.0009
2480.00,0.0009
2479.00,0.0009
2478.00,0.0009
2477.00,0.0009
2476.00,0.0009
2475.00,0.0009
2474.00,0.0009
2473.00,0.0009
2472.00,0.0010
2471.00,0.0010
2470.00,0.0010
2469.00,0.0010
2468.00,0.0010
2467.00,0.0010
2466.00,0.0010
2465.00,0.0010
2464.00,0.0010
2463.00,0.0010
2462.00,0.0011
2461.00,0.0011
2460.00,0.0011
2459.00,0.0010
2458.00,0.0010
2457.00,0.0010
2456.00,0.0010
2455.00,0.0010
2454.00,0.0010
2453.00,0.0009
2452.00,0.0010
2451.00,0.0010
2450.00,0.0010
2449.00,0.0011
2448.00,0.0012
2447.00,0.0012
2446.00,0.0012
2445.00,0.0011
2444.00,0.0010
2443.00,0.0010
2442.00,0.0010
2441.00,0.0010
2440.00,0.0010
2439.00,0.0010
2438.00,0.0010
2437.00,0.0010
2436.00,0.0010
2435.00,0.0010
2434.00,0.0010
2433.00,0.0010
2432.00,0.0011
2431.00,0.0011
2430.00,0.0010
2429.00,0.0010
2428.00,0.0010
2427.00,0.0010
2426.00,0.0010
2425.00,0.0010
2424.00,0.0010
2423.00,0.0010
2422.00,0.0009
2421.00,0.0010
2420.00,0.0010
2419.00,0.0010
2418.00,0.0010
2417.00,0.0010
2416.00,0.0010
2415.00,0.0010
2414.00,0.0009
2413.00,0.0009
2412.00,0.0009
2411.00,0.0010
2410.00,0.0010
2409.00,0.0010
2408.00,0.0009
2407.00,0.0009
2406.00,0.0008
2405.00,0.0008
2404.00,0.0008
2403.00,0.0009
2402.00,0.0009
2401.00,0.0009
2400.00,0.0009
2399.00,0.0008
2398.00,0.0007
2397.00,0.0007
2396.00,0.0007
2395.00,0.0007
2394.00,0.0007
2393.00,0.0007
2392.00,0.0007
2391.00,0.0007
2390.00,0.0007
2389.00,0.0007
2388.00,0.0007
2387.00,0.0007
2386.00,0.0007
2385.00,0.0006
2384.00,0.0005
2383.00,0.0005
2382.00,0.0004
2381.00,0.0003
2380.00,0.0003
2379.00,0.0002
2378.00,0.0002
2377.00,0.0002
2376.00,0.0003
2375.00,0.0003
2374.00,0.0002
2373.00,0.0002
2372.00,0.0001
2371.00,0.0000
2370.00,-0.0000
2369.00,-0.0001
2368.00,-0.0001
2367.00,0.0000
2366.00,0.0001
2365.00,0.0001
2364.00,0.0001
2363.00,0.0001
2362.00,0.0001
2361.00,0.0001
2360.00,0.0003
2359.00,0.0003
2358.00,0.0002
2357.00,0.0002
2356.00,0.0001
2355.00,0.0001
2354.00,0.0002
2353.00,0.0003
2352.00,0.0003
2351.00,0.0003
2350.00,0.0002
2349.00,0.0002
2348.00,0.0002
2347.00,0.0003
2346.00,0.0003
2345.00,0.0003
2344.00,0.0002
2343.00,0.0002
2342.00,0.0003
2341.00,0.0004
2340.00,0.0005
2339.00,0.0005
2338.00,0.0006
2337.00,0.0006
2336.00,0.0006
2335.00,0.0006
2334.00,0.0007
2333.00,0.0007
2332.00,0.0006
2331.00,0.0005
2330.00,0.0005
2329.00,0.0005
2328.00,0.0007
2327.00,0.0010
2326.00,0.0014
2325.00,0.0018
2324.00,0.0020
2323.00,0.0019
2322.00,0.0018
2321.00,0.0016
2320.00,0.0015
2319.00,0.0014
2318.00,0.0012
2317.00,0.0011
2316.00,0.0011
2315.00,0.0010
2314.00,0.0010
2313.00,0.0009
2312.00,0.0009
2311.00,0.0008
2310.00,0.0008
2309.00,0.0008
2308.00,0.0008
2307.00,0.0008
2306.00,0.0008
2305.00,0.0008
2304.00,0.0009
2303.00,0.0009
2302.00,0.0010
2301.00,0.0010
2300.00,0.0010
2299.00,0.0010
2298.00,0.0011
2297.00,0.0011
2296.00,0.0011
2295.00,0.0011
2294.00,0.0012
2293.00,0.0013
2292.00,0.0013
2291.00,0.0014
2290.00,0.0014
2289.00,0.0015
2288.00,0.0016
2287.00,0.0017
2286.00,0.0018
2285.00,0.0018
2284.00,0.0017
2283.00,0.0016
2282.00,0.0015
2281.00,0.0015
2280.00,0.0014
2279.00,0.0014
2278.00,0.0014
2277.00,0.0015
2276.00,0.0015
2275.00,0.0016
2274.00,0.0016
2273.00,0.0015
2272.00,0.0015
2271.00,0.0013
2270.00,0.0012
2269.00,0.0011
2268.00,0.0011
2267.00,0.0012
2266.00,0.0011
2265.00,0.0011
2264.00,0.0010
2263.00,0.0010
2262.00,0.0010
2261.00,0.0010
2260.00,0.0011
2259.00,0.0012
2258.00,0.0013
2257.00,0.0012
2256.00,0.0012
2255.00,0.0010
2254.00,0.0009
2253.00,0.0008
2252.00,0.0008
2251.00,0.0008
2250.00,0.0008
2249.00,0.0008
2248.00,0.0009
2247.00,0.0010
2246.00,0.0011
2245.00,0.0011
2244.00,0.0010
2243.00,0.0009
2242.00,0.0007
2241.00,0.0007
2240.00,0.0006
2239.00,0.0007
2238.00,0.0007
2237.00,0.0008
2236.00,0.0009
2235.00,0.0010
2234.00,0.0011
2233.00,0.0012
2232.00,0.0012
2231.00,0.0011
2230.00,0.0011
2229.00,0.0011
2228.00,0.0011
2227.00,0.0010
2226.00,0.0009
2225.00,0.0008
2224.00,0.0008
2223.00,0.0008
2222.00,0.0008
2221.00,0.0008
2220.00,0.0008
2219.00,0.0008
2218.00,0.0009
2217.00,0.0011
2216.00,0.0012
2215.00,0.0012
2214.00,0.0010
2213.00,0.0007
2212.00,0.0004
2211.00,0.0003
2210.00,0.0003
2209.00,0.0003
2208.00,0.0004
2207.00,0.0005
2206.00,0.0007
2205.00,0.0009
2204.00,0.0009
2203.00,0.0008
2202.00,0.0006
2201.00,0.0005
2200.00,0.0006
2199.00,0.0007
2198.00,0.0008
2197.00,0.0009
2196.00,0.0009
2195.00,0.0008
2194.00,0.0008
2193.00,0.0009
2192.00,0.0011
2191.00,0.0012
2190.00,0.0012
2189.00,0.0012
2188.00,0.0012
2187.00,0.0012
2186.00,0.0013
2185.00,0.0012
2184.00,0.0011
2183.00,0.0008
2182.00,0.0005
2181.00,0.0003
2180.00,0.0002
2179.00,0.0003
2178.00,0.0005
2177.00,0.0006
2176.00,0.0006
2175.00,0.0007
2174.00,0.0007
2173.00,0.0008
2172.00,0.0009
2171.00,0.0010
2170.00,0.0011
2169.00,0.0013
2168.00,0.0014
2167.00,0.0015
2166.00,0.0015
2165.00,0.0016
2164.00,0.0018
2163.00,0.0020
2162.00,0.0021
2161.00,0.0016
2160.00,0.0006
2159.00,-0.0006
2158.00,-0.0016
2157.00,-0.0021
2156.00,-0.0022
2155.00,-0.0021
2154.00,-0.0020
2153.00,-0.0017
2152.00,-0.0014
2151.00,-0.0012
2150.00,-0.0012
2149.00,-0.0013
2148.00,-0.0015
2147.00,-0.0017
2146.00,-0.0018
2145.00,-0.0018
2144.00,-0.0017
2143.00,-0.0015
2142.00,-0.0013
2141.00,-0.0011
2140.00,-0.0009
2139.00,-0.0008
2138.00,-0.0009
2137.00,-0.0011
2136.00,-0.0012
2135.00,-0.0014
2134.00,-0.0017
2133.00,-0.0019
2132.00,-0.0020
2131.00,-0.0019
2130.00,-0.0017
2129.00,-0.0014
2128.00,-0.0012
2127.00,-0.0010
2126.00,-0.0008
2125.00,-0.0006
2124.00,-0.0005
2123.00,-0.0004
2122.00,-0.0003
2121.00,-0.0002
2120.00,-0.0002
2119.00,-0.0002
2118.00,-0.0001
2117.00,-0.0001
2116.00,-0.0000
2115.00,-0.0000
2114.00,-0.0000
2113.00,-0.0000
2112.00,0.0000
2111.00,0.0000
2110.00,-0.0000
2109.00,-0.0001
2108.00,-0.0002
2107.00,-0.0002
2106.00,-0.0001
2105.00,-0.0000
2104.00,0.0001
2103.00,0.0002
2102.00,0.0003
2101.00,0.0003
2100.00,0.0002
2099.00,0.0001
2098.00,0.0000
2097.00,-0.0001
2096.00,-0.0003
2095.00,-0.0004
2094.00,-0.0005
2093.00,-0.0005
2092.00,-0.0005
2091.00,-0.0004
2090.00,-0.0003
2089.00,-0.0003
2088.00,-0.0002
2087.00,-0.0002
2086.00,-0.0001
2085.00,-0.0001
2084.00,-0.0000
2083.00,-0.0000
2082.00,0.0000
2081.00,0.0001
2080.00,0.0002
2079.00,0.0003
2078.00,0.0002
2077.00,-0.0000
2076.00,-0.0001
2075.00,-0.0002
2074.00,-0.0002
2073.00,-0.0002
2072.00,-0.0002
2071.00,-0.0002
2070.00,-0.0002
2069.00,-0.0000
2068.00,0.0001
2067.00,0.0001
2066.00,0.0001
2065.00,-0.0000
2064.00,-0.0001
2063.00,-0.0002
2062.00,-0.0001
2061.00,-0.0001
2060.00,-0.0000
2059.00,0.0000
2058.00,0.0000
2057.00,-0.0001
2056.00,-0.0002
2055.00,-0.0002
2054.00,0.0000
2053.00,0.0006
2052.00,0.0013
2051.00,0.0016
2050.00,0.0013
2049.00,0.0006
2048.00,0.0000
2047.00,-0.0001
2046.00,0.0002
2045.00,0.0005
2044.00,0.0008
2043.00,0.0007
2042.00,0.0005
2041.00,0.0002
2040.00,-0.0001
2039.00,-0.0002
2038.00,-0.0002
2037.00,-0.0002
2036.00,-0.0003
2035.00,-0.0004
2034.00,-0.0005
2033.00,-0.0007
2032.00,-0.0009
2031.00,-0.0011
2030.00,-0.0013
2029.00,-0.0013
2028.00,-0.0011
2027.00,-0.0009
2026.00,-0.0007
2025.00,-0.0006
2024.00,-0.0006
2023.00,-0.0008
2022.00,-0.0010
2021.00,-0.0010
2020.00,-0.0010
2019.00,-0.0010
2018.00,-0.0010
2017.00,-0.0011
2016.00,-0.0011
2015.00,-0.0011
2014.00,-0.0010
2013.00,-0.0009
2012.00,-0.0007
2011.00,-0.0006
2010.00,-0.0006
2009.00,-0.0008
2008.00,-0.0011
2007.00,-0.0014
2006.00,-0.0017
2005.00,-0.0018
2004.00,-0.0017
2003.00,-0.0016
2002.00,-0.0015
2001.00,-0.0014
2000.00,-0.0013
1999.00,-0.0011
1998.00,-0.0009
1997.00,-0.0009
1996.00,-0.0010
1995.00,-0.0012
1994.00,-0.0014
1993.00,-0.0013
1992.00,-0.0009
1991.00,-0.0006
1990.00,-0.0004
1989.00,-0.0005
1988.00,-0.0007
1987.00,-0.0007
1986.00,-0.0004
1985.00,0.0001
1984.00,0.0006
1983.00,0.0011
1982.00,0.0014
1981.00,0.0015
1980.00,0.0012
1979.00,0.0004
1978.00,-0.0006
1977.00,-0.0015
1976.00,-0.0021
1975.00,-0.0022
1974.00,-0.0021
1973.00,-0.0018
1972.00,-0.0015
1971.00,-0.0014
1970.00,-0.0015
1969.00,-0.0017
1968.00,-0.0018
1967.00,-0.0018
1966.00,-0.0017
1965.00,-0.0017
1964.00,-0.0017
1963.00,-0.0017
1962.00,-0.0017
1961.00,-0.0017
1960.00,-0.0017
1959.00,-0.0017
1958.00,-0.0016
1957.00,-0.0014
1956.00,-0.0013
1955.00,-0.0014
1954.00,-0.0016
1953.00,-0.0018
1952.00,-0.0019
1951.00,-0.0019
1950.00,-0.0018
1949.00,-0.0017
1948.00,-0.0017
1947.00,-0.0017
1946.00,-0.0017
1945.00,-0.0018
1944.00,-0.0018
1943.00,-0.0018
1942.00,-0.0017
1941.00,-0.0016
1940.00,-0.0015
1939.00,-0.0014
1938.00,-0.0013
1937.00,-0.0012
1936.00,-0.0012
1935.00,-0.0013
1934.00,-0.0012
1933.00,-0.0010
1932.00,-0.0009
1931.00,-0.0008
1930.00,-0.0009
1929.00,-0.0010
1928.00,-0.0010
1927.00,-0.0011
1926.00,-0.0010
1925.00,-0.0010
1924.00,-0.0008
1923.00,-0.0007
1922.00,-0.0006
1921.00,-0.0005
1920.00,-0.0004
1919.00,-0.0004
1918.00,-0.0004
1917.00,-0.0005
1916.00,-0.0005
1915.00,-0.0005
1914.00,-0.0005
1913.00,-0.0005
1912.00,-0.0004
1911.00,-0.0004
1910.00,-0.0004
1909.00,-0.0004
1908.00,-0.0002
1907.00,-0.0001
1906.00,-0.0000
1905.00,-0.0000
1904.00,-0.0001
1903.00,-0.0001
1902.00,-0.0002
1901.00,-0.0001
1900.00,-0.0001
1899.00,-0.0001
1898.00,-0.0002
1897.00,-0.0003
1896.00,-0.0004
1895.00,-0.0004
1894.00,-0.0003
1893.00,-0.0002
1892.00,-0.0001
1891.00,-0.0001
1890.00,-0.0001
1889.00,-0.0001
1888.00,-0.0001
1887.00,-0.0001
1886.00,-0.0001
1885.00,-0.0002
1884.00,-0.0002
1883.00,-0.0002
1882.00,-0.0002
1881.00,-0.0003
1880.00,-0.0004
1879.00,-0.0004
1878.00,-0.0003
1877.00,-0.0003
1876.00,-0.0003
1875.00,-0.0003
1874.00,-0.0003
1873.00,-0.0003
1872.00,-0.0002
1871.00,-0.0003
1870.00,-0.0004
1869.00,-0.0004
1868.00,-0.0004
1867.00,-0.0004
1866.00,-0.0004
1865.00,-0.0004
1864.00,-0.0003
1863.00,-0.0002
1862.00,-0.0001
1861.00,-0.0000
1860.00,0.0000
1859.00,0.0001
1858.00,0.0001
1857.00,0.0001
1856.00,0.0001
1855.00,0.0000
1854.00,0.0000
1853.00,-0.0000
1852.00,-0.0001
1851.00,-0.0001
1850.00,-0.0002
1849.00,-0.0001
1848.00,-0.0001
1847.00,-0.0001
1846.00,-0.0001
1845.00,-0.0002
1844.00,-0.0001
1843.00,-0.0001
1842.00,-0.0000
1841.00,-0.0001
1840.00,-0.0001
1839.00,-0.0001
1838.00,-0.0000
1837.00,0.0001
1836.00,0.0002
1835.00,0.0003
1834.00,0.0003
1833.00,0.0003
1832.00,0.0002
1831.00,0.0002
1830.00,0.0002
1829.00,0.0002
1828.00,0.0002
1827.00,0.0002
1826.00,0.0002
1825.00,0.0002
1824.00,0.0002
1823.00,0.0001
1822.00,0.0001
1821.00,0.0001
1820.00,0.0000
1819.00,-0.0000
1818.00,-0.0001
1817.00,-0.0002
1816.00,-0.0002
1815.00,-0.0002
1814.00,-0.0001
1813.00,0.0000
1812.00,0.0001
1811.00,0.0001
1810.00,0.0001
1809.00,0.0001
1808.00,0.0001
1807.00,0.0001
1806.00,0.0002
1805.00,0.0002
1804.00,0.0002
1803.00,0.0002
1802.00,0.0002
1801.00,0.0003
1800.00,0.0004
1799.00,0.0004
1798.00,0.0004
1797.00,0.0004
1796.00,0.0003
1795.00,0.0003
1794.00,0.0003
1793.00,0.0003
1792.00,0.0004
1791.00,0.0005
1790.00,0.0006
1789.00,0.0006
1788.00,0.0006
1787.00,0.0006
1786.00,0.0006
1785.00,0.0005
1784.00,0.0004
1783.00,0.0004
1782.00,0.0004
1781.00,0.0004
1780.00,0.0005
1779.00,0.0005
1778.00,0.0005
1777.00,0.0006
1776.00,0.0006
1775.00,0.0006
1774.00,0.0006
1773.00,0.0006
1772.00,0.0008
1771.00,0.0008
1770.00,0.0008
1769.00,0.0008
1768.00,0.0008
1767.00,0.0008
1766.00,0.0008
1765.00,0.0008
1764.00,0.0008
1763.00,0.0008
1762.00,0.0008
1761.00,0.0009
1760.00,0.0010
1759.00,0.0010
1758.00,0.0010
1757.00,0.0011
1756.00,0.0011
1755.00,0.0011
1754.00,0.0011
1753.00,0.0012
1752.00,0.0012
1751.00,0.0013
1750.00,0.0014
1749.00,0.0014
1748.00,0.0015
1747.00,0.0016
1746.00,0.0016
1745.00,0.0016
1744.00,0.0016
1743.00,0.0015
1742.00,0.0015
1741.00,0.0016
1740.00,0.0016
1739.00,0.0016
1738.00,0.0016
1737.00,0.0016
1736.00,0.0017
1735.00,0.0017
1734.00,0.0018
1733.00,0.0018
1732.00,0.0018
1731.00,0.0017
1730.00,0.0017
1729.00,0.0017
1728.00,0.0017
1727.00,0.0017
1726.00,0.0018
1725.00,0.0019
1724.00,0.0019
1723.00,0.0019
1722.00,0.0020
1721.00,0.0020
1720.00,0.0020
1719.00,0.0020
1718.00,0.0019
1717.00,0.0018
1716.00,0.0018
1715.00,0.0018
1714.00,0.0018
1713.00,0.0018
1712.00,0.0018
1711.00,0.0018
1710.00,0.0019
1709.00,0.0019
1708.00,0.0020
1707.00,0.0020
1706.00,0.0020
1705.00,0.0020
1704.00,0.0020
1703.00,0.0019
1702.00,0.0018
1701.00,0.0018
1700.00,0.0018
1699.00,0.0018
1698.00,0.0018
1697.00,0.0018
1696.00,0.0019
1695.00,0.0019
1694.00,0.0020
1693.00,0.0021
1692.00,0.0021
1691.00,0.0022
1690.00,0.0022
1689.00,0.0022
1688.00,0.0022
1687.00,0.0022
1686.00,0.0022
1685.00,0.0022
1684.00,0.0022
1683.00,0.0021
1682.00,0.0021
1681.00,0.0021
1680.00,0.0022
1679.00,0.0022
1678.00,0.0022
1677.00,0.0022
1676.00,0.0023
1675.00,0.0023
1674.00,0.0024
1673.00,0.0024
1672.00,0.0024
1671.00,0.0024
1670.00,0.0024
1669.00,0.0024
1668.00,0.0025
1667.00,0.0025
1666.00,0.0025
1665.00,0.0025
1664.00,0.0025
1663.00,0.0025
1662.00,0.0025
1661.00,0.0025
1660.00,0.0025
1659.00,0.0026
1658.00,0.0026
1657.00,0.0027
1656.00,0.0027
1655.00,0.0027
1654.00,0.0026
1653.00,0.0026
1652.00,0.0027
1651.00,0.0027
1650.00,0.0027
1649.00,0.0027
1648.00,0.0028
1647.00,0.0028
1646.00,0.0028
1645.00,0.0029
1644.00,0.0029
1643.00,0.0030
1642.00,0.0030
1641.00,0.0031
1640.00,0.0032
1639.00,0.0032
1638.00,0.0033
1637.00,0.0033
1636.00,0.0033
1635.00,0.0032
1634.00,0.0032
1633.00,0.0032
1632.00,0.0031
1631.00,0.0031
1630.00,0.0031
1629.00,0.0031
1628.00,0.0031
1627.00,0.0031
1626.00,0.0031
1625.00,0.0031
1624.00,0.0030
1623.00,0.0030
1622.00,0.0029
1621.00,0.0029
1620.00,0.0029
1619.00,0.0028
1618.00,0.0027
1617.00,0.0027
1616.00,0.0027
1615.00,0.0027
1614.00,0.0027
1613.00,0.0027
1612.00,0.0028
1611.00,0.0028
1610.00,0.0028
1609.00,0.0029
1608.00,0.0029
1607.00,0.0029
1606.00,0.0028
1605.00,0.0028
1604.00,0.0028
1603.00,0.0028
1602.00,0.0027
1601.00,0.0027
1600.00,0.0028
1599.00,0.0028
1598.00,0.0027
1597.00,0.0027
1596.00,0.0027
1595.00,0.0027
1594.00,0.0027
1593.00,0.0027
1592.00,0.0027
1591.00,0.0028
1590.00,0.0028
1589.00,0.0028
1588.00,0.0029
1587.00,0.0029
1586.00,0.0030
1585.00,0.0030
1584.00,0.0031
1583.00,0.0031
1582.00,0.0032
1581.00,0.0033
1580.00,0.0034
1579.00,0.0034
1578.00,0.0035
1577.00,0.0035
1576.00,0.0035
1575.00,0.0035
1574.00,0.0035
1573.00,0.0035
1572.00,0.0035
1571.00,0.0035
1570.00,0.0035
1569.00,0.0035
1568.00,0.0035
1567.00,0.0035
1566.00,0.0034
1565.00,0.0034
1564.00,0.0034
1563.00,0.0034
1562.00,0.0034
1561.00,0.0035
1560.00,0.0036
1559.00,0.0035
1558.00,0.0034
1557.00,0.0034
1556.00,0.0034
1555.00,0.0034
1554.00,0.0033
1553.00,0.0034
1552.00,0.0034
1551.00,0.0034
1550.00,0.0035
1549.00,0.0036
1548.00,0.0037
1547.00,0.0038
1546.00,0.0038
1545.00,0.0039
1544.00,0.0039
1543.00,0.0039
1542.00,0.0039
1541.00,0.0039
1540.00,0.0039
1539.00,0.0039
1538.00,0.0039
1537.00,0.0039
1536.00,0.0039
1535.00,0.0039
1534.00,0.0038
1533.00,0.0037
1532.00,0.0037
1531.00,0.0036
1530.00,0.0036
1529.00,0.0037
1528.00,0.0037
1527.00,0.0038
1526.00,0.0038
1525.00,0.0038
1524.00,0.0038
1523.00,0.0038
1522.00,0.0038
1521.00,0.0039
1520.00,0.0041
1519.00,0.0041
1518.00,0.0042
1517.00,0.0042
1516.00,0.0043
1515.00,0.0043
1514.00,0.0043
1513.00,0.0044
1512.00,0.0046
1511.00,0.0047
1510.00,0.0047
1509.00,0.0047
1508.00,0.0048
1507.00,0.0047
1506.00,0.0049
1505.00,0.0052
1504.00,0.0054
1503.00,0.0056
1502.00,0.0057
1501.00,0.0059
1500.00,0.0061
1499.00,0.0063
1498.00,0.0064
1497.00,0.0067
1496.00,0.0070
1495.00,0.0073
1494.00,0.0075
1493.00,0.0078
1492.00,0.0081
1491.00,0.0083
1490.00,0.0086
1489.00,0.0091
1488.00,0.0096
1487.00,0.0101
1486.00,0.0106
1485.00,0.0112
1484.00,0.0118
1483.00,0.0125
1482.00,0.0133
1481.00,0.0144
1480.00,0.0155
1479.00,0.0167
1478.00,0.0182
1477.00,0.0203
1476.00,0.0229
1475.00,0.0259
1474.00,0.0301
1473.00,0.0361
1472.00,0.0432
1471.00,0.0500
1470.00,0.0565
1469.00,0.0633
1468.00,0.0707
1467.00,0.0789
1466.00,0.0884
1465.00,0.0986
1464.00,0.1075
1463.00,0.1136
1462.00,0.1173
1461.00,0.1196
1460.00,0.1210
1459.00,0.1217
1458.00,0.1219
1457.00,0.1216
1456.00,0.1205
1455.00,0.1190
1454.00,0.1172
1453.00,0.1149
1452.00,0.1117
1451.00,0.1074
1450.00,0.1018
1449.00,0.0943
1448.00,0.0851
1447.00,0.0756
1446.00,0.0672
1445.00,0.0602
1444.00,0.0542
1443.00,0.0493
1442.00,0.0457
1441.00,0.0433
1440.00,0.0418
1439.00,0.0414
1438.00,0.0418
1437.00,0.0423
1436.00,0.0417
1435.00,0.0394
1434.00,0.0358
1433.00,0.0314
1432.00,0.0268
1431.00,0.0226
1430.00,0.0194
1429.00,0.0170
1428.00,0.0154
1427.00,0.0143
1426.00,0.0137
1425.00,0.0130
1424.00,0.0124
1423.00,0.0120
1422.00,0.0118
1421.00,0.0116
1420.00,0.0113
1419.00,0.0110
1418.00,0.0108
1417.00,0.0105
1416.00,0.0103
1415.00,0.0102
1414.00,0.0101
1413.00,0.0100
1412.00,0.0098
1411.00,0.0097
1410.00,0.0097
1409.00,0.0097
1408.00,0.0096
1407.00,0.0096
1406.00,0.0097
1405.00,0.0096
1404.00,0.0096
1403.00,0.0097
1402.00,0.0098
1401.00,0.0099
1400.00,0.0100
1399.00,0.0102
1398.00,0.0105
1397.00,0.0106
1396.00,0.0108
1395.00,0.0113
1394.00,0.0118
1393.00,0.0123
1392.00,0.0129
1391.00,0.0137
1390.00,0.0147
1389.00,0.0160
1388.00,0.0181
1387.00,0.0212
1386.00,0.0256
1385.00,0.0313
1384.00,0.0392
1383.00,0.0504
1382.00,0.0658
1381.00,0.0860
1380.00,0.1115
1379.00,0.1413
1378.00,0.1708
1377.00,0.1934
1376.00,0.2023
1375.00,0.1931
1374.00,0.1687
1373.00,0.1385
1372.00,0.1108
1371.00,0.0880
1370.00,0.0699
1369.00,0.0562
1368.00,0.0469
1367.00,0.0411
1366.00,0.0380
1365.00,0.0368
1364.00,0.0371
1363.00,0.0387
1362.00,0.0410
1361.00,0.0435
1360.00,0.0453
1359.00,0.0459
1358.00,0.0447
1357.00,0.0420
1356.00,0.0382
1355.00,0.0339
1354.00,0.0297
1353.00,0.0261
1352.00,0.0232
1351.00,0.0209
1350.00,0.0190
1349.00,0.0174
1348.00,0.0161
1347.00,0.0150
1346.00,0.0141
1345.00,0.0133
1344.00,0.0127
1343.00,0.0122
1342.00,0.0118
1341.00,0.0115
1340.00,0.0112
1339.00,0.0110
1338.00,0.0109
1337.00,0.0109
1336.00,0.0110
1335.00,0.0112
1334.00,0.0116
1333.00,0.0120
1332.00,0.0124
1331.00,0.0128
1330.00,0.0129
1329.00,0.0127
1328.00,0.0124
1327.00,0.0118
1326.00,0.0112
1325.00,0.0106
1324.00,0.0101
1323.00,0.0096
1322.00,0.0093
1321.00,0.0089
1320.00,0.0086
1319.00,0.0084
1318.00,0.0082
1317.00,0.0081
1316.00,0.0080
1315.00,0.0079
1314.00,0.0078
1313.00,0.0078
1312.00,0.0080
1311.00,0.0082
1310.00,0.0085
1309.00,0.0089
1308.00,0.0095
1307.00,0.0103
1306.00,0.0111
1305.00,0.0116
1304.00,0.0119
1303.00,0.0118
1302.00,0.0116
1301.00,0.0114
1300.00,0.0114
1299.00,0.0116
1298.00,0.0118
1297.00,0.0119
1296.00,0.0119
1295.00,0.0117
1294.00,0.0113
1293.00,0.0108
1292.00,0.0102
1291.00,0.0097
1290.00,0.0092
1289.00,0.0088
1288.00,0.0085
1287.00,0.0083
1286.00,0.0081
1285.00,0.0079
1284.00,0.0078
1283.00,0.0076
1282.00,0.0075
1281.00,0.0074
1280.00,0.0073
1279.00,0.0072
1278.00,0.0071
1277.00,0.0070
1276.00,0.0070
1275.00,0.0069
1274.00,0.0069
1273.00,0.0068
1272.00,0.0068
1271.00,0.0069
1270.00,0.0070
1269.00,0.0071
1268.00,0.0072
1267.00,0.0074
1266.00,0.0075
1265.00,0.0077
1264.00,0.0079
1263.00,0.0081
1262.00,0.0084
1261.00,0.0087
1260.00,0.0091
1259.00,0.0095
1258.00,0.0100
1257.00,0.0104
1256.00,0.0105
1255.00,0.0104
1254.00,0.0100
1253.00,0.0094
1252.00,0.0089
1251.00,0.0084
1250.00,0.0080
1249.00,0.0077
1248.00,0.0075
1247.00,0.0074
1246.00,0.0072
1245.00,0.0071
1244.00,0.0070
1243.00,0.0069
1242.00,0.0068
1241.00,0.0067
1240.00,0.0066
1239.00,0.0066
1238.00,0.0066
1237.00,0.0066
1236.00,0.0066
1235.00,0.0067
1234.00,0.0067
1233.00,0.0067
1232.00,0.0068
1231.00,0.0068
1230.00,0.0069
1229.00,0.0069
1228.00,0.0070
1227.00,0.0071
1226.00,0.0074
1225.00,0.0077
1224.00,0.0082
1223.00,0.0086
1222.00,0.0090
1221.00,0.0092
1220.00,0.0094
1219.00,0.0095
1218.00,0.0094
1217.00,0.0091
1216.00,0.0088
1215.00,0.0085
1214.00,0.0081
1213.00,0.0078
1212.00,0.0076
1211.00,0.0075
1210.00,0.0073
1209.00,0.0072
1208.00,0.0071
1207.00,0.0070
1206.00,0.0069
1205.00,0.0068
1204.00,0.0068
1203.00,0.0068
1202.00,0.0068
1201.00,0.0068
1200.00,0.0067
1199.00,0.0067
1198.00,0.0067
1197.00,0.0067
1196.00,0.0066
1195.00,0.0066
1194.00,0.0066
1193.00,0.0065
1192.00,0.0066
1191.00,0.0066
1190.00,0.0066
1189.00,0.0067
1188.00,0.0067
1187.00,0.0068
1186.00,0.0068
1185.00,0.0068
1184.00,0.0069
1183.00,0.0070
1182.00,0.0071
1181.00,0.0073
1180.00,0.0076
1179.00,0.0079
1178.00,0.0083
1177.00,0.0090
1176.00,0.0098
1175.00,0.0110
1174.00,0.0124
1173.00,0.0142
1172.00,0.0164
1171.00,0.0187
1170.00,0.0209
1169.00,0.0226
1168.00,0.0237
1167.00,0.0239
1166.00,0.0235
1165.00,0.0226
1164.00,0.0215
1163.00,0.0205
1162.00,0.0196
1161.00,0.0189
1160.00,0.0185
1159.00,0.0181
1158.00,0.0178
1157.00,0.0176
1156.00,0.0176
1155.00,0.0176
1154.00,0.0176
1153.00,0.0175
1152.00,0.0171
1151.00,0.0164
1150.00,0.0156
1149.00,0.0146
1148.00,0.0137
1147.00,0.0128
1146.00,0.0120
1145.00,0.0112
1144.00,0.0105
1143.00,0.0099
1142.00,0.0093
1141.00,0.0088
1140.00,0.0082
1139.00,0.0078
1138.00,0.0074
1137.00,0.0071
1136.00,0.0068
1135.00,0.0066
1134.00,0.0064
1133.00,0.0063
1132.00,0.0062
1131.00,0.0062
1130.00,0.0061
1129.00,0.0061
1128.00,0.0061
1127.00,0.0061
1126.00,0.0062
1125.00,0.0062
1124.00,0.0062
1123.00,0.0061
1122.00,0.0061
1121.00,0.0062
1120.00,0.0063
1119.00,0.0064
1118.00,0.0065
1117.00,0.0065
1116.00,0.0066
1115.00,0.0067
1114.00,0.0069
1113.00,0.0070
1112.00,0.0072
1111.00,0.0074
1110.00,0.0078
1109.00,0.0082
1108.00,0.0088
1107.00,0.0095
1106.00,0.0101
1105.00,0.0107
1104.00,0.0113
1103.00,0.0116
1102.00,0.0116
1101.00,0.0113
1100.00,0.0107
1099.00,0.0100
1098.00,0.0093
1097.00,0.0087
1096.00,0.0082
1095.00,0.0079
1094.00,0.0076
1093.00,0.0074
1092.00,0.0073
1091.00,0.0072
1090.00,0.0071
1089.00,0.0070
1088.00,0.0068
1087.00,0.0067
1086.00,0.0067
1085.00,0.0067
1084.00,0.0067
1083.00,0.0067
1082.00,0.0067
1081.00,0.0066
1080.00,0.0065
1079.00,0.0064
1078.00,0.0064
1077.00,0.0063
1076.00,0.0063
1075.00,0.0062
1074.00,0.0063
1073.00,0.0064
1072.00,0.0065
1071.00,0.0065
1070.00,0.0065
1069.00,0.0065
1068.00,0.0065
1067.00,0.0065
1066.00,0.0066
1065.00,0.0067
1064.00,0.0068
1063.00,0.0069
1062.00,0.0069
1061.00,0.0069
1060.00,0.0070
1059.00,0.0070
1058.00,0.0071
1057.00,0.0073
1056.00,0.0075
1055.00,0.0078
1054.00,0.0080
1053.00,0.0083
1052.00,0.0086
1051.00,0.0090
1050.00,0.0093
1049.00,0.0097
1048.00,0.0100
1047.00,0.0103
1046.00,0.0105
1045.00,0.0107
1044.00,0.0108
1043.00,0.0108
1042.00,0.0108
1041.00,0.0106
1040.00,0.0105
1039.00,0.0103
1038.00,0.0103
1037.00,0.0102
1036.00,0.0102
1035.00,0.0102
1034.00,0.0101
1033.00,0.0101
1032.00,0.0100
1031.00,0.0099
1030.00,0.0099
1029.00,0.0099
1028.00,0.0101
1027.00,0.0103
1026.00,0.0106
1025.00,0.0108
1024.00,0.0109
1023.00,0.0111
1022.00,0.0114
1021.00,0.0117
1020.00,0.0119
1019.00,0.0120
1018.00,0.0120
1017.00,0.0120
1016.00,0.0120
1015.00,0.0120
1014.00,0.0119
1013.00,0.0119
1012.00,0.0119
1011.00,0.0118
1010.00,0.0118
1009.00,0.0119
1008.00,0.0120
1007.00,0.0124
1006.00,0.0129
1005.00,0.0136
1004.00,0.0146
1003.00,0.0161
1002.00,0.0182
1001.00,0.0206
1000.00,0.0232
999.00,0.0253
998.00,0.0263
997.00,0.0257
996.00,0.0238
995.00,0.0210
994.00,0.0182
993.00,0.0158
992.00,0.0138
991.00,0.0124
990.00,0.0114
989.00,0.0107
988.00,0.0103
987.00,0.0101
986.00,0.0101
985.00,0.0103
984.00,0.0107
983.00,0.0113
982.00,0.0123
981.00,0.0136
980.00,0.0155
979.00,0.0178
978.00,0.0208
977.00,0.0242
976.00,0.0276
975.00,0.0307
974.00,0.0327
973.00,0.0330
972.00,0.0316
971.00,0.0286
970.00,0.0249
969.00,0.0211
968.00,0.0179
967.00,0.0153
966.00,0.0134
965.00,0.0120
964.00,0.0111
963.00,0.0103
962.00,0.0097
961.00,0.0093
960.00,0.0089
959.00,0.0086
958.00,0.0083
957.00,0.0081
956.00,0.0079
955.00,0.0077
954.00,0.0076
953.00,0.0075
952.00,0.0074
951.00,0.0073
950.00,0.0072
949.00,0.0072
948.00,0.0073
947.00,0.0074
946.00,0.0076
945.00,0.0079
944.00,0.0083
943.00,0.0087
942.00,0.0091
941.00,0.0093
940.00,0.0093
939.00,0.0091
938.00,0.0086
937.00,0.0080
936.00,0.0075
935.00,0.0070
934.00,0.0066
933.00,0.0063
932.00,0.0061
931.00,0.0059
930.00,0.0058
929.00,0.0056
928.00,0.0055
927.00,0.0055
926.00,0.0055
925.00,0.0056
924.00,0.0057
923.00,0.0057
922.00,0.0057
921.00,0.0056
920.00,0.0056
919.00,0.0056
918.00,0.0057
917.00,0.0057
916.00,0.0058
915.00,0.0059
914.00,0.0060
913.00,0.0062
912.00,0.0063
911.00,0.0065
910.00,0.0067
909.00,0.0070
908.00,0.0073
907.00,0.0078
906.00,0.0085
905.00,0.0096
904.00,0.0111
903.00,0.0130
902.00,0.0152
901.00,0.0171
900.00,0.0184
899.00,0.0186
898.00,0.0178
897.00,0.0160
896.00,0.0140
895.00,0.0121
894.00,0.0106
893.00,0.0095
892.00,0.0086
891.00,0.0080
890.00,0.0076
889.00,0.0072
888.00,0.0070
887.00,0.0068
886.00,0.0066
885.00,0.0065
884.00,0.0065
883.00,0.0065
882.00,0.0065
881.00,0.0064
880.00,0.0064
879.00,0.0065
878.00,0.0067
877.00,0.0068
876.00,0.0068
875.00,0.0069
874.00,0.0069
873.00,0.0068
872.00,0.0068
871.00,0.0068
870.00,0.0068
869.00,0.0069
868.00,0.0069
867.00,0.0070
866.00,0.0071
865.00,0.0071
864.00,0.0072
863.00,0.0073
862.00,0.0073
861.00,0.0074
860.00,0.0075
859.00,0.0076
858.00,0.0078
857.00,0.0079
856.00,0.0081
855.00,0.0082
854.00,0.0082
853.00,0.0083
852.00,0.0084
851.00,0.0087
850.00,0.0091
849.00,0.0096
848.00,0.0103
847.00,0.0112
846.00,0.0127
845.00,0.0148
844.00,0.0178
843.00,0.0210
842.00,0.0236
841.00,0.0242
840.00,0.0225
839.00,0.0194
838.00,0.0162
837.00,0.0137
836.00,0.0121
835.00,0.0112
834.00,0.0105
833.00,0.0099
832.00,0.0095
831.00,0.0093
830.00,0.0092
829.00,0.0092
828.00,0.0091
827.00,0.0091
826.00,0.0091
825.00,0.0091
824.00,0.0092
823.00,0.0092
822.00,0.0091
821.00,0.0091
820.00,0.0092
819.00,0.0094
818.00,0.0099
817.00,0.0107
816.00,0.0116
815.00,0.0129
814.00,0.0146
813.00,0.0166
812.00,0.0187
811.00,0.0206
810.00,0.0219
809.00,0.0224
808.00,0.0220
807.00,0.0206
806.00,0.0187
805.00,0.0167
804.00,0.0148
803.00,0.0133
802.00,0.0122
801.00,0.0114
800.00,0.0108
799.00,0.0104
798.00,0.0101
797.00,0.0098
796.00,0.0096
795.00,0.0093
794.00,0.0089
793.00,0.0085
792.00,0.0080
791.00,0.0076
790.00,0.0072
789.00,0.0070
788.00,0.0067
787.00,0.0065
786.00,0.0063
785.00,0.0061
784.00,0.0060
783.00,0.0059
782.00,0.0058
781.00,0.0058
780.00,0.0057
779.00,0.0056
778.00,0.0056
777.00,0.0056
776.00,0.0056
775.00,0.0056
774.00,0.0056
773.00,0.0055
772.00,0.0055
771.00,0.0055
770.00,0.0055
769.00,0.0056
768.00,0.0056
767.00,0.0057
766.00,0.0057
765.00,0.0057
764.00,0.0057
763.00,0.0057
762.00,0.0057
761.00,0.0058
760.00,0.0060
759.00,0.0063
758.00,0.0066
757.00,0.0068
756.00,0.0068
755.00,0.0068
754.00,0.0067
753.00,0.0067
752.00,0.0068
751.00,0.0069
750.00,0.0070
749.00,0.0072
748.00,0.0074
747.00,0.0076
746.00,0.0077
745.00,0.0078
744.00,0.0079
743.00,0.0080
742.00,0.0082
741.00,0.0084
740.00,0.0087
739.00,0.0091
738.00,0.0095
737.00,0.0100
736.00,0.0106
735.00,0.0110
734.00,0.0115
733.00,0.0119
732.00,0.0126
731.00,0.0133
730.00,0.0138
729.00,0.0139
728.00,0.0139
727.00,0.0139
726.00,0.0141
725.00,0.0145
724.00,0.0150
723.00,0.0156
722.00,0.0162
721.00,0.0165
720.00,0.0163
719.00,0.0156
718.00,0.0144
717.00,0.0133
716.00,0.0123
715.00,0.0116
714.00,0.0110
713.00,0.0105
712.00,0.0102
711.00,0.0099
710.00,0.0097
709.00,0.0095
708.00,0.0093
707.00,0.0091
706.00,0.0089
705.00,0.0088
704.00,0.0087
703.00,0.0086
702.00,0.0086
701.00,0.0087
700.00,0.0087
699.00,0.0086
698.00,0.0085
697.00,0.0084
696.00,0.0084
695.00,0.0086
694.00,0.0089
693.00,0.0090
692.00,0.0090
691.00,0.0090
690.00,0.0090
689.00,0.0091
688.00,0.0091
687.00,0.0090
686.00,0.0087
685.00,0.0085
684.00,0.0083
683.00,0.0083
682.00,0.0083
681.00,0.0083
680.00,0.0083
679.00,0.0084
678.00,0.0085
677.00,0.0087
676.00,0.0089
675.00,0.0090
674.00,0.0090
673.00,0.0091
672.00,0.0092
671.00,0.0093
670.00,0.0093
669.00,0.0093
668.00,0.0093
667.00,0.0094
666.00,0.0093
665.00,0.0089
664.00,0.0086
663.00,0.0085
662.00,0.0085
661.00,0.0085
660.00,0.0083
659.00,0.0082
658.00,0.0080
657.00,0.0080
656.00,0.0081
655.00,0.0081
654.00,0.0081
653.00,0.0080
652.00,0.0077
651.00,0.0076
650.00,0.0076
649.00,0.0076
648.00,0.0075
647.00,0.0074
646.00,0.0074
645.00,0.0074
644.00,0.0075
643.00,0.0075
642.00,0.0074
641.00,0.0073
640.00,0.0072
639.00,0.0072
638.00,0.0072
637.00,0.0072
636.00,0.0071
635.00,0.0072
634.00,0.0072
633.00,0.0072
632.00,0.0069
631.00,0.0066
630.00,0.0064
629.00,0.0063
628.00,0.0063
627.00,0.0063
626.00,0.0065
625.00,0.0069
624.00,0.0072
623.00,0.0074
622.00,0.0075
621.00,0.0074
620.00,0.0072
619.00,0.0070
618.00,0.0071
617.00,0.0073
616.00,0.0076
615.00,0.0077
614.00,0.0075
613.00,0.0073
612.00,0.0069
611.00,0.0065
610.00,0.0061
609.00,0.0059
608.00,0.0059
607.00,0.0061
606.00,0.0063
605.00,0.0065
604.00,0.0068
603.00,0.0070
602.00,0.0071
601.00,0.0071
600.00,0.0070
599.00,0.0070
598.00,0.0070
597.00,0.0070
596.00,0.0070
595.00,0.0070
594.00,0.0069
593.00,0.0067
592.00,0.0065
591.00,0.0064
590.00,0.0065
589.00,0.0066
588.00,0.0067
587.00,0.0068
586.00,0.0069
585.00,0.0069
584.00,0.0068
583.00,0.0067
582.00,0.0067
581.00,0.0067
580.00,0.0065
579.00,0.0064
578.00,0.0062
577.00,0.0062
576.00,0.0063
575.00,0.0065
574.00,0.0066
573.00,0.0066
572.00,0.0063
571.00,0.0062
570.00,0.0062
569.00,0.0063
568.00,0.0064
567.00,0.0064
566.00,0.0064
565.00,0.0066
564.00,0.0070
563.00,0.0072
562.00,0.0070
561.00,0.0068
560.00,0.0068
559.00,0.0071
558.00,0.0072
557.00,0.0071
556.00,0.0067
555.00,0.0065
554.00,0.0066
553.00,0.0067
552.00,0.0067
551.00,0.0066
550.00,0.0064
549.00,0.0062
548.00,0.0061
547.00,0.0062
546.00,0.0065
545.00,0.0071
544.00,0.0078
543.00,0.0083
542.00,0.0088
541.00,0.0090
540.00,0.0092
539.00,0.0093
538.00,0.0095
537.00,0.0096
536.00,0.0095
535.00,0.0093
534.00,0.0091
533.00,0.0092
532.00,0.0095
531.00,0.0098
530.00,0.0099
529.00,0.0094
528.00,0.0087
527.00,0.0081
526.00,0.0079
525.00,0.0079
524.00,0.0078
523.00,0.0074
522.00,0.0067
521.00,0.0061
520.00,0.0058
519.00,0.0059
518.00,0.0062
517.00,0.0064
516.00,0.0064
515.00,0.0063
514.00,0.0061
513.00,0.0059
512.00,0.0057
511.00,0.0059
510.00,0.0062
509.00,0.0065
508.00,0.0065
507.00,0.0065
506.00,0.0066
505.00,0.0070
504.00,0.0073
503.00,0.0072
502.00,0.0067
501.00,0.0064
500.00,0.0064
499.00,0.0068
498.00,0.0071
497.00,0.0070
496.00,0.0066
495.00,0.0062
494.00,0.0062
493.00,0.0067
492.00,0.0075
491.00,0.0084
490.00,0.0091
489.00,0.0095
488.00,0.0092
487.00,0.0086
486.00,0.0082
485.00,0.0082
484.00,0.0082
483.00,0.0080
482.00,0.0077
481.00,0.0078
480.00,0.0084
479.00,0.0096
478.00,0.0108
477.00,0.0115
476.00,0.0117
475.00,0.0115
474.00,0.0113
473.00,0.0111
472.00,0.0109
471.00,0.0107
470.00,0.0106
469.00,0.0108
468.00,0.0116
467.00,0.0128
466.00,0.0141
465.00,0.0151
464.00,0.0160
463.00,0.0168
462.00,0.0173
461.00,0.0173
460.00,0.0169
459.00,0.0167
458.00,0.0170
457.00,0.0174
456.00,0.0176
455.00,0.0175
454.00,0.0173
453.00,0.0170
452.00,0.0166
451.00,0.0164
450.00,0.0164
