Created as New Dataset,Sample 066 By Administrator Date Thursday, September 04 2025
cm-1,A
4000.00,0.0008
3999.00,0.0008
3998.00,0.0008
3997.00,0.0007
3996.00,0.0008
3995.00,0.0008
3994.00,0.0008
3993.00,0.0009
3992.00,0.0009
3991.00,0.0009
3990.00,0.0009
3989.00,0.0009
3988.00,0.0008
3987.00,0.0008
3986.00,0.0008
3985.00,0.0007
3984.00,0.0007
3983.00,0.0007
3982.00,0.0007
3981.00,0.0008
3980.00,0.0008
3979.00,0.0008
3978.00,0.0008
3977.00,0.0008
3976.00,0.0008
3975.00,0.0008
3974.00,0.0007
3973.00,0.0007
3972.00,0.0007
3971.00,0.0007
3970.00,0.0006
3969.00,0.0006
3968.00,0.0006
3967.00,0.0006
3966.00,0.0006
3965.00,0.0007
3964.00,0.0007
3963.00,0.0007
3962.00,0.0008
3961.00,0.0008
3960.00,0.0007
3959.00,0.0007
3958.00,0.0007
3957.00,0.0007
3956.00,0.0007
3955.00,0.0007
3954.00,0.0007
3953.00,0.0007
3952.00,0.0007
3951.00,0.0007
3950.00,0.0007
3949.00,0.0007
3948.00,0.0006
3947.00,0.0006
3946.00,0.0006
3945.00,0.0006
3944.00,0.0006
3943.00,0.0006
3942.00,0.0006
3941.00,0.0007
3940.00,0.0007
3939.00,0.0007
3938.00,0.0007
3937.00,0.0006
3936.00,0.0006
3935.00,0.0006
3934.00,0.0006
3933.00,0.0006
3932.00,0.0006
3931.00,0.0006
3930.00,0.0006
3929.00,0.0006
3928.00,0.0006
3927.00,0.0007
3926.00,0.0007
3925.00,0.0007
3924.00,0.0007
3923.00,0.0006
3922.00,0.0006
3921.00,0.0006
3920.00,0.0006
3919.00,0.0005
3918.00,0.0005
3917.00,0.0005
3916.00,0.0005
3915.00,0.0006
3914.00,0.0006
3913.00,0.0006
3912.00,0.0006
3911.00,0.0006
3910.00,0.0006
3909.00,0.0006
3908.00,0.0006
3907.00,0.0006
3906.00,0.0006
3905.00,0.0005
3904.00,0.0005
3903.00,0.0005
3902.00,0.0005
3901.00,0.0005
3900.00,0.0005
3899.00,0.0005
3898.00,0.0005
3897.00,0.0005
3896.00,0.0005
3895.00,0.0006
3894.00,0.0006
3893.00,0.0006
3892.00,0.0006
3891.00,0.0006
3890.00,0.0006
3889.00,0.0006
3888.00,0.0005
3887.00,0.0005
3886.00,0.0005
3885.00,0.0005
3884.00,0.0005
3883.00,0.0006
3882.00,0.0005
3881.00,0.0005
3880.00,0.0005
3879.00,0.0006
3878.00,0.0006
3877.00,0.0006
3876.00,0.0005
3875.00,0.0005
3874.00,0.0005
3873.00,0.0005
3872.00,0.0005
3871.00,0.0005
3870.00,0.0005
3869.00,0.0005
3868.00,0.0006
3867.00,0.0006
3866.00,0.0006
3865.00,0.0006
3864.00,0.0006
3863.00,0.0005
3862.00,0.0005
3861.00,0.0005
3860.00,0.0005
3859.00,0.0005
3858.00,0.0006
3857.00,0.0007
3856.00,0.0007
3855.00,0.0007
3854.00,0.0007
3853.00,0.0007
3852.00,0.0007
3851.00,0.0006
3850.00,0.0006
3849.00,0.0005
3848.00,0.0005
3847.00,0.0005
3846.00,0.0004
3845.00,0.0004
3844.00,0.0004
3843.00,0.0005
3842.00,0.0005
3841.00,0.0006
3840.00,0.0007
3839.00,0.0007
3838.00,0.0007
3837.00,0.0006
3836.00,0.0006
3835.00,0.0005
3834.00,0.0005
3833.00,0.0005
3832.00,0.0005
3831.00,0.0005
3830.00,0.0005
3829.00,0.0004
3828.00,0.0004
3827.00,0.0004
3826.00,0.0005
3825.00,0.0005
3824.00,0.0006
3823.00,0.0006
3822.00,0.0006
3821.00,0.0006
3820.00,0.0006
3819.00,0.0007
3818.00,0.0007
3817.00,0.0007
3816.00,0.0007
3815.00,0.0007
3814.00,0.0007
3813.00,0.0006
3812.00,0.0006
3811.00,0.0006
3810.00,0.0006
3809.00,0.0006
3808.00,0.0006
3807.00,0.0007
3806.00,0.0007
3805.00,0.0008
3804.00,0.0007
3803.00,0.0007
3802.00,0.0006
3801.00,0.0006
3800.00,0.0006
3799.00,0.0006
3798.00,0.0006
3797.00,0.0006
3796.00,0.0006
3795.00,0.0006
3794.00,0.0006
3793.00,0.0006
3792.00,0.0006
3791.00,0.0006
3790.00,0.0006
3789.00,0.0006
3788.00,0.0006
3787.00,0.0006
3786.00,0.0006
3785.00,0.0005
3784.00,0.0005
3783.00,0.0004
3782.00,0.0004
3781.00,0.0004
3780.00,0.0005
3779.00,0.0005
3778.00,0.0006
3777.00,0.0006
3776.00,0.0006
3775.00,0.0006
3774.00,0.0006
3773.00,0.0006
3772.00,0.0006
3771.00,0.0006
3770.00,0.0007
3769.00,0.0007
3768.00,0.0007
3767.00,0.0006
3766.00,0.0006
3765.00,0.0006
3764.00,0.0006
3763.00,0.0006
3762.00,0.0006
3761.00,0.0006
3760.00,0.0006
3759.00,0.0006
3758.00,0.0006
3757.00,0.0006
3756.00,0.0006
3755.00,0.0006
3754.00,0.0006
3753.00,0.0006
3752.00,0.0006
3751.00,0.0005
3750.00,0.0005
3749.00,0.0005
3748.00,0.0006
3747.00,0.0006
3746.00,0.0005
3745.00,0.0005
3744.00,0.0006
3743.00,0.0006
3742.00,0.0005
3741.00,0.0005
3740.00,0.0004
3739.00,0.0004
3738.00,0.0004
3737.00,0.0004
3736.00,0.0004
3735.00,0.0004
3734.00,0.0004
3733.00,0.0004
3732.00,0.0004
3731.00,0.0004
3730.00,0.0004
3729.00,0.0003
3728.00,0.0003
3727.00,0.0003
3726.00,0.0003
3725.00,0.0003
3724.00,0.0004
3723.00,0.0004
3722.00,0.0004
3721.00,0.0004
3720.00,0.0004
3719.00,0.0004
3718.00,0.0004
3717.00,0.0004
3716.00,0.0005
3715.00,0.0005
3714.00,0.0004
3713.00,0.0005
3712.00,0.0005
3711.00,0.0005
3710.00,0.0005
3709.00,0.0005
3708.00,0.0005
3707.00,0.0005
3706.00,0.0005
3705.00,0.0005
3704.00,0.0005
3703.00,0.0005
3702.00,0.0005
3701.00,0.0005
3700.00,0.0005
3699.00,0.0005
3698.00,0.0005
3697.00,0.0005
3696.00,0.0005
3695.00,0.0005
3694.00,0.0005
3693.00,0.0005
3692.00,0.0005
3691.00,0.0006
3690.00,0.0007
3689.00,0.0007
3688.00,0.0007
3687.00,0.0007
3686.00,0.0006
3685.00,0.0006
3684.00,0.0005
3683.00,0.0005
3682.00,0.0005
3681.00,0.0006
3680.00,0.0006
3679.00,0.0007
3678.00,0.0007
3677.00,0.0007
3676.00,0.0007
3675.00,0.0007
3674.00,0.0006
3673.00,0.0006
3672.00,0.0005
3671.00,0.0005
3670.00,0.0005
3669.00,0.0006
3668.00,0.0006
3667.00,0.0006
3666.00,0.0006
3665.00,0.0006
3664.00,0.0006
3663.00,0.0006
3662.00,0.0006
3661.00,0.0006
3660.00,0.0006
3659.00,0.0006
3658.00,0.0006
3657.00,0.0006
3656.00,0.0006
3655.00,0.0006
3654.00,0.0007
3653.00,0.0006
3652.00,0.0006
3651.00,0.0005
3650.00,0.0005
3649.00,0.0006
3648.00,0.0006
3647.00,0.0007
3646.00,0.0008
3645.00,0.0008
3644.00,0.0009
3643.00,0.0009
3642.00,0.0010
3641.00,0.0010
3640.00,0.0010
3639.00,0.0010
3638.00,0.0011
3637.00,0.0011
3636.00,0.0011
3635.00,0.0011
3634.00,0.0012
3633.00,0.0012
3632.00,0.0012
3631.00,0.0012
3630.00,0.0012
3629.00,0.0012
3628.00,0.0012
3627.00,0.0013
3626.00,0.0013
3625.00,0.0014
3624.00,0.0014
3623.00,0.0015
3622.00,0.0015
3621.00,0.0015
3620.00,0.0016
3619.00,0.0016
3618.00,0.0017
3617.00,0.0017
3616.00,0.0017
3615.00,0.0017
3614.00,0.0018
3613.00,0.0018
3612.00,0.0018
3611.00,0.0019
3610.00,0.0019
3609.00,0.0019
3608.00,0.0019
3607.00,0.0020
3606.00,0.0021
3605.00,0.0021
3604.00,0.0022
3603.00,0.0022
3602.00,0.0023
3601.00,0.0024
3600.00,0.0024
3599.00,0.0025
3598.00,0.0024
3597.00,0.0024
3596.00,0.0024
3595.00,0.0024
3594.00,0.0025
3593.00,0.0026
3592.00,0.0026
3591.00,0.0025
3590.00,0.0025
3589.00,0.0026
3588.00,0.0026
3587.00,0.0027
3586.00,0.0029
3585.00,0.0029
3584.00,0.0030
3583.00,0.0030
3582.00,0.0031
3581.00,0.0032
3580.00,0.0032
3579.00,0.0033
3578.00,0.0034
3577.00,0.0034
3576.00,0.0034
3575.00,0.0034
3574.00,0.0035
3573.00,0.0035
3572.00,0.0036
3571.00,0.0037
3570.00,0.0037
3569.00,0.0037
3568.00,0.0038
3567.00,0.0038
3566.00,0.0039
3565.00,0.0039
3564.00,0.0040
3563.00,0.0040
3562.00,0.0041
3561.00,0.0042
3560.00,0.0043
3559.00,0.0043
3558.00,0.0044
3557.00,0.0044
3556.00,0.0045
3555.00,0.0045
3554.00,0.0046
3553.00,0.0046
3552.00,0.0046
3551.00,0.0047
3550.00,0.0047
3549.00,0.0048
3548.00,0.0048
3547.00,0.0049
3546.00,0.0050
3545.00,0.0051
3544.00,0.0052
3543.00,0.0053
3542.00,0.0054
3541.00,0.0054
3540.00,0.0055
3539.00,0.0055
3538.00,0.0056
3537.00,0.0056
3536.00,0.0057
3535.00,0.0057
3534.00,0.0058
3533.00,0.0058
3532.00,0.0059
3531.00,0.0059
3530.00,0.0060
3529.00,0.0061
3528.00,0.0062
3527.00,0.0062
3526.00,0.0063
3525.00,0.0063
3524.00,0.0064
3523.00,0.0066
3522.00,0.0067
3521.00,0.0067
3520.00,0.0068
3519.00,0.0068
3518.00,0.0068
3517.00,0.0069
3516.00,0.0069
3515.00,0.0070
3514.00,0.0071
3513.00,0.0072
3512.00,0.0072
3511.00,0.0073
3510.00,0.0073
3509.00,0.0074
3508.00,0.0074
3507.00,0.0075
3506.00,0.0076
3505.00,0.0076
3504.00,0.0077
3503.00,0.0078
3502.00,0.0079
3501.00,0.0080
3500.00,0.0081
3499.00,0.0081
3498.00,0.0081
3497.00,0.0082
3496.00,0.0082
3495.00,0.0083
3494.00,0.0084
3493.00,0.0085
3492.00,0.0086
3491.00,0.0086
3490.00,0.0087
3489.00,0.0087
3488.00,0.0087
3487.00,0.0088
3486.00,0.0089
3485.00,0.0089
3484.00,0.0090
3483.00,0.0091
3482.00,0.0092
3481.00,0.0092
3480.00,0.0093
3479.00,0.0094
3478.00,0.0095
3477.00,0.0095
3476.00,0.0096
3475.00,0.0097
3474.00,0.0098
3473.00,0.0098
3472.00,0.0099
3471.00,0.0099
3470.00,0.0099
3469.00,0.0099
3468.00,0.0099
3467.00,0.0100
3466.00,0.0100
3465.00,0.0101
3464.00,0.0102
3463.00,0.0103
3462.00,0.0103
3461.00,0.0104
3460.00,0.0105
3459.00,0.0105
3458.00,0.0106
3457.00,0.0106
3456.00,0.0107
3455.00,0.0107
3454.00,0.0107
3453.00,0.0108
3452.00,0.0109
3451.00,0.0109
3450.00,0.0110
3449.00,0.0110
3448.00,0.0111
3447.00,0.0111
3446.00,0.0112
3445.00,0.0113
3444.00,0.0113
3443.00,0.0113
3442.00,0.0113
3441.00,0.0113
3440.00,0.0114
3439.00,0.0114
3438.00,0.0115
3437.00,0.0115
3436.00,0.0116
3435.00,0.0116
3434.00,0.0117
3433.00,0.0117
3432.00,0.0117
3431.00,0.0118
3430.00,0.0118
3429.00,0.0119
3428.00,0.0119
3427.00,0.0119
3426.00,0.0120
3425.00,0.0120
3424.00,0.0120
3423.00,0.0121
3422.00,0.0121
3421.00,0.0122
3420.00,0.0123
3419.00,0.0123
3418.00,0.0123
3417.00,0.0124
3416.00,0.0124
3415.00,0.0125
3414.00,0.0125
3413.00,0.0125
3412.00,0.0125
3411.00,0.0125
3410.00,0.0126
3409.00,0.0126
3408.00,0.0126
3407.00,0.0127
3406.00,0.0127
3405.00,0.0128
3404.00,0.0128
3403.00,0.0129
3402.00,0.0130
3401.00,0.0130
3400.00,0.0130
3399.00,0.0131
3398.00,0.0131
3397.00,0.0132
3396.00,0.0132
3395.00,0.0133
3394.00,0.0133
3393.00,0.0134
3392.00,0.0134
3391.00,0.0134
3390.00,0.0133
3389.00,0.0133
3388.00,0.0133
3387.00,0.0132
3386.00,0.0132
3385.00,0.0132
3384.00,0.0132
3383.00,0.0132
3382.00,0.0132
3381.00,0.0132
3380.00,0.0133
3379.00,0.0133
3378.00,0.0133
3377.00,0.0133
3376.00,0.0132
3375.00,0.0132
3374.00,0.0131
3373.00,0.0131
3372.00,0.0132
3371.00,0.0132
3370.00,0.0132
3369.00,0.0133
3368.00,0.0133
3367.00,0.0133
3366.00,0.0133
3365.00,0.0133
3364.00,0.0133
3363.00,0.0133
3362.00,0.0133
3361.00,0.0133
3360.00,0.0133
3359.00,0.0132
3358.00,0.0132
3357.00,0.0132
3356.00,0.0132
3355.00,0.0132
3354.00,0.0132
3353.00,0.0132
3352.00,0.0132
3351.00,0.0132
3350.00,0.0132
3349.00,0.0131
3348.00,0.0131
3347.00,0.0131
3346.00,0.0131
3345.00,0.0131
3344.00,0.0131
3343.00,0.0130
3342.00,0.0130
3341.00,0.0130
3340.00,0.0130
3339.00,0.0130
3338.00,0.0130
3337.00,0.0130
3336.00,0.0130
3335.00,0.0129
3334.00,0.0129
3333.00,0.0128
3332.00,0.0128
3331.00,0.0128
3330.00,0.0127
3329.00,0.0127
3328.00,0.0127
3327.00,0.0127
3326.00,0.0127
3325.00,0.0127
3324.00,0.0126
3323.00,0.0125
3322.00,0.0125
3321.00,0.0125
3320.00,0.0125
3319.00,0.0125
3318.00,0.0125
3317.00,0.0125
3316.00,0.0125
3315.00,0.0124
3314.00,0.0124
3313.00,0.0124
3312.00,0.0124
3311.00,0.0123
3310.00,0.0123
3309.00,0.0123
3308.00,0.0123
3307.00,0.0123
3306.00,0.0124
3305.00,0.0124
3304.00,0.0124
3303.00,0.0123
3302.00,0.0123
3301.00,0.0123
3300.00,0.0122
3299.00,0.0122
3298.00,0.0122
3297.00,0.0121
3296.00,0.0121
3295.00,0.0120
3294.00,0.0119
3293.00,0.0118
3292.00,0.0118
3291.00,0.0118
3290.00,0.0117
3289.00,0.0117
3288.00,0.0116
3287.00,0.0116
3286.00,0.0115
3285.00,0.0114
3284.00,0.0114
3283.00,0.0114
3282.00,0.0114
3281.00,0.0114
3280.00,0.0114
3279.00,0.0113
3278.00,0.0113
3277.00,0.0112
3276.00,0.0111
3275.00,0.0110
3274.00,0.0110
3273.00,0.0109
3272.00,0.0108
3271.00,0.0108
3270.00,0.0108
3269.00,0.0107
3268.00,0.0107
3267.00,0.0107
3266.00,0.0107
3265.00,0.0106
3264.00,0.0106
3263.00,0.0106
3262.00,0.0105
3261.00,0.0105
3260.00,0.0105
3259.00,0.0105
3258.00,0.0104
3257.00,0.0104
3256.00,0.0104
3255.00,0.0103
3254.00,0.0102
3253.00,0.0102
3252.00,0.0101
3251.00,0.0101
3250.00,0.0101
3249.00,0.0100
3248.00,0.0100
3247.00,0.0099
3246.00,0.0098
3245.00,0.0097
3244.00,0.0097
3243.00,0.0096
3242.00,0.0095
3241.00,0.0095
3240.00,0.0096
3239.00,0.0096
3238.00,0.0096
3237.00,0.0096
3236.00,0.0096
3235.00,0.0095
3234.00,0.0095
3233.00,0.0095
3232.00,0.0095
3231.00,0.0094
3230.00,0.0094
3229.00,0.0094
3228.00,0.0094
3227.00,0.0094
3226.00,0.0094
3225.00,0.0094
3224.00,0.0094
3223.00,0.0094
3222.00,0.0093
3221.00,0.0093
3220.00,0.0093
3219.00,0.0093
3218.00,0.0092
3217.00,0.0092
3216.00,0.0092
3215.00,0.0092
3214.00,0.0093
3213.00,0.0093
3212.00,0.0093
3211.00,0.0093
3210.00,0.0092
3209.00,0.0092
3208.00,0.0092
3207.00,0.0092
3206.00,0.0092
3205.00,0.0092
3204.00,0.0093
3203.00,0.0093
3202.00,0.0093
3201.00,0.0092
3200.00,0.0092
3199.00,0.0092
3198.00,0.0091
3197.00,0.0091
3196.00,0.0091
3195.00,0.0091
3194.00,0.0091
3193.00,0.0091
3192.00,0.0090
3191.00,0.0090
3190.00,0.0090
3189.00,0.0089
3188.00,0.0089
3187.00,0.0088
3186.00,0.0088
3185.00,0.0088
3184.00,0.0088
3183.00,0.0088
3182.00,0.0087
3181.00,0.0086
3180.00,0.0086
3179.00,0.0085
3178.00,0.0085
3177.00,0.0084
3176.00,0.0084
3175.00,0.0084
3174.00,0.0084
3173.00,0.0083
3172.00,0.0083
3171.00,0.0082
3170.00,0.0082
3169.00,0.0081
3168.00,0.0081
3167.00,0.0080
3166.00,0.0080
3165.00,0.0079
3164.00,0.0079
3163.00,0.0079
3162.00,0.0079
3161.00,0.0078
3160.00,0.0078
3159.00,0.0078
3158.00,0.0078
3157.00,0.0077
3156.00,0.0077
3155.00,0.0076
3154.00,0.0076
3153.00,0.0076
3152.00,0.0075
3151.00,0.0075
3150.00,0.0075
3149.00,0.0075
3148.00,0.0074
3147.00,0.0074
3146.00,0.0074
3145.00,0.0073
3144.00,0.0072
3143.00,0.0072
3142.00,0.0071
3141.00,0.0071
3140.00,0.0071
3139.00,0.0071
3138.00,0.0071
3137.00,0.0070
3136.00,0.0070
3135.00,0.0070
3134.00,0.0069
3133.00,0.0068
3132.00,0.0068
3131.00,0.0067
3130.00,0.0067
3129.00,0.0067
3128.00,0.0067
3127.00,0.0066
3126.00,0.0066
3125.00,0.0066
3124.00,0.0065
3123.00,0.0064
3122.00,0.0063
3121.00,0.0063
3120.00,0.0063
3119.00,0.0062
3118.00,0.0062
3117.00,0.0062
3116.00,0.0061
3115.00,0.0061
3114.00,0.0060
3113.00,0.0060
3112.00,0.0059
3111.00,0.0059
3110.00,0.0059
3109.00,0.0058
3108.00,0.0058
3107.00,0.0058
3106.00,0.0058
3105.00,0.0058
3104.00,0.0058
3103.00,0.0058
3102.00,0.0057
3101.00,0.0057
3100.00,0.0056
3099.00,0.0056
3098.00,0.0056
3097.00,0.0056
3096.00,0.0056
3095.00,0.0056
3094.00,0.0055
3093.00,0.0055
3092.00,0.0054
3091.00,0.0054
3090.00,0.0054
3089.00,0.0054
3088.00,0.0054
3087.00,0.0054
3086.00,0.0053
3085.00,0.0053
3084.00,0.0053
3083.00,0.0053
3082.00,0.0052
3081.00,0.0052
3080.00,0.0052
3079.00,0.0052
3078.00,0.0052
3077.00,0.0052
3076.00,0.0052
3075.00,0.0052
3074.00,0.0053
3073.00,0.0053
3072.00,0.0053
3071.00,0.0053
3070.00,0.0053
3069.00,0.0053
3068.00,0.0054
3067.00,0.0054
3066.00,0.0055
3065.00,0.0055
3064.00,0.0055
3063.00,0.0056
3062.00,0.0056
3061.00,0.0055
3060.00,0.0055
3059.00,0.0054
3058.00,0.0054
3057.00,0.0054
3056.00,0.0054
3055.00,0.0054
3054.00,0.0055
3053.00,0.0055
3052.00,0.0054
3051.00,0.0054
3050.00,0.0054
3049.00,0.0054
3048.00,0.0055
3047.00,0.0055
3046.00,0.0056
3045.00,0.0056
3044.00,0.0056
3043.00,0.0057
3042.00,0.0057
3041.00,0.0057
3040.00,0.0058
3039.00,0.0058
3038.00,0.0058
3037.00,0.0059
3036.00,0.0059
3035.00,0.0059
3034.00,0.0060
3033.00,0.0060
3032.00,0.0061
3031.00,0.0062
3030.00,0.0063
3029.00,0.0064
3028.00,0.0065
3027.00,0.0065
3026.00,0.0065
3025.00,0.0065
3024.00,0.0065
3023.00,0.0065
3022.00,0.0066
3021.00,0.0066
3020.00,0.0067
3019.00,0.0067
3018.00,0.0067
3017.00,0.0068
3016.00,0.0069
3015.00,0.0069
3014.00,0.0070
3013.00,0.0071
3012.00,0.0071
3011.00,0.0072
3010.00,0.0073
3009.00,0.0073
3008.00,0.0074
3007.00,0.0074
3006.00,0.0075
3005.00,0.0076
3004.00,0.0076
3003.00,0.0077
3002.00,0.0078
3001.00,0.0080
3000.00,0.0081
2999.00,0.0083
2998.00,0.0085
2997.00,0.0088
2996.00,0.0091
2995.00,0.0094
2994.00,0.0098
2993.00,0.0102
2992.00,0.0106
2991.00,0.0111
2990.00,0.0117
2989.00,0.0123
2988.00,0.0130
2987.00,0.0137
2986.00,0.0144
2985.00,0.0152
2984.00,0.0160
2983.00,0.0170
2982.00,0.0183
2981.00,0.0198
2980.00,0.0217
2979.00,0.0238
2978.00,0.0263
2977.00,0.0290
2976.00,0.0320
2975.00,0.0354
2974.00,0.0392
2973.00,0.0436
2972.00,0.0485
2971.00,0.0541
2970.00,0.0604
2969.00,0.0673
2968.00,0.0748
2967.00,0.0828
2966.00,0.0911
2965.00,0.0997
2964.00,0.1082
2963.00,0.1161
2962.00,0.1231
2961.00,0.1289
2960.00,0.1334
2959.00,0.1369
2958.00,0.1399
2957.00,0.1430
2956.00,0.1467
2955.00,0.1514
2954.00,0.1568
2953.00,0.1626
2952.00,0.1678
2951.00,0.1713
2950.00,0.1723
2949.00,0.1701
2948.00,0.1646
2947.00,0.1563
2946.00,0.1464
2945.00,0.1360
2944.00,0.1262
2943.00,0.1179
2942.00,0.1116
2941.00,0.1074
2940.00,0.1053
2939.00,0.1051
2938.00,0.1067
2937.00,0.1098
2936.00,0.1143
2935.00,0.1201
2934.00,0.1271
2933.00,0.1352
2932.00,0.1442
2931.00,0.1541
2930.00,0.1645
2929.00,0.1753
2928.00,0.1860
2927.00,0.1965
2926.00,0.2066
2925.00,0.2161
2924.00,0.2253
2923.00,0.2341
2922.00,0.2427
2921.00,0.2507
2920.00,0.2575
2919.00,0.2623
2918.00,0.2641
2917.00,0.2625
2916.00,0.2575
2915.00,0.2496
2914.00,0.2400
2913.00,0.2297
2912.00,0.2196
2911.00,0.2104
2910.00,0.2023
2909.00,0.1950
2908.00,0.1885
2907.00,0.1823
2906.00,0.1763
2905.00,0.1702
2904.00,0.1641
2903.00,0.1579
2902.00,0.1517
2901.00,0.1457
2900.00,0.1398
2899.00,0.1341
2898.00,0.1288
2897.00,0.1240
2896.00,0.1196
2895.00,0.1157
2894.00,0.1123
2893.00,0.1095
2892.00,0.1071
2891.00,0.1053
2890.00,0.1039
2889.00,0.1030
2888.00,0.1024
2887.00,0.1021
2886.00,0.1022
2885.00,0.1025
2884.00,0.1032
2883.00,0.1044
2882.00,0.1059
2881.00,0.1077
2880.00,0.1095
2879.00,0.1110
2878.00,0.1121
2877.00,0.1125
2876.00,0.1123
2875.00,0.1119
2874.00,0.1116
2873.00,0.1117
2872.00,0.1124
2871.00,0.1137
2870.00,0.1154
2869.00,0.1172
2868.00,0.1184
2867.00,0.1185
2866.00,0.1170
2865.00,0.1136
2864.00,0.1088
2863.00,0.1032
2862.00,0.0977
2861.00,0.0929
2860.00,0.0894
2859.00,0.0871
2858.00,0.0862
2857.00,0.0862
2856.00,0.0870
2855.00,0.0883
2854.00,0.0897
2853.00,0.0912
2852.00,0.0925
2851.00,0.0934
2850.00,0.0938
2849.00,0.0936
2848.00,0.0933
2847.00,0.0932
2846.00,0.0939
2845.00,0.0957
2844.00,0.0985
2843.00,0.1021
2842.00,0.1061
2841.00,0.1099
2840.00,0.1128
2839.00,0.1141
2838.00,0.1132
2837.00,0.1097
2836.00,0.1037
2835.00,0.0957
2834.00,0.0865
2833.00,0.0769
2832.00,0.0678
2831.00,0.0597
2830.00,0.0527
2829.00,0.0470
2828.00,0.0424
2827.00,0.0386
2826.00,0.0355
2825.00,0.0329
2824.00,0.0307
2823.00,0.0288
2822.00,0.0272
2821.00,0.0259
2820.00,0.0247
2819.00,0.0236
2818.00,0.0227
2817.00,0.0218
2816.00,0.0211
2815.00,0.0205
2814.00,0.0199
2813.00,0.0193
2812.00,0.0188
2811.00,0.0182
2810.00,0.0177
2809.00,0.0171
2808.00,0.0165
2807.00,0.0160
2806.00,0.0154
2805.00,0.0147
2804.00,0.0141
2803.00,0.0135
2802.00,0.0130
2801.00,0.0126
2800.00,0.0123
2799.00,0.0120
2798.00,0.0118
2797.00,0.0115
2796.00,0.0113
2795.00,0.0111
2794.00,0.0108
2793.00,0.0105
2792.00,0.0102
2791.00,0.0099
2790.00,0.0096
2789.00,0.0092
2788.00,0.0089
2787.00,0.0086
2786.00,0.0084
2785.00,0.0081
2784.00,0.0079
2783.00,0.0077
2782.00,0.0075
2781.00,0.0073
2780.00,0.0072
2779.00,0.0070
2778.00,0.0068
2777.00,0.0067
2776.00,0.0066
2775.00,0.0064
2774.00,0.0063
2773.00,0.0062
2772.00,0.0062
2771.00,0.0061
2770.00,0.0061
2769.00,0.0061
2768.00,0.0061
2767.00,0.0060
2766.00,0.0060
2765.00,0.0059
2764.00,0.0059
2763.00,0.0058
2762.00,0.0058
2761.00,0.0057
2760.00,0.0057
2759.00,0.0057
2758.00,0.0057
2757.00,0.0057
2756.00,0.0056
2755.00,0.0056
2754.00,0.0056
2753.00,0.0055
2752.00,0.0055
2751.00,0.0055
2750.00,0.0055
2749.00,0.0055
2748.00,0.0055
2747.00,0.0056
2746.00,0.0056
2745.00,0.0057
2744.00,0.0057
2743.00,0.0058
2742.00,0.0059
2741.00,0.0059
2740.00,0.0060
2739.00,0.0061
2738.00,0.0062
2737.00,0.0063
2736.00,0.0065
2735.00,0.0066
2734.00,0.0067
2733.00,0.0068
2732.00,0.0069
2731.00,0.0071
2730.00,0.0072
2729.00,0.0074
2728.00,0.0076
2727.00,0.0079
2726.00,0.0081
2725.00,0.0083
2724.00,0.0085
2723.00,0.0085
2722.00,0.0085
2721.00,0.0083
2720.00,0.0081
2719.00,0.0079
2718.00,0.0076
2717.00,0.0072
2716.00,0.0070
2715.00,0.0067
2714.00,0.0065
2713.00,0.0063
2712.00,0.0061
2711.00,0.0059
2710.00,0.0058
2709.00,0.0057
2708.00,0.0055
2707.00,0.0054
2706.00,0.0053
2705.00,0.0052
2704.00,0.0051
2703.00,0.0050
2702.00,0.0050
2701.00,0.0049
2700.00,0.0048
2699.00,0.0047
2698.00,0.0047
2697.00,0.0047
2696.00,0.0047
2695.00,0.0047
2694.00,0.0047
2693.00,0.0047
2692.00,0.0047
2691.00,0.0047
2690.00,0.0047
2689.00,0.0047
2688.00,0.0047
2687.00,0.0047
2686.00,0.0047
2685.00,0.0047
2684.00,0.0046
2683.00,0.0046
2682.00,0.0047
2681.00,0.0047
2680.00,0.0047
2679.00,0.0047
2678.00,0.0047
2677.00,0.0047
2676.00,0.0047
2675.00,0.0047
2674.00,0.0047
2673.00,0.0046
2672.00,0.0046
2671.00,0.0046
2670.00,0.0046
2669.00,0.0046
2668.00,0.0046
2667.00,0.0046
2666.00,0.0046
2665.00,0.0046
2664.00,0.0047
2663.00,0.0047
2662.00,0.0048
2661.00,0.0048
2660.00,0.0048
2659.00,0.0048
2658.00,0.0048
2657.00,0.0047
2656.00,0.0047
2655.00,0.0047
2654.00,0.0046
2653.00,0.0046
2652.00,0.0045
2651.00,0.0045
2650.00,0.0045
2649.00,0.0044
2648.00,0.0044
2647.00,0.0043
2646.00,0.0043
2645.00,0.0043
2644.00,0.0043
2643.00,0.0042
2642.00,0.0041
2641.00,0.0041
2640.00,0.0040
2639.00,0.0040
2638.00,0.0040
2637.00,0.0040
2636.00,0.0039
2635.00,0.0039
2634.00,0.0039
2633.00,0.0038
2632.00,0.0038
2631.00,0.0038
2630.00,0.0038
2629.00,0.0039
2628.00,0.0039
2627.00,0.0040
2626.00,0.0041
2625.00,0.0041
2624.00,0.0041
2623.00,0.0040
2622.00,0.0040
2621.00,0.0040
2620.00,0.0039
2619.00,0.0039
2618.00,0.0040
2617.00,0.0040
2616.00,0.0040
2615.00,0.0040
2614.00,0.0040
2613.00,0.0039
2612.00,0.0039
2611.00,0.0038
2610.00,0.0037
2609.00,0.0037
2608.00,0.0036
2607.00,0.0035
2606.00,0.0035
2605.00,0.0034
2604.00,0.0033
2603.00,0.0033
2602.00,0.0032
2601.00,0.0033
2600.00,0.0033
2599.00,0.0033
2598.00,0.0033
2597.00,0.0033
2596.00,0.0033
2595.00,0.0033
2594.00,0.0033
2593.00,0.0033
2592.00,0.0033
2591.00,0.0034
2590.00,0.0034
2589.00,0.0035
2588.00,0.0035
2587.00,0.0036
2586.00,0.0037
2585.00,0.0037
2584.00,0.0038
2583.00,0.0038
2582.00,0.0038
2581.00,0.0037
2580.00,0.0036
2579.00,0.0035
2578.00,0.0034
2577.00,0.0034
2576.00,0.0033
2575.00,0.0032
2574.00,0.0031
2573.00,0.0029
2572.00,0.0028
2571.00,0.0028
2570.00,0.0028
2569.00,0.0027
2568.00,0.0026
2567.00,0.0026
2566.00,0.0025
2565.00,0.0025
2564.00,0.0024
2563.00,0.0024
2562.00,0.0023
2561.00,0.0023
2560.00,0.0024
2559.00,0.0024
2558.00,0.0024
2557.00,0.0023
2556.00,0.0023
2555.00,0.0022
2554.00,0.0021
2553.00,0.0021
2552.00,0.0020
2551.00,0.0020
2550.00,0.0020
2549.00,0.0020
2548.00,0.0020
2547.00,0.0020
2546.00,0.0020
2545.00,0.0019
2544.00,0.0019
2543.00,0.0019
2542.00,0.0018
2541.00,0.0018
2540.00,0.0018
2539.00,0.0017
2538.00,0.0017
2537.00,0.0016
2536.00,0.0017
2535.00,0.0017
2534.00,0.0018
2533.00,0.0018
2532.00,0.0017
2531.00,0.0017
2530.00,0.0016
2529.00,0.0016
2528.00,0.0015
2527.00,0.0014
2526.00,0.0014
2525.00,0.0014
2524.00,0.0014
2523.00,0.0014
2522.00,0.0014
2521.00,0.0014
2520.00,0.0014
2519.00,0.0013
2518.00,0.0013
2517.00,0.0013
2516.00,0.0013
2515.00,0.0012
2514.00,0.0012
2513.00,0.0012
2512.00,0.0012
2511.00,0.0012
2510.00,0.0012
2509.00,0.0012
2508.00,0.0012
2507.00,0.0012
2506.00,0.0012
2505.00,0.0011
2504.00,0.0011
2503.00,0.0010
2502.00,0.0010
2501.00,0.0010
2500.00,0.0010
2499.00,0.0011
2498.00,0.0011
2497.00,0.0011
2496.00,0.0011
2495.00,0.0011
2494.00,0.0011
2493.00,0.0011
2492.00,0.0011
2491.00,0.0011
2490.00,0.0011
2489.00,0.0011
2488.00,0.0011
2487.00,0.0012
2486.00,0.0012
2485.00,0.0012
2484.00,0.0011
2483.00,0.0010
2482.00,0.0009
2481.00,0.0009
2480.00,0.0009
2479.00,0.0010
2478.00,0.0010
2477.00,0.0010
2476.00,0.0010
2475.00,0.0009
2474.00,0.0009
2473.00,0.0009
2472.00,0.0009
2471.00,0.0009
2470.00,0.0010
2469.00,0.0010
2468.00,0.0009
2467.00,0.0009
2466.00,0.0009
2465.00,0.0009
2464.00,0.0010
2463.00,0.0011
2462.00,0.0011
2461.00,0.0011
2460.00,0.0011
2459.00,0.0011
2458.00,0.0011
2457.00,0.0011
2456.00,0.0011
2455.00,0.0011
2454.00,0.0010
2453.00,0.0010
2452.00,0.0010
2451.00,0.0010
2450.00,0.0010
2449.00,0.0010
2448.00,0.0010
2447.00,0.0009
2446.00,0.0009
2445.00,0.0009
2444.00,0.0009
2443.00,0.0009
2442.00,0.0010
2441.00,0.0010
2440.00,0.0010
2439.00,0.0011
2438.00,0.0011
2437.00,0.0011
2436.00,0.0011
2435.00,0.0011
2434.00,0.0012
2433.00,0.0012
2432.00,0.0012
2431.00,0.0012
2430.00,0.0011
2429.00,0.0011
2428.00,0.0011
2427.00,0.0011
2426.00,0.0011
2425.00,0.0011
2424.00,0.0010
2423.00,0.0010
2422.00,0.0009
2421.00,0.0009
2420.00,0.0009
2419.00,0.0009
2418.00,0.0010
2417.00,0.0011
2416.00,0.0011
2415.00,0.0011
2414.00,0.0011
2413.00,0.0012
2412.00,0.0012
2411.00,0.0011
2410.00,0.0010
2409.00,0.0009
2408.00,0.0008
2407.00,0.0008
2406.00,0.0008
2405.00,0.0007
2404.00,0.0007
2403.00,0.0007
2402.00,0.0007
2401.00,0.0007
2400.00,0.0008
2399.00,0.0009
2398.00,0.0009
2397.00,0.0009
2396.00,0.0009
2395.00,0.0008
2394.00,0.0008
2393.00,0.0007
2392.00,0.0008
2391.00,0.0008
2390.00,0.0008
2389.00,0.0007
2388.00,0.0007
2387.00,0.0007
2386.00,0.0007
2385.00,0.0006
2384.00,0.0005
2383.00,0.0004
2382.00,0.0003
2381.00,0.0002
2380.00,0.0001
2379.00,0.0001
2378.00,0.0001
2377.00,0.0001
2376.00,0.0002
2375.00,0.0003
2374.00,0.0004
2373.00,0.0005
2372.00,0.0005
2371.00,0.0004
2370.00,0.0004
2369.00,0.0003
2368.00,0.0003
2367.00,0.0002
2366.00,0.0002
2365.00,0.0002
2364.00,0.0002
2363.00,0.0003
2362.00,0.0003
2361.00,0.0004
2360.00,0.0005
2359.00,0.0005
2358.00,0.0006
2357.00,0.0006
2356.00,0.0006
2355.00,0.0005
2354.00,0.0005
2353.00,0.0004
2352.00,0.0004
2351.00,0.0005
2350.00,0.0005
2349.00,0.0006
2348.00,0.0006
2347.00,0.0006
2346.00,0.0006
2345.00,0.0006
2344.00,0.0007
2343.00,0.0008
2342.00,0.0008
2341.00,0.0008
2340.00,0.0008
2339.00,0.0008
2338.00,0.0008
2337.00,0.0008
2336.00,0.0008
2335.00,0.0009
2334.00,0.0008
2333.00,0.0008
2332.00,0.0007
2331.00,0.0007
2330.00,0.0007
2329.00,0.0007
2328.00,0.0009
2327.00,0.0012
2326.00,0.0016
2325.00,0.0019
2324.00,0.0020
2323.00,0.0019
2322.00,0.0017
2321.00,0.0014
2320.00,0.0012
2319.00,0.0011
2318.00,0.0010
2317.00,0.0010
2316.00,0.0009
2315.00,0.0008
2314.00,0.0007
2313.00,0.0006
2312.00,0.0005
2311.00,0.0005
2310.00,0.0005
2309.00,0.0005
2308.00,0.0006
2307.00,0.0006
2306.00,0.0007
2305.00,0.0007
2304.00,0.0008
2303.00,0.0008
2302.00,0.0009
2301.00,0.0009
2300.00,0.0009
2299.00,0.0010
2298.00,0.0010
2297.00,0.0010
2296.00,0.0010
2295.00,0.0011
2294.00,0.0011
2293.00,0.0012
2292.00,0.0014
2291.00,0.0015
2290.00,0.0016
2289.00,0.0016
2288.00,0.0017
2287.00,0.0017
2286.00,0.0017
2285.00,0.0017
2284.00,0.0016
2283.00,0.0015
2282.00,0.0014
2281.00,0.0013
2280.00,0.0014
2279.00,0.0015
2278.00,0.0015
2277.00,0.0016
2276.00,0.0015
2275.00,0.0015
2274.00,0.0015
2273.00,0.0015
2272.00,0.0015
2271.00,0.0015
2270.00,0.0015
2269.00,0.0015
2268.00,0.0014
2267.00,0.0013
2266.00,0.0012
2265.00,0.0011
2264.00,0.0010
2263.00,0.0010
2262.00,0.0010
2261.00,0.0011
2260.00,0.0012
2259.00,0.0014
2258.00,0.0015
2257.00,0.0015
2256.00,0.0014
2255.00,0.0013
2254.00,0.0012
2253.00,0.0011
2252.00,0.0010
2251.00,0.0009
2250.00,0.0008
2249.00,0.0007
2248.00,0.0008
2247.00,0.0009
2246.00,0.0009
2245.00,0.0010
2244.00,0.0010
2243.00,0.0011
2242.00,0.0012
2241.00,0.0012
2240.00,0.0013
2239.00,0.0012
2238.00,0.0011
2237.00,0.0010
2236.00,0.0009
2235.00,0.0008
2234.00,0.0008
2233.00,0.0008
2232.00,0.0008
2231.00,0.0008
2230.00,0.0008
2229.00,0.0009
2228.00,0.0010
2227.00,0.0010
2226.00,0.0010
2225.00,0.0008
2224.00,0.0007
2223.00,0.0007
2222.00,0.0008
2221.00,0.0008
2220.00,0.0007
2219.00,0.0005
2218.00,0.0004
2217.00,0.0004
2216.00,0.0005
2215.00,0.0005
2214.00,0.0006
2213.00,0.0006
2212.00,0.0006
2211.00,0.0004
2210.00,0.0002
2209.00,0.0001
2208.00,0.0002
2207.00,0.0003
2206.00,0.0004
2205.00,0.0006
2204.00,0.0008
2203.00,0.0010
2202.00,0.0010
2201.00,0.0010
2200.00,0.0011
2199.00,0.0012
2198.00,0.0013
2197.00,0.0014
2196.00,0.0013
2195.00,0.0012
2194.00,0.0010
2193.00,0.0009
2192.00,0.0008
2191.00,0.0007
2190.00,0.0006
2189.00,0.0007
2188.00,0.0009
2187.00,0.0011
2186.00,0.0013
2185.00,0.0012
2184.00,0.0010
2183.00,0.0007
2182.00,0.0005
2181.00,0.0004
2180.00,0.0005
2179.00,0.0006
2178.00,0.0006
2177.00,0.0005
2176.00,0.0004
2175.00,0.0004
2174.00,0.0005
2173.00,0.0009
2172.00,0.0013
2171.00,0.0016
2170.00,0.0018
2169.00,0.0019
2168.00,0.0017
2167.00,0.0015
2166.00,0.0014
2165.00,0.0015
2164.00,0.0018
2163.00,0.0021
2162.00,0.0020
2161.00,0.0016
2160.00,0.0006
2159.00,-0.0007
2158.00,-0.0019
2157.00,-0.0026
2156.00,-0.0028
2155.00,-0.0026
2154.00,-0.0022
2153.00,-0.0017
2152.00,-0.0014
2151.00,-0.0013
2150.00,-0.0012
2149.00,-0.0012
2148.00,-0.0010
2147.00,-0.0009
2146.00,-0.0007
2145.00,-0.0005
2144.00,-0.0005
2143.00,-0.0007
2142.00,-0.0009
2141.00,-0.0011
2140.00,-0.0012
2139.00,-0.0013
2138.00,-0.0014
2137.00,-0.0014
2136.00,-0.0014
2135.00,-0.0015
2134.00,-0.0014
2133.00,-0.0014
2132.00,-0.0013
2131.00,-0.0012
2130.00,-0.0012
2129.00,-0.0011
2128.00,-0.0011
2127.00,-0.0010
2126.00,-0.0009
2125.00,-0.0007
2124.00,-0.0004
2123.00,-0.0002
2122.00,-0.0001
2121.00,-0.0002
2120.00,-0.0002
2119.00,-0.0002
2118.00,-0.0001
2117.00,0.0001
2116.00,0.0002
2115.00,0.0003
2114.00,0.0004
2113.00,0.0005
2112.00,0.0005
2111.00,0.0005
2110.00,0.0005
2109.00,0.0006
2108.00,0.0007
2107.00,0.0006
2106.00,0.0005
2105.00,0.0003
2104.00,0.0003
2103.00,0.0003
2102.00,0.0003
2101.00,0.0003
2100.00,0.0003
2099.00,0.0004
2098.00,0.0004
2097.00,0.0003
2096.00,0.0003
2095.00,0.0001
2094.00,-0.0000
2093.00,-0.0001
2092.00,-0.0000
2091.00,0.0001
2090.00,0.0002
2089.00,0.0002
2088.00,0.0003
2087.00,0.0003
2086.00,0.0004
2085.00,0.0004
2084.00,0.0004
2083.00,0.0004
2082.00,0.0003
2081.00,0.0003
2080.00,0.0002
2079.00,0.0003
2078.00,0.0004
2077.00,0.0005
2076.00,0.0005
2075.00,0.0005
2074.00,0.0005
2073.00,0.0004
2072.00,0.0003
2071.00,0.0000
2070.00,-0.0002
2069.00,-0.0002
2068.00,-0.0002
2067.00,-0.0001
2066.00,0.0001
2065.00,0.0002
2064.00,0.0003
2063.00,0.0003
2062.00,0.0003
2061.00,0.0003
2060.00,0.0003
2059.00,0.0004
2058.00,0.0003
2057.00,0.0002
2056.00,-0.0001
2055.00,-0.0002
2054.00,0.0001
2053.00,0.0006
2052.00,0.0013
2051.00,0.0018
2050.00,0.0020
2049.00,0.0017
2048.00,0.0011
2047.00,0.0006
2046.00,0.0004
2045.00,0.0005
2044.00,0.0007
2043.00,0.0008
2042.00,0.0007
2041.00,0.0005
2040.00,0.0002
2039.00,0.0001
2038.00,0.0001
2037.00,0.0002
2036.00,0.0002
2035.00,0.0001
2034.00,-0.0001
2033.00,-0.0003
2032.00,-0.0006
2031.00,-0.0007
2030.00,-0.0007
2029.00,-0.0005
2028.00,-0.0001
2027.00,0.0002
2026.00,0.0001
2025.00,-0.0002
2024.00,-0.0006
2023.00,-0.0010
2022.00,-0.0013
2021.00,-0.0014
2020.00,-0.0015
2019.00,-0.0015
2018.00,-0.0014
2017.00,-0.0010
2016.00,-0.0005
2015.00,-0.0003
2014.00,-0.0004
2013.00,-0.0008
2012.00,-0.0011
2011.00,-0.0013
2010.00,-0.0014
2009.00,-0.0016
2008.00,-0.0017
2007.00,-0.0018
2006.00,-0.0018
2005.00,-0.0016
2004.00,-0.0014
2003.00,-0.0013
2002.00,-0.0012
2001.00,-0.0013
2000.00,-0.0013
1999.00,-0.0013
1998.00,-0.0012
1997.00,-0.0011
1996.00,-0.0010
1995.00,-0.0010
1994.00,-0.0011
1993.00,-0.0011
1992.00,-0.0009
1991.00,-0.0006
1990.00,-0.0002
1989.00,0.0001
1988.00,0.0003
1987.00,0.0004
1986.00,0.0005
1985.00,0.0005
1984.00,0.0006
1983.00,0.0006
1982.00,0.0007
1981.00,0.0010
1980.00,0.0013
1979.00,0.0013
1978.00,0.0008
1977.00,-0.0001
1976.00,-0.0009
1975.00,-0.0014
1974.00,-0.0016
1973.00,-0.0015
1972.00,-0.0013
1971.00,-0.0013
1970.00,-0.0013
1969.00,-0.0013
1968.00,-0.0012
1967.00,-0.0011
1966.00,-0.0011
1965.00,-0.0012
1964.00,-0.0014
1963.00,-0.0015
1962.00,-0.0016
1961.00,-0.0017
1960.00,-0.0020
1959.00,-0.0023
1958.00,-0.0025
1957.00,-0.0024
1956.00,-0.0021
1955.00,-0.0018
1954.00,-0.0015
1953.00,-0.0014
1952.00,-0.0015
1951.00,-0.0016
1950.00,-0.0016
1949.00,-0.0016
1948.00,-0.0015
1947.00,-0.0014
1946.00,-0.0014
1945.00,-0.0014
1944.00,-0.0014
1943.00,-0.0015
1942.00,-0.0015
1941.00,-0.0014
1940.00,-0.0012
1939.00,-0.0010
1938.00,-0.0008
1937.00,-0.0007
1936.00,-0.0006
1935.00,-0.0006
1934.00,-0.0007
1933.00,-0.0007
1932.00,-0.0008
1931.00,-0.0009
1930.00,-0.0008
1929.00,-0.0006
1928.00,-0.0005
1927.00,-0.0005
1926.00,-0.0006
1925.00,-0.0007
1924.00,-0.0007
1923.00,-0.0006
1922.00,-0.0004
1921.00,-0.0002
1920.00,-0.0000
1919.00,-0.0000
1918.00,-0.0001
1917.00,-0.0002
1916.00,-0.0002
1915.00,-0.0003
1914.00,-0.0003
1913.00,-0.0003
1912.00,-0.0003
1911.00,-0.0003
1910.00,-0.0003
1909.00,-0.0002
1908.00,-0.0001
1907.00,-0.0000
1906.00,0.0000
1905.00,-0.0000
1904.00,-0.0001
1903.00,-0.0002
1902.00,-0.0003
1901.00,-0.0003
1900.00,-0.0003
1899.00,-0.0002
1898.00,-0.0002
1897.00,-0.0001
1896.00,0.0000
1895.00,0.0000
1894.00,-0.0000
1893.00,-0.0001
1892.00,-0.0000
1891.00,-0.0000
1890.00,-0.0001
1889.00,-0.0001
1888.00,-0.0001
1887.00,-0.0001
1886.00,-0.0001
1885.00,-0.0000
1884.00,-0.0000
1883.00,-0.0001
1882.00,-0.0001
1881.00,-0.0001
1880.00,-0.0002
1879.00,-0.0002
1878.00,-0.0003
1877.00,-0.0004
1876.00,-0.0004
1875.00,-0.0004
1874.00,-0.0004
1873.00,-0.0003
1872.00,-0.0002
1871.00,-0.0002
1870.00,-0.0003
1869.00,-0.0002
1868.00,-0.0001
1867.00,-0.0000
1866.00,0.0000
1865.00,0.0000
1864.00,0.0000
1863.00,0.0001
1862.00,0.0001
1861.00,0.0001
1860.00,0.0001
1859.00,0.0001
1858.00,0.0001
1857.00,0.0002
1856.00,0.0002
1855.00,0.0002
1854.00,0.0002
1853.00,0.0003
1852.00,0.0003
1851.00,0.0003
1850.00,0.0002
1849.00,0.0002
1848.00,0.0001
1847.00,-0.0000
1846.00,-0.0001
1845.00,-0.0000
1844.00,0.0001
1843.00,0.0001
1842.00,0.0002
1841.00,0.0003
1840.00,0.0003
1839.00,0.0003
1838.00,0.0003
1837.00,0.0003
1836.00,0.0003
1835.00,0.0003
1834.00,0.0003
1833.00,0.0003
1832.00,0.0004
1831.00,0.0004
1830.00,0.0004
1829.00,0.0004
1828.00,0.0004
1827.00,0.0004
1826.00,0.0004
1825.00,0.0004
1824.00,0.0004
1823.00,0.0004
1822.00,0.0003
1821.00,0.0003
1820.00,0.0002
1819.00,0.0001
1818.00,-0.0000
1817.00,-0.0001
1816.00,-0.0000
1815.00,0.0001
1814.00,0.0002
1813.00,0.0004
1812.00,0.0004
1811.00,0.0005
1810.00,0.0005
1809.00,0.0005
1808.00,0.0005
1807.00,0.0005
1806.00,0.0005
1805.00,0.0005
1804.00,0.0005
1803.00,0.0006
1802.00,0.0006
1801.00,0.0007
1800.00,0.0007
1799.00,0.0007
1798.00,0.0007
1797.00,0.0007
1796.00,0.0008
1795.00,0.0008
1794.00,0.0008
1793.00,0.0008
1792.00,0.0008
1791.00,0.0008
1790.00,0.0009
1789.00,0.0009
1788.00,0.0009
1787.00,0.0009
1786.00,0.0009
1785.00,0.0010
1784.00,0.0010
1783.00,0.0011
1782.00,0.0011
1781.00,0.0012
1780.00,0.0011
1779.00,0.0011
1778.00,0.0011
1777.00,0.0012
1776.00,0.0012
1775.00,0.0013
1774.00,0.0013
1773.00,0.0014
1772.00,0.0014
1771.00,0.0015
1770.00,0.0015
1769.00,0.0016
1768.00,0.0017
1767.00,0.0017
1766.00,0.0018
1765.00,0.0019
1764.00,0.0020
1763.00,0.0020
1762.00,0.0021
1761.00,0.0021
1760.00,0.0022
1759.00,0.0023
1758.00,0.0023
1757.00,0.0024
1756.00,0.0025
1755.00,0.0026
1754.00,0.0028
1753.00,0.0029
1752.00,0.0030
1751.00,0.0030
1750.00,0.0031
1749.00,0.0032
1748.00,0.0033
1747.00,0.0034
1746.00,0.0035
1745.00,0.0036
1744.00,0.0036
1743.00,0.0037
1742.00,0.0037
1741.00,0.0038
1740.00,0.0039
1739.00,0.0040
1738.00,0.0040
1737.00,0.0041
1736.00,0.0040
1735.00,0.0039
1734.00,0.0038
1733.00,0.0037
1732.00,0.0037
1731.00,0.0038
1730.00,0.0038
1729.00,0.0039
1728.00,0.0039
1727.00,0.0039
1726.00,0.0038
1725.00,0.0039
1724.00,0.0039
1723.00,0.0039
1722.00,0.0039
1721.00,0.0040
1720.00,0.0040
1719.00,0.0039
1718.00,0.0037
1717.00,0.0036
1716.00,0.0036
1715.00,0.0036
1714.00,0.0036
1713.00,0.0035
1712.00,0.0035
1711.00,0.0035
1710.00,0.0035
1709.00,0.0034
1708.00,0.0034
1707.00,0.0034
1706.00,0.0035
1705.00,0.0035
1704.00,0.0036
1703.00,0.0036
1702.00,0.0037
1701.00,0.0037
1700.00,0.0037
1699.00,0.0038
1698.00,0.0038
1697.00,0.0039
1696.00,0.0040
1695.00,0.0040
1694.00,0.0041
1693.00,0.0043
1692.00,0.0045
1691.00,0.0046
1690.00,0.0047
1689.00,0.0048
1688.00,0.0049
1687.00,0.0050
1686.00,0.0051
1685.00,0.0054
1684.00,0.0058
1683.00,0.0061
1682.00,0.0064
1681.00,0.0066
1680.00,0.0068
1679.00,0.0070
1678.00,0.0071
1677.00,0.0072
1676.00,0.0074
1675.00,0.0076
1674.00,0.0078
1673.00,0.0080
1672.00,0.0082
1671.00,0.0084
1670.00,0.0086
1669.00,0.0088
1668.00,0.0089
1667.00,0.0090
1666.00,0.0090
1665.00,0.0091
1664.00,0.0093
1663.00,0.0094
1662.00,0.0095
1661.00,0.0096
1660.00,0.0096
1659.00,0.0096
1658.00,0.0097
1657.00,0.0097
1656.00,0.0098
1655.00,0.0098
1654.00,0.0101
1653.00,0.0105
1652.00,0.0107
1651.00,0.0108
1650.00,0.0109
1649.00,0.0111
1648.00,0.0113
1647.00,0.0116
1646.00,0.0117
1645.00,0.0118
1644.00,0.0118
1643.00,0.0118
1642.00,0.0119
1641.00,0.0119
1640.00,0.0120
1639.00,0.0121
1638.00,0.0122
1637.00,0.0123
1636.00,0.0124
1635.00,0.0124
1634.00,0.0123
1633.00,0.0122
1632.00,0.0121
1631.00,0.0120
1630.00,0.0120
1629.00,0.0119
1628.00,0.0119
1627.00,0.0118
1626.00,0.0117
1625.00,0.0116
1624.00,0.0116
1623.00,0.0115
1622.00,0.0114
1621.00,0.0114
1620.00,0.0113
1619.00,0.0112
1618.00,0.0112
1617.00,0.0111
1616.00,0.0112
1615.00,0.0112
1614.00,0.0112
1613.00,0.0112
1612.00,0.0112
1611.00,0.0111
1610.00,0.0111
1609.00,0.0111
1608.00,0.0111
1607.00,0.0111
1606.00,0.0110
1605.00,0.0110
1604.00,0.0109
1603.00,0.0109
1602.00,0.0108
1601.00,0.0108
1600.00,0.0107
1599.00,0.0107
1598.00,0.0106
1597.00,0.0105
1596.00,0.0105
1595.00,0.0104
1594.00,0.0104
1593.00,0.0104
1592.00,0.0104
1591.00,0.0103
1590.00,0.0102
1589.00,0.0102
1588.00,0.0101
1587.00,0.0101
1586.00,0.0101
1585.00,0.0101
1584.00,0.0102
1583.00,0.0102
1582.00,0.0102
1581.00,0.0103
1580.00,0.0104
1579.00,0.0104
1578.00,0.0104
1577.00,0.0104
1576.00,0.0105
1575.00,0.0106
1574.00,0.0106
1573.00,0.0107
1572.00,0.0107
1571.00,0.0107
1570.00,0.0108
1569.00,0.0110
1568.00,0.0111
1567.00,0.0111
1566.00,0.0112
1565.00,0.0112
1564.00,0.0113
1563.00,0.0114
1562.00,0.0114
1561.00,0.0115
1560.00,0.0117
1559.00,0.0121
1558.00,0.0124
1557.00,0.0125
1556.00,0.0125
1555.00,0.0126
1554.00,0.0127
1553.00,0.0128
1552.00,0.0129
1551.00,0.0130
1550.00,0.0130
1549.00,0.0131
1548.00,0.0131
1547.00,0.0131
1546.00,0.0130
1545.00,0.0130
1544.00,0.0130
1543.00,0.0129
1542.00,0.0126
1541.00,0.0124
1540.00,0.0121
1539.00,0.0118
1538.00,0.0114
1537.00,0.0112
1536.00,0.0110
1535.00,0.0107
1534.00,0.0104
1533.00,0.0100
1532.00,0.0098
1531.00,0.0095
1530.00,0.0093
1529.00,0.0091
1528.00,0.0090
1527.00,0.0088
1526.00,0.0087
1525.00,0.0086
1524.00,0.0085
1523.00,0.0084
1522.00,0.0082
1521.00,0.0082
1520.00,0.0083
1519.00,0.0084
1518.00,0.0084
1517.00,0.0085
1516.00,0.0084
1515.00,0.0083
1514.00,0.0082
1513.00,0.0082
1512.00,0.0083
1511.00,0.0084
1510.00,0.0084
1509.00,0.0085
1508.00,0.0087
1507.00,0.0088
1506.00,0.0089
1505.00,0.0089
1504.00,0.0091
1503.00,0.0093
1502.00,0.0095
1501.00,0.0099
1500.00,0.0103
1499.00,0.0108
1498.00,0.0112
1497.00,0.0117
1496.00,0.0122
1495.00,0.0127
1494.00,0.0131
1493.00,0.0136
1492.00,0.0141
1491.00,0.0147
1490.00,0.0153
1489.00,0.0160
1488.00,0.0167
1487.00,0.0173
1486.00,0.0177
1485.00,0.0183
1484.00,0.0189
1483.00,0.0195
1482.00,0.0203
1481.00,0.0213
1480.00,0.0224
1479.00,0.0235
1478.00,0.0250
1477.00,0.0269
1476.00,0.0294
1475.00,0.0324
1474.00,0.0363
1473.00,0.0420
1472.00,0.0488
1471.00,0.0553
1470.00,0.0614
1469.00,0.0677
1468.00,0.0744
1467.00,0.0815
1466.00,0.0895
1465.00,0.0981
1464.00,0.1055
1463.00,0.1106
1462.00,0.1139
1461.00,0.1161
1460.00,0.1176
1459.00,0.1186
1458.00,0.1193
1457.00,0.1198
1456.00,0.1196
1455.00,0.1187
1454.00,0.1175
1453.00,0.1157
1452.00,0.1130
1451.00,0.1094
1450.00,0.1046
1449.00,0.0980
1448.00,0.0897
1447.00,0.0809
1446.00,0.0728
1445.00,0.0659
1444.00,0.0599
1443.00,0.0550
1442.00,0.0513
1441.00,0.0487
1440.00,0.0471
1439.00,0.0463
1438.00,0.0462
1437.00,0.0461
1436.00,0.0451
1435.00,0.0428
1434.00,0.0394
1433.00,0.0354
1432.00,0.0312
1431.00,0.0275
1430.00,0.0246
1429.00,0.0223
1428.00,0.0208
1427.00,0.0198
1426.00,0.0192
1425.00,0.0186
1424.00,0.0181
1423.00,0.0178
1422.00,0.0176
1421.00,0.0174
1420.00,0.0170
1419.00,0.0168
1418.00,0.0166
1417.00,0.0163
1416.00,0.0160
1415.00,0.0157
1414.00,0.0155
1413.00,0.0152
1412.00,0.0149
1411.00,0.0147
1410.00,0.0146
1409.00,0.0145
1408.00,0.0144
1407.00,0.0143
1406.00,0.0143
1405.00,0.0142
1404.00,0.0141
1403.00,0.0140
1402.00,0.0141
1401.00,0.0141
1400.00,0.0141
1399.00,0.0142
1398.00,0.0143
1397.00,0.0145
1396.00,0.0146
1395.00,0.0149
1394.00,0.0153
1393.00,0.0156
1392.00,0.0160
1391.00,0.0166
1390.00,0.0175
1389.00,0.0188
1388.00,0.0207
1387.00,0.0236
1386.00,0.0276
1385.00,0.0328
1384.00,0.0400
1383.00,0.0501
1382.00,0.0638
1381.00,0.0815
1380.00,0.1034
1379.00,0.1284
1378.00,0.1524
1377.00,0.1701
1376.00,0.1762
1375.00,0.1676
1374.00,0.1471
1373.00,0.1222
1372.00,0.0995
1371.00,0.0808
1370.00,0.0659
1369.00,0.0546
1368.00,0.0468
1367.00,0.0419
1366.00,0.0393
1365.00,0.0381
1364.00,0.0382
1363.00,0.0393
1362.00,0.0412
1361.00,0.0432
1360.00,0.0448
1359.00,0.0453
1358.00,0.0444
1357.00,0.0421
1356.00,0.0390
1355.00,0.0354
1354.00,0.0319
1353.00,0.0289
1352.00,0.0265
1351.00,0.0245
1350.00,0.0230
1349.00,0.0217
1348.00,0.0207
1347.00,0.0200
1346.00,0.0193
1345.00,0.0187
1344.00,0.0180
1343.00,0.0172
1342.00,0.0164
1341.00,0.0157
1340.00,0.0151
1339.00,0.0146
1338.00,0.0143
1337.00,0.0141
1336.00,0.0141
1335.00,0.0143
1334.00,0.0145
1333.00,0.0148
1332.00,0.0151
1331.00,0.0153
1330.00,0.0153
1329.00,0.0152
1328.00,0.0149
1327.00,0.0144
1326.00,0.0139
1325.00,0.0134
1324.00,0.0129
1323.00,0.0124
1322.00,0.0120
1321.00,0.0118
1320.00,0.0116
1319.00,0.0115
1318.00,0.0114
1317.00,0.0112
1316.00,0.0111
1315.00,0.0110
1314.00,0.0109
1313.00,0.0110
1312.00,0.0111
1311.00,0.0114
1310.00,0.0117
1309.00,0.0123
1308.00,0.0132
1307.00,0.0142
1306.00,0.0152
1305.00,0.0159
1304.00,0.0161
1303.00,0.0158
1302.00,0.0152
1301.00,0.0148
1300.00,0.0145
1299.00,0.0144
1298.00,0.0144
1297.00,0.0143
1296.00,0.0141
1295.00,0.0138
1294.00,0.0134
1293.00,0.0130
1292.00,0.0125
1291.00,0.0120
1290.00,0.0115
1289.00,0.0111
1288.00,0.0109
1287.00,0.0107
1286.00,0.0106
1285.00,0.0104
1284.00,0.0103
1283.00,0.0102
1282.00,0.0100
1281.00,0.0099
1280.00,0.0098
1279.00,0.0097
1278.00,0.0096
1277.00,0.0095
1276.00,0.0094
1275.00,0.0094
1274.00,0.0093
1273.00,0.0093
1272.00,0.0094
1271.00,0.0094
1270.00,0.0095
1269.00,0.0096
1268.00,0.0097
1267.00,0.0099
1266.00,0.0102
1265.00,0.0105
1264.00,0.0109
1263.00,0.0113
1262.00,0.0117
1261.00,0.0122
1260.00,0.0127
1259.00,0.0133
1258.00,0.0139
1257.00,0.0145
1256.00,0.0148
1255.00,0.0147
1254.00,0.0142
1253.00,0.0134
1252.00,0.0126
1251.00,0.0120
1250.00,0.0115
1249.00,0.0112
1248.00,0.0110
1247.00,0.0108
1246.00,0.0107
1245.00,0.0106
1244.00,0.0105
1243.00,0.0105
1242.00,0.0105
1241.00,0.0104
1240.00,0.0103
1239.00,0.0102
1238.00,0.0102
1237.00,0.0102
1236.00,0.0102
1235.00,0.0103
1234.00,0.0104
1233.00,0.0106
1232.00,0.0107
1231.00,0.0108
1230.00,0.0109
1229.00,0.0110
1228.00,0.0110
1227.00,0.0111
1226.00,0.0113
1225.00,0.0115
1224.00,0.0119
1223.00,0.0122
1222.00,0.0126
1221.00,0.0129
1220.00,0.0133
1219.00,0.0136
1218.00,0.0137
1217.00,0.0135
1216.00,0.0131
1215.00,0.0127
1214.00,0.0123
1213.00,0.0119
1212.00,0.0116
1211.00,0.0113
1210.00,0.0111
1209.00,0.0109
1208.00,0.0107
1207.00,0.0107
1206.00,0.0106
1205.00,0.0105
1204.00,0.0104
1203.00,0.0103
1202.00,0.0103
1201.00,0.0102
1200.00,0.0101
1199.00,0.0100
1198.00,0.0099
1197.00,0.0098
1196.00,0.0097
1195.00,0.0097
1194.00,0.0097
1193.00,0.0097
1192.00,0.0097
1191.00,0.0096
1190.00,0.0096
1189.00,0.0095
1188.00,0.0095
1187.00,0.0095
1186.00,0.0095
1185.00,0.0095
1184.00,0.0096
1183.00,0.0097
1182.00,0.0099
1181.00,0.0101
1180.00,0.0104
1179.00,0.0108
1178.00,0.0114
1177.00,0.0122
1176.00,0.0132
1175.00,0.0146
1174.00,0.0164
1173.00,0.0186
1172.00,0.0213
1171.00,0.0244
1170.00,0.0274
1169.00,0.0298
1168.00,0.0312
1167.00,0.0315
1166.00,0.0309
1165.00,0.0296
1164.00,0.0281
1163.00,0.0267
1162.00,0.0254
1161.00,0.0244
1160.00,0.0236
1159.00,0.0231
1158.00,0.0227
1157.00,0.0226
1156.00,0.0225
1155.00,0.0225
1154.00,0.0224
1153.00,0.0223
1152.00,0.0220
1151.00,0.0215
1150.00,0.0208
1149.00,0.0201
1148.00,0.0193
1147.00,0.0185
1146.00,0.0178
1145.00,0.0171
1144.00,0.0166
1143.00,0.0161
1142.00,0.0156
1141.00,0.0151
1140.00,0.0146
1139.00,0.0142
1138.00,0.0139
1137.00,0.0137
1136.00,0.0135
1135.00,0.0134
1134.00,0.0134
1133.00,0.0134
1132.00,0.0134
1131.00,0.0135
1130.00,0.0136
1129.00,0.0137
1128.00,0.0139
1127.00,0.0143
1126.00,0.0147
1125.00,0.0152
1124.00,0.0157
1123.00,0.0161
1122.00,0.0166
1121.00,0.0171
1120.00,0.0176
1119.00,0.0179
1118.00,0.0180
1117.00,0.0180
1116.00,0.0179
1115.00,0.0178
1114.00,0.0177
1113.00,0.0176
1112.00,0.0176
1111.00,0.0176
1110.00,0.0177
1109.00,0.0179
1108.00,0.0181
1107.00,0.0185
1106.00,0.0190
1105.00,0.0194
1104.00,0.0198
1103.00,0.0199
1102.00,0.0197
1101.00,0.0193
1100.00,0.0187
1099.00,0.0180
1098.00,0.0173
1097.00,0.0166
1096.00,0.0161
1095.00,0.0157
1094.00,0.0154
1093.00,0.0151
1092.00,0.0148
1091.00,0.0146
1090.00,0.0144
1089.00,0.0141
1088.00,0.0140
1087.00,0.0139
1086.00,0.0139
1085.00,0.0138
1084.00,0.0137
1083.00,0.0135
1082.00,0.0133
1081.00,0.0131
1080.00,0.0129
1079.00,0.0127
1078.00,0.0125
1077.00,0.0123
1076.00,0.0122
1075.00,0.0120
1074.00,0.0119
1073.00,0.0118
1072.00,0.0117
1071.00,0.0116
1070.00,0.0115
1069.00,0.0114
1068.00,0.0114
1067.00,0.0114
1066.00,0.0114
1065.00,0.0114
1064.00,0.0113
1063.00,0.0113
1062.00,0.0113
1061.00,0.0114
1060.00,0.0114
1059.00,0.0115
1058.00,0.0115
1057.00,0.0115
1056.00,0.0115
1055.00,0.0116
1054.00,0.0116
1053.00,0.0116
1052.00,0.0117
1051.00,0.0119
1050.00,0.0121
1049.00,0.0124
1048.00,0.0127
1047.00,0.0130
1046.00,0.0134
1045.00,0.0135
1044.00,0.0136
1043.00,0.0135
1042.00,0.0133
1041.00,0.0131
1040.00,0.0129
1039.00,0.0128
1038.00,0.0127
1037.00,0.0127
1036.00,0.0127
1035.00,0.0127
1034.00,0.0127
1033.00,0.0125
1032.00,0.0123
1031.00,0.0121
1030.00,0.0119
1029.00,0.0117
1028.00,0.0116
1027.00,0.0115
1026.00,0.0115
1025.00,0.0114
1024.00,0.0114
1023.00,0.0113
1022.00,0.0112
1021.00,0.0112
1020.00,0.0111
1019.00,0.0112
1018.00,0.0113
1017.00,0.0113
1016.00,0.0114
1015.00,0.0115
1014.00,0.0116
1013.00,0.0117
1012.00,0.0118
1011.00,0.0121
1010.00,0.0124
1009.00,0.0128
1008.00,0.0132
1007.00,0.0138
1006.00,0.0147
1005.00,0.0158
1004.00,0.0174
1003.00,0.0195
1002.00,0.0223
1001.00,0.0258
1000.00,0.0297
999.00,0.0329
998.00,0.0345
997.00,0.0338
996.00,0.0312
995.00,0.0274
994.00,0.0236
993.00,0.0203
992.00,0.0177
991.00,0.0159
990.00,0.0146
989.00,0.0137
988.00,0.0131
987.00,0.0128
986.00,0.0127
985.00,0.0128
984.00,0.0131
983.00,0.0137
982.00,0.0147
981.00,0.0160
980.00,0.0180
979.00,0.0206
978.00,0.0239
977.00,0.0279
976.00,0.0321
975.00,0.0362
974.00,0.0393
973.00,0.0404
972.00,0.0391
971.00,0.0356
970.00,0.0308
969.00,0.0259
968.00,0.0217
967.00,0.0185
966.00,0.0162
965.00,0.0146
964.00,0.0135
963.00,0.0126
962.00,0.0119
961.00,0.0113
960.00,0.0108
959.00,0.0103
958.00,0.0099
957.00,0.0095
956.00,0.0093
955.00,0.0091
954.00,0.0091
953.00,0.0091
952.00,0.0090
951.00,0.0090
950.00,0.0090
949.00,0.0090
948.00,0.0090
947.00,0.0090
946.00,0.0091
945.00,0.0093
944.00,0.0096
943.00,0.0099
942.00,0.0103
941.00,0.0106
940.00,0.0107
939.00,0.0105
938.00,0.0101
937.00,0.0096
936.00,0.0092
935.00,0.0088
934.00,0.0085
933.00,0.0083
932.00,0.0082
931.00,0.0082
930.00,0.0082
929.00,0.0082
928.00,0.0081
927.00,0.0081
926.00,0.0080
925.00,0.0080
924.00,0.0080
923.00,0.0081
922.00,0.0081
921.00,0.0081
920.00,0.0081
919.00,0.0081
918.00,0.0081
917.00,0.0081
916.00,0.0082
915.00,0.0083
914.00,0.0085
913.00,0.0087
912.00,0.0089
911.00,0.0090
910.00,0.0091
909.00,0.0093
908.00,0.0096
907.00,0.0101
906.00,0.0108
905.00,0.0117
904.00,0.0130
903.00,0.0146
902.00,0.0164
901.00,0.0180
900.00,0.0191
899.00,0.0194
898.00,0.0187
897.00,0.0173
896.00,0.0156
895.00,0.0140
894.00,0.0127
893.00,0.0117
892.00,0.0110
891.00,0.0106
890.00,0.0103
889.00,0.0100
888.00,0.0098
887.00,0.0097
886.00,0.0097
885.00,0.0097
884.00,0.0098
883.00,0.0099
882.00,0.0099
881.00,0.0100
880.00,0.0100
879.00,0.0102
878.00,0.0104
877.00,0.0105
876.00,0.0107
875.00,0.0108
874.00,0.0108
873.00,0.0107
872.00,0.0105
871.00,0.0103
870.00,0.0101
869.00,0.0099
868.00,0.0098
867.00,0.0097
866.00,0.0097
865.00,0.0096
864.00,0.0097
863.00,0.0098
862.00,0.0100
861.00,0.0101
860.00,0.0102
859.00,0.0102
858.00,0.0102
857.00,0.0102
856.00,0.0103
855.00,0.0104
854.00,0.0106
853.00,0.0109
852.00,0.0113
851.00,0.0117
850.00,0.0121
849.00,0.0127
848.00,0.0135
847.00,0.0149
846.00,0.0170
845.00,0.0201
844.00,0.0245
843.00,0.0295
842.00,0.0337
841.00,0.0350
840.00,0.0327
839.00,0.0279
838.00,0.0226
837.00,0.0185
836.00,0.0158
835.00,0.0144
834.00,0.0135
833.00,0.0129
832.00,0.0126
831.00,0.0124
830.00,0.0123
829.00,0.0121
828.00,0.0119
827.00,0.0117
826.00,0.0116
825.00,0.0115
824.00,0.0114
823.00,0.0114
822.00,0.0114
821.00,0.0115
820.00,0.0116
819.00,0.0119
818.00,0.0123
817.00,0.0129
816.00,0.0138
815.00,0.0150
814.00,0.0165
813.00,0.0182
812.00,0.0199
811.00,0.0216
810.00,0.0230
809.00,0.0236
808.00,0.0232
807.00,0.0220
806.00,0.0202
805.00,0.0183
804.00,0.0167
803.00,0.0155
802.00,0.0146
801.00,0.0141
800.00,0.0136
799.00,0.0133
798.00,0.0130
797.00,0.0126
796.00,0.0123
795.00,0.0120
794.00,0.0118
793.00,0.0114
792.00,0.0110
791.00,0.0106
790.00,0.0101
789.00,0.0098
788.00,0.0097
787.00,0.0096
786.00,0.0095
785.00,0.0094
784.00,0.0093
783.00,0.0092
782.00,0.0092
781.00,0.0091
780.00,0.0090
779.00,0.0091
778.00,0.0093
777.00,0.0094
776.00,0.0094
775.00,0.0093
774.00,0.0092
773.00,0.0090
772.00,0.0088
771.00,0.0087
770.00,0.0087
769.00,0.0088
768.00,0.0089
767.00,0.0090
766.00,0.0091
765.00,0.0092
764.00,0.0093
763.00,0.0093
762.00,0.0093
761.00,0.0093
760.00,0.0093
759.00,0.0095
758.00,0.0096
757.00,0.0097
756.00,0.0097
755.00,0.0097
754.00,0.0098
753.00,0.0098
752.00,0.0098
751.00,0.0099
750.00,0.0102
749.00,0.0106
748.00,0.0110
747.00,0.0113
746.00,0.0115
745.00,0.0116
744.00,0.0117
743.00,0.0119
742.00,0.0122
741.00,0.0127
740.00,0.0132
739.00,0.0138
738.00,0.0145
737.00,0.0151
736.00,0.0156
735.00,0.0160
734.00,0.0166
733.00,0.0174
732.00,0.0184
731.00,0.0193
730.00,0.0201
729.00,0.0206
728.00,0.0207
727.00,0.0206
726.00,0.0206
725.00,0.0209
724.00,0.0214
723.00,0.0222
722.00,0.0229
721.00,0.0233
720.00,0.0230
719.00,0.0221
718.00,0.0207
717.00,0.0192
716.00,0.0179
715.00,0.0169
714.00,0.0161
713.00,0.0155
712.00,0.0151
711.00,0.0148
710.00,0.0148
709.00,0.0150
708.00,0.0151
707.00,0.0153
706.00,0.0153
705.00,0.0152
704.00,0.0151
703.00,0.0149
702.00,0.0145
701.00,0.0141
700.00,0.0136
699.00,0.0132
698.00,0.0131
697.00,0.0130
696.00,0.0130
695.00,0.0129
694.00,0.0127
693.00,0.0125
692.00,0.0123
691.00,0.0121
690.00,0.0118
689.00,0.0117
688.00,0.0117
687.00,0.0118
686.00,0.0119
685.00,0.0120
684.00,0.0119
683.00,0.0119
682.00,0.0118
681.00,0.0119
680.00,0.0120
679.00,0.0121
678.00,0.0122
677.00,0.0122
676.00,0.0122
675.00,0.0123
674.00,0.0124
673.00,0.0125
672.00,0.0125
671.00,0.0126
670.00,0.0126
669.00,0.0127
668.00,0.0128
667.00,0.0129
666.00,0.0127
665.00,0.0124
664.00,0.0122
663.00,0.0121
662.00,0.0121
661.00,0.0121
660.00,0.0121
659.00,0.0121
658.00,0.0121
657.00,0.0120
656.00,0.0119
655.00,0.0118
654.00,0.0117
653.00,0.0116
652.00,0.0116
651.00,0.0116
650.00,0.0117
649.00,0.0119
648.00,0.0122
647.00,0.0123
646.00,0.0123
645.00,0.0121
644.00,0.0121
643.00,0.0121
642.00,0.0121
641.00,0.0120
640.00,0.0118
639.00,0.0117
638.00,0.0117
637.00,0.0118
636.00,0.0119
635.00,0.0121
634.00,0.0122
633.00,0.0122
632.00,0.0121
631.00,0.0120
630.00,0.0120
629.00,0.0121
628.00,0.0121
627.00,0.0121
626.00,0.0121
625.00,0.0120
624.00,0.0120
623.00,0.0121
622.00,0.0123
621.00,0.0125
620.00,0.0126
619.00,0.0125
618.00,0.0125
617.00,0.0125
616.00,0.0125
615.00,0.0125
614.00,0.0125
613.00,0.0124
612.00,0.0123
611.00,0.0120
610.00,0.0117
609.00,0.0116
608.00,0.0116
607.00,0.0118
606.00,0.0119
605.00,0.0119
604.00,0.0120
603.00,0.0122
602.00,0.0125
601.00,0.0127
600.00,0.0126
599.00,0.0124
598.00,0.0121
597.00,0.0118
596.00,0.0116
595.00,0.0116
594.00,0.0117
593.00,0.0119
592.00,0.0121
591.00,0.0123
590.00,0.0125
589.00,0.0125
588.00,0.0124
587.00,0.0123
586.00,0.0124
585.00,0.0124
584.00,0.0123
583.00,0.0122
582.00,0.0121
581.00,0.0120
580.00,0.0119
579.00,0.0119
578.00,0.0120
577.00,0.0122
576.00,0.0124
575.00,0.0126
574.00,0.0126
573.00,0.0123
572.00,0.0119
571.00,0.0116
570.00,0.0116
569.00,0.0119
568.00,0.0123
567.00,0.0125
566.00,0.0127
565.00,0.0127
564.00,0.0127
563.00,0.0127
562.00,0.0127
561.00,0.0127
560.00,0.0127
559.00,0.0127
558.00,0.0126
557.00,0.0125
556.00,0.0123
555.00,0.0121
554.00,0.0118
553.00,0.0116
552.00,0.0116
551.00,0.0117
550.00,0.0120
549.00,0.0122
548.00,0.0124
547.00,0.0123
546.00,0.0121
545.00,0.0119
544.00,0.0119
543.00,0.0121
542.00,0.0123
541.00,0.0124
540.00,0.0127
539.00,0.0131
538.00,0.0134
537.00,0.0134
536.00,0.0132
535.00,0.0129
534.00,0.0126
533.00,0.0124
532.00,0.0125
531.00,0.0127
530.00,0.0130
529.00,0.0131
528.00,0.0129
527.00,0.0129
526.00,0.0131
525.00,0.0134
524.00,0.0136
523.00,0.0137
522.00,0.0139
521.00,0.0138
520.00,0.0134
519.00,0.0130
518.00,0.0127
517.00,0.0124
516.00,0.0121
515.00,0.0119
514.00,0.0121
513.00,0.0124
512.00,0.0123
511.00,0.0118
510.00,0.0111
509.00,0.0108
508.00,0.0108
507.00,0.0112
506.00,0.0116
505.00,0.0118
504.00,0.0120
503.00,0.0122
502.00,0.0123
501.00,0.0121
500.00,0.0115
499.00,0.0108
498.00,0.0103
497.00,0.0100
496.00,0.0096
495.00,0.0090
494.00,0.0086
493.00,0.0084
492.00,0.0087
491.00,0.0096
490.00,0.0105
489.00,0.0109
488.00,0.0107
487.00,0.0103
486.00,0.0101
485.00,0.0101
484.00,0.0100
483.00,0.0098
482.00,0.0098
481.00,0.0102
480.00,0.0106
479.00,0.0109
478.00,0.0110
477.00,0.0111
476.00,0.0113
475.00,0.0115
474.00,0.0117
473.00,0.0120
472.00,0.0124
471.00,0.0129
470.00,0.0133
469.00,0.0137
468.00,0.0142
467.00,0.0147
466.00,0.0148
465.00,0.0144
464.00,0.0141
463.00,0.0147
462.00,0.0165
461.00,0.0188
460.00,0.0205
459.00,0.0211
458.00,0.0208
457.00,0.0198
456.00,0.0186
455.00,0.0175
454.00,0.0164
453.00,0.0152
452.00,0.0139
451.00,0.0128
450.00,0.0122
