Created as New Dataset,Sample 224 By Administrator Date Wednesday, September 03 2025
cm-1,A
4000.00,0.0011
3999.00,0.0011
3998.00,0.0012
3997.00,0.0012
3996.00,0.0012
3995.00,0.0011
3994.00,0.0011
3993.00,0.0011
3992.00,0.0011
3991.00,0.0011
3990.00,0.0011
3989.00,0.0011
3988.00,0.0010
3987.00,0.0010
3986.00,0.0010
3985.00,0.0010
3984.00,0.0010
3983.00,0.0010
3982.00,0.0010
3981.00,0.0010
3980.00,0.0010
3979.00,0.0010
3978.00,0.0011
3977.00,0.0011
3976.00,0.0011
3975.00,0.0011
3974.00,0.0010
3973.00,0.0010
3972.00,0.0010
3971.00,0.0010
3970.00,0.0010
3969.00,0.0010
3968.00,0.0010
3967.00,0.0010
3966.00,0.0010
3965.00,0.0010
3964.00,0.0010
3963.00,0.0010
3962.00,0.0010
3961.00,0.0010
3960.00,0.0009
3959.00,0.0009
3958.00,0.0009
3957.00,0.0009
3956.00,0.0009
3955.00,0.0009
3954.00,0.0009
3953.00,0.0009
3952.00,0.0009
3951.00,0.0010
3950.00,0.0010
3949.00,0.0010
3948.00,0.0010
3947.00,0.0010
3946.00,0.0010
3945.00,0.0009
3944.00,0.0009
3943.00,0.0009
3942.00,0.0009
3941.00,0.0009
3940.00,0.0009
3939.00,0.0010
3938.00,0.0010
3937.00,0.0010
3936.00,0.0011
3935.00,0.0011
3934.00,0.0011
3933.00,0.0011
3932.00,0.0011
3931.00,0.0011
3930.00,0.0011
3929.00,0.0011
3928.00,0.0010
3927.00,0.0010
3926.00,0.0010
3925.00,0.0010
3924.00,0.0010
3923.00,0.0010
3922.00,0.0011
3921.00,0.0011
3920.00,0.0011
3919.00,0.0011
3918.00,0.0011
3917.00,0.0011
3916.00,0.0010
3915.00,0.0010
3914.00,0.0010
3913.00,0.0010
3912.00,0.0010
3911.00,0.0010
3910.00,0.0010
3909.00,0.0010
3908.00,0.0010
3907.00,0.0009
3906.00,0.0010
3905.00,0.0010
3904.00,0.0011
3903.00,0.0012
3902.00,0.0012
3901.00,0.0012
3900.00,0.0012
3899.00,0.0011
3898.00,0.0011
3897.00,0.0011
3896.00,0.0010
3895.00,0.0010
3894.00,0.0010
3893.00,0.0010
3892.00,0.0010
3891.00,0.0010
3890.00,0.0010
3889.00,0.0010
3888.00,0.0011
3887.00,0.0011
3886.00,0.0011
3885.00,0.0011
3884.00,0.0010
3883.00,0.0010
3882.00,0.0010
3881.00,0.0010
3880.00,0.0010
3879.00,0.0010
3878.00,0.0010
3877.00,0.0010
3876.00,0.0010
3875.00,0.0009
3874.00,0.0009
3873.00,0.0009
3872.00,0.0009
3871.00,0.0009
3870.00,0.0010
3869.00,0.0010
3868.00,0.0010
3867.00,0.0010
3866.00,0.0010
3865.00,0.0009
3864.00,0.0009
3863.00,0.0009
3862.00,0.0010
3861.00,0.0010
3860.00,0.0010
3859.00,0.0009
3858.00,0.0009
3857.00,0.0008
3856.00,0.0008
3855.00,0.0009
3854.00,0.0010
3853.00,0.0011
3852.00,0.0011
3851.00,0.0011
3850.00,0.0010
3849.00,0.0010
3848.00,0.0010
3847.00,0.0009
3846.00,0.0009
3845.00,0.0008
3844.00,0.0008
3843.00,0.0008
3842.00,0.0009
3841.00,0.0009
3840.00,0.0008
3839.00,0.0008
3838.00,0.0008
3837.00,0.0009
3836.00,0.0009
3835.00,0.0009
3834.00,0.0008
3833.00,0.0009
3832.00,0.0009
3831.00,0.0009
3830.00,0.0009
3829.00,0.0009
3828.00,0.0009
3827.00,0.0009
3826.00,0.0009
3825.00,0.0010
3824.00,0.0010
3823.00,0.0010
3822.00,0.0010
3821.00,0.0010
3820.00,0.0010
3819.00,0.0010
3818.00,0.0009
3817.00,0.0009
3816.00,0.0009
3815.00,0.0008
3814.00,0.0008
3813.00,0.0009
3812.00,0.0009
3811.00,0.0009
3810.00,0.0010
3809.00,0.0010
3808.00,0.0010
3807.00,0.0010
3806.00,0.0010
3805.00,0.0009
3804.00,0.0008
3803.00,0.0007
3802.00,0.0007
3801.00,0.0007
3800.00,0.0007
3799.00,0.0008
3798.00,0.0008
3797.00,0.0008
3796.00,0.0008
3795.00,0.0008
3794.00,0.0009
3793.00,0.0009
3792.00,0.0009
3791.00,0.0009
3790.00,0.0009
3789.00,0.0009
3788.00,0.0009
3787.00,0.0009
3786.00,0.0008
3785.00,0.0008
3784.00,0.0008
3783.00,0.0009
3782.00,0.0009
3781.00,0.0009
3780.00,0.0010
3779.00,0.0010
3778.00,0.0010
3777.00,0.0009
3776.00,0.0009
3775.00,0.0010
3774.00,0.0010
3773.00,0.0010
3772.00,0.0009
3771.00,0.0009
3770.00,0.0009
3769.00,0.0009
3768.00,0.0010
3767.00,0.0010
3766.00,0.0010
3765.00,0.0009
3764.00,0.0009
3763.00,0.0009
3762.00,0.0009
3761.00,0.0009
3760.00,0.0009
3759.00,0.0009
3758.00,0.0009
3757.00,0.0010
3756.00,0.0010
3755.00,0.0010
3754.00,0.0010
3753.00,0.0010
3752.00,0.0011
3751.00,0.0011
3750.00,0.0011
3749.00,0.0011
3748.00,0.0011
3747.00,0.0011
3746.00,0.0011
3745.00,0.0011
3744.00,0.0011
3743.00,0.0010
3742.00,0.0010
3741.00,0.0010
3740.00,0.0010
3739.00,0.0009
3738.00,0.0009
3737.00,0.0009
3736.00,0.0009
3735.00,0.0009
3734.00,0.0009
3733.00,0.0010
3732.00,0.0010
3731.00,0.0011
3730.00,0.0011
3729.00,0.0011
3728.00,0.0011
3727.00,0.0010
3726.00,0.0010
3725.00,0.0009
3724.00,0.0009
3723.00,0.0008
3722.00,0.0008
3721.00,0.0008
3720.00,0.0007
3719.00,0.0007
3718.00,0.0007
3717.00,0.0007
3716.00,0.0008
3715.00,0.0008
3714.00,0.0008
3713.00,0.0008
3712.00,0.0008
3711.00,0.0008
3710.00,0.0008
3709.00,0.0008
3708.00,0.0008
3707.00,0.0008
3706.00,0.0008
3705.00,0.0007
3704.00,0.0007
3703.00,0.0007
3702.00,0.0007
3701.00,0.0008
3700.00,0.0008
3699.00,0.0008
3698.00,0.0008
3697.00,0.0008
3696.00,0.0008
3695.00,0.0008
3694.00,0.0008
3693.00,0.0008
3692.00,0.0008
3691.00,0.0008
3690.00,0.0008
3689.00,0.0008
3688.00,0.0008
3687.00,0.0008
3686.00,0.0008
3685.00,0.0008
3684.00,0.0009
3683.00,0.0009
3682.00,0.0009
3681.00,0.0009
3680.00,0.0009
3679.00,0.0009
3678.00,0.0009
3677.00,0.0010
3676.00,0.0009
3675.00,0.0009
3674.00,0.0009
3673.00,0.0009
3672.00,0.0008
3671.00,0.0008
3670.00,0.0008
3669.00,0.0008
3668.00,0.0008
3667.00,0.0008
3666.00,0.0008
3665.00,0.0008
3664.00,0.0008
3663.00,0.0008
3662.00,0.0008
3661.00,0.0008
3660.00,0.0008
3659.00,0.0009
3658.00,0.0009
3657.00,0.0009
3656.00,0.0009
3655.00,0.0009
3654.00,0.0009
3653.00,0.0009
3652.00,0.0009
3651.00,0.0009
3650.00,0.0009
3649.00,0.0009
3648.00,0.0010
3647.00,0.0009
3646.00,0.0009
3645.00,0.0009
3644.00,0.0009
3643.00,0.0009
3642.00,0.0009
3641.00,0.0009
3640.00,0.0009
3639.00,0.0008
3638.00,0.0008
3637.00,0.0008
3636.00,0.0008
3635.00,0.0008
3634.00,0.0008
3633.00,0.0009
3632.00,0.0009
3631.00,0.0010
3630.00,0.0010
3629.00,0.0010
3628.00,0.0010
3627.00,0.0010
3626.00,0.0010
3625.00,0.0010
3624.00,0.0010
3623.00,0.0010
3622.00,0.0010
3621.00,0.0010
3620.00,0.0010
3619.00,0.0010
3618.00,0.0011
3617.00,0.0011
3616.00,0.0011
3615.00,0.0012
3614.00,0.0012
3613.00,0.0013
3612.00,0.0013
3611.00,0.0014
3610.00,0.0014
3609.00,0.0013
3608.00,0.0012
3607.00,0.0012
3606.00,0.0011
3605.00,0.0011
3604.00,0.0012
3603.00,0.0012
3602.00,0.0012
3601.00,0.0012
3600.00,0.0012
3599.00,0.0013
3598.00,0.0013
3597.00,0.0013
3596.00,0.0012
3595.00,0.0013
3594.00,0.0013
3593.00,0.0013
3592.00,0.0014
3591.00,0.0015
3590.00,0.0015
3589.00,0.0015
3588.00,0.0015
3587.00,0.0015
3586.00,0.0014
3585.00,0.0014
3584.00,0.0014
3583.00,0.0014
3582.00,0.0014
3581.00,0.0014
3580.00,0.0014
3579.00,0.0015
3578.00,0.0015
3577.00,0.0016
3576.00,0.0016
3575.00,0.0016
3574.00,0.0016
3573.00,0.0016
3572.00,0.0016
3571.00,0.0016
3570.00,0.0016
3569.00,0.0016
3568.00,0.0016
3567.00,0.0016
3566.00,0.0017
3565.00,0.0017
3564.00,0.0018
3563.00,0.0018
3562.00,0.0018
3561.00,0.0018
3560.00,0.0018
3559.00,0.0018
3558.00,0.0018
3557.00,0.0018
3556.00,0.0018
3555.00,0.0019
3554.00,0.0019
3553.00,0.0019
3552.00,0.0020
3551.00,0.0020
3550.00,0.0020
3549.00,0.0021
3548.00,0.0021
3547.00,0.0022
3546.00,0.0022
3545.00,0.0022
3544.00,0.0022
3543.00,0.0022
3542.00,0.0022
3541.00,0.0022
3540.00,0.0022
3539.00,0.0022
3538.00,0.0022
3537.00,0.0023
3536.00,0.0023
3535.00,0.0024
3534.00,0.0024
3533.00,0.0025
3532.00,0.0025
3531.00,0.0025
3530.00,0.0025
3529.00,0.0025
3528.00,0.0025
3527.00,0.0026
3526.00,0.0026
3525.00,0.0026
3524.00,0.0026
3523.00,0.0026
3522.00,0.0026
3521.00,0.0026
3520.00,0.0027
3519.00,0.0027
3518.00,0.0027
3517.00,0.0027
3516.00,0.0027
3515.00,0.0028
3514.00,0.0028
3513.00,0.0028
3512.00,0.0029
3511.00,0.0029
3510.00,0.0029
3509.00,0.0029
3508.00,0.0029
3507.00,0.0030
3506.00,0.0030
3505.00,0.0030
3504.00,0.0030
3503.00,0.0030
3502.00,0.0030
3501.00,0.0031
3500.00,0.0031
3499.00,0.0031
3498.00,0.0032
3497.00,0.0032
3496.00,0.0032
3495.00,0.0033
3494.00,0.0033
3493.00,0.0032
3492.00,0.0032
3491.00,0.0033
3490.00,0.0033
3489.00,0.0033
3488.00,0.0033
3487.00,0.0034
3486.00,0.0034
3485.00,0.0035
3484.00,0.0035
3483.00,0.0036
3482.00,0.0036
3481.00,0.0037
3480.00,0.0036
3479.00,0.0036
3478.00,0.0036
3477.00,0.0036
3476.00,0.0036
3475.00,0.0036
3474.00,0.0036
3473.00,0.0037
3472.00,0.0038
3471.00,0.0038
3470.00,0.0039
3469.00,0.0038
3468.00,0.0038
3467.00,0.0038
3466.00,0.0038
3465.00,0.0038
3464.00,0.0039
3463.00,0.0039
3462.00,0.0040
3461.00,0.0040
3460.00,0.0040
3459.00,0.0041
3458.00,0.0041
3457.00,0.0041
3456.00,0.0041
3455.00,0.0041
3454.00,0.0041
3453.00,0.0041
3452.00,0.0041
3451.00,0.0041
3450.00,0.0041
3449.00,0.0041
3448.00,0.0042
3447.00,0.0042
3446.00,0.0042
3445.00,0.0043
3444.00,0.0043
3443.00,0.0044
3442.00,0.0044
3441.00,0.0044
3440.00,0.0044
3439.00,0.0044
3438.00,0.0044
3437.00,0.0045
3436.00,0.0045
3435.00,0.0045
3434.00,0.0045
3433.00,0.0045
3432.00,0.0045
3431.00,0.0046
3430.00,0.0046
3429.00,0.0045
3428.00,0.0045
3427.00,0.0046
3426.00,0.0046
3425.00,0.0047
3424.00,0.0047
3423.00,0.0047
3422.00,0.0047
3421.00,0.0047
3420.00,0.0047
3419.00,0.0047
3418.00,0.0048
3417.00,0.0048
3416.00,0.0048
3415.00,0.0049
3414.00,0.0049
3413.00,0.0049
3412.00,0.0049
3411.00,0.0049
3410.00,0.0050
3409.00,0.0050
3408.00,0.0050
3407.00,0.0050
3406.00,0.0050
3405.00,0.0050
3404.00,0.0050
3403.00,0.0051
3402.00,0.0052
3401.00,0.0052
3400.00,0.0053
3399.00,0.0053
3398.00,0.0054
3397.00,0.0053
3396.00,0.0053
3395.00,0.0053
3394.00,0.0053
3393.00,0.0052
3392.00,0.0052
3391.00,0.0052
3390.00,0.0053
3389.00,0.0053
3388.00,0.0053
3387.00,0.0053
3386.00,0.0053
3385.00,0.0053
3384.00,0.0053
3383.00,0.0052
3382.00,0.0052
3381.00,0.0052
3380.00,0.0052
3379.00,0.0052
3378.00,0.0052
3377.00,0.0052
3376.00,0.0052
3375.00,0.0051
3374.00,0.0051
3373.00,0.0051
3372.00,0.0051
3371.00,0.0051
3370.00,0.0051
3369.00,0.0051
3368.00,0.0051
3367.00,0.0052
3366.00,0.0052
3365.00,0.0052
3364.00,0.0052
3363.00,0.0052
3362.00,0.0052
3361.00,0.0052
3360.00,0.0052
3359.00,0.0052
3358.00,0.0052
3357.00,0.0052
3356.00,0.0052
3355.00,0.0051
3354.00,0.0051
3353.00,0.0051
3352.00,0.0051
3351.00,0.0051
3350.00,0.0051
3349.00,0.0051
3348.00,0.0051
3347.00,0.0051
3346.00,0.0051
3345.00,0.0051
3344.00,0.0051
3343.00,0.0050
3342.00,0.0050
3341.00,0.0051
3340.00,0.0051
3339.00,0.0051
3338.00,0.0051
3337.00,0.0051
3336.00,0.0051
3335.00,0.0051
3334.00,0.0051
3333.00,0.0050
3332.00,0.0050
3331.00,0.0050
3330.00,0.0050
3329.00,0.0049
3328.00,0.0049
3327.00,0.0050
3326.00,0.0050
3325.00,0.0050
3324.00,0.0050
3323.00,0.0049
3322.00,0.0049
3321.00,0.0049
3320.00,0.0049
3319.00,0.0049
3318.00,0.0049
3317.00,0.0049
3316.00,0.0049
3315.00,0.0049
3314.00,0.0049
3313.00,0.0049
3312.00,0.0049
3311.00,0.0049
3310.00,0.0049
3309.00,0.0049
3308.00,0.0049
3307.00,0.0049
3306.00,0.0049
3305.00,0.0049
3304.00,0.0049
3303.00,0.0050
3302.00,0.0050
3301.00,0.0050
3300.00,0.0050
3299.00,0.0050
3298.00,0.0049
3297.00,0.0049
3296.00,0.0049
3295.00,0.0048
3294.00,0.0048
3293.00,0.0048
3292.00,0.0047
3291.00,0.0047
3290.00,0.0047
3289.00,0.0047
3288.00,0.0047
3287.00,0.0046
3286.00,0.0046
3285.00,0.0046
3284.00,0.0046
3283.00,0.0046
3282.00,0.0046
3281.00,0.0046
3280.00,0.0046
3279.00,0.0046
3278.00,0.0045
3277.00,0.0045
3276.00,0.0045
3275.00,0.0044
3274.00,0.0044
3273.00,0.0044
3272.00,0.0044
3271.00,0.0044
3270.00,0.0044
3269.00,0.0044
3268.00,0.0044
3267.00,0.0043
3266.00,0.0043
3265.00,0.0043
3264.00,0.0043
3263.00,0.0043
3262.00,0.0043
3261.00,0.0042
3260.00,0.0042
3259.00,0.0042
3258.00,0.0041
3257.00,0.0041
3256.00,0.0041
3255.00,0.0041
3254.00,0.0040
3253.00,0.0040
3252.00,0.0040
3251.00,0.0040
3250.00,0.0040
3249.00,0.0040
3248.00,0.0040
3247.00,0.0040
3246.00,0.0040
3245.00,0.0040
3244.00,0.0040
3243.00,0.0040
3242.00,0.0040
3241.00,0.0039
3240.00,0.0040
3239.00,0.0040
3238.00,0.0040
3237.00,0.0041
3236.00,0.0041
3235.00,0.0040
3234.00,0.0040
3233.00,0.0040
3232.00,0.0040
3231.00,0.0040
3230.00,0.0040
3229.00,0.0040
3228.00,0.0040
3227.00,0.0040
3226.00,0.0040
3225.00,0.0041
3224.00,0.0041
3223.00,0.0042
3222.00,0.0042
3221.00,0.0042
3220.00,0.0042
3219.00,0.0042
3218.00,0.0043
3217.00,0.0042
3216.00,0.0042
3215.00,0.0043
3214.00,0.0043
3213.00,0.0043
3212.00,0.0044
3211.00,0.0044
3210.00,0.0044
3209.00,0.0044
3208.00,0.0045
3207.00,0.0045
3206.00,0.0045
3205.00,0.0044
3204.00,0.0044
3203.00,0.0044
3202.00,0.0045
3201.00,0.0045
3200.00,0.0045
3199.00,0.0044
3198.00,0.0044
3197.00,0.0044
3196.00,0.0044
3195.00,0.0044
3194.00,0.0044
3193.00,0.0045
3192.00,0.0045
3191.00,0.0045
3190.00,0.0045
3189.00,0.0045
3188.00,0.0045
3187.00,0.0045
3186.00,0.0045
3185.00,0.0045
3184.00,0.0045
3183.00,0.0045
3182.00,0.0044
3181.00,0.0044
3180.00,0.0043
3179.00,0.0043
3178.00,0.0043
3177.00,0.0042
3176.00,0.0042
3175.00,0.0042
3174.00,0.0042
3173.00,0.0041
3172.00,0.0041
3171.00,0.0041
3170.00,0.0041
3169.00,0.0041
3168.00,0.0041
3167.00,0.0041
3166.00,0.0041
3165.00,0.0041
3164.00,0.0041
3163.00,0.0041
3162.00,0.0041
3161.00,0.0040
3160.00,0.0040
3159.00,0.0040
3158.00,0.0040
3157.00,0.0039
3156.00,0.0039
3155.00,0.0039
3154.00,0.0039
3153.00,0.0038
3152.00,0.0038
3151.00,0.0039
3150.00,0.0039
3149.00,0.0039
3148.00,0.0039
3147.00,0.0040
3146.00,0.0039
3145.00,0.0039
3144.00,0.0038
3143.00,0.0038
3142.00,0.0038
3141.00,0.0038
3140.00,0.0038
3139.00,0.0038
3138.00,0.0037
3137.00,0.0037
3136.00,0.0036
3135.00,0.0036
3134.00,0.0036
3133.00,0.0036
3132.00,0.0036
3131.00,0.0036
3130.00,0.0036
3129.00,0.0036
3128.00,0.0036
3127.00,0.0036
3126.00,0.0036
3125.00,0.0036
3124.00,0.0035
3123.00,0.0035
3122.00,0.0035
3121.00,0.0034
3120.00,0.0034
3119.00,0.0034
3118.00,0.0033
3117.00,0.0033
3116.00,0.0033
3115.00,0.0033
3114.00,0.0032
3113.00,0.0032
3112.00,0.0032
3111.00,0.0032
3110.00,0.0032
3109.00,0.0032
3108.00,0.0032
3107.00,0.0032
3106.00,0.0033
3105.00,0.0033
3104.00,0.0032
3103.00,0.0032
3102.00,0.0032
3101.00,0.0032
3100.00,0.0031
3099.00,0.0031
3098.00,0.0031
3097.00,0.0031
3096.00,0.0031
3095.00,0.0031
3094.00,0.0031
3093.00,0.0031
3092.00,0.0031
3091.00,0.0031
3090.00,0.0031
3089.00,0.0030
3088.00,0.0030
3087.00,0.0030
3086.00,0.0030
3085.00,0.0030
3084.00,0.0030
3083.00,0.0030
3082.00,0.0030
3081.00,0.0030
3080.00,0.0030
3079.00,0.0030
3078.00,0.0030
3077.00,0.0031
3076.00,0.0031
3075.00,0.0032
3074.00,0.0032
3073.00,0.0032
3072.00,0.0032
3071.00,0.0032
3070.00,0.0032
3069.00,0.0032
3068.00,0.0032
3067.00,0.0032
3066.00,0.0031
3065.00,0.0031
3064.00,0.0032
3063.00,0.0032
3062.00,0.0033
3061.00,0.0033
3060.00,0.0033
3059.00,0.0033
3058.00,0.0033
3057.00,0.0033
3056.00,0.0033
3055.00,0.0033
3054.00,0.0034
3053.00,0.0034
3052.00,0.0034
3051.00,0.0034
3050.00,0.0034
3049.00,0.0034
3048.00,0.0034
3047.00,0.0035
3046.00,0.0035
3045.00,0.0035
3044.00,0.0035
3043.00,0.0036
3042.00,0.0037
3041.00,0.0037
3040.00,0.0037
3039.00,0.0037
3038.00,0.0038
3037.00,0.0038
3036.00,0.0039
3035.00,0.0039
3034.00,0.0039
3033.00,0.0039
3032.00,0.0039
3031.00,0.0040
3030.00,0.0040
3029.00,0.0040
3028.00,0.0040
3027.00,0.0041
3026.00,0.0042
3025.00,0.0042
3024.00,0.0043
3023.00,0.0043
3022.00,0.0044
3021.00,0.0045
3020.00,0.0046
3019.00,0.0047
3018.00,0.0048
3017.00,0.0049
3016.00,0.0050
3015.00,0.0050
3014.00,0.0051
3013.00,0.0052
3012.00,0.0053
3011.00,0.0054
3010.00,0.0056
3009.00,0.0057
3008.00,0.0058
3007.00,0.0060
3006.00,0.0061
3005.00,0.0063
3004.00,0.0064
3003.00,0.0066
3002.00,0.0068
3001.00,0.0070
3000.00,0.0072
2999.00,0.0074
2998.00,0.0076
2997.00,0.0079
2996.00,0.0083
2995.00,0.0086
2994.00,0.0091
2993.00,0.0095
2992.00,0.0100
2991.00,0.0106
2990.00,0.0112
2989.00,0.0118
2988.00,0.0126
2987.00,0.0134
2986.00,0.0143
2985.00,0.0153
2984.00,0.0163
2983.00,0.0176
2982.00,0.0190
2981.00,0.0207
2980.00,0.0226
2979.00,0.0248
2978.00,0.0273
2977.00,0.0302
2976.00,0.0334
2975.00,0.0371
2974.00,0.0412
2973.00,0.0460
2972.00,0.0514
2971.00,0.0575
2970.00,0.0644
2969.00,0.0719
2968.00,0.0801
2967.00,0.0888
2966.00,0.0979
2965.00,0.1072
2964.00,0.1163
2963.00,0.1248
2962.00,0.1321
2961.00,0.1381
2960.00,0.1428
2959.00,0.1465
2958.00,0.1499
2957.00,0.1537
2956.00,0.1583
2955.00,0.1640
2954.00,0.1707
2953.00,0.1778
2952.00,0.1841
2951.00,0.1884
2950.00,0.1896
2949.00,0.1870
2948.00,0.1803
2947.00,0.1703
2946.00,0.1582
2945.00,0.1454
2944.00,0.1334
2943.00,0.1231
2942.00,0.1151
2941.00,0.1096
2940.00,0.1066
2939.00,0.1057
2938.00,0.1069
2937.00,0.1099
2936.00,0.1144
2935.00,0.1204
2934.00,0.1279
2933.00,0.1365
2932.00,0.1463
2931.00,0.1571
2930.00,0.1684
2929.00,0.1801
2928.00,0.1918
2927.00,0.2033
2926.00,0.2145
2925.00,0.2253
2924.00,0.2358
2923.00,0.2462
2922.00,0.2565
2921.00,0.2664
2920.00,0.2750
2919.00,0.2813
2918.00,0.2844
2917.00,0.2834
2916.00,0.2784
2915.00,0.2701
2914.00,0.2595
2913.00,0.2480
2912.00,0.2367
2911.00,0.2263
2910.00,0.2171
2909.00,0.2089
2908.00,0.2015
2907.00,0.1945
2906.00,0.1877
2905.00,0.1808
2904.00,0.1739
2903.00,0.1669
2902.00,0.1599
2901.00,0.1531
2900.00,0.1466
2899.00,0.1404
2898.00,0.1346
2897.00,0.1293
2896.00,0.1245
2895.00,0.1203
2894.00,0.1167
2893.00,0.1138
2892.00,0.1114
2891.00,0.1096
2890.00,0.1084
2889.00,0.1075
2888.00,0.1070
2887.00,0.1069
2886.00,0.1072
2885.00,0.1078
2884.00,0.1089
2883.00,0.1104
2882.00,0.1123
2881.00,0.1145
2880.00,0.1167
2879.00,0.1185
2878.00,0.1196
2877.00,0.1199
2876.00,0.1194
2875.00,0.1187
2874.00,0.1181
2873.00,0.1181
2872.00,0.1189
2871.00,0.1204
2870.00,0.1223
2869.00,0.1241
2868.00,0.1252
2867.00,0.1248
2866.00,0.1223
2865.00,0.1176
2864.00,0.1111
2863.00,0.1036
2862.00,0.0963
2861.00,0.0898
2860.00,0.0849
2859.00,0.0815
2858.00,0.0796
2857.00,0.0791
2856.00,0.0795
2855.00,0.0808
2854.00,0.0826
2853.00,0.0848
2852.00,0.0870
2851.00,0.0890
2850.00,0.0904
2849.00,0.0914
2848.00,0.0921
2847.00,0.0932
2846.00,0.0950
2845.00,0.0979
2844.00,0.1020
2843.00,0.1070
2842.00,0.1123
2841.00,0.1173
2840.00,0.1212
2839.00,0.1231
2838.00,0.1225
2837.00,0.1189
2836.00,0.1123
2835.00,0.1034
2834.00,0.0930
2833.00,0.0822
2832.00,0.0720
2831.00,0.0629
2830.00,0.0553
2829.00,0.0489
2828.00,0.0438
2827.00,0.0397
2826.00,0.0363
2825.00,0.0335
2824.00,0.0312
2823.00,0.0292
2822.00,0.0275
2821.00,0.0260
2820.00,0.0248
2819.00,0.0237
2818.00,0.0227
2817.00,0.0218
2816.00,0.0211
2815.00,0.0204
2814.00,0.0198
2813.00,0.0192
2812.00,0.0186
2811.00,0.0181
2810.00,0.0176
2809.00,0.0170
2808.00,0.0164
2807.00,0.0158
2806.00,0.0151
2805.00,0.0145
2804.00,0.0138
2803.00,0.0133
2802.00,0.0127
2801.00,0.0123
2800.00,0.0119
2799.00,0.0116
2798.00,0.0113
2797.00,0.0111
2796.00,0.0109
2795.00,0.0106
2794.00,0.0104
2793.00,0.0101
2792.00,0.0098
2791.00,0.0095
2790.00,0.0092
2789.00,0.0088
2788.00,0.0085
2787.00,0.0082
2786.00,0.0080
2785.00,0.0077
2784.00,0.0074
2783.00,0.0072
2782.00,0.0070
2781.00,0.0068
2780.00,0.0066
2779.00,0.0065
2778.00,0.0063
2777.00,0.0062
2776.00,0.0061
2775.00,0.0060
2774.00,0.0060
2773.00,0.0059
2772.00,0.0059
2771.00,0.0058
2770.00,0.0058
2769.00,0.0057
2768.00,0.0057
2767.00,0.0057
2766.00,0.0057
2765.00,0.0056
2764.00,0.0056
2763.00,0.0055
2762.00,0.0055
2761.00,0.0054
2760.00,0.0054
2759.00,0.0053
2758.00,0.0053
2757.00,0.0053
2756.00,0.0053
2755.00,0.0053
2754.00,0.0053
2753.00,0.0053
2752.00,0.0053
2751.00,0.0052
2750.00,0.0052
2749.00,0.0052
2748.00,0.0052
2747.00,0.0052
2746.00,0.0053
2745.00,0.0053
2744.00,0.0054
2743.00,0.0054
2742.00,0.0055
2741.00,0.0056
2740.00,0.0057
2739.00,0.0059
2738.00,0.0060
2737.00,0.0061
2736.00,0.0063
2735.00,0.0064
2734.00,0.0065
2733.00,0.0067
2732.00,0.0069
2731.00,0.0071
2730.00,0.0073
2729.00,0.0075
2728.00,0.0078
2727.00,0.0081
2726.00,0.0084
2725.00,0.0086
2724.00,0.0088
2723.00,0.0088
2722.00,0.0087
2721.00,0.0085
2720.00,0.0083
2719.00,0.0080
2718.00,0.0076
2717.00,0.0073
2716.00,0.0070
2715.00,0.0067
2714.00,0.0065
2713.00,0.0063
2712.00,0.0061
2711.00,0.0059
2710.00,0.0057
2709.00,0.0056
2708.00,0.0054
2707.00,0.0053
2706.00,0.0052
2705.00,0.0051
2704.00,0.0050
2703.00,0.0049
2702.00,0.0048
2701.00,0.0048
2700.00,0.0047
2699.00,0.0047
2698.00,0.0046
2697.00,0.0046
2696.00,0.0046
2695.00,0.0046
2694.00,0.0046
2693.00,0.0046
2692.00,0.0046
2691.00,0.0046
2690.00,0.0046
2689.00,0.0046
2688.00,0.0046
2687.00,0.0045
2686.00,0.0045
2685.00,0.0045
2684.00,0.0045
2683.00,0.0046
2682.00,0.0046
2681.00,0.0046
2680.00,0.0047
2679.00,0.0047
2678.00,0.0047
2677.00,0.0047
2676.00,0.0046
2675.00,0.0046
2674.00,0.0046
2673.00,0.0045
2672.00,0.0045
2671.00,0.0045
2670.00,0.0045
2669.00,0.0045
2668.00,0.0046
2667.00,0.0046
2666.00,0.0046
2665.00,0.0046
2664.00,0.0047
2663.00,0.0047
2662.00,0.0048
2661.00,0.0048
2660.00,0.0049
2659.00,0.0049
2658.00,0.0049
2657.00,0.0049
2656.00,0.0049
2655.00,0.0049
2654.00,0.0048
2653.00,0.0047
2652.00,0.0047
2651.00,0.0046
2650.00,0.0045
2649.00,0.0045
2648.00,0.0044
2647.00,0.0043
2646.00,0.0043
2645.00,0.0043
2644.00,0.0042
2643.00,0.0042
2642.00,0.0041
2641.00,0.0041
2640.00,0.0040
2639.00,0.0040
2638.00,0.0040
2637.00,0.0040
2636.00,0.0040
2635.00,0.0040
2634.00,0.0040
2633.00,0.0040
2632.00,0.0040
2631.00,0.0040
2630.00,0.0040
2629.00,0.0040
2628.00,0.0040
2627.00,0.0041
2626.00,0.0041
2625.00,0.0041
2624.00,0.0041
2623.00,0.0041
2622.00,0.0041
2621.00,0.0042
2620.00,0.0042
2619.00,0.0042
2618.00,0.0042
2617.00,0.0042
2616.00,0.0041
2615.00,0.0041
2614.00,0.0041
2613.00,0.0040
2612.00,0.0040
2611.00,0.0039
2610.00,0.0038
2609.00,0.0037
2608.00,0.0037
2607.00,0.0036
2606.00,0.0036
2605.00,0.0035
2604.00,0.0034
2603.00,0.0033
2602.00,0.0032
2601.00,0.0032
2600.00,0.0032
2599.00,0.0032
2598.00,0.0032
2597.00,0.0033
2596.00,0.0033
2595.00,0.0033
2594.00,0.0033
2593.00,0.0033
2592.00,0.0033
2591.00,0.0034
2590.00,0.0034
2589.00,0.0035
2588.00,0.0036
2587.00,0.0037
2586.00,0.0038
2585.00,0.0039
2584.00,0.0040
2583.00,0.0040
2582.00,0.0040
2581.00,0.0039
2580.00,0.0038
2579.00,0.0037
2578.00,0.0036
2577.00,0.0035
2576.00,0.0034
2575.00,0.0034
2574.00,0.0033
2573.00,0.0032
2572.00,0.0031
2571.00,0.0030
2570.00,0.0029
2569.00,0.0028
2568.00,0.0028
2567.00,0.0027
2566.00,0.0026
2565.00,0.0026
2564.00,0.0025
2563.00,0.0025
2562.00,0.0025
2561.00,0.0025
2560.00,0.0025
2559.00,0.0024
2558.00,0.0023
2557.00,0.0023
2556.00,0.0023
2555.00,0.0023
2554.00,0.0023
2553.00,0.0023
2552.00,0.0022
2551.00,0.0021
2550.00,0.0020
2549.00,0.0019
2548.00,0.0019
2547.00,0.0019
2546.00,0.0019
2545.00,0.0019
2544.00,0.0018
2543.00,0.0018
2542.00,0.0018
2541.00,0.0018
2540.00,0.0018
2539.00,0.0017
2538.00,0.0017
2537.00,0.0016
2536.00,0.0015
2535.00,0.0015
2534.00,0.0015
2533.00,0.0015
2532.00,0.0015
2531.00,0.0014
2530.00,0.0015
2529.00,0.0015
2528.00,0.0016
2527.00,0.0016
2526.00,0.0016
2525.00,0.0016
2524.00,0.0015
2523.00,0.0015
2522.00,0.0014
2521.00,0.0014
2520.00,0.0014
2519.00,0.0014
2518.00,0.0014
2517.00,0.0013
2516.00,0.0013
2515.00,0.0013
2514.00,0.0012
2513.00,0.0012
2512.00,0.0011
2511.00,0.0011
2510.00,0.0011
2509.00,0.0011
2508.00,0.0012
2507.00,0.0012
2506.00,0.0012
2505.00,0.0012
2504.00,0.0012
2503.00,0.0011
2502.00,0.0011
2501.00,0.0011
2500.00,0.0012
2499.00,0.0012
2498.00,0.0012
2497.00,0.0013
2496.00,0.0013
2495.00,0.0012
2494.00,0.0012
2493.00,0.0012
2492.00,0.0012
2491.00,0.0012
2490.00,0.0011
2489.00,0.0011
2488.00,0.0010
2487.00,0.0010
2486.00,0.0010
2485.00,0.0010
2484.00,0.0011
2483.00,0.0011
2482.00,0.0011
2481.00,0.0012
2480.00,0.0012
2479.00,0.0011
2478.00,0.0011
2477.00,0.0011
2476.00,0.0011
2475.00,0.0011
2474.00,0.0011
2473.00,0.0011
2472.00,0.0010
2471.00,0.0010
2470.00,0.0010
2469.00,0.0010
2468.00,0.0011
2467.00,0.0011
2466.00,0.0011
2465.00,0.0011
2464.00,0.0011
2463.00,0.0011
2462.00,0.0011
2461.00,0.0010
2460.00,0.0010
2459.00,0.0010
2458.00,0.0010
2457.00,0.0011
2456.00,0.0011
2455.00,0.0011
2454.00,0.0011
2453.00,0.0011
2452.00,0.0012
2451.00,0.0012
2450.00,0.0012
2449.00,0.0012
2448.00,0.0012
2447.00,0.0012
2446.00,0.0012
2445.00,0.0011
2444.00,0.0011
2443.00,0.0011
2442.00,0.0011
2441.00,0.0011
2440.00,0.0011
2439.00,0.0011
2438.00,0.0012
2437.00,0.0012
2436.00,0.0013
2435.00,0.0014
2434.00,0.0014
2433.00,0.0013
2432.00,0.0013
2431.00,0.0013
2430.00,0.0013
2429.00,0.0012
2428.00,0.0012
2427.00,0.0013
2426.00,0.0012
2425.00,0.0012
2424.00,0.0012
2423.00,0.0012
2422.00,0.0012
2421.00,0.0013
2420.00,0.0013
2419.00,0.0012
2418.00,0.0011
2417.00,0.0011
2416.00,0.0011
2415.00,0.0011
2414.00,0.0011
2413.00,0.0011
2412.00,0.0011
2411.00,0.0011
2410.00,0.0011
2409.00,0.0011
2408.00,0.0011
2407.00,0.0010
2406.00,0.0010
2405.00,0.0010
2404.00,0.0010
2403.00,0.0010
2402.00,0.0009
2401.00,0.0009
2400.00,0.0010
2399.00,0.0010
2398.00,0.0010
2397.00,0.0010
2396.00,0.0010
2395.00,0.0010
2394.00,0.0009
2393.00,0.0009
2392.00,0.0009
2391.00,0.0008
2390.00,0.0008
2389.00,0.0008
2388.00,0.0008
2387.00,0.0008
2386.00,0.0007
2385.00,0.0007
2384.00,0.0007
2383.00,0.0007
2382.00,0.0006
2381.00,0.0005
2380.00,0.0004
2379.00,0.0003
2378.00,0.0002
2377.00,0.0002
2376.00,0.0003
2375.00,0.0004
2374.00,0.0004
2373.00,0.0005
2372.00,0.0005
2371.00,0.0004
2370.00,0.0004
2369.00,0.0003
2368.00,0.0003
2367.00,0.0003
2366.00,0.0003
2365.00,0.0003
2364.00,0.0004
2363.00,0.0004
2362.00,0.0004
2361.00,0.0004
2360.00,0.0004
2359.00,0.0004
2358.00,0.0004
2357.00,0.0005
2356.00,0.0005
2355.00,0.0005
2354.00,0.0005
2353.00,0.0005
2352.00,0.0005
2351.00,0.0005
2350.00,0.0005
2349.00,0.0005
2348.00,0.0005
2347.00,0.0005
2346.00,0.0006
2345.00,0.0007
2344.00,0.0007
2343.00,0.0007
2342.00,0.0008
2341.00,0.0008
2340.00,0.0008
2339.00,0.0009
2338.00,0.0009
2337.00,0.0009
2336.00,0.0009
2335.00,0.0009
2334.00,0.0008
2333.00,0.0007
2332.00,0.0007
2331.00,0.0008
2330.00,0.0008
2329.00,0.0009
2328.00,0.0010
2327.00,0.0013
2326.00,0.0017
2325.00,0.0021
2324.00,0.0022
2323.00,0.0022
2322.00,0.0020
2321.00,0.0018
2320.00,0.0017
2319.00,0.0016
2318.00,0.0015
2317.00,0.0014
2316.00,0.0013
2315.00,0.0011
2314.00,0.0011
2313.00,0.0011
2312.00,0.0011
2311.00,0.0011
2310.00,0.0011
2309.00,0.0011
2308.00,0.0011
2307.00,0.0012
2306.00,0.0013
2305.00,0.0014
2304.00,0.0014
2303.00,0.0014
2302.00,0.0014
2301.00,0.0014
2300.00,0.0014
2299.00,0.0014
2298.00,0.0014
2297.00,0.0014
2296.00,0.0014
2295.00,0.0015
2294.00,0.0015
2293.00,0.0016
2292.00,0.0017
2291.00,0.0018
2290.00,0.0018
2289.00,0.0019
2288.00,0.0019
2287.00,0.0019
2286.00,0.0019
2285.00,0.0020
2284.00,0.0020
2283.00,0.0020
2282.00,0.0019
2281.00,0.0018
2280.00,0.0017
2279.00,0.0016
2278.00,0.0016
2277.00,0.0015
2276.00,0.0015
2275.00,0.0014
2274.00,0.0014
2273.00,0.0014
2272.00,0.0013
2271.00,0.0013
2270.00,0.0013
2269.00,0.0013
2268.00,0.0013
2267.00,0.0013
2266.00,0.0013
2265.00,0.0014
2264.00,0.0015
2263.00,0.0015
2262.00,0.0015
2261.00,0.0015
2260.00,0.0015
2259.00,0.0016
2258.00,0.0015
2257.00,0.0014
2256.00,0.0012
2255.00,0.0011
2254.00,0.0010
2253.00,0.0010
2252.00,0.0010
2251.00,0.0010
2250.00,0.0010
2249.00,0.0011
2248.00,0.0012
2247.00,0.0011
2246.00,0.0010
2245.00,0.0009
2244.00,0.0009
2243.00,0.0009
2242.00,0.0009
2241.00,0.0008
2240.00,0.0007
2239.00,0.0007
2238.00,0.0008
2237.00,0.0009
2236.00,0.0011
2235.00,0.0011
2234.00,0.0009
2233.00,0.0007
2232.00,0.0005
2231.00,0.0004
2230.00,0.0004
2229.00,0.0004
2228.00,0.0006
2227.00,0.0007
2226.00,0.0008
2225.00,0.0011
2224.00,0.0013
2223.00,0.0014
2222.00,0.0014
2221.00,0.0013
2220.00,0.0011
2219.00,0.0010
2218.00,0.0009
2217.00,0.0009
2216.00,0.0008
2215.00,0.0007
2214.00,0.0006
2213.00,0.0004
2212.00,0.0003
2211.00,0.0001
2210.00,0.0001
2209.00,0.0001
2208.00,0.0003
2207.00,0.0004
2206.00,0.0007
2205.00,0.0009
2204.00,0.0010
2203.00,0.0009
2202.00,0.0006
2201.00,0.0003
2200.00,0.0001
2199.00,0.0002
2198.00,0.0004
2197.00,0.0007
2196.00,0.0008
2195.00,0.0008
2194.00,0.0008
2193.00,0.0008
2192.00,0.0009
2191.00,0.0010
2190.00,0.0012
2189.00,0.0013
2188.00,0.0015
2187.00,0.0015
2186.00,0.0016
2185.00,0.0015
2184.00,0.0013
2183.00,0.0009
2182.00,0.0005
2181.00,0.0004
2180.00,0.0006
2179.00,0.0008
2178.00,0.0009
2177.00,0.0007
2176.00,0.0005
2175.00,0.0002
2174.00,0.0001
2173.00,0.0001
2172.00,0.0003
2171.00,0.0006
2170.00,0.0010
2169.00,0.0016
2168.00,0.0020
2167.00,0.0022
2166.00,0.0021
2165.00,0.0019
2164.00,0.0016
2163.00,0.0015
2162.00,0.0015
2161.00,0.0011
2160.00,0.0002
2159.00,-0.0011
2158.00,-0.0023
2157.00,-0.0027
2156.00,-0.0027
2155.00,-0.0024
2154.00,-0.0021
2153.00,-0.0017
2152.00,-0.0013
2151.00,-0.0011
2150.00,-0.0011
2149.00,-0.0011
2148.00,-0.0012
2147.00,-0.0012
2146.00,-0.0013
2145.00,-0.0013
2144.00,-0.0012
2143.00,-0.0011
2142.00,-0.0011
2141.00,-0.0010
2140.00,-0.0010
2139.00,-0.0010
2138.00,-0.0009
2137.00,-0.0009
2136.00,-0.0010
2135.00,-0.0011
2134.00,-0.0013
2133.00,-0.0014
2132.00,-0.0013
2131.00,-0.0012
2130.00,-0.0011
2129.00,-0.0010
2128.00,-0.0008
2127.00,-0.0006
2126.00,-0.0006
2125.00,-0.0006
2124.00,-0.0007
2123.00,-0.0008
2122.00,-0.0007
2121.00,-0.0006
2120.00,-0.0004
2119.00,-0.0002
2118.00,0.0000
2117.00,0.0002
2116.00,0.0004
2115.00,0.0005
2114.00,0.0005
2113.00,0.0005
2112.00,0.0005
2111.00,0.0004
2110.00,0.0003
2109.00,0.0003
2108.00,0.0003
2107.00,0.0003
2106.00,0.0003
2105.00,0.0002
2104.00,0.0002
2103.00,0.0002
2102.00,0.0003
2101.00,0.0003
2100.00,0.0003
2099.00,0.0003
2098.00,0.0003
2097.00,0.0003
2096.00,0.0001
2095.00,-0.0000
2094.00,-0.0001
2093.00,-0.0002
2092.00,-0.0001
2091.00,-0.0001
2090.00,-0.0000
2089.00,-0.0000
2088.00,0.0000
2087.00,0.0001
2086.00,0.0002
2085.00,0.0003
2084.00,0.0004
2083.00,0.0005
2082.00,0.0005
2081.00,0.0006
2080.00,0.0006
2079.00,0.0006
2078.00,0.0007
2077.00,0.0006
2076.00,0.0006
2075.00,0.0005
2074.00,0.0003
2073.00,0.0002
2072.00,0.0002
2071.00,0.0002
2070.00,0.0002
2069.00,0.0003
2068.00,0.0003
2067.00,0.0003
2066.00,0.0002
2065.00,0.0002
2064.00,0.0000
2063.00,-0.0001
2062.00,-0.0002
2061.00,-0.0003
2060.00,-0.0003
2059.00,-0.0003
2058.00,-0.0002
2057.00,0.0000
2056.00,0.0003
2055.00,0.0006
2054.00,0.0009
2053.00,0.0013
2052.00,0.0017
2051.00,0.0019
2050.00,0.0017
2049.00,0.0012
2048.00,0.0007
2047.00,0.0004
2046.00,0.0001
2045.00,0.0000
2044.00,-0.0000
2043.00,0.0000
2042.00,0.0002
2041.00,0.0006
2040.00,0.0009
2039.00,0.0012
2038.00,0.0013
2037.00,0.0011
2036.00,0.0008
2035.00,0.0004
2034.00,0.0001
2033.00,-0.0002
2032.00,-0.0004
2031.00,-0.0004
2030.00,-0.0004
2029.00,-0.0003
2028.00,-0.0003
2027.00,-0.0004
2026.00,-0.0005
2025.00,-0.0003
2024.00,-0.0001
2023.00,-0.0002
2022.00,-0.0004
2021.00,-0.0005
2020.00,-0.0005
2019.00,-0.0003
2018.00,-0.0001
2017.00,-0.0001
2016.00,-0.0002
2015.00,-0.0005
2014.00,-0.0007
2013.00,-0.0008
2012.00,-0.0007
2011.00,-0.0005
2010.00,-0.0005
2009.00,-0.0006
2008.00,-0.0009
2007.00,-0.0011
2006.00,-0.0015
2005.00,-0.0018
2004.00,-0.0018
2003.00,-0.0017
2002.00,-0.0015
2001.00,-0.0012
2000.00,-0.0010
1999.00,-0.0009
1998.00,-0.0009
1997.00,-0.0009
1996.00,-0.0010
1995.00,-0.0013
1994.00,-0.0015
1993.00,-0.0015
1992.00,-0.0012
1991.00,-0.0007
1990.00,-0.0003
1989.00,0.0000
1988.00,0.0002
1987.00,0.0003
1986.00,0.0004
1985.00,0.0004
1984.00,0.0005
1983.00,0.0007
1982.00,0.0009
1981.00,0.0013
1980.00,0.0014
1979.00,0.0011
1978.00,0.0004
1977.00,-0.0003
1976.00,-0.0008
1975.00,-0.0012
1974.00,-0.0014
1973.00,-0.0016
1972.00,-0.0016
1971.00,-0.0016
1970.00,-0.0016
1969.00,-0.0016
1968.00,-0.0016
1967.00,-0.0015
1966.00,-0.0012
1965.00,-0.0009
1964.00,-0.0006
1963.00,-0.0006
1962.00,-0.0009
1961.00,-0.0014
1960.00,-0.0017
1959.00,-0.0018
1958.00,-0.0018
1957.00,-0.0018
1956.00,-0.0018
1955.00,-0.0019
1954.00,-0.0017
1953.00,-0.0013
1952.00,-0.0008
1951.00,-0.0005
1950.00,-0.0004
1949.00,-0.0005
1948.00,-0.0007
1947.00,-0.0009
1946.00,-0.0010
1945.00,-0.0010
1944.00,-0.0011
1943.00,-0.0012
1942.00,-0.0012
1941.00,-0.0011
1940.00,-0.0010
1939.00,-0.0009
1938.00,-0.0008
1937.00,-0.0008
1936.00,-0.0009
1935.00,-0.0010
1934.00,-0.0010
1933.00,-0.0010
1932.00,-0.0008
1931.00,-0.0007
1930.00,-0.0006
1929.00,-0.0006
1928.00,-0.0006
1927.00,-0.0006
1926.00,-0.0006
1925.00,-0.0007
1924.00,-0.0008
1923.00,-0.0008
1922.00,-0.0007
1921.00,-0.0006
1920.00,-0.0004
1919.00,-0.0004
1918.00,-0.0003
1917.00,-0.0002
1916.00,-0.0001
1915.00,-0.0000
1914.00,-0.0000
1913.00,-0.0001
1912.00,-0.0002
1911.00,-0.0003
1910.00,-0.0003
1909.00,-0.0002
1908.00,-0.0001
1907.00,-0.0001
1906.00,-0.0001
1905.00,-0.0001
1904.00,-0.0001
1903.00,-0.0001
1902.00,-0.0001
1901.00,-0.0002
1900.00,-0.0002
1899.00,-0.0002
1898.00,-0.0002
1897.00,-0.0002
1896.00,-0.0002
1895.00,-0.0002
1894.00,-0.0001
1893.00,-0.0001
1892.00,-0.0000
1891.00,-0.0001
1890.00,-0.0001
1889.00,-0.0001
1888.00,-0.0001
1887.00,-0.0001
1886.00,-0.0002
1885.00,-0.0002
1884.00,-0.0002
1883.00,-0.0002
1882.00,-0.0001
1881.00,-0.0000
1880.00,0.0001
1879.00,0.0001
1878.00,0.0001
1877.00,-0.0000
1876.00,-0.0001
1875.00,-0.0002
1874.00,-0.0001
1873.00,-0.0001
1872.00,-0.0000
1871.00,0.0000
1870.00,0.0001
1869.00,0.0001
1868.00,0.0001
1867.00,0.0001
1866.00,0.0001
1865.00,0.0000
1864.00,0.0000
1863.00,0.0000
1862.00,0.0001
1861.00,0.0001
1860.00,0.0000
1859.00,0.0000
1858.00,0.0000
1857.00,0.0000
1856.00,0.0001
1855.00,0.0001
1854.00,0.0001
1853.00,0.0001
1852.00,0.0002
1851.00,0.0002
1850.00,0.0003
1849.00,0.0003
1848.00,0.0003
1847.00,0.0003
1846.00,0.0002
1845.00,0.0002
1844.00,0.0002
1843.00,0.0003
1842.00,0.0004
1841.00,0.0004
1840.00,0.0004
1839.00,0.0003
1838.00,0.0003
1837.00,0.0003
1836.00,0.0004
1835.00,0.0005
1834.00,0.0006
1833.00,0.0006
1832.00,0.0006
1831.00,0.0006
1830.00,0.0005
1829.00,0.0005
1828.00,0.0005
1827.00,0.0004
1826.00,0.0002
1825.00,0.0002
1824.00,0.0002
1823.00,0.0003
1822.00,0.0003
1821.00,0.0004
1820.00,0.0004
1819.00,0.0003
1818.00,0.0003
1817.00,0.0002
1816.00,0.0002
1815.00,0.0003
1814.00,0.0003
1813.00,0.0004
1812.00,0.0004
1811.00,0.0004
1810.00,0.0005
1809.00,0.0005
1808.00,0.0005
1807.00,0.0004
1806.00,0.0004
1805.00,0.0004
1804.00,0.0004
1803.00,0.0004
1802.00,0.0005
1801.00,0.0005
1800.00,0.0006
1799.00,0.0006
1798.00,0.0006
1797.00,0.0006
1796.00,0.0006
1795.00,0.0006
1794.00,0.0006
1793.00,0.0007
1792.00,0.0007
1791.00,0.0008
1790.00,0.0009
1789.00,0.0009
1788.00,0.0009
1787.00,0.0008
1786.00,0.0008
1785.00,0.0008
1784.00,0.0008
1783.00,0.0008
1782.00,0.0008
1781.00,0.0008
1780.00,0.0008
1779.00,0.0009
1778.00,0.0009
1777.00,0.0009
1776.00,0.0009
1775.00,0.0008
1774.00,0.0008
1773.00,0.0008
1772.00,0.0009
1771.00,0.0009
1770.00,0.0009
1769.00,0.0010
1768.00,0.0011
1767.00,0.0011
1766.00,0.0011
1765.00,0.0011
1764.00,0.0011
1763.00,0.0011
1762.00,0.0011
1761.00,0.0011
1760.00,0.0011
1759.00,0.0011
1758.00,0.0012
1757.00,0.0012
1756.00,0.0013
1755.00,0.0014
1754.00,0.0014
1753.00,0.0014
1752.00,0.0014
1751.00,0.0014
1750.00,0.0014
1749.00,0.0014
1748.00,0.0015
1747.00,0.0016
1746.00,0.0016
1745.00,0.0016
1744.00,0.0016
1743.00,0.0016
1742.00,0.0016
1741.00,0.0016
1740.00,0.0017
1739.00,0.0017
1738.00,0.0017
1737.00,0.0017
1736.00,0.0018
1735.00,0.0018
1734.00,0.0019
1733.00,0.0019
1732.00,0.0020
1731.00,0.0020
1730.00,0.0020
1729.00,0.0020
1728.00,0.0021
1727.00,0.0022
1726.00,0.0022
1725.00,0.0022
1724.00,0.0023
1723.00,0.0023
1722.00,0.0022
1721.00,0.0021
1720.00,0.0021
1719.00,0.0020
1718.00,0.0021
1717.00,0.0021
1716.00,0.0021
1715.00,0.0022
1714.00,0.0022
1713.00,0.0023
1712.00,0.0023
1711.00,0.0024
1710.00,0.0024
1709.00,0.0024
1708.00,0.0024
1707.00,0.0024
1706.00,0.0024
1705.00,0.0024
1704.00,0.0024
1703.00,0.0024
1702.00,0.0025
1701.00,0.0025
1700.00,0.0025
1699.00,0.0026
1698.00,0.0025
1697.00,0.0025
1696.00,0.0026
1695.00,0.0028
1694.00,0.0029
1693.00,0.0030
1692.00,0.0031
1691.00,0.0032
1690.00,0.0032
1689.00,0.0033
1688.00,0.0034
1687.00,0.0034
1686.00,0.0033
1685.00,0.0033
1684.00,0.0034
1683.00,0.0035
1682.00,0.0036
1681.00,0.0037
1680.00,0.0039
1679.00,0.0040
1678.00,0.0041
1677.00,0.0042
1676.00,0.0043
1675.00,0.0044
1674.00,0.0045
1673.00,0.0045
1672.00,0.0046
1671.00,0.0046
1670.00,0.0046
1669.00,0.0047
1668.00,0.0047
1667.00,0.0047
1666.00,0.0047
1665.00,0.0048
1664.00,0.0048
1663.00,0.0049
1662.00,0.0049
1661.00,0.0050
1660.00,0.0050
1659.00,0.0051
1658.00,0.0051
1657.00,0.0051
1656.00,0.0051
1655.00,0.0051
1654.00,0.0052
1653.00,0.0054
1652.00,0.0057
1651.00,0.0059
1650.00,0.0060
1649.00,0.0062
1648.00,0.0064
1647.00,0.0066
1646.00,0.0067
1645.00,0.0067
1644.00,0.0066
1643.00,0.0066
1642.00,0.0065
1641.00,0.0065
1640.00,0.0065
1639.00,0.0065
1638.00,0.0066
1637.00,0.0066
1636.00,0.0066
1635.00,0.0065
1634.00,0.0064
1633.00,0.0064
1632.00,0.0063
1631.00,0.0063
1630.00,0.0062
1629.00,0.0061
1628.00,0.0061
1627.00,0.0060
1626.00,0.0060
1625.00,0.0059
1624.00,0.0059
1623.00,0.0058
1622.00,0.0057
1621.00,0.0057
1620.00,0.0057
1619.00,0.0056
1618.00,0.0056
1617.00,0.0056
1616.00,0.0056
1615.00,0.0055
1614.00,0.0055
1613.00,0.0054
1612.00,0.0054
1611.00,0.0054
1610.00,0.0054
1609.00,0.0054
1608.00,0.0055
1607.00,0.0055
1606.00,0.0055
1605.00,0.0055
1604.00,0.0055
1603.00,0.0054
1602.00,0.0054
1601.00,0.0054
1600.00,0.0053
1599.00,0.0053
1598.00,0.0053
1597.00,0.0052
1596.00,0.0052
1595.00,0.0052
1594.00,0.0051
1593.00,0.0051
1592.00,0.0051
1591.00,0.0051
1590.00,0.0052
1589.00,0.0052
1588.00,0.0053
1587.00,0.0053
1586.00,0.0053
1585.00,0.0053
1584.00,0.0054
1583.00,0.0054
1582.00,0.0055
1581.00,0.0055
1580.00,0.0056
1579.00,0.0057
1578.00,0.0058
1577.00,0.0058
1576.00,0.0058
1575.00,0.0058
1574.00,0.0058
1573.00,0.0059
1572.00,0.0059
1571.00,0.0060
1570.00,0.0060
1569.00,0.0060
1568.00,0.0060
1567.00,0.0059
1566.00,0.0058
1565.00,0.0058
1564.00,0.0059
1563.00,0.0059
1562.00,0.0059
1561.00,0.0059
1560.00,0.0061
1559.00,0.0062
1558.00,0.0062
1557.00,0.0063
1556.00,0.0064
1555.00,0.0064
1554.00,0.0064
1553.00,0.0064
1552.00,0.0064
1551.00,0.0064
1550.00,0.0065
1549.00,0.0066
1548.00,0.0067
1547.00,0.0068
1546.00,0.0068
1545.00,0.0069
1544.00,0.0070
1543.00,0.0071
1542.00,0.0071
1541.00,0.0070
1540.00,0.0069
1539.00,0.0066
1538.00,0.0064
1537.00,0.0063
1536.00,0.0062
1535.00,0.0060
1534.00,0.0058
1533.00,0.0057
1532.00,0.0056
1531.00,0.0056
1530.00,0.0055
1529.00,0.0055
1528.00,0.0055
1527.00,0.0054
1526.00,0.0054
1525.00,0.0054
1524.00,0.0055
1523.00,0.0055
1522.00,0.0054
1521.00,0.0054
1520.00,0.0054
1519.00,0.0054
1518.00,0.0055
1517.00,0.0056
1516.00,0.0056
1515.00,0.0057
1514.00,0.0057
1513.00,0.0057
1512.00,0.0058
1511.00,0.0058
1510.00,0.0058
1509.00,0.0059
1508.00,0.0059
1507.00,0.0059
1506.00,0.0060
1505.00,0.0062
1504.00,0.0064
1503.00,0.0066
1502.00,0.0068
1501.00,0.0070
1500.00,0.0073
1499.00,0.0075
1498.00,0.0077
1497.00,0.0080
1496.00,0.0083
1495.00,0.0085
1494.00,0.0087
1493.00,0.0090
1492.00,0.0093
1491.00,0.0096
1490.00,0.0100
1489.00,0.0106
1488.00,0.0111
1487.00,0.0116
1486.00,0.0122
1485.00,0.0128
1484.00,0.0134
1483.00,0.0141
1482.00,0.0150
1481.00,0.0161
1480.00,0.0173
1479.00,0.0185
1478.00,0.0199
1477.00,0.0219
1476.00,0.0245
1475.00,0.0275
1474.00,0.0316
1473.00,0.0374
1472.00,0.0442
1471.00,0.0508
1470.00,0.0572
1469.00,0.0639
1468.00,0.0711
1467.00,0.0788
1466.00,0.0876
1465.00,0.0970
1464.00,0.1052
1463.00,0.1109
1462.00,0.1145
1461.00,0.1168
1460.00,0.1183
1459.00,0.1192
1458.00,0.1199
1457.00,0.1202
1456.00,0.1198
1455.00,0.1187
1454.00,0.1173
1453.00,0.1153
1452.00,0.1125
1451.00,0.1086
1450.00,0.1034
1449.00,0.0963
1448.00,0.0873
1447.00,0.0780
1446.00,0.0696
1445.00,0.0624
1444.00,0.0562
1443.00,0.0511
1442.00,0.0472
1441.00,0.0446
1440.00,0.0430
1439.00,0.0424
1438.00,0.0425
1437.00,0.0426
1436.00,0.0417
1435.00,0.0393
1434.00,0.0358
1433.00,0.0316
1432.00,0.0273
1431.00,0.0234
1430.00,0.0203
1429.00,0.0180
1428.00,0.0164
1427.00,0.0153
1426.00,0.0147
1425.00,0.0141
1424.00,0.0136
1423.00,0.0132
1422.00,0.0131
1421.00,0.0128
1420.00,0.0125
1419.00,0.0123
1418.00,0.0121
1417.00,0.0118
1416.00,0.0115
1415.00,0.0114
1414.00,0.0113
1413.00,0.0111
1412.00,0.0109
1411.00,0.0108
1410.00,0.0108
1409.00,0.0107
1408.00,0.0106
1407.00,0.0106
1406.00,0.0107
1405.00,0.0107
1404.00,0.0107
1403.00,0.0107
1402.00,0.0108
1401.00,0.0108
1400.00,0.0109
1399.00,0.0110
1398.00,0.0113
1397.00,0.0115
1396.00,0.0117
1395.00,0.0121
1394.00,0.0126
1393.00,0.0131
1392.00,0.0136
1391.00,0.0143
1390.00,0.0153
1389.00,0.0167
1388.00,0.0187
1387.00,0.0218
1386.00,0.0260
1385.00,0.0316
1384.00,0.0394
1383.00,0.0503
1382.00,0.0652
1381.00,0.0845
1380.00,0.1084
1379.00,0.1355
1378.00,0.1618
1377.00,0.1809
1376.00,0.1871
1375.00,0.1774
1374.00,0.1546
1373.00,0.1273
1372.00,0.1024
1371.00,0.0820
1370.00,0.0658
1369.00,0.0536
1368.00,0.0453
1367.00,0.0401
1366.00,0.0373
1365.00,0.0361
1364.00,0.0362
1363.00,0.0375
1362.00,0.0395
1361.00,0.0417
1360.00,0.0435
1359.00,0.0441
1358.00,0.0432
1357.00,0.0408
1356.00,0.0373
1355.00,0.0333
1354.00,0.0294
1353.00,0.0261
1352.00,0.0234
1351.00,0.0213
1350.00,0.0195
1349.00,0.0181
1348.00,0.0169
1347.00,0.0159
1346.00,0.0151
1345.00,0.0144
1344.00,0.0137
1343.00,0.0132
1342.00,0.0127
1341.00,0.0123
1340.00,0.0121
1339.00,0.0119
1338.00,0.0117
1337.00,0.0116
1336.00,0.0116
1335.00,0.0118
1334.00,0.0121
1333.00,0.0125
1332.00,0.0130
1331.00,0.0133
1330.00,0.0135
1329.00,0.0134
1328.00,0.0131
1327.00,0.0127
1326.00,0.0122
1325.00,0.0116
1324.00,0.0111
1323.00,0.0105
1322.00,0.0101
1321.00,0.0098
1320.00,0.0095
1319.00,0.0094
1318.00,0.0092
1317.00,0.0091
1316.00,0.0090
1315.00,0.0089
1314.00,0.0089
1313.00,0.0090
1312.00,0.0091
1311.00,0.0093
1310.00,0.0096
1309.00,0.0103
1308.00,0.0111
1307.00,0.0122
1306.00,0.0132
1305.00,0.0139
1304.00,0.0141
1303.00,0.0138
1302.00,0.0134
1301.00,0.0130
1300.00,0.0128
1299.00,0.0127
1298.00,0.0128
1297.00,0.0128
1296.00,0.0127
1295.00,0.0125
1294.00,0.0121
1293.00,0.0117
1292.00,0.0112
1291.00,0.0107
1290.00,0.0103
1289.00,0.0099
1288.00,0.0096
1287.00,0.0093
1286.00,0.0091
1285.00,0.0089
1284.00,0.0087
1283.00,0.0085
1282.00,0.0084
1281.00,0.0083
1280.00,0.0082
1279.00,0.0081
1278.00,0.0080
1277.00,0.0080
1276.00,0.0080
1275.00,0.0080
1274.00,0.0080
1273.00,0.0080
1272.00,0.0080
1271.00,0.0080
1270.00,0.0082
1269.00,0.0084
1268.00,0.0086
1267.00,0.0089
1266.00,0.0092
1265.00,0.0095
1264.00,0.0098
1263.00,0.0101
1262.00,0.0105
1261.00,0.0109
1260.00,0.0114
1259.00,0.0119
1258.00,0.0125
1257.00,0.0129
1256.00,0.0130
1255.00,0.0128
1254.00,0.0121
1253.00,0.0113
1252.00,0.0105
1251.00,0.0098
1250.00,0.0093
1249.00,0.0089
1248.00,0.0086
1247.00,0.0083
1246.00,0.0081
1245.00,0.0079
1244.00,0.0078
1243.00,0.0077
1242.00,0.0077
1241.00,0.0076
1240.00,0.0076
1239.00,0.0075
1238.00,0.0075
1237.00,0.0074
1236.00,0.0074
1235.00,0.0073
1234.00,0.0073
1233.00,0.0073
1232.00,0.0073
1231.00,0.0075
1230.00,0.0076
1229.00,0.0078
1228.00,0.0080
1227.00,0.0081
1226.00,0.0083
1225.00,0.0085
1224.00,0.0088
1223.00,0.0091
1222.00,0.0094
1221.00,0.0096
1220.00,0.0098
1219.00,0.0098
1218.00,0.0097
1217.00,0.0096
1216.00,0.0094
1215.00,0.0092
1214.00,0.0089
1213.00,0.0086
1212.00,0.0083
1211.00,0.0081
1210.00,0.0079
1209.00,0.0077
1208.00,0.0076
1207.00,0.0075
1206.00,0.0075
1205.00,0.0074
1204.00,0.0073
1203.00,0.0073
1202.00,0.0073
1201.00,0.0073
1200.00,0.0073
1199.00,0.0073
1198.00,0.0073
1197.00,0.0072
1196.00,0.0072
1195.00,0.0072
1194.00,0.0072
1193.00,0.0072
1192.00,0.0072
1191.00,0.0072
1190.00,0.0073
1189.00,0.0073
1188.00,0.0073
1187.00,0.0073
1186.00,0.0073
1185.00,0.0073
1184.00,0.0074
1183.00,0.0074
1182.00,0.0076
1181.00,0.0078
1180.00,0.0081
1179.00,0.0086
1178.00,0.0092
1177.00,0.0100
1176.00,0.0110
1175.00,0.0124
1174.00,0.0142
1173.00,0.0165
1172.00,0.0193
1171.00,0.0223
1170.00,0.0252
1169.00,0.0276
1168.00,0.0291
1167.00,0.0295
1166.00,0.0288
1165.00,0.0275
1164.00,0.0259
1163.00,0.0244
1162.00,0.0230
1161.00,0.0219
1160.00,0.0210
1159.00,0.0204
1158.00,0.0200
1157.00,0.0198
1156.00,0.0196
1155.00,0.0195
1154.00,0.0193
1153.00,0.0190
1152.00,0.0185
1151.00,0.0179
1150.00,0.0171
1149.00,0.0162
1148.00,0.0154
1147.00,0.0145
1146.00,0.0137
1145.00,0.0129
1144.00,0.0122
1143.00,0.0115
1142.00,0.0109
1141.00,0.0103
1140.00,0.0098
1139.00,0.0094
1138.00,0.0091
1137.00,0.0088
1136.00,0.0085
1135.00,0.0083
1134.00,0.0082
1133.00,0.0081
1132.00,0.0080
1131.00,0.0080
1130.00,0.0080
1129.00,0.0080
1128.00,0.0080
1127.00,0.0080
1126.00,0.0081
1125.00,0.0083
1124.00,0.0084
1123.00,0.0085
1122.00,0.0086
1121.00,0.0086
1120.00,0.0086
1119.00,0.0086
1118.00,0.0087
1117.00,0.0089
1116.00,0.0091
1115.00,0.0093
1114.00,0.0094
1113.00,0.0096
1112.00,0.0097
1111.00,0.0100
1110.00,0.0103
1109.00,0.0107
1108.00,0.0113
1107.00,0.0119
1106.00,0.0125
1105.00,0.0130
1104.00,0.0135
1103.00,0.0138
1102.00,0.0138
1101.00,0.0135
1100.00,0.0130
1099.00,0.0124
1098.00,0.0117
1097.00,0.0110
1096.00,0.0105
1095.00,0.0101
1094.00,0.0100
1093.00,0.0098
1092.00,0.0097
1091.00,0.0095
1090.00,0.0093
1089.00,0.0090
1088.00,0.0088
1087.00,0.0086
1086.00,0.0086
1085.00,0.0085
1084.00,0.0085
1083.00,0.0086
1082.00,0.0086
1081.00,0.0085
1080.00,0.0084
1079.00,0.0083
1078.00,0.0082
1077.00,0.0080
1076.00,0.0079
1075.00,0.0078
1074.00,0.0077
1073.00,0.0077
1072.00,0.0077
1071.00,0.0077
1070.00,0.0076
1069.00,0.0075
1068.00,0.0075
1067.00,0.0075
1066.00,0.0076
1065.00,0.0076
1064.00,0.0076
1063.00,0.0077
1062.00,0.0077
1061.00,0.0078
1060.00,0.0079
1059.00,0.0079
1058.00,0.0079
1057.00,0.0079
1056.00,0.0078
1055.00,0.0078
1054.00,0.0079
1053.00,0.0081
1052.00,0.0083
1051.00,0.0086
1050.00,0.0089
1049.00,0.0092
1048.00,0.0094
1047.00,0.0096
1046.00,0.0098
1045.00,0.0100
1044.00,0.0100
1043.00,0.0100
1042.00,0.0098
1041.00,0.0096
1040.00,0.0094
1039.00,0.0093
1038.00,0.0092
1037.00,0.0091
1036.00,0.0091
1035.00,0.0091
1034.00,0.0091
1033.00,0.0090
1032.00,0.0090
1031.00,0.0089
1030.00,0.0087
1029.00,0.0085
1028.00,0.0084
1027.00,0.0083
1026.00,0.0084
1025.00,0.0085
1024.00,0.0086
1023.00,0.0086
1022.00,0.0087
1021.00,0.0088
1020.00,0.0088
1019.00,0.0088
1018.00,0.0089
1017.00,0.0089
1016.00,0.0091
1015.00,0.0092
1014.00,0.0093
1013.00,0.0095
1012.00,0.0096
1011.00,0.0099
1010.00,0.0102
1009.00,0.0106
1008.00,0.0110
1007.00,0.0115
1006.00,0.0122
1005.00,0.0132
1004.00,0.0148
1003.00,0.0171
1002.00,0.0201
1001.00,0.0237
1000.00,0.0274
999.00,0.0305
998.00,0.0320
997.00,0.0313
996.00,0.0288
995.00,0.0251
994.00,0.0214
993.00,0.0181
992.00,0.0156
991.00,0.0137
990.00,0.0125
989.00,0.0116
988.00,0.0111
987.00,0.0107
986.00,0.0106
985.00,0.0108
984.00,0.0112
983.00,0.0119
982.00,0.0130
981.00,0.0145
980.00,0.0166
979.00,0.0194
978.00,0.0229
977.00,0.0269
976.00,0.0312
975.00,0.0352
974.00,0.0381
973.00,0.0391
972.00,0.0376
971.00,0.0340
970.00,0.0292
969.00,0.0243
968.00,0.0201
967.00,0.0169
966.00,0.0147
965.00,0.0130
964.00,0.0119
963.00,0.0110
962.00,0.0104
961.00,0.0099
960.00,0.0094
959.00,0.0090
958.00,0.0087
957.00,0.0084
956.00,0.0081
955.00,0.0078
954.00,0.0076
953.00,0.0074
952.00,0.0073
951.00,0.0072
950.00,0.0072
949.00,0.0073
948.00,0.0074
947.00,0.0075
946.00,0.0078
945.00,0.0080
944.00,0.0083
943.00,0.0087
942.00,0.0090
941.00,0.0092
940.00,0.0092
939.00,0.0091
938.00,0.0087
937.00,0.0082
936.00,0.0077
935.00,0.0073
934.00,0.0070
933.00,0.0068
932.00,0.0067
931.00,0.0066
930.00,0.0065
929.00,0.0064
928.00,0.0063
927.00,0.0063
926.00,0.0062
925.00,0.0062
924.00,0.0063
923.00,0.0062
922.00,0.0062
921.00,0.0062
920.00,0.0062
919.00,0.0062
918.00,0.0063
917.00,0.0064
916.00,0.0065
915.00,0.0065
914.00,0.0065
913.00,0.0066
912.00,0.0067
911.00,0.0070
910.00,0.0073
909.00,0.0076
908.00,0.0080
907.00,0.0085
906.00,0.0092
905.00,0.0101
904.00,0.0115
903.00,0.0132
902.00,0.0151
901.00,0.0169
900.00,0.0180
899.00,0.0183
898.00,0.0176
897.00,0.0160
896.00,0.0140
895.00,0.0122
894.00,0.0106
893.00,0.0095
892.00,0.0088
891.00,0.0083
890.00,0.0081
889.00,0.0080
888.00,0.0078
887.00,0.0077
886.00,0.0076
885.00,0.0074
884.00,0.0073
883.00,0.0073
882.00,0.0073
881.00,0.0073
880.00,0.0073
879.00,0.0073
878.00,0.0074
877.00,0.0074
876.00,0.0074
875.00,0.0075
874.00,0.0076
873.00,0.0077
872.00,0.0078
871.00,0.0078
870.00,0.0077
869.00,0.0077
868.00,0.0077
867.00,0.0079
866.00,0.0080
865.00,0.0081
864.00,0.0082
863.00,0.0082
862.00,0.0082
861.00,0.0083
860.00,0.0085
859.00,0.0087
858.00,0.0089
857.00,0.0090
856.00,0.0091
855.00,0.0092
854.00,0.0094
853.00,0.0096
852.00,0.0099
851.00,0.0102
850.00,0.0106
849.00,0.0111
848.00,0.0119
847.00,0.0132
846.00,0.0152
845.00,0.0182
844.00,0.0225
843.00,0.0274
842.00,0.0313
841.00,0.0326
840.00,0.0304
839.00,0.0259
838.00,0.0209
837.00,0.0169
836.00,0.0143
835.00,0.0128
834.00,0.0120
833.00,0.0115
832.00,0.0113
831.00,0.0111
830.00,0.0109
829.00,0.0107
828.00,0.0104
827.00,0.0103
826.00,0.0102
825.00,0.0102
824.00,0.0102
823.00,0.0101
822.00,0.0102
821.00,0.0103
820.00,0.0106
819.00,0.0110
818.00,0.0116
817.00,0.0122
816.00,0.0129
815.00,0.0139
814.00,0.0154
813.00,0.0173
812.00,0.0195
811.00,0.0214
810.00,0.0227
809.00,0.0232
808.00,0.0227
807.00,0.0215
806.00,0.0198
805.00,0.0178
804.00,0.0161
803.00,0.0147
802.00,0.0137
801.00,0.0129
800.00,0.0123
799.00,0.0118
798.00,0.0115
797.00,0.0112
796.00,0.0109
795.00,0.0105
794.00,0.0101
793.00,0.0097
792.00,0.0094
791.00,0.0091
790.00,0.0088
789.00,0.0084
788.00,0.0081
787.00,0.0079
786.00,0.0077
785.00,0.0075
784.00,0.0072
783.00,0.0070
782.00,0.0068
781.00,0.0068
780.00,0.0070
779.00,0.0071
778.00,0.0071
777.00,0.0070
776.00,0.0069
775.00,0.0068
774.00,0.0068
773.00,0.0067
772.00,0.0067
771.00,0.0067
770.00,0.0068
769.00,0.0069
768.00,0.0068
767.00,0.0067
766.00,0.0065
765.00,0.0064
764.00,0.0063
763.00,0.0064
762.00,0.0066
761.00,0.0069
760.00,0.0071
759.00,0.0071
758.00,0.0072
757.00,0.0072
756.00,0.0073
755.00,0.0075
754.00,0.0076
753.00,0.0077
752.00,0.0078
751.00,0.0078
750.00,0.0079
749.00,0.0081
748.00,0.0083
747.00,0.0085
746.00,0.0087
745.00,0.0089
744.00,0.0090
743.00,0.0092
742.00,0.0095
741.00,0.0098
740.00,0.0100
739.00,0.0103
738.00,0.0105
737.00,0.0109
736.00,0.0112
735.00,0.0116
734.00,0.0121
733.00,0.0128
732.00,0.0137
731.00,0.0146
730.00,0.0154
729.00,0.0159
728.00,0.0160
727.00,0.0159
726.00,0.0159
725.00,0.0161
724.00,0.0166
723.00,0.0172
722.00,0.0179
721.00,0.0184
720.00,0.0183
719.00,0.0175
718.00,0.0162
717.00,0.0149
716.00,0.0137
715.00,0.0129
714.00,0.0124
713.00,0.0120
712.00,0.0118
711.00,0.0116
710.00,0.0115
709.00,0.0113
708.00,0.0110
707.00,0.0108
706.00,0.0105
705.00,0.0102
704.00,0.0100
703.00,0.0099
702.00,0.0099
701.00,0.0097
700.00,0.0096
699.00,0.0094
698.00,0.0092
697.00,0.0092
696.00,0.0092
695.00,0.0093
694.00,0.0093
693.00,0.0092
692.00,0.0092
691.00,0.0092
690.00,0.0092
689.00,0.0092
688.00,0.0091
687.00,0.0091
686.00,0.0091
685.00,0.0093
684.00,0.0095
683.00,0.0095
682.00,0.0096
681.00,0.0095
680.00,0.0096
679.00,0.0097
678.00,0.0098
677.00,0.0099
676.00,0.0099
675.00,0.0098
674.00,0.0096
673.00,0.0093
672.00,0.0091
671.00,0.0092
670.00,0.0094
669.00,0.0095
668.00,0.0094
667.00,0.0092
666.00,0.0090
665.00,0.0089
664.00,0.0087
663.00,0.0085
662.00,0.0084
661.00,0.0084
660.00,0.0084
659.00,0.0084
658.00,0.0084
657.00,0.0085
656.00,0.0085
655.00,0.0085
654.00,0.0084
653.00,0.0084
652.00,0.0086
651.00,0.0087
650.00,0.0087
649.00,0.0086
648.00,0.0086
647.00,0.0086
646.00,0.0087
645.00,0.0088
644.00,0.0089
643.00,0.0089
642.00,0.0089
641.00,0.0089
640.00,0.0090
639.00,0.0091
638.00,0.0090
637.00,0.0087
636.00,0.0082
635.00,0.0078
634.00,0.0077
633.00,0.0079
632.00,0.0081
631.00,0.0084
630.00,0.0086
629.00,0.0089
628.00,0.0091
627.00,0.0093
626.00,0.0093
625.00,0.0092
624.00,0.0092
623.00,0.0093
622.00,0.0093
621.00,0.0091
620.00,0.0089
619.00,0.0086
618.00,0.0085
617.00,0.0086
616.00,0.0087
615.00,0.0088
614.00,0.0087
613.00,0.0086
612.00,0.0086
611.00,0.0085
610.00,0.0083
609.00,0.0080
608.00,0.0078
607.00,0.0078
606.00,0.0081
605.00,0.0085
604.00,0.0088
603.00,0.0088
602.00,0.0086
601.00,0.0085
600.00,0.0083
599.00,0.0083
598.00,0.0085
597.00,0.0087
596.00,0.0087
595.00,0.0087
594.00,0.0085
593.00,0.0083
592.00,0.0081
591.00,0.0080
590.00,0.0081
589.00,0.0085
588.00,0.0090
587.00,0.0093
586.00,0.0092
585.00,0.0089
584.00,0.0085
583.00,0.0083
582.00,0.0083
581.00,0.0084
580.00,0.0084
579.00,0.0085
578.00,0.0085
577.00,0.0085
576.00,0.0086
575.00,0.0086
574.00,0.0085
573.00,0.0084
572.00,0.0083
571.00,0.0085
570.00,0.0088
569.00,0.0089
568.00,0.0088
567.00,0.0084
566.00,0.0080
565.00,0.0080
564.00,0.0083
563.00,0.0089
562.00,0.0093
561.00,0.0094
560.00,0.0092
559.00,0.0088
558.00,0.0086
557.00,0.0087
556.00,0.0088
555.00,0.0085
554.00,0.0081
553.00,0.0078
552.00,0.0079
551.00,0.0084
550.00,0.0089
549.00,0.0093
548.00,0.0095
547.00,0.0095
546.00,0.0092
545.00,0.0086
544.00,0.0080
543.00,0.0076
542.00,0.0076
541.00,0.0079
540.00,0.0084
539.00,0.0090
538.00,0.0095
537.00,0.0098
536.00,0.0098
535.00,0.0097
534.00,0.0097
533.00,0.0098
532.00,0.0095
531.00,0.0091
530.00,0.0087
529.00,0.0089
528.00,0.0096
527.00,0.0103
526.00,0.0106
525.00,0.0102
524.00,0.0096
523.00,0.0090
522.00,0.0087
521.00,0.0087
520.00,0.0089
519.00,0.0091
518.00,0.0091
517.00,0.0089
516.00,0.0087
515.00,0.0085
514.00,0.0082
513.00,0.0078
512.00,0.0074
511.00,0.0073
510.00,0.0075
509.00,0.0079
508.00,0.0081
507.00,0.0081
506.00,0.0078
505.00,0.0074
504.00,0.0074
503.00,0.0080
502.00,0.0086
501.00,0.0085
500.00,0.0076
499.00,0.0065
498.00,0.0059
497.00,0.0059
496.00,0.0064
495.00,0.0071
494.00,0.0074
493.00,0.0069
492.00,0.0056
491.00,0.0044
490.00,0.0039
489.00,0.0044
488.00,0.0056
487.00,0.0068
486.00,0.0077
485.00,0.0080
484.00,0.0078
483.00,0.0072
482.00,0.0070
481.00,0.0073
480.00,0.0080
479.00,0.0088
478.00,0.0096
477.00,0.0107
476.00,0.0117
475.00,0.0122
474.00,0.0116
473.00,0.0102
472.00,0.0089
471.00,0.0083
470.00,0.0082
469.00,0.0081
468.00,0.0082
467.00,0.0088
466.00,0.0100
465.00,0.0115
464.00,0.0129
463.00,0.0137
462.00,0.0138
461.00,0.0133
460.00,0.0128
459.00,0.0129
458.00,0.0137
457.00,0.0147
456.00,0.0153
455.00,0.0151
454.00,0.0142
453.00,0.0130
452.00,0.0117
451.00,0.0107
450.00,0.0103
