Created as New Dataset,Sample 011 By Administrator Date Thursday, September 04 2025
cm-1,A
4000.00,0.0009
3999.00,0.0009
3998.00,0.0009
3997.00,0.0009
3996.00,0.0009
3995.00,0.0009
3994.00,0.0009
3993.00,0.0009
3992.00,0.0009
3991.00,0.0009
3990.00,0.0009
3989.00,0.0008
3988.00,0.0008
3987.00,0.0008
3986.00,0.0008
3985.00,0.0008
3984.00,0.0009
3983.00,0.0009
3982.00,0.0009
3981.00,0.0009
3980.00,0.0009
3979.00,0.0009
3978.00,0.0008
3977.00,0.0008
3976.00,0.0008
3975.00,0.0008
3974.00,0.0007
3973.00,0.0007
3972.00,0.0007
3971.00,0.0007
3970.00,0.0007
3969.00,0.0007
3968.00,0.0007
3967.00,0.0007
3966.00,0.0007
3965.00,0.0007
3964.00,0.0007
3963.00,0.0007
3962.00,0.0007
3961.00,0.0007
3960.00,0.0008
3959.00,0.0008
3958.00,0.0008
3957.00,0.0008
3956.00,0.0008
3955.00,0.0008
3954.00,0.0008
3953.00,0.0007
3952.00,0.0007
3951.00,0.0007
3950.00,0.0007
3949.00,0.0007
3948.00,0.0007
3947.00,0.0007
3946.00,0.0007
3945.00,0.0007
3944.00,0.0007
3943.00,0.0007
3942.00,0.0007
3941.00,0.0007
3940.00,0.0007
3939.00,0.0008
3938.00,0.0008
3937.00,0.0008
3936.00,0.0008
3935.00,0.0008
3934.00,0.0008
3933.00,0.0008
3932.00,0.0008
3931.00,0.0008
3930.00,0.0007
3929.00,0.0007
3928.00,0.0008
3927.00,0.0008
3926.00,0.0008
3925.00,0.0008
3924.00,0.0008
3923.00,0.0007
3922.00,0.0007
3921.00,0.0007
3920.00,0.0007
3919.00,0.0007
3918.00,0.0007
3917.00,0.0007
3916.00,0.0007
3915.00,0.0007
3914.00,0.0007
3913.00,0.0007
3912.00,0.0007
3911.00,0.0007
3910.00,0.0007
3909.00,0.0007
3908.00,0.0007
3907.00,0.0007
3906.00,0.0007
3905.00,0.0007
3904.00,0.0007
3903.00,0.0007
3902.00,0.0007
3901.00,0.0007
3900.00,0.0007
3899.00,0.0007
3898.00,0.0007
3897.00,0.0007
3896.00,0.0008
3895.00,0.0008
3894.00,0.0008
3893.00,0.0008
3892.00,0.0007
3891.00,0.0007
3890.00,0.0006
3889.00,0.0006
3888.00,0.0005
3887.00,0.0005
3886.00,0.0005
3885.00,0.0005
3884.00,0.0006
3883.00,0.0006
3882.00,0.0006
3881.00,0.0007
3880.00,0.0007
3879.00,0.0007
3878.00,0.0007
3877.00,0.0007
3876.00,0.0007
3875.00,0.0007
3874.00,0.0006
3873.00,0.0006
3872.00,0.0006
3871.00,0.0006
3870.00,0.0006
3869.00,0.0007
3868.00,0.0007
3867.00,0.0007
3866.00,0.0007
3865.00,0.0007
3864.00,0.0007
3863.00,0.0007
3862.00,0.0007
3861.00,0.0007
3860.00,0.0007
3859.00,0.0007
3858.00,0.0007
3857.00,0.0006
3856.00,0.0006
3855.00,0.0005
3854.00,0.0005
3853.00,0.0005
3852.00,0.0005
3851.00,0.0006
3850.00,0.0006
3849.00,0.0006
3848.00,0.0006
3847.00,0.0006
3846.00,0.0006
3845.00,0.0006
3844.00,0.0006
3843.00,0.0006
3842.00,0.0007
3841.00,0.0007
3840.00,0.0007
3839.00,0.0007
3838.00,0.0007
3837.00,0.0007
3836.00,0.0006
3835.00,0.0006
3834.00,0.0006
3833.00,0.0006
3832.00,0.0006
3831.00,0.0006
3830.00,0.0006
3829.00,0.0006
3828.00,0.0006
3827.00,0.0006
3826.00,0.0006
3825.00,0.0006
3824.00,0.0006
3823.00,0.0006
3822.00,0.0006
3821.00,0.0006
3820.00,0.0006
3819.00,0.0006
3818.00,0.0005
3817.00,0.0005
3816.00,0.0005
3815.00,0.0006
3814.00,0.0006
3813.00,0.0006
3812.00,0.0006
3811.00,0.0006
3810.00,0.0006
3809.00,0.0006
3808.00,0.0006
3807.00,0.0006
3806.00,0.0006
3805.00,0.0006
3804.00,0.0006
3803.00,0.0006
3802.00,0.0006
3801.00,0.0006
3800.00,0.0006
3799.00,0.0006
3798.00,0.0006
3797.00,0.0006
3796.00,0.0006
3795.00,0.0006
3794.00,0.0006
3793.00,0.0006
3792.00,0.0006
3791.00,0.0006
3790.00,0.0006
3789.00,0.0006
3788.00,0.0006
3787.00,0.0006
3786.00,0.0007
3785.00,0.0007
3784.00,0.0007
3783.00,0.0007
3782.00,0.0006
3781.00,0.0006
3780.00,0.0006
3779.00,0.0006
3778.00,0.0006
3777.00,0.0006
3776.00,0.0006
3775.00,0.0006
3774.00,0.0006
3773.00,0.0006
3772.00,0.0006
3771.00,0.0006
3770.00,0.0006
3769.00,0.0007
3768.00,0.0007
3767.00,0.0007
3766.00,0.0007
3765.00,0.0008
3764.00,0.0008
3763.00,0.0008
3762.00,0.0008
3761.00,0.0008
3760.00,0.0008
3759.00,0.0008
3758.00,0.0008
3757.00,0.0007
3756.00,0.0007
3755.00,0.0007
3754.00,0.0006
3753.00,0.0006
3752.00,0.0006
3751.00,0.0005
3750.00,0.0005
3749.00,0.0005
3748.00,0.0005
3747.00,0.0005
3746.00,0.0005
3745.00,0.0005
3744.00,0.0005
3743.00,0.0005
3742.00,0.0005
3741.00,0.0005
3740.00,0.0005
3739.00,0.0005
3738.00,0.0005
3737.00,0.0005
3736.00,0.0004
3735.00,0.0004
3734.00,0.0004
3733.00,0.0003
3732.00,0.0003
3731.00,0.0003
3730.00,0.0003
3729.00,0.0003
3728.00,0.0003
3727.00,0.0004
3726.00,0.0004
3725.00,0.0004
3724.00,0.0004
3723.00,0.0004
3722.00,0.0005
3721.00,0.0005
3720.00,0.0005
3719.00,0.0005
3718.00,0.0005
3717.00,0.0006
3716.00,0.0006
3715.00,0.0006
3714.00,0.0006
3713.00,0.0006
3712.00,0.0006
3711.00,0.0005
3710.00,0.0005
3709.00,0.0004
3708.00,0.0004
3707.00,0.0004
3706.00,0.0003
3705.00,0.0003
3704.00,0.0003
3703.00,0.0004
3702.00,0.0004
3701.00,0.0005
3700.00,0.0004
3699.00,0.0004
3698.00,0.0004
3697.00,0.0005
3696.00,0.0005
3695.00,0.0005
3694.00,0.0005
3693.00,0.0005
3692.00,0.0005
3691.00,0.0005
3690.00,0.0006
3689.00,0.0006
3688.00,0.0006
3687.00,0.0006
3686.00,0.0007
3685.00,0.0007
3684.00,0.0007
3683.00,0.0008
3682.00,0.0008
3681.00,0.0008
3680.00,0.0008
3679.00,0.0008
3678.00,0.0008
3677.00,0.0008
3676.00,0.0009
3675.00,0.0009
3674.00,0.0009
3673.00,0.0009
3672.00,0.0008
3671.00,0.0008
3670.00,0.0009
3669.00,0.0009
3668.00,0.0009
3667.00,0.0009
3666.00,0.0009
3665.00,0.0009
3664.00,0.0009
3663.00,0.0009
3662.00,0.0009
3661.00,0.0008
3660.00,0.0008
3659.00,0.0008
3658.00,0.0008
3657.00,0.0008
3656.00,0.0009
3655.00,0.0009
3654.00,0.0010
3653.00,0.0010
3652.00,0.0010
3651.00,0.0011
3650.00,0.0011
3649.00,0.0011
3648.00,0.0011
3647.00,0.0011
3646.00,0.0011
3645.00,0.0011
3644.00,0.0011
3643.00,0.0011
3642.00,0.0011
3641.00,0.0011
3640.00,0.0011
3639.00,0.0011
3638.00,0.0010
3637.00,0.0010
3636.00,0.0010
3635.00,0.0010
3634.00,0.0010
3633.00,0.0010
3632.00,0.0009
3631.00,0.0009
3630.00,0.0009
3629.00,0.0010
3628.00,0.0010
3627.00,0.0011
3626.00,0.0011
3625.00,0.0011
3624.00,0.0011
3623.00,0.0012
3622.00,0.0012
3621.00,0.0012
3620.00,0.0013
3619.00,0.0013
3618.00,0.0013
3617.00,0.0013
3616.00,0.0013
3615.00,0.0014
3614.00,0.0014
3613.00,0.0014
3612.00,0.0014
3611.00,0.0014
3610.00,0.0015
3609.00,0.0016
3608.00,0.0017
3607.00,0.0018
3606.00,0.0018
3605.00,0.0018
3604.00,0.0018
3603.00,0.0018
3602.00,0.0018
3601.00,0.0018
3600.00,0.0018
3599.00,0.0017
3598.00,0.0017
3597.00,0.0018
3596.00,0.0018
3595.00,0.0019
3594.00,0.0020
3593.00,0.0020
3592.00,0.0020
3591.00,0.0020
3590.00,0.0021
3589.00,0.0021
3588.00,0.0022
3587.00,0.0023
3586.00,0.0023
3585.00,0.0023
3584.00,0.0024
3583.00,0.0024
3582.00,0.0024
3581.00,0.0024
3580.00,0.0024
3579.00,0.0024
3578.00,0.0024
3577.00,0.0024
3576.00,0.0024
3575.00,0.0025
3574.00,0.0026
3573.00,0.0027
3572.00,0.0027
3571.00,0.0027
3570.00,0.0028
3569.00,0.0029
3568.00,0.0030
3567.00,0.0031
3566.00,0.0031
3565.00,0.0031
3564.00,0.0031
3563.00,0.0031
3562.00,0.0031
3561.00,0.0032
3560.00,0.0032
3559.00,0.0033
3558.00,0.0033
3557.00,0.0034
3556.00,0.0035
3555.00,0.0035
3554.00,0.0036
3553.00,0.0036
3552.00,0.0036
3551.00,0.0036
3550.00,0.0037
3549.00,0.0037
3548.00,0.0038
3547.00,0.0038
3546.00,0.0039
3545.00,0.0039
3544.00,0.0040
3543.00,0.0041
3542.00,0.0041
3541.00,0.0041
3540.00,0.0041
3539.00,0.0042
3538.00,0.0042
3537.00,0.0043
3536.00,0.0043
3535.00,0.0044
3534.00,0.0044
3533.00,0.0045
3532.00,0.0045
3531.00,0.0046
3530.00,0.0046
3529.00,0.0047
3528.00,0.0047
3527.00,0.0047
3526.00,0.0048
3525.00,0.0048
3524.00,0.0049
3523.00,0.0049
3522.00,0.0049
3521.00,0.0050
3520.00,0.0051
3519.00,0.0051
3518.00,0.0052
3517.00,0.0053
3516.00,0.0053
3515.00,0.0054
3514.00,0.0055
3513.00,0.0056
3512.00,0.0057
3511.00,0.0058
3510.00,0.0058
3509.00,0.0058
3508.00,0.0058
3507.00,0.0058
3506.00,0.0059
3505.00,0.0059
3504.00,0.0060
3503.00,0.0061
3502.00,0.0061
3501.00,0.0061
3500.00,0.0061
3499.00,0.0062
3498.00,0.0062
3497.00,0.0063
3496.00,0.0064
3495.00,0.0065
3494.00,0.0066
3493.00,0.0067
3492.00,0.0067
3491.00,0.0067
3490.00,0.0067
3489.00,0.0068
3488.00,0.0068
3487.00,0.0069
3486.00,0.0069
3485.00,0.0070
3484.00,0.0070
3483.00,0.0071
3482.00,0.0071
3481.00,0.0071
3480.00,0.0072
3479.00,0.0072
3478.00,0.0072
3477.00,0.0073
3476.00,0.0073
3475.00,0.0073
3474.00,0.0074
3473.00,0.0074
3472.00,0.0075
3471.00,0.0075
3470.00,0.0076
3469.00,0.0076
3468.00,0.0077
3467.00,0.0078
3466.00,0.0079
3465.00,0.0079
3464.00,0.0079
3463.00,0.0080
3462.00,0.0080
3461.00,0.0080
3460.00,0.0080
3459.00,0.0081
3458.00,0.0081
3457.00,0.0081
3456.00,0.0082
3455.00,0.0082
3454.00,0.0082
3453.00,0.0083
3452.00,0.0083
3451.00,0.0084
3450.00,0.0084
3449.00,0.0085
3448.00,0.0085
3447.00,0.0086
3446.00,0.0087
3445.00,0.0087
3444.00,0.0088
3443.00,0.0088
3442.00,0.0088
3441.00,0.0088
3440.00,0.0088
3439.00,0.0088
3438.00,0.0089
3437.00,0.0090
3436.00,0.0090
3435.00,0.0090
3434.00,0.0091
3433.00,0.0091
3432.00,0.0092
3431.00,0.0092
3430.00,0.0092
3429.00,0.0093
3428.00,0.0093
3427.00,0.0094
3426.00,0.0094
3425.00,0.0094
3424.00,0.0094
3423.00,0.0094
3422.00,0.0095
3421.00,0.0095
3420.00,0.0096
3419.00,0.0096
3418.00,0.0096
3417.00,0.0096
3416.00,0.0096
3415.00,0.0097
3414.00,0.0097
3413.00,0.0098
3412.00,0.0098
3411.00,0.0099
3410.00,0.0099
3409.00,0.0099
3408.00,0.0100
3407.00,0.0100
3406.00,0.0100
3405.00,0.0101
3404.00,0.0101
3403.00,0.0101
3402.00,0.0101
3401.00,0.0101
3400.00,0.0101
3399.00,0.0101
3398.00,0.0102
3397.00,0.0102
3396.00,0.0102
3395.00,0.0103
3394.00,0.0102
3393.00,0.0102
3392.00,0.0102
3391.00,0.0102
3390.00,0.0102
3389.00,0.0102
3388.00,0.0102
3387.00,0.0102
3386.00,0.0102
3385.00,0.0103
3384.00,0.0103
3383.00,0.0103
3382.00,0.0103
3381.00,0.0103
3380.00,0.0103
3379.00,0.0103
3378.00,0.0103
3377.00,0.0103
3376.00,0.0103
3375.00,0.0103
3374.00,0.0103
3373.00,0.0103
3372.00,0.0103
3371.00,0.0103
3370.00,0.0103
3369.00,0.0103
3368.00,0.0103
3367.00,0.0103
3366.00,0.0103
3365.00,0.0103
3364.00,0.0103
3363.00,0.0104
3362.00,0.0103
3361.00,0.0103
3360.00,0.0103
3359.00,0.0103
3358.00,0.0103
3357.00,0.0103
3356.00,0.0102
3355.00,0.0102
3354.00,0.0102
3353.00,0.0102
3352.00,0.0103
3351.00,0.0103
3350.00,0.0103
3349.00,0.0102
3348.00,0.0102
3347.00,0.0102
3346.00,0.0102
3345.00,0.0102
3344.00,0.0102
3343.00,0.0102
3342.00,0.0102
3341.00,0.0102
3340.00,0.0101
3339.00,0.0101
3338.00,0.0101
3337.00,0.0101
3336.00,0.0100
3335.00,0.0100
3334.00,0.0100
3333.00,0.0099
3332.00,0.0099
3331.00,0.0099
3330.00,0.0100
3329.00,0.0100
3328.00,0.0099
3327.00,0.0099
3326.00,0.0098
3325.00,0.0098
3324.00,0.0098
3323.00,0.0098
3322.00,0.0098
3321.00,0.0098
3320.00,0.0097
3319.00,0.0097
3318.00,0.0097
3317.00,0.0096
3316.00,0.0096
3315.00,0.0096
3314.00,0.0096
3313.00,0.0096
3312.00,0.0096
3311.00,0.0096
3310.00,0.0095
3309.00,0.0095
3308.00,0.0095
3307.00,0.0095
3306.00,0.0096
3305.00,0.0096
3304.00,0.0096
3303.00,0.0096
3302.00,0.0096
3301.00,0.0096
3300.00,0.0096
3299.00,0.0095
3298.00,0.0095
3297.00,0.0094
3296.00,0.0093
3295.00,0.0093
3294.00,0.0092
3293.00,0.0092
3292.00,0.0092
3291.00,0.0091
3290.00,0.0091
3289.00,0.0090
3288.00,0.0090
3287.00,0.0089
3286.00,0.0088
3285.00,0.0088
3284.00,0.0088
3283.00,0.0088
3282.00,0.0088
3281.00,0.0087
3280.00,0.0087
3279.00,0.0086
3278.00,0.0086
3277.00,0.0086
3276.00,0.0086
3275.00,0.0086
3274.00,0.0086
3273.00,0.0086
3272.00,0.0085
3271.00,0.0085
3270.00,0.0085
3269.00,0.0084
3268.00,0.0083
3267.00,0.0083
3266.00,0.0082
3265.00,0.0082
3264.00,0.0082
3263.00,0.0082
3262.00,0.0082
3261.00,0.0082
3260.00,0.0081
3259.00,0.0081
3258.00,0.0080
3257.00,0.0080
3256.00,0.0079
3255.00,0.0079
3254.00,0.0078
3253.00,0.0078
3252.00,0.0077
3251.00,0.0077
3250.00,0.0077
3249.00,0.0077
3248.00,0.0077
3247.00,0.0077
3246.00,0.0076
3245.00,0.0076
3244.00,0.0076
3243.00,0.0076
3242.00,0.0075
3241.00,0.0075
3240.00,0.0075
3239.00,0.0075
3238.00,0.0075
3237.00,0.0075
3236.00,0.0075
3235.00,0.0074
3234.00,0.0074
3233.00,0.0074
3232.00,0.0074
3231.00,0.0074
3230.00,0.0074
3229.00,0.0074
3228.00,0.0074
3227.00,0.0074
3226.00,0.0074
3225.00,0.0073
3224.00,0.0073
3223.00,0.0072
3222.00,0.0072
3221.00,0.0072
3220.00,0.0072
3219.00,0.0073
3218.00,0.0073
3217.00,0.0073
3216.00,0.0074
3215.00,0.0074
3214.00,0.0074
3213.00,0.0074
3212.00,0.0074
3211.00,0.0074
3210.00,0.0074
3209.00,0.0073
3208.00,0.0073
3207.00,0.0073
3206.00,0.0073
3205.00,0.0073
3204.00,0.0073
3203.00,0.0073
3202.00,0.0073
3201.00,0.0072
3200.00,0.0072
3199.00,0.0072
3198.00,0.0072
3197.00,0.0073
3196.00,0.0073
3195.00,0.0073
3194.00,0.0072
3193.00,0.0072
3192.00,0.0072
3191.00,0.0071
3190.00,0.0071
3189.00,0.0071
3188.00,0.0071
3187.00,0.0071
3186.00,0.0071
3185.00,0.0070
3184.00,0.0070
3183.00,0.0070
3182.00,0.0069
3181.00,0.0069
3180.00,0.0069
3179.00,0.0069
3178.00,0.0069
3177.00,0.0069
3176.00,0.0068
3175.00,0.0068
3174.00,0.0068
3173.00,0.0068
3172.00,0.0067
3171.00,0.0067
3170.00,0.0066
3169.00,0.0066
3168.00,0.0065
3167.00,0.0065
3166.00,0.0064
3165.00,0.0064
3164.00,0.0064
3163.00,0.0063
3162.00,0.0063
3161.00,0.0062
3160.00,0.0062
3159.00,0.0062
3158.00,0.0062
3157.00,0.0062
3156.00,0.0061
3155.00,0.0061
3154.00,0.0061
3153.00,0.0061
3152.00,0.0061
3151.00,0.0061
3150.00,0.0060
3149.00,0.0060
3148.00,0.0060
3147.00,0.0060
3146.00,0.0060
3145.00,0.0060
3144.00,0.0060
3143.00,0.0059
3142.00,0.0059
3141.00,0.0058
3140.00,0.0058
3139.00,0.0057
3138.00,0.0057
3137.00,0.0057
3136.00,0.0057
3135.00,0.0056
3134.00,0.0056
3133.00,0.0056
3132.00,0.0056
3131.00,0.0055
3130.00,0.0055
3129.00,0.0055
3128.00,0.0054
3127.00,0.0054
3126.00,0.0054
3125.00,0.0053
3124.00,0.0053
3123.00,0.0052
3122.00,0.0052
3121.00,0.0052
3120.00,0.0052
3119.00,0.0051
3118.00,0.0051
3117.00,0.0051
3116.00,0.0050
3115.00,0.0050
3114.00,0.0050
3113.00,0.0049
3112.00,0.0049
3111.00,0.0049
3110.00,0.0049
3109.00,0.0049
3108.00,0.0048
3107.00,0.0048
3106.00,0.0048
3105.00,0.0048
3104.00,0.0048
3103.00,0.0048
3102.00,0.0048
3101.00,0.0047
3100.00,0.0047
3099.00,0.0046
3098.00,0.0046
3097.00,0.0046
3096.00,0.0046
3095.00,0.0046
3094.00,0.0046
3093.00,0.0046
3092.00,0.0045
3091.00,0.0045
3090.00,0.0045
3089.00,0.0045
3088.00,0.0045
3087.00,0.0045
3086.00,0.0045
3085.00,0.0045
3084.00,0.0045
3083.00,0.0044
3082.00,0.0044
3081.00,0.0044
3080.00,0.0043
3079.00,0.0044
3078.00,0.0044
3077.00,0.0044
3076.00,0.0044
3075.00,0.0044
3074.00,0.0044
3073.00,0.0044
3072.00,0.0045
3071.00,0.0045
3070.00,0.0045
3069.00,0.0045
3068.00,0.0045
3067.00,0.0046
3066.00,0.0046
3065.00,0.0046
3064.00,0.0046
3063.00,0.0046
3062.00,0.0047
3061.00,0.0047
3060.00,0.0047
3059.00,0.0047
3058.00,0.0047
3057.00,0.0047
3056.00,0.0047
3055.00,0.0046
3054.00,0.0047
3053.00,0.0047
3052.00,0.0047
3051.00,0.0047
3050.00,0.0047
3049.00,0.0048
3048.00,0.0048
3047.00,0.0048
3046.00,0.0048
3045.00,0.0049
3044.00,0.0049
3043.00,0.0050
3042.00,0.0050
3041.00,0.0050
3040.00,0.0050
3039.00,0.0050
3038.00,0.0050
3037.00,0.0051
3036.00,0.0051
3035.00,0.0052
3034.00,0.0052
3033.00,0.0053
3032.00,0.0054
3031.00,0.0054
3030.00,0.0054
3029.00,0.0055
3028.00,0.0055
3027.00,0.0055
3026.00,0.0056
3025.00,0.0056
3024.00,0.0057
3023.00,0.0058
3022.00,0.0059
3021.00,0.0059
3020.00,0.0060
3019.00,0.0061
3018.00,0.0062
3017.00,0.0062
3016.00,0.0063
3015.00,0.0064
3014.00,0.0065
3013.00,0.0066
3012.00,0.0068
3011.00,0.0069
3010.00,0.0071
3009.00,0.0072
3008.00,0.0074
3007.00,0.0077
3006.00,0.0079
3005.00,0.0081
3004.00,0.0083
3003.00,0.0085
3002.00,0.0087
3001.00,0.0089
3000.00,0.0091
2999.00,0.0094
2998.00,0.0097
2997.00,0.0101
2996.00,0.0104
2995.00,0.0108
2994.00,0.0112
2993.00,0.0116
2992.00,0.0121
2991.00,0.0127
2990.00,0.0133
2989.00,0.0140
2988.00,0.0147
2987.00,0.0156
2986.00,0.0165
2985.00,0.0176
2984.00,0.0188
2983.00,0.0201
2982.00,0.0216
2981.00,0.0232
2980.00,0.0249
2979.00,0.0267
2978.00,0.0289
2977.00,0.0314
2976.00,0.0343
2975.00,0.0377
2974.00,0.0417
2973.00,0.0462
2972.00,0.0512
2971.00,0.0568
2970.00,0.0630
2969.00,0.0699
2968.00,0.0773
2967.00,0.0853
2966.00,0.0937
2965.00,0.1022
2964.00,0.1105
2963.00,0.1182
2962.00,0.1248
2961.00,0.1302
2960.00,0.1344
2959.00,0.1377
2958.00,0.1409
2957.00,0.1444
2956.00,0.1488
2955.00,0.1543
2954.00,0.1607
2953.00,0.1675
2952.00,0.1736
2951.00,0.1779
2950.00,0.1792
2949.00,0.1769
2948.00,0.1711
2947.00,0.1622
2946.00,0.1515
2945.00,0.1402
2944.00,0.1295
2943.00,0.1204
2942.00,0.1134
2941.00,0.1087
2940.00,0.1063
2939.00,0.1060
2938.00,0.1074
2937.00,0.1105
2936.00,0.1150
2935.00,0.1210
2934.00,0.1281
2933.00,0.1365
2932.00,0.1459
2931.00,0.1562
2930.00,0.1670
2929.00,0.1783
2928.00,0.1896
2927.00,0.2006
2926.00,0.2112
2925.00,0.2214
2924.00,0.2313
2923.00,0.2409
2922.00,0.2503
2921.00,0.2591
2920.00,0.2668
2919.00,0.2723
2918.00,0.2747
2917.00,0.2733
2916.00,0.2682
2915.00,0.2600
2914.00,0.2498
2913.00,0.2388
2912.00,0.2281
2911.00,0.2183
2910.00,0.2095
2909.00,0.2018
2908.00,0.1947
2907.00,0.1881
2906.00,0.1816
2905.00,0.1751
2904.00,0.1685
2903.00,0.1619
2902.00,0.1554
2901.00,0.1490
2900.00,0.1429
2899.00,0.1371
2898.00,0.1317
2897.00,0.1267
2896.00,0.1222
2895.00,0.1183
2894.00,0.1148
2893.00,0.1120
2892.00,0.1097
2891.00,0.1079
2890.00,0.1067
2889.00,0.1058
2888.00,0.1053
2887.00,0.1050
2886.00,0.1051
2885.00,0.1056
2884.00,0.1064
2883.00,0.1077
2882.00,0.1093
2881.00,0.1113
2880.00,0.1133
2879.00,0.1149
2878.00,0.1160
2877.00,0.1163
2876.00,0.1161
2875.00,0.1156
2874.00,0.1152
2873.00,0.1153
2872.00,0.1161
2871.00,0.1175
2870.00,0.1194
2869.00,0.1213
2868.00,0.1226
2867.00,0.1226
2866.00,0.1207
2865.00,0.1169
2864.00,0.1115
2863.00,0.1052
2862.00,0.0990
2861.00,0.0936
2860.00,0.0895
2859.00,0.0868
2858.00,0.0855
2857.00,0.0852
2856.00,0.0858
2855.00,0.0869
2854.00,0.0883
2853.00,0.0899
2852.00,0.0913
2851.00,0.0923
2850.00,0.0928
2849.00,0.0929
2848.00,0.0929
2847.00,0.0932
2846.00,0.0944
2845.00,0.0967
2844.00,0.1000
2843.00,0.1041
2842.00,0.1085
2841.00,0.1126
2840.00,0.1158
2839.00,0.1172
2838.00,0.1163
2837.00,0.1127
2836.00,0.1065
2835.00,0.0981
2834.00,0.0884
2833.00,0.0785
2832.00,0.0690
2831.00,0.0606
2830.00,0.0535
2829.00,0.0476
2828.00,0.0428
2827.00,0.0389
2826.00,0.0358
2825.00,0.0332
2824.00,0.0310
2823.00,0.0291
2822.00,0.0274
2821.00,0.0260
2820.00,0.0248
2819.00,0.0238
2818.00,0.0229
2817.00,0.0221
2816.00,0.0213
2815.00,0.0206
2814.00,0.0200
2813.00,0.0194
2812.00,0.0187
2811.00,0.0182
2810.00,0.0176
2809.00,0.0171
2808.00,0.0165
2807.00,0.0159
2806.00,0.0153
2805.00,0.0147
2804.00,0.0141
2803.00,0.0136
2802.00,0.0131
2801.00,0.0127
2800.00,0.0123
2799.00,0.0120
2798.00,0.0117
2797.00,0.0114
2796.00,0.0111
2795.00,0.0109
2794.00,0.0106
2793.00,0.0104
2792.00,0.0101
2791.00,0.0098
2790.00,0.0095
2789.00,0.0092
2788.00,0.0089
2787.00,0.0086
2786.00,0.0084
2785.00,0.0081
2784.00,0.0079
2783.00,0.0076
2782.00,0.0074
2781.00,0.0072
2780.00,0.0071
2779.00,0.0069
2778.00,0.0068
2777.00,0.0066
2776.00,0.0065
2775.00,0.0064
2774.00,0.0063
2773.00,0.0062
2772.00,0.0061
2771.00,0.0060
2770.00,0.0060
2769.00,0.0060
2768.00,0.0060
2767.00,0.0060
2766.00,0.0060
2765.00,0.0059
2764.00,0.0058
2763.00,0.0058
2762.00,0.0057
2761.00,0.0057
2760.00,0.0057
2759.00,0.0056
2758.00,0.0056
2757.00,0.0056
2756.00,0.0056
2755.00,0.0056
2754.00,0.0056
2753.00,0.0055
2752.00,0.0055
2751.00,0.0054
2750.00,0.0054
2749.00,0.0054
2748.00,0.0054
2747.00,0.0054
2746.00,0.0055
2745.00,0.0055
2744.00,0.0056
2743.00,0.0057
2742.00,0.0058
2741.00,0.0059
2740.00,0.0060
2739.00,0.0061
2738.00,0.0062
2737.00,0.0063
2736.00,0.0064
2735.00,0.0066
2734.00,0.0067
2733.00,0.0069
2732.00,0.0070
2731.00,0.0072
2730.00,0.0073
2729.00,0.0075
2728.00,0.0077
2727.00,0.0080
2726.00,0.0082
2725.00,0.0084
2724.00,0.0086
2723.00,0.0086
2722.00,0.0085
2721.00,0.0084
2720.00,0.0081
2719.00,0.0079
2718.00,0.0076
2717.00,0.0073
2716.00,0.0070
2715.00,0.0068
2714.00,0.0066
2713.00,0.0064
2712.00,0.0062
2711.00,0.0060
2710.00,0.0059
2709.00,0.0057
2708.00,0.0056
2707.00,0.0055
2706.00,0.0054
2705.00,0.0053
2704.00,0.0052
2703.00,0.0051
2702.00,0.0050
2701.00,0.0049
2700.00,0.0048
2699.00,0.0048
2698.00,0.0047
2697.00,0.0047
2696.00,0.0046
2695.00,0.0046
2694.00,0.0046
2693.00,0.0046
2692.00,0.0047
2691.00,0.0047
2690.00,0.0047
2689.00,0.0047
2688.00,0.0047
2687.00,0.0047
2686.00,0.0047
2685.00,0.0047
2684.00,0.0046
2683.00,0.0046
2682.00,0.0046
2681.00,0.0046
2680.00,0.0046
2679.00,0.0046
2678.00,0.0046
2677.00,0.0046
2676.00,0.0046
2675.00,0.0046
2674.00,0.0046
2673.00,0.0046
2672.00,0.0046
2671.00,0.0045
2670.00,0.0045
2669.00,0.0045
2668.00,0.0045
2667.00,0.0045
2666.00,0.0046
2665.00,0.0047
2664.00,0.0047
2663.00,0.0048
2662.00,0.0048
2661.00,0.0049
2660.00,0.0049
2659.00,0.0048
2658.00,0.0048
2657.00,0.0048
2656.00,0.0047
2655.00,0.0047
2654.00,0.0046
2653.00,0.0046
2652.00,0.0046
2651.00,0.0045
2650.00,0.0045
2649.00,0.0044
2648.00,0.0043
2647.00,0.0043
2646.00,0.0042
2645.00,0.0042
2644.00,0.0042
2643.00,0.0042
2642.00,0.0041
2641.00,0.0041
2640.00,0.0040
2639.00,0.0040
2638.00,0.0039
2637.00,0.0039
2636.00,0.0039
2635.00,0.0039
2634.00,0.0039
2633.00,0.0039
2632.00,0.0039
2631.00,0.0039
2630.00,0.0039
2629.00,0.0039
2628.00,0.0039
2627.00,0.0039
2626.00,0.0039
2625.00,0.0039
2624.00,0.0040
2623.00,0.0040
2622.00,0.0040
2621.00,0.0040
2620.00,0.0040
2619.00,0.0039
2618.00,0.0039
2617.00,0.0039
2616.00,0.0039
2615.00,0.0039
2614.00,0.0039
2613.00,0.0039
2612.00,0.0039
2611.00,0.0038
2610.00,0.0037
2609.00,0.0037
2608.00,0.0037
2607.00,0.0037
2606.00,0.0036
2605.00,0.0035
2604.00,0.0034
2603.00,0.0033
2602.00,0.0032
2601.00,0.0032
2600.00,0.0031
2599.00,0.0031
2598.00,0.0031
2597.00,0.0031
2596.00,0.0031
2595.00,0.0031
2594.00,0.0032
2593.00,0.0032
2592.00,0.0033
2591.00,0.0033
2590.00,0.0034
2589.00,0.0035
2588.00,0.0036
2587.00,0.0036
2586.00,0.0037
2585.00,0.0037
2584.00,0.0038
2583.00,0.0039
2582.00,0.0038
2581.00,0.0038
2580.00,0.0037
2579.00,0.0036
2578.00,0.0035
2577.00,0.0034
2576.00,0.0033
2575.00,0.0032
2574.00,0.0031
2573.00,0.0031
2572.00,0.0030
2571.00,0.0029
2570.00,0.0029
2569.00,0.0028
2568.00,0.0028
2567.00,0.0027
2566.00,0.0026
2565.00,0.0025
2564.00,0.0025
2563.00,0.0024
2562.00,0.0024
2561.00,0.0024
2560.00,0.0024
2559.00,0.0024
2558.00,0.0023
2557.00,0.0023
2556.00,0.0023
2555.00,0.0023
2554.00,0.0023
2553.00,0.0022
2552.00,0.0022
2551.00,0.0022
2550.00,0.0021
2549.00,0.0021
2548.00,0.0020
2547.00,0.0019
2546.00,0.0019
2545.00,0.0019
2544.00,0.0019
2543.00,0.0019
2542.00,0.0019
2541.00,0.0019
2540.00,0.0018
2539.00,0.0018
2538.00,0.0017
2537.00,0.0017
2536.00,0.0018
2535.00,0.0018
2534.00,0.0018
2533.00,0.0017
2532.00,0.0016
2531.00,0.0016
2530.00,0.0015
2529.00,0.0016
2528.00,0.0016
2527.00,0.0016
2526.00,0.0015
2525.00,0.0015
2524.00,0.0015
2523.00,0.0015
2522.00,0.0015
2521.00,0.0015
2520.00,0.0014
2519.00,0.0014
2518.00,0.0013
2517.00,0.0012
2516.00,0.0011
2515.00,0.0011
2514.00,0.0011
2513.00,0.0011
2512.00,0.0012
2511.00,0.0012
2510.00,0.0012
2509.00,0.0012
2508.00,0.0012
2507.00,0.0012
2506.00,0.0011
2505.00,0.0011
2504.00,0.0010
2503.00,0.0009
2502.00,0.0009
2501.00,0.0009
2500.00,0.0010
2499.00,0.0010
2498.00,0.0010
2497.00,0.0011
2496.00,0.0011
2495.00,0.0011
2494.00,0.0011
2493.00,0.0012
2492.00,0.0012
2491.00,0.0012
2490.00,0.0012
2489.00,0.0012
2488.00,0.0012
2487.00,0.0011
2486.00,0.0011
2485.00,0.0010
2484.00,0.0009
2483.00,0.0008
2482.00,0.0008
2481.00,0.0009
2480.00,0.0009
2479.00,0.0010
2478.00,0.0010
2477.00,0.0010
2476.00,0.0010
2475.00,0.0010
2474.00,0.0010
2473.00,0.0010
2472.00,0.0010
2471.00,0.0010
2470.00,0.0010
2469.00,0.0009
2468.00,0.0009
2467.00,0.0009
2466.00,0.0009
2465.00,0.0010
2464.00,0.0010
2463.00,0.0010
2462.00,0.0011
2461.00,0.0011
2460.00,0.0011
2459.00,0.0011
2458.00,0.0011
2457.00,0.0011
2456.00,0.0011
2455.00,0.0011
2454.00,0.0011
2453.00,0.0012
2452.00,0.0012
2451.00,0.0011
2450.00,0.0010
2449.00,0.0009
2448.00,0.0009
2447.00,0.0010
2446.00,0.0011
2445.00,0.0012
2444.00,0.0012
2443.00,0.0012
2442.00,0.0012
2441.00,0.0011
2440.00,0.0010
2439.00,0.0010
2438.00,0.0010
2437.00,0.0010
2436.00,0.0011
2435.00,0.0011
2434.00,0.0011
2433.00,0.0012
2432.00,0.0012
2431.00,0.0013
2430.00,0.0013
2429.00,0.0013
2428.00,0.0012
2427.00,0.0012
2426.00,0.0011
2425.00,0.0011
2424.00,0.0011
2423.00,0.0011
2422.00,0.0011
2421.00,0.0011
2420.00,0.0011
2419.00,0.0010
2418.00,0.0010
2417.00,0.0010
2416.00,0.0009
2415.00,0.0010
2414.00,0.0010
2413.00,0.0010
2412.00,0.0010
2411.00,0.0010
2410.00,0.0010
2409.00,0.0010
2408.00,0.0010
2407.00,0.0010
2406.00,0.0010
2405.00,0.0009
2404.00,0.0009
2403.00,0.0009
2402.00,0.0008
2401.00,0.0008
2400.00,0.0008
2399.00,0.0008
2398.00,0.0008
2397.00,0.0008
2396.00,0.0008
2395.00,0.0008
2394.00,0.0008
2393.00,0.0008
2392.00,0.0008
2391.00,0.0007
2390.00,0.0007
2389.00,0.0007
2388.00,0.0007
2387.00,0.0007
2386.00,0.0008
2385.00,0.0007
2384.00,0.0007
2383.00,0.0006
2382.00,0.0006
2381.00,0.0005
2380.00,0.0005
2379.00,0.0005
2378.00,0.0005
2377.00,0.0006
2376.00,0.0007
2375.00,0.0008
2374.00,0.0009
2373.00,0.0009
2372.00,0.0009
2371.00,0.0009
2370.00,0.0009
2369.00,0.0009
2368.00,0.0008
2367.00,0.0007
2366.00,0.0006
2365.00,0.0006
2364.00,0.0006
2363.00,0.0006
2362.00,0.0006
2361.00,0.0006
2360.00,0.0006
2359.00,0.0006
2358.00,0.0006
2357.00,0.0006
2356.00,0.0006
2355.00,0.0005
2354.00,0.0004
2353.00,0.0002
2352.00,0.0000
2351.00,0.0001
2350.00,0.0004
2349.00,0.0007
2348.00,0.0008
2347.00,0.0007
2346.00,0.0005
2345.00,0.0004
2344.00,0.0004
2343.00,0.0005
2342.00,0.0007
2341.00,0.0008
2340.00,0.0010
2339.00,0.0011
2338.00,0.0012
2337.00,0.0012
2336.00,0.0012
2335.00,0.0012
2334.00,0.0012
2333.00,0.0012
2332.00,0.0011
2331.00,0.0011
2330.00,0.0010
2329.00,0.0011
2328.00,0.0013
2327.00,0.0017
2326.00,0.0021
2325.00,0.0025
2324.00,0.0026
2323.00,0.0025
2322.00,0.0022
2321.00,0.0019
2320.00,0.0017
2319.00,0.0017
2318.00,0.0017
2317.00,0.0017
2316.00,0.0016
2315.00,0.0015
2314.00,0.0013
2313.00,0.0011
2312.00,0.0009
2311.00,0.0008
2310.00,0.0008
2309.00,0.0008
2308.00,0.0008
2307.00,0.0008
2306.00,0.0008
2305.00,0.0009
2304.00,0.0010
2303.00,0.0011
2302.00,0.0010
2301.00,0.0010
2300.00,0.0009
2299.00,0.0009
2298.00,0.0009
2297.00,0.0009
2296.00,0.0010
2295.00,0.0010
2294.00,0.0011
2293.00,0.0012
2292.00,0.0014
2291.00,0.0015
2290.00,0.0017
2289.00,0.0018
2288.00,0.0018
2287.00,0.0018
2286.00,0.0018
2285.00,0.0018
2284.00,0.0019
2283.00,0.0019
2282.00,0.0019
2281.00,0.0018
2280.00,0.0018
2279.00,0.0017
2278.00,0.0016
2277.00,0.0015
2276.00,0.0014
2275.00,0.0015
2274.00,0.0015
2273.00,0.0016
2272.00,0.0016
2271.00,0.0017
2270.00,0.0016
2269.00,0.0015
2268.00,0.0014
2267.00,0.0012
2266.00,0.0010
2265.00,0.0010
2264.00,0.0011
2263.00,0.0012
2262.00,0.0013
2261.00,0.0014
2260.00,0.0014
2259.00,0.0013
2258.00,0.0012
2257.00,0.0011
2256.00,0.0011
2255.00,0.0011
2254.00,0.0010
2253.00,0.0010
2252.00,0.0009
2251.00,0.0009
2250.00,0.0009
2249.00,0.0008
2248.00,0.0007
2247.00,0.0006
2246.00,0.0005
2245.00,0.0006
2244.00,0.0007
2243.00,0.0008
2242.00,0.0010
2241.00,0.0010
2240.00,0.0010
2239.00,0.0009
2238.00,0.0008
2237.00,0.0008
2236.00,0.0008
2235.00,0.0008
2234.00,0.0010
2233.00,0.0011
2232.00,0.0012
2231.00,0.0012
2230.00,0.0011
2229.00,0.0009
2228.00,0.0008
2227.00,0.0008
2226.00,0.0008
2225.00,0.0008
2224.00,0.0008
2223.00,0.0009
2222.00,0.0010
2221.00,0.0009
2220.00,0.0009
2219.00,0.0008
2218.00,0.0009
2217.00,0.0010
2216.00,0.0012
2215.00,0.0012
2214.00,0.0011
2213.00,0.0009
2212.00,0.0007
2211.00,0.0005
2210.00,0.0004
2209.00,0.0003
2208.00,0.0003
2207.00,0.0004
2206.00,0.0007
2205.00,0.0010
2204.00,0.0012
2203.00,0.0013
2202.00,0.0013
2201.00,0.0013
2200.00,0.0013
2199.00,0.0012
2198.00,0.0011
2197.00,0.0009
2196.00,0.0008
2195.00,0.0009
2194.00,0.0011
2193.00,0.0013
2192.00,0.0013
2191.00,0.0012
2190.00,0.0012
2189.00,0.0014
2188.00,0.0015
2187.00,0.0015
2186.00,0.0013
2185.00,0.0010
2184.00,0.0007
2183.00,0.0005
2182.00,0.0004
2181.00,0.0006
2180.00,0.0008
2179.00,0.0008
2178.00,0.0007
2177.00,0.0004
2176.00,0.0003
2175.00,0.0005
2174.00,0.0008
2173.00,0.0011
2172.00,0.0012
2171.00,0.0012
2170.00,0.0012
2169.00,0.0012
2168.00,0.0012
2167.00,0.0011
2166.00,0.0011
2165.00,0.0012
2164.00,0.0015
2163.00,0.0019
2162.00,0.0021
2161.00,0.0016
2160.00,0.0004
2159.00,-0.0011
2158.00,-0.0023
2157.00,-0.0030
2156.00,-0.0031
2155.00,-0.0030
2154.00,-0.0027
2153.00,-0.0023
2152.00,-0.0019
2151.00,-0.0015
2150.00,-0.0012
2149.00,-0.0012
2148.00,-0.0012
2147.00,-0.0013
2146.00,-0.0013
2145.00,-0.0013
2144.00,-0.0011
2143.00,-0.0010
2142.00,-0.0010
2141.00,-0.0011
2140.00,-0.0012
2139.00,-0.0012
2138.00,-0.0011
2137.00,-0.0010
2136.00,-0.0011
2135.00,-0.0013
2134.00,-0.0016
2133.00,-0.0017
2132.00,-0.0016
2131.00,-0.0014
2130.00,-0.0011
2129.00,-0.0009
2128.00,-0.0007
2127.00,-0.0006
2126.00,-0.0005
2125.00,-0.0004
2124.00,-0.0003
2123.00,-0.0002
2122.00,-0.0002
2121.00,-0.0001
2120.00,-0.0001
2119.00,-0.0001
2118.00,0.0001
2117.00,0.0002
2116.00,0.0004
2115.00,0.0005
2114.00,0.0006
2113.00,0.0006
2112.00,0.0006
2111.00,0.0005
2110.00,0.0004
2109.00,0.0003
2108.00,0.0003
2107.00,0.0002
2106.00,0.0002
2105.00,0.0002
2104.00,0.0002
2103.00,0.0002
2102.00,0.0002
2101.00,0.0002
2100.00,0.0002
2099.00,0.0003
2098.00,0.0003
2097.00,0.0003
2096.00,0.0003
2095.00,0.0002
2094.00,0.0000
2093.00,-0.0000
2092.00,0.0000
2091.00,0.0001
2090.00,0.0002
2089.00,0.0004
2088.00,0.0005
2087.00,0.0005
2086.00,0.0005
2085.00,0.0006
2084.00,0.0006
2083.00,0.0006
2082.00,0.0006
2081.00,0.0006
2080.00,0.0006
2079.00,0.0006
2078.00,0.0006
2077.00,0.0005
2076.00,0.0003
2075.00,0.0002
2074.00,0.0002
2073.00,0.0003
2072.00,0.0005
2071.00,0.0006
2070.00,0.0007
2069.00,0.0007
2068.00,0.0007
2067.00,0.0006
2066.00,0.0005
2065.00,0.0006
2064.00,0.0006
2063.00,0.0006
2062.00,0.0006
2061.00,0.0004
2060.00,0.0003
2059.00,0.0003
2058.00,0.0003
2057.00,0.0003
2056.00,0.0003
2055.00,0.0001
2054.00,0.0001
2053.00,0.0004
2052.00,0.0008
2051.00,0.0011
2050.00,0.0011
2049.00,0.0009
2048.00,0.0006
2047.00,0.0002
2046.00,0.0000
2045.00,-0.0000
2044.00,0.0002
2043.00,0.0004
2042.00,0.0006
2041.00,0.0006
2040.00,0.0004
2039.00,0.0004
2038.00,0.0004
2037.00,0.0004
2036.00,0.0002
2035.00,-0.0000
2034.00,-0.0002
2033.00,-0.0002
2032.00,-0.0002
2031.00,-0.0002
2030.00,-0.0002
2029.00,-0.0003
2028.00,-0.0004
2027.00,-0.0003
2026.00,-0.0001
2025.00,0.0002
2024.00,0.0005
2023.00,0.0006
2022.00,0.0006
2021.00,0.0004
2020.00,0.0001
2019.00,-0.0003
2018.00,-0.0006
2017.00,-0.0005
2016.00,-0.0002
2015.00,0.0001
2014.00,0.0001
2013.00,-0.0001
2012.00,-0.0003
2011.00,-0.0005
2010.00,-0.0005
2009.00,-0.0005
2008.00,-0.0006
2007.00,-0.0009
2006.00,-0.0013
2005.00,-0.0015
2004.00,-0.0015
2003.00,-0.0015
2002.00,-0.0013
2001.00,-0.0011
2000.00,-0.0009
1999.00,-0.0009
1998.00,-0.0009
1997.00,-0.0010
1996.00,-0.0009
1995.00,-0.0008
1994.00,-0.0005
1993.00,-0.0003
1992.00,-0.0002
1991.00,-0.0001
1990.00,-0.0000
1989.00,0.0002
1988.00,0.0003
1987.00,0.0003
1986.00,0.0002
1985.00,0.0002
1984.00,0.0004
1983.00,0.0007
1982.00,0.0010
1981.00,0.0011
1980.00,0.0010
1979.00,0.0004
1978.00,-0.0003
1977.00,-0.0009
1976.00,-0.0011
1975.00,-0.0011
1974.00,-0.0010
1973.00,-0.0009
1972.00,-0.0008
1971.00,-0.0009
1970.00,-0.0010
1969.00,-0.0009
1968.00,-0.0007
1967.00,-0.0004
1966.00,-0.0003
1965.00,-0.0002
1964.00,-0.0002
1963.00,-0.0005
1962.00,-0.0008
1961.00,-0.0010
1960.00,-0.0011
1959.00,-0.0012
1958.00,-0.0013
1957.00,-0.0014
1956.00,-0.0013
1955.00,-0.0013
1954.00,-0.0013
1953.00,-0.0013
1952.00,-0.0013
1951.00,-0.0013
1950.00,-0.0013
1949.00,-0.0013
1948.00,-0.0012
1947.00,-0.0012
1946.00,-0.0013
1945.00,-0.0014
1944.00,-0.0014
1943.00,-0.0014
1942.00,-0.0013
1941.00,-0.0010
1940.00,-0.0009
1939.00,-0.0009
1938.00,-0.0009
1937.00,-0.0009
1936.00,-0.0009
1935.00,-0.0008
1934.00,-0.0008
1933.00,-0.0007
1932.00,-0.0006
1931.00,-0.0005
1930.00,-0.0004
1929.00,-0.0003
1928.00,-0.0003
1927.00,-0.0003
1926.00,-0.0004
1925.00,-0.0004
1924.00,-0.0005
1923.00,-0.0006
1922.00,-0.0006
1921.00,-0.0005
1920.00,-0.0003
1919.00,-0.0002
1918.00,-0.0002
1917.00,-0.0001
1916.00,-0.0001
1915.00,-0.0001
1914.00,-0.0001
1913.00,-0.0001
1912.00,-0.0002
1911.00,-0.0002
1910.00,-0.0003
1909.00,-0.0003
1908.00,-0.0004
1907.00,-0.0003
1906.00,-0.0003
1905.00,-0.0002
1904.00,-0.0001
1903.00,0.0000
1902.00,0.0000
1901.00,0.0001
1900.00,0.0001
1899.00,0.0001
1898.00,0.0001
1897.00,0.0001
1896.00,0.0001
1895.00,0.0002
1894.00,0.0002
1893.00,0.0001
1892.00,0.0000
1891.00,-0.0001
1890.00,-0.0001
1889.00,-0.0000
1888.00,0.0000
1887.00,0.0001
1886.00,0.0000
1885.00,-0.0000
1884.00,-0.0001
1883.00,-0.0002
1882.00,-0.0002
1881.00,-0.0001
1880.00,-0.0000
1879.00,0.0000
1878.00,-0.0000
1877.00,-0.0000
1876.00,-0.0000
1875.00,-0.0000
1874.00,-0.0000
1873.00,-0.0001
1872.00,-0.0001
1871.00,-0.0000
1870.00,0.0000
1869.00,0.0001
1868.00,0.0000
1867.00,-0.0000
1866.00,-0.0001
1865.00,-0.0002
1864.00,-0.0002
1863.00,-0.0001
1862.00,-0.0001
1861.00,0.0000
1860.00,0.0001
1859.00,0.0001
1858.00,0.0002
1857.00,0.0002
1856.00,0.0003
1855.00,0.0003
1854.00,0.0002
1853.00,0.0002
1852.00,0.0002
1851.00,0.0002
1850.00,0.0002
1849.00,0.0002
1848.00,0.0002
1847.00,0.0003
1846.00,0.0003
1845.00,0.0003
1844.00,0.0002
1843.00,0.0002
1842.00,0.0002
1841.00,0.0002
1840.00,0.0002
1839.00,0.0002
1838.00,0.0002
1837.00,0.0003
1836.00,0.0004
1835.00,0.0004
1834.00,0.0004
1833.00,0.0004
1832.00,0.0004
1831.00,0.0004
1830.00,0.0003
1829.00,0.0003
1828.00,0.0003
1827.00,0.0002
1826.00,0.0002
1825.00,0.0003
1824.00,0.0004
1823.00,0.0004
1822.00,0.0005
1821.00,0.0005
1820.00,0.0004
1819.00,0.0004
1818.00,0.0002
1817.00,0.0002
1816.00,0.0002
1815.00,0.0002
1814.00,0.0003
1813.00,0.0004
1812.00,0.0004
1811.00,0.0004
1810.00,0.0004
1809.00,0.0005
1808.00,0.0005
1807.00,0.0005
1806.00,0.0006
1805.00,0.0006
1804.00,0.0006
1803.00,0.0006
1802.00,0.0005
1801.00,0.0005
1800.00,0.0006
1799.00,0.0006
1798.00,0.0007
1797.00,0.0007
1796.00,0.0008
1795.00,0.0007
1794.00,0.0007
1793.00,0.0006
1792.00,0.0006
1791.00,0.0006
1790.00,0.0007
1789.00,0.0008
1788.00,0.0008
1787.00,0.0008
1786.00,0.0008
1785.00,0.0009
1784.00,0.0009
1783.00,0.0010
1782.00,0.0010
1781.00,0.0010
1780.00,0.0010
1779.00,0.0010
1778.00,0.0010
1777.00,0.0009
1776.00,0.0009
1775.00,0.0008
1774.00,0.0009
1773.00,0.0009
1772.00,0.0009
1771.00,0.0010
1770.00,0.0010
1769.00,0.0010
1768.00,0.0011
1767.00,0.0012
1766.00,0.0012
1765.00,0.0013
1764.00,0.0013
1763.00,0.0013
1762.00,0.0013
1761.00,0.0013
1760.00,0.0013
1759.00,0.0013
1758.00,0.0013
1757.00,0.0013
1756.00,0.0014
1755.00,0.0014
1754.00,0.0014
1753.00,0.0015
1752.00,0.0015
1751.00,0.0015
1750.00,0.0016
1749.00,0.0016
1748.00,0.0017
1747.00,0.0018
1746.00,0.0019
1745.00,0.0020
1744.00,0.0021
1743.00,0.0021
1742.00,0.0021
1741.00,0.0021
1740.00,0.0022
1739.00,0.0023
1738.00,0.0023
1737.00,0.0023
1736.00,0.0024
1735.00,0.0024
1734.00,0.0026
1733.00,0.0027
1732.00,0.0027
1731.00,0.0026
1730.00,0.0026
1729.00,0.0026
1728.00,0.0026
1727.00,0.0026
1726.00,0.0026
1725.00,0.0027
1724.00,0.0027
1723.00,0.0028
1722.00,0.0028
1721.00,0.0028
1720.00,0.0028
1719.00,0.0028
1718.00,0.0027
1717.00,0.0026
1716.00,0.0026
1715.00,0.0026
1714.00,0.0026
1713.00,0.0026
1712.00,0.0027
1711.00,0.0027
1710.00,0.0027
1709.00,0.0027
1708.00,0.0027
1707.00,0.0027
1706.00,0.0027
1705.00,0.0028
1704.00,0.0029
1703.00,0.0030
1702.00,0.0030
1701.00,0.0031
1700.00,0.0031
1699.00,0.0032
1698.00,0.0032
1697.00,0.0032
1696.00,0.0033
1695.00,0.0034
1694.00,0.0034
1693.00,0.0035
1692.00,0.0036
1691.00,0.0037
1690.00,0.0038
1689.00,0.0039
1688.00,0.0040
1687.00,0.0042
1686.00,0.0042
1685.00,0.0043
1684.00,0.0045
1683.00,0.0046
1682.00,0.0048
1681.00,0.0049
1680.00,0.0051
1679.00,0.0052
1678.00,0.0053
1677.00,0.0055
1676.00,0.0057
1675.00,0.0059
1674.00,0.0060
1673.00,0.0060
1672.00,0.0061
1671.00,0.0062
1670.00,0.0062
1669.00,0.0064
1668.00,0.0065
1667.00,0.0066
1666.00,0.0067
1665.00,0.0067
1664.00,0.0067
1663.00,0.0068
1662.00,0.0068
1661.00,0.0069
1660.00,0.0071
1659.00,0.0072
1658.00,0.0073
1657.00,0.0074
1656.00,0.0075
1655.00,0.0076
1654.00,0.0077
1653.00,0.0079
1652.00,0.0082
1651.00,0.0083
1650.00,0.0083
1649.00,0.0084
1648.00,0.0086
1647.00,0.0088
1646.00,0.0089
1645.00,0.0091
1644.00,0.0092
1643.00,0.0092
1642.00,0.0093
1641.00,0.0094
1640.00,0.0095
1639.00,0.0096
1638.00,0.0097
1637.00,0.0097
1636.00,0.0097
1635.00,0.0096
1634.00,0.0096
1633.00,0.0095
1632.00,0.0095
1631.00,0.0094
1630.00,0.0094
1629.00,0.0094
1628.00,0.0094
1627.00,0.0093
1626.00,0.0092
1625.00,0.0091
1624.00,0.0090
1623.00,0.0089
1622.00,0.0089
1621.00,0.0088
1620.00,0.0088
1619.00,0.0088
1618.00,0.0088
1617.00,0.0088
1616.00,0.0088
1615.00,0.0088
1614.00,0.0088
1613.00,0.0088
1612.00,0.0088
1611.00,0.0089
1610.00,0.0089
1609.00,0.0089
1608.00,0.0089
1607.00,0.0089
1606.00,0.0088
1605.00,0.0088
1604.00,0.0087
1603.00,0.0087
1602.00,0.0086
1601.00,0.0086
1600.00,0.0086
1599.00,0.0085
1598.00,0.0085
1597.00,0.0084
1596.00,0.0084
1595.00,0.0083
1594.00,0.0083
1593.00,0.0082
1592.00,0.0082
1591.00,0.0081
1590.00,0.0080
1589.00,0.0080
1588.00,0.0079
1587.00,0.0078
1586.00,0.0078
1585.00,0.0077
1584.00,0.0076
1583.00,0.0076
1582.00,0.0076
1581.00,0.0076
1580.00,0.0076
1579.00,0.0076
1578.00,0.0076
1577.00,0.0076
1576.00,0.0076
1575.00,0.0076
1574.00,0.0076
1573.00,0.0077
1572.00,0.0078
1571.00,0.0079
1570.00,0.0080
1569.00,0.0081
1568.00,0.0082
1567.00,0.0083
1566.00,0.0083
1565.00,0.0084
1564.00,0.0085
1563.00,0.0086
1562.00,0.0086
1561.00,0.0087
1560.00,0.0089
1559.00,0.0089
1558.00,0.0090
1557.00,0.0092
1556.00,0.0093
1555.00,0.0094
1554.00,0.0095
1553.00,0.0096
1552.00,0.0097
1551.00,0.0098
1550.00,0.0097
1549.00,0.0097
1548.00,0.0097
1547.00,0.0097
1546.00,0.0096
1545.00,0.0095
1544.00,0.0093
1543.00,0.0092
1542.00,0.0090
1541.00,0.0089
1540.00,0.0086
1539.00,0.0084
1538.00,0.0083
1537.00,0.0081
1536.00,0.0080
1535.00,0.0077
1534.00,0.0075
1533.00,0.0073
1532.00,0.0072
1531.00,0.0071
1530.00,0.0070
1529.00,0.0069
1528.00,0.0068
1527.00,0.0067
1526.00,0.0066
1525.00,0.0066
1524.00,0.0067
1523.00,0.0067
1522.00,0.0066
1521.00,0.0065
1520.00,0.0064
1519.00,0.0064
1518.00,0.0063
1517.00,0.0064
1516.00,0.0064
1515.00,0.0064
1514.00,0.0064
1513.00,0.0064
1512.00,0.0065
1511.00,0.0065
1510.00,0.0065
1509.00,0.0066
1508.00,0.0067
1507.00,0.0068
1506.00,0.0069
1505.00,0.0072
1504.00,0.0074
1503.00,0.0076
1502.00,0.0078
1501.00,0.0081
1500.00,0.0084
1499.00,0.0087
1498.00,0.0090
1497.00,0.0095
1496.00,0.0101
1495.00,0.0106
1494.00,0.0110
1493.00,0.0114
1492.00,0.0119
1491.00,0.0123
1490.00,0.0128
1489.00,0.0134
1488.00,0.0140
1487.00,0.0144
1486.00,0.0149
1485.00,0.0154
1484.00,0.0161
1483.00,0.0167
1482.00,0.0174
1481.00,0.0184
1480.00,0.0195
1479.00,0.0206
1478.00,0.0220
1477.00,0.0240
1476.00,0.0264
1475.00,0.0294
1474.00,0.0335
1473.00,0.0393
1472.00,0.0461
1471.00,0.0527
1470.00,0.0589
1469.00,0.0654
1468.00,0.0723
1467.00,0.0797
1466.00,0.0881
1465.00,0.0971
1464.00,0.1049
1463.00,0.1103
1462.00,0.1137
1461.00,0.1159
1460.00,0.1172
1459.00,0.1181
1458.00,0.1186
1457.00,0.1189
1456.00,0.1185
1455.00,0.1175
1454.00,0.1161
1453.00,0.1142
1452.00,0.1114
1451.00,0.1077
1450.00,0.1026
1449.00,0.0957
1448.00,0.0870
1447.00,0.0779
1446.00,0.0697
1445.00,0.0628
1444.00,0.0568
1443.00,0.0519
1442.00,0.0482
1441.00,0.0455
1440.00,0.0438
1439.00,0.0430
1438.00,0.0429
1437.00,0.0429
1436.00,0.0420
1435.00,0.0397
1434.00,0.0364
1433.00,0.0322
1432.00,0.0279
1431.00,0.0240
1430.00,0.0210
1429.00,0.0188
1428.00,0.0173
1427.00,0.0164
1426.00,0.0157
1425.00,0.0151
1424.00,0.0146
1423.00,0.0142
1422.00,0.0141
1421.00,0.0138
1420.00,0.0136
1419.00,0.0134
1418.00,0.0133
1417.00,0.0132
1416.00,0.0130
1415.00,0.0129
1414.00,0.0128
1413.00,0.0126
1412.00,0.0124
1411.00,0.0123
1410.00,0.0123
1409.00,0.0122
1408.00,0.0122
1407.00,0.0122
1406.00,0.0123
1405.00,0.0123
1404.00,0.0124
1403.00,0.0125
1402.00,0.0127
1401.00,0.0128
1400.00,0.0129
1399.00,0.0130
1398.00,0.0132
1397.00,0.0133
1396.00,0.0135
1395.00,0.0139
1394.00,0.0144
1393.00,0.0149
1392.00,0.0154
1391.00,0.0161
1390.00,0.0171
1389.00,0.0184
1388.00,0.0204
1387.00,0.0233
1386.00,0.0274
1385.00,0.0327
1384.00,0.0401
1383.00,0.0505
1382.00,0.0646
1381.00,0.0829
1380.00,0.1057
1379.00,0.1318
1378.00,0.1573
1377.00,0.1762
1376.00,0.1829
1375.00,0.1741
1374.00,0.1525
1373.00,0.1262
1372.00,0.1021
1371.00,0.0822
1370.00,0.0664
1369.00,0.0544
1368.00,0.0461
1367.00,0.0410
1366.00,0.0382
1365.00,0.0371
1364.00,0.0372
1363.00,0.0384
1362.00,0.0404
1361.00,0.0426
1360.00,0.0444
1359.00,0.0450
1358.00,0.0440
1357.00,0.0417
1356.00,0.0383
1355.00,0.0345
1354.00,0.0308
1353.00,0.0277
1352.00,0.0252
1351.00,0.0231
1350.00,0.0214
1349.00,0.0201
1348.00,0.0190
1347.00,0.0181
1346.00,0.0175
1345.00,0.0169
1344.00,0.0163
1343.00,0.0157
1342.00,0.0151
1341.00,0.0144
1340.00,0.0139
1339.00,0.0135
1338.00,0.0133
1337.00,0.0131
1336.00,0.0132
1335.00,0.0133
1334.00,0.0136
1333.00,0.0139
1332.00,0.0144
1331.00,0.0147
1330.00,0.0148
1329.00,0.0146
1328.00,0.0143
1327.00,0.0138
1326.00,0.0132
1325.00,0.0126
1324.00,0.0121
1323.00,0.0116
1322.00,0.0113
1321.00,0.0111
1320.00,0.0108
1319.00,0.0106
1318.00,0.0104
1317.00,0.0103
1316.00,0.0101
1315.00,0.0100
1314.00,0.0100
1313.00,0.0101
1312.00,0.0103
1311.00,0.0105
1310.00,0.0109
1309.00,0.0115
1308.00,0.0122
1307.00,0.0132
1306.00,0.0141
1305.00,0.0148
1304.00,0.0151
1303.00,0.0149
1302.00,0.0145
1301.00,0.0140
1300.00,0.0138
1299.00,0.0138
1298.00,0.0139
1297.00,0.0139
1296.00,0.0138
1295.00,0.0135
1294.00,0.0132
1293.00,0.0127
1292.00,0.0122
1291.00,0.0117
1290.00,0.0113
1289.00,0.0110
1288.00,0.0107
1287.00,0.0105
1286.00,0.0103
1285.00,0.0101
1284.00,0.0099
1283.00,0.0098
1282.00,0.0097
1281.00,0.0096
1280.00,0.0095
1279.00,0.0094
1278.00,0.0093
1277.00,0.0092
1276.00,0.0092
1275.00,0.0092
1274.00,0.0092
1273.00,0.0092
1272.00,0.0093
1271.00,0.0093
1270.00,0.0094
1269.00,0.0096
1268.00,0.0097
1267.00,0.0100
1266.00,0.0103
1265.00,0.0106
1264.00,0.0110
1263.00,0.0113
1262.00,0.0117
1261.00,0.0122
1260.00,0.0127
1259.00,0.0132
1258.00,0.0138
1257.00,0.0143
1256.00,0.0145
1255.00,0.0143
1254.00,0.0138
1253.00,0.0131
1252.00,0.0123
1251.00,0.0117
1250.00,0.0113
1249.00,0.0109
1248.00,0.0106
1247.00,0.0104
1246.00,0.0102
1245.00,0.0100
1244.00,0.0099
1243.00,0.0098
1242.00,0.0097
1241.00,0.0095
1240.00,0.0094
1239.00,0.0094
1238.00,0.0093
1237.00,0.0092
1236.00,0.0091
1235.00,0.0091
1234.00,0.0091
1233.00,0.0091
1232.00,0.0091
1231.00,0.0091
1230.00,0.0091
1229.00,0.0092
1228.00,0.0093
1227.00,0.0095
1226.00,0.0097
1225.00,0.0100
1224.00,0.0103
1223.00,0.0107
1222.00,0.0111
1221.00,0.0114
1220.00,0.0115
1219.00,0.0115
1218.00,0.0114
1217.00,0.0112
1216.00,0.0109
1215.00,0.0106
1214.00,0.0102
1213.00,0.0099
1212.00,0.0096
1211.00,0.0093
1210.00,0.0091
1209.00,0.0089
1208.00,0.0088
1207.00,0.0087
1206.00,0.0087
1205.00,0.0086
1204.00,0.0085
1203.00,0.0084
1202.00,0.0083
1201.00,0.0082
1200.00,0.0082
1199.00,0.0082
1198.00,0.0081
1197.00,0.0081
1196.00,0.0081
1195.00,0.0082
1194.00,0.0082
1193.00,0.0082
1192.00,0.0083
1191.00,0.0083
1190.00,0.0083
1189.00,0.0082
1188.00,0.0082
1187.00,0.0082
1186.00,0.0083
1185.00,0.0084
1184.00,0.0086
1183.00,0.0087
1182.00,0.0089
1181.00,0.0091
1180.00,0.0095
1179.00,0.0099
1178.00,0.0105
1177.00,0.0114
1176.00,0.0124
1175.00,0.0138
1174.00,0.0156
1173.00,0.0179
1172.00,0.0206
1171.00,0.0235
1170.00,0.0264
1169.00,0.0288
1168.00,0.0303
1167.00,0.0307
1166.00,0.0301
1165.00,0.0289
1164.00,0.0275
1163.00,0.0261
1162.00,0.0249
1161.00,0.0239
1160.00,0.0232
1159.00,0.0226
1158.00,0.0223
1157.00,0.0221
1156.00,0.0221
1155.00,0.0221
1154.00,0.0221
1153.00,0.0220
1152.00,0.0217
1151.00,0.0213
1150.00,0.0206
1149.00,0.0198
1148.00,0.0190
1147.00,0.0181
1146.00,0.0173
1145.00,0.0165
1144.00,0.0158
1143.00,0.0152
1142.00,0.0146
1141.00,0.0141
1140.00,0.0137
1139.00,0.0133
1138.00,0.0130
1137.00,0.0128
1136.00,0.0126
1135.00,0.0125
1134.00,0.0124
1133.00,0.0123
1132.00,0.0123
1131.00,0.0123
1130.00,0.0124
1129.00,0.0125
1128.00,0.0126
1127.00,0.0129
1126.00,0.0131
1125.00,0.0132
1124.00,0.0134
1123.00,0.0137
1122.00,0.0140
1121.00,0.0144
1120.00,0.0148
1119.00,0.0152
1118.00,0.0154
1117.00,0.0155
1116.00,0.0154
1115.00,0.0153
1114.00,0.0152
1113.00,0.0151
1112.00,0.0151
1111.00,0.0152
1110.00,0.0153
1109.00,0.0154
1108.00,0.0157
1107.00,0.0161
1106.00,0.0165
1105.00,0.0171
1104.00,0.0175
1103.00,0.0177
1102.00,0.0176
1101.00,0.0172
1100.00,0.0166
1099.00,0.0160
1098.00,0.0154
1097.00,0.0148
1096.00,0.0144
1095.00,0.0140
1094.00,0.0136
1093.00,0.0132
1092.00,0.0129
1091.00,0.0127
1090.00,0.0126
1089.00,0.0126
1088.00,0.0125
1087.00,0.0125
1086.00,0.0124
1085.00,0.0123
1084.00,0.0121
1083.00,0.0121
1082.00,0.0120
1081.00,0.0119
1080.00,0.0118
1079.00,0.0117
1078.00,0.0116
1077.00,0.0114
1076.00,0.0112
1075.00,0.0111
1074.00,0.0110
1073.00,0.0109
1072.00,0.0108
1071.00,0.0108
1070.00,0.0108
1069.00,0.0108
1068.00,0.0107
1067.00,0.0106
1066.00,0.0105
1065.00,0.0105
1064.00,0.0105
1063.00,0.0106
1062.00,0.0105
1061.00,0.0104
1060.00,0.0103
1059.00,0.0102
1058.00,0.0102
1057.00,0.0102
1056.00,0.0101
1055.00,0.0101
1054.00,0.0101
1053.00,0.0101
1052.00,0.0103
1051.00,0.0104
1050.00,0.0106
1049.00,0.0107
1048.00,0.0109
1047.00,0.0112
1046.00,0.0114
1045.00,0.0117
1044.00,0.0118
1043.00,0.0118
1042.00,0.0116
1041.00,0.0114
1040.00,0.0112
1039.00,0.0111
1038.00,0.0110
1037.00,0.0110
1036.00,0.0111
1035.00,0.0110
1034.00,0.0109
1033.00,0.0107
1032.00,0.0105
1031.00,0.0104
1030.00,0.0102
1029.00,0.0100
1028.00,0.0098
1027.00,0.0097
1026.00,0.0097
1025.00,0.0097
1024.00,0.0097
1023.00,0.0097
1022.00,0.0098
1021.00,0.0098
1020.00,0.0099
1019.00,0.0100
1018.00,0.0100
1017.00,0.0101
1016.00,0.0102
1015.00,0.0103
1014.00,0.0104
1013.00,0.0106
1012.00,0.0107
1011.00,0.0110
1010.00,0.0112
1009.00,0.0115
1008.00,0.0119
1007.00,0.0125
1006.00,0.0133
1005.00,0.0144
1004.00,0.0159
1003.00,0.0179
1002.00,0.0207
1001.00,0.0241
1000.00,0.0278
999.00,0.0308
998.00,0.0323
997.00,0.0318
996.00,0.0293
995.00,0.0257
994.00,0.0220
993.00,0.0189
992.00,0.0164
991.00,0.0147
990.00,0.0135
989.00,0.0127
988.00,0.0122
987.00,0.0119
986.00,0.0119
985.00,0.0120
984.00,0.0124
983.00,0.0131
982.00,0.0142
981.00,0.0157
980.00,0.0177
979.00,0.0203
978.00,0.0235
977.00,0.0273
976.00,0.0314
975.00,0.0353
974.00,0.0383
973.00,0.0394
972.00,0.0381
971.00,0.0347
970.00,0.0301
969.00,0.0255
968.00,0.0216
967.00,0.0187
966.00,0.0166
965.00,0.0150
964.00,0.0138
963.00,0.0129
962.00,0.0121
961.00,0.0114
960.00,0.0110
959.00,0.0106
958.00,0.0104
957.00,0.0103
956.00,0.0101
955.00,0.0099
954.00,0.0097
953.00,0.0096
952.00,0.0095
951.00,0.0096
950.00,0.0096
949.00,0.0096
948.00,0.0096
947.00,0.0097
946.00,0.0098
945.00,0.0100
944.00,0.0103
943.00,0.0107
942.00,0.0110
941.00,0.0112
940.00,0.0112
939.00,0.0110
938.00,0.0106
937.00,0.0100
936.00,0.0095
935.00,0.0090
934.00,0.0087
933.00,0.0084
932.00,0.0082
931.00,0.0081
930.00,0.0081
929.00,0.0080
928.00,0.0080
927.00,0.0079
926.00,0.0079
925.00,0.0078
924.00,0.0077
923.00,0.0076
922.00,0.0075
921.00,0.0076
920.00,0.0077
919.00,0.0078
918.00,0.0079
917.00,0.0079
916.00,0.0078
915.00,0.0078
914.00,0.0079
913.00,0.0081
912.00,0.0083
911.00,0.0086
910.00,0.0089
909.00,0.0091
908.00,0.0094
907.00,0.0098
906.00,0.0104
905.00,0.0113
904.00,0.0126
903.00,0.0143
902.00,0.0162
901.00,0.0179
900.00,0.0190
899.00,0.0193
898.00,0.0186
897.00,0.0172
896.00,0.0153
895.00,0.0135
894.00,0.0121
893.00,0.0110
892.00,0.0102
891.00,0.0097
890.00,0.0094
889.00,0.0092
888.00,0.0091
887.00,0.0091
886.00,0.0090
885.00,0.0089
884.00,0.0087
883.00,0.0086
882.00,0.0085
881.00,0.0085
880.00,0.0085
879.00,0.0086
878.00,0.0087
877.00,0.0088
876.00,0.0089
875.00,0.0091
874.00,0.0091
873.00,0.0091
872.00,0.0089
871.00,0.0088
870.00,0.0087
869.00,0.0087
868.00,0.0088
867.00,0.0089
866.00,0.0089
865.00,0.0090
864.00,0.0091
863.00,0.0091
862.00,0.0091
861.00,0.0091
860.00,0.0092
859.00,0.0093
858.00,0.0095
857.00,0.0097
856.00,0.0099
855.00,0.0101
854.00,0.0104
853.00,0.0106
852.00,0.0109
851.00,0.0111
850.00,0.0115
849.00,0.0119
848.00,0.0127
847.00,0.0139
846.00,0.0157
845.00,0.0186
844.00,0.0225
843.00,0.0271
842.00,0.0308
841.00,0.0320
840.00,0.0300
839.00,0.0258
838.00,0.0213
837.00,0.0176
836.00,0.0153
835.00,0.0138
834.00,0.0129
833.00,0.0124
832.00,0.0119
831.00,0.0116
830.00,0.0113
829.00,0.0111
828.00,0.0110
827.00,0.0111
826.00,0.0111
825.00,0.0111
824.00,0.0110
823.00,0.0109
822.00,0.0109
821.00,0.0110
820.00,0.0112
819.00,0.0114
818.00,0.0116
817.00,0.0121
816.00,0.0130
815.00,0.0142
814.00,0.0159
813.00,0.0178
812.00,0.0198
811.00,0.0215
810.00,0.0228
809.00,0.0234
808.00,0.0232
807.00,0.0221
806.00,0.0204
805.00,0.0184
804.00,0.0166
803.00,0.0150
802.00,0.0139
801.00,0.0132
800.00,0.0127
799.00,0.0122
798.00,0.0118
797.00,0.0114
796.00,0.0112
795.00,0.0109
794.00,0.0107
793.00,0.0103
792.00,0.0100
791.00,0.0096
790.00,0.0094
789.00,0.0092
788.00,0.0090
787.00,0.0089
786.00,0.0088
785.00,0.0087
784.00,0.0087
783.00,0.0086
782.00,0.0085
781.00,0.0083
780.00,0.0082
779.00,0.0081
778.00,0.0082
777.00,0.0082
776.00,0.0081
775.00,0.0079
774.00,0.0077
773.00,0.0077
772.00,0.0078
771.00,0.0080
770.00,0.0081
769.00,0.0082
768.00,0.0084
767.00,0.0085
766.00,0.0085
765.00,0.0084
764.00,0.0084
763.00,0.0083
762.00,0.0083
761.00,0.0083
760.00,0.0084
759.00,0.0085
758.00,0.0086
757.00,0.0087
756.00,0.0088
755.00,0.0088
754.00,0.0088
753.00,0.0088
752.00,0.0090
751.00,0.0094
750.00,0.0097
749.00,0.0099
748.00,0.0099
747.00,0.0099
746.00,0.0100
745.00,0.0102
744.00,0.0105
743.00,0.0110
742.00,0.0115
741.00,0.0120
740.00,0.0125
739.00,0.0131
738.00,0.0135
737.00,0.0138
736.00,0.0141
735.00,0.0143
734.00,0.0148
733.00,0.0155
732.00,0.0164
731.00,0.0174
730.00,0.0182
729.00,0.0187
728.00,0.0189
727.00,0.0190
726.00,0.0192
725.00,0.0196
724.00,0.0201
723.00,0.0208
722.00,0.0215
721.00,0.0218
720.00,0.0214
719.00,0.0203
718.00,0.0188
717.00,0.0173
716.00,0.0160
715.00,0.0151
714.00,0.0143
713.00,0.0138
712.00,0.0135
711.00,0.0133
710.00,0.0133
709.00,0.0134
708.00,0.0133
707.00,0.0133
706.00,0.0131
705.00,0.0129
704.00,0.0128
703.00,0.0126
702.00,0.0124
701.00,0.0120
700.00,0.0116
699.00,0.0112
698.00,0.0109
697.00,0.0107
696.00,0.0105
695.00,0.0105
694.00,0.0106
693.00,0.0108
692.00,0.0109
691.00,0.0109
690.00,0.0107
689.00,0.0105
688.00,0.0102
687.00,0.0102
686.00,0.0102
685.00,0.0103
684.00,0.0103
683.00,0.0102
682.00,0.0102
681.00,0.0103
680.00,0.0105
679.00,0.0106
678.00,0.0107
677.00,0.0107
676.00,0.0106
675.00,0.0105
674.00,0.0104
673.00,0.0102
672.00,0.0100
671.00,0.0100
670.00,0.0104
669.00,0.0109
668.00,0.0114
667.00,0.0116
666.00,0.0112
665.00,0.0106
664.00,0.0102
663.00,0.0101
662.00,0.0102
661.00,0.0104
660.00,0.0106
659.00,0.0106
658.00,0.0104
657.00,0.0102
656.00,0.0101
655.00,0.0101
654.00,0.0102
653.00,0.0102
652.00,0.0102
651.00,0.0101
650.00,0.0099
649.00,0.0099
648.00,0.0101
647.00,0.0102
646.00,0.0103
645.00,0.0103
644.00,0.0101
643.00,0.0099
642.00,0.0098
641.00,0.0098
640.00,0.0099
639.00,0.0102
638.00,0.0104
637.00,0.0107
636.00,0.0110
635.00,0.0111
634.00,0.0111
633.00,0.0110
632.00,0.0110
631.00,0.0111
630.00,0.0110
629.00,0.0108
628.00,0.0106
627.00,0.0105
626.00,0.0105
625.00,0.0106
624.00,0.0107
623.00,0.0106
622.00,0.0106
621.00,0.0106
620.00,0.0107
619.00,0.0108
618.00,0.0109
617.00,0.0108
616.00,0.0107
615.00,0.0104
614.00,0.0100
613.00,0.0097
612.00,0.0095
611.00,0.0096
610.00,0.0098
609.00,0.0098
608.00,0.0098
607.00,0.0097
606.00,0.0096
605.00,0.0094
604.00,0.0093
603.00,0.0095
602.00,0.0097
601.00,0.0100
600.00,0.0102
599.00,0.0103
598.00,0.0104
597.00,0.0105
596.00,0.0104
595.00,0.0103
594.00,0.0103
593.00,0.0102
592.00,0.0101
591.00,0.0101
590.00,0.0103
589.00,0.0104
588.00,0.0105
587.00,0.0105
586.00,0.0103
585.00,0.0100
584.00,0.0098
583.00,0.0099
582.00,0.0101
581.00,0.0104
580.00,0.0107
579.00,0.0109
578.00,0.0110
577.00,0.0109
576.00,0.0108
575.00,0.0107
574.00,0.0109
573.00,0.0112
572.00,0.0114
571.00,0.0112
570.00,0.0108
569.00,0.0105
568.00,0.0104
567.00,0.0107
566.00,0.0111
565.00,0.0114
564.00,0.0114
563.00,0.0112
562.00,0.0109
561.00,0.0107
560.00,0.0106
559.00,0.0106
558.00,0.0109
557.00,0.0112
556.00,0.0115
555.00,0.0118
554.00,0.0117
553.00,0.0114
552.00,0.0109
551.00,0.0103
550.00,0.0097
549.00,0.0094
548.00,0.0096
547.00,0.0101
546.00,0.0105
545.00,0.0107
544.00,0.0105
543.00,0.0104
542.00,0.0105
541.00,0.0107
540.00,0.0109
539.00,0.0111
538.00,0.0115
537.00,0.0122
536.00,0.0129
535.00,0.0132
534.00,0.0129
533.00,0.0123
532.00,0.0118
531.00,0.0117
530.00,0.0118
529.00,0.0120
528.00,0.0122
527.00,0.0124
526.00,0.0127
525.00,0.0129
524.00,0.0130
523.00,0.0128
522.00,0.0124
521.00,0.0117
520.00,0.0109
519.00,0.0101
518.00,0.0097
517.00,0.0098
516.00,0.0102
515.00,0.0104
514.00,0.0103
513.00,0.0101
512.00,0.0100
511.00,0.0100
510.00,0.0099
509.00,0.0099
508.00,0.0102
507.00,0.0104
506.00,0.0103
505.00,0.0100
504.00,0.0098
503.00,0.0099
502.00,0.0098
501.00,0.0092
500.00,0.0084
499.00,0.0079
498.00,0.0078
497.00,0.0081
496.00,0.0086
495.00,0.0094
494.00,0.0103
493.00,0.0107
492.00,0.0104
491.00,0.0096
490.00,0.0087
489.00,0.0081
488.00,0.0079
487.00,0.0080
486.00,0.0084
485.00,0.0088
484.00,0.0090
483.00,0.0089
482.00,0.0085
481.00,0.0082
480.00,0.0080
479.00,0.0083
478.00,0.0088
477.00,0.0093
476.00,0.0097
475.00,0.0099
474.00,0.0099
473.00,0.0098
472.00,0.0098
471.00,0.0103
470.00,0.0109
469.00,0.0113
468.00,0.0112
467.00,0.0110
466.00,0.0113
465.00,0.0119
464.00,0.0128
463.00,0.0139
462.00,0.0152
461.00,0.0163
460.00,0.0171
459.00,0.0173
458.00,0.0169
457.00,0.0159
456.00,0.0144
455.00,0.0130
454.00,0.0120
453.00,0.0120
452.00,0.0128
451.00,0.0138
450.00,0.0142
