Created as New Dataset,Sample 031 By Administrator Date Thursday, September 04 2025
cm-1,A
4000.00,0.0009
3999.00,0.0009
3998.00,0.0009
3997.00,0.0009
3996.00,0.0009
3995.00,0.0009
3994.00,0.0009
3993.00,0.0009
3992.00,0.0008
3991.00,0.0008
3990.00,0.0008
3989.00,0.0008
3988.00,0.0007
3987.00,0.0007
3986.00,0.0007
3985.00,0.0007
3984.00,0.0007
3983.00,0.0007
3982.00,0.0007
3981.00,0.0007
3980.00,0.0007
3979.00,0.0007
3978.00,0.0007
3977.00,0.0007
3976.00,0.0007
3975.00,0.0007
3974.00,0.0007
3973.00,0.0007
3972.00,0.0007
3971.00,0.0006
3970.00,0.0007
3969.00,0.0007
3968.00,0.0007
3967.00,0.0007
3966.00,0.0007
3965.00,0.0007
3964.00,0.0007
3963.00,0.0006
3962.00,0.0006
3961.00,0.0006
3960.00,0.0006
3959.00,0.0006
3958.00,0.0006
3957.00,0.0006
3956.00,0.0006
3955.00,0.0006
3954.00,0.0006
3953.00,0.0006
3952.00,0.0006
3951.00,0.0006
3950.00,0.0006
3949.00,0.0006
3948.00,0.0006
3947.00,0.0005
3946.00,0.0005
3945.00,0.0005
3944.00,0.0006
3943.00,0.0006
3942.00,0.0006
3941.00,0.0006
3940.00,0.0006
3939.00,0.0006
3938.00,0.0006
3937.00,0.0006
3936.00,0.0006
3935.00,0.0006
3934.00,0.0006
3933.00,0.0006
3932.00,0.0006
3931.00,0.0006
3930.00,0.0006
3929.00,0.0006
3928.00,0.0006
3927.00,0.0006
3926.00,0.0007
3925.00,0.0007
3924.00,0.0007
3923.00,0.0007
3922.00,0.0007
3921.00,0.0007
3920.00,0.0007
3919.00,0.0007
3918.00,0.0007
3917.00,0.0007
3916.00,0.0007
3915.00,0.0007
3914.00,0.0007
3913.00,0.0007
3912.00,0.0007
3911.00,0.0007
3910.00,0.0007
3909.00,0.0007
3908.00,0.0007
3907.00,0.0007
3906.00,0.0007
3905.00,0.0007
3904.00,0.0006
3903.00,0.0006
3902.00,0.0007
3901.00,0.0007
3900.00,0.0007
3899.00,0.0007
3898.00,0.0007
3897.00,0.0007
3896.00,0.0007
3895.00,0.0007
3894.00,0.0007
3893.00,0.0007
3892.00,0.0006
3891.00,0.0006
3890.00,0.0007
3889.00,0.0007
3888.00,0.0007
3887.00,0.0007
3886.00,0.0007
3885.00,0.0007
3884.00,0.0007
3883.00,0.0007
3882.00,0.0007
3881.00,0.0007
3880.00,0.0007
3879.00,0.0007
3878.00,0.0007
3877.00,0.0007
3876.00,0.0007
3875.00,0.0006
3874.00,0.0006
3873.00,0.0006
3872.00,0.0006
3871.00,0.0006
3870.00,0.0006
3869.00,0.0006
3868.00,0.0006
3867.00,0.0006
3866.00,0.0006
3865.00,0.0006
3864.00,0.0006
3863.00,0.0006
3862.00,0.0006
3861.00,0.0006
3860.00,0.0006
3859.00,0.0006
3858.00,0.0007
3857.00,0.0007
3856.00,0.0008
3855.00,0.0009
3854.00,0.0008
3853.00,0.0008
3852.00,0.0007
3851.00,0.0007
3850.00,0.0007
3849.00,0.0006
3848.00,0.0006
3847.00,0.0005
3846.00,0.0005
3845.00,0.0005
3844.00,0.0005
3843.00,0.0005
3842.00,0.0005
3841.00,0.0005
3840.00,0.0005
3839.00,0.0006
3838.00,0.0006
3837.00,0.0006
3836.00,0.0006
3835.00,0.0007
3834.00,0.0007
3833.00,0.0007
3832.00,0.0006
3831.00,0.0006
3830.00,0.0006
3829.00,0.0006
3828.00,0.0006
3827.00,0.0005
3826.00,0.0005
3825.00,0.0005
3824.00,0.0005
3823.00,0.0005
3822.00,0.0005
3821.00,0.0005
3820.00,0.0005
3819.00,0.0006
3818.00,0.0007
3817.00,0.0007
3816.00,0.0007
3815.00,0.0007
3814.00,0.0007
3813.00,0.0007
3812.00,0.0007
3811.00,0.0007
3810.00,0.0007
3809.00,0.0007
3808.00,0.0007
3807.00,0.0007
3806.00,0.0006
3805.00,0.0007
3804.00,0.0007
3803.00,0.0007
3802.00,0.0006
3801.00,0.0006
3800.00,0.0006
3799.00,0.0005
3798.00,0.0005
3797.00,0.0005
3796.00,0.0005
3795.00,0.0005
3794.00,0.0006
3793.00,0.0006
3792.00,0.0006
3791.00,0.0006
3790.00,0.0006
3789.00,0.0006
3788.00,0.0006
3787.00,0.0006
3786.00,0.0005
3785.00,0.0005
3784.00,0.0005
3783.00,0.0005
3782.00,0.0005
3781.00,0.0005
3780.00,0.0005
3779.00,0.0006
3778.00,0.0006
3777.00,0.0006
3776.00,0.0006
3775.00,0.0006
3774.00,0.0006
3773.00,0.0006
3772.00,0.0006
3771.00,0.0006
3770.00,0.0006
3769.00,0.0006
3768.00,0.0007
3767.00,0.0007
3766.00,0.0008
3765.00,0.0008
3764.00,0.0007
3763.00,0.0007
3762.00,0.0007
3761.00,0.0007
3760.00,0.0007
3759.00,0.0007
3758.00,0.0007
3757.00,0.0006
3756.00,0.0006
3755.00,0.0006
3754.00,0.0006
3753.00,0.0006
3752.00,0.0007
3751.00,0.0007
3750.00,0.0007
3749.00,0.0007
3748.00,0.0007
3747.00,0.0007
3746.00,0.0007
3745.00,0.0007
3744.00,0.0007
3743.00,0.0007
3742.00,0.0007
3741.00,0.0006
3740.00,0.0005
3739.00,0.0005
3738.00,0.0004
3737.00,0.0004
3736.00,0.0003
3735.00,0.0003
3734.00,0.0004
3733.00,0.0004
3732.00,0.0005
3731.00,0.0005
3730.00,0.0005
3729.00,0.0004
3728.00,0.0004
3727.00,0.0004
3726.00,0.0004
3725.00,0.0004
3724.00,0.0004
3723.00,0.0004
3722.00,0.0004
3721.00,0.0004
3720.00,0.0004
3719.00,0.0005
3718.00,0.0005
3717.00,0.0005
3716.00,0.0005
3715.00,0.0005
3714.00,0.0004
3713.00,0.0004
3712.00,0.0005
3711.00,0.0005
3710.00,0.0005
3709.00,0.0006
3708.00,0.0005
3707.00,0.0005
3706.00,0.0004
3705.00,0.0004
3704.00,0.0004
3703.00,0.0004
3702.00,0.0004
3701.00,0.0004
3700.00,0.0004
3699.00,0.0004
3698.00,0.0004
3697.00,0.0004
3696.00,0.0004
3695.00,0.0004
3694.00,0.0005
3693.00,0.0006
3692.00,0.0007
3691.00,0.0007
3690.00,0.0008
3689.00,0.0008
3688.00,0.0008
3687.00,0.0007
3686.00,0.0007
3685.00,0.0006
3684.00,0.0006
3683.00,0.0006
3682.00,0.0006
3681.00,0.0006
3680.00,0.0006
3679.00,0.0006
3678.00,0.0006
3677.00,0.0006
3676.00,0.0006
3675.00,0.0006
3674.00,0.0006
3673.00,0.0007
3672.00,0.0007
3671.00,0.0007
3670.00,0.0007
3669.00,0.0007
3668.00,0.0007
3667.00,0.0007
3666.00,0.0007
3665.00,0.0007
3664.00,0.0007
3663.00,0.0007
3662.00,0.0007
3661.00,0.0007
3660.00,0.0007
3659.00,0.0007
3658.00,0.0008
3657.00,0.0008
3656.00,0.0008
3655.00,0.0008
3654.00,0.0007
3653.00,0.0007
3652.00,0.0006
3651.00,0.0005
3650.00,0.0004
3649.00,0.0005
3648.00,0.0005
3647.00,0.0006
3646.00,0.0007
3645.00,0.0007
3644.00,0.0006
3643.00,0.0006
3642.00,0.0006
3641.00,0.0006
3640.00,0.0006
3639.00,0.0006
3638.00,0.0006
3637.00,0.0006
3636.00,0.0006
3635.00,0.0006
3634.00,0.0006
3633.00,0.0006
3632.00,0.0006
3631.00,0.0006
3630.00,0.0007
3629.00,0.0008
3628.00,0.0008
3627.00,0.0008
3626.00,0.0007
3625.00,0.0006
3624.00,0.0006
3623.00,0.0006
3622.00,0.0006
3621.00,0.0006
3620.00,0.0006
3619.00,0.0006
3618.00,0.0006
3617.00,0.0006
3616.00,0.0007
3615.00,0.0007
3614.00,0.0008
3613.00,0.0008
3612.00,0.0008
3611.00,0.0008
3610.00,0.0008
3609.00,0.0008
3608.00,0.0008
3607.00,0.0008
3606.00,0.0008
3605.00,0.0009
3604.00,0.0009
3603.00,0.0009
3602.00,0.0009
3601.00,0.0009
3600.00,0.0009
3599.00,0.0009
3598.00,0.0009
3597.00,0.0009
3596.00,0.0009
3595.00,0.0009
3594.00,0.0009
3593.00,0.0009
3592.00,0.0010
3591.00,0.0010
3590.00,0.0009
3589.00,0.0009
3588.00,0.0009
3587.00,0.0009
3586.00,0.0010
3585.00,0.0010
3584.00,0.0010
3583.00,0.0011
3582.00,0.0011
3581.00,0.0011
3580.00,0.0011
3579.00,0.0012
3578.00,0.0012
3577.00,0.0012
3576.00,0.0012
3575.00,0.0012
3574.00,0.0012
3573.00,0.0012
3572.00,0.0012
3571.00,0.0012
3570.00,0.0012
3569.00,0.0012
3568.00,0.0012
3567.00,0.0012
3566.00,0.0012
3565.00,0.0012
3564.00,0.0013
3563.00,0.0013
3562.00,0.0013
3561.00,0.0014
3560.00,0.0014
3559.00,0.0015
3558.00,0.0015
3557.00,0.0015
3556.00,0.0015
3555.00,0.0016
3554.00,0.0016
3553.00,0.0017
3552.00,0.0017
3551.00,0.0016
3550.00,0.0016
3549.00,0.0016
3548.00,0.0016
3547.00,0.0016
3546.00,0.0017
3545.00,0.0017
3544.00,0.0017
3543.00,0.0018
3542.00,0.0018
3541.00,0.0019
3540.00,0.0019
3539.00,0.0019
3538.00,0.0020
3537.00,0.0020
3536.00,0.0020
3535.00,0.0020
3534.00,0.0020
3533.00,0.0020
3532.00,0.0020
3531.00,0.0020
3530.00,0.0020
3529.00,0.0020
3528.00,0.0020
3527.00,0.0021
3526.00,0.0021
3525.00,0.0021
3524.00,0.0021
3523.00,0.0021
3522.00,0.0021
3521.00,0.0021
3520.00,0.0022
3519.00,0.0022
3518.00,0.0022
3517.00,0.0023
3516.00,0.0023
3515.00,0.0023
3514.00,0.0024
3513.00,0.0024
3512.00,0.0024
3511.00,0.0024
3510.00,0.0024
3509.00,0.0024
3508.00,0.0024
3507.00,0.0024
3506.00,0.0024
3505.00,0.0024
3504.00,0.0024
3503.00,0.0025
3502.00,0.0026
3501.00,0.0026
3500.00,0.0026
3499.00,0.0026
3498.00,0.0026
3497.00,0.0026
3496.00,0.0026
3495.00,0.0026
3494.00,0.0027
3493.00,0.0027
3492.00,0.0028
3491.00,0.0028
3490.00,0.0028
3489.00,0.0028
3488.00,0.0029
3487.00,0.0029
3486.00,0.0029
3485.00,0.0029
3484.00,0.0029
3483.00,0.0030
3482.00,0.0030
3481.00,0.0031
3480.00,0.0031
3479.00,0.0031
3478.00,0.0031
3477.00,0.0032
3476.00,0.0032
3475.00,0.0032
3474.00,0.0032
3473.00,0.0032
3472.00,0.0032
3471.00,0.0033
3470.00,0.0033
3469.00,0.0033
3468.00,0.0032
3467.00,0.0032
3466.00,0.0032
3465.00,0.0033
3464.00,0.0033
3463.00,0.0034
3462.00,0.0034
3461.00,0.0034
3460.00,0.0035
3459.00,0.0035
3458.00,0.0035
3457.00,0.0035
3456.00,0.0035
3455.00,0.0035
3454.00,0.0035
3453.00,0.0035
3452.00,0.0036
3451.00,0.0036
3450.00,0.0036
3449.00,0.0037
3448.00,0.0037
3447.00,0.0037
3446.00,0.0038
3445.00,0.0038
3444.00,0.0038
3443.00,0.0038
3442.00,0.0038
3441.00,0.0038
3440.00,0.0038
3439.00,0.0039
3438.00,0.0039
3437.00,0.0039
3436.00,0.0039
3435.00,0.0039
3434.00,0.0039
3433.00,0.0039
3432.00,0.0039
3431.00,0.0040
3430.00,0.0040
3429.00,0.0041
3428.00,0.0041
3427.00,0.0041
3426.00,0.0041
3425.00,0.0041
3424.00,0.0041
3423.00,0.0041
3422.00,0.0042
3421.00,0.0042
3420.00,0.0043
3419.00,0.0043
3418.00,0.0043
3417.00,0.0044
3416.00,0.0044
3415.00,0.0045
3414.00,0.0045
3413.00,0.0045
3412.00,0.0046
3411.00,0.0046
3410.00,0.0046
3409.00,0.0046
3408.00,0.0046
3407.00,0.0047
3406.00,0.0048
3405.00,0.0048
3404.00,0.0049
3403.00,0.0049
3402.00,0.0050
3401.00,0.0050
3400.00,0.0051
3399.00,0.0051
3398.00,0.0051
3397.00,0.0052
3396.00,0.0052
3395.00,0.0052
3394.00,0.0052
3393.00,0.0051
3392.00,0.0051
3391.00,0.0050
3390.00,0.0050
3389.00,0.0050
3388.00,0.0049
3387.00,0.0049
3386.00,0.0049
3385.00,0.0049
3384.00,0.0049
3383.00,0.0049
3382.00,0.0048
3381.00,0.0048
3380.00,0.0048
3379.00,0.0047
3378.00,0.0048
3377.00,0.0048
3376.00,0.0048
3375.00,0.0047
3374.00,0.0047
3373.00,0.0047
3372.00,0.0047
3371.00,0.0047
3370.00,0.0047
3369.00,0.0047
3368.00,0.0047
3367.00,0.0046
3366.00,0.0046
3365.00,0.0046
3364.00,0.0046
3363.00,0.0046
3362.00,0.0046
3361.00,0.0046
3360.00,0.0046
3359.00,0.0046
3358.00,0.0046
3357.00,0.0046
3356.00,0.0046
3355.00,0.0046
3354.00,0.0046
3353.00,0.0046
3352.00,0.0047
3351.00,0.0047
3350.00,0.0047
3349.00,0.0047
3348.00,0.0047
3347.00,0.0047
3346.00,0.0047
3345.00,0.0047
3344.00,0.0047
3343.00,0.0047
3342.00,0.0047
3341.00,0.0047
3340.00,0.0047
3339.00,0.0046
3338.00,0.0046
3337.00,0.0046
3336.00,0.0046
3335.00,0.0046
3334.00,0.0046
3333.00,0.0046
3332.00,0.0046
3331.00,0.0046
3330.00,0.0045
3329.00,0.0045
3328.00,0.0045
3327.00,0.0045
3326.00,0.0045
3325.00,0.0045
3324.00,0.0046
3323.00,0.0046
3322.00,0.0046
3321.00,0.0046
3320.00,0.0045
3319.00,0.0045
3318.00,0.0044
3317.00,0.0044
3316.00,0.0044
3315.00,0.0044
3314.00,0.0045
3313.00,0.0045
3312.00,0.0045
3311.00,0.0045
3310.00,0.0045
3309.00,0.0045
3308.00,0.0045
3307.00,0.0045
3306.00,0.0045
3305.00,0.0045
3304.00,0.0046
3303.00,0.0046
3302.00,0.0046
3301.00,0.0046
3300.00,0.0045
3299.00,0.0045
3298.00,0.0045
3297.00,0.0044
3296.00,0.0044
3295.00,0.0044
3294.00,0.0044
3293.00,0.0044
3292.00,0.0043
3291.00,0.0043
3290.00,0.0043
3289.00,0.0043
3288.00,0.0042
3287.00,0.0042
3286.00,0.0042
3285.00,0.0042
3284.00,0.0042
3283.00,0.0041
3282.00,0.0041
3281.00,0.0041
3280.00,0.0041
3279.00,0.0040
3278.00,0.0041
3277.00,0.0041
3276.00,0.0041
3275.00,0.0041
3274.00,0.0041
3273.00,0.0041
3272.00,0.0040
3271.00,0.0040
3270.00,0.0040
3269.00,0.0040
3268.00,0.0040
3267.00,0.0039
3266.00,0.0039
3265.00,0.0039
3264.00,0.0038
3263.00,0.0038
3262.00,0.0038
3261.00,0.0039
3260.00,0.0039
3259.00,0.0039
3258.00,0.0038
3257.00,0.0038
3256.00,0.0038
3255.00,0.0038
3254.00,0.0037
3253.00,0.0037
3252.00,0.0037
3251.00,0.0037
3250.00,0.0037
3249.00,0.0037
3248.00,0.0037
3247.00,0.0036
3246.00,0.0036
3245.00,0.0036
3244.00,0.0036
3243.00,0.0036
3242.00,0.0036
3241.00,0.0037
3240.00,0.0037
3239.00,0.0037
3238.00,0.0037
3237.00,0.0036
3236.00,0.0036
3235.00,0.0036
3234.00,0.0036
3233.00,0.0036
3232.00,0.0036
3231.00,0.0036
3230.00,0.0037
3229.00,0.0037
3228.00,0.0038
3227.00,0.0038
3226.00,0.0039
3225.00,0.0039
3224.00,0.0040
3223.00,0.0040
3222.00,0.0040
3221.00,0.0039
3220.00,0.0039
3219.00,0.0039
3218.00,0.0039
3217.00,0.0039
3216.00,0.0040
3215.00,0.0040
3214.00,0.0041
3213.00,0.0041
3212.00,0.0042
3211.00,0.0043
3210.00,0.0043
3209.00,0.0043
3208.00,0.0043
3207.00,0.0043
3206.00,0.0043
3205.00,0.0043
3204.00,0.0043
3203.00,0.0043
3202.00,0.0044
3201.00,0.0044
3200.00,0.0045
3199.00,0.0045
3198.00,0.0045
3197.00,0.0044
3196.00,0.0044
3195.00,0.0044
3194.00,0.0044
3193.00,0.0044
3192.00,0.0044
3191.00,0.0044
3190.00,0.0044
3189.00,0.0044
3188.00,0.0044
3187.00,0.0044
3186.00,0.0044
3185.00,0.0045
3184.00,0.0045
3183.00,0.0044
3182.00,0.0044
3181.00,0.0044
3180.00,0.0043
3179.00,0.0043
3178.00,0.0042
3177.00,0.0041
3176.00,0.0041
3175.00,0.0041
3174.00,0.0041
3173.00,0.0040
3172.00,0.0040
3171.00,0.0040
3170.00,0.0039
3169.00,0.0039
3168.00,0.0039
3167.00,0.0039
3166.00,0.0039
3165.00,0.0039
3164.00,0.0038
3163.00,0.0038
3162.00,0.0038
3161.00,0.0038
3160.00,0.0038
3159.00,0.0038
3158.00,0.0037
3157.00,0.0037
3156.00,0.0037
3155.00,0.0037
3154.00,0.0037
3153.00,0.0037
3152.00,0.0037
3151.00,0.0037
3150.00,0.0037
3149.00,0.0037
3148.00,0.0036
3147.00,0.0036
3146.00,0.0036
3145.00,0.0035
3144.00,0.0035
3143.00,0.0035
3142.00,0.0035
3141.00,0.0036
3140.00,0.0036
3139.00,0.0036
3138.00,0.0036
3137.00,0.0035
3136.00,0.0034
3135.00,0.0034
3134.00,0.0034
3133.00,0.0034
3132.00,0.0034
3131.00,0.0033
3130.00,0.0033
3129.00,0.0033
3128.00,0.0033
3127.00,0.0032
3126.00,0.0032
3125.00,0.0032
3124.00,0.0032
3123.00,0.0032
3122.00,0.0031
3121.00,0.0031
3120.00,0.0031
3119.00,0.0031
3118.00,0.0030
3117.00,0.0030
3116.00,0.0030
3115.00,0.0030
3114.00,0.0030
3113.00,0.0030
3112.00,0.0029
3111.00,0.0029
3110.00,0.0028
3109.00,0.0028
3108.00,0.0028
3107.00,0.0028
3106.00,0.0028
3105.00,0.0028
3104.00,0.0028
3103.00,0.0028
3102.00,0.0028
3101.00,0.0028
3100.00,0.0028
3099.00,0.0028
3098.00,0.0029
3097.00,0.0029
3096.00,0.0028
3095.00,0.0028
3094.00,0.0028
3093.00,0.0027
3092.00,0.0027
3091.00,0.0027
3090.00,0.0027
3089.00,0.0027
3088.00,0.0027
3087.00,0.0027
3086.00,0.0027
3085.00,0.0027
3084.00,0.0027
3083.00,0.0027
3082.00,0.0027
3081.00,0.0027
3080.00,0.0027
3079.00,0.0027
3078.00,0.0027
3077.00,0.0027
3076.00,0.0027
3075.00,0.0027
3074.00,0.0028
3073.00,0.0028
3072.00,0.0028
3071.00,0.0029
3070.00,0.0029
3069.00,0.0029
3068.00,0.0029
3067.00,0.0029
3066.00,0.0029
3065.00,0.0029
3064.00,0.0029
3063.00,0.0030
3062.00,0.0030
3061.00,0.0030
3060.00,0.0031
3059.00,0.0031
3058.00,0.0031
3057.00,0.0031
3056.00,0.0031
3055.00,0.0031
3054.00,0.0031
3053.00,0.0031
3052.00,0.0031
3051.00,0.0031
3050.00,0.0032
3049.00,0.0032
3048.00,0.0032
3047.00,0.0032
3046.00,0.0032
3045.00,0.0032
3044.00,0.0033
3043.00,0.0033
3042.00,0.0034
3041.00,0.0034
3040.00,0.0034
3039.00,0.0034
3038.00,0.0034
3037.00,0.0034
3036.00,0.0034
3035.00,0.0034
3034.00,0.0034
3033.00,0.0035
3032.00,0.0036
3031.00,0.0036
3030.00,0.0037
3029.00,0.0038
3028.00,0.0038
3027.00,0.0039
3026.00,0.0039
3025.00,0.0040
3024.00,0.0041
3023.00,0.0042
3022.00,0.0042
3021.00,0.0043
3020.00,0.0044
3019.00,0.0045
3018.00,0.0046
3017.00,0.0047
3016.00,0.0048
3015.00,0.0049
3014.00,0.0051
3013.00,0.0052
3012.00,0.0053
3011.00,0.0055
3010.00,0.0056
3009.00,0.0058
3008.00,0.0060
3007.00,0.0062
3006.00,0.0064
3005.00,0.0066
3004.00,0.0068
3003.00,0.0071
3002.00,0.0073
3001.00,0.0076
3000.00,0.0079
2999.00,0.0082
2998.00,0.0085
2997.00,0.0088
2996.00,0.0092
2995.00,0.0096
2994.00,0.0100
2993.00,0.0105
2992.00,0.0111
2991.00,0.0116
2990.00,0.0122
2989.00,0.0129
2988.00,0.0136
2987.00,0.0145
2986.00,0.0155
2985.00,0.0166
2984.00,0.0178
2983.00,0.0193
2982.00,0.0208
2981.00,0.0224
2980.00,0.0242
2979.00,0.0261
2978.00,0.0283
2977.00,0.0309
2976.00,0.0339
2975.00,0.0373
2974.00,0.0412
2973.00,0.0457
2972.00,0.0507
2971.00,0.0562
2970.00,0.0623
2969.00,0.0690
2968.00,0.0760
2967.00,0.0835
2966.00,0.0912
2965.00,0.0988
2964.00,0.1061
2963.00,0.1127
2962.00,0.1184
2961.00,0.1231
2960.00,0.1272
2959.00,0.1311
2958.00,0.1354
2957.00,0.1405
2956.00,0.1470
2955.00,0.1548
2954.00,0.1636
2953.00,0.1728
2952.00,0.1812
2951.00,0.1874
2950.00,0.1903
2949.00,0.1889
2948.00,0.1831
2947.00,0.1735
2946.00,0.1613
2945.00,0.1483
2944.00,0.1358
2943.00,0.1250
2942.00,0.1166
2941.00,0.1108
2940.00,0.1074
2939.00,0.1064
2938.00,0.1075
2937.00,0.1104
2936.00,0.1150
2935.00,0.1211
2934.00,0.1287
2933.00,0.1377
2932.00,0.1479
2931.00,0.1591
2930.00,0.1710
2929.00,0.1834
2928.00,0.1960
2927.00,0.2084
2926.00,0.2207
2925.00,0.2328
2924.00,0.2448
2923.00,0.2568
2922.00,0.2689
2921.00,0.2806
2920.00,0.2912
2919.00,0.2994
2918.00,0.3040
2917.00,0.3038
2916.00,0.2986
2915.00,0.2893
2914.00,0.2771
2913.00,0.2638
2912.00,0.2505
2911.00,0.2382
2910.00,0.2271
2909.00,0.2171
2908.00,0.2081
2907.00,0.1996
2906.00,0.1915
2905.00,0.1837
2904.00,0.1760
2903.00,0.1685
2902.00,0.1613
2901.00,0.1543
2900.00,0.1478
2899.00,0.1416
2898.00,0.1358
2897.00,0.1305
2896.00,0.1257
2895.00,0.1216
2894.00,0.1181
2893.00,0.1153
2892.00,0.1131
2891.00,0.1115
2890.00,0.1104
2889.00,0.1097
2888.00,0.1094
2887.00,0.1095
2886.00,0.1099
2885.00,0.1107
2884.00,0.1120
2883.00,0.1137
2882.00,0.1160
2881.00,0.1185
2880.00,0.1211
2879.00,0.1233
2878.00,0.1247
2877.00,0.1252
2876.00,0.1249
2875.00,0.1241
2874.00,0.1235
2873.00,0.1235
2872.00,0.1243
2871.00,0.1258
2870.00,0.1279
2869.00,0.1299
2868.00,0.1312
2867.00,0.1309
2866.00,0.1283
2865.00,0.1234
2864.00,0.1164
2863.00,0.1082
2862.00,0.1001
2861.00,0.0929
2860.00,0.0872
2859.00,0.0833
2858.00,0.0811
2857.00,0.0802
2856.00,0.0805
2855.00,0.0817
2854.00,0.0835
2853.00,0.0858
2852.00,0.0881
2851.00,0.0902
2850.00,0.0918
2849.00,0.0928
2848.00,0.0934
2847.00,0.0943
2846.00,0.0959
2845.00,0.0985
2844.00,0.1023
2843.00,0.1069
2842.00,0.1118
2841.00,0.1166
2840.00,0.1202
2839.00,0.1221
2838.00,0.1214
2837.00,0.1178
2836.00,0.1113
2835.00,0.1025
2834.00,0.0922
2833.00,0.0815
2832.00,0.0714
2831.00,0.0624
2830.00,0.0547
2829.00,0.0485
2828.00,0.0434
2827.00,0.0392
2826.00,0.0359
2825.00,0.0332
2824.00,0.0309
2823.00,0.0290
2822.00,0.0273
2821.00,0.0259
2820.00,0.0246
2819.00,0.0235
2818.00,0.0225
2817.00,0.0217
2816.00,0.0210
2815.00,0.0203
2814.00,0.0197
2813.00,0.0191
2812.00,0.0185
2811.00,0.0179
2810.00,0.0174
2809.00,0.0168
2808.00,0.0162
2807.00,0.0156
2806.00,0.0149
2805.00,0.0142
2804.00,0.0136
2803.00,0.0130
2802.00,0.0124
2801.00,0.0119
2800.00,0.0115
2799.00,0.0112
2798.00,0.0109
2797.00,0.0107
2796.00,0.0104
2795.00,0.0102
2794.00,0.0099
2793.00,0.0097
2792.00,0.0094
2791.00,0.0091
2790.00,0.0088
2789.00,0.0085
2788.00,0.0082
2787.00,0.0079
2786.00,0.0077
2785.00,0.0074
2784.00,0.0072
2783.00,0.0070
2782.00,0.0068
2781.00,0.0066
2780.00,0.0065
2779.00,0.0063
2778.00,0.0062
2777.00,0.0061
2776.00,0.0059
2775.00,0.0058
2774.00,0.0057
2773.00,0.0057
2772.00,0.0056
2771.00,0.0056
2770.00,0.0055
2769.00,0.0055
2768.00,0.0054
2767.00,0.0054
2766.00,0.0053
2765.00,0.0053
2764.00,0.0053
2763.00,0.0053
2762.00,0.0053
2761.00,0.0053
2760.00,0.0053
2759.00,0.0052
2758.00,0.0051
2757.00,0.0051
2756.00,0.0051
2755.00,0.0051
2754.00,0.0051
2753.00,0.0051
2752.00,0.0051
2751.00,0.0050
2750.00,0.0050
2749.00,0.0050
2748.00,0.0050
2747.00,0.0050
2746.00,0.0051
2745.00,0.0051
2744.00,0.0052
2743.00,0.0052
2742.00,0.0053
2741.00,0.0054
2740.00,0.0056
2739.00,0.0057
2738.00,0.0059
2737.00,0.0060
2736.00,0.0062
2735.00,0.0063
2734.00,0.0064
2733.00,0.0066
2732.00,0.0068
2731.00,0.0070
2730.00,0.0072
2729.00,0.0075
2728.00,0.0077
2727.00,0.0080
2726.00,0.0083
2725.00,0.0085
2724.00,0.0087
2723.00,0.0087
2722.00,0.0087
2721.00,0.0085
2720.00,0.0082
2719.00,0.0079
2718.00,0.0076
2717.00,0.0073
2716.00,0.0070
2715.00,0.0067
2714.00,0.0065
2713.00,0.0062
2712.00,0.0060
2711.00,0.0058
2710.00,0.0056
2709.00,0.0054
2708.00,0.0052
2707.00,0.0050
2706.00,0.0049
2705.00,0.0048
2704.00,0.0047
2703.00,0.0047
2702.00,0.0046
2701.00,0.0046
2700.00,0.0045
2699.00,0.0044
2698.00,0.0043
2697.00,0.0043
2696.00,0.0043
2695.00,0.0043
2694.00,0.0043
2693.00,0.0044
2692.00,0.0044
2691.00,0.0044
2690.00,0.0044
2689.00,0.0044
2688.00,0.0044
2687.00,0.0043
2686.00,0.0043
2685.00,0.0043
2684.00,0.0043
2683.00,0.0043
2682.00,0.0044
2681.00,0.0044
2680.00,0.0044
2679.00,0.0044
2678.00,0.0044
2677.00,0.0044
2676.00,0.0044
2675.00,0.0044
2674.00,0.0044
2673.00,0.0043
2672.00,0.0043
2671.00,0.0043
2670.00,0.0043
2669.00,0.0044
2668.00,0.0044
2667.00,0.0044
2666.00,0.0045
2665.00,0.0045
2664.00,0.0046
2663.00,0.0046
2662.00,0.0046
2661.00,0.0047
2660.00,0.0047
2659.00,0.0047
2658.00,0.0047
2657.00,0.0047
2656.00,0.0046
2655.00,0.0046
2654.00,0.0045
2653.00,0.0045
2652.00,0.0044
2651.00,0.0044
2650.00,0.0043
2649.00,0.0043
2648.00,0.0042
2647.00,0.0042
2646.00,0.0041
2645.00,0.0041
2644.00,0.0040
2643.00,0.0040
2642.00,0.0040
2641.00,0.0040
2640.00,0.0040
2639.00,0.0039
2638.00,0.0039
2637.00,0.0038
2636.00,0.0038
2635.00,0.0038
2634.00,0.0038
2633.00,0.0038
2632.00,0.0038
2631.00,0.0038
2630.00,0.0037
2629.00,0.0037
2628.00,0.0038
2627.00,0.0038
2626.00,0.0039
2625.00,0.0040
2624.00,0.0040
2623.00,0.0040
2622.00,0.0040
2621.00,0.0039
2620.00,0.0039
2619.00,0.0040
2618.00,0.0040
2617.00,0.0040
2616.00,0.0040
2615.00,0.0039
2614.00,0.0039
2613.00,0.0039
2612.00,0.0038
2611.00,0.0038
2610.00,0.0037
2609.00,0.0037
2608.00,0.0036
2607.00,0.0035
2606.00,0.0034
2605.00,0.0033
2604.00,0.0033
2603.00,0.0032
2602.00,0.0032
2601.00,0.0032
2600.00,0.0031
2599.00,0.0031
2598.00,0.0031
2597.00,0.0031
2596.00,0.0031
2595.00,0.0031
2594.00,0.0031
2593.00,0.0031
2592.00,0.0031
2591.00,0.0033
2590.00,0.0034
2589.00,0.0035
2588.00,0.0035
2587.00,0.0036
2586.00,0.0037
2585.00,0.0037
2584.00,0.0038
2583.00,0.0039
2582.00,0.0039
2581.00,0.0040
2580.00,0.0039
2579.00,0.0038
2578.00,0.0037
2577.00,0.0035
2576.00,0.0034
2575.00,0.0032
2574.00,0.0031
2573.00,0.0030
2572.00,0.0029
2571.00,0.0028
2570.00,0.0026
2569.00,0.0025
2568.00,0.0024
2567.00,0.0024
2566.00,0.0024
2565.00,0.0024
2564.00,0.0024
2563.00,0.0023
2562.00,0.0022
2561.00,0.0021
2560.00,0.0021
2559.00,0.0021
2558.00,0.0021
2557.00,0.0021
2556.00,0.0021
2555.00,0.0021
2554.00,0.0021
2553.00,0.0021
2552.00,0.0021
2551.00,0.0021
2550.00,0.0020
2549.00,0.0020
2548.00,0.0020
2547.00,0.0020
2546.00,0.0019
2545.00,0.0019
2544.00,0.0018
2543.00,0.0018
2542.00,0.0018
2541.00,0.0017
2540.00,0.0017
2539.00,0.0016
2538.00,0.0016
2537.00,0.0015
2536.00,0.0015
2535.00,0.0014
2534.00,0.0014
2533.00,0.0013
2532.00,0.0014
2531.00,0.0014
2530.00,0.0013
2529.00,0.0013
2528.00,0.0013
2527.00,0.0013
2526.00,0.0013
2525.00,0.0013
2524.00,0.0013
2523.00,0.0013
2522.00,0.0013
2521.00,0.0012
2520.00,0.0012
2519.00,0.0011
2518.00,0.0011
2517.00,0.0011
2516.00,0.0012
2515.00,0.0012
2514.00,0.0011
2513.00,0.0011
2512.00,0.0010
2511.00,0.0010
2510.00,0.0010
2509.00,0.0010
2508.00,0.0010
2507.00,0.0009
2506.00,0.0009
2505.00,0.0009
2504.00,0.0009
2503.00,0.0009
2502.00,0.0009
2501.00,0.0008
2500.00,0.0008
2499.00,0.0009
2498.00,0.0009
2497.00,0.0009
2496.00,0.0009
2495.00,0.0008
2494.00,0.0008
2493.00,0.0008
2492.00,0.0008
2491.00,0.0009
2490.00,0.0009
2489.00,0.0010
2488.00,0.0010
2487.00,0.0011
2486.00,0.0011
2485.00,0.0011
2484.00,0.0011
2483.00,0.0010
2482.00,0.0010
2481.00,0.0010
2480.00,0.0010
2479.00,0.0009
2478.00,0.0009
2477.00,0.0009
2476.00,0.0008
2475.00,0.0008
2474.00,0.0008
2473.00,0.0009
2472.00,0.0009
2471.00,0.0009
2470.00,0.0008
2469.00,0.0008
2468.00,0.0007
2467.00,0.0007
2466.00,0.0008
2465.00,0.0008
2464.00,0.0008
2463.00,0.0009
2462.00,0.0010
2461.00,0.0010
2460.00,0.0010
2459.00,0.0010
2458.00,0.0010
2457.00,0.0010
2456.00,0.0010
2455.00,0.0011
2454.00,0.0011
2453.00,0.0011
2452.00,0.0010
2451.00,0.0009
2450.00,0.0009
2449.00,0.0009
2448.00,0.0008
2447.00,0.0008
2446.00,0.0009
2445.00,0.0009
2444.00,0.0010
2443.00,0.0010
2442.00,0.0010
2441.00,0.0009
2440.00,0.0008
2439.00,0.0008
2438.00,0.0008
2437.00,0.0008
2436.00,0.0009
2435.00,0.0009
2434.00,0.0010
2433.00,0.0010
2432.00,0.0010
2431.00,0.0009
2430.00,0.0009
2429.00,0.0009
2428.00,0.0009
2427.00,0.0009
2426.00,0.0009
2425.00,0.0009
2424.00,0.0009
2423.00,0.0009
2422.00,0.0008
2421.00,0.0007
2420.00,0.0007
2419.00,0.0007
2418.00,0.0007
2417.00,0.0007
2416.00,0.0008
2415.00,0.0008
2414.00,0.0008
2413.00,0.0008
2412.00,0.0008
2411.00,0.0008
2410.00,0.0008
2409.00,0.0008
2408.00,0.0008
2407.00,0.0007
2406.00,0.0007
2405.00,0.0007
2404.00,0.0007
2403.00,0.0006
2402.00,0.0006
2401.00,0.0006
2400.00,0.0006
2399.00,0.0007
2398.00,0.0008
2397.00,0.0008
2396.00,0.0008
2395.00,0.0008
2394.00,0.0008
2393.00,0.0008
2392.00,0.0008
2391.00,0.0008
2390.00,0.0007
2389.00,0.0007
2388.00,0.0006
2387.00,0.0006
2386.00,0.0005
2385.00,0.0005
2384.00,0.0004
2383.00,0.0003
2382.00,0.0002
2381.00,0.0001
2380.00,0.0000
2379.00,-0.0000
2378.00,-0.0000
2377.00,-0.0000
2376.00,-0.0001
2375.00,-0.0000
2374.00,0.0000
2373.00,0.0001
2372.00,0.0002
2371.00,0.0002
2370.00,0.0002
2369.00,0.0002
2368.00,0.0001
2367.00,0.0001
2366.00,0.0001
2365.00,0.0001
2364.00,0.0001
2363.00,0.0001
2362.00,0.0001
2361.00,0.0001
2360.00,0.0002
2359.00,0.0002
2358.00,0.0003
2357.00,0.0003
2356.00,0.0003
2355.00,0.0003
2354.00,0.0003
2353.00,0.0003
2352.00,0.0002
2351.00,0.0002
2350.00,0.0002
2349.00,0.0003
2348.00,0.0003
2347.00,0.0003
2346.00,0.0003
2345.00,0.0002
2344.00,0.0002
2343.00,0.0003
2342.00,0.0004
2341.00,0.0005
2340.00,0.0006
2339.00,0.0006
2338.00,0.0006
2337.00,0.0006
2336.00,0.0006
2335.00,0.0007
2334.00,0.0007
2333.00,0.0006
2332.00,0.0006
2331.00,0.0005
2330.00,0.0005
2329.00,0.0005
2328.00,0.0007
2327.00,0.0011
2326.00,0.0016
2325.00,0.0020
2324.00,0.0021
2323.00,0.0020
2322.00,0.0018
2321.00,0.0015
2320.00,0.0013
2319.00,0.0012
2318.00,0.0011
2317.00,0.0011
2316.00,0.0011
2315.00,0.0010
2314.00,0.0009
2313.00,0.0009
2312.00,0.0008
2311.00,0.0008
2310.00,0.0008
2309.00,0.0008
2308.00,0.0008
2307.00,0.0009
2306.00,0.0009
2305.00,0.0009
2304.00,0.0010
2303.00,0.0010
2302.00,0.0010
2301.00,0.0010
2300.00,0.0011
2299.00,0.0012
2298.00,0.0012
2297.00,0.0012
2296.00,0.0012
2295.00,0.0013
2294.00,0.0013
2293.00,0.0013
2292.00,0.0013
2291.00,0.0014
2290.00,0.0016
2289.00,0.0017
2288.00,0.0018
2287.00,0.0018
2286.00,0.0018
2285.00,0.0018
2284.00,0.0017
2283.00,0.0016
2282.00,0.0015
2281.00,0.0015
2280.00,0.0014
2279.00,0.0014
2278.00,0.0013
2277.00,0.0013
2276.00,0.0013
2275.00,0.0014
2274.00,0.0015
2273.00,0.0016
2272.00,0.0016
2271.00,0.0015
2270.00,0.0015
2269.00,0.0013
2268.00,0.0011
2267.00,0.0009
2266.00,0.0008
2265.00,0.0007
2264.00,0.0007
2263.00,0.0008
2262.00,0.0009
2261.00,0.0011
2260.00,0.0012
2259.00,0.0012
2258.00,0.0012
2257.00,0.0012
2256.00,0.0012
2255.00,0.0012
2254.00,0.0011
2253.00,0.0009
2252.00,0.0008
2251.00,0.0006
2250.00,0.0006
2249.00,0.0006
2248.00,0.0007
2247.00,0.0008
2246.00,0.0009
2245.00,0.0010
2244.00,0.0010
2243.00,0.0010
2242.00,0.0010
2241.00,0.0009
2240.00,0.0009
2239.00,0.0008
2238.00,0.0008
2237.00,0.0008
2236.00,0.0008
2235.00,0.0008
2234.00,0.0008
2233.00,0.0008
2232.00,0.0009
2231.00,0.0009
2230.00,0.0010
2229.00,0.0010
2228.00,0.0009
2227.00,0.0008
2226.00,0.0007
2225.00,0.0007
2224.00,0.0007
2223.00,0.0007
2222.00,0.0008
2221.00,0.0009
2220.00,0.0010
2219.00,0.0010
2218.00,0.0010
2217.00,0.0009
2216.00,0.0009
2215.00,0.0008
2214.00,0.0008
2213.00,0.0008
2212.00,0.0009
2211.00,0.0009
2210.00,0.0008
2209.00,0.0006
2208.00,0.0004
2207.00,0.0003
2206.00,0.0003
2205.00,0.0004
2204.00,0.0004
2203.00,0.0004
2202.00,0.0003
2201.00,0.0003
2200.00,0.0002
2199.00,0.0003
2198.00,0.0005
2197.00,0.0008
2196.00,0.0011
2195.00,0.0011
2194.00,0.0010
2193.00,0.0009
2192.00,0.0007
2191.00,0.0006
2190.00,0.0006
2189.00,0.0006
2188.00,0.0006
2187.00,0.0007
2186.00,0.0007
2185.00,0.0007
2184.00,0.0007
2183.00,0.0006
2182.00,0.0005
2181.00,0.0004
2180.00,0.0004
2179.00,0.0003
2178.00,0.0001
2177.00,-0.0001
2176.00,-0.0003
2175.00,-0.0004
2174.00,-0.0003
2173.00,-0.0001
2172.00,0.0002
2171.00,0.0006
2170.00,0.0011
2169.00,0.0014
2168.00,0.0016
2167.00,0.0015
2166.00,0.0015
2165.00,0.0015
2164.00,0.0016
2163.00,0.0018
2162.00,0.0018
2161.00,0.0013
2160.00,0.0002
2159.00,-0.0012
2158.00,-0.0024
2157.00,-0.0029
2156.00,-0.0029
2155.00,-0.0025
2154.00,-0.0021
2153.00,-0.0017
2152.00,-0.0014
2151.00,-0.0013
2150.00,-0.0012
2149.00,-0.0011
2148.00,-0.0011
2147.00,-0.0012
2146.00,-0.0013
2145.00,-0.0015
2144.00,-0.0015
2143.00,-0.0015
2142.00,-0.0016
2141.00,-0.0015
2140.00,-0.0015
2139.00,-0.0015
2138.00,-0.0016
2137.00,-0.0017
2136.00,-0.0020
2135.00,-0.0022
2134.00,-0.0023
2133.00,-0.0022
2132.00,-0.0019
2131.00,-0.0016
2130.00,-0.0013
2129.00,-0.0011
2128.00,-0.0009
2127.00,-0.0009
2126.00,-0.0009
2125.00,-0.0010
2124.00,-0.0010
2123.00,-0.0010
2122.00,-0.0010
2121.00,-0.0008
2120.00,-0.0005
2119.00,-0.0003
2118.00,-0.0001
2117.00,0.0001
2116.00,0.0002
2115.00,0.0003
2114.00,0.0004
2113.00,0.0004
2112.00,0.0003
2111.00,0.0002
2110.00,0.0002
2109.00,0.0001
2108.00,0.0001
2107.00,0.0001
2106.00,0.0002
2105.00,0.0003
2104.00,0.0003
2103.00,0.0002
2102.00,0.0001
2101.00,0.0002
2100.00,0.0002
2099.00,0.0002
2098.00,0.0000
2097.00,-0.0002
2096.00,-0.0004
2095.00,-0.0005
2094.00,-0.0005
2093.00,-0.0004
2092.00,-0.0002
2091.00,-0.0001
2090.00,-0.0000
2089.00,0.0001
2088.00,0.0001
2087.00,0.0002
2086.00,0.0001
2085.00,0.0001
2084.00,0.0001
2083.00,0.0000
2082.00,0.0001
2081.00,0.0002
2080.00,0.0004
2079.00,0.0005
2078.00,0.0005
2077.00,0.0003
2076.00,0.0002
2075.00,0.0000
2074.00,0.0000
2073.00,0.0001
2072.00,0.0003
2071.00,0.0003
2070.00,0.0001
2069.00,-0.0000
2068.00,-0.0002
2067.00,-0.0003
2066.00,-0.0003
2065.00,-0.0003
2064.00,-0.0002
2063.00,-0.0002
2062.00,-0.0003
2061.00,-0.0002
2060.00,-0.0001
2059.00,0.0001
2058.00,0.0003
2057.00,0.0005
2056.00,0.0005
2055.00,0.0005
2054.00,0.0006
2053.00,0.0008
2052.00,0.0012
2051.00,0.0013
2050.00,0.0012
2049.00,0.0007
2048.00,0.0002
2047.00,-0.0001
2046.00,-0.0001
2045.00,0.0002
2044.00,0.0005
2043.00,0.0006
2042.00,0.0004
2041.00,0.0000
2040.00,-0.0002
2039.00,-0.0003
2038.00,-0.0004
2037.00,-0.0004
2036.00,-0.0005
2035.00,-0.0006
2034.00,-0.0008
2033.00,-0.0010
2032.00,-0.0009
2031.00,-0.0010
2030.00,-0.0011
2029.00,-0.0012
2028.00,-0.0012
2027.00,-0.0012
2026.00,-0.0010
2025.00,-0.0007
2024.00,-0.0006
2023.00,-0.0008
2022.00,-0.0012
2021.00,-0.0014
2020.00,-0.0013
2019.00,-0.0010
2018.00,-0.0008
2017.00,-0.0007
2016.00,-0.0007
2015.00,-0.0007
2014.00,-0.0008
2013.00,-0.0009
2012.00,-0.0010
2011.00,-0.0012
2010.00,-0.0013
2009.00,-0.0016
2008.00,-0.0020
2007.00,-0.0024
2006.00,-0.0026
2005.00,-0.0025
2004.00,-0.0022
2003.00,-0.0018
2002.00,-0.0015
2001.00,-0.0014
2000.00,-0.0014
1999.00,-0.0014
1998.00,-0.0014
1997.00,-0.0013
1996.00,-0.0011
1995.00,-0.0010
1994.00,-0.0009
1993.00,-0.0005
1992.00,-0.0002
1991.00,-0.0001
1990.00,-0.0003
1989.00,-0.0005
1988.00,-0.0006
1987.00,-0.0005
1986.00,-0.0002
1985.00,0.0000
1984.00,0.0004
1983.00,0.0007
1982.00,0.0009
1981.00,0.0008
1980.00,0.0004
1979.00,-0.0001
1978.00,-0.0006
1977.00,-0.0011
1976.00,-0.0014
1975.00,-0.0015
1974.00,-0.0014
1973.00,-0.0012
1972.00,-0.0010
1971.00,-0.0007
1970.00,-0.0005
1969.00,-0.0004
1968.00,-0.0004
1967.00,-0.0004
1966.00,-0.0006
1965.00,-0.0010
1964.00,-0.0015
1963.00,-0.0018
1962.00,-0.0020
1961.00,-0.0021
1960.00,-0.0022
1959.00,-0.0023
1958.00,-0.0024
1957.00,-0.0023
1956.00,-0.0021
1955.00,-0.0018
1954.00,-0.0015
1953.00,-0.0012
1952.00,-0.0011
1951.00,-0.0011
1950.00,-0.0012
1949.00,-0.0013
1948.00,-0.0013
1947.00,-0.0013
1946.00,-0.0013
1945.00,-0.0014
1944.00,-0.0015
1943.00,-0.0015
1942.00,-0.0014
1941.00,-0.0013
1940.00,-0.0012
1939.00,-0.0013
1938.00,-0.0014
1937.00,-0.0014
1936.00,-0.0013
1935.00,-0.0012
1934.00,-0.0010
1933.00,-0.0009
1932.00,-0.0008
1931.00,-0.0008
1930.00,-0.0009
1929.00,-0.0009
1928.00,-0.0009
1927.00,-0.0008
1926.00,-0.0008
1925.00,-0.0007
1924.00,-0.0005
1923.00,-0.0004
1922.00,-0.0003
1921.00,-0.0003
1920.00,-0.0003
1919.00,-0.0004
1918.00,-0.0005
1917.00,-0.0005
1916.00,-0.0005
1915.00,-0.0004
1914.00,-0.0003
1913.00,-0.0003
1912.00,-0.0002
1911.00,-0.0001
1910.00,-0.0001
1909.00,-0.0001
1908.00,-0.0002
1907.00,-0.0003
1906.00,-0.0003
1905.00,-0.0003
1904.00,-0.0002
1903.00,-0.0002
1902.00,-0.0002
1901.00,-0.0003
1900.00,-0.0002
1899.00,-0.0001
1898.00,-0.0001
1897.00,-0.0001
1896.00,-0.0001
1895.00,-0.0001
1894.00,-0.0002
1893.00,-0.0002
1892.00,-0.0002
1891.00,-0.0002
1890.00,-0.0003
1889.00,-0.0003
1888.00,-0.0003
1887.00,-0.0003
1886.00,-0.0003
1885.00,-0.0002
1884.00,-0.0002
1883.00,-0.0002
1882.00,-0.0002
1881.00,-0.0003
1880.00,-0.0002
1879.00,-0.0002
1878.00,-0.0001
1877.00,-0.0000
1876.00,0.0000
1875.00,0.0000
1874.00,-0.0000
1873.00,-0.0000
1872.00,-0.0000
1871.00,-0.0000
1870.00,-0.0000
1869.00,-0.0001
1868.00,-0.0001
1867.00,-0.0001
1866.00,-0.0002
1865.00,-0.0002
1864.00,-0.0002
1863.00,-0.0001
1862.00,-0.0000
1861.00,0.0000
1860.00,0.0001
1859.00,0.0001
1858.00,0.0001
1857.00,0.0002
1856.00,0.0002
1855.00,0.0002
1854.00,0.0000
1853.00,-0.0001
1852.00,-0.0001
1851.00,-0.0001
1850.00,-0.0001
1849.00,-0.0000
1848.00,0.0000
1847.00,0.0000
1846.00,0.0001
1845.00,0.0002
1844.00,0.0002
1843.00,0.0002
1842.00,0.0001
1841.00,-0.0000
1840.00,-0.0001
1839.00,-0.0001
1838.00,0.0000
1837.00,0.0001
1836.00,0.0003
1835.00,0.0003
1834.00,0.0003
1833.00,0.0003
1832.00,0.0003
1831.00,0.0002
1830.00,0.0002
1829.00,0.0002
1828.00,0.0003
1827.00,0.0004
1826.00,0.0005
1825.00,0.0005
1824.00,0.0005
1823.00,0.0004
1822.00,0.0003
1821.00,0.0002
1820.00,0.0001
1819.00,-0.0000
1818.00,-0.0001
1817.00,-0.0001
1816.00,-0.0001
1815.00,-0.0000
1814.00,0.0000
1813.00,0.0001
1812.00,0.0001
1811.00,0.0001
1810.00,0.0001
1809.00,0.0002
1808.00,0.0002
1807.00,0.0003
1806.00,0.0003
1805.00,0.0004
1804.00,0.0004
1803.00,0.0004
1802.00,0.0004
1801.00,0.0004
1800.00,0.0004
1799.00,0.0005
1798.00,0.0005
1797.00,0.0005
1796.00,0.0005
1795.00,0.0004
1794.00,0.0004
1793.00,0.0005
1792.00,0.0005
1791.00,0.0006
1790.00,0.0007
1789.00,0.0007
1788.00,0.0007
1787.00,0.0007
1786.00,0.0007
1785.00,0.0006
1784.00,0.0006
1783.00,0.0005
1782.00,0.0005
1781.00,0.0006
1780.00,0.0006
1779.00,0.0007
1778.00,0.0007
1777.00,0.0007
1776.00,0.0007
1775.00,0.0007
1774.00,0.0007
1773.00,0.0007
1772.00,0.0008
1771.00,0.0008
1770.00,0.0008
1769.00,0.0008
1768.00,0.0009
1767.00,0.0009
1766.00,0.0009
1765.00,0.0009
1764.00,0.0010
1763.00,0.0010
1762.00,0.0010
1761.00,0.0009
1760.00,0.0009
1759.00,0.0009
1758.00,0.0009
1757.00,0.0009
1756.00,0.0009
1755.00,0.0009
1754.00,0.0009
1753.00,0.0009
1752.00,0.0009
1751.00,0.0009
1750.00,0.0009
1749.00,0.0010
1748.00,0.0011
1747.00,0.0011
1746.00,0.0011
1745.00,0.0011
1744.00,0.0010
1743.00,0.0010
1742.00,0.0010
1741.00,0.0010
1740.00,0.0011
1739.00,0.0012
1738.00,0.0013
1737.00,0.0013
1736.00,0.0013
1735.00,0.0012
1734.00,0.0012
1733.00,0.0013
1732.00,0.0015
1731.00,0.0016
1730.00,0.0016
1729.00,0.0017
1728.00,0.0017
1727.00,0.0018
1726.00,0.0018
1725.00,0.0018
1724.00,0.0019
1723.00,0.0019
1722.00,0.0020
1721.00,0.0021
1720.00,0.0021
1719.00,0.0021
1718.00,0.0019
1717.00,0.0019
1716.00,0.0019
1715.00,0.0019
1714.00,0.0019
1713.00,0.0019
1712.00,0.0020
1711.00,0.0020
1710.00,0.0019
1709.00,0.0020
1708.00,0.0020
1707.00,0.0021
1706.00,0.0022
1705.00,0.0023
1704.00,0.0024
1703.00,0.0025
1702.00,0.0025
1701.00,0.0025
1700.00,0.0025
1699.00,0.0025
1698.00,0.0025
1697.00,0.0025
1696.00,0.0026
1695.00,0.0026
1694.00,0.0026
1693.00,0.0027
1692.00,0.0027
1691.00,0.0028
1690.00,0.0029
1689.00,0.0029
1688.00,0.0030
1687.00,0.0030
1686.00,0.0031
1685.00,0.0031
1684.00,0.0033
1683.00,0.0034
1682.00,0.0035
1681.00,0.0036
1680.00,0.0037
1679.00,0.0038
1678.00,0.0038
1677.00,0.0038
1676.00,0.0038
1675.00,0.0039
1674.00,0.0040
1673.00,0.0041
1672.00,0.0042
1671.00,0.0042
1670.00,0.0042
1669.00,0.0043
1668.00,0.0043
1667.00,0.0044
1666.00,0.0044
1665.00,0.0045
1664.00,0.0045
1663.00,0.0046
1662.00,0.0047
1661.00,0.0048
1660.00,0.0049
1659.00,0.0049
1658.00,0.0049
1657.00,0.0050
1656.00,0.0050
1655.00,0.0051
1654.00,0.0052
1653.00,0.0056
1652.00,0.0061
1651.00,0.0063
1650.00,0.0065
1649.00,0.0067
1648.00,0.0070
1647.00,0.0073
1646.00,0.0075
1645.00,0.0075
1644.00,0.0073
1643.00,0.0072
1642.00,0.0070
1641.00,0.0068
1640.00,0.0067
1639.00,0.0066
1638.00,0.0066
1637.00,0.0065
1636.00,0.0065
1635.00,0.0064
1634.00,0.0063
1633.00,0.0063
1632.00,0.0063
1631.00,0.0063
1630.00,0.0063
1629.00,0.0063
1628.00,0.0063
1627.00,0.0062
1626.00,0.0061
1625.00,0.0060
1624.00,0.0058
1623.00,0.0056
1622.00,0.0055
1621.00,0.0054
1620.00,0.0054
1619.00,0.0054
1618.00,0.0054
1617.00,0.0054
1616.00,0.0054
1615.00,0.0053
1614.00,0.0052
1613.00,0.0052
1612.00,0.0052
1611.00,0.0052
1610.00,0.0052
1609.00,0.0051
1608.00,0.0051
1607.00,0.0051
1606.00,0.0050
1605.00,0.0050
1604.00,0.0050
1603.00,0.0050
1602.00,0.0050
1601.00,0.0050
1600.00,0.0050
1599.00,0.0050
1598.00,0.0049
1597.00,0.0049
1596.00,0.0049
1595.00,0.0049
1594.00,0.0048
1593.00,0.0048
1592.00,0.0049
1591.00,0.0049
1590.00,0.0049
1589.00,0.0050
1588.00,0.0050
1587.00,0.0050
1586.00,0.0051
1585.00,0.0051
1584.00,0.0051
1583.00,0.0052
1582.00,0.0052
1581.00,0.0053
1580.00,0.0054
1579.00,0.0055
1578.00,0.0056
1577.00,0.0056
1576.00,0.0056
1575.00,0.0056
1574.00,0.0055
1573.00,0.0055
1572.00,0.0055
1571.00,0.0055
1570.00,0.0054
1569.00,0.0054
1568.00,0.0055
1567.00,0.0055
1566.00,0.0055
1565.00,0.0056
1564.00,0.0056
1563.00,0.0056
1562.00,0.0056
1561.00,0.0057
1560.00,0.0057
1559.00,0.0057
1558.00,0.0058
1557.00,0.0058
1556.00,0.0058
1555.00,0.0058
1554.00,0.0059
1553.00,0.0060
1552.00,0.0060
1551.00,0.0061
1550.00,0.0061
1549.00,0.0061
1548.00,0.0062
1547.00,0.0063
1546.00,0.0063
1545.00,0.0064
1544.00,0.0064
1543.00,0.0065
1542.00,0.0065
1541.00,0.0065
1540.00,0.0066
1539.00,0.0065
1538.00,0.0064
1537.00,0.0062
1536.00,0.0061
1535.00,0.0059
1534.00,0.0057
1533.00,0.0056
1532.00,0.0055
1531.00,0.0054
1530.00,0.0053
1529.00,0.0052
1528.00,0.0053
1527.00,0.0052
1526.00,0.0052
1525.00,0.0051
1524.00,0.0051
1523.00,0.0051
1522.00,0.0051
1521.00,0.0051
1520.00,0.0052
1519.00,0.0051
1518.00,0.0051
1517.00,0.0052
1516.00,0.0052
1515.00,0.0053
1514.00,0.0053
1513.00,0.0053
1512.00,0.0053
1511.00,0.0053
1510.00,0.0053
1509.00,0.0055
1508.00,0.0056
1507.00,0.0058
1506.00,0.0060
1505.00,0.0061
1504.00,0.0063
1503.00,0.0064
1502.00,0.0065
1501.00,0.0067
1500.00,0.0069
1499.00,0.0071
1498.00,0.0073
1497.00,0.0077
1496.00,0.0081
1495.00,0.0085
1494.00,0.0087
1493.00,0.0090
1492.00,0.0094
1491.00,0.0096
1490.00,0.0100
1489.00,0.0105
1488.00,0.0110
1487.00,0.0115
1486.00,0.0120
1485.00,0.0126
1484.00,0.0132
1483.00,0.0139
1482.00,0.0147
1481.00,0.0157
1480.00,0.0169
1479.00,0.0182
1478.00,0.0197
1477.00,0.0218
1476.00,0.0244
1475.00,0.0275
1474.00,0.0317
1473.00,0.0378
1472.00,0.0449
1471.00,0.0517
1470.00,0.0582
1469.00,0.0650
1468.00,0.0723
1467.00,0.0803
1466.00,0.0894
1465.00,0.0992
1464.00,0.1078
1463.00,0.1137
1462.00,0.1172
1461.00,0.1194
1460.00,0.1207
1459.00,0.1213
1458.00,0.1215
1457.00,0.1212
1456.00,0.1201
1455.00,0.1185
1454.00,0.1166
1453.00,0.1142
1452.00,0.1109
1451.00,0.1065
1450.00,0.1009
1449.00,0.0936
1448.00,0.0845
1447.00,0.0752
1446.00,0.0671
1445.00,0.0602
1444.00,0.0544
1443.00,0.0496
1442.00,0.0461
1441.00,0.0437
1440.00,0.0423
1439.00,0.0419
1438.00,0.0422
1437.00,0.0427
1436.00,0.0420
1435.00,0.0398
1434.00,0.0363
1433.00,0.0319
1432.00,0.0273
1431.00,0.0232
1430.00,0.0200
1429.00,0.0177
1428.00,0.0162
1427.00,0.0152
1426.00,0.0146
1425.00,0.0141
1424.00,0.0136
1423.00,0.0133
1422.00,0.0132
1421.00,0.0129
1420.00,0.0126
1419.00,0.0123
1418.00,0.0121
1417.00,0.0118
1416.00,0.0115
1415.00,0.0114
1414.00,0.0113
1413.00,0.0112
1412.00,0.0111
1411.00,0.0110
1410.00,0.0110
1409.00,0.0109
1408.00,0.0108
1407.00,0.0108
1406.00,0.0109
1405.00,0.0109
1404.00,0.0109
1403.00,0.0110
1402.00,0.0111
1401.00,0.0112
1400.00,0.0113
1399.00,0.0115
1398.00,0.0118
1397.00,0.0120
1396.00,0.0122
1395.00,0.0126
1394.00,0.0131
1393.00,0.0136
1392.00,0.0142
1391.00,0.0150
1390.00,0.0160
1389.00,0.0174
1388.00,0.0194
1387.00,0.0225
1386.00,0.0268
1385.00,0.0324
1384.00,0.0402
1383.00,0.0514
1382.00,0.0667
1381.00,0.0867
1380.00,0.1119
1379.00,0.1411
1378.00,0.1701
1377.00,0.1920
1376.00,0.2003
1375.00,0.1910
1374.00,0.1668
1373.00,0.1372
1372.00,0.1101
1371.00,0.0877
1370.00,0.0700
1369.00,0.0566
1368.00,0.0474
1367.00,0.0418
1366.00,0.0387
1365.00,0.0375
1364.00,0.0377
1363.00,0.0391
1362.00,0.0413
1361.00,0.0437
1360.00,0.0456
1359.00,0.0462
1358.00,0.0452
1357.00,0.0425
1356.00,0.0388
1355.00,0.0345
1354.00,0.0305
1353.00,0.0270
1352.00,0.0242
1351.00,0.0219
1350.00,0.0200
1349.00,0.0184
1348.00,0.0172
1347.00,0.0161
1346.00,0.0153
1345.00,0.0145
1344.00,0.0139
1343.00,0.0134
1342.00,0.0129
1341.00,0.0125
1340.00,0.0122
1339.00,0.0119
1338.00,0.0117
1337.00,0.0117
1336.00,0.0117
1335.00,0.0120
1334.00,0.0123
1333.00,0.0127
1332.00,0.0132
1331.00,0.0135
1330.00,0.0137
1329.00,0.0136
1328.00,0.0132
1327.00,0.0127
1326.00,0.0120
1325.00,0.0114
1324.00,0.0108
1323.00,0.0103
1322.00,0.0100
1321.00,0.0096
1320.00,0.0094
1319.00,0.0091
1318.00,0.0090
1317.00,0.0088
1316.00,0.0087
1315.00,0.0087
1314.00,0.0087
1313.00,0.0088
1312.00,0.0088
1311.00,0.0089
1310.00,0.0092
1309.00,0.0096
1308.00,0.0102
1307.00,0.0110
1306.00,0.0118
1305.00,0.0125
1304.00,0.0128
1303.00,0.0127
1302.00,0.0125
1301.00,0.0122
1300.00,0.0122
1299.00,0.0123
1298.00,0.0125
1297.00,0.0125
1296.00,0.0125
1295.00,0.0123
1294.00,0.0120
1293.00,0.0115
1292.00,0.0110
1291.00,0.0105
1290.00,0.0100
1289.00,0.0095
1288.00,0.0092
1287.00,0.0090
1286.00,0.0088
1285.00,0.0086
1284.00,0.0084
1283.00,0.0083
1282.00,0.0081
1281.00,0.0080
1280.00,0.0079
1279.00,0.0078
1278.00,0.0078
1277.00,0.0078
1276.00,0.0078
1275.00,0.0078
1274.00,0.0078
1273.00,0.0078
1272.00,0.0079
1271.00,0.0080
1270.00,0.0081
1269.00,0.0084
1268.00,0.0086
1267.00,0.0090
1266.00,0.0093
1265.00,0.0097
1264.00,0.0099
1263.00,0.0102
1262.00,0.0105
1261.00,0.0108
1260.00,0.0111
1259.00,0.0115
1258.00,0.0119
1257.00,0.0122
1256.00,0.0122
1255.00,0.0119
1254.00,0.0114
1253.00,0.0108
1252.00,0.0103
1251.00,0.0098
1250.00,0.0094
1249.00,0.0091
1248.00,0.0088
1247.00,0.0086
1246.00,0.0084
1245.00,0.0082
1244.00,0.0081
1243.00,0.0080
1242.00,0.0079
1241.00,0.0078
1240.00,0.0077
1239.00,0.0076
1238.00,0.0075
1237.00,0.0074
1236.00,0.0074
1235.00,0.0074
1234.00,0.0074
1233.00,0.0075
1232.00,0.0075
1231.00,0.0076
1230.00,0.0076
1229.00,0.0077
1228.00,0.0079
1227.00,0.0080
1226.00,0.0083
1225.00,0.0086
1224.00,0.0089
1223.00,0.0092
1222.00,0.0095
1221.00,0.0098
1220.00,0.0100
1219.00,0.0100
1218.00,0.0099
1217.00,0.0097
1216.00,0.0094
1215.00,0.0091
1214.00,0.0088
1213.00,0.0085
1212.00,0.0083
1211.00,0.0080
1210.00,0.0078
1209.00,0.0077
1208.00,0.0076
1207.00,0.0075
1206.00,0.0074
1205.00,0.0073
1204.00,0.0073
1203.00,0.0072
1202.00,0.0071
1201.00,0.0071
1200.00,0.0070
1199.00,0.0070
1198.00,0.0070
1197.00,0.0070
1196.00,0.0070
1195.00,0.0071
1194.00,0.0071
1193.00,0.0072
1192.00,0.0072
1191.00,0.0071
1190.00,0.0071
1189.00,0.0071
1188.00,0.0071
1187.00,0.0071
1186.00,0.0071
1185.00,0.0071
1184.00,0.0072
1183.00,0.0073
1182.00,0.0075
1181.00,0.0077
1180.00,0.0080
1179.00,0.0083
1178.00,0.0088
1177.00,0.0094
1176.00,0.0103
1175.00,0.0114
1174.00,0.0130
1173.00,0.0148
1172.00,0.0169
1171.00,0.0191
1170.00,0.0212
1169.00,0.0230
1168.00,0.0242
1167.00,0.0246
1166.00,0.0243
1165.00,0.0236
1164.00,0.0226
1163.00,0.0216
1162.00,0.0208
1161.00,0.0201
1160.00,0.0197
1159.00,0.0194
1158.00,0.0192
1157.00,0.0191
1156.00,0.0191
1155.00,0.0192
1154.00,0.0192
1153.00,0.0191
1152.00,0.0188
1151.00,0.0183
1150.00,0.0175
1149.00,0.0166
1148.00,0.0156
1147.00,0.0147
1146.00,0.0139
1145.00,0.0131
1144.00,0.0124
1143.00,0.0118
1142.00,0.0112
1141.00,0.0107
1140.00,0.0102
1139.00,0.0098
1138.00,0.0095
1137.00,0.0092
1136.00,0.0089
1135.00,0.0088
1134.00,0.0087
1133.00,0.0086
1132.00,0.0086
1131.00,0.0085
1130.00,0.0085
1129.00,0.0085
1128.00,0.0085
1127.00,0.0086
1126.00,0.0087
1125.00,0.0088
1124.00,0.0088
1123.00,0.0089
1122.00,0.0091
1121.00,0.0092
1120.00,0.0093
1119.00,0.0093
1118.00,0.0094
1117.00,0.0094
1116.00,0.0096
1115.00,0.0097
1114.00,0.0099
1113.00,0.0101
1112.00,0.0103
1111.00,0.0105
1110.00,0.0108
1109.00,0.0113
1108.00,0.0119
1107.00,0.0125
1106.00,0.0132
1105.00,0.0138
1104.00,0.0143
1103.00,0.0146
1102.00,0.0145
1101.00,0.0141
1100.00,0.0135
1099.00,0.0128
1098.00,0.0121
1097.00,0.0116
1096.00,0.0112
1095.00,0.0109
1094.00,0.0107
1093.00,0.0104
1092.00,0.0101
1091.00,0.0099
1090.00,0.0098
1089.00,0.0097
1088.00,0.0096
1087.00,0.0095
1086.00,0.0095
1085.00,0.0094
1084.00,0.0094
1083.00,0.0094
1082.00,0.0094
1081.00,0.0094
1080.00,0.0093
1079.00,0.0092
1078.00,0.0089
1077.00,0.0087
1076.00,0.0086
1075.00,0.0085
1074.00,0.0085
1073.00,0.0085
1072.00,0.0085
1071.00,0.0084
1070.00,0.0083
1069.00,0.0082
1068.00,0.0081
1067.00,0.0081
1066.00,0.0081
1065.00,0.0082
1064.00,0.0082
1063.00,0.0081
1062.00,0.0081
1061.00,0.0081
1060.00,0.0081
1059.00,0.0081
1058.00,0.0081
1057.00,0.0080
1056.00,0.0080
1055.00,0.0079
1054.00,0.0080
1053.00,0.0081
1052.00,0.0082
1051.00,0.0083
1050.00,0.0085
1049.00,0.0087
1048.00,0.0089
1047.00,0.0091
1046.00,0.0093
1045.00,0.0093
1044.00,0.0094
1043.00,0.0094
1042.00,0.0093
1041.00,0.0092
1040.00,0.0091
1039.00,0.0091
1038.00,0.0091
1037.00,0.0092
1036.00,0.0091
1035.00,0.0091
1034.00,0.0090
1033.00,0.0088
1032.00,0.0087
1031.00,0.0086
1030.00,0.0086
1029.00,0.0085
1028.00,0.0084
1027.00,0.0084
1026.00,0.0084
1025.00,0.0084
1024.00,0.0084
1023.00,0.0084
1022.00,0.0084
1021.00,0.0084
1020.00,0.0085
1019.00,0.0085
1018.00,0.0086
1017.00,0.0087
1016.00,0.0089
1015.00,0.0090
1014.00,0.0091
1013.00,0.0092
1012.00,0.0093
1011.00,0.0094
1010.00,0.0095
1009.00,0.0097
1008.00,0.0101
1007.00,0.0105
1006.00,0.0111
1005.00,0.0119
1004.00,0.0130
1003.00,0.0146
1002.00,0.0167
1001.00,0.0192
1000.00,0.0217
999.00,0.0238
998.00,0.0247
997.00,0.0241
996.00,0.0221
995.00,0.0194
994.00,0.0166
993.00,0.0143
992.00,0.0125
991.00,0.0114
990.00,0.0107
989.00,0.0102
988.00,0.0098
987.00,0.0096
986.00,0.0095
985.00,0.0096
984.00,0.0099
983.00,0.0106
982.00,0.0116
981.00,0.0131
980.00,0.0151
979.00,0.0176
978.00,0.0206
977.00,0.0240
976.00,0.0275
975.00,0.0306
974.00,0.0326
973.00,0.0330
972.00,0.0315
971.00,0.0284
970.00,0.0247
969.00,0.0211
968.00,0.0180
967.00,0.0157
966.00,0.0140
965.00,0.0127
964.00,0.0118
963.00,0.0110
962.00,0.0105
961.00,0.0101
960.00,0.0098
959.00,0.0095
958.00,0.0093
957.00,0.0091
956.00,0.0088
955.00,0.0085
954.00,0.0082
953.00,0.0081
952.00,0.0080
951.00,0.0080
950.00,0.0080
949.00,0.0080
948.00,0.0080
947.00,0.0080
946.00,0.0082
945.00,0.0085
944.00,0.0089
943.00,0.0092
942.00,0.0096
941.00,0.0097
940.00,0.0097
939.00,0.0094
938.00,0.0089
937.00,0.0084
936.00,0.0079
935.00,0.0075
934.00,0.0072
933.00,0.0070
932.00,0.0069
931.00,0.0068
930.00,0.0066
929.00,0.0065
928.00,0.0063
927.00,0.0062
926.00,0.0061
925.00,0.0060
924.00,0.0059
923.00,0.0059
922.00,0.0058
921.00,0.0058
920.00,0.0059
919.00,0.0060
918.00,0.0062
917.00,0.0063
916.00,0.0064
915.00,0.0065
914.00,0.0066
913.00,0.0067
912.00,0.0070
911.00,0.0073
910.00,0.0075
909.00,0.0077
908.00,0.0079
907.00,0.0083
906.00,0.0091
905.00,0.0102
904.00,0.0117
903.00,0.0135
902.00,0.0156
901.00,0.0175
900.00,0.0188
899.00,0.0190
898.00,0.0181
897.00,0.0165
896.00,0.0145
895.00,0.0127
894.00,0.0111
893.00,0.0098
892.00,0.0089
891.00,0.0083
890.00,0.0080
889.00,0.0077
888.00,0.0076
887.00,0.0074
886.00,0.0072
885.00,0.0071
884.00,0.0071
883.00,0.0071
882.00,0.0072
881.00,0.0072
880.00,0.0072
879.00,0.0071
878.00,0.0071
877.00,0.0072
876.00,0.0072
875.00,0.0073
874.00,0.0073
873.00,0.0073
872.00,0.0074
871.00,0.0076
870.00,0.0077
869.00,0.0077
868.00,0.0078
867.00,0.0078
866.00,0.0079
865.00,0.0079
864.00,0.0080
863.00,0.0080
862.00,0.0080
861.00,0.0079
860.00,0.0080
859.00,0.0081
858.00,0.0084
857.00,0.0086
856.00,0.0087
855.00,0.0087
854.00,0.0088
853.00,0.0090
852.00,0.0092
851.00,0.0095
850.00,0.0098
849.00,0.0103
848.00,0.0109
847.00,0.0118
846.00,0.0132
845.00,0.0153
844.00,0.0183
843.00,0.0217
842.00,0.0243
841.00,0.0249
840.00,0.0233
839.00,0.0202
838.00,0.0169
837.00,0.0144
836.00,0.0127
835.00,0.0117
834.00,0.0111
833.00,0.0108
832.00,0.0106
831.00,0.0105
830.00,0.0104
829.00,0.0104
828.00,0.0104
827.00,0.0104
826.00,0.0103
825.00,0.0103
824.00,0.0104
823.00,0.0105
822.00,0.0107
821.00,0.0110
820.00,0.0114
819.00,0.0118
818.00,0.0124
817.00,0.0130
816.00,0.0138
815.00,0.0148
814.00,0.0163
813.00,0.0182
812.00,0.0204
811.00,0.0225
810.00,0.0240
809.00,0.0247
808.00,0.0245
807.00,0.0233
806.00,0.0214
805.00,0.0192
804.00,0.0172
803.00,0.0155
802.00,0.0143
801.00,0.0134
800.00,0.0128
799.00,0.0123
798.00,0.0118
797.00,0.0113
796.00,0.0109
795.00,0.0106
794.00,0.0102
793.00,0.0098
792.00,0.0094
791.00,0.0089
790.00,0.0086
789.00,0.0082
788.00,0.0080
787.00,0.0077
786.00,0.0075
785.00,0.0073
784.00,0.0072
783.00,0.0071
782.00,0.0070
781.00,0.0068
780.00,0.0066
779.00,0.0065
778.00,0.0065
777.00,0.0066
776.00,0.0066
775.00,0.0066
774.00,0.0066
773.00,0.0067
772.00,0.0067
771.00,0.0068
770.00,0.0069
769.00,0.0069
768.00,0.0068
767.00,0.0067
766.00,0.0066
765.00,0.0066
764.00,0.0066
763.00,0.0066
762.00,0.0067
761.00,0.0067
760.00,0.0067
759.00,0.0067
758.00,0.0067
757.00,0.0069
756.00,0.0070
755.00,0.0072
754.00,0.0073
753.00,0.0074
752.00,0.0076
751.00,0.0079
750.00,0.0082
749.00,0.0084
748.00,0.0085
747.00,0.0086
746.00,0.0087
745.00,0.0087
744.00,0.0088
743.00,0.0089
742.00,0.0092
741.00,0.0095
740.00,0.0098
739.00,0.0100
738.00,0.0104
737.00,0.0107
736.00,0.0111
735.00,0.0115
734.00,0.0120
733.00,0.0127
732.00,0.0137
731.00,0.0146
730.00,0.0153
729.00,0.0158
728.00,0.0160
727.00,0.0161
726.00,0.0161
725.00,0.0164
724.00,0.0170
723.00,0.0179
722.00,0.0188
721.00,0.0192
720.00,0.0190
719.00,0.0180
718.00,0.0165
717.00,0.0151
716.00,0.0139
715.00,0.0129
714.00,0.0122
713.00,0.0117
712.00,0.0112
711.00,0.0109
710.00,0.0108
709.00,0.0107
708.00,0.0107
707.00,0.0108
706.00,0.0109
705.00,0.0110
704.00,0.0110
703.00,0.0107
702.00,0.0103
701.00,0.0100
700.00,0.0096
699.00,0.0095
698.00,0.0094
697.00,0.0094
696.00,0.0094
695.00,0.0095
694.00,0.0095
693.00,0.0095
692.00,0.0093
691.00,0.0091
690.00,0.0089
689.00,0.0088
688.00,0.0088
687.00,0.0089
686.00,0.0092
685.00,0.0094
684.00,0.0096
683.00,0.0096
682.00,0.0094
681.00,0.0092
680.00,0.0091
679.00,0.0091
678.00,0.0092
677.00,0.0093
676.00,0.0094
675.00,0.0093
674.00,0.0093
673.00,0.0093
672.00,0.0093
671.00,0.0093
670.00,0.0092
669.00,0.0091
668.00,0.0093
667.00,0.0096
666.00,0.0098
665.00,0.0098
664.00,0.0097
663.00,0.0096
662.00,0.0095
661.00,0.0094
660.00,0.0093
659.00,0.0092
658.00,0.0090
657.00,0.0088
656.00,0.0088
655.00,0.0090
654.00,0.0093
653.00,0.0096
652.00,0.0098
651.00,0.0097
650.00,0.0095
649.00,0.0092
648.00,0.0090
647.00,0.0089
646.00,0.0088
645.00,0.0088
644.00,0.0088
643.00,0.0088
642.00,0.0087
641.00,0.0085
640.00,0.0084
639.00,0.0084
638.00,0.0084
637.00,0.0084
636.00,0.0084
635.00,0.0082
634.00,0.0081
633.00,0.0080
632.00,0.0082
631.00,0.0085
630.00,0.0087
629.00,0.0088
628.00,0.0086
627.00,0.0084
626.00,0.0083
625.00,0.0083
624.00,0.0084
623.00,0.0085
622.00,0.0085
621.00,0.0085
620.00,0.0084
619.00,0.0081
618.00,0.0079
617.00,0.0078
616.00,0.0078
615.00,0.0078
614.00,0.0080
613.00,0.0080
612.00,0.0080
611.00,0.0080
610.00,0.0080
609.00,0.0078
608.00,0.0076
607.00,0.0074
606.00,0.0073
605.00,0.0075
604.00,0.0078
603.00,0.0079
602.00,0.0079
601.00,0.0079
600.00,0.0080
599.00,0.0081
598.00,0.0081
597.00,0.0081
596.00,0.0080
595.00,0.0078
594.00,0.0077
593.00,0.0076
592.00,0.0076
591.00,0.0076
590.00,0.0076
589.00,0.0077
588.00,0.0079
587.00,0.0079
586.00,0.0078
585.00,0.0076
584.00,0.0074
583.00,0.0074
582.00,0.0077
581.00,0.0081
580.00,0.0085
579.00,0.0087
578.00,0.0085
577.00,0.0081
576.00,0.0078
575.00,0.0076
574.00,0.0076
573.00,0.0077
572.00,0.0078
571.00,0.0080
570.00,0.0081
569.00,0.0081
568.00,0.0081
567.00,0.0079
566.00,0.0076
565.00,0.0075
564.00,0.0077
563.00,0.0081
562.00,0.0084
561.00,0.0087
560.00,0.0088
559.00,0.0089
558.00,0.0088
557.00,0.0084
556.00,0.0080
555.00,0.0079
554.00,0.0081
553.00,0.0084
552.00,0.0084
551.00,0.0082
550.00,0.0080
549.00,0.0080
548.00,0.0081
547.00,0.0081
546.00,0.0081
545.00,0.0083
544.00,0.0086
543.00,0.0090
542.00,0.0089
541.00,0.0085
540.00,0.0080
539.00,0.0077
538.00,0.0076
537.00,0.0078
536.00,0.0081
535.00,0.0083
534.00,0.0084
533.00,0.0082
532.00,0.0081
531.00,0.0081
530.00,0.0084
529.00,0.0091
528.00,0.0100
527.00,0.0107
526.00,0.0108
525.00,0.0101
524.00,0.0090
523.00,0.0081
522.00,0.0079
521.00,0.0080
520.00,0.0082
519.00,0.0082
518.00,0.0081
517.00,0.0080
516.00,0.0076
515.00,0.0070
514.00,0.0062
513.00,0.0056
512.00,0.0056
511.00,0.0060
510.00,0.0065
509.00,0.0069
508.00,0.0072
507.00,0.0072
506.00,0.0071
505.00,0.0070
504.00,0.0070
503.00,0.0069
502.00,0.0066
501.00,0.0064
500.00,0.0066
499.00,0.0070
498.00,0.0073
497.00,0.0072
496.00,0.0070
495.00,0.0069
494.00,0.0072
493.00,0.0077
492.00,0.0079
491.00,0.0076
490.00,0.0067
489.00,0.0061
488.00,0.0061
487.00,0.0064
486.00,0.0066
485.00,0.0066
484.00,0.0065
483.00,0.0067
482.00,0.0067
481.00,0.0063
480.00,0.0054
479.00,0.0047
478.00,0.0041
477.00,0.0037
476.00,0.0035
475.00,0.0037
474.00,0.0041
473.00,0.0047
472.00,0.0054
471.00,0.0064
470.00,0.0075
469.00,0.0081
468.00,0.0081
467.00,0.0081
466.00,0.0084
465.00,0.0087
464.00,0.0090
463.00,0.0097
462.00,0.0115
461.00,0.0141
460.00,0.0163
459.00,0.0166
458.00,0.0151
457.00,0.0133
456.00,0.0125
455.00,0.0125
454.00,0.0126
453.00,0.0126
452.00,0.0130
451.00,0.0134
450.00,0.0136
