Created as New Dataset,Sample 020 By Administrator Date Thursday, September 04 2025
cm-1,A
4000.00,0.0007
3999.00,0.0007
3998.00,0.0008
3997.00,0.0008
3996.00,0.0008
3995.00,0.0008
3994.00,0.0008
3993.00,0.0008
3992.00,0.0008
3991.00,0.0008
3990.00,0.0008
3989.00,0.0007
3988.00,0.0007
3987.00,0.0007
3986.00,0.0007
3985.00,0.0007
3984.00,0.0007
3983.00,0.0007
3982.00,0.0007
3981.00,0.0007
3980.00,0.0007
3979.00,0.0008
3978.00,0.0008
3977.00,0.0008
3976.00,0.0008
3975.00,0.0008
3974.00,0.0007
3973.00,0.0007
3972.00,0.0007
3971.00,0.0006
3970.00,0.0006
3969.00,0.0006
3968.00,0.0006
3967.00,0.0006
3966.00,0.0006
3965.00,0.0006
3964.00,0.0006
3963.00,0.0006
3962.00,0.0006
3961.00,0.0007
3960.00,0.0007
3959.00,0.0007
3958.00,0.0007
3957.00,0.0007
3956.00,0.0007
3955.00,0.0007
3954.00,0.0007
3953.00,0.0007
3952.00,0.0007
3951.00,0.0007
3950.00,0.0007
3949.00,0.0007
3948.00,0.0007
3947.00,0.0007
3946.00,0.0007
3945.00,0.0007
3944.00,0.0007
3943.00,0.0007
3942.00,0.0007
3941.00,0.0007
3940.00,0.0007
3939.00,0.0007
3938.00,0.0007
3937.00,0.0007
3936.00,0.0007
3935.00,0.0006
3934.00,0.0006
3933.00,0.0006
3932.00,0.0006
3931.00,0.0006
3930.00,0.0006
3929.00,0.0006
3928.00,0.0007
3927.00,0.0007
3926.00,0.0007
3925.00,0.0008
3924.00,0.0007
3923.00,0.0007
3922.00,0.0007
3921.00,0.0007
3920.00,0.0006
3919.00,0.0006
3918.00,0.0006
3917.00,0.0005
3916.00,0.0005
3915.00,0.0005
3914.00,0.0005
3913.00,0.0006
3912.00,0.0006
3911.00,0.0006
3910.00,0.0006
3909.00,0.0006
3908.00,0.0006
3907.00,0.0006
3906.00,0.0006
3905.00,0.0005
3904.00,0.0005
3903.00,0.0005
3902.00,0.0005
3901.00,0.0005
3900.00,0.0006
3899.00,0.0006
3898.00,0.0006
3897.00,0.0006
3896.00,0.0006
3895.00,0.0006
3894.00,0.0006
3893.00,0.0006
3892.00,0.0006
3891.00,0.0006
3890.00,0.0006
3889.00,0.0005
3888.00,0.0005
3887.00,0.0005
3886.00,0.0005
3885.00,0.0004
3884.00,0.0004
3883.00,0.0004
3882.00,0.0004
3881.00,0.0005
3880.00,0.0005
3879.00,0.0005
3878.00,0.0006
3877.00,0.0006
3876.00,0.0007
3875.00,0.0007
3874.00,0.0006
3873.00,0.0005
3872.00,0.0005
3871.00,0.0004
3870.00,0.0004
3869.00,0.0004
3868.00,0.0004
3867.00,0.0004
3866.00,0.0004
3865.00,0.0004
3864.00,0.0004
3863.00,0.0004
3862.00,0.0004
3861.00,0.0005
3860.00,0.0005
3859.00,0.0005
3858.00,0.0006
3857.00,0.0006
3856.00,0.0006
3855.00,0.0005
3854.00,0.0005
3853.00,0.0004
3852.00,0.0004
3851.00,0.0004
3850.00,0.0004
3849.00,0.0004
3848.00,0.0004
3847.00,0.0004
3846.00,0.0004
3845.00,0.0004
3844.00,0.0005
3843.00,0.0005
3842.00,0.0005
3841.00,0.0005
3840.00,0.0004
3839.00,0.0004
3838.00,0.0004
3837.00,0.0004
3836.00,0.0004
3835.00,0.0004
3834.00,0.0004
3833.00,0.0004
3832.00,0.0004
3831.00,0.0004
3830.00,0.0004
3829.00,0.0004
3828.00,0.0004
3827.00,0.0005
3826.00,0.0005
3825.00,0.0005
3824.00,0.0005
3823.00,0.0005
3822.00,0.0005
3821.00,0.0005
3820.00,0.0005
3819.00,0.0004
3818.00,0.0004
3817.00,0.0004
3816.00,0.0004
3815.00,0.0005
3814.00,0.0005
3813.00,0.0005
3812.00,0.0005
3811.00,0.0005
3810.00,0.0005
3809.00,0.0006
3808.00,0.0006
3807.00,0.0006
3806.00,0.0005
3805.00,0.0005
3804.00,0.0005
3803.00,0.0004
3802.00,0.0004
3801.00,0.0004
3800.00,0.0004
3799.00,0.0004
3798.00,0.0004
3797.00,0.0005
3796.00,0.0005
3795.00,0.0005
3794.00,0.0005
3793.00,0.0005
3792.00,0.0006
3791.00,0.0006
3790.00,0.0006
3789.00,0.0005
3788.00,0.0005
3787.00,0.0005
3786.00,0.0006
3785.00,0.0006
3784.00,0.0006
3783.00,0.0006
3782.00,0.0006
3781.00,0.0006
3780.00,0.0005
3779.00,0.0005
3778.00,0.0005
3777.00,0.0005
3776.00,0.0005
3775.00,0.0005
3774.00,0.0005
3773.00,0.0005
3772.00,0.0005
3771.00,0.0005
3770.00,0.0005
3769.00,0.0005
3768.00,0.0005
3767.00,0.0005
3766.00,0.0005
3765.00,0.0005
3764.00,0.0005
3763.00,0.0005
3762.00,0.0005
3761.00,0.0006
3760.00,0.0006
3759.00,0.0005
3758.00,0.0005
3757.00,0.0005
3756.00,0.0005
3755.00,0.0005
3754.00,0.0005
3753.00,0.0005
3752.00,0.0005
3751.00,0.0004
3750.00,0.0004
3749.00,0.0004
3748.00,0.0004
3747.00,0.0003
3746.00,0.0003
3745.00,0.0003
3744.00,0.0003
3743.00,0.0003
3742.00,0.0003
3741.00,0.0004
3740.00,0.0004
3739.00,0.0003
3738.00,0.0003
3737.00,0.0002
3736.00,0.0002
3735.00,0.0002
3734.00,0.0002
3733.00,0.0002
3732.00,0.0002
3731.00,0.0003
3730.00,0.0003
3729.00,0.0003
3728.00,0.0004
3727.00,0.0004
3726.00,0.0004
3725.00,0.0004
3724.00,0.0005
3723.00,0.0005
3722.00,0.0005
3721.00,0.0005
3720.00,0.0005
3719.00,0.0005
3718.00,0.0005
3717.00,0.0005
3716.00,0.0005
3715.00,0.0004
3714.00,0.0004
3713.00,0.0004
3712.00,0.0003
3711.00,0.0003
3710.00,0.0003
3709.00,0.0003
3708.00,0.0003
3707.00,0.0003
3706.00,0.0003
3705.00,0.0004
3704.00,0.0004
3703.00,0.0004
3702.00,0.0005
3701.00,0.0005
3700.00,0.0005
3699.00,0.0005
3698.00,0.0005
3697.00,0.0005
3696.00,0.0005
3695.00,0.0005
3694.00,0.0005
3693.00,0.0005
3692.00,0.0005
3691.00,0.0005
3690.00,0.0005
3689.00,0.0005
3688.00,0.0005
3687.00,0.0004
3686.00,0.0004
3685.00,0.0004
3684.00,0.0005
3683.00,0.0005
3682.00,0.0005
3681.00,0.0005
3680.00,0.0005
3679.00,0.0005
3678.00,0.0004
3677.00,0.0004
3676.00,0.0004
3675.00,0.0004
3674.00,0.0004
3673.00,0.0004
3672.00,0.0004
3671.00,0.0003
3670.00,0.0003
3669.00,0.0003
3668.00,0.0004
3667.00,0.0005
3666.00,0.0005
3665.00,0.0005
3664.00,0.0006
3663.00,0.0006
3662.00,0.0006
3661.00,0.0005
3660.00,0.0005
3659.00,0.0005
3658.00,0.0005
3657.00,0.0005
3656.00,0.0006
3655.00,0.0006
3654.00,0.0006
3653.00,0.0006
3652.00,0.0005
3651.00,0.0005
3650.00,0.0006
3649.00,0.0006
3648.00,0.0006
3647.00,0.0006
3646.00,0.0006
3645.00,0.0006
3644.00,0.0006
3643.00,0.0007
3642.00,0.0007
3641.00,0.0007
3640.00,0.0007
3639.00,0.0007
3638.00,0.0007
3637.00,0.0007
3636.00,0.0006
3635.00,0.0006
3634.00,0.0006
3633.00,0.0006
3632.00,0.0006
3631.00,0.0006
3630.00,0.0006
3629.00,0.0007
3628.00,0.0007
3627.00,0.0007
3626.00,0.0007
3625.00,0.0007
3624.00,0.0007
3623.00,0.0008
3622.00,0.0008
3621.00,0.0008
3620.00,0.0008
3619.00,0.0008
3618.00,0.0008
3617.00,0.0008
3616.00,0.0008
3615.00,0.0008
3614.00,0.0008
3613.00,0.0008
3612.00,0.0008
3611.00,0.0008
3610.00,0.0009
3609.00,0.0010
3608.00,0.0010
3607.00,0.0011
3606.00,0.0011
3605.00,0.0011
3604.00,0.0010
3603.00,0.0010
3602.00,0.0010
3601.00,0.0011
3600.00,0.0011
3599.00,0.0011
3598.00,0.0010
3597.00,0.0010
3596.00,0.0011
3595.00,0.0011
3594.00,0.0012
3593.00,0.0012
3592.00,0.0012
3591.00,0.0012
3590.00,0.0012
3589.00,0.0013
3588.00,0.0013
3587.00,0.0014
3586.00,0.0014
3585.00,0.0014
3584.00,0.0014
3583.00,0.0014
3582.00,0.0015
3581.00,0.0015
3580.00,0.0015
3579.00,0.0015
3578.00,0.0015
3577.00,0.0015
3576.00,0.0015
3575.00,0.0015
3574.00,0.0016
3573.00,0.0016
3572.00,0.0017
3571.00,0.0017
3570.00,0.0017
3569.00,0.0018
3568.00,0.0018
3567.00,0.0019
3566.00,0.0019
3565.00,0.0019
3564.00,0.0019
3563.00,0.0019
3562.00,0.0019
3561.00,0.0020
3560.00,0.0020
3559.00,0.0020
3558.00,0.0020
3557.00,0.0021
3556.00,0.0021
3555.00,0.0022
3554.00,0.0022
3553.00,0.0022
3552.00,0.0023
3551.00,0.0023
3550.00,0.0023
3549.00,0.0023
3548.00,0.0023
3547.00,0.0022
3546.00,0.0022
3545.00,0.0022
3544.00,0.0023
3543.00,0.0024
3542.00,0.0024
3541.00,0.0025
3540.00,0.0025
3539.00,0.0025
3538.00,0.0025
3537.00,0.0026
3536.00,0.0026
3535.00,0.0027
3534.00,0.0027
3533.00,0.0027
3532.00,0.0027
3531.00,0.0027
3530.00,0.0027
3529.00,0.0027
3528.00,0.0028
3527.00,0.0028
3526.00,0.0029
3525.00,0.0029
3524.00,0.0029
3523.00,0.0030
3522.00,0.0030
3521.00,0.0030
3520.00,0.0030
3519.00,0.0030
3518.00,0.0031
3517.00,0.0031
3516.00,0.0032
3515.00,0.0032
3514.00,0.0033
3513.00,0.0034
3512.00,0.0034
3511.00,0.0035
3510.00,0.0035
3509.00,0.0035
3508.00,0.0035
3507.00,0.0036
3506.00,0.0036
3505.00,0.0036
3504.00,0.0036
3503.00,0.0036
3502.00,0.0037
3501.00,0.0037
3500.00,0.0037
3499.00,0.0038
3498.00,0.0038
3497.00,0.0038
3496.00,0.0038
3495.00,0.0039
3494.00,0.0040
3493.00,0.0040
3492.00,0.0041
3491.00,0.0041
3490.00,0.0041
3489.00,0.0041
3488.00,0.0042
3487.00,0.0042
3486.00,0.0042
3485.00,0.0043
3484.00,0.0043
3483.00,0.0043
3482.00,0.0044
3481.00,0.0043
3480.00,0.0043
3479.00,0.0043
3478.00,0.0043
3477.00,0.0043
3476.00,0.0044
3475.00,0.0044
3474.00,0.0045
3473.00,0.0045
3472.00,0.0045
3471.00,0.0045
3470.00,0.0045
3469.00,0.0045
3468.00,0.0046
3467.00,0.0047
3466.00,0.0048
3465.00,0.0048
3464.00,0.0048
3463.00,0.0048
3462.00,0.0048
3461.00,0.0049
3460.00,0.0049
3459.00,0.0049
3458.00,0.0049
3457.00,0.0050
3456.00,0.0050
3455.00,0.0050
3454.00,0.0050
3453.00,0.0051
3452.00,0.0051
3451.00,0.0051
3450.00,0.0051
3449.00,0.0052
3448.00,0.0052
3447.00,0.0052
3446.00,0.0053
3445.00,0.0053
3444.00,0.0053
3443.00,0.0054
3442.00,0.0054
3441.00,0.0054
3440.00,0.0054
3439.00,0.0054
3438.00,0.0055
3437.00,0.0055
3436.00,0.0055
3435.00,0.0056
3434.00,0.0056
3433.00,0.0056
3432.00,0.0057
3431.00,0.0057
3430.00,0.0057
3429.00,0.0058
3428.00,0.0058
3427.00,0.0058
3426.00,0.0059
3425.00,0.0059
3424.00,0.0059
3423.00,0.0059
3422.00,0.0059
3421.00,0.0059
3420.00,0.0058
3419.00,0.0058
3418.00,0.0058
3417.00,0.0058
3416.00,0.0059
3415.00,0.0059
3414.00,0.0060
3413.00,0.0061
3412.00,0.0061
3411.00,0.0061
3410.00,0.0061
3409.00,0.0061
3408.00,0.0061
3407.00,0.0061
3406.00,0.0061
3405.00,0.0062
3404.00,0.0062
3403.00,0.0062
3402.00,0.0062
3401.00,0.0061
3400.00,0.0062
3399.00,0.0062
3398.00,0.0062
3397.00,0.0062
3396.00,0.0062
3395.00,0.0062
3394.00,0.0062
3393.00,0.0062
3392.00,0.0062
3391.00,0.0063
3390.00,0.0063
3389.00,0.0062
3388.00,0.0062
3387.00,0.0062
3386.00,0.0062
3385.00,0.0063
3384.00,0.0063
3383.00,0.0063
3382.00,0.0064
3381.00,0.0064
3380.00,0.0064
3379.00,0.0064
3378.00,0.0064
3377.00,0.0064
3376.00,0.0064
3375.00,0.0064
3374.00,0.0064
3373.00,0.0064
3372.00,0.0064
3371.00,0.0064
3370.00,0.0064
3369.00,0.0064
3368.00,0.0064
3367.00,0.0065
3366.00,0.0065
3365.00,0.0065
3364.00,0.0066
3363.00,0.0066
3362.00,0.0066
3361.00,0.0065
3360.00,0.0065
3359.00,0.0065
3358.00,0.0066
3357.00,0.0066
3356.00,0.0066
3355.00,0.0066
3354.00,0.0066
3353.00,0.0066
3352.00,0.0066
3351.00,0.0066
3350.00,0.0066
3349.00,0.0065
3348.00,0.0065
3347.00,0.0065
3346.00,0.0065
3345.00,0.0065
3344.00,0.0065
3343.00,0.0066
3342.00,0.0066
3341.00,0.0065
3340.00,0.0065
3339.00,0.0065
3338.00,0.0066
3337.00,0.0066
3336.00,0.0066
3335.00,0.0065
3334.00,0.0065
3333.00,0.0064
3332.00,0.0064
3331.00,0.0064
3330.00,0.0064
3329.00,0.0064
3328.00,0.0064
3327.00,0.0064
3326.00,0.0064
3325.00,0.0064
3324.00,0.0064
3323.00,0.0064
3322.00,0.0063
3321.00,0.0063
3320.00,0.0063
3319.00,0.0063
3318.00,0.0063
3317.00,0.0063
3316.00,0.0063
3315.00,0.0064
3314.00,0.0064
3313.00,0.0064
3312.00,0.0063
3311.00,0.0063
3310.00,0.0063
3309.00,0.0063
3308.00,0.0063
3307.00,0.0063
3306.00,0.0063
3305.00,0.0063
3304.00,0.0063
3303.00,0.0064
3302.00,0.0064
3301.00,0.0064
3300.00,0.0064
3299.00,0.0063
3298.00,0.0062
3297.00,0.0062
3296.00,0.0061
3295.00,0.0061
3294.00,0.0061
3293.00,0.0061
3292.00,0.0060
3291.00,0.0060
3290.00,0.0060
3289.00,0.0060
3288.00,0.0060
3287.00,0.0060
3286.00,0.0060
3285.00,0.0059
3284.00,0.0059
3283.00,0.0058
3282.00,0.0058
3281.00,0.0058
3280.00,0.0058
3279.00,0.0058
3278.00,0.0058
3277.00,0.0058
3276.00,0.0058
3275.00,0.0058
3274.00,0.0058
3273.00,0.0058
3272.00,0.0058
3271.00,0.0058
3270.00,0.0058
3269.00,0.0057
3268.00,0.0056
3267.00,0.0056
3266.00,0.0055
3265.00,0.0055
3264.00,0.0056
3263.00,0.0056
3262.00,0.0056
3261.00,0.0056
3260.00,0.0055
3259.00,0.0054
3258.00,0.0053
3257.00,0.0053
3256.00,0.0053
3255.00,0.0053
3254.00,0.0053
3253.00,0.0053
3252.00,0.0053
3251.00,0.0052
3250.00,0.0052
3249.00,0.0052
3248.00,0.0052
3247.00,0.0052
3246.00,0.0052
3245.00,0.0052
3244.00,0.0051
3243.00,0.0051
3242.00,0.0051
3241.00,0.0052
3240.00,0.0052
3239.00,0.0052
3238.00,0.0052
3237.00,0.0051
3236.00,0.0051
3235.00,0.0051
3234.00,0.0051
3233.00,0.0050
3232.00,0.0050
3231.00,0.0050
3230.00,0.0051
3229.00,0.0052
3228.00,0.0052
3227.00,0.0053
3226.00,0.0053
3225.00,0.0053
3224.00,0.0053
3223.00,0.0052
3222.00,0.0052
3221.00,0.0052
3220.00,0.0052
3219.00,0.0053
3218.00,0.0053
3217.00,0.0053
3216.00,0.0053
3215.00,0.0053
3214.00,0.0054
3213.00,0.0054
3212.00,0.0054
3211.00,0.0054
3210.00,0.0054
3209.00,0.0054
3208.00,0.0053
3207.00,0.0054
3206.00,0.0054
3205.00,0.0054
3204.00,0.0054
3203.00,0.0054
3202.00,0.0054
3201.00,0.0054
3200.00,0.0053
3199.00,0.0053
3198.00,0.0054
3197.00,0.0054
3196.00,0.0054
3195.00,0.0054
3194.00,0.0054
3193.00,0.0054
3192.00,0.0053
3191.00,0.0053
3190.00,0.0052
3189.00,0.0052
3188.00,0.0052
3187.00,0.0052
3186.00,0.0052
3185.00,0.0052
3184.00,0.0052
3183.00,0.0052
3182.00,0.0051
3181.00,0.0051
3180.00,0.0051
3179.00,0.0051
3178.00,0.0051
3177.00,0.0051
3176.00,0.0051
3175.00,0.0050
3174.00,0.0050
3173.00,0.0050
3172.00,0.0049
3171.00,0.0049
3170.00,0.0048
3169.00,0.0048
3168.00,0.0048
3167.00,0.0047
3166.00,0.0047
3165.00,0.0047
3164.00,0.0047
3163.00,0.0047
3162.00,0.0048
3161.00,0.0047
3160.00,0.0047
3159.00,0.0047
3158.00,0.0046
3157.00,0.0046
3156.00,0.0046
3155.00,0.0046
3154.00,0.0046
3153.00,0.0046
3152.00,0.0046
3151.00,0.0046
3150.00,0.0046
3149.00,0.0045
3148.00,0.0045
3147.00,0.0046
3146.00,0.0046
3145.00,0.0046
3144.00,0.0045
3143.00,0.0045
3142.00,0.0045
3141.00,0.0045
3140.00,0.0045
3139.00,0.0045
3138.00,0.0045
3137.00,0.0044
3136.00,0.0044
3135.00,0.0044
3134.00,0.0044
3133.00,0.0043
3132.00,0.0043
3131.00,0.0043
3130.00,0.0043
3129.00,0.0043
3128.00,0.0042
3127.00,0.0042
3126.00,0.0042
3125.00,0.0041
3124.00,0.0041
3123.00,0.0041
3122.00,0.0041
3121.00,0.0041
3120.00,0.0040
3119.00,0.0040
3118.00,0.0040
3117.00,0.0040
3116.00,0.0039
3115.00,0.0039
3114.00,0.0038
3113.00,0.0038
3112.00,0.0038
3111.00,0.0038
3110.00,0.0038
3109.00,0.0037
3108.00,0.0037
3107.00,0.0037
3106.00,0.0037
3105.00,0.0037
3104.00,0.0037
3103.00,0.0037
3102.00,0.0037
3101.00,0.0037
3100.00,0.0036
3099.00,0.0036
3098.00,0.0036
3097.00,0.0036
3096.00,0.0036
3095.00,0.0037
3094.00,0.0037
3093.00,0.0037
3092.00,0.0037
3091.00,0.0036
3090.00,0.0036
3089.00,0.0036
3088.00,0.0036
3087.00,0.0036
3086.00,0.0036
3085.00,0.0036
3084.00,0.0036
3083.00,0.0036
3082.00,0.0036
3081.00,0.0036
3080.00,0.0036
3079.00,0.0036
3078.00,0.0036
3077.00,0.0036
3076.00,0.0036
3075.00,0.0036
3074.00,0.0037
3073.00,0.0037
3072.00,0.0037
3071.00,0.0037
3070.00,0.0037
3069.00,0.0037
3068.00,0.0037
3067.00,0.0037
3066.00,0.0038
3065.00,0.0038
3064.00,0.0038
3063.00,0.0038
3062.00,0.0038
3061.00,0.0039
3060.00,0.0039
3059.00,0.0039
3058.00,0.0039
3057.00,0.0039
3056.00,0.0039
3055.00,0.0039
3054.00,0.0039
3053.00,0.0039
3052.00,0.0040
3051.00,0.0040
3050.00,0.0040
3049.00,0.0040
3048.00,0.0040
3047.00,0.0040
3046.00,0.0040
3045.00,0.0040
3044.00,0.0040
3043.00,0.0041
3042.00,0.0041
3041.00,0.0042
3040.00,0.0042
3039.00,0.0042
3038.00,0.0043
3037.00,0.0043
3036.00,0.0043
3035.00,0.0043
3034.00,0.0044
3033.00,0.0044
3032.00,0.0045
3031.00,0.0045
3030.00,0.0045
3029.00,0.0045
3028.00,0.0046
3027.00,0.0046
3026.00,0.0046
3025.00,0.0047
3024.00,0.0048
3023.00,0.0049
3022.00,0.0050
3021.00,0.0051
3020.00,0.0052
3019.00,0.0052
3018.00,0.0053
3017.00,0.0054
3016.00,0.0054
3015.00,0.0055
3014.00,0.0056
3013.00,0.0058
3012.00,0.0059
3011.00,0.0061
3010.00,0.0062
3009.00,0.0063
3008.00,0.0065
3007.00,0.0067
3006.00,0.0069
3005.00,0.0071
3004.00,0.0073
3003.00,0.0075
3002.00,0.0077
3001.00,0.0079
3000.00,0.0082
2999.00,0.0085
2998.00,0.0087
2997.00,0.0091
2996.00,0.0094
2995.00,0.0098
2994.00,0.0102
2993.00,0.0106
2992.00,0.0112
2991.00,0.0117
2990.00,0.0124
2989.00,0.0130
2988.00,0.0138
2987.00,0.0146
2986.00,0.0155
2985.00,0.0165
2984.00,0.0176
2983.00,0.0189
2982.00,0.0203
2981.00,0.0219
2980.00,0.0236
2979.00,0.0255
2978.00,0.0277
2977.00,0.0302
2976.00,0.0332
2975.00,0.0365
2974.00,0.0404
2973.00,0.0448
2972.00,0.0497
2971.00,0.0551
2970.00,0.0611
2969.00,0.0676
2968.00,0.0746
2967.00,0.0820
2966.00,0.0896
2965.00,0.0972
2964.00,0.1044
2963.00,0.1110
2962.00,0.1166
2961.00,0.1213
2960.00,0.1252
2959.00,0.1289
2958.00,0.1328
2957.00,0.1377
2956.00,0.1439
2955.00,0.1514
2954.00,0.1601
2953.00,0.1691
2952.00,0.1773
2951.00,0.1834
2950.00,0.1862
2949.00,0.1848
2948.00,0.1792
2947.00,0.1699
2946.00,0.1582
2945.00,0.1457
2944.00,0.1338
2943.00,0.1235
2942.00,0.1155
2941.00,0.1100
2940.00,0.1070
2939.00,0.1062
2938.00,0.1074
2937.00,0.1104
2936.00,0.1150
2935.00,0.1211
2934.00,0.1286
2933.00,0.1374
2932.00,0.1474
2931.00,0.1585
2930.00,0.1702
2929.00,0.1825
2928.00,0.1948
2927.00,0.2070
2926.00,0.2189
2925.00,0.2305
2924.00,0.2419
2923.00,0.2534
2922.00,0.2649
2921.00,0.2760
2920.00,0.2861
2919.00,0.2939
2918.00,0.2981
2917.00,0.2977
2916.00,0.2926
2915.00,0.2836
2914.00,0.2719
2913.00,0.2591
2912.00,0.2463
2911.00,0.2344
2910.00,0.2236
2909.00,0.2139
2908.00,0.2051
2907.00,0.1969
2906.00,0.1890
2905.00,0.1814
2904.00,0.1739
2903.00,0.1666
2902.00,0.1595
2901.00,0.1527
2900.00,0.1463
2899.00,0.1402
2898.00,0.1345
2897.00,0.1294
2896.00,0.1247
2895.00,0.1207
2894.00,0.1172
2893.00,0.1144
2892.00,0.1121
2891.00,0.1104
2890.00,0.1093
2889.00,0.1086
2888.00,0.1083
2887.00,0.1083
2886.00,0.1087
2885.00,0.1094
2884.00,0.1105
2883.00,0.1121
2882.00,0.1142
2881.00,0.1167
2880.00,0.1192
2879.00,0.1213
2878.00,0.1228
2877.00,0.1233
2876.00,0.1231
2875.00,0.1225
2874.00,0.1219
2873.00,0.1219
2872.00,0.1227
2871.00,0.1242
2870.00,0.1262
2869.00,0.1283
2868.00,0.1297
2867.00,0.1296
2866.00,0.1274
2865.00,0.1228
2864.00,0.1162
2863.00,0.1086
2862.00,0.1010
2861.00,0.0943
2860.00,0.0890
2859.00,0.0854
2858.00,0.0834
2857.00,0.0827
2856.00,0.0831
2855.00,0.0843
2854.00,0.0860
2853.00,0.0880
2852.00,0.0900
2851.00,0.0916
2850.00,0.0926
2849.00,0.0931
2848.00,0.0934
2847.00,0.0940
2846.00,0.0954
2845.00,0.0979
2844.00,0.1014
2843.00,0.1058
2842.00,0.1105
2841.00,0.1150
2840.00,0.1185
2839.00,0.1202
2838.00,0.1195
2837.00,0.1159
2836.00,0.1096
2835.00,0.1010
2834.00,0.0910
2833.00,0.0806
2832.00,0.0707
2831.00,0.0619
2830.00,0.0544
2829.00,0.0482
2828.00,0.0432
2827.00,0.0392
2826.00,0.0359
2825.00,0.0331
2824.00,0.0309
2823.00,0.0290
2822.00,0.0273
2821.00,0.0259
2820.00,0.0247
2819.00,0.0237
2818.00,0.0228
2817.00,0.0220
2816.00,0.0213
2815.00,0.0206
2814.00,0.0200
2813.00,0.0194
2812.00,0.0188
2811.00,0.0182
2810.00,0.0176
2809.00,0.0170
2808.00,0.0164
2807.00,0.0157
2806.00,0.0151
2805.00,0.0145
2804.00,0.0139
2803.00,0.0134
2802.00,0.0129
2801.00,0.0124
2800.00,0.0120
2799.00,0.0117
2798.00,0.0114
2797.00,0.0111
2796.00,0.0108
2795.00,0.0105
2794.00,0.0103
2793.00,0.0100
2792.00,0.0097
2791.00,0.0094
2790.00,0.0091
2789.00,0.0088
2788.00,0.0085
2787.00,0.0083
2786.00,0.0080
2785.00,0.0078
2784.00,0.0075
2783.00,0.0074
2782.00,0.0072
2781.00,0.0070
2780.00,0.0069
2779.00,0.0067
2778.00,0.0066
2777.00,0.0064
2776.00,0.0063
2775.00,0.0062
2774.00,0.0061
2773.00,0.0060
2772.00,0.0059
2771.00,0.0059
2770.00,0.0058
2769.00,0.0058
2768.00,0.0059
2767.00,0.0058
2766.00,0.0058
2765.00,0.0057
2764.00,0.0057
2763.00,0.0056
2762.00,0.0056
2761.00,0.0056
2760.00,0.0055
2759.00,0.0055
2758.00,0.0054
2757.00,0.0055
2756.00,0.0055
2755.00,0.0055
2754.00,0.0055
2753.00,0.0055
2752.00,0.0054
2751.00,0.0053
2750.00,0.0053
2749.00,0.0053
2748.00,0.0053
2747.00,0.0053
2746.00,0.0054
2745.00,0.0055
2744.00,0.0055
2743.00,0.0056
2742.00,0.0057
2741.00,0.0058
2740.00,0.0059
2739.00,0.0060
2738.00,0.0061
2737.00,0.0063
2736.00,0.0064
2735.00,0.0066
2734.00,0.0067
2733.00,0.0069
2732.00,0.0070
2731.00,0.0072
2730.00,0.0074
2729.00,0.0077
2728.00,0.0080
2727.00,0.0082
2726.00,0.0085
2725.00,0.0087
2724.00,0.0088
2723.00,0.0088
2722.00,0.0087
2721.00,0.0086
2720.00,0.0084
2719.00,0.0081
2718.00,0.0078
2717.00,0.0075
2716.00,0.0072
2715.00,0.0069
2714.00,0.0067
2713.00,0.0064
2712.00,0.0062
2711.00,0.0060
2710.00,0.0059
2709.00,0.0057
2708.00,0.0056
2707.00,0.0054
2706.00,0.0053
2705.00,0.0052
2704.00,0.0050
2703.00,0.0050
2702.00,0.0049
2701.00,0.0048
2700.00,0.0047
2699.00,0.0046
2698.00,0.0046
2697.00,0.0046
2696.00,0.0045
2695.00,0.0045
2694.00,0.0045
2693.00,0.0045
2692.00,0.0046
2691.00,0.0046
2690.00,0.0046
2689.00,0.0046
2688.00,0.0046
2687.00,0.0046
2686.00,0.0046
2685.00,0.0045
2684.00,0.0045
2683.00,0.0045
2682.00,0.0046
2681.00,0.0046
2680.00,0.0046
2679.00,0.0046
2678.00,0.0046
2677.00,0.0046
2676.00,0.0046
2675.00,0.0046
2674.00,0.0046
2673.00,0.0046
2672.00,0.0046
2671.00,0.0046
2670.00,0.0046
2669.00,0.0046
2668.00,0.0046
2667.00,0.0046
2666.00,0.0047
2665.00,0.0047
2664.00,0.0048
2663.00,0.0048
2662.00,0.0049
2661.00,0.0049
2660.00,0.0049
2659.00,0.0049
2658.00,0.0048
2657.00,0.0048
2656.00,0.0047
2655.00,0.0047
2654.00,0.0046
2653.00,0.0046
2652.00,0.0045
2651.00,0.0045
2650.00,0.0044
2649.00,0.0044
2648.00,0.0043
2647.00,0.0043
2646.00,0.0042
2645.00,0.0042
2644.00,0.0042
2643.00,0.0041
2642.00,0.0041
2641.00,0.0041
2640.00,0.0040
2639.00,0.0040
2638.00,0.0040
2637.00,0.0040
2636.00,0.0039
2635.00,0.0039
2634.00,0.0039
2633.00,0.0039
2632.00,0.0039
2631.00,0.0039
2630.00,0.0040
2629.00,0.0040
2628.00,0.0040
2627.00,0.0040
2626.00,0.0040
2625.00,0.0041
2624.00,0.0041
2623.00,0.0041
2622.00,0.0041
2621.00,0.0041
2620.00,0.0041
2619.00,0.0041
2618.00,0.0040
2617.00,0.0040
2616.00,0.0039
2615.00,0.0039
2614.00,0.0039
2613.00,0.0039
2612.00,0.0039
2611.00,0.0038
2610.00,0.0037
2609.00,0.0037
2608.00,0.0036
2607.00,0.0036
2606.00,0.0036
2605.00,0.0035
2604.00,0.0034
2603.00,0.0033
2602.00,0.0033
2601.00,0.0032
2600.00,0.0032
2599.00,0.0033
2598.00,0.0033
2597.00,0.0034
2596.00,0.0034
2595.00,0.0034
2594.00,0.0034
2593.00,0.0034
2592.00,0.0034
2591.00,0.0035
2590.00,0.0036
2589.00,0.0037
2588.00,0.0037
2587.00,0.0038
2586.00,0.0039
2585.00,0.0040
2584.00,0.0041
2583.00,0.0041
2582.00,0.0040
2581.00,0.0039
2580.00,0.0038
2579.00,0.0038
2578.00,0.0037
2577.00,0.0036
2576.00,0.0035
2575.00,0.0034
2574.00,0.0033
2573.00,0.0032
2572.00,0.0031
2571.00,0.0030
2570.00,0.0029
2569.00,0.0028
2568.00,0.0027
2567.00,0.0027
2566.00,0.0026
2565.00,0.0025
2564.00,0.0024
2563.00,0.0024
2562.00,0.0025
2561.00,0.0025
2560.00,0.0025
2559.00,0.0024
2558.00,0.0023
2557.00,0.0023
2556.00,0.0022
2555.00,0.0022
2554.00,0.0021
2553.00,0.0021
2552.00,0.0021
2551.00,0.0021
2550.00,0.0021
2549.00,0.0021
2548.00,0.0021
2547.00,0.0020
2546.00,0.0019
2545.00,0.0019
2544.00,0.0019
2543.00,0.0019
2542.00,0.0019
2541.00,0.0019
2540.00,0.0018
2539.00,0.0018
2538.00,0.0017
2537.00,0.0017
2536.00,0.0017
2535.00,0.0017
2534.00,0.0017
2533.00,0.0017
2532.00,0.0016
2531.00,0.0016
2530.00,0.0016
2529.00,0.0016
2528.00,0.0016
2527.00,0.0016
2526.00,0.0016
2525.00,0.0016
2524.00,0.0016
2523.00,0.0016
2522.00,0.0016
2521.00,0.0015
2520.00,0.0014
2519.00,0.0014
2518.00,0.0012
2517.00,0.0011
2516.00,0.0011
2515.00,0.0010
2514.00,0.0010
2513.00,0.0010
2512.00,0.0010
2511.00,0.0010
2510.00,0.0010
2509.00,0.0010
2508.00,0.0010
2507.00,0.0010
2506.00,0.0010
2505.00,0.0010
2504.00,0.0010
2503.00,0.0010
2502.00,0.0010
2501.00,0.0010
2500.00,0.0011
2499.00,0.0011
2498.00,0.0011
2497.00,0.0012
2496.00,0.0012
2495.00,0.0012
2494.00,0.0011
2493.00,0.0011
2492.00,0.0011
2491.00,0.0011
2490.00,0.0011
2489.00,0.0011
2488.00,0.0011
2487.00,0.0011
2486.00,0.0011
2485.00,0.0011
2484.00,0.0010
2483.00,0.0010
2482.00,0.0009
2481.00,0.0009
2480.00,0.0010
2479.00,0.0010
2478.00,0.0010
2477.00,0.0010
2476.00,0.0010
2475.00,0.0009
2474.00,0.0009
2473.00,0.0009
2472.00,0.0009
2471.00,0.0009
2470.00,0.0010
2469.00,0.0010
2468.00,0.0010
2467.00,0.0010
2466.00,0.0010
2465.00,0.0010
2464.00,0.0010
2463.00,0.0010
2462.00,0.0010
2461.00,0.0010
2460.00,0.0010
2459.00,0.0011
2458.00,0.0011
2457.00,0.0011
2456.00,0.0011
2455.00,0.0012
2454.00,0.0012
2453.00,0.0012
2452.00,0.0012
2451.00,0.0012
2450.00,0.0012
2449.00,0.0011
2448.00,0.0011
2447.00,0.0012
2446.00,0.0012
2445.00,0.0012
2444.00,0.0012
2443.00,0.0011
2442.00,0.0011
2441.00,0.0010
2440.00,0.0010
2439.00,0.0010
2438.00,0.0011
2437.00,0.0011
2436.00,0.0012
2435.00,0.0012
2434.00,0.0013
2433.00,0.0013
2432.00,0.0013
2431.00,0.0013
2430.00,0.0013
2429.00,0.0013
2428.00,0.0013
2427.00,0.0012
2426.00,0.0012
2425.00,0.0012
2424.00,0.0012
2423.00,0.0012
2422.00,0.0011
2421.00,0.0011
2420.00,0.0011
2419.00,0.0010
2418.00,0.0010
2417.00,0.0010
2416.00,0.0010
2415.00,0.0010
2414.00,0.0010
2413.00,0.0010
2412.00,0.0011
2411.00,0.0011
2410.00,0.0011
2409.00,0.0011
2408.00,0.0010
2407.00,0.0010
2406.00,0.0010
2405.00,0.0010
2404.00,0.0010
2403.00,0.0010
2402.00,0.0009
2401.00,0.0009
2400.00,0.0008
2399.00,0.0008
2398.00,0.0008
2397.00,0.0007
2396.00,0.0007
2395.00,0.0007
2394.00,0.0007
2393.00,0.0007
2392.00,0.0008
2391.00,0.0008
2390.00,0.0008
2389.00,0.0008
2388.00,0.0008
2387.00,0.0008
2386.00,0.0008
2385.00,0.0007
2384.00,0.0007
2383.00,0.0006
2382.00,0.0005
2381.00,0.0005
2380.00,0.0005
2379.00,0.0005
2378.00,0.0005
2377.00,0.0006
2376.00,0.0006
2375.00,0.0006
2374.00,0.0005
2373.00,0.0005
2372.00,0.0005
2371.00,0.0005
2370.00,0.0006
2369.00,0.0006
2368.00,0.0006
2367.00,0.0006
2366.00,0.0005
2365.00,0.0005
2364.00,0.0005
2363.00,0.0005
2362.00,0.0006
2361.00,0.0006
2360.00,0.0006
2359.00,0.0007
2358.00,0.0007
2357.00,0.0007
2356.00,0.0007
2355.00,0.0007
2354.00,0.0006
2353.00,0.0006
2352.00,0.0005
2351.00,0.0005
2350.00,0.0005
2349.00,0.0007
2348.00,0.0008
2347.00,0.0009
2346.00,0.0009
2345.00,0.0009
2344.00,0.0008
2343.00,0.0008
2342.00,0.0008
2341.00,0.0008
2340.00,0.0009
2339.00,0.0009
2338.00,0.0010
2337.00,0.0010
2336.00,0.0009
2335.00,0.0009
2334.00,0.0009
2333.00,0.0009
2332.00,0.0008
2331.00,0.0008
2330.00,0.0007
2329.00,0.0008
2328.00,0.0010
2327.00,0.0013
2326.00,0.0016
2325.00,0.0020
2324.00,0.0021
2323.00,0.0021
2322.00,0.0019
2321.00,0.0017
2320.00,0.0016
2319.00,0.0015
2318.00,0.0014
2317.00,0.0014
2316.00,0.0014
2315.00,0.0014
2314.00,0.0013
2313.00,0.0011
2312.00,0.0010
2311.00,0.0009
2310.00,0.0009
2309.00,0.0009
2308.00,0.0009
2307.00,0.0009
2306.00,0.0009
2305.00,0.0010
2304.00,0.0010
2303.00,0.0011
2302.00,0.0011
2301.00,0.0010
2300.00,0.0010
2299.00,0.0010
2298.00,0.0011
2297.00,0.0011
2296.00,0.0012
2295.00,0.0012
2294.00,0.0012
2293.00,0.0013
2292.00,0.0014
2291.00,0.0016
2290.00,0.0016
2289.00,0.0017
2288.00,0.0017
2287.00,0.0017
2286.00,0.0018
2285.00,0.0018
2284.00,0.0019
2283.00,0.0018
2282.00,0.0017
2281.00,0.0017
2280.00,0.0016
2279.00,0.0017
2278.00,0.0017
2277.00,0.0016
2276.00,0.0016
2275.00,0.0015
2274.00,0.0015
2273.00,0.0016
2272.00,0.0016
2271.00,0.0016
2270.00,0.0014
2269.00,0.0013
2268.00,0.0012
2267.00,0.0011
2266.00,0.0010
2265.00,0.0010
2264.00,0.0011
2263.00,0.0012
2262.00,0.0013
2261.00,0.0014
2260.00,0.0013
2259.00,0.0013
2258.00,0.0013
2257.00,0.0013
2256.00,0.0013
2255.00,0.0011
2254.00,0.0009
2253.00,0.0007
2252.00,0.0006
2251.00,0.0005
2250.00,0.0006
2249.00,0.0007
2248.00,0.0008
2247.00,0.0008
2246.00,0.0008
2245.00,0.0008
2244.00,0.0008
2243.00,0.0009
2242.00,0.0009
2241.00,0.0010
2240.00,0.0010
2239.00,0.0009
2238.00,0.0008
2237.00,0.0007
2236.00,0.0007
2235.00,0.0007
2234.00,0.0008
2233.00,0.0008
2232.00,0.0008
2231.00,0.0008
2230.00,0.0008
2229.00,0.0008
2228.00,0.0008
2227.00,0.0008
2226.00,0.0008
2225.00,0.0008
2224.00,0.0009
2223.00,0.0009
2222.00,0.0008
2221.00,0.0008
2220.00,0.0007
2219.00,0.0007
2218.00,0.0007
2217.00,0.0009
2216.00,0.0010
2215.00,0.0011
2214.00,0.0011
2213.00,0.0009
2212.00,0.0007
2211.00,0.0005
2210.00,0.0003
2209.00,0.0001
2208.00,0.0001
2207.00,0.0002
2206.00,0.0005
2205.00,0.0008
2204.00,0.0010
2203.00,0.0010
2202.00,0.0009
2201.00,0.0008
2200.00,0.0008
2199.00,0.0009
2198.00,0.0010
2197.00,0.0011
2196.00,0.0012
2195.00,0.0014
2194.00,0.0014
2193.00,0.0014
2192.00,0.0012
2191.00,0.0011
2190.00,0.0013
2189.00,0.0016
2188.00,0.0019
2187.00,0.0018
2186.00,0.0015
2185.00,0.0010
2184.00,0.0005
2183.00,0.0002
2182.00,0.0001
2181.00,0.0004
2180.00,0.0007
2179.00,0.0009
2178.00,0.0009
2177.00,0.0008
2176.00,0.0007
2175.00,0.0007
2174.00,0.0008
2173.00,0.0010
2172.00,0.0011
2171.00,0.0011
2170.00,0.0012
2169.00,0.0013
2168.00,0.0015
2167.00,0.0015
2166.00,0.0014
2165.00,0.0012
2164.00,0.0014
2163.00,0.0017
2162.00,0.0020
2161.00,0.0019
2160.00,0.0009
2159.00,-0.0005
2158.00,-0.0018
2157.00,-0.0025
2156.00,-0.0026
2155.00,-0.0024
2154.00,-0.0020
2153.00,-0.0017
2152.00,-0.0014
2151.00,-0.0012
2150.00,-0.0012
2149.00,-0.0012
2148.00,-0.0014
2147.00,-0.0017
2146.00,-0.0018
2145.00,-0.0017
2144.00,-0.0015
2143.00,-0.0012
2142.00,-0.0010
2141.00,-0.0009
2140.00,-0.0008
2139.00,-0.0008
2138.00,-0.0008
2137.00,-0.0009
2136.00,-0.0012
2135.00,-0.0015
2134.00,-0.0018
2133.00,-0.0019
2132.00,-0.0017
2131.00,-0.0014
2130.00,-0.0011
2129.00,-0.0009
2128.00,-0.0008
2127.00,-0.0007
2126.00,-0.0007
2125.00,-0.0007
2124.00,-0.0006
2123.00,-0.0006
2122.00,-0.0005
2121.00,-0.0004
2120.00,-0.0003
2119.00,-0.0003
2118.00,-0.0002
2117.00,0.0000
2116.00,0.0002
2115.00,0.0005
2114.00,0.0006
2113.00,0.0007
2112.00,0.0007
2111.00,0.0005
2110.00,0.0004
2109.00,0.0003
2108.00,0.0002
2107.00,0.0002
2106.00,0.0001
2105.00,0.0001
2104.00,0.0002
2103.00,0.0002
2102.00,0.0001
2101.00,0.0001
2100.00,0.0001
2099.00,-0.0000
2098.00,-0.0001
2097.00,-0.0002
2096.00,-0.0003
2095.00,-0.0003
2094.00,-0.0004
2093.00,-0.0004
2092.00,-0.0003
2091.00,-0.0001
2090.00,0.0000
2089.00,0.0002
2088.00,0.0003
2087.00,0.0002
2086.00,0.0001
2085.00,0.0001
2084.00,0.0001
2083.00,0.0002
2082.00,0.0003
2081.00,0.0005
2080.00,0.0006
2079.00,0.0006
2078.00,0.0005
2077.00,0.0004
2076.00,0.0003
2075.00,0.0002
2074.00,0.0002
2073.00,0.0002
2072.00,0.0003
2071.00,0.0004
2070.00,0.0005
2069.00,0.0005
2068.00,0.0002
2067.00,0.0000
2066.00,-0.0001
2065.00,-0.0001
2064.00,-0.0001
2063.00,0.0000
2062.00,0.0001
2061.00,0.0001
2060.00,0.0001
2059.00,0.0001
2058.00,0.0001
2057.00,0.0001
2056.00,0.0001
2055.00,-0.0000
2054.00,-0.0000
2053.00,0.0002
2052.00,0.0006
2051.00,0.0008
2050.00,0.0008
2049.00,0.0006
2048.00,0.0004
2047.00,0.0003
2046.00,0.0002
2045.00,0.0001
2044.00,0.0001
2043.00,0.0002
2042.00,0.0004
2041.00,0.0005
2040.00,0.0005
2039.00,0.0004
2038.00,0.0005
2037.00,0.0005
2036.00,0.0006
2035.00,0.0004
2034.00,0.0001
2033.00,-0.0002
2032.00,-0.0005
2031.00,-0.0008
2030.00,-0.0009
2029.00,-0.0009
2028.00,-0.0009
2027.00,-0.0007
2026.00,-0.0004
2025.00,-0.0000
2024.00,0.0001
2023.00,0.0001
2022.00,0.0002
2021.00,0.0003
2020.00,0.0002
2019.00,-0.0001
2018.00,-0.0006
2017.00,-0.0010
2016.00,-0.0010
2015.00,-0.0008
2014.00,-0.0006
2013.00,-0.0005
2012.00,-0.0005
2011.00,-0.0006
2010.00,-0.0008
2009.00,-0.0009
2008.00,-0.0011
2007.00,-0.0014
2006.00,-0.0015
2005.00,-0.0015
2004.00,-0.0013
2003.00,-0.0013
2002.00,-0.0013
2001.00,-0.0013
2000.00,-0.0013
1999.00,-0.0012
1998.00,-0.0011
1997.00,-0.0010
1996.00,-0.0009
1995.00,-0.0008
1994.00,-0.0006
1993.00,-0.0004
1992.00,-0.0002
1991.00,-0.0000
1990.00,0.0001
1989.00,0.0002
1988.00,0.0002
1987.00,0.0001
1986.00,-0.0001
1985.00,-0.0002
1984.00,-0.0002
1983.00,0.0000
1982.00,0.0003
1981.00,0.0005
1980.00,0.0005
1979.00,0.0002
1978.00,-0.0005
1977.00,-0.0010
1976.00,-0.0012
1975.00,-0.0013
1974.00,-0.0013
1973.00,-0.0011
1972.00,-0.0009
1971.00,-0.0008
1970.00,-0.0008
1969.00,-0.0007
1968.00,-0.0006
1967.00,-0.0005
1966.00,-0.0005
1965.00,-0.0005
1964.00,-0.0006
1963.00,-0.0007
1962.00,-0.0008
1961.00,-0.0009
1960.00,-0.0010
1959.00,-0.0010
1958.00,-0.0010
1957.00,-0.0010
1956.00,-0.0010
1955.00,-0.0010
1954.00,-0.0010
1953.00,-0.0010
1952.00,-0.0011
1951.00,-0.0012
1950.00,-0.0014
1949.00,-0.0013
1948.00,-0.0012
1947.00,-0.0010
1946.00,-0.0010
1945.00,-0.0010
1944.00,-0.0012
1943.00,-0.0014
1942.00,-0.0014
1941.00,-0.0013
1940.00,-0.0011
1939.00,-0.0009
1938.00,-0.0008
1937.00,-0.0008
1936.00,-0.0007
1935.00,-0.0007
1934.00,-0.0007
1933.00,-0.0007
1932.00,-0.0007
1931.00,-0.0006
1930.00,-0.0005
1929.00,-0.0004
1928.00,-0.0003
1927.00,-0.0002
1926.00,-0.0002
1925.00,-0.0002
1924.00,-0.0003
1923.00,-0.0003
1922.00,-0.0003
1921.00,-0.0003
1920.00,-0.0003
1919.00,-0.0003
1918.00,-0.0003
1917.00,-0.0003
1916.00,-0.0003
1915.00,-0.0003
1914.00,-0.0004
1913.00,-0.0003
1912.00,-0.0002
1911.00,-0.0002
1910.00,-0.0002
1909.00,-0.0003
1908.00,-0.0003
1907.00,-0.0003
1906.00,-0.0002
1905.00,-0.0001
1904.00,-0.0000
1903.00,-0.0001
1902.00,-0.0002
1901.00,-0.0002
1900.00,-0.0002
1899.00,-0.0001
1898.00,-0.0001
1897.00,0.0000
1896.00,0.0001
1895.00,0.0001
1894.00,0.0001
1893.00,0.0001
1892.00,0.0001
1891.00,0.0001
1890.00,0.0001
1889.00,0.0000
1888.00,-0.0000
1887.00,-0.0001
1886.00,-0.0002
1885.00,-0.0002
1884.00,-0.0002
1883.00,-0.0001
1882.00,0.0001
1881.00,0.0002
1880.00,0.0002
1879.00,0.0001
1878.00,0.0001
1877.00,0.0000
1876.00,0.0001
1875.00,0.0001
1874.00,0.0001
1873.00,0.0001
1872.00,0.0000
1871.00,-0.0001
1870.00,-0.0001
1869.00,-0.0000
1868.00,0.0000
1867.00,0.0001
1866.00,0.0000
1865.00,-0.0000
1864.00,-0.0000
1863.00,0.0000
1862.00,0.0001
1861.00,0.0002
1860.00,0.0003
1859.00,0.0003
1858.00,0.0002
1857.00,0.0002
1856.00,0.0002
1855.00,0.0003
1854.00,0.0003
1853.00,0.0003
1852.00,0.0003
1851.00,0.0003
1850.00,0.0003
1849.00,0.0002
1848.00,0.0002
1847.00,0.0002
1846.00,0.0002
1845.00,0.0003
1844.00,0.0003
1843.00,0.0003
1842.00,0.0003
1841.00,0.0002
1840.00,0.0002
1839.00,0.0002
1838.00,0.0003
1837.00,0.0003
1836.00,0.0003
1835.00,0.0003
1834.00,0.0003
1833.00,0.0004
1832.00,0.0004
1831.00,0.0005
1830.00,0.0005
1829.00,0.0004
1828.00,0.0003
1827.00,0.0003
1826.00,0.0003
1825.00,0.0004
1824.00,0.0004
1823.00,0.0004
1822.00,0.0004
1821.00,0.0004
1820.00,0.0003
1819.00,0.0003
1818.00,0.0002
1817.00,0.0001
1816.00,0.0001
1815.00,0.0002
1814.00,0.0002
1813.00,0.0003
1812.00,0.0004
1811.00,0.0004
1810.00,0.0004
1809.00,0.0004
1808.00,0.0004
1807.00,0.0005
1806.00,0.0005
1805.00,0.0005
1804.00,0.0005
1803.00,0.0005
1802.00,0.0005
1801.00,0.0005
1800.00,0.0006
1799.00,0.0006
1798.00,0.0006
1797.00,0.0006
1796.00,0.0006
1795.00,0.0006
1794.00,0.0006
1793.00,0.0006
1792.00,0.0006
1791.00,0.0006
1790.00,0.0007
1789.00,0.0007
1788.00,0.0007
1787.00,0.0007
1786.00,0.0007
1785.00,0.0007
1784.00,0.0008
1783.00,0.0008
1782.00,0.0009
1781.00,0.0009
1780.00,0.0009
1779.00,0.0009
1778.00,0.0008
1777.00,0.0008
1776.00,0.0008
1775.00,0.0008
1774.00,0.0008
1773.00,0.0008
1772.00,0.0008
1771.00,0.0008
1770.00,0.0009
1769.00,0.0009
1768.00,0.0010
1767.00,0.0010
1766.00,0.0011
1765.00,0.0011
1764.00,0.0011
1763.00,0.0011
1762.00,0.0011
1761.00,0.0011
1760.00,0.0011
1759.00,0.0011
1758.00,0.0011
1757.00,0.0011
1756.00,0.0012
1755.00,0.0012
1754.00,0.0013
1753.00,0.0013
1752.00,0.0014
1751.00,0.0015
1750.00,0.0015
1749.00,0.0015
1748.00,0.0016
1747.00,0.0016
1746.00,0.0016
1745.00,0.0017
1744.00,0.0017
1743.00,0.0017
1742.00,0.0017
1741.00,0.0017
1740.00,0.0017
1739.00,0.0018
1738.00,0.0018
1737.00,0.0018
1736.00,0.0019
1735.00,0.0020
1734.00,0.0021
1733.00,0.0022
1732.00,0.0023
1731.00,0.0022
1730.00,0.0022
1729.00,0.0022
1728.00,0.0023
1727.00,0.0023
1726.00,0.0024
1725.00,0.0025
1724.00,0.0025
1723.00,0.0026
1722.00,0.0026
1721.00,0.0027
1720.00,0.0026
1719.00,0.0026
1718.00,0.0025
1717.00,0.0024
1716.00,0.0024
1715.00,0.0025
1714.00,0.0025
1713.00,0.0026
1712.00,0.0026
1711.00,0.0026
1710.00,0.0026
1709.00,0.0026
1708.00,0.0027
1707.00,0.0027
1706.00,0.0027
1705.00,0.0028
1704.00,0.0029
1703.00,0.0029
1702.00,0.0031
1701.00,0.0032
1700.00,0.0033
1699.00,0.0032
1698.00,0.0031
1697.00,0.0031
1696.00,0.0032
1695.00,0.0034
1694.00,0.0035
1693.00,0.0036
1692.00,0.0036
1691.00,0.0036
1690.00,0.0037
1689.00,0.0037
1688.00,0.0038
1687.00,0.0039
1686.00,0.0040
1685.00,0.0042
1684.00,0.0043
1683.00,0.0045
1682.00,0.0046
1681.00,0.0047
1680.00,0.0047
1679.00,0.0048
1678.00,0.0049
1677.00,0.0050
1676.00,0.0051
1675.00,0.0053
1674.00,0.0054
1673.00,0.0055
1672.00,0.0055
1671.00,0.0055
1670.00,0.0056
1669.00,0.0057
1668.00,0.0059
1667.00,0.0060
1666.00,0.0060
1665.00,0.0060
1664.00,0.0060
1663.00,0.0061
1662.00,0.0061
1661.00,0.0062
1660.00,0.0063
1659.00,0.0063
1658.00,0.0064
1657.00,0.0065
1656.00,0.0065
1655.00,0.0065
1654.00,0.0066
1653.00,0.0068
1652.00,0.0069
1651.00,0.0070
1650.00,0.0071
1649.00,0.0071
1648.00,0.0071
1647.00,0.0072
1646.00,0.0073
1645.00,0.0074
1644.00,0.0076
1643.00,0.0077
1642.00,0.0078
1641.00,0.0079
1640.00,0.0080
1639.00,0.0081
1638.00,0.0081
1637.00,0.0081
1636.00,0.0082
1635.00,0.0082
1634.00,0.0081
1633.00,0.0081
1632.00,0.0080
1631.00,0.0080
1630.00,0.0080
1629.00,0.0079
1628.00,0.0079
1627.00,0.0079
1626.00,0.0078
1625.00,0.0078
1624.00,0.0078
1623.00,0.0077
1622.00,0.0077
1621.00,0.0077
1620.00,0.0077
1619.00,0.0077
1618.00,0.0076
1617.00,0.0076
1616.00,0.0076
1615.00,0.0077
1614.00,0.0077
1613.00,0.0078
1612.00,0.0079
1611.00,0.0079
1610.00,0.0080
1609.00,0.0080
1608.00,0.0080
1607.00,0.0079
1606.00,0.0079
1605.00,0.0079
1604.00,0.0079
1603.00,0.0079
1602.00,0.0079
1601.00,0.0079
1600.00,0.0079
1599.00,0.0079
1598.00,0.0079
1597.00,0.0079
1596.00,0.0079
1595.00,0.0078
1594.00,0.0078
1593.00,0.0077
1592.00,0.0077
1591.00,0.0077
1590.00,0.0077
1589.00,0.0077
1588.00,0.0076
1587.00,0.0076
1586.00,0.0076
1585.00,0.0076
1584.00,0.0076
1583.00,0.0076
1582.00,0.0076
1581.00,0.0076
1580.00,0.0076
1579.00,0.0076
1578.00,0.0075
1577.00,0.0074
1576.00,0.0074
1575.00,0.0074
1574.00,0.0074
1573.00,0.0074
1572.00,0.0075
1571.00,0.0074
1570.00,0.0074
1569.00,0.0074
1568.00,0.0074
1567.00,0.0074
1566.00,0.0073
1565.00,0.0073
1564.00,0.0073
1563.00,0.0072
1562.00,0.0072
1561.00,0.0072
1560.00,0.0074
1559.00,0.0073
1558.00,0.0073
1557.00,0.0074
1556.00,0.0074
1555.00,0.0074
1554.00,0.0074
1553.00,0.0075
1552.00,0.0076
1551.00,0.0076
1550.00,0.0076
1549.00,0.0076
1548.00,0.0076
1547.00,0.0076
1546.00,0.0076
1545.00,0.0076
1544.00,0.0075
1543.00,0.0074
1542.00,0.0073
1541.00,0.0072
1540.00,0.0071
1539.00,0.0070
1538.00,0.0070
1537.00,0.0070
1536.00,0.0069
1535.00,0.0068
1534.00,0.0066
1533.00,0.0064
1532.00,0.0063
1531.00,0.0062
1530.00,0.0061
1529.00,0.0061
1528.00,0.0061
1527.00,0.0061
1526.00,0.0060
1525.00,0.0061
1524.00,0.0061
1523.00,0.0061
1522.00,0.0060
1521.00,0.0060
1520.00,0.0060
1519.00,0.0060
1518.00,0.0060
1517.00,0.0061
1516.00,0.0062
1515.00,0.0062
1514.00,0.0061
1513.00,0.0062
1512.00,0.0062
1511.00,0.0063
1510.00,0.0063
1509.00,0.0064
1508.00,0.0065
1507.00,0.0065
1506.00,0.0066
1505.00,0.0068
1504.00,0.0070
1503.00,0.0071
1502.00,0.0073
1501.00,0.0076
1500.00,0.0079
1499.00,0.0081
1498.00,0.0083
1497.00,0.0086
1496.00,0.0091
1495.00,0.0095
1494.00,0.0098
1493.00,0.0102
1492.00,0.0106
1491.00,0.0109
1490.00,0.0113
1489.00,0.0119
1488.00,0.0125
1487.00,0.0129
1486.00,0.0134
1485.00,0.0140
1484.00,0.0146
1483.00,0.0153
1482.00,0.0162
1481.00,0.0172
1480.00,0.0183
1479.00,0.0195
1478.00,0.0211
1477.00,0.0231
1476.00,0.0257
1475.00,0.0288
1474.00,0.0330
1473.00,0.0389
1472.00,0.0457
1471.00,0.0524
1470.00,0.0587
1469.00,0.0654
1468.00,0.0727
1467.00,0.0807
1466.00,0.0898
1465.00,0.0995
1464.00,0.1080
1463.00,0.1137
1462.00,0.1173
1461.00,0.1195
1460.00,0.1208
1459.00,0.1215
1458.00,0.1217
1457.00,0.1215
1456.00,0.1206
1455.00,0.1192
1454.00,0.1174
1453.00,0.1150
1452.00,0.1118
1451.00,0.1075
1450.00,0.1019
1449.00,0.0946
1448.00,0.0857
1447.00,0.0765
1446.00,0.0684
1445.00,0.0615
1444.00,0.0557
1443.00,0.0510
1442.00,0.0475
1441.00,0.0451
1440.00,0.0437
1439.00,0.0432
1438.00,0.0435
1437.00,0.0440
1436.00,0.0434
1435.00,0.0412
1434.00,0.0377
1433.00,0.0333
1432.00,0.0288
1431.00,0.0247
1430.00,0.0216
1429.00,0.0193
1428.00,0.0177
1427.00,0.0167
1426.00,0.0160
1425.00,0.0154
1424.00,0.0148
1423.00,0.0145
1422.00,0.0143
1421.00,0.0141
1420.00,0.0138
1419.00,0.0135
1418.00,0.0133
1417.00,0.0131
1416.00,0.0128
1415.00,0.0127
1414.00,0.0126
1413.00,0.0125
1412.00,0.0124
1411.00,0.0123
1410.00,0.0123
1409.00,0.0122
1408.00,0.0121
1407.00,0.0121
1406.00,0.0122
1405.00,0.0121
1404.00,0.0121
1403.00,0.0122
1402.00,0.0123
1401.00,0.0124
1400.00,0.0125
1399.00,0.0127
1398.00,0.0129
1397.00,0.0131
1396.00,0.0133
1395.00,0.0137
1394.00,0.0142
1393.00,0.0146
1392.00,0.0151
1391.00,0.0158
1390.00,0.0168
1389.00,0.0182
1388.00,0.0203
1387.00,0.0234
1386.00,0.0275
1385.00,0.0330
1384.00,0.0406
1383.00,0.0515
1382.00,0.0665
1381.00,0.0861
1380.00,0.1110
1379.00,0.1399
1378.00,0.1686
1377.00,0.1904
1376.00,0.1988
1375.00,0.1897
1374.00,0.1660
1373.00,0.1368
1372.00,0.1099
1371.00,0.0877
1370.00,0.0702
1369.00,0.0570
1368.00,0.0479
1367.00,0.0423
1366.00,0.0393
1365.00,0.0381
1364.00,0.0383
1363.00,0.0397
1362.00,0.0419
1361.00,0.0443
1360.00,0.0462
1359.00,0.0468
1358.00,0.0458
1357.00,0.0432
1356.00,0.0395
1355.00,0.0353
1354.00,0.0313
1353.00,0.0278
1352.00,0.0250
1351.00,0.0228
1350.00,0.0210
1349.00,0.0195
1348.00,0.0183
1347.00,0.0172
1346.00,0.0164
1345.00,0.0157
1344.00,0.0150
1343.00,0.0145
1342.00,0.0139
1341.00,0.0135
1340.00,0.0132
1339.00,0.0129
1338.00,0.0128
1337.00,0.0127
1336.00,0.0127
1335.00,0.0128
1334.00,0.0131
1333.00,0.0135
1332.00,0.0140
1331.00,0.0143
1330.00,0.0144
1329.00,0.0143
1328.00,0.0139
1327.00,0.0134
1326.00,0.0128
1325.00,0.0122
1324.00,0.0116
1323.00,0.0111
1322.00,0.0108
1321.00,0.0104
1320.00,0.0102
1319.00,0.0100
1318.00,0.0099
1317.00,0.0098
1316.00,0.0096
1315.00,0.0095
1314.00,0.0094
1313.00,0.0094
1312.00,0.0095
1311.00,0.0096
1310.00,0.0099
1309.00,0.0104
1308.00,0.0110
1307.00,0.0118
1306.00,0.0126
1305.00,0.0131
1304.00,0.0134
1303.00,0.0133
1302.00,0.0131
1301.00,0.0129
1300.00,0.0129
1299.00,0.0130
1298.00,0.0132
1297.00,0.0133
1296.00,0.0133
1295.00,0.0131
1294.00,0.0127
1293.00,0.0122
1292.00,0.0117
1291.00,0.0112
1290.00,0.0108
1289.00,0.0104
1288.00,0.0101
1287.00,0.0099
1286.00,0.0096
1285.00,0.0094
1284.00,0.0092
1283.00,0.0091
1282.00,0.0090
1281.00,0.0089
1280.00,0.0088
1279.00,0.0087
1278.00,0.0086
1277.00,0.0085
1276.00,0.0084
1275.00,0.0084
1274.00,0.0085
1273.00,0.0085
1272.00,0.0086
1271.00,0.0087
1270.00,0.0089
1269.00,0.0091
1268.00,0.0094
1267.00,0.0097
1266.00,0.0100
1265.00,0.0103
1264.00,0.0107
1263.00,0.0110
1262.00,0.0112
1261.00,0.0115
1260.00,0.0118
1259.00,0.0122
1258.00,0.0125
1257.00,0.0127
1256.00,0.0128
1255.00,0.0126
1254.00,0.0122
1253.00,0.0116
1252.00,0.0110
1251.00,0.0104
1250.00,0.0100
1249.00,0.0097
1248.00,0.0094
1247.00,0.0092
1246.00,0.0090
1245.00,0.0088
1244.00,0.0087
1243.00,0.0086
1242.00,0.0085
1241.00,0.0085
1240.00,0.0084
1239.00,0.0083
1238.00,0.0083
1237.00,0.0082
1236.00,0.0082
1235.00,0.0081
1234.00,0.0081
1233.00,0.0081
1232.00,0.0081
1231.00,0.0082
1230.00,0.0082
1229.00,0.0083
1228.00,0.0084
1227.00,0.0085
1226.00,0.0088
1225.00,0.0090
1224.00,0.0094
1223.00,0.0098
1222.00,0.0101
1221.00,0.0104
1220.00,0.0106
1219.00,0.0106
1218.00,0.0105
1217.00,0.0102
1216.00,0.0099
1215.00,0.0096
1214.00,0.0093
1213.00,0.0090
1212.00,0.0087
1211.00,0.0085
1210.00,0.0083
1209.00,0.0081
1208.00,0.0080
1207.00,0.0079
1206.00,0.0079
1205.00,0.0078
1204.00,0.0076
1203.00,0.0075
1202.00,0.0075
1201.00,0.0074
1200.00,0.0074
1199.00,0.0074
1198.00,0.0074
1197.00,0.0073
1196.00,0.0073
1195.00,0.0074
1194.00,0.0074
1193.00,0.0074
1192.00,0.0074
1191.00,0.0073
1190.00,0.0073
1189.00,0.0073
1188.00,0.0072
1187.00,0.0072
1186.00,0.0073
1185.00,0.0073
1184.00,0.0075
1183.00,0.0076
1182.00,0.0077
1181.00,0.0079
1180.00,0.0082
1179.00,0.0086
1178.00,0.0092
1177.00,0.0098
1176.00,0.0107
1175.00,0.0117
1174.00,0.0131
1173.00,0.0149
1172.00,0.0170
1171.00,0.0193
1170.00,0.0216
1169.00,0.0234
1168.00,0.0245
1167.00,0.0249
1166.00,0.0246
1165.00,0.0238
1164.00,0.0229
1163.00,0.0220
1162.00,0.0212
1161.00,0.0205
1160.00,0.0201
1159.00,0.0199
1158.00,0.0197
1157.00,0.0196
1156.00,0.0196
1155.00,0.0197
1154.00,0.0197
1153.00,0.0197
1152.00,0.0194
1151.00,0.0189
1150.00,0.0181
1149.00,0.0172
1148.00,0.0163
1147.00,0.0154
1146.00,0.0146
1145.00,0.0138
1144.00,0.0132
1143.00,0.0126
1142.00,0.0121
1141.00,0.0117
1140.00,0.0113
1139.00,0.0109
1138.00,0.0106
1137.00,0.0104
1136.00,0.0102
1135.00,0.0101
1134.00,0.0100
1133.00,0.0100
1132.00,0.0099
1131.00,0.0099
1130.00,0.0099
1129.00,0.0099
1128.00,0.0100
1127.00,0.0102
1126.00,0.0103
1125.00,0.0104
1124.00,0.0105
1123.00,0.0107
1122.00,0.0108
1121.00,0.0110
1120.00,0.0112
1119.00,0.0114
1118.00,0.0116
1117.00,0.0118
1116.00,0.0118
1115.00,0.0119
1114.00,0.0120
1113.00,0.0122
1112.00,0.0123
1111.00,0.0125
1110.00,0.0127
1109.00,0.0129
1108.00,0.0133
1107.00,0.0137
1106.00,0.0144
1105.00,0.0150
1104.00,0.0156
1103.00,0.0159
1102.00,0.0159
1101.00,0.0155
1100.00,0.0149
1099.00,0.0142
1098.00,0.0136
1097.00,0.0130
1096.00,0.0125
1095.00,0.0121
1094.00,0.0118
1093.00,0.0115
1092.00,0.0113
1091.00,0.0111
1090.00,0.0110
1089.00,0.0109
1088.00,0.0109
1087.00,0.0108
1086.00,0.0107
1085.00,0.0106
1084.00,0.0105
1083.00,0.0104
1082.00,0.0102
1081.00,0.0102
1080.00,0.0101
1079.00,0.0100
1078.00,0.0099
1077.00,0.0097
1076.00,0.0096
1075.00,0.0095
1074.00,0.0095
1073.00,0.0094
1072.00,0.0093
1071.00,0.0093
1070.00,0.0093
1069.00,0.0092
1068.00,0.0092
1067.00,0.0091
1066.00,0.0091
1065.00,0.0090
1064.00,0.0091
1063.00,0.0091
1062.00,0.0091
1061.00,0.0090
1060.00,0.0090
1059.00,0.0090
1058.00,0.0091
1057.00,0.0091
1056.00,0.0091
1055.00,0.0091
1054.00,0.0091
1053.00,0.0090
1052.00,0.0090
1051.00,0.0091
1050.00,0.0092
1049.00,0.0094
1048.00,0.0096
1047.00,0.0099
1046.00,0.0102
1045.00,0.0104
1044.00,0.0105
1043.00,0.0106
1042.00,0.0105
1041.00,0.0104
1040.00,0.0102
1039.00,0.0101
1038.00,0.0100
1037.00,0.0099
1036.00,0.0099
1035.00,0.0099
1034.00,0.0099
1033.00,0.0099
1032.00,0.0098
1031.00,0.0097
1030.00,0.0095
1029.00,0.0093
1028.00,0.0092
1027.00,0.0091
1026.00,0.0091
1025.00,0.0091
1024.00,0.0092
1023.00,0.0093
1022.00,0.0093
1021.00,0.0093
1020.00,0.0093
1019.00,0.0093
1018.00,0.0094
1017.00,0.0094
1016.00,0.0095
1015.00,0.0096
1014.00,0.0097
1013.00,0.0097
1012.00,0.0098
1011.00,0.0100
1010.00,0.0101
1009.00,0.0103
1008.00,0.0106
1007.00,0.0110
1006.00,0.0116
1005.00,0.0125
1004.00,0.0136
1003.00,0.0152
1002.00,0.0173
1001.00,0.0199
1000.00,0.0225
999.00,0.0247
998.00,0.0255
997.00,0.0249
996.00,0.0229
995.00,0.0203
994.00,0.0175
993.00,0.0152
992.00,0.0134
991.00,0.0121
990.00,0.0112
989.00,0.0107
988.00,0.0103
987.00,0.0101
986.00,0.0101
985.00,0.0103
984.00,0.0107
983.00,0.0114
982.00,0.0124
981.00,0.0137
980.00,0.0155
979.00,0.0179
978.00,0.0207
977.00,0.0240
976.00,0.0274
975.00,0.0304
974.00,0.0324
973.00,0.0329
972.00,0.0315
971.00,0.0286
970.00,0.0250
969.00,0.0214
968.00,0.0183
967.00,0.0160
966.00,0.0143
965.00,0.0130
964.00,0.0119
963.00,0.0111
962.00,0.0105
961.00,0.0100
960.00,0.0096
959.00,0.0093
958.00,0.0091
957.00,0.0089
956.00,0.0087
955.00,0.0085
954.00,0.0084
953.00,0.0084
952.00,0.0084
951.00,0.0084
950.00,0.0084
949.00,0.0084
948.00,0.0084
947.00,0.0085
946.00,0.0088
945.00,0.0090
944.00,0.0094
943.00,0.0097
942.00,0.0101
941.00,0.0103
940.00,0.0104
939.00,0.0102
938.00,0.0097
937.00,0.0090
936.00,0.0084
935.00,0.0079
934.00,0.0076
933.00,0.0074
932.00,0.0073
931.00,0.0072
930.00,0.0070
929.00,0.0069
928.00,0.0069
927.00,0.0069
926.00,0.0069
925.00,0.0068
924.00,0.0067
923.00,0.0066
922.00,0.0066
921.00,0.0067
920.00,0.0068
919.00,0.0069
918.00,0.0069
917.00,0.0069
916.00,0.0069
915.00,0.0068
914.00,0.0069
913.00,0.0070
912.00,0.0072
911.00,0.0075
910.00,0.0078
909.00,0.0081
908.00,0.0085
907.00,0.0090
906.00,0.0097
905.00,0.0107
904.00,0.0122
903.00,0.0140
902.00,0.0162
901.00,0.0181
900.00,0.0194
899.00,0.0196
898.00,0.0188
897.00,0.0171
896.00,0.0150
895.00,0.0130
894.00,0.0114
893.00,0.0103
892.00,0.0095
891.00,0.0089
890.00,0.0086
889.00,0.0084
888.00,0.0082
887.00,0.0080
886.00,0.0079
885.00,0.0078
884.00,0.0078
883.00,0.0077
882.00,0.0077
881.00,0.0076
880.00,0.0076
879.00,0.0077
878.00,0.0078
877.00,0.0080
876.00,0.0081
875.00,0.0082
874.00,0.0082
873.00,0.0081
872.00,0.0080
871.00,0.0079
870.00,0.0078
869.00,0.0078
868.00,0.0079
867.00,0.0081
866.00,0.0083
865.00,0.0084
864.00,0.0085
863.00,0.0086
862.00,0.0086
861.00,0.0087
860.00,0.0088
859.00,0.0089
858.00,0.0090
857.00,0.0091
856.00,0.0092
855.00,0.0092
854.00,0.0093
853.00,0.0095
852.00,0.0097
851.00,0.0099
850.00,0.0103
849.00,0.0107
848.00,0.0113
847.00,0.0122
846.00,0.0136
845.00,0.0157
844.00,0.0185
843.00,0.0217
842.00,0.0241
841.00,0.0246
840.00,0.0230
839.00,0.0201
838.00,0.0169
837.00,0.0144
836.00,0.0128
835.00,0.0118
834.00,0.0112
833.00,0.0109
832.00,0.0106
831.00,0.0104
830.00,0.0103
829.00,0.0102
828.00,0.0103
827.00,0.0104
826.00,0.0105
825.00,0.0105
824.00,0.0106
823.00,0.0106
822.00,0.0107
821.00,0.0109
820.00,0.0111
819.00,0.0113
818.00,0.0117
817.00,0.0124
816.00,0.0133
815.00,0.0146
814.00,0.0164
813.00,0.0184
812.00,0.0205
811.00,0.0224
810.00,0.0238
809.00,0.0244
808.00,0.0242
807.00,0.0230
806.00,0.0212
805.00,0.0190
804.00,0.0169
803.00,0.0153
802.00,0.0140
801.00,0.0132
800.00,0.0126
799.00,0.0121
798.00,0.0117
797.00,0.0115
796.00,0.0112
795.00,0.0109
794.00,0.0105
793.00,0.0101
792.00,0.0098
791.00,0.0095
790.00,0.0092
789.00,0.0089
788.00,0.0087
787.00,0.0084
786.00,0.0082
785.00,0.0081
784.00,0.0079
783.00,0.0078
782.00,0.0076
781.00,0.0075
780.00,0.0075
779.00,0.0074
778.00,0.0074
777.00,0.0073
776.00,0.0072
775.00,0.0070
774.00,0.0069
773.00,0.0069
772.00,0.0071
771.00,0.0073
770.00,0.0075
769.00,0.0077
768.00,0.0078
767.00,0.0078
766.00,0.0078
765.00,0.0076
764.00,0.0074
763.00,0.0073
762.00,0.0073
761.00,0.0075
760.00,0.0076
759.00,0.0078
758.00,0.0079
757.00,0.0080
756.00,0.0081
755.00,0.0081
754.00,0.0081
753.00,0.0081
752.00,0.0082
751.00,0.0083
750.00,0.0086
749.00,0.0087
748.00,0.0088
747.00,0.0088
746.00,0.0088
745.00,0.0090
744.00,0.0092
743.00,0.0095
742.00,0.0099
741.00,0.0103
740.00,0.0107
739.00,0.0111
738.00,0.0114
737.00,0.0117
736.00,0.0120
735.00,0.0125
734.00,0.0132
733.00,0.0140
732.00,0.0149
731.00,0.0158
730.00,0.0164
729.00,0.0168
728.00,0.0168
727.00,0.0168
726.00,0.0169
725.00,0.0172
724.00,0.0178
723.00,0.0186
722.00,0.0194
721.00,0.0200
720.00,0.0200
719.00,0.0191
718.00,0.0176
717.00,0.0159
716.00,0.0145
715.00,0.0134
714.00,0.0127
713.00,0.0122
712.00,0.0119
711.00,0.0118
710.00,0.0118
709.00,0.0118
708.00,0.0118
707.00,0.0117
706.00,0.0115
705.00,0.0113
704.00,0.0111
703.00,0.0109
702.00,0.0107
701.00,0.0104
700.00,0.0102
699.00,0.0100
698.00,0.0099
697.00,0.0098
696.00,0.0097
695.00,0.0097
694.00,0.0099
693.00,0.0100
692.00,0.0100
691.00,0.0099
690.00,0.0097
689.00,0.0095
688.00,0.0093
687.00,0.0094
686.00,0.0096
685.00,0.0097
684.00,0.0098
683.00,0.0098
682.00,0.0098
681.00,0.0098
680.00,0.0097
679.00,0.0097
678.00,0.0098
677.00,0.0098
676.00,0.0099
675.00,0.0099
674.00,0.0099
673.00,0.0097
672.00,0.0095
671.00,0.0094
670.00,0.0094
669.00,0.0095
668.00,0.0096
667.00,0.0097
666.00,0.0096
665.00,0.0094
664.00,0.0093
663.00,0.0091
662.00,0.0091
661.00,0.0092
660.00,0.0094
659.00,0.0095
658.00,0.0094
657.00,0.0093
656.00,0.0094
655.00,0.0094
654.00,0.0094
653.00,0.0093
652.00,0.0092
651.00,0.0090
650.00,0.0090
649.00,0.0090
648.00,0.0091
647.00,0.0091
646.00,0.0090
645.00,0.0090
644.00,0.0090
643.00,0.0091
642.00,0.0091
641.00,0.0090
640.00,0.0089
639.00,0.0089
638.00,0.0088
637.00,0.0089
636.00,0.0091
635.00,0.0093
634.00,0.0095
633.00,0.0095
632.00,0.0095
631.00,0.0094
630.00,0.0093
629.00,0.0092
628.00,0.0092
627.00,0.0092
626.00,0.0091
625.00,0.0091
624.00,0.0091
623.00,0.0089
622.00,0.0088
621.00,0.0089
620.00,0.0091
619.00,0.0093
618.00,0.0095
617.00,0.0095
616.00,0.0093
615.00,0.0090
614.00,0.0087
613.00,0.0085
612.00,0.0085
611.00,0.0086
610.00,0.0085
609.00,0.0084
608.00,0.0083
607.00,0.0082
606.00,0.0082
605.00,0.0082
604.00,0.0082
603.00,0.0084
602.00,0.0086
601.00,0.0089
600.00,0.0091
599.00,0.0092
598.00,0.0093
597.00,0.0091
596.00,0.0089
595.00,0.0088
594.00,0.0089
593.00,0.0091
592.00,0.0092
591.00,0.0093
590.00,0.0092
589.00,0.0092
588.00,0.0093
587.00,0.0094
586.00,0.0094
585.00,0.0092
584.00,0.0088
583.00,0.0085
582.00,0.0085
581.00,0.0087
580.00,0.0090
579.00,0.0092
578.00,0.0095
577.00,0.0096
576.00,0.0095
575.00,0.0093
574.00,0.0095
573.00,0.0099
572.00,0.0103
571.00,0.0103
570.00,0.0099
569.00,0.0094
568.00,0.0091
567.00,0.0090
566.00,0.0091
565.00,0.0092
564.00,0.0092
563.00,0.0090
562.00,0.0087
561.00,0.0085
560.00,0.0083
559.00,0.0083
558.00,0.0085
557.00,0.0089
556.00,0.0092
555.00,0.0093
554.00,0.0089
553.00,0.0084
552.00,0.0079
551.00,0.0076
550.00,0.0076
549.00,0.0078
548.00,0.0080
547.00,0.0081
546.00,0.0081
545.00,0.0080
544.00,0.0079
543.00,0.0080
542.00,0.0082
541.00,0.0084
540.00,0.0085
539.00,0.0085
538.00,0.0088
537.00,0.0094
536.00,0.0101
535.00,0.0105
534.00,0.0104
533.00,0.0100
532.00,0.0097
531.00,0.0094
530.00,0.0091
529.00,0.0090
528.00,0.0095
527.00,0.0103
526.00,0.0110
525.00,0.0112
524.00,0.0110
523.00,0.0105
522.00,0.0102
521.00,0.0101
520.00,0.0101
519.00,0.0101
518.00,0.0099
517.00,0.0096
516.00,0.0095
515.00,0.0095
514.00,0.0095
513.00,0.0095
512.00,0.0094
511.00,0.0091
510.00,0.0087
509.00,0.0087
508.00,0.0091
507.00,0.0095
506.00,0.0096
505.00,0.0094
504.00,0.0093
503.00,0.0095
502.00,0.0094
501.00,0.0090
500.00,0.0086
499.00,0.0086
498.00,0.0086
497.00,0.0083
496.00,0.0079
495.00,0.0080
494.00,0.0089
493.00,0.0100
492.00,0.0107
491.00,0.0105
490.00,0.0095
489.00,0.0080
488.00,0.0067
487.00,0.0063
486.00,0.0067
485.00,0.0077
484.00,0.0084
483.00,0.0084
482.00,0.0079
481.00,0.0075
480.00,0.0078
479.00,0.0087
478.00,0.0096
477.00,0.0104
476.00,0.0108
475.00,0.0107
474.00,0.0100
473.00,0.0088
472.00,0.0082
471.00,0.0088
470.00,0.0099
469.00,0.0106
468.00,0.0106
467.00,0.0104
466.00,0.0106
465.00,0.0113
464.00,0.0124
463.00,0.0138
462.00,0.0150
461.00,0.0159
460.00,0.0162
459.00,0.0158
458.00,0.0155
457.00,0.0150
456.00,0.0142
455.00,0.0131
454.00,0.0119
453.00,0.0109
452.00,0.0107
451.00,0.0114
450.00,0.0125
