Created as New Dataset,Sample 021 By Administrator Date Wednesday, September 03 2025
cm-1,A
4000.00,0.0012
3999.00,0.0012
3998.00,0.0012
3997.00,0.0012
3996.00,0.0011
3995.00,0.0011
3994.00,0.0011
3993.00,0.0011
3992.00,0.0011
3991.00,0.0011
3990.00,0.0011
3989.00,0.0011
3988.00,0.0010
3987.00,0.0010
3986.00,0.0011
3985.00,0.0011
3984.00,0.0011
3983.00,0.0011
3982.00,0.0010
3981.00,0.0010
3980.00,0.0010
3979.00,0.0010
3978.00,0.0010
3977.00,0.0010
3976.00,0.0010
3975.00,0.0010
3974.00,0.0010
3973.00,0.0009
3972.00,0.0009
3971.00,0.0009
3970.00,0.0009
3969.00,0.0009
3968.00,0.0009
3967.00,0.0010
3966.00,0.0010
3965.00,0.0010
3964.00,0.0010
3963.00,0.0010
3962.00,0.0010
3961.00,0.0010
3960.00,0.0010
3959.00,0.0010
3958.00,0.0010
3957.00,0.0010
3956.00,0.0010
3955.00,0.0010
3954.00,0.0010
3953.00,0.0009
3952.00,0.0009
3951.00,0.0009
3950.00,0.0009
3949.00,0.0009
3948.00,0.0009
3947.00,0.0009
3946.00,0.0009
3945.00,0.0009
3944.00,0.0009
3943.00,0.0009
3942.00,0.0009
3941.00,0.0009
3940.00,0.0009
3939.00,0.0009
3938.00,0.0009
3937.00,0.0010
3936.00,0.0010
3935.00,0.0011
3934.00,0.0011
3933.00,0.0012
3932.00,0.0012
3931.00,0.0011
3930.00,0.0011
3929.00,0.0011
3928.00,0.0011
3927.00,0.0011
3926.00,0.0011
3925.00,0.0012
3924.00,0.0012
3923.00,0.0011
3922.00,0.0011
3921.00,0.0010
3920.00,0.0010
3919.00,0.0010
3918.00,0.0010
3917.00,0.0010
3916.00,0.0010
3915.00,0.0010
3914.00,0.0010
3913.00,0.0010
3912.00,0.0011
3911.00,0.0011
3910.00,0.0011
3909.00,0.0011
3908.00,0.0010
3907.00,0.0009
3906.00,0.0009
3905.00,0.0010
3904.00,0.0010
3903.00,0.0010
3902.00,0.0010
3901.00,0.0010
3900.00,0.0010
3899.00,0.0010
3898.00,0.0010
3897.00,0.0010
3896.00,0.0010
3895.00,0.0009
3894.00,0.0009
3893.00,0.0009
3892.00,0.0009
3891.00,0.0009
3890.00,0.0009
3889.00,0.0009
3888.00,0.0009
3887.00,0.0009
3886.00,0.0009
3885.00,0.0010
3884.00,0.0010
3883.00,0.0009
3882.00,0.0009
3881.00,0.0009
3880.00,0.0010
3879.00,0.0010
3878.00,0.0010
3877.00,0.0009
3876.00,0.0009
3875.00,0.0009
3874.00,0.0009
3873.00,0.0009
3872.00,0.0009
3871.00,0.0009
3870.00,0.0009
3869.00,0.0009
3868.00,0.0009
3867.00,0.0009
3866.00,0.0009
3865.00,0.0009
3864.00,0.0009
3863.00,0.0010
3862.00,0.0010
3861.00,0.0010
3860.00,0.0011
3859.00,0.0011
3858.00,0.0011
3857.00,0.0010
3856.00,0.0010
3855.00,0.0010
3854.00,0.0010
3853.00,0.0009
3852.00,0.0009
3851.00,0.0009
3850.00,0.0009
3849.00,0.0009
3848.00,0.0009
3847.00,0.0009
3846.00,0.0009
3845.00,0.0009
3844.00,0.0009
3843.00,0.0009
3842.00,0.0010
3841.00,0.0009
3840.00,0.0009
3839.00,0.0009
3838.00,0.0009
3837.00,0.0010
3836.00,0.0009
3835.00,0.0009
3834.00,0.0009
3833.00,0.0009
3832.00,0.0009
3831.00,0.0009
3830.00,0.0010
3829.00,0.0010
3828.00,0.0010
3827.00,0.0010
3826.00,0.0011
3825.00,0.0011
3824.00,0.0011
3823.00,0.0010
3822.00,0.0011
3821.00,0.0011
3820.00,0.0010
3819.00,0.0010
3818.00,0.0009
3817.00,0.0008
3816.00,0.0009
3815.00,0.0009
3814.00,0.0010
3813.00,0.0010
3812.00,0.0011
3811.00,0.0011
3810.00,0.0011
3809.00,0.0010
3808.00,0.0010
3807.00,0.0010
3806.00,0.0010
3805.00,0.0010
3804.00,0.0009
3803.00,0.0009
3802.00,0.0010
3801.00,0.0010
3800.00,0.0010
3799.00,0.0009
3798.00,0.0008
3797.00,0.0008
3796.00,0.0009
3795.00,0.0009
3794.00,0.0009
3793.00,0.0009
3792.00,0.0009
3791.00,0.0010
3790.00,0.0010
3789.00,0.0010
3788.00,0.0010
3787.00,0.0010
3786.00,0.0010
3785.00,0.0010
3784.00,0.0009
3783.00,0.0009
3782.00,0.0009
3781.00,0.0009
3780.00,0.0009
3779.00,0.0010
3778.00,0.0010
3777.00,0.0010
3776.00,0.0011
3775.00,0.0011
3774.00,0.0011
3773.00,0.0010
3772.00,0.0010
3771.00,0.0010
3770.00,0.0010
3769.00,0.0010
3768.00,0.0010
3767.00,0.0010
3766.00,0.0010
3765.00,0.0011
3764.00,0.0011
3763.00,0.0011
3762.00,0.0011
3761.00,0.0010
3760.00,0.0010
3759.00,0.0010
3758.00,0.0010
3757.00,0.0010
3756.00,0.0010
3755.00,0.0009
3754.00,0.0009
3753.00,0.0009
3752.00,0.0008
3751.00,0.0008
3750.00,0.0008
3749.00,0.0008
3748.00,0.0009
3747.00,0.0008
3746.00,0.0008
3745.00,0.0009
3744.00,0.0010
3743.00,0.0010
3742.00,0.0010
3741.00,0.0010
3740.00,0.0010
3739.00,0.0010
3738.00,0.0009
3737.00,0.0009
3736.00,0.0009
3735.00,0.0009
3734.00,0.0008
3733.00,0.0008
3732.00,0.0008
3731.00,0.0008
3730.00,0.0008
3729.00,0.0008
3728.00,0.0008
3727.00,0.0008
3726.00,0.0009
3725.00,0.0009
3724.00,0.0009
3723.00,0.0009
3722.00,0.0009
3721.00,0.0008
3720.00,0.0008
3719.00,0.0008
3718.00,0.0008
3717.00,0.0008
3716.00,0.0008
3715.00,0.0008
3714.00,0.0009
3713.00,0.0009
3712.00,0.0009
3711.00,0.0008
3710.00,0.0008
3709.00,0.0007
3708.00,0.0007
3707.00,0.0007
3706.00,0.0008
3705.00,0.0008
3704.00,0.0009
3703.00,0.0009
3702.00,0.0010
3701.00,0.0010
3700.00,0.0010
3699.00,0.0010
3698.00,0.0010
3697.00,0.0010
3696.00,0.0011
3695.00,0.0011
3694.00,0.0011
3693.00,0.0011
3692.00,0.0011
3691.00,0.0012
3690.00,0.0012
3689.00,0.0012
3688.00,0.0013
3687.00,0.0013
3686.00,0.0013
3685.00,0.0014
3684.00,0.0015
3683.00,0.0016
3682.00,0.0017
3681.00,0.0018
3680.00,0.0019
3679.00,0.0020
3678.00,0.0021
3677.00,0.0022
3676.00,0.0023
3675.00,0.0024
3674.00,0.0025
3673.00,0.0025
3672.00,0.0025
3671.00,0.0026
3670.00,0.0026
3669.00,0.0026
3668.00,0.0026
3667.00,0.0026
3666.00,0.0027
3665.00,0.0028
3664.00,0.0029
3663.00,0.0030
3662.00,0.0030
3661.00,0.0031
3660.00,0.0031
3659.00,0.0030
3658.00,0.0030
3657.00,0.0030
3656.00,0.0031
3655.00,0.0031
3654.00,0.0031
3653.00,0.0031
3652.00,0.0031
3651.00,0.0031
3650.00,0.0030
3649.00,0.0029
3648.00,0.0028
3647.00,0.0027
3646.00,0.0027
3645.00,0.0026
3644.00,0.0026
3643.00,0.0025
3642.00,0.0025
3641.00,0.0025
3640.00,0.0025
3639.00,0.0026
3638.00,0.0026
3637.00,0.0026
3636.00,0.0025
3635.00,0.0023
3634.00,0.0021
3633.00,0.0019
3632.00,0.0018
3631.00,0.0017
3630.00,0.0016
3629.00,0.0016
3628.00,0.0016
3627.00,0.0016
3626.00,0.0016
3625.00,0.0016
3624.00,0.0017
3623.00,0.0017
3622.00,0.0017
3621.00,0.0017
3620.00,0.0017
3619.00,0.0016
3618.00,0.0016
3617.00,0.0016
3616.00,0.0016
3615.00,0.0016
3614.00,0.0016
3613.00,0.0016
3612.00,0.0016
3611.00,0.0016
3610.00,0.0016
3609.00,0.0016
3608.00,0.0016
3607.00,0.0016
3606.00,0.0016
3605.00,0.0016
3604.00,0.0017
3603.00,0.0017
3602.00,0.0018
3601.00,0.0018
3600.00,0.0018
3599.00,0.0018
3598.00,0.0018
3597.00,0.0018
3596.00,0.0018
3595.00,0.0018
3594.00,0.0019
3593.00,0.0019
3592.00,0.0018
3591.00,0.0018
3590.00,0.0018
3589.00,0.0019
3588.00,0.0019
3587.00,0.0020
3586.00,0.0020
3585.00,0.0020
3584.00,0.0020
3583.00,0.0020
3582.00,0.0021
3581.00,0.0021
3580.00,0.0022
3579.00,0.0022
3578.00,0.0023
3577.00,0.0023
3576.00,0.0023
3575.00,0.0023
3574.00,0.0023
3573.00,0.0023
3572.00,0.0024
3571.00,0.0024
3570.00,0.0025
3569.00,0.0025
3568.00,0.0026
3567.00,0.0027
3566.00,0.0027
3565.00,0.0026
3564.00,0.0026
3563.00,0.0026
3562.00,0.0026
3561.00,0.0027
3560.00,0.0027
3559.00,0.0027
3558.00,0.0027
3557.00,0.0027
3556.00,0.0027
3555.00,0.0028
3554.00,0.0028
3553.00,0.0028
3552.00,0.0028
3551.00,0.0029
3550.00,0.0029
3549.00,0.0029
3548.00,0.0029
3547.00,0.0030
3546.00,0.0030
3545.00,0.0030
3544.00,0.0030
3543.00,0.0031
3542.00,0.0031
3541.00,0.0031
3540.00,0.0031
3539.00,0.0031
3538.00,0.0031
3537.00,0.0031
3536.00,0.0031
3535.00,0.0031
3534.00,0.0032
3533.00,0.0032
3532.00,0.0032
3531.00,0.0032
3530.00,0.0032
3529.00,0.0032
3528.00,0.0032
3527.00,0.0032
3526.00,0.0033
3525.00,0.0033
3524.00,0.0033
3523.00,0.0033
3522.00,0.0033
3521.00,0.0034
3520.00,0.0034
3519.00,0.0034
3518.00,0.0035
3517.00,0.0035
3516.00,0.0035
3515.00,0.0035
3514.00,0.0036
3513.00,0.0036
3512.00,0.0036
3511.00,0.0036
3510.00,0.0037
3509.00,0.0037
3508.00,0.0037
3507.00,0.0037
3506.00,0.0037
3505.00,0.0038
3504.00,0.0038
3503.00,0.0038
3502.00,0.0038
3501.00,0.0037
3500.00,0.0037
3499.00,0.0038
3498.00,0.0038
3497.00,0.0039
3496.00,0.0039
3495.00,0.0039
3494.00,0.0039
3493.00,0.0039
3492.00,0.0040
3491.00,0.0040
3490.00,0.0041
3489.00,0.0041
3488.00,0.0041
3487.00,0.0041
3486.00,0.0041
3485.00,0.0042
3484.00,0.0042
3483.00,0.0042
3482.00,0.0042
3481.00,0.0043
3480.00,0.0043
3479.00,0.0043
3478.00,0.0043
3477.00,0.0043
3476.00,0.0043
3475.00,0.0043
3474.00,0.0043
3473.00,0.0043
3472.00,0.0044
3471.00,0.0044
3470.00,0.0045
3469.00,0.0045
3468.00,0.0045
3467.00,0.0046
3466.00,0.0046
3465.00,0.0046
3464.00,0.0046
3463.00,0.0047
3462.00,0.0047
3461.00,0.0047
3460.00,0.0047
3459.00,0.0047
3458.00,0.0047
3457.00,0.0047
3456.00,0.0047
3455.00,0.0047
3454.00,0.0047
3453.00,0.0047
3452.00,0.0047
3451.00,0.0048
3450.00,0.0048
3449.00,0.0049
3448.00,0.0049
3447.00,0.0049
3446.00,0.0050
3445.00,0.0050
3444.00,0.0050
3443.00,0.0050
3442.00,0.0050
3441.00,0.0050
3440.00,0.0050
3439.00,0.0051
3438.00,0.0051
3437.00,0.0052
3436.00,0.0052
3435.00,0.0052
3434.00,0.0052
3433.00,0.0052
3432.00,0.0052
3431.00,0.0052
3430.00,0.0052
3429.00,0.0052
3428.00,0.0052
3427.00,0.0053
3426.00,0.0053
3425.00,0.0053
3424.00,0.0053
3423.00,0.0053
3422.00,0.0053
3421.00,0.0054
3420.00,0.0054
3419.00,0.0054
3418.00,0.0054
3417.00,0.0054
3416.00,0.0054
3415.00,0.0054
3414.00,0.0055
3413.00,0.0055
3412.00,0.0055
3411.00,0.0055
3410.00,0.0056
3409.00,0.0056
3408.00,0.0056
3407.00,0.0056
3406.00,0.0056
3405.00,0.0056
3404.00,0.0056
3403.00,0.0056
3402.00,0.0056
3401.00,0.0056
3400.00,0.0056
3399.00,0.0057
3398.00,0.0057
3397.00,0.0057
3396.00,0.0057
3395.00,0.0057
3394.00,0.0057
3393.00,0.0057
3392.00,0.0057
3391.00,0.0057
3390.00,0.0057
3389.00,0.0057
3388.00,0.0057
3387.00,0.0057
3386.00,0.0057
3385.00,0.0057
3384.00,0.0057
3383.00,0.0057
3382.00,0.0057
3381.00,0.0057
3380.00,0.0057
3379.00,0.0057
3378.00,0.0057
3377.00,0.0057
3376.00,0.0057
3375.00,0.0057
3374.00,0.0057
3373.00,0.0057
3372.00,0.0057
3371.00,0.0057
3370.00,0.0058
3369.00,0.0058
3368.00,0.0058
3367.00,0.0058
3366.00,0.0058
3365.00,0.0058
3364.00,0.0058
3363.00,0.0058
3362.00,0.0058
3361.00,0.0058
3360.00,0.0058
3359.00,0.0058
3358.00,0.0058
3357.00,0.0058
3356.00,0.0058
3355.00,0.0058
3354.00,0.0058
3353.00,0.0058
3352.00,0.0059
3351.00,0.0059
3350.00,0.0059
3349.00,0.0059
3348.00,0.0059
3347.00,0.0059
3346.00,0.0059
3345.00,0.0059
3344.00,0.0058
3343.00,0.0058
3342.00,0.0058
3341.00,0.0058
3340.00,0.0058
3339.00,0.0058
3338.00,0.0058
3337.00,0.0058
3336.00,0.0059
3335.00,0.0058
3334.00,0.0058
3333.00,0.0058
3332.00,0.0058
3331.00,0.0057
3330.00,0.0057
3329.00,0.0057
3328.00,0.0056
3327.00,0.0056
3326.00,0.0056
3325.00,0.0056
3324.00,0.0056
3323.00,0.0056
3322.00,0.0056
3321.00,0.0055
3320.00,0.0055
3319.00,0.0055
3318.00,0.0055
3317.00,0.0055
3316.00,0.0056
3315.00,0.0056
3314.00,0.0057
3313.00,0.0057
3312.00,0.0057
3311.00,0.0057
3310.00,0.0056
3309.00,0.0056
3308.00,0.0056
3307.00,0.0057
3306.00,0.0057
3305.00,0.0057
3304.00,0.0057
3303.00,0.0057
3302.00,0.0057
3301.00,0.0057
3300.00,0.0056
3299.00,0.0056
3298.00,0.0056
3297.00,0.0055
3296.00,0.0055
3295.00,0.0055
3294.00,0.0055
3293.00,0.0055
3292.00,0.0055
3291.00,0.0055
3290.00,0.0055
3289.00,0.0055
3288.00,0.0055
3287.00,0.0054
3286.00,0.0054
3285.00,0.0054
3284.00,0.0054
3283.00,0.0054
3282.00,0.0054
3281.00,0.0053
3280.00,0.0053
3279.00,0.0053
3278.00,0.0053
3277.00,0.0053
3276.00,0.0053
3275.00,0.0053
3274.00,0.0053
3273.00,0.0053
3272.00,0.0052
3271.00,0.0052
3270.00,0.0052
3269.00,0.0052
3268.00,0.0051
3267.00,0.0051
3266.00,0.0051
3265.00,0.0050
3264.00,0.0051
3263.00,0.0051
3262.00,0.0051
3261.00,0.0051
3260.00,0.0051
3259.00,0.0051
3258.00,0.0050
3257.00,0.0050
3256.00,0.0049
3255.00,0.0049
3254.00,0.0049
3253.00,0.0050
3252.00,0.0050
3251.00,0.0050
3250.00,0.0050
3249.00,0.0050
3248.00,0.0050
3247.00,0.0049
3246.00,0.0049
3245.00,0.0049
3244.00,0.0048
3243.00,0.0048
3242.00,0.0048
3241.00,0.0048
3240.00,0.0048
3239.00,0.0048
3238.00,0.0049
3237.00,0.0049
3236.00,0.0049
3235.00,0.0049
3234.00,0.0049
3233.00,0.0050
3232.00,0.0050
3231.00,0.0050
3230.00,0.0050
3229.00,0.0049
3228.00,0.0049
3227.00,0.0049
3226.00,0.0050
3225.00,0.0050
3224.00,0.0050
3223.00,0.0050
3222.00,0.0050
3221.00,0.0050
3220.00,0.0051
3219.00,0.0051
3218.00,0.0051
3217.00,0.0051
3216.00,0.0051
3215.00,0.0052
3214.00,0.0052
3213.00,0.0053
3212.00,0.0053
3211.00,0.0053
3210.00,0.0053
3209.00,0.0053
3208.00,0.0053
3207.00,0.0053
3206.00,0.0053
3205.00,0.0053
3204.00,0.0053
3203.00,0.0053
3202.00,0.0053
3201.00,0.0053
3200.00,0.0053
3199.00,0.0053
3198.00,0.0053
3197.00,0.0053
3196.00,0.0053
3195.00,0.0053
3194.00,0.0053
3193.00,0.0052
3192.00,0.0052
3191.00,0.0052
3190.00,0.0052
3189.00,0.0052
3188.00,0.0051
3187.00,0.0051
3186.00,0.0051
3185.00,0.0051
3184.00,0.0051
3183.00,0.0051
3182.00,0.0051
3181.00,0.0050
3180.00,0.0050
3179.00,0.0050
3178.00,0.0050
3177.00,0.0050
3176.00,0.0049
3175.00,0.0049
3174.00,0.0049
3173.00,0.0048
3172.00,0.0048
3171.00,0.0048
3170.00,0.0048
3169.00,0.0048
3168.00,0.0047
3167.00,0.0047
3166.00,0.0046
3165.00,0.0046
3164.00,0.0046
3163.00,0.0046
3162.00,0.0046
3161.00,0.0045
3160.00,0.0045
3159.00,0.0045
3158.00,0.0045
3157.00,0.0045
3156.00,0.0045
3155.00,0.0045
3154.00,0.0045
3153.00,0.0045
3152.00,0.0045
3151.00,0.0045
3150.00,0.0045
3149.00,0.0045
3148.00,0.0045
3147.00,0.0045
3146.00,0.0045
3145.00,0.0045
3144.00,0.0044
3143.00,0.0044
3142.00,0.0044
3141.00,0.0044
3140.00,0.0044
3139.00,0.0044
3138.00,0.0043
3137.00,0.0043
3136.00,0.0043
3135.00,0.0043
3134.00,0.0042
3133.00,0.0042
3132.00,0.0041
3131.00,0.0041
3130.00,0.0041
3129.00,0.0041
3128.00,0.0041
3127.00,0.0041
3126.00,0.0041
3125.00,0.0041
3124.00,0.0041
3123.00,0.0041
3122.00,0.0040
3121.00,0.0040
3120.00,0.0040
3119.00,0.0039
3118.00,0.0039
3117.00,0.0039
3116.00,0.0039
3115.00,0.0038
3114.00,0.0038
3113.00,0.0038
3112.00,0.0038
3111.00,0.0038
3110.00,0.0038
3109.00,0.0038
3108.00,0.0038
3107.00,0.0038
3106.00,0.0037
3105.00,0.0037
3104.00,0.0037
3103.00,0.0037
3102.00,0.0037
3101.00,0.0037
3100.00,0.0037
3099.00,0.0037
3098.00,0.0037
3097.00,0.0037
3096.00,0.0037
3095.00,0.0037
3094.00,0.0037
3093.00,0.0037
3092.00,0.0037
3091.00,0.0037
3090.00,0.0037
3089.00,0.0037
3088.00,0.0037
3087.00,0.0037
3086.00,0.0037
3085.00,0.0036
3084.00,0.0036
3083.00,0.0036
3082.00,0.0037
3081.00,0.0037
3080.00,0.0037
3079.00,0.0037
3078.00,0.0037
3077.00,0.0037
3076.00,0.0037
3075.00,0.0037
3074.00,0.0038
3073.00,0.0037
3072.00,0.0037
3071.00,0.0037
3070.00,0.0037
3069.00,0.0037
3068.00,0.0037
3067.00,0.0037
3066.00,0.0037
3065.00,0.0038
3064.00,0.0038
3063.00,0.0038
3062.00,0.0038
3061.00,0.0039
3060.00,0.0039
3059.00,0.0039
3058.00,0.0039
3057.00,0.0039
3056.00,0.0039
3055.00,0.0039
3054.00,0.0039
3053.00,0.0040
3052.00,0.0040
3051.00,0.0041
3050.00,0.0041
3049.00,0.0041
3048.00,0.0041
3047.00,0.0041
3046.00,0.0042
3045.00,0.0042
3044.00,0.0042
3043.00,0.0042
3042.00,0.0042
3041.00,0.0042
3040.00,0.0042
3039.00,0.0043
3038.00,0.0043
3037.00,0.0043
3036.00,0.0044
3035.00,0.0044
3034.00,0.0044
3033.00,0.0044
3032.00,0.0044
3031.00,0.0045
3030.00,0.0045
3029.00,0.0046
3028.00,0.0048
3027.00,0.0048
3026.00,0.0049
3025.00,0.0050
3024.00,0.0051
3023.00,0.0052
3022.00,0.0053
3021.00,0.0055
3020.00,0.0056
3019.00,0.0058
3018.00,0.0060
3017.00,0.0062
3016.00,0.0065
3015.00,0.0068
3014.00,0.0072
3013.00,0.0076
3012.00,0.0081
3011.00,0.0086
3010.00,0.0092
3009.00,0.0099
3008.00,0.0105
3007.00,0.0113
3006.00,0.0120
3005.00,0.0128
3004.00,0.0135
3003.00,0.0143
3002.00,0.0151
3001.00,0.0159
3000.00,0.0167
2999.00,0.0175
2998.00,0.0182
2997.00,0.0189
2996.00,0.0196
2995.00,0.0204
2994.00,0.0211
2993.00,0.0219
2992.00,0.0227
2991.00,0.0235
2990.00,0.0244
2989.00,0.0254
2988.00,0.0265
2987.00,0.0279
2986.00,0.0298
2985.00,0.0324
2984.00,0.0354
2983.00,0.0385
2982.00,0.0412
2981.00,0.0432
2980.00,0.0446
2979.00,0.0459
2978.00,0.0473
2977.00,0.0493
2976.00,0.0519
2975.00,0.0554
2974.00,0.0597
2973.00,0.0648
2972.00,0.0704
2971.00,0.0764
2970.00,0.0827
2969.00,0.0895
2968.00,0.0971
2967.00,0.1054
2966.00,0.1145
2965.00,0.1239
2964.00,0.1334
2963.00,0.1425
2962.00,0.1507
2961.00,0.1575
2960.00,0.1628
2959.00,0.1668
2958.00,0.1698
2957.00,0.1725
2956.00,0.1755
2955.00,0.1789
2954.00,0.1829
2953.00,0.1869
2952.00,0.1901
2951.00,0.1917
2950.00,0.1906
2949.00,0.1865
2948.00,0.1791
2947.00,0.1691
2946.00,0.1575
2945.00,0.1454
2944.00,0.1340
2943.00,0.1243
2942.00,0.1168
2941.00,0.1116
2940.00,0.1087
2939.00,0.1078
2938.00,0.1088
2937.00,0.1114
2936.00,0.1156
2935.00,0.1212
2934.00,0.1280
2933.00,0.1360
2932.00,0.1449
2931.00,0.1544
2930.00,0.1645
2929.00,0.1747
2928.00,0.1848
2927.00,0.1947
2926.00,0.2043
2925.00,0.2134
2924.00,0.2221
2923.00,0.2306
2922.00,0.2389
2921.00,0.2467
2920.00,0.2534
2919.00,0.2581
2918.00,0.2601
2917.00,0.2587
2916.00,0.2541
2915.00,0.2467
2914.00,0.2377
2913.00,0.2282
2912.00,0.2191
2911.00,0.2109
2910.00,0.2038
2909.00,0.1976
2908.00,0.1919
2907.00,0.1865
2906.00,0.1810
2905.00,0.1754
2904.00,0.1695
2903.00,0.1634
2902.00,0.1572
2901.00,0.1511
2900.00,0.1450
2899.00,0.1393
2898.00,0.1339
2897.00,0.1289
2896.00,0.1244
2895.00,0.1206
2894.00,0.1173
2893.00,0.1147
2892.00,0.1127
2891.00,0.1111
2890.00,0.1098
2889.00,0.1090
2888.00,0.1084
2887.00,0.1082
2886.00,0.1083
2885.00,0.1088
2884.00,0.1096
2883.00,0.1107
2882.00,0.1120
2881.00,0.1135
2880.00,0.1148
2879.00,0.1160
2878.00,0.1165
2877.00,0.1165
2876.00,0.1159
2875.00,0.1151
2874.00,0.1146
2873.00,0.1146
2872.00,0.1152
2871.00,0.1164
2870.00,0.1180
2869.00,0.1194
2868.00,0.1201
2867.00,0.1194
2866.00,0.1168
2865.00,0.1123
2864.00,0.1061
2863.00,0.0992
2862.00,0.0924
2861.00,0.0863
2860.00,0.0816
2859.00,0.0782
2858.00,0.0762
2857.00,0.0753
2856.00,0.0753
2855.00,0.0761
2854.00,0.0776
2853.00,0.0794
2852.00,0.0815
2851.00,0.0833
2850.00,0.0849
2849.00,0.0861
2848.00,0.0871
2847.00,0.0885
2846.00,0.0907
2845.00,0.0938
2844.00,0.0980
2843.00,0.1031
2842.00,0.1084
2841.00,0.1134
2840.00,0.1173
2839.00,0.1193
2838.00,0.1189
2837.00,0.1154
2836.00,0.1092
2835.00,0.1006
2834.00,0.0907
2833.00,0.0804
2832.00,0.0706
2831.00,0.0619
2830.00,0.0546
2829.00,0.0485
2828.00,0.0436
2827.00,0.0397
2826.00,0.0364
2825.00,0.0337
2824.00,0.0315
2823.00,0.0295
2822.00,0.0278
2821.00,0.0264
2820.00,0.0251
2819.00,0.0240
2818.00,0.0231
2817.00,0.0222
2816.00,0.0215
2815.00,0.0208
2814.00,0.0202
2813.00,0.0196
2812.00,0.0191
2811.00,0.0185
2810.00,0.0180
2809.00,0.0175
2808.00,0.0169
2807.00,0.0163
2806.00,0.0157
2805.00,0.0151
2804.00,0.0146
2803.00,0.0140
2802.00,0.0135
2801.00,0.0131
2800.00,0.0127
2799.00,0.0124
2798.00,0.0122
2797.00,0.0120
2796.00,0.0117
2795.00,0.0115
2794.00,0.0112
2793.00,0.0110
2792.00,0.0107
2791.00,0.0103
2790.00,0.0099
2789.00,0.0096
2788.00,0.0093
2787.00,0.0090
2786.00,0.0087
2785.00,0.0084
2784.00,0.0081
2783.00,0.0079
2782.00,0.0077
2781.00,0.0075
2780.00,0.0073
2779.00,0.0072
2778.00,0.0070
2777.00,0.0069
2776.00,0.0068
2775.00,0.0067
2774.00,0.0066
2773.00,0.0065
2772.00,0.0065
2771.00,0.0064
2770.00,0.0064
2769.00,0.0064
2768.00,0.0064
2767.00,0.0063
2766.00,0.0063
2765.00,0.0062
2764.00,0.0062
2763.00,0.0062
2762.00,0.0061
2761.00,0.0061
2760.00,0.0060
2759.00,0.0060
2758.00,0.0059
2757.00,0.0059
2756.00,0.0058
2755.00,0.0059
2754.00,0.0059
2753.00,0.0059
2752.00,0.0058
2751.00,0.0058
2750.00,0.0058
2749.00,0.0058
2748.00,0.0058
2747.00,0.0058
2746.00,0.0058
2745.00,0.0059
2744.00,0.0060
2743.00,0.0061
2742.00,0.0062
2741.00,0.0063
2740.00,0.0064
2739.00,0.0065
2738.00,0.0066
2737.00,0.0067
2736.00,0.0068
2735.00,0.0069
2734.00,0.0071
2733.00,0.0072
2732.00,0.0074
2731.00,0.0076
2730.00,0.0078
2729.00,0.0080
2728.00,0.0083
2727.00,0.0085
2726.00,0.0088
2725.00,0.0089
2724.00,0.0091
2723.00,0.0091
2722.00,0.0090
2721.00,0.0088
2720.00,0.0086
2719.00,0.0083
2718.00,0.0080
2717.00,0.0077
2716.00,0.0074
2715.00,0.0072
2714.00,0.0069
2713.00,0.0067
2712.00,0.0065
2711.00,0.0064
2710.00,0.0062
2709.00,0.0061
2708.00,0.0060
2707.00,0.0058
2706.00,0.0057
2705.00,0.0056
2704.00,0.0055
2703.00,0.0055
2702.00,0.0054
2701.00,0.0053
2700.00,0.0052
2699.00,0.0052
2698.00,0.0051
2697.00,0.0051
2696.00,0.0051
2695.00,0.0051
2694.00,0.0051
2693.00,0.0051
2692.00,0.0051
2691.00,0.0051
2690.00,0.0051
2689.00,0.0051
2688.00,0.0051
2687.00,0.0051
2686.00,0.0051
2685.00,0.0051
2684.00,0.0051
2683.00,0.0051
2682.00,0.0052
2681.00,0.0052
2680.00,0.0052
2679.00,0.0052
2678.00,0.0052
2677.00,0.0052
2676.00,0.0052
2675.00,0.0051
2674.00,0.0051
2673.00,0.0051
2672.00,0.0051
2671.00,0.0051
2670.00,0.0051
2669.00,0.0052
2668.00,0.0052
2667.00,0.0052
2666.00,0.0052
2665.00,0.0052
2664.00,0.0053
2663.00,0.0053
2662.00,0.0054
2661.00,0.0055
2660.00,0.0055
2659.00,0.0055
2658.00,0.0055
2657.00,0.0055
2656.00,0.0054
2655.00,0.0054
2654.00,0.0053
2653.00,0.0052
2652.00,0.0052
2651.00,0.0051
2650.00,0.0051
2649.00,0.0050
2648.00,0.0050
2647.00,0.0050
2646.00,0.0049
2645.00,0.0049
2644.00,0.0048
2643.00,0.0048
2642.00,0.0047
2641.00,0.0047
2640.00,0.0047
2639.00,0.0046
2638.00,0.0045
2637.00,0.0045
2636.00,0.0044
2635.00,0.0044
2634.00,0.0044
2633.00,0.0044
2632.00,0.0044
2631.00,0.0044
2630.00,0.0044
2629.00,0.0044
2628.00,0.0044
2627.00,0.0044
2626.00,0.0044
2625.00,0.0045
2624.00,0.0045
2623.00,0.0045
2622.00,0.0045
2621.00,0.0045
2620.00,0.0045
2619.00,0.0045
2618.00,0.0045
2617.00,0.0045
2616.00,0.0045
2615.00,0.0045
2614.00,0.0045
2613.00,0.0044
2612.00,0.0044
2611.00,0.0043
2610.00,0.0042
2609.00,0.0041
2608.00,0.0040
2607.00,0.0040
2606.00,0.0039
2605.00,0.0039
2604.00,0.0039
2603.00,0.0038
2602.00,0.0038
2601.00,0.0037
2600.00,0.0037
2599.00,0.0036
2598.00,0.0035
2597.00,0.0035
2596.00,0.0035
2595.00,0.0036
2594.00,0.0036
2593.00,0.0036
2592.00,0.0036
2591.00,0.0037
2590.00,0.0038
2589.00,0.0039
2588.00,0.0039
2587.00,0.0040
2586.00,0.0040
2585.00,0.0040
2584.00,0.0040
2583.00,0.0040
2582.00,0.0041
2581.00,0.0041
2580.00,0.0041
2579.00,0.0041
2578.00,0.0040
2577.00,0.0039
2576.00,0.0037
2575.00,0.0036
2574.00,0.0035
2573.00,0.0034
2572.00,0.0034
2571.00,0.0033
2570.00,0.0032
2569.00,0.0031
2568.00,0.0030
2567.00,0.0029
2566.00,0.0028
2565.00,0.0027
2564.00,0.0027
2563.00,0.0027
2562.00,0.0027
2561.00,0.0027
2560.00,0.0027
2559.00,0.0026
2558.00,0.0026
2557.00,0.0026
2556.00,0.0026
2555.00,0.0026
2554.00,0.0026
2553.00,0.0026
2552.00,0.0025
2551.00,0.0025
2550.00,0.0024
2549.00,0.0023
2548.00,0.0022
2547.00,0.0022
2546.00,0.0022
2545.00,0.0022
2544.00,0.0022
2543.00,0.0022
2542.00,0.0022
2541.00,0.0022
2540.00,0.0022
2539.00,0.0022
2538.00,0.0022
2537.00,0.0022
2536.00,0.0022
2535.00,0.0021
2534.00,0.0020
2533.00,0.0020
2532.00,0.0019
2531.00,0.0019
2530.00,0.0019
2529.00,0.0019
2528.00,0.0019
2527.00,0.0018
2526.00,0.0018
2525.00,0.0018
2524.00,0.0017
2523.00,0.0017
2522.00,0.0017
2521.00,0.0017
2520.00,0.0017
2519.00,0.0016
2518.00,0.0016
2517.00,0.0016
2516.00,0.0016
2515.00,0.0015
2514.00,0.0015
2513.00,0.0015
2512.00,0.0015
2511.00,0.0015
2510.00,0.0015
2509.00,0.0015
2508.00,0.0015
2507.00,0.0015
2506.00,0.0015
2505.00,0.0015
2504.00,0.0014
2503.00,0.0014
2502.00,0.0014
2501.00,0.0014
2500.00,0.0014
2499.00,0.0015
2498.00,0.0015
2497.00,0.0015
2496.00,0.0015
2495.00,0.0015
2494.00,0.0015
2493.00,0.0015
2492.00,0.0015
2491.00,0.0015
2490.00,0.0014
2489.00,0.0014
2488.00,0.0013
2487.00,0.0013
2486.00,0.0014
2485.00,0.0014
2484.00,0.0015
2483.00,0.0015
2482.00,0.0014
2481.00,0.0014
2480.00,0.0013
2479.00,0.0013
2478.00,0.0012
2477.00,0.0011
2476.00,0.0011
2475.00,0.0011
2474.00,0.0011
2473.00,0.0012
2472.00,0.0012
2471.00,0.0012
2470.00,0.0013
2469.00,0.0013
2468.00,0.0013
2467.00,0.0013
2466.00,0.0013
2465.00,0.0013
2464.00,0.0013
2463.00,0.0013
2462.00,0.0013
2461.00,0.0014
2460.00,0.0014
2459.00,0.0014
2458.00,0.0014
2457.00,0.0015
2456.00,0.0014
2455.00,0.0014
2454.00,0.0014
2453.00,0.0014
2452.00,0.0014
2451.00,0.0014
2450.00,0.0013
2449.00,0.0013
2448.00,0.0013
2447.00,0.0013
2446.00,0.0013
2445.00,0.0013
2444.00,0.0013
2443.00,0.0013
2442.00,0.0013
2441.00,0.0013
2440.00,0.0014
2439.00,0.0014
2438.00,0.0014
2437.00,0.0014
2436.00,0.0014
2435.00,0.0014
2434.00,0.0015
2433.00,0.0015
2432.00,0.0015
2431.00,0.0015
2430.00,0.0015
2429.00,0.0015
2428.00,0.0015
2427.00,0.0015
2426.00,0.0015
2425.00,0.0015
2424.00,0.0015
2423.00,0.0015
2422.00,0.0016
2421.00,0.0016
2420.00,0.0015
2419.00,0.0015
2418.00,0.0014
2417.00,0.0013
2416.00,0.0013
2415.00,0.0013
2414.00,0.0013
2413.00,0.0014
2412.00,0.0014
2411.00,0.0013
2410.00,0.0013
2409.00,0.0013
2408.00,0.0013
2407.00,0.0012
2406.00,0.0012
2405.00,0.0012
2404.00,0.0012
2403.00,0.0012
2402.00,0.0013
2401.00,0.0013
2400.00,0.0013
2399.00,0.0013
2398.00,0.0012
2397.00,0.0012
2396.00,0.0012
2395.00,0.0011
2394.00,0.0012
2393.00,0.0012
2392.00,0.0013
2391.00,0.0013
2390.00,0.0012
2389.00,0.0012
2388.00,0.0011
2387.00,0.0011
2386.00,0.0010
2385.00,0.0010
2384.00,0.0009
2383.00,0.0009
2382.00,0.0008
2381.00,0.0007
2380.00,0.0006
2379.00,0.0006
2378.00,0.0006
2377.00,0.0007
2376.00,0.0007
2375.00,0.0007
2374.00,0.0007
2373.00,0.0007
2372.00,0.0007
2371.00,0.0006
2370.00,0.0006
2369.00,0.0007
2368.00,0.0007
2367.00,0.0007
2366.00,0.0007
2365.00,0.0006
2364.00,0.0006
2363.00,0.0006
2362.00,0.0006
2361.00,0.0006
2360.00,0.0006
2359.00,0.0006
2358.00,0.0006
2357.00,0.0005
2356.00,0.0004
2355.00,0.0004
2354.00,0.0003
2353.00,0.0003
2352.00,0.0004
2351.00,0.0005
2350.00,0.0006
2349.00,0.0007
2348.00,0.0008
2347.00,0.0007
2346.00,0.0007
2345.00,0.0008
2344.00,0.0009
2343.00,0.0009
2342.00,0.0010
2341.00,0.0009
2340.00,0.0009
2339.00,0.0009
2338.00,0.0009
2337.00,0.0009
2336.00,0.0009
2335.00,0.0008
2334.00,0.0008
2333.00,0.0008
2332.00,0.0008
2331.00,0.0008
2330.00,0.0009
2329.00,0.0011
2328.00,0.0012
2327.00,0.0015
2326.00,0.0018
2325.00,0.0020
2324.00,0.0021
2323.00,0.0021
2322.00,0.0019
2321.00,0.0017
2320.00,0.0016
2319.00,0.0016
2318.00,0.0015
2317.00,0.0014
2316.00,0.0014
2315.00,0.0013
2314.00,0.0013
2313.00,0.0014
2312.00,0.0014
2311.00,0.0014
2310.00,0.0014
2309.00,0.0013
2308.00,0.0013
2307.00,0.0013
2306.00,0.0013
2305.00,0.0014
2304.00,0.0015
2303.00,0.0016
2302.00,0.0016
2301.00,0.0016
2300.00,0.0016
2299.00,0.0016
2298.00,0.0016
2297.00,0.0017
2296.00,0.0018
2295.00,0.0018
2294.00,0.0019
2293.00,0.0019
2292.00,0.0020
2291.00,0.0021
2290.00,0.0021
2289.00,0.0022
2288.00,0.0022
2287.00,0.0021
2286.00,0.0021
2285.00,0.0022
2284.00,0.0022
2283.00,0.0022
2282.00,0.0021
2281.00,0.0020
2280.00,0.0019
2279.00,0.0018
2278.00,0.0017
2277.00,0.0017
2276.00,0.0016
2275.00,0.0015
2274.00,0.0014
2273.00,0.0013
2272.00,0.0012
2271.00,0.0013
2270.00,0.0014
2269.00,0.0014
2268.00,0.0014
2267.00,0.0013
2266.00,0.0013
2265.00,0.0012
2264.00,0.0012
2263.00,0.0012
2262.00,0.0013
2261.00,0.0015
2260.00,0.0015
2259.00,0.0016
2258.00,0.0015
2257.00,0.0014
2256.00,0.0012
2255.00,0.0010
2254.00,0.0008
2253.00,0.0008
2252.00,0.0009
2251.00,0.0011
2250.00,0.0012
2249.00,0.0012
2248.00,0.0012
2247.00,0.0011
2246.00,0.0009
2245.00,0.0008
2244.00,0.0008
2243.00,0.0007
2242.00,0.0007
2241.00,0.0007
2240.00,0.0007
2239.00,0.0007
2238.00,0.0007
2237.00,0.0007
2236.00,0.0008
2235.00,0.0009
2234.00,0.0009
2233.00,0.0010
2232.00,0.0010
2231.00,0.0009
2230.00,0.0009
2229.00,0.0009
2228.00,0.0010
2227.00,0.0011
2226.00,0.0011
2225.00,0.0011
2224.00,0.0010
2223.00,0.0010
2222.00,0.0010
2221.00,0.0010
2220.00,0.0010
2219.00,0.0008
2218.00,0.0006
2217.00,0.0005
2216.00,0.0005
2215.00,0.0005
2214.00,0.0006
2213.00,0.0007
2212.00,0.0007
2211.00,0.0007
2210.00,0.0006
2209.00,0.0006
2208.00,0.0006
2207.00,0.0007
2206.00,0.0008
2205.00,0.0009
2204.00,0.0010
2203.00,0.0010
2202.00,0.0010
2201.00,0.0011
2200.00,0.0011
2199.00,0.0011
2198.00,0.0011
2197.00,0.0011
2196.00,0.0012
2195.00,0.0012
2194.00,0.0012
2193.00,0.0012
2192.00,0.0011
2191.00,0.0009
2190.00,0.0008
2189.00,0.0008
2188.00,0.0009
2187.00,0.0011
2186.00,0.0012
2185.00,0.0013
2184.00,0.0012
2183.00,0.0011
2182.00,0.0008
2181.00,0.0005
2180.00,0.0003
2179.00,0.0002
2178.00,0.0003
2177.00,0.0005
2176.00,0.0004
2175.00,0.0003
2174.00,0.0002
2173.00,0.0002
2172.00,0.0005
2171.00,0.0009
2170.00,0.0013
2169.00,0.0016
2168.00,0.0017
2167.00,0.0016
2166.00,0.0015
2165.00,0.0013
2164.00,0.0012
2163.00,0.0012
2162.00,0.0014
2161.00,0.0012
2160.00,0.0003
2159.00,-0.0010
2158.00,-0.0022
2157.00,-0.0028
2156.00,-0.0028
2155.00,-0.0025
2154.00,-0.0020
2153.00,-0.0016
2152.00,-0.0014
2151.00,-0.0012
2150.00,-0.0012
2149.00,-0.0011
2148.00,-0.0011
2147.00,-0.0010
2146.00,-0.0010
2145.00,-0.0010
2144.00,-0.0010
2143.00,-0.0009
2142.00,-0.0009
2141.00,-0.0008
2140.00,-0.0008
2139.00,-0.0009
2138.00,-0.0011
2137.00,-0.0013
2136.00,-0.0014
2135.00,-0.0015
2134.00,-0.0015
2133.00,-0.0014
2132.00,-0.0012
2131.00,-0.0010
2130.00,-0.0008
2129.00,-0.0008
2128.00,-0.0007
2127.00,-0.0008
2126.00,-0.0008
2125.00,-0.0007
2124.00,-0.0006
2123.00,-0.0004
2122.00,-0.0003
2121.00,-0.0002
2120.00,-0.0001
2119.00,-0.0001
2118.00,0.0000
2117.00,0.0002
2116.00,0.0003
2115.00,0.0005
2114.00,0.0006
2113.00,0.0007
2112.00,0.0007
2111.00,0.0007
2110.00,0.0006
2109.00,0.0005
2108.00,0.0004
2107.00,0.0004
2106.00,0.0005
2105.00,0.0006
2104.00,0.0006
2103.00,0.0006
2102.00,0.0006
2101.00,0.0005
2100.00,0.0005
2099.00,0.0003
2098.00,0.0001
2097.00,-0.0001
2096.00,-0.0003
2095.00,-0.0004
2094.00,-0.0005
2093.00,-0.0004
2092.00,-0.0002
2091.00,0.0000
2090.00,0.0002
2089.00,0.0003
2088.00,0.0005
2087.00,0.0006
2086.00,0.0007
2085.00,0.0006
2084.00,0.0005
2083.00,0.0004
2082.00,0.0004
2081.00,0.0005
2080.00,0.0007
2079.00,0.0007
2078.00,0.0007
2077.00,0.0006
2076.00,0.0006
2075.00,0.0006
2074.00,0.0006
2073.00,0.0006
2072.00,0.0005
2071.00,0.0004
2070.00,0.0004
2069.00,0.0005
2068.00,0.0005
2067.00,0.0004
2066.00,0.0003
2065.00,0.0002
2064.00,0.0003
2063.00,0.0004
2062.00,0.0005
2061.00,0.0007
2060.00,0.0007
2059.00,0.0006
2058.00,0.0005
2057.00,0.0004
2056.00,0.0004
2055.00,0.0004
2054.00,0.0004
2053.00,0.0007
2052.00,0.0010
2051.00,0.0012
2050.00,0.0012
2049.00,0.0011
2048.00,0.0010
2047.00,0.0009
2046.00,0.0008
2045.00,0.0007
2044.00,0.0006
2043.00,0.0005
2042.00,0.0002
2041.00,0.0001
2040.00,0.0001
2039.00,0.0003
2038.00,0.0005
2037.00,0.0006
2036.00,0.0005
2035.00,0.0003
2034.00,0.0003
2033.00,0.0004
2032.00,0.0004
2031.00,0.0003
2030.00,-0.0001
2029.00,-0.0003
2028.00,-0.0004
2027.00,-0.0004
2026.00,-0.0003
2025.00,-0.0004
2024.00,-0.0005
2023.00,-0.0007
2022.00,-0.0009
2021.00,-0.0011
2020.00,-0.0012
2019.00,-0.0011
2018.00,-0.0008
2017.00,-0.0006
2016.00,-0.0006
2015.00,-0.0008
2014.00,-0.0008
2013.00,-0.0006
2012.00,-0.0001
2011.00,0.0003
2010.00,0.0005
2009.00,0.0004
2008.00,0.0001
2007.00,-0.0004
2006.00,-0.0007
2005.00,-0.0007
2004.00,-0.0006
2003.00,-0.0006
2002.00,-0.0007
2001.00,-0.0009
2000.00,-0.0011
1999.00,-0.0013
1998.00,-0.0014
1997.00,-0.0015
1996.00,-0.0014
1995.00,-0.0014
1994.00,-0.0012
1993.00,-0.0009
1992.00,-0.0006
1991.00,-0.0005
1990.00,-0.0005
1989.00,-0.0005
1988.00,-0.0003
1987.00,-0.0001
1986.00,0.0002
1985.00,0.0006
1984.00,0.0009
1983.00,0.0011
1982.00,0.0012
1981.00,0.0012
1980.00,0.0009
1979.00,0.0003
1978.00,-0.0004
1977.00,-0.0009
1976.00,-0.0010
1975.00,-0.0010
1974.00,-0.0008
1973.00,-0.0007
1972.00,-0.0007
1971.00,-0.0008
1970.00,-0.0011
1969.00,-0.0012
1968.00,-0.0012
1967.00,-0.0011
1966.00,-0.0009
1965.00,-0.0009
1964.00,-0.0010
1963.00,-0.0012
1962.00,-0.0014
1961.00,-0.0015
1960.00,-0.0014
1959.00,-0.0014
1958.00,-0.0013
1957.00,-0.0012
1956.00,-0.0010
1955.00,-0.0009
1954.00,-0.0008
1953.00,-0.0009
1952.00,-0.0009
1951.00,-0.0010
1950.00,-0.0011
1949.00,-0.0012
1948.00,-0.0014
1947.00,-0.0015
1946.00,-0.0015
1945.00,-0.0014
1944.00,-0.0013
1943.00,-0.0011
1942.00,-0.0011
1941.00,-0.0010
1940.00,-0.0010
1939.00,-0.0009
1938.00,-0.0009
1937.00,-0.0008
1936.00,-0.0007
1935.00,-0.0006
1934.00,-0.0005
1933.00,-0.0003
1932.00,-0.0003
1931.00,-0.0003
1930.00,-0.0003
1929.00,-0.0003
1928.00,-0.0002
1927.00,-0.0002
1926.00,-0.0003
1925.00,-0.0003
1924.00,-0.0003
1923.00,-0.0002
1922.00,-0.0001
1921.00,0.0000
1920.00,-0.0000
1919.00,-0.0002
1918.00,-0.0003
1917.00,-0.0002
1916.00,-0.0001
1915.00,-0.0000
1914.00,0.0000
1913.00,-0.0000
1912.00,-0.0000
1911.00,-0.0000
1910.00,0.0000
1909.00,0.0001
1908.00,0.0002
1907.00,0.0003
1906.00,0.0004
1905.00,0.0003
1904.00,0.0002
1903.00,0.0000
1902.00,-0.0001
1901.00,-0.0001
1900.00,0.0001
1899.00,0.0003
1898.00,0.0006
1897.00,0.0006
1896.00,0.0005
1895.00,0.0004
1894.00,0.0003
1893.00,0.0002
1892.00,0.0001
1891.00,0.0002
1890.00,0.0002
1889.00,0.0003
1888.00,0.0004
1887.00,0.0005
1886.00,0.0005
1885.00,0.0004
1884.00,0.0003
1883.00,0.0002
1882.00,0.0002
1881.00,0.0002
1880.00,0.0002
1879.00,0.0002
1878.00,0.0002
1877.00,0.0003
1876.00,0.0003
1875.00,0.0003
1874.00,0.0003
1873.00,0.0002
1872.00,-0.0000
1871.00,-0.0001
1870.00,-0.0001
1869.00,-0.0000
1868.00,0.0001
1867.00,0.0002
1866.00,0.0002
1865.00,0.0002
1864.00,0.0003
1863.00,0.0003
1862.00,0.0003
1861.00,0.0003
1860.00,0.0003
1859.00,0.0003
1858.00,0.0004
1857.00,0.0004
1856.00,0.0004
1855.00,0.0004
1854.00,0.0005
1853.00,0.0006
1852.00,0.0006
1851.00,0.0005
1850.00,0.0004
1849.00,0.0004
1848.00,0.0004
1847.00,0.0004
1846.00,0.0004
1845.00,0.0004
1844.00,0.0006
1843.00,0.0006
1842.00,0.0006
1841.00,0.0006
1840.00,0.0005
1839.00,0.0005
1838.00,0.0005
1837.00,0.0005
1836.00,0.0005
1835.00,0.0006
1834.00,0.0006
1833.00,0.0007
1832.00,0.0007
1831.00,0.0007
1830.00,0.0007
1829.00,0.0007
1828.00,0.0007
1827.00,0.0006
1826.00,0.0007
1825.00,0.0008
1824.00,0.0008
1823.00,0.0008
1822.00,0.0008
1821.00,0.0007
1820.00,0.0006
1819.00,0.0006
1818.00,0.0005
1817.00,0.0005
1816.00,0.0005
1815.00,0.0005
1814.00,0.0005
1813.00,0.0005
1812.00,0.0005
1811.00,0.0006
1810.00,0.0006
1809.00,0.0006
1808.00,0.0007
1807.00,0.0007
1806.00,0.0007
1805.00,0.0008
1804.00,0.0008
1803.00,0.0008
1802.00,0.0008
1801.00,0.0008
1800.00,0.0008
1799.00,0.0009
1798.00,0.0009
1797.00,0.0009
1796.00,0.0010
1795.00,0.0010
1794.00,0.0010
1793.00,0.0011
1792.00,0.0011
1791.00,0.0012
1790.00,0.0012
1789.00,0.0012
1788.00,0.0012
1787.00,0.0012
1786.00,0.0012
1785.00,0.0012
1784.00,0.0012
1783.00,0.0012
1782.00,0.0012
1781.00,0.0013
1780.00,0.0013
1779.00,0.0013
1778.00,0.0013
1777.00,0.0013
1776.00,0.0013
1775.00,0.0013
1774.00,0.0013
1773.00,0.0014
1772.00,0.0015
1771.00,0.0016
1770.00,0.0016
1769.00,0.0017
1768.00,0.0018
1767.00,0.0019
1766.00,0.0018
1765.00,0.0018
1764.00,0.0017
1763.00,0.0017
1762.00,0.0018
1761.00,0.0019
1760.00,0.0020
1759.00,0.0021
1758.00,0.0022
1757.00,0.0023
1756.00,0.0024
1755.00,0.0025
1754.00,0.0025
1753.00,0.0026
1752.00,0.0028
1751.00,0.0030
1750.00,0.0030
1749.00,0.0030
1748.00,0.0030
1747.00,0.0031
1746.00,0.0031
1745.00,0.0032
1744.00,0.0033
1743.00,0.0033
1742.00,0.0034
1741.00,0.0034
1740.00,0.0034
1739.00,0.0035
1738.00,0.0035
1737.00,0.0035
1736.00,0.0035
1735.00,0.0034
1734.00,0.0033
1733.00,0.0032
1732.00,0.0032
1731.00,0.0032
1730.00,0.0032
1729.00,0.0032
1728.00,0.0033
1727.00,0.0032
1726.00,0.0032
1725.00,0.0032
1724.00,0.0032
1723.00,0.0033
1722.00,0.0033
1721.00,0.0032
1720.00,0.0031
1719.00,0.0030
1718.00,0.0030
1717.00,0.0030
1716.00,0.0031
1715.00,0.0032
1714.00,0.0032
1713.00,0.0031
1712.00,0.0031
1711.00,0.0030
1710.00,0.0030
1709.00,0.0030
1708.00,0.0030
1707.00,0.0030
1706.00,0.0030
1705.00,0.0030
1704.00,0.0030
1703.00,0.0030
1702.00,0.0030
1701.00,0.0031
1700.00,0.0032
1699.00,0.0032
1698.00,0.0032
1697.00,0.0033
1696.00,0.0035
1695.00,0.0037
1694.00,0.0038
1693.00,0.0038
1692.00,0.0039
1691.00,0.0041
1690.00,0.0042
1689.00,0.0045
1688.00,0.0046
1687.00,0.0047
1686.00,0.0047
1685.00,0.0049
1684.00,0.0050
1683.00,0.0051
1682.00,0.0052
1681.00,0.0053
1680.00,0.0054
1679.00,0.0056
1678.00,0.0057
1677.00,0.0058
1676.00,0.0060
1675.00,0.0060
1674.00,0.0060
1673.00,0.0060
1672.00,0.0060
1671.00,0.0060
1670.00,0.0060
1669.00,0.0061
1668.00,0.0063
1667.00,0.0063
1666.00,0.0064
1665.00,0.0064
1664.00,0.0065
1663.00,0.0065
1662.00,0.0065
1661.00,0.0066
1660.00,0.0066
1659.00,0.0067
1658.00,0.0068
1657.00,0.0069
1656.00,0.0070
1655.00,0.0071
1654.00,0.0071
1653.00,0.0072
1652.00,0.0072
1651.00,0.0072
1650.00,0.0072
1649.00,0.0073
1648.00,0.0074
1647.00,0.0076
1646.00,0.0078
1645.00,0.0078
1644.00,0.0078
1643.00,0.0078
1642.00,0.0078
1641.00,0.0079
1640.00,0.0081
1639.00,0.0082
1638.00,0.0082
1637.00,0.0083
1636.00,0.0083
1635.00,0.0083
1634.00,0.0082
1633.00,0.0082
1632.00,0.0082
1631.00,0.0082
1630.00,0.0082
1629.00,0.0082
1628.00,0.0082
1627.00,0.0083
1626.00,0.0083
1625.00,0.0083
1624.00,0.0083
1623.00,0.0083
1622.00,0.0082
1621.00,0.0081
1620.00,0.0081
1619.00,0.0081
1618.00,0.0081
1617.00,0.0081
1616.00,0.0081
1615.00,0.0081
1614.00,0.0080
1613.00,0.0081
1612.00,0.0081
1611.00,0.0081
1610.00,0.0081
1609.00,0.0081
1608.00,0.0082
1607.00,0.0082
1606.00,0.0083
1605.00,0.0083
1604.00,0.0083
1603.00,0.0083
1602.00,0.0083
1601.00,0.0084
1600.00,0.0084
1599.00,0.0084
1598.00,0.0085
1597.00,0.0086
1596.00,0.0087
1595.00,0.0087
1594.00,0.0087
1593.00,0.0088
1592.00,0.0088
1591.00,0.0089
1590.00,0.0090
1589.00,0.0092
1588.00,0.0094
1587.00,0.0097
1586.00,0.0100
1585.00,0.0104
1584.00,0.0109
1583.00,0.0114
1582.00,0.0120
1581.00,0.0126
1580.00,0.0131
1579.00,0.0134
1578.00,0.0136
1577.00,0.0136
1576.00,0.0135
1575.00,0.0132
1574.00,0.0129
1573.00,0.0126
1572.00,0.0123
1571.00,0.0118
1570.00,0.0112
1569.00,0.0107
1568.00,0.0103
1567.00,0.0100
1566.00,0.0098
1565.00,0.0096
1564.00,0.0095
1563.00,0.0095
1562.00,0.0094
1561.00,0.0093
1560.00,0.0092
1559.00,0.0090
1558.00,0.0088
1557.00,0.0088
1556.00,0.0089
1555.00,0.0091
1554.00,0.0092
1553.00,0.0093
1552.00,0.0094
1551.00,0.0096
1550.00,0.0099
1549.00,0.0103
1548.00,0.0108
1547.00,0.0112
1546.00,0.0118
1545.00,0.0125
1544.00,0.0131
1543.00,0.0137
1542.00,0.0140
1541.00,0.0140
1540.00,0.0137
1539.00,0.0131
1538.00,0.0125
1537.00,0.0120
1536.00,0.0115
1535.00,0.0108
1534.00,0.0100
1533.00,0.0093
1532.00,0.0088
1531.00,0.0085
1530.00,0.0082
1529.00,0.0080
1528.00,0.0079
1527.00,0.0077
1526.00,0.0075
1525.00,0.0074
1524.00,0.0073
1523.00,0.0073
1522.00,0.0072
1521.00,0.0073
1520.00,0.0073
1519.00,0.0073
1518.00,0.0072
1517.00,0.0073
1516.00,0.0074
1515.00,0.0075
1514.00,0.0075
1513.00,0.0075
1512.00,0.0076
1511.00,0.0076
1510.00,0.0076
1509.00,0.0077
1508.00,0.0078
1507.00,0.0079
1506.00,0.0079
1505.00,0.0080
1504.00,0.0082
1503.00,0.0083
1502.00,0.0085
1501.00,0.0088
1500.00,0.0091
1499.00,0.0094
1498.00,0.0097
1497.00,0.0101
1496.00,0.0106
1495.00,0.0109
1494.00,0.0112
1493.00,0.0115
1492.00,0.0119
1491.00,0.0124
1490.00,0.0129
1489.00,0.0136
1488.00,0.0143
1487.00,0.0150
1486.00,0.0157
1485.00,0.0166
1484.00,0.0176
1483.00,0.0186
1482.00,0.0198
1481.00,0.0212
1480.00,0.0227
1479.00,0.0242
1478.00,0.0259
1477.00,0.0281
1476.00,0.0308
1475.00,0.0340
1474.00,0.0380
1473.00,0.0434
1472.00,0.0495
1471.00,0.0552
1470.00,0.0607
1469.00,0.0666
1468.00,0.0730
1467.00,0.0803
1466.00,0.0888
1465.00,0.0980
1464.00,0.1060
1463.00,0.1116
1462.00,0.1151
1461.00,0.1174
1460.00,0.1190
1459.00,0.1200
1458.00,0.1210
1457.00,0.1220
1456.00,0.1222
1455.00,0.1217
1454.00,0.1206
1453.00,0.1190
1452.00,0.1165
1451.00,0.1129
1450.00,0.1080
1449.00,0.1010
1448.00,0.0922
1447.00,0.0828
1446.00,0.0742
1445.00,0.0669
1444.00,0.0606
1443.00,0.0554
1442.00,0.0515
1441.00,0.0488
1440.00,0.0471
1439.00,0.0462
1438.00,0.0462
1437.00,0.0461
1436.00,0.0451
1435.00,0.0427
1434.00,0.0392
1433.00,0.0351
1432.00,0.0308
1431.00,0.0270
1430.00,0.0241
1429.00,0.0220
1428.00,0.0205
1427.00,0.0196
1426.00,0.0190
1425.00,0.0185
1424.00,0.0182
1423.00,0.0180
1422.00,0.0178
1421.00,0.0176
1420.00,0.0173
1419.00,0.0171
1418.00,0.0169
1417.00,0.0167
1416.00,0.0166
1415.00,0.0165
1414.00,0.0166
1413.00,0.0165
1412.00,0.0164
1411.00,0.0164
1410.00,0.0164
1409.00,0.0165
1408.00,0.0165
1407.00,0.0166
1406.00,0.0169
1405.00,0.0171
1404.00,0.0174
1403.00,0.0178
1402.00,0.0182
1401.00,0.0185
1400.00,0.0190
1399.00,0.0196
1398.00,0.0202
1397.00,0.0208
1396.00,0.0213
1395.00,0.0220
1394.00,0.0228
1393.00,0.0233
1392.00,0.0238
1391.00,0.0246
1390.00,0.0256
1389.00,0.0270
1388.00,0.0292
1387.00,0.0324
1386.00,0.0366
1385.00,0.0422
1384.00,0.0499
1383.00,0.0606
1382.00,0.0749
1381.00,0.0930
1380.00,0.1150
1379.00,0.1395
1378.00,0.1624
1377.00,0.1783
1376.00,0.1826
1375.00,0.1726
1374.00,0.1515
1373.00,0.1265
1372.00,0.1039
1371.00,0.0851
1370.00,0.0701
1369.00,0.0586
1368.00,0.0506
1367.00,0.0455
1366.00,0.0427
1365.00,0.0413
1364.00,0.0412
1363.00,0.0422
1362.00,0.0439
1361.00,0.0458
1360.00,0.0472
1359.00,0.0475
1358.00,0.0464
1357.00,0.0440
1356.00,0.0406
1355.00,0.0368
1354.00,0.0332
1353.00,0.0300
1352.00,0.0275
1351.00,0.0253
1350.00,0.0236
1349.00,0.0221
1348.00,0.0209
1347.00,0.0199
1346.00,0.0190
1345.00,0.0182
1344.00,0.0176
1343.00,0.0171
1342.00,0.0166
1341.00,0.0162
1340.00,0.0159
1339.00,0.0156
1338.00,0.0155
1337.00,0.0155
1336.00,0.0155
1335.00,0.0156
1334.00,0.0158
1333.00,0.0161
1332.00,0.0165
1331.00,0.0167
1330.00,0.0168
1329.00,0.0166
1328.00,0.0162
1327.00,0.0156
1326.00,0.0150
1325.00,0.0144
1324.00,0.0138
1323.00,0.0133
1322.00,0.0129
1321.00,0.0126
1320.00,0.0123
1319.00,0.0121
1318.00,0.0119
1317.00,0.0117
1316.00,0.0115
1315.00,0.0113
1314.00,0.0113
1313.00,0.0113
1312.00,0.0114
1311.00,0.0116
1310.00,0.0120
1309.00,0.0127
1308.00,0.0137
1307.00,0.0149
1306.00,0.0161
1305.00,0.0169
1304.00,0.0172
1303.00,0.0169
1302.00,0.0163
1301.00,0.0157
1300.00,0.0152
1299.00,0.0151
1298.00,0.0150
1297.00,0.0150
1296.00,0.0148
1295.00,0.0146
1294.00,0.0142
1293.00,0.0137
1292.00,0.0132
1291.00,0.0128
1290.00,0.0124
1289.00,0.0121
1288.00,0.0119
1287.00,0.0117
1286.00,0.0115
1285.00,0.0114
1284.00,0.0112
1283.00,0.0111
1282.00,0.0110
1281.00,0.0110
1280.00,0.0110
1279.00,0.0110
1278.00,0.0111
1277.00,0.0112
1276.00,0.0113
1275.00,0.0114
1274.00,0.0115
1273.00,0.0117
1272.00,0.0119
1271.00,0.0121
1270.00,0.0125
1269.00,0.0128
1268.00,0.0132
1267.00,0.0136
1266.00,0.0140
1265.00,0.0144
1264.00,0.0148
1263.00,0.0153
1262.00,0.0157
1261.00,0.0163
1260.00,0.0169
1259.00,0.0177
1258.00,0.0186
1257.00,0.0194
1256.00,0.0199
1255.00,0.0199
1254.00,0.0194
1253.00,0.0186
1252.00,0.0177
1251.00,0.0169
1250.00,0.0162
1249.00,0.0156
1248.00,0.0151
1247.00,0.0147
1246.00,0.0143
1245.00,0.0141
1244.00,0.0140
1243.00,0.0139
1242.00,0.0138
1241.00,0.0138
1240.00,0.0137
1239.00,0.0135
1238.00,0.0134
1237.00,0.0133
1236.00,0.0131
1235.00,0.0130
1234.00,0.0129
1233.00,0.0129
1232.00,0.0128
1231.00,0.0128
1230.00,0.0128
1229.00,0.0128
1228.00,0.0128
1227.00,0.0128
1226.00,0.0129
1225.00,0.0130
1224.00,0.0132
1223.00,0.0134
1222.00,0.0137
1221.00,0.0139
1220.00,0.0140
1219.00,0.0140
1218.00,0.0138
1217.00,0.0136
1216.00,0.0132
1215.00,0.0129
1214.00,0.0125
1213.00,0.0122
1212.00,0.0119
1211.00,0.0117
1210.00,0.0115
1209.00,0.0114
1208.00,0.0113
1207.00,0.0112
1206.00,0.0112
1205.00,0.0112
1204.00,0.0112
1203.00,0.0111
1202.00,0.0111
1201.00,0.0112
1200.00,0.0113
1199.00,0.0115
1198.00,0.0117
1197.00,0.0118
1196.00,0.0119
1195.00,0.0119
1194.00,0.0120
1193.00,0.0120
1192.00,0.0121
1191.00,0.0123
1190.00,0.0124
1189.00,0.0126
1188.00,0.0128
1187.00,0.0129
1186.00,0.0132
1185.00,0.0134
1184.00,0.0138
1183.00,0.0141
1182.00,0.0145
1181.00,0.0150
1180.00,0.0156
1179.00,0.0163
1178.00,0.0171
1177.00,0.0182
1176.00,0.0195
1175.00,0.0212
1174.00,0.0235
1173.00,0.0264
1172.00,0.0299
1171.00,0.0336
1170.00,0.0373
1169.00,0.0402
1168.00,0.0420
1167.00,0.0424
1166.00,0.0415
1165.00,0.0399
1164.00,0.0379
1163.00,0.0360
1162.00,0.0343
1161.00,0.0329
1160.00,0.0319
1159.00,0.0312
1158.00,0.0308
1157.00,0.0305
1156.00,0.0303
1155.00,0.0301
1154.00,0.0299
1153.00,0.0295
1152.00,0.0290
1151.00,0.0282
1150.00,0.0273
1149.00,0.0263
1148.00,0.0252
1147.00,0.0242
1146.00,0.0233
1145.00,0.0223
1144.00,0.0213
1143.00,0.0205
1142.00,0.0197
1141.00,0.0191
1140.00,0.0185
1139.00,0.0180
1138.00,0.0175
1137.00,0.0171
1136.00,0.0166
1135.00,0.0162
1134.00,0.0159
1133.00,0.0158
1132.00,0.0158
1131.00,0.0158
1130.00,0.0158
1129.00,0.0157
1128.00,0.0156
1127.00,0.0155
1126.00,0.0153
1125.00,0.0152
1124.00,0.0152
1123.00,0.0151
1122.00,0.0151
1121.00,0.0151
1120.00,0.0150
1119.00,0.0150
1118.00,0.0150
1117.00,0.0149
1116.00,0.0149
1115.00,0.0150
1114.00,0.0151
1113.00,0.0152
1112.00,0.0153
1111.00,0.0154
1110.00,0.0155
1109.00,0.0157
1108.00,0.0161
1107.00,0.0165
1106.00,0.0172
1105.00,0.0178
1104.00,0.0184
1103.00,0.0186
1102.00,0.0185
1101.00,0.0182
1100.00,0.0177
1099.00,0.0172
1098.00,0.0168
1097.00,0.0164
1096.00,0.0162
1095.00,0.0161
1094.00,0.0160
1093.00,0.0160
1092.00,0.0159
1091.00,0.0158
1090.00,0.0159
1089.00,0.0159
1088.00,0.0160
1087.00,0.0160
1086.00,0.0160
1085.00,0.0161
1084.00,0.0161
1083.00,0.0162
1082.00,0.0161
1081.00,0.0161
1080.00,0.0160
1079.00,0.0159
1078.00,0.0158
1077.00,0.0157
1076.00,0.0156
1075.00,0.0156
1074.00,0.0157
1073.00,0.0157
1072.00,0.0157
1071.00,0.0156
1070.00,0.0153
1069.00,0.0151
1068.00,0.0149
1067.00,0.0146
1066.00,0.0144
1065.00,0.0142
1064.00,0.0140
1063.00,0.0139
1062.00,0.0140
1061.00,0.0141
1060.00,0.0142
1059.00,0.0143
1058.00,0.0143
1057.00,0.0143
1056.00,0.0144
1055.00,0.0144
1054.00,0.0145
1053.00,0.0146
1052.00,0.0148
1051.00,0.0150
1050.00,0.0152
1049.00,0.0155
1048.00,0.0158
1047.00,0.0162
1046.00,0.0165
1045.00,0.0167
1044.00,0.0167
1043.00,0.0165
1042.00,0.0162
1041.00,0.0158
1040.00,0.0155
1039.00,0.0153
1038.00,0.0154
1037.00,0.0155
1036.00,0.0155
1035.00,0.0155
1034.00,0.0154
1033.00,0.0151
1032.00,0.0147
1031.00,0.0144
1030.00,0.0142
1029.00,0.0142
1028.00,0.0142
1027.00,0.0142
1026.00,0.0143
1025.00,0.0144
1024.00,0.0146
1023.00,0.0148
1022.00,0.0151
1021.00,0.0154
1020.00,0.0155
1019.00,0.0157
1018.00,0.0158
1017.00,0.0159
1016.00,0.0160
1015.00,0.0161
1014.00,0.0163
1013.00,0.0165
1012.00,0.0167
1011.00,0.0168
1010.00,0.0168
1009.00,0.0168
1008.00,0.0169
1007.00,0.0173
1006.00,0.0179
1005.00,0.0190
1004.00,0.0207
1003.00,0.0231
1002.00,0.0264
1001.00,0.0306
1000.00,0.0350
999.00,0.0389
998.00,0.0408
997.00,0.0402
996.00,0.0372
995.00,0.0327
994.00,0.0281
993.00,0.0240
992.00,0.0208
991.00,0.0184
990.00,0.0168
989.00,0.0158
988.00,0.0151
987.00,0.0148
986.00,0.0147
985.00,0.0148
984.00,0.0152
983.00,0.0160
982.00,0.0173
981.00,0.0191
980.00,0.0217
979.00,0.0251
978.00,0.0293
977.00,0.0343
976.00,0.0397
975.00,0.0451
974.00,0.0492
973.00,0.0511
972.00,0.0500
971.00,0.0461
970.00,0.0407
969.00,0.0349
968.00,0.0300
967.00,0.0262
966.00,0.0235
965.00,0.0216
964.00,0.0202
963.00,0.0191
962.00,0.0183
961.00,0.0177
960.00,0.0174
959.00,0.0173
958.00,0.0171
957.00,0.0170
956.00,0.0168
955.00,0.0166
954.00,0.0165
953.00,0.0163
952.00,0.0161
951.00,0.0158
950.00,0.0157
949.00,0.0155
948.00,0.0154
947.00,0.0152
946.00,0.0151
945.00,0.0152
944.00,0.0153
943.00,0.0155
942.00,0.0156
941.00,0.0156
940.00,0.0154
939.00,0.0149
938.00,0.0143
937.00,0.0136
936.00,0.0129
935.00,0.0122
934.00,0.0116
933.00,0.0111
932.00,0.0106
931.00,0.0102
930.00,0.0099
929.00,0.0096
928.00,0.0093
927.00,0.0091
926.00,0.0089
925.00,0.0086
924.00,0.0083
923.00,0.0082
922.00,0.0081
921.00,0.0081
920.00,0.0081
919.00,0.0080
918.00,0.0079
917.00,0.0078
916.00,0.0078
915.00,0.0078
914.00,0.0079
913.00,0.0079
912.00,0.0080
911.00,0.0082
910.00,0.0083
909.00,0.0085
908.00,0.0087
907.00,0.0090
906.00,0.0096
905.00,0.0106
904.00,0.0120
903.00,0.0136
902.00,0.0154
901.00,0.0169
900.00,0.0178
899.00,0.0180
898.00,0.0173
897.00,0.0158
896.00,0.0141
895.00,0.0124
894.00,0.0111
893.00,0.0101
892.00,0.0093
891.00,0.0088
890.00,0.0086
889.00,0.0086
888.00,0.0086
887.00,0.0085
886.00,0.0083
885.00,0.0082
884.00,0.0081
883.00,0.0082
882.00,0.0083
881.00,0.0083
880.00,0.0082
879.00,0.0081
878.00,0.0081
877.00,0.0082
876.00,0.0084
875.00,0.0085
874.00,0.0086
873.00,0.0086
872.00,0.0086
871.00,0.0086
870.00,0.0086
869.00,0.0086
868.00,0.0086
867.00,0.0087
866.00,0.0089
865.00,0.0090
864.00,0.0091
863.00,0.0091
862.00,0.0091
861.00,0.0092
860.00,0.0094
859.00,0.0096
858.00,0.0097
857.00,0.0098
856.00,0.0099
855.00,0.0100
854.00,0.0101
853.00,0.0103
852.00,0.0107
851.00,0.0111
850.00,0.0117
849.00,0.0125
848.00,0.0135
847.00,0.0151
846.00,0.0176
845.00,0.0213
844.00,0.0266
843.00,0.0327
842.00,0.0377
841.00,0.0395
840.00,0.0371
839.00,0.0318
838.00,0.0258
837.00,0.0209
836.00,0.0178
835.00,0.0159
834.00,0.0148
833.00,0.0142
832.00,0.0137
831.00,0.0134
830.00,0.0131
829.00,0.0129
828.00,0.0126
827.00,0.0123
826.00,0.0121
825.00,0.0119
824.00,0.0119
823.00,0.0119
822.00,0.0121
821.00,0.0122
820.00,0.0124
819.00,0.0126
818.00,0.0130
817.00,0.0136
816.00,0.0144
815.00,0.0155
814.00,0.0169
813.00,0.0184
812.00,0.0201
811.00,0.0216
810.00,0.0227
809.00,0.0232
808.00,0.0228
807.00,0.0217
806.00,0.0201
805.00,0.0184
804.00,0.0169
803.00,0.0156
802.00,0.0148
801.00,0.0142
800.00,0.0136
799.00,0.0130
798.00,0.0123
797.00,0.0118
796.00,0.0114
795.00,0.0111
794.00,0.0109
793.00,0.0106
792.00,0.0103
791.00,0.0100
790.00,0.0096
789.00,0.0092
788.00,0.0089
787.00,0.0086
786.00,0.0085
785.00,0.0084
784.00,0.0082
783.00,0.0080
782.00,0.0078
781.00,0.0076
780.00,0.0076
779.00,0.0075
778.00,0.0076
777.00,0.0076
776.00,0.0075
775.00,0.0075
774.00,0.0075
773.00,0.0075
772.00,0.0076
771.00,0.0076
770.00,0.0076
769.00,0.0076
768.00,0.0076
767.00,0.0076
766.00,0.0076
765.00,0.0077
764.00,0.0080
763.00,0.0082
762.00,0.0083
761.00,0.0084
760.00,0.0083
759.00,0.0082
758.00,0.0081
757.00,0.0082
756.00,0.0083
755.00,0.0085
754.00,0.0087
753.00,0.0088
752.00,0.0089
751.00,0.0090
750.00,0.0091
749.00,0.0091
748.00,0.0090
747.00,0.0089
746.00,0.0089
745.00,0.0091
744.00,0.0094
743.00,0.0098
742.00,0.0102
741.00,0.0106
740.00,0.0110
739.00,0.0114
738.00,0.0118
737.00,0.0122
736.00,0.0125
735.00,0.0129
734.00,0.0133
733.00,0.0138
732.00,0.0143
731.00,0.0148
730.00,0.0151
729.00,0.0153
728.00,0.0153
727.00,0.0153
726.00,0.0153
725.00,0.0156
724.00,0.0160
723.00,0.0163
722.00,0.0166
721.00,0.0167
720.00,0.0165
719.00,0.0159
718.00,0.0150
717.00,0.0141
716.00,0.0132
715.00,0.0125
714.00,0.0120
713.00,0.0116
712.00,0.0114
711.00,0.0114
710.00,0.0114
709.00,0.0113
708.00,0.0113
707.00,0.0113
706.00,0.0113
705.00,0.0115
704.00,0.0115
703.00,0.0115
702.00,0.0112
701.00,0.0110
700.00,0.0108
699.00,0.0107
698.00,0.0107
697.00,0.0106
696.00,0.0107
695.00,0.0109
694.00,0.0111
693.00,0.0112
692.00,0.0112
691.00,0.0112
690.00,0.0112
689.00,0.0112
688.00,0.0112
687.00,0.0111
686.00,0.0111
685.00,0.0111
684.00,0.0111
683.00,0.0113
682.00,0.0114
681.00,0.0115
680.00,0.0114
679.00,0.0111
678.00,0.0108
677.00,0.0107
676.00,0.0109
675.00,0.0113
674.00,0.0118
673.00,0.0122
672.00,0.0125
671.00,0.0124
670.00,0.0120
669.00,0.0115
668.00,0.0111
667.00,0.0111
666.00,0.0113
665.00,0.0113
664.00,0.0111
663.00,0.0110
662.00,0.0108
661.00,0.0107
660.00,0.0105
659.00,0.0104
658.00,0.0104
657.00,0.0104
656.00,0.0104
655.00,0.0104
654.00,0.0103
653.00,0.0103
652.00,0.0103
651.00,0.0102
650.00,0.0102
649.00,0.0102
648.00,0.0103
647.00,0.0104
646.00,0.0103
645.00,0.0101
644.00,0.0099
643.00,0.0097
642.00,0.0096
641.00,0.0096
640.00,0.0098
639.00,0.0100
638.00,0.0102
637.00,0.0104
636.00,0.0104
635.00,0.0102
634.00,0.0100
633.00,0.0097
632.00,0.0096
631.00,0.0097
630.00,0.0100
629.00,0.0102
628.00,0.0103
627.00,0.0102
626.00,0.0101
625.00,0.0100
624.00,0.0099
623.00,0.0098
622.00,0.0097
621.00,0.0097
620.00,0.0098
619.00,0.0100
618.00,0.0104
617.00,0.0107
616.00,0.0108
615.00,0.0107
614.00,0.0104
613.00,0.0101
612.00,0.0098
611.00,0.0097
610.00,0.0097
609.00,0.0096
608.00,0.0095
607.00,0.0095
606.00,0.0098
605.00,0.0101
604.00,0.0102
603.00,0.0101
602.00,0.0100
601.00,0.0101
600.00,0.0102
599.00,0.0103
598.00,0.0103
597.00,0.0104
596.00,0.0105
595.00,0.0104
594.00,0.0103
593.00,0.0100
592.00,0.0098
591.00,0.0096
590.00,0.0096
589.00,0.0096
588.00,0.0096
587.00,0.0095
586.00,0.0095
585.00,0.0098
584.00,0.0102
583.00,0.0106
582.00,0.0108
581.00,0.0108
580.00,0.0108
579.00,0.0107
578.00,0.0106
577.00,0.0106
576.00,0.0106
575.00,0.0107
574.00,0.0107
573.00,0.0107
572.00,0.0105
571.00,0.0103
570.00,0.0101
569.00,0.0102
568.00,0.0104
567.00,0.0105
566.00,0.0105
565.00,0.0103
564.00,0.0102
563.00,0.0099
562.00,0.0094
561.00,0.0092
560.00,0.0093
559.00,0.0098
558.00,0.0104
557.00,0.0107
556.00,0.0107
555.00,0.0106
554.00,0.0104
553.00,0.0104
552.00,0.0106
551.00,0.0109
550.00,0.0113
549.00,0.0115
548.00,0.0114
547.00,0.0111
546.00,0.0109
545.00,0.0109
544.00,0.0110
543.00,0.0112
542.00,0.0112
541.00,0.0111
540.00,0.0110
539.00,0.0110
538.00,0.0111
537.00,0.0114
536.00,0.0117
535.00,0.0121
534.00,0.0124
533.00,0.0124
532.00,0.0122
531.00,0.0119
530.00,0.0117
529.00,0.0115
528.00,0.0116
527.00,0.0118
526.00,0.0118
525.00,0.0116
524.00,0.0115
523.00,0.0116
522.00,0.0118
521.00,0.0118
520.00,0.0114
519.00,0.0109
518.00,0.0107
517.00,0.0105
516.00,0.0102
515.00,0.0097
514.00,0.0092
513.00,0.0088
512.00,0.0084
511.00,0.0085
510.00,0.0090
509.00,0.0097
508.00,0.0102
507.00,0.0104
506.00,0.0104
505.00,0.0102
504.00,0.0099
503.00,0.0094
502.00,0.0091
501.00,0.0090
500.00,0.0093
499.00,0.0096
498.00,0.0098
497.00,0.0099
496.00,0.0100
495.00,0.0102
494.00,0.0107
493.00,0.0113
492.00,0.0116
491.00,0.0115
490.00,0.0109
489.00,0.0106
488.00,0.0107
487.00,0.0113
486.00,0.0120
485.00,0.0124
484.00,0.0123
483.00,0.0118
482.00,0.0114
481.00,0.0113
480.00,0.0114
479.00,0.0118
478.00,0.0126
477.00,0.0138
476.00,0.0153
475.00,0.0164
474.00,0.0163
473.00,0.0153
472.00,0.0147
471.00,0.0151
470.00,0.0160
469.00,0.0168
468.00,0.0176
467.00,0.0188
466.00,0.0201
465.00,0.0210
464.00,0.0209
463.00,0.0199
462.00,0.0187
461.00,0.0180
460.00,0.0179
459.00,0.0188
458.00,0.0201
457.00,0.0212
456.00,0.0213
455.00,0.0207
454.00,0.0199
453.00,0.0193
452.00,0.0189
451.00,0.0186
450.00,0.0180
