Created as New Dataset,Sample 010 By Administrator Date Thursday, September 04 2025
cm-1,A
4000.00,0.0008
3999.00,0.0008
3998.00,0.0008
3997.00,0.0008
3996.00,0.0007
3995.00,0.0007
3994.00,0.0007
3993.00,0.0007
3992.00,0.0007
3991.00,0.0007
3990.00,0.0007
3989.00,0.0007
3988.00,0.0007
3987.00,0.0007
3986.00,0.0006
3985.00,0.0006
3984.00,0.0006
3983.00,0.0006
3982.00,0.0006
3981.00,0.0006
3980.00,0.0006
3979.00,0.0006
3978.00,0.0006
3977.00,0.0006
3976.00,0.0007
3975.00,0.0007
3974.00,0.0007
3973.00,0.0006
3972.00,0.0006
3971.00,0.0006
3970.00,0.0006
3969.00,0.0006
3968.00,0.0006
3967.00,0.0006
3966.00,0.0006
3965.00,0.0006
3964.00,0.0006
3963.00,0.0006
3962.00,0.0005
3961.00,0.0005
3960.00,0.0005
3959.00,0.0005
3958.00,0.0005
3957.00,0.0005
3956.00,0.0005
3955.00,0.0005
3954.00,0.0006
3953.00,0.0006
3952.00,0.0006
3951.00,0.0005
3950.00,0.0005
3949.00,0.0005
3948.00,0.0005
3947.00,0.0005
3946.00,0.0005
3945.00,0.0005
3944.00,0.0005
3943.00,0.0006
3942.00,0.0006
3941.00,0.0006
3940.00,0.0006
3939.00,0.0005
3938.00,0.0005
3937.00,0.0005
3936.00,0.0005
3935.00,0.0006
3934.00,0.0006
3933.00,0.0006
3932.00,0.0006
3931.00,0.0006
3930.00,0.0006
3929.00,0.0006
3928.00,0.0006
3927.00,0.0006
3926.00,0.0006
3925.00,0.0006
3924.00,0.0007
3923.00,0.0007
3922.00,0.0007
3921.00,0.0007
3920.00,0.0007
3919.00,0.0007
3918.00,0.0007
3917.00,0.0007
3916.00,0.0006
3915.00,0.0006
3914.00,0.0005
3913.00,0.0005
3912.00,0.0005
3911.00,0.0005
3910.00,0.0006
3909.00,0.0006
3908.00,0.0006
3907.00,0.0007
3906.00,0.0007
3905.00,0.0007
3904.00,0.0007
3903.00,0.0007
3902.00,0.0007
3901.00,0.0007
3900.00,0.0007
3899.00,0.0006
3898.00,0.0006
3897.00,0.0006
3896.00,0.0006
3895.00,0.0006
3894.00,0.0006
3893.00,0.0006
3892.00,0.0006
3891.00,0.0006
3890.00,0.0006
3889.00,0.0006
3888.00,0.0006
3887.00,0.0006
3886.00,0.0006
3885.00,0.0006
3884.00,0.0006
3883.00,0.0006
3882.00,0.0007
3881.00,0.0007
3880.00,0.0006
3879.00,0.0006
3878.00,0.0006
3877.00,0.0006
3876.00,0.0006
3875.00,0.0006
3874.00,0.0006
3873.00,0.0006
3872.00,0.0006
3871.00,0.0007
3870.00,0.0007
3869.00,0.0007
3868.00,0.0007
3867.00,0.0007
3866.00,0.0007
3865.00,0.0007
3864.00,0.0006
3863.00,0.0006
3862.00,0.0006
3861.00,0.0006
3860.00,0.0006
3859.00,0.0006
3858.00,0.0006
3857.00,0.0007
3856.00,0.0008
3855.00,0.0008
3854.00,0.0007
3853.00,0.0007
3852.00,0.0007
3851.00,0.0007
3850.00,0.0007
3849.00,0.0007
3848.00,0.0006
3847.00,0.0006
3846.00,0.0006
3845.00,0.0006
3844.00,0.0007
3843.00,0.0007
3842.00,0.0006
3841.00,0.0006
3840.00,0.0006
3839.00,0.0006
3838.00,0.0005
3837.00,0.0005
3836.00,0.0005
3835.00,0.0005
3834.00,0.0006
3833.00,0.0006
3832.00,0.0006
3831.00,0.0006
3830.00,0.0006
3829.00,0.0006
3828.00,0.0006
3827.00,0.0006
3826.00,0.0007
3825.00,0.0007
3824.00,0.0007
3823.00,0.0007
3822.00,0.0007
3821.00,0.0006
3820.00,0.0006
3819.00,0.0007
3818.00,0.0007
3817.00,0.0007
3816.00,0.0007
3815.00,0.0006
3814.00,0.0006
3813.00,0.0006
3812.00,0.0006
3811.00,0.0006
3810.00,0.0007
3809.00,0.0007
3808.00,0.0007
3807.00,0.0006
3806.00,0.0006
3805.00,0.0006
3804.00,0.0007
3803.00,0.0007
3802.00,0.0007
3801.00,0.0007
3800.00,0.0006
3799.00,0.0006
3798.00,0.0006
3797.00,0.0006
3796.00,0.0006
3795.00,0.0005
3794.00,0.0005
3793.00,0.0006
3792.00,0.0006
3791.00,0.0005
3790.00,0.0005
3789.00,0.0005
3788.00,0.0006
3787.00,0.0006
3786.00,0.0006
3785.00,0.0006
3784.00,0.0005
3783.00,0.0006
3782.00,0.0006
3781.00,0.0006
3780.00,0.0007
3779.00,0.0007
3778.00,0.0007
3777.00,0.0007
3776.00,0.0007
3775.00,0.0007
3774.00,0.0007
3773.00,0.0007
3772.00,0.0007
3771.00,0.0007
3770.00,0.0007
3769.00,0.0007
3768.00,0.0007
3767.00,0.0008
3766.00,0.0007
3765.00,0.0007
3764.00,0.0007
3763.00,0.0007
3762.00,0.0007
3761.00,0.0007
3760.00,0.0007
3759.00,0.0007
3758.00,0.0006
3757.00,0.0006
3756.00,0.0006
3755.00,0.0006
3754.00,0.0007
3753.00,0.0007
3752.00,0.0007
3751.00,0.0008
3750.00,0.0008
3749.00,0.0009
3748.00,0.0010
3747.00,0.0010
3746.00,0.0009
3745.00,0.0009
3744.00,0.0008
3743.00,0.0008
3742.00,0.0008
3741.00,0.0008
3740.00,0.0007
3739.00,0.0007
3738.00,0.0007
3737.00,0.0007
3736.00,0.0007
3735.00,0.0007
3734.00,0.0006
3733.00,0.0006
3732.00,0.0005
3731.00,0.0006
3730.00,0.0006
3729.00,0.0006
3728.00,0.0007
3727.00,0.0006
3726.00,0.0006
3725.00,0.0006
3724.00,0.0005
3723.00,0.0005
3722.00,0.0005
3721.00,0.0005
3720.00,0.0005
3719.00,0.0005
3718.00,0.0005
3717.00,0.0005
3716.00,0.0005
3715.00,0.0005
3714.00,0.0005
3713.00,0.0005
3712.00,0.0005
3711.00,0.0005
3710.00,0.0005
3709.00,0.0005
3708.00,0.0006
3707.00,0.0006
3706.00,0.0006
3705.00,0.0006
3704.00,0.0006
3703.00,0.0006
3702.00,0.0006
3701.00,0.0006
3700.00,0.0005
3699.00,0.0005
3698.00,0.0005
3697.00,0.0005
3696.00,0.0005
3695.00,0.0005
3694.00,0.0005
3693.00,0.0006
3692.00,0.0006
3691.00,0.0006
3690.00,0.0005
3689.00,0.0005
3688.00,0.0004
3687.00,0.0004
3686.00,0.0004
3685.00,0.0005
3684.00,0.0005
3683.00,0.0005
3682.00,0.0005
3681.00,0.0005
3680.00,0.0005
3679.00,0.0006
3678.00,0.0007
3677.00,0.0008
3676.00,0.0008
3675.00,0.0008
3674.00,0.0008
3673.00,0.0008
3672.00,0.0007
3671.00,0.0006
3670.00,0.0006
3669.00,0.0005
3668.00,0.0005
3667.00,0.0005
3666.00,0.0004
3665.00,0.0004
3664.00,0.0004
3663.00,0.0004
3662.00,0.0004
3661.00,0.0004
3660.00,0.0004
3659.00,0.0005
3658.00,0.0006
3657.00,0.0006
3656.00,0.0006
3655.00,0.0006
3654.00,0.0006
3653.00,0.0005
3652.00,0.0005
3651.00,0.0005
3650.00,0.0006
3649.00,0.0006
3648.00,0.0006
3647.00,0.0006
3646.00,0.0006
3645.00,0.0006
3644.00,0.0006
3643.00,0.0005
3642.00,0.0005
3641.00,0.0005
3640.00,0.0005
3639.00,0.0005
3638.00,0.0005
3637.00,0.0006
3636.00,0.0006
3635.00,0.0006
3634.00,0.0006
3633.00,0.0007
3632.00,0.0008
3631.00,0.0009
3630.00,0.0009
3629.00,0.0009
3628.00,0.0008
3627.00,0.0008
3626.00,0.0008
3625.00,0.0007
3624.00,0.0007
3623.00,0.0006
3622.00,0.0006
3621.00,0.0006
3620.00,0.0007
3619.00,0.0007
3618.00,0.0007
3617.00,0.0008
3616.00,0.0008
3615.00,0.0008
3614.00,0.0008
3613.00,0.0008
3612.00,0.0008
3611.00,0.0008
3610.00,0.0008
3609.00,0.0008
3608.00,0.0009
3607.00,0.0009
3606.00,0.0009
3605.00,0.0009
3604.00,0.0009
3603.00,0.0009
3602.00,0.0010
3601.00,0.0010
3600.00,0.0009
3599.00,0.0009
3598.00,0.0009
3597.00,0.0010
3596.00,0.0010
3595.00,0.0010
3594.00,0.0011
3593.00,0.0011
3592.00,0.0011
3591.00,0.0011
3590.00,0.0011
3589.00,0.0011
3588.00,0.0011
3587.00,0.0011
3586.00,0.0011
3585.00,0.0012
3584.00,0.0012
3583.00,0.0012
3582.00,0.0012
3581.00,0.0012
3580.00,0.0012
3579.00,0.0012
3578.00,0.0012
3577.00,0.0012
3576.00,0.0012
3575.00,0.0012
3574.00,0.0013
3573.00,0.0013
3572.00,0.0014
3571.00,0.0014
3570.00,0.0015
3569.00,0.0015
3568.00,0.0014
3567.00,0.0014
3566.00,0.0014
3565.00,0.0015
3564.00,0.0015
3563.00,0.0015
3562.00,0.0016
3561.00,0.0016
3560.00,0.0016
3559.00,0.0016
3558.00,0.0016
3557.00,0.0016
3556.00,0.0016
3555.00,0.0016
3554.00,0.0017
3553.00,0.0017
3552.00,0.0017
3551.00,0.0018
3550.00,0.0019
3549.00,0.0019
3548.00,0.0019
3547.00,0.0019
3546.00,0.0019
3545.00,0.0019
3544.00,0.0019
3543.00,0.0019
3542.00,0.0019
3541.00,0.0019
3540.00,0.0020
3539.00,0.0020
3538.00,0.0020
3537.00,0.0020
3536.00,0.0020
3535.00,0.0021
3534.00,0.0021
3533.00,0.0021
3532.00,0.0022
3531.00,0.0022
3530.00,0.0022
3529.00,0.0022
3528.00,0.0022
3527.00,0.0022
3526.00,0.0022
3525.00,0.0023
3524.00,0.0024
3523.00,0.0024
3522.00,0.0024
3521.00,0.0024
3520.00,0.0024
3519.00,0.0024
3518.00,0.0024
3517.00,0.0024
3516.00,0.0024
3515.00,0.0024
3514.00,0.0024
3513.00,0.0024
3512.00,0.0024
3511.00,0.0025
3510.00,0.0025
3509.00,0.0026
3508.00,0.0026
3507.00,0.0026
3506.00,0.0027
3505.00,0.0027
3504.00,0.0028
3503.00,0.0028
3502.00,0.0028
3501.00,0.0028
3500.00,0.0028
3499.00,0.0029
3498.00,0.0029
3497.00,0.0029
3496.00,0.0029
3495.00,0.0029
3494.00,0.0029
3493.00,0.0029
3492.00,0.0030
3491.00,0.0030
3490.00,0.0030
3489.00,0.0030
3488.00,0.0030
3487.00,0.0031
3486.00,0.0031
3485.00,0.0031
3484.00,0.0031
3483.00,0.0031
3482.00,0.0031
3481.00,0.0031
3480.00,0.0032
3479.00,0.0032
3478.00,0.0032
3477.00,0.0033
3476.00,0.0033
3475.00,0.0033
3474.00,0.0033
3473.00,0.0034
3472.00,0.0034
3471.00,0.0034
3470.00,0.0035
3469.00,0.0035
3468.00,0.0035
3467.00,0.0035
3466.00,0.0034
3465.00,0.0034
3464.00,0.0034
3463.00,0.0034
3462.00,0.0034
3461.00,0.0034
3460.00,0.0034
3459.00,0.0035
3458.00,0.0035
3457.00,0.0036
3456.00,0.0036
3455.00,0.0037
3454.00,0.0037
3453.00,0.0037
3452.00,0.0037
3451.00,0.0037
3450.00,0.0038
3449.00,0.0038
3448.00,0.0038
3447.00,0.0038
3446.00,0.0039
3445.00,0.0039
3444.00,0.0039
3443.00,0.0039
3442.00,0.0039
3441.00,0.0039
3440.00,0.0039
3439.00,0.0039
3438.00,0.0039
3437.00,0.0039
3436.00,0.0039
3435.00,0.0039
3434.00,0.0039
3433.00,0.0039
3432.00,0.0040
3431.00,0.0040
3430.00,0.0040
3429.00,0.0040
3428.00,0.0040
3427.00,0.0040
3426.00,0.0041
3425.00,0.0041
3424.00,0.0042
3423.00,0.0042
3422.00,0.0042
3421.00,0.0042
3420.00,0.0043
3419.00,0.0043
3418.00,0.0043
3417.00,0.0044
3416.00,0.0044
3415.00,0.0044
3414.00,0.0044
3413.00,0.0044
3412.00,0.0044
3411.00,0.0044
3410.00,0.0045
3409.00,0.0045
3408.00,0.0045
3407.00,0.0044
3406.00,0.0044
3405.00,0.0044
3404.00,0.0044
3403.00,0.0044
3402.00,0.0044
3401.00,0.0044
3400.00,0.0044
3399.00,0.0044
3398.00,0.0044
3397.00,0.0044
3396.00,0.0044
3395.00,0.0044
3394.00,0.0044
3393.00,0.0044
3392.00,0.0044
3391.00,0.0044
3390.00,0.0045
3389.00,0.0045
3388.00,0.0045
3387.00,0.0046
3386.00,0.0046
3385.00,0.0046
3384.00,0.0046
3383.00,0.0046
3382.00,0.0046
3381.00,0.0046
3380.00,0.0047
3379.00,0.0047
3378.00,0.0048
3377.00,0.0048
3376.00,0.0048
3375.00,0.0048
3374.00,0.0047
3373.00,0.0047
3372.00,0.0047
3371.00,0.0047
3370.00,0.0048
3369.00,0.0048
3368.00,0.0048
3367.00,0.0049
3366.00,0.0049
3365.00,0.0049
3364.00,0.0049
3363.00,0.0049
3362.00,0.0049
3361.00,0.0049
3360.00,0.0049
3359.00,0.0049
3358.00,0.0048
3357.00,0.0048
3356.00,0.0048
3355.00,0.0049
3354.00,0.0049
3353.00,0.0050
3352.00,0.0050
3351.00,0.0050
3350.00,0.0050
3349.00,0.0050
3348.00,0.0050
3347.00,0.0050
3346.00,0.0050
3345.00,0.0050
3344.00,0.0050
3343.00,0.0050
3342.00,0.0050
3341.00,0.0050
3340.00,0.0050
3339.00,0.0050
3338.00,0.0050
3337.00,0.0049
3336.00,0.0049
3335.00,0.0049
3334.00,0.0049
3333.00,0.0049
3332.00,0.0049
3331.00,0.0049
3330.00,0.0049
3329.00,0.0049
3328.00,0.0049
3327.00,0.0049
3326.00,0.0049
3325.00,0.0050
3324.00,0.0050
3323.00,0.0049
3322.00,0.0049
3321.00,0.0049
3320.00,0.0049
3319.00,0.0049
3318.00,0.0049
3317.00,0.0049
3316.00,0.0049
3315.00,0.0049
3314.00,0.0049
3313.00,0.0049
3312.00,0.0049
3311.00,0.0049
3310.00,0.0049
3309.00,0.0050
3308.00,0.0050
3307.00,0.0050
3306.00,0.0050
3305.00,0.0050
3304.00,0.0050
3303.00,0.0051
3302.00,0.0051
3301.00,0.0051
3300.00,0.0051
3299.00,0.0051
3298.00,0.0050
3297.00,0.0050
3296.00,0.0049
3295.00,0.0049
3294.00,0.0048
3293.00,0.0048
3292.00,0.0048
3291.00,0.0047
3290.00,0.0047
3289.00,0.0047
3288.00,0.0047
3287.00,0.0047
3286.00,0.0047
3285.00,0.0047
3284.00,0.0047
3283.00,0.0047
3282.00,0.0047
3281.00,0.0047
3280.00,0.0046
3279.00,0.0046
3278.00,0.0045
3277.00,0.0045
3276.00,0.0044
3275.00,0.0044
3274.00,0.0044
3273.00,0.0044
3272.00,0.0044
3271.00,0.0044
3270.00,0.0044
3269.00,0.0044
3268.00,0.0044
3267.00,0.0043
3266.00,0.0043
3265.00,0.0043
3264.00,0.0043
3263.00,0.0043
3262.00,0.0042
3261.00,0.0042
3260.00,0.0042
3259.00,0.0042
3258.00,0.0042
3257.00,0.0042
3256.00,0.0042
3255.00,0.0042
3254.00,0.0041
3253.00,0.0041
3252.00,0.0041
3251.00,0.0041
3250.00,0.0041
3249.00,0.0040
3248.00,0.0040
3247.00,0.0040
3246.00,0.0040
3245.00,0.0040
3244.00,0.0040
3243.00,0.0040
3242.00,0.0040
3241.00,0.0040
3240.00,0.0040
3239.00,0.0040
3238.00,0.0039
3237.00,0.0039
3236.00,0.0039
3235.00,0.0039
3234.00,0.0040
3233.00,0.0040
3232.00,0.0040
3231.00,0.0041
3230.00,0.0041
3229.00,0.0041
3228.00,0.0041
3227.00,0.0041
3226.00,0.0041
3225.00,0.0041
3224.00,0.0041
3223.00,0.0041
3222.00,0.0041
3221.00,0.0042
3220.00,0.0042
3219.00,0.0042
3218.00,0.0042
3217.00,0.0043
3216.00,0.0042
3215.00,0.0042
3214.00,0.0042
3213.00,0.0043
3212.00,0.0043
3211.00,0.0044
3210.00,0.0044
3209.00,0.0044
3208.00,0.0043
3207.00,0.0043
3206.00,0.0043
3205.00,0.0043
3204.00,0.0043
3203.00,0.0044
3202.00,0.0044
3201.00,0.0044
3200.00,0.0044
3199.00,0.0044
3198.00,0.0044
3197.00,0.0043
3196.00,0.0043
3195.00,0.0043
3194.00,0.0043
3193.00,0.0043
3192.00,0.0043
3191.00,0.0043
3190.00,0.0043
3189.00,0.0043
3188.00,0.0043
3187.00,0.0042
3186.00,0.0042
3185.00,0.0042
3184.00,0.0043
3183.00,0.0043
3182.00,0.0042
3181.00,0.0042
3180.00,0.0041
3179.00,0.0041
3178.00,0.0041
3177.00,0.0041
3176.00,0.0041
3175.00,0.0041
3174.00,0.0041
3173.00,0.0040
3172.00,0.0040
3171.00,0.0040
3170.00,0.0040
3169.00,0.0040
3168.00,0.0040
3167.00,0.0040
3166.00,0.0040
3165.00,0.0040
3164.00,0.0040
3163.00,0.0039
3162.00,0.0039
3161.00,0.0039
3160.00,0.0038
3159.00,0.0038
3158.00,0.0038
3157.00,0.0038
3156.00,0.0039
3155.00,0.0039
3154.00,0.0039
3153.00,0.0038
3152.00,0.0038
3151.00,0.0038
3150.00,0.0038
3149.00,0.0038
3148.00,0.0038
3147.00,0.0038
3146.00,0.0038
3145.00,0.0038
3144.00,0.0038
3143.00,0.0038
3142.00,0.0038
3141.00,0.0037
3140.00,0.0037
3139.00,0.0037
3138.00,0.0036
3137.00,0.0036
3136.00,0.0036
3135.00,0.0036
3134.00,0.0036
3133.00,0.0036
3132.00,0.0035
3131.00,0.0035
3130.00,0.0035
3129.00,0.0035
3128.00,0.0035
3127.00,0.0035
3126.00,0.0034
3125.00,0.0034
3124.00,0.0034
3123.00,0.0033
3122.00,0.0033
3121.00,0.0033
3120.00,0.0033
3119.00,0.0033
3118.00,0.0033
3117.00,0.0033
3116.00,0.0032
3115.00,0.0032
3114.00,0.0032
3113.00,0.0033
3112.00,0.0033
3111.00,0.0032
3110.00,0.0032
3109.00,0.0031
3108.00,0.0031
3107.00,0.0031
3106.00,0.0031
3105.00,0.0031
3104.00,0.0031
3103.00,0.0032
3102.00,0.0032
3101.00,0.0031
3100.00,0.0031
3099.00,0.0031
3098.00,0.0031
3097.00,0.0031
3096.00,0.0031
3095.00,0.0031
3094.00,0.0031
3093.00,0.0031
3092.00,0.0031
3091.00,0.0030
3090.00,0.0030
3089.00,0.0030
3088.00,0.0030
3087.00,0.0030
3086.00,0.0030
3085.00,0.0030
3084.00,0.0030
3083.00,0.0030
3082.00,0.0030
3081.00,0.0030
3080.00,0.0030
3079.00,0.0030
3078.00,0.0030
3077.00,0.0031
3076.00,0.0031
3075.00,0.0031
3074.00,0.0031
3073.00,0.0031
3072.00,0.0031
3071.00,0.0031
3070.00,0.0031
3069.00,0.0031
3068.00,0.0031
3067.00,0.0031
3066.00,0.0031
3065.00,0.0032
3064.00,0.0032
3063.00,0.0032
3062.00,0.0032
3061.00,0.0032
3060.00,0.0032
3059.00,0.0032
3058.00,0.0032
3057.00,0.0033
3056.00,0.0033
3055.00,0.0034
3054.00,0.0034
3053.00,0.0034
3052.00,0.0034
3051.00,0.0034
3050.00,0.0034
3049.00,0.0034
3048.00,0.0035
3047.00,0.0035
3046.00,0.0035
3045.00,0.0035
3044.00,0.0035
3043.00,0.0035
3042.00,0.0035
3041.00,0.0036
3040.00,0.0036
3039.00,0.0036
3038.00,0.0037
3037.00,0.0037
3036.00,0.0037
3035.00,0.0038
3034.00,0.0038
3033.00,0.0039
3032.00,0.0039
3031.00,0.0039
3030.00,0.0040
3029.00,0.0040
3028.00,0.0040
3027.00,0.0041
3026.00,0.0041
3025.00,0.0042
3024.00,0.0043
3023.00,0.0043
3022.00,0.0044
3021.00,0.0045
3020.00,0.0045
3019.00,0.0046
3018.00,0.0046
3017.00,0.0047
3016.00,0.0047
3015.00,0.0048
3014.00,0.0049
3013.00,0.0050
3012.00,0.0052
3011.00,0.0053
3010.00,0.0054
3009.00,0.0056
3008.00,0.0057
3007.00,0.0058
3006.00,0.0060
3005.00,0.0061
3004.00,0.0063
3003.00,0.0065
3002.00,0.0067
3001.00,0.0069
3000.00,0.0071
2999.00,0.0074
2998.00,0.0077
2997.00,0.0080
2996.00,0.0083
2995.00,0.0087
2994.00,0.0091
2993.00,0.0095
2992.00,0.0100
2991.00,0.0105
2990.00,0.0111
2989.00,0.0117
2988.00,0.0125
2987.00,0.0133
2986.00,0.0141
2985.00,0.0151
2984.00,0.0162
2983.00,0.0174
2982.00,0.0189
2981.00,0.0205
2980.00,0.0223
2979.00,0.0244
2978.00,0.0268
2977.00,0.0296
2976.00,0.0327
2975.00,0.0363
2974.00,0.0405
2973.00,0.0452
2972.00,0.0505
2971.00,0.0565
2970.00,0.0632
2969.00,0.0705
2968.00,0.0783
2967.00,0.0867
2966.00,0.0953
2965.00,0.1041
2964.00,0.1125
2963.00,0.1201
2962.00,0.1264
2961.00,0.1311
2960.00,0.1346
2959.00,0.1373
2958.00,0.1400
2957.00,0.1436
2956.00,0.1486
2955.00,0.1555
2954.00,0.1638
2953.00,0.1728
2952.00,0.1812
2951.00,0.1872
2950.00,0.1894
2949.00,0.1870
2948.00,0.1800
2947.00,0.1694
2946.00,0.1567
2945.00,0.1435
2944.00,0.1312
2943.00,0.1207
2942.00,0.1127
2941.00,0.1071
2940.00,0.1038
2939.00,0.1027
2938.00,0.1036
2937.00,0.1062
2936.00,0.1103
2935.00,0.1159
2934.00,0.1229
2933.00,0.1312
2932.00,0.1407
2931.00,0.1512
2930.00,0.1626
2929.00,0.1744
2928.00,0.1865
2927.00,0.1986
2926.00,0.2104
2925.00,0.2221
2924.00,0.2337
2923.00,0.2453
2922.00,0.2570
2921.00,0.2684
2920.00,0.2786
2919.00,0.2863
2918.00,0.2901
2917.00,0.2891
2916.00,0.2832
2915.00,0.2733
2914.00,0.2609
2913.00,0.2479
2912.00,0.2355
2911.00,0.2245
2910.00,0.2148
2909.00,0.2065
2908.00,0.1990
2907.00,0.1919
2906.00,0.1850
2905.00,0.1781
2904.00,0.1711
2903.00,0.1640
2902.00,0.1571
2901.00,0.1504
2900.00,0.1440
2899.00,0.1379
2898.00,0.1322
2897.00,0.1270
2896.00,0.1222
2895.00,0.1181
2894.00,0.1146
2893.00,0.1118
2892.00,0.1096
2891.00,0.1080
2890.00,0.1069
2889.00,0.1062
2888.00,0.1058
2887.00,0.1058
2886.00,0.1060
2885.00,0.1066
2884.00,0.1075
2883.00,0.1089
2882.00,0.1106
2881.00,0.1125
2880.00,0.1143
2879.00,0.1157
2878.00,0.1163
2877.00,0.1162
2876.00,0.1156
2875.00,0.1148
2874.00,0.1145
2873.00,0.1148
2872.00,0.1159
2871.00,0.1178
2870.00,0.1201
2869.00,0.1223
2868.00,0.1239
2867.00,0.1239
2866.00,0.1218
2865.00,0.1174
2864.00,0.1110
2863.00,0.1036
2862.00,0.0961
2861.00,0.0896
2860.00,0.0845
2859.00,0.0809
2858.00,0.0788
2857.00,0.0780
2856.00,0.0783
2855.00,0.0793
2854.00,0.0809
2853.00,0.0829
2852.00,0.0850
2851.00,0.0869
2850.00,0.0884
2849.00,0.0896
2848.00,0.0906
2847.00,0.0920
2846.00,0.0942
2845.00,0.0975
2844.00,0.1017
2843.00,0.1067
2842.00,0.1117
2841.00,0.1161
2840.00,0.1192
2839.00,0.1201
2838.00,0.1184
2837.00,0.1138
2836.00,0.1067
2835.00,0.0977
2834.00,0.0876
2833.00,0.0774
2832.00,0.0680
2831.00,0.0597
2830.00,0.0526
2829.00,0.0469
2828.00,0.0422
2827.00,0.0383
2826.00,0.0352
2825.00,0.0326
2824.00,0.0305
2823.00,0.0286
2822.00,0.0270
2821.00,0.0256
2820.00,0.0244
2819.00,0.0233
2818.00,0.0223
2817.00,0.0215
2816.00,0.0208
2815.00,0.0201
2814.00,0.0195
2813.00,0.0189
2812.00,0.0184
2811.00,0.0179
2810.00,0.0173
2809.00,0.0168
2808.00,0.0162
2807.00,0.0156
2806.00,0.0149
2805.00,0.0143
2804.00,0.0137
2803.00,0.0131
2802.00,0.0126
2801.00,0.0122
2800.00,0.0118
2799.00,0.0115
2798.00,0.0112
2797.00,0.0110
2796.00,0.0107
2795.00,0.0105
2794.00,0.0103
2793.00,0.0100
2792.00,0.0097
2791.00,0.0094
2790.00,0.0090
2789.00,0.0088
2788.00,0.0085
2787.00,0.0082
2786.00,0.0079
2785.00,0.0076
2784.00,0.0074
2783.00,0.0072
2782.00,0.0070
2781.00,0.0068
2780.00,0.0066
2779.00,0.0065
2778.00,0.0063
2777.00,0.0062
2776.00,0.0060
2775.00,0.0059
2774.00,0.0059
2773.00,0.0058
2772.00,0.0058
2771.00,0.0057
2770.00,0.0057
2769.00,0.0056
2768.00,0.0056
2767.00,0.0055
2766.00,0.0055
2765.00,0.0055
2764.00,0.0054
2763.00,0.0054
2762.00,0.0053
2761.00,0.0053
2760.00,0.0052
2759.00,0.0052
2758.00,0.0052
2757.00,0.0052
2756.00,0.0052
2755.00,0.0052
2754.00,0.0052
2753.00,0.0052
2752.00,0.0052
2751.00,0.0051
2750.00,0.0051
2749.00,0.0050
2748.00,0.0051
2747.00,0.0051
2746.00,0.0052
2745.00,0.0052
2744.00,0.0053
2743.00,0.0054
2742.00,0.0055
2741.00,0.0056
2740.00,0.0057
2739.00,0.0058
2738.00,0.0059
2737.00,0.0060
2736.00,0.0062
2735.00,0.0063
2734.00,0.0064
2733.00,0.0066
2732.00,0.0067
2731.00,0.0069
2730.00,0.0071
2729.00,0.0073
2728.00,0.0076
2727.00,0.0079
2726.00,0.0082
2725.00,0.0084
2724.00,0.0086
2723.00,0.0086
2722.00,0.0085
2721.00,0.0084
2720.00,0.0081
2719.00,0.0078
2718.00,0.0074
2717.00,0.0071
2716.00,0.0069
2715.00,0.0066
2714.00,0.0064
2713.00,0.0062
2712.00,0.0060
2711.00,0.0058
2710.00,0.0056
2709.00,0.0055
2708.00,0.0053
2707.00,0.0052
2706.00,0.0051
2705.00,0.0050
2704.00,0.0049
2703.00,0.0048
2702.00,0.0047
2701.00,0.0046
2700.00,0.0045
2699.00,0.0045
2698.00,0.0044
2697.00,0.0044
2696.00,0.0044
2695.00,0.0044
2694.00,0.0044
2693.00,0.0044
2692.00,0.0045
2691.00,0.0045
2690.00,0.0045
2689.00,0.0044
2688.00,0.0044
2687.00,0.0044
2686.00,0.0044
2685.00,0.0045
2684.00,0.0045
2683.00,0.0045
2682.00,0.0045
2681.00,0.0045
2680.00,0.0045
2679.00,0.0045
2678.00,0.0045
2677.00,0.0045
2676.00,0.0046
2675.00,0.0045
2674.00,0.0045
2673.00,0.0045
2672.00,0.0044
2671.00,0.0044
2670.00,0.0044
2669.00,0.0044
2668.00,0.0045
2667.00,0.0045
2666.00,0.0045
2665.00,0.0046
2664.00,0.0046
2663.00,0.0047
2662.00,0.0047
2661.00,0.0048
2660.00,0.0048
2659.00,0.0048
2658.00,0.0048
2657.00,0.0047
2656.00,0.0047
2655.00,0.0047
2654.00,0.0046
2653.00,0.0046
2652.00,0.0045
2651.00,0.0044
2650.00,0.0043
2649.00,0.0043
2648.00,0.0042
2647.00,0.0042
2646.00,0.0042
2645.00,0.0042
2644.00,0.0041
2643.00,0.0041
2642.00,0.0040
2641.00,0.0040
2640.00,0.0040
2639.00,0.0039
2638.00,0.0039
2637.00,0.0038
2636.00,0.0038
2635.00,0.0038
2634.00,0.0038
2633.00,0.0038
2632.00,0.0039
2631.00,0.0039
2630.00,0.0039
2629.00,0.0039
2628.00,0.0039
2627.00,0.0039
2626.00,0.0039
2625.00,0.0039
2624.00,0.0039
2623.00,0.0039
2622.00,0.0039
2621.00,0.0039
2620.00,0.0039
2619.00,0.0040
2618.00,0.0040
2617.00,0.0040
2616.00,0.0040
2615.00,0.0040
2614.00,0.0040
2613.00,0.0040
2612.00,0.0039
2611.00,0.0038
2610.00,0.0038
2609.00,0.0037
2608.00,0.0037
2607.00,0.0036
2606.00,0.0035
2605.00,0.0035
2604.00,0.0034
2603.00,0.0034
2602.00,0.0033
2601.00,0.0033
2600.00,0.0033
2599.00,0.0033
2598.00,0.0032
2597.00,0.0032
2596.00,0.0032
2595.00,0.0032
2594.00,0.0032
2593.00,0.0032
2592.00,0.0032
2591.00,0.0033
2590.00,0.0034
2589.00,0.0035
2588.00,0.0036
2587.00,0.0037
2586.00,0.0038
2585.00,0.0038
2584.00,0.0039
2583.00,0.0039
2582.00,0.0038
2581.00,0.0038
2580.00,0.0037
2579.00,0.0036
2578.00,0.0036
2577.00,0.0035
2576.00,0.0034
2575.00,0.0033
2574.00,0.0031
2573.00,0.0030
2572.00,0.0030
2571.00,0.0029
2570.00,0.0028
2569.00,0.0027
2568.00,0.0027
2567.00,0.0027
2566.00,0.0027
2565.00,0.0027
2564.00,0.0026
2563.00,0.0025
2562.00,0.0024
2561.00,0.0024
2560.00,0.0023
2559.00,0.0023
2558.00,0.0022
2557.00,0.0022
2556.00,0.0021
2555.00,0.0021
2554.00,0.0020
2553.00,0.0020
2552.00,0.0020
2551.00,0.0020
2550.00,0.0020
2549.00,0.0020
2548.00,0.0019
2547.00,0.0019
2546.00,0.0018
2545.00,0.0017
2544.00,0.0017
2543.00,0.0017
2542.00,0.0017
2541.00,0.0017
2540.00,0.0017
2539.00,0.0017
2538.00,0.0017
2537.00,0.0017
2536.00,0.0017
2535.00,0.0017
2534.00,0.0017
2533.00,0.0017
2532.00,0.0016
2531.00,0.0016
2530.00,0.0016
2529.00,0.0015
2528.00,0.0015
2527.00,0.0014
2526.00,0.0015
2525.00,0.0015
2524.00,0.0015
2523.00,0.0016
2522.00,0.0015
2521.00,0.0014
2520.00,0.0013
2519.00,0.0012
2518.00,0.0011
2517.00,0.0011
2516.00,0.0011
2515.00,0.0011
2514.00,0.0011
2513.00,0.0011
2512.00,0.0011
2511.00,0.0011
2510.00,0.0011
2509.00,0.0012
2508.00,0.0011
2507.00,0.0011
2506.00,0.0010
2505.00,0.0010
2504.00,0.0010
2503.00,0.0010
2502.00,0.0010
2501.00,0.0011
2500.00,0.0011
2499.00,0.0011
2498.00,0.0011
2497.00,0.0011
2496.00,0.0011
2495.00,0.0011
2494.00,0.0011
2493.00,0.0011
2492.00,0.0010
2491.00,0.0010
2490.00,0.0010
2489.00,0.0010
2488.00,0.0011
2487.00,0.0011
2486.00,0.0011
2485.00,0.0011
2484.00,0.0012
2483.00,0.0012
2482.00,0.0012
2481.00,0.0011
2480.00,0.0010
2479.00,0.0009
2478.00,0.0009
2477.00,0.0009
2476.00,0.0009
2475.00,0.0009
2474.00,0.0009
2473.00,0.0009
2472.00,0.0009
2471.00,0.0009
2470.00,0.0009
2469.00,0.0008
2468.00,0.0008
2467.00,0.0008
2466.00,0.0009
2465.00,0.0009
2464.00,0.0010
2463.00,0.0010
2462.00,0.0009
2461.00,0.0008
2460.00,0.0008
2459.00,0.0008
2458.00,0.0008
2457.00,0.0009
2456.00,0.0010
2455.00,0.0011
2454.00,0.0011
2453.00,0.0011
2452.00,0.0010
2451.00,0.0010
2450.00,0.0010
2449.00,0.0011
2448.00,0.0011
2447.00,0.0012
2446.00,0.0012
2445.00,0.0011
2444.00,0.0011
2443.00,0.0011
2442.00,0.0010
2441.00,0.0010
2440.00,0.0010
2439.00,0.0010
2438.00,0.0010
2437.00,0.0011
2436.00,0.0011
2435.00,0.0012
2434.00,0.0012
2433.00,0.0012
2432.00,0.0012
2431.00,0.0011
2430.00,0.0010
2429.00,0.0010
2428.00,0.0010
2427.00,0.0011
2426.00,0.0011
2425.00,0.0011
2424.00,0.0011
2423.00,0.0010
2422.00,0.0010
2421.00,0.0009
2420.00,0.0009
2419.00,0.0009
2418.00,0.0009
2417.00,0.0009
2416.00,0.0009
2415.00,0.0010
2414.00,0.0010
2413.00,0.0010
2412.00,0.0010
2411.00,0.0009
2410.00,0.0009
2409.00,0.0009
2408.00,0.0008
2407.00,0.0008
2406.00,0.0008
2405.00,0.0009
2404.00,0.0009
2403.00,0.0009
2402.00,0.0009
2401.00,0.0009
2400.00,0.0008
2399.00,0.0008
2398.00,0.0007
2397.00,0.0007
2396.00,0.0008
2395.00,0.0008
2394.00,0.0007
2393.00,0.0007
2392.00,0.0007
2391.00,0.0007
2390.00,0.0007
2389.00,0.0007
2388.00,0.0007
2387.00,0.0007
2386.00,0.0006
2385.00,0.0006
2384.00,0.0005
2383.00,0.0005
2382.00,0.0004
2381.00,0.0004
2380.00,0.0004
2379.00,0.0003
2378.00,0.0003
2377.00,0.0003
2376.00,0.0003
2375.00,0.0002
2374.00,0.0002
2373.00,0.0003
2372.00,0.0003
2371.00,0.0002
2370.00,0.0002
2369.00,0.0001
2368.00,0.0000
2367.00,0.0000
2366.00,0.0001
2365.00,0.0002
2364.00,0.0002
2363.00,0.0002
2362.00,0.0002
2361.00,0.0002
2360.00,0.0002
2359.00,0.0001
2358.00,0.0001
2357.00,0.0001
2356.00,0.0000
2355.00,-0.0000
2354.00,-0.0001
2353.00,-0.0001
2352.00,-0.0002
2351.00,-0.0002
2350.00,-0.0002
2349.00,-0.0001
2348.00,0.0002
2347.00,0.0005
2346.00,0.0007
2345.00,0.0008
2344.00,0.0008
2343.00,0.0006
2342.00,0.0005
2341.00,0.0004
2340.00,0.0004
2339.00,0.0004
2338.00,0.0004
2337.00,0.0004
2336.00,0.0005
2335.00,0.0004
2334.00,0.0004
2333.00,0.0003
2332.00,0.0003
2331.00,0.0003
2330.00,0.0003
2329.00,0.0003
2328.00,0.0005
2327.00,0.0007
2326.00,0.0011
2325.00,0.0015
2324.00,0.0017
2323.00,0.0017
2322.00,0.0014
2321.00,0.0011
2320.00,0.0009
2319.00,0.0007
2318.00,0.0006
2317.00,0.0006
2316.00,0.0006
2315.00,0.0006
2314.00,0.0005
2313.00,0.0005
2312.00,0.0004
2311.00,0.0003
2310.00,0.0003
2309.00,0.0003
2308.00,0.0004
2307.00,0.0004
2306.00,0.0003
2305.00,0.0003
2304.00,0.0004
2303.00,0.0005
2302.00,0.0006
2301.00,0.0007
2300.00,0.0008
2299.00,0.0008
2298.00,0.0008
2297.00,0.0009
2296.00,0.0009
2295.00,0.0010
2294.00,0.0012
2293.00,0.0013
2292.00,0.0015
2291.00,0.0015
2290.00,0.0015
2289.00,0.0016
2288.00,0.0017
2287.00,0.0017
2286.00,0.0018
2285.00,0.0018
2284.00,0.0017
2283.00,0.0017
2282.00,0.0017
2281.00,0.0016
2280.00,0.0015
2279.00,0.0015
2278.00,0.0014
2277.00,0.0013
2276.00,0.0012
2275.00,0.0012
2274.00,0.0013
2273.00,0.0013
2272.00,0.0013
2271.00,0.0013
2270.00,0.0012
2269.00,0.0012
2268.00,0.0011
2267.00,0.0010
2266.00,0.0009
2265.00,0.0009
2264.00,0.0009
2263.00,0.0009
2262.00,0.0010
2261.00,0.0010
2260.00,0.0010
2259.00,0.0011
2258.00,0.0012
2257.00,0.0013
2256.00,0.0013
2255.00,0.0012
2254.00,0.0011
2253.00,0.0010
2252.00,0.0010
2251.00,0.0010
2250.00,0.0010
2249.00,0.0009
2248.00,0.0008
2247.00,0.0008
2246.00,0.0008
2245.00,0.0008
2244.00,0.0009
2243.00,0.0010
2242.00,0.0010
2241.00,0.0010
2240.00,0.0011
2239.00,0.0011
2238.00,0.0011
2237.00,0.0011
2236.00,0.0011
2235.00,0.0011
2234.00,0.0010
2233.00,0.0009
2232.00,0.0008
2231.00,0.0007
2230.00,0.0007
2229.00,0.0007
2228.00,0.0007
2227.00,0.0007
2226.00,0.0007
2225.00,0.0007
2224.00,0.0008
2223.00,0.0008
2222.00,0.0007
2221.00,0.0005
2220.00,0.0004
2219.00,0.0003
2218.00,0.0003
2217.00,0.0002
2216.00,0.0002
2215.00,0.0002
2214.00,0.0004
2213.00,0.0006
2212.00,0.0007
2211.00,0.0008
2210.00,0.0008
2209.00,0.0007
2208.00,0.0006
2207.00,0.0006
2206.00,0.0005
2205.00,0.0004
2204.00,0.0003
2203.00,0.0002
2202.00,0.0002
2201.00,0.0003
2200.00,0.0004
2199.00,0.0005
2198.00,0.0005
2197.00,0.0006
2196.00,0.0007
2195.00,0.0008
2194.00,0.0008
2193.00,0.0008
2192.00,0.0009
2191.00,0.0009
2190.00,0.0010
2189.00,0.0011
2188.00,0.0011
2187.00,0.0010
2186.00,0.0007
2185.00,0.0005
2184.00,0.0002
2183.00,0.0001
2182.00,0.0000
2181.00,0.0001
2180.00,0.0004
2179.00,0.0005
2178.00,0.0006
2177.00,0.0004
2176.00,0.0002
2175.00,0.0002
2174.00,0.0004
2173.00,0.0006
2172.00,0.0006
2171.00,0.0005
2170.00,0.0005
2169.00,0.0006
2168.00,0.0008
2167.00,0.0010
2166.00,0.0012
2165.00,0.0014
2164.00,0.0016
2163.00,0.0017
2162.00,0.0015
2161.00,0.0009
2160.00,0.0000
2159.00,-0.0011
2158.00,-0.0021
2157.00,-0.0025
2156.00,-0.0025
2155.00,-0.0022
2154.00,-0.0019
2153.00,-0.0017
2152.00,-0.0016
2151.00,-0.0014
2150.00,-0.0014
2149.00,-0.0014
2148.00,-0.0015
2147.00,-0.0017
2146.00,-0.0018
2145.00,-0.0018
2144.00,-0.0016
2143.00,-0.0014
2142.00,-0.0012
2141.00,-0.0011
2140.00,-0.0012
2139.00,-0.0013
2138.00,-0.0014
2137.00,-0.0015
2136.00,-0.0017
2135.00,-0.0018
2134.00,-0.0018
2133.00,-0.0017
2132.00,-0.0014
2131.00,-0.0011
2130.00,-0.0009
2129.00,-0.0008
2128.00,-0.0008
2127.00,-0.0008
2126.00,-0.0009
2125.00,-0.0008
2124.00,-0.0006
2123.00,-0.0004
2122.00,-0.0002
2121.00,-0.0001
2120.00,-0.0000
2119.00,0.0000
2118.00,0.0001
2117.00,0.0002
2116.00,0.0003
2115.00,0.0004
2114.00,0.0004
2113.00,0.0005
2112.00,0.0005
2111.00,0.0004
2110.00,0.0003
2109.00,0.0001
2108.00,0.0000
2107.00,-0.0001
2106.00,-0.0001
2105.00,-0.0000
2104.00,0.0000
2103.00,0.0000
2102.00,0.0000
2101.00,0.0001
2100.00,0.0002
2099.00,0.0002
2098.00,0.0001
2097.00,-0.0001
2096.00,-0.0003
2095.00,-0.0004
2094.00,-0.0004
2093.00,-0.0003
2092.00,-0.0002
2091.00,-0.0001
2090.00,0.0000
2089.00,0.0002
2088.00,0.0003
2087.00,0.0004
2086.00,0.0003
2085.00,0.0003
2084.00,0.0002
2083.00,0.0001
2082.00,-0.0000
2081.00,-0.0000
2080.00,0.0001
2079.00,0.0002
2078.00,0.0002
2077.00,0.0000
2076.00,-0.0001
2075.00,-0.0002
2074.00,-0.0002
2073.00,-0.0002
2072.00,-0.0002
2071.00,-0.0002
2070.00,-0.0003
2069.00,-0.0004
2068.00,-0.0004
2067.00,-0.0004
2066.00,-0.0002
2065.00,0.0000
2064.00,0.0001
2063.00,0.0000
2062.00,-0.0000
2061.00,-0.0000
2060.00,0.0000
2059.00,0.0000
2058.00,-0.0001
2057.00,-0.0001
2056.00,-0.0001
2055.00,-0.0001
2054.00,0.0001
2053.00,0.0006
2052.00,0.0012
2051.00,0.0014
2050.00,0.0013
2049.00,0.0009
2048.00,0.0005
2047.00,0.0000
2046.00,-0.0004
2045.00,-0.0006
2044.00,-0.0007
2043.00,-0.0006
2042.00,-0.0004
2041.00,-0.0002
2040.00,-0.0002
2039.00,-0.0002
2038.00,-0.0002
2037.00,-0.0001
2036.00,-0.0001
2035.00,-0.0003
2034.00,-0.0005
2033.00,-0.0008
2032.00,-0.0010
2031.00,-0.0011
2030.00,-0.0014
2029.00,-0.0016
2028.00,-0.0017
2027.00,-0.0019
2026.00,-0.0020
2025.00,-0.0020
2024.00,-0.0020
2023.00,-0.0019
2022.00,-0.0017
2021.00,-0.0016
2020.00,-0.0015
2019.00,-0.0016
2018.00,-0.0016
2017.00,-0.0016
2016.00,-0.0015
2015.00,-0.0015
2014.00,-0.0015
2013.00,-0.0014
2012.00,-0.0013
2011.00,-0.0011
2010.00,-0.0010
2009.00,-0.0011
2008.00,-0.0013
2007.00,-0.0017
2006.00,-0.0020
2005.00,-0.0021
2004.00,-0.0018
2003.00,-0.0016
2002.00,-0.0014
2001.00,-0.0014
2000.00,-0.0013
1999.00,-0.0012
1998.00,-0.0012
1997.00,-0.0013
1996.00,-0.0014
1995.00,-0.0014
1994.00,-0.0013
1993.00,-0.0010
1992.00,-0.0006
1991.00,-0.0003
1990.00,-0.0001
1989.00,0.0001
1988.00,0.0001
1987.00,0.0001
1986.00,0.0002
1985.00,0.0003
1984.00,0.0005
1983.00,0.0006
1982.00,0.0007
1981.00,0.0007
1980.00,0.0006
1979.00,0.0002
1978.00,-0.0004
1977.00,-0.0007
1976.00,-0.0006
1975.00,-0.0005
1974.00,-0.0004
1973.00,-0.0005
1972.00,-0.0007
1971.00,-0.0009
1970.00,-0.0010
1969.00,-0.0011
1968.00,-0.0011
1967.00,-0.0012
1966.00,-0.0013
1965.00,-0.0015
1964.00,-0.0017
1963.00,-0.0019
1962.00,-0.0020
1961.00,-0.0020
1960.00,-0.0020
1959.00,-0.0020
1958.00,-0.0019
1957.00,-0.0017
1956.00,-0.0015
1955.00,-0.0015
1954.00,-0.0015
1953.00,-0.0014
1952.00,-0.0012
1951.00,-0.0011
1950.00,-0.0011
1949.00,-0.0012
1948.00,-0.0014
1947.00,-0.0015
1946.00,-0.0017
1945.00,-0.0017
1944.00,-0.0016
1943.00,-0.0015
1942.00,-0.0014
1941.00,-0.0013
1940.00,-0.0012
1939.00,-0.0012
1938.00,-0.0011
1937.00,-0.0009
1936.00,-0.0008
1935.00,-0.0008
1934.00,-0.0009
1933.00,-0.0010
1932.00,-0.0010
1931.00,-0.0011
1930.00,-0.0012
1929.00,-0.0011
1928.00,-0.0011
1927.00,-0.0009
1926.00,-0.0008
1925.00,-0.0006
1924.00,-0.0005
1923.00,-0.0004
1922.00,-0.0003
1921.00,-0.0002
1920.00,-0.0002
1919.00,-0.0002
1918.00,-0.0003
1917.00,-0.0003
1916.00,-0.0003
1915.00,-0.0004
1914.00,-0.0004
1913.00,-0.0004
1912.00,-0.0003
1911.00,-0.0003
1910.00,-0.0003
1909.00,-0.0003
1908.00,-0.0003
1907.00,-0.0003
1906.00,-0.0003
1905.00,-0.0003
1904.00,-0.0002
1903.00,-0.0002
1902.00,-0.0001
1901.00,-0.0001
1900.00,0.0000
1899.00,0.0000
1898.00,-0.0000
1897.00,-0.0001
1896.00,-0.0002
1895.00,-0.0004
1894.00,-0.0005
1893.00,-0.0006
1892.00,-0.0006
1891.00,-0.0006
1890.00,-0.0005
1889.00,-0.0004
1888.00,-0.0002
1887.00,-0.0001
1886.00,-0.0001
1885.00,-0.0001
1884.00,-0.0002
1883.00,-0.0002
1882.00,-0.0002
1881.00,-0.0001
1880.00,-0.0001
1879.00,-0.0001
1878.00,-0.0001
1877.00,-0.0001
1876.00,-0.0001
1875.00,-0.0000
1874.00,0.0000
1873.00,0.0001
1872.00,0.0002
1871.00,0.0002
1870.00,0.0001
1869.00,-0.0001
1868.00,-0.0002
1867.00,-0.0002
1866.00,-0.0002
1865.00,-0.0000
1864.00,0.0001
1863.00,0.0002
1862.00,0.0002
1861.00,0.0001
1860.00,0.0001
1859.00,0.0001
1858.00,0.0002
1857.00,0.0002
1856.00,0.0001
1855.00,0.0000
1854.00,-0.0001
1853.00,-0.0001
1852.00,-0.0001
1851.00,-0.0000
1850.00,0.0000
1849.00,0.0001
1848.00,0.0002
1847.00,0.0001
1846.00,-0.0000
1845.00,-0.0001
1844.00,-0.0001
1843.00,-0.0001
1842.00,-0.0000
1841.00,0.0000
1840.00,0.0001
1839.00,0.0001
1838.00,0.0001
1837.00,0.0002
1836.00,0.0002
1835.00,0.0003
1834.00,0.0002
1833.00,0.0002
1832.00,0.0002
1831.00,0.0002
1830.00,0.0002
1829.00,0.0002
1828.00,0.0002
1827.00,0.0002
1826.00,0.0001
1825.00,0.0002
1824.00,0.0003
1823.00,0.0003
1822.00,0.0003
1821.00,0.0003
1820.00,0.0002
1819.00,0.0001
1818.00,0.0000
1817.00,-0.0000
1816.00,-0.0000
1815.00,0.0000
1814.00,0.0001
1813.00,0.0002
1812.00,0.0002
1811.00,0.0003
1810.00,0.0003
1809.00,0.0003
1808.00,0.0003
1807.00,0.0004
1806.00,0.0005
1805.00,0.0005
1804.00,0.0006
1803.00,0.0006
1802.00,0.0005
1801.00,0.0005
1800.00,0.0005
1799.00,0.0005
1798.00,0.0006
1797.00,0.0006
1796.00,0.0006
1795.00,0.0007
1794.00,0.0007
1793.00,0.0007
1792.00,0.0006
1791.00,0.0007
1790.00,0.0007
1789.00,0.0007
1788.00,0.0008
1787.00,0.0008
1786.00,0.0009
1785.00,0.0009
1784.00,0.0009
1783.00,0.0008
1782.00,0.0008
1781.00,0.0008
1780.00,0.0008
1779.00,0.0009
1778.00,0.0009
1777.00,0.0009
1776.00,0.0010
1775.00,0.0010
1774.00,0.0010
1773.00,0.0010
1772.00,0.0011
1771.00,0.0012
1770.00,0.0013
1769.00,0.0013
1768.00,0.0014
1767.00,0.0014
1766.00,0.0014
1765.00,0.0013
1764.00,0.0013
1763.00,0.0013
1762.00,0.0014
1761.00,0.0014
1760.00,0.0015
1759.00,0.0015
1758.00,0.0016
1757.00,0.0016
1756.00,0.0017
1755.00,0.0017
1754.00,0.0018
1753.00,0.0019
1752.00,0.0020
1751.00,0.0021
1750.00,0.0022
1749.00,0.0022
1748.00,0.0022
1747.00,0.0023
1746.00,0.0023
1745.00,0.0023
1744.00,0.0024
1743.00,0.0024
1742.00,0.0024
1741.00,0.0024
1740.00,0.0024
1739.00,0.0025
1738.00,0.0025
1737.00,0.0026
1736.00,0.0026
1735.00,0.0026
1734.00,0.0026
1733.00,0.0026
1732.00,0.0026
1731.00,0.0026
1730.00,0.0026
1729.00,0.0027
1728.00,0.0027
1727.00,0.0028
1726.00,0.0028
1725.00,0.0029
1724.00,0.0030
1723.00,0.0030
1722.00,0.0030
1721.00,0.0030
1720.00,0.0030
1719.00,0.0029
1718.00,0.0029
1717.00,0.0029
1716.00,0.0029
1715.00,0.0029
1714.00,0.0028
1713.00,0.0027
1712.00,0.0027
1711.00,0.0027
1710.00,0.0027
1709.00,0.0027
1708.00,0.0028
1707.00,0.0028
1706.00,0.0028
1705.00,0.0028
1704.00,0.0029
1703.00,0.0030
1702.00,0.0030
1701.00,0.0030
1700.00,0.0030
1699.00,0.0030
1698.00,0.0030
1697.00,0.0031
1696.00,0.0031
1695.00,0.0032
1694.00,0.0032
1693.00,0.0032
1692.00,0.0032
1691.00,0.0033
1690.00,0.0034
1689.00,0.0034
1688.00,0.0035
1687.00,0.0035
1686.00,0.0036
1685.00,0.0036
1684.00,0.0038
1683.00,0.0039
1682.00,0.0039
1681.00,0.0039
1680.00,0.0040
1679.00,0.0041
1678.00,0.0042
1677.00,0.0043
1676.00,0.0045
1675.00,0.0045
1674.00,0.0045
1673.00,0.0046
1672.00,0.0046
1671.00,0.0047
1670.00,0.0047
1669.00,0.0048
1668.00,0.0049
1667.00,0.0049
1666.00,0.0050
1665.00,0.0051
1664.00,0.0052
1663.00,0.0052
1662.00,0.0052
1661.00,0.0052
1660.00,0.0053
1659.00,0.0053
1658.00,0.0054
1657.00,0.0055
1656.00,0.0056
1655.00,0.0056
1654.00,0.0056
1653.00,0.0055
1652.00,0.0056
1651.00,0.0057
1650.00,0.0058
1649.00,0.0058
1648.00,0.0059
1647.00,0.0060
1646.00,0.0060
1645.00,0.0061
1644.00,0.0062
1643.00,0.0063
1642.00,0.0065
1641.00,0.0066
1640.00,0.0068
1639.00,0.0070
1638.00,0.0071
1637.00,0.0072
1636.00,0.0072
1635.00,0.0071
1634.00,0.0070
1633.00,0.0069
1632.00,0.0068
1631.00,0.0068
1630.00,0.0068
1629.00,0.0068
1628.00,0.0068
1627.00,0.0067
1626.00,0.0067
1625.00,0.0067
1624.00,0.0067
1623.00,0.0066
1622.00,0.0066
1621.00,0.0066
1620.00,0.0066
1619.00,0.0066
1618.00,0.0065
1617.00,0.0065
1616.00,0.0065
1615.00,0.0064
1614.00,0.0064
1613.00,0.0064
1612.00,0.0064
1611.00,0.0065
1610.00,0.0065
1609.00,0.0066
1608.00,0.0066
1607.00,0.0065
1606.00,0.0065
1605.00,0.0065
1604.00,0.0065
1603.00,0.0065
1602.00,0.0065
1601.00,0.0065
1600.00,0.0065
1599.00,0.0065
1598.00,0.0065
1597.00,0.0064
1596.00,0.0064
1595.00,0.0065
1594.00,0.0065
1593.00,0.0065
1592.00,0.0066
1591.00,0.0066
1590.00,0.0065
1589.00,0.0066
1588.00,0.0066
1587.00,0.0067
1586.00,0.0069
1585.00,0.0071
1584.00,0.0073
1583.00,0.0076
1582.00,0.0078
1581.00,0.0081
1580.00,0.0084
1579.00,0.0086
1578.00,0.0087
1577.00,0.0088
1576.00,0.0087
1575.00,0.0086
1574.00,0.0085
1573.00,0.0083
1572.00,0.0081
1571.00,0.0080
1570.00,0.0078
1569.00,0.0077
1568.00,0.0076
1567.00,0.0076
1566.00,0.0075
1565.00,0.0075
1564.00,0.0075
1563.00,0.0075
1562.00,0.0075
1561.00,0.0076
1560.00,0.0076
1559.00,0.0075
1558.00,0.0075
1557.00,0.0075
1556.00,0.0076
1555.00,0.0076
1554.00,0.0076
1553.00,0.0076
1552.00,0.0078
1551.00,0.0080
1550.00,0.0082
1549.00,0.0084
1548.00,0.0085
1547.00,0.0087
1546.00,0.0089
1545.00,0.0091
1544.00,0.0094
1543.00,0.0096
1542.00,0.0098
1541.00,0.0098
1540.00,0.0096
1539.00,0.0093
1538.00,0.0089
1537.00,0.0087
1536.00,0.0084
1535.00,0.0081
1534.00,0.0077
1533.00,0.0073
1532.00,0.0070
1531.00,0.0068
1530.00,0.0066
1529.00,0.0066
1528.00,0.0066
1527.00,0.0065
1526.00,0.0064
1525.00,0.0063
1524.00,0.0063
1523.00,0.0062
1522.00,0.0061
1521.00,0.0061
1520.00,0.0061
1519.00,0.0062
1518.00,0.0062
1517.00,0.0062
1516.00,0.0063
1515.00,0.0062
1514.00,0.0062
1513.00,0.0063
1512.00,0.0063
1511.00,0.0064
1510.00,0.0064
1509.00,0.0065
1508.00,0.0067
1507.00,0.0068
1506.00,0.0068
1505.00,0.0070
1504.00,0.0072
1503.00,0.0073
1502.00,0.0074
1501.00,0.0076
1500.00,0.0079
1499.00,0.0081
1498.00,0.0083
1497.00,0.0086
1496.00,0.0090
1495.00,0.0094
1494.00,0.0097
1493.00,0.0100
1492.00,0.0105
1491.00,0.0108
1490.00,0.0112
1489.00,0.0118
1488.00,0.0123
1487.00,0.0128
1486.00,0.0133
1485.00,0.0141
1484.00,0.0149
1483.00,0.0157
1482.00,0.0167
1481.00,0.0180
1480.00,0.0194
1479.00,0.0207
1478.00,0.0223
1477.00,0.0245
1476.00,0.0271
1475.00,0.0301
1474.00,0.0341
1473.00,0.0396
1472.00,0.0460
1471.00,0.0522
1470.00,0.0583
1469.00,0.0648
1468.00,0.0719
1467.00,0.0796
1466.00,0.0884
1465.00,0.0978
1464.00,0.1060
1463.00,0.1115
1462.00,0.1149
1461.00,0.1172
1460.00,0.1186
1459.00,0.1194
1458.00,0.1200
1457.00,0.1202
1456.00,0.1198
1455.00,0.1187
1454.00,0.1173
1453.00,0.1155
1452.00,0.1128
1451.00,0.1093
1450.00,0.1044
1449.00,0.0977
1448.00,0.0890
1447.00,0.0798
1446.00,0.0713
1445.00,0.0640
1444.00,0.0577
1443.00,0.0526
1442.00,0.0487
1441.00,0.0460
1440.00,0.0444
1439.00,0.0438
1438.00,0.0440
1437.00,0.0443
1436.00,0.0435
1435.00,0.0412
1434.00,0.0377
1433.00,0.0334
1432.00,0.0290
1431.00,0.0251
1430.00,0.0219
1429.00,0.0196
1428.00,0.0180
1427.00,0.0171
1426.00,0.0165
1425.00,0.0159
1424.00,0.0153
1423.00,0.0150
1422.00,0.0148
1421.00,0.0145
1420.00,0.0141
1419.00,0.0138
1418.00,0.0135
1417.00,0.0132
1416.00,0.0130
1415.00,0.0128
1414.00,0.0127
1413.00,0.0126
1412.00,0.0124
1411.00,0.0123
1410.00,0.0121
1409.00,0.0120
1408.00,0.0118
1407.00,0.0119
1406.00,0.0120
1405.00,0.0120
1404.00,0.0119
1403.00,0.0119
1402.00,0.0120
1401.00,0.0120
1400.00,0.0121
1399.00,0.0122
1398.00,0.0124
1397.00,0.0126
1396.00,0.0127
1395.00,0.0131
1394.00,0.0135
1393.00,0.0140
1392.00,0.0145
1391.00,0.0152
1390.00,0.0163
1389.00,0.0176
1388.00,0.0195
1387.00,0.0225
1386.00,0.0265
1385.00,0.0318
1384.00,0.0391
1383.00,0.0493
1382.00,0.0632
1381.00,0.0812
1380.00,0.1040
1379.00,0.1310
1378.00,0.1583
1377.00,0.1798
1376.00,0.1890
1375.00,0.1817
1374.00,0.1600
1373.00,0.1327
1372.00,0.1071
1371.00,0.0858
1370.00,0.0688
1369.00,0.0560
1368.00,0.0472
1367.00,0.0418
1366.00,0.0388
1365.00,0.0376
1364.00,0.0378
1363.00,0.0391
1362.00,0.0412
1361.00,0.0435
1360.00,0.0452
1359.00,0.0458
1358.00,0.0447
1357.00,0.0422
1356.00,0.0385
1355.00,0.0343
1354.00,0.0304
1353.00,0.0270
1352.00,0.0243
1351.00,0.0221
1350.00,0.0203
1349.00,0.0188
1348.00,0.0176
1347.00,0.0166
1346.00,0.0157
1345.00,0.0149
1344.00,0.0143
1343.00,0.0138
1342.00,0.0134
1341.00,0.0130
1340.00,0.0128
1339.00,0.0126
1338.00,0.0124
1337.00,0.0124
1336.00,0.0124
1335.00,0.0126
1334.00,0.0128
1333.00,0.0132
1332.00,0.0136
1331.00,0.0139
1330.00,0.0140
1329.00,0.0139
1328.00,0.0136
1327.00,0.0132
1326.00,0.0126
1325.00,0.0121
1324.00,0.0116
1323.00,0.0111
1322.00,0.0107
1321.00,0.0104
1320.00,0.0102
1319.00,0.0100
1318.00,0.0099
1317.00,0.0098
1316.00,0.0096
1315.00,0.0095
1314.00,0.0094
1313.00,0.0094
1312.00,0.0094
1311.00,0.0097
1310.00,0.0101
1309.00,0.0107
1308.00,0.0115
1307.00,0.0125
1306.00,0.0135
1305.00,0.0141
1304.00,0.0143
1303.00,0.0141
1302.00,0.0137
1301.00,0.0133
1300.00,0.0131
1299.00,0.0130
1298.00,0.0131
1297.00,0.0131
1296.00,0.0130
1295.00,0.0129
1294.00,0.0125
1293.00,0.0121
1292.00,0.0116
1291.00,0.0111
1290.00,0.0106
1289.00,0.0103
1288.00,0.0100
1287.00,0.0097
1286.00,0.0095
1285.00,0.0093
1284.00,0.0092
1283.00,0.0090
1282.00,0.0089
1281.00,0.0089
1280.00,0.0088
1279.00,0.0087
1278.00,0.0086
1277.00,0.0085
1276.00,0.0084
1275.00,0.0084
1274.00,0.0085
1273.00,0.0086
1272.00,0.0087
1271.00,0.0089
1270.00,0.0091
1269.00,0.0093
1268.00,0.0095
1267.00,0.0099
1266.00,0.0102
1265.00,0.0106
1264.00,0.0109
1263.00,0.0113
1262.00,0.0115
1261.00,0.0118
1260.00,0.0122
1259.00,0.0127
1258.00,0.0131
1257.00,0.0135
1256.00,0.0136
1255.00,0.0133
1254.00,0.0127
1253.00,0.0119
1252.00,0.0111
1251.00,0.0105
1250.00,0.0100
1249.00,0.0097
1248.00,0.0094
1247.00,0.0092
1246.00,0.0090
1245.00,0.0089
1244.00,0.0088
1243.00,0.0087
1242.00,0.0086
1241.00,0.0086
1240.00,0.0085
1239.00,0.0084
1238.00,0.0084
1237.00,0.0084
1236.00,0.0084
1235.00,0.0086
1234.00,0.0087
1233.00,0.0088
1232.00,0.0088
1231.00,0.0089
1230.00,0.0089
1229.00,0.0091
1228.00,0.0092
1227.00,0.0093
1226.00,0.0095
1225.00,0.0098
1224.00,0.0101
1223.00,0.0105
1222.00,0.0109
1221.00,0.0112
1220.00,0.0114
1219.00,0.0114
1218.00,0.0113
1217.00,0.0111
1216.00,0.0107
1215.00,0.0104
1214.00,0.0101
1213.00,0.0098
1212.00,0.0096
1211.00,0.0094
1210.00,0.0092
1209.00,0.0091
1208.00,0.0090
1207.00,0.0090
1206.00,0.0089
1205.00,0.0089
1204.00,0.0089
1203.00,0.0089
1202.00,0.0090
1201.00,0.0091
1200.00,0.0092
1199.00,0.0093
1198.00,0.0093
1197.00,0.0094
1196.00,0.0094
1195.00,0.0094
1194.00,0.0093
1193.00,0.0093
1192.00,0.0092
1191.00,0.0091
1190.00,0.0091
1189.00,0.0090
1188.00,0.0090
1187.00,0.0089
1186.00,0.0090
1185.00,0.0090
1184.00,0.0091
1183.00,0.0092
1182.00,0.0093
1181.00,0.0095
1180.00,0.0097
1179.00,0.0101
1178.00,0.0106
1177.00,0.0113
1176.00,0.0122
1175.00,0.0136
1174.00,0.0153
1173.00,0.0175
1172.00,0.0201
1171.00,0.0231
1170.00,0.0261
1169.00,0.0286
1168.00,0.0301
1167.00,0.0304
1166.00,0.0297
1165.00,0.0283
1164.00,0.0267
1163.00,0.0252
1162.00,0.0238
1161.00,0.0226
1160.00,0.0217
1159.00,0.0211
1158.00,0.0207
1157.00,0.0205
1156.00,0.0204
1155.00,0.0203
1154.00,0.0202
1153.00,0.0199
1152.00,0.0195
1151.00,0.0188
1150.00,0.0180
1149.00,0.0170
1148.00,0.0161
1147.00,0.0151
1146.00,0.0143
1145.00,0.0135
1144.00,0.0129
1143.00,0.0123
1142.00,0.0118
1141.00,0.0114
1140.00,0.0109
1139.00,0.0105
1138.00,0.0102
1137.00,0.0099
1136.00,0.0096
1135.00,0.0094
1134.00,0.0093
1133.00,0.0092
1132.00,0.0092
1131.00,0.0092
1130.00,0.0093
1129.00,0.0093
1128.00,0.0093
1127.00,0.0094
1126.00,0.0094
1125.00,0.0095
1124.00,0.0095
1123.00,0.0096
1122.00,0.0097
1121.00,0.0098
1120.00,0.0101
1119.00,0.0103
1118.00,0.0105
1117.00,0.0106
1116.00,0.0108
1115.00,0.0109
1114.00,0.0110
1113.00,0.0111
1112.00,0.0112
1111.00,0.0114
1110.00,0.0117
1109.00,0.0121
1108.00,0.0125
1107.00,0.0131
1106.00,0.0137
1105.00,0.0142
1104.00,0.0147
1103.00,0.0150
1102.00,0.0150
1101.00,0.0148
1100.00,0.0143
1099.00,0.0136
1098.00,0.0130
1097.00,0.0125
1096.00,0.0121
1095.00,0.0118
1094.00,0.0115
1093.00,0.0112
1092.00,0.0109
1091.00,0.0107
1090.00,0.0105
1089.00,0.0104
1088.00,0.0102
1087.00,0.0102
1086.00,0.0101
1085.00,0.0101
1084.00,0.0101
1083.00,0.0101
1082.00,0.0101
1081.00,0.0100
1080.00,0.0099
1079.00,0.0097
1078.00,0.0095
1077.00,0.0094
1076.00,0.0093
1075.00,0.0093
1074.00,0.0093
1073.00,0.0093
1072.00,0.0093
1071.00,0.0092
1070.00,0.0092
1069.00,0.0091
1068.00,0.0091
1067.00,0.0091
1066.00,0.0091
1065.00,0.0092
1064.00,0.0093
1063.00,0.0094
1062.00,0.0095
1061.00,0.0096
1060.00,0.0097
1059.00,0.0098
1058.00,0.0099
1057.00,0.0100
1056.00,0.0102
1055.00,0.0103
1054.00,0.0105
1053.00,0.0107
1052.00,0.0109
1051.00,0.0112
1050.00,0.0115
1049.00,0.0119
1048.00,0.0125
1047.00,0.0131
1046.00,0.0136
1045.00,0.0140
1044.00,0.0141
1043.00,0.0141
1042.00,0.0139
1041.00,0.0137
1040.00,0.0135
1039.00,0.0134
1038.00,0.0134
1037.00,0.0134
1036.00,0.0133
1035.00,0.0133
1034.00,0.0132
1033.00,0.0130
1032.00,0.0129
1031.00,0.0128
1030.00,0.0128
1029.00,0.0129
1028.00,0.0129
1027.00,0.0129
1026.00,0.0130
1025.00,0.0133
1024.00,0.0135
1023.00,0.0138
1022.00,0.0140
1021.00,0.0141
1020.00,0.0143
1019.00,0.0144
1018.00,0.0145
1017.00,0.0146
1016.00,0.0146
1015.00,0.0146
1014.00,0.0146
1013.00,0.0145
1012.00,0.0144
1011.00,0.0144
1010.00,0.0144
1009.00,0.0144
1008.00,0.0146
1007.00,0.0149
1006.00,0.0154
1005.00,0.0163
1004.00,0.0176
1003.00,0.0196
1002.00,0.0223
1001.00,0.0257
1000.00,0.0292
999.00,0.0322
998.00,0.0336
997.00,0.0329
996.00,0.0303
995.00,0.0266
994.00,0.0227
993.00,0.0194
992.00,0.0168
991.00,0.0151
990.00,0.0139
989.00,0.0131
988.00,0.0125
987.00,0.0121
986.00,0.0120
985.00,0.0121
984.00,0.0124
983.00,0.0130
982.00,0.0139
981.00,0.0153
980.00,0.0172
979.00,0.0199
978.00,0.0233
977.00,0.0271
976.00,0.0312
975.00,0.0351
974.00,0.0379
973.00,0.0388
972.00,0.0374
971.00,0.0340
970.00,0.0294
969.00,0.0247
968.00,0.0206
967.00,0.0175
966.00,0.0152
965.00,0.0137
964.00,0.0126
963.00,0.0118
962.00,0.0111
961.00,0.0106
960.00,0.0101
959.00,0.0097
958.00,0.0094
957.00,0.0092
956.00,0.0090
955.00,0.0088
954.00,0.0086
953.00,0.0085
952.00,0.0084
951.00,0.0083
950.00,0.0081
949.00,0.0080
948.00,0.0079
947.00,0.0079
946.00,0.0081
945.00,0.0083
944.00,0.0087
943.00,0.0091
942.00,0.0095
941.00,0.0098
940.00,0.0098
939.00,0.0096
938.00,0.0092
937.00,0.0087
936.00,0.0082
935.00,0.0078
934.00,0.0074
933.00,0.0071
932.00,0.0069
931.00,0.0067
930.00,0.0066
929.00,0.0065
928.00,0.0064
927.00,0.0064
926.00,0.0065
925.00,0.0065
924.00,0.0065
923.00,0.0065
922.00,0.0066
921.00,0.0066
920.00,0.0066
919.00,0.0067
918.00,0.0067
917.00,0.0068
916.00,0.0068
915.00,0.0069
914.00,0.0069
913.00,0.0069
912.00,0.0070
911.00,0.0071
910.00,0.0072
909.00,0.0074
908.00,0.0077
907.00,0.0082
906.00,0.0089
905.00,0.0099
904.00,0.0113
903.00,0.0131
902.00,0.0150
901.00,0.0168
900.00,0.0180
899.00,0.0182
898.00,0.0174
897.00,0.0159
896.00,0.0141
895.00,0.0124
894.00,0.0111
893.00,0.0101
892.00,0.0093
891.00,0.0087
890.00,0.0083
889.00,0.0080
888.00,0.0078
887.00,0.0077
886.00,0.0076
885.00,0.0075
884.00,0.0076
883.00,0.0076
882.00,0.0077
881.00,0.0077
880.00,0.0077
879.00,0.0078
878.00,0.0080
877.00,0.0082
876.00,0.0083
875.00,0.0083
874.00,0.0082
873.00,0.0082
872.00,0.0081
871.00,0.0081
870.00,0.0081
869.00,0.0082
868.00,0.0082
867.00,0.0082
866.00,0.0082
865.00,0.0082
864.00,0.0082
863.00,0.0083
862.00,0.0084
861.00,0.0085
860.00,0.0086
859.00,0.0087
858.00,0.0089
857.00,0.0090
856.00,0.0092
855.00,0.0094
854.00,0.0095
853.00,0.0096
852.00,0.0098
851.00,0.0102
850.00,0.0108
849.00,0.0114
848.00,0.0123
847.00,0.0134
846.00,0.0152
845.00,0.0178
844.00,0.0216
843.00,0.0262
842.00,0.0303
841.00,0.0318
840.00,0.0301
839.00,0.0259
838.00,0.0210
837.00,0.0171
836.00,0.0145
835.00,0.0130
834.00,0.0122
833.00,0.0117
832.00,0.0114
831.00,0.0111
830.00,0.0108
829.00,0.0105
828.00,0.0103
827.00,0.0102
826.00,0.0103
825.00,0.0104
824.00,0.0105
823.00,0.0106
822.00,0.0106
821.00,0.0108
820.00,0.0111
819.00,0.0114
818.00,0.0120
817.00,0.0126
816.00,0.0135
815.00,0.0148
814.00,0.0163
813.00,0.0182
812.00,0.0201
811.00,0.0218
810.00,0.0232
809.00,0.0238
808.00,0.0235
807.00,0.0222
806.00,0.0204
805.00,0.0185
804.00,0.0169
803.00,0.0155
802.00,0.0144
801.00,0.0136
800.00,0.0131
799.00,0.0126
798.00,0.0122
797.00,0.0117
796.00,0.0113
795.00,0.0108
794.00,0.0104
793.00,0.0100
792.00,0.0098
791.00,0.0096
790.00,0.0094
789.00,0.0090
788.00,0.0086
787.00,0.0082
786.00,0.0079
785.00,0.0077
784.00,0.0075
783.00,0.0074
782.00,0.0073
781.00,0.0073
780.00,0.0072
779.00,0.0071
778.00,0.0071
777.00,0.0070
776.00,0.0071
775.00,0.0072
774.00,0.0073
773.00,0.0074
772.00,0.0073
771.00,0.0073
770.00,0.0073
769.00,0.0073
768.00,0.0073
767.00,0.0073
766.00,0.0073
765.00,0.0073
764.00,0.0073
763.00,0.0073
762.00,0.0072
761.00,0.0072
760.00,0.0073
759.00,0.0074
758.00,0.0075
757.00,0.0076
756.00,0.0078
755.00,0.0080
754.00,0.0083
753.00,0.0083
752.00,0.0083
751.00,0.0084
750.00,0.0085
749.00,0.0087
748.00,0.0088
747.00,0.0088
746.00,0.0090
745.00,0.0092
744.00,0.0094
743.00,0.0097
742.00,0.0100
741.00,0.0103
740.00,0.0106
739.00,0.0109
738.00,0.0113
737.00,0.0117
736.00,0.0122
735.00,0.0126
734.00,0.0131
733.00,0.0135
732.00,0.0141
731.00,0.0147
730.00,0.0153
729.00,0.0156
728.00,0.0158
727.00,0.0159
726.00,0.0162
725.00,0.0165
724.00,0.0170
723.00,0.0176
722.00,0.0182
721.00,0.0185
720.00,0.0184
719.00,0.0176
718.00,0.0165
717.00,0.0152
716.00,0.0141
715.00,0.0133
714.00,0.0127
713.00,0.0123
712.00,0.0119
711.00,0.0116
710.00,0.0113
709.00,0.0111
708.00,0.0109
707.00,0.0108
706.00,0.0107
705.00,0.0107
704.00,0.0106
703.00,0.0106
702.00,0.0106
701.00,0.0104
700.00,0.0103
699.00,0.0101
698.00,0.0100
697.00,0.0100
696.00,0.0101
695.00,0.0103
694.00,0.0103
693.00,0.0103
692.00,0.0101
691.00,0.0101
690.00,0.0102
689.00,0.0103
688.00,0.0104
687.00,0.0103
686.00,0.0103
685.00,0.0103
684.00,0.0103
683.00,0.0104
682.00,0.0104
681.00,0.0105
680.00,0.0107
679.00,0.0108
678.00,0.0108
677.00,0.0108
676.00,0.0107
675.00,0.0106
674.00,0.0105
673.00,0.0104
672.00,0.0104
671.00,0.0105
670.00,0.0108
669.00,0.0111
668.00,0.0112
667.00,0.0111
666.00,0.0109
665.00,0.0107
664.00,0.0106
663.00,0.0105
662.00,0.0103
661.00,0.0101
660.00,0.0099
659.00,0.0097
658.00,0.0094
657.00,0.0092
656.00,0.0091
655.00,0.0092
654.00,0.0093
653.00,0.0093
652.00,0.0091
651.00,0.0089
650.00,0.0088
649.00,0.0087
648.00,0.0089
647.00,0.0091
646.00,0.0093
645.00,0.0093
644.00,0.0092
643.00,0.0092
642.00,0.0092
641.00,0.0093
640.00,0.0094
639.00,0.0095
638.00,0.0095
637.00,0.0094
636.00,0.0093
635.00,0.0091
634.00,0.0091
633.00,0.0091
632.00,0.0091
631.00,0.0092
630.00,0.0093
629.00,0.0094
628.00,0.0093
627.00,0.0091
626.00,0.0090
625.00,0.0091
624.00,0.0093
623.00,0.0093
622.00,0.0091
621.00,0.0086
620.00,0.0084
619.00,0.0085
618.00,0.0089
617.00,0.0093
616.00,0.0093
615.00,0.0090
614.00,0.0088
613.00,0.0087
612.00,0.0089
611.00,0.0090
610.00,0.0091
609.00,0.0092
608.00,0.0092
607.00,0.0091
606.00,0.0091
605.00,0.0090
604.00,0.0088
603.00,0.0085
602.00,0.0082
601.00,0.0082
600.00,0.0083
599.00,0.0086
598.00,0.0089
597.00,0.0090
596.00,0.0090
595.00,0.0089
594.00,0.0087
593.00,0.0086
592.00,0.0085
591.00,0.0086
590.00,0.0087
589.00,0.0089
588.00,0.0090
587.00,0.0090
586.00,0.0088
585.00,0.0087
584.00,0.0088
583.00,0.0089
582.00,0.0090
581.00,0.0090
580.00,0.0090
579.00,0.0090
578.00,0.0090
577.00,0.0091
576.00,0.0091
575.00,0.0091
574.00,0.0089
573.00,0.0088
572.00,0.0086
571.00,0.0086
570.00,0.0087
569.00,0.0090
568.00,0.0093
567.00,0.0094
566.00,0.0092
565.00,0.0090
564.00,0.0088
563.00,0.0087
562.00,0.0088
561.00,0.0090
560.00,0.0091
559.00,0.0090
558.00,0.0087
557.00,0.0083
556.00,0.0080
555.00,0.0080
554.00,0.0081
553.00,0.0084
552.00,0.0087
551.00,0.0089
550.00,0.0090
549.00,0.0088
548.00,0.0085
547.00,0.0081
546.00,0.0079
545.00,0.0080
544.00,0.0084
543.00,0.0089
542.00,0.0093
541.00,0.0098
540.00,0.0104
539.00,0.0110
538.00,0.0113
537.00,0.0116
536.00,0.0119
535.00,0.0123
534.00,0.0125
533.00,0.0125
532.00,0.0121
531.00,0.0115
530.00,0.0111
529.00,0.0110
528.00,0.0113
527.00,0.0116
526.00,0.0118
525.00,0.0115
524.00,0.0112
523.00,0.0108
522.00,0.0103
521.00,0.0098
520.00,0.0094
519.00,0.0092
518.00,0.0093
517.00,0.0094
516.00,0.0093
515.00,0.0089
514.00,0.0087
513.00,0.0089
512.00,0.0092
511.00,0.0092
510.00,0.0088
509.00,0.0085
508.00,0.0087
507.00,0.0091
506.00,0.0092
505.00,0.0089
504.00,0.0085
503.00,0.0086
502.00,0.0090
501.00,0.0093
500.00,0.0095
499.00,0.0096
498.00,0.0098
497.00,0.0099
496.00,0.0100
495.00,0.0100
494.00,0.0097
493.00,0.0092
492.00,0.0087
491.00,0.0085
490.00,0.0086
489.00,0.0088
488.00,0.0090
487.00,0.0092
486.00,0.0097
485.00,0.0101
484.00,0.0106
483.00,0.0109
482.00,0.0110
481.00,0.0110
480.00,0.0109
479.00,0.0110
478.00,0.0116
477.00,0.0124
476.00,0.0133
475.00,0.0140
474.00,0.0140
473.00,0.0135
472.00,0.0136
471.00,0.0147
470.00,0.0164
469.00,0.0176
468.00,0.0179
467.00,0.0179
466.00,0.0183
465.00,0.0189
464.00,0.0191
463.00,0.0188
462.00,0.0183
461.00,0.0178
460.00,0.0175
459.00,0.0176
458.00,0.0183
457.00,0.0197
456.00,0.0214
455.00,0.0229
454.00,0.0236
453.00,0.0232
452.00,0.0218
451.00,0.0198
450.00,0.0179
