Created as New Dataset,Sample 029 By Administrator Date Thursday, September 04 2025
cm-1,A
4000.00,0.0008
3999.00,0.0008
3998.00,0.0009
3997.00,0.0009
3996.00,0.0009
3995.00,0.0008
3994.00,0.0008
3993.00,0.0008
3992.00,0.0007
3991.00,0.0007
3990.00,0.0007
3989.00,0.0007
3988.00,0.0007
3987.00,0.0007
3986.00,0.0007
3985.00,0.0007
3984.00,0.0007
3983.00,0.0007
3982.00,0.0007
3981.00,0.0008
3980.00,0.0007
3979.00,0.0007
3978.00,0.0007
3977.00,0.0007
3976.00,0.0007
3975.00,0.0007
3974.00,0.0007
3973.00,0.0006
3972.00,0.0006
3971.00,0.0007
3970.00,0.0007
3969.00,0.0007
3968.00,0.0007
3967.00,0.0007
3966.00,0.0007
3965.00,0.0007
3964.00,0.0007
3963.00,0.0006
3962.00,0.0006
3961.00,0.0006
3960.00,0.0006
3959.00,0.0006
3958.00,0.0006
3957.00,0.0006
3956.00,0.0006
3955.00,0.0006
3954.00,0.0006
3953.00,0.0006
3952.00,0.0005
3951.00,0.0005
3950.00,0.0005
3949.00,0.0005
3948.00,0.0005
3947.00,0.0006
3946.00,0.0006
3945.00,0.0006
3944.00,0.0006
3943.00,0.0006
3942.00,0.0006
3941.00,0.0006
3940.00,0.0006
3939.00,0.0006
3938.00,0.0007
3937.00,0.0007
3936.00,0.0007
3935.00,0.0007
3934.00,0.0007
3933.00,0.0006
3932.00,0.0006
3931.00,0.0006
3930.00,0.0006
3929.00,0.0006
3928.00,0.0006
3927.00,0.0006
3926.00,0.0006
3925.00,0.0006
3924.00,0.0006
3923.00,0.0006
3922.00,0.0007
3921.00,0.0007
3920.00,0.0006
3919.00,0.0006
3918.00,0.0006
3917.00,0.0006
3916.00,0.0006
3915.00,0.0006
3914.00,0.0006
3913.00,0.0006
3912.00,0.0006
3911.00,0.0006
3910.00,0.0006
3909.00,0.0006
3908.00,0.0006
3907.00,0.0006
3906.00,0.0006
3905.00,0.0006
3904.00,0.0006
3903.00,0.0006
3902.00,0.0007
3901.00,0.0007
3900.00,0.0007
3899.00,0.0007
3898.00,0.0007
3897.00,0.0007
3896.00,0.0007
3895.00,0.0007
3894.00,0.0007
3893.00,0.0007
3892.00,0.0007
3891.00,0.0007
3890.00,0.0006
3889.00,0.0006
3888.00,0.0006
3887.00,0.0006
3886.00,0.0006
3885.00,0.0006
3884.00,0.0006
3883.00,0.0006
3882.00,0.0006
3881.00,0.0006
3880.00,0.0006
3879.00,0.0006
3878.00,0.0006
3877.00,0.0007
3876.00,0.0006
3875.00,0.0006
3874.00,0.0006
3873.00,0.0006
3872.00,0.0006
3871.00,0.0006
3870.00,0.0006
3869.00,0.0006
3868.00,0.0006
3867.00,0.0005
3866.00,0.0005
3865.00,0.0005
3864.00,0.0005
3863.00,0.0005
3862.00,0.0005
3861.00,0.0005
3860.00,0.0005
3859.00,0.0005
3858.00,0.0005
3857.00,0.0006
3856.00,0.0006
3855.00,0.0006
3854.00,0.0005
3853.00,0.0005
3852.00,0.0005
3851.00,0.0005
3850.00,0.0005
3849.00,0.0005
3848.00,0.0005
3847.00,0.0006
3846.00,0.0006
3845.00,0.0006
3844.00,0.0006
3843.00,0.0005
3842.00,0.0005
3841.00,0.0005
3840.00,0.0004
3839.00,0.0005
3838.00,0.0005
3837.00,0.0005
3836.00,0.0006
3835.00,0.0006
3834.00,0.0006
3833.00,0.0006
3832.00,0.0006
3831.00,0.0006
3830.00,0.0006
3829.00,0.0005
3828.00,0.0005
3827.00,0.0005
3826.00,0.0005
3825.00,0.0005
3824.00,0.0005
3823.00,0.0006
3822.00,0.0005
3821.00,0.0005
3820.00,0.0005
3819.00,0.0005
3818.00,0.0006
3817.00,0.0006
3816.00,0.0006
3815.00,0.0006
3814.00,0.0006
3813.00,0.0006
3812.00,0.0006
3811.00,0.0005
3810.00,0.0006
3809.00,0.0006
3808.00,0.0006
3807.00,0.0006
3806.00,0.0006
3805.00,0.0006
3804.00,0.0006
3803.00,0.0006
3802.00,0.0006
3801.00,0.0005
3800.00,0.0005
3799.00,0.0005
3798.00,0.0005
3797.00,0.0005
3796.00,0.0005
3795.00,0.0005
3794.00,0.0005
3793.00,0.0005
3792.00,0.0005
3791.00,0.0005
3790.00,0.0006
3789.00,0.0006
3788.00,0.0006
3787.00,0.0005
3786.00,0.0005
3785.00,0.0005
3784.00,0.0005
3783.00,0.0005
3782.00,0.0005
3781.00,0.0005
3780.00,0.0006
3779.00,0.0006
3778.00,0.0006
3777.00,0.0006
3776.00,0.0006
3775.00,0.0006
3774.00,0.0006
3773.00,0.0006
3772.00,0.0006
3771.00,0.0006
3770.00,0.0006
3769.00,0.0006
3768.00,0.0006
3767.00,0.0006
3766.00,0.0006
3765.00,0.0007
3764.00,0.0007
3763.00,0.0007
3762.00,0.0006
3761.00,0.0006
3760.00,0.0006
3759.00,0.0006
3758.00,0.0006
3757.00,0.0006
3756.00,0.0006
3755.00,0.0006
3754.00,0.0005
3753.00,0.0005
3752.00,0.0005
3751.00,0.0005
3750.00,0.0005
3749.00,0.0005
3748.00,0.0005
3747.00,0.0005
3746.00,0.0005
3745.00,0.0005
3744.00,0.0005
3743.00,0.0005
3742.00,0.0005
3741.00,0.0005
3740.00,0.0005
3739.00,0.0005
3738.00,0.0005
3737.00,0.0005
3736.00,0.0004
3735.00,0.0004
3734.00,0.0004
3733.00,0.0004
3732.00,0.0004
3731.00,0.0003
3730.00,0.0003
3729.00,0.0003
3728.00,0.0003
3727.00,0.0003
3726.00,0.0004
3725.00,0.0004
3724.00,0.0004
3723.00,0.0004
3722.00,0.0003
3721.00,0.0003
3720.00,0.0004
3719.00,0.0004
3718.00,0.0004
3717.00,0.0004
3716.00,0.0004
3715.00,0.0004
3714.00,0.0003
3713.00,0.0003
3712.00,0.0003
3711.00,0.0003
3710.00,0.0003
3709.00,0.0003
3708.00,0.0003
3707.00,0.0003
3706.00,0.0004
3705.00,0.0004
3704.00,0.0004
3703.00,0.0005
3702.00,0.0005
3701.00,0.0005
3700.00,0.0005
3699.00,0.0004
3698.00,0.0004
3697.00,0.0004
3696.00,0.0004
3695.00,0.0004
3694.00,0.0005
3693.00,0.0005
3692.00,0.0005
3691.00,0.0005
3690.00,0.0006
3689.00,0.0006
3688.00,0.0007
3687.00,0.0007
3686.00,0.0007
3685.00,0.0008
3684.00,0.0007
3683.00,0.0007
3682.00,0.0006
3681.00,0.0006
3680.00,0.0005
3679.00,0.0005
3678.00,0.0005
3677.00,0.0005
3676.00,0.0005
3675.00,0.0005
3674.00,0.0006
3673.00,0.0006
3672.00,0.0006
3671.00,0.0006
3670.00,0.0007
3669.00,0.0007
3668.00,0.0007
3667.00,0.0007
3666.00,0.0008
3665.00,0.0008
3664.00,0.0008
3663.00,0.0008
3662.00,0.0008
3661.00,0.0008
3660.00,0.0007
3659.00,0.0007
3658.00,0.0007
3657.00,0.0007
3656.00,0.0008
3655.00,0.0008
3654.00,0.0007
3653.00,0.0007
3652.00,0.0007
3651.00,0.0006
3650.00,0.0005
3649.00,0.0005
3648.00,0.0006
3647.00,0.0006
3646.00,0.0007
3645.00,0.0007
3644.00,0.0007
3643.00,0.0007
3642.00,0.0007
3641.00,0.0007
3640.00,0.0007
3639.00,0.0007
3638.00,0.0007
3637.00,0.0007
3636.00,0.0006
3635.00,0.0006
3634.00,0.0006
3633.00,0.0006
3632.00,0.0006
3631.00,0.0006
3630.00,0.0006
3629.00,0.0007
3628.00,0.0007
3627.00,0.0007
3626.00,0.0007
3625.00,0.0007
3624.00,0.0007
3623.00,0.0006
3622.00,0.0006
3621.00,0.0007
3620.00,0.0007
3619.00,0.0007
3618.00,0.0007
3617.00,0.0007
3616.00,0.0008
3615.00,0.0008
3614.00,0.0009
3613.00,0.0009
3612.00,0.0009
3611.00,0.0008
3610.00,0.0008
3609.00,0.0008
3608.00,0.0008
3607.00,0.0009
3606.00,0.0009
3605.00,0.0010
3604.00,0.0010
3603.00,0.0010
3602.00,0.0009
3601.00,0.0009
3600.00,0.0010
3599.00,0.0010
3598.00,0.0010
3597.00,0.0010
3596.00,0.0010
3595.00,0.0010
3594.00,0.0010
3593.00,0.0010
3592.00,0.0011
3591.00,0.0011
3590.00,0.0011
3589.00,0.0011
3588.00,0.0011
3587.00,0.0011
3586.00,0.0011
3585.00,0.0012
3584.00,0.0012
3583.00,0.0012
3582.00,0.0013
3581.00,0.0013
3580.00,0.0013
3579.00,0.0013
3578.00,0.0013
3577.00,0.0013
3576.00,0.0013
3575.00,0.0013
3574.00,0.0014
3573.00,0.0014
3572.00,0.0014
3571.00,0.0014
3570.00,0.0014
3569.00,0.0014
3568.00,0.0014
3567.00,0.0014
3566.00,0.0015
3565.00,0.0015
3564.00,0.0015
3563.00,0.0016
3562.00,0.0016
3561.00,0.0017
3560.00,0.0017
3559.00,0.0017
3558.00,0.0017
3557.00,0.0017
3556.00,0.0017
3555.00,0.0018
3554.00,0.0018
3553.00,0.0019
3552.00,0.0019
3551.00,0.0019
3550.00,0.0019
3549.00,0.0019
3548.00,0.0019
3547.00,0.0019
3546.00,0.0020
3545.00,0.0021
3544.00,0.0021
3543.00,0.0021
3542.00,0.0021
3541.00,0.0022
3540.00,0.0022
3539.00,0.0022
3538.00,0.0023
3537.00,0.0023
3536.00,0.0023
3535.00,0.0023
3534.00,0.0023
3533.00,0.0023
3532.00,0.0023
3531.00,0.0023
3530.00,0.0023
3529.00,0.0023
3528.00,0.0024
3527.00,0.0024
3526.00,0.0025
3525.00,0.0025
3524.00,0.0026
3523.00,0.0026
3522.00,0.0026
3521.00,0.0026
3520.00,0.0026
3519.00,0.0026
3518.00,0.0026
3517.00,0.0026
3516.00,0.0027
3515.00,0.0027
3514.00,0.0028
3513.00,0.0028
3512.00,0.0029
3511.00,0.0029
3510.00,0.0030
3509.00,0.0030
3508.00,0.0029
3507.00,0.0029
3506.00,0.0029
3505.00,0.0029
3504.00,0.0029
3503.00,0.0030
3502.00,0.0030
3501.00,0.0031
3500.00,0.0031
3499.00,0.0031
3498.00,0.0031
3497.00,0.0031
3496.00,0.0031
3495.00,0.0031
3494.00,0.0032
3493.00,0.0032
3492.00,0.0032
3491.00,0.0032
3490.00,0.0032
3489.00,0.0032
3488.00,0.0033
3487.00,0.0033
3486.00,0.0033
3485.00,0.0034
3484.00,0.0034
3483.00,0.0035
3482.00,0.0035
3481.00,0.0036
3480.00,0.0036
3479.00,0.0036
3478.00,0.0036
3477.00,0.0036
3476.00,0.0036
3475.00,0.0036
3474.00,0.0037
3473.00,0.0037
3472.00,0.0038
3471.00,0.0038
3470.00,0.0038
3469.00,0.0039
3468.00,0.0038
3467.00,0.0038
3466.00,0.0038
3465.00,0.0038
3464.00,0.0039
3463.00,0.0039
3462.00,0.0040
3461.00,0.0040
3460.00,0.0040
3459.00,0.0040
3458.00,0.0040
3457.00,0.0041
3456.00,0.0041
3455.00,0.0041
3454.00,0.0041
3453.00,0.0042
3452.00,0.0042
3451.00,0.0042
3450.00,0.0042
3449.00,0.0042
3448.00,0.0042
3447.00,0.0042
3446.00,0.0043
3445.00,0.0043
3444.00,0.0043
3443.00,0.0044
3442.00,0.0044
3441.00,0.0044
3440.00,0.0044
3439.00,0.0045
3438.00,0.0045
3437.00,0.0045
3436.00,0.0045
3435.00,0.0045
3434.00,0.0045
3433.00,0.0045
3432.00,0.0046
3431.00,0.0047
3430.00,0.0047
3429.00,0.0048
3428.00,0.0048
3427.00,0.0048
3426.00,0.0048
3425.00,0.0048
3424.00,0.0048
3423.00,0.0049
3422.00,0.0049
3421.00,0.0050
3420.00,0.0050
3419.00,0.0050
3418.00,0.0051
3417.00,0.0051
3416.00,0.0051
3415.00,0.0052
3414.00,0.0052
3413.00,0.0053
3412.00,0.0053
3411.00,0.0054
3410.00,0.0054
3409.00,0.0055
3408.00,0.0056
3407.00,0.0057
3406.00,0.0058
3405.00,0.0059
3404.00,0.0060
3403.00,0.0061
3402.00,0.0062
3401.00,0.0063
3400.00,0.0064
3399.00,0.0065
3398.00,0.0066
3397.00,0.0067
3396.00,0.0067
3395.00,0.0068
3394.00,0.0067
3393.00,0.0067
3392.00,0.0066
3391.00,0.0065
3390.00,0.0064
3389.00,0.0063
3388.00,0.0062
3387.00,0.0061
3386.00,0.0060
3385.00,0.0060
3384.00,0.0059
3383.00,0.0058
3382.00,0.0058
3381.00,0.0057
3380.00,0.0057
3379.00,0.0056
3378.00,0.0057
3377.00,0.0057
3376.00,0.0057
3375.00,0.0057
3374.00,0.0057
3373.00,0.0057
3372.00,0.0057
3371.00,0.0056
3370.00,0.0056
3369.00,0.0055
3368.00,0.0054
3367.00,0.0054
3366.00,0.0054
3365.00,0.0054
3364.00,0.0054
3363.00,0.0053
3362.00,0.0053
3361.00,0.0054
3360.00,0.0054
3359.00,0.0054
3358.00,0.0054
3357.00,0.0054
3356.00,0.0054
3355.00,0.0054
3354.00,0.0054
3353.00,0.0053
3352.00,0.0053
3351.00,0.0053
3350.00,0.0053
3349.00,0.0053
3348.00,0.0053
3347.00,0.0052
3346.00,0.0052
3345.00,0.0052
3344.00,0.0053
3343.00,0.0053
3342.00,0.0053
3341.00,0.0053
3340.00,0.0053
3339.00,0.0053
3338.00,0.0053
3337.00,0.0053
3336.00,0.0053
3335.00,0.0053
3334.00,0.0053
3333.00,0.0053
3332.00,0.0052
3331.00,0.0052
3330.00,0.0052
3329.00,0.0051
3328.00,0.0051
3327.00,0.0051
3326.00,0.0051
3325.00,0.0051
3324.00,0.0051
3323.00,0.0051
3322.00,0.0051
3321.00,0.0051
3320.00,0.0051
3319.00,0.0051
3318.00,0.0051
3317.00,0.0051
3316.00,0.0051
3315.00,0.0052
3314.00,0.0052
3313.00,0.0052
3312.00,0.0052
3311.00,0.0051
3310.00,0.0051
3309.00,0.0051
3308.00,0.0050
3307.00,0.0050
3306.00,0.0050
3305.00,0.0051
3304.00,0.0051
3303.00,0.0052
3302.00,0.0052
3301.00,0.0052
3300.00,0.0052
3299.00,0.0051
3298.00,0.0051
3297.00,0.0050
3296.00,0.0050
3295.00,0.0049
3294.00,0.0049
3293.00,0.0049
3292.00,0.0049
3291.00,0.0049
3290.00,0.0048
3289.00,0.0048
3288.00,0.0048
3287.00,0.0047
3286.00,0.0047
3285.00,0.0047
3284.00,0.0047
3283.00,0.0046
3282.00,0.0046
3281.00,0.0045
3280.00,0.0045
3279.00,0.0045
3278.00,0.0045
3277.00,0.0045
3276.00,0.0046
3275.00,0.0046
3274.00,0.0046
3273.00,0.0045
3272.00,0.0045
3271.00,0.0044
3270.00,0.0044
3269.00,0.0044
3268.00,0.0044
3267.00,0.0044
3266.00,0.0043
3265.00,0.0043
3264.00,0.0043
3263.00,0.0043
3262.00,0.0043
3261.00,0.0043
3260.00,0.0043
3259.00,0.0042
3258.00,0.0042
3257.00,0.0042
3256.00,0.0042
3255.00,0.0042
3254.00,0.0042
3253.00,0.0042
3252.00,0.0042
3251.00,0.0041
3250.00,0.0041
3249.00,0.0041
3248.00,0.0041
3247.00,0.0041
3246.00,0.0040
3245.00,0.0040
3244.00,0.0040
3243.00,0.0041
3242.00,0.0041
3241.00,0.0042
3240.00,0.0042
3239.00,0.0041
3238.00,0.0041
3237.00,0.0041
3236.00,0.0041
3235.00,0.0041
3234.00,0.0041
3233.00,0.0041
3232.00,0.0041
3231.00,0.0042
3230.00,0.0042
3229.00,0.0042
3228.00,0.0043
3227.00,0.0043
3226.00,0.0044
3225.00,0.0044
3224.00,0.0045
3223.00,0.0045
3222.00,0.0046
3221.00,0.0045
3220.00,0.0045
3219.00,0.0046
3218.00,0.0046
3217.00,0.0046
3216.00,0.0046
3215.00,0.0047
3214.00,0.0047
3213.00,0.0048
3212.00,0.0048
3211.00,0.0049
3210.00,0.0050
3209.00,0.0050
3208.00,0.0051
3207.00,0.0051
3206.00,0.0051
3205.00,0.0051
3204.00,0.0051
3203.00,0.0051
3202.00,0.0051
3201.00,0.0051
3200.00,0.0052
3199.00,0.0052
3198.00,0.0053
3197.00,0.0053
3196.00,0.0052
3195.00,0.0052
3194.00,0.0053
3193.00,0.0053
3192.00,0.0053
3191.00,0.0054
3190.00,0.0053
3189.00,0.0053
3188.00,0.0053
3187.00,0.0053
3186.00,0.0053
3185.00,0.0053
3184.00,0.0053
3183.00,0.0053
3182.00,0.0053
3181.00,0.0052
3180.00,0.0052
3179.00,0.0051
3178.00,0.0050
3177.00,0.0049
3176.00,0.0049
3175.00,0.0048
3174.00,0.0048
3173.00,0.0047
3172.00,0.0047
3171.00,0.0046
3170.00,0.0046
3169.00,0.0046
3168.00,0.0045
3167.00,0.0044
3166.00,0.0044
3165.00,0.0044
3164.00,0.0044
3163.00,0.0044
3162.00,0.0044
3161.00,0.0044
3160.00,0.0043
3159.00,0.0043
3158.00,0.0043
3157.00,0.0042
3156.00,0.0042
3155.00,0.0042
3154.00,0.0042
3153.00,0.0041
3152.00,0.0041
3151.00,0.0041
3150.00,0.0041
3149.00,0.0041
3148.00,0.0040
3147.00,0.0040
3146.00,0.0040
3145.00,0.0039
3144.00,0.0039
3143.00,0.0039
3142.00,0.0039
3141.00,0.0039
3140.00,0.0039
3139.00,0.0039
3138.00,0.0039
3137.00,0.0039
3136.00,0.0038
3135.00,0.0037
3134.00,0.0037
3133.00,0.0037
3132.00,0.0037
3131.00,0.0036
3130.00,0.0036
3129.00,0.0036
3128.00,0.0036
3127.00,0.0035
3126.00,0.0035
3125.00,0.0034
3124.00,0.0034
3123.00,0.0034
3122.00,0.0034
3121.00,0.0034
3120.00,0.0034
3119.00,0.0034
3118.00,0.0033
3117.00,0.0033
3116.00,0.0033
3115.00,0.0033
3114.00,0.0033
3113.00,0.0033
3112.00,0.0032
3111.00,0.0032
3110.00,0.0031
3109.00,0.0031
3108.00,0.0031
3107.00,0.0031
3106.00,0.0031
3105.00,0.0031
3104.00,0.0031
3103.00,0.0031
3102.00,0.0031
3101.00,0.0031
3100.00,0.0031
3099.00,0.0031
3098.00,0.0031
3097.00,0.0031
3096.00,0.0030
3095.00,0.0030
3094.00,0.0029
3093.00,0.0029
3092.00,0.0030
3091.00,0.0030
3090.00,0.0030
3089.00,0.0030
3088.00,0.0030
3087.00,0.0030
3086.00,0.0030
3085.00,0.0029
3084.00,0.0029
3083.00,0.0029
3082.00,0.0029
3081.00,0.0029
3080.00,0.0030
3079.00,0.0030
3078.00,0.0030
3077.00,0.0030
3076.00,0.0030
3075.00,0.0029
3074.00,0.0029
3073.00,0.0030
3072.00,0.0030
3071.00,0.0030
3070.00,0.0031
3069.00,0.0031
3068.00,0.0031
3067.00,0.0031
3066.00,0.0031
3065.00,0.0031
3064.00,0.0031
3063.00,0.0031
3062.00,0.0032
3061.00,0.0032
3060.00,0.0032
3059.00,0.0032
3058.00,0.0033
3057.00,0.0033
3056.00,0.0033
3055.00,0.0033
3054.00,0.0033
3053.00,0.0033
3052.00,0.0033
3051.00,0.0033
3050.00,0.0033
3049.00,0.0033
3048.00,0.0033
3047.00,0.0034
3046.00,0.0034
3045.00,0.0034
3044.00,0.0035
3043.00,0.0035
3042.00,0.0035
3041.00,0.0036
3040.00,0.0036
3039.00,0.0035
3038.00,0.0035
3037.00,0.0035
3036.00,0.0035
3035.00,0.0036
3034.00,0.0036
3033.00,0.0037
3032.00,0.0038
3031.00,0.0039
3030.00,0.0039
3029.00,0.0040
3028.00,0.0040
3027.00,0.0041
3026.00,0.0041
3025.00,0.0041
3024.00,0.0042
3023.00,0.0042
3022.00,0.0043
3021.00,0.0044
3020.00,0.0046
3019.00,0.0047
3018.00,0.0049
3017.00,0.0050
3016.00,0.0051
3015.00,0.0053
3014.00,0.0054
3013.00,0.0056
3012.00,0.0058
3011.00,0.0059
3010.00,0.0060
3009.00,0.0062
3008.00,0.0064
3007.00,0.0065
3006.00,0.0068
3005.00,0.0070
3004.00,0.0073
3003.00,0.0075
3002.00,0.0077
3001.00,0.0080
3000.00,0.0083
2999.00,0.0087
2998.00,0.0090
2997.00,0.0094
2996.00,0.0097
2995.00,0.0101
2994.00,0.0106
2993.00,0.0111
2992.00,0.0117
2991.00,0.0123
2990.00,0.0130
2989.00,0.0137
2988.00,0.0146
2987.00,0.0155
2986.00,0.0166
2985.00,0.0178
2984.00,0.0192
2983.00,0.0208
2982.00,0.0225
2981.00,0.0243
2980.00,0.0262
2979.00,0.0284
2978.00,0.0309
2977.00,0.0337
2976.00,0.0371
2975.00,0.0409
2974.00,0.0454
2973.00,0.0505
2972.00,0.0563
2971.00,0.0629
2970.00,0.0702
2969.00,0.0784
2968.00,0.0874
2967.00,0.0971
2966.00,0.1076
2965.00,0.1186
2964.00,0.1297
2963.00,0.1406
2962.00,0.1505
2961.00,0.1590
2960.00,0.1657
2959.00,0.1706
2958.00,0.1740
2957.00,0.1764
2956.00,0.1785
2955.00,0.1808
2954.00,0.1834
2953.00,0.1861
2952.00,0.1881
2951.00,0.1886
2950.00,0.1866
2949.00,0.1817
2948.00,0.1739
2947.00,0.1638
2946.00,0.1522
2945.00,0.1404
2944.00,0.1293
2943.00,0.1199
2942.00,0.1127
2941.00,0.1077
2940.00,0.1050
2939.00,0.1043
2938.00,0.1054
2937.00,0.1082
2936.00,0.1124
2935.00,0.1181
2934.00,0.1250
2933.00,0.1330
2932.00,0.1420
2931.00,0.1518
2930.00,0.1620
2929.00,0.1725
2928.00,0.1828
2927.00,0.1929
2926.00,0.2025
2925.00,0.2117
2924.00,0.2206
2923.00,0.2291
2922.00,0.2371
2921.00,0.2444
2920.00,0.2505
2919.00,0.2547
2918.00,0.2562
2917.00,0.2548
2916.00,0.2503
2915.00,0.2435
2914.00,0.2353
2913.00,0.2265
2912.00,0.2181
2911.00,0.2106
2910.00,0.2039
2909.00,0.1981
2908.00,0.1927
2907.00,0.1875
2906.00,0.1821
2905.00,0.1765
2904.00,0.1706
2903.00,0.1643
2902.00,0.1579
2901.00,0.1515
2900.00,0.1452
2899.00,0.1391
2898.00,0.1333
2897.00,0.1280
2896.00,0.1232
2895.00,0.1190
2894.00,0.1154
2893.00,0.1123
2892.00,0.1099
2891.00,0.1079
2890.00,0.1064
2889.00,0.1053
2888.00,0.1047
2887.00,0.1043
2886.00,0.1043
2885.00,0.1046
2884.00,0.1053
2883.00,0.1064
2882.00,0.1078
2881.00,0.1093
2880.00,0.1108
2879.00,0.1120
2878.00,0.1126
2877.00,0.1125
2876.00,0.1120
2875.00,0.1113
2874.00,0.1108
2873.00,0.1109
2872.00,0.1116
2871.00,0.1129
2870.00,0.1145
2869.00,0.1159
2868.00,0.1166
2867.00,0.1159
2866.00,0.1135
2865.00,0.1091
2864.00,0.1033
2863.00,0.0968
2862.00,0.0904
2861.00,0.0850
2860.00,0.0808
2859.00,0.0781
2858.00,0.0768
2857.00,0.0766
2856.00,0.0774
2855.00,0.0788
2854.00,0.0808
2853.00,0.0831
2852.00,0.0854
2851.00,0.0875
2850.00,0.0892
2849.00,0.0904
2848.00,0.0913
2847.00,0.0925
2846.00,0.0944
2845.00,0.0974
2844.00,0.1016
2843.00,0.1066
2842.00,0.1121
2841.00,0.1173
2840.00,0.1214
2839.00,0.1235
2838.00,0.1230
2837.00,0.1194
2836.00,0.1128
2835.00,0.1038
2834.00,0.0934
2833.00,0.0826
2832.00,0.0724
2831.00,0.0633
2830.00,0.0556
2829.00,0.0493
2828.00,0.0442
2827.00,0.0400
2826.00,0.0366
2825.00,0.0338
2824.00,0.0315
2823.00,0.0295
2822.00,0.0278
2821.00,0.0262
2820.00,0.0249
2819.00,0.0237
2818.00,0.0227
2817.00,0.0218
2816.00,0.0210
2815.00,0.0203
2814.00,0.0196
2813.00,0.0190
2812.00,0.0185
2811.00,0.0180
2810.00,0.0175
2809.00,0.0169
2808.00,0.0164
2807.00,0.0158
2806.00,0.0152
2805.00,0.0146
2804.00,0.0140
2803.00,0.0134
2802.00,0.0128
2801.00,0.0123
2800.00,0.0120
2799.00,0.0117
2798.00,0.0114
2797.00,0.0112
2796.00,0.0110
2795.00,0.0108
2794.00,0.0105
2793.00,0.0103
2792.00,0.0100
2791.00,0.0097
2790.00,0.0093
2789.00,0.0090
2788.00,0.0086
2787.00,0.0082
2786.00,0.0079
2785.00,0.0076
2784.00,0.0074
2783.00,0.0072
2782.00,0.0070
2781.00,0.0068
2780.00,0.0066
2779.00,0.0064
2778.00,0.0063
2777.00,0.0061
2776.00,0.0060
2775.00,0.0059
2774.00,0.0058
2773.00,0.0057
2772.00,0.0057
2771.00,0.0056
2770.00,0.0056
2769.00,0.0056
2768.00,0.0055
2767.00,0.0055
2766.00,0.0054
2765.00,0.0054
2764.00,0.0054
2763.00,0.0054
2762.00,0.0053
2761.00,0.0053
2760.00,0.0052
2759.00,0.0052
2758.00,0.0051
2757.00,0.0051
2756.00,0.0051
2755.00,0.0051
2754.00,0.0051
2753.00,0.0051
2752.00,0.0050
2751.00,0.0050
2750.00,0.0050
2749.00,0.0050
2748.00,0.0050
2747.00,0.0051
2746.00,0.0051
2745.00,0.0051
2744.00,0.0052
2743.00,0.0053
2742.00,0.0053
2741.00,0.0054
2740.00,0.0056
2739.00,0.0057
2738.00,0.0058
2737.00,0.0059
2736.00,0.0060
2735.00,0.0061
2734.00,0.0063
2733.00,0.0064
2732.00,0.0066
2731.00,0.0068
2730.00,0.0070
2729.00,0.0072
2728.00,0.0074
2727.00,0.0077
2726.00,0.0079
2725.00,0.0081
2724.00,0.0083
2723.00,0.0083
2722.00,0.0082
2721.00,0.0080
2720.00,0.0078
2719.00,0.0075
2718.00,0.0071
2717.00,0.0069
2716.00,0.0067
2715.00,0.0065
2714.00,0.0063
2713.00,0.0061
2712.00,0.0059
2711.00,0.0057
2710.00,0.0055
2709.00,0.0053
2708.00,0.0052
2707.00,0.0051
2706.00,0.0050
2705.00,0.0049
2704.00,0.0048
2703.00,0.0047
2702.00,0.0046
2701.00,0.0045
2700.00,0.0045
2699.00,0.0044
2698.00,0.0044
2697.00,0.0044
2696.00,0.0044
2695.00,0.0044
2694.00,0.0044
2693.00,0.0044
2692.00,0.0044
2691.00,0.0044
2690.00,0.0044
2689.00,0.0044
2688.00,0.0044
2687.00,0.0044
2686.00,0.0044
2685.00,0.0044
2684.00,0.0044
2683.00,0.0044
2682.00,0.0045
2681.00,0.0045
2680.00,0.0045
2679.00,0.0045
2678.00,0.0045
2677.00,0.0045
2676.00,0.0045
2675.00,0.0044
2674.00,0.0044
2673.00,0.0044
2672.00,0.0043
2671.00,0.0043
2670.00,0.0043
2669.00,0.0043
2668.00,0.0043
2667.00,0.0044
2666.00,0.0044
2665.00,0.0044
2664.00,0.0045
2663.00,0.0045
2662.00,0.0046
2661.00,0.0046
2660.00,0.0047
2659.00,0.0047
2658.00,0.0047
2657.00,0.0046
2656.00,0.0046
2655.00,0.0045
2654.00,0.0044
2653.00,0.0044
2652.00,0.0043
2651.00,0.0043
2650.00,0.0043
2649.00,0.0042
2648.00,0.0042
2647.00,0.0042
2646.00,0.0041
2645.00,0.0041
2644.00,0.0041
2643.00,0.0041
2642.00,0.0041
2641.00,0.0040
2640.00,0.0040
2639.00,0.0040
2638.00,0.0039
2637.00,0.0039
2636.00,0.0038
2635.00,0.0038
2634.00,0.0038
2633.00,0.0038
2632.00,0.0038
2631.00,0.0038
2630.00,0.0038
2629.00,0.0038
2628.00,0.0038
2627.00,0.0038
2626.00,0.0039
2625.00,0.0039
2624.00,0.0039
2623.00,0.0038
2622.00,0.0038
2621.00,0.0038
2620.00,0.0039
2619.00,0.0039
2618.00,0.0039
2617.00,0.0039
2616.00,0.0039
2615.00,0.0038
2614.00,0.0038
2613.00,0.0038
2612.00,0.0038
2611.00,0.0037
2610.00,0.0036
2609.00,0.0035
2608.00,0.0034
2607.00,0.0033
2606.00,0.0032
2605.00,0.0032
2604.00,0.0031
2603.00,0.0031
2602.00,0.0030
2601.00,0.0030
2600.00,0.0030
2599.00,0.0030
2598.00,0.0030
2597.00,0.0030
2596.00,0.0030
2595.00,0.0030
2594.00,0.0029
2593.00,0.0029
2592.00,0.0030
2591.00,0.0030
2590.00,0.0031
2589.00,0.0033
2588.00,0.0034
2587.00,0.0035
2586.00,0.0035
2585.00,0.0036
2584.00,0.0036
2583.00,0.0036
2582.00,0.0036
2581.00,0.0036
2580.00,0.0035
2579.00,0.0035
2578.00,0.0034
2577.00,0.0033
2576.00,0.0032
2575.00,0.0030
2574.00,0.0029
2573.00,0.0028
2572.00,0.0027
2571.00,0.0026
2570.00,0.0025
2569.00,0.0025
2568.00,0.0025
2567.00,0.0024
2566.00,0.0024
2565.00,0.0024
2564.00,0.0023
2563.00,0.0022
2562.00,0.0022
2561.00,0.0021
2560.00,0.0021
2559.00,0.0021
2558.00,0.0021
2557.00,0.0021
2556.00,0.0020
2555.00,0.0020
2554.00,0.0020
2553.00,0.0020
2552.00,0.0020
2551.00,0.0021
2550.00,0.0021
2549.00,0.0020
2548.00,0.0020
2547.00,0.0020
2546.00,0.0019
2545.00,0.0019
2544.00,0.0018
2543.00,0.0017
2542.00,0.0016
2541.00,0.0016
2540.00,0.0016
2539.00,0.0016
2538.00,0.0016
2537.00,0.0016
2536.00,0.0015
2535.00,0.0015
2534.00,0.0014
2533.00,0.0014
2532.00,0.0014
2531.00,0.0014
2530.00,0.0014
2529.00,0.0014
2528.00,0.0013
2527.00,0.0013
2526.00,0.0013
2525.00,0.0013
2524.00,0.0013
2523.00,0.0013
2522.00,0.0013
2521.00,0.0012
2520.00,0.0012
2519.00,0.0012
2518.00,0.0012
2517.00,0.0012
2516.00,0.0012
2515.00,0.0012
2514.00,0.0012
2513.00,0.0011
2512.00,0.0010
2511.00,0.0010
2510.00,0.0009
2509.00,0.0009
2508.00,0.0008
2507.00,0.0008
2506.00,0.0008
2505.00,0.0008
2504.00,0.0008
2503.00,0.0008
2502.00,0.0008
2501.00,0.0008
2500.00,0.0008
2499.00,0.0009
2498.00,0.0009
2497.00,0.0009
2496.00,0.0009
2495.00,0.0008
2494.00,0.0008
2493.00,0.0007
2492.00,0.0007
2491.00,0.0007
2490.00,0.0008
2489.00,0.0009
2488.00,0.0009
2487.00,0.0009
2486.00,0.0009
2485.00,0.0009
2484.00,0.0009
2483.00,0.0009
2482.00,0.0008
2481.00,0.0008
2480.00,0.0008
2479.00,0.0008
2478.00,0.0007
2477.00,0.0007
2476.00,0.0007
2475.00,0.0007
2474.00,0.0008
2473.00,0.0008
2472.00,0.0009
2471.00,0.0008
2470.00,0.0008
2469.00,0.0007
2468.00,0.0007
2467.00,0.0007
2466.00,0.0007
2465.00,0.0007
2464.00,0.0007
2463.00,0.0008
2462.00,0.0009
2461.00,0.0010
2460.00,0.0010
2459.00,0.0011
2458.00,0.0011
2457.00,0.0011
2456.00,0.0011
2455.00,0.0010
2454.00,0.0010
2453.00,0.0010
2452.00,0.0010
2451.00,0.0009
2450.00,0.0009
2449.00,0.0009
2448.00,0.0009
2447.00,0.0009
2446.00,0.0009
2445.00,0.0009
2444.00,0.0009
2443.00,0.0009
2442.00,0.0009
2441.00,0.0010
2440.00,0.0009
2439.00,0.0009
2438.00,0.0009
2437.00,0.0009
2436.00,0.0010
2435.00,0.0010
2434.00,0.0011
2433.00,0.0011
2432.00,0.0011
2431.00,0.0010
2430.00,0.0010
2429.00,0.0009
2428.00,0.0009
2427.00,0.0010
2426.00,0.0010
2425.00,0.0010
2424.00,0.0009
2423.00,0.0009
2422.00,0.0008
2421.00,0.0008
2420.00,0.0007
2419.00,0.0007
2418.00,0.0007
2417.00,0.0008
2416.00,0.0008
2415.00,0.0008
2414.00,0.0008
2413.00,0.0008
2412.00,0.0008
2411.00,0.0008
2410.00,0.0008
2409.00,0.0008
2408.00,0.0007
2407.00,0.0007
2406.00,0.0006
2405.00,0.0006
2404.00,0.0006
2403.00,0.0006
2402.00,0.0005
2401.00,0.0006
2400.00,0.0006
2399.00,0.0006
2398.00,0.0007
2397.00,0.0008
2396.00,0.0008
2395.00,0.0008
2394.00,0.0007
2393.00,0.0007
2392.00,0.0007
2391.00,0.0007
2390.00,0.0007
2389.00,0.0007
2388.00,0.0007
2387.00,0.0006
2386.00,0.0006
2385.00,0.0005
2384.00,0.0005
2383.00,0.0005
2382.00,0.0004
2381.00,0.0003
2380.00,0.0003
2379.00,0.0002
2378.00,0.0002
2377.00,0.0002
2376.00,0.0002
2375.00,0.0002
2374.00,0.0002
2373.00,0.0003
2372.00,0.0003
2371.00,0.0003
2370.00,0.0003
2369.00,0.0003
2368.00,0.0003
2367.00,0.0003
2366.00,0.0003
2365.00,0.0003
2364.00,0.0003
2363.00,0.0003
2362.00,0.0003
2361.00,0.0003
2360.00,0.0004
2359.00,0.0005
2358.00,0.0005
2357.00,0.0005
2356.00,0.0005
2355.00,0.0005
2354.00,0.0005
2353.00,0.0005
2352.00,0.0005
2351.00,0.0004
2350.00,0.0004
2349.00,0.0005
2348.00,0.0005
2347.00,0.0005
2346.00,0.0005
2345.00,0.0004
2344.00,0.0005
2343.00,0.0005
2342.00,0.0005
2341.00,0.0005
2340.00,0.0006
2339.00,0.0007
2338.00,0.0007
2337.00,0.0008
2336.00,0.0009
2335.00,0.0009
2334.00,0.0009
2333.00,0.0008
2332.00,0.0007
2331.00,0.0007
2330.00,0.0007
2329.00,0.0007
2328.00,0.0010
2327.00,0.0014
2326.00,0.0018
2325.00,0.0022
2324.00,0.0024
2323.00,0.0023
2322.00,0.0020
2321.00,0.0018
2320.00,0.0016
2319.00,0.0015
2318.00,0.0015
2317.00,0.0014
2316.00,0.0014
2315.00,0.0014
2314.00,0.0013
2313.00,0.0013
2312.00,0.0013
2311.00,0.0012
2310.00,0.0012
2309.00,0.0012
2308.00,0.0012
2307.00,0.0012
2306.00,0.0012
2305.00,0.0011
2304.00,0.0011
2303.00,0.0011
2302.00,0.0011
2301.00,0.0012
2300.00,0.0013
2299.00,0.0014
2298.00,0.0014
2297.00,0.0014
2296.00,0.0015
2295.00,0.0015
2294.00,0.0015
2293.00,0.0014
2292.00,0.0014
2291.00,0.0015
2290.00,0.0016
2289.00,0.0017
2288.00,0.0018
2287.00,0.0019
2286.00,0.0020
2285.00,0.0020
2284.00,0.0020
2283.00,0.0019
2282.00,0.0017
2281.00,0.0016
2280.00,0.0015
2279.00,0.0015
2278.00,0.0016
2277.00,0.0015
2276.00,0.0015
2275.00,0.0015
2274.00,0.0015
2273.00,0.0015
2272.00,0.0014
2271.00,0.0014
2270.00,0.0014
2269.00,0.0013
2268.00,0.0012
2267.00,0.0010
2266.00,0.0008
2265.00,0.0008
2264.00,0.0009
2263.00,0.0009
2262.00,0.0010
2261.00,0.0010
2260.00,0.0010
2259.00,0.0010
2258.00,0.0010
2257.00,0.0010
2256.00,0.0010
2255.00,0.0009
2254.00,0.0008
2253.00,0.0007
2252.00,0.0007
2251.00,0.0006
2250.00,0.0007
2249.00,0.0007
2248.00,0.0008
2247.00,0.0009
2246.00,0.0008
2245.00,0.0007
2244.00,0.0006
2243.00,0.0006
2242.00,0.0007
2241.00,0.0007
2240.00,0.0008
2239.00,0.0009
2238.00,0.0010
2237.00,0.0010
2236.00,0.0011
2235.00,0.0010
2234.00,0.0009
2233.00,0.0008
2232.00,0.0008
2231.00,0.0009
2230.00,0.0011
2229.00,0.0011
2228.00,0.0011
2227.00,0.0010
2226.00,0.0009
2225.00,0.0008
2224.00,0.0007
2223.00,0.0007
2222.00,0.0007
2221.00,0.0008
2220.00,0.0007
2219.00,0.0007
2218.00,0.0007
2217.00,0.0008
2216.00,0.0008
2215.00,0.0009
2214.00,0.0009
2213.00,0.0009
2212.00,0.0008
2211.00,0.0008
2210.00,0.0009
2209.00,0.0009
2208.00,0.0008
2207.00,0.0007
2206.00,0.0006
2205.00,0.0006
2204.00,0.0006
2203.00,0.0006
2202.00,0.0005
2201.00,0.0004
2200.00,0.0004
2199.00,0.0004
2198.00,0.0004
2197.00,0.0004
2196.00,0.0006
2195.00,0.0007
2194.00,0.0006
2193.00,0.0006
2192.00,0.0006
2191.00,0.0006
2190.00,0.0006
2189.00,0.0007
2188.00,0.0007
2187.00,0.0008
2186.00,0.0008
2185.00,0.0008
2184.00,0.0006
2183.00,0.0002
2182.00,-0.0001
2181.00,-0.0003
2180.00,-0.0003
2179.00,-0.0002
2178.00,-0.0002
2177.00,-0.0004
2176.00,-0.0006
2175.00,-0.0008
2174.00,-0.0006
2173.00,-0.0002
2172.00,0.0003
2171.00,0.0007
2170.00,0.0012
2169.00,0.0016
2168.00,0.0018
2167.00,0.0019
2166.00,0.0019
2165.00,0.0018
2164.00,0.0018
2163.00,0.0018
2162.00,0.0017
2161.00,0.0012
2160.00,0.0001
2159.00,-0.0014
2158.00,-0.0026
2157.00,-0.0030
2156.00,-0.0028
2155.00,-0.0024
2154.00,-0.0021
2153.00,-0.0019
2152.00,-0.0018
2151.00,-0.0015
2150.00,-0.0012
2149.00,-0.0010
2148.00,-0.0009
2147.00,-0.0010
2146.00,-0.0011
2145.00,-0.0011
2144.00,-0.0010
2143.00,-0.0010
2142.00,-0.0011
2141.00,-0.0014
2140.00,-0.0016
2139.00,-0.0017
2138.00,-0.0017
2137.00,-0.0016
2136.00,-0.0018
2135.00,-0.0020
2134.00,-0.0023
2133.00,-0.0023
2132.00,-0.0022
2131.00,-0.0019
2130.00,-0.0015
2129.00,-0.0012
2128.00,-0.0011
2127.00,-0.0010
2126.00,-0.0010
2125.00,-0.0010
2124.00,-0.0008
2123.00,-0.0006
2122.00,-0.0004
2121.00,-0.0002
2120.00,-0.0001
2119.00,-0.0001
2118.00,-0.0001
2117.00,-0.0001
2116.00,0.0000
2115.00,0.0001
2114.00,0.0003
2113.00,0.0003
2112.00,0.0002
2111.00,0.0002
2110.00,0.0001
2109.00,0.0000
2108.00,0.0000
2107.00,-0.0000
2106.00,0.0000
2105.00,0.0001
2104.00,0.0001
2103.00,0.0001
2102.00,0.0001
2101.00,0.0001
2100.00,0.0002
2099.00,0.0002
2098.00,0.0001
2097.00,-0.0001
2096.00,-0.0002
2095.00,-0.0004
2094.00,-0.0005
2093.00,-0.0005
2092.00,-0.0004
2091.00,-0.0003
2090.00,-0.0002
2089.00,-0.0002
2088.00,-0.0001
2087.00,-0.0000
2086.00,-0.0000
2085.00,0.0000
2084.00,0.0001
2083.00,0.0002
2082.00,0.0002
2081.00,0.0003
2080.00,0.0003
2079.00,0.0003
2078.00,0.0004
2077.00,0.0004
2076.00,0.0003
2075.00,0.0001
2074.00,0.0001
2073.00,0.0001
2072.00,0.0001
2071.00,0.0001
2070.00,-0.0000
2069.00,-0.0001
2068.00,-0.0001
2067.00,-0.0000
2066.00,-0.0000
2065.00,-0.0001
2064.00,-0.0003
2063.00,-0.0005
2062.00,-0.0006
2061.00,-0.0004
2060.00,-0.0000
2059.00,0.0004
2058.00,0.0008
2057.00,0.0010
2056.00,0.0009
2055.00,0.0007
2054.00,0.0006
2053.00,0.0007
2052.00,0.0010
2051.00,0.0012
2050.00,0.0010
2049.00,0.0006
2048.00,0.0003
2047.00,0.0001
2046.00,0.0001
2045.00,0.0003
2044.00,0.0003
2043.00,0.0003
2042.00,0.0001
2041.00,-0.0000
2040.00,-0.0001
2039.00,-0.0000
2038.00,0.0001
2037.00,0.0001
2036.00,-0.0000
2035.00,-0.0003
2034.00,-0.0006
2033.00,-0.0008
2032.00,-0.0010
2031.00,-0.0011
2030.00,-0.0012
2029.00,-0.0012
2028.00,-0.0010
2027.00,-0.0009
2026.00,-0.0007
2025.00,-0.0006
2024.00,-0.0007
2023.00,-0.0009
2022.00,-0.0012
2021.00,-0.0014
2020.00,-0.0014
2019.00,-0.0012
2018.00,-0.0010
2017.00,-0.0008
2016.00,-0.0008
2015.00,-0.0010
2014.00,-0.0012
2013.00,-0.0012
2012.00,-0.0010
2011.00,-0.0009
2010.00,-0.0009
2009.00,-0.0012
2008.00,-0.0017
2007.00,-0.0023
2006.00,-0.0026
2005.00,-0.0026
2004.00,-0.0023
2003.00,-0.0020
2002.00,-0.0018
2001.00,-0.0016
2000.00,-0.0015
1999.00,-0.0014
1998.00,-0.0014
1997.00,-0.0014
1996.00,-0.0014
1995.00,-0.0014
1994.00,-0.0013
1993.00,-0.0010
1992.00,-0.0006
1991.00,-0.0004
1990.00,-0.0004
1989.00,-0.0004
1988.00,-0.0005
1987.00,-0.0006
1986.00,-0.0005
1985.00,-0.0003
1984.00,0.0001
1983.00,0.0005
1982.00,0.0007
1981.00,0.0007
1980.00,0.0005
1979.00,0.0001
1978.00,-0.0004
1977.00,-0.0008
1976.00,-0.0011
1975.00,-0.0013
1974.00,-0.0013
1973.00,-0.0012
1972.00,-0.0010
1971.00,-0.0008
1970.00,-0.0008
1969.00,-0.0008
1968.00,-0.0009
1967.00,-0.0010
1966.00,-0.0012
1965.00,-0.0014
1964.00,-0.0016
1963.00,-0.0016
1962.00,-0.0016
1961.00,-0.0016
1960.00,-0.0018
1959.00,-0.0020
1958.00,-0.0021
1957.00,-0.0022
1956.00,-0.0021
1955.00,-0.0021
1954.00,-0.0019
1953.00,-0.0018
1952.00,-0.0017
1951.00,-0.0017
1950.00,-0.0018
1949.00,-0.0017
1948.00,-0.0015
1947.00,-0.0014
1946.00,-0.0013
1945.00,-0.0014
1944.00,-0.0015
1943.00,-0.0017
1942.00,-0.0017
1941.00,-0.0015
1940.00,-0.0012
1939.00,-0.0011
1938.00,-0.0011
1937.00,-0.0011
1936.00,-0.0011
1935.00,-0.0011
1934.00,-0.0010
1933.00,-0.0010
1932.00,-0.0010
1931.00,-0.0011
1930.00,-0.0012
1929.00,-0.0011
1928.00,-0.0010
1927.00,-0.0009
1926.00,-0.0008
1925.00,-0.0006
1924.00,-0.0005
1923.00,-0.0004
1922.00,-0.0003
1921.00,-0.0004
1920.00,-0.0004
1919.00,-0.0005
1918.00,-0.0005
1917.00,-0.0005
1916.00,-0.0004
1915.00,-0.0003
1914.00,-0.0003
1913.00,-0.0003
1912.00,-0.0002
1911.00,-0.0002
1910.00,-0.0001
1909.00,-0.0001
1908.00,-0.0001
1907.00,-0.0002
1906.00,-0.0002
1905.00,-0.0002
1904.00,-0.0002
1903.00,-0.0002
1902.00,-0.0002
1901.00,-0.0001
1900.00,-0.0000
1899.00,0.0000
1898.00,-0.0000
1897.00,-0.0001
1896.00,-0.0001
1895.00,-0.0002
1894.00,-0.0002
1893.00,-0.0002
1892.00,-0.0002
1891.00,-0.0002
1890.00,-0.0002
1889.00,-0.0002
1888.00,-0.0002
1887.00,-0.0003
1886.00,-0.0003
1885.00,-0.0003
1884.00,-0.0003
1883.00,-0.0003
1882.00,-0.0003
1881.00,-0.0002
1880.00,-0.0001
1879.00,-0.0001
1878.00,-0.0001
1877.00,-0.0001
1876.00,-0.0001
1875.00,-0.0002
1874.00,-0.0002
1873.00,-0.0003
1872.00,-0.0003
1871.00,-0.0003
1870.00,-0.0003
1869.00,-0.0003
1868.00,-0.0002
1867.00,-0.0003
1866.00,-0.0003
1865.00,-0.0003
1864.00,-0.0003
1863.00,-0.0002
1862.00,-0.0001
1861.00,-0.0001
1860.00,-0.0000
1859.00,0.0000
1858.00,0.0000
1857.00,0.0001
1856.00,0.0002
1855.00,0.0002
1854.00,0.0002
1853.00,0.0001
1852.00,0.0000
1851.00,0.0000
1850.00,-0.0000
1849.00,-0.0000
1848.00,-0.0000
1847.00,0.0000
1846.00,0.0001
1845.00,0.0001
1844.00,0.0002
1843.00,0.0001
1842.00,0.0001
1841.00,0.0000
1840.00,-0.0000
1839.00,-0.0000
1838.00,0.0001
1837.00,0.0002
1836.00,0.0002
1835.00,0.0003
1834.00,0.0003
1833.00,0.0003
1832.00,0.0003
1831.00,0.0003
1830.00,0.0003
1829.00,0.0003
1828.00,0.0003
1827.00,0.0003
1826.00,0.0003
1825.00,0.0003
1824.00,0.0003
1823.00,0.0002
1822.00,0.0002
1821.00,0.0002
1820.00,0.0001
1819.00,0.0001
1818.00,-0.0000
1817.00,-0.0001
1816.00,-0.0001
1815.00,-0.0001
1814.00,-0.0000
1813.00,0.0000
1812.00,0.0001
1811.00,0.0001
1810.00,0.0002
1809.00,0.0003
1808.00,0.0003
1807.00,0.0003
1806.00,0.0003
1805.00,0.0003
1804.00,0.0004
1803.00,0.0004
1802.00,0.0004
1801.00,0.0004
1800.00,0.0004
1799.00,0.0004
1798.00,0.0004
1797.00,0.0005
1796.00,0.0005
1795.00,0.0005
1794.00,0.0005
1793.00,0.0005
1792.00,0.0006
1791.00,0.0007
1790.00,0.0007
1789.00,0.0007
1788.00,0.0007
1787.00,0.0007
1786.00,0.0006
1785.00,0.0006
1784.00,0.0006
1783.00,0.0006
1782.00,0.0006
1781.00,0.0006
1780.00,0.0007
1779.00,0.0007
1778.00,0.0006
1777.00,0.0006
1776.00,0.0007
1775.00,0.0007
1774.00,0.0007
1773.00,0.0007
1772.00,0.0008
1771.00,0.0009
1770.00,0.0009
1769.00,0.0010
1768.00,0.0010
1767.00,0.0009
1766.00,0.0009
1765.00,0.0010
1764.00,0.0010
1763.00,0.0010
1762.00,0.0010
1761.00,0.0010
1760.00,0.0010
1759.00,0.0010
1758.00,0.0010
1757.00,0.0010
1756.00,0.0010
1755.00,0.0010
1754.00,0.0011
1753.00,0.0011
1752.00,0.0011
1751.00,0.0011
1750.00,0.0011
1749.00,0.0011
1748.00,0.0012
1747.00,0.0012
1746.00,0.0012
1745.00,0.0012
1744.00,0.0012
1743.00,0.0013
1742.00,0.0013
1741.00,0.0012
1740.00,0.0012
1739.00,0.0013
1738.00,0.0013
1737.00,0.0013
1736.00,0.0014
1735.00,0.0013
1734.00,0.0013
1733.00,0.0013
1732.00,0.0015
1731.00,0.0016
1730.00,0.0017
1729.00,0.0018
1728.00,0.0018
1727.00,0.0019
1726.00,0.0019
1725.00,0.0019
1724.00,0.0019
1723.00,0.0019
1722.00,0.0019
1721.00,0.0020
1720.00,0.0020
1719.00,0.0020
1718.00,0.0020
1717.00,0.0020
1716.00,0.0021
1715.00,0.0021
1714.00,0.0020
1713.00,0.0020
1712.00,0.0019
1711.00,0.0019
1710.00,0.0019
1709.00,0.0019
1708.00,0.0019
1707.00,0.0020
1706.00,0.0021
1705.00,0.0021
1704.00,0.0022
1703.00,0.0023
1702.00,0.0023
1701.00,0.0024
1700.00,0.0024
1699.00,0.0025
1698.00,0.0025
1697.00,0.0025
1696.00,0.0025
1695.00,0.0026
1694.00,0.0026
1693.00,0.0027
1692.00,0.0028
1691.00,0.0029
1690.00,0.0029
1689.00,0.0030
1688.00,0.0030
1687.00,0.0031
1686.00,0.0031
1685.00,0.0032
1684.00,0.0033
1683.00,0.0034
1682.00,0.0035
1681.00,0.0037
1680.00,0.0038
1679.00,0.0039
1678.00,0.0040
1677.00,0.0040
1676.00,0.0041
1675.00,0.0041
1674.00,0.0041
1673.00,0.0041
1672.00,0.0042
1671.00,0.0043
1670.00,0.0043
1669.00,0.0044
1668.00,0.0045
1667.00,0.0046
1666.00,0.0047
1665.00,0.0048
1664.00,0.0048
1663.00,0.0049
1662.00,0.0050
1661.00,0.0052
1660.00,0.0053
1659.00,0.0054
1658.00,0.0054
1657.00,0.0055
1656.00,0.0055
1655.00,0.0055
1654.00,0.0058
1653.00,0.0064
1652.00,0.0071
1651.00,0.0075
1650.00,0.0080
1649.00,0.0085
1648.00,0.0091
1647.00,0.0096
1646.00,0.0099
1645.00,0.0098
1644.00,0.0095
1643.00,0.0091
1642.00,0.0087
1641.00,0.0084
1640.00,0.0081
1639.00,0.0078
1638.00,0.0076
1637.00,0.0075
1636.00,0.0074
1635.00,0.0073
1634.00,0.0073
1633.00,0.0073
1632.00,0.0073
1631.00,0.0073
1630.00,0.0072
1629.00,0.0072
1628.00,0.0071
1627.00,0.0070
1626.00,0.0069
1625.00,0.0067
1624.00,0.0064
1623.00,0.0062
1622.00,0.0060
1621.00,0.0058
1620.00,0.0058
1619.00,0.0057
1618.00,0.0056
1617.00,0.0055
1616.00,0.0054
1615.00,0.0054
1614.00,0.0054
1613.00,0.0054
1612.00,0.0054
1611.00,0.0054
1610.00,0.0053
1609.00,0.0053
1608.00,0.0053
1607.00,0.0053
1606.00,0.0052
1605.00,0.0052
1604.00,0.0052
1603.00,0.0052
1602.00,0.0052
1601.00,0.0052
1600.00,0.0051
1599.00,0.0051
1598.00,0.0050
1597.00,0.0050
1596.00,0.0050
1595.00,0.0050
1594.00,0.0050
1593.00,0.0050
1592.00,0.0050
1591.00,0.0051
1590.00,0.0051
1589.00,0.0051
1588.00,0.0052
1587.00,0.0053
1586.00,0.0053
1585.00,0.0053
1584.00,0.0054
1583.00,0.0055
1582.00,0.0056
1581.00,0.0057
1580.00,0.0059
1579.00,0.0060
1578.00,0.0061
1577.00,0.0061
1576.00,0.0061
1575.00,0.0060
1574.00,0.0060
1573.00,0.0060
1572.00,0.0060
1571.00,0.0059
1570.00,0.0058
1569.00,0.0058
1568.00,0.0058
1567.00,0.0058
1566.00,0.0058
1565.00,0.0058
1564.00,0.0059
1563.00,0.0058
1562.00,0.0058
1561.00,0.0058
1560.00,0.0058
1559.00,0.0057
1558.00,0.0057
1557.00,0.0058
1556.00,0.0060
1555.00,0.0061
1554.00,0.0062
1553.00,0.0063
1552.00,0.0064
1551.00,0.0064
1550.00,0.0065
1549.00,0.0066
1548.00,0.0066
1547.00,0.0067
1546.00,0.0069
1545.00,0.0070
1544.00,0.0072
1543.00,0.0073
1542.00,0.0073
1541.00,0.0073
1540.00,0.0073
1539.00,0.0072
1538.00,0.0070
1537.00,0.0069
1536.00,0.0068
1535.00,0.0066
1534.00,0.0063
1533.00,0.0061
1532.00,0.0060
1531.00,0.0059
1530.00,0.0058
1529.00,0.0057
1528.00,0.0057
1527.00,0.0056
1526.00,0.0055
1525.00,0.0055
1524.00,0.0054
1523.00,0.0054
1522.00,0.0054
1521.00,0.0054
1520.00,0.0055
1519.00,0.0055
1518.00,0.0054
1517.00,0.0054
1516.00,0.0055
1515.00,0.0055
1514.00,0.0055
1513.00,0.0056
1512.00,0.0056
1511.00,0.0057
1510.00,0.0058
1509.00,0.0059
1508.00,0.0061
1507.00,0.0062
1506.00,0.0062
1505.00,0.0063
1504.00,0.0064
1503.00,0.0065
1502.00,0.0067
1501.00,0.0069
1500.00,0.0071
1499.00,0.0073
1498.00,0.0076
1497.00,0.0080
1496.00,0.0084
1495.00,0.0087
1494.00,0.0091
1493.00,0.0095
1492.00,0.0099
1491.00,0.0103
1490.00,0.0106
1489.00,0.0111
1488.00,0.0116
1487.00,0.0120
1486.00,0.0124
1485.00,0.0130
1484.00,0.0137
1483.00,0.0143
1482.00,0.0151
1481.00,0.0162
1480.00,0.0174
1479.00,0.0186
1478.00,0.0201
1477.00,0.0221
1476.00,0.0246
1475.00,0.0276
1474.00,0.0316
1473.00,0.0374
1472.00,0.0443
1471.00,0.0509
1470.00,0.0571
1469.00,0.0634
1468.00,0.0701
1467.00,0.0772
1466.00,0.0853
1465.00,0.0940
1464.00,0.1016
1463.00,0.1069
1462.00,0.1103
1461.00,0.1127
1460.00,0.1145
1459.00,0.1157
1458.00,0.1169
1457.00,0.1181
1456.00,0.1184
1455.00,0.1180
1454.00,0.1171
1453.00,0.1158
1452.00,0.1136
1451.00,0.1102
1450.00,0.1054
1449.00,0.0986
1448.00,0.0897
1447.00,0.0802
1446.00,0.0716
1445.00,0.0641
1444.00,0.0576
1443.00,0.0522
1442.00,0.0481
1441.00,0.0452
1440.00,0.0433
1439.00,0.0424
1438.00,0.0420
1437.00,0.0417
1436.00,0.0404
1435.00,0.0380
1434.00,0.0346
1433.00,0.0307
1432.00,0.0266
1431.00,0.0229
1430.00,0.0201
1429.00,0.0180
1428.00,0.0166
1427.00,0.0157
1426.00,0.0152
1425.00,0.0147
1424.00,0.0143
1423.00,0.0141
1422.00,0.0140
1421.00,0.0138
1420.00,0.0135
1419.00,0.0133
1418.00,0.0131
1417.00,0.0128
1416.00,0.0124
1415.00,0.0121
1414.00,0.0119
1413.00,0.0117
1412.00,0.0116
1411.00,0.0114
1410.00,0.0113
1409.00,0.0112
1408.00,0.0111
1407.00,0.0111
1406.00,0.0112
1405.00,0.0112
1404.00,0.0112
1403.00,0.0112
1402.00,0.0113
1401.00,0.0114
1400.00,0.0116
1399.00,0.0118
1398.00,0.0122
1397.00,0.0124
1396.00,0.0126
1395.00,0.0130
1394.00,0.0135
1393.00,0.0139
1392.00,0.0144
1391.00,0.0151
1390.00,0.0161
1389.00,0.0175
1388.00,0.0196
1387.00,0.0228
1386.00,0.0270
1385.00,0.0326
1384.00,0.0404
1383.00,0.0511
1382.00,0.0654
1381.00,0.0835
1380.00,0.1051
1379.00,0.1288
1378.00,0.1506
1377.00,0.1654
1376.00,0.1688
1375.00,0.1587
1374.00,0.1381
1373.00,0.1143
1372.00,0.0929
1371.00,0.0754
1370.00,0.0614
1369.00,0.0507
1368.00,0.0433
1367.00,0.0386
1366.00,0.0359
1365.00,0.0348
1364.00,0.0350
1363.00,0.0361
1362.00,0.0378
1361.00,0.0397
1360.00,0.0410
1359.00,0.0414
1358.00,0.0404
1357.00,0.0382
1356.00,0.0351
1355.00,0.0316
1354.00,0.0283
1353.00,0.0253
1352.00,0.0229
1351.00,0.0209
1350.00,0.0193
1349.00,0.0179
1348.00,0.0168
1347.00,0.0159
1346.00,0.0151
1345.00,0.0145
1344.00,0.0139
1343.00,0.0135
1342.00,0.0130
1341.00,0.0126
1340.00,0.0124
1339.00,0.0121
1338.00,0.0119
1337.00,0.0118
1336.00,0.0118
1335.00,0.0119
1334.00,0.0122
1333.00,0.0125
1332.00,0.0129
1331.00,0.0132
1330.00,0.0133
1329.00,0.0132
1328.00,0.0129
1327.00,0.0125
1326.00,0.0120
1325.00,0.0115
1324.00,0.0110
1323.00,0.0105
1322.00,0.0102
1321.00,0.0099
1320.00,0.0097
1319.00,0.0095
1318.00,0.0093
1317.00,0.0092
1316.00,0.0091
1315.00,0.0091
1314.00,0.0091
1313.00,0.0092
1312.00,0.0094
1311.00,0.0097
1310.00,0.0101
1309.00,0.0108
1308.00,0.0119
1307.00,0.0133
1306.00,0.0147
1305.00,0.0156
1304.00,0.0159
1303.00,0.0155
1302.00,0.0147
1301.00,0.0140
1300.00,0.0134
1299.00,0.0131
1298.00,0.0129
1297.00,0.0128
1296.00,0.0127
1295.00,0.0124
1294.00,0.0121
1293.00,0.0117
1292.00,0.0112
1291.00,0.0107
1290.00,0.0103
1289.00,0.0099
1288.00,0.0095
1287.00,0.0093
1286.00,0.0091
1285.00,0.0089
1284.00,0.0087
1283.00,0.0086
1282.00,0.0084
1281.00,0.0083
1280.00,0.0082
1279.00,0.0082
1278.00,0.0082
1277.00,0.0082
1276.00,0.0082
1275.00,0.0082
1274.00,0.0082
1273.00,0.0082
1272.00,0.0083
1271.00,0.0085
1270.00,0.0087
1269.00,0.0090
1268.00,0.0093
1267.00,0.0097
1266.00,0.0101
1265.00,0.0105
1264.00,0.0109
1263.00,0.0112
1262.00,0.0116
1261.00,0.0121
1260.00,0.0128
1259.00,0.0136
1258.00,0.0145
1257.00,0.0151
1256.00,0.0154
1255.00,0.0151
1254.00,0.0142
1253.00,0.0132
1252.00,0.0121
1251.00,0.0113
1250.00,0.0107
1249.00,0.0102
1248.00,0.0098
1247.00,0.0095
1246.00,0.0092
1245.00,0.0090
1244.00,0.0087
1243.00,0.0086
1242.00,0.0084
1241.00,0.0083
1240.00,0.0081
1239.00,0.0080
1238.00,0.0079
1237.00,0.0079
1236.00,0.0079
1235.00,0.0079
1234.00,0.0079
1233.00,0.0079
1232.00,0.0079
1231.00,0.0080
1230.00,0.0080
1229.00,0.0082
1228.00,0.0083
1227.00,0.0085
1226.00,0.0087
1225.00,0.0088
1224.00,0.0091
1223.00,0.0093
1222.00,0.0096
1221.00,0.0098
1220.00,0.0099
1219.00,0.0100
1218.00,0.0099
1217.00,0.0097
1216.00,0.0095
1215.00,0.0092
1214.00,0.0090
1213.00,0.0087
1212.00,0.0085
1211.00,0.0083
1210.00,0.0081
1209.00,0.0080
1208.00,0.0079
1207.00,0.0078
1206.00,0.0078
1205.00,0.0077
1204.00,0.0077
1203.00,0.0077
1202.00,0.0077
1201.00,0.0077
1200.00,0.0077
1199.00,0.0076
1198.00,0.0076
1197.00,0.0076
1196.00,0.0076
1195.00,0.0076
1194.00,0.0077
1193.00,0.0077
1192.00,0.0077
1191.00,0.0077
1190.00,0.0077
1189.00,0.0077
1188.00,0.0078
1187.00,0.0079
1186.00,0.0080
1185.00,0.0081
1184.00,0.0082
1183.00,0.0084
1182.00,0.0086
1181.00,0.0089
1180.00,0.0094
1179.00,0.0100
1178.00,0.0108
1177.00,0.0118
1176.00,0.0132
1175.00,0.0150
1174.00,0.0174
1173.00,0.0204
1172.00,0.0240
1171.00,0.0279
1170.00,0.0317
1169.00,0.0348
1168.00,0.0366
1167.00,0.0370
1166.00,0.0359
1165.00,0.0340
1164.00,0.0317
1163.00,0.0295
1162.00,0.0275
1161.00,0.0260
1160.00,0.0247
1159.00,0.0237
1158.00,0.0229
1157.00,0.0223
1156.00,0.0219
1155.00,0.0216
1154.00,0.0213
1153.00,0.0209
1152.00,0.0204
1151.00,0.0197
1150.00,0.0189
1149.00,0.0179
1148.00,0.0170
1147.00,0.0160
1146.00,0.0152
1145.00,0.0143
1144.00,0.0136
1143.00,0.0129
1142.00,0.0122
1141.00,0.0115
1140.00,0.0110
1139.00,0.0106
1138.00,0.0103
1137.00,0.0100
1136.00,0.0097
1135.00,0.0095
1134.00,0.0094
1133.00,0.0092
1132.00,0.0091
1131.00,0.0091
1130.00,0.0091
1129.00,0.0091
1128.00,0.0092
1127.00,0.0092
1126.00,0.0093
1125.00,0.0093
1124.00,0.0093
1123.00,0.0094
1122.00,0.0096
1121.00,0.0098
1120.00,0.0099
1119.00,0.0100
1118.00,0.0100
1117.00,0.0101
1116.00,0.0102
1115.00,0.0103
1114.00,0.0104
1113.00,0.0105
1112.00,0.0107
1111.00,0.0109
1110.00,0.0112
1109.00,0.0115
1108.00,0.0120
1107.00,0.0125
1106.00,0.0131
1105.00,0.0136
1104.00,0.0139
1103.00,0.0141
1102.00,0.0140
1101.00,0.0138
1100.00,0.0133
1099.00,0.0128
1098.00,0.0122
1097.00,0.0118
1096.00,0.0114
1095.00,0.0111
1094.00,0.0109
1093.00,0.0106
1092.00,0.0104
1091.00,0.0103
1090.00,0.0102
1089.00,0.0101
1088.00,0.0101
1087.00,0.0100
1086.00,0.0099
1085.00,0.0098
1084.00,0.0099
1083.00,0.0099
1082.00,0.0099
1081.00,0.0099
1080.00,0.0098
1079.00,0.0096
1078.00,0.0094
1077.00,0.0092
1076.00,0.0091
1075.00,0.0090
1074.00,0.0089
1073.00,0.0089
1072.00,0.0088
1071.00,0.0088
1070.00,0.0087
1069.00,0.0086
1068.00,0.0086
1067.00,0.0086
1066.00,0.0087
1065.00,0.0087
1064.00,0.0087
1063.00,0.0088
1062.00,0.0087
1061.00,0.0087
1060.00,0.0086
1059.00,0.0086
1058.00,0.0087
1057.00,0.0087
1056.00,0.0087
1055.00,0.0087
1054.00,0.0088
1053.00,0.0089
1052.00,0.0090
1051.00,0.0092
1050.00,0.0094
1049.00,0.0097
1048.00,0.0101
1047.00,0.0105
1046.00,0.0108
1045.00,0.0110
1044.00,0.0110
1043.00,0.0109
1042.00,0.0106
1041.00,0.0103
1040.00,0.0101
1039.00,0.0100
1038.00,0.0100
1037.00,0.0100
1036.00,0.0100
1035.00,0.0099
1034.00,0.0097
1033.00,0.0096
1032.00,0.0094
1031.00,0.0093
1030.00,0.0092
1029.00,0.0091
1028.00,0.0090
1027.00,0.0090
1026.00,0.0090
1025.00,0.0089
1024.00,0.0089
1023.00,0.0089
1022.00,0.0090
1021.00,0.0090
1020.00,0.0091
1019.00,0.0092
1018.00,0.0094
1017.00,0.0096
1016.00,0.0097
1015.00,0.0098
1014.00,0.0100
1013.00,0.0101
1012.00,0.0104
1011.00,0.0106
1010.00,0.0110
1009.00,0.0114
1008.00,0.0120
1007.00,0.0128
1006.00,0.0138
1005.00,0.0153
1004.00,0.0173
1003.00,0.0201
1002.00,0.0239
1001.00,0.0286
1000.00,0.0337
999.00,0.0380
998.00,0.0404
997.00,0.0399
996.00,0.0368
995.00,0.0320
994.00,0.0269
993.00,0.0224
992.00,0.0189
991.00,0.0165
990.00,0.0148
989.00,0.0137
988.00,0.0129
987.00,0.0123
986.00,0.0121
985.00,0.0122
984.00,0.0126
983.00,0.0134
982.00,0.0146
981.00,0.0164
980.00,0.0188
979.00,0.0220
978.00,0.0262
977.00,0.0312
976.00,0.0367
975.00,0.0421
974.00,0.0464
973.00,0.0482
972.00,0.0469
971.00,0.0426
970.00,0.0366
969.00,0.0303
968.00,0.0249
967.00,0.0207
966.00,0.0177
965.00,0.0155
964.00,0.0139
963.00,0.0128
962.00,0.0119
961.00,0.0113
960.00,0.0108
959.00,0.0104
958.00,0.0101
957.00,0.0098
956.00,0.0095
955.00,0.0092
954.00,0.0089
953.00,0.0087
952.00,0.0086
951.00,0.0085
950.00,0.0085
949.00,0.0084
948.00,0.0083
947.00,0.0083
946.00,0.0085
945.00,0.0087
944.00,0.0090
943.00,0.0093
942.00,0.0096
941.00,0.0097
940.00,0.0097
939.00,0.0095
938.00,0.0091
937.00,0.0087
936.00,0.0083
935.00,0.0079
934.00,0.0075
933.00,0.0073
932.00,0.0070
931.00,0.0069
930.00,0.0068
929.00,0.0067
928.00,0.0065
927.00,0.0064
926.00,0.0063
925.00,0.0062
924.00,0.0062
923.00,0.0062
922.00,0.0062
921.00,0.0061
920.00,0.0061
919.00,0.0061
918.00,0.0063
917.00,0.0064
916.00,0.0065
915.00,0.0066
914.00,0.0067
913.00,0.0068
912.00,0.0069
911.00,0.0071
910.00,0.0072
909.00,0.0074
908.00,0.0077
907.00,0.0082
906.00,0.0088
905.00,0.0096
904.00,0.0108
903.00,0.0123
902.00,0.0140
901.00,0.0156
900.00,0.0166
899.00,0.0168
898.00,0.0161
897.00,0.0148
896.00,0.0132
895.00,0.0117
894.00,0.0104
893.00,0.0094
892.00,0.0087
891.00,0.0083
890.00,0.0079
889.00,0.0077
888.00,0.0076
887.00,0.0074
886.00,0.0074
885.00,0.0073
884.00,0.0073
883.00,0.0073
882.00,0.0073
881.00,0.0073
880.00,0.0074
879.00,0.0075
878.00,0.0076
877.00,0.0077
876.00,0.0077
875.00,0.0077
874.00,0.0077
873.00,0.0077
872.00,0.0078
871.00,0.0079
870.00,0.0078
869.00,0.0078
868.00,0.0078
867.00,0.0079
866.00,0.0080
865.00,0.0082
864.00,0.0083
863.00,0.0084
862.00,0.0085
861.00,0.0086
860.00,0.0087
859.00,0.0089
858.00,0.0091
857.00,0.0093
856.00,0.0095
855.00,0.0097
854.00,0.0099
853.00,0.0101
852.00,0.0105
851.00,0.0110
850.00,0.0116
849.00,0.0124
848.00,0.0135
847.00,0.0153
846.00,0.0179
845.00,0.0220
844.00,0.0277
843.00,0.0345
842.00,0.0401
841.00,0.0422
840.00,0.0396
839.00,0.0336
838.00,0.0268
837.00,0.0211
836.00,0.0174
835.00,0.0152
834.00,0.0140
833.00,0.0132
832.00,0.0126
831.00,0.0122
830.00,0.0118
829.00,0.0116
828.00,0.0114
827.00,0.0112
826.00,0.0112
825.00,0.0111
824.00,0.0111
823.00,0.0112
822.00,0.0114
821.00,0.0117
820.00,0.0119
819.00,0.0122
818.00,0.0125
817.00,0.0130
816.00,0.0137
815.00,0.0146
814.00,0.0157
813.00,0.0172
812.00,0.0188
811.00,0.0203
810.00,0.0215
809.00,0.0220
808.00,0.0217
807.00,0.0208
806.00,0.0194
805.00,0.0178
804.00,0.0163
803.00,0.0150
802.00,0.0139
801.00,0.0132
800.00,0.0128
799.00,0.0125
798.00,0.0122
797.00,0.0119
796.00,0.0115
795.00,0.0110
794.00,0.0105
793.00,0.0100
792.00,0.0095
791.00,0.0091
790.00,0.0088
789.00,0.0086
788.00,0.0083
787.00,0.0081
786.00,0.0080
785.00,0.0079
784.00,0.0078
783.00,0.0077
782.00,0.0074
781.00,0.0071
780.00,0.0069
779.00,0.0068
778.00,0.0068
777.00,0.0069
776.00,0.0069
775.00,0.0068
774.00,0.0068
773.00,0.0068
772.00,0.0069
771.00,0.0069
770.00,0.0069
769.00,0.0069
768.00,0.0069
767.00,0.0070
766.00,0.0070
765.00,0.0071
764.00,0.0071
763.00,0.0071
762.00,0.0071
761.00,0.0071
760.00,0.0071
759.00,0.0071
758.00,0.0071
757.00,0.0071
756.00,0.0072
755.00,0.0074
754.00,0.0075
753.00,0.0077
752.00,0.0078
751.00,0.0081
750.00,0.0083
749.00,0.0085
748.00,0.0086
747.00,0.0086
746.00,0.0086
745.00,0.0087
744.00,0.0088
743.00,0.0091
742.00,0.0094
741.00,0.0098
740.00,0.0102
739.00,0.0105
738.00,0.0109
737.00,0.0112
736.00,0.0115
735.00,0.0118
734.00,0.0122
733.00,0.0129
732.00,0.0138
731.00,0.0147
730.00,0.0154
729.00,0.0159
728.00,0.0161
727.00,0.0162
726.00,0.0165
725.00,0.0169
724.00,0.0176
723.00,0.0183
722.00,0.0189
721.00,0.0192
720.00,0.0188
719.00,0.0177
718.00,0.0163
717.00,0.0149
716.00,0.0138
715.00,0.0130
714.00,0.0124
713.00,0.0119
712.00,0.0115
711.00,0.0111
710.00,0.0109
709.00,0.0108
708.00,0.0109
707.00,0.0109
706.00,0.0110
705.00,0.0109
704.00,0.0108
703.00,0.0106
702.00,0.0104
701.00,0.0103
700.00,0.0102
699.00,0.0100
698.00,0.0097
697.00,0.0095
696.00,0.0094
695.00,0.0095
694.00,0.0095
693.00,0.0095
692.00,0.0093
691.00,0.0091
690.00,0.0089
689.00,0.0088
688.00,0.0089
687.00,0.0090
686.00,0.0092
685.00,0.0093
684.00,0.0093
683.00,0.0094
682.00,0.0093
681.00,0.0091
680.00,0.0090
679.00,0.0090
678.00,0.0091
677.00,0.0092
676.00,0.0093
675.00,0.0093
674.00,0.0093
673.00,0.0093
672.00,0.0092
671.00,0.0092
670.00,0.0093
669.00,0.0094
668.00,0.0096
667.00,0.0098
666.00,0.0099
665.00,0.0098
664.00,0.0098
663.00,0.0097
662.00,0.0096
661.00,0.0096
660.00,0.0096
659.00,0.0096
658.00,0.0096
657.00,0.0094
656.00,0.0093
655.00,0.0093
654.00,0.0094
653.00,0.0096
652.00,0.0096
651.00,0.0096
650.00,0.0095
649.00,0.0095
648.00,0.0096
647.00,0.0097
646.00,0.0098
645.00,0.0098
644.00,0.0098
643.00,0.0098
642.00,0.0097
641.00,0.0096
640.00,0.0095
639.00,0.0094
638.00,0.0094
637.00,0.0093
636.00,0.0090
635.00,0.0087
634.00,0.0086
633.00,0.0086
632.00,0.0088
631.00,0.0091
630.00,0.0093
629.00,0.0094
628.00,0.0093
627.00,0.0091
626.00,0.0091
625.00,0.0092
624.00,0.0093
623.00,0.0092
622.00,0.0091
621.00,0.0090
620.00,0.0089
619.00,0.0089
618.00,0.0089
617.00,0.0089
616.00,0.0089
615.00,0.0090
614.00,0.0091
613.00,0.0094
612.00,0.0096
611.00,0.0097
610.00,0.0097
609.00,0.0095
608.00,0.0092
607.00,0.0090
606.00,0.0088
605.00,0.0086
604.00,0.0086
603.00,0.0086
602.00,0.0088
601.00,0.0090
600.00,0.0090
599.00,0.0089
598.00,0.0088
597.00,0.0086
596.00,0.0083
595.00,0.0081
594.00,0.0080
593.00,0.0080
592.00,0.0083
591.00,0.0088
590.00,0.0093
589.00,0.0095
588.00,0.0094
587.00,0.0091
586.00,0.0089
585.00,0.0087
584.00,0.0087
583.00,0.0087
582.00,0.0087
581.00,0.0089
580.00,0.0092
579.00,0.0094
578.00,0.0093
577.00,0.0090
576.00,0.0087
575.00,0.0087
574.00,0.0090
573.00,0.0094
572.00,0.0095
571.00,0.0094
570.00,0.0093
569.00,0.0094
568.00,0.0096
567.00,0.0097
566.00,0.0096
565.00,0.0094
564.00,0.0093
563.00,0.0093
562.00,0.0093
561.00,0.0093
560.00,0.0094
559.00,0.0094
558.00,0.0094
557.00,0.0092
556.00,0.0089
555.00,0.0086
554.00,0.0087
553.00,0.0090
552.00,0.0091
551.00,0.0089
550.00,0.0087
549.00,0.0087
548.00,0.0089
547.00,0.0091
546.00,0.0091
545.00,0.0091
544.00,0.0092
543.00,0.0091
542.00,0.0087
541.00,0.0083
540.00,0.0079
539.00,0.0079
538.00,0.0083
537.00,0.0089
536.00,0.0094
535.00,0.0097
534.00,0.0098
533.00,0.0096
532.00,0.0094
531.00,0.0093
530.00,0.0093
529.00,0.0096
528.00,0.0102
527.00,0.0106
526.00,0.0107
525.00,0.0104
524.00,0.0098
523.00,0.0093
522.00,0.0092
521.00,0.0093
520.00,0.0095
519.00,0.0094
518.00,0.0091
517.00,0.0087
516.00,0.0086
515.00,0.0085
514.00,0.0083
513.00,0.0079
512.00,0.0073
511.00,0.0068
510.00,0.0065
509.00,0.0065
508.00,0.0068
507.00,0.0073
506.00,0.0079
505.00,0.0084
504.00,0.0087
503.00,0.0085
502.00,0.0081
501.00,0.0078
500.00,0.0078
499.00,0.0078
498.00,0.0077
497.00,0.0076
496.00,0.0078
495.00,0.0082
494.00,0.0086
493.00,0.0088
492.00,0.0087
491.00,0.0081
490.00,0.0070
489.00,0.0062
488.00,0.0059
487.00,0.0061
486.00,0.0063
485.00,0.0061
484.00,0.0060
483.00,0.0063
482.00,0.0066
481.00,0.0062
480.00,0.0054
479.00,0.0046
478.00,0.0044
477.00,0.0046
476.00,0.0047
475.00,0.0046
474.00,0.0047
473.00,0.0050
472.00,0.0056
471.00,0.0066
470.00,0.0080
469.00,0.0096
468.00,0.0107
467.00,0.0109
466.00,0.0103
465.00,0.0096
464.00,0.0094
463.00,0.0102
462.00,0.0118
461.00,0.0138
460.00,0.0154
459.00,0.0160
458.00,0.0153
457.00,0.0139
456.00,0.0128
455.00,0.0123
454.00,0.0120
453.00,0.0117
452.00,0.0114
451.00,0.0114
450.00,0.0120
