Created as New Dataset,Sample 016 By Administrator Date Wednesday, September 03 2025
cm-1,A
4000.00,0.0032
3999.00,0.0032
3998.00,0.0032
3997.00,0.0031
3996.00,0.0031
3995.00,0.0031
3994.00,0.0031
3993.00,0.0031
3992.00,0.0031
3991.00,0.0031
3990.00,0.0031
3989.00,0.0031
3988.00,0.0031
3987.00,0.0031
3986.00,0.0031
3985.00,0.0031
3984.00,0.0031
3983.00,0.0031
3982.00,0.0031
3981.00,0.0031
3980.00,0.0031
3979.00,0.0031
3978.00,0.0031
3977.00,0.0031
3976.00,0.0031
3975.00,0.0031
3974.00,0.0031
3973.00,0.0030
3972.00,0.0030
3971.00,0.0030
3970.00,0.0030
3969.00,0.0030
3968.00,0.0030
3967.00,0.0031
3966.00,0.0031
3965.00,0.0031
3964.00,0.0032
3963.00,0.0032
3962.00,0.0031
3961.00,0.0031
3960.00,0.0031
3959.00,0.0031
3958.00,0.0031
3957.00,0.0031
3956.00,0.0030
3955.00,0.0030
3954.00,0.0030
3953.00,0.0030
3952.00,0.0030
3951.00,0.0030
3950.00,0.0030
3949.00,0.0030
3948.00,0.0030
3947.00,0.0030
3946.00,0.0030
3945.00,0.0030
3944.00,0.0030
3943.00,0.0030
3942.00,0.0031
3941.00,0.0031
3940.00,0.0031
3939.00,0.0030
3938.00,0.0030
3937.00,0.0030
3936.00,0.0031
3935.00,0.0031
3934.00,0.0031
3933.00,0.0032
3932.00,0.0031
3931.00,0.0031
3930.00,0.0031
3929.00,0.0031
3928.00,0.0031
3927.00,0.0031
3926.00,0.0032
3925.00,0.0032
3924.00,0.0032
3923.00,0.0032
3922.00,0.0031
3921.00,0.0031
3920.00,0.0030
3919.00,0.0030
3918.00,0.0030
3917.00,0.0030
3916.00,0.0030
3915.00,0.0031
3914.00,0.0031
3913.00,0.0032
3912.00,0.0032
3911.00,0.0032
3910.00,0.0032
3909.00,0.0031
3908.00,0.0030
3907.00,0.0030
3906.00,0.0030
3905.00,0.0030
3904.00,0.0030
3903.00,0.0030
3902.00,0.0030
3901.00,0.0030
3900.00,0.0030
3899.00,0.0031
3898.00,0.0031
3897.00,0.0031
3896.00,0.0031
3895.00,0.0030
3894.00,0.0030
3893.00,0.0030
3892.00,0.0030
3891.00,0.0030
3890.00,0.0029
3889.00,0.0029
3888.00,0.0029
3887.00,0.0030
3886.00,0.0030
3885.00,0.0031
3884.00,0.0031
3883.00,0.0030
3882.00,0.0030
3881.00,0.0030
3880.00,0.0030
3879.00,0.0030
3878.00,0.0030
3877.00,0.0030
3876.00,0.0030
3875.00,0.0030
3874.00,0.0030
3873.00,0.0030
3872.00,0.0029
3871.00,0.0029
3870.00,0.0029
3869.00,0.0029
3868.00,0.0028
3867.00,0.0028
3866.00,0.0028
3865.00,0.0029
3864.00,0.0029
3863.00,0.0029
3862.00,0.0029
3861.00,0.0029
3860.00,0.0029
3859.00,0.0029
3858.00,0.0029
3857.00,0.0029
3856.00,0.0029
3855.00,0.0029
3854.00,0.0029
3853.00,0.0029
3852.00,0.0029
3851.00,0.0029
3850.00,0.0029
3849.00,0.0029
3848.00,0.0029
3847.00,0.0029
3846.00,0.0029
3845.00,0.0030
3844.00,0.0030
3843.00,0.0030
3842.00,0.0029
3841.00,0.0029
3840.00,0.0029
3839.00,0.0029
3838.00,0.0029
3837.00,0.0029
3836.00,0.0029
3835.00,0.0029
3834.00,0.0029
3833.00,0.0029
3832.00,0.0030
3831.00,0.0030
3830.00,0.0030
3829.00,0.0031
3828.00,0.0031
3827.00,0.0031
3826.00,0.0031
3825.00,0.0031
3824.00,0.0030
3823.00,0.0030
3822.00,0.0029
3821.00,0.0029
3820.00,0.0029
3819.00,0.0029
3818.00,0.0028
3817.00,0.0028
3816.00,0.0029
3815.00,0.0029
3814.00,0.0030
3813.00,0.0030
3812.00,0.0031
3811.00,0.0031
3810.00,0.0031
3809.00,0.0031
3808.00,0.0031
3807.00,0.0030
3806.00,0.0030
3805.00,0.0029
3804.00,0.0029
3803.00,0.0029
3802.00,0.0029
3801.00,0.0029
3800.00,0.0029
3799.00,0.0029
3798.00,0.0029
3797.00,0.0030
3796.00,0.0030
3795.00,0.0030
3794.00,0.0030
3793.00,0.0031
3792.00,0.0031
3791.00,0.0031
3790.00,0.0031
3789.00,0.0031
3788.00,0.0031
3787.00,0.0031
3786.00,0.0030
3785.00,0.0030
3784.00,0.0030
3783.00,0.0030
3782.00,0.0030
3781.00,0.0030
3780.00,0.0030
3779.00,0.0030
3778.00,0.0030
3777.00,0.0030
3776.00,0.0031
3775.00,0.0031
3774.00,0.0031
3773.00,0.0031
3772.00,0.0031
3771.00,0.0031
3770.00,0.0031
3769.00,0.0030
3768.00,0.0030
3767.00,0.0030
3766.00,0.0031
3765.00,0.0031
3764.00,0.0031
3763.00,0.0031
3762.00,0.0031
3761.00,0.0030
3760.00,0.0030
3759.00,0.0030
3758.00,0.0030
3757.00,0.0030
3756.00,0.0029
3755.00,0.0029
3754.00,0.0028
3753.00,0.0028
3752.00,0.0028
3751.00,0.0028
3750.00,0.0028
3749.00,0.0028
3748.00,0.0028
3747.00,0.0028
3746.00,0.0027
3745.00,0.0028
3744.00,0.0028
3743.00,0.0028
3742.00,0.0028
3741.00,0.0029
3740.00,0.0029
3739.00,0.0029
3738.00,0.0029
3737.00,0.0030
3736.00,0.0030
3735.00,0.0030
3734.00,0.0029
3733.00,0.0029
3732.00,0.0029
3731.00,0.0029
3730.00,0.0030
3729.00,0.0030
3728.00,0.0030
3727.00,0.0030
3726.00,0.0031
3725.00,0.0031
3724.00,0.0031
3723.00,0.0031
3722.00,0.0030
3721.00,0.0030
3720.00,0.0029
3719.00,0.0029
3718.00,0.0029
3717.00,0.0028
3716.00,0.0028
3715.00,0.0028
3714.00,0.0028
3713.00,0.0028
3712.00,0.0028
3711.00,0.0028
3710.00,0.0027
3709.00,0.0028
3708.00,0.0028
3707.00,0.0029
3706.00,0.0029
3705.00,0.0029
3704.00,0.0029
3703.00,0.0030
3702.00,0.0030
3701.00,0.0030
3700.00,0.0031
3699.00,0.0031
3698.00,0.0031
3697.00,0.0031
3696.00,0.0031
3695.00,0.0032
3694.00,0.0032
3693.00,0.0032
3692.00,0.0032
3691.00,0.0032
3690.00,0.0032
3689.00,0.0032
3688.00,0.0033
3687.00,0.0034
3686.00,0.0035
3685.00,0.0037
3684.00,0.0038
3683.00,0.0039
3682.00,0.0041
3681.00,0.0042
3680.00,0.0044
3679.00,0.0046
3678.00,0.0047
3677.00,0.0049
3676.00,0.0050
3675.00,0.0051
3674.00,0.0051
3673.00,0.0051
3672.00,0.0051
3671.00,0.0051
3670.00,0.0052
3669.00,0.0052
3668.00,0.0052
3667.00,0.0053
3666.00,0.0054
3665.00,0.0055
3664.00,0.0056
3663.00,0.0056
3662.00,0.0057
3661.00,0.0057
3660.00,0.0058
3659.00,0.0058
3658.00,0.0058
3657.00,0.0059
3656.00,0.0058
3655.00,0.0058
3654.00,0.0057
3653.00,0.0057
3652.00,0.0056
3651.00,0.0056
3650.00,0.0055
3649.00,0.0055
3648.00,0.0054
3647.00,0.0053
3646.00,0.0053
3645.00,0.0052
3644.00,0.0052
3643.00,0.0052
3642.00,0.0051
3641.00,0.0051
3640.00,0.0051
3639.00,0.0052
3638.00,0.0052
3637.00,0.0052
3636.00,0.0051
3635.00,0.0048
3634.00,0.0046
3633.00,0.0044
3632.00,0.0042
3631.00,0.0041
3630.00,0.0041
3629.00,0.0040
3628.00,0.0040
3627.00,0.0039
3626.00,0.0039
3625.00,0.0040
3624.00,0.0040
3623.00,0.0041
3622.00,0.0041
3621.00,0.0040
3620.00,0.0040
3619.00,0.0039
3618.00,0.0039
3617.00,0.0039
3616.00,0.0038
3615.00,0.0038
3614.00,0.0039
3613.00,0.0039
3612.00,0.0040
3611.00,0.0040
3610.00,0.0041
3609.00,0.0041
3608.00,0.0041
3607.00,0.0041
3606.00,0.0041
3605.00,0.0041
3604.00,0.0041
3603.00,0.0040
3602.00,0.0041
3601.00,0.0041
3600.00,0.0042
3599.00,0.0042
3598.00,0.0042
3597.00,0.0043
3596.00,0.0043
3595.00,0.0043
3594.00,0.0043
3593.00,0.0042
3592.00,0.0042
3591.00,0.0042
3590.00,0.0043
3589.00,0.0043
3588.00,0.0044
3587.00,0.0045
3586.00,0.0045
3585.00,0.0045
3584.00,0.0045
3583.00,0.0046
3582.00,0.0046
3581.00,0.0046
3580.00,0.0047
3579.00,0.0047
3578.00,0.0047
3577.00,0.0048
3576.00,0.0048
3575.00,0.0048
3574.00,0.0049
3573.00,0.0049
3572.00,0.0049
3571.00,0.0049
3570.00,0.0049
3569.00,0.0050
3568.00,0.0050
3567.00,0.0051
3566.00,0.0051
3565.00,0.0051
3564.00,0.0051
3563.00,0.0051
3562.00,0.0052
3561.00,0.0052
3560.00,0.0053
3559.00,0.0054
3558.00,0.0054
3557.00,0.0054
3556.00,0.0055
3555.00,0.0055
3554.00,0.0055
3553.00,0.0055
3552.00,0.0056
3551.00,0.0056
3550.00,0.0056
3549.00,0.0056
3548.00,0.0056
3547.00,0.0056
3546.00,0.0056
3545.00,0.0056
3544.00,0.0057
3543.00,0.0057
3542.00,0.0057
3541.00,0.0057
3540.00,0.0058
3539.00,0.0058
3538.00,0.0058
3537.00,0.0058
3536.00,0.0059
3535.00,0.0059
3534.00,0.0059
3533.00,0.0059
3532.00,0.0059
3531.00,0.0060
3530.00,0.0060
3529.00,0.0060
3528.00,0.0061
3527.00,0.0061
3526.00,0.0061
3525.00,0.0061
3524.00,0.0061
3523.00,0.0061
3522.00,0.0060
3521.00,0.0060
3520.00,0.0061
3519.00,0.0061
3518.00,0.0061
3517.00,0.0062
3516.00,0.0062
3515.00,0.0062
3514.00,0.0063
3513.00,0.0063
3512.00,0.0063
3511.00,0.0063
3510.00,0.0063
3509.00,0.0063
3508.00,0.0064
3507.00,0.0064
3506.00,0.0064
3505.00,0.0065
3504.00,0.0066
3503.00,0.0066
3502.00,0.0066
3501.00,0.0066
3500.00,0.0066
3499.00,0.0066
3498.00,0.0067
3497.00,0.0067
3496.00,0.0067
3495.00,0.0067
3494.00,0.0067
3493.00,0.0068
3492.00,0.0068
3491.00,0.0069
3490.00,0.0069
3489.00,0.0069
3488.00,0.0070
3487.00,0.0070
3486.00,0.0070
3485.00,0.0070
3484.00,0.0070
3483.00,0.0071
3482.00,0.0071
3481.00,0.0071
3480.00,0.0071
3479.00,0.0071
3478.00,0.0071
3477.00,0.0072
3476.00,0.0072
3475.00,0.0072
3474.00,0.0072
3473.00,0.0072
3472.00,0.0072
3471.00,0.0073
3470.00,0.0073
3469.00,0.0074
3468.00,0.0074
3467.00,0.0075
3466.00,0.0075
3465.00,0.0075
3464.00,0.0075
3463.00,0.0076
3462.00,0.0076
3461.00,0.0077
3460.00,0.0077
3459.00,0.0077
3458.00,0.0077
3457.00,0.0078
3456.00,0.0078
3455.00,0.0078
3454.00,0.0077
3453.00,0.0077
3452.00,0.0078
3451.00,0.0078
3450.00,0.0078
3449.00,0.0079
3448.00,0.0079
3447.00,0.0080
3446.00,0.0080
3445.00,0.0079
3444.00,0.0079
3443.00,0.0080
3442.00,0.0080
3441.00,0.0080
3440.00,0.0081
3439.00,0.0081
3438.00,0.0082
3437.00,0.0082
3436.00,0.0082
3435.00,0.0082
3434.00,0.0082
3433.00,0.0082
3432.00,0.0083
3431.00,0.0083
3430.00,0.0083
3429.00,0.0083
3428.00,0.0083
3427.00,0.0083
3426.00,0.0083
3425.00,0.0083
3424.00,0.0083
3423.00,0.0083
3422.00,0.0084
3421.00,0.0084
3420.00,0.0085
3419.00,0.0085
3418.00,0.0085
3417.00,0.0085
3416.00,0.0085
3415.00,0.0086
3414.00,0.0086
3413.00,0.0086
3412.00,0.0087
3411.00,0.0087
3410.00,0.0087
3409.00,0.0087
3408.00,0.0087
3407.00,0.0087
3406.00,0.0087
3405.00,0.0087
3404.00,0.0087
3403.00,0.0088
3402.00,0.0088
3401.00,0.0087
3400.00,0.0087
3399.00,0.0087
3398.00,0.0088
3397.00,0.0088
3396.00,0.0087
3395.00,0.0087
3394.00,0.0087
3393.00,0.0087
3392.00,0.0087
3391.00,0.0088
3390.00,0.0088
3389.00,0.0088
3388.00,0.0088
3387.00,0.0088
3386.00,0.0088
3385.00,0.0088
3384.00,0.0088
3383.00,0.0088
3382.00,0.0088
3381.00,0.0088
3380.00,0.0088
3379.00,0.0088
3378.00,0.0088
3377.00,0.0089
3376.00,0.0089
3375.00,0.0089
3374.00,0.0089
3373.00,0.0089
3372.00,0.0089
3371.00,0.0089
3370.00,0.0089
3369.00,0.0089
3368.00,0.0089
3367.00,0.0089
3366.00,0.0089
3365.00,0.0089
3364.00,0.0089
3363.00,0.0089
3362.00,0.0090
3361.00,0.0090
3360.00,0.0090
3359.00,0.0090
3358.00,0.0090
3357.00,0.0090
3356.00,0.0090
3355.00,0.0090
3354.00,0.0090
3353.00,0.0090
3352.00,0.0090
3351.00,0.0090
3350.00,0.0091
3349.00,0.0091
3348.00,0.0091
3347.00,0.0091
3346.00,0.0091
3345.00,0.0091
3344.00,0.0091
3343.00,0.0090
3342.00,0.0090
3341.00,0.0090
3340.00,0.0090
3339.00,0.0091
3338.00,0.0091
3337.00,0.0091
3336.00,0.0090
3335.00,0.0090
3334.00,0.0089
3333.00,0.0089
3332.00,0.0089
3331.00,0.0089
3330.00,0.0089
3329.00,0.0089
3328.00,0.0089
3327.00,0.0089
3326.00,0.0089
3325.00,0.0089
3324.00,0.0089
3323.00,0.0088
3322.00,0.0088
3321.00,0.0087
3320.00,0.0087
3319.00,0.0086
3318.00,0.0086
3317.00,0.0087
3316.00,0.0087
3315.00,0.0088
3314.00,0.0088
3313.00,0.0088
3312.00,0.0088
3311.00,0.0087
3310.00,0.0087
3309.00,0.0086
3308.00,0.0087
3307.00,0.0087
3306.00,0.0087
3305.00,0.0088
3304.00,0.0088
3303.00,0.0088
3302.00,0.0088
3301.00,0.0088
3300.00,0.0088
3299.00,0.0088
3298.00,0.0087
3297.00,0.0087
3296.00,0.0087
3295.00,0.0088
3294.00,0.0088
3293.00,0.0087
3292.00,0.0087
3291.00,0.0087
3290.00,0.0086
3289.00,0.0086
3288.00,0.0086
3287.00,0.0086
3286.00,0.0086
3285.00,0.0086
3284.00,0.0086
3283.00,0.0085
3282.00,0.0085
3281.00,0.0085
3280.00,0.0085
3279.00,0.0084
3278.00,0.0084
3277.00,0.0084
3276.00,0.0084
3275.00,0.0084
3274.00,0.0084
3273.00,0.0084
3272.00,0.0084
3271.00,0.0083
3270.00,0.0083
3269.00,0.0083
3268.00,0.0083
3267.00,0.0082
3266.00,0.0082
3265.00,0.0082
3264.00,0.0082
3263.00,0.0082
3262.00,0.0082
3261.00,0.0083
3260.00,0.0083
3259.00,0.0083
3258.00,0.0082
3257.00,0.0081
3256.00,0.0081
3255.00,0.0080
3254.00,0.0080
3253.00,0.0080
3252.00,0.0081
3251.00,0.0081
3250.00,0.0081
3249.00,0.0081
3248.00,0.0081
3247.00,0.0080
3246.00,0.0080
3245.00,0.0079
3244.00,0.0079
3243.00,0.0079
3242.00,0.0079
3241.00,0.0079
3240.00,0.0079
3239.00,0.0079
3238.00,0.0079
3237.00,0.0079
3236.00,0.0079
3235.00,0.0079
3234.00,0.0079
3233.00,0.0079
3232.00,0.0079
3231.00,0.0079
3230.00,0.0079
3229.00,0.0079
3228.00,0.0079
3227.00,0.0079
3226.00,0.0079
3225.00,0.0079
3224.00,0.0080
3223.00,0.0080
3222.00,0.0079
3221.00,0.0079
3220.00,0.0080
3219.00,0.0080
3218.00,0.0080
3217.00,0.0080
3216.00,0.0080
3215.00,0.0080
3214.00,0.0080
3213.00,0.0080
3212.00,0.0080
3211.00,0.0080
3210.00,0.0080
3209.00,0.0080
3208.00,0.0080
3207.00,0.0080
3206.00,0.0080
3205.00,0.0080
3204.00,0.0080
3203.00,0.0080
3202.00,0.0080
3201.00,0.0080
3200.00,0.0080
3199.00,0.0080
3198.00,0.0079
3197.00,0.0079
3196.00,0.0079
3195.00,0.0080
3194.00,0.0080
3193.00,0.0079
3192.00,0.0079
3191.00,0.0078
3190.00,0.0078
3189.00,0.0077
3188.00,0.0077
3187.00,0.0076
3186.00,0.0076
3185.00,0.0076
3184.00,0.0076
3183.00,0.0075
3182.00,0.0075
3181.00,0.0075
3180.00,0.0075
3179.00,0.0075
3178.00,0.0075
3177.00,0.0075
3176.00,0.0075
3175.00,0.0075
3174.00,0.0075
3173.00,0.0075
3172.00,0.0075
3171.00,0.0074
3170.00,0.0074
3169.00,0.0073
3168.00,0.0073
3167.00,0.0073
3166.00,0.0072
3165.00,0.0072
3164.00,0.0072
3163.00,0.0072
3162.00,0.0071
3161.00,0.0071
3160.00,0.0071
3159.00,0.0071
3158.00,0.0071
3157.00,0.0071
3156.00,0.0070
3155.00,0.0070
3154.00,0.0070
3153.00,0.0069
3152.00,0.0069
3151.00,0.0069
3150.00,0.0069
3149.00,0.0069
3148.00,0.0069
3147.00,0.0069
3146.00,0.0069
3145.00,0.0069
3144.00,0.0069
3143.00,0.0069
3142.00,0.0068
3141.00,0.0068
3140.00,0.0068
3139.00,0.0067
3138.00,0.0067
3137.00,0.0067
3136.00,0.0067
3135.00,0.0066
3134.00,0.0066
3133.00,0.0066
3132.00,0.0065
3131.00,0.0065
3130.00,0.0065
3129.00,0.0065
3128.00,0.0065
3127.00,0.0065
3126.00,0.0065
3125.00,0.0065
3124.00,0.0064
3123.00,0.0064
3122.00,0.0064
3121.00,0.0063
3120.00,0.0063
3119.00,0.0063
3118.00,0.0063
3117.00,0.0063
3116.00,0.0063
3115.00,0.0062
3114.00,0.0062
3113.00,0.0061
3112.00,0.0061
3111.00,0.0061
3110.00,0.0061
3109.00,0.0061
3108.00,0.0061
3107.00,0.0061
3106.00,0.0061
3105.00,0.0061
3104.00,0.0062
3103.00,0.0062
3102.00,0.0062
3101.00,0.0061
3100.00,0.0061
3099.00,0.0061
3098.00,0.0061
3097.00,0.0060
3096.00,0.0060
3095.00,0.0060
3094.00,0.0060
3093.00,0.0060
3092.00,0.0060
3091.00,0.0059
3090.00,0.0060
3089.00,0.0060
3088.00,0.0060
3087.00,0.0060
3086.00,0.0060
3085.00,0.0060
3084.00,0.0060
3083.00,0.0060
3082.00,0.0060
3081.00,0.0060
3080.00,0.0060
3079.00,0.0060
3078.00,0.0060
3077.00,0.0060
3076.00,0.0060
3075.00,0.0060
3074.00,0.0060
3073.00,0.0060
3072.00,0.0059
3071.00,0.0059
3070.00,0.0059
3069.00,0.0059
3068.00,0.0059
3067.00,0.0059
3066.00,0.0059
3065.00,0.0060
3064.00,0.0060
3063.00,0.0060
3062.00,0.0060
3061.00,0.0060
3060.00,0.0060
3059.00,0.0060
3058.00,0.0060
3057.00,0.0060
3056.00,0.0060
3055.00,0.0060
3054.00,0.0061
3053.00,0.0061
3052.00,0.0061
3051.00,0.0061
3050.00,0.0061
3049.00,0.0061
3048.00,0.0061
3047.00,0.0061
3046.00,0.0061
3045.00,0.0061
3044.00,0.0061
3043.00,0.0062
3042.00,0.0062
3041.00,0.0062
3040.00,0.0062
3039.00,0.0062
3038.00,0.0062
3037.00,0.0063
3036.00,0.0063
3035.00,0.0063
3034.00,0.0063
3033.00,0.0064
3032.00,0.0064
3031.00,0.0064
3030.00,0.0065
3029.00,0.0065
3028.00,0.0066
3027.00,0.0067
3026.00,0.0067
3025.00,0.0068
3024.00,0.0069
3023.00,0.0071
3022.00,0.0072
3021.00,0.0074
3020.00,0.0076
3019.00,0.0077
3018.00,0.0079
3017.00,0.0081
3016.00,0.0084
3015.00,0.0088
3014.00,0.0092
3013.00,0.0096
3012.00,0.0102
3011.00,0.0108
3010.00,0.0114
3009.00,0.0121
3008.00,0.0129
3007.00,0.0137
3006.00,0.0146
3005.00,0.0155
3004.00,0.0164
3003.00,0.0174
3002.00,0.0183
3001.00,0.0192
3000.00,0.0201
2999.00,0.0209
2998.00,0.0218
2997.00,0.0226
2996.00,0.0233
2995.00,0.0240
2994.00,0.0248
2993.00,0.0255
2992.00,0.0263
2991.00,0.0271
2990.00,0.0280
2989.00,0.0290
2988.00,0.0301
2987.00,0.0316
2986.00,0.0336
2985.00,0.0364
2984.00,0.0398
2983.00,0.0432
2982.00,0.0460
2981.00,0.0479
2980.00,0.0489
2979.00,0.0495
2978.00,0.0504
2977.00,0.0517
2976.00,0.0538
2975.00,0.0567
2974.00,0.0604
2973.00,0.0647
2972.00,0.0695
2971.00,0.0743
2970.00,0.0792
2969.00,0.0843
2968.00,0.0899
2967.00,0.0962
2966.00,0.1029
2965.00,0.1097
2964.00,0.1164
2963.00,0.1225
2962.00,0.1277
2961.00,0.1319
2960.00,0.1352
2959.00,0.1378
2958.00,0.1401
2957.00,0.1425
2956.00,0.1455
2955.00,0.1491
2954.00,0.1533
2953.00,0.1574
2952.00,0.1608
2951.00,0.1628
2950.00,0.1624
2949.00,0.1593
2948.00,0.1535
2947.00,0.1454
2946.00,0.1357
2945.00,0.1257
2944.00,0.1163
2943.00,0.1083
2942.00,0.1021
2941.00,0.0979
2940.00,0.0955
2939.00,0.0948
2938.00,0.0956
2937.00,0.0979
2936.00,0.1015
2935.00,0.1062
2934.00,0.1120
2933.00,0.1187
2932.00,0.1262
2931.00,0.1342
2930.00,0.1426
2929.00,0.1510
2928.00,0.1594
2927.00,0.1675
2926.00,0.1754
2925.00,0.1830
2924.00,0.1903
2923.00,0.1976
2922.00,0.2046
2921.00,0.2112
2920.00,0.2169
2919.00,0.2210
2918.00,0.2228
2917.00,0.2218
2916.00,0.2180
2915.00,0.2119
2914.00,0.2043
2913.00,0.1962
2912.00,0.1883
2911.00,0.1811
2910.00,0.1747
2909.00,0.1691
2908.00,0.1639
2907.00,0.1590
2906.00,0.1542
2905.00,0.1493
2904.00,0.1444
2903.00,0.1393
2902.00,0.1343
2901.00,0.1294
2900.00,0.1246
2899.00,0.1200
2898.00,0.1157
2897.00,0.1117
2896.00,0.1082
2895.00,0.1052
2894.00,0.1027
2893.00,0.1007
2892.00,0.0992
2891.00,0.0980
2890.00,0.0972
2889.00,0.0966
2888.00,0.0962
2887.00,0.0962
2886.00,0.0965
2885.00,0.0970
2884.00,0.0978
2883.00,0.0988
2882.00,0.1000
2881.00,0.1012
2880.00,0.1024
2879.00,0.1034
2878.00,0.1038
2877.00,0.1038
2876.00,0.1033
2875.00,0.1026
2874.00,0.1021
2873.00,0.1021
2872.00,0.1026
2871.00,0.1036
2870.00,0.1048
2869.00,0.1058
2868.00,0.1061
2867.00,0.1051
2866.00,0.1026
2865.00,0.0984
2864.00,0.0929
2863.00,0.0867
2862.00,0.0807
2861.00,0.0753
2860.00,0.0710
2859.00,0.0679
2858.00,0.0660
2857.00,0.0651
2856.00,0.0650
2855.00,0.0657
2854.00,0.0668
2853.00,0.0683
2852.00,0.0700
2851.00,0.0716
2850.00,0.0729
2849.00,0.0739
2848.00,0.0749
2847.00,0.0761
2846.00,0.0780
2845.00,0.0806
2844.00,0.0841
2843.00,0.0881
2842.00,0.0923
2841.00,0.0962
2840.00,0.0992
2839.00,0.1007
2838.00,0.1003
2837.00,0.0975
2836.00,0.0925
2835.00,0.0857
2834.00,0.0778
2833.00,0.0696
2832.00,0.0618
2831.00,0.0548
2830.00,0.0489
2829.00,0.0439
2828.00,0.0399
2827.00,0.0366
2826.00,0.0339
2825.00,0.0317
2824.00,0.0298
2823.00,0.0283
2822.00,0.0269
2821.00,0.0258
2820.00,0.0247
2819.00,0.0238
2818.00,0.0231
2817.00,0.0223
2816.00,0.0217
2815.00,0.0211
2814.00,0.0205
2813.00,0.0200
2812.00,0.0196
2811.00,0.0191
2810.00,0.0186
2809.00,0.0182
2808.00,0.0177
2807.00,0.0172
2806.00,0.0167
2805.00,0.0162
2804.00,0.0157
2803.00,0.0152
2802.00,0.0148
2801.00,0.0145
2800.00,0.0141
2799.00,0.0139
2798.00,0.0136
2797.00,0.0134
2796.00,0.0132
2795.00,0.0130
2794.00,0.0128
2793.00,0.0126
2792.00,0.0123
2791.00,0.0120
2790.00,0.0117
2789.00,0.0114
2788.00,0.0111
2787.00,0.0109
2786.00,0.0106
2785.00,0.0104
2784.00,0.0102
2783.00,0.0100
2782.00,0.0098
2781.00,0.0097
2780.00,0.0095
2779.00,0.0094
2778.00,0.0093
2777.00,0.0092
2776.00,0.0091
2775.00,0.0090
2774.00,0.0089
2773.00,0.0088
2772.00,0.0088
2771.00,0.0087
2770.00,0.0087
2769.00,0.0087
2768.00,0.0087
2767.00,0.0086
2766.00,0.0086
2765.00,0.0085
2764.00,0.0085
2763.00,0.0084
2762.00,0.0084
2761.00,0.0084
2760.00,0.0083
2759.00,0.0083
2758.00,0.0082
2757.00,0.0082
2756.00,0.0081
2755.00,0.0081
2754.00,0.0081
2753.00,0.0081
2752.00,0.0081
2751.00,0.0081
2750.00,0.0081
2749.00,0.0080
2748.00,0.0080
2747.00,0.0080
2746.00,0.0080
2745.00,0.0081
2744.00,0.0081
2743.00,0.0082
2742.00,0.0083
2741.00,0.0084
2740.00,0.0085
2739.00,0.0086
2738.00,0.0087
2737.00,0.0088
2736.00,0.0089
2735.00,0.0090
2734.00,0.0091
2733.00,0.0092
2732.00,0.0093
2731.00,0.0095
2730.00,0.0096
2729.00,0.0098
2728.00,0.0100
2727.00,0.0102
2726.00,0.0105
2725.00,0.0106
2724.00,0.0107
2723.00,0.0107
2722.00,0.0106
2721.00,0.0104
2720.00,0.0102
2719.00,0.0100
2718.00,0.0098
2717.00,0.0095
2716.00,0.0093
2715.00,0.0091
2714.00,0.0089
2713.00,0.0088
2712.00,0.0086
2711.00,0.0084
2710.00,0.0083
2709.00,0.0082
2708.00,0.0080
2707.00,0.0079
2706.00,0.0078
2705.00,0.0077
2704.00,0.0076
2703.00,0.0075
2702.00,0.0074
2701.00,0.0074
2700.00,0.0073
2699.00,0.0073
2698.00,0.0072
2697.00,0.0072
2696.00,0.0072
2695.00,0.0072
2694.00,0.0072
2693.00,0.0072
2692.00,0.0072
2691.00,0.0072
2690.00,0.0072
2689.00,0.0072
2688.00,0.0072
2687.00,0.0072
2686.00,0.0072
2685.00,0.0072
2684.00,0.0072
2683.00,0.0072
2682.00,0.0072
2681.00,0.0073
2680.00,0.0073
2679.00,0.0073
2678.00,0.0073
2677.00,0.0073
2676.00,0.0073
2675.00,0.0073
2674.00,0.0072
2673.00,0.0072
2672.00,0.0073
2671.00,0.0073
2670.00,0.0073
2669.00,0.0073
2668.00,0.0074
2667.00,0.0074
2666.00,0.0074
2665.00,0.0075
2664.00,0.0075
2663.00,0.0076
2662.00,0.0076
2661.00,0.0076
2660.00,0.0076
2659.00,0.0076
2658.00,0.0076
2657.00,0.0076
2656.00,0.0075
2655.00,0.0075
2654.00,0.0074
2653.00,0.0074
2652.00,0.0074
2651.00,0.0074
2650.00,0.0073
2649.00,0.0073
2648.00,0.0073
2647.00,0.0072
2646.00,0.0072
2645.00,0.0071
2644.00,0.0071
2643.00,0.0070
2642.00,0.0070
2641.00,0.0070
2640.00,0.0070
2639.00,0.0069
2638.00,0.0069
2637.00,0.0068
2636.00,0.0068
2635.00,0.0068
2634.00,0.0068
2633.00,0.0067
2632.00,0.0067
2631.00,0.0068
2630.00,0.0067
2629.00,0.0067
2628.00,0.0067
2627.00,0.0067
2626.00,0.0067
2625.00,0.0067
2624.00,0.0067
2623.00,0.0067
2622.00,0.0067
2621.00,0.0067
2620.00,0.0067
2619.00,0.0067
2618.00,0.0067
2617.00,0.0067
2616.00,0.0066
2615.00,0.0066
2614.00,0.0066
2613.00,0.0066
2612.00,0.0066
2611.00,0.0065
2610.00,0.0064
2609.00,0.0063
2608.00,0.0062
2607.00,0.0062
2606.00,0.0061
2605.00,0.0061
2604.00,0.0061
2603.00,0.0061
2602.00,0.0061
2601.00,0.0060
2600.00,0.0060
2599.00,0.0059
2598.00,0.0058
2597.00,0.0058
2596.00,0.0058
2595.00,0.0058
2594.00,0.0058
2593.00,0.0058
2592.00,0.0058
2591.00,0.0059
2590.00,0.0059
2589.00,0.0060
2588.00,0.0060
2587.00,0.0060
2586.00,0.0061
2585.00,0.0061
2584.00,0.0061
2583.00,0.0062
2582.00,0.0062
2581.00,0.0062
2580.00,0.0062
2579.00,0.0062
2578.00,0.0062
2577.00,0.0061
2576.00,0.0060
2575.00,0.0058
2574.00,0.0057
2573.00,0.0056
2572.00,0.0055
2571.00,0.0054
2570.00,0.0054
2569.00,0.0053
2568.00,0.0052
2567.00,0.0052
2566.00,0.0051
2565.00,0.0051
2564.00,0.0050
2563.00,0.0050
2562.00,0.0050
2561.00,0.0050
2560.00,0.0050
2559.00,0.0050
2558.00,0.0050
2557.00,0.0050
2556.00,0.0050
2555.00,0.0049
2554.00,0.0049
2553.00,0.0048
2552.00,0.0048
2551.00,0.0047
2550.00,0.0046
2549.00,0.0046
2548.00,0.0046
2547.00,0.0046
2546.00,0.0045
2545.00,0.0045
2544.00,0.0045
2543.00,0.0045
2542.00,0.0045
2541.00,0.0046
2540.00,0.0046
2539.00,0.0046
2538.00,0.0046
2537.00,0.0046
2536.00,0.0046
2535.00,0.0046
2534.00,0.0045
2533.00,0.0044
2532.00,0.0044
2531.00,0.0043
2530.00,0.0043
2529.00,0.0043
2528.00,0.0043
2527.00,0.0043
2526.00,0.0042
2525.00,0.0041
2524.00,0.0041
2523.00,0.0042
2522.00,0.0042
2521.00,0.0043
2520.00,0.0042
2519.00,0.0042
2518.00,0.0042
2517.00,0.0042
2516.00,0.0041
2515.00,0.0041
2514.00,0.0041
2513.00,0.0040
2512.00,0.0041
2511.00,0.0041
2510.00,0.0040
2509.00,0.0040
2508.00,0.0039
2507.00,0.0039
2506.00,0.0039
2505.00,0.0039
2504.00,0.0039
2503.00,0.0039
2502.00,0.0039
2501.00,0.0039
2500.00,0.0039
2499.00,0.0039
2498.00,0.0039
2497.00,0.0039
2496.00,0.0039
2495.00,0.0040
2494.00,0.0040
2493.00,0.0040
2492.00,0.0040
2491.00,0.0040
2490.00,0.0040
2489.00,0.0040
2488.00,0.0039
2487.00,0.0038
2486.00,0.0038
2485.00,0.0038
2484.00,0.0038
2483.00,0.0038
2482.00,0.0038
2481.00,0.0038
2480.00,0.0037
2479.00,0.0037
2478.00,0.0036
2477.00,0.0036
2476.00,0.0036
2475.00,0.0036
2474.00,0.0036
2473.00,0.0037
2472.00,0.0037
2471.00,0.0037
2470.00,0.0036
2469.00,0.0036
2468.00,0.0037
2467.00,0.0037
2466.00,0.0037
2465.00,0.0037
2464.00,0.0037
2463.00,0.0037
2462.00,0.0036
2461.00,0.0036
2460.00,0.0037
2459.00,0.0037
2458.00,0.0038
2457.00,0.0039
2456.00,0.0039
2455.00,0.0039
2454.00,0.0039
2453.00,0.0038
2452.00,0.0037
2451.00,0.0036
2450.00,0.0036
2449.00,0.0036
2448.00,0.0036
2447.00,0.0036
2446.00,0.0036
2445.00,0.0035
2444.00,0.0034
2443.00,0.0035
2442.00,0.0035
2441.00,0.0036
2440.00,0.0037
2439.00,0.0037
2438.00,0.0037
2437.00,0.0038
2436.00,0.0038
2435.00,0.0038
2434.00,0.0038
2433.00,0.0038
2432.00,0.0038
2431.00,0.0037
2430.00,0.0037
2429.00,0.0037
2428.00,0.0037
2427.00,0.0038
2426.00,0.0038
2425.00,0.0038
2424.00,0.0038
2423.00,0.0038
2422.00,0.0038
2421.00,0.0038
2420.00,0.0038
2419.00,0.0037
2418.00,0.0036
2417.00,0.0036
2416.00,0.0036
2415.00,0.0036
2414.00,0.0036
2413.00,0.0037
2412.00,0.0037
2411.00,0.0037
2410.00,0.0037
2409.00,0.0036
2408.00,0.0035
2407.00,0.0035
2406.00,0.0034
2405.00,0.0034
2404.00,0.0034
2403.00,0.0034
2402.00,0.0034
2401.00,0.0034
2400.00,0.0034
2399.00,0.0034
2398.00,0.0034
2397.00,0.0034
2396.00,0.0033
2395.00,0.0033
2394.00,0.0034
2393.00,0.0034
2392.00,0.0034
2391.00,0.0034
2390.00,0.0033
2389.00,0.0033
2388.00,0.0033
2387.00,0.0033
2386.00,0.0032
2385.00,0.0030
2384.00,0.0029
2383.00,0.0028
2382.00,0.0028
2381.00,0.0027
2380.00,0.0028
2379.00,0.0029
2378.00,0.0030
2377.00,0.0031
2376.00,0.0031
2375.00,0.0031
2374.00,0.0030
2373.00,0.0029
2372.00,0.0029
2371.00,0.0029
2370.00,0.0030
2369.00,0.0031
2368.00,0.0031
2367.00,0.0031
2366.00,0.0030
2365.00,0.0030
2364.00,0.0030
2363.00,0.0031
2362.00,0.0031
2361.00,0.0032
2360.00,0.0032
2359.00,0.0032
2358.00,0.0031
2357.00,0.0031
2356.00,0.0031
2355.00,0.0031
2354.00,0.0031
2353.00,0.0031
2352.00,0.0031
2351.00,0.0031
2350.00,0.0032
2349.00,0.0033
2348.00,0.0033
2347.00,0.0033
2346.00,0.0033
2345.00,0.0034
2344.00,0.0034
2343.00,0.0034
2342.00,0.0035
2341.00,0.0035
2340.00,0.0035
2339.00,0.0035
2338.00,0.0035
2337.00,0.0035
2336.00,0.0035
2335.00,0.0035
2334.00,0.0035
2333.00,0.0034
2332.00,0.0034
2331.00,0.0034
2330.00,0.0034
2329.00,0.0034
2328.00,0.0036
2327.00,0.0038
2326.00,0.0042
2325.00,0.0046
2324.00,0.0047
2323.00,0.0047
2322.00,0.0045
2321.00,0.0043
2320.00,0.0041
2319.00,0.0040
2318.00,0.0039
2317.00,0.0038
2316.00,0.0037
2315.00,0.0038
2314.00,0.0038
2313.00,0.0038
2312.00,0.0038
2311.00,0.0038
2310.00,0.0037
2309.00,0.0036
2308.00,0.0036
2307.00,0.0035
2306.00,0.0035
2305.00,0.0035
2304.00,0.0035
2303.00,0.0035
2302.00,0.0035
2301.00,0.0036
2300.00,0.0037
2299.00,0.0037
2298.00,0.0038
2297.00,0.0038
2296.00,0.0039
2295.00,0.0039
2294.00,0.0040
2293.00,0.0041
2292.00,0.0042
2291.00,0.0042
2290.00,0.0043
2289.00,0.0043
2288.00,0.0043
2287.00,0.0044
2286.00,0.0044
2285.00,0.0045
2284.00,0.0045
2283.00,0.0045
2282.00,0.0045
2281.00,0.0044
2280.00,0.0044
2279.00,0.0043
2278.00,0.0041
2277.00,0.0040
2276.00,0.0039
2275.00,0.0038
2274.00,0.0038
2273.00,0.0039
2272.00,0.0039
2271.00,0.0040
2270.00,0.0041
2269.00,0.0040
2268.00,0.0039
2267.00,0.0038
2266.00,0.0037
2265.00,0.0036
2264.00,0.0036
2263.00,0.0036
2262.00,0.0037
2261.00,0.0038
2260.00,0.0039
2259.00,0.0040
2258.00,0.0040
2257.00,0.0039
2256.00,0.0038
2255.00,0.0036
2254.00,0.0034
2253.00,0.0033
2252.00,0.0034
2251.00,0.0035
2250.00,0.0035
2249.00,0.0035
2248.00,0.0034
2247.00,0.0033
2246.00,0.0032
2245.00,0.0032
2244.00,0.0032
2243.00,0.0032
2242.00,0.0032
2241.00,0.0033
2240.00,0.0033
2239.00,0.0032
2238.00,0.0032
2237.00,0.0032
2236.00,0.0033
2235.00,0.0034
2234.00,0.0034
2233.00,0.0034
2232.00,0.0033
2231.00,0.0033
2230.00,0.0032
2229.00,0.0032
2228.00,0.0031
2227.00,0.0031
2226.00,0.0031
2225.00,0.0032
2224.00,0.0032
2223.00,0.0033
2222.00,0.0034
2221.00,0.0034
2220.00,0.0034
2219.00,0.0033
2218.00,0.0031
2217.00,0.0030
2216.00,0.0031
2215.00,0.0032
2214.00,0.0034
2213.00,0.0035
2212.00,0.0036
2211.00,0.0035
2210.00,0.0033
2209.00,0.0032
2208.00,0.0031
2207.00,0.0029
2206.00,0.0029
2205.00,0.0030
2204.00,0.0031
2203.00,0.0032
2202.00,0.0031
2201.00,0.0031
2200.00,0.0032
2199.00,0.0032
2198.00,0.0032
2197.00,0.0033
2196.00,0.0033
2195.00,0.0034
2194.00,0.0033
2193.00,0.0033
2192.00,0.0033
2191.00,0.0032
2190.00,0.0032
2189.00,0.0033
2188.00,0.0034
2187.00,0.0035
2186.00,0.0036
2185.00,0.0037
2184.00,0.0037
2183.00,0.0036
2182.00,0.0032
2181.00,0.0028
2180.00,0.0027
2179.00,0.0028
2178.00,0.0029
2177.00,0.0028
2176.00,0.0026
2175.00,0.0022
2174.00,0.0020
2173.00,0.0021
2172.00,0.0026
2171.00,0.0034
2170.00,0.0040
2169.00,0.0044
2168.00,0.0045
2167.00,0.0044
2166.00,0.0042
2165.00,0.0040
2164.00,0.0039
2163.00,0.0040
2162.00,0.0040
2161.00,0.0037
2160.00,0.0025
2159.00,0.0007
2158.00,-0.0007
2157.00,-0.0013
2156.00,-0.0011
2155.00,-0.0007
2154.00,-0.0003
2153.00,-0.0000
2152.00,0.0003
2151.00,0.0006
2150.00,0.0009
2149.00,0.0013
2148.00,0.0015
2147.00,0.0015
2146.00,0.0015
2145.00,0.0014
2144.00,0.0013
2143.00,0.0012
2142.00,0.0012
2141.00,0.0012
2140.00,0.0012
2139.00,0.0012
2138.00,0.0012
2137.00,0.0011
2136.00,0.0011
2135.00,0.0010
2134.00,0.0008
2133.00,0.0007
2132.00,0.0007
2131.00,0.0009
2130.00,0.0012
2129.00,0.0014
2128.00,0.0016
2127.00,0.0017
2126.00,0.0017
2125.00,0.0017
2124.00,0.0018
2123.00,0.0019
2122.00,0.0020
2121.00,0.0020
2120.00,0.0020
2119.00,0.0021
2118.00,0.0022
2117.00,0.0023
2116.00,0.0026
2115.00,0.0027
2114.00,0.0028
2113.00,0.0028
2112.00,0.0027
2111.00,0.0027
2110.00,0.0027
2109.00,0.0027
2108.00,0.0027
2107.00,0.0027
2106.00,0.0027
2105.00,0.0028
2104.00,0.0029
2103.00,0.0029
2102.00,0.0029
2101.00,0.0029
2100.00,0.0028
2099.00,0.0027
2098.00,0.0025
2097.00,0.0023
2096.00,0.0020
2095.00,0.0017
2094.00,0.0016
2093.00,0.0017
2092.00,0.0020
2091.00,0.0023
2090.00,0.0025
2089.00,0.0027
2088.00,0.0028
2087.00,0.0028
2086.00,0.0028
2085.00,0.0028
2084.00,0.0028
2083.00,0.0028
2082.00,0.0028
2081.00,0.0029
2080.00,0.0029
2079.00,0.0029
2078.00,0.0029
2077.00,0.0030
2076.00,0.0030
2075.00,0.0029
2074.00,0.0029
2073.00,0.0029
2072.00,0.0029
2071.00,0.0029
2070.00,0.0028
2069.00,0.0028
2068.00,0.0027
2067.00,0.0026
2066.00,0.0026
2065.00,0.0026
2064.00,0.0028
2063.00,0.0029
2062.00,0.0030
2061.00,0.0031
2060.00,0.0031
2059.00,0.0031
2058.00,0.0030
2057.00,0.0029
2056.00,0.0028
2055.00,0.0026
2054.00,0.0026
2053.00,0.0029
2052.00,0.0034
2051.00,0.0039
2050.00,0.0040
2049.00,0.0037
2048.00,0.0032
2047.00,0.0028
2046.00,0.0026
2045.00,0.0026
2044.00,0.0026
2043.00,0.0026
2042.00,0.0024
2041.00,0.0022
2040.00,0.0021
2039.00,0.0022
2038.00,0.0023
2037.00,0.0024
2036.00,0.0024
2035.00,0.0024
2034.00,0.0024
2033.00,0.0024
2032.00,0.0025
2031.00,0.0026
2030.00,0.0026
2029.00,0.0025
2028.00,0.0021
2027.00,0.0018
2026.00,0.0015
2025.00,0.0014
2024.00,0.0013
2023.00,0.0011
2022.00,0.0008
2021.00,0.0007
2020.00,0.0009
2019.00,0.0012
2018.00,0.0016
2017.00,0.0019
2016.00,0.0020
2015.00,0.0019
2014.00,0.0019
2013.00,0.0021
2012.00,0.0025
2011.00,0.0028
2010.00,0.0029
2009.00,0.0027
2008.00,0.0024
2007.00,0.0019
2006.00,0.0016
2005.00,0.0014
2004.00,0.0015
2003.00,0.0017
2002.00,0.0017
2001.00,0.0016
2000.00,0.0013
1999.00,0.0011
1998.00,0.0010
1997.00,0.0012
1996.00,0.0013
1995.00,0.0015
1994.00,0.0015
1993.00,0.0017
1992.00,0.0019
1991.00,0.0020
1990.00,0.0021
1989.00,0.0022
1988.00,0.0023
1987.00,0.0026
1986.00,0.0028
1985.00,0.0032
1984.00,0.0035
1983.00,0.0037
1982.00,0.0036
1981.00,0.0035
1980.00,0.0032
1979.00,0.0027
1978.00,0.0021
1977.00,0.0016
1976.00,0.0013
1975.00,0.0011
1974.00,0.0011
1973.00,0.0011
1972.00,0.0012
1971.00,0.0012
1970.00,0.0011
1969.00,0.0011
1968.00,0.0012
1967.00,0.0014
1966.00,0.0015
1965.00,0.0016
1964.00,0.0016
1963.00,0.0014
1962.00,0.0011
1961.00,0.0010
1960.00,0.0009
1959.00,0.0010
1958.00,0.0010
1957.00,0.0010
1956.00,0.0010
1955.00,0.0011
1954.00,0.0011
1953.00,0.0011
1952.00,0.0011
1951.00,0.0012
1950.00,0.0013
1949.00,0.0014
1948.00,0.0014
1947.00,0.0012
1946.00,0.0011
1945.00,0.0010
1944.00,0.0011
1943.00,0.0011
1942.00,0.0011
1941.00,0.0011
1940.00,0.0012
1939.00,0.0012
1938.00,0.0013
1937.00,0.0014
1936.00,0.0015
1935.00,0.0016
1934.00,0.0016
1933.00,0.0017
1932.00,0.0017
1931.00,0.0018
1930.00,0.0018
1929.00,0.0019
1928.00,0.0020
1927.00,0.0020
1926.00,0.0019
1925.00,0.0019
1924.00,0.0018
1923.00,0.0019
1922.00,0.0020
1921.00,0.0022
1920.00,0.0023
1919.00,0.0023
1918.00,0.0023
1917.00,0.0023
1916.00,0.0024
1915.00,0.0023
1914.00,0.0022
1913.00,0.0021
1912.00,0.0021
1911.00,0.0021
1910.00,0.0022
1909.00,0.0024
1908.00,0.0024
1907.00,0.0024
1906.00,0.0024
1905.00,0.0023
1904.00,0.0023
1903.00,0.0022
1902.00,0.0021
1901.00,0.0022
1900.00,0.0023
1899.00,0.0025
1898.00,0.0028
1897.00,0.0029
1896.00,0.0028
1895.00,0.0026
1894.00,0.0024
1893.00,0.0024
1892.00,0.0025
1891.00,0.0026
1890.00,0.0026
1889.00,0.0026
1888.00,0.0026
1887.00,0.0026
1886.00,0.0025
1885.00,0.0025
1884.00,0.0025
1883.00,0.0025
1882.00,0.0025
1881.00,0.0025
1880.00,0.0026
1879.00,0.0026
1878.00,0.0026
1877.00,0.0026
1876.00,0.0026
1875.00,0.0026
1874.00,0.0025
1873.00,0.0024
1872.00,0.0024
1871.00,0.0024
1870.00,0.0024
1869.00,0.0025
1868.00,0.0025
1867.00,0.0025
1866.00,0.0025
1865.00,0.0025
1864.00,0.0026
1863.00,0.0026
1862.00,0.0025
1861.00,0.0025
1860.00,0.0026
1859.00,0.0027
1858.00,0.0027
1857.00,0.0028
1856.00,0.0028
1855.00,0.0028
1854.00,0.0028
1853.00,0.0028
1852.00,0.0028
1851.00,0.0027
1850.00,0.0026
1849.00,0.0026
1848.00,0.0027
1847.00,0.0028
1846.00,0.0029
1845.00,0.0030
1844.00,0.0030
1843.00,0.0029
1842.00,0.0029
1841.00,0.0028
1840.00,0.0028
1839.00,0.0028
1838.00,0.0028
1837.00,0.0027
1836.00,0.0028
1835.00,0.0028
1834.00,0.0029
1833.00,0.0030
1832.00,0.0030
1831.00,0.0030
1830.00,0.0030
1829.00,0.0030
1828.00,0.0031
1827.00,0.0031
1826.00,0.0032
1825.00,0.0032
1824.00,0.0032
1823.00,0.0032
1822.00,0.0031
1821.00,0.0031
1820.00,0.0031
1819.00,0.0030
1818.00,0.0029
1817.00,0.0029
1816.00,0.0028
1815.00,0.0029
1814.00,0.0029
1813.00,0.0030
1812.00,0.0030
1811.00,0.0031
1810.00,0.0031
1809.00,0.0031
1808.00,0.0031
1807.00,0.0031
1806.00,0.0031
1805.00,0.0032
1804.00,0.0033
1803.00,0.0034
1802.00,0.0034
1801.00,0.0034
1800.00,0.0034
1799.00,0.0034
1798.00,0.0034
1797.00,0.0035
1796.00,0.0035
1795.00,0.0035
1794.00,0.0036
1793.00,0.0036
1792.00,0.0037
1791.00,0.0036
1790.00,0.0036
1789.00,0.0036
1788.00,0.0036
1787.00,0.0036
1786.00,0.0037
1785.00,0.0037
1784.00,0.0037
1783.00,0.0037
1782.00,0.0037
1781.00,0.0038
1780.00,0.0038
1779.00,0.0038
1778.00,0.0037
1777.00,0.0038
1776.00,0.0038
1775.00,0.0039
1774.00,0.0039
1773.00,0.0039
1772.00,0.0040
1771.00,0.0040
1770.00,0.0040
1769.00,0.0041
1768.00,0.0042
1767.00,0.0042
1766.00,0.0041
1765.00,0.0041
1764.00,0.0042
1763.00,0.0043
1762.00,0.0044
1761.00,0.0044
1760.00,0.0046
1759.00,0.0047
1758.00,0.0048
1757.00,0.0050
1756.00,0.0052
1755.00,0.0053
1754.00,0.0055
1753.00,0.0057
1752.00,0.0059
1751.00,0.0061
1750.00,0.0062
1749.00,0.0062
1748.00,0.0063
1747.00,0.0064
1746.00,0.0065
1745.00,0.0065
1744.00,0.0066
1743.00,0.0067
1742.00,0.0067
1741.00,0.0067
1740.00,0.0068
1739.00,0.0069
1738.00,0.0068
1737.00,0.0068
1736.00,0.0068
1735.00,0.0067
1734.00,0.0067
1733.00,0.0067
1732.00,0.0066
1731.00,0.0066
1730.00,0.0065
1729.00,0.0064
1728.00,0.0064
1727.00,0.0063
1726.00,0.0063
1725.00,0.0064
1724.00,0.0064
1723.00,0.0064
1722.00,0.0064
1721.00,0.0064
1720.00,0.0063
1719.00,0.0063
1718.00,0.0064
1717.00,0.0065
1716.00,0.0066
1715.00,0.0067
1714.00,0.0067
1713.00,0.0067
1712.00,0.0068
1711.00,0.0069
1710.00,0.0071
1709.00,0.0072
1708.00,0.0073
1707.00,0.0074
1706.00,0.0075
1705.00,0.0076
1704.00,0.0077
1703.00,0.0076
1702.00,0.0076
1701.00,0.0077
1700.00,0.0077
1699.00,0.0077
1698.00,0.0077
1697.00,0.0078
1696.00,0.0078
1695.00,0.0077
1694.00,0.0077
1693.00,0.0077
1692.00,0.0078
1691.00,0.0079
1690.00,0.0080
1689.00,0.0081
1688.00,0.0082
1687.00,0.0083
1686.00,0.0084
1685.00,0.0086
1684.00,0.0087
1683.00,0.0088
1682.00,0.0089
1681.00,0.0090
1680.00,0.0092
1679.00,0.0093
1678.00,0.0094
1677.00,0.0095
1676.00,0.0098
1675.00,0.0100
1674.00,0.0102
1673.00,0.0103
1672.00,0.0105
1671.00,0.0107
1670.00,0.0109
1669.00,0.0112
1668.00,0.0114
1667.00,0.0115
1666.00,0.0116
1665.00,0.0118
1664.00,0.0119
1663.00,0.0121
1662.00,0.0122
1661.00,0.0122
1660.00,0.0123
1659.00,0.0123
1658.00,0.0123
1657.00,0.0124
1656.00,0.0124
1655.00,0.0123
1654.00,0.0123
1653.00,0.0122
1652.00,0.0122
1651.00,0.0121
1650.00,0.0121
1649.00,0.0121
1648.00,0.0122
1647.00,0.0122
1646.00,0.0122
1645.00,0.0122
1644.00,0.0121
1643.00,0.0121
1642.00,0.0121
1641.00,0.0121
1640.00,0.0122
1639.00,0.0122
1638.00,0.0123
1637.00,0.0123
1636.00,0.0124
1635.00,0.0123
1634.00,0.0123
1633.00,0.0123
1632.00,0.0123
1631.00,0.0123
1630.00,0.0123
1629.00,0.0123
1628.00,0.0123
1627.00,0.0123
1626.00,0.0123
1625.00,0.0123
1624.00,0.0123
1623.00,0.0123
1622.00,0.0122
1621.00,0.0122
1620.00,0.0121
1619.00,0.0121
1618.00,0.0120
1617.00,0.0120
1616.00,0.0121
1615.00,0.0121
1614.00,0.0121
1613.00,0.0121
1612.00,0.0122
1611.00,0.0122
1610.00,0.0122
1609.00,0.0122
1608.00,0.0122
1607.00,0.0122
1606.00,0.0122
1605.00,0.0123
1604.00,0.0124
1603.00,0.0125
1602.00,0.0125
1601.00,0.0125
1600.00,0.0126
1599.00,0.0127
1598.00,0.0127
1597.00,0.0128
1596.00,0.0128
1595.00,0.0129
1594.00,0.0129
1593.00,0.0130
1592.00,0.0132
1591.00,0.0133
1590.00,0.0135
1589.00,0.0137
1588.00,0.0140
1587.00,0.0143
1586.00,0.0147
1585.00,0.0152
1584.00,0.0158
1583.00,0.0165
1582.00,0.0171
1581.00,0.0178
1580.00,0.0183
1579.00,0.0186
1578.00,0.0188
1577.00,0.0188
1576.00,0.0187
1575.00,0.0183
1574.00,0.0179
1573.00,0.0175
1572.00,0.0170
1571.00,0.0165
1570.00,0.0159
1569.00,0.0154
1568.00,0.0150
1567.00,0.0147
1566.00,0.0144
1565.00,0.0142
1564.00,0.0140
1563.00,0.0139
1562.00,0.0138
1561.00,0.0137
1560.00,0.0138
1559.00,0.0137
1558.00,0.0137
1557.00,0.0138
1556.00,0.0140
1555.00,0.0142
1554.00,0.0144
1553.00,0.0146
1552.00,0.0149
1551.00,0.0152
1550.00,0.0156
1549.00,0.0161
1548.00,0.0166
1547.00,0.0172
1546.00,0.0180
1545.00,0.0189
1544.00,0.0197
1543.00,0.0203
1542.00,0.0207
1541.00,0.0208
1540.00,0.0203
1539.00,0.0195
1538.00,0.0187
1537.00,0.0181
1536.00,0.0175
1535.00,0.0168
1534.00,0.0159
1533.00,0.0152
1532.00,0.0146
1531.00,0.0142
1530.00,0.0139
1529.00,0.0137
1528.00,0.0136
1527.00,0.0134
1526.00,0.0133
1525.00,0.0132
1524.00,0.0132
1523.00,0.0132
1522.00,0.0133
1521.00,0.0134
1520.00,0.0134
1519.00,0.0135
1518.00,0.0136
1517.00,0.0137
1516.00,0.0139
1515.00,0.0139
1514.00,0.0140
1513.00,0.0141
1512.00,0.0143
1511.00,0.0144
1510.00,0.0145
1509.00,0.0147
1508.00,0.0150
1507.00,0.0151
1506.00,0.0152
1505.00,0.0153
1504.00,0.0156
1503.00,0.0158
1502.00,0.0160
1501.00,0.0163
1500.00,0.0167
1499.00,0.0171
1498.00,0.0175
1497.00,0.0181
1496.00,0.0187
1495.00,0.0192
1494.00,0.0195
1493.00,0.0200
1492.00,0.0206
1491.00,0.0214
1490.00,0.0222
1489.00,0.0230
1488.00,0.0238
1487.00,0.0244
1486.00,0.0251
1485.00,0.0260
1484.00,0.0269
1483.00,0.0280
1482.00,0.0292
1481.00,0.0306
1480.00,0.0321
1479.00,0.0336
1478.00,0.0353
1477.00,0.0375
1476.00,0.0401
1475.00,0.0430
1474.00,0.0467
1473.00,0.0516
1472.00,0.0570
1471.00,0.0619
1470.00,0.0664
1469.00,0.0713
1468.00,0.0767
1467.00,0.0829
1466.00,0.0902
1465.00,0.0984
1464.00,0.1057
1463.00,0.1106
1462.00,0.1136
1461.00,0.1155
1460.00,0.1168
1459.00,0.1179
1458.00,0.1194
1457.00,0.1211
1456.00,0.1217
1455.00,0.1211
1454.00,0.1199
1453.00,0.1182
1452.00,0.1159
1451.00,0.1127
1450.00,0.1086
1449.00,0.1030
1448.00,0.0960
1447.00,0.0886
1446.00,0.0818
1445.00,0.0759
1444.00,0.0708
1443.00,0.0667
1442.00,0.0635
1441.00,0.0614
1440.00,0.0600
1439.00,0.0594
1438.00,0.0595
1437.00,0.0597
1436.00,0.0592
1435.00,0.0574
1434.00,0.0545
1433.00,0.0510
1432.00,0.0473
1431.00,0.0440
1430.00,0.0414
1429.00,0.0395
1428.00,0.0381
1427.00,0.0373
1426.00,0.0367
1425.00,0.0361
1424.00,0.0356
1423.00,0.0352
1422.00,0.0350
1421.00,0.0346
1420.00,0.0342
1419.00,0.0338
1418.00,0.0334
1417.00,0.0329
1416.00,0.0324
1415.00,0.0319
1414.00,0.0315
1413.00,0.0311
1412.00,0.0306
1411.00,0.0303
1410.00,0.0300
1409.00,0.0297
1408.00,0.0294
1407.00,0.0293
1406.00,0.0292
1405.00,0.0292
1404.00,0.0292
1403.00,0.0294
1402.00,0.0296
1401.00,0.0299
1400.00,0.0302
1399.00,0.0307
1398.00,0.0312
1397.00,0.0316
1396.00,0.0320
1395.00,0.0324
1394.00,0.0328
1393.00,0.0330
1392.00,0.0333
1391.00,0.0337
1390.00,0.0344
1389.00,0.0355
1388.00,0.0373
1387.00,0.0399
1386.00,0.0435
1385.00,0.0482
1384.00,0.0549
1383.00,0.0643
1382.00,0.0770
1381.00,0.0932
1380.00,0.1129
1379.00,0.1347
1378.00,0.1549
1377.00,0.1689
1376.00,0.1722
1375.00,0.1631
1374.00,0.1440
1373.00,0.1215
1372.00,0.1011
1371.00,0.0842
1370.00,0.0707
1369.00,0.0603
1368.00,0.0531
1367.00,0.0484
1366.00,0.0457
1365.00,0.0445
1364.00,0.0443
1363.00,0.0451
1362.00,0.0466
1361.00,0.0481
1360.00,0.0491
1359.00,0.0492
1358.00,0.0480
1357.00,0.0458
1356.00,0.0427
1355.00,0.0392
1354.00,0.0359
1353.00,0.0330
1352.00,0.0307
1351.00,0.0288
1350.00,0.0273
1349.00,0.0259
1348.00,0.0248
1347.00,0.0238
1346.00,0.0229
1345.00,0.0222
1344.00,0.0216
1343.00,0.0211
1342.00,0.0207
1341.00,0.0204
1340.00,0.0201
1339.00,0.0199
1338.00,0.0198
1337.00,0.0197
1336.00,0.0196
1335.00,0.0196
1334.00,0.0197
1333.00,0.0199
1332.00,0.0201
1331.00,0.0203
1330.00,0.0203
1329.00,0.0201
1328.00,0.0198
1327.00,0.0193
1326.00,0.0187
1325.00,0.0182
1324.00,0.0177
1323.00,0.0172
1322.00,0.0169
1321.00,0.0165
1320.00,0.0163
1319.00,0.0160
1318.00,0.0158
1317.00,0.0155
1316.00,0.0153
1315.00,0.0151
1314.00,0.0150
1313.00,0.0150
1312.00,0.0150
1311.00,0.0151
1310.00,0.0154
1309.00,0.0159
1308.00,0.0167
1307.00,0.0176
1306.00,0.0186
1305.00,0.0192
1304.00,0.0194
1303.00,0.0191
1302.00,0.0187
1301.00,0.0183
1300.00,0.0180
1299.00,0.0179
1298.00,0.0179
1297.00,0.0179
1296.00,0.0178
1295.00,0.0176
1294.00,0.0174
1293.00,0.0171
1292.00,0.0167
1291.00,0.0164
1290.00,0.0161
1289.00,0.0158
1288.00,0.0156
1287.00,0.0154
1286.00,0.0152
1285.00,0.0151
1284.00,0.0150
1283.00,0.0149
1282.00,0.0149
1281.00,0.0149
1280.00,0.0150
1279.00,0.0150
1278.00,0.0151
1277.00,0.0152
1276.00,0.0153
1275.00,0.0155
1274.00,0.0157
1273.00,0.0159
1272.00,0.0162
1271.00,0.0165
1270.00,0.0169
1269.00,0.0173
1268.00,0.0176
1267.00,0.0180
1266.00,0.0184
1265.00,0.0188
1264.00,0.0192
1263.00,0.0196
1262.00,0.0201
1261.00,0.0206
1260.00,0.0211
1259.00,0.0218
1258.00,0.0225
1257.00,0.0232
1256.00,0.0235
1255.00,0.0236
1254.00,0.0232
1253.00,0.0227
1252.00,0.0220
1251.00,0.0214
1250.00,0.0208
1249.00,0.0202
1248.00,0.0198
1247.00,0.0194
1246.00,0.0191
1245.00,0.0189
1244.00,0.0189
1243.00,0.0188
1242.00,0.0188
1241.00,0.0188
1240.00,0.0187
1239.00,0.0186
1238.00,0.0185
1237.00,0.0183
1236.00,0.0181
1235.00,0.0179
1234.00,0.0178
1233.00,0.0177
1232.00,0.0176
1231.00,0.0175
1230.00,0.0174
1229.00,0.0173
1228.00,0.0172
1227.00,0.0172
1226.00,0.0172
1225.00,0.0172
1224.00,0.0173
1223.00,0.0174
1222.00,0.0175
1221.00,0.0176
1220.00,0.0177
1219.00,0.0178
1218.00,0.0176
1217.00,0.0174
1216.00,0.0171
1215.00,0.0168
1214.00,0.0165
1213.00,0.0162
1212.00,0.0159
1211.00,0.0157
1210.00,0.0155
1209.00,0.0153
1208.00,0.0152
1207.00,0.0151
1206.00,0.0152
1205.00,0.0152
1204.00,0.0152
1203.00,0.0152
1202.00,0.0152
1201.00,0.0153
1200.00,0.0154
1199.00,0.0156
1198.00,0.0158
1197.00,0.0159
1196.00,0.0160
1195.00,0.0161
1194.00,0.0161
1193.00,0.0163
1192.00,0.0164
1191.00,0.0166
1190.00,0.0168
1189.00,0.0170
1188.00,0.0172
1187.00,0.0175
1186.00,0.0178
1185.00,0.0181
1184.00,0.0184
1183.00,0.0188
1182.00,0.0193
1181.00,0.0198
1180.00,0.0204
1179.00,0.0210
1178.00,0.0218
1177.00,0.0228
1176.00,0.0240
1175.00,0.0257
1174.00,0.0278
1173.00,0.0303
1172.00,0.0332
1171.00,0.0363
1170.00,0.0392
1169.00,0.0414
1168.00,0.0427
1167.00,0.0429
1166.00,0.0424
1165.00,0.0413
1164.00,0.0400
1163.00,0.0387
1162.00,0.0376
1161.00,0.0368
1160.00,0.0361
1159.00,0.0357
1158.00,0.0355
1157.00,0.0354
1156.00,0.0352
1155.00,0.0351
1154.00,0.0349
1153.00,0.0347
1152.00,0.0343
1151.00,0.0337
1150.00,0.0329
1149.00,0.0320
1148.00,0.0310
1147.00,0.0301
1146.00,0.0292
1145.00,0.0284
1144.00,0.0275
1143.00,0.0267
1142.00,0.0260
1141.00,0.0254
1140.00,0.0249
1139.00,0.0244
1138.00,0.0239
1137.00,0.0235
1136.00,0.0230
1135.00,0.0227
1134.00,0.0225
1133.00,0.0224
1132.00,0.0224
1131.00,0.0224
1130.00,0.0223
1129.00,0.0223
1128.00,0.0222
1127.00,0.0222
1126.00,0.0221
1125.00,0.0221
1124.00,0.0220
1123.00,0.0219
1122.00,0.0219
1121.00,0.0218
1120.00,0.0218
1119.00,0.0218
1118.00,0.0217
1117.00,0.0217
1116.00,0.0216
1115.00,0.0215
1114.00,0.0216
1113.00,0.0217
1112.00,0.0218
1111.00,0.0218
1110.00,0.0220
1109.00,0.0222
1108.00,0.0226
1107.00,0.0230
1106.00,0.0236
1105.00,0.0242
1104.00,0.0246
1103.00,0.0248
1102.00,0.0247
1101.00,0.0245
1100.00,0.0241
1099.00,0.0238
1098.00,0.0235
1097.00,0.0232
1096.00,0.0231
1095.00,0.0231
1094.00,0.0231
1093.00,0.0231
1092.00,0.0231
1091.00,0.0231
1090.00,0.0232
1089.00,0.0232
1088.00,0.0233
1087.00,0.0233
1086.00,0.0233
1085.00,0.0233
1084.00,0.0233
1083.00,0.0234
1082.00,0.0234
1081.00,0.0234
1080.00,0.0234
1079.00,0.0234
1078.00,0.0234
1077.00,0.0234
1076.00,0.0235
1075.00,0.0236
1074.00,0.0236
1073.00,0.0236
1072.00,0.0234
1071.00,0.0233
1070.00,0.0231
1069.00,0.0230
1068.00,0.0227
1067.00,0.0224
1066.00,0.0221
1065.00,0.0219
1064.00,0.0218
1063.00,0.0217
1062.00,0.0218
1061.00,0.0219
1060.00,0.0220
1059.00,0.0221
1058.00,0.0222
1057.00,0.0223
1056.00,0.0224
1055.00,0.0226
1054.00,0.0228
1053.00,0.0232
1052.00,0.0236
1051.00,0.0240
1050.00,0.0243
1049.00,0.0247
1048.00,0.0251
1047.00,0.0255
1046.00,0.0259
1045.00,0.0261
1044.00,0.0262
1043.00,0.0262
1042.00,0.0260
1041.00,0.0257
1040.00,0.0256
1039.00,0.0255
1038.00,0.0255
1037.00,0.0255
1036.00,0.0254
1035.00,0.0254
1034.00,0.0253
1033.00,0.0251
1032.00,0.0249
1031.00,0.0248
1030.00,0.0248
1029.00,0.0248
1028.00,0.0250
1027.00,0.0252
1026.00,0.0256
1025.00,0.0261
1024.00,0.0266
1023.00,0.0272
1022.00,0.0277
1021.00,0.0282
1020.00,0.0285
1019.00,0.0288
1018.00,0.0289
1017.00,0.0289
1016.00,0.0288
1015.00,0.0287
1014.00,0.0285
1013.00,0.0284
1012.00,0.0281
1011.00,0.0278
1010.00,0.0273
1009.00,0.0268
1008.00,0.0264
1007.00,0.0262
1006.00,0.0263
1005.00,0.0269
1004.00,0.0279
1003.00,0.0297
1002.00,0.0321
1001.00,0.0353
1000.00,0.0386
999.00,0.0412
998.00,0.0423
997.00,0.0412
996.00,0.0384
995.00,0.0346
994.00,0.0308
993.00,0.0275
992.00,0.0249
991.00,0.0229
990.00,0.0216
989.00,0.0206
988.00,0.0199
987.00,0.0195
986.00,0.0193
985.00,0.0193
984.00,0.0196
983.00,0.0202
982.00,0.0213
981.00,0.0229
980.00,0.0252
979.00,0.0281
978.00,0.0318
977.00,0.0361
976.00,0.0407
975.00,0.0450
974.00,0.0481
973.00,0.0492
972.00,0.0480
971.00,0.0447
970.00,0.0404
969.00,0.0360
968.00,0.0322
967.00,0.0294
966.00,0.0273
965.00,0.0257
964.00,0.0245
963.00,0.0235
962.00,0.0228
961.00,0.0224
960.00,0.0222
959.00,0.0222
958.00,0.0222
957.00,0.0221
956.00,0.0220
955.00,0.0219
954.00,0.0217
953.00,0.0215
952.00,0.0212
951.00,0.0208
950.00,0.0204
949.00,0.0202
948.00,0.0200
947.00,0.0199
946.00,0.0199
945.00,0.0199
944.00,0.0200
943.00,0.0201
942.00,0.0202
941.00,0.0201
940.00,0.0199
939.00,0.0195
938.00,0.0188
937.00,0.0180
936.00,0.0171
935.00,0.0163
934.00,0.0156
933.00,0.0150
932.00,0.0144
931.00,0.0139
930.00,0.0136
929.00,0.0132
928.00,0.0129
927.00,0.0127
926.00,0.0124
925.00,0.0122
924.00,0.0120
923.00,0.0119
922.00,0.0118
921.00,0.0117
920.00,0.0115
919.00,0.0113
918.00,0.0111
917.00,0.0110
916.00,0.0110
915.00,0.0110
914.00,0.0110
913.00,0.0110
912.00,0.0111
911.00,0.0112
910.00,0.0114
909.00,0.0116
908.00,0.0117
907.00,0.0120
906.00,0.0125
905.00,0.0134
904.00,0.0147
903.00,0.0162
902.00,0.0178
901.00,0.0191
900.00,0.0198
899.00,0.0199
898.00,0.0193
897.00,0.0181
896.00,0.0167
895.00,0.0152
894.00,0.0140
893.00,0.0130
892.00,0.0123
891.00,0.0118
890.00,0.0116
889.00,0.0115
888.00,0.0115
887.00,0.0115
886.00,0.0116
885.00,0.0117
884.00,0.0120
883.00,0.0124
882.00,0.0129
881.00,0.0135
880.00,0.0142
879.00,0.0149
878.00,0.0157
877.00,0.0164
876.00,0.0170
875.00,0.0174
874.00,0.0174
873.00,0.0169
872.00,0.0160
871.00,0.0149
870.00,0.0138
869.00,0.0129
868.00,0.0123
867.00,0.0120
866.00,0.0119
865.00,0.0119
864.00,0.0119
863.00,0.0120
862.00,0.0121
861.00,0.0123
860.00,0.0125
859.00,0.0127
858.00,0.0129
857.00,0.0129
856.00,0.0128
855.00,0.0128
854.00,0.0130
853.00,0.0132
852.00,0.0136
851.00,0.0140
850.00,0.0145
849.00,0.0150
848.00,0.0159
847.00,0.0173
846.00,0.0193
845.00,0.0223
844.00,0.0264
843.00,0.0309
842.00,0.0345
841.00,0.0355
840.00,0.0334
839.00,0.0292
838.00,0.0247
837.00,0.0211
836.00,0.0188
835.00,0.0175
834.00,0.0169
833.00,0.0165
832.00,0.0162
831.00,0.0158
830.00,0.0155
829.00,0.0152
828.00,0.0151
827.00,0.0150
826.00,0.0150
825.00,0.0151
824.00,0.0150
823.00,0.0150
822.00,0.0150
821.00,0.0150
820.00,0.0151
819.00,0.0154
818.00,0.0158
817.00,0.0164
816.00,0.0172
815.00,0.0182
814.00,0.0195
813.00,0.0211
812.00,0.0226
811.00,0.0241
810.00,0.0250
809.00,0.0253
808.00,0.0249
807.00,0.0239
806.00,0.0225
805.00,0.0211
804.00,0.0199
803.00,0.0189
802.00,0.0181
801.00,0.0174
800.00,0.0168
799.00,0.0163
798.00,0.0159
797.00,0.0154
796.00,0.0149
795.00,0.0145
794.00,0.0142
793.00,0.0139
792.00,0.0135
791.00,0.0133
790.00,0.0130
789.00,0.0126
788.00,0.0123
787.00,0.0121
786.00,0.0118
785.00,0.0116
784.00,0.0115
783.00,0.0114
782.00,0.0113
781.00,0.0113
780.00,0.0112
779.00,0.0111
778.00,0.0112
777.00,0.0113
776.00,0.0113
775.00,0.0114
774.00,0.0113
773.00,0.0112
772.00,0.0111
771.00,0.0112
770.00,0.0113
769.00,0.0113
768.00,0.0113
767.00,0.0112
766.00,0.0113
765.00,0.0115
764.00,0.0117
763.00,0.0119
762.00,0.0120
761.00,0.0120
760.00,0.0119
759.00,0.0119
758.00,0.0119
757.00,0.0119
756.00,0.0118
755.00,0.0118
754.00,0.0119
753.00,0.0119
752.00,0.0120
751.00,0.0121
750.00,0.0122
749.00,0.0124
748.00,0.0126
747.00,0.0127
746.00,0.0128
745.00,0.0129
744.00,0.0131
743.00,0.0134
742.00,0.0137
741.00,0.0140
740.00,0.0143
739.00,0.0146
738.00,0.0149
737.00,0.0152
736.00,0.0154
735.00,0.0156
734.00,0.0159
733.00,0.0163
732.00,0.0169
731.00,0.0175
730.00,0.0179
729.00,0.0182
728.00,0.0182
727.00,0.0182
726.00,0.0183
725.00,0.0185
724.00,0.0187
723.00,0.0190
722.00,0.0192
721.00,0.0193
720.00,0.0192
719.00,0.0188
718.00,0.0182
717.00,0.0175
716.00,0.0170
715.00,0.0167
714.00,0.0164
713.00,0.0163
712.00,0.0162
711.00,0.0160
710.00,0.0158
709.00,0.0155
708.00,0.0154
707.00,0.0154
706.00,0.0156
705.00,0.0156
704.00,0.0155
703.00,0.0153
702.00,0.0150
701.00,0.0149
700.00,0.0149
699.00,0.0150
698.00,0.0150
697.00,0.0151
696.00,0.0152
695.00,0.0153
694.00,0.0155
693.00,0.0156
692.00,0.0158
691.00,0.0159
690.00,0.0160
689.00,0.0159
688.00,0.0158
687.00,0.0157
686.00,0.0157
685.00,0.0157
684.00,0.0159
683.00,0.0161
682.00,0.0163
681.00,0.0163
680.00,0.0163
679.00,0.0162
678.00,0.0163
677.00,0.0166
676.00,0.0170
675.00,0.0175
674.00,0.0179
673.00,0.0182
672.00,0.0185
671.00,0.0185
670.00,0.0184
669.00,0.0181
668.00,0.0179
667.00,0.0178
666.00,0.0175
665.00,0.0170
664.00,0.0164
663.00,0.0159
662.00,0.0155
661.00,0.0153
660.00,0.0154
659.00,0.0156
658.00,0.0157
657.00,0.0157
656.00,0.0154
655.00,0.0151
654.00,0.0150
653.00,0.0149
652.00,0.0149
651.00,0.0147
650.00,0.0145
649.00,0.0144
648.00,0.0144
647.00,0.0145
646.00,0.0145
645.00,0.0143
644.00,0.0140
643.00,0.0139
642.00,0.0140
641.00,0.0140
640.00,0.0141
639.00,0.0143
638.00,0.0145
637.00,0.0147
636.00,0.0146
635.00,0.0143
634.00,0.0138
633.00,0.0133
632.00,0.0131
631.00,0.0133
630.00,0.0138
629.00,0.0143
628.00,0.0147
627.00,0.0150
626.00,0.0152
625.00,0.0152
624.00,0.0151
623.00,0.0148
622.00,0.0147
621.00,0.0146
620.00,0.0146
619.00,0.0147
618.00,0.0149
617.00,0.0152
616.00,0.0154
615.00,0.0155
614.00,0.0153
613.00,0.0150
612.00,0.0146
611.00,0.0145
610.00,0.0146
609.00,0.0148
608.00,0.0148
607.00,0.0147
606.00,0.0148
605.00,0.0150
604.00,0.0151
603.00,0.0152
602.00,0.0152
601.00,0.0152
600.00,0.0150
599.00,0.0149
598.00,0.0148
597.00,0.0148
596.00,0.0147
595.00,0.0144
594.00,0.0140
593.00,0.0139
592.00,0.0141
591.00,0.0144
590.00,0.0146
589.00,0.0146
588.00,0.0143
587.00,0.0140
586.00,0.0139
585.00,0.0141
584.00,0.0143
583.00,0.0146
582.00,0.0148
581.00,0.0150
580.00,0.0151
579.00,0.0151
578.00,0.0151
577.00,0.0151
576.00,0.0150
575.00,0.0147
574.00,0.0144
573.00,0.0143
572.00,0.0144
571.00,0.0145
570.00,0.0147
569.00,0.0149
568.00,0.0151
567.00,0.0152
566.00,0.0152
565.00,0.0151
564.00,0.0149
563.00,0.0145
562.00,0.0141
561.00,0.0139
560.00,0.0139
559.00,0.0141
558.00,0.0144
557.00,0.0145
556.00,0.0145
555.00,0.0144
554.00,0.0146
553.00,0.0150
552.00,0.0154
551.00,0.0158
550.00,0.0160
549.00,0.0162
548.00,0.0165
547.00,0.0166
546.00,0.0165
545.00,0.0163
544.00,0.0163
543.00,0.0167
542.00,0.0172
541.00,0.0175
540.00,0.0178
539.00,0.0181
538.00,0.0183
537.00,0.0184
536.00,0.0184
535.00,0.0186
534.00,0.0188
533.00,0.0190
532.00,0.0190
531.00,0.0188
530.00,0.0186
529.00,0.0185
528.00,0.0184
527.00,0.0181
526.00,0.0175
525.00,0.0166
524.00,0.0159
523.00,0.0157
522.00,0.0160
521.00,0.0163
520.00,0.0163
519.00,0.0159
518.00,0.0156
517.00,0.0156
516.00,0.0157
515.00,0.0158
514.00,0.0156
513.00,0.0151
512.00,0.0146
511.00,0.0142
510.00,0.0143
509.00,0.0147
508.00,0.0152
507.00,0.0154
506.00,0.0153
505.00,0.0150
504.00,0.0148
503.00,0.0146
502.00,0.0147
501.00,0.0150
500.00,0.0155
499.00,0.0157
498.00,0.0155
497.00,0.0150
496.00,0.0148
495.00,0.0153
494.00,0.0161
493.00,0.0170
492.00,0.0174
491.00,0.0172
490.00,0.0164
489.00,0.0157
488.00,0.0157
487.00,0.0165
486.00,0.0176
485.00,0.0183
484.00,0.0183
483.00,0.0182
482.00,0.0182
481.00,0.0184
480.00,0.0187
479.00,0.0194
478.00,0.0204
477.00,0.0218
476.00,0.0230
475.00,0.0237
474.00,0.0238
473.00,0.0241
472.00,0.0250
471.00,0.0264
470.00,0.0276
469.00,0.0281
468.00,0.0285
467.00,0.0293
466.00,0.0307
465.00,0.0319
464.00,0.0323
463.00,0.0319
462.00,0.0310
461.00,0.0304
460.00,0.0306
459.00,0.0317
458.00,0.0331
457.00,0.0340
456.00,0.0338
455.00,0.0327
454.00,0.0314
453.00,0.0303
452.00,0.0298
451.00,0.0294
450.00,0.0290
