Created as New Dataset,Sample 011 By Administrator Date Thursday, September 04 2025
cm-1,A
4000.00,0.0007
3999.00,0.0008
3998.00,0.0008
3997.00,0.0007
3996.00,0.0007
3995.00,0.0007
3994.00,0.0007
3993.00,0.0007
3992.00,0.0008
3991.00,0.0008
3990.00,0.0008
3989.00,0.0008
3988.00,0.0008
3987.00,0.0008
3986.00,0.0007
3985.00,0.0007
3984.00,0.0007
3983.00,0.0006
3982.00,0.0006
3981.00,0.0006
3980.00,0.0006
3979.00,0.0006
3978.00,0.0006
3977.00,0.0006
3976.00,0.0006
3975.00,0.0006
3974.00,0.0006
3973.00,0.0006
3972.00,0.0005
3971.00,0.0005
3970.00,0.0005
3969.00,0.0005
3968.00,0.0006
3967.00,0.0006
3966.00,0.0006
3965.00,0.0006
3964.00,0.0006
3963.00,0.0006
3962.00,0.0006
3961.00,0.0006
3960.00,0.0006
3959.00,0.0005
3958.00,0.0005
3957.00,0.0005
3956.00,0.0005
3955.00,0.0005
3954.00,0.0005
3953.00,0.0005
3952.00,0.0005
3951.00,0.0005
3950.00,0.0005
3949.00,0.0005
3948.00,0.0005
3947.00,0.0004
3946.00,0.0005
3945.00,0.0005
3944.00,0.0005
3943.00,0.0006
3942.00,0.0006
3941.00,0.0006
3940.00,0.0006
3939.00,0.0006
3938.00,0.0006
3937.00,0.0005
3936.00,0.0005
3935.00,0.0005
3934.00,0.0005
3933.00,0.0006
3932.00,0.0006
3931.00,0.0006
3930.00,0.0005
3929.00,0.0005
3928.00,0.0005
3927.00,0.0005
3926.00,0.0006
3925.00,0.0006
3924.00,0.0006
3923.00,0.0006
3922.00,0.0006
3921.00,0.0006
3920.00,0.0006
3919.00,0.0005
3918.00,0.0006
3917.00,0.0006
3916.00,0.0006
3915.00,0.0006
3914.00,0.0005
3913.00,0.0005
3912.00,0.0005
3911.00,0.0005
3910.00,0.0005
3909.00,0.0005
3908.00,0.0005
3907.00,0.0005
3906.00,0.0005
3905.00,0.0005
3904.00,0.0004
3903.00,0.0004
3902.00,0.0003
3901.00,0.0003
3900.00,0.0004
3899.00,0.0004
3898.00,0.0004
3897.00,0.0004
3896.00,0.0004
3895.00,0.0004
3894.00,0.0004
3893.00,0.0004
3892.00,0.0004
3891.00,0.0004
3890.00,0.0004
3889.00,0.0004
3888.00,0.0004
3887.00,0.0004
3886.00,0.0004
3885.00,0.0004
3884.00,0.0004
3883.00,0.0004
3882.00,0.0004
3881.00,0.0004
3880.00,0.0005
3879.00,0.0005
3878.00,0.0005
3877.00,0.0005
3876.00,0.0005
3875.00,0.0005
3874.00,0.0004
3873.00,0.0004
3872.00,0.0004
3871.00,0.0005
3870.00,0.0005
3869.00,0.0005
3868.00,0.0004
3867.00,0.0004
3866.00,0.0004
3865.00,0.0004
3864.00,0.0004
3863.00,0.0004
3862.00,0.0004
3861.00,0.0004
3860.00,0.0004
3859.00,0.0004
3858.00,0.0003
3857.00,0.0003
3856.00,0.0003
3855.00,0.0003
3854.00,0.0003
3853.00,0.0003
3852.00,0.0003
3851.00,0.0003
3850.00,0.0004
3849.00,0.0004
3848.00,0.0004
3847.00,0.0005
3846.00,0.0005
3845.00,0.0006
3844.00,0.0005
3843.00,0.0005
3842.00,0.0004
3841.00,0.0003
3840.00,0.0003
3839.00,0.0003
3838.00,0.0002
3837.00,0.0002
3836.00,0.0002
3835.00,0.0003
3834.00,0.0003
3833.00,0.0004
3832.00,0.0004
3831.00,0.0004
3830.00,0.0005
3829.00,0.0005
3828.00,0.0005
3827.00,0.0005
3826.00,0.0004
3825.00,0.0004
3824.00,0.0004
3823.00,0.0004
3822.00,0.0004
3821.00,0.0003
3820.00,0.0003
3819.00,0.0003
3818.00,0.0003
3817.00,0.0003
3816.00,0.0004
3815.00,0.0004
3814.00,0.0004
3813.00,0.0005
3812.00,0.0005
3811.00,0.0006
3810.00,0.0006
3809.00,0.0006
3808.00,0.0005
3807.00,0.0005
3806.00,0.0005
3805.00,0.0005
3804.00,0.0005
3803.00,0.0005
3802.00,0.0004
3801.00,0.0004
3800.00,0.0003
3799.00,0.0003
3798.00,0.0004
3797.00,0.0004
3796.00,0.0005
3795.00,0.0005
3794.00,0.0005
3793.00,0.0005
3792.00,0.0005
3791.00,0.0005
3790.00,0.0006
3789.00,0.0006
3788.00,0.0006
3787.00,0.0006
3786.00,0.0006
3785.00,0.0005
3784.00,0.0005
3783.00,0.0005
3782.00,0.0005
3781.00,0.0006
3780.00,0.0006
3779.00,0.0007
3778.00,0.0007
3777.00,0.0006
3776.00,0.0006
3775.00,0.0005
3774.00,0.0005
3773.00,0.0005
3772.00,0.0005
3771.00,0.0005
3770.00,0.0005
3769.00,0.0006
3768.00,0.0006
3767.00,0.0006
3766.00,0.0006
3765.00,0.0006
3764.00,0.0006
3763.00,0.0005
3762.00,0.0006
3761.00,0.0006
3760.00,0.0006
3759.00,0.0006
3758.00,0.0005
3757.00,0.0004
3756.00,0.0004
3755.00,0.0003
3754.00,0.0003
3753.00,0.0003
3752.00,0.0003
3751.00,0.0003
3750.00,0.0003
3749.00,0.0003
3748.00,0.0003
3747.00,0.0004
3746.00,0.0004
3745.00,0.0004
3744.00,0.0004
3743.00,0.0003
3742.00,0.0003
3741.00,0.0003
3740.00,0.0003
3739.00,0.0003
3738.00,0.0003
3737.00,0.0002
3736.00,0.0002
3735.00,0.0002
3734.00,0.0002
3733.00,0.0002
3732.00,0.0003
3731.00,0.0003
3730.00,0.0003
3729.00,0.0003
3728.00,0.0004
3727.00,0.0004
3726.00,0.0004
3725.00,0.0004
3724.00,0.0004
3723.00,0.0004
3722.00,0.0004
3721.00,0.0004
3720.00,0.0004
3719.00,0.0004
3718.00,0.0004
3717.00,0.0004
3716.00,0.0004
3715.00,0.0004
3714.00,0.0003
3713.00,0.0003
3712.00,0.0003
3711.00,0.0004
3710.00,0.0003
3709.00,0.0003
3708.00,0.0003
3707.00,0.0004
3706.00,0.0004
3705.00,0.0005
3704.00,0.0005
3703.00,0.0005
3702.00,0.0005
3701.00,0.0005
3700.00,0.0005
3699.00,0.0005
3698.00,0.0005
3697.00,0.0005
3696.00,0.0004
3695.00,0.0004
3694.00,0.0004
3693.00,0.0004
3692.00,0.0004
3691.00,0.0004
3690.00,0.0004
3689.00,0.0003
3688.00,0.0003
3687.00,0.0003
3686.00,0.0004
3685.00,0.0004
3684.00,0.0005
3683.00,0.0005
3682.00,0.0005
3681.00,0.0005
3680.00,0.0005
3679.00,0.0004
3678.00,0.0004
3677.00,0.0004
3676.00,0.0004
3675.00,0.0004
3674.00,0.0003
3673.00,0.0003
3672.00,0.0003
3671.00,0.0003
3670.00,0.0003
3669.00,0.0003
3668.00,0.0003
3667.00,0.0003
3666.00,0.0004
3665.00,0.0004
3664.00,0.0004
3663.00,0.0004
3662.00,0.0004
3661.00,0.0004
3660.00,0.0004
3659.00,0.0004
3658.00,0.0004
3657.00,0.0004
3656.00,0.0004
3655.00,0.0004
3654.00,0.0004
3653.00,0.0004
3652.00,0.0004
3651.00,0.0004
3650.00,0.0004
3649.00,0.0004
3648.00,0.0003
3647.00,0.0003
3646.00,0.0003
3645.00,0.0004
3644.00,0.0004
3643.00,0.0005
3642.00,0.0005
3641.00,0.0006
3640.00,0.0006
3639.00,0.0006
3638.00,0.0006
3637.00,0.0006
3636.00,0.0006
3635.00,0.0006
3634.00,0.0006
3633.00,0.0006
3632.00,0.0007
3631.00,0.0007
3630.00,0.0008
3629.00,0.0008
3628.00,0.0008
3627.00,0.0007
3626.00,0.0007
3625.00,0.0007
3624.00,0.0006
3623.00,0.0006
3622.00,0.0006
3621.00,0.0007
3620.00,0.0007
3619.00,0.0008
3618.00,0.0008
3617.00,0.0008
3616.00,0.0008
3615.00,0.0009
3614.00,0.0008
3613.00,0.0008
3612.00,0.0008
3611.00,0.0008
3610.00,0.0008
3609.00,0.0009
3608.00,0.0009
3607.00,0.0010
3606.00,0.0010
3605.00,0.0010
3604.00,0.0010
3603.00,0.0010
3602.00,0.0010
3601.00,0.0010
3600.00,0.0010
3599.00,0.0010
3598.00,0.0010
3597.00,0.0010
3596.00,0.0010
3595.00,0.0011
3594.00,0.0011
3593.00,0.0012
3592.00,0.0012
3591.00,0.0012
3590.00,0.0013
3589.00,0.0013
3588.00,0.0013
3587.00,0.0014
3586.00,0.0014
3585.00,0.0014
3584.00,0.0014
3583.00,0.0015
3582.00,0.0015
3581.00,0.0015
3580.00,0.0016
3579.00,0.0016
3578.00,0.0015
3577.00,0.0015
3576.00,0.0016
3575.00,0.0016
3574.00,0.0016
3573.00,0.0016
3572.00,0.0016
3571.00,0.0016
3570.00,0.0016
3569.00,0.0016
3568.00,0.0016
3567.00,0.0016
3566.00,0.0016
3565.00,0.0016
3564.00,0.0017
3563.00,0.0017
3562.00,0.0018
3561.00,0.0018
3560.00,0.0019
3559.00,0.0019
3558.00,0.0019
3557.00,0.0019
3556.00,0.0020
3555.00,0.0020
3554.00,0.0021
3553.00,0.0021
3552.00,0.0022
3551.00,0.0022
3550.00,0.0023
3549.00,0.0023
3548.00,0.0024
3547.00,0.0024
3546.00,0.0024
3545.00,0.0024
3544.00,0.0024
3543.00,0.0025
3542.00,0.0025
3541.00,0.0025
3540.00,0.0025
3539.00,0.0025
3538.00,0.0025
3537.00,0.0025
3536.00,0.0025
3535.00,0.0026
3534.00,0.0026
3533.00,0.0027
3532.00,0.0027
3531.00,0.0027
3530.00,0.0028
3529.00,0.0028
3528.00,0.0028
3527.00,0.0028
3526.00,0.0028
3525.00,0.0029
3524.00,0.0029
3523.00,0.0030
3522.00,0.0030
3521.00,0.0030
3520.00,0.0030
3519.00,0.0030
3518.00,0.0031
3517.00,0.0031
3516.00,0.0031
3515.00,0.0031
3514.00,0.0032
3513.00,0.0032
3512.00,0.0032
3511.00,0.0033
3510.00,0.0033
3509.00,0.0034
3508.00,0.0034
3507.00,0.0034
3506.00,0.0034
3505.00,0.0034
3504.00,0.0034
3503.00,0.0035
3502.00,0.0035
3501.00,0.0036
3500.00,0.0036
3499.00,0.0037
3498.00,0.0037
3497.00,0.0038
3496.00,0.0038
3495.00,0.0037
3494.00,0.0038
3493.00,0.0038
3492.00,0.0039
3491.00,0.0039
3490.00,0.0040
3489.00,0.0040
3488.00,0.0040
3487.00,0.0040
3486.00,0.0040
3485.00,0.0040
3484.00,0.0040
3483.00,0.0040
3482.00,0.0040
3481.00,0.0040
3480.00,0.0041
3479.00,0.0042
3478.00,0.0042
3477.00,0.0043
3476.00,0.0043
3475.00,0.0043
3474.00,0.0044
3473.00,0.0044
3472.00,0.0044
3471.00,0.0044
3470.00,0.0044
3469.00,0.0045
3468.00,0.0045
3467.00,0.0045
3466.00,0.0045
3465.00,0.0046
3464.00,0.0046
3463.00,0.0046
3462.00,0.0046
3461.00,0.0046
3460.00,0.0046
3459.00,0.0047
3458.00,0.0047
3457.00,0.0047
3456.00,0.0048
3455.00,0.0049
3454.00,0.0049
3453.00,0.0050
3452.00,0.0050
3451.00,0.0050
3450.00,0.0050
3449.00,0.0050
3448.00,0.0049
3447.00,0.0049
3446.00,0.0050
3445.00,0.0050
3444.00,0.0050
3443.00,0.0050
3442.00,0.0051
3441.00,0.0051
3440.00,0.0051
3439.00,0.0051
3438.00,0.0051
3437.00,0.0052
3436.00,0.0052
3435.00,0.0052
3434.00,0.0053
3433.00,0.0053
3432.00,0.0053
3431.00,0.0053
3430.00,0.0054
3429.00,0.0054
3428.00,0.0054
3427.00,0.0055
3426.00,0.0055
3425.00,0.0055
3424.00,0.0055
3423.00,0.0056
3422.00,0.0056
3421.00,0.0056
3420.00,0.0057
3419.00,0.0057
3418.00,0.0058
3417.00,0.0058
3416.00,0.0058
3415.00,0.0058
3414.00,0.0057
3413.00,0.0057
3412.00,0.0057
3411.00,0.0058
3410.00,0.0058
3409.00,0.0059
3408.00,0.0059
3407.00,0.0059
3406.00,0.0059
3405.00,0.0059
3404.00,0.0058
3403.00,0.0058
3402.00,0.0058
3401.00,0.0059
3400.00,0.0059
3399.00,0.0060
3398.00,0.0060
3397.00,0.0060
3396.00,0.0060
3395.00,0.0060
3394.00,0.0060
3393.00,0.0060
3392.00,0.0060
3391.00,0.0060
3390.00,0.0060
3389.00,0.0060
3388.00,0.0061
3387.00,0.0061
3386.00,0.0062
3385.00,0.0062
3384.00,0.0062
3383.00,0.0062
3382.00,0.0062
3381.00,0.0062
3380.00,0.0062
3379.00,0.0062
3378.00,0.0062
3377.00,0.0062
3376.00,0.0062
3375.00,0.0062
3374.00,0.0062
3373.00,0.0062
3372.00,0.0063
3371.00,0.0063
3370.00,0.0063
3369.00,0.0063
3368.00,0.0063
3367.00,0.0063
3366.00,0.0063
3365.00,0.0063
3364.00,0.0063
3363.00,0.0063
3362.00,0.0063
3361.00,0.0064
3360.00,0.0064
3359.00,0.0064
3358.00,0.0064
3357.00,0.0064
3356.00,0.0064
3355.00,0.0065
3354.00,0.0065
3353.00,0.0065
3352.00,0.0065
3351.00,0.0065
3350.00,0.0065
3349.00,0.0066
3348.00,0.0066
3347.00,0.0066
3346.00,0.0066
3345.00,0.0066
3344.00,0.0065
3343.00,0.0065
3342.00,0.0064
3341.00,0.0064
3340.00,0.0064
3339.00,0.0064
3338.00,0.0064
3337.00,0.0064
3336.00,0.0065
3335.00,0.0065
3334.00,0.0065
3333.00,0.0065
3332.00,0.0064
3331.00,0.0064
3330.00,0.0063
3329.00,0.0063
3328.00,0.0063
3327.00,0.0063
3326.00,0.0063
3325.00,0.0063
3324.00,0.0063
3323.00,0.0063
3322.00,0.0063
3321.00,0.0063
3320.00,0.0062
3319.00,0.0062
3318.00,0.0062
3317.00,0.0062
3316.00,0.0063
3315.00,0.0063
3314.00,0.0063
3313.00,0.0063
3312.00,0.0063
3311.00,0.0063
3310.00,0.0064
3309.00,0.0064
3308.00,0.0065
3307.00,0.0065
3306.00,0.0065
3305.00,0.0065
3304.00,0.0065
3303.00,0.0066
3302.00,0.0066
3301.00,0.0066
3300.00,0.0066
3299.00,0.0066
3298.00,0.0065
3297.00,0.0064
3296.00,0.0063
3295.00,0.0063
3294.00,0.0063
3293.00,0.0062
3292.00,0.0062
3291.00,0.0062
3290.00,0.0061
3289.00,0.0061
3288.00,0.0061
3287.00,0.0061
3286.00,0.0060
3285.00,0.0060
3284.00,0.0060
3283.00,0.0059
3282.00,0.0059
3281.00,0.0059
3280.00,0.0059
3279.00,0.0058
3278.00,0.0058
3277.00,0.0058
3276.00,0.0057
3275.00,0.0057
3274.00,0.0057
3273.00,0.0057
3272.00,0.0057
3271.00,0.0056
3270.00,0.0056
3269.00,0.0056
3268.00,0.0056
3267.00,0.0056
3266.00,0.0056
3265.00,0.0055
3264.00,0.0055
3263.00,0.0055
3262.00,0.0055
3261.00,0.0054
3260.00,0.0054
3259.00,0.0054
3258.00,0.0054
3257.00,0.0053
3256.00,0.0053
3255.00,0.0053
3254.00,0.0052
3253.00,0.0052
3252.00,0.0052
3251.00,0.0051
3250.00,0.0051
3249.00,0.0051
3248.00,0.0051
3247.00,0.0051
3246.00,0.0051
3245.00,0.0050
3244.00,0.0050
3243.00,0.0050
3242.00,0.0050
3241.00,0.0050
3240.00,0.0050
3239.00,0.0050
3238.00,0.0050
3237.00,0.0050
3236.00,0.0051
3235.00,0.0051
3234.00,0.0051
3233.00,0.0051
3232.00,0.0051
3231.00,0.0050
3230.00,0.0050
3229.00,0.0050
3228.00,0.0050
3227.00,0.0050
3226.00,0.0050
3225.00,0.0050
3224.00,0.0050
3223.00,0.0051
3222.00,0.0051
3221.00,0.0051
3220.00,0.0051
3219.00,0.0052
3218.00,0.0052
3217.00,0.0052
3216.00,0.0052
3215.00,0.0053
3214.00,0.0053
3213.00,0.0053
3212.00,0.0053
3211.00,0.0053
3210.00,0.0053
3209.00,0.0053
3208.00,0.0053
3207.00,0.0053
3206.00,0.0054
3205.00,0.0054
3204.00,0.0054
3203.00,0.0054
3202.00,0.0054
3201.00,0.0054
3200.00,0.0054
3199.00,0.0053
3198.00,0.0053
3197.00,0.0053
3196.00,0.0053
3195.00,0.0053
3194.00,0.0053
3193.00,0.0053
3192.00,0.0053
3191.00,0.0053
3190.00,0.0052
3189.00,0.0052
3188.00,0.0052
3187.00,0.0052
3186.00,0.0051
3185.00,0.0051
3184.00,0.0051
3183.00,0.0051
3182.00,0.0051
3181.00,0.0051
3180.00,0.0051
3179.00,0.0050
3178.00,0.0050
3177.00,0.0049
3176.00,0.0049
3175.00,0.0049
3174.00,0.0049
3173.00,0.0049
3172.00,0.0049
3171.00,0.0049
3170.00,0.0048
3169.00,0.0048
3168.00,0.0048
3167.00,0.0048
3166.00,0.0048
3165.00,0.0048
3164.00,0.0048
3163.00,0.0048
3162.00,0.0047
3161.00,0.0047
3160.00,0.0046
3159.00,0.0046
3158.00,0.0046
3157.00,0.0046
3156.00,0.0046
3155.00,0.0046
3154.00,0.0046
3153.00,0.0045
3152.00,0.0045
3151.00,0.0046
3150.00,0.0046
3149.00,0.0046
3148.00,0.0046
3147.00,0.0046
3146.00,0.0046
3145.00,0.0045
3144.00,0.0045
3143.00,0.0045
3142.00,0.0045
3141.00,0.0044
3140.00,0.0044
3139.00,0.0043
3138.00,0.0043
3137.00,0.0043
3136.00,0.0042
3135.00,0.0042
3134.00,0.0042
3133.00,0.0041
3132.00,0.0041
3131.00,0.0042
3130.00,0.0042
3129.00,0.0042
3128.00,0.0041
3127.00,0.0041
3126.00,0.0041
3125.00,0.0040
3124.00,0.0040
3123.00,0.0040
3122.00,0.0040
3121.00,0.0039
3120.00,0.0039
3119.00,0.0039
3118.00,0.0039
3117.00,0.0038
3116.00,0.0038
3115.00,0.0038
3114.00,0.0038
3113.00,0.0038
3112.00,0.0038
3111.00,0.0038
3110.00,0.0037
3109.00,0.0037
3108.00,0.0037
3107.00,0.0037
3106.00,0.0037
3105.00,0.0037
3104.00,0.0037
3103.00,0.0037
3102.00,0.0036
3101.00,0.0036
3100.00,0.0036
3099.00,0.0036
3098.00,0.0036
3097.00,0.0036
3096.00,0.0036
3095.00,0.0035
3094.00,0.0035
3093.00,0.0036
3092.00,0.0036
3091.00,0.0036
3090.00,0.0036
3089.00,0.0036
3088.00,0.0036
3087.00,0.0036
3086.00,0.0036
3085.00,0.0036
3084.00,0.0035
3083.00,0.0035
3082.00,0.0035
3081.00,0.0035
3080.00,0.0035
3079.00,0.0035
3078.00,0.0035
3077.00,0.0035
3076.00,0.0035
3075.00,0.0035
3074.00,0.0035
3073.00,0.0035
3072.00,0.0035
3071.00,0.0035
3070.00,0.0035
3069.00,0.0036
3068.00,0.0036
3067.00,0.0037
3066.00,0.0037
3065.00,0.0037
3064.00,0.0037
3063.00,0.0038
3062.00,0.0037
3061.00,0.0037
3060.00,0.0037
3059.00,0.0037
3058.00,0.0037
3057.00,0.0037
3056.00,0.0037
3055.00,0.0037
3054.00,0.0038
3053.00,0.0038
3052.00,0.0038
3051.00,0.0039
3050.00,0.0039
3049.00,0.0039
3048.00,0.0039
3047.00,0.0039
3046.00,0.0040
3045.00,0.0040
3044.00,0.0040
3043.00,0.0040
3042.00,0.0040
3041.00,0.0040
3040.00,0.0041
3039.00,0.0041
3038.00,0.0042
3037.00,0.0042
3036.00,0.0043
3035.00,0.0043
3034.00,0.0043
3033.00,0.0044
3032.00,0.0044
3031.00,0.0044
3030.00,0.0044
3029.00,0.0045
3028.00,0.0045
3027.00,0.0046
3026.00,0.0047
3025.00,0.0047
3024.00,0.0047
3023.00,0.0048
3022.00,0.0048
3021.00,0.0049
3020.00,0.0050
3019.00,0.0050
3018.00,0.0051
3017.00,0.0051
3016.00,0.0052
3015.00,0.0053
3014.00,0.0053
3013.00,0.0055
3012.00,0.0056
3011.00,0.0057
3010.00,0.0058
3009.00,0.0059
3008.00,0.0061
3007.00,0.0062
3006.00,0.0064
3005.00,0.0065
3004.00,0.0067
3003.00,0.0068
3002.00,0.0070
3001.00,0.0072
3000.00,0.0074
2999.00,0.0077
2998.00,0.0079
2997.00,0.0082
2996.00,0.0086
2995.00,0.0089
2994.00,0.0093
2993.00,0.0098
2992.00,0.0103
2991.00,0.0108
2990.00,0.0114
2989.00,0.0120
2988.00,0.0127
2987.00,0.0135
2986.00,0.0144
2985.00,0.0153
2984.00,0.0164
2983.00,0.0175
2982.00,0.0189
2981.00,0.0205
2980.00,0.0223
2979.00,0.0244
2978.00,0.0268
2977.00,0.0295
2976.00,0.0326
2975.00,0.0362
2974.00,0.0403
2973.00,0.0449
2972.00,0.0502
2971.00,0.0561
2970.00,0.0627
2969.00,0.0700
2968.00,0.0778
2967.00,0.0862
2966.00,0.0950
2965.00,0.1039
2964.00,0.1125
2963.00,0.1204
2962.00,0.1270
2961.00,0.1321
2960.00,0.1358
2959.00,0.1385
2958.00,0.1411
2957.00,0.1444
2956.00,0.1489
2955.00,0.1552
2954.00,0.1628
2953.00,0.1709
2952.00,0.1784
2951.00,0.1836
2950.00,0.1853
2949.00,0.1827
2948.00,0.1758
2947.00,0.1657
2946.00,0.1535
2945.00,0.1410
2944.00,0.1293
2943.00,0.1194
2942.00,0.1117
2941.00,0.1065
2940.00,0.1036
2939.00,0.1027
2938.00,0.1037
2937.00,0.1064
2936.00,0.1107
2935.00,0.1163
2934.00,0.1233
2933.00,0.1316
2932.00,0.1409
2931.00,0.1513
2930.00,0.1624
2929.00,0.1739
2928.00,0.1856
2927.00,0.1973
2926.00,0.2086
2925.00,0.2197
2924.00,0.2307
2923.00,0.2416
2922.00,0.2525
2921.00,0.2629
2920.00,0.2722
2919.00,0.2791
2918.00,0.2823
2917.00,0.2809
2916.00,0.2751
2915.00,0.2656
2914.00,0.2540
2913.00,0.2417
2912.00,0.2300
2911.00,0.2196
2910.00,0.2106
2909.00,0.2027
2908.00,0.1957
2907.00,0.1890
2906.00,0.1824
2905.00,0.1758
2904.00,0.1690
2903.00,0.1622
2902.00,0.1554
2901.00,0.1488
2900.00,0.1425
2899.00,0.1365
2898.00,0.1309
2897.00,0.1257
2896.00,0.1210
2895.00,0.1169
2894.00,0.1135
2893.00,0.1106
2892.00,0.1084
2891.00,0.1067
2890.00,0.1056
2889.00,0.1049
2888.00,0.1045
2887.00,0.1044
2886.00,0.1045
2885.00,0.1050
2884.00,0.1058
2883.00,0.1071
2882.00,0.1087
2881.00,0.1105
2880.00,0.1122
2879.00,0.1135
2878.00,0.1142
2877.00,0.1141
2876.00,0.1136
2875.00,0.1129
2874.00,0.1126
2873.00,0.1130
2872.00,0.1141
2871.00,0.1158
2870.00,0.1180
2869.00,0.1202
2868.00,0.1217
2867.00,0.1217
2866.00,0.1198
2865.00,0.1157
2864.00,0.1098
2863.00,0.1029
2862.00,0.0960
2861.00,0.0900
2860.00,0.0853
2859.00,0.0821
2858.00,0.0803
2857.00,0.0797
2856.00,0.0801
2855.00,0.0810
2854.00,0.0825
2853.00,0.0843
2852.00,0.0861
2851.00,0.0878
2850.00,0.0890
2849.00,0.0899
2848.00,0.0906
2847.00,0.0918
2846.00,0.0937
2845.00,0.0968
2844.00,0.1008
2843.00,0.1056
2842.00,0.1104
2841.00,0.1147
2840.00,0.1177
2839.00,0.1187
2838.00,0.1171
2837.00,0.1127
2836.00,0.1058
2835.00,0.0969
2834.00,0.0870
2833.00,0.0770
2832.00,0.0676
2831.00,0.0594
2830.00,0.0525
2829.00,0.0468
2828.00,0.0421
2827.00,0.0383
2826.00,0.0353
2825.00,0.0327
2824.00,0.0305
2823.00,0.0286
2822.00,0.0270
2821.00,0.0256
2820.00,0.0244
2819.00,0.0233
2818.00,0.0224
2817.00,0.0215
2816.00,0.0208
2815.00,0.0201
2814.00,0.0196
2813.00,0.0190
2812.00,0.0185
2811.00,0.0179
2810.00,0.0174
2809.00,0.0168
2808.00,0.0162
2807.00,0.0156
2806.00,0.0150
2805.00,0.0144
2804.00,0.0138
2803.00,0.0132
2802.00,0.0127
2801.00,0.0123
2800.00,0.0120
2799.00,0.0116
2798.00,0.0113
2797.00,0.0111
2796.00,0.0108
2795.00,0.0106
2794.00,0.0104
2793.00,0.0101
2792.00,0.0098
2791.00,0.0095
2790.00,0.0092
2789.00,0.0089
2788.00,0.0086
2787.00,0.0083
2786.00,0.0080
2785.00,0.0078
2784.00,0.0075
2783.00,0.0073
2782.00,0.0071
2781.00,0.0069
2780.00,0.0068
2779.00,0.0066
2778.00,0.0065
2777.00,0.0063
2776.00,0.0062
2775.00,0.0061
2774.00,0.0060
2773.00,0.0060
2772.00,0.0059
2771.00,0.0058
2770.00,0.0058
2769.00,0.0057
2768.00,0.0057
2767.00,0.0056
2766.00,0.0056
2765.00,0.0056
2764.00,0.0056
2763.00,0.0055
2762.00,0.0055
2761.00,0.0054
2760.00,0.0054
2759.00,0.0054
2758.00,0.0054
2757.00,0.0054
2756.00,0.0053
2755.00,0.0053
2754.00,0.0053
2753.00,0.0053
2752.00,0.0053
2751.00,0.0052
2750.00,0.0052
2749.00,0.0052
2748.00,0.0052
2747.00,0.0052
2746.00,0.0053
2745.00,0.0054
2744.00,0.0055
2743.00,0.0056
2742.00,0.0056
2741.00,0.0057
2740.00,0.0059
2739.00,0.0060
2738.00,0.0060
2737.00,0.0061
2736.00,0.0062
2735.00,0.0063
2734.00,0.0065
2733.00,0.0066
2732.00,0.0068
2731.00,0.0069
2730.00,0.0071
2729.00,0.0073
2728.00,0.0076
2727.00,0.0079
2726.00,0.0082
2725.00,0.0084
2724.00,0.0086
2723.00,0.0086
2722.00,0.0086
2721.00,0.0084
2720.00,0.0081
2719.00,0.0078
2718.00,0.0075
2717.00,0.0072
2716.00,0.0069
2715.00,0.0067
2714.00,0.0064
2713.00,0.0062
2712.00,0.0060
2711.00,0.0058
2710.00,0.0057
2709.00,0.0055
2708.00,0.0054
2707.00,0.0052
2706.00,0.0052
2705.00,0.0051
2704.00,0.0050
2703.00,0.0049
2702.00,0.0048
2701.00,0.0047
2700.00,0.0046
2699.00,0.0046
2698.00,0.0046
2697.00,0.0046
2696.00,0.0046
2695.00,0.0045
2694.00,0.0045
2693.00,0.0045
2692.00,0.0045
2691.00,0.0045
2690.00,0.0045
2689.00,0.0045
2688.00,0.0045
2687.00,0.0045
2686.00,0.0045
2685.00,0.0045
2684.00,0.0045
2683.00,0.0045
2682.00,0.0046
2681.00,0.0046
2680.00,0.0046
2679.00,0.0046
2678.00,0.0046
2677.00,0.0046
2676.00,0.0046
2675.00,0.0046
2674.00,0.0045
2673.00,0.0045
2672.00,0.0045
2671.00,0.0044
2670.00,0.0044
2669.00,0.0045
2668.00,0.0045
2667.00,0.0045
2666.00,0.0046
2665.00,0.0046
2664.00,0.0046
2663.00,0.0047
2662.00,0.0047
2661.00,0.0048
2660.00,0.0048
2659.00,0.0048
2658.00,0.0048
2657.00,0.0048
2656.00,0.0048
2655.00,0.0047
2654.00,0.0046
2653.00,0.0046
2652.00,0.0045
2651.00,0.0045
2650.00,0.0044
2649.00,0.0044
2648.00,0.0043
2647.00,0.0043
2646.00,0.0042
2645.00,0.0042
2644.00,0.0041
2643.00,0.0041
2642.00,0.0040
2641.00,0.0040
2640.00,0.0040
2639.00,0.0039
2638.00,0.0039
2637.00,0.0039
2636.00,0.0039
2635.00,0.0039
2634.00,0.0039
2633.00,0.0039
2632.00,0.0039
2631.00,0.0039
2630.00,0.0039
2629.00,0.0039
2628.00,0.0039
2627.00,0.0039
2626.00,0.0040
2625.00,0.0040
2624.00,0.0040
2623.00,0.0040
2622.00,0.0040
2621.00,0.0040
2620.00,0.0040
2619.00,0.0040
2618.00,0.0040
2617.00,0.0041
2616.00,0.0041
2615.00,0.0041
2614.00,0.0041
2613.00,0.0041
2612.00,0.0040
2611.00,0.0039
2610.00,0.0038
2609.00,0.0037
2608.00,0.0036
2607.00,0.0036
2606.00,0.0035
2605.00,0.0035
2604.00,0.0034
2603.00,0.0034
2602.00,0.0033
2601.00,0.0033
2600.00,0.0033
2599.00,0.0032
2598.00,0.0032
2597.00,0.0032
2596.00,0.0032
2595.00,0.0032
2594.00,0.0032
2593.00,0.0032
2592.00,0.0033
2591.00,0.0034
2590.00,0.0035
2589.00,0.0036
2588.00,0.0037
2587.00,0.0038
2586.00,0.0038
2585.00,0.0038
2584.00,0.0038
2583.00,0.0038
2582.00,0.0038
2581.00,0.0038
2580.00,0.0038
2579.00,0.0037
2578.00,0.0036
2577.00,0.0035
2576.00,0.0034
2575.00,0.0033
2574.00,0.0032
2573.00,0.0031
2572.00,0.0030
2571.00,0.0029
2570.00,0.0028
2569.00,0.0028
2568.00,0.0028
2567.00,0.0027
2566.00,0.0026
2565.00,0.0025
2564.00,0.0025
2563.00,0.0024
2562.00,0.0023
2561.00,0.0022
2560.00,0.0022
2559.00,0.0022
2558.00,0.0023
2557.00,0.0023
2556.00,0.0023
2555.00,0.0023
2554.00,0.0022
2553.00,0.0022
2552.00,0.0021
2551.00,0.0021
2550.00,0.0021
2549.00,0.0020
2548.00,0.0020
2547.00,0.0020
2546.00,0.0019
2545.00,0.0019
2544.00,0.0019
2543.00,0.0019
2542.00,0.0019
2541.00,0.0019
2540.00,0.0019
2539.00,0.0018
2538.00,0.0018
2537.00,0.0018
2536.00,0.0018
2535.00,0.0017
2534.00,0.0017
2533.00,0.0017
2532.00,0.0016
2531.00,0.0016
2530.00,0.0016
2529.00,0.0016
2528.00,0.0016
2527.00,0.0016
2526.00,0.0016
2525.00,0.0015
2524.00,0.0015
2523.00,0.0015
2522.00,0.0015
2521.00,0.0015
2520.00,0.0014
2519.00,0.0013
2518.00,0.0013
2517.00,0.0013
2516.00,0.0014
2515.00,0.0014
2514.00,0.0013
2513.00,0.0012
2512.00,0.0012
2511.00,0.0012
2510.00,0.0012
2509.00,0.0011
2508.00,0.0011
2507.00,0.0010
2506.00,0.0009
2505.00,0.0008
2504.00,0.0008
2503.00,0.0008
2502.00,0.0009
2501.00,0.0009
2500.00,0.0010
2499.00,0.0010
2498.00,0.0011
2497.00,0.0011
2496.00,0.0010
2495.00,0.0010
2494.00,0.0010
2493.00,0.0010
2492.00,0.0010
2491.00,0.0011
2490.00,0.0011
2489.00,0.0012
2488.00,0.0012
2487.00,0.0012
2486.00,0.0012
2485.00,0.0012
2484.00,0.0012
2483.00,0.0013
2482.00,0.0013
2481.00,0.0012
2480.00,0.0011
2479.00,0.0010
2478.00,0.0009
2477.00,0.0009
2476.00,0.0009
2475.00,0.0009
2474.00,0.0009
2473.00,0.0009
2472.00,0.0009
2471.00,0.0009
2470.00,0.0009
2469.00,0.0010
2468.00,0.0010
2467.00,0.0010
2466.00,0.0010
2465.00,0.0010
2464.00,0.0010
2463.00,0.0010
2462.00,0.0009
2461.00,0.0009
2460.00,0.0008
2459.00,0.0008
2458.00,0.0009
2457.00,0.0010
2456.00,0.0011
2455.00,0.0012
2454.00,0.0012
2453.00,0.0012
2452.00,0.0012
2451.00,0.0012
2450.00,0.0012
2449.00,0.0012
2448.00,0.0012
2447.00,0.0011
2446.00,0.0011
2445.00,0.0010
2444.00,0.0010
2443.00,0.0011
2442.00,0.0011
2441.00,0.0011
2440.00,0.0011
2439.00,0.0011
2438.00,0.0011
2437.00,0.0011
2436.00,0.0011
2435.00,0.0012
2434.00,0.0012
2433.00,0.0013
2432.00,0.0013
2431.00,0.0012
2430.00,0.0012
2429.00,0.0012
2428.00,0.0012
2427.00,0.0011
2426.00,0.0011
2425.00,0.0011
2424.00,0.0011
2423.00,0.0011
2422.00,0.0011
2421.00,0.0011
2420.00,0.0010
2419.00,0.0010
2418.00,0.0010
2417.00,0.0010
2416.00,0.0010
2415.00,0.0010
2414.00,0.0010
2413.00,0.0010
2412.00,0.0010
2411.00,0.0009
2410.00,0.0009
2409.00,0.0009
2408.00,0.0009
2407.00,0.0008
2406.00,0.0008
2405.00,0.0008
2404.00,0.0009
2403.00,0.0009
2402.00,0.0009
2401.00,0.0009
2400.00,0.0008
2399.00,0.0008
2398.00,0.0008
2397.00,0.0008
2396.00,0.0009
2395.00,0.0009
2394.00,0.0008
2393.00,0.0008
2392.00,0.0008
2391.00,0.0007
2390.00,0.0007
2389.00,0.0007
2388.00,0.0007
2387.00,0.0007
2386.00,0.0007
2385.00,0.0007
2384.00,0.0006
2383.00,0.0005
2382.00,0.0005
2381.00,0.0004
2380.00,0.0005
2379.00,0.0005
2378.00,0.0006
2377.00,0.0006
2376.00,0.0006
2375.00,0.0006
2374.00,0.0006
2373.00,0.0006
2372.00,0.0006
2371.00,0.0006
2370.00,0.0005
2369.00,0.0005
2368.00,0.0004
2367.00,0.0004
2366.00,0.0004
2365.00,0.0005
2364.00,0.0006
2363.00,0.0006
2362.00,0.0007
2361.00,0.0007
2360.00,0.0007
2359.00,0.0008
2358.00,0.0009
2357.00,0.0010
2356.00,0.0009
2355.00,0.0008
2354.00,0.0007
2353.00,0.0006
2352.00,0.0007
2351.00,0.0011
2350.00,0.0014
2349.00,0.0015
2348.00,0.0013
2347.00,0.0010
2346.00,0.0008
2345.00,0.0008
2344.00,0.0009
2343.00,0.0010
2342.00,0.0011
2341.00,0.0011
2340.00,0.0011
2339.00,0.0011
2338.00,0.0011
2337.00,0.0011
2336.00,0.0011
2335.00,0.0010
2334.00,0.0010
2333.00,0.0009
2332.00,0.0008
2331.00,0.0008
2330.00,0.0008
2329.00,0.0010
2328.00,0.0011
2327.00,0.0015
2326.00,0.0018
2325.00,0.0022
2324.00,0.0023
2323.00,0.0022
2322.00,0.0020
2321.00,0.0018
2320.00,0.0017
2319.00,0.0016
2318.00,0.0016
2317.00,0.0016
2316.00,0.0015
2315.00,0.0014
2314.00,0.0013
2313.00,0.0013
2312.00,0.0012
2311.00,0.0012
2310.00,0.0011
2309.00,0.0011
2308.00,0.0010
2307.00,0.0010
2306.00,0.0010
2305.00,0.0010
2304.00,0.0011
2303.00,0.0011
2302.00,0.0012
2301.00,0.0012
2300.00,0.0011
2299.00,0.0011
2298.00,0.0011
2297.00,0.0012
2296.00,0.0013
2295.00,0.0014
2294.00,0.0015
2293.00,0.0016
2292.00,0.0017
2291.00,0.0018
2290.00,0.0018
2289.00,0.0019
2288.00,0.0019
2287.00,0.0019
2286.00,0.0018
2285.00,0.0017
2284.00,0.0016
2283.00,0.0015
2282.00,0.0015
2281.00,0.0014
2280.00,0.0014
2279.00,0.0015
2278.00,0.0015
2277.00,0.0015
2276.00,0.0015
2275.00,0.0015
2274.00,0.0015
2273.00,0.0015
2272.00,0.0015
2271.00,0.0014
2270.00,0.0013
2269.00,0.0012
2268.00,0.0011
2267.00,0.0009
2266.00,0.0008
2265.00,0.0007
2264.00,0.0008
2263.00,0.0009
2262.00,0.0010
2261.00,0.0011
2260.00,0.0011
2259.00,0.0011
2258.00,0.0011
2257.00,0.0011
2256.00,0.0011
2255.00,0.0010
2254.00,0.0009
2253.00,0.0009
2252.00,0.0009
2251.00,0.0010
2250.00,0.0009
2249.00,0.0008
2248.00,0.0007
2247.00,0.0005
2246.00,0.0004
2245.00,0.0005
2244.00,0.0006
2243.00,0.0008
2242.00,0.0009
2241.00,0.0009
2240.00,0.0008
2239.00,0.0008
2238.00,0.0008
2237.00,0.0008
2236.00,0.0009
2235.00,0.0009
2234.00,0.0009
2233.00,0.0009
2232.00,0.0008
2231.00,0.0008
2230.00,0.0008
2229.00,0.0009
2228.00,0.0009
2227.00,0.0008
2226.00,0.0007
2225.00,0.0008
2224.00,0.0009
2223.00,0.0010
2222.00,0.0009
2221.00,0.0009
2220.00,0.0008
2219.00,0.0007
2218.00,0.0006
2217.00,0.0005
2216.00,0.0003
2215.00,0.0003
2214.00,0.0003
2213.00,0.0004
2212.00,0.0006
2211.00,0.0007
2210.00,0.0007
2209.00,0.0006
2208.00,0.0006
2207.00,0.0006
2206.00,0.0006
2205.00,0.0007
2204.00,0.0007
2203.00,0.0006
2202.00,0.0005
2201.00,0.0005
2200.00,0.0006
2199.00,0.0006
2198.00,0.0005
2197.00,0.0004
2196.00,0.0004
2195.00,0.0005
2194.00,0.0005
2193.00,0.0006
2192.00,0.0007
2191.00,0.0008
2190.00,0.0009
2189.00,0.0011
2188.00,0.0012
2187.00,0.0012
2186.00,0.0012
2185.00,0.0012
2184.00,0.0011
2183.00,0.0008
2182.00,0.0004
2181.00,0.0002
2180.00,0.0002
2179.00,0.0004
2178.00,0.0006
2177.00,0.0006
2176.00,0.0005
2175.00,0.0004
2174.00,0.0006
2173.00,0.0009
2172.00,0.0010
2171.00,0.0010
2170.00,0.0011
2169.00,0.0012
2168.00,0.0014
2167.00,0.0014
2166.00,0.0012
2165.00,0.0012
2164.00,0.0013
2163.00,0.0016
2162.00,0.0017
2161.00,0.0014
2160.00,0.0006
2159.00,-0.0007
2158.00,-0.0020
2157.00,-0.0029
2156.00,-0.0029
2155.00,-0.0026
2154.00,-0.0022
2153.00,-0.0019
2152.00,-0.0019
2151.00,-0.0019
2150.00,-0.0019
2149.00,-0.0019
2148.00,-0.0019
2147.00,-0.0020
2146.00,-0.0020
2145.00,-0.0018
2144.00,-0.0016
2143.00,-0.0013
2142.00,-0.0011
2141.00,-0.0010
2140.00,-0.0010
2139.00,-0.0011
2138.00,-0.0011
2137.00,-0.0011
2136.00,-0.0013
2135.00,-0.0016
2134.00,-0.0018
2133.00,-0.0019
2132.00,-0.0017
2131.00,-0.0015
2130.00,-0.0011
2129.00,-0.0009
2128.00,-0.0007
2127.00,-0.0007
2126.00,-0.0008
2125.00,-0.0008
2124.00,-0.0007
2123.00,-0.0005
2122.00,-0.0004
2121.00,-0.0003
2120.00,-0.0003
2119.00,-0.0002
2118.00,-0.0002
2117.00,0.0000
2116.00,0.0002
2115.00,0.0004
2114.00,0.0005
2113.00,0.0005
2112.00,0.0005
2111.00,0.0004
2110.00,0.0002
2109.00,0.0001
2108.00,-0.0000
2107.00,-0.0001
2106.00,-0.0001
2105.00,0.0000
2104.00,0.0001
2103.00,0.0002
2102.00,0.0002
2101.00,0.0002
2100.00,0.0003
2099.00,0.0003
2098.00,0.0002
2097.00,0.0001
2096.00,-0.0001
2095.00,-0.0003
2094.00,-0.0004
2093.00,-0.0005
2092.00,-0.0004
2091.00,-0.0004
2090.00,-0.0003
2089.00,-0.0001
2088.00,0.0002
2087.00,0.0004
2086.00,0.0005
2085.00,0.0005
2084.00,0.0004
2083.00,0.0002
2082.00,0.0001
2081.00,0.0002
2080.00,0.0004
2079.00,0.0005
2078.00,0.0005
2077.00,0.0004
2076.00,0.0002
2075.00,0.0002
2074.00,0.0001
2073.00,0.0001
2072.00,-0.0001
2071.00,-0.0003
2070.00,-0.0004
2069.00,-0.0005
2068.00,-0.0004
2067.00,-0.0002
2066.00,-0.0000
2065.00,0.0000
2064.00,-0.0002
2063.00,-0.0004
2062.00,-0.0006
2061.00,-0.0006
2060.00,-0.0005
2059.00,-0.0004
2058.00,-0.0003
2057.00,-0.0002
2056.00,-0.0003
2055.00,-0.0002
2054.00,0.0000
2053.00,0.0006
2052.00,0.0011
2051.00,0.0014
2050.00,0.0012
2049.00,0.0008
2048.00,0.0003
2047.00,0.0000
2046.00,-0.0002
2045.00,-0.0003
2044.00,-0.0002
2043.00,-0.0000
2042.00,0.0001
2041.00,0.0001
2040.00,-0.0000
2039.00,-0.0002
2038.00,-0.0002
2037.00,0.0000
2036.00,0.0002
2035.00,0.0003
2034.00,0.0001
2033.00,-0.0002
2032.00,-0.0006
2031.00,-0.0010
2030.00,-0.0016
2029.00,-0.0019
2028.00,-0.0020
2027.00,-0.0018
2026.00,-0.0017
2025.00,-0.0017
2024.00,-0.0017
2023.00,-0.0016
2022.00,-0.0015
2021.00,-0.0013
2020.00,-0.0011
2019.00,-0.0011
2018.00,-0.0010
2017.00,-0.0010
2016.00,-0.0011
2015.00,-0.0012
2014.00,-0.0012
2013.00,-0.0012
2012.00,-0.0010
2011.00,-0.0010
2010.00,-0.0011
2009.00,-0.0013
2008.00,-0.0017
2007.00,-0.0020
2006.00,-0.0021
2005.00,-0.0020
2004.00,-0.0017
2003.00,-0.0015
2002.00,-0.0014
2001.00,-0.0015
2000.00,-0.0015
1999.00,-0.0016
1998.00,-0.0017
1997.00,-0.0017
1996.00,-0.0018
1995.00,-0.0018
1994.00,-0.0017
1993.00,-0.0014
1992.00,-0.0008
1991.00,-0.0003
1990.00,0.0001
1989.00,0.0003
1988.00,0.0004
1987.00,0.0003
1986.00,0.0002
1985.00,0.0003
1984.00,0.0005
1983.00,0.0007
1982.00,0.0009
1981.00,0.0009
1980.00,0.0007
1979.00,0.0002
1978.00,-0.0005
1977.00,-0.0008
1976.00,-0.0008
1975.00,-0.0006
1974.00,-0.0006
1973.00,-0.0008
1972.00,-0.0011
1971.00,-0.0013
1970.00,-0.0015
1969.00,-0.0016
1968.00,-0.0017
1967.00,-0.0018
1966.00,-0.0019
1965.00,-0.0018
1964.00,-0.0018
1963.00,-0.0017
1962.00,-0.0018
1961.00,-0.0018
1960.00,-0.0018
1959.00,-0.0018
1958.00,-0.0017
1957.00,-0.0016
1956.00,-0.0015
1955.00,-0.0016
1954.00,-0.0016
1953.00,-0.0015
1952.00,-0.0014
1951.00,-0.0014
1950.00,-0.0015
1949.00,-0.0015
1948.00,-0.0016
1947.00,-0.0017
1946.00,-0.0018
1945.00,-0.0019
1944.00,-0.0018
1943.00,-0.0016
1942.00,-0.0014
1941.00,-0.0013
1940.00,-0.0012
1939.00,-0.0013
1938.00,-0.0013
1937.00,-0.0014
1936.00,-0.0014
1935.00,-0.0014
1934.00,-0.0013
1933.00,-0.0012
1932.00,-0.0011
1931.00,-0.0011
1930.00,-0.0010
1929.00,-0.0009
1928.00,-0.0008
1927.00,-0.0007
1926.00,-0.0006
1925.00,-0.0005
1924.00,-0.0004
1923.00,-0.0003
1922.00,-0.0003
1921.00,-0.0003
1920.00,-0.0004
1919.00,-0.0005
1918.00,-0.0005
1917.00,-0.0004
1916.00,-0.0002
1915.00,-0.0002
1914.00,-0.0002
1913.00,-0.0003
1912.00,-0.0004
1911.00,-0.0003
1910.00,-0.0003
1909.00,-0.0003
1908.00,-0.0002
1907.00,-0.0002
1906.00,-0.0002
1905.00,-0.0003
1904.00,-0.0003
1903.00,-0.0003
1902.00,-0.0003
1901.00,-0.0003
1900.00,-0.0002
1899.00,-0.0002
1898.00,-0.0002
1897.00,-0.0002
1896.00,-0.0001
1895.00,-0.0001
1894.00,-0.0002
1893.00,-0.0003
1892.00,-0.0003
1891.00,-0.0004
1890.00,-0.0003
1889.00,-0.0002
1888.00,-0.0001
1887.00,0.0000
1886.00,0.0000
1885.00,0.0000
1884.00,-0.0000
1883.00,-0.0001
1882.00,-0.0002
1881.00,-0.0002
1880.00,-0.0001
1879.00,-0.0001
1878.00,-0.0001
1877.00,-0.0001
1876.00,-0.0000
1875.00,-0.0000
1874.00,0.0000
1873.00,0.0000
1872.00,0.0000
1871.00,0.0000
1870.00,-0.0000
1869.00,-0.0001
1868.00,-0.0001
1867.00,-0.0001
1866.00,-0.0002
1865.00,-0.0002
1864.00,-0.0001
1863.00,-0.0000
1862.00,-0.0000
1861.00,-0.0000
1860.00,-0.0000
1859.00,0.0000
1858.00,0.0000
1857.00,-0.0000
1856.00,-0.0001
1855.00,-0.0001
1854.00,-0.0001
1853.00,-0.0001
1852.00,-0.0000
1851.00,0.0001
1850.00,0.0001
1849.00,0.0001
1848.00,0.0000
1847.00,-0.0000
1846.00,-0.0001
1845.00,-0.0001
1844.00,-0.0001
1843.00,-0.0001
1842.00,0.0000
1841.00,0.0001
1840.00,0.0001
1839.00,0.0001
1838.00,0.0001
1837.00,0.0001
1836.00,0.0002
1835.00,0.0002
1834.00,0.0003
1833.00,0.0003
1832.00,0.0002
1831.00,0.0002
1830.00,0.0002
1829.00,0.0002
1828.00,0.0002
1827.00,0.0002
1826.00,0.0003
1825.00,0.0003
1824.00,0.0003
1823.00,0.0003
1822.00,0.0003
1821.00,0.0003
1820.00,0.0003
1819.00,0.0002
1818.00,0.0001
1817.00,0.0000
1816.00,0.0000
1815.00,0.0000
1814.00,0.0001
1813.00,0.0001
1812.00,0.0002
1811.00,0.0002
1810.00,0.0003
1809.00,0.0004
1808.00,0.0004
1807.00,0.0005
1806.00,0.0005
1805.00,0.0006
1804.00,0.0005
1803.00,0.0005
1802.00,0.0005
1801.00,0.0004
1800.00,0.0004
1799.00,0.0004
1798.00,0.0005
1797.00,0.0006
1796.00,0.0006
1795.00,0.0006
1794.00,0.0006
1793.00,0.0006
1792.00,0.0006
1791.00,0.0007
1790.00,0.0007
1789.00,0.0008
1788.00,0.0008
1787.00,0.0008
1786.00,0.0008
1785.00,0.0008
1784.00,0.0009
1783.00,0.0008
1782.00,0.0008
1781.00,0.0009
1780.00,0.0009
1779.00,0.0009
1778.00,0.0009
1777.00,0.0009
1776.00,0.0009
1775.00,0.0010
1774.00,0.0011
1773.00,0.0011
1772.00,0.0012
1771.00,0.0013
1770.00,0.0014
1769.00,0.0014
1768.00,0.0015
1767.00,0.0015
1766.00,0.0015
1765.00,0.0014
1764.00,0.0014
1763.00,0.0014
1762.00,0.0015
1761.00,0.0015
1760.00,0.0016
1759.00,0.0017
1758.00,0.0017
1757.00,0.0018
1756.00,0.0019
1755.00,0.0019
1754.00,0.0020
1753.00,0.0021
1752.00,0.0022
1751.00,0.0023
1750.00,0.0023
1749.00,0.0024
1748.00,0.0025
1747.00,0.0025
1746.00,0.0026
1745.00,0.0026
1744.00,0.0026
1743.00,0.0026
1742.00,0.0026
1741.00,0.0027
1740.00,0.0028
1739.00,0.0028
1738.00,0.0029
1737.00,0.0029
1736.00,0.0030
1735.00,0.0030
1734.00,0.0030
1733.00,0.0030
1732.00,0.0030
1731.00,0.0030
1730.00,0.0030
1729.00,0.0030
1728.00,0.0030
1727.00,0.0030
1726.00,0.0030
1725.00,0.0031
1724.00,0.0031
1723.00,0.0031
1722.00,0.0032
1721.00,0.0031
1720.00,0.0031
1719.00,0.0031
1718.00,0.0032
1717.00,0.0032
1716.00,0.0032
1715.00,0.0031
1714.00,0.0030
1713.00,0.0030
1712.00,0.0030
1711.00,0.0030
1710.00,0.0030
1709.00,0.0030
1708.00,0.0030
1707.00,0.0030
1706.00,0.0030
1705.00,0.0030
1704.00,0.0031
1703.00,0.0031
1702.00,0.0032
1701.00,0.0032
1700.00,0.0033
1699.00,0.0033
1698.00,0.0033
1697.00,0.0034
1696.00,0.0034
1695.00,0.0034
1694.00,0.0035
1693.00,0.0035
1692.00,0.0036
1691.00,0.0036
1690.00,0.0037
1689.00,0.0037
1688.00,0.0037
1687.00,0.0037
1686.00,0.0037
1685.00,0.0039
1684.00,0.0041
1683.00,0.0042
1682.00,0.0043
1681.00,0.0044
1680.00,0.0045
1679.00,0.0045
1678.00,0.0046
1677.00,0.0047
1676.00,0.0049
1675.00,0.0051
1674.00,0.0052
1673.00,0.0052
1672.00,0.0053
1671.00,0.0054
1670.00,0.0055
1669.00,0.0056
1668.00,0.0056
1667.00,0.0057
1666.00,0.0057
1665.00,0.0058
1664.00,0.0058
1663.00,0.0059
1662.00,0.0059
1661.00,0.0060
1660.00,0.0060
1659.00,0.0061
1658.00,0.0062
1657.00,0.0063
1656.00,0.0063
1655.00,0.0064
1654.00,0.0064
1653.00,0.0065
1652.00,0.0066
1651.00,0.0067
1650.00,0.0068
1649.00,0.0068
1648.00,0.0070
1647.00,0.0071
1646.00,0.0071
1645.00,0.0073
1644.00,0.0074
1643.00,0.0075
1642.00,0.0077
1641.00,0.0078
1640.00,0.0080
1639.00,0.0081
1638.00,0.0082
1637.00,0.0082
1636.00,0.0083
1635.00,0.0081
1634.00,0.0080
1633.00,0.0079
1632.00,0.0079
1631.00,0.0078
1630.00,0.0078
1629.00,0.0078
1628.00,0.0078
1627.00,0.0078
1626.00,0.0077
1625.00,0.0077
1624.00,0.0076
1623.00,0.0075
1622.00,0.0075
1621.00,0.0074
1620.00,0.0074
1619.00,0.0073
1618.00,0.0073
1617.00,0.0073
1616.00,0.0073
1615.00,0.0073
1614.00,0.0072
1613.00,0.0073
1612.00,0.0074
1611.00,0.0074
1610.00,0.0075
1609.00,0.0076
1608.00,0.0076
1607.00,0.0076
1606.00,0.0075
1605.00,0.0074
1604.00,0.0074
1603.00,0.0074
1602.00,0.0074
1601.00,0.0074
1600.00,0.0074
1599.00,0.0073
1598.00,0.0073
1597.00,0.0072
1596.00,0.0072
1595.00,0.0072
1594.00,0.0072
1593.00,0.0072
1592.00,0.0072
1591.00,0.0072
1590.00,0.0071
1589.00,0.0071
1588.00,0.0071
1587.00,0.0072
1586.00,0.0072
1585.00,0.0074
1584.00,0.0075
1583.00,0.0076
1582.00,0.0078
1581.00,0.0079
1580.00,0.0081
1579.00,0.0082
1578.00,0.0083
1577.00,0.0083
1576.00,0.0084
1575.00,0.0083
1574.00,0.0082
1573.00,0.0082
1572.00,0.0081
1571.00,0.0080
1570.00,0.0079
1569.00,0.0080
1568.00,0.0080
1567.00,0.0080
1566.00,0.0080
1565.00,0.0081
1564.00,0.0081
1563.00,0.0081
1562.00,0.0081
1561.00,0.0082
1560.00,0.0082
1559.00,0.0082
1558.00,0.0081
1557.00,0.0081
1556.00,0.0081
1555.00,0.0082
1554.00,0.0082
1553.00,0.0083
1552.00,0.0084
1551.00,0.0085
1550.00,0.0087
1549.00,0.0088
1548.00,0.0089
1547.00,0.0090
1546.00,0.0091
1545.00,0.0092
1544.00,0.0094
1543.00,0.0094
1542.00,0.0094
1541.00,0.0094
1540.00,0.0093
1539.00,0.0091
1538.00,0.0088
1537.00,0.0086
1536.00,0.0084
1535.00,0.0081
1534.00,0.0078
1533.00,0.0075
1532.00,0.0073
1531.00,0.0072
1530.00,0.0070
1529.00,0.0070
1528.00,0.0069
1527.00,0.0068
1526.00,0.0067
1525.00,0.0066
1524.00,0.0065
1523.00,0.0065
1522.00,0.0064
1521.00,0.0064
1520.00,0.0064
1519.00,0.0064
1518.00,0.0064
1517.00,0.0064
1516.00,0.0065
1515.00,0.0065
1514.00,0.0065
1513.00,0.0066
1512.00,0.0067
1511.00,0.0067
1510.00,0.0067
1509.00,0.0068
1508.00,0.0069
1507.00,0.0070
1506.00,0.0070
1505.00,0.0072
1504.00,0.0074
1503.00,0.0076
1502.00,0.0078
1501.00,0.0080
1500.00,0.0083
1499.00,0.0086
1498.00,0.0089
1497.00,0.0093
1496.00,0.0099
1495.00,0.0103
1494.00,0.0106
1493.00,0.0110
1492.00,0.0114
1491.00,0.0118
1490.00,0.0121
1489.00,0.0127
1488.00,0.0132
1487.00,0.0138
1486.00,0.0143
1485.00,0.0150
1484.00,0.0157
1483.00,0.0165
1482.00,0.0174
1481.00,0.0186
1480.00,0.0198
1479.00,0.0211
1478.00,0.0226
1477.00,0.0247
1476.00,0.0273
1475.00,0.0303
1474.00,0.0342
1473.00,0.0397
1472.00,0.0461
1471.00,0.0524
1470.00,0.0585
1469.00,0.0650
1468.00,0.0720
1467.00,0.0796
1466.00,0.0883
1465.00,0.0975
1464.00,0.1055
1463.00,0.1109
1462.00,0.1143
1461.00,0.1166
1460.00,0.1181
1459.00,0.1190
1458.00,0.1197
1457.00,0.1201
1456.00,0.1197
1455.00,0.1187
1454.00,0.1174
1453.00,0.1158
1452.00,0.1133
1451.00,0.1099
1450.00,0.1052
1449.00,0.0986
1448.00,0.0900
1447.00,0.0808
1446.00,0.0724
1445.00,0.0650
1444.00,0.0586
1443.00,0.0535
1442.00,0.0496
1441.00,0.0469
1440.00,0.0452
1439.00,0.0445
1438.00,0.0446
1437.00,0.0449
1436.00,0.0440
1435.00,0.0417
1434.00,0.0382
1433.00,0.0340
1432.00,0.0296
1431.00,0.0257
1430.00,0.0226
1429.00,0.0203
1428.00,0.0187
1427.00,0.0177
1426.00,0.0171
1425.00,0.0165
1424.00,0.0159
1423.00,0.0155
1422.00,0.0153
1421.00,0.0151
1420.00,0.0147
1419.00,0.0144
1418.00,0.0142
1417.00,0.0138
1416.00,0.0135
1415.00,0.0133
1414.00,0.0132
1413.00,0.0131
1412.00,0.0129
1411.00,0.0127
1410.00,0.0126
1409.00,0.0124
1408.00,0.0123
1407.00,0.0123
1406.00,0.0123
1405.00,0.0123
1404.00,0.0122
1403.00,0.0122
1402.00,0.0123
1401.00,0.0123
1400.00,0.0124
1399.00,0.0126
1398.00,0.0128
1397.00,0.0130
1396.00,0.0132
1395.00,0.0135
1394.00,0.0139
1393.00,0.0144
1392.00,0.0149
1391.00,0.0156
1390.00,0.0166
1389.00,0.0179
1388.00,0.0198
1387.00,0.0227
1386.00,0.0266
1385.00,0.0318
1384.00,0.0391
1383.00,0.0492
1382.00,0.0630
1381.00,0.0809
1380.00,0.1033
1379.00,0.1297
1378.00,0.1562
1377.00,0.1768
1376.00,0.1854
1375.00,0.1779
1374.00,0.1568
1373.00,0.1303
1372.00,0.1055
1371.00,0.0848
1370.00,0.0683
1369.00,0.0558
1368.00,0.0472
1367.00,0.0418
1366.00,0.0388
1365.00,0.0376
1364.00,0.0378
1363.00,0.0391
1362.00,0.0411
1361.00,0.0434
1360.00,0.0451
1359.00,0.0456
1358.00,0.0446
1357.00,0.0421
1356.00,0.0386
1355.00,0.0345
1354.00,0.0306
1353.00,0.0273
1352.00,0.0246
1351.00,0.0224
1350.00,0.0206
1349.00,0.0192
1348.00,0.0180
1347.00,0.0170
1346.00,0.0161
1345.00,0.0153
1344.00,0.0147
1343.00,0.0142
1342.00,0.0138
1341.00,0.0134
1340.00,0.0131
1339.00,0.0129
1338.00,0.0128
1337.00,0.0127
1336.00,0.0127
1335.00,0.0129
1334.00,0.0131
1333.00,0.0135
1332.00,0.0139
1331.00,0.0142
1330.00,0.0144
1329.00,0.0143
1328.00,0.0140
1327.00,0.0135
1326.00,0.0130
1325.00,0.0125
1324.00,0.0120
1323.00,0.0115
1322.00,0.0111
1321.00,0.0108
1320.00,0.0106
1319.00,0.0104
1318.00,0.0102
1317.00,0.0101
1316.00,0.0099
1315.00,0.0098
1314.00,0.0098
1313.00,0.0098
1312.00,0.0099
1311.00,0.0101
1310.00,0.0105
1309.00,0.0111
1308.00,0.0120
1307.00,0.0131
1306.00,0.0141
1305.00,0.0148
1304.00,0.0150
1303.00,0.0147
1302.00,0.0141
1301.00,0.0137
1300.00,0.0134
1299.00,0.0134
1298.00,0.0134
1297.00,0.0134
1296.00,0.0134
1295.00,0.0131
1294.00,0.0128
1293.00,0.0123
1292.00,0.0118
1291.00,0.0114
1290.00,0.0110
1289.00,0.0107
1288.00,0.0104
1287.00,0.0101
1286.00,0.0099
1285.00,0.0097
1284.00,0.0095
1283.00,0.0093
1282.00,0.0092
1281.00,0.0091
1280.00,0.0090
1279.00,0.0090
1278.00,0.0089
1277.00,0.0089
1276.00,0.0089
1275.00,0.0088
1274.00,0.0088
1273.00,0.0089
1272.00,0.0090
1271.00,0.0092
1270.00,0.0095
1269.00,0.0097
1268.00,0.0099
1267.00,0.0102
1266.00,0.0105
1265.00,0.0109
1264.00,0.0112
1263.00,0.0115
1262.00,0.0118
1261.00,0.0121
1260.00,0.0126
1259.00,0.0131
1258.00,0.0136
1257.00,0.0140
1256.00,0.0142
1255.00,0.0139
1254.00,0.0133
1253.00,0.0125
1252.00,0.0118
1251.00,0.0111
1250.00,0.0106
1249.00,0.0102
1248.00,0.0099
1247.00,0.0097
1246.00,0.0095
1245.00,0.0094
1244.00,0.0093
1243.00,0.0092
1242.00,0.0091
1241.00,0.0090
1240.00,0.0090
1239.00,0.0089
1238.00,0.0089
1237.00,0.0089
1236.00,0.0090
1235.00,0.0091
1234.00,0.0092
1233.00,0.0092
1232.00,0.0093
1231.00,0.0093
1230.00,0.0094
1229.00,0.0095
1228.00,0.0097
1227.00,0.0098
1226.00,0.0100
1225.00,0.0103
1224.00,0.0106
1223.00,0.0110
1222.00,0.0114
1221.00,0.0117
1220.00,0.0119
1219.00,0.0120
1218.00,0.0119
1217.00,0.0117
1216.00,0.0113
1215.00,0.0110
1214.00,0.0106
1213.00,0.0103
1212.00,0.0101
1211.00,0.0099
1210.00,0.0097
1209.00,0.0096
1208.00,0.0095
1207.00,0.0095
1206.00,0.0095
1205.00,0.0094
1204.00,0.0094
1203.00,0.0094
1202.00,0.0095
1201.00,0.0096
1200.00,0.0097
1199.00,0.0098
1198.00,0.0098
1197.00,0.0099
1196.00,0.0099
1195.00,0.0099
1194.00,0.0099
1193.00,0.0099
1192.00,0.0098
1191.00,0.0098
1190.00,0.0098
1189.00,0.0097
1188.00,0.0097
1187.00,0.0096
1186.00,0.0096
1185.00,0.0096
1184.00,0.0096
1183.00,0.0097
1182.00,0.0098
1181.00,0.0099
1180.00,0.0102
1179.00,0.0105
1178.00,0.0111
1177.00,0.0118
1176.00,0.0128
1175.00,0.0141
1174.00,0.0159
1173.00,0.0182
1172.00,0.0209
1171.00,0.0239
1170.00,0.0270
1169.00,0.0296
1168.00,0.0311
1167.00,0.0314
1166.00,0.0307
1165.00,0.0293
1164.00,0.0277
1163.00,0.0261
1162.00,0.0247
1161.00,0.0235
1160.00,0.0225
1159.00,0.0218
1158.00,0.0213
1157.00,0.0210
1156.00,0.0208
1155.00,0.0207
1154.00,0.0205
1153.00,0.0203
1152.00,0.0199
1151.00,0.0193
1150.00,0.0185
1149.00,0.0176
1148.00,0.0167
1147.00,0.0158
1146.00,0.0149
1145.00,0.0141
1144.00,0.0134
1143.00,0.0129
1142.00,0.0124
1141.00,0.0119
1140.00,0.0115
1139.00,0.0111
1138.00,0.0107
1137.00,0.0104
1136.00,0.0102
1135.00,0.0100
1134.00,0.0099
1133.00,0.0098
1132.00,0.0097
1131.00,0.0098
1130.00,0.0099
1129.00,0.0100
1128.00,0.0100
1127.00,0.0101
1126.00,0.0102
1125.00,0.0102
1124.00,0.0102
1123.00,0.0103
1122.00,0.0104
1121.00,0.0106
1120.00,0.0107
1119.00,0.0109
1118.00,0.0111
1117.00,0.0112
1116.00,0.0114
1115.00,0.0116
1114.00,0.0117
1113.00,0.0118
1112.00,0.0119
1111.00,0.0119
1110.00,0.0121
1109.00,0.0125
1108.00,0.0130
1107.00,0.0136
1106.00,0.0143
1105.00,0.0149
1104.00,0.0154
1103.00,0.0156
1102.00,0.0155
1101.00,0.0151
1100.00,0.0146
1099.00,0.0140
1098.00,0.0135
1097.00,0.0130
1096.00,0.0126
1095.00,0.0123
1094.00,0.0120
1093.00,0.0118
1092.00,0.0116
1091.00,0.0114
1090.00,0.0112
1089.00,0.0110
1088.00,0.0109
1087.00,0.0109
1086.00,0.0109
1085.00,0.0109
1084.00,0.0109
1083.00,0.0108
1082.00,0.0108
1081.00,0.0107
1080.00,0.0106
1079.00,0.0104
1078.00,0.0103
1077.00,0.0102
1076.00,0.0101
1075.00,0.0101
1074.00,0.0101
1073.00,0.0100
1072.00,0.0099
1071.00,0.0098
1070.00,0.0097
1069.00,0.0096
1068.00,0.0096
1067.00,0.0096
1066.00,0.0096
1065.00,0.0097
1064.00,0.0099
1063.00,0.0099
1062.00,0.0100
1061.00,0.0101
1060.00,0.0103
1059.00,0.0104
1058.00,0.0105
1057.00,0.0107
1056.00,0.0108
1055.00,0.0110
1054.00,0.0111
1053.00,0.0113
1052.00,0.0115
1051.00,0.0119
1050.00,0.0123
1049.00,0.0128
1048.00,0.0133
1047.00,0.0138
1046.00,0.0142
1045.00,0.0145
1044.00,0.0145
1043.00,0.0144
1042.00,0.0143
1041.00,0.0141
1040.00,0.0140
1039.00,0.0139
1038.00,0.0138
1037.00,0.0138
1036.00,0.0138
1035.00,0.0138
1034.00,0.0137
1033.00,0.0136
1032.00,0.0135
1031.00,0.0134
1030.00,0.0134
1029.00,0.0134
1028.00,0.0134
1027.00,0.0135
1026.00,0.0136
1025.00,0.0138
1024.00,0.0139
1023.00,0.0141
1022.00,0.0143
1021.00,0.0146
1020.00,0.0148
1019.00,0.0149
1018.00,0.0149
1017.00,0.0150
1016.00,0.0149
1015.00,0.0149
1014.00,0.0149
1013.00,0.0150
1012.00,0.0150
1011.00,0.0150
1010.00,0.0149
1009.00,0.0149
1008.00,0.0150
1007.00,0.0154
1006.00,0.0160
1005.00,0.0169
1004.00,0.0183
1003.00,0.0203
1002.00,0.0231
1001.00,0.0266
1000.00,0.0304
999.00,0.0335
998.00,0.0350
997.00,0.0343
996.00,0.0315
995.00,0.0277
994.00,0.0237
993.00,0.0203
992.00,0.0177
991.00,0.0159
990.00,0.0146
989.00,0.0138
988.00,0.0131
987.00,0.0127
986.00,0.0125
985.00,0.0126
984.00,0.0129
983.00,0.0135
982.00,0.0145
981.00,0.0159
980.00,0.0179
979.00,0.0205
978.00,0.0238
977.00,0.0277
976.00,0.0319
975.00,0.0359
974.00,0.0389
973.00,0.0400
972.00,0.0387
971.00,0.0352
970.00,0.0305
969.00,0.0256
968.00,0.0213
967.00,0.0180
966.00,0.0156
965.00,0.0140
964.00,0.0128
963.00,0.0120
962.00,0.0114
961.00,0.0110
960.00,0.0106
959.00,0.0102
958.00,0.0099
957.00,0.0096
956.00,0.0093
955.00,0.0090
954.00,0.0088
953.00,0.0086
952.00,0.0085
951.00,0.0084
950.00,0.0084
949.00,0.0084
948.00,0.0084
947.00,0.0085
946.00,0.0087
945.00,0.0089
944.00,0.0092
943.00,0.0096
942.00,0.0099
941.00,0.0101
940.00,0.0101
939.00,0.0099
938.00,0.0094
937.00,0.0089
936.00,0.0084
935.00,0.0081
934.00,0.0078
933.00,0.0075
932.00,0.0073
931.00,0.0071
930.00,0.0070
929.00,0.0069
928.00,0.0068
927.00,0.0068
926.00,0.0069
925.00,0.0069
924.00,0.0070
923.00,0.0070
922.00,0.0070
921.00,0.0070
920.00,0.0070
919.00,0.0070
918.00,0.0070
917.00,0.0070
916.00,0.0071
915.00,0.0072
914.00,0.0072
913.00,0.0072
912.00,0.0073
911.00,0.0074
910.00,0.0076
909.00,0.0078
908.00,0.0081
907.00,0.0085
906.00,0.0093
905.00,0.0103
904.00,0.0117
903.00,0.0134
902.00,0.0153
901.00,0.0171
900.00,0.0183
899.00,0.0186
898.00,0.0179
897.00,0.0164
896.00,0.0145
895.00,0.0128
894.00,0.0114
893.00,0.0103
892.00,0.0096
891.00,0.0090
890.00,0.0086
889.00,0.0083
888.00,0.0081
887.00,0.0079
886.00,0.0080
885.00,0.0081
884.00,0.0082
883.00,0.0082
882.00,0.0082
881.00,0.0082
880.00,0.0083
879.00,0.0085
878.00,0.0086
877.00,0.0087
876.00,0.0087
875.00,0.0086
874.00,0.0086
873.00,0.0085
872.00,0.0085
871.00,0.0084
870.00,0.0084
869.00,0.0083
868.00,0.0083
867.00,0.0083
866.00,0.0084
865.00,0.0084
864.00,0.0085
863.00,0.0087
862.00,0.0088
861.00,0.0089
860.00,0.0090
859.00,0.0090
858.00,0.0090
857.00,0.0092
856.00,0.0093
855.00,0.0095
854.00,0.0097
853.00,0.0099
852.00,0.0101
851.00,0.0105
850.00,0.0110
849.00,0.0117
848.00,0.0126
847.00,0.0137
846.00,0.0154
845.00,0.0182
844.00,0.0222
843.00,0.0271
842.00,0.0315
841.00,0.0334
840.00,0.0317
839.00,0.0274
838.00,0.0223
837.00,0.0180
836.00,0.0152
835.00,0.0135
834.00,0.0125
833.00,0.0119
832.00,0.0115
831.00,0.0112
830.00,0.0110
829.00,0.0108
828.00,0.0107
827.00,0.0105
826.00,0.0104
825.00,0.0104
824.00,0.0105
823.00,0.0106
822.00,0.0108
821.00,0.0110
820.00,0.0113
819.00,0.0116
818.00,0.0120
817.00,0.0127
816.00,0.0136
815.00,0.0148
814.00,0.0163
813.00,0.0181
812.00,0.0200
811.00,0.0218
810.00,0.0233
809.00,0.0239
808.00,0.0236
807.00,0.0222
806.00,0.0203
805.00,0.0183
804.00,0.0166
803.00,0.0153
802.00,0.0144
801.00,0.0137
800.00,0.0132
799.00,0.0127
798.00,0.0122
797.00,0.0118
796.00,0.0114
795.00,0.0109
794.00,0.0106
793.00,0.0103
792.00,0.0101
791.00,0.0099
790.00,0.0096
789.00,0.0092
788.00,0.0088
787.00,0.0085
786.00,0.0084
785.00,0.0083
784.00,0.0082
783.00,0.0080
782.00,0.0078
781.00,0.0076
780.00,0.0074
779.00,0.0073
778.00,0.0073
777.00,0.0073
776.00,0.0074
775.00,0.0074
774.00,0.0074
773.00,0.0073
772.00,0.0073
771.00,0.0072
770.00,0.0073
769.00,0.0074
768.00,0.0075
767.00,0.0076
766.00,0.0076
765.00,0.0076
764.00,0.0076
763.00,0.0075
762.00,0.0075
761.00,0.0075
760.00,0.0075
759.00,0.0076
758.00,0.0077
757.00,0.0079
756.00,0.0080
755.00,0.0082
754.00,0.0085
753.00,0.0087
752.00,0.0089
751.00,0.0090
750.00,0.0091
749.00,0.0092
748.00,0.0093
747.00,0.0096
746.00,0.0097
745.00,0.0099
744.00,0.0100
743.00,0.0101
742.00,0.0103
741.00,0.0107
740.00,0.0111
739.00,0.0115
738.00,0.0118
737.00,0.0121
736.00,0.0124
735.00,0.0128
734.00,0.0135
733.00,0.0142
732.00,0.0150
731.00,0.0156
730.00,0.0162
729.00,0.0165
728.00,0.0167
727.00,0.0168
726.00,0.0171
725.00,0.0175
724.00,0.0180
723.00,0.0186
722.00,0.0192
721.00,0.0194
720.00,0.0191
719.00,0.0183
718.00,0.0171
717.00,0.0158
716.00,0.0148
715.00,0.0139
714.00,0.0133
713.00,0.0128
712.00,0.0124
711.00,0.0121
710.00,0.0118
709.00,0.0118
708.00,0.0118
707.00,0.0118
706.00,0.0118
705.00,0.0118
704.00,0.0118
703.00,0.0116
702.00,0.0114
701.00,0.0110
700.00,0.0105
699.00,0.0102
698.00,0.0101
697.00,0.0101
696.00,0.0104
695.00,0.0107
694.00,0.0109
693.00,0.0110
692.00,0.0110
691.00,0.0111
690.00,0.0111
689.00,0.0110
688.00,0.0107
687.00,0.0104
686.00,0.0103
685.00,0.0103
684.00,0.0104
683.00,0.0106
682.00,0.0106
681.00,0.0106
680.00,0.0106
679.00,0.0107
678.00,0.0109
677.00,0.0110
676.00,0.0112
675.00,0.0114
674.00,0.0115
673.00,0.0114
672.00,0.0113
671.00,0.0112
670.00,0.0112
669.00,0.0113
668.00,0.0115
667.00,0.0116
666.00,0.0114
665.00,0.0112
664.00,0.0111
663.00,0.0109
662.00,0.0108
661.00,0.0106
660.00,0.0103
659.00,0.0102
658.00,0.0100
657.00,0.0100
656.00,0.0100
655.00,0.0101
654.00,0.0102
653.00,0.0101
652.00,0.0100
651.00,0.0097
650.00,0.0094
649.00,0.0093
648.00,0.0093
647.00,0.0093
646.00,0.0093
645.00,0.0093
644.00,0.0092
643.00,0.0091
642.00,0.0092
641.00,0.0094
640.00,0.0095
639.00,0.0097
638.00,0.0097
637.00,0.0097
636.00,0.0096
635.00,0.0096
634.00,0.0096
633.00,0.0098
632.00,0.0099
631.00,0.0099
630.00,0.0098
629.00,0.0096
628.00,0.0094
627.00,0.0093
626.00,0.0093
625.00,0.0096
624.00,0.0100
623.00,0.0103
622.00,0.0103
621.00,0.0100
620.00,0.0097
619.00,0.0096
618.00,0.0098
617.00,0.0101
616.00,0.0100
615.00,0.0098
614.00,0.0096
613.00,0.0095
612.00,0.0096
611.00,0.0097
610.00,0.0096
609.00,0.0094
608.00,0.0092
607.00,0.0090
606.00,0.0090
605.00,0.0092
604.00,0.0095
603.00,0.0097
602.00,0.0096
601.00,0.0094
600.00,0.0093
599.00,0.0095
598.00,0.0096
597.00,0.0096
596.00,0.0094
595.00,0.0093
594.00,0.0092
593.00,0.0092
592.00,0.0092
591.00,0.0092
590.00,0.0091
589.00,0.0090
588.00,0.0089
587.00,0.0089
586.00,0.0088
585.00,0.0088
584.00,0.0089
583.00,0.0092
582.00,0.0095
581.00,0.0095
580.00,0.0094
579.00,0.0091
578.00,0.0089
577.00,0.0088
576.00,0.0088
575.00,0.0089
574.00,0.0091
573.00,0.0092
572.00,0.0093
571.00,0.0094
570.00,0.0095
569.00,0.0098
568.00,0.0101
567.00,0.0102
566.00,0.0100
565.00,0.0098
564.00,0.0096
563.00,0.0095
562.00,0.0095
561.00,0.0094
560.00,0.0091
559.00,0.0087
558.00,0.0082
557.00,0.0080
556.00,0.0083
555.00,0.0088
554.00,0.0091
553.00,0.0093
552.00,0.0095
551.00,0.0096
550.00,0.0097
549.00,0.0097
548.00,0.0096
547.00,0.0097
546.00,0.0100
545.00,0.0103
544.00,0.0104
543.00,0.0103
542.00,0.0102
541.00,0.0103
540.00,0.0109
539.00,0.0116
538.00,0.0122
537.00,0.0124
536.00,0.0123
535.00,0.0122
534.00,0.0121
533.00,0.0121
532.00,0.0121
531.00,0.0121
530.00,0.0121
529.00,0.0122
528.00,0.0123
527.00,0.0122
526.00,0.0119
525.00,0.0113
524.00,0.0106
523.00,0.0099
522.00,0.0094
521.00,0.0092
520.00,0.0093
519.00,0.0097
518.00,0.0103
517.00,0.0107
516.00,0.0109
515.00,0.0107
514.00,0.0102
513.00,0.0095
512.00,0.0090
511.00,0.0086
510.00,0.0085
509.00,0.0087
508.00,0.0091
507.00,0.0095
506.00,0.0096
505.00,0.0095
504.00,0.0093
503.00,0.0094
502.00,0.0096
501.00,0.0097
500.00,0.0098
499.00,0.0098
498.00,0.0099
497.00,0.0099
496.00,0.0096
495.00,0.0090
494.00,0.0084
493.00,0.0082
492.00,0.0086
491.00,0.0095
490.00,0.0103
489.00,0.0105
488.00,0.0100
487.00,0.0092
486.00,0.0084
485.00,0.0080
484.00,0.0081
483.00,0.0087
482.00,0.0095
481.00,0.0100
480.00,0.0101
479.00,0.0106
478.00,0.0117
477.00,0.0131
476.00,0.0142
475.00,0.0146
474.00,0.0144
473.00,0.0144
472.00,0.0151
471.00,0.0164
470.00,0.0175
469.00,0.0182
468.00,0.0182
467.00,0.0178
466.00,0.0174
465.00,0.0176
464.00,0.0187
463.00,0.0202
462.00,0.0216
461.00,0.0226
460.00,0.0236
459.00,0.0244
458.00,0.0243
457.00,0.0228
456.00,0.0210
455.00,0.0197
454.00,0.0191
453.00,0.0186
452.00,0.0181
451.00,0.0172
450.00,0.0162
