Created as New Dataset,Sample 233 By Administrator Date Wednesday, September 03 2025
cm-1,A
4000.00,0.0008
3999.00,0.0008
3998.00,0.0008
3997.00,0.0008
3996.00,0.0008
3995.00,0.0008
3994.00,0.0008
3993.00,0.0008
3992.00,0.0008
3991.00,0.0008
3990.00,0.0008
3989.00,0.0008
3988.00,0.0008
3987.00,0.0008
3986.00,0.0008
3985.00,0.0008
3984.00,0.0007
3983.00,0.0007
3982.00,0.0007
3981.00,0.0007
3980.00,0.0007
3979.00,0.0007
3978.00,0.0007
3977.00,0.0007
3976.00,0.0007
3975.00,0.0007
3974.00,0.0007
3973.00,0.0007
3972.00,0.0007
3971.00,0.0007
3970.00,0.0007
3969.00,0.0007
3968.00,0.0007
3967.00,0.0007
3966.00,0.0008
3965.00,0.0008
3964.00,0.0008
3963.00,0.0007
3962.00,0.0007
3961.00,0.0006
3960.00,0.0006
3959.00,0.0005
3958.00,0.0005
3957.00,0.0005
3956.00,0.0006
3955.00,0.0006
3954.00,0.0006
3953.00,0.0006
3952.00,0.0006
3951.00,0.0006
3950.00,0.0006
3949.00,0.0005
3948.00,0.0005
3947.00,0.0005
3946.00,0.0006
3945.00,0.0006
3944.00,0.0006
3943.00,0.0006
3942.00,0.0006
3941.00,0.0006
3940.00,0.0006
3939.00,0.0006
3938.00,0.0006
3937.00,0.0007
3936.00,0.0007
3935.00,0.0007
3934.00,0.0007
3933.00,0.0007
3932.00,0.0007
3931.00,0.0007
3930.00,0.0007
3929.00,0.0007
3928.00,0.0007
3927.00,0.0006
3926.00,0.0006
3925.00,0.0006
3924.00,0.0006
3923.00,0.0006
3922.00,0.0007
3921.00,0.0007
3920.00,0.0007
3919.00,0.0007
3918.00,0.0007
3917.00,0.0006
3916.00,0.0006
3915.00,0.0006
3914.00,0.0007
3913.00,0.0007
3912.00,0.0006
3911.00,0.0006
3910.00,0.0006
3909.00,0.0006
3908.00,0.0006
3907.00,0.0006
3906.00,0.0006
3905.00,0.0006
3904.00,0.0005
3903.00,0.0005
3902.00,0.0005
3901.00,0.0005
3900.00,0.0005
3899.00,0.0005
3898.00,0.0006
3897.00,0.0006
3896.00,0.0006
3895.00,0.0006
3894.00,0.0006
3893.00,0.0006
3892.00,0.0006
3891.00,0.0006
3890.00,0.0006
3889.00,0.0006
3888.00,0.0006
3887.00,0.0006
3886.00,0.0006
3885.00,0.0006
3884.00,0.0005
3883.00,0.0005
3882.00,0.0005
3881.00,0.0005
3880.00,0.0005
3879.00,0.0005
3878.00,0.0006
3877.00,0.0006
3876.00,0.0006
3875.00,0.0006
3874.00,0.0007
3873.00,0.0007
3872.00,0.0006
3871.00,0.0006
3870.00,0.0006
3869.00,0.0006
3868.00,0.0005
3867.00,0.0005
3866.00,0.0005
3865.00,0.0005
3864.00,0.0005
3863.00,0.0005
3862.00,0.0005
3861.00,0.0005
3860.00,0.0005
3859.00,0.0006
3858.00,0.0006
3857.00,0.0006
3856.00,0.0005
3855.00,0.0005
3854.00,0.0004
3853.00,0.0004
3852.00,0.0003
3851.00,0.0003
3850.00,0.0004
3849.00,0.0004
3848.00,0.0005
3847.00,0.0005
3846.00,0.0005
3845.00,0.0005
3844.00,0.0005
3843.00,0.0004
3842.00,0.0004
3841.00,0.0004
3840.00,0.0004
3839.00,0.0005
3838.00,0.0005
3837.00,0.0005
3836.00,0.0005
3835.00,0.0004
3834.00,0.0004
3833.00,0.0004
3832.00,0.0005
3831.00,0.0005
3830.00,0.0005
3829.00,0.0005
3828.00,0.0005
3827.00,0.0005
3826.00,0.0005
3825.00,0.0004
3824.00,0.0003
3823.00,0.0003
3822.00,0.0004
3821.00,0.0005
3820.00,0.0005
3819.00,0.0005
3818.00,0.0005
3817.00,0.0005
3816.00,0.0006
3815.00,0.0005
3814.00,0.0005
3813.00,0.0005
3812.00,0.0006
3811.00,0.0006
3810.00,0.0006
3809.00,0.0006
3808.00,0.0005
3807.00,0.0006
3806.00,0.0006
3805.00,0.0006
3804.00,0.0006
3803.00,0.0006
3802.00,0.0007
3801.00,0.0007
3800.00,0.0006
3799.00,0.0006
3798.00,0.0005
3797.00,0.0005
3796.00,0.0005
3795.00,0.0005
3794.00,0.0005
3793.00,0.0005
3792.00,0.0006
3791.00,0.0006
3790.00,0.0006
3789.00,0.0006
3788.00,0.0006
3787.00,0.0006
3786.00,0.0006
3785.00,0.0006
3784.00,0.0006
3783.00,0.0006
3782.00,0.0006
3781.00,0.0006
3780.00,0.0006
3779.00,0.0006
3778.00,0.0006
3777.00,0.0006
3776.00,0.0006
3775.00,0.0006
3774.00,0.0006
3773.00,0.0006
3772.00,0.0006
3771.00,0.0006
3770.00,0.0006
3769.00,0.0006
3768.00,0.0006
3767.00,0.0006
3766.00,0.0006
3765.00,0.0006
3764.00,0.0006
3763.00,0.0006
3762.00,0.0006
3761.00,0.0006
3760.00,0.0006
3759.00,0.0006
3758.00,0.0006
3757.00,0.0006
3756.00,0.0006
3755.00,0.0006
3754.00,0.0006
3753.00,0.0006
3752.00,0.0006
3751.00,0.0006
3750.00,0.0005
3749.00,0.0005
3748.00,0.0004
3747.00,0.0004
3746.00,0.0004
3745.00,0.0004
3744.00,0.0005
3743.00,0.0004
3742.00,0.0004
3741.00,0.0004
3740.00,0.0004
3739.00,0.0004
3738.00,0.0004
3737.00,0.0004
3736.00,0.0004
3735.00,0.0003
3734.00,0.0003
3733.00,0.0003
3732.00,0.0004
3731.00,0.0004
3730.00,0.0005
3729.00,0.0005
3728.00,0.0005
3727.00,0.0005
3726.00,0.0005
3725.00,0.0005
3724.00,0.0004
3723.00,0.0004
3722.00,0.0003
3721.00,0.0003
3720.00,0.0003
3719.00,0.0004
3718.00,0.0004
3717.00,0.0004
3716.00,0.0004
3715.00,0.0003
3714.00,0.0003
3713.00,0.0003
3712.00,0.0003
3711.00,0.0003
3710.00,0.0003
3709.00,0.0002
3708.00,0.0002
3707.00,0.0003
3706.00,0.0003
3705.00,0.0003
3704.00,0.0004
3703.00,0.0004
3702.00,0.0004
3701.00,0.0004
3700.00,0.0004
3699.00,0.0003
3698.00,0.0003
3697.00,0.0004
3696.00,0.0004
3695.00,0.0003
3694.00,0.0003
3693.00,0.0003
3692.00,0.0003
3691.00,0.0003
3690.00,0.0003
3689.00,0.0002
3688.00,0.0002
3687.00,0.0002
3686.00,0.0002
3685.00,0.0003
3684.00,0.0003
3683.00,0.0003
3682.00,0.0003
3681.00,0.0004
3680.00,0.0004
3679.00,0.0004
3678.00,0.0004
3677.00,0.0004
3676.00,0.0004
3675.00,0.0003
3674.00,0.0002
3673.00,0.0001
3672.00,0.0001
3671.00,0.0001
3670.00,0.0001
3669.00,0.0002
3668.00,0.0002
3667.00,0.0002
3666.00,0.0003
3665.00,0.0003
3664.00,0.0003
3663.00,0.0003
3662.00,0.0003
3661.00,0.0003
3660.00,0.0003
3659.00,0.0003
3658.00,0.0003
3657.00,0.0003
3656.00,0.0003
3655.00,0.0003
3654.00,0.0002
3653.00,0.0002
3652.00,0.0001
3651.00,0.0002
3650.00,0.0003
3649.00,0.0003
3648.00,0.0004
3647.00,0.0004
3646.00,0.0003
3645.00,0.0003
3644.00,0.0003
3643.00,0.0003
3642.00,0.0002
3641.00,0.0002
3640.00,0.0002
3639.00,0.0003
3638.00,0.0003
3637.00,0.0003
3636.00,0.0003
3635.00,0.0002
3634.00,0.0002
3633.00,0.0002
3632.00,0.0002
3631.00,0.0001
3630.00,0.0001
3629.00,0.0001
3628.00,0.0001
3627.00,0.0001
3626.00,0.0002
3625.00,0.0002
3624.00,0.0003
3623.00,0.0003
3622.00,0.0003
3621.00,0.0002
3620.00,0.0002
3619.00,0.0002
3618.00,0.0002
3617.00,0.0002
3616.00,0.0002
3615.00,0.0002
3614.00,0.0003
3613.00,0.0003
3612.00,0.0003
3611.00,0.0003
3610.00,0.0003
3609.00,0.0003
3608.00,0.0003
3607.00,0.0003
3606.00,0.0003
3605.00,0.0004
3604.00,0.0004
3603.00,0.0004
3602.00,0.0004
3601.00,0.0004
3600.00,0.0004
3599.00,0.0004
3598.00,0.0004
3597.00,0.0004
3596.00,0.0003
3595.00,0.0003
3594.00,0.0003
3593.00,0.0003
3592.00,0.0003
3591.00,0.0003
3590.00,0.0003
3589.00,0.0003
3588.00,0.0003
3587.00,0.0003
3586.00,0.0003
3585.00,0.0003
3584.00,0.0003
3583.00,0.0004
3582.00,0.0004
3581.00,0.0004
3580.00,0.0003
3579.00,0.0003
3578.00,0.0003
3577.00,0.0004
3576.00,0.0004
3575.00,0.0004
3574.00,0.0004
3573.00,0.0004
3572.00,0.0004
3571.00,0.0004
3570.00,0.0004
3569.00,0.0004
3568.00,0.0005
3567.00,0.0005
3566.00,0.0005
3565.00,0.0005
3564.00,0.0005
3563.00,0.0005
3562.00,0.0005
3561.00,0.0005
3560.00,0.0005
3559.00,0.0005
3558.00,0.0005
3557.00,0.0005
3556.00,0.0006
3555.00,0.0006
3554.00,0.0006
3553.00,0.0006
3552.00,0.0006
3551.00,0.0006
3550.00,0.0006
3549.00,0.0006
3548.00,0.0006
3547.00,0.0006
3546.00,0.0006
3545.00,0.0006
3544.00,0.0007
3543.00,0.0007
3542.00,0.0007
3541.00,0.0007
3540.00,0.0007
3539.00,0.0007
3538.00,0.0007
3537.00,0.0007
3536.00,0.0007
3535.00,0.0007
3534.00,0.0008
3533.00,0.0008
3532.00,0.0008
3531.00,0.0008
3530.00,0.0008
3529.00,0.0008
3528.00,0.0008
3527.00,0.0008
3526.00,0.0008
3525.00,0.0008
3524.00,0.0008
3523.00,0.0008
3522.00,0.0009
3521.00,0.0009
3520.00,0.0009
3519.00,0.0009
3518.00,0.0009
3517.00,0.0009
3516.00,0.0009
3515.00,0.0009
3514.00,0.0009
3513.00,0.0009
3512.00,0.0010
3511.00,0.0010
3510.00,0.0010
3509.00,0.0010
3508.00,0.0010
3507.00,0.0010
3506.00,0.0010
3505.00,0.0010
3504.00,0.0010
3503.00,0.0010
3502.00,0.0010
3501.00,0.0010
3500.00,0.0010
3499.00,0.0010
3498.00,0.0010
3497.00,0.0010
3496.00,0.0010
3495.00,0.0010
3494.00,0.0010
3493.00,0.0011
3492.00,0.0011
3491.00,0.0011
3490.00,0.0011
3489.00,0.0011
3488.00,0.0011
3487.00,0.0012
3486.00,0.0012
3485.00,0.0012
3484.00,0.0012
3483.00,0.0012
3482.00,0.0011
3481.00,0.0011
3480.00,0.0011
3479.00,0.0011
3478.00,0.0011
3477.00,0.0012
3476.00,0.0012
3475.00,0.0012
3474.00,0.0013
3473.00,0.0013
3472.00,0.0014
3471.00,0.0013
3470.00,0.0013
3469.00,0.0013
3468.00,0.0013
3467.00,0.0013
3466.00,0.0012
3465.00,0.0012
3464.00,0.0013
3463.00,0.0013
3462.00,0.0013
3461.00,0.0013
3460.00,0.0013
3459.00,0.0013
3458.00,0.0013
3457.00,0.0013
3456.00,0.0013
3455.00,0.0013
3454.00,0.0014
3453.00,0.0014
3452.00,0.0014
3451.00,0.0014
3450.00,0.0015
3449.00,0.0015
3448.00,0.0015
3447.00,0.0015
3446.00,0.0014
3445.00,0.0014
3444.00,0.0014
3443.00,0.0015
3442.00,0.0015
3441.00,0.0015
3440.00,0.0016
3439.00,0.0016
3438.00,0.0016
3437.00,0.0016
3436.00,0.0017
3435.00,0.0017
3434.00,0.0017
3433.00,0.0016
3432.00,0.0016
3431.00,0.0016
3430.00,0.0015
3429.00,0.0016
3428.00,0.0016
3427.00,0.0017
3426.00,0.0017
3425.00,0.0017
3424.00,0.0016
3423.00,0.0016
3422.00,0.0017
3421.00,0.0017
3420.00,0.0017
3419.00,0.0017
3418.00,0.0017
3417.00,0.0017
3416.00,0.0017
3415.00,0.0017
3414.00,0.0018
3413.00,0.0018
3412.00,0.0018
3411.00,0.0018
3410.00,0.0018
3409.00,0.0018
3408.00,0.0018
3407.00,0.0018
3406.00,0.0018
3405.00,0.0018
3404.00,0.0018
3403.00,0.0019
3402.00,0.0019
3401.00,0.0019
3400.00,0.0020
3399.00,0.0020
3398.00,0.0020
3397.00,0.0020
3396.00,0.0020
3395.00,0.0020
3394.00,0.0020
3393.00,0.0020
3392.00,0.0020
3391.00,0.0020
3390.00,0.0019
3389.00,0.0019
3388.00,0.0019
3387.00,0.0018
3386.00,0.0018
3385.00,0.0018
3384.00,0.0018
3383.00,0.0018
3382.00,0.0018
3381.00,0.0018
3380.00,0.0018
3379.00,0.0018
3378.00,0.0019
3377.00,0.0019
3376.00,0.0019
3375.00,0.0019
3374.00,0.0019
3373.00,0.0019
3372.00,0.0018
3371.00,0.0018
3370.00,0.0018
3369.00,0.0018
3368.00,0.0017
3367.00,0.0017
3366.00,0.0017
3365.00,0.0018
3364.00,0.0018
3363.00,0.0018
3362.00,0.0018
3361.00,0.0018
3360.00,0.0018
3359.00,0.0018
3358.00,0.0018
3357.00,0.0018
3356.00,0.0019
3355.00,0.0019
3354.00,0.0019
3353.00,0.0019
3352.00,0.0019
3351.00,0.0018
3350.00,0.0018
3349.00,0.0018
3348.00,0.0018
3347.00,0.0017
3346.00,0.0017
3345.00,0.0017
3344.00,0.0017
3343.00,0.0018
3342.00,0.0018
3341.00,0.0019
3340.00,0.0019
3339.00,0.0019
3338.00,0.0018
3337.00,0.0018
3336.00,0.0018
3335.00,0.0018
3334.00,0.0018
3333.00,0.0018
3332.00,0.0018
3331.00,0.0018
3330.00,0.0017
3329.00,0.0017
3328.00,0.0017
3327.00,0.0017
3326.00,0.0017
3325.00,0.0017
3324.00,0.0017
3323.00,0.0017
3322.00,0.0017
3321.00,0.0017
3320.00,0.0017
3319.00,0.0017
3318.00,0.0017
3317.00,0.0017
3316.00,0.0017
3315.00,0.0017
3314.00,0.0017
3313.00,0.0017
3312.00,0.0017
3311.00,0.0017
3310.00,0.0017
3309.00,0.0017
3308.00,0.0017
3307.00,0.0017
3306.00,0.0018
3305.00,0.0018
3304.00,0.0018
3303.00,0.0019
3302.00,0.0019
3301.00,0.0019
3300.00,0.0019
3299.00,0.0019
3298.00,0.0018
3297.00,0.0018
3296.00,0.0018
3295.00,0.0018
3294.00,0.0017
3293.00,0.0017
3292.00,0.0017
3291.00,0.0017
3290.00,0.0017
3289.00,0.0017
3288.00,0.0017
3287.00,0.0017
3286.00,0.0017
3285.00,0.0017
3284.00,0.0017
3283.00,0.0017
3282.00,0.0017
3281.00,0.0017
3280.00,0.0017
3279.00,0.0017
3278.00,0.0016
3277.00,0.0016
3276.00,0.0016
3275.00,0.0017
3274.00,0.0016
3273.00,0.0016
3272.00,0.0016
3271.00,0.0016
3270.00,0.0015
3269.00,0.0015
3268.00,0.0015
3267.00,0.0014
3266.00,0.0014
3265.00,0.0015
3264.00,0.0015
3263.00,0.0015
3262.00,0.0015
3261.00,0.0015
3260.00,0.0016
3259.00,0.0016
3258.00,0.0015
3257.00,0.0015
3256.00,0.0015
3255.00,0.0015
3254.00,0.0015
3253.00,0.0015
3252.00,0.0015
3251.00,0.0015
3250.00,0.0015
3249.00,0.0015
3248.00,0.0015
3247.00,0.0015
3246.00,0.0015
3245.00,0.0014
3244.00,0.0014
3243.00,0.0014
3242.00,0.0014
3241.00,0.0015
3240.00,0.0015
3239.00,0.0015
3238.00,0.0015
3237.00,0.0015
3236.00,0.0015
3235.00,0.0015
3234.00,0.0016
3233.00,0.0016
3232.00,0.0017
3231.00,0.0018
3230.00,0.0018
3229.00,0.0019
3228.00,0.0018
3227.00,0.0018
3226.00,0.0018
3225.00,0.0018
3224.00,0.0018
3223.00,0.0017
3222.00,0.0017
3221.00,0.0018
3220.00,0.0018
3219.00,0.0019
3218.00,0.0019
3217.00,0.0019
3216.00,0.0020
3215.00,0.0020
3214.00,0.0020
3213.00,0.0021
3212.00,0.0021
3211.00,0.0021
3210.00,0.0021
3209.00,0.0021
3208.00,0.0021
3207.00,0.0021
3206.00,0.0021
3205.00,0.0021
3204.00,0.0022
3203.00,0.0022
3202.00,0.0023
3201.00,0.0023
3200.00,0.0023
3199.00,0.0022
3198.00,0.0022
3197.00,0.0022
3196.00,0.0022
3195.00,0.0022
3194.00,0.0022
3193.00,0.0022
3192.00,0.0022
3191.00,0.0022
3190.00,0.0022
3189.00,0.0022
3188.00,0.0022
3187.00,0.0022
3186.00,0.0022
3185.00,0.0022
3184.00,0.0021
3183.00,0.0021
3182.00,0.0021
3181.00,0.0020
3180.00,0.0020
3179.00,0.0020
3178.00,0.0020
3177.00,0.0020
3176.00,0.0021
3175.00,0.0021
3174.00,0.0021
3173.00,0.0020
3172.00,0.0020
3171.00,0.0020
3170.00,0.0020
3169.00,0.0020
3168.00,0.0020
3167.00,0.0020
3166.00,0.0021
3165.00,0.0021
3164.00,0.0021
3163.00,0.0021
3162.00,0.0020
3161.00,0.0020
3160.00,0.0020
3159.00,0.0020
3158.00,0.0019
3157.00,0.0019
3156.00,0.0020
3155.00,0.0020
3154.00,0.0020
3153.00,0.0020
3152.00,0.0020
3151.00,0.0020
3150.00,0.0020
3149.00,0.0020
3148.00,0.0020
3147.00,0.0020
3146.00,0.0020
3145.00,0.0020
3144.00,0.0020
3143.00,0.0020
3142.00,0.0020
3141.00,0.0020
3140.00,0.0020
3139.00,0.0020
3138.00,0.0020
3137.00,0.0020
3136.00,0.0020
3135.00,0.0021
3134.00,0.0021
3133.00,0.0020
3132.00,0.0020
3131.00,0.0019
3130.00,0.0019
3129.00,0.0019
3128.00,0.0019
3127.00,0.0019
3126.00,0.0019
3125.00,0.0019
3124.00,0.0018
3123.00,0.0018
3122.00,0.0018
3121.00,0.0018
3120.00,0.0018
3119.00,0.0018
3118.00,0.0018
3117.00,0.0018
3116.00,0.0018
3115.00,0.0017
3114.00,0.0017
3113.00,0.0017
3112.00,0.0017
3111.00,0.0017
3110.00,0.0017
3109.00,0.0017
3108.00,0.0017
3107.00,0.0017
3106.00,0.0017
3105.00,0.0017
3104.00,0.0017
3103.00,0.0017
3102.00,0.0017
3101.00,0.0017
3100.00,0.0017
3099.00,0.0016
3098.00,0.0016
3097.00,0.0017
3096.00,0.0017
3095.00,0.0017
3094.00,0.0017
3093.00,0.0017
3092.00,0.0017
3091.00,0.0017
3090.00,0.0017
3089.00,0.0017
3088.00,0.0016
3087.00,0.0016
3086.00,0.0016
3085.00,0.0016
3084.00,0.0016
3083.00,0.0016
3082.00,0.0016
3081.00,0.0017
3080.00,0.0017
3079.00,0.0017
3078.00,0.0018
3077.00,0.0018
3076.00,0.0018
3075.00,0.0018
3074.00,0.0018
3073.00,0.0018
3072.00,0.0018
3071.00,0.0019
3070.00,0.0019
3069.00,0.0019
3068.00,0.0019
3067.00,0.0019
3066.00,0.0019
3065.00,0.0019
3064.00,0.0019
3063.00,0.0019
3062.00,0.0019
3061.00,0.0019
3060.00,0.0020
3059.00,0.0020
3058.00,0.0021
3057.00,0.0021
3056.00,0.0022
3055.00,0.0022
3054.00,0.0022
3053.00,0.0022
3052.00,0.0023
3051.00,0.0023
3050.00,0.0023
3049.00,0.0023
3048.00,0.0023
3047.00,0.0023
3046.00,0.0023
3045.00,0.0023
3044.00,0.0023
3043.00,0.0023
3042.00,0.0024
3041.00,0.0024
3040.00,0.0025
3039.00,0.0025
3038.00,0.0026
3037.00,0.0026
3036.00,0.0026
3035.00,0.0026
3034.00,0.0026
3033.00,0.0026
3032.00,0.0027
3031.00,0.0028
3030.00,0.0028
3029.00,0.0029
3028.00,0.0029
3027.00,0.0030
3026.00,0.0031
3025.00,0.0031
3024.00,0.0032
3023.00,0.0033
3022.00,0.0033
3021.00,0.0034
3020.00,0.0035
3019.00,0.0035
3018.00,0.0036
3017.00,0.0037
3016.00,0.0039
3015.00,0.0040
3014.00,0.0041
3013.00,0.0042
3012.00,0.0043
3011.00,0.0044
3010.00,0.0046
3009.00,0.0047
3008.00,0.0048
3007.00,0.0050
3006.00,0.0052
3005.00,0.0054
3004.00,0.0056
3003.00,0.0057
3002.00,0.0059
3001.00,0.0061
3000.00,0.0064
2999.00,0.0067
2998.00,0.0069
2997.00,0.0073
2996.00,0.0076
2995.00,0.0080
2994.00,0.0085
2993.00,0.0089
2992.00,0.0095
2991.00,0.0100
2990.00,0.0106
2989.00,0.0112
2988.00,0.0119
2987.00,0.0127
2986.00,0.0136
2985.00,0.0146
2984.00,0.0158
2983.00,0.0170
2982.00,0.0185
2981.00,0.0200
2980.00,0.0219
2979.00,0.0239
2978.00,0.0263
2977.00,0.0290
2976.00,0.0321
2975.00,0.0356
2974.00,0.0395
2973.00,0.0441
2972.00,0.0491
2971.00,0.0548
2970.00,0.0611
2969.00,0.0680
2968.00,0.0753
2967.00,0.0831
2966.00,0.0910
2965.00,0.0989
2964.00,0.1064
2963.00,0.1132
2962.00,0.1191
2961.00,0.1241
2960.00,0.1283
2959.00,0.1323
2958.00,0.1368
2957.00,0.1422
2956.00,0.1490
2955.00,0.1573
2954.00,0.1669
2953.00,0.1769
2952.00,0.1861
2951.00,0.1931
2950.00,0.1965
2949.00,0.1953
2948.00,0.1892
2947.00,0.1791
2946.00,0.1662
2945.00,0.1524
2944.00,0.1391
2943.00,0.1277
2942.00,0.1187
2941.00,0.1125
2940.00,0.1090
2939.00,0.1078
2938.00,0.1089
2937.00,0.1118
2936.00,0.1165
2935.00,0.1229
2934.00,0.1307
2933.00,0.1400
2932.00,0.1505
2931.00,0.1622
2930.00,0.1746
2929.00,0.1876
2928.00,0.2008
2927.00,0.2138
2926.00,0.2266
2925.00,0.2391
2924.00,0.2514
2923.00,0.2639
2922.00,0.2764
2921.00,0.2886
2920.00,0.2997
2919.00,0.3083
2918.00,0.3130
2917.00,0.3127
2916.00,0.3073
2915.00,0.2974
2914.00,0.2846
2913.00,0.2706
2912.00,0.2566
2911.00,0.2437
2910.00,0.2321
2909.00,0.2217
2908.00,0.2123
2907.00,0.2035
2906.00,0.1951
2905.00,0.1869
2904.00,0.1789
2903.00,0.1712
2902.00,0.1637
2901.00,0.1565
2900.00,0.1497
2899.00,0.1434
2898.00,0.1374
2897.00,0.1320
2896.00,0.1272
2895.00,0.1230
2894.00,0.1194
2893.00,0.1166
2892.00,0.1144
2891.00,0.1128
2890.00,0.1118
2889.00,0.1112
2888.00,0.1111
2887.00,0.1112
2886.00,0.1117
2885.00,0.1126
2884.00,0.1140
2883.00,0.1159
2882.00,0.1183
2881.00,0.1211
2880.00,0.1239
2879.00,0.1262
2878.00,0.1278
2877.00,0.1283
2876.00,0.1280
2875.00,0.1272
2874.00,0.1265
2873.00,0.1263
2872.00,0.1271
2871.00,0.1286
2870.00,0.1308
2869.00,0.1330
2868.00,0.1345
2867.00,0.1344
2866.00,0.1320
2865.00,0.1269
2864.00,0.1196
2863.00,0.1110
2862.00,0.1023
2861.00,0.0946
2860.00,0.0884
2859.00,0.0841
2858.00,0.0815
2857.00,0.0804
2856.00,0.0804
2855.00,0.0814
2854.00,0.0830
2853.00,0.0850
2852.00,0.0871
2851.00,0.0890
2850.00,0.0904
2849.00,0.0914
2848.00,0.0922
2847.00,0.0935
2846.00,0.0956
2845.00,0.0989
2844.00,0.1033
2843.00,0.1085
2842.00,0.1141
2841.00,0.1194
2840.00,0.1235
2839.00,0.1256
2838.00,0.1251
2837.00,0.1213
2836.00,0.1146
2835.00,0.1054
2834.00,0.0947
2833.00,0.0836
2832.00,0.0731
2831.00,0.0637
2830.00,0.0559
2829.00,0.0494
2828.00,0.0441
2827.00,0.0399
2826.00,0.0364
2825.00,0.0335
2824.00,0.0312
2823.00,0.0292
2822.00,0.0274
2821.00,0.0260
2820.00,0.0247
2819.00,0.0236
2818.00,0.0227
2817.00,0.0218
2816.00,0.0211
2815.00,0.0204
2814.00,0.0198
2813.00,0.0192
2812.00,0.0186
2811.00,0.0180
2810.00,0.0174
2809.00,0.0168
2808.00,0.0161
2807.00,0.0154
2806.00,0.0147
2805.00,0.0140
2804.00,0.0134
2803.00,0.0128
2802.00,0.0122
2801.00,0.0118
2800.00,0.0114
2799.00,0.0110
2798.00,0.0107
2797.00,0.0105
2796.00,0.0102
2795.00,0.0100
2794.00,0.0097
2793.00,0.0095
2792.00,0.0092
2791.00,0.0089
2790.00,0.0086
2789.00,0.0083
2788.00,0.0081
2787.00,0.0078
2786.00,0.0075
2785.00,0.0072
2784.00,0.0070
2783.00,0.0067
2782.00,0.0066
2781.00,0.0064
2780.00,0.0063
2779.00,0.0061
2778.00,0.0060
2777.00,0.0058
2776.00,0.0057
2775.00,0.0056
2774.00,0.0055
2773.00,0.0054
2772.00,0.0054
2771.00,0.0053
2770.00,0.0053
2769.00,0.0052
2768.00,0.0052
2767.00,0.0052
2766.00,0.0052
2765.00,0.0051
2764.00,0.0051
2763.00,0.0051
2762.00,0.0051
2761.00,0.0050
2760.00,0.0050
2759.00,0.0049
2758.00,0.0049
2757.00,0.0049
2756.00,0.0049
2755.00,0.0049
2754.00,0.0049
2753.00,0.0049
2752.00,0.0049
2751.00,0.0049
2750.00,0.0048
2749.00,0.0048
2748.00,0.0048
2747.00,0.0048
2746.00,0.0048
2745.00,0.0049
2744.00,0.0050
2743.00,0.0051
2742.00,0.0052
2741.00,0.0053
2740.00,0.0055
2739.00,0.0056
2738.00,0.0057
2737.00,0.0058
2736.00,0.0060
2735.00,0.0061
2734.00,0.0063
2733.00,0.0064
2732.00,0.0066
2731.00,0.0068
2730.00,0.0071
2729.00,0.0073
2728.00,0.0076
2727.00,0.0079
2726.00,0.0083
2725.00,0.0085
2724.00,0.0087
2723.00,0.0087
2722.00,0.0087
2721.00,0.0085
2720.00,0.0082
2719.00,0.0078
2718.00,0.0075
2717.00,0.0072
2716.00,0.0068
2715.00,0.0065
2714.00,0.0062
2713.00,0.0060
2712.00,0.0058
2711.00,0.0056
2710.00,0.0054
2709.00,0.0052
2708.00,0.0051
2707.00,0.0049
2706.00,0.0048
2705.00,0.0047
2704.00,0.0046
2703.00,0.0046
2702.00,0.0045
2701.00,0.0044
2700.00,0.0043
2699.00,0.0042
2698.00,0.0042
2697.00,0.0042
2696.00,0.0042
2695.00,0.0042
2694.00,0.0042
2693.00,0.0041
2692.00,0.0041
2691.00,0.0041
2690.00,0.0041
2689.00,0.0041
2688.00,0.0041
2687.00,0.0041
2686.00,0.0042
2685.00,0.0042
2684.00,0.0042
2683.00,0.0043
2682.00,0.0043
2681.00,0.0043
2680.00,0.0043
2679.00,0.0043
2678.00,0.0042
2677.00,0.0042
2676.00,0.0042
2675.00,0.0042
2674.00,0.0042
2673.00,0.0042
2672.00,0.0042
2671.00,0.0042
2670.00,0.0042
2669.00,0.0042
2668.00,0.0042
2667.00,0.0042
2666.00,0.0042
2665.00,0.0043
2664.00,0.0043
2663.00,0.0044
2662.00,0.0045
2661.00,0.0046
2660.00,0.0046
2659.00,0.0047
2658.00,0.0046
2657.00,0.0046
2656.00,0.0046
2655.00,0.0045
2654.00,0.0044
2653.00,0.0043
2652.00,0.0043
2651.00,0.0042
2650.00,0.0042
2649.00,0.0042
2648.00,0.0041
2647.00,0.0041
2646.00,0.0040
2645.00,0.0040
2644.00,0.0039
2643.00,0.0038
2642.00,0.0038
2641.00,0.0037
2640.00,0.0037
2639.00,0.0037
2638.00,0.0037
2637.00,0.0037
2636.00,0.0037
2635.00,0.0037
2634.00,0.0037
2633.00,0.0037
2632.00,0.0037
2631.00,0.0037
2630.00,0.0037
2629.00,0.0037
2628.00,0.0037
2627.00,0.0037
2626.00,0.0038
2625.00,0.0038
2624.00,0.0038
2623.00,0.0037
2622.00,0.0037
2621.00,0.0037
2620.00,0.0038
2619.00,0.0038
2618.00,0.0038
2617.00,0.0038
2616.00,0.0039
2615.00,0.0039
2614.00,0.0039
2613.00,0.0039
2612.00,0.0038
2611.00,0.0037
2610.00,0.0035
2609.00,0.0034
2608.00,0.0033
2607.00,0.0033
2606.00,0.0032
2605.00,0.0032
2604.00,0.0031
2603.00,0.0031
2602.00,0.0030
2601.00,0.0030
2600.00,0.0030
2599.00,0.0030
2598.00,0.0030
2597.00,0.0031
2596.00,0.0031
2595.00,0.0032
2594.00,0.0032
2593.00,0.0032
2592.00,0.0032
2591.00,0.0032
2590.00,0.0033
2589.00,0.0034
2588.00,0.0035
2587.00,0.0036
2586.00,0.0037
2585.00,0.0038
2584.00,0.0039
2583.00,0.0039
2582.00,0.0040
2581.00,0.0039
2580.00,0.0039
2579.00,0.0038
2578.00,0.0037
2577.00,0.0035
2576.00,0.0034
2575.00,0.0033
2574.00,0.0031
2573.00,0.0030
2572.00,0.0028
2571.00,0.0027
2570.00,0.0026
2569.00,0.0025
2568.00,0.0025
2567.00,0.0024
2566.00,0.0024
2565.00,0.0024
2564.00,0.0023
2563.00,0.0022
2562.00,0.0021
2561.00,0.0021
2560.00,0.0021
2559.00,0.0021
2558.00,0.0021
2557.00,0.0022
2556.00,0.0022
2555.00,0.0023
2554.00,0.0022
2553.00,0.0022
2552.00,0.0021
2551.00,0.0020
2550.00,0.0019
2549.00,0.0019
2548.00,0.0018
2547.00,0.0017
2546.00,0.0015
2545.00,0.0015
2544.00,0.0014
2543.00,0.0015
2542.00,0.0015
2541.00,0.0015
2540.00,0.0015
2539.00,0.0015
2538.00,0.0015
2537.00,0.0015
2536.00,0.0015
2535.00,0.0015
2534.00,0.0015
2533.00,0.0015
2532.00,0.0014
2531.00,0.0013
2530.00,0.0013
2529.00,0.0012
2528.00,0.0012
2527.00,0.0011
2526.00,0.0012
2525.00,0.0012
2524.00,0.0012
2523.00,0.0013
2522.00,0.0013
2521.00,0.0012
2520.00,0.0012
2519.00,0.0011
2518.00,0.0010
2517.00,0.0010
2516.00,0.0010
2515.00,0.0010
2514.00,0.0010
2513.00,0.0010
2512.00,0.0010
2511.00,0.0010
2510.00,0.0010
2509.00,0.0010
2508.00,0.0010
2507.00,0.0009
2506.00,0.0009
2505.00,0.0009
2504.00,0.0009
2503.00,0.0009
2502.00,0.0008
2501.00,0.0008
2500.00,0.0008
2499.00,0.0009
2498.00,0.0009
2497.00,0.0009
2496.00,0.0009
2495.00,0.0009
2494.00,0.0009
2493.00,0.0009
2492.00,0.0009
2491.00,0.0008
2490.00,0.0008
2489.00,0.0009
2488.00,0.0009
2487.00,0.0009
2486.00,0.0009
2485.00,0.0008
2484.00,0.0008
2483.00,0.0008
2482.00,0.0008
2481.00,0.0007
2480.00,0.0007
2479.00,0.0007
2478.00,0.0007
2477.00,0.0007
2476.00,0.0007
2475.00,0.0008
2474.00,0.0008
2473.00,0.0008
2472.00,0.0008
2471.00,0.0007
2470.00,0.0008
2469.00,0.0008
2468.00,0.0008
2467.00,0.0009
2466.00,0.0008
2465.00,0.0008
2464.00,0.0008
2463.00,0.0008
2462.00,0.0009
2461.00,0.0009
2460.00,0.0010
2459.00,0.0009
2458.00,0.0009
2457.00,0.0009
2456.00,0.0010
2455.00,0.0010
2454.00,0.0010
2453.00,0.0009
2452.00,0.0009
2451.00,0.0008
2450.00,0.0008
2449.00,0.0008
2448.00,0.0008
2447.00,0.0007
2446.00,0.0007
2445.00,0.0007
2444.00,0.0007
2443.00,0.0008
2442.00,0.0008
2441.00,0.0008
2440.00,0.0008
2439.00,0.0008
2438.00,0.0009
2437.00,0.0009
2436.00,0.0010
2435.00,0.0010
2434.00,0.0011
2433.00,0.0011
2432.00,0.0012
2431.00,0.0012
2430.00,0.0012
2429.00,0.0012
2428.00,0.0011
2427.00,0.0011
2426.00,0.0010
2425.00,0.0010
2424.00,0.0009
2423.00,0.0009
2422.00,0.0009
2421.00,0.0009
2420.00,0.0009
2419.00,0.0009
2418.00,0.0009
2417.00,0.0010
2416.00,0.0010
2415.00,0.0009
2414.00,0.0009
2413.00,0.0008
2412.00,0.0008
2411.00,0.0008
2410.00,0.0008
2409.00,0.0008
2408.00,0.0008
2407.00,0.0007
2406.00,0.0007
2405.00,0.0007
2404.00,0.0006
2403.00,0.0006
2402.00,0.0005
2401.00,0.0005
2400.00,0.0005
2399.00,0.0005
2398.00,0.0005
2397.00,0.0005
2396.00,0.0006
2395.00,0.0006
2394.00,0.0006
2393.00,0.0006
2392.00,0.0005
2391.00,0.0006
2390.00,0.0006
2389.00,0.0006
2388.00,0.0006
2387.00,0.0005
2386.00,0.0004
2385.00,0.0004
2384.00,0.0004
2383.00,0.0003
2382.00,0.0003
2381.00,0.0003
2380.00,0.0003
2379.00,0.0003
2378.00,0.0004
2377.00,0.0003
2376.00,0.0003
2375.00,0.0003
2374.00,0.0003
2373.00,0.0003
2372.00,0.0004
2371.00,0.0003
2370.00,0.0003
2369.00,0.0003
2368.00,0.0003
2367.00,0.0003
2366.00,0.0004
2365.00,0.0004
2364.00,0.0004
2363.00,0.0004
2362.00,0.0004
2361.00,0.0003
2360.00,0.0003
2359.00,0.0004
2358.00,0.0004
2357.00,0.0005
2356.00,0.0005
2355.00,0.0005
2354.00,0.0004
2353.00,0.0004
2352.00,0.0004
2351.00,0.0004
2350.00,0.0005
2349.00,0.0005
2348.00,0.0006
2347.00,0.0006
2346.00,0.0006
2345.00,0.0007
2344.00,0.0007
2343.00,0.0007
2342.00,0.0008
2341.00,0.0008
2340.00,0.0008
2339.00,0.0008
2338.00,0.0007
2337.00,0.0007
2336.00,0.0008
2335.00,0.0008
2334.00,0.0008
2333.00,0.0008
2332.00,0.0008
2331.00,0.0008
2330.00,0.0008
2329.00,0.0008
2328.00,0.0010
2327.00,0.0014
2326.00,0.0018
2325.00,0.0022
2324.00,0.0023
2323.00,0.0021
2322.00,0.0019
2321.00,0.0017
2320.00,0.0016
2319.00,0.0015
2318.00,0.0014
2317.00,0.0013
2316.00,0.0013
2315.00,0.0013
2314.00,0.0013
2313.00,0.0012
2312.00,0.0011
2311.00,0.0010
2310.00,0.0009
2309.00,0.0009
2308.00,0.0009
2307.00,0.0009
2306.00,0.0010
2305.00,0.0010
2304.00,0.0010
2303.00,0.0010
2302.00,0.0010
2301.00,0.0009
2300.00,0.0009
2299.00,0.0009
2298.00,0.0009
2297.00,0.0010
2296.00,0.0011
2295.00,0.0011
2294.00,0.0012
2293.00,0.0013
2292.00,0.0014
2291.00,0.0015
2290.00,0.0016
2289.00,0.0017
2288.00,0.0017
2287.00,0.0018
2286.00,0.0018
2285.00,0.0017
2284.00,0.0017
2283.00,0.0016
2282.00,0.0015
2281.00,0.0015
2280.00,0.0014
2279.00,0.0013
2278.00,0.0013
2277.00,0.0012
2276.00,0.0011
2275.00,0.0010
2274.00,0.0010
2273.00,0.0010
2272.00,0.0011
2271.00,0.0011
2270.00,0.0011
2269.00,0.0011
2268.00,0.0011
2267.00,0.0010
2266.00,0.0010
2265.00,0.0009
2264.00,0.0010
2263.00,0.0011
2262.00,0.0012
2261.00,0.0012
2260.00,0.0012
2259.00,0.0012
2258.00,0.0012
2257.00,0.0011
2256.00,0.0010
2255.00,0.0008
2254.00,0.0007
2253.00,0.0006
2252.00,0.0006
2251.00,0.0006
2250.00,0.0006
2249.00,0.0006
2248.00,0.0006
2247.00,0.0006
2246.00,0.0005
2245.00,0.0005
2244.00,0.0005
2243.00,0.0004
2242.00,0.0004
2241.00,0.0004
2240.00,0.0004
2239.00,0.0005
2238.00,0.0005
2237.00,0.0005
2236.00,0.0005
2235.00,0.0006
2234.00,0.0006
2233.00,0.0007
2232.00,0.0008
2231.00,0.0009
2230.00,0.0009
2229.00,0.0008
2228.00,0.0007
2227.00,0.0006
2226.00,0.0005
2225.00,0.0005
2224.00,0.0005
2223.00,0.0005
2222.00,0.0005
2221.00,0.0004
2220.00,0.0004
2219.00,0.0004
2218.00,0.0004
2217.00,0.0005
2216.00,0.0005
2215.00,0.0006
2214.00,0.0007
2213.00,0.0007
2212.00,0.0008
2211.00,0.0008
2210.00,0.0007
2209.00,0.0005
2208.00,0.0003
2207.00,0.0003
2206.00,0.0003
2205.00,0.0005
2204.00,0.0006
2203.00,0.0006
2202.00,0.0005
2201.00,0.0005
2200.00,0.0006
2199.00,0.0008
2198.00,0.0009
2197.00,0.0010
2196.00,0.0011
2195.00,0.0010
2194.00,0.0009
2193.00,0.0008
2192.00,0.0006
2191.00,0.0003
2190.00,0.0001
2189.00,-0.0000
2188.00,0.0001
2187.00,0.0004
2186.00,0.0007
2185.00,0.0010
2184.00,0.0010
2183.00,0.0008
2182.00,0.0005
2181.00,0.0002
2180.00,0.0001
2179.00,0.0002
2178.00,0.0002
2177.00,0.0002
2176.00,0.0001
2175.00,0.0000
2174.00,0.0001
2173.00,0.0002
2172.00,0.0003
2171.00,0.0005
2170.00,0.0008
2169.00,0.0011
2168.00,0.0015
2167.00,0.0017
2166.00,0.0019
2165.00,0.0021
2164.00,0.0023
2163.00,0.0025
2162.00,0.0024
2161.00,0.0017
2160.00,0.0001
2159.00,-0.0019
2158.00,-0.0034
2157.00,-0.0038
2156.00,-0.0034
2155.00,-0.0028
2154.00,-0.0023
2153.00,-0.0019
2152.00,-0.0018
2151.00,-0.0018
2150.00,-0.0019
2149.00,-0.0020
2148.00,-0.0021
2147.00,-0.0022
2146.00,-0.0022
2145.00,-0.0022
2144.00,-0.0021
2143.00,-0.0020
2142.00,-0.0017
2141.00,-0.0016
2140.00,-0.0015
2139.00,-0.0015
2138.00,-0.0016
2137.00,-0.0017
2136.00,-0.0018
2135.00,-0.0020
2134.00,-0.0021
2133.00,-0.0022
2132.00,-0.0020
2131.00,-0.0019
2130.00,-0.0018
2129.00,-0.0016
2128.00,-0.0015
2127.00,-0.0013
2126.00,-0.0012
2125.00,-0.0010
2124.00,-0.0008
2123.00,-0.0007
2122.00,-0.0006
2121.00,-0.0005
2120.00,-0.0005
2119.00,-0.0006
2118.00,-0.0007
2117.00,-0.0006
2116.00,-0.0005
2115.00,-0.0003
2114.00,-0.0001
2113.00,-0.0000
2112.00,-0.0000
2111.00,-0.0001
2110.00,-0.0002
2109.00,-0.0002
2108.00,-0.0002
2107.00,-0.0003
2106.00,-0.0003
2105.00,-0.0002
2104.00,-0.0000
2103.00,0.0000
2102.00,0.0000
2101.00,0.0000
2100.00,-0.0000
2099.00,-0.0000
2098.00,-0.0001
2097.00,-0.0002
2096.00,-0.0005
2095.00,-0.0007
2094.00,-0.0009
2093.00,-0.0008
2092.00,-0.0006
2091.00,-0.0004
2090.00,-0.0003
2089.00,-0.0002
2088.00,-0.0002
2087.00,-0.0002
2086.00,-0.0002
2085.00,-0.0002
2084.00,-0.0001
2083.00,-0.0001
2082.00,-0.0000
2081.00,0.0001
2080.00,0.0001
2079.00,0.0001
2078.00,0.0000
2077.00,-0.0001
2076.00,-0.0002
2075.00,-0.0003
2074.00,-0.0003
2073.00,-0.0004
2072.00,-0.0004
2071.00,-0.0004
2070.00,-0.0004
2069.00,-0.0003
2068.00,-0.0003
2067.00,-0.0003
2066.00,-0.0003
2065.00,-0.0003
2064.00,-0.0003
2063.00,-0.0003
2062.00,-0.0003
2061.00,-0.0002
2060.00,-0.0001
2059.00,-0.0000
2058.00,0.0001
2057.00,0.0002
2056.00,0.0003
2055.00,0.0002
2054.00,0.0002
2053.00,0.0004
2052.00,0.0007
2051.00,0.0010
2050.00,0.0010
2049.00,0.0007
2048.00,0.0004
2047.00,0.0002
2046.00,0.0001
2045.00,0.0000
2044.00,-0.0001
2043.00,-0.0002
2042.00,-0.0002
2041.00,-0.0000
2040.00,0.0000
2039.00,0.0001
2038.00,0.0000
2037.00,-0.0001
2036.00,-0.0004
2035.00,-0.0007
2034.00,-0.0009
2033.00,-0.0008
2032.00,-0.0007
2031.00,-0.0006
2030.00,-0.0008
2029.00,-0.0010
2028.00,-0.0011
2027.00,-0.0013
2026.00,-0.0015
2025.00,-0.0014
2024.00,-0.0012
2023.00,-0.0010
2022.00,-0.0008
2021.00,-0.0008
2020.00,-0.0009
2019.00,-0.0011
2018.00,-0.0013
2017.00,-0.0014
2016.00,-0.0013
2015.00,-0.0011
2014.00,-0.0011
2013.00,-0.0010
2012.00,-0.0011
2011.00,-0.0012
2010.00,-0.0015
2009.00,-0.0017
2008.00,-0.0018
2007.00,-0.0018
2006.00,-0.0018
2005.00,-0.0019
2004.00,-0.0020
2003.00,-0.0021
2002.00,-0.0022
2001.00,-0.0021
2000.00,-0.0019
1999.00,-0.0016
1998.00,-0.0015
1997.00,-0.0014
1996.00,-0.0013
1995.00,-0.0013
1994.00,-0.0013
1993.00,-0.0011
1992.00,-0.0008
1991.00,-0.0007
1990.00,-0.0007
1989.00,-0.0007
1988.00,-0.0007
1987.00,-0.0006
1986.00,-0.0006
1985.00,-0.0006
1984.00,-0.0006
1983.00,-0.0004
1982.00,0.0001
1981.00,0.0006
1980.00,0.0009
1979.00,0.0007
1978.00,-0.0000
1977.00,-0.0010
1976.00,-0.0017
1975.00,-0.0021
1974.00,-0.0021
1973.00,-0.0018
1972.00,-0.0015
1971.00,-0.0012
1970.00,-0.0011
1969.00,-0.0011
1968.00,-0.0011
1967.00,-0.0012
1966.00,-0.0012
1965.00,-0.0013
1964.00,-0.0015
1963.00,-0.0017
1962.00,-0.0020
1961.00,-0.0021
1960.00,-0.0021
1959.00,-0.0021
1958.00,-0.0020
1957.00,-0.0019
1956.00,-0.0018
1955.00,-0.0017
1954.00,-0.0017
1953.00,-0.0017
1952.00,-0.0017
1951.00,-0.0017
1950.00,-0.0017
1949.00,-0.0017
1948.00,-0.0017
1947.00,-0.0018
1946.00,-0.0018
1945.00,-0.0017
1944.00,-0.0015
1943.00,-0.0014
1942.00,-0.0014
1941.00,-0.0015
1940.00,-0.0015
1939.00,-0.0016
1938.00,-0.0016
1937.00,-0.0015
1936.00,-0.0013
1935.00,-0.0010
1934.00,-0.0009
1933.00,-0.0009
1932.00,-0.0010
1931.00,-0.0011
1930.00,-0.0011
1929.00,-0.0012
1928.00,-0.0012
1927.00,-0.0012
1926.00,-0.0011
1925.00,-0.0010
1924.00,-0.0009
1923.00,-0.0008
1922.00,-0.0007
1921.00,-0.0007
1920.00,-0.0006
1919.00,-0.0006
1918.00,-0.0005
1917.00,-0.0006
1916.00,-0.0007
1915.00,-0.0009
1914.00,-0.0010
1913.00,-0.0009
1912.00,-0.0008
1911.00,-0.0007
1910.00,-0.0007
1909.00,-0.0008
1908.00,-0.0007
1907.00,-0.0007
1906.00,-0.0006
1905.00,-0.0005
1904.00,-0.0005
1903.00,-0.0005
1902.00,-0.0004
1901.00,-0.0004
1900.00,-0.0003
1899.00,-0.0004
1898.00,-0.0004
1897.00,-0.0004
1896.00,-0.0003
1895.00,-0.0003
1894.00,-0.0003
1893.00,-0.0004
1892.00,-0.0004
1891.00,-0.0005
1890.00,-0.0004
1889.00,-0.0004
1888.00,-0.0004
1887.00,-0.0003
1886.00,-0.0003
1885.00,-0.0002
1884.00,-0.0001
1883.00,-0.0001
1882.00,-0.0002
1881.00,-0.0003
1880.00,-0.0003
1879.00,-0.0003
1878.00,-0.0003
1877.00,-0.0003
1876.00,-0.0003
1875.00,-0.0003
1874.00,-0.0004
1873.00,-0.0005
1872.00,-0.0004
1871.00,-0.0003
1870.00,-0.0002
1869.00,-0.0002
1868.00,-0.0002
1867.00,-0.0003
1866.00,-0.0003
1865.00,-0.0003
1864.00,-0.0002
1863.00,-0.0002
1862.00,-0.0002
1861.00,-0.0003
1860.00,-0.0003
1859.00,-0.0004
1858.00,-0.0003
1857.00,-0.0003
1856.00,-0.0002
1855.00,-0.0003
1854.00,-0.0003
1853.00,-0.0003
1852.00,-0.0003
1851.00,-0.0002
1850.00,-0.0002
1849.00,-0.0002
1848.00,-0.0002
1847.00,-0.0002
1846.00,-0.0002
1845.00,-0.0002
1844.00,-0.0002
1843.00,-0.0002
1842.00,-0.0001
1841.00,-0.0001
1840.00,-0.0000
1839.00,0.0000
1838.00,0.0000
1837.00,0.0000
1836.00,0.0000
1835.00,0.0000
1834.00,-0.0000
1833.00,-0.0001
1832.00,-0.0001
1831.00,-0.0001
1830.00,-0.0000
1829.00,0.0000
1828.00,0.0000
1827.00,-0.0000
1826.00,-0.0000
1825.00,0.0000
1824.00,0.0001
1823.00,0.0001
1822.00,0.0001
1821.00,-0.0000
1820.00,-0.0001
1819.00,-0.0003
1818.00,-0.0004
1817.00,-0.0004
1816.00,-0.0004
1815.00,-0.0003
1814.00,-0.0002
1813.00,-0.0002
1812.00,-0.0001
1811.00,-0.0001
1810.00,-0.0001
1809.00,-0.0001
1808.00,-0.0000
1807.00,-0.0000
1806.00,-0.0000
1805.00,-0.0001
1804.00,-0.0000
1803.00,0.0000
1802.00,0.0001
1801.00,0.0001
1800.00,0.0002
1799.00,0.0002
1798.00,0.0002
1797.00,0.0002
1796.00,0.0002
1795.00,0.0003
1794.00,0.0003
1793.00,0.0004
1792.00,0.0004
1791.00,0.0004
1790.00,0.0004
1789.00,0.0004
1788.00,0.0004
1787.00,0.0004
1786.00,0.0005
1785.00,0.0005
1784.00,0.0005
1783.00,0.0004
1782.00,0.0004
1781.00,0.0004
1780.00,0.0005
1779.00,0.0005
1778.00,0.0005
1777.00,0.0006
1776.00,0.0006
1775.00,0.0006
1774.00,0.0006
1773.00,0.0006
1772.00,0.0005
1771.00,0.0005
1770.00,0.0005
1769.00,0.0005
1768.00,0.0006
1767.00,0.0006
1766.00,0.0006
1765.00,0.0007
1764.00,0.0007
1763.00,0.0007
1762.00,0.0007
1761.00,0.0008
1760.00,0.0008
1759.00,0.0008
1758.00,0.0008
1757.00,0.0009
1756.00,0.0009
1755.00,0.0009
1754.00,0.0009
1753.00,0.0010
1752.00,0.0011
1751.00,0.0011
1750.00,0.0012
1749.00,0.0012
1748.00,0.0013
1747.00,0.0013
1746.00,0.0013
1745.00,0.0013
1744.00,0.0014
1743.00,0.0014
1742.00,0.0014
1741.00,0.0015
1740.00,0.0015
1739.00,0.0015
1738.00,0.0015
1737.00,0.0014
1736.00,0.0014
1735.00,0.0014
1734.00,0.0015
1733.00,0.0015
1732.00,0.0015
1731.00,0.0015
1730.00,0.0015
1729.00,0.0015
1728.00,0.0016
1727.00,0.0016
1726.00,0.0017
1725.00,0.0018
1724.00,0.0018
1723.00,0.0019
1722.00,0.0019
1721.00,0.0019
1720.00,0.0019
1719.00,0.0019
1718.00,0.0019
1717.00,0.0018
1716.00,0.0018
1715.00,0.0017
1714.00,0.0017
1713.00,0.0017
1712.00,0.0017
1711.00,0.0017
1710.00,0.0017
1709.00,0.0018
1708.00,0.0018
1707.00,0.0018
1706.00,0.0018
1705.00,0.0018
1704.00,0.0019
1703.00,0.0018
1702.00,0.0018
1701.00,0.0018
1700.00,0.0018
1699.00,0.0018
1698.00,0.0018
1697.00,0.0018
1696.00,0.0019
1695.00,0.0019
1694.00,0.0019
1693.00,0.0019
1692.00,0.0019
1691.00,0.0019
1690.00,0.0020
1689.00,0.0020
1688.00,0.0020
1687.00,0.0020
1686.00,0.0020
1685.00,0.0020
1684.00,0.0020
1683.00,0.0020
1682.00,0.0020
1681.00,0.0020
1680.00,0.0021
1679.00,0.0021
1678.00,0.0021
1677.00,0.0022
1676.00,0.0022
1675.00,0.0022
1674.00,0.0021
1673.00,0.0021
1672.00,0.0021
1671.00,0.0022
1670.00,0.0022
1669.00,0.0022
1668.00,0.0022
1667.00,0.0022
1666.00,0.0022
1665.00,0.0022
1664.00,0.0022
1663.00,0.0022
1662.00,0.0022
1661.00,0.0023
1660.00,0.0023
1659.00,0.0024
1658.00,0.0025
1657.00,0.0025
1656.00,0.0025
1655.00,0.0026
1654.00,0.0026
1653.00,0.0027
1652.00,0.0027
1651.00,0.0028
1650.00,0.0028
1649.00,0.0029
1648.00,0.0031
1647.00,0.0033
1646.00,0.0034
1645.00,0.0034
1644.00,0.0034
1643.00,0.0033
1642.00,0.0033
1641.00,0.0033
1640.00,0.0033
1639.00,0.0033
1638.00,0.0032
1637.00,0.0032
1636.00,0.0032
1635.00,0.0032
1634.00,0.0032
1633.00,0.0032
1632.00,0.0032
1631.00,0.0031
1630.00,0.0031
1629.00,0.0030
1628.00,0.0030
1627.00,0.0029
1626.00,0.0029
1625.00,0.0029
1624.00,0.0029
1623.00,0.0029
1622.00,0.0028
1621.00,0.0028
1620.00,0.0028
1619.00,0.0028
1618.00,0.0028
1617.00,0.0028
1616.00,0.0028
1615.00,0.0027
1614.00,0.0026
1613.00,0.0026
1612.00,0.0026
1611.00,0.0026
1610.00,0.0026
1609.00,0.0027
1608.00,0.0027
1607.00,0.0027
1606.00,0.0026
1605.00,0.0026
1604.00,0.0026
1603.00,0.0026
1602.00,0.0026
1601.00,0.0027
1600.00,0.0027
1599.00,0.0027
1598.00,0.0027
1597.00,0.0027
1596.00,0.0027
1595.00,0.0027
1594.00,0.0026
1593.00,0.0026
1592.00,0.0026
1591.00,0.0026
1590.00,0.0026
1589.00,0.0026
1588.00,0.0027
1587.00,0.0027
1586.00,0.0027
1585.00,0.0028
1584.00,0.0028
1583.00,0.0029
1582.00,0.0029
1581.00,0.0029
1580.00,0.0030
1579.00,0.0030
1578.00,0.0030
1577.00,0.0030
1576.00,0.0031
1575.00,0.0031
1574.00,0.0031
1573.00,0.0031
1572.00,0.0032
1571.00,0.0032
1570.00,0.0032
1569.00,0.0032
1568.00,0.0032
1567.00,0.0032
1566.00,0.0031
1565.00,0.0032
1564.00,0.0032
1563.00,0.0032
1562.00,0.0032
1561.00,0.0032
1560.00,0.0033
1559.00,0.0032
1558.00,0.0031
1557.00,0.0032
1556.00,0.0033
1555.00,0.0033
1554.00,0.0034
1553.00,0.0034
1552.00,0.0034
1551.00,0.0034
1550.00,0.0034
1549.00,0.0034
1548.00,0.0035
1547.00,0.0035
1546.00,0.0036
1545.00,0.0037
1544.00,0.0038
1543.00,0.0038
1542.00,0.0037
1541.00,0.0038
1540.00,0.0038
1539.00,0.0038
1538.00,0.0037
1537.00,0.0037
1536.00,0.0036
1535.00,0.0036
1534.00,0.0036
1533.00,0.0036
1532.00,0.0036
1531.00,0.0035
1530.00,0.0035
1529.00,0.0035
1528.00,0.0036
1527.00,0.0036
1526.00,0.0035
1525.00,0.0036
1524.00,0.0037
1523.00,0.0037
1522.00,0.0038
1521.00,0.0038
1520.00,0.0039
1519.00,0.0040
1518.00,0.0041
1517.00,0.0042
1516.00,0.0043
1515.00,0.0043
1514.00,0.0044
1513.00,0.0045
1512.00,0.0046
1511.00,0.0047
1510.00,0.0048
1509.00,0.0049
1508.00,0.0051
1507.00,0.0051
1506.00,0.0051
1505.00,0.0053
1504.00,0.0054
1503.00,0.0055
1502.00,0.0057
1501.00,0.0059
1500.00,0.0061
1499.00,0.0063
1498.00,0.0065
1497.00,0.0067
1496.00,0.0070
1495.00,0.0072
1494.00,0.0074
1493.00,0.0077
1492.00,0.0081
1491.00,0.0084
1490.00,0.0086
1489.00,0.0091
1488.00,0.0096
1487.00,0.0101
1486.00,0.0106
1485.00,0.0112
1484.00,0.0119
1483.00,0.0126
1482.00,0.0135
1481.00,0.0145
1480.00,0.0157
1479.00,0.0170
1478.00,0.0185
1477.00,0.0207
1476.00,0.0233
1475.00,0.0264
1474.00,0.0305
1473.00,0.0364
1472.00,0.0433
1471.00,0.0501
1470.00,0.0568
1469.00,0.0638
1468.00,0.0715
1467.00,0.0799
1466.00,0.0894
1465.00,0.0997
1464.00,0.1085
1463.00,0.1146
1462.00,0.1183
1461.00,0.1207
1460.00,0.1220
1459.00,0.1226
1458.00,0.1228
1457.00,0.1224
1456.00,0.1215
1455.00,0.1201
1454.00,0.1184
1453.00,0.1163
1452.00,0.1132
1451.00,0.1089
1450.00,0.1033
1449.00,0.0958
1448.00,0.0866
1447.00,0.0769
1446.00,0.0684
1445.00,0.0611
1444.00,0.0550
1443.00,0.0501
1442.00,0.0465
1441.00,0.0440
1440.00,0.0426
1439.00,0.0422
1438.00,0.0427
1437.00,0.0433
1436.00,0.0428
1435.00,0.0405
1434.00,0.0368
1433.00,0.0323
1432.00,0.0276
1431.00,0.0234
1430.00,0.0202
1429.00,0.0177
1428.00,0.0161
1427.00,0.0150
1426.00,0.0143
1425.00,0.0136
1424.00,0.0130
1423.00,0.0126
1422.00,0.0123
1421.00,0.0120
1420.00,0.0117
1419.00,0.0115
1418.00,0.0113
1417.00,0.0110
1416.00,0.0107
1415.00,0.0106
1414.00,0.0105
1413.00,0.0105
1412.00,0.0103
1411.00,0.0102
1410.00,0.0102
1409.00,0.0100
1408.00,0.0099
1407.00,0.0099
1406.00,0.0100
1405.00,0.0099
1404.00,0.0099
1403.00,0.0100
1402.00,0.0101
1401.00,0.0102
1400.00,0.0103
1399.00,0.0105
1398.00,0.0107
1397.00,0.0109
1396.00,0.0111
1395.00,0.0114
1394.00,0.0119
1393.00,0.0124
1392.00,0.0130
1391.00,0.0138
1390.00,0.0149
1389.00,0.0163
1388.00,0.0184
1387.00,0.0215
1386.00,0.0258
1385.00,0.0313
1384.00,0.0392
1383.00,0.0504
1382.00,0.0659
1381.00,0.0863
1380.00,0.1124
1379.00,0.1429
1378.00,0.1735
1377.00,0.1969
1376.00,0.2061
1375.00,0.1968
1374.00,0.1718
1373.00,0.1410
1372.00,0.1126
1371.00,0.0891
1370.00,0.0706
1369.00,0.0567
1368.00,0.0473
1367.00,0.0415
1366.00,0.0384
1365.00,0.0371
1364.00,0.0374
1363.00,0.0389
1362.00,0.0413
1361.00,0.0439
1360.00,0.0459
1359.00,0.0465
1358.00,0.0454
1357.00,0.0426
1356.00,0.0386
1355.00,0.0342
1354.00,0.0299
1353.00,0.0263
1352.00,0.0233
1351.00,0.0209
1350.00,0.0190
1349.00,0.0173
1348.00,0.0160
1347.00,0.0149
1346.00,0.0140
1345.00,0.0133
1344.00,0.0127
1343.00,0.0122
1342.00,0.0118
1341.00,0.0114
1340.00,0.0111
1339.00,0.0108
1338.00,0.0107
1337.00,0.0107
1336.00,0.0109
1335.00,0.0111
1334.00,0.0115
1333.00,0.0119
1332.00,0.0124
1331.00,0.0128
1330.00,0.0129
1329.00,0.0128
1328.00,0.0124
1327.00,0.0119
1326.00,0.0113
1325.00,0.0107
1324.00,0.0101
1323.00,0.0095
1322.00,0.0091
1321.00,0.0088
1320.00,0.0085
1319.00,0.0082
1318.00,0.0080
1317.00,0.0079
1316.00,0.0078
1315.00,0.0077
1314.00,0.0077
1313.00,0.0077
1312.00,0.0078
1311.00,0.0080
1310.00,0.0083
1309.00,0.0088
1308.00,0.0094
1307.00,0.0102
1306.00,0.0110
1305.00,0.0116
1304.00,0.0118
1303.00,0.0118
1302.00,0.0116
1301.00,0.0115
1300.00,0.0115
1299.00,0.0116
1298.00,0.0118
1297.00,0.0119
1296.00,0.0119
1295.00,0.0117
1294.00,0.0113
1293.00,0.0108
1292.00,0.0102
1291.00,0.0097
1290.00,0.0092
1289.00,0.0088
1288.00,0.0085
1287.00,0.0083
1286.00,0.0080
1285.00,0.0078
1284.00,0.0077
1283.00,0.0076
1282.00,0.0075
1281.00,0.0073
1280.00,0.0072
1279.00,0.0071
1278.00,0.0070
1277.00,0.0069
1276.00,0.0069
1275.00,0.0069
1274.00,0.0069
1273.00,0.0068
1272.00,0.0068
1271.00,0.0069
1270.00,0.0069
1269.00,0.0071
1268.00,0.0072
1267.00,0.0074
1266.00,0.0076
1265.00,0.0078
1264.00,0.0081
1263.00,0.0083
1262.00,0.0086
1261.00,0.0090
1260.00,0.0093
1259.00,0.0097
1258.00,0.0101
1257.00,0.0105
1256.00,0.0106
1255.00,0.0104
1254.00,0.0100
1253.00,0.0094
1252.00,0.0088
1251.00,0.0083
1250.00,0.0079
1249.00,0.0076
1248.00,0.0074
1247.00,0.0072
1246.00,0.0071
1245.00,0.0070
1244.00,0.0069
1243.00,0.0068
1242.00,0.0067
1241.00,0.0066
1240.00,0.0065
1239.00,0.0064
1238.00,0.0064
1237.00,0.0064
1236.00,0.0064
1235.00,0.0065
1234.00,0.0065
1233.00,0.0065
1232.00,0.0066
1231.00,0.0066
1230.00,0.0067
1229.00,0.0068
1228.00,0.0070
1227.00,0.0072
1226.00,0.0074
1225.00,0.0078
1224.00,0.0081
1223.00,0.0085
1222.00,0.0089
1221.00,0.0092
1220.00,0.0094
1219.00,0.0095
1218.00,0.0094
1217.00,0.0092
1216.00,0.0088
1215.00,0.0085
1214.00,0.0081
1213.00,0.0078
1212.00,0.0075
1211.00,0.0073
1210.00,0.0071
1209.00,0.0069
1208.00,0.0068
1207.00,0.0067
1206.00,0.0067
1205.00,0.0067
1204.00,0.0066
1203.00,0.0066
1202.00,0.0065
1201.00,0.0065
1200.00,0.0066
1199.00,0.0066
1198.00,0.0067
1197.00,0.0067
1196.00,0.0066
1195.00,0.0066
1194.00,0.0065
1193.00,0.0065
1192.00,0.0065
1191.00,0.0065
1190.00,0.0065
1189.00,0.0065
1188.00,0.0065
1187.00,0.0066
1186.00,0.0066
1185.00,0.0067
1184.00,0.0067
1183.00,0.0068
1182.00,0.0069
1181.00,0.0071
1180.00,0.0074
1179.00,0.0078
1178.00,0.0083
1177.00,0.0089
1176.00,0.0097
1175.00,0.0108
1174.00,0.0122
1173.00,0.0139
1172.00,0.0161
1171.00,0.0185
1170.00,0.0208
1169.00,0.0226
1168.00,0.0236
1167.00,0.0238
1166.00,0.0233
1165.00,0.0223
1164.00,0.0213
1163.00,0.0202
1162.00,0.0194
1161.00,0.0187
1160.00,0.0182
1159.00,0.0178
1158.00,0.0175
1157.00,0.0174
1156.00,0.0174
1155.00,0.0175
1154.00,0.0176
1153.00,0.0175
1152.00,0.0171
1151.00,0.0165
1150.00,0.0156
1149.00,0.0146
1148.00,0.0136
1147.00,0.0127
1146.00,0.0118
1145.00,0.0110
1144.00,0.0103
1143.00,0.0097
1142.00,0.0092
1141.00,0.0087
1140.00,0.0083
1139.00,0.0079
1138.00,0.0075
1137.00,0.0071
1136.00,0.0069
1135.00,0.0067
1134.00,0.0065
1133.00,0.0064
1132.00,0.0062
1131.00,0.0062
1130.00,0.0062
1129.00,0.0062
1128.00,0.0062
1127.00,0.0062
1126.00,0.0063
1125.00,0.0064
1124.00,0.0064
1123.00,0.0064
1122.00,0.0065
1121.00,0.0066
1120.00,0.0067
1119.00,0.0068
1118.00,0.0069
1117.00,0.0070
1116.00,0.0072
1115.00,0.0073
1114.00,0.0074
1113.00,0.0075
1112.00,0.0076
1111.00,0.0079
1110.00,0.0082
1109.00,0.0087
1108.00,0.0092
1107.00,0.0099
1106.00,0.0107
1105.00,0.0114
1104.00,0.0120
1103.00,0.0123
1102.00,0.0122
1101.00,0.0118
1100.00,0.0112
1099.00,0.0105
1098.00,0.0099
1097.00,0.0093
1096.00,0.0087
1095.00,0.0082
1094.00,0.0078
1093.00,0.0075
1092.00,0.0073
1091.00,0.0072
1090.00,0.0072
1089.00,0.0072
1088.00,0.0072
1087.00,0.0072
1086.00,0.0072
1085.00,0.0071
1084.00,0.0071
1083.00,0.0070
1082.00,0.0069
1081.00,0.0068
1080.00,0.0067
1079.00,0.0066
1078.00,0.0067
1077.00,0.0067
1076.00,0.0067
1075.00,0.0066
1074.00,0.0066
1073.00,0.0065
1072.00,0.0064
1071.00,0.0064
1070.00,0.0064
1069.00,0.0064
1068.00,0.0065
1067.00,0.0066
1066.00,0.0067
1065.00,0.0068
1064.00,0.0069
1063.00,0.0069
1062.00,0.0069
1061.00,0.0069
1060.00,0.0070
1059.00,0.0071
1058.00,0.0073
1057.00,0.0075
1056.00,0.0077
1055.00,0.0079
1054.00,0.0080
1053.00,0.0082
1052.00,0.0084
1051.00,0.0088
1050.00,0.0091
1049.00,0.0095
1048.00,0.0099
1047.00,0.0103
1046.00,0.0107
1045.00,0.0109
1044.00,0.0110
1043.00,0.0109
1042.00,0.0108
1041.00,0.0106
1040.00,0.0104
1039.00,0.0104
1038.00,0.0104
1037.00,0.0104
1036.00,0.0105
1035.00,0.0105
1034.00,0.0105
1033.00,0.0104
1032.00,0.0103
1031.00,0.0102
1030.00,0.0102
1029.00,0.0101
1028.00,0.0101
1027.00,0.0102
1026.00,0.0103
1025.00,0.0105
1024.00,0.0108
1023.00,0.0112
1022.00,0.0115
1021.00,0.0117
1020.00,0.0118
1019.00,0.0120
1018.00,0.0121
1017.00,0.0122
1016.00,0.0122
1015.00,0.0121
1014.00,0.0120
1013.00,0.0119
1012.00,0.0119
1011.00,0.0119
1010.00,0.0119
1009.00,0.0120
1008.00,0.0121
1007.00,0.0124
1006.00,0.0128
1005.00,0.0135
1004.00,0.0145
1003.00,0.0160
1002.00,0.0181
1001.00,0.0206
1000.00,0.0233
999.00,0.0254
998.00,0.0264
997.00,0.0257
996.00,0.0236
995.00,0.0207
994.00,0.0178
993.00,0.0154
992.00,0.0136
991.00,0.0123
990.00,0.0114
989.00,0.0108
988.00,0.0104
987.00,0.0102
986.00,0.0103
985.00,0.0105
984.00,0.0108
983.00,0.0114
982.00,0.0122
981.00,0.0135
980.00,0.0153
979.00,0.0176
978.00,0.0206
977.00,0.0239
976.00,0.0273
975.00,0.0303
974.00,0.0324
973.00,0.0328
972.00,0.0313
971.00,0.0282
970.00,0.0243
969.00,0.0205
968.00,0.0174
967.00,0.0150
966.00,0.0133
965.00,0.0120
964.00,0.0110
963.00,0.0103
962.00,0.0097
961.00,0.0093
960.00,0.0090
959.00,0.0088
958.00,0.0085
957.00,0.0083
956.00,0.0080
955.00,0.0078
954.00,0.0076
953.00,0.0074
952.00,0.0073
951.00,0.0072
950.00,0.0073
949.00,0.0073
948.00,0.0074
947.00,0.0075
946.00,0.0076
945.00,0.0079
944.00,0.0081
943.00,0.0085
942.00,0.0088
941.00,0.0091
940.00,0.0091
939.00,0.0089
938.00,0.0085
937.00,0.0079
936.00,0.0073
935.00,0.0068
934.00,0.0064
933.00,0.0061
932.00,0.0058
931.00,0.0056
930.00,0.0056
929.00,0.0056
928.00,0.0056
927.00,0.0056
926.00,0.0056
925.00,0.0055
924.00,0.0055
923.00,0.0054
922.00,0.0054
921.00,0.0054
920.00,0.0055
919.00,0.0056
918.00,0.0058
917.00,0.0059
916.00,0.0059
915.00,0.0059
914.00,0.0059
913.00,0.0060
912.00,0.0062
911.00,0.0064
910.00,0.0066
909.00,0.0069
908.00,0.0073
907.00,0.0078
906.00,0.0086
905.00,0.0097
904.00,0.0113
903.00,0.0132
902.00,0.0153
901.00,0.0173
900.00,0.0185
899.00,0.0188
898.00,0.0179
897.00,0.0162
896.00,0.0141
895.00,0.0120
894.00,0.0103
893.00,0.0090
892.00,0.0082
891.00,0.0076
890.00,0.0074
889.00,0.0072
888.00,0.0069
887.00,0.0067
886.00,0.0064
885.00,0.0063
884.00,0.0062
883.00,0.0062
882.00,0.0062
881.00,0.0062
880.00,0.0063
879.00,0.0065
878.00,0.0067
877.00,0.0068
876.00,0.0069
875.00,0.0069
874.00,0.0069
873.00,0.0069
872.00,0.0069
871.00,0.0069
870.00,0.0068
869.00,0.0067
868.00,0.0067
867.00,0.0068
866.00,0.0069
865.00,0.0070
864.00,0.0071
863.00,0.0071
862.00,0.0072
861.00,0.0073
860.00,0.0076
859.00,0.0078
858.00,0.0080
857.00,0.0081
856.00,0.0082
855.00,0.0082
854.00,0.0083
853.00,0.0084
852.00,0.0086
851.00,0.0089
850.00,0.0092
849.00,0.0097
848.00,0.0103
847.00,0.0112
846.00,0.0126
845.00,0.0147
844.00,0.0176
843.00,0.0210
842.00,0.0237
841.00,0.0245
840.00,0.0229
839.00,0.0197
838.00,0.0162
837.00,0.0135
836.00,0.0118
835.00,0.0107
834.00,0.0101
833.00,0.0096
832.00,0.0094
831.00,0.0093
830.00,0.0092
829.00,0.0091
828.00,0.0090
827.00,0.0089
826.00,0.0089
825.00,0.0089
824.00,0.0090
823.00,0.0090
822.00,0.0091
821.00,0.0093
820.00,0.0096
819.00,0.0100
818.00,0.0105
817.00,0.0112
816.00,0.0121
815.00,0.0134
814.00,0.0151
813.00,0.0172
812.00,0.0197
811.00,0.0219
810.00,0.0234
809.00,0.0240
808.00,0.0234
807.00,0.0219
806.00,0.0198
805.00,0.0175
804.00,0.0154
803.00,0.0137
802.00,0.0126
801.00,0.0118
800.00,0.0112
799.00,0.0107
798.00,0.0103
797.00,0.0099
796.00,0.0095
795.00,0.0092
794.00,0.0089
793.00,0.0085
792.00,0.0081
791.00,0.0078
790.00,0.0074
789.00,0.0072
788.00,0.0070
787.00,0.0067
786.00,0.0065
785.00,0.0062
784.00,0.0061
783.00,0.0060
782.00,0.0059
781.00,0.0058
780.00,0.0058
779.00,0.0058
778.00,0.0059
777.00,0.0059
776.00,0.0059
775.00,0.0059
774.00,0.0058
773.00,0.0058
772.00,0.0057
771.00,0.0057
770.00,0.0058
769.00,0.0059
768.00,0.0060
767.00,0.0061
766.00,0.0060
765.00,0.0059
764.00,0.0057
763.00,0.0057
762.00,0.0057
761.00,0.0058
760.00,0.0059
759.00,0.0060
758.00,0.0062
757.00,0.0064
756.00,0.0067
755.00,0.0069
754.00,0.0070
753.00,0.0070
752.00,0.0071
751.00,0.0071
750.00,0.0072
749.00,0.0073
748.00,0.0073
747.00,0.0074
746.00,0.0075
745.00,0.0076
744.00,0.0078
743.00,0.0081
742.00,0.0083
741.00,0.0086
740.00,0.0089
739.00,0.0093
738.00,0.0096
737.00,0.0100
736.00,0.0103
735.00,0.0106
734.00,0.0111
733.00,0.0117
732.00,0.0124
731.00,0.0131
730.00,0.0137
729.00,0.0140
728.00,0.0141
727.00,0.0143
726.00,0.0145
725.00,0.0149
724.00,0.0153
723.00,0.0159
722.00,0.0166
721.00,0.0171
720.00,0.0170
719.00,0.0162
718.00,0.0150
717.00,0.0135
716.00,0.0122
715.00,0.0112
714.00,0.0106
713.00,0.0103
712.00,0.0102
711.00,0.0101
710.00,0.0100
709.00,0.0097
708.00,0.0094
707.00,0.0091
706.00,0.0090
705.00,0.0089
704.00,0.0089
703.00,0.0088
702.00,0.0087
701.00,0.0086
700.00,0.0087
699.00,0.0087
698.00,0.0087
697.00,0.0085
696.00,0.0085
695.00,0.0085
694.00,0.0087
693.00,0.0089
692.00,0.0089
691.00,0.0090
690.00,0.0089
689.00,0.0089
688.00,0.0088
687.00,0.0086
686.00,0.0084
685.00,0.0082
684.00,0.0081
683.00,0.0082
682.00,0.0084
681.00,0.0085
680.00,0.0085
679.00,0.0085
678.00,0.0085
677.00,0.0085
676.00,0.0086
675.00,0.0088
674.00,0.0090
673.00,0.0091
672.00,0.0092
671.00,0.0092
670.00,0.0092
669.00,0.0092
668.00,0.0092
667.00,0.0090
666.00,0.0087
665.00,0.0083
664.00,0.0081
663.00,0.0079
662.00,0.0079
661.00,0.0079
660.00,0.0078
659.00,0.0077
658.00,0.0077
657.00,0.0077
656.00,0.0078
655.00,0.0079
654.00,0.0080
653.00,0.0080
652.00,0.0079
651.00,0.0078
650.00,0.0078
649.00,0.0078
648.00,0.0077
647.00,0.0075
646.00,0.0073
645.00,0.0073
644.00,0.0074
643.00,0.0075
642.00,0.0077
641.00,0.0077
640.00,0.0076
639.00,0.0074
638.00,0.0071
637.00,0.0069
636.00,0.0068
635.00,0.0067
634.00,0.0067
633.00,0.0069
632.00,0.0072
631.00,0.0075
630.00,0.0076
629.00,0.0075
628.00,0.0075
627.00,0.0076
626.00,0.0077
625.00,0.0076
624.00,0.0075
623.00,0.0074
622.00,0.0074
621.00,0.0073
620.00,0.0070
619.00,0.0068
618.00,0.0067
617.00,0.0068
616.00,0.0069
615.00,0.0070
614.00,0.0069
613.00,0.0069
612.00,0.0069
611.00,0.0071
610.00,0.0073
609.00,0.0075
608.00,0.0074
607.00,0.0072
606.00,0.0069
605.00,0.0068
604.00,0.0069
603.00,0.0071
602.00,0.0071
601.00,0.0068
600.00,0.0065
599.00,0.0064
598.00,0.0064
597.00,0.0064
596.00,0.0064
595.00,0.0065
594.00,0.0067
593.00,0.0068
592.00,0.0069
591.00,0.0068
590.00,0.0068
589.00,0.0068
588.00,0.0068
587.00,0.0067
586.00,0.0065
585.00,0.0065
584.00,0.0064
583.00,0.0065
582.00,0.0066
581.00,0.0068
580.00,0.0069
579.00,0.0070
578.00,0.0070
577.00,0.0069
576.00,0.0066
575.00,0.0063
574.00,0.0061
573.00,0.0061
572.00,0.0063
571.00,0.0067
570.00,0.0070
569.00,0.0071
568.00,0.0070
567.00,0.0068
566.00,0.0067
565.00,0.0067
564.00,0.0067
563.00,0.0066
562.00,0.0062
561.00,0.0060
560.00,0.0060
559.00,0.0063
558.00,0.0065
557.00,0.0065
556.00,0.0064
555.00,0.0065
554.00,0.0068
553.00,0.0073
552.00,0.0077
551.00,0.0077
550.00,0.0073
549.00,0.0068
548.00,0.0064
547.00,0.0064
546.00,0.0067
545.00,0.0071
544.00,0.0074
543.00,0.0077
542.00,0.0080
541.00,0.0083
540.00,0.0086
539.00,0.0089
538.00,0.0094
537.00,0.0099
536.00,0.0103
535.00,0.0106
534.00,0.0106
533.00,0.0104
532.00,0.0099
531.00,0.0094
530.00,0.0094
529.00,0.0098
528.00,0.0104
527.00,0.0107
526.00,0.0105
525.00,0.0101
524.00,0.0098
523.00,0.0097
522.00,0.0096
521.00,0.0094
520.00,0.0089
519.00,0.0080
518.00,0.0073
517.00,0.0069
516.00,0.0069
515.00,0.0070
514.00,0.0070
513.00,0.0068
512.00,0.0065
511.00,0.0064
510.00,0.0065
509.00,0.0068
508.00,0.0070
507.00,0.0072
506.00,0.0073
505.00,0.0074
504.00,0.0077
503.00,0.0080
502.00,0.0082
501.00,0.0084
500.00,0.0086
499.00,0.0089
498.00,0.0090
497.00,0.0087
496.00,0.0082
495.00,0.0075
494.00,0.0069
493.00,0.0066
492.00,0.0067
491.00,0.0069
490.00,0.0070
489.00,0.0067
488.00,0.0062
487.00,0.0058
486.00,0.0058
485.00,0.0063
484.00,0.0069
483.00,0.0072
482.00,0.0072
481.00,0.0070
480.00,0.0072
479.00,0.0078
478.00,0.0089
477.00,0.0098
476.00,0.0101
475.00,0.0099
474.00,0.0097
473.00,0.0100
472.00,0.0111
471.00,0.0124
470.00,0.0134
469.00,0.0142
468.00,0.0151
467.00,0.0158
466.00,0.0161
465.00,0.0159
464.00,0.0159
463.00,0.0165
462.00,0.0176
461.00,0.0184
460.00,0.0186
459.00,0.0180
458.00,0.0175
457.00,0.0178
456.00,0.0186
455.00,0.0192
454.00,0.0191
453.00,0.0181
452.00,0.0168
451.00,0.0154
450.00,0.0140
