Created as New Dataset,Sample 003 By Administrator Date Thursday, September 04 2025
cm-1,A
4000.00,0.0008
3999.00,0.0008
3998.00,0.0008
3997.00,0.0008
3996.00,0.0007
3995.00,0.0007
3994.00,0.0007
3993.00,0.0007
3992.00,0.0008
3991.00,0.0008
3990.00,0.0008
3989.00,0.0008
3988.00,0.0007
3987.00,0.0007
3986.00,0.0007
3985.00,0.0007
3984.00,0.0006
3983.00,0.0006
3982.00,0.0006
3981.00,0.0006
3980.00,0.0006
3979.00,0.0006
3978.00,0.0006
3977.00,0.0006
3976.00,0.0006
3975.00,0.0006
3974.00,0.0006
3973.00,0.0006
3972.00,0.0005
3971.00,0.0005
3970.00,0.0005
3969.00,0.0005
3968.00,0.0005
3967.00,0.0006
3966.00,0.0006
3965.00,0.0006
3964.00,0.0006
3963.00,0.0006
3962.00,0.0006
3961.00,0.0006
3960.00,0.0006
3959.00,0.0005
3958.00,0.0005
3957.00,0.0005
3956.00,0.0005
3955.00,0.0005
3954.00,0.0005
3953.00,0.0005
3952.00,0.0005
3951.00,0.0005
3950.00,0.0005
3949.00,0.0005
3948.00,0.0005
3947.00,0.0006
3946.00,0.0006
3945.00,0.0006
3944.00,0.0006
3943.00,0.0006
3942.00,0.0006
3941.00,0.0006
3940.00,0.0006
3939.00,0.0005
3938.00,0.0005
3937.00,0.0005
3936.00,0.0005
3935.00,0.0005
3934.00,0.0006
3933.00,0.0006
3932.00,0.0006
3931.00,0.0006
3930.00,0.0006
3929.00,0.0006
3928.00,0.0006
3927.00,0.0006
3926.00,0.0007
3925.00,0.0007
3924.00,0.0007
3923.00,0.0007
3922.00,0.0007
3921.00,0.0007
3920.00,0.0007
3919.00,0.0007
3918.00,0.0006
3917.00,0.0006
3916.00,0.0006
3915.00,0.0005
3914.00,0.0005
3913.00,0.0005
3912.00,0.0005
3911.00,0.0005
3910.00,0.0005
3909.00,0.0005
3908.00,0.0006
3907.00,0.0006
3906.00,0.0006
3905.00,0.0007
3904.00,0.0007
3903.00,0.0006
3902.00,0.0006
3901.00,0.0006
3900.00,0.0006
3899.00,0.0006
3898.00,0.0006
3897.00,0.0006
3896.00,0.0006
3895.00,0.0006
3894.00,0.0006
3893.00,0.0006
3892.00,0.0006
3891.00,0.0006
3890.00,0.0007
3889.00,0.0007
3888.00,0.0007
3887.00,0.0006
3886.00,0.0006
3885.00,0.0006
3884.00,0.0006
3883.00,0.0006
3882.00,0.0006
3881.00,0.0006
3880.00,0.0006
3879.00,0.0006
3878.00,0.0006
3877.00,0.0006
3876.00,0.0006
3875.00,0.0005
3874.00,0.0005
3873.00,0.0005
3872.00,0.0006
3871.00,0.0007
3870.00,0.0007
3869.00,0.0007
3868.00,0.0007
3867.00,0.0006
3866.00,0.0006
3865.00,0.0006
3864.00,0.0005
3863.00,0.0006
3862.00,0.0006
3861.00,0.0006
3860.00,0.0007
3859.00,0.0007
3858.00,0.0007
3857.00,0.0007
3856.00,0.0007
3855.00,0.0007
3854.00,0.0006
3853.00,0.0005
3852.00,0.0005
3851.00,0.0005
3850.00,0.0005
3849.00,0.0005
3848.00,0.0004
3847.00,0.0005
3846.00,0.0005
3845.00,0.0006
3844.00,0.0006
3843.00,0.0006
3842.00,0.0006
3841.00,0.0006
3840.00,0.0006
3839.00,0.0006
3838.00,0.0005
3837.00,0.0005
3836.00,0.0005
3835.00,0.0005
3834.00,0.0005
3833.00,0.0005
3832.00,0.0005
3831.00,0.0005
3830.00,0.0006
3829.00,0.0006
3828.00,0.0006
3827.00,0.0006
3826.00,0.0006
3825.00,0.0006
3824.00,0.0007
3823.00,0.0007
3822.00,0.0007
3821.00,0.0007
3820.00,0.0007
3819.00,0.0007
3818.00,0.0008
3817.00,0.0007
3816.00,0.0006
3815.00,0.0006
3814.00,0.0005
3813.00,0.0005
3812.00,0.0006
3811.00,0.0006
3810.00,0.0006
3809.00,0.0006
3808.00,0.0006
3807.00,0.0006
3806.00,0.0006
3805.00,0.0006
3804.00,0.0006
3803.00,0.0006
3802.00,0.0006
3801.00,0.0005
3800.00,0.0005
3799.00,0.0005
3798.00,0.0005
3797.00,0.0005
3796.00,0.0005
3795.00,0.0005
3794.00,0.0005
3793.00,0.0005
3792.00,0.0005
3791.00,0.0005
3790.00,0.0005
3789.00,0.0006
3788.00,0.0006
3787.00,0.0006
3786.00,0.0005
3785.00,0.0005
3784.00,0.0005
3783.00,0.0005
3782.00,0.0006
3781.00,0.0006
3780.00,0.0007
3779.00,0.0007
3778.00,0.0007
3777.00,0.0007
3776.00,0.0007
3775.00,0.0007
3774.00,0.0006
3773.00,0.0006
3772.00,0.0006
3771.00,0.0006
3770.00,0.0006
3769.00,0.0007
3768.00,0.0007
3767.00,0.0008
3766.00,0.0007
3765.00,0.0007
3764.00,0.0007
3763.00,0.0007
3762.00,0.0007
3761.00,0.0007
3760.00,0.0007
3759.00,0.0006
3758.00,0.0006
3757.00,0.0006
3756.00,0.0006
3755.00,0.0006
3754.00,0.0006
3753.00,0.0006
3752.00,0.0006
3751.00,0.0007
3750.00,0.0007
3749.00,0.0007
3748.00,0.0008
3747.00,0.0007
3746.00,0.0007
3745.00,0.0006
3744.00,0.0005
3743.00,0.0005
3742.00,0.0005
3741.00,0.0005
3740.00,0.0004
3739.00,0.0004
3738.00,0.0005
3737.00,0.0005
3736.00,0.0005
3735.00,0.0005
3734.00,0.0005
3733.00,0.0005
3732.00,0.0004
3731.00,0.0004
3730.00,0.0004
3729.00,0.0004
3728.00,0.0004
3727.00,0.0004
3726.00,0.0004
3725.00,0.0004
3724.00,0.0004
3723.00,0.0004
3722.00,0.0004
3721.00,0.0004
3720.00,0.0004
3719.00,0.0004
3718.00,0.0005
3717.00,0.0005
3716.00,0.0005
3715.00,0.0005
3714.00,0.0005
3713.00,0.0005
3712.00,0.0005
3711.00,0.0005
3710.00,0.0005
3709.00,0.0005
3708.00,0.0005
3707.00,0.0005
3706.00,0.0005
3705.00,0.0005
3704.00,0.0005
3703.00,0.0005
3702.00,0.0004
3701.00,0.0004
3700.00,0.0004
3699.00,0.0004
3698.00,0.0004
3697.00,0.0004
3696.00,0.0004
3695.00,0.0005
3694.00,0.0005
3693.00,0.0005
3692.00,0.0005
3691.00,0.0005
3690.00,0.0004
3689.00,0.0004
3688.00,0.0004
3687.00,0.0004
3686.00,0.0004
3685.00,0.0004
3684.00,0.0005
3683.00,0.0005
3682.00,0.0005
3681.00,0.0006
3680.00,0.0006
3679.00,0.0006
3678.00,0.0007
3677.00,0.0009
3676.00,0.0009
3675.00,0.0008
3674.00,0.0008
3673.00,0.0007
3672.00,0.0006
3671.00,0.0006
3670.00,0.0005
3669.00,0.0005
3668.00,0.0005
3667.00,0.0005
3666.00,0.0005
3665.00,0.0005
3664.00,0.0005
3663.00,0.0005
3662.00,0.0005
3661.00,0.0005
3660.00,0.0005
3659.00,0.0005
3658.00,0.0005
3657.00,0.0005
3656.00,0.0006
3655.00,0.0006
3654.00,0.0006
3653.00,0.0006
3652.00,0.0006
3651.00,0.0006
3650.00,0.0006
3649.00,0.0006
3648.00,0.0006
3647.00,0.0006
3646.00,0.0005
3645.00,0.0005
3644.00,0.0005
3643.00,0.0005
3642.00,0.0005
3641.00,0.0005
3640.00,0.0006
3639.00,0.0006
3638.00,0.0005
3637.00,0.0005
3636.00,0.0005
3635.00,0.0005
3634.00,0.0005
3633.00,0.0006
3632.00,0.0008
3631.00,0.0009
3630.00,0.0009
3629.00,0.0009
3628.00,0.0008
3627.00,0.0008
3626.00,0.0007
3625.00,0.0007
3624.00,0.0006
3623.00,0.0006
3622.00,0.0006
3621.00,0.0007
3620.00,0.0007
3619.00,0.0007
3618.00,0.0008
3617.00,0.0008
3616.00,0.0008
3615.00,0.0008
3614.00,0.0008
3613.00,0.0008
3612.00,0.0009
3611.00,0.0009
3610.00,0.0009
3609.00,0.0010
3608.00,0.0010
3607.00,0.0010
3606.00,0.0010
3605.00,0.0010
3604.00,0.0010
3603.00,0.0010
3602.00,0.0010
3601.00,0.0010
3600.00,0.0010
3599.00,0.0010
3598.00,0.0010
3597.00,0.0011
3596.00,0.0011
3595.00,0.0011
3594.00,0.0011
3593.00,0.0011
3592.00,0.0012
3591.00,0.0012
3590.00,0.0012
3589.00,0.0012
3588.00,0.0012
3587.00,0.0013
3586.00,0.0013
3585.00,0.0013
3584.00,0.0013
3583.00,0.0013
3582.00,0.0014
3581.00,0.0014
3580.00,0.0014
3579.00,0.0014
3578.00,0.0015
3577.00,0.0015
3576.00,0.0015
3575.00,0.0015
3574.00,0.0016
3573.00,0.0016
3572.00,0.0016
3571.00,0.0016
3570.00,0.0017
3569.00,0.0017
3568.00,0.0017
3567.00,0.0017
3566.00,0.0017
3565.00,0.0018
3564.00,0.0018
3563.00,0.0018
3562.00,0.0019
3561.00,0.0019
3560.00,0.0019
3559.00,0.0019
3558.00,0.0018
3557.00,0.0019
3556.00,0.0019
3555.00,0.0020
3554.00,0.0020
3553.00,0.0021
3552.00,0.0021
3551.00,0.0022
3550.00,0.0023
3549.00,0.0023
3548.00,0.0024
3547.00,0.0024
3546.00,0.0024
3545.00,0.0024
3544.00,0.0024
3543.00,0.0024
3542.00,0.0024
3541.00,0.0024
3540.00,0.0024
3539.00,0.0024
3538.00,0.0025
3537.00,0.0025
3536.00,0.0025
3535.00,0.0025
3534.00,0.0026
3533.00,0.0026
3532.00,0.0027
3531.00,0.0027
3530.00,0.0027
3529.00,0.0027
3528.00,0.0027
3527.00,0.0027
3526.00,0.0028
3525.00,0.0028
3524.00,0.0029
3523.00,0.0029
3522.00,0.0030
3521.00,0.0030
3520.00,0.0030
3519.00,0.0031
3518.00,0.0031
3517.00,0.0031
3516.00,0.0031
3515.00,0.0032
3514.00,0.0032
3513.00,0.0032
3512.00,0.0032
3511.00,0.0032
3510.00,0.0033
3509.00,0.0033
3508.00,0.0034
3507.00,0.0035
3506.00,0.0035
3505.00,0.0035
3504.00,0.0035
3503.00,0.0035
3502.00,0.0036
3501.00,0.0036
3500.00,0.0037
3499.00,0.0037
3498.00,0.0038
3497.00,0.0038
3496.00,0.0038
3495.00,0.0038
3494.00,0.0038
3493.00,0.0038
3492.00,0.0039
3491.00,0.0039
3490.00,0.0039
3489.00,0.0039
3488.00,0.0040
3487.00,0.0040
3486.00,0.0041
3485.00,0.0041
3484.00,0.0042
3483.00,0.0042
3482.00,0.0042
3481.00,0.0042
3480.00,0.0043
3479.00,0.0043
3478.00,0.0043
3477.00,0.0044
3476.00,0.0044
3475.00,0.0044
3474.00,0.0044
3473.00,0.0044
3472.00,0.0045
3471.00,0.0045
3470.00,0.0045
3469.00,0.0045
3468.00,0.0045
3467.00,0.0045
3466.00,0.0045
3465.00,0.0045
3464.00,0.0046
3463.00,0.0046
3462.00,0.0046
3461.00,0.0046
3460.00,0.0047
3459.00,0.0047
3458.00,0.0048
3457.00,0.0048
3456.00,0.0048
3455.00,0.0049
3454.00,0.0049
3453.00,0.0049
3452.00,0.0050
3451.00,0.0050
3450.00,0.0050
3449.00,0.0050
3448.00,0.0050
3447.00,0.0051
3446.00,0.0051
3445.00,0.0051
3444.00,0.0051
3443.00,0.0051
3442.00,0.0051
3441.00,0.0051
3440.00,0.0052
3439.00,0.0052
3438.00,0.0052
3437.00,0.0052
3436.00,0.0052
3435.00,0.0052
3434.00,0.0053
3433.00,0.0053
3432.00,0.0053
3431.00,0.0053
3430.00,0.0053
3429.00,0.0054
3428.00,0.0054
3427.00,0.0054
3426.00,0.0055
3425.00,0.0055
3424.00,0.0055
3423.00,0.0055
3422.00,0.0056
3421.00,0.0056
3420.00,0.0056
3419.00,0.0056
3418.00,0.0056
3417.00,0.0057
3416.00,0.0057
3415.00,0.0057
3414.00,0.0057
3413.00,0.0057
3412.00,0.0057
3411.00,0.0057
3410.00,0.0057
3409.00,0.0057
3408.00,0.0057
3407.00,0.0058
3406.00,0.0058
3405.00,0.0058
3404.00,0.0058
3403.00,0.0057
3402.00,0.0057
3401.00,0.0057
3400.00,0.0057
3399.00,0.0057
3398.00,0.0057
3397.00,0.0058
3396.00,0.0058
3395.00,0.0058
3394.00,0.0058
3393.00,0.0058
3392.00,0.0058
3391.00,0.0058
3390.00,0.0058
3389.00,0.0058
3388.00,0.0058
3387.00,0.0058
3386.00,0.0059
3385.00,0.0059
3384.00,0.0059
3383.00,0.0059
3382.00,0.0059
3381.00,0.0059
3380.00,0.0060
3379.00,0.0060
3378.00,0.0060
3377.00,0.0060
3376.00,0.0060
3375.00,0.0061
3374.00,0.0061
3373.00,0.0061
3372.00,0.0061
3371.00,0.0061
3370.00,0.0061
3369.00,0.0061
3368.00,0.0061
3367.00,0.0062
3366.00,0.0062
3365.00,0.0062
3364.00,0.0061
3363.00,0.0061
3362.00,0.0061
3361.00,0.0062
3360.00,0.0062
3359.00,0.0062
3358.00,0.0062
3357.00,0.0061
3356.00,0.0061
3355.00,0.0061
3354.00,0.0062
3353.00,0.0062
3352.00,0.0062
3351.00,0.0062
3350.00,0.0062
3349.00,0.0062
3348.00,0.0062
3347.00,0.0062
3346.00,0.0062
3345.00,0.0062
3344.00,0.0062
3343.00,0.0061
3342.00,0.0061
3341.00,0.0061
3340.00,0.0061
3339.00,0.0060
3338.00,0.0060
3337.00,0.0060
3336.00,0.0060
3335.00,0.0060
3334.00,0.0060
3333.00,0.0060
3332.00,0.0060
3331.00,0.0059
3330.00,0.0059
3329.00,0.0059
3328.00,0.0059
3327.00,0.0059
3326.00,0.0059
3325.00,0.0058
3324.00,0.0058
3323.00,0.0058
3322.00,0.0058
3321.00,0.0058
3320.00,0.0057
3319.00,0.0057
3318.00,0.0057
3317.00,0.0057
3316.00,0.0058
3315.00,0.0058
3314.00,0.0057
3313.00,0.0057
3312.00,0.0057
3311.00,0.0057
3310.00,0.0057
3309.00,0.0058
3308.00,0.0058
3307.00,0.0059
3306.00,0.0059
3305.00,0.0059
3304.00,0.0059
3303.00,0.0059
3302.00,0.0060
3301.00,0.0060
3300.00,0.0059
3299.00,0.0059
3298.00,0.0058
3297.00,0.0057
3296.00,0.0057
3295.00,0.0056
3294.00,0.0056
3293.00,0.0056
3292.00,0.0055
3291.00,0.0055
3290.00,0.0055
3289.00,0.0055
3288.00,0.0055
3287.00,0.0054
3286.00,0.0054
3285.00,0.0054
3284.00,0.0054
3283.00,0.0053
3282.00,0.0053
3281.00,0.0053
3280.00,0.0052
3279.00,0.0052
3278.00,0.0051
3277.00,0.0051
3276.00,0.0050
3275.00,0.0050
3274.00,0.0050
3273.00,0.0050
3272.00,0.0050
3271.00,0.0050
3270.00,0.0050
3269.00,0.0049
3268.00,0.0049
3267.00,0.0049
3266.00,0.0049
3265.00,0.0049
3264.00,0.0048
3263.00,0.0048
3262.00,0.0048
3261.00,0.0048
3260.00,0.0048
3259.00,0.0047
3258.00,0.0047
3257.00,0.0047
3256.00,0.0047
3255.00,0.0047
3254.00,0.0046
3253.00,0.0046
3252.00,0.0046
3251.00,0.0046
3250.00,0.0046
3249.00,0.0046
3248.00,0.0046
3247.00,0.0046
3246.00,0.0045
3245.00,0.0045
3244.00,0.0044
3243.00,0.0044
3242.00,0.0044
3241.00,0.0045
3240.00,0.0045
3239.00,0.0045
3238.00,0.0044
3237.00,0.0044
3236.00,0.0044
3235.00,0.0044
3234.00,0.0044
3233.00,0.0045
3232.00,0.0045
3231.00,0.0045
3230.00,0.0045
3229.00,0.0045
3228.00,0.0044
3227.00,0.0044
3226.00,0.0044
3225.00,0.0044
3224.00,0.0045
3223.00,0.0045
3222.00,0.0045
3221.00,0.0045
3220.00,0.0045
3219.00,0.0045
3218.00,0.0045
3217.00,0.0045
3216.00,0.0045
3215.00,0.0045
3214.00,0.0045
3213.00,0.0046
3212.00,0.0046
3211.00,0.0046
3210.00,0.0046
3209.00,0.0046
3208.00,0.0046
3207.00,0.0046
3206.00,0.0046
3205.00,0.0046
3204.00,0.0046
3203.00,0.0046
3202.00,0.0046
3201.00,0.0046
3200.00,0.0046
3199.00,0.0045
3198.00,0.0045
3197.00,0.0045
3196.00,0.0045
3195.00,0.0045
3194.00,0.0045
3193.00,0.0045
3192.00,0.0045
3191.00,0.0045
3190.00,0.0045
3189.00,0.0045
3188.00,0.0044
3187.00,0.0044
3186.00,0.0044
3185.00,0.0044
3184.00,0.0044
3183.00,0.0043
3182.00,0.0043
3181.00,0.0043
3180.00,0.0043
3179.00,0.0043
3178.00,0.0043
3177.00,0.0042
3176.00,0.0042
3175.00,0.0042
3174.00,0.0042
3173.00,0.0041
3172.00,0.0041
3171.00,0.0041
3170.00,0.0040
3169.00,0.0040
3168.00,0.0040
3167.00,0.0041
3166.00,0.0041
3165.00,0.0041
3164.00,0.0041
3163.00,0.0040
3162.00,0.0039
3161.00,0.0039
3160.00,0.0039
3159.00,0.0039
3158.00,0.0039
3157.00,0.0039
3156.00,0.0039
3155.00,0.0039
3154.00,0.0039
3153.00,0.0039
3152.00,0.0039
3151.00,0.0039
3150.00,0.0039
3149.00,0.0039
3148.00,0.0039
3147.00,0.0039
3146.00,0.0039
3145.00,0.0038
3144.00,0.0038
3143.00,0.0038
3142.00,0.0038
3141.00,0.0037
3140.00,0.0037
3139.00,0.0036
3138.00,0.0036
3137.00,0.0036
3136.00,0.0036
3135.00,0.0037
3134.00,0.0036
3133.00,0.0036
3132.00,0.0036
3131.00,0.0035
3130.00,0.0035
3129.00,0.0035
3128.00,0.0035
3127.00,0.0035
3126.00,0.0035
3125.00,0.0034
3124.00,0.0034
3123.00,0.0033
3122.00,0.0033
3121.00,0.0033
3120.00,0.0033
3119.00,0.0033
3118.00,0.0033
3117.00,0.0032
3116.00,0.0032
3115.00,0.0032
3114.00,0.0032
3113.00,0.0032
3112.00,0.0031
3111.00,0.0031
3110.00,0.0030
3109.00,0.0030
3108.00,0.0030
3107.00,0.0030
3106.00,0.0030
3105.00,0.0030
3104.00,0.0030
3103.00,0.0030
3102.00,0.0029
3101.00,0.0029
3100.00,0.0029
3099.00,0.0029
3098.00,0.0029
3097.00,0.0029
3096.00,0.0029
3095.00,0.0029
3094.00,0.0029
3093.00,0.0029
3092.00,0.0029
3091.00,0.0030
3090.00,0.0030
3089.00,0.0030
3088.00,0.0030
3087.00,0.0029
3086.00,0.0029
3085.00,0.0028
3084.00,0.0028
3083.00,0.0028
3082.00,0.0028
3081.00,0.0028
3080.00,0.0028
3079.00,0.0028
3078.00,0.0029
3077.00,0.0029
3076.00,0.0029
3075.00,0.0029
3074.00,0.0029
3073.00,0.0029
3072.00,0.0029
3071.00,0.0029
3070.00,0.0029
3069.00,0.0030
3068.00,0.0030
3067.00,0.0031
3066.00,0.0031
3065.00,0.0031
3064.00,0.0031
3063.00,0.0031
3062.00,0.0031
3061.00,0.0031
3060.00,0.0032
3059.00,0.0032
3058.00,0.0032
3057.00,0.0032
3056.00,0.0032
3055.00,0.0032
3054.00,0.0032
3053.00,0.0032
3052.00,0.0033
3051.00,0.0033
3050.00,0.0033
3049.00,0.0033
3048.00,0.0033
3047.00,0.0034
3046.00,0.0034
3045.00,0.0034
3044.00,0.0034
3043.00,0.0034
3042.00,0.0034
3041.00,0.0035
3040.00,0.0035
3039.00,0.0036
3038.00,0.0036
3037.00,0.0037
3036.00,0.0037
3035.00,0.0038
3034.00,0.0038
3033.00,0.0038
3032.00,0.0039
3031.00,0.0039
3030.00,0.0039
3029.00,0.0039
3028.00,0.0040
3027.00,0.0041
3026.00,0.0041
3025.00,0.0042
3024.00,0.0042
3023.00,0.0043
3022.00,0.0044
3021.00,0.0045
3020.00,0.0045
3019.00,0.0046
3018.00,0.0047
3017.00,0.0047
3016.00,0.0048
3015.00,0.0049
3014.00,0.0050
3013.00,0.0051
3012.00,0.0052
3011.00,0.0053
3010.00,0.0054
3009.00,0.0055
3008.00,0.0057
3007.00,0.0059
3006.00,0.0060
3005.00,0.0062
3004.00,0.0064
3003.00,0.0066
3002.00,0.0068
3001.00,0.0070
3000.00,0.0072
2999.00,0.0075
2998.00,0.0078
2997.00,0.0081
2996.00,0.0085
2995.00,0.0089
2994.00,0.0093
2993.00,0.0097
2992.00,0.0102
2991.00,0.0108
2990.00,0.0113
2989.00,0.0120
2988.00,0.0127
2987.00,0.0135
2986.00,0.0144
2985.00,0.0155
2984.00,0.0167
2983.00,0.0180
2982.00,0.0195
2981.00,0.0212
2980.00,0.0231
2979.00,0.0252
2978.00,0.0277
2977.00,0.0305
2976.00,0.0337
2975.00,0.0375
2974.00,0.0419
2973.00,0.0469
2972.00,0.0526
2971.00,0.0590
2970.00,0.0661
2969.00,0.0740
2968.00,0.0827
2967.00,0.0921
2966.00,0.1020
2965.00,0.1123
2964.00,0.1226
2963.00,0.1322
2962.00,0.1405
2961.00,0.1471
2960.00,0.1518
2959.00,0.1548
2958.00,0.1570
2957.00,0.1591
2956.00,0.1620
2955.00,0.1662
2954.00,0.1716
2953.00,0.1777
2952.00,0.1831
2951.00,0.1865
2950.00,0.1867
2949.00,0.1829
2948.00,0.1753
2947.00,0.1647
2946.00,0.1525
2945.00,0.1400
2944.00,0.1285
2943.00,0.1187
2942.00,0.1112
2941.00,0.1060
2940.00,0.1031
2939.00,0.1021
2938.00,0.1031
2937.00,0.1056
2936.00,0.1097
2935.00,0.1151
2934.00,0.1219
2933.00,0.1298
2932.00,0.1388
2931.00,0.1488
2930.00,0.1593
2929.00,0.1703
2928.00,0.1812
2927.00,0.1920
2926.00,0.2025
2925.00,0.2125
2924.00,0.2223
2923.00,0.2319
2922.00,0.2414
2921.00,0.2504
2920.00,0.2580
2919.00,0.2634
2918.00,0.2655
2917.00,0.2638
2916.00,0.2583
2915.00,0.2499
2914.00,0.2397
2913.00,0.2292
2912.00,0.2194
2911.00,0.2107
2910.00,0.2034
2909.00,0.1970
2908.00,0.1913
2907.00,0.1857
2906.00,0.1801
2905.00,0.1741
2904.00,0.1677
2903.00,0.1612
2902.00,0.1546
2901.00,0.1481
2900.00,0.1419
2899.00,0.1359
2898.00,0.1303
2897.00,0.1251
2896.00,0.1204
2895.00,0.1163
2894.00,0.1129
2893.00,0.1101
2892.00,0.1078
2891.00,0.1061
2890.00,0.1048
2889.00,0.1040
2888.00,0.1035
2887.00,0.1032
2886.00,0.1033
2885.00,0.1036
2884.00,0.1043
2883.00,0.1053
2882.00,0.1067
2881.00,0.1081
2880.00,0.1094
2879.00,0.1104
2878.00,0.1107
2877.00,0.1105
2876.00,0.1099
2875.00,0.1092
2874.00,0.1089
2873.00,0.1092
2872.00,0.1103
2871.00,0.1120
2870.00,0.1141
2869.00,0.1161
2868.00,0.1174
2867.00,0.1173
2866.00,0.1152
2865.00,0.1111
2864.00,0.1054
2863.00,0.0988
2862.00,0.0922
2861.00,0.0866
2860.00,0.0822
2859.00,0.0792
2858.00,0.0776
2857.00,0.0771
2856.00,0.0774
2855.00,0.0783
2854.00,0.0797
2853.00,0.0813
2852.00,0.0830
2851.00,0.0846
2850.00,0.0860
2849.00,0.0871
2848.00,0.0884
2847.00,0.0901
2846.00,0.0927
2845.00,0.0964
2844.00,0.1010
2843.00,0.1062
2842.00,0.1115
2841.00,0.1161
2840.00,0.1193
2839.00,0.1202
2838.00,0.1185
2837.00,0.1138
2836.00,0.1066
2835.00,0.0975
2834.00,0.0874
2833.00,0.0772
2832.00,0.0678
2831.00,0.0596
2830.00,0.0526
2829.00,0.0469
2828.00,0.0422
2827.00,0.0384
2826.00,0.0353
2825.00,0.0327
2824.00,0.0305
2823.00,0.0286
2822.00,0.0269
2821.00,0.0255
2820.00,0.0242
2819.00,0.0231
2818.00,0.0221
2817.00,0.0213
2816.00,0.0205
2815.00,0.0198
2814.00,0.0192
2813.00,0.0187
2812.00,0.0182
2811.00,0.0177
2810.00,0.0172
2809.00,0.0167
2808.00,0.0161
2807.00,0.0155
2806.00,0.0149
2805.00,0.0143
2804.00,0.0137
2803.00,0.0131
2802.00,0.0127
2801.00,0.0122
2800.00,0.0119
2799.00,0.0116
2798.00,0.0113
2797.00,0.0111
2796.00,0.0108
2795.00,0.0106
2794.00,0.0103
2793.00,0.0100
2792.00,0.0097
2791.00,0.0094
2790.00,0.0091
2789.00,0.0087
2788.00,0.0084
2787.00,0.0081
2786.00,0.0078
2785.00,0.0075
2784.00,0.0073
2783.00,0.0071
2782.00,0.0068
2781.00,0.0067
2780.00,0.0065
2779.00,0.0063
2778.00,0.0062
2777.00,0.0060
2776.00,0.0059
2775.00,0.0058
2774.00,0.0057
2773.00,0.0056
2772.00,0.0056
2771.00,0.0055
2770.00,0.0055
2769.00,0.0054
2768.00,0.0054
2767.00,0.0053
2766.00,0.0053
2765.00,0.0053
2764.00,0.0053
2763.00,0.0052
2762.00,0.0052
2761.00,0.0052
2760.00,0.0051
2759.00,0.0051
2758.00,0.0051
2757.00,0.0051
2756.00,0.0051
2755.00,0.0051
2754.00,0.0050
2753.00,0.0050
2752.00,0.0050
2751.00,0.0049
2750.00,0.0049
2749.00,0.0049
2748.00,0.0049
2747.00,0.0049
2746.00,0.0049
2745.00,0.0050
2744.00,0.0051
2743.00,0.0052
2742.00,0.0053
2741.00,0.0054
2740.00,0.0055
2739.00,0.0056
2738.00,0.0057
2737.00,0.0058
2736.00,0.0059
2735.00,0.0060
2734.00,0.0062
2733.00,0.0063
2732.00,0.0065
2731.00,0.0067
2730.00,0.0068
2729.00,0.0070
2728.00,0.0072
2727.00,0.0075
2726.00,0.0078
2725.00,0.0080
2724.00,0.0082
2723.00,0.0082
2722.00,0.0082
2721.00,0.0080
2720.00,0.0078
2719.00,0.0075
2718.00,0.0071
2717.00,0.0069
2716.00,0.0066
2715.00,0.0064
2714.00,0.0061
2713.00,0.0059
2712.00,0.0057
2711.00,0.0056
2710.00,0.0054
2709.00,0.0052
2708.00,0.0051
2707.00,0.0050
2706.00,0.0049
2705.00,0.0048
2704.00,0.0047
2703.00,0.0046
2702.00,0.0045
2701.00,0.0044
2700.00,0.0044
2699.00,0.0043
2698.00,0.0043
2697.00,0.0043
2696.00,0.0043
2695.00,0.0043
2694.00,0.0043
2693.00,0.0044
2692.00,0.0044
2691.00,0.0044
2690.00,0.0044
2689.00,0.0043
2688.00,0.0043
2687.00,0.0043
2686.00,0.0043
2685.00,0.0043
2684.00,0.0043
2683.00,0.0043
2682.00,0.0043
2681.00,0.0043
2680.00,0.0044
2679.00,0.0044
2678.00,0.0044
2677.00,0.0044
2676.00,0.0044
2675.00,0.0044
2674.00,0.0043
2673.00,0.0043
2672.00,0.0042
2671.00,0.0042
2670.00,0.0042
2669.00,0.0043
2668.00,0.0043
2667.00,0.0043
2666.00,0.0043
2665.00,0.0044
2664.00,0.0044
2663.00,0.0045
2662.00,0.0045
2661.00,0.0046
2660.00,0.0046
2659.00,0.0046
2658.00,0.0046
2657.00,0.0046
2656.00,0.0045
2655.00,0.0045
2654.00,0.0044
2653.00,0.0043
2652.00,0.0043
2651.00,0.0042
2650.00,0.0042
2649.00,0.0041
2648.00,0.0040
2647.00,0.0040
2646.00,0.0040
2645.00,0.0040
2644.00,0.0040
2643.00,0.0039
2642.00,0.0039
2641.00,0.0038
2640.00,0.0038
2639.00,0.0038
2638.00,0.0038
2637.00,0.0037
2636.00,0.0037
2635.00,0.0037
2634.00,0.0037
2633.00,0.0037
2632.00,0.0037
2631.00,0.0037
2630.00,0.0037
2629.00,0.0037
2628.00,0.0037
2627.00,0.0038
2626.00,0.0038
2625.00,0.0038
2624.00,0.0039
2623.00,0.0039
2622.00,0.0039
2621.00,0.0039
2620.00,0.0039
2619.00,0.0038
2618.00,0.0038
2617.00,0.0038
2616.00,0.0038
2615.00,0.0038
2614.00,0.0038
2613.00,0.0038
2612.00,0.0037
2611.00,0.0037
2610.00,0.0036
2609.00,0.0035
2608.00,0.0034
2607.00,0.0033
2606.00,0.0032
2605.00,0.0031
2604.00,0.0031
2603.00,0.0031
2602.00,0.0031
2601.00,0.0031
2600.00,0.0030
2599.00,0.0030
2598.00,0.0030
2597.00,0.0030
2596.00,0.0030
2595.00,0.0030
2594.00,0.0030
2593.00,0.0031
2592.00,0.0031
2591.00,0.0031
2590.00,0.0032
2589.00,0.0033
2588.00,0.0033
2587.00,0.0033
2586.00,0.0034
2585.00,0.0034
2584.00,0.0035
2583.00,0.0035
2582.00,0.0036
2581.00,0.0036
2580.00,0.0035
2579.00,0.0035
2578.00,0.0034
2577.00,0.0033
2576.00,0.0032
2575.00,0.0031
2574.00,0.0030
2573.00,0.0029
2572.00,0.0028
2571.00,0.0026
2570.00,0.0025
2569.00,0.0025
2568.00,0.0025
2567.00,0.0024
2566.00,0.0024
2565.00,0.0024
2564.00,0.0023
2563.00,0.0022
2562.00,0.0022
2561.00,0.0021
2560.00,0.0021
2559.00,0.0020
2558.00,0.0020
2557.00,0.0020
2556.00,0.0020
2555.00,0.0020
2554.00,0.0020
2553.00,0.0020
2552.00,0.0020
2551.00,0.0019
2550.00,0.0018
2549.00,0.0018
2548.00,0.0017
2547.00,0.0017
2546.00,0.0017
2545.00,0.0017
2544.00,0.0017
2543.00,0.0017
2542.00,0.0017
2541.00,0.0017
2540.00,0.0017
2539.00,0.0017
2538.00,0.0016
2537.00,0.0016
2536.00,0.0015
2535.00,0.0015
2534.00,0.0015
2533.00,0.0014
2532.00,0.0014
2531.00,0.0014
2530.00,0.0014
2529.00,0.0014
2528.00,0.0014
2527.00,0.0014
2526.00,0.0013
2525.00,0.0013
2524.00,0.0012
2523.00,0.0012
2522.00,0.0012
2521.00,0.0012
2520.00,0.0012
2519.00,0.0011
2518.00,0.0011
2517.00,0.0010
2516.00,0.0011
2515.00,0.0011
2514.00,0.0011
2513.00,0.0011
2512.00,0.0011
2511.00,0.0011
2510.00,0.0010
2509.00,0.0010
2508.00,0.0010
2507.00,0.0009
2506.00,0.0009
2505.00,0.0008
2504.00,0.0008
2503.00,0.0008
2502.00,0.0009
2501.00,0.0009
2500.00,0.0010
2499.00,0.0010
2498.00,0.0009
2497.00,0.0009
2496.00,0.0008
2495.00,0.0008
2494.00,0.0008
2493.00,0.0008
2492.00,0.0008
2491.00,0.0008
2490.00,0.0009
2489.00,0.0009
2488.00,0.0010
2487.00,0.0010
2486.00,0.0010
2485.00,0.0010
2484.00,0.0010
2483.00,0.0010
2482.00,0.0010
2481.00,0.0009
2480.00,0.0008
2479.00,0.0007
2478.00,0.0007
2477.00,0.0007
2476.00,0.0007
2475.00,0.0007
2474.00,0.0007
2473.00,0.0007
2472.00,0.0007
2471.00,0.0008
2470.00,0.0008
2469.00,0.0008
2468.00,0.0008
2467.00,0.0008
2466.00,0.0009
2465.00,0.0009
2464.00,0.0008
2463.00,0.0008
2462.00,0.0008
2461.00,0.0007
2460.00,0.0007
2459.00,0.0007
2458.00,0.0008
2457.00,0.0009
2456.00,0.0009
2455.00,0.0010
2454.00,0.0010
2453.00,0.0010
2452.00,0.0010
2451.00,0.0010
2450.00,0.0010
2449.00,0.0010
2448.00,0.0010
2447.00,0.0010
2446.00,0.0009
2445.00,0.0009
2444.00,0.0009
2443.00,0.0009
2442.00,0.0010
2441.00,0.0010
2440.00,0.0010
2439.00,0.0009
2438.00,0.0009
2437.00,0.0009
2436.00,0.0009
2435.00,0.0009
2434.00,0.0010
2433.00,0.0010
2432.00,0.0010
2431.00,0.0010
2430.00,0.0010
2429.00,0.0009
2428.00,0.0009
2427.00,0.0009
2426.00,0.0009
2425.00,0.0009
2424.00,0.0009
2423.00,0.0009
2422.00,0.0008
2421.00,0.0008
2420.00,0.0008
2419.00,0.0008
2418.00,0.0008
2417.00,0.0008
2416.00,0.0009
2415.00,0.0009
2414.00,0.0009
2413.00,0.0009
2412.00,0.0009
2411.00,0.0009
2410.00,0.0008
2409.00,0.0008
2408.00,0.0007
2407.00,0.0006
2406.00,0.0006
2405.00,0.0006
2404.00,0.0007
2403.00,0.0007
2402.00,0.0008
2401.00,0.0007
2400.00,0.0006
2399.00,0.0006
2398.00,0.0006
2397.00,0.0006
2396.00,0.0007
2395.00,0.0007
2394.00,0.0006
2393.00,0.0006
2392.00,0.0005
2391.00,0.0005
2390.00,0.0006
2389.00,0.0006
2388.00,0.0007
2387.00,0.0007
2386.00,0.0006
2385.00,0.0006
2384.00,0.0005
2383.00,0.0004
2382.00,0.0004
2381.00,0.0004
2380.00,0.0004
2379.00,0.0004
2378.00,0.0004
2377.00,0.0004
2376.00,0.0004
2375.00,0.0004
2374.00,0.0003
2373.00,0.0003
2372.00,0.0003
2371.00,0.0003
2370.00,0.0003
2369.00,0.0003
2368.00,0.0003
2367.00,0.0003
2366.00,0.0003
2365.00,0.0003
2364.00,0.0003
2363.00,0.0003
2362.00,0.0004
2361.00,0.0004
2360.00,0.0004
2359.00,0.0004
2358.00,0.0004
2357.00,0.0003
2356.00,0.0003
2355.00,0.0002
2354.00,0.0001
2353.00,0.0001
2352.00,0.0000
2351.00,-0.0000
2350.00,0.0000
2349.00,0.0001
2348.00,0.0003
2347.00,0.0005
2346.00,0.0006
2345.00,0.0006
2344.00,0.0005
2343.00,0.0005
2342.00,0.0006
2341.00,0.0006
2340.00,0.0006
2339.00,0.0006
2338.00,0.0007
2337.00,0.0007
2336.00,0.0007
2335.00,0.0007
2334.00,0.0007
2333.00,0.0007
2332.00,0.0007
2331.00,0.0007
2330.00,0.0006
2329.00,0.0006
2328.00,0.0007
2327.00,0.0010
2326.00,0.0014
2325.00,0.0019
2324.00,0.0021
2323.00,0.0020
2322.00,0.0017
2321.00,0.0014
2320.00,0.0012
2319.00,0.0010
2318.00,0.0010
2317.00,0.0009
2316.00,0.0009
2315.00,0.0009
2314.00,0.0009
2313.00,0.0009
2312.00,0.0008
2311.00,0.0008
2310.00,0.0007
2309.00,0.0007
2308.00,0.0006
2307.00,0.0005
2306.00,0.0004
2305.00,0.0005
2304.00,0.0005
2303.00,0.0007
2302.00,0.0008
2301.00,0.0008
2300.00,0.0009
2299.00,0.0009
2298.00,0.0009
2297.00,0.0009
2296.00,0.0010
2295.00,0.0011
2294.00,0.0012
2293.00,0.0013
2292.00,0.0015
2291.00,0.0016
2290.00,0.0017
2289.00,0.0017
2288.00,0.0018
2287.00,0.0019
2286.00,0.0019
2285.00,0.0019
2284.00,0.0018
2283.00,0.0017
2282.00,0.0016
2281.00,0.0015
2280.00,0.0015
2279.00,0.0014
2278.00,0.0014
2277.00,0.0014
2276.00,0.0013
2275.00,0.0012
2274.00,0.0011
2273.00,0.0011
2272.00,0.0011
2271.00,0.0010
2270.00,0.0010
2269.00,0.0010
2268.00,0.0009
2267.00,0.0009
2266.00,0.0008
2265.00,0.0008
2264.00,0.0008
2263.00,0.0009
2262.00,0.0009
2261.00,0.0010
2260.00,0.0010
2259.00,0.0010
2258.00,0.0010
2257.00,0.0011
2256.00,0.0011
2255.00,0.0011
2254.00,0.0010
2253.00,0.0010
2252.00,0.0010
2251.00,0.0010
2250.00,0.0009
2249.00,0.0007
2248.00,0.0006
2247.00,0.0005
2246.00,0.0004
2245.00,0.0003
2244.00,0.0003
2243.00,0.0003
2242.00,0.0004
2241.00,0.0005
2240.00,0.0007
2239.00,0.0009
2238.00,0.0010
2237.00,0.0011
2236.00,0.0011
2235.00,0.0011
2234.00,0.0010
2233.00,0.0009
2232.00,0.0007
2231.00,0.0007
2230.00,0.0006
2229.00,0.0007
2228.00,0.0008
2227.00,0.0010
2226.00,0.0011
2225.00,0.0011
2224.00,0.0011
2223.00,0.0009
2222.00,0.0007
2221.00,0.0005
2220.00,0.0004
2219.00,0.0003
2218.00,0.0002
2217.00,0.0001
2216.00,0.0001
2215.00,0.0002
2214.00,0.0004
2213.00,0.0007
2212.00,0.0009
2211.00,0.0010
2210.00,0.0010
2209.00,0.0009
2208.00,0.0008
2207.00,0.0007
2206.00,0.0006
2205.00,0.0004
2204.00,0.0003
2203.00,0.0002
2202.00,0.0002
2201.00,0.0003
2200.00,0.0004
2199.00,0.0005
2198.00,0.0005
2197.00,0.0006
2196.00,0.0005
2195.00,0.0004
2194.00,0.0003
2193.00,0.0004
2192.00,0.0005
2191.00,0.0006
2190.00,0.0007
2189.00,0.0008
2188.00,0.0009
2187.00,0.0010
2186.00,0.0010
2185.00,0.0009
2184.00,0.0008
2183.00,0.0005
2182.00,0.0002
2181.00,-0.0000
2180.00,-0.0000
2179.00,0.0002
2178.00,0.0003
2177.00,0.0003
2176.00,0.0003
2175.00,0.0003
2174.00,0.0006
2173.00,0.0009
2172.00,0.0010
2171.00,0.0008
2170.00,0.0006
2169.00,0.0005
2168.00,0.0006
2167.00,0.0006
2166.00,0.0007
2165.00,0.0010
2164.00,0.0015
2163.00,0.0021
2162.00,0.0025
2161.00,0.0022
2160.00,0.0011
2159.00,-0.0006
2158.00,-0.0021
2157.00,-0.0030
2156.00,-0.0032
2155.00,-0.0029
2154.00,-0.0026
2153.00,-0.0022
2152.00,-0.0019
2151.00,-0.0018
2150.00,-0.0017
2149.00,-0.0018
2148.00,-0.0020
2147.00,-0.0022
2146.00,-0.0024
2145.00,-0.0024
2144.00,-0.0022
2143.00,-0.0020
2142.00,-0.0018
2141.00,-0.0016
2140.00,-0.0015
2139.00,-0.0015
2138.00,-0.0014
2137.00,-0.0014
2136.00,-0.0016
2135.00,-0.0019
2134.00,-0.0021
2133.00,-0.0021
2132.00,-0.0019
2131.00,-0.0015
2130.00,-0.0011
2129.00,-0.0009
2128.00,-0.0007
2127.00,-0.0007
2126.00,-0.0008
2125.00,-0.0008
2124.00,-0.0007
2123.00,-0.0006
2122.00,-0.0004
2121.00,-0.0001
2120.00,-0.0000
2119.00,0.0000
2118.00,-0.0000
2117.00,-0.0000
2116.00,-0.0000
2115.00,0.0000
2114.00,0.0001
2113.00,0.0002
2112.00,0.0003
2111.00,0.0002
2110.00,0.0001
2109.00,-0.0000
2108.00,-0.0001
2107.00,-0.0001
2106.00,-0.0000
2105.00,0.0001
2104.00,0.0003
2103.00,0.0004
2102.00,0.0003
2101.00,0.0002
2100.00,0.0001
2099.00,0.0000
2098.00,-0.0002
2097.00,-0.0004
2096.00,-0.0005
2095.00,-0.0006
2094.00,-0.0005
2093.00,-0.0004
2092.00,-0.0002
2091.00,-0.0002
2090.00,-0.0002
2089.00,-0.0001
2088.00,0.0001
2087.00,0.0003
2086.00,0.0004
2085.00,0.0004
2084.00,0.0003
2083.00,0.0003
2082.00,0.0003
2081.00,0.0004
2080.00,0.0004
2079.00,0.0005
2078.00,0.0004
2077.00,0.0003
2076.00,0.0001
2075.00,0.0000
2074.00,0.0000
2073.00,0.0000
2072.00,0.0000
2071.00,-0.0000
2070.00,-0.0001
2069.00,-0.0002
2068.00,-0.0002
2067.00,-0.0001
2066.00,-0.0000
2065.00,0.0001
2064.00,0.0001
2063.00,0.0000
2062.00,-0.0001
2061.00,-0.0001
2060.00,-0.0001
2059.00,-0.0000
2058.00,-0.0000
2057.00,-0.0000
2056.00,-0.0001
2055.00,-0.0001
2054.00,0.0001
2053.00,0.0004
2052.00,0.0007
2051.00,0.0008
2050.00,0.0007
2049.00,0.0003
2048.00,0.0000
2047.00,-0.0002
2046.00,-0.0004
2045.00,-0.0005
2044.00,-0.0005
2043.00,-0.0004
2042.00,-0.0002
2041.00,-0.0001
2040.00,-0.0001
2039.00,-0.0001
2038.00,-0.0000
2037.00,0.0001
2036.00,0.0003
2035.00,0.0002
2034.00,-0.0000
2033.00,-0.0004
2032.00,-0.0008
2031.00,-0.0013
2030.00,-0.0017
2029.00,-0.0019
2028.00,-0.0018
2027.00,-0.0016
2026.00,-0.0015
2025.00,-0.0014
2024.00,-0.0014
2023.00,-0.0015
2022.00,-0.0015
2021.00,-0.0015
2020.00,-0.0015
2019.00,-0.0014
2018.00,-0.0014
2017.00,-0.0012
2016.00,-0.0012
2015.00,-0.0013
2014.00,-0.0016
2013.00,-0.0017
2012.00,-0.0015
2011.00,-0.0013
2010.00,-0.0012
2009.00,-0.0013
2008.00,-0.0016
2007.00,-0.0019
2006.00,-0.0021
2005.00,-0.0020
2004.00,-0.0016
2003.00,-0.0014
2002.00,-0.0013
2001.00,-0.0015
2000.00,-0.0016
1999.00,-0.0018
1998.00,-0.0019
1997.00,-0.0019
1996.00,-0.0019
1995.00,-0.0018
1994.00,-0.0018
1993.00,-0.0016
1992.00,-0.0014
1991.00,-0.0010
1990.00,-0.0007
1989.00,-0.0004
1988.00,-0.0004
1987.00,-0.0004
1986.00,-0.0005
1985.00,-0.0004
1984.00,-0.0001
1983.00,0.0002
1982.00,0.0004
1981.00,0.0005
1980.00,0.0003
1979.00,-0.0002
1978.00,-0.0008
1977.00,-0.0011
1976.00,-0.0012
1975.00,-0.0012
1974.00,-0.0013
1973.00,-0.0014
1972.00,-0.0015
1971.00,-0.0016
1970.00,-0.0016
1969.00,-0.0016
1968.00,-0.0016
1967.00,-0.0016
1966.00,-0.0017
1965.00,-0.0018
1964.00,-0.0019
1963.00,-0.0020
1962.00,-0.0022
1961.00,-0.0023
1960.00,-0.0023
1959.00,-0.0022
1958.00,-0.0020
1957.00,-0.0018
1956.00,-0.0016
1955.00,-0.0014
1954.00,-0.0013
1953.00,-0.0012
1952.00,-0.0011
1951.00,-0.0012
1950.00,-0.0014
1949.00,-0.0015
1948.00,-0.0017
1947.00,-0.0019
1946.00,-0.0020
1945.00,-0.0021
1944.00,-0.0021
1943.00,-0.0020
1942.00,-0.0020
1941.00,-0.0018
1940.00,-0.0017
1939.00,-0.0016
1938.00,-0.0015
1937.00,-0.0014
1936.00,-0.0013
1935.00,-0.0012
1934.00,-0.0012
1933.00,-0.0012
1932.00,-0.0013
1931.00,-0.0013
1930.00,-0.0013
1929.00,-0.0012
1928.00,-0.0011
1927.00,-0.0010
1926.00,-0.0009
1925.00,-0.0008
1924.00,-0.0007
1923.00,-0.0006
1922.00,-0.0006
1921.00,-0.0007
1920.00,-0.0008
1919.00,-0.0008
1918.00,-0.0006
1917.00,-0.0004
1916.00,-0.0003
1915.00,-0.0003
1914.00,-0.0004
1913.00,-0.0004
1912.00,-0.0004
1911.00,-0.0003
1910.00,-0.0002
1909.00,-0.0002
1908.00,-0.0002
1907.00,-0.0003
1906.00,-0.0004
1905.00,-0.0005
1904.00,-0.0006
1903.00,-0.0006
1902.00,-0.0005
1901.00,-0.0004
1900.00,-0.0003
1899.00,-0.0003
1898.00,-0.0003
1897.00,-0.0003
1896.00,-0.0004
1895.00,-0.0005
1894.00,-0.0005
1893.00,-0.0006
1892.00,-0.0006
1891.00,-0.0006
1890.00,-0.0006
1889.00,-0.0004
1888.00,-0.0003
1887.00,-0.0001
1886.00,-0.0001
1885.00,-0.0002
1884.00,-0.0003
1883.00,-0.0003
1882.00,-0.0003
1881.00,-0.0002
1880.00,-0.0002
1879.00,-0.0002
1878.00,-0.0002
1877.00,-0.0002
1876.00,-0.0002
1875.00,-0.0002
1874.00,-0.0002
1873.00,-0.0001
1872.00,-0.0000
1871.00,0.0000
1870.00,0.0000
1869.00,-0.0000
1868.00,-0.0001
1867.00,-0.0002
1866.00,-0.0002
1865.00,-0.0002
1864.00,-0.0002
1863.00,-0.0002
1862.00,-0.0001
1861.00,-0.0001
1860.00,-0.0001
1859.00,-0.0001
1858.00,-0.0001
1857.00,-0.0001
1856.00,-0.0002
1855.00,-0.0003
1854.00,-0.0004
1853.00,-0.0004
1852.00,-0.0003
1851.00,-0.0002
1850.00,-0.0001
1849.00,-0.0000
1848.00,0.0000
1847.00,-0.0000
1846.00,-0.0001
1845.00,-0.0002
1844.00,-0.0002
1843.00,-0.0001
1842.00,-0.0001
1841.00,0.0000
1840.00,0.0000
1839.00,-0.0000
1838.00,-0.0001
1837.00,-0.0000
1836.00,0.0000
1835.00,0.0001
1834.00,0.0001
1833.00,0.0001
1832.00,0.0000
1831.00,-0.0000
1830.00,-0.0000
1829.00,0.0001
1828.00,0.0002
1827.00,0.0002
1826.00,0.0002
1825.00,0.0002
1824.00,0.0002
1823.00,0.0002
1822.00,0.0002
1821.00,0.0001
1820.00,0.0001
1819.00,-0.0000
1818.00,-0.0002
1817.00,-0.0002
1816.00,-0.0002
1815.00,-0.0001
1814.00,-0.0001
1813.00,-0.0000
1812.00,0.0000
1811.00,0.0001
1810.00,0.0001
1809.00,0.0002
1808.00,0.0002
1807.00,0.0002
1806.00,0.0003
1805.00,0.0003
1804.00,0.0003
1803.00,0.0004
1802.00,0.0004
1801.00,0.0003
1800.00,0.0003
1799.00,0.0003
1798.00,0.0004
1797.00,0.0004
1796.00,0.0005
1795.00,0.0005
1794.00,0.0005
1793.00,0.0005
1792.00,0.0006
1791.00,0.0006
1790.00,0.0005
1789.00,0.0005
1788.00,0.0005
1787.00,0.0005
1786.00,0.0006
1785.00,0.0006
1784.00,0.0007
1783.00,0.0006
1782.00,0.0006
1781.00,0.0006
1780.00,0.0006
1779.00,0.0006
1778.00,0.0006
1777.00,0.0006
1776.00,0.0006
1775.00,0.0006
1774.00,0.0006
1773.00,0.0006
1772.00,0.0006
1771.00,0.0007
1770.00,0.0007
1769.00,0.0007
1768.00,0.0007
1767.00,0.0007
1766.00,0.0008
1765.00,0.0008
1764.00,0.0009
1763.00,0.0009
1762.00,0.0009
1761.00,0.0010
1760.00,0.0010
1759.00,0.0011
1758.00,0.0011
1757.00,0.0012
1756.00,0.0012
1755.00,0.0013
1754.00,0.0013
1753.00,0.0014
1752.00,0.0016
1751.00,0.0017
1750.00,0.0018
1749.00,0.0019
1748.00,0.0020
1747.00,0.0021
1746.00,0.0022
1745.00,0.0022
1744.00,0.0023
1743.00,0.0024
1742.00,0.0024
1741.00,0.0026
1740.00,0.0027
1739.00,0.0027
1738.00,0.0027
1737.00,0.0028
1736.00,0.0028
1735.00,0.0028
1734.00,0.0028
1733.00,0.0028
1732.00,0.0028
1731.00,0.0028
1730.00,0.0028
1729.00,0.0027
1728.00,0.0028
1727.00,0.0028
1726.00,0.0028
1725.00,0.0028
1724.00,0.0028
1723.00,0.0028
1722.00,0.0028
1721.00,0.0028
1720.00,0.0027
1719.00,0.0027
1718.00,0.0026
1717.00,0.0025
1716.00,0.0025
1715.00,0.0025
1714.00,0.0025
1713.00,0.0024
1712.00,0.0024
1711.00,0.0024
1710.00,0.0024
1709.00,0.0024
1708.00,0.0024
1707.00,0.0024
1706.00,0.0024
1705.00,0.0024
1704.00,0.0024
1703.00,0.0024
1702.00,0.0024
1701.00,0.0024
1700.00,0.0024
1699.00,0.0025
1698.00,0.0026
1697.00,0.0026
1696.00,0.0026
1695.00,0.0027
1694.00,0.0027
1693.00,0.0028
1692.00,0.0028
1691.00,0.0029
1690.00,0.0029
1689.00,0.0030
1688.00,0.0031
1687.00,0.0031
1686.00,0.0032
1685.00,0.0033
1684.00,0.0034
1683.00,0.0035
1682.00,0.0035
1681.00,0.0035
1680.00,0.0036
1679.00,0.0036
1678.00,0.0037
1677.00,0.0039
1676.00,0.0040
1675.00,0.0041
1674.00,0.0041
1673.00,0.0042
1672.00,0.0042
1671.00,0.0043
1670.00,0.0043
1669.00,0.0043
1668.00,0.0043
1667.00,0.0044
1666.00,0.0044
1665.00,0.0045
1664.00,0.0045
1663.00,0.0046
1662.00,0.0046
1661.00,0.0047
1660.00,0.0047
1659.00,0.0047
1658.00,0.0048
1657.00,0.0048
1656.00,0.0049
1655.00,0.0050
1654.00,0.0050
1653.00,0.0049
1652.00,0.0050
1651.00,0.0050
1650.00,0.0050
1649.00,0.0050
1648.00,0.0051
1647.00,0.0051
1646.00,0.0051
1645.00,0.0052
1644.00,0.0054
1643.00,0.0055
1642.00,0.0057
1641.00,0.0059
1640.00,0.0061
1639.00,0.0062
1638.00,0.0064
1637.00,0.0065
1636.00,0.0065
1635.00,0.0064
1634.00,0.0062
1633.00,0.0061
1632.00,0.0061
1631.00,0.0060
1630.00,0.0060
1629.00,0.0060
1628.00,0.0060
1627.00,0.0060
1626.00,0.0059
1625.00,0.0059
1624.00,0.0059
1623.00,0.0058
1622.00,0.0058
1621.00,0.0058
1620.00,0.0058
1619.00,0.0058
1618.00,0.0057
1617.00,0.0056
1616.00,0.0056
1615.00,0.0055
1614.00,0.0055
1613.00,0.0055
1612.00,0.0055
1611.00,0.0055
1610.00,0.0055
1609.00,0.0055
1608.00,0.0055
1607.00,0.0055
1606.00,0.0054
1605.00,0.0054
1604.00,0.0054
1603.00,0.0054
1602.00,0.0054
1601.00,0.0054
1600.00,0.0054
1599.00,0.0053
1598.00,0.0053
1597.00,0.0052
1596.00,0.0052
1595.00,0.0052
1594.00,0.0052
1593.00,0.0052
1592.00,0.0053
1591.00,0.0052
1590.00,0.0052
1589.00,0.0052
1588.00,0.0052
1587.00,0.0053
1586.00,0.0054
1585.00,0.0055
1584.00,0.0057
1583.00,0.0058
1582.00,0.0060
1581.00,0.0062
1580.00,0.0064
1579.00,0.0066
1578.00,0.0067
1577.00,0.0068
1576.00,0.0068
1575.00,0.0067
1574.00,0.0067
1573.00,0.0066
1572.00,0.0066
1571.00,0.0065
1570.00,0.0064
1569.00,0.0064
1568.00,0.0064
1567.00,0.0064
1566.00,0.0063
1565.00,0.0063
1564.00,0.0063
1563.00,0.0063
1562.00,0.0063
1561.00,0.0063
1560.00,0.0064
1559.00,0.0064
1558.00,0.0064
1557.00,0.0065
1556.00,0.0065
1555.00,0.0065
1554.00,0.0065
1553.00,0.0066
1552.00,0.0067
1551.00,0.0068
1550.00,0.0069
1549.00,0.0071
1548.00,0.0072
1547.00,0.0073
1546.00,0.0074
1545.00,0.0075
1544.00,0.0076
1543.00,0.0078
1542.00,0.0079
1541.00,0.0079
1540.00,0.0078
1539.00,0.0075
1538.00,0.0072
1537.00,0.0070
1536.00,0.0069
1535.00,0.0067
1534.00,0.0064
1533.00,0.0061
1532.00,0.0060
1531.00,0.0059
1530.00,0.0058
1529.00,0.0057
1528.00,0.0057
1527.00,0.0057
1526.00,0.0056
1525.00,0.0056
1524.00,0.0056
1523.00,0.0055
1522.00,0.0053
1521.00,0.0053
1520.00,0.0054
1519.00,0.0055
1518.00,0.0055
1517.00,0.0055
1516.00,0.0056
1515.00,0.0055
1514.00,0.0055
1513.00,0.0056
1512.00,0.0057
1511.00,0.0058
1510.00,0.0058
1509.00,0.0060
1508.00,0.0061
1507.00,0.0061
1506.00,0.0062
1505.00,0.0063
1504.00,0.0065
1503.00,0.0067
1502.00,0.0068
1501.00,0.0071
1500.00,0.0074
1499.00,0.0077
1498.00,0.0080
1497.00,0.0084
1496.00,0.0089
1495.00,0.0093
1494.00,0.0096
1493.00,0.0100
1492.00,0.0104
1491.00,0.0108
1490.00,0.0112
1489.00,0.0117
1488.00,0.0123
1487.00,0.0128
1486.00,0.0133
1485.00,0.0139
1484.00,0.0146
1483.00,0.0153
1482.00,0.0162
1481.00,0.0174
1480.00,0.0187
1479.00,0.0200
1478.00,0.0215
1477.00,0.0235
1476.00,0.0260
1475.00,0.0289
1474.00,0.0328
1473.00,0.0382
1472.00,0.0446
1471.00,0.0508
1470.00,0.0567
1469.00,0.0630
1468.00,0.0698
1467.00,0.0772
1466.00,0.0856
1465.00,0.0945
1464.00,0.1022
1463.00,0.1076
1462.00,0.1110
1461.00,0.1134
1460.00,0.1150
1459.00,0.1163
1458.00,0.1173
1457.00,0.1183
1456.00,0.1185
1455.00,0.1180
1454.00,0.1171
1453.00,0.1157
1452.00,0.1136
1451.00,0.1104
1450.00,0.1058
1449.00,0.0992
1448.00,0.0907
1447.00,0.0814
1446.00,0.0727
1445.00,0.0651
1444.00,0.0585
1443.00,0.0530
1442.00,0.0488
1441.00,0.0459
1440.00,0.0440
1439.00,0.0430
1438.00,0.0428
1437.00,0.0427
1436.00,0.0415
1435.00,0.0391
1434.00,0.0357
1433.00,0.0316
1432.00,0.0273
1431.00,0.0236
1430.00,0.0206
1429.00,0.0184
1428.00,0.0168
1427.00,0.0159
1426.00,0.0153
1425.00,0.0147
1424.00,0.0142
1423.00,0.0138
1422.00,0.0136
1421.00,0.0133
1420.00,0.0129
1419.00,0.0126
1418.00,0.0124
1417.00,0.0122
1416.00,0.0119
1415.00,0.0118
1414.00,0.0117
1413.00,0.0116
1412.00,0.0114
1411.00,0.0112
1410.00,0.0111
1409.00,0.0110
1408.00,0.0108
1407.00,0.0108
1406.00,0.0109
1405.00,0.0109
1404.00,0.0110
1403.00,0.0110
1402.00,0.0112
1401.00,0.0112
1400.00,0.0112
1399.00,0.0114
1398.00,0.0116
1397.00,0.0119
1396.00,0.0121
1395.00,0.0124
1394.00,0.0128
1393.00,0.0132
1392.00,0.0137
1391.00,0.0144
1390.00,0.0154
1389.00,0.0167
1388.00,0.0186
1387.00,0.0216
1386.00,0.0256
1385.00,0.0309
1384.00,0.0382
1383.00,0.0483
1382.00,0.0618
1381.00,0.0791
1380.00,0.1005
1379.00,0.1252
1378.00,0.1496
1377.00,0.1681
1376.00,0.1748
1375.00,0.1668
1374.00,0.1463
1373.00,0.1212
1372.00,0.0981
1371.00,0.0790
1370.00,0.0637
1369.00,0.0520
1368.00,0.0440
1367.00,0.0391
1366.00,0.0364
1365.00,0.0354
1364.00,0.0356
1363.00,0.0368
1362.00,0.0387
1361.00,0.0408
1360.00,0.0424
1359.00,0.0428
1358.00,0.0419
1357.00,0.0395
1356.00,0.0362
1355.00,0.0324
1354.00,0.0288
1353.00,0.0257
1352.00,0.0232
1351.00,0.0212
1350.00,0.0196
1349.00,0.0182
1348.00,0.0171
1347.00,0.0161
1346.00,0.0153
1345.00,0.0146
1344.00,0.0140
1343.00,0.0135
1342.00,0.0130
1341.00,0.0126
1340.00,0.0124
1339.00,0.0122
1338.00,0.0120
1337.00,0.0120
1336.00,0.0120
1335.00,0.0121
1334.00,0.0123
1333.00,0.0127
1332.00,0.0130
1331.00,0.0133
1330.00,0.0134
1329.00,0.0134
1328.00,0.0131
1327.00,0.0127
1326.00,0.0123
1325.00,0.0117
1324.00,0.0112
1323.00,0.0107
1322.00,0.0103
1321.00,0.0101
1320.00,0.0099
1319.00,0.0097
1318.00,0.0095
1317.00,0.0094
1316.00,0.0093
1315.00,0.0092
1314.00,0.0092
1313.00,0.0092
1312.00,0.0094
1311.00,0.0097
1310.00,0.0101
1309.00,0.0108
1308.00,0.0118
1307.00,0.0131
1306.00,0.0142
1305.00,0.0150
1304.00,0.0152
1303.00,0.0148
1302.00,0.0142
1301.00,0.0135
1300.00,0.0131
1299.00,0.0129
1298.00,0.0129
1297.00,0.0128
1296.00,0.0127
1295.00,0.0125
1294.00,0.0121
1293.00,0.0117
1292.00,0.0112
1291.00,0.0108
1290.00,0.0104
1289.00,0.0100
1288.00,0.0098
1287.00,0.0095
1286.00,0.0094
1285.00,0.0092
1284.00,0.0090
1283.00,0.0089
1282.00,0.0088
1281.00,0.0087
1280.00,0.0087
1279.00,0.0086
1278.00,0.0085
1277.00,0.0085
1276.00,0.0084
1275.00,0.0084
1274.00,0.0084
1273.00,0.0084
1272.00,0.0085
1271.00,0.0087
1270.00,0.0090
1269.00,0.0092
1268.00,0.0095
1267.00,0.0098
1266.00,0.0102
1265.00,0.0106
1264.00,0.0109
1263.00,0.0113
1262.00,0.0117
1261.00,0.0121
1260.00,0.0126
1259.00,0.0133
1258.00,0.0140
1257.00,0.0146
1256.00,0.0148
1255.00,0.0145
1254.00,0.0137
1253.00,0.0127
1252.00,0.0117
1251.00,0.0109
1250.00,0.0103
1249.00,0.0098
1248.00,0.0095
1247.00,0.0092
1246.00,0.0090
1245.00,0.0089
1244.00,0.0087
1243.00,0.0086
1242.00,0.0085
1241.00,0.0084
1240.00,0.0084
1239.00,0.0083
1238.00,0.0082
1237.00,0.0081
1236.00,0.0081
1235.00,0.0082
1234.00,0.0083
1233.00,0.0083
1232.00,0.0083
1231.00,0.0084
1230.00,0.0084
1229.00,0.0085
1228.00,0.0086
1227.00,0.0087
1226.00,0.0089
1225.00,0.0091
1224.00,0.0094
1223.00,0.0097
1222.00,0.0100
1221.00,0.0103
1220.00,0.0104
1219.00,0.0105
1218.00,0.0105
1217.00,0.0104
1216.00,0.0101
1215.00,0.0098
1214.00,0.0095
1213.00,0.0093
1212.00,0.0091
1211.00,0.0089
1210.00,0.0087
1209.00,0.0086
1208.00,0.0085
1207.00,0.0085
1206.00,0.0084
1205.00,0.0084
1204.00,0.0083
1203.00,0.0083
1202.00,0.0083
1201.00,0.0083
1200.00,0.0083
1199.00,0.0083
1198.00,0.0083
1197.00,0.0084
1196.00,0.0084
1195.00,0.0085
1194.00,0.0085
1193.00,0.0085
1192.00,0.0085
1191.00,0.0085
1190.00,0.0085
1189.00,0.0085
1188.00,0.0085
1187.00,0.0086
1186.00,0.0087
1185.00,0.0088
1184.00,0.0089
1183.00,0.0091
1182.00,0.0093
1181.00,0.0096
1180.00,0.0100
1179.00,0.0105
1178.00,0.0112
1177.00,0.0121
1176.00,0.0133
1175.00,0.0149
1174.00,0.0170
1173.00,0.0197
1172.00,0.0230
1171.00,0.0267
1170.00,0.0305
1169.00,0.0336
1168.00,0.0354
1167.00,0.0357
1166.00,0.0347
1165.00,0.0329
1164.00,0.0307
1163.00,0.0285
1162.00,0.0266
1161.00,0.0250
1160.00,0.0237
1159.00,0.0227
1158.00,0.0220
1157.00,0.0215
1156.00,0.0212
1155.00,0.0210
1154.00,0.0208
1153.00,0.0205
1152.00,0.0201
1151.00,0.0194
1150.00,0.0185
1149.00,0.0176
1148.00,0.0166
1147.00,0.0157
1146.00,0.0148
1145.00,0.0141
1144.00,0.0134
1143.00,0.0129
1142.00,0.0124
1141.00,0.0118
1140.00,0.0114
1139.00,0.0110
1138.00,0.0106
1137.00,0.0103
1136.00,0.0100
1135.00,0.0098
1134.00,0.0097
1133.00,0.0096
1132.00,0.0095
1131.00,0.0095
1130.00,0.0095
1129.00,0.0095
1128.00,0.0096
1127.00,0.0096
1126.00,0.0096
1125.00,0.0098
1124.00,0.0099
1123.00,0.0101
1122.00,0.0103
1121.00,0.0105
1120.00,0.0107
1119.00,0.0109
1118.00,0.0110
1117.00,0.0111
1116.00,0.0111
1115.00,0.0112
1114.00,0.0113
1113.00,0.0115
1112.00,0.0116
1111.00,0.0118
1110.00,0.0121
1109.00,0.0124
1108.00,0.0128
1107.00,0.0133
1106.00,0.0138
1105.00,0.0143
1104.00,0.0147
1103.00,0.0150
1102.00,0.0149
1101.00,0.0146
1100.00,0.0141
1099.00,0.0135
1098.00,0.0129
1097.00,0.0124
1096.00,0.0120
1095.00,0.0116
1094.00,0.0113
1093.00,0.0111
1092.00,0.0108
1091.00,0.0106
1090.00,0.0105
1089.00,0.0103
1088.00,0.0103
1087.00,0.0103
1086.00,0.0103
1085.00,0.0103
1084.00,0.0103
1083.00,0.0102
1082.00,0.0101
1081.00,0.0100
1080.00,0.0099
1079.00,0.0097
1078.00,0.0096
1077.00,0.0095
1076.00,0.0094
1075.00,0.0094
1074.00,0.0094
1073.00,0.0094
1072.00,0.0093
1071.00,0.0093
1070.00,0.0093
1069.00,0.0093
1068.00,0.0093
1067.00,0.0093
1066.00,0.0094
1065.00,0.0094
1064.00,0.0094
1063.00,0.0095
1062.00,0.0095
1061.00,0.0096
1060.00,0.0097
1059.00,0.0098
1058.00,0.0100
1057.00,0.0101
1056.00,0.0103
1055.00,0.0105
1054.00,0.0107
1053.00,0.0108
1052.00,0.0110
1051.00,0.0113
1050.00,0.0117
1049.00,0.0122
1048.00,0.0127
1047.00,0.0133
1046.00,0.0138
1045.00,0.0142
1044.00,0.0142
1043.00,0.0141
1042.00,0.0139
1041.00,0.0137
1040.00,0.0135
1039.00,0.0133
1038.00,0.0131
1037.00,0.0131
1036.00,0.0130
1035.00,0.0130
1034.00,0.0128
1033.00,0.0127
1032.00,0.0126
1031.00,0.0126
1030.00,0.0126
1029.00,0.0127
1028.00,0.0127
1027.00,0.0127
1026.00,0.0128
1025.00,0.0129
1024.00,0.0131
1023.00,0.0134
1022.00,0.0136
1021.00,0.0138
1020.00,0.0140
1019.00,0.0141
1018.00,0.0143
1017.00,0.0144
1016.00,0.0144
1015.00,0.0143
1014.00,0.0142
1013.00,0.0142
1012.00,0.0143
1011.00,0.0144
1010.00,0.0145
1009.00,0.0146
1008.00,0.0148
1007.00,0.0153
1006.00,0.0160
1005.00,0.0172
1004.00,0.0189
1003.00,0.0214
1002.00,0.0249
1001.00,0.0292
1000.00,0.0340
999.00,0.0381
998.00,0.0403
997.00,0.0396
996.00,0.0364
995.00,0.0318
994.00,0.0269
993.00,0.0227
992.00,0.0195
991.00,0.0172
990.00,0.0156
989.00,0.0145
988.00,0.0138
987.00,0.0133
986.00,0.0131
985.00,0.0131
984.00,0.0134
983.00,0.0140
982.00,0.0151
981.00,0.0167
980.00,0.0189
979.00,0.0219
978.00,0.0257
977.00,0.0302
976.00,0.0351
975.00,0.0400
974.00,0.0439
973.00,0.0456
972.00,0.0444
971.00,0.0404
970.00,0.0347
969.00,0.0288
968.00,0.0236
967.00,0.0197
966.00,0.0169
965.00,0.0150
964.00,0.0136
963.00,0.0126
962.00,0.0119
961.00,0.0113
960.00,0.0108
959.00,0.0103
958.00,0.0100
957.00,0.0096
956.00,0.0094
955.00,0.0091
954.00,0.0089
953.00,0.0088
952.00,0.0086
951.00,0.0085
950.00,0.0084
949.00,0.0083
948.00,0.0083
947.00,0.0083
946.00,0.0085
945.00,0.0087
944.00,0.0090
943.00,0.0094
942.00,0.0097
941.00,0.0098
940.00,0.0098
939.00,0.0096
938.00,0.0091
937.00,0.0086
936.00,0.0081
935.00,0.0077
934.00,0.0073
933.00,0.0071
932.00,0.0069
931.00,0.0068
930.00,0.0069
929.00,0.0068
928.00,0.0068
927.00,0.0066
926.00,0.0065
925.00,0.0065
924.00,0.0065
923.00,0.0066
922.00,0.0066
921.00,0.0067
920.00,0.0067
919.00,0.0067
918.00,0.0068
917.00,0.0069
916.00,0.0069
915.00,0.0070
914.00,0.0070
913.00,0.0069
912.00,0.0070
911.00,0.0071
910.00,0.0073
909.00,0.0075
908.00,0.0078
907.00,0.0082
906.00,0.0089
905.00,0.0098
904.00,0.0110
903.00,0.0126
902.00,0.0144
901.00,0.0160
900.00,0.0171
899.00,0.0174
898.00,0.0168
897.00,0.0154
896.00,0.0138
895.00,0.0122
894.00,0.0109
893.00,0.0099
892.00,0.0092
891.00,0.0088
890.00,0.0085
889.00,0.0083
888.00,0.0081
887.00,0.0080
886.00,0.0079
885.00,0.0079
884.00,0.0079
883.00,0.0079
882.00,0.0079
881.00,0.0079
880.00,0.0080
879.00,0.0081
878.00,0.0082
877.00,0.0082
876.00,0.0082
875.00,0.0082
874.00,0.0082
873.00,0.0083
872.00,0.0083
871.00,0.0083
870.00,0.0084
869.00,0.0084
868.00,0.0084
867.00,0.0084
866.00,0.0084
865.00,0.0084
864.00,0.0084
863.00,0.0085
862.00,0.0085
861.00,0.0086
860.00,0.0088
859.00,0.0089
858.00,0.0091
857.00,0.0093
856.00,0.0095
855.00,0.0096
854.00,0.0098
853.00,0.0100
852.00,0.0102
851.00,0.0106
850.00,0.0112
849.00,0.0120
848.00,0.0130
847.00,0.0145
846.00,0.0167
845.00,0.0201
844.00,0.0251
843.00,0.0312
842.00,0.0368
841.00,0.0393
840.00,0.0374
839.00,0.0320
838.00,0.0256
837.00,0.0203
836.00,0.0168
835.00,0.0147
834.00,0.0135
833.00,0.0127
832.00,0.0121
831.00,0.0117
830.00,0.0114
829.00,0.0112
828.00,0.0110
827.00,0.0109
826.00,0.0108
825.00,0.0108
824.00,0.0108
823.00,0.0108
822.00,0.0108
821.00,0.0108
820.00,0.0111
819.00,0.0114
818.00,0.0119
817.00,0.0125
816.00,0.0133
815.00,0.0144
814.00,0.0157
813.00,0.0173
812.00,0.0190
811.00,0.0206
810.00,0.0219
809.00,0.0225
808.00,0.0222
807.00,0.0211
806.00,0.0194
805.00,0.0176
804.00,0.0161
803.00,0.0150
802.00,0.0141
801.00,0.0134
800.00,0.0128
799.00,0.0123
798.00,0.0120
797.00,0.0116
796.00,0.0113
795.00,0.0109
794.00,0.0105
793.00,0.0101
792.00,0.0098
791.00,0.0096
790.00,0.0092
789.00,0.0089
788.00,0.0085
787.00,0.0083
786.00,0.0080
785.00,0.0078
784.00,0.0076
783.00,0.0075
782.00,0.0073
781.00,0.0072
780.00,0.0071
779.00,0.0071
778.00,0.0073
777.00,0.0074
776.00,0.0075
775.00,0.0075
774.00,0.0074
773.00,0.0074
772.00,0.0073
771.00,0.0073
770.00,0.0072
769.00,0.0073
768.00,0.0074
767.00,0.0074
766.00,0.0073
765.00,0.0073
764.00,0.0074
763.00,0.0074
762.00,0.0074
761.00,0.0074
760.00,0.0073
759.00,0.0072
758.00,0.0072
757.00,0.0074
756.00,0.0077
755.00,0.0080
754.00,0.0082
753.00,0.0083
752.00,0.0082
751.00,0.0083
750.00,0.0084
749.00,0.0087
748.00,0.0089
747.00,0.0090
746.00,0.0091
745.00,0.0093
744.00,0.0096
743.00,0.0099
742.00,0.0102
741.00,0.0105
740.00,0.0107
739.00,0.0111
738.00,0.0115
737.00,0.0119
736.00,0.0124
735.00,0.0128
734.00,0.0132
733.00,0.0137
732.00,0.0143
731.00,0.0149
730.00,0.0156
729.00,0.0160
728.00,0.0161
727.00,0.0161
726.00,0.0162
725.00,0.0166
724.00,0.0173
723.00,0.0181
722.00,0.0187
721.00,0.0190
720.00,0.0186
719.00,0.0176
718.00,0.0164
717.00,0.0151
716.00,0.0141
715.00,0.0133
714.00,0.0126
713.00,0.0122
712.00,0.0119
711.00,0.0117
710.00,0.0114
709.00,0.0112
708.00,0.0109
707.00,0.0107
706.00,0.0107
705.00,0.0109
704.00,0.0111
703.00,0.0110
702.00,0.0108
701.00,0.0105
700.00,0.0102
699.00,0.0100
698.00,0.0098
697.00,0.0098
696.00,0.0100
695.00,0.0102
694.00,0.0103
693.00,0.0104
692.00,0.0103
691.00,0.0102
690.00,0.0102
689.00,0.0102
688.00,0.0101
687.00,0.0101
686.00,0.0100
685.00,0.0099
684.00,0.0098
683.00,0.0098
682.00,0.0099
681.00,0.0100
680.00,0.0102
679.00,0.0102
678.00,0.0102
677.00,0.0101
676.00,0.0101
675.00,0.0101
674.00,0.0102
673.00,0.0103
672.00,0.0104
671.00,0.0105
670.00,0.0107
669.00,0.0110
668.00,0.0110
667.00,0.0109
666.00,0.0107
665.00,0.0105
664.00,0.0104
663.00,0.0103
662.00,0.0101
661.00,0.0098
660.00,0.0095
659.00,0.0093
658.00,0.0091
657.00,0.0091
656.00,0.0092
655.00,0.0094
654.00,0.0094
653.00,0.0094
652.00,0.0092
651.00,0.0090
650.00,0.0089
649.00,0.0090
648.00,0.0091
647.00,0.0092
646.00,0.0093
645.00,0.0093
644.00,0.0093
643.00,0.0092
642.00,0.0092
641.00,0.0093
640.00,0.0093
639.00,0.0092
638.00,0.0091
637.00,0.0090
636.00,0.0090
635.00,0.0090
634.00,0.0090
633.00,0.0091
632.00,0.0091
631.00,0.0092
630.00,0.0092
629.00,0.0093
628.00,0.0092
627.00,0.0091
626.00,0.0088
625.00,0.0088
624.00,0.0089
623.00,0.0091
622.00,0.0091
621.00,0.0090
620.00,0.0088
619.00,0.0089
618.00,0.0092
617.00,0.0096
616.00,0.0098
615.00,0.0098
614.00,0.0095
613.00,0.0092
612.00,0.0090
611.00,0.0089
610.00,0.0087
609.00,0.0085
608.00,0.0084
607.00,0.0083
606.00,0.0084
605.00,0.0085
604.00,0.0087
603.00,0.0087
602.00,0.0087
601.00,0.0086
600.00,0.0088
599.00,0.0091
598.00,0.0094
597.00,0.0095
596.00,0.0095
595.00,0.0093
594.00,0.0091
593.00,0.0090
592.00,0.0089
591.00,0.0089
590.00,0.0090
589.00,0.0092
588.00,0.0092
587.00,0.0091
586.00,0.0089
585.00,0.0089
584.00,0.0090
583.00,0.0093
582.00,0.0097
581.00,0.0100
580.00,0.0100
579.00,0.0097
578.00,0.0094
577.00,0.0093
576.00,0.0095
575.00,0.0098
574.00,0.0099
573.00,0.0097
572.00,0.0093
571.00,0.0092
570.00,0.0092
569.00,0.0094
568.00,0.0096
567.00,0.0097
566.00,0.0098
565.00,0.0100
564.00,0.0103
563.00,0.0105
562.00,0.0105
561.00,0.0104
560.00,0.0100
559.00,0.0094
558.00,0.0089
557.00,0.0085
556.00,0.0084
555.00,0.0084
554.00,0.0085
553.00,0.0086
552.00,0.0088
551.00,0.0092
550.00,0.0095
549.00,0.0095
548.00,0.0095
547.00,0.0096
546.00,0.0097
545.00,0.0099
544.00,0.0100
543.00,0.0102
542.00,0.0104
541.00,0.0109
540.00,0.0115
539.00,0.0121
538.00,0.0125
537.00,0.0124
536.00,0.0123
535.00,0.0124
534.00,0.0127
533.00,0.0131
532.00,0.0131
531.00,0.0125
530.00,0.0117
529.00,0.0112
528.00,0.0112
527.00,0.0112
526.00,0.0111
525.00,0.0108
524.00,0.0106
523.00,0.0103
522.00,0.0098
521.00,0.0093
520.00,0.0092
519.00,0.0094
518.00,0.0098
517.00,0.0101
516.00,0.0103
515.00,0.0101
514.00,0.0097
513.00,0.0095
512.00,0.0095
511.00,0.0096
510.00,0.0093
509.00,0.0089
508.00,0.0087
507.00,0.0088
506.00,0.0088
505.00,0.0088
504.00,0.0087
503.00,0.0086
502.00,0.0084
501.00,0.0081
500.00,0.0080
499.00,0.0082
498.00,0.0086
497.00,0.0088
496.00,0.0089
495.00,0.0089
494.00,0.0086
493.00,0.0080
492.00,0.0075
491.00,0.0076
490.00,0.0083
489.00,0.0092
488.00,0.0100
487.00,0.0103
486.00,0.0103
485.00,0.0102
484.00,0.0105
483.00,0.0109
482.00,0.0110
481.00,0.0105
480.00,0.0101
479.00,0.0103
478.00,0.0111
477.00,0.0122
476.00,0.0132
475.00,0.0141
474.00,0.0147
473.00,0.0152
472.00,0.0158
471.00,0.0165
470.00,0.0168
469.00,0.0166
468.00,0.0160
467.00,0.0155
466.00,0.0158
465.00,0.0170
464.00,0.0188
463.00,0.0200
462.00,0.0200
461.00,0.0196
460.00,0.0198
459.00,0.0212
458.00,0.0229
457.00,0.0236
456.00,0.0234
455.00,0.0229
454.00,0.0224
453.00,0.0216
452.00,0.0207
451.00,0.0198
450.00,0.0188
