Created as New Dataset,Sample 019 By Administrator Date Thursday, September 04 2025
cm-1,A
4000.00,0.0013
3999.00,0.0013
3998.00,0.0012
3997.00,0.0012
3996.00,0.0012
3995.00,0.0012
3994.00,0.0012
3993.00,0.0012
3992.00,0.0012
3991.00,0.0013
3990.00,0.0012
3989.00,0.0012
3988.00,0.0012
3987.00,0.0012
3986.00,0.0012
3985.00,0.0011
3984.00,0.0011
3983.00,0.0011
3982.00,0.0011
3981.00,0.0011
3980.00,0.0011
3979.00,0.0010
3978.00,0.0010
3977.00,0.0011
3976.00,0.0011
3975.00,0.0011
3974.00,0.0011
3973.00,0.0011
3972.00,0.0010
3971.00,0.0010
3970.00,0.0010
3969.00,0.0010
3968.00,0.0009
3967.00,0.0009
3966.00,0.0010
3965.00,0.0010
3964.00,0.0010
3963.00,0.0010
3962.00,0.0010
3961.00,0.0010
3960.00,0.0010
3959.00,0.0010
3958.00,0.0010
3957.00,0.0010
3956.00,0.0011
3955.00,0.0011
3954.00,0.0011
3953.00,0.0011
3952.00,0.0011
3951.00,0.0011
3950.00,0.0011
3949.00,0.0011
3948.00,0.0011
3947.00,0.0011
3946.00,0.0011
3945.00,0.0011
3944.00,0.0011
3943.00,0.0011
3942.00,0.0010
3941.00,0.0010
3940.00,0.0010
3939.00,0.0010
3938.00,0.0010
3937.00,0.0010
3936.00,0.0010
3935.00,0.0011
3934.00,0.0011
3933.00,0.0011
3932.00,0.0011
3931.00,0.0011
3930.00,0.0011
3929.00,0.0012
3928.00,0.0012
3927.00,0.0012
3926.00,0.0012
3925.00,0.0011
3924.00,0.0011
3923.00,0.0011
3922.00,0.0011
3921.00,0.0011
3920.00,0.0011
3919.00,0.0011
3918.00,0.0011
3917.00,0.0011
3916.00,0.0011
3915.00,0.0011
3914.00,0.0011
3913.00,0.0011
3912.00,0.0011
3911.00,0.0010
3910.00,0.0011
3909.00,0.0011
3908.00,0.0011
3907.00,0.0012
3906.00,0.0012
3905.00,0.0013
3904.00,0.0013
3903.00,0.0013
3902.00,0.0013
3901.00,0.0012
3900.00,0.0012
3899.00,0.0011
3898.00,0.0012
3897.00,0.0012
3896.00,0.0012
3895.00,0.0012
3894.00,0.0012
3893.00,0.0011
3892.00,0.0011
3891.00,0.0011
3890.00,0.0012
3889.00,0.0012
3888.00,0.0012
3887.00,0.0012
3886.00,0.0012
3885.00,0.0012
3884.00,0.0012
3883.00,0.0011
3882.00,0.0011
3881.00,0.0011
3880.00,0.0011
3879.00,0.0011
3878.00,0.0012
3877.00,0.0012
3876.00,0.0012
3875.00,0.0012
3874.00,0.0013
3873.00,0.0013
3872.00,0.0014
3871.00,0.0013
3870.00,0.0013
3869.00,0.0013
3868.00,0.0013
3867.00,0.0013
3866.00,0.0012
3865.00,0.0012
3864.00,0.0012
3863.00,0.0012
3862.00,0.0012
3861.00,0.0012
3860.00,0.0012
3859.00,0.0012
3858.00,0.0012
3857.00,0.0013
3856.00,0.0013
3855.00,0.0013
3854.00,0.0013
3853.00,0.0013
3852.00,0.0013
3851.00,0.0013
3850.00,0.0012
3849.00,0.0011
3848.00,0.0011
3847.00,0.0011
3846.00,0.0011
3845.00,0.0011
3844.00,0.0011
3843.00,0.0012
3842.00,0.0013
3841.00,0.0013
3840.00,0.0013
3839.00,0.0013
3838.00,0.0013
3837.00,0.0012
3836.00,0.0012
3835.00,0.0012
3834.00,0.0011
3833.00,0.0011
3832.00,0.0011
3831.00,0.0011
3830.00,0.0011
3829.00,0.0011
3828.00,0.0011
3827.00,0.0011
3826.00,0.0011
3825.00,0.0012
3824.00,0.0013
3823.00,0.0013
3822.00,0.0013
3821.00,0.0013
3820.00,0.0014
3819.00,0.0014
3818.00,0.0014
3817.00,0.0014
3816.00,0.0014
3815.00,0.0014
3814.00,0.0014
3813.00,0.0013
3812.00,0.0012
3811.00,0.0012
3810.00,0.0012
3809.00,0.0012
3808.00,0.0012
3807.00,0.0013
3806.00,0.0014
3805.00,0.0014
3804.00,0.0014
3803.00,0.0014
3802.00,0.0013
3801.00,0.0013
3800.00,0.0013
3799.00,0.0013
3798.00,0.0012
3797.00,0.0012
3796.00,0.0011
3795.00,0.0011
3794.00,0.0011
3793.00,0.0011
3792.00,0.0010
3791.00,0.0010
3790.00,0.0010
3789.00,0.0010
3788.00,0.0010
3787.00,0.0010
3786.00,0.0010
3785.00,0.0010
3784.00,0.0010
3783.00,0.0010
3782.00,0.0010
3781.00,0.0010
3780.00,0.0010
3779.00,0.0010
3778.00,0.0009
3777.00,0.0009
3776.00,0.0009
3775.00,0.0010
3774.00,0.0010
3773.00,0.0010
3772.00,0.0011
3771.00,0.0011
3770.00,0.0012
3769.00,0.0012
3768.00,0.0013
3767.00,0.0013
3766.00,0.0013
3765.00,0.0013
3764.00,0.0013
3763.00,0.0013
3762.00,0.0013
3761.00,0.0012
3760.00,0.0012
3759.00,0.0011
3758.00,0.0011
3757.00,0.0011
3756.00,0.0012
3755.00,0.0012
3754.00,0.0013
3753.00,0.0014
3752.00,0.0014
3751.00,0.0014
3750.00,0.0014
3749.00,0.0014
3748.00,0.0014
3747.00,0.0014
3746.00,0.0013
3745.00,0.0012
3744.00,0.0013
3743.00,0.0013
3742.00,0.0013
3741.00,0.0013
3740.00,0.0014
3739.00,0.0014
3738.00,0.0014
3737.00,0.0014
3736.00,0.0014
3735.00,0.0013
3734.00,0.0013
3733.00,0.0012
3732.00,0.0012
3731.00,0.0012
3730.00,0.0013
3729.00,0.0012
3728.00,0.0012
3727.00,0.0012
3726.00,0.0012
3725.00,0.0011
3724.00,0.0011
3723.00,0.0011
3722.00,0.0010
3721.00,0.0011
3720.00,0.0011
3719.00,0.0011
3718.00,0.0011
3717.00,0.0011
3716.00,0.0011
3715.00,0.0012
3714.00,0.0012
3713.00,0.0012
3712.00,0.0012
3711.00,0.0012
3710.00,0.0011
3709.00,0.0011
3708.00,0.0011
3707.00,0.0011
3706.00,0.0011
3705.00,0.0010
3704.00,0.0010
3703.00,0.0010
3702.00,0.0009
3701.00,0.0009
3700.00,0.0010
3699.00,0.0010
3698.00,0.0010
3697.00,0.0010
3696.00,0.0010
3695.00,0.0011
3694.00,0.0011
3693.00,0.0012
3692.00,0.0012
3691.00,0.0012
3690.00,0.0012
3689.00,0.0013
3688.00,0.0013
3687.00,0.0014
3686.00,0.0014
3685.00,0.0015
3684.00,0.0015
3683.00,0.0015
3682.00,0.0016
3681.00,0.0017
3680.00,0.0018
3679.00,0.0019
3678.00,0.0021
3677.00,0.0022
3676.00,0.0023
3675.00,0.0024
3674.00,0.0025
3673.00,0.0025
3672.00,0.0024
3671.00,0.0023
3670.00,0.0023
3669.00,0.0023
3668.00,0.0024
3667.00,0.0024
3666.00,0.0023
3665.00,0.0023
3664.00,0.0022
3663.00,0.0022
3662.00,0.0022
3661.00,0.0023
3660.00,0.0024
3659.00,0.0024
3658.00,0.0025
3657.00,0.0025
3656.00,0.0025
3655.00,0.0025
3654.00,0.0025
3653.00,0.0025
3652.00,0.0026
3651.00,0.0026
3650.00,0.0027
3649.00,0.0027
3648.00,0.0026
3647.00,0.0025
3646.00,0.0024
3645.00,0.0024
3644.00,0.0023
3643.00,0.0023
3642.00,0.0022
3641.00,0.0022
3640.00,0.0022
3639.00,0.0022
3638.00,0.0022
3637.00,0.0022
3636.00,0.0021
3635.00,0.0020
3634.00,0.0020
3633.00,0.0019
3632.00,0.0019
3631.00,0.0018
3630.00,0.0016
3629.00,0.0016
3628.00,0.0016
3627.00,0.0017
3626.00,0.0018
3625.00,0.0018
3624.00,0.0018
3623.00,0.0017
3622.00,0.0017
3621.00,0.0017
3620.00,0.0017
3619.00,0.0018
3618.00,0.0018
3617.00,0.0018
3616.00,0.0018
3615.00,0.0017
3614.00,0.0017
3613.00,0.0017
3612.00,0.0018
3611.00,0.0019
3610.00,0.0020
3609.00,0.0020
3608.00,0.0020
3607.00,0.0019
3606.00,0.0018
3605.00,0.0018
3604.00,0.0018
3603.00,0.0018
3602.00,0.0018
3601.00,0.0019
3600.00,0.0019
3599.00,0.0019
3598.00,0.0018
3597.00,0.0018
3596.00,0.0018
3595.00,0.0018
3594.00,0.0019
3593.00,0.0020
3592.00,0.0020
3591.00,0.0021
3590.00,0.0021
3589.00,0.0021
3588.00,0.0021
3587.00,0.0020
3586.00,0.0020
3585.00,0.0020
3584.00,0.0020
3583.00,0.0020
3582.00,0.0021
3581.00,0.0021
3580.00,0.0022
3579.00,0.0022
3578.00,0.0022
3577.00,0.0023
3576.00,0.0023
3575.00,0.0023
3574.00,0.0023
3573.00,0.0024
3572.00,0.0024
3571.00,0.0025
3570.00,0.0025
3569.00,0.0025
3568.00,0.0026
3567.00,0.0026
3566.00,0.0026
3565.00,0.0026
3564.00,0.0026
3563.00,0.0027
3562.00,0.0027
3561.00,0.0027
3560.00,0.0027
3559.00,0.0027
3558.00,0.0027
3557.00,0.0027
3556.00,0.0028
3555.00,0.0028
3554.00,0.0028
3553.00,0.0029
3552.00,0.0029
3551.00,0.0029
3550.00,0.0029
3549.00,0.0030
3548.00,0.0031
3547.00,0.0031
3546.00,0.0032
3545.00,0.0032
3544.00,0.0032
3543.00,0.0032
3542.00,0.0032
3541.00,0.0032
3540.00,0.0032
3539.00,0.0032
3538.00,0.0032
3537.00,0.0032
3536.00,0.0032
3535.00,0.0033
3534.00,0.0033
3533.00,0.0033
3532.00,0.0034
3531.00,0.0035
3530.00,0.0035
3529.00,0.0035
3528.00,0.0035
3527.00,0.0035
3526.00,0.0035
3525.00,0.0036
3524.00,0.0036
3523.00,0.0037
3522.00,0.0037
3521.00,0.0037
3520.00,0.0037
3519.00,0.0037
3518.00,0.0037
3517.00,0.0037
3516.00,0.0038
3515.00,0.0038
3514.00,0.0039
3513.00,0.0039
3512.00,0.0039
3511.00,0.0039
3510.00,0.0039
3509.00,0.0039
3508.00,0.0040
3507.00,0.0041
3506.00,0.0042
3505.00,0.0042
3504.00,0.0043
3503.00,0.0043
3502.00,0.0043
3501.00,0.0044
3500.00,0.0044
3499.00,0.0044
3498.00,0.0044
3497.00,0.0044
3496.00,0.0044
3495.00,0.0044
3494.00,0.0044
3493.00,0.0044
3492.00,0.0045
3491.00,0.0045
3490.00,0.0046
3489.00,0.0046
3488.00,0.0047
3487.00,0.0047
3486.00,0.0048
3485.00,0.0048
3484.00,0.0049
3483.00,0.0049
3482.00,0.0050
3481.00,0.0050
3480.00,0.0050
3479.00,0.0050
3478.00,0.0050
3477.00,0.0050
3476.00,0.0050
3475.00,0.0050
3474.00,0.0050
3473.00,0.0050
3472.00,0.0050
3471.00,0.0050
3470.00,0.0050
3469.00,0.0051
3468.00,0.0051
3467.00,0.0052
3466.00,0.0052
3465.00,0.0053
3464.00,0.0053
3463.00,0.0053
3462.00,0.0053
3461.00,0.0054
3460.00,0.0054
3459.00,0.0055
3458.00,0.0055
3457.00,0.0055
3456.00,0.0056
3455.00,0.0056
3454.00,0.0056
3453.00,0.0057
3452.00,0.0057
3451.00,0.0058
3450.00,0.0058
3449.00,0.0059
3448.00,0.0059
3447.00,0.0059
3446.00,0.0059
3445.00,0.0059
3444.00,0.0059
3443.00,0.0059
3442.00,0.0060
3441.00,0.0060
3440.00,0.0060
3439.00,0.0060
3438.00,0.0060
3437.00,0.0061
3436.00,0.0061
3435.00,0.0061
3434.00,0.0061
3433.00,0.0062
3432.00,0.0062
3431.00,0.0062
3430.00,0.0063
3429.00,0.0063
3428.00,0.0064
3427.00,0.0064
3426.00,0.0064
3425.00,0.0065
3424.00,0.0065
3423.00,0.0065
3422.00,0.0065
3421.00,0.0065
3420.00,0.0065
3419.00,0.0065
3418.00,0.0065
3417.00,0.0065
3416.00,0.0066
3415.00,0.0066
3414.00,0.0067
3413.00,0.0067
3412.00,0.0068
3411.00,0.0069
3410.00,0.0069
3409.00,0.0069
3408.00,0.0068
3407.00,0.0069
3406.00,0.0069
3405.00,0.0070
3404.00,0.0070
3403.00,0.0070
3402.00,0.0071
3401.00,0.0072
3400.00,0.0072
3399.00,0.0073
3398.00,0.0073
3397.00,0.0073
3396.00,0.0073
3395.00,0.0073
3394.00,0.0073
3393.00,0.0073
3392.00,0.0073
3391.00,0.0073
3390.00,0.0073
3389.00,0.0073
3388.00,0.0073
3387.00,0.0073
3386.00,0.0073
3385.00,0.0073
3384.00,0.0072
3383.00,0.0072
3382.00,0.0072
3381.00,0.0071
3380.00,0.0071
3379.00,0.0071
3378.00,0.0071
3377.00,0.0071
3376.00,0.0071
3375.00,0.0072
3374.00,0.0072
3373.00,0.0072
3372.00,0.0072
3371.00,0.0072
3370.00,0.0072
3369.00,0.0072
3368.00,0.0072
3367.00,0.0073
3366.00,0.0073
3365.00,0.0073
3364.00,0.0073
3363.00,0.0073
3362.00,0.0073
3361.00,0.0072
3360.00,0.0073
3359.00,0.0073
3358.00,0.0073
3357.00,0.0073
3356.00,0.0073
3355.00,0.0073
3354.00,0.0073
3353.00,0.0073
3352.00,0.0073
3351.00,0.0073
3350.00,0.0073
3349.00,0.0073
3348.00,0.0073
3347.00,0.0073
3346.00,0.0073
3345.00,0.0073
3344.00,0.0073
3343.00,0.0073
3342.00,0.0073
3341.00,0.0073
3340.00,0.0073
3339.00,0.0073
3338.00,0.0073
3337.00,0.0072
3336.00,0.0072
3335.00,0.0072
3334.00,0.0072
3333.00,0.0072
3332.00,0.0072
3331.00,0.0072
3330.00,0.0072
3329.00,0.0072
3328.00,0.0071
3327.00,0.0071
3326.00,0.0071
3325.00,0.0071
3324.00,0.0071
3323.00,0.0071
3322.00,0.0071
3321.00,0.0071
3320.00,0.0071
3319.00,0.0071
3318.00,0.0071
3317.00,0.0072
3316.00,0.0072
3315.00,0.0072
3314.00,0.0072
3313.00,0.0072
3312.00,0.0072
3311.00,0.0072
3310.00,0.0072
3309.00,0.0072
3308.00,0.0072
3307.00,0.0072
3306.00,0.0072
3305.00,0.0073
3304.00,0.0073
3303.00,0.0073
3302.00,0.0073
3301.00,0.0073
3300.00,0.0074
3299.00,0.0073
3298.00,0.0073
3297.00,0.0073
3296.00,0.0072
3295.00,0.0072
3294.00,0.0072
3293.00,0.0071
3292.00,0.0071
3291.00,0.0071
3290.00,0.0070
3289.00,0.0070
3288.00,0.0070
3287.00,0.0069
3286.00,0.0069
3285.00,0.0069
3284.00,0.0068
3283.00,0.0068
3282.00,0.0068
3281.00,0.0068
3280.00,0.0068
3279.00,0.0068
3278.00,0.0068
3277.00,0.0068
3276.00,0.0067
3275.00,0.0067
3274.00,0.0066
3273.00,0.0066
3272.00,0.0066
3271.00,0.0066
3270.00,0.0067
3269.00,0.0067
3268.00,0.0066
3267.00,0.0066
3266.00,0.0066
3265.00,0.0066
3264.00,0.0065
3263.00,0.0065
3262.00,0.0065
3261.00,0.0064
3260.00,0.0064
3259.00,0.0064
3258.00,0.0064
3257.00,0.0064
3256.00,0.0063
3255.00,0.0063
3254.00,0.0063
3253.00,0.0063
3252.00,0.0063
3251.00,0.0063
3250.00,0.0063
3249.00,0.0063
3248.00,0.0063
3247.00,0.0063
3246.00,0.0062
3245.00,0.0062
3244.00,0.0062
3243.00,0.0062
3242.00,0.0062
3241.00,0.0062
3240.00,0.0062
3239.00,0.0062
3238.00,0.0061
3237.00,0.0061
3236.00,0.0061
3235.00,0.0062
3234.00,0.0062
3233.00,0.0062
3232.00,0.0062
3231.00,0.0062
3230.00,0.0063
3229.00,0.0063
3228.00,0.0063
3227.00,0.0063
3226.00,0.0063
3225.00,0.0063
3224.00,0.0063
3223.00,0.0063
3222.00,0.0064
3221.00,0.0064
3220.00,0.0065
3219.00,0.0065
3218.00,0.0065
3217.00,0.0065
3216.00,0.0065
3215.00,0.0065
3214.00,0.0065
3213.00,0.0066
3212.00,0.0066
3211.00,0.0066
3210.00,0.0066
3209.00,0.0066
3208.00,0.0066
3207.00,0.0066
3206.00,0.0066
3205.00,0.0066
3204.00,0.0066
3203.00,0.0066
3202.00,0.0066
3201.00,0.0066
3200.00,0.0067
3199.00,0.0067
3198.00,0.0067
3197.00,0.0066
3196.00,0.0066
3195.00,0.0065
3194.00,0.0065
3193.00,0.0065
3192.00,0.0065
3191.00,0.0065
3190.00,0.0065
3189.00,0.0065
3188.00,0.0065
3187.00,0.0065
3186.00,0.0065
3185.00,0.0065
3184.00,0.0064
3183.00,0.0064
3182.00,0.0063
3181.00,0.0063
3180.00,0.0062
3179.00,0.0061
3178.00,0.0061
3177.00,0.0060
3176.00,0.0060
3175.00,0.0059
3174.00,0.0059
3173.00,0.0059
3172.00,0.0059
3171.00,0.0059
3170.00,0.0058
3169.00,0.0058
3168.00,0.0057
3167.00,0.0057
3166.00,0.0057
3165.00,0.0056
3164.00,0.0056
3163.00,0.0056
3162.00,0.0056
3161.00,0.0056
3160.00,0.0056
3159.00,0.0055
3158.00,0.0055
3157.00,0.0055
3156.00,0.0055
3155.00,0.0055
3154.00,0.0055
3153.00,0.0055
3152.00,0.0054
3151.00,0.0054
3150.00,0.0054
3149.00,0.0053
3148.00,0.0053
3147.00,0.0054
3146.00,0.0054
3145.00,0.0054
3144.00,0.0053
3143.00,0.0053
3142.00,0.0053
3141.00,0.0052
3140.00,0.0052
3139.00,0.0052
3138.00,0.0052
3137.00,0.0051
3136.00,0.0051
3135.00,0.0050
3134.00,0.0050
3133.00,0.0050
3132.00,0.0049
3131.00,0.0049
3130.00,0.0049
3129.00,0.0049
3128.00,0.0049
3127.00,0.0049
3126.00,0.0048
3125.00,0.0048
3124.00,0.0048
3123.00,0.0048
3122.00,0.0047
3121.00,0.0047
3120.00,0.0047
3119.00,0.0046
3118.00,0.0046
3117.00,0.0045
3116.00,0.0045
3115.00,0.0045
3114.00,0.0045
3113.00,0.0045
3112.00,0.0045
3111.00,0.0045
3110.00,0.0045
3109.00,0.0045
3108.00,0.0045
3107.00,0.0045
3106.00,0.0045
3105.00,0.0044
3104.00,0.0044
3103.00,0.0044
3102.00,0.0044
3101.00,0.0043
3100.00,0.0043
3099.00,0.0043
3098.00,0.0043
3097.00,0.0044
3096.00,0.0044
3095.00,0.0044
3094.00,0.0044
3093.00,0.0044
3092.00,0.0044
3091.00,0.0044
3090.00,0.0044
3089.00,0.0044
3088.00,0.0044
3087.00,0.0043
3086.00,0.0043
3085.00,0.0043
3084.00,0.0043
3083.00,0.0043
3082.00,0.0043
3081.00,0.0043
3080.00,0.0042
3079.00,0.0042
3078.00,0.0042
3077.00,0.0042
3076.00,0.0042
3075.00,0.0043
3074.00,0.0043
3073.00,0.0043
3072.00,0.0044
3071.00,0.0044
3070.00,0.0043
3069.00,0.0043
3068.00,0.0043
3067.00,0.0043
3066.00,0.0043
3065.00,0.0043
3064.00,0.0043
3063.00,0.0043
3062.00,0.0043
3061.00,0.0044
3060.00,0.0044
3059.00,0.0044
3058.00,0.0045
3057.00,0.0045
3056.00,0.0045
3055.00,0.0045
3054.00,0.0045
3053.00,0.0045
3052.00,0.0045
3051.00,0.0045
3050.00,0.0045
3049.00,0.0046
3048.00,0.0046
3047.00,0.0046
3046.00,0.0045
3045.00,0.0045
3044.00,0.0046
3043.00,0.0046
3042.00,0.0046
3041.00,0.0047
3040.00,0.0047
3039.00,0.0047
3038.00,0.0048
3037.00,0.0048
3036.00,0.0048
3035.00,0.0048
3034.00,0.0048
3033.00,0.0048
3032.00,0.0048
3031.00,0.0049
3030.00,0.0050
3029.00,0.0051
3028.00,0.0052
3027.00,0.0052
3026.00,0.0053
3025.00,0.0054
3024.00,0.0054
3023.00,0.0055
3022.00,0.0055
3021.00,0.0056
3020.00,0.0057
3019.00,0.0059
3018.00,0.0061
3017.00,0.0063
3016.00,0.0065
3015.00,0.0068
3014.00,0.0070
3013.00,0.0074
3012.00,0.0077
3011.00,0.0081
3010.00,0.0085
3009.00,0.0088
3008.00,0.0093
3007.00,0.0097
3006.00,0.0102
3005.00,0.0107
3004.00,0.0112
3003.00,0.0118
3002.00,0.0123
3001.00,0.0129
3000.00,0.0135
2999.00,0.0141
2998.00,0.0146
2997.00,0.0151
2996.00,0.0156
2995.00,0.0161
2994.00,0.0167
2993.00,0.0173
2992.00,0.0179
2991.00,0.0186
2990.00,0.0193
2989.00,0.0201
2988.00,0.0211
2987.00,0.0222
2986.00,0.0237
2985.00,0.0255
2984.00,0.0276
2983.00,0.0299
2982.00,0.0319
2981.00,0.0335
2980.00,0.0349
2979.00,0.0362
2978.00,0.0378
2977.00,0.0397
2976.00,0.0422
2975.00,0.0453
2974.00,0.0490
2973.00,0.0533
2972.00,0.0581
2971.00,0.0632
2970.00,0.0686
2969.00,0.0744
2968.00,0.0807
2967.00,0.0875
2966.00,0.0946
2965.00,0.1016
2964.00,0.1085
2963.00,0.1147
2962.00,0.1202
2961.00,0.1250
2960.00,0.1291
2959.00,0.1331
2958.00,0.1374
2957.00,0.1425
2956.00,0.1487
2955.00,0.1562
2954.00,0.1647
2953.00,0.1735
2952.00,0.1816
2951.00,0.1878
2950.00,0.1910
2949.00,0.1902
2948.00,0.1850
2947.00,0.1760
2946.00,0.1643
2945.00,0.1516
2944.00,0.1392
2943.00,0.1286
2942.00,0.1203
2941.00,0.1146
2940.00,0.1114
2939.00,0.1106
2938.00,0.1118
2937.00,0.1148
2936.00,0.1195
2935.00,0.1258
2934.00,0.1335
2933.00,0.1426
2932.00,0.1529
2931.00,0.1641
2930.00,0.1761
2929.00,0.1885
2928.00,0.2010
2927.00,0.2134
2926.00,0.2255
2925.00,0.2373
2924.00,0.2489
2923.00,0.2604
2922.00,0.2720
2921.00,0.2832
2920.00,0.2934
2919.00,0.3014
2918.00,0.3059
2917.00,0.3060
2916.00,0.3013
2915.00,0.2924
2914.00,0.2806
2913.00,0.2673
2912.00,0.2539
2911.00,0.2413
2910.00,0.2297
2909.00,0.2194
2908.00,0.2099
2907.00,0.2011
2906.00,0.1928
2905.00,0.1848
2904.00,0.1770
2903.00,0.1695
2902.00,0.1622
2901.00,0.1554
2900.00,0.1489
2899.00,0.1428
2898.00,0.1372
2897.00,0.1321
2896.00,0.1276
2895.00,0.1236
2894.00,0.1203
2893.00,0.1176
2892.00,0.1154
2891.00,0.1139
2890.00,0.1129
2889.00,0.1123
2888.00,0.1121
2887.00,0.1122
2886.00,0.1127
2885.00,0.1135
2884.00,0.1148
2883.00,0.1167
2882.00,0.1190
2881.00,0.1217
2880.00,0.1245
2879.00,0.1270
2878.00,0.1288
2877.00,0.1297
2876.00,0.1295
2875.00,0.1288
2874.00,0.1280
2873.00,0.1276
2872.00,0.1280
2871.00,0.1292
2870.00,0.1311
2869.00,0.1331
2868.00,0.1345
2867.00,0.1344
2866.00,0.1321
2865.00,0.1274
2864.00,0.1207
2863.00,0.1127
2862.00,0.1047
2861.00,0.0975
2860.00,0.0918
2859.00,0.0878
2858.00,0.0855
2857.00,0.0845
2856.00,0.0847
2855.00,0.0857
2854.00,0.0873
2853.00,0.0892
2852.00,0.0912
2851.00,0.0928
2850.00,0.0937
2849.00,0.0941
2848.00,0.0941
2847.00,0.0943
2846.00,0.0954
2845.00,0.0977
2844.00,0.1012
2843.00,0.1057
2842.00,0.1108
2841.00,0.1158
2840.00,0.1199
2839.00,0.1224
2838.00,0.1224
2837.00,0.1194
2836.00,0.1135
2835.00,0.1050
2834.00,0.0948
2833.00,0.0840
2832.00,0.0736
2831.00,0.0644
2830.00,0.0565
2829.00,0.0501
2828.00,0.0448
2827.00,0.0406
2826.00,0.0372
2825.00,0.0344
2824.00,0.0320
2823.00,0.0300
2822.00,0.0283
2821.00,0.0268
2820.00,0.0256
2819.00,0.0245
2818.00,0.0236
2817.00,0.0228
2816.00,0.0221
2815.00,0.0214
2814.00,0.0208
2813.00,0.0202
2812.00,0.0196
2811.00,0.0191
2810.00,0.0185
2809.00,0.0179
2808.00,0.0173
2807.00,0.0166
2806.00,0.0159
2805.00,0.0152
2804.00,0.0145
2803.00,0.0140
2802.00,0.0134
2801.00,0.0130
2800.00,0.0126
2799.00,0.0122
2798.00,0.0119
2797.00,0.0117
2796.00,0.0114
2795.00,0.0111
2794.00,0.0109
2793.00,0.0106
2792.00,0.0103
2791.00,0.0100
2790.00,0.0097
2789.00,0.0094
2788.00,0.0091
2787.00,0.0089
2786.00,0.0087
2785.00,0.0085
2784.00,0.0082
2783.00,0.0080
2782.00,0.0079
2781.00,0.0077
2780.00,0.0075
2779.00,0.0073
2778.00,0.0072
2777.00,0.0070
2776.00,0.0069
2775.00,0.0068
2774.00,0.0067
2773.00,0.0066
2772.00,0.0066
2771.00,0.0066
2770.00,0.0065
2769.00,0.0065
2768.00,0.0065
2767.00,0.0064
2766.00,0.0064
2765.00,0.0063
2764.00,0.0063
2763.00,0.0062
2762.00,0.0062
2761.00,0.0062
2760.00,0.0061
2759.00,0.0061
2758.00,0.0061
2757.00,0.0061
2756.00,0.0061
2755.00,0.0061
2754.00,0.0061
2753.00,0.0060
2752.00,0.0060
2751.00,0.0059
2750.00,0.0059
2749.00,0.0059
2748.00,0.0059
2747.00,0.0059
2746.00,0.0060
2745.00,0.0060
2744.00,0.0061
2743.00,0.0061
2742.00,0.0062
2741.00,0.0063
2740.00,0.0064
2739.00,0.0065
2738.00,0.0066
2737.00,0.0068
2736.00,0.0069
2735.00,0.0071
2734.00,0.0073
2733.00,0.0075
2732.00,0.0077
2731.00,0.0079
2730.00,0.0081
2729.00,0.0083
2728.00,0.0086
2727.00,0.0089
2726.00,0.0092
2725.00,0.0094
2724.00,0.0096
2723.00,0.0097
2722.00,0.0096
2721.00,0.0094
2720.00,0.0091
2719.00,0.0087
2718.00,0.0084
2717.00,0.0080
2716.00,0.0077
2715.00,0.0075
2714.00,0.0072
2713.00,0.0070
2712.00,0.0068
2711.00,0.0066
2710.00,0.0064
2709.00,0.0062
2708.00,0.0060
2707.00,0.0059
2706.00,0.0058
2705.00,0.0057
2704.00,0.0055
2703.00,0.0054
2702.00,0.0053
2701.00,0.0052
2700.00,0.0052
2699.00,0.0051
2698.00,0.0051
2697.00,0.0051
2696.00,0.0051
2695.00,0.0051
2694.00,0.0051
2693.00,0.0051
2692.00,0.0051
2691.00,0.0051
2690.00,0.0051
2689.00,0.0051
2688.00,0.0052
2687.00,0.0052
2686.00,0.0052
2685.00,0.0052
2684.00,0.0052
2683.00,0.0052
2682.00,0.0052
2681.00,0.0052
2680.00,0.0052
2679.00,0.0052
2678.00,0.0053
2677.00,0.0053
2676.00,0.0053
2675.00,0.0052
2674.00,0.0052
2673.00,0.0052
2672.00,0.0052
2671.00,0.0051
2670.00,0.0051
2669.00,0.0051
2668.00,0.0052
2667.00,0.0052
2666.00,0.0053
2665.00,0.0053
2664.00,0.0054
2663.00,0.0054
2662.00,0.0054
2661.00,0.0054
2660.00,0.0054
2659.00,0.0054
2658.00,0.0054
2657.00,0.0054
2656.00,0.0054
2655.00,0.0053
2654.00,0.0052
2653.00,0.0052
2652.00,0.0051
2651.00,0.0051
2650.00,0.0051
2649.00,0.0050
2648.00,0.0049
2647.00,0.0049
2646.00,0.0048
2645.00,0.0048
2644.00,0.0047
2643.00,0.0047
2642.00,0.0046
2641.00,0.0046
2640.00,0.0045
2639.00,0.0045
2638.00,0.0044
2637.00,0.0044
2636.00,0.0043
2635.00,0.0043
2634.00,0.0044
2633.00,0.0044
2632.00,0.0045
2631.00,0.0045
2630.00,0.0045
2629.00,0.0045
2628.00,0.0045
2627.00,0.0045
2626.00,0.0045
2625.00,0.0044
2624.00,0.0044
2623.00,0.0044
2622.00,0.0044
2621.00,0.0045
2620.00,0.0045
2619.00,0.0045
2618.00,0.0045
2617.00,0.0045
2616.00,0.0044
2615.00,0.0044
2614.00,0.0044
2613.00,0.0044
2612.00,0.0043
2611.00,0.0043
2610.00,0.0042
2609.00,0.0041
2608.00,0.0041
2607.00,0.0040
2606.00,0.0039
2605.00,0.0038
2604.00,0.0038
2603.00,0.0037
2602.00,0.0037
2601.00,0.0037
2600.00,0.0036
2599.00,0.0036
2598.00,0.0036
2597.00,0.0036
2596.00,0.0036
2595.00,0.0036
2594.00,0.0036
2593.00,0.0036
2592.00,0.0037
2591.00,0.0038
2590.00,0.0039
2589.00,0.0040
2588.00,0.0041
2587.00,0.0042
2586.00,0.0042
2585.00,0.0043
2584.00,0.0044
2583.00,0.0044
2582.00,0.0045
2581.00,0.0045
2580.00,0.0044
2579.00,0.0043
2578.00,0.0042
2577.00,0.0040
2576.00,0.0038
2575.00,0.0037
2574.00,0.0036
2573.00,0.0034
2572.00,0.0033
2571.00,0.0032
2570.00,0.0031
2569.00,0.0030
2568.00,0.0030
2567.00,0.0029
2566.00,0.0029
2565.00,0.0028
2564.00,0.0028
2563.00,0.0028
2562.00,0.0029
2561.00,0.0029
2560.00,0.0029
2559.00,0.0029
2558.00,0.0028
2557.00,0.0027
2556.00,0.0027
2555.00,0.0026
2554.00,0.0025
2553.00,0.0025
2552.00,0.0025
2551.00,0.0025
2550.00,0.0025
2549.00,0.0024
2548.00,0.0024
2547.00,0.0023
2546.00,0.0024
2545.00,0.0024
2544.00,0.0024
2543.00,0.0023
2542.00,0.0022
2541.00,0.0022
2540.00,0.0021
2539.00,0.0021
2538.00,0.0021
2537.00,0.0020
2536.00,0.0020
2535.00,0.0020
2534.00,0.0020
2533.00,0.0020
2532.00,0.0020
2531.00,0.0021
2530.00,0.0021
2529.00,0.0021
2528.00,0.0021
2527.00,0.0020
2526.00,0.0019
2525.00,0.0018
2524.00,0.0018
2523.00,0.0018
2522.00,0.0018
2521.00,0.0018
2520.00,0.0018
2519.00,0.0018
2518.00,0.0017
2517.00,0.0017
2516.00,0.0017
2515.00,0.0016
2514.00,0.0016
2513.00,0.0016
2512.00,0.0016
2511.00,0.0016
2510.00,0.0016
2509.00,0.0016
2508.00,0.0016
2507.00,0.0015
2506.00,0.0014
2505.00,0.0014
2504.00,0.0015
2503.00,0.0015
2502.00,0.0016
2501.00,0.0016
2500.00,0.0016
2499.00,0.0015
2498.00,0.0015
2497.00,0.0015
2496.00,0.0015
2495.00,0.0015
2494.00,0.0015
2493.00,0.0015
2492.00,0.0015
2491.00,0.0015
2490.00,0.0014
2489.00,0.0014
2488.00,0.0014
2487.00,0.0015
2486.00,0.0015
2485.00,0.0015
2484.00,0.0015
2483.00,0.0014
2482.00,0.0013
2481.00,0.0013
2480.00,0.0013
2479.00,0.0014
2478.00,0.0014
2477.00,0.0015
2476.00,0.0016
2475.00,0.0015
2474.00,0.0015
2473.00,0.0014
2472.00,0.0013
2471.00,0.0013
2470.00,0.0013
2469.00,0.0013
2468.00,0.0013
2467.00,0.0014
2466.00,0.0014
2465.00,0.0014
2464.00,0.0014
2463.00,0.0014
2462.00,0.0013
2461.00,0.0013
2460.00,0.0013
2459.00,0.0014
2458.00,0.0014
2457.00,0.0015
2456.00,0.0015
2455.00,0.0016
2454.00,0.0016
2453.00,0.0015
2452.00,0.0015
2451.00,0.0015
2450.00,0.0015
2449.00,0.0015
2448.00,0.0015
2447.00,0.0016
2446.00,0.0015
2445.00,0.0015
2444.00,0.0015
2443.00,0.0014
2442.00,0.0015
2441.00,0.0015
2440.00,0.0015
2439.00,0.0015
2438.00,0.0015
2437.00,0.0015
2436.00,0.0016
2435.00,0.0017
2434.00,0.0017
2433.00,0.0017
2432.00,0.0016
2431.00,0.0015
2430.00,0.0015
2429.00,0.0015
2428.00,0.0015
2427.00,0.0015
2426.00,0.0015
2425.00,0.0015
2424.00,0.0015
2423.00,0.0015
2422.00,0.0015
2421.00,0.0015
2420.00,0.0014
2419.00,0.0014
2418.00,0.0014
2417.00,0.0013
2416.00,0.0013
2415.00,0.0012
2414.00,0.0012
2413.00,0.0012
2412.00,0.0012
2411.00,0.0013
2410.00,0.0013
2409.00,0.0013
2408.00,0.0013
2407.00,0.0013
2406.00,0.0013
2405.00,0.0013
2404.00,0.0013
2403.00,0.0013
2402.00,0.0013
2401.00,0.0013
2400.00,0.0013
2399.00,0.0012
2398.00,0.0012
2397.00,0.0011
2396.00,0.0011
2395.00,0.0011
2394.00,0.0011
2393.00,0.0011
2392.00,0.0011
2391.00,0.0012
2390.00,0.0012
2389.00,0.0012
2388.00,0.0012
2387.00,0.0011
2386.00,0.0011
2385.00,0.0010
2384.00,0.0010
2383.00,0.0009
2382.00,0.0008
2381.00,0.0008
2380.00,0.0007
2379.00,0.0007
2378.00,0.0006
2377.00,0.0006
2376.00,0.0005
2375.00,0.0005
2374.00,0.0005
2373.00,0.0006
2372.00,0.0006
2371.00,0.0006
2370.00,0.0005
2369.00,0.0004
2368.00,0.0003
2367.00,0.0003
2366.00,0.0004
2365.00,0.0005
2364.00,0.0006
2363.00,0.0006
2362.00,0.0005
2361.00,0.0005
2360.00,0.0005
2359.00,0.0005
2358.00,0.0005
2357.00,0.0004
2356.00,0.0004
2355.00,0.0005
2354.00,0.0005
2353.00,0.0006
2352.00,0.0006
2351.00,0.0005
2350.00,0.0005
2349.00,0.0005
2348.00,0.0006
2347.00,0.0007
2346.00,0.0007
2345.00,0.0007
2344.00,0.0006
2343.00,0.0006
2342.00,0.0006
2341.00,0.0005
2340.00,0.0006
2339.00,0.0006
2338.00,0.0007
2337.00,0.0007
2336.00,0.0008
2335.00,0.0009
2334.00,0.0009
2333.00,0.0008
2332.00,0.0008
2331.00,0.0008
2330.00,0.0008
2329.00,0.0010
2328.00,0.0012
2327.00,0.0015
2326.00,0.0018
2325.00,0.0021
2324.00,0.0023
2323.00,0.0021
2322.00,0.0019
2321.00,0.0016
2320.00,0.0014
2319.00,0.0014
2318.00,0.0014
2317.00,0.0013
2316.00,0.0013
2315.00,0.0012
2314.00,0.0012
2313.00,0.0012
2312.00,0.0013
2311.00,0.0013
2310.00,0.0014
2309.00,0.0014
2308.00,0.0014
2307.00,0.0014
2306.00,0.0015
2305.00,0.0015
2304.00,0.0015
2303.00,0.0014
2302.00,0.0014
2301.00,0.0014
2300.00,0.0014
2299.00,0.0015
2298.00,0.0016
2297.00,0.0016
2296.00,0.0016
2295.00,0.0016
2294.00,0.0017
2293.00,0.0017
2292.00,0.0018
2291.00,0.0019
2290.00,0.0020
2289.00,0.0021
2288.00,0.0022
2287.00,0.0022
2286.00,0.0021
2285.00,0.0021
2284.00,0.0021
2283.00,0.0020
2282.00,0.0019
2281.00,0.0018
2280.00,0.0017
2279.00,0.0017
2278.00,0.0017
2277.00,0.0017
2276.00,0.0017
2275.00,0.0017
2274.00,0.0016
2273.00,0.0016
2272.00,0.0015
2271.00,0.0015
2270.00,0.0015
2269.00,0.0015
2268.00,0.0015
2267.00,0.0013
2266.00,0.0012
2265.00,0.0011
2264.00,0.0011
2263.00,0.0012
2262.00,0.0013
2261.00,0.0014
2260.00,0.0016
2259.00,0.0017
2258.00,0.0017
2257.00,0.0016
2256.00,0.0014
2255.00,0.0012
2254.00,0.0011
2253.00,0.0011
2252.00,0.0012
2251.00,0.0012
2250.00,0.0012
2249.00,0.0012
2248.00,0.0012
2247.00,0.0013
2246.00,0.0014
2245.00,0.0014
2244.00,0.0013
2243.00,0.0012
2242.00,0.0011
2241.00,0.0011
2240.00,0.0011
2239.00,0.0012
2238.00,0.0011
2237.00,0.0011
2236.00,0.0010
2235.00,0.0010
2234.00,0.0011
2233.00,0.0013
2232.00,0.0015
2231.00,0.0016
2230.00,0.0015
2229.00,0.0015
2228.00,0.0014
2227.00,0.0013
2226.00,0.0012
2225.00,0.0011
2224.00,0.0012
2223.00,0.0012
2222.00,0.0012
2221.00,0.0011
2220.00,0.0011
2219.00,0.0011
2218.00,0.0010
2217.00,0.0009
2216.00,0.0008
2215.00,0.0007
2214.00,0.0007
2213.00,0.0007
2212.00,0.0008
2211.00,0.0008
2210.00,0.0008
2209.00,0.0008
2208.00,0.0008
2207.00,0.0008
2206.00,0.0008
2205.00,0.0008
2204.00,0.0009
2203.00,0.0011
2202.00,0.0011
2201.00,0.0012
2200.00,0.0013
2199.00,0.0014
2198.00,0.0013
2197.00,0.0012
2196.00,0.0010
2195.00,0.0009
2194.00,0.0008
2193.00,0.0008
2192.00,0.0010
2191.00,0.0013
2190.00,0.0016
2189.00,0.0019
2188.00,0.0019
2187.00,0.0018
2186.00,0.0016
2185.00,0.0015
2184.00,0.0015
2183.00,0.0015
2182.00,0.0014
2181.00,0.0013
2180.00,0.0012
2179.00,0.0013
2178.00,0.0015
2177.00,0.0015
2176.00,0.0013
2175.00,0.0010
2174.00,0.0007
2173.00,0.0006
2172.00,0.0007
2171.00,0.0009
2170.00,0.0012
2169.00,0.0016
2168.00,0.0018
2167.00,0.0018
2166.00,0.0018
2165.00,0.0017
2164.00,0.0017
2163.00,0.0015
2162.00,0.0012
2161.00,0.0005
2160.00,-0.0005
2159.00,-0.0016
2158.00,-0.0022
2157.00,-0.0023
2156.00,-0.0021
2155.00,-0.0019
2154.00,-0.0017
2153.00,-0.0014
2152.00,-0.0011
2151.00,-0.0009
2150.00,-0.0008
2149.00,-0.0007
2148.00,-0.0006
2147.00,-0.0006
2146.00,-0.0006
2145.00,-0.0006
2144.00,-0.0007
2143.00,-0.0007
2142.00,-0.0008
2141.00,-0.0008
2140.00,-0.0008
2139.00,-0.0007
2138.00,-0.0006
2137.00,-0.0008
2136.00,-0.0011
2135.00,-0.0014
2134.00,-0.0015
2133.00,-0.0015
2132.00,-0.0012
2131.00,-0.0010
2130.00,-0.0007
2129.00,-0.0006
2128.00,-0.0005
2127.00,-0.0004
2126.00,-0.0003
2125.00,-0.0002
2124.00,-0.0000
2123.00,0.0001
2122.00,0.0001
2121.00,0.0001
2120.00,0.0002
2119.00,0.0003
2118.00,0.0004
2117.00,0.0005
2116.00,0.0005
2115.00,0.0005
2114.00,0.0004
2113.00,0.0004
2112.00,0.0005
2111.00,0.0005
2110.00,0.0005
2109.00,0.0004
2108.00,0.0004
2107.00,0.0005
2106.00,0.0006
2105.00,0.0007
2104.00,0.0007
2103.00,0.0006
2102.00,0.0005
2101.00,0.0006
2100.00,0.0007
2099.00,0.0007
2098.00,0.0007
2097.00,0.0006
2096.00,0.0004
2095.00,0.0002
2094.00,0.0001
2093.00,0.0001
2092.00,0.0001
2091.00,0.0001
2090.00,0.0002
2089.00,0.0003
2088.00,0.0004
2087.00,0.0005
2086.00,0.0006
2085.00,0.0007
2084.00,0.0008
2083.00,0.0009
2082.00,0.0008
2081.00,0.0007
2080.00,0.0006
2079.00,0.0004
2078.00,0.0003
2077.00,0.0003
2076.00,0.0002
2075.00,0.0002
2074.00,0.0003
2073.00,0.0004
2072.00,0.0005
2071.00,0.0005
2070.00,0.0006
2069.00,0.0006
2068.00,0.0006
2067.00,0.0006
2066.00,0.0005
2065.00,0.0005
2064.00,0.0004
2063.00,0.0003
2062.00,0.0001
2061.00,0.0001
2060.00,0.0001
2059.00,0.0002
2058.00,0.0003
2057.00,0.0004
2056.00,0.0006
2055.00,0.0007
2054.00,0.0008
2053.00,0.0010
2052.00,0.0013
2051.00,0.0015
2050.00,0.0014
2049.00,0.0012
2048.00,0.0009
2047.00,0.0007
2046.00,0.0005
2045.00,0.0004
2044.00,0.0004
2043.00,0.0003
2042.00,0.0002
2041.00,0.0001
2040.00,0.0000
2039.00,0.0002
2038.00,0.0004
2037.00,0.0004
2036.00,0.0003
2035.00,0.0001
2034.00,-0.0002
2033.00,-0.0003
2032.00,-0.0004
2031.00,-0.0004
2030.00,-0.0006
2029.00,-0.0007
2028.00,-0.0008
2027.00,-0.0008
2026.00,-0.0008
2025.00,-0.0008
2024.00,-0.0009
2023.00,-0.0009
2022.00,-0.0008
2021.00,-0.0005
2020.00,-0.0002
2019.00,0.0001
2018.00,0.0002
2017.00,0.0002
2016.00,0.0001
2015.00,-0.0000
2014.00,-0.0001
2013.00,-0.0001
2012.00,-0.0000
2011.00,-0.0001
2010.00,-0.0004
2009.00,-0.0007
2008.00,-0.0010
2007.00,-0.0012
2006.00,-0.0012
2005.00,-0.0011
2004.00,-0.0009
2003.00,-0.0009
2002.00,-0.0008
2001.00,-0.0007
2000.00,-0.0006
1999.00,-0.0005
1998.00,-0.0006
1997.00,-0.0007
1996.00,-0.0008
1995.00,-0.0008
1994.00,-0.0008
1993.00,-0.0007
1992.00,-0.0005
1991.00,-0.0003
1990.00,-0.0002
1989.00,-0.0002
1988.00,-0.0002
1987.00,-0.0000
1986.00,0.0002
1985.00,0.0004
1984.00,0.0006
1983.00,0.0009
1982.00,0.0012
1981.00,0.0014
1980.00,0.0013
1979.00,0.0009
1978.00,0.0003
1977.00,-0.0004
1976.00,-0.0008
1975.00,-0.0010
1974.00,-0.0008
1973.00,-0.0004
1972.00,0.0000
1971.00,0.0001
1970.00,-0.0001
1969.00,-0.0005
1968.00,-0.0008
1967.00,-0.0007
1966.00,-0.0004
1965.00,-0.0002
1964.00,-0.0001
1963.00,-0.0003
1962.00,-0.0005
1961.00,-0.0007
1960.00,-0.0009
1959.00,-0.0011
1958.00,-0.0011
1957.00,-0.0010
1956.00,-0.0009
1955.00,-0.0009
1954.00,-0.0009
1953.00,-0.0007
1952.00,-0.0004
1951.00,-0.0003
1950.00,-0.0004
1949.00,-0.0006
1948.00,-0.0007
1947.00,-0.0007
1946.00,-0.0006
1945.00,-0.0006
1944.00,-0.0006
1943.00,-0.0006
1942.00,-0.0006
1941.00,-0.0005
1940.00,-0.0004
1939.00,-0.0004
1938.00,-0.0003
1937.00,-0.0001
1936.00,0.0000
1935.00,-0.0000
1934.00,-0.0002
1933.00,-0.0004
1932.00,-0.0005
1931.00,-0.0005
1930.00,-0.0004
1929.00,-0.0004
1928.00,-0.0003
1927.00,-0.0002
1926.00,-0.0003
1925.00,-0.0003
1924.00,-0.0002
1923.00,-0.0002
1922.00,-0.0001
1921.00,0.0001
1920.00,0.0003
1919.00,0.0004
1918.00,0.0004
1917.00,0.0005
1916.00,0.0005
1915.00,0.0004
1914.00,0.0004
1913.00,0.0003
1912.00,0.0003
1911.00,0.0003
1910.00,0.0003
1909.00,0.0003
1908.00,0.0003
1907.00,0.0003
1906.00,0.0003
1905.00,0.0004
1904.00,0.0003
1903.00,0.0003
1902.00,0.0003
1901.00,0.0003
1900.00,0.0004
1899.00,0.0005
1898.00,0.0006
1897.00,0.0006
1896.00,0.0006
1895.00,0.0006
1894.00,0.0006
1893.00,0.0007
1892.00,0.0008
1891.00,0.0008
1890.00,0.0007
1889.00,0.0006
1888.00,0.0005
1887.00,0.0004
1886.00,0.0003
1885.00,0.0003
1884.00,0.0003
1883.00,0.0002
1882.00,0.0002
1881.00,0.0002
1880.00,0.0002
1879.00,0.0002
1878.00,0.0002
1877.00,0.0002
1876.00,0.0003
1875.00,0.0004
1874.00,0.0004
1873.00,0.0005
1872.00,0.0006
1871.00,0.0006
1870.00,0.0006
1869.00,0.0005
1868.00,0.0004
1867.00,0.0004
1866.00,0.0004
1865.00,0.0005
1864.00,0.0005
1863.00,0.0005
1862.00,0.0005
1861.00,0.0005
1860.00,0.0005
1859.00,0.0004
1858.00,0.0004
1857.00,0.0004
1856.00,0.0005
1855.00,0.0005
1854.00,0.0006
1853.00,0.0007
1852.00,0.0007
1851.00,0.0007
1850.00,0.0007
1849.00,0.0007
1848.00,0.0008
1847.00,0.0008
1846.00,0.0007
1845.00,0.0007
1844.00,0.0006
1843.00,0.0006
1842.00,0.0006
1841.00,0.0007
1840.00,0.0007
1839.00,0.0007
1838.00,0.0007
1837.00,0.0007
1836.00,0.0008
1835.00,0.0009
1834.00,0.0009
1833.00,0.0009
1832.00,0.0009
1831.00,0.0009
1830.00,0.0008
1829.00,0.0008
1828.00,0.0007
1827.00,0.0006
1826.00,0.0006
1825.00,0.0007
1824.00,0.0008
1823.00,0.0008
1822.00,0.0008
1821.00,0.0008
1820.00,0.0008
1819.00,0.0007
1818.00,0.0007
1817.00,0.0006
1816.00,0.0006
1815.00,0.0007
1814.00,0.0008
1813.00,0.0008
1812.00,0.0009
1811.00,0.0009
1810.00,0.0009
1809.00,0.0009
1808.00,0.0009
1807.00,0.0009
1806.00,0.0009
1805.00,0.0009
1804.00,0.0010
1803.00,0.0010
1802.00,0.0010
1801.00,0.0009
1800.00,0.0009
1799.00,0.0009
1798.00,0.0009
1797.00,0.0010
1796.00,0.0010
1795.00,0.0011
1794.00,0.0011
1793.00,0.0011
1792.00,0.0011
1791.00,0.0012
1790.00,0.0012
1789.00,0.0013
1788.00,0.0013
1787.00,0.0013
1786.00,0.0013
1785.00,0.0013
1784.00,0.0013
1783.00,0.0013
1782.00,0.0013
1781.00,0.0014
1780.00,0.0014
1779.00,0.0014
1778.00,0.0014
1777.00,0.0014
1776.00,0.0014
1775.00,0.0014
1774.00,0.0014
1773.00,0.0014
1772.00,0.0014
1771.00,0.0014
1770.00,0.0015
1769.00,0.0015
1768.00,0.0016
1767.00,0.0016
1766.00,0.0017
1765.00,0.0018
1764.00,0.0019
1763.00,0.0019
1762.00,0.0019
1761.00,0.0020
1760.00,0.0020
1759.00,0.0021
1758.00,0.0021
1757.00,0.0022
1756.00,0.0024
1755.00,0.0025
1754.00,0.0026
1753.00,0.0028
1752.00,0.0029
1751.00,0.0030
1750.00,0.0031
1749.00,0.0032
1748.00,0.0032
1747.00,0.0033
1746.00,0.0033
1745.00,0.0033
1744.00,0.0034
1743.00,0.0034
1742.00,0.0034
1741.00,0.0034
1740.00,0.0035
1739.00,0.0035
1738.00,0.0035
1737.00,0.0035
1736.00,0.0036
1735.00,0.0036
1734.00,0.0036
1733.00,0.0037
1732.00,0.0037
1731.00,0.0036
1730.00,0.0035
1729.00,0.0035
1728.00,0.0035
1727.00,0.0036
1726.00,0.0036
1725.00,0.0036
1724.00,0.0037
1723.00,0.0037
1722.00,0.0037
1721.00,0.0037
1720.00,0.0036
1719.00,0.0036
1718.00,0.0036
1717.00,0.0036
1716.00,0.0036
1715.00,0.0036
1714.00,0.0036
1713.00,0.0036
1712.00,0.0036
1711.00,0.0036
1710.00,0.0036
1709.00,0.0036
1708.00,0.0036
1707.00,0.0037
1706.00,0.0037
1705.00,0.0037
1704.00,0.0037
1703.00,0.0037
1702.00,0.0038
1701.00,0.0039
1700.00,0.0041
1699.00,0.0043
1698.00,0.0043
1697.00,0.0043
1696.00,0.0044
1695.00,0.0046
1694.00,0.0048
1693.00,0.0049
1692.00,0.0049
1691.00,0.0050
1690.00,0.0051
1689.00,0.0052
1688.00,0.0053
1687.00,0.0053
1686.00,0.0054
1685.00,0.0057
1684.00,0.0060
1683.00,0.0062
1682.00,0.0064
1681.00,0.0066
1680.00,0.0067
1679.00,0.0068
1678.00,0.0068
1677.00,0.0069
1676.00,0.0070
1675.00,0.0072
1674.00,0.0074
1673.00,0.0076
1672.00,0.0077
1671.00,0.0078
1670.00,0.0079
1669.00,0.0080
1668.00,0.0081
1667.00,0.0081
1666.00,0.0082
1665.00,0.0082
1664.00,0.0083
1663.00,0.0084
1662.00,0.0085
1661.00,0.0086
1660.00,0.0087
1659.00,0.0088
1658.00,0.0089
1657.00,0.0089
1656.00,0.0089
1655.00,0.0089
1654.00,0.0090
1653.00,0.0093
1652.00,0.0097
1651.00,0.0100
1650.00,0.0101
1649.00,0.0102
1648.00,0.0104
1647.00,0.0106
1646.00,0.0108
1645.00,0.0109
1644.00,0.0108
1643.00,0.0107
1642.00,0.0105
1641.00,0.0104
1640.00,0.0103
1639.00,0.0103
1638.00,0.0102
1637.00,0.0103
1636.00,0.0103
1635.00,0.0103
1634.00,0.0103
1633.00,0.0102
1632.00,0.0102
1631.00,0.0101
1630.00,0.0100
1629.00,0.0099
1628.00,0.0098
1627.00,0.0097
1626.00,0.0097
1625.00,0.0096
1624.00,0.0096
1623.00,0.0096
1622.00,0.0095
1621.00,0.0095
1620.00,0.0095
1619.00,0.0094
1618.00,0.0093
1617.00,0.0093
1616.00,0.0093
1615.00,0.0093
1614.00,0.0093
1613.00,0.0093
1612.00,0.0093
1611.00,0.0093
1610.00,0.0093
1609.00,0.0094
1608.00,0.0094
1607.00,0.0094
1606.00,0.0094
1605.00,0.0094
1604.00,0.0094
1603.00,0.0094
1602.00,0.0093
1601.00,0.0094
1600.00,0.0094
1599.00,0.0095
1598.00,0.0095
1597.00,0.0095
1596.00,0.0095
1595.00,0.0095
1594.00,0.0094
1593.00,0.0094
1592.00,0.0094
1591.00,0.0094
1590.00,0.0094
1589.00,0.0094
1588.00,0.0094
1587.00,0.0094
1586.00,0.0094
1585.00,0.0094
1584.00,0.0094
1583.00,0.0094
1582.00,0.0094
1581.00,0.0094
1580.00,0.0095
1579.00,0.0095
1578.00,0.0095
1577.00,0.0095
1576.00,0.0095
1575.00,0.0094
1574.00,0.0093
1573.00,0.0092
1572.00,0.0091
1571.00,0.0090
1570.00,0.0090
1569.00,0.0090
1568.00,0.0090
1567.00,0.0089
1566.00,0.0089
1565.00,0.0088
1564.00,0.0088
1563.00,0.0087
1562.00,0.0086
1561.00,0.0086
1560.00,0.0086
1559.00,0.0086
1558.00,0.0085
1557.00,0.0086
1556.00,0.0086
1555.00,0.0086
1554.00,0.0086
1553.00,0.0087
1552.00,0.0087
1551.00,0.0087
1550.00,0.0087
1549.00,0.0087
1548.00,0.0088
1547.00,0.0089
1546.00,0.0089
1545.00,0.0089
1544.00,0.0089
1543.00,0.0089
1542.00,0.0088
1541.00,0.0089
1540.00,0.0088
1539.00,0.0087
1538.00,0.0085
1537.00,0.0084
1536.00,0.0083
1535.00,0.0081
1534.00,0.0079
1533.00,0.0077
1532.00,0.0077
1531.00,0.0076
1530.00,0.0075
1529.00,0.0074
1528.00,0.0074
1527.00,0.0073
1526.00,0.0072
1525.00,0.0072
1524.00,0.0072
1523.00,0.0073
1522.00,0.0073
1521.00,0.0073
1520.00,0.0074
1519.00,0.0074
1518.00,0.0073
1517.00,0.0073
1516.00,0.0073
1515.00,0.0073
1514.00,0.0073
1513.00,0.0074
1512.00,0.0075
1511.00,0.0076
1510.00,0.0077
1509.00,0.0078
1508.00,0.0079
1507.00,0.0078
1506.00,0.0078
1505.00,0.0081
1504.00,0.0083
1503.00,0.0084
1502.00,0.0086
1501.00,0.0088
1500.00,0.0091
1499.00,0.0093
1498.00,0.0095
1497.00,0.0099
1496.00,0.0103
1495.00,0.0106
1494.00,0.0108
1493.00,0.0111
1492.00,0.0115
1491.00,0.0119
1490.00,0.0123
1489.00,0.0128
1488.00,0.0133
1487.00,0.0137
1486.00,0.0142
1485.00,0.0149
1484.00,0.0156
1483.00,0.0163
1482.00,0.0172
1481.00,0.0183
1480.00,0.0194
1479.00,0.0207
1478.00,0.0222
1477.00,0.0244
1476.00,0.0271
1475.00,0.0304
1474.00,0.0347
1473.00,0.0407
1472.00,0.0476
1471.00,0.0542
1470.00,0.0605
1469.00,0.0672
1468.00,0.0744
1467.00,0.0825
1466.00,0.0919
1465.00,0.1022
1464.00,0.1112
1463.00,0.1172
1462.00,0.1207
1461.00,0.1228
1460.00,0.1239
1459.00,0.1244
1458.00,0.1244
1457.00,0.1240
1456.00,0.1230
1455.00,0.1215
1454.00,0.1197
1453.00,0.1174
1452.00,0.1141
1451.00,0.1098
1450.00,0.1041
1449.00,0.0966
1448.00,0.0874
1447.00,0.0779
1446.00,0.0696
1445.00,0.0627
1444.00,0.0569
1443.00,0.0522
1442.00,0.0488
1441.00,0.0465
1440.00,0.0452
1439.00,0.0449
1438.00,0.0454
1437.00,0.0460
1436.00,0.0455
1435.00,0.0433
1434.00,0.0398
1433.00,0.0354
1432.00,0.0308
1431.00,0.0267
1430.00,0.0235
1429.00,0.0212
1428.00,0.0196
1427.00,0.0187
1426.00,0.0181
1425.00,0.0175
1424.00,0.0170
1423.00,0.0167
1422.00,0.0165
1421.00,0.0164
1420.00,0.0162
1419.00,0.0161
1418.00,0.0160
1417.00,0.0158
1416.00,0.0155
1415.00,0.0154
1414.00,0.0154
1413.00,0.0153
1412.00,0.0152
1411.00,0.0152
1410.00,0.0152
1409.00,0.0152
1408.00,0.0152
1407.00,0.0153
1406.00,0.0155
1405.00,0.0156
1404.00,0.0157
1403.00,0.0160
1402.00,0.0164
1401.00,0.0167
1400.00,0.0170
1399.00,0.0174
1398.00,0.0178
1397.00,0.0182
1396.00,0.0186
1395.00,0.0192
1394.00,0.0198
1393.00,0.0203
1392.00,0.0208
1391.00,0.0214
1390.00,0.0224
1389.00,0.0237
1388.00,0.0258
1387.00,0.0289
1386.00,0.0331
1385.00,0.0386
1384.00,0.0463
1383.00,0.0574
1382.00,0.0728
1381.00,0.0934
1380.00,0.1195
1379.00,0.1499
1378.00,0.1798
1377.00,0.2021
1376.00,0.2099
1375.00,0.1994
1374.00,0.1738
1373.00,0.1430
1372.00,0.1152
1371.00,0.0925
1370.00,0.0747
1369.00,0.0612
1368.00,0.0519
1367.00,0.0461
1366.00,0.0430
1365.00,0.0416
1364.00,0.0418
1363.00,0.0432
1362.00,0.0454
1361.00,0.0479
1360.00,0.0497
1359.00,0.0503
1358.00,0.0492
1357.00,0.0464
1356.00,0.0426
1355.00,0.0382
1354.00,0.0339
1353.00,0.0302
1352.00,0.0273
1351.00,0.0249
1350.00,0.0230
1349.00,0.0214
1348.00,0.0201
1347.00,0.0190
1346.00,0.0180
1345.00,0.0172
1344.00,0.0166
1343.00,0.0160
1342.00,0.0155
1341.00,0.0151
1340.00,0.0148
1339.00,0.0145
1338.00,0.0143
1337.00,0.0142
1336.00,0.0143
1335.00,0.0145
1334.00,0.0149
1333.00,0.0153
1332.00,0.0158
1331.00,0.0162
1330.00,0.0163
1329.00,0.0161
1328.00,0.0157
1327.00,0.0151
1326.00,0.0145
1325.00,0.0138
1324.00,0.0132
1323.00,0.0127
1322.00,0.0123
1321.00,0.0120
1320.00,0.0117
1319.00,0.0115
1318.00,0.0113
1317.00,0.0111
1316.00,0.0110
1315.00,0.0110
1314.00,0.0109
1313.00,0.0109
1312.00,0.0109
1311.00,0.0110
1310.00,0.0112
1309.00,0.0116
1308.00,0.0123
1307.00,0.0131
1306.00,0.0138
1305.00,0.0144
1304.00,0.0146
1303.00,0.0145
1302.00,0.0143
1301.00,0.0142
1300.00,0.0143
1299.00,0.0145
1298.00,0.0147
1297.00,0.0149
1296.00,0.0150
1295.00,0.0148
1294.00,0.0145
1293.00,0.0139
1292.00,0.0133
1291.00,0.0127
1290.00,0.0122
1289.00,0.0119
1288.00,0.0116
1287.00,0.0114
1286.00,0.0112
1285.00,0.0110
1284.00,0.0108
1283.00,0.0107
1282.00,0.0106
1281.00,0.0106
1280.00,0.0106
1279.00,0.0106
1278.00,0.0107
1277.00,0.0107
1276.00,0.0108
1275.00,0.0109
1274.00,0.0110
1273.00,0.0111
1272.00,0.0113
1271.00,0.0115
1270.00,0.0118
1269.00,0.0121
1268.00,0.0125
1267.00,0.0129
1266.00,0.0134
1265.00,0.0137
1264.00,0.0141
1263.00,0.0144
1262.00,0.0146
1261.00,0.0149
1260.00,0.0152
1259.00,0.0156
1258.00,0.0160
1257.00,0.0164
1256.00,0.0165
1255.00,0.0163
1254.00,0.0158
1253.00,0.0152
1252.00,0.0147
1251.00,0.0142
1250.00,0.0138
1249.00,0.0134
1248.00,0.0131
1247.00,0.0128
1246.00,0.0125
1245.00,0.0123
1244.00,0.0121
1243.00,0.0119
1242.00,0.0118
1241.00,0.0117
1240.00,0.0116
1239.00,0.0115
1238.00,0.0114
1237.00,0.0113
1236.00,0.0112
1235.00,0.0111
1234.00,0.0111
1233.00,0.0110
1232.00,0.0109
1231.00,0.0109
1230.00,0.0108
1229.00,0.0108
1228.00,0.0109
1227.00,0.0110
1226.00,0.0111
1225.00,0.0113
1224.00,0.0115
1223.00,0.0118
1222.00,0.0122
1221.00,0.0125
1220.00,0.0127
1219.00,0.0127
1218.00,0.0126
1217.00,0.0123
1216.00,0.0119
1215.00,0.0116
1214.00,0.0112
1213.00,0.0109
1212.00,0.0106
1211.00,0.0104
1210.00,0.0101
1209.00,0.0099
1208.00,0.0098
1207.00,0.0097
1206.00,0.0096
1205.00,0.0096
1204.00,0.0095
1203.00,0.0095
1202.00,0.0094
1201.00,0.0093
1200.00,0.0093
1199.00,0.0093
1198.00,0.0093
1197.00,0.0094
1196.00,0.0094
1195.00,0.0095
1194.00,0.0096
1193.00,0.0097
1192.00,0.0097
1191.00,0.0098
1190.00,0.0099
1189.00,0.0100
1188.00,0.0101
1187.00,0.0102
1186.00,0.0104
1185.00,0.0106
1184.00,0.0107
1183.00,0.0110
1182.00,0.0112
1181.00,0.0116
1180.00,0.0119
1179.00,0.0124
1178.00,0.0129
1177.00,0.0135
1176.00,0.0144
1175.00,0.0156
1174.00,0.0171
1173.00,0.0189
1172.00,0.0210
1171.00,0.0232
1170.00,0.0253
1169.00,0.0270
1168.00,0.0281
1167.00,0.0284
1166.00,0.0282
1165.00,0.0275
1164.00,0.0268
1163.00,0.0260
1162.00,0.0254
1161.00,0.0249
1160.00,0.0245
1159.00,0.0243
1158.00,0.0242
1157.00,0.0241
1156.00,0.0241
1155.00,0.0242
1154.00,0.0243
1153.00,0.0242
1152.00,0.0239
1151.00,0.0233
1150.00,0.0226
1149.00,0.0217
1148.00,0.0208
1147.00,0.0198
1146.00,0.0190
1145.00,0.0181
1144.00,0.0174
1143.00,0.0168
1142.00,0.0162
1141.00,0.0157
1140.00,0.0153
1139.00,0.0150
1138.00,0.0146
1137.00,0.0143
1136.00,0.0140
1135.00,0.0138
1134.00,0.0136
1133.00,0.0136
1132.00,0.0135
1131.00,0.0135
1130.00,0.0134
1129.00,0.0134
1128.00,0.0134
1127.00,0.0135
1126.00,0.0136
1125.00,0.0137
1124.00,0.0137
1123.00,0.0137
1122.00,0.0137
1121.00,0.0136
1120.00,0.0136
1119.00,0.0136
1118.00,0.0136
1117.00,0.0136
1116.00,0.0136
1115.00,0.0137
1114.00,0.0138
1113.00,0.0139
1112.00,0.0141
1111.00,0.0144
1110.00,0.0148
1109.00,0.0152
1108.00,0.0156
1107.00,0.0162
1106.00,0.0170
1105.00,0.0177
1104.00,0.0183
1103.00,0.0186
1102.00,0.0185
1101.00,0.0182
1100.00,0.0176
1099.00,0.0170
1098.00,0.0164
1097.00,0.0159
1096.00,0.0155
1095.00,0.0152
1094.00,0.0150
1093.00,0.0148
1092.00,0.0147
1091.00,0.0147
1090.00,0.0146
1089.00,0.0145
1088.00,0.0144
1087.00,0.0143
1086.00,0.0143
1085.00,0.0144
1084.00,0.0144
1083.00,0.0145
1082.00,0.0144
1081.00,0.0143
1080.00,0.0141
1079.00,0.0140
1078.00,0.0139
1077.00,0.0138
1076.00,0.0138
1075.00,0.0137
1074.00,0.0137
1073.00,0.0136
1072.00,0.0136
1071.00,0.0135
1070.00,0.0133
1069.00,0.0132
1068.00,0.0130
1067.00,0.0129
1066.00,0.0129
1065.00,0.0129
1064.00,0.0129
1063.00,0.0130
1062.00,0.0131
1061.00,0.0131
1060.00,0.0130
1059.00,0.0130
1058.00,0.0129
1057.00,0.0129
1056.00,0.0130
1055.00,0.0131
1054.00,0.0132
1053.00,0.0134
1052.00,0.0136
1051.00,0.0138
1050.00,0.0141
1049.00,0.0143
1048.00,0.0147
1047.00,0.0150
1046.00,0.0152
1045.00,0.0154
1044.00,0.0155
1043.00,0.0154
1042.00,0.0154
1041.00,0.0153
1040.00,0.0152
1039.00,0.0151
1038.00,0.0151
1037.00,0.0150
1036.00,0.0148
1035.00,0.0146
1034.00,0.0145
1033.00,0.0144
1032.00,0.0143
1031.00,0.0143
1030.00,0.0143
1029.00,0.0143
1028.00,0.0144
1027.00,0.0145
1026.00,0.0146
1025.00,0.0147
1024.00,0.0149
1023.00,0.0150
1022.00,0.0153
1021.00,0.0155
1020.00,0.0157
1019.00,0.0159
1018.00,0.0159
1017.00,0.0159
1016.00,0.0158
1015.00,0.0156
1014.00,0.0155
1013.00,0.0153
1012.00,0.0151
1011.00,0.0150
1010.00,0.0150
1009.00,0.0150
1008.00,0.0152
1007.00,0.0154
1006.00,0.0156
1005.00,0.0161
1004.00,0.0169
1003.00,0.0183
1002.00,0.0202
1001.00,0.0225
1000.00,0.0248
999.00,0.0266
998.00,0.0273
997.00,0.0266
996.00,0.0247
995.00,0.0221
994.00,0.0195
993.00,0.0172
992.00,0.0155
991.00,0.0142
990.00,0.0134
989.00,0.0128
988.00,0.0125
987.00,0.0122
986.00,0.0121
985.00,0.0122
984.00,0.0125
983.00,0.0132
982.00,0.0143
981.00,0.0157
980.00,0.0175
979.00,0.0199
978.00,0.0227
977.00,0.0260
976.00,0.0294
975.00,0.0324
974.00,0.0344
973.00,0.0349
972.00,0.0338
971.00,0.0312
970.00,0.0279
969.00,0.0246
968.00,0.0217
967.00,0.0194
966.00,0.0178
965.00,0.0166
964.00,0.0157
963.00,0.0150
962.00,0.0145
961.00,0.0140
960.00,0.0138
959.00,0.0137
958.00,0.0137
957.00,0.0136
956.00,0.0136
955.00,0.0135
954.00,0.0134
953.00,0.0133
952.00,0.0132
951.00,0.0130
950.00,0.0128
949.00,0.0127
948.00,0.0127
947.00,0.0127
946.00,0.0127
945.00,0.0128
944.00,0.0130
943.00,0.0134
942.00,0.0137
941.00,0.0139
940.00,0.0139
939.00,0.0135
938.00,0.0129
937.00,0.0121
936.00,0.0113
935.00,0.0107
934.00,0.0102
933.00,0.0097
932.00,0.0093
931.00,0.0089
930.00,0.0086
929.00,0.0084
928.00,0.0082
927.00,0.0081
926.00,0.0080
925.00,0.0079
924.00,0.0078
923.00,0.0076
922.00,0.0076
921.00,0.0076
920.00,0.0077
919.00,0.0077
918.00,0.0077
917.00,0.0077
916.00,0.0077
915.00,0.0078
914.00,0.0079
913.00,0.0080
912.00,0.0081
911.00,0.0083
910.00,0.0085
909.00,0.0087
908.00,0.0091
907.00,0.0095
906.00,0.0102
905.00,0.0112
904.00,0.0126
903.00,0.0145
902.00,0.0167
901.00,0.0188
900.00,0.0200
899.00,0.0201
898.00,0.0192
897.00,0.0174
896.00,0.0153
895.00,0.0133
894.00,0.0117
893.00,0.0105
892.00,0.0098
891.00,0.0093
890.00,0.0090
889.00,0.0087
888.00,0.0085
887.00,0.0083
886.00,0.0082
885.00,0.0081
884.00,0.0082
883.00,0.0082
882.00,0.0083
881.00,0.0082
880.00,0.0082
879.00,0.0081
878.00,0.0082
877.00,0.0082
876.00,0.0083
875.00,0.0083
874.00,0.0085
873.00,0.0086
872.00,0.0087
871.00,0.0087
870.00,0.0087
869.00,0.0087
868.00,0.0087
867.00,0.0087
866.00,0.0087
865.00,0.0088
864.00,0.0089
863.00,0.0090
862.00,0.0091
861.00,0.0092
860.00,0.0093
859.00,0.0095
858.00,0.0096
857.00,0.0097
856.00,0.0098
855.00,0.0098
854.00,0.0098
853.00,0.0098
852.00,0.0099
851.00,0.0101
850.00,0.0104
849.00,0.0109
848.00,0.0115
847.00,0.0125
846.00,0.0140
845.00,0.0161
844.00,0.0189
843.00,0.0219
842.00,0.0243
841.00,0.0250
840.00,0.0235
839.00,0.0207
838.00,0.0176
837.00,0.0151
836.00,0.0135
835.00,0.0126
834.00,0.0121
833.00,0.0119
832.00,0.0117
831.00,0.0116
830.00,0.0116
829.00,0.0115
828.00,0.0114
827.00,0.0113
826.00,0.0113
825.00,0.0115
824.00,0.0117
823.00,0.0120
822.00,0.0122
821.00,0.0124
820.00,0.0126
819.00,0.0130
818.00,0.0136
817.00,0.0143
816.00,0.0153
815.00,0.0166
814.00,0.0183
813.00,0.0203
812.00,0.0226
811.00,0.0249
810.00,0.0266
809.00,0.0273
808.00,0.0268
807.00,0.0253
806.00,0.0232
805.00,0.0210
804.00,0.0192
803.00,0.0177
802.00,0.0164
801.00,0.0154
800.00,0.0145
799.00,0.0138
798.00,0.0132
797.00,0.0126
796.00,0.0121
795.00,0.0117
794.00,0.0114
793.00,0.0111
792.00,0.0108
791.00,0.0104
790.00,0.0100
789.00,0.0097
788.00,0.0094
787.00,0.0091
786.00,0.0089
785.00,0.0087
784.00,0.0085
783.00,0.0084
782.00,0.0083
781.00,0.0081
780.00,0.0081
779.00,0.0081
778.00,0.0081
777.00,0.0081
776.00,0.0080
775.00,0.0079
774.00,0.0080
773.00,0.0080
772.00,0.0082
771.00,0.0083
770.00,0.0083
769.00,0.0083
768.00,0.0082
767.00,0.0081
766.00,0.0080
765.00,0.0079
764.00,0.0079
763.00,0.0080
762.00,0.0081
761.00,0.0083
760.00,0.0084
759.00,0.0084
758.00,0.0084
757.00,0.0084
756.00,0.0085
755.00,0.0087
754.00,0.0089
753.00,0.0091
752.00,0.0092
751.00,0.0092
750.00,0.0092
749.00,0.0093
748.00,0.0094
747.00,0.0095
746.00,0.0096
745.00,0.0098
744.00,0.0100
743.00,0.0103
742.00,0.0107
741.00,0.0110
740.00,0.0112
739.00,0.0115
738.00,0.0118
737.00,0.0122
736.00,0.0126
735.00,0.0131
734.00,0.0137
733.00,0.0145
732.00,0.0153
731.00,0.0162
730.00,0.0168
729.00,0.0171
728.00,0.0171
727.00,0.0170
726.00,0.0172
725.00,0.0175
724.00,0.0180
723.00,0.0186
722.00,0.0193
721.00,0.0197
720.00,0.0197
719.00,0.0190
718.00,0.0177
717.00,0.0163
716.00,0.0151
715.00,0.0142
714.00,0.0136
713.00,0.0133
712.00,0.0130
711.00,0.0127
710.00,0.0123
709.00,0.0120
708.00,0.0119
707.00,0.0118
706.00,0.0119
705.00,0.0119
704.00,0.0120
703.00,0.0119
702.00,0.0118
701.00,0.0116
700.00,0.0114
699.00,0.0114
698.00,0.0115
697.00,0.0116
696.00,0.0117
695.00,0.0116
694.00,0.0115
693.00,0.0113
692.00,0.0112
691.00,0.0113
690.00,0.0114
689.00,0.0115
688.00,0.0114
687.00,0.0112
686.00,0.0110
685.00,0.0109
684.00,0.0110
683.00,0.0112
682.00,0.0114
681.00,0.0115
680.00,0.0113
679.00,0.0112
678.00,0.0113
677.00,0.0114
676.00,0.0116
675.00,0.0118
674.00,0.0120
673.00,0.0121
672.00,0.0121
671.00,0.0122
670.00,0.0122
669.00,0.0122
668.00,0.0119
667.00,0.0116
666.00,0.0115
665.00,0.0114
664.00,0.0114
663.00,0.0114
662.00,0.0114
661.00,0.0112
660.00,0.0110
659.00,0.0108
658.00,0.0108
657.00,0.0107
656.00,0.0107
655.00,0.0107
654.00,0.0108
653.00,0.0109
652.00,0.0110
651.00,0.0111
650.00,0.0111
649.00,0.0109
648.00,0.0106
647.00,0.0104
646.00,0.0105
645.00,0.0106
644.00,0.0105
643.00,0.0104
642.00,0.0103
641.00,0.0104
640.00,0.0106
639.00,0.0108
638.00,0.0109
637.00,0.0108
636.00,0.0107
635.00,0.0106
634.00,0.0107
633.00,0.0109
632.00,0.0109
631.00,0.0108
630.00,0.0107
629.00,0.0105
628.00,0.0104
627.00,0.0102
626.00,0.0101
625.00,0.0099
624.00,0.0100
623.00,0.0103
622.00,0.0106
621.00,0.0107
620.00,0.0105
619.00,0.0103
618.00,0.0103
617.00,0.0104
616.00,0.0104
615.00,0.0103
614.00,0.0102
613.00,0.0101
612.00,0.0100
611.00,0.0098
610.00,0.0097
609.00,0.0098
608.00,0.0099
607.00,0.0102
606.00,0.0104
605.00,0.0105
604.00,0.0106
603.00,0.0106
602.00,0.0104
601.00,0.0103
600.00,0.0101
599.00,0.0099
598.00,0.0098
597.00,0.0098
596.00,0.0098
595.00,0.0099
594.00,0.0100
593.00,0.0101
592.00,0.0101
591.00,0.0101
590.00,0.0101
589.00,0.0100
588.00,0.0098
587.00,0.0097
586.00,0.0097
585.00,0.0098
584.00,0.0099
583.00,0.0099
582.00,0.0098
581.00,0.0098
580.00,0.0100
579.00,0.0104
578.00,0.0105
577.00,0.0105
576.00,0.0102
575.00,0.0099
574.00,0.0097
573.00,0.0096
572.00,0.0095
571.00,0.0097
570.00,0.0101
569.00,0.0106
568.00,0.0109
567.00,0.0109
566.00,0.0108
565.00,0.0106
564.00,0.0104
563.00,0.0102
562.00,0.0099
561.00,0.0096
560.00,0.0093
559.00,0.0094
558.00,0.0097
557.00,0.0099
556.00,0.0100
555.00,0.0099
554.00,0.0100
553.00,0.0102
552.00,0.0106
551.00,0.0109
550.00,0.0109
549.00,0.0108
548.00,0.0109
547.00,0.0112
546.00,0.0116
545.00,0.0118
544.00,0.0116
543.00,0.0114
542.00,0.0113
541.00,0.0114
540.00,0.0115
539.00,0.0117
538.00,0.0120
537.00,0.0124
536.00,0.0129
535.00,0.0133
534.00,0.0135
533.00,0.0136
532.00,0.0137
531.00,0.0138
530.00,0.0137
529.00,0.0134
528.00,0.0128
527.00,0.0122
526.00,0.0119
525.00,0.0118
524.00,0.0118
523.00,0.0117
522.00,0.0116
521.00,0.0114
520.00,0.0111
519.00,0.0107
518.00,0.0104
517.00,0.0104
516.00,0.0105
515.00,0.0107
514.00,0.0107
513.00,0.0105
512.00,0.0103
511.00,0.0100
510.00,0.0099
509.00,0.0098
508.00,0.0100
507.00,0.0101
506.00,0.0100
505.00,0.0095
504.00,0.0092
503.00,0.0093
502.00,0.0099
501.00,0.0103
500.00,0.0101
499.00,0.0096
498.00,0.0090
497.00,0.0087
496.00,0.0087
495.00,0.0090
494.00,0.0095
493.00,0.0102
492.00,0.0106
491.00,0.0108
490.00,0.0108
489.00,0.0109
488.00,0.0112
487.00,0.0115
486.00,0.0113
485.00,0.0107
484.00,0.0103
483.00,0.0105
482.00,0.0111
481.00,0.0117
480.00,0.0119
479.00,0.0121
478.00,0.0122
477.00,0.0122
476.00,0.0124
475.00,0.0131
474.00,0.0141
473.00,0.0145
472.00,0.0143
471.00,0.0139
470.00,0.0142
469.00,0.0151
468.00,0.0163
467.00,0.0174
466.00,0.0184
465.00,0.0192
464.00,0.0199
463.00,0.0207
462.00,0.0218
461.00,0.0225
460.00,0.0226
459.00,0.0220
458.00,0.0207
457.00,0.0200
456.00,0.0190
455.00,0.0188
454.00,0.0193
453.00,0.0199
452.00,0.0199
451.00,0.0193
450.00,0.0187
