Created as New Dataset,Sample 018 By Administrator Date Thursday, September 04 2025
cm-1,A
4000.00,0.0008
3999.00,0.0008
3998.00,0.0008
3997.00,0.0008
3996.00,0.0008
3995.00,0.0008
3994.00,0.0008
3993.00,0.0008
3992.00,0.0009
3991.00,0.0009
3990.00,0.0009
3989.00,0.0008
3988.00,0.0008
3987.00,0.0008
3986.00,0.0008
3985.00,0.0008
3984.00,0.0007
3983.00,0.0007
3982.00,0.0007
3981.00,0.0007
3980.00,0.0007
3979.00,0.0007
3978.00,0.0007
3977.00,0.0008
3976.00,0.0008
3975.00,0.0008
3974.00,0.0007
3973.00,0.0007
3972.00,0.0006
3971.00,0.0006
3970.00,0.0006
3969.00,0.0006
3968.00,0.0006
3967.00,0.0006
3966.00,0.0006
3965.00,0.0006
3964.00,0.0006
3963.00,0.0006
3962.00,0.0006
3961.00,0.0006
3960.00,0.0006
3959.00,0.0006
3958.00,0.0006
3957.00,0.0006
3956.00,0.0006
3955.00,0.0006
3954.00,0.0006
3953.00,0.0006
3952.00,0.0007
3951.00,0.0007
3950.00,0.0007
3949.00,0.0006
3948.00,0.0006
3947.00,0.0006
3946.00,0.0006
3945.00,0.0006
3944.00,0.0007
3943.00,0.0007
3942.00,0.0007
3941.00,0.0007
3940.00,0.0007
3939.00,0.0006
3938.00,0.0006
3937.00,0.0006
3936.00,0.0006
3935.00,0.0006
3934.00,0.0007
3933.00,0.0007
3932.00,0.0007
3931.00,0.0007
3930.00,0.0007
3929.00,0.0007
3928.00,0.0007
3927.00,0.0007
3926.00,0.0008
3925.00,0.0008
3924.00,0.0008
3923.00,0.0008
3922.00,0.0008
3921.00,0.0008
3920.00,0.0007
3919.00,0.0007
3918.00,0.0007
3917.00,0.0007
3916.00,0.0007
3915.00,0.0007
3914.00,0.0007
3913.00,0.0007
3912.00,0.0007
3911.00,0.0006
3910.00,0.0006
3909.00,0.0006
3908.00,0.0007
3907.00,0.0007
3906.00,0.0007
3905.00,0.0007
3904.00,0.0007
3903.00,0.0007
3902.00,0.0007
3901.00,0.0007
3900.00,0.0007
3899.00,0.0007
3898.00,0.0007
3897.00,0.0007
3896.00,0.0008
3895.00,0.0008
3894.00,0.0008
3893.00,0.0007
3892.00,0.0007
3891.00,0.0007
3890.00,0.0007
3889.00,0.0007
3888.00,0.0007
3887.00,0.0008
3886.00,0.0007
3885.00,0.0007
3884.00,0.0007
3883.00,0.0007
3882.00,0.0007
3881.00,0.0007
3880.00,0.0007
3879.00,0.0007
3878.00,0.0007
3877.00,0.0007
3876.00,0.0007
3875.00,0.0007
3874.00,0.0007
3873.00,0.0007
3872.00,0.0007
3871.00,0.0007
3870.00,0.0008
3869.00,0.0008
3868.00,0.0007
3867.00,0.0007
3866.00,0.0007
3865.00,0.0007
3864.00,0.0006
3863.00,0.0006
3862.00,0.0007
3861.00,0.0007
3860.00,0.0007
3859.00,0.0007
3858.00,0.0007
3857.00,0.0007
3856.00,0.0007
3855.00,0.0006
3854.00,0.0006
3853.00,0.0006
3852.00,0.0006
3851.00,0.0006
3850.00,0.0007
3849.00,0.0007
3848.00,0.0007
3847.00,0.0007
3846.00,0.0007
3845.00,0.0007
3844.00,0.0007
3843.00,0.0007
3842.00,0.0007
3841.00,0.0006
3840.00,0.0006
3839.00,0.0006
3838.00,0.0006
3837.00,0.0006
3836.00,0.0006
3835.00,0.0006
3834.00,0.0006
3833.00,0.0006
3832.00,0.0007
3831.00,0.0007
3830.00,0.0007
3829.00,0.0007
3828.00,0.0007
3827.00,0.0007
3826.00,0.0006
3825.00,0.0006
3824.00,0.0006
3823.00,0.0006
3822.00,0.0006
3821.00,0.0006
3820.00,0.0007
3819.00,0.0007
3818.00,0.0008
3817.00,0.0008
3816.00,0.0007
3815.00,0.0006
3814.00,0.0006
3813.00,0.0006
3812.00,0.0007
3811.00,0.0007
3810.00,0.0007
3809.00,0.0007
3808.00,0.0007
3807.00,0.0007
3806.00,0.0007
3805.00,0.0007
3804.00,0.0007
3803.00,0.0007
3802.00,0.0006
3801.00,0.0005
3800.00,0.0005
3799.00,0.0005
3798.00,0.0005
3797.00,0.0006
3796.00,0.0006
3795.00,0.0006
3794.00,0.0007
3793.00,0.0007
3792.00,0.0007
3791.00,0.0007
3790.00,0.0007
3789.00,0.0007
3788.00,0.0007
3787.00,0.0007
3786.00,0.0006
3785.00,0.0006
3784.00,0.0006
3783.00,0.0006
3782.00,0.0006
3781.00,0.0006
3780.00,0.0006
3779.00,0.0007
3778.00,0.0007
3777.00,0.0007
3776.00,0.0007
3775.00,0.0007
3774.00,0.0006
3773.00,0.0006
3772.00,0.0006
3771.00,0.0006
3770.00,0.0006
3769.00,0.0006
3768.00,0.0007
3767.00,0.0008
3766.00,0.0008
3765.00,0.0008
3764.00,0.0007
3763.00,0.0007
3762.00,0.0007
3761.00,0.0008
3760.00,0.0007
3759.00,0.0007
3758.00,0.0007
3757.00,0.0006
3756.00,0.0006
3755.00,0.0006
3754.00,0.0006
3753.00,0.0007
3752.00,0.0007
3751.00,0.0007
3750.00,0.0007
3749.00,0.0007
3748.00,0.0007
3747.00,0.0007
3746.00,0.0007
3745.00,0.0007
3744.00,0.0007
3743.00,0.0007
3742.00,0.0007
3741.00,0.0008
3740.00,0.0008
3739.00,0.0007
3738.00,0.0007
3737.00,0.0008
3736.00,0.0008
3735.00,0.0008
3734.00,0.0007
3733.00,0.0007
3732.00,0.0007
3731.00,0.0007
3730.00,0.0007
3729.00,0.0008
3728.00,0.0008
3727.00,0.0008
3726.00,0.0007
3725.00,0.0007
3724.00,0.0006
3723.00,0.0006
3722.00,0.0005
3721.00,0.0005
3720.00,0.0005
3719.00,0.0005
3718.00,0.0005
3717.00,0.0005
3716.00,0.0005
3715.00,0.0005
3714.00,0.0005
3713.00,0.0005
3712.00,0.0006
3711.00,0.0006
3710.00,0.0007
3709.00,0.0007
3708.00,0.0007
3707.00,0.0007
3706.00,0.0007
3705.00,0.0007
3704.00,0.0007
3703.00,0.0007
3702.00,0.0006
3701.00,0.0006
3700.00,0.0006
3699.00,0.0006
3698.00,0.0006
3697.00,0.0006
3696.00,0.0006
3695.00,0.0006
3694.00,0.0006
3693.00,0.0006
3692.00,0.0006
3691.00,0.0006
3690.00,0.0006
3689.00,0.0006
3688.00,0.0006
3687.00,0.0006
3686.00,0.0006
3685.00,0.0007
3684.00,0.0007
3683.00,0.0007
3682.00,0.0006
3681.00,0.0006
3680.00,0.0006
3679.00,0.0007
3678.00,0.0008
3677.00,0.0009
3676.00,0.0009
3675.00,0.0009
3674.00,0.0009
3673.00,0.0008
3672.00,0.0008
3671.00,0.0008
3670.00,0.0008
3669.00,0.0007
3668.00,0.0007
3667.00,0.0007
3666.00,0.0007
3665.00,0.0007
3664.00,0.0007
3663.00,0.0007
3662.00,0.0006
3661.00,0.0006
3660.00,0.0006
3659.00,0.0007
3658.00,0.0007
3657.00,0.0007
3656.00,0.0007
3655.00,0.0007
3654.00,0.0007
3653.00,0.0007
3652.00,0.0007
3651.00,0.0008
3650.00,0.0008
3649.00,0.0009
3648.00,0.0009
3647.00,0.0009
3646.00,0.0008
3645.00,0.0008
3644.00,0.0008
3643.00,0.0008
3642.00,0.0008
3641.00,0.0008
3640.00,0.0008
3639.00,0.0008
3638.00,0.0008
3637.00,0.0008
3636.00,0.0008
3635.00,0.0008
3634.00,0.0008
3633.00,0.0009
3632.00,0.0010
3631.00,0.0011
3630.00,0.0011
3629.00,0.0012
3628.00,0.0012
3627.00,0.0012
3626.00,0.0013
3625.00,0.0013
3624.00,0.0012
3623.00,0.0011
3622.00,0.0011
3621.00,0.0010
3620.00,0.0011
3619.00,0.0011
3618.00,0.0011
3617.00,0.0012
3616.00,0.0012
3615.00,0.0012
3614.00,0.0013
3613.00,0.0013
3612.00,0.0013
3611.00,0.0013
3610.00,0.0013
3609.00,0.0014
3608.00,0.0014
3607.00,0.0014
3606.00,0.0015
3605.00,0.0015
3604.00,0.0015
3603.00,0.0015
3602.00,0.0015
3601.00,0.0015
3600.00,0.0015
3599.00,0.0015
3598.00,0.0015
3597.00,0.0015
3596.00,0.0015
3595.00,0.0016
3594.00,0.0016
3593.00,0.0016
3592.00,0.0017
3591.00,0.0017
3590.00,0.0017
3589.00,0.0017
3588.00,0.0018
3587.00,0.0018
3586.00,0.0018
3585.00,0.0018
3584.00,0.0018
3583.00,0.0018
3582.00,0.0018
3581.00,0.0019
3580.00,0.0019
3579.00,0.0019
3578.00,0.0020
3577.00,0.0021
3576.00,0.0021
3575.00,0.0021
3574.00,0.0022
3573.00,0.0022
3572.00,0.0022
3571.00,0.0022
3570.00,0.0023
3569.00,0.0023
3568.00,0.0023
3567.00,0.0024
3566.00,0.0024
3565.00,0.0024
3564.00,0.0024
3563.00,0.0024
3562.00,0.0024
3561.00,0.0024
3560.00,0.0024
3559.00,0.0024
3558.00,0.0025
3557.00,0.0025
3556.00,0.0026
3555.00,0.0026
3554.00,0.0027
3553.00,0.0027
3552.00,0.0028
3551.00,0.0029
3550.00,0.0030
3549.00,0.0031
3548.00,0.0032
3547.00,0.0032
3546.00,0.0032
3545.00,0.0032
3544.00,0.0032
3543.00,0.0032
3542.00,0.0032
3541.00,0.0032
3540.00,0.0032
3539.00,0.0032
3538.00,0.0032
3537.00,0.0032
3536.00,0.0032
3535.00,0.0033
3534.00,0.0033
3533.00,0.0034
3532.00,0.0034
3531.00,0.0035
3530.00,0.0035
3529.00,0.0036
3528.00,0.0036
3527.00,0.0036
3526.00,0.0037
3525.00,0.0037
3524.00,0.0038
3523.00,0.0038
3522.00,0.0039
3521.00,0.0039
3520.00,0.0040
3519.00,0.0040
3518.00,0.0040
3517.00,0.0040
3516.00,0.0040
3515.00,0.0040
3514.00,0.0040
3513.00,0.0041
3512.00,0.0041
3511.00,0.0042
3510.00,0.0043
3509.00,0.0043
3508.00,0.0044
3507.00,0.0044
3506.00,0.0045
3505.00,0.0045
3504.00,0.0046
3503.00,0.0046
3502.00,0.0046
3501.00,0.0047
3500.00,0.0047
3499.00,0.0047
3498.00,0.0048
3497.00,0.0048
3496.00,0.0048
3495.00,0.0049
3494.00,0.0049
3493.00,0.0050
3492.00,0.0050
3491.00,0.0051
3490.00,0.0051
3489.00,0.0051
3488.00,0.0052
3487.00,0.0052
3486.00,0.0052
3485.00,0.0053
3484.00,0.0053
3483.00,0.0053
3482.00,0.0054
3481.00,0.0054
3480.00,0.0054
3479.00,0.0054
3478.00,0.0055
3477.00,0.0055
3476.00,0.0055
3475.00,0.0055
3474.00,0.0056
3473.00,0.0056
3472.00,0.0056
3471.00,0.0057
3470.00,0.0057
3469.00,0.0058
3468.00,0.0058
3467.00,0.0059
3466.00,0.0059
3465.00,0.0059
3464.00,0.0059
3463.00,0.0059
3462.00,0.0060
3461.00,0.0060
3460.00,0.0060
3459.00,0.0061
3458.00,0.0061
3457.00,0.0062
3456.00,0.0062
3455.00,0.0063
3454.00,0.0063
3453.00,0.0064
3452.00,0.0064
3451.00,0.0064
3450.00,0.0065
3449.00,0.0065
3448.00,0.0065
3447.00,0.0065
3446.00,0.0066
3445.00,0.0066
3444.00,0.0066
3443.00,0.0066
3442.00,0.0067
3441.00,0.0067
3440.00,0.0067
3439.00,0.0067
3438.00,0.0067
3437.00,0.0067
3436.00,0.0067
3435.00,0.0067
3434.00,0.0067
3433.00,0.0068
3432.00,0.0068
3431.00,0.0069
3430.00,0.0069
3429.00,0.0069
3428.00,0.0070
3427.00,0.0070
3426.00,0.0071
3425.00,0.0071
3424.00,0.0072
3423.00,0.0072
3422.00,0.0073
3421.00,0.0073
3420.00,0.0074
3419.00,0.0074
3418.00,0.0075
3417.00,0.0075
3416.00,0.0075
3415.00,0.0075
3414.00,0.0075
3413.00,0.0075
3412.00,0.0076
3411.00,0.0077
3410.00,0.0077
3409.00,0.0077
3408.00,0.0077
3407.00,0.0078
3406.00,0.0078
3405.00,0.0078
3404.00,0.0078
3403.00,0.0077
3402.00,0.0077
3401.00,0.0077
3400.00,0.0078
3399.00,0.0078
3398.00,0.0078
3397.00,0.0079
3396.00,0.0079
3395.00,0.0079
3394.00,0.0080
3393.00,0.0080
3392.00,0.0079
3391.00,0.0080
3390.00,0.0080
3389.00,0.0080
3388.00,0.0080
3387.00,0.0080
3386.00,0.0080
3385.00,0.0080
3384.00,0.0080
3383.00,0.0081
3382.00,0.0081
3381.00,0.0081
3380.00,0.0081
3379.00,0.0081
3378.00,0.0082
3377.00,0.0082
3376.00,0.0082
3375.00,0.0082
3374.00,0.0083
3373.00,0.0083
3372.00,0.0083
3371.00,0.0083
3370.00,0.0083
3369.00,0.0083
3368.00,0.0083
3367.00,0.0084
3366.00,0.0084
3365.00,0.0083
3364.00,0.0083
3363.00,0.0083
3362.00,0.0083
3361.00,0.0083
3360.00,0.0083
3359.00,0.0084
3358.00,0.0084
3357.00,0.0084
3356.00,0.0084
3355.00,0.0084
3354.00,0.0085
3353.00,0.0085
3352.00,0.0085
3351.00,0.0085
3350.00,0.0085
3349.00,0.0086
3348.00,0.0086
3347.00,0.0086
3346.00,0.0086
3345.00,0.0085
3344.00,0.0085
3343.00,0.0084
3342.00,0.0084
3341.00,0.0084
3340.00,0.0085
3339.00,0.0085
3338.00,0.0085
3337.00,0.0085
3336.00,0.0085
3335.00,0.0085
3334.00,0.0085
3333.00,0.0084
3332.00,0.0084
3331.00,0.0083
3330.00,0.0083
3329.00,0.0083
3328.00,0.0083
3327.00,0.0083
3326.00,0.0083
3325.00,0.0083
3324.00,0.0083
3323.00,0.0083
3322.00,0.0083
3321.00,0.0083
3320.00,0.0083
3319.00,0.0083
3318.00,0.0083
3317.00,0.0083
3316.00,0.0083
3315.00,0.0083
3314.00,0.0084
3313.00,0.0084
3312.00,0.0084
3311.00,0.0084
3310.00,0.0084
3309.00,0.0084
3308.00,0.0084
3307.00,0.0084
3306.00,0.0084
3305.00,0.0084
3304.00,0.0084
3303.00,0.0084
3302.00,0.0084
3301.00,0.0084
3300.00,0.0084
3299.00,0.0084
3298.00,0.0083
3297.00,0.0082
3296.00,0.0082
3295.00,0.0082
3294.00,0.0082
3293.00,0.0082
3292.00,0.0081
3291.00,0.0081
3290.00,0.0081
3289.00,0.0080
3288.00,0.0080
3287.00,0.0080
3286.00,0.0079
3285.00,0.0079
3284.00,0.0079
3283.00,0.0078
3282.00,0.0078
3281.00,0.0077
3280.00,0.0077
3279.00,0.0076
3278.00,0.0076
3277.00,0.0076
3276.00,0.0076
3275.00,0.0075
3274.00,0.0075
3273.00,0.0075
3272.00,0.0074
3271.00,0.0074
3270.00,0.0074
3269.00,0.0074
3268.00,0.0074
3267.00,0.0074
3266.00,0.0073
3265.00,0.0073
3264.00,0.0073
3263.00,0.0073
3262.00,0.0072
3261.00,0.0072
3260.00,0.0071
3259.00,0.0071
3258.00,0.0071
3257.00,0.0071
3256.00,0.0071
3255.00,0.0070
3254.00,0.0070
3253.00,0.0070
3252.00,0.0069
3251.00,0.0069
3250.00,0.0069
3249.00,0.0069
3248.00,0.0068
3247.00,0.0068
3246.00,0.0068
3245.00,0.0067
3244.00,0.0067
3243.00,0.0067
3242.00,0.0067
3241.00,0.0067
3240.00,0.0067
3239.00,0.0067
3238.00,0.0066
3237.00,0.0066
3236.00,0.0066
3235.00,0.0066
3234.00,0.0066
3233.00,0.0066
3232.00,0.0066
3231.00,0.0066
3230.00,0.0066
3229.00,0.0066
3228.00,0.0066
3227.00,0.0065
3226.00,0.0065
3225.00,0.0065
3224.00,0.0065
3223.00,0.0066
3222.00,0.0066
3221.00,0.0067
3220.00,0.0067
3219.00,0.0067
3218.00,0.0067
3217.00,0.0067
3216.00,0.0067
3215.00,0.0067
3214.00,0.0067
3213.00,0.0067
3212.00,0.0067
3211.00,0.0068
3210.00,0.0068
3209.00,0.0068
3208.00,0.0068
3207.00,0.0068
3206.00,0.0067
3205.00,0.0067
3204.00,0.0067
3203.00,0.0068
3202.00,0.0068
3201.00,0.0069
3200.00,0.0068
3199.00,0.0068
3198.00,0.0068
3197.00,0.0068
3196.00,0.0068
3195.00,0.0067
3194.00,0.0067
3193.00,0.0067
3192.00,0.0067
3191.00,0.0067
3190.00,0.0066
3189.00,0.0067
3188.00,0.0066
3187.00,0.0066
3186.00,0.0066
3185.00,0.0066
3184.00,0.0065
3183.00,0.0065
3182.00,0.0065
3181.00,0.0065
3180.00,0.0065
3179.00,0.0065
3178.00,0.0064
3177.00,0.0064
3176.00,0.0063
3175.00,0.0063
3174.00,0.0062
3173.00,0.0062
3172.00,0.0062
3171.00,0.0062
3170.00,0.0061
3169.00,0.0061
3168.00,0.0061
3167.00,0.0061
3166.00,0.0061
3165.00,0.0061
3164.00,0.0061
3163.00,0.0060
3162.00,0.0059
3161.00,0.0059
3160.00,0.0058
3159.00,0.0058
3158.00,0.0059
3157.00,0.0058
3156.00,0.0058
3155.00,0.0058
3154.00,0.0058
3153.00,0.0058
3152.00,0.0058
3151.00,0.0058
3150.00,0.0058
3149.00,0.0058
3148.00,0.0058
3147.00,0.0058
3146.00,0.0058
3145.00,0.0057
3144.00,0.0057
3143.00,0.0057
3142.00,0.0056
3141.00,0.0056
3140.00,0.0055
3139.00,0.0054
3138.00,0.0054
3137.00,0.0054
3136.00,0.0054
3135.00,0.0054
3134.00,0.0053
3133.00,0.0053
3132.00,0.0053
3131.00,0.0053
3130.00,0.0053
3129.00,0.0053
3128.00,0.0052
3127.00,0.0052
3126.00,0.0051
3125.00,0.0051
3124.00,0.0050
3123.00,0.0050
3122.00,0.0050
3121.00,0.0049
3120.00,0.0049
3119.00,0.0049
3118.00,0.0049
3117.00,0.0049
3116.00,0.0048
3115.00,0.0048
3114.00,0.0048
3113.00,0.0048
3112.00,0.0048
3111.00,0.0047
3110.00,0.0046
3109.00,0.0046
3108.00,0.0046
3107.00,0.0045
3106.00,0.0045
3105.00,0.0045
3104.00,0.0045
3103.00,0.0045
3102.00,0.0045
3101.00,0.0045
3100.00,0.0045
3099.00,0.0045
3098.00,0.0044
3097.00,0.0044
3096.00,0.0044
3095.00,0.0044
3094.00,0.0044
3093.00,0.0044
3092.00,0.0044
3091.00,0.0044
3090.00,0.0044
3089.00,0.0043
3088.00,0.0043
3087.00,0.0043
3086.00,0.0043
3085.00,0.0043
3084.00,0.0042
3083.00,0.0042
3082.00,0.0042
3081.00,0.0042
3080.00,0.0042
3079.00,0.0041
3078.00,0.0041
3077.00,0.0042
3076.00,0.0042
3075.00,0.0042
3074.00,0.0042
3073.00,0.0042
3072.00,0.0042
3071.00,0.0042
3070.00,0.0042
3069.00,0.0042
3068.00,0.0042
3067.00,0.0042
3066.00,0.0043
3065.00,0.0043
3064.00,0.0043
3063.00,0.0044
3062.00,0.0044
3061.00,0.0044
3060.00,0.0044
3059.00,0.0044
3058.00,0.0044
3057.00,0.0044
3056.00,0.0044
3055.00,0.0044
3054.00,0.0044
3053.00,0.0044
3052.00,0.0044
3051.00,0.0044
3050.00,0.0044
3049.00,0.0044
3048.00,0.0044
3047.00,0.0045
3046.00,0.0045
3045.00,0.0045
3044.00,0.0046
3043.00,0.0046
3042.00,0.0046
3041.00,0.0046
3040.00,0.0046
3039.00,0.0047
3038.00,0.0048
3037.00,0.0048
3036.00,0.0049
3035.00,0.0049
3034.00,0.0049
3033.00,0.0049
3032.00,0.0049
3031.00,0.0050
3030.00,0.0050
3029.00,0.0050
3028.00,0.0051
3027.00,0.0051
3026.00,0.0052
3025.00,0.0052
3024.00,0.0053
3023.00,0.0054
3022.00,0.0054
3021.00,0.0055
3020.00,0.0055
3019.00,0.0056
3018.00,0.0057
3017.00,0.0057
3016.00,0.0058
3015.00,0.0058
3014.00,0.0059
3013.00,0.0060
3012.00,0.0061
3011.00,0.0062
3010.00,0.0064
3009.00,0.0065
3008.00,0.0067
3007.00,0.0068
3006.00,0.0069
3005.00,0.0070
3004.00,0.0071
3003.00,0.0073
3002.00,0.0074
3001.00,0.0076
3000.00,0.0079
2999.00,0.0081
2998.00,0.0084
2997.00,0.0087
2996.00,0.0090
2995.00,0.0093
2994.00,0.0096
2993.00,0.0100
2992.00,0.0105
2991.00,0.0110
2990.00,0.0115
2989.00,0.0121
2988.00,0.0128
2987.00,0.0135
2986.00,0.0143
2985.00,0.0152
2984.00,0.0162
2983.00,0.0173
2982.00,0.0186
2981.00,0.0201
2980.00,0.0218
2979.00,0.0238
2978.00,0.0260
2977.00,0.0285
2976.00,0.0313
2975.00,0.0346
2974.00,0.0383
2973.00,0.0425
2972.00,0.0474
2971.00,0.0528
2970.00,0.0587
2969.00,0.0653
2968.00,0.0723
2967.00,0.0797
2966.00,0.0873
2965.00,0.0948
2964.00,0.1020
2963.00,0.1083
2962.00,0.1137
2961.00,0.1180
2960.00,0.1215
2959.00,0.1247
2958.00,0.1283
2957.00,0.1329
2956.00,0.1391
2955.00,0.1471
2954.00,0.1567
2953.00,0.1671
2952.00,0.1770
2951.00,0.1851
2950.00,0.1896
2949.00,0.1894
2948.00,0.1842
2947.00,0.1747
2946.00,0.1623
2945.00,0.1488
2944.00,0.1358
2943.00,0.1244
2942.00,0.1154
2941.00,0.1090
2940.00,0.1050
2939.00,0.1033
2938.00,0.1037
2937.00,0.1059
2936.00,0.1099
2935.00,0.1153
2934.00,0.1221
2933.00,0.1303
2932.00,0.1397
2931.00,0.1501
2930.00,0.1614
2929.00,0.1733
2928.00,0.1853
2927.00,0.1973
2926.00,0.2090
2925.00,0.2206
2924.00,0.2320
2923.00,0.2436
2922.00,0.2555
2921.00,0.2672
2920.00,0.2779
2919.00,0.2863
2918.00,0.2909
2917.00,0.2906
2916.00,0.2851
2915.00,0.2754
2914.00,0.2628
2913.00,0.2491
2912.00,0.2357
2911.00,0.2235
2910.00,0.2127
2909.00,0.2031
2908.00,0.1945
2907.00,0.1864
2906.00,0.1786
2905.00,0.1710
2904.00,0.1635
2903.00,0.1562
2902.00,0.1491
2901.00,0.1424
2900.00,0.1360
2899.00,0.1301
2898.00,0.1246
2897.00,0.1195
2896.00,0.1151
2895.00,0.1114
2894.00,0.1084
2893.00,0.1061
2892.00,0.1044
2891.00,0.1033
2890.00,0.1027
2889.00,0.1026
2888.00,0.1029
2887.00,0.1035
2886.00,0.1043
2885.00,0.1055
2884.00,0.1071
2883.00,0.1093
2882.00,0.1118
2881.00,0.1146
2880.00,0.1174
2879.00,0.1197
2878.00,0.1211
2877.00,0.1216
2876.00,0.1213
2875.00,0.1206
2874.00,0.1200
2873.00,0.1201
2872.00,0.1211
2871.00,0.1229
2870.00,0.1252
2869.00,0.1278
2868.00,0.1297
2867.00,0.1301
2866.00,0.1282
2865.00,0.1237
2864.00,0.1167
2863.00,0.1083
2862.00,0.0995
2861.00,0.0915
2860.00,0.0848
2859.00,0.0797
2858.00,0.0761
2857.00,0.0738
2856.00,0.0725
2855.00,0.0720
2854.00,0.0720
2853.00,0.0725
2852.00,0.0733
2851.00,0.0743
2850.00,0.0755
2849.00,0.0770
2848.00,0.0788
2847.00,0.0812
2846.00,0.0845
2845.00,0.0888
2844.00,0.0940
2843.00,0.0998
2842.00,0.1058
2841.00,0.1113
2840.00,0.1155
2839.00,0.1177
2838.00,0.1172
2837.00,0.1137
2836.00,0.1074
2835.00,0.0987
2834.00,0.0888
2833.00,0.0785
2832.00,0.0689
2831.00,0.0603
2830.00,0.0531
2829.00,0.0472
2828.00,0.0424
2827.00,0.0385
2826.00,0.0353
2825.00,0.0327
2824.00,0.0304
2823.00,0.0286
2822.00,0.0270
2821.00,0.0256
2820.00,0.0244
2819.00,0.0233
2818.00,0.0224
2817.00,0.0216
2816.00,0.0209
2815.00,0.0203
2814.00,0.0197
2813.00,0.0192
2812.00,0.0186
2811.00,0.0181
2810.00,0.0175
2809.00,0.0169
2808.00,0.0163
2807.00,0.0157
2806.00,0.0151
2805.00,0.0144
2804.00,0.0138
2803.00,0.0133
2802.00,0.0128
2801.00,0.0123
2800.00,0.0119
2799.00,0.0116
2798.00,0.0113
2797.00,0.0110
2796.00,0.0108
2795.00,0.0105
2794.00,0.0103
2793.00,0.0100
2792.00,0.0098
2791.00,0.0095
2790.00,0.0092
2789.00,0.0089
2788.00,0.0086
2787.00,0.0083
2786.00,0.0081
2785.00,0.0079
2784.00,0.0077
2783.00,0.0074
2782.00,0.0072
2781.00,0.0070
2780.00,0.0069
2779.00,0.0067
2778.00,0.0066
2777.00,0.0064
2776.00,0.0063
2775.00,0.0062
2774.00,0.0061
2773.00,0.0061
2772.00,0.0060
2771.00,0.0060
2770.00,0.0060
2769.00,0.0059
2768.00,0.0059
2767.00,0.0058
2766.00,0.0058
2765.00,0.0058
2764.00,0.0058
2763.00,0.0057
2762.00,0.0057
2761.00,0.0056
2760.00,0.0055
2759.00,0.0055
2758.00,0.0055
2757.00,0.0055
2756.00,0.0055
2755.00,0.0055
2754.00,0.0055
2753.00,0.0054
2752.00,0.0054
2751.00,0.0054
2750.00,0.0054
2749.00,0.0054
2748.00,0.0054
2747.00,0.0054
2746.00,0.0054
2745.00,0.0055
2744.00,0.0056
2743.00,0.0057
2742.00,0.0058
2741.00,0.0059
2740.00,0.0060
2739.00,0.0061
2738.00,0.0062
2737.00,0.0063
2736.00,0.0065
2735.00,0.0066
2734.00,0.0067
2733.00,0.0069
2732.00,0.0071
2731.00,0.0073
2730.00,0.0075
2729.00,0.0077
2728.00,0.0080
2727.00,0.0083
2726.00,0.0087
2725.00,0.0089
2724.00,0.0091
2723.00,0.0091
2722.00,0.0090
2721.00,0.0088
2720.00,0.0085
2719.00,0.0082
2718.00,0.0078
2717.00,0.0075
2716.00,0.0072
2715.00,0.0069
2714.00,0.0067
2713.00,0.0064
2712.00,0.0062
2711.00,0.0060
2710.00,0.0058
2709.00,0.0056
2708.00,0.0054
2707.00,0.0053
2706.00,0.0052
2705.00,0.0051
2704.00,0.0050
2703.00,0.0049
2702.00,0.0048
2701.00,0.0047
2700.00,0.0046
2699.00,0.0046
2698.00,0.0046
2697.00,0.0045
2696.00,0.0045
2695.00,0.0045
2694.00,0.0045
2693.00,0.0046
2692.00,0.0046
2691.00,0.0046
2690.00,0.0045
2689.00,0.0045
2688.00,0.0045
2687.00,0.0045
2686.00,0.0045
2685.00,0.0045
2684.00,0.0046
2683.00,0.0046
2682.00,0.0046
2681.00,0.0046
2680.00,0.0046
2679.00,0.0046
2678.00,0.0047
2677.00,0.0047
2676.00,0.0047
2675.00,0.0046
2674.00,0.0046
2673.00,0.0045
2672.00,0.0045
2671.00,0.0045
2670.00,0.0045
2669.00,0.0045
2668.00,0.0045
2667.00,0.0046
2666.00,0.0046
2665.00,0.0046
2664.00,0.0047
2663.00,0.0047
2662.00,0.0048
2661.00,0.0048
2660.00,0.0048
2659.00,0.0048
2658.00,0.0048
2657.00,0.0048
2656.00,0.0047
2655.00,0.0047
2654.00,0.0046
2653.00,0.0045
2652.00,0.0045
2651.00,0.0044
2650.00,0.0043
2649.00,0.0043
2648.00,0.0042
2647.00,0.0042
2646.00,0.0041
2645.00,0.0041
2644.00,0.0041
2643.00,0.0040
2642.00,0.0040
2641.00,0.0040
2640.00,0.0039
2639.00,0.0039
2638.00,0.0039
2637.00,0.0039
2636.00,0.0039
2635.00,0.0038
2634.00,0.0038
2633.00,0.0039
2632.00,0.0039
2631.00,0.0039
2630.00,0.0038
2629.00,0.0038
2628.00,0.0038
2627.00,0.0038
2626.00,0.0039
2625.00,0.0039
2624.00,0.0039
2623.00,0.0039
2622.00,0.0039
2621.00,0.0039
2620.00,0.0039
2619.00,0.0040
2618.00,0.0040
2617.00,0.0041
2616.00,0.0041
2615.00,0.0040
2614.00,0.0040
2613.00,0.0040
2612.00,0.0039
2611.00,0.0038
2610.00,0.0037
2609.00,0.0036
2608.00,0.0036
2607.00,0.0036
2606.00,0.0036
2605.00,0.0035
2604.00,0.0034
2603.00,0.0033
2602.00,0.0032
2601.00,0.0032
2600.00,0.0031
2599.00,0.0031
2598.00,0.0031
2597.00,0.0031
2596.00,0.0032
2595.00,0.0033
2594.00,0.0033
2593.00,0.0033
2592.00,0.0034
2591.00,0.0034
2590.00,0.0035
2589.00,0.0036
2588.00,0.0037
2587.00,0.0038
2586.00,0.0039
2585.00,0.0040
2584.00,0.0040
2583.00,0.0040
2582.00,0.0040
2581.00,0.0040
2580.00,0.0039
2579.00,0.0038
2578.00,0.0037
2577.00,0.0036
2576.00,0.0034
2575.00,0.0033
2574.00,0.0032
2573.00,0.0032
2572.00,0.0031
2571.00,0.0030
2570.00,0.0028
2569.00,0.0028
2568.00,0.0027
2567.00,0.0027
2566.00,0.0027
2565.00,0.0026
2564.00,0.0026
2563.00,0.0026
2562.00,0.0025
2561.00,0.0024
2560.00,0.0023
2559.00,0.0023
2558.00,0.0023
2557.00,0.0022
2556.00,0.0022
2555.00,0.0021
2554.00,0.0021
2553.00,0.0021
2552.00,0.0021
2551.00,0.0021
2550.00,0.0021
2549.00,0.0021
2548.00,0.0020
2547.00,0.0020
2546.00,0.0019
2545.00,0.0019
2544.00,0.0019
2543.00,0.0019
2542.00,0.0019
2541.00,0.0018
2540.00,0.0018
2539.00,0.0018
2538.00,0.0018
2537.00,0.0019
2536.00,0.0019
2535.00,0.0019
2534.00,0.0019
2533.00,0.0018
2532.00,0.0017
2531.00,0.0016
2530.00,0.0016
2529.00,0.0016
2528.00,0.0016
2527.00,0.0016
2526.00,0.0016
2525.00,0.0015
2524.00,0.0015
2523.00,0.0015
2522.00,0.0015
2521.00,0.0015
2520.00,0.0014
2519.00,0.0013
2518.00,0.0013
2517.00,0.0013
2516.00,0.0013
2515.00,0.0014
2514.00,0.0014
2513.00,0.0014
2512.00,0.0013
2511.00,0.0012
2510.00,0.0012
2509.00,0.0012
2508.00,0.0011
2507.00,0.0011
2506.00,0.0010
2505.00,0.0010
2504.00,0.0009
2503.00,0.0010
2502.00,0.0010
2501.00,0.0011
2500.00,0.0012
2499.00,0.0012
2498.00,0.0012
2497.00,0.0012
2496.00,0.0012
2495.00,0.0012
2494.00,0.0012
2493.00,0.0012
2492.00,0.0011
2491.00,0.0011
2490.00,0.0011
2489.00,0.0011
2488.00,0.0011
2487.00,0.0011
2486.00,0.0011
2485.00,0.0011
2484.00,0.0012
2483.00,0.0013
2482.00,0.0013
2481.00,0.0013
2480.00,0.0012
2479.00,0.0011
2478.00,0.0010
2477.00,0.0010
2476.00,0.0010
2475.00,0.0010
2474.00,0.0009
2473.00,0.0009
2472.00,0.0009
2471.00,0.0010
2470.00,0.0010
2469.00,0.0011
2468.00,0.0011
2467.00,0.0011
2466.00,0.0011
2465.00,0.0011
2464.00,0.0011
2463.00,0.0011
2462.00,0.0011
2461.00,0.0010
2460.00,0.0010
2459.00,0.0010
2458.00,0.0010
2457.00,0.0011
2456.00,0.0011
2455.00,0.0011
2454.00,0.0011
2453.00,0.0011
2452.00,0.0011
2451.00,0.0011
2450.00,0.0012
2449.00,0.0012
2448.00,0.0012
2447.00,0.0012
2446.00,0.0012
2445.00,0.0012
2444.00,0.0012
2443.00,0.0012
2442.00,0.0012
2441.00,0.0011
2440.00,0.0011
2439.00,0.0011
2438.00,0.0011
2437.00,0.0011
2436.00,0.0011
2435.00,0.0011
2434.00,0.0012
2433.00,0.0012
2432.00,0.0013
2431.00,0.0013
2430.00,0.0013
2429.00,0.0013
2428.00,0.0013
2427.00,0.0013
2426.00,0.0012
2425.00,0.0012
2424.00,0.0011
2423.00,0.0011
2422.00,0.0011
2421.00,0.0011
2420.00,0.0012
2419.00,0.0012
2418.00,0.0012
2417.00,0.0011
2416.00,0.0011
2415.00,0.0011
2414.00,0.0011
2413.00,0.0011
2412.00,0.0011
2411.00,0.0011
2410.00,0.0010
2409.00,0.0010
2408.00,0.0009
2407.00,0.0008
2406.00,0.0008
2405.00,0.0008
2404.00,0.0009
2403.00,0.0010
2402.00,0.0010
2401.00,0.0010
2400.00,0.0009
2399.00,0.0009
2398.00,0.0009
2397.00,0.0009
2396.00,0.0009
2395.00,0.0009
2394.00,0.0009
2393.00,0.0008
2392.00,0.0008
2391.00,0.0008
2390.00,0.0008
2389.00,0.0008
2388.00,0.0008
2387.00,0.0008
2386.00,0.0008
2385.00,0.0007
2384.00,0.0006
2383.00,0.0006
2382.00,0.0006
2381.00,0.0006
2380.00,0.0007
2379.00,0.0007
2378.00,0.0007
2377.00,0.0006
2376.00,0.0006
2375.00,0.0005
2374.00,0.0005
2373.00,0.0005
2372.00,0.0005
2371.00,0.0005
2370.00,0.0005
2369.00,0.0005
2368.00,0.0004
2367.00,0.0004
2366.00,0.0004
2365.00,0.0004
2364.00,0.0005
2363.00,0.0005
2362.00,0.0005
2361.00,0.0005
2360.00,0.0004
2359.00,0.0004
2358.00,0.0004
2357.00,0.0003
2356.00,0.0002
2355.00,0.0001
2354.00,0.0000
2353.00,-0.0001
2352.00,-0.0002
2351.00,-0.0002
2350.00,-0.0001
2349.00,0.0001
2348.00,0.0005
2347.00,0.0009
2346.00,0.0011
2345.00,0.0012
2344.00,0.0011
2343.00,0.0009
2342.00,0.0007
2341.00,0.0006
2340.00,0.0005
2339.00,0.0005
2338.00,0.0005
2337.00,0.0005
2336.00,0.0006
2335.00,0.0006
2334.00,0.0005
2333.00,0.0005
2332.00,0.0005
2331.00,0.0004
2330.00,0.0003
2329.00,0.0002
2328.00,0.0003
2327.00,0.0006
2326.00,0.0010
2325.00,0.0014
2324.00,0.0016
2323.00,0.0015
2322.00,0.0012
2321.00,0.0009
2320.00,0.0007
2319.00,0.0006
2318.00,0.0006
2317.00,0.0007
2316.00,0.0007
2315.00,0.0007
2314.00,0.0007
2313.00,0.0006
2312.00,0.0005
2311.00,0.0004
2310.00,0.0004
2309.00,0.0004
2308.00,0.0004
2307.00,0.0004
2306.00,0.0004
2305.00,0.0004
2304.00,0.0005
2303.00,0.0006
2302.00,0.0007
2301.00,0.0008
2300.00,0.0008
2299.00,0.0008
2298.00,0.0009
2297.00,0.0010
2296.00,0.0012
2295.00,0.0013
2294.00,0.0013
2293.00,0.0014
2292.00,0.0015
2291.00,0.0015
2290.00,0.0016
2289.00,0.0016
2288.00,0.0017
2287.00,0.0018
2286.00,0.0018
2285.00,0.0018
2284.00,0.0017
2283.00,0.0016
2282.00,0.0015
2281.00,0.0015
2280.00,0.0015
2279.00,0.0015
2278.00,0.0014
2277.00,0.0014
2276.00,0.0014
2275.00,0.0013
2274.00,0.0013
2273.00,0.0014
2272.00,0.0014
2271.00,0.0013
2270.00,0.0012
2269.00,0.0011
2268.00,0.0010
2267.00,0.0009
2266.00,0.0009
2265.00,0.0009
2264.00,0.0009
2263.00,0.0010
2262.00,0.0010
2261.00,0.0010
2260.00,0.0010
2259.00,0.0011
2258.00,0.0011
2257.00,0.0012
2256.00,0.0012
2255.00,0.0012
2254.00,0.0011
2253.00,0.0010
2252.00,0.0010
2251.00,0.0009
2250.00,0.0008
2249.00,0.0008
2248.00,0.0007
2247.00,0.0007
2246.00,0.0008
2245.00,0.0008
2244.00,0.0008
2243.00,0.0008
2242.00,0.0008
2241.00,0.0008
2240.00,0.0008
2239.00,0.0009
2238.00,0.0010
2237.00,0.0011
2236.00,0.0012
2235.00,0.0011
2234.00,0.0010
2233.00,0.0009
2232.00,0.0008
2231.00,0.0007
2230.00,0.0007
2229.00,0.0006
2228.00,0.0006
2227.00,0.0007
2226.00,0.0007
2225.00,0.0008
2224.00,0.0009
2223.00,0.0009
2222.00,0.0008
2221.00,0.0007
2220.00,0.0006
2219.00,0.0005
2218.00,0.0004
2217.00,0.0004
2216.00,0.0004
2215.00,0.0004
2214.00,0.0005
2213.00,0.0007
2212.00,0.0008
2211.00,0.0008
2210.00,0.0006
2209.00,0.0004
2208.00,0.0002
2207.00,0.0001
2206.00,0.0002
2205.00,0.0003
2204.00,0.0004
2203.00,0.0005
2202.00,0.0006
2201.00,0.0008
2200.00,0.0008
2199.00,0.0008
2198.00,0.0008
2197.00,0.0007
2196.00,0.0006
2195.00,0.0006
2194.00,0.0007
2193.00,0.0010
2192.00,0.0012
2191.00,0.0013
2190.00,0.0014
2189.00,0.0015
2188.00,0.0016
2187.00,0.0016
2186.00,0.0016
2185.00,0.0015
2184.00,0.0014
2183.00,0.0011
2182.00,0.0008
2181.00,0.0005
2180.00,0.0004
2179.00,0.0005
2178.00,0.0008
2177.00,0.0008
2176.00,0.0008
2175.00,0.0007
2174.00,0.0006
2173.00,0.0006
2172.00,0.0005
2171.00,0.0003
2170.00,0.0004
2169.00,0.0007
2168.00,0.0010
2167.00,0.0011
2166.00,0.0011
2165.00,0.0011
2164.00,0.0013
2163.00,0.0014
2162.00,0.0014
2161.00,0.0009
2160.00,-0.0000
2159.00,-0.0013
2158.00,-0.0023
2157.00,-0.0027
2156.00,-0.0026
2155.00,-0.0022
2154.00,-0.0018
2153.00,-0.0015
2152.00,-0.0014
2151.00,-0.0012
2150.00,-0.0011
2149.00,-0.0010
2148.00,-0.0010
2147.00,-0.0012
2146.00,-0.0015
2145.00,-0.0017
2144.00,-0.0017
2143.00,-0.0015
2142.00,-0.0013
2141.00,-0.0011
2140.00,-0.0010
2139.00,-0.0009
2138.00,-0.0008
2137.00,-0.0008
2136.00,-0.0009
2135.00,-0.0012
2134.00,-0.0014
2133.00,-0.0015
2132.00,-0.0013
2131.00,-0.0011
2130.00,-0.0008
2129.00,-0.0005
2128.00,-0.0005
2127.00,-0.0005
2126.00,-0.0006
2125.00,-0.0006
2124.00,-0.0005
2123.00,-0.0004
2122.00,-0.0003
2121.00,-0.0002
2120.00,-0.0002
2119.00,-0.0001
2118.00,0.0000
2117.00,0.0002
2116.00,0.0003
2115.00,0.0004
2114.00,0.0005
2113.00,0.0006
2112.00,0.0006
2111.00,0.0005
2110.00,0.0003
2109.00,0.0003
2108.00,0.0003
2107.00,0.0002
2106.00,0.0002
2105.00,0.0002
2104.00,0.0002
2103.00,0.0002
2102.00,0.0002
2101.00,0.0002
2100.00,0.0002
2099.00,0.0002
2098.00,0.0002
2097.00,0.0000
2096.00,-0.0001
2095.00,-0.0002
2094.00,-0.0002
2093.00,-0.0000
2092.00,0.0001
2091.00,0.0002
2090.00,0.0002
2089.00,0.0003
2088.00,0.0004
2087.00,0.0004
2086.00,0.0004
2085.00,0.0003
2084.00,0.0003
2083.00,0.0003
2082.00,0.0003
2081.00,0.0004
2080.00,0.0005
2079.00,0.0005
2078.00,0.0005
2077.00,0.0004
2076.00,0.0002
2075.00,0.0001
2074.00,0.0001
2073.00,0.0001
2072.00,0.0001
2071.00,-0.0000
2070.00,-0.0002
2069.00,-0.0003
2068.00,-0.0003
2067.00,-0.0002
2066.00,-0.0000
2065.00,0.0001
2064.00,0.0000
2063.00,-0.0001
2062.00,-0.0003
2061.00,-0.0002
2060.00,-0.0001
2059.00,0.0000
2058.00,0.0001
2057.00,0.0000
2056.00,-0.0001
2055.00,-0.0001
2054.00,0.0000
2053.00,0.0005
2052.00,0.0010
2051.00,0.0014
2050.00,0.0015
2049.00,0.0013
2048.00,0.0010
2047.00,0.0006
2046.00,0.0003
2045.00,0.0001
2044.00,-0.0000
2043.00,-0.0000
2042.00,0.0001
2041.00,0.0003
2040.00,0.0004
2039.00,0.0003
2038.00,0.0002
2037.00,0.0001
2036.00,0.0002
2035.00,0.0002
2034.00,0.0001
2033.00,-0.0002
2032.00,-0.0006
2031.00,-0.0012
2030.00,-0.0018
2029.00,-0.0021
2028.00,-0.0020
2027.00,-0.0016
2026.00,-0.0013
2025.00,-0.0011
2024.00,-0.0012
2023.00,-0.0012
2022.00,-0.0013
2021.00,-0.0014
2020.00,-0.0015
2019.00,-0.0016
2018.00,-0.0015
2017.00,-0.0013
2016.00,-0.0011
2015.00,-0.0011
2014.00,-0.0012
2013.00,-0.0012
2012.00,-0.0011
2011.00,-0.0009
2010.00,-0.0009
2009.00,-0.0010
2008.00,-0.0014
2007.00,-0.0019
2006.00,-0.0023
2005.00,-0.0022
2004.00,-0.0018
2003.00,-0.0013
2002.00,-0.0010
2001.00,-0.0009
2000.00,-0.0010
1999.00,-0.0012
1998.00,-0.0013
1997.00,-0.0014
1996.00,-0.0015
1995.00,-0.0016
1994.00,-0.0016
1993.00,-0.0015
1992.00,-0.0012
1991.00,-0.0008
1990.00,-0.0004
1989.00,-0.0001
1988.00,0.0001
1987.00,0.0001
1986.00,0.0002
1985.00,0.0003
1984.00,0.0004
1983.00,0.0005
1982.00,0.0007
1981.00,0.0008
1980.00,0.0006
1979.00,0.0001
1978.00,-0.0005
1977.00,-0.0008
1976.00,-0.0007
1975.00,-0.0005
1974.00,-0.0005
1973.00,-0.0008
1972.00,-0.0012
1971.00,-0.0016
1970.00,-0.0017
1969.00,-0.0016
1968.00,-0.0014
1967.00,-0.0013
1966.00,-0.0013
1965.00,-0.0015
1964.00,-0.0016
1963.00,-0.0018
1962.00,-0.0019
1961.00,-0.0019
1960.00,-0.0019
1959.00,-0.0019
1958.00,-0.0020
1957.00,-0.0020
1956.00,-0.0020
1955.00,-0.0019
1954.00,-0.0016
1953.00,-0.0013
1952.00,-0.0011
1951.00,-0.0010
1950.00,-0.0011
1949.00,-0.0012
1948.00,-0.0013
1947.00,-0.0014
1946.00,-0.0016
1945.00,-0.0017
1944.00,-0.0017
1943.00,-0.0015
1942.00,-0.0013
1941.00,-0.0010
1940.00,-0.0008
1939.00,-0.0008
1938.00,-0.0008
1937.00,-0.0008
1936.00,-0.0009
1935.00,-0.0009
1934.00,-0.0009
1933.00,-0.0007
1932.00,-0.0006
1931.00,-0.0006
1930.00,-0.0006
1929.00,-0.0007
1928.00,-0.0007
1927.00,-0.0007
1926.00,-0.0005
1925.00,-0.0003
1924.00,-0.0002
1923.00,-0.0001
1922.00,-0.0002
1921.00,-0.0002
1920.00,-0.0003
1919.00,-0.0004
1918.00,-0.0004
1917.00,-0.0003
1916.00,-0.0002
1915.00,-0.0002
1914.00,-0.0002
1913.00,-0.0002
1912.00,-0.0001
1911.00,-0.0000
1910.00,-0.0000
1909.00,-0.0001
1908.00,-0.0000
1907.00,-0.0001
1906.00,-0.0001
1905.00,-0.0001
1904.00,-0.0002
1903.00,-0.0001
1902.00,-0.0000
1901.00,0.0001
1900.00,0.0002
1899.00,0.0002
1898.00,0.0001
1897.00,0.0000
1896.00,-0.0000
1895.00,-0.0001
1894.00,-0.0002
1893.00,-0.0002
1892.00,-0.0003
1891.00,-0.0003
1890.00,-0.0003
1889.00,-0.0002
1888.00,-0.0001
1887.00,0.0001
1886.00,0.0001
1885.00,0.0000
1884.00,-0.0001
1883.00,-0.0002
1882.00,-0.0003
1881.00,-0.0002
1880.00,-0.0001
1879.00,-0.0001
1878.00,-0.0001
1877.00,-0.0001
1876.00,-0.0001
1875.00,-0.0000
1874.00,0.0001
1873.00,0.0002
1872.00,0.0002
1871.00,0.0003
1870.00,0.0003
1869.00,0.0002
1868.00,0.0001
1867.00,0.0001
1866.00,0.0000
1865.00,-0.0000
1864.00,0.0000
1863.00,0.0000
1862.00,0.0001
1861.00,0.0001
1860.00,0.0002
1859.00,0.0002
1858.00,0.0002
1857.00,0.0002
1856.00,0.0002
1855.00,0.0001
1854.00,0.0001
1853.00,0.0002
1852.00,0.0002
1851.00,0.0002
1850.00,0.0002
1849.00,0.0002
1848.00,0.0002
1847.00,0.0002
1846.00,0.0001
1845.00,0.0001
1844.00,0.0002
1843.00,0.0002
1842.00,0.0002
1841.00,0.0003
1840.00,0.0003
1839.00,0.0002
1838.00,0.0002
1837.00,0.0002
1836.00,0.0003
1835.00,0.0003
1834.00,0.0004
1833.00,0.0004
1832.00,0.0004
1831.00,0.0004
1830.00,0.0004
1829.00,0.0004
1828.00,0.0004
1827.00,0.0004
1826.00,0.0004
1825.00,0.0004
1824.00,0.0004
1823.00,0.0004
1822.00,0.0003
1821.00,0.0003
1820.00,0.0002
1819.00,0.0002
1818.00,0.0001
1817.00,0.0001
1816.00,0.0001
1815.00,0.0001
1814.00,0.0002
1813.00,0.0002
1812.00,0.0002
1811.00,0.0003
1810.00,0.0003
1809.00,0.0004
1808.00,0.0005
1807.00,0.0005
1806.00,0.0006
1805.00,0.0006
1804.00,0.0007
1803.00,0.0007
1802.00,0.0007
1801.00,0.0006
1800.00,0.0006
1799.00,0.0006
1798.00,0.0006
1797.00,0.0006
1796.00,0.0007
1795.00,0.0007
1794.00,0.0007
1793.00,0.0007
1792.00,0.0007
1791.00,0.0007
1790.00,0.0007
1789.00,0.0007
1788.00,0.0008
1787.00,0.0008
1786.00,0.0009
1785.00,0.0009
1784.00,0.0010
1783.00,0.0010
1782.00,0.0010
1781.00,0.0010
1780.00,0.0010
1779.00,0.0010
1778.00,0.0010
1777.00,0.0010
1776.00,0.0010
1775.00,0.0011
1774.00,0.0011
1773.00,0.0011
1772.00,0.0012
1771.00,0.0013
1770.00,0.0013
1769.00,0.0014
1768.00,0.0015
1767.00,0.0015
1766.00,0.0015
1765.00,0.0015
1764.00,0.0015
1763.00,0.0015
1762.00,0.0016
1761.00,0.0016
1760.00,0.0017
1759.00,0.0017
1758.00,0.0018
1757.00,0.0018
1756.00,0.0019
1755.00,0.0019
1754.00,0.0020
1753.00,0.0021
1752.00,0.0023
1751.00,0.0026
1750.00,0.0027
1749.00,0.0028
1748.00,0.0029
1747.00,0.0029
1746.00,0.0030
1745.00,0.0030
1744.00,0.0031
1743.00,0.0031
1742.00,0.0032
1741.00,0.0033
1740.00,0.0035
1739.00,0.0035
1738.00,0.0036
1737.00,0.0036
1736.00,0.0037
1735.00,0.0037
1734.00,0.0036
1733.00,0.0036
1732.00,0.0036
1731.00,0.0035
1730.00,0.0035
1729.00,0.0034
1728.00,0.0035
1727.00,0.0035
1726.00,0.0035
1725.00,0.0036
1724.00,0.0037
1723.00,0.0037
1722.00,0.0037
1721.00,0.0037
1720.00,0.0037
1719.00,0.0036
1718.00,0.0035
1717.00,0.0034
1716.00,0.0033
1715.00,0.0033
1714.00,0.0032
1713.00,0.0032
1712.00,0.0032
1711.00,0.0032
1710.00,0.0032
1709.00,0.0032
1708.00,0.0032
1707.00,0.0032
1706.00,0.0032
1705.00,0.0033
1704.00,0.0033
1703.00,0.0034
1702.00,0.0035
1701.00,0.0035
1700.00,0.0036
1699.00,0.0036
1698.00,0.0037
1697.00,0.0037
1696.00,0.0037
1695.00,0.0038
1694.00,0.0038
1693.00,0.0039
1692.00,0.0040
1691.00,0.0042
1690.00,0.0043
1689.00,0.0043
1688.00,0.0044
1687.00,0.0045
1686.00,0.0046
1685.00,0.0048
1684.00,0.0050
1683.00,0.0052
1682.00,0.0053
1681.00,0.0054
1680.00,0.0055
1679.00,0.0057
1678.00,0.0059
1677.00,0.0061
1676.00,0.0063
1675.00,0.0064
1674.00,0.0065
1673.00,0.0066
1672.00,0.0067
1671.00,0.0068
1670.00,0.0068
1669.00,0.0069
1668.00,0.0071
1667.00,0.0072
1666.00,0.0072
1665.00,0.0073
1664.00,0.0073
1663.00,0.0074
1662.00,0.0074
1661.00,0.0075
1660.00,0.0076
1659.00,0.0076
1658.00,0.0077
1657.00,0.0078
1656.00,0.0079
1655.00,0.0080
1654.00,0.0081
1653.00,0.0082
1652.00,0.0084
1651.00,0.0085
1650.00,0.0086
1649.00,0.0087
1648.00,0.0089
1647.00,0.0091
1646.00,0.0092
1645.00,0.0093
1644.00,0.0093
1643.00,0.0094
1642.00,0.0095
1641.00,0.0096
1640.00,0.0097
1639.00,0.0098
1638.00,0.0099
1637.00,0.0099
1636.00,0.0100
1635.00,0.0099
1634.00,0.0099
1633.00,0.0098
1632.00,0.0097
1631.00,0.0097
1630.00,0.0097
1629.00,0.0097
1628.00,0.0097
1627.00,0.0096
1626.00,0.0096
1625.00,0.0095
1624.00,0.0095
1623.00,0.0095
1622.00,0.0094
1621.00,0.0094
1620.00,0.0093
1619.00,0.0093
1618.00,0.0092
1617.00,0.0092
1616.00,0.0092
1615.00,0.0092
1614.00,0.0092
1613.00,0.0092
1612.00,0.0093
1611.00,0.0093
1610.00,0.0094
1609.00,0.0094
1608.00,0.0094
1607.00,0.0094
1606.00,0.0094
1605.00,0.0093
1604.00,0.0093
1603.00,0.0092
1602.00,0.0092
1601.00,0.0091
1600.00,0.0091
1599.00,0.0091
1598.00,0.0090
1597.00,0.0090
1596.00,0.0090
1595.00,0.0089
1594.00,0.0089
1593.00,0.0088
1592.00,0.0088
1591.00,0.0087
1590.00,0.0086
1589.00,0.0085
1588.00,0.0085
1587.00,0.0085
1586.00,0.0085
1585.00,0.0086
1584.00,0.0087
1583.00,0.0088
1582.00,0.0088
1581.00,0.0089
1580.00,0.0091
1579.00,0.0092
1578.00,0.0092
1577.00,0.0093
1576.00,0.0094
1575.00,0.0093
1574.00,0.0093
1573.00,0.0093
1572.00,0.0093
1571.00,0.0092
1570.00,0.0092
1569.00,0.0092
1568.00,0.0093
1567.00,0.0093
1566.00,0.0094
1565.00,0.0095
1564.00,0.0096
1563.00,0.0096
1562.00,0.0097
1561.00,0.0098
1560.00,0.0099
1559.00,0.0099
1558.00,0.0100
1557.00,0.0100
1556.00,0.0101
1555.00,0.0101
1554.00,0.0102
1553.00,0.0103
1552.00,0.0104
1551.00,0.0105
1550.00,0.0106
1549.00,0.0107
1548.00,0.0108
1547.00,0.0108
1546.00,0.0108
1545.00,0.0108
1544.00,0.0108
1543.00,0.0108
1542.00,0.0108
1541.00,0.0107
1540.00,0.0105
1539.00,0.0101
1538.00,0.0098
1537.00,0.0096
1536.00,0.0094
1535.00,0.0092
1534.00,0.0089
1533.00,0.0086
1532.00,0.0084
1531.00,0.0082
1530.00,0.0081
1529.00,0.0080
1528.00,0.0079
1527.00,0.0077
1526.00,0.0075
1525.00,0.0074
1524.00,0.0074
1523.00,0.0073
1522.00,0.0072
1521.00,0.0071
1520.00,0.0071
1519.00,0.0071
1518.00,0.0070
1517.00,0.0070
1516.00,0.0071
1515.00,0.0071
1514.00,0.0070
1513.00,0.0071
1512.00,0.0071
1511.00,0.0072
1510.00,0.0072
1509.00,0.0073
1508.00,0.0074
1507.00,0.0075
1506.00,0.0075
1505.00,0.0076
1504.00,0.0077
1503.00,0.0079
1502.00,0.0081
1501.00,0.0083
1500.00,0.0087
1499.00,0.0090
1498.00,0.0093
1497.00,0.0098
1496.00,0.0103
1495.00,0.0108
1494.00,0.0112
1493.00,0.0116
1492.00,0.0120
1491.00,0.0124
1490.00,0.0128
1489.00,0.0134
1488.00,0.0140
1487.00,0.0145
1486.00,0.0149
1485.00,0.0155
1484.00,0.0161
1483.00,0.0168
1482.00,0.0177
1481.00,0.0188
1480.00,0.0200
1479.00,0.0213
1478.00,0.0228
1477.00,0.0247
1476.00,0.0271
1475.00,0.0298
1474.00,0.0335
1473.00,0.0388
1472.00,0.0452
1471.00,0.0515
1470.00,0.0577
1469.00,0.0642
1468.00,0.0713
1467.00,0.0791
1466.00,0.0881
1465.00,0.0977
1464.00,0.1061
1463.00,0.1121
1462.00,0.1159
1461.00,0.1185
1460.00,0.1202
1459.00,0.1213
1458.00,0.1218
1457.00,0.1219
1456.00,0.1213
1455.00,0.1201
1454.00,0.1187
1453.00,0.1169
1452.00,0.1141
1451.00,0.1103
1450.00,0.1051
1449.00,0.0979
1448.00,0.0888
1447.00,0.0793
1446.00,0.0707
1445.00,0.0634
1444.00,0.0572
1443.00,0.0522
1442.00,0.0485
1441.00,0.0459
1440.00,0.0445
1439.00,0.0441
1438.00,0.0447
1437.00,0.0453
1436.00,0.0448
1435.00,0.0425
1434.00,0.0388
1433.00,0.0343
1432.00,0.0296
1431.00,0.0255
1430.00,0.0223
1429.00,0.0200
1428.00,0.0184
1427.00,0.0174
1426.00,0.0169
1425.00,0.0163
1424.00,0.0158
1423.00,0.0155
1422.00,0.0153
1421.00,0.0151
1420.00,0.0148
1419.00,0.0146
1418.00,0.0143
1417.00,0.0140
1416.00,0.0137
1415.00,0.0135
1414.00,0.0134
1413.00,0.0133
1412.00,0.0132
1411.00,0.0131
1410.00,0.0131
1409.00,0.0129
1408.00,0.0128
1407.00,0.0128
1406.00,0.0129
1405.00,0.0128
1404.00,0.0128
1403.00,0.0128
1402.00,0.0130
1401.00,0.0130
1400.00,0.0131
1399.00,0.0133
1398.00,0.0135
1397.00,0.0137
1396.00,0.0138
1395.00,0.0141
1394.00,0.0146
1393.00,0.0150
1392.00,0.0155
1391.00,0.0163
1390.00,0.0173
1389.00,0.0187
1388.00,0.0207
1387.00,0.0236
1386.00,0.0277
1385.00,0.0330
1384.00,0.0404
1383.00,0.0510
1382.00,0.0654
1381.00,0.0845
1380.00,0.1091
1379.00,0.1386
1378.00,0.1690
1377.00,0.1935
1376.00,0.2048
1375.00,0.1976
1374.00,0.1742
1373.00,0.1441
1372.00,0.1158
1371.00,0.0922
1370.00,0.0735
1369.00,0.0594
1368.00,0.0497
1367.00,0.0439
1366.00,0.0408
1365.00,0.0397
1364.00,0.0401
1363.00,0.0418
1362.00,0.0442
1361.00,0.0469
1360.00,0.0490
1359.00,0.0497
1358.00,0.0486
1357.00,0.0458
1356.00,0.0418
1355.00,0.0373
1354.00,0.0329
1353.00,0.0292
1352.00,0.0262
1351.00,0.0238
1350.00,0.0218
1349.00,0.0203
1348.00,0.0190
1347.00,0.0180
1346.00,0.0171
1345.00,0.0164
1344.00,0.0157
1343.00,0.0151
1342.00,0.0146
1341.00,0.0142
1340.00,0.0138
1339.00,0.0135
1338.00,0.0133
1337.00,0.0132
1336.00,0.0133
1335.00,0.0134
1334.00,0.0137
1333.00,0.0142
1332.00,0.0147
1331.00,0.0151
1330.00,0.0152
1329.00,0.0151
1328.00,0.0147
1327.00,0.0141
1326.00,0.0135
1325.00,0.0129
1324.00,0.0124
1323.00,0.0119
1322.00,0.0115
1321.00,0.0112
1320.00,0.0109
1319.00,0.0108
1318.00,0.0106
1317.00,0.0104
1316.00,0.0102
1315.00,0.0101
1314.00,0.0100
1313.00,0.0099
1312.00,0.0100
1311.00,0.0102
1310.00,0.0105
1309.00,0.0109
1308.00,0.0117
1307.00,0.0125
1306.00,0.0134
1305.00,0.0140
1304.00,0.0142
1303.00,0.0141
1302.00,0.0139
1301.00,0.0138
1300.00,0.0138
1299.00,0.0139
1298.00,0.0141
1297.00,0.0142
1296.00,0.0142
1295.00,0.0140
1294.00,0.0136
1293.00,0.0131
1292.00,0.0125
1291.00,0.0120
1290.00,0.0116
1289.00,0.0112
1288.00,0.0109
1287.00,0.0106
1286.00,0.0104
1285.00,0.0101
1284.00,0.0100
1283.00,0.0098
1282.00,0.0097
1281.00,0.0096
1280.00,0.0095
1279.00,0.0094
1278.00,0.0093
1277.00,0.0092
1276.00,0.0091
1275.00,0.0090
1274.00,0.0090
1273.00,0.0091
1272.00,0.0092
1271.00,0.0094
1270.00,0.0097
1269.00,0.0099
1268.00,0.0102
1267.00,0.0105
1266.00,0.0108
1265.00,0.0112
1264.00,0.0115
1263.00,0.0118
1262.00,0.0121
1261.00,0.0124
1260.00,0.0127
1259.00,0.0130
1258.00,0.0135
1257.00,0.0138
1256.00,0.0139
1255.00,0.0137
1254.00,0.0131
1253.00,0.0125
1252.00,0.0118
1251.00,0.0113
1250.00,0.0109
1249.00,0.0106
1248.00,0.0103
1247.00,0.0101
1246.00,0.0099
1245.00,0.0098
1244.00,0.0097
1243.00,0.0096
1242.00,0.0095
1241.00,0.0094
1240.00,0.0093
1239.00,0.0093
1238.00,0.0092
1237.00,0.0092
1236.00,0.0092
1235.00,0.0093
1234.00,0.0094
1233.00,0.0095
1232.00,0.0096
1231.00,0.0097
1230.00,0.0098
1229.00,0.0099
1228.00,0.0101
1227.00,0.0103
1226.00,0.0105
1225.00,0.0108
1224.00,0.0112
1223.00,0.0116
1222.00,0.0120
1221.00,0.0124
1220.00,0.0126
1219.00,0.0126
1218.00,0.0125
1217.00,0.0122
1216.00,0.0119
1215.00,0.0115
1214.00,0.0111
1213.00,0.0108
1212.00,0.0105
1211.00,0.0102
1210.00,0.0100
1209.00,0.0098
1208.00,0.0097
1207.00,0.0097
1206.00,0.0096
1205.00,0.0096
1204.00,0.0095
1203.00,0.0094
1202.00,0.0095
1201.00,0.0095
1200.00,0.0096
1199.00,0.0096
1198.00,0.0097
1197.00,0.0097
1196.00,0.0098
1195.00,0.0098
1194.00,0.0098
1193.00,0.0097
1192.00,0.0097
1191.00,0.0096
1190.00,0.0096
1189.00,0.0096
1188.00,0.0096
1187.00,0.0095
1186.00,0.0096
1185.00,0.0096
1184.00,0.0096
1183.00,0.0097
1182.00,0.0098
1181.00,0.0100
1180.00,0.0102
1179.00,0.0105
1178.00,0.0110
1177.00,0.0117
1176.00,0.0125
1175.00,0.0137
1174.00,0.0152
1173.00,0.0171
1172.00,0.0194
1171.00,0.0218
1170.00,0.0242
1169.00,0.0261
1168.00,0.0272
1167.00,0.0274
1166.00,0.0269
1165.00,0.0259
1164.00,0.0249
1163.00,0.0238
1162.00,0.0229
1161.00,0.0221
1160.00,0.0216
1159.00,0.0212
1158.00,0.0211
1157.00,0.0211
1156.00,0.0211
1155.00,0.0212
1154.00,0.0212
1153.00,0.0212
1152.00,0.0209
1151.00,0.0204
1150.00,0.0196
1149.00,0.0187
1148.00,0.0178
1147.00,0.0169
1146.00,0.0161
1145.00,0.0154
1144.00,0.0148
1143.00,0.0143
1142.00,0.0138
1141.00,0.0133
1140.00,0.0129
1139.00,0.0125
1138.00,0.0122
1137.00,0.0120
1136.00,0.0118
1135.00,0.0117
1134.00,0.0116
1133.00,0.0115
1132.00,0.0116
1131.00,0.0116
1130.00,0.0117
1129.00,0.0118
1128.00,0.0119
1127.00,0.0121
1126.00,0.0123
1125.00,0.0124
1124.00,0.0125
1123.00,0.0126
1122.00,0.0128
1121.00,0.0130
1120.00,0.0133
1119.00,0.0136
1118.00,0.0138
1117.00,0.0140
1116.00,0.0141
1115.00,0.0142
1114.00,0.0143
1113.00,0.0143
1112.00,0.0144
1111.00,0.0146
1110.00,0.0148
1109.00,0.0152
1108.00,0.0157
1107.00,0.0164
1106.00,0.0171
1105.00,0.0178
1104.00,0.0182
1103.00,0.0185
1102.00,0.0184
1101.00,0.0180
1100.00,0.0174
1099.00,0.0166
1098.00,0.0159
1097.00,0.0153
1096.00,0.0149
1095.00,0.0145
1094.00,0.0142
1093.00,0.0140
1092.00,0.0137
1091.00,0.0134
1090.00,0.0131
1089.00,0.0129
1088.00,0.0127
1087.00,0.0126
1086.00,0.0125
1085.00,0.0125
1084.00,0.0124
1083.00,0.0124
1082.00,0.0123
1081.00,0.0121
1080.00,0.0119
1079.00,0.0117
1078.00,0.0116
1077.00,0.0115
1076.00,0.0115
1075.00,0.0115
1074.00,0.0115
1073.00,0.0114
1072.00,0.0113
1071.00,0.0112
1070.00,0.0111
1069.00,0.0110
1068.00,0.0110
1067.00,0.0110
1066.00,0.0111
1065.00,0.0111
1064.00,0.0111
1063.00,0.0110
1062.00,0.0111
1061.00,0.0112
1060.00,0.0113
1059.00,0.0114
1058.00,0.0115
1057.00,0.0115
1056.00,0.0116
1055.00,0.0118
1054.00,0.0121
1053.00,0.0123
1052.00,0.0126
1051.00,0.0129
1050.00,0.0132
1049.00,0.0136
1048.00,0.0140
1047.00,0.0144
1046.00,0.0149
1045.00,0.0152
1044.00,0.0153
1043.00,0.0153
1042.00,0.0152
1041.00,0.0151
1040.00,0.0150
1039.00,0.0150
1038.00,0.0149
1037.00,0.0149
1036.00,0.0150
1035.00,0.0149
1034.00,0.0148
1033.00,0.0146
1032.00,0.0144
1031.00,0.0143
1030.00,0.0143
1029.00,0.0144
1028.00,0.0145
1027.00,0.0147
1026.00,0.0148
1025.00,0.0150
1024.00,0.0152
1023.00,0.0154
1022.00,0.0156
1021.00,0.0157
1020.00,0.0158
1019.00,0.0159
1018.00,0.0159
1017.00,0.0159
1016.00,0.0158
1015.00,0.0156
1014.00,0.0155
1013.00,0.0154
1012.00,0.0154
1011.00,0.0154
1010.00,0.0154
1009.00,0.0153
1008.00,0.0154
1007.00,0.0156
1006.00,0.0160
1005.00,0.0167
1004.00,0.0177
1003.00,0.0192
1002.00,0.0212
1001.00,0.0238
1000.00,0.0265
999.00,0.0287
998.00,0.0297
997.00,0.0291
996.00,0.0269
995.00,0.0239
994.00,0.0208
993.00,0.0182
992.00,0.0162
991.00,0.0147
990.00,0.0137
989.00,0.0130
988.00,0.0125
987.00,0.0123
986.00,0.0122
985.00,0.0123
984.00,0.0125
983.00,0.0130
982.00,0.0139
981.00,0.0153
980.00,0.0171
979.00,0.0196
978.00,0.0226
977.00,0.0260
976.00,0.0294
975.00,0.0326
974.00,0.0347
973.00,0.0351
972.00,0.0336
971.00,0.0305
970.00,0.0266
969.00,0.0227
968.00,0.0193
967.00,0.0168
966.00,0.0149
965.00,0.0135
964.00,0.0125
963.00,0.0118
962.00,0.0113
961.00,0.0109
960.00,0.0106
959.00,0.0103
958.00,0.0101
957.00,0.0098
956.00,0.0096
955.00,0.0094
954.00,0.0092
953.00,0.0091
952.00,0.0090
951.00,0.0089
950.00,0.0088
949.00,0.0088
948.00,0.0088
947.00,0.0089
946.00,0.0091
945.00,0.0094
944.00,0.0098
943.00,0.0103
942.00,0.0107
941.00,0.0109
940.00,0.0109
939.00,0.0106
938.00,0.0101
937.00,0.0095
936.00,0.0090
935.00,0.0086
934.00,0.0083
933.00,0.0081
932.00,0.0078
931.00,0.0077
930.00,0.0075
929.00,0.0075
928.00,0.0074
927.00,0.0074
926.00,0.0074
925.00,0.0074
924.00,0.0075
923.00,0.0075
922.00,0.0075
921.00,0.0075
920.00,0.0075
919.00,0.0074
918.00,0.0075
917.00,0.0075
916.00,0.0076
915.00,0.0076
914.00,0.0077
913.00,0.0077
912.00,0.0078
911.00,0.0079
910.00,0.0081
909.00,0.0083
908.00,0.0086
907.00,0.0091
906.00,0.0099
905.00,0.0111
904.00,0.0127
903.00,0.0147
902.00,0.0169
901.00,0.0190
900.00,0.0205
899.00,0.0208
898.00,0.0200
897.00,0.0181
896.00,0.0159
895.00,0.0137
894.00,0.0121
893.00,0.0109
892.00,0.0101
891.00,0.0095
890.00,0.0092
889.00,0.0089
888.00,0.0087
887.00,0.0086
886.00,0.0085
885.00,0.0085
884.00,0.0085
883.00,0.0084
882.00,0.0083
881.00,0.0083
880.00,0.0083
879.00,0.0085
878.00,0.0087
877.00,0.0089
876.00,0.0089
875.00,0.0088
874.00,0.0087
873.00,0.0085
872.00,0.0085
871.00,0.0085
870.00,0.0085
869.00,0.0085
868.00,0.0086
867.00,0.0086
866.00,0.0086
865.00,0.0086
864.00,0.0087
863.00,0.0088
862.00,0.0089
861.00,0.0091
860.00,0.0092
859.00,0.0094
858.00,0.0095
857.00,0.0095
856.00,0.0095
855.00,0.0096
854.00,0.0097
853.00,0.0098
852.00,0.0099
851.00,0.0102
850.00,0.0106
849.00,0.0111
848.00,0.0117
847.00,0.0126
846.00,0.0140
845.00,0.0162
844.00,0.0194
843.00,0.0230
842.00,0.0260
841.00,0.0270
840.00,0.0255
839.00,0.0223
838.00,0.0187
837.00,0.0158
836.00,0.0138
835.00,0.0125
834.00,0.0118
833.00,0.0114
832.00,0.0111
831.00,0.0109
830.00,0.0107
829.00,0.0105
828.00,0.0104
827.00,0.0103
826.00,0.0104
825.00,0.0106
824.00,0.0108
823.00,0.0110
822.00,0.0110
821.00,0.0111
820.00,0.0114
819.00,0.0119
818.00,0.0125
817.00,0.0132
816.00,0.0142
815.00,0.0155
814.00,0.0173
813.00,0.0194
812.00,0.0218
811.00,0.0240
810.00,0.0258
809.00,0.0266
808.00,0.0261
807.00,0.0247
806.00,0.0225
805.00,0.0203
804.00,0.0183
803.00,0.0167
802.00,0.0155
801.00,0.0147
800.00,0.0140
799.00,0.0134
798.00,0.0129
797.00,0.0124
796.00,0.0120
795.00,0.0115
794.00,0.0110
793.00,0.0106
792.00,0.0102
791.00,0.0100
790.00,0.0097
789.00,0.0094
788.00,0.0091
787.00,0.0088
786.00,0.0086
785.00,0.0085
784.00,0.0083
783.00,0.0082
782.00,0.0081
781.00,0.0081
780.00,0.0080
779.00,0.0080
778.00,0.0081
777.00,0.0081
776.00,0.0080
775.00,0.0079
774.00,0.0078
773.00,0.0077
772.00,0.0077
771.00,0.0078
770.00,0.0078
769.00,0.0079
768.00,0.0080
767.00,0.0080
766.00,0.0080
765.00,0.0080
764.00,0.0080
763.00,0.0081
762.00,0.0080
761.00,0.0079
760.00,0.0078
759.00,0.0077
758.00,0.0078
757.00,0.0080
756.00,0.0083
755.00,0.0086
754.00,0.0088
753.00,0.0089
752.00,0.0088
751.00,0.0088
750.00,0.0089
749.00,0.0091
748.00,0.0093
747.00,0.0095
746.00,0.0097
745.00,0.0098
744.00,0.0100
743.00,0.0102
742.00,0.0105
741.00,0.0108
740.00,0.0112
739.00,0.0116
738.00,0.0120
737.00,0.0125
736.00,0.0129
735.00,0.0133
734.00,0.0138
733.00,0.0143
732.00,0.0148
731.00,0.0153
730.00,0.0156
729.00,0.0159
728.00,0.0161
727.00,0.0164
726.00,0.0166
725.00,0.0169
724.00,0.0173
723.00,0.0176
722.00,0.0179
721.00,0.0180
720.00,0.0177
719.00,0.0170
718.00,0.0161
717.00,0.0151
716.00,0.0143
715.00,0.0138
714.00,0.0134
713.00,0.0132
712.00,0.0130
711.00,0.0127
710.00,0.0125
709.00,0.0123
708.00,0.0122
707.00,0.0122
706.00,0.0123
705.00,0.0125
704.00,0.0126
703.00,0.0125
702.00,0.0123
701.00,0.0120
700.00,0.0117
699.00,0.0115
698.00,0.0114
697.00,0.0114
696.00,0.0115
695.00,0.0117
694.00,0.0118
693.00,0.0118
692.00,0.0116
691.00,0.0115
690.00,0.0114
689.00,0.0115
688.00,0.0116
687.00,0.0116
686.00,0.0117
685.00,0.0118
684.00,0.0118
683.00,0.0118
682.00,0.0119
681.00,0.0118
680.00,0.0118
679.00,0.0118
678.00,0.0119
677.00,0.0122
676.00,0.0124
675.00,0.0125
674.00,0.0126
673.00,0.0125
672.00,0.0125
671.00,0.0125
670.00,0.0124
669.00,0.0122
668.00,0.0118
667.00,0.0115
666.00,0.0117
665.00,0.0119
664.00,0.0121
663.00,0.0121
662.00,0.0119
661.00,0.0116
660.00,0.0114
659.00,0.0112
658.00,0.0112
657.00,0.0112
656.00,0.0112
655.00,0.0111
654.00,0.0110
653.00,0.0110
652.00,0.0108
651.00,0.0106
650.00,0.0104
649.00,0.0103
648.00,0.0103
647.00,0.0105
646.00,0.0106
645.00,0.0107
644.00,0.0106
643.00,0.0105
642.00,0.0104
641.00,0.0103
640.00,0.0105
639.00,0.0106
638.00,0.0107
637.00,0.0107
636.00,0.0106
635.00,0.0105
634.00,0.0106
633.00,0.0107
632.00,0.0108
631.00,0.0108
630.00,0.0108
629.00,0.0108
628.00,0.0108
627.00,0.0108
626.00,0.0107
625.00,0.0107
624.00,0.0109
623.00,0.0111
622.00,0.0110
621.00,0.0107
620.00,0.0103
619.00,0.0102
618.00,0.0105
617.00,0.0109
616.00,0.0110
615.00,0.0107
614.00,0.0103
613.00,0.0100
612.00,0.0101
611.00,0.0102
610.00,0.0104
609.00,0.0104
608.00,0.0102
607.00,0.0100
606.00,0.0101
605.00,0.0104
604.00,0.0105
603.00,0.0105
602.00,0.0102
601.00,0.0099
600.00,0.0097
599.00,0.0097
598.00,0.0098
597.00,0.0099
596.00,0.0097
595.00,0.0095
594.00,0.0094
593.00,0.0095
592.00,0.0095
591.00,0.0096
590.00,0.0097
589.00,0.0099
588.00,0.0101
587.00,0.0102
586.00,0.0102
585.00,0.0102
584.00,0.0102
583.00,0.0102
582.00,0.0101
581.00,0.0101
580.00,0.0101
579.00,0.0100
578.00,0.0100
577.00,0.0102
576.00,0.0104
575.00,0.0106
574.00,0.0107
573.00,0.0107
572.00,0.0104
571.00,0.0101
570.00,0.0099
569.00,0.0099
568.00,0.0100
567.00,0.0101
566.00,0.0102
565.00,0.0104
564.00,0.0105
563.00,0.0106
562.00,0.0106
561.00,0.0104
560.00,0.0101
559.00,0.0097
558.00,0.0093
557.00,0.0092
556.00,0.0094
555.00,0.0099
554.00,0.0103
553.00,0.0107
552.00,0.0110
551.00,0.0111
550.00,0.0110
549.00,0.0105
548.00,0.0100
547.00,0.0097
546.00,0.0098
545.00,0.0102
544.00,0.0106
543.00,0.0107
542.00,0.0108
541.00,0.0111
540.00,0.0117
539.00,0.0124
538.00,0.0127
537.00,0.0127
536.00,0.0127
535.00,0.0127
534.00,0.0128
533.00,0.0128
532.00,0.0127
531.00,0.0125
530.00,0.0125
529.00,0.0126
528.00,0.0127
527.00,0.0126
526.00,0.0124
525.00,0.0123
524.00,0.0122
523.00,0.0118
522.00,0.0111
521.00,0.0103
520.00,0.0098
519.00,0.0100
518.00,0.0106
517.00,0.0112
516.00,0.0113
515.00,0.0107
514.00,0.0097
513.00,0.0090
512.00,0.0088
511.00,0.0092
510.00,0.0096
509.00,0.0100
508.00,0.0104
507.00,0.0107
506.00,0.0105
505.00,0.0101
504.00,0.0098
503.00,0.0100
502.00,0.0106
501.00,0.0110
500.00,0.0111
499.00,0.0110
498.00,0.0106
497.00,0.0100
496.00,0.0092
495.00,0.0087
494.00,0.0084
493.00,0.0086
492.00,0.0091
491.00,0.0099
490.00,0.0106
489.00,0.0108
488.00,0.0107
487.00,0.0107
486.00,0.0110
485.00,0.0114
484.00,0.0117
483.00,0.0116
482.00,0.0113
481.00,0.0109
480.00,0.0108
479.00,0.0111
478.00,0.0118
477.00,0.0127
476.00,0.0136
475.00,0.0141
474.00,0.0143
473.00,0.0142
472.00,0.0143
471.00,0.0152
470.00,0.0162
469.00,0.0170
468.00,0.0175
467.00,0.0180
466.00,0.0188
465.00,0.0199
464.00,0.0209
463.00,0.0218
462.00,0.0225
461.00,0.0227
460.00,0.0223
459.00,0.0217
458.00,0.0215
457.00,0.0220
456.00,0.0229
455.00,0.0234
454.00,0.0234
453.00,0.0229
452.00,0.0218
451.00,0.0200
450.00,0.0181
