Created as New Dataset,Sample 215 By Administrator Date Wednesday, September 03 2025
cm-1,A
4000.00,0.0009
3999.00,0.0009
3998.00,0.0009
3997.00,0.0009
3996.00,0.0009
3995.00,0.0009
3994.00,0.0009
3993.00,0.0009
3992.00,0.0009
3991.00,0.0008
3990.00,0.0008
3989.00,0.0008
3988.00,0.0008
3987.00,0.0008
3986.00,0.0009
3985.00,0.0009
3984.00,0.0009
3983.00,0.0009
3982.00,0.0008
3981.00,0.0008
3980.00,0.0008
3979.00,0.0008
3978.00,0.0008
3977.00,0.0008
3976.00,0.0008
3975.00,0.0007
3974.00,0.0007
3973.00,0.0007
3972.00,0.0007
3971.00,0.0007
3970.00,0.0008
3969.00,0.0008
3968.00,0.0008
3967.00,0.0007
3966.00,0.0007
3965.00,0.0007
3964.00,0.0007
3963.00,0.0007
3962.00,0.0007
3961.00,0.0007
3960.00,0.0006
3959.00,0.0006
3958.00,0.0006
3957.00,0.0006
3956.00,0.0006
3955.00,0.0007
3954.00,0.0007
3953.00,0.0007
3952.00,0.0007
3951.00,0.0007
3950.00,0.0007
3949.00,0.0007
3948.00,0.0007
3947.00,0.0007
3946.00,0.0006
3945.00,0.0006
3944.00,0.0006
3943.00,0.0006
3942.00,0.0006
3941.00,0.0006
3940.00,0.0006
3939.00,0.0007
3938.00,0.0007
3937.00,0.0008
3936.00,0.0008
3935.00,0.0009
3934.00,0.0009
3933.00,0.0009
3932.00,0.0009
3931.00,0.0009
3930.00,0.0009
3929.00,0.0009
3928.00,0.0009
3927.00,0.0008
3926.00,0.0008
3925.00,0.0008
3924.00,0.0008
3923.00,0.0007
3922.00,0.0007
3921.00,0.0007
3920.00,0.0007
3919.00,0.0007
3918.00,0.0007
3917.00,0.0007
3916.00,0.0007
3915.00,0.0007
3914.00,0.0008
3913.00,0.0008
3912.00,0.0008
3911.00,0.0007
3910.00,0.0007
3909.00,0.0007
3908.00,0.0007
3907.00,0.0007
3906.00,0.0007
3905.00,0.0007
3904.00,0.0008
3903.00,0.0008
3902.00,0.0008
3901.00,0.0008
3900.00,0.0008
3899.00,0.0008
3898.00,0.0008
3897.00,0.0008
3896.00,0.0008
3895.00,0.0008
3894.00,0.0008
3893.00,0.0008
3892.00,0.0007
3891.00,0.0007
3890.00,0.0007
3889.00,0.0006
3888.00,0.0006
3887.00,0.0006
3886.00,0.0006
3885.00,0.0007
3884.00,0.0007
3883.00,0.0007
3882.00,0.0007
3881.00,0.0007
3880.00,0.0007
3879.00,0.0007
3878.00,0.0007
3877.00,0.0007
3876.00,0.0007
3875.00,0.0007
3874.00,0.0007
3873.00,0.0007
3872.00,0.0007
3871.00,0.0007
3870.00,0.0007
3869.00,0.0007
3868.00,0.0007
3867.00,0.0007
3866.00,0.0007
3865.00,0.0007
3864.00,0.0007
3863.00,0.0007
3862.00,0.0008
3861.00,0.0008
3860.00,0.0008
3859.00,0.0007
3858.00,0.0007
3857.00,0.0007
3856.00,0.0007
3855.00,0.0007
3854.00,0.0007
3853.00,0.0007
3852.00,0.0007
3851.00,0.0007
3850.00,0.0007
3849.00,0.0007
3848.00,0.0007
3847.00,0.0007
3846.00,0.0007
3845.00,0.0007
3844.00,0.0007
3843.00,0.0008
3842.00,0.0008
3841.00,0.0008
3840.00,0.0007
3839.00,0.0007
3838.00,0.0007
3837.00,0.0007
3836.00,0.0007
3835.00,0.0007
3834.00,0.0007
3833.00,0.0007
3832.00,0.0007
3831.00,0.0007
3830.00,0.0007
3829.00,0.0007
3828.00,0.0007
3827.00,0.0007
3826.00,0.0008
3825.00,0.0008
3824.00,0.0008
3823.00,0.0008
3822.00,0.0008
3821.00,0.0007
3820.00,0.0007
3819.00,0.0007
3818.00,0.0007
3817.00,0.0007
3816.00,0.0007
3815.00,0.0007
3814.00,0.0007
3813.00,0.0007
3812.00,0.0007
3811.00,0.0007
3810.00,0.0007
3809.00,0.0007
3808.00,0.0007
3807.00,0.0007
3806.00,0.0007
3805.00,0.0007
3804.00,0.0007
3803.00,0.0006
3802.00,0.0006
3801.00,0.0006
3800.00,0.0006
3799.00,0.0006
3798.00,0.0006
3797.00,0.0006
3796.00,0.0006
3795.00,0.0006
3794.00,0.0006
3793.00,0.0006
3792.00,0.0006
3791.00,0.0006
3790.00,0.0006
3789.00,0.0006
3788.00,0.0007
3787.00,0.0007
3786.00,0.0007
3785.00,0.0007
3784.00,0.0007
3783.00,0.0007
3782.00,0.0007
3781.00,0.0007
3780.00,0.0007
3779.00,0.0006
3778.00,0.0006
3777.00,0.0006
3776.00,0.0007
3775.00,0.0007
3774.00,0.0007
3773.00,0.0007
3772.00,0.0007
3771.00,0.0007
3770.00,0.0007
3769.00,0.0007
3768.00,0.0007
3767.00,0.0007
3766.00,0.0007
3765.00,0.0008
3764.00,0.0008
3763.00,0.0008
3762.00,0.0008
3761.00,0.0008
3760.00,0.0008
3759.00,0.0008
3758.00,0.0008
3757.00,0.0008
3756.00,0.0008
3755.00,0.0008
3754.00,0.0008
3753.00,0.0008
3752.00,0.0009
3751.00,0.0009
3750.00,0.0010
3749.00,0.0009
3748.00,0.0009
3747.00,0.0008
3746.00,0.0007
3745.00,0.0007
3744.00,0.0007
3743.00,0.0007
3742.00,0.0007
3741.00,0.0007
3740.00,0.0008
3739.00,0.0008
3738.00,0.0008
3737.00,0.0008
3736.00,0.0008
3735.00,0.0008
3734.00,0.0007
3733.00,0.0007
3732.00,0.0007
3731.00,0.0007
3730.00,0.0006
3729.00,0.0006
3728.00,0.0006
3727.00,0.0006
3726.00,0.0006
3725.00,0.0006
3724.00,0.0006
3723.00,0.0006
3722.00,0.0006
3721.00,0.0006
3720.00,0.0006
3719.00,0.0006
3718.00,0.0006
3717.00,0.0006
3716.00,0.0006
3715.00,0.0006
3714.00,0.0006
3713.00,0.0006
3712.00,0.0005
3711.00,0.0005
3710.00,0.0005
3709.00,0.0005
3708.00,0.0005
3707.00,0.0005
3706.00,0.0005
3705.00,0.0005
3704.00,0.0005
3703.00,0.0005
3702.00,0.0005
3701.00,0.0006
3700.00,0.0006
3699.00,0.0007
3698.00,0.0007
3697.00,0.0007
3696.00,0.0007
3695.00,0.0007
3694.00,0.0007
3693.00,0.0007
3692.00,0.0007
3691.00,0.0007
3690.00,0.0007
3689.00,0.0007
3688.00,0.0007
3687.00,0.0007
3686.00,0.0006
3685.00,0.0006
3684.00,0.0006
3683.00,0.0006
3682.00,0.0006
3681.00,0.0006
3680.00,0.0006
3679.00,0.0007
3678.00,0.0008
3677.00,0.0009
3676.00,0.0009
3675.00,0.0009
3674.00,0.0008
3673.00,0.0008
3672.00,0.0007
3671.00,0.0007
3670.00,0.0006
3669.00,0.0006
3668.00,0.0006
3667.00,0.0005
3666.00,0.0005
3665.00,0.0005
3664.00,0.0005
3663.00,0.0006
3662.00,0.0006
3661.00,0.0006
3660.00,0.0006
3659.00,0.0007
3658.00,0.0007
3657.00,0.0007
3656.00,0.0006
3655.00,0.0006
3654.00,0.0006
3653.00,0.0006
3652.00,0.0007
3651.00,0.0008
3650.00,0.0009
3649.00,0.0008
3648.00,0.0008
3647.00,0.0007
3646.00,0.0007
3645.00,0.0007
3644.00,0.0006
3643.00,0.0006
3642.00,0.0007
3641.00,0.0007
3640.00,0.0007
3639.00,0.0007
3638.00,0.0007
3637.00,0.0007
3636.00,0.0007
3635.00,0.0007
3634.00,0.0007
3633.00,0.0007
3632.00,0.0007
3631.00,0.0007
3630.00,0.0007
3629.00,0.0007
3628.00,0.0007
3627.00,0.0007
3626.00,0.0008
3625.00,0.0008
3624.00,0.0008
3623.00,0.0009
3622.00,0.0009
3621.00,0.0009
3620.00,0.0009
3619.00,0.0009
3618.00,0.0009
3617.00,0.0009
3616.00,0.0009
3615.00,0.0009
3614.00,0.0009
3613.00,0.0010
3612.00,0.0011
3611.00,0.0012
3610.00,0.0012
3609.00,0.0011
3608.00,0.0011
3607.00,0.0010
3606.00,0.0010
3605.00,0.0010
3604.00,0.0010
3603.00,0.0011
3602.00,0.0011
3601.00,0.0011
3600.00,0.0011
3599.00,0.0012
3598.00,0.0012
3597.00,0.0012
3596.00,0.0012
3595.00,0.0012
3594.00,0.0012
3593.00,0.0012
3592.00,0.0013
3591.00,0.0013
3590.00,0.0013
3589.00,0.0013
3588.00,0.0013
3587.00,0.0013
3586.00,0.0014
3585.00,0.0014
3584.00,0.0014
3583.00,0.0013
3582.00,0.0013
3581.00,0.0013
3580.00,0.0013
3579.00,0.0014
3578.00,0.0014
3577.00,0.0015
3576.00,0.0015
3575.00,0.0015
3574.00,0.0016
3573.00,0.0016
3572.00,0.0016
3571.00,0.0016
3570.00,0.0016
3569.00,0.0016
3568.00,0.0017
3567.00,0.0017
3566.00,0.0017
3565.00,0.0017
3564.00,0.0017
3563.00,0.0017
3562.00,0.0017
3561.00,0.0017
3560.00,0.0017
3559.00,0.0018
3558.00,0.0018
3557.00,0.0018
3556.00,0.0019
3555.00,0.0019
3554.00,0.0019
3553.00,0.0019
3552.00,0.0020
3551.00,0.0020
3550.00,0.0021
3549.00,0.0021
3548.00,0.0021
3547.00,0.0022
3546.00,0.0022
3545.00,0.0022
3544.00,0.0022
3543.00,0.0022
3542.00,0.0022
3541.00,0.0022
3540.00,0.0022
3539.00,0.0023
3538.00,0.0023
3537.00,0.0024
3536.00,0.0024
3535.00,0.0024
3534.00,0.0024
3533.00,0.0024
3532.00,0.0024
3531.00,0.0024
3530.00,0.0025
3529.00,0.0025
3528.00,0.0026
3527.00,0.0026
3526.00,0.0026
3525.00,0.0026
3524.00,0.0026
3523.00,0.0026
3522.00,0.0026
3521.00,0.0027
3520.00,0.0027
3519.00,0.0027
3518.00,0.0027
3517.00,0.0027
3516.00,0.0027
3515.00,0.0027
3514.00,0.0028
3513.00,0.0029
3512.00,0.0030
3511.00,0.0030
3510.00,0.0030
3509.00,0.0030
3508.00,0.0030
3507.00,0.0030
3506.00,0.0031
3505.00,0.0031
3504.00,0.0031
3503.00,0.0031
3502.00,0.0032
3501.00,0.0032
3500.00,0.0032
3499.00,0.0032
3498.00,0.0032
3497.00,0.0032
3496.00,0.0032
3495.00,0.0032
3494.00,0.0033
3493.00,0.0033
3492.00,0.0033
3491.00,0.0033
3490.00,0.0034
3489.00,0.0034
3488.00,0.0034
3487.00,0.0035
3486.00,0.0035
3485.00,0.0035
3484.00,0.0036
3483.00,0.0037
3482.00,0.0037
3481.00,0.0037
3480.00,0.0037
3479.00,0.0037
3478.00,0.0037
3477.00,0.0037
3476.00,0.0037
3475.00,0.0037
3474.00,0.0037
3473.00,0.0038
3472.00,0.0038
3471.00,0.0039
3470.00,0.0039
3469.00,0.0039
3468.00,0.0039
3467.00,0.0039
3466.00,0.0040
3465.00,0.0040
3464.00,0.0040
3463.00,0.0040
3462.00,0.0040
3461.00,0.0040
3460.00,0.0040
3459.00,0.0041
3458.00,0.0041
3457.00,0.0041
3456.00,0.0041
3455.00,0.0041
3454.00,0.0041
3453.00,0.0041
3452.00,0.0041
3451.00,0.0041
3450.00,0.0042
3449.00,0.0042
3448.00,0.0043
3447.00,0.0043
3446.00,0.0043
3445.00,0.0044
3444.00,0.0044
3443.00,0.0044
3442.00,0.0045
3441.00,0.0045
3440.00,0.0045
3439.00,0.0046
3438.00,0.0046
3437.00,0.0046
3436.00,0.0046
3435.00,0.0046
3434.00,0.0046
3433.00,0.0046
3432.00,0.0046
3431.00,0.0046
3430.00,0.0046
3429.00,0.0046
3428.00,0.0046
3427.00,0.0046
3426.00,0.0047
3425.00,0.0047
3424.00,0.0047
3423.00,0.0048
3422.00,0.0048
3421.00,0.0048
3420.00,0.0048
3419.00,0.0049
3418.00,0.0049
3417.00,0.0049
3416.00,0.0049
3415.00,0.0049
3414.00,0.0049
3413.00,0.0050
3412.00,0.0050
3411.00,0.0050
3410.00,0.0050
3409.00,0.0050
3408.00,0.0050
3407.00,0.0050
3406.00,0.0050
3405.00,0.0050
3404.00,0.0050
3403.00,0.0050
3402.00,0.0051
3401.00,0.0051
3400.00,0.0052
3399.00,0.0052
3398.00,0.0052
3397.00,0.0052
3396.00,0.0051
3395.00,0.0051
3394.00,0.0050
3393.00,0.0050
3392.00,0.0051
3391.00,0.0051
3390.00,0.0051
3389.00,0.0052
3388.00,0.0052
3387.00,0.0052
3386.00,0.0052
3385.00,0.0053
3384.00,0.0052
3383.00,0.0052
3382.00,0.0051
3381.00,0.0051
3380.00,0.0051
3379.00,0.0051
3378.00,0.0051
3377.00,0.0052
3376.00,0.0052
3375.00,0.0052
3374.00,0.0052
3373.00,0.0052
3372.00,0.0052
3371.00,0.0051
3370.00,0.0051
3369.00,0.0051
3368.00,0.0051
3367.00,0.0051
3366.00,0.0051
3365.00,0.0051
3364.00,0.0052
3363.00,0.0052
3362.00,0.0052
3361.00,0.0052
3360.00,0.0052
3359.00,0.0052
3358.00,0.0053
3357.00,0.0053
3356.00,0.0053
3355.00,0.0053
3354.00,0.0052
3353.00,0.0052
3352.00,0.0052
3351.00,0.0051
3350.00,0.0051
3349.00,0.0051
3348.00,0.0052
3347.00,0.0052
3346.00,0.0052
3345.00,0.0052
3344.00,0.0052
3343.00,0.0052
3342.00,0.0052
3341.00,0.0052
3340.00,0.0051
3339.00,0.0051
3338.00,0.0051
3337.00,0.0051
3336.00,0.0050
3335.00,0.0050
3334.00,0.0050
3333.00,0.0050
3332.00,0.0049
3331.00,0.0049
3330.00,0.0049
3329.00,0.0049
3328.00,0.0048
3327.00,0.0049
3326.00,0.0049
3325.00,0.0049
3324.00,0.0049
3323.00,0.0049
3322.00,0.0049
3321.00,0.0048
3320.00,0.0048
3319.00,0.0049
3318.00,0.0049
3317.00,0.0049
3316.00,0.0049
3315.00,0.0048
3314.00,0.0048
3313.00,0.0048
3312.00,0.0048
3311.00,0.0049
3310.00,0.0049
3309.00,0.0049
3308.00,0.0049
3307.00,0.0049
3306.00,0.0050
3305.00,0.0050
3304.00,0.0050
3303.00,0.0050
3302.00,0.0050
3301.00,0.0050
3300.00,0.0050
3299.00,0.0049
3298.00,0.0049
3297.00,0.0049
3296.00,0.0048
3295.00,0.0048
3294.00,0.0048
3293.00,0.0047
3292.00,0.0047
3291.00,0.0047
3290.00,0.0047
3289.00,0.0046
3288.00,0.0046
3287.00,0.0046
3286.00,0.0045
3285.00,0.0045
3284.00,0.0045
3283.00,0.0045
3282.00,0.0045
3281.00,0.0045
3280.00,0.0045
3279.00,0.0044
3278.00,0.0044
3277.00,0.0044
3276.00,0.0044
3275.00,0.0043
3274.00,0.0043
3273.00,0.0042
3272.00,0.0042
3271.00,0.0042
3270.00,0.0042
3269.00,0.0042
3268.00,0.0042
3267.00,0.0042
3266.00,0.0042
3265.00,0.0042
3264.00,0.0042
3263.00,0.0042
3262.00,0.0042
3261.00,0.0041
3260.00,0.0041
3259.00,0.0040
3258.00,0.0040
3257.00,0.0040
3256.00,0.0040
3255.00,0.0040
3254.00,0.0040
3253.00,0.0040
3252.00,0.0040
3251.00,0.0039
3250.00,0.0039
3249.00,0.0039
3248.00,0.0039
3247.00,0.0039
3246.00,0.0039
3245.00,0.0039
3244.00,0.0038
3243.00,0.0038
3242.00,0.0038
3241.00,0.0038
3240.00,0.0038
3239.00,0.0038
3238.00,0.0038
3237.00,0.0038
3236.00,0.0038
3235.00,0.0038
3234.00,0.0038
3233.00,0.0038
3232.00,0.0038
3231.00,0.0039
3230.00,0.0039
3229.00,0.0039
3228.00,0.0040
3227.00,0.0040
3226.00,0.0040
3225.00,0.0040
3224.00,0.0039
3223.00,0.0039
3222.00,0.0040
3221.00,0.0040
3220.00,0.0040
3219.00,0.0040
3218.00,0.0040
3217.00,0.0041
3216.00,0.0041
3215.00,0.0041
3214.00,0.0041
3213.00,0.0041
3212.00,0.0041
3211.00,0.0041
3210.00,0.0041
3209.00,0.0041
3208.00,0.0041
3207.00,0.0041
3206.00,0.0041
3205.00,0.0042
3204.00,0.0042
3203.00,0.0042
3202.00,0.0043
3201.00,0.0043
3200.00,0.0042
3199.00,0.0042
3198.00,0.0042
3197.00,0.0042
3196.00,0.0042
3195.00,0.0043
3194.00,0.0043
3193.00,0.0043
3192.00,0.0043
3191.00,0.0043
3190.00,0.0042
3189.00,0.0042
3188.00,0.0041
3187.00,0.0041
3186.00,0.0041
3185.00,0.0041
3184.00,0.0041
3183.00,0.0041
3182.00,0.0041
3181.00,0.0041
3180.00,0.0041
3179.00,0.0040
3178.00,0.0040
3177.00,0.0039
3176.00,0.0039
3175.00,0.0039
3174.00,0.0038
3173.00,0.0038
3172.00,0.0038
3171.00,0.0038
3170.00,0.0038
3169.00,0.0038
3168.00,0.0038
3167.00,0.0039
3166.00,0.0039
3165.00,0.0038
3164.00,0.0038
3163.00,0.0038
3162.00,0.0037
3161.00,0.0037
3160.00,0.0037
3159.00,0.0037
3158.00,0.0037
3157.00,0.0037
3156.00,0.0037
3155.00,0.0037
3154.00,0.0037
3153.00,0.0036
3152.00,0.0036
3151.00,0.0036
3150.00,0.0037
3149.00,0.0037
3148.00,0.0038
3147.00,0.0038
3146.00,0.0037
3145.00,0.0037
3144.00,0.0037
3143.00,0.0036
3142.00,0.0036
3141.00,0.0036
3140.00,0.0036
3139.00,0.0036
3138.00,0.0036
3137.00,0.0035
3136.00,0.0035
3135.00,0.0034
3134.00,0.0034
3133.00,0.0034
3132.00,0.0034
3131.00,0.0034
3130.00,0.0034
3129.00,0.0034
3128.00,0.0033
3127.00,0.0033
3126.00,0.0033
3125.00,0.0033
3124.00,0.0033
3123.00,0.0033
3122.00,0.0032
3121.00,0.0032
3120.00,0.0032
3119.00,0.0032
3118.00,0.0031
3117.00,0.0031
3116.00,0.0030
3115.00,0.0030
3114.00,0.0030
3113.00,0.0030
3112.00,0.0030
3111.00,0.0030
3110.00,0.0029
3109.00,0.0029
3108.00,0.0029
3107.00,0.0029
3106.00,0.0029
3105.00,0.0029
3104.00,0.0030
3103.00,0.0030
3102.00,0.0030
3101.00,0.0030
3100.00,0.0030
3099.00,0.0029
3098.00,0.0029
3097.00,0.0030
3096.00,0.0030
3095.00,0.0030
3094.00,0.0030
3093.00,0.0029
3092.00,0.0029
3091.00,0.0028
3090.00,0.0028
3089.00,0.0028
3088.00,0.0028
3087.00,0.0028
3086.00,0.0028
3085.00,0.0028
3084.00,0.0028
3083.00,0.0028
3082.00,0.0028
3081.00,0.0028
3080.00,0.0028
3079.00,0.0028
3078.00,0.0029
3077.00,0.0029
3076.00,0.0030
3075.00,0.0030
3074.00,0.0029
3073.00,0.0029
3072.00,0.0029
3071.00,0.0029
3070.00,0.0029
3069.00,0.0029
3068.00,0.0029
3067.00,0.0030
3066.00,0.0030
3065.00,0.0030
3064.00,0.0030
3063.00,0.0030
3062.00,0.0031
3061.00,0.0031
3060.00,0.0031
3059.00,0.0031
3058.00,0.0030
3057.00,0.0030
3056.00,0.0030
3055.00,0.0031
3054.00,0.0031
3053.00,0.0031
3052.00,0.0032
3051.00,0.0032
3050.00,0.0032
3049.00,0.0032
3048.00,0.0033
3047.00,0.0033
3046.00,0.0033
3045.00,0.0034
3044.00,0.0034
3043.00,0.0034
3042.00,0.0034
3041.00,0.0034
3040.00,0.0035
3039.00,0.0035
3038.00,0.0036
3037.00,0.0036
3036.00,0.0037
3035.00,0.0037
3034.00,0.0037
3033.00,0.0037
3032.00,0.0037
3031.00,0.0037
3030.00,0.0037
3029.00,0.0037
3028.00,0.0038
3027.00,0.0038
3026.00,0.0039
3025.00,0.0040
3024.00,0.0040
3023.00,0.0041
3022.00,0.0042
3021.00,0.0043
3020.00,0.0043
3019.00,0.0044
3018.00,0.0045
3017.00,0.0046
3016.00,0.0047
3015.00,0.0047
3014.00,0.0048
3013.00,0.0049
3012.00,0.0050
3011.00,0.0052
3010.00,0.0053
3009.00,0.0055
3008.00,0.0057
3007.00,0.0058
3006.00,0.0060
3005.00,0.0061
3004.00,0.0063
3003.00,0.0064
3002.00,0.0067
3001.00,0.0069
3000.00,0.0071
2999.00,0.0074
2998.00,0.0076
2997.00,0.0079
2996.00,0.0083
2995.00,0.0087
2994.00,0.0091
2993.00,0.0096
2992.00,0.0101
2991.00,0.0106
2990.00,0.0112
2989.00,0.0119
2988.00,0.0127
2987.00,0.0135
2986.00,0.0144
2985.00,0.0154
2984.00,0.0166
2983.00,0.0178
2982.00,0.0193
2981.00,0.0210
2980.00,0.0229
2979.00,0.0251
2978.00,0.0277
2977.00,0.0305
2976.00,0.0338
2975.00,0.0376
2974.00,0.0419
2973.00,0.0468
2972.00,0.0524
2971.00,0.0587
2970.00,0.0659
2969.00,0.0738
2968.00,0.0825
2967.00,0.0919
2966.00,0.1019
2965.00,0.1124
2964.00,0.1229
2963.00,0.1331
2962.00,0.1423
2961.00,0.1501
2960.00,0.1563
2959.00,0.1610
2958.00,0.1644
2957.00,0.1672
2956.00,0.1700
2955.00,0.1732
2954.00,0.1769
2953.00,0.1807
2952.00,0.1838
2951.00,0.1853
2950.00,0.1843
2949.00,0.1802
2948.00,0.1729
2947.00,0.1630
2946.00,0.1514
2945.00,0.1395
2944.00,0.1283
2943.00,0.1188
2942.00,0.1115
2941.00,0.1066
2940.00,0.1039
2939.00,0.1033
2938.00,0.1046
2937.00,0.1075
2936.00,0.1119
2935.00,0.1177
2934.00,0.1248
2933.00,0.1330
2932.00,0.1422
2931.00,0.1522
2930.00,0.1626
2929.00,0.1732
2928.00,0.1837
2927.00,0.1939
2926.00,0.2036
2925.00,0.2128
2924.00,0.2216
2923.00,0.2302
2922.00,0.2385
2921.00,0.2462
2920.00,0.2528
2919.00,0.2575
2918.00,0.2596
2917.00,0.2584
2916.00,0.2541
2915.00,0.2472
2914.00,0.2386
2913.00,0.2292
2912.00,0.2201
2911.00,0.2117
2910.00,0.2044
2909.00,0.1979
2908.00,0.1919
2907.00,0.1862
2906.00,0.1805
2905.00,0.1746
2904.00,0.1684
2903.00,0.1620
2902.00,0.1555
2901.00,0.1490
2900.00,0.1426
2899.00,0.1365
2898.00,0.1308
2897.00,0.1255
2896.00,0.1208
2895.00,0.1166
2894.00,0.1130
2893.00,0.1100
2892.00,0.1077
2891.00,0.1058
2890.00,0.1045
2889.00,0.1036
2888.00,0.1030
2887.00,0.1027
2886.00,0.1028
2885.00,0.1032
2884.00,0.1041
2883.00,0.1053
2882.00,0.1070
2881.00,0.1089
2880.00,0.1108
2879.00,0.1123
2878.00,0.1133
2877.00,0.1136
2876.00,0.1132
2875.00,0.1125
2874.00,0.1119
2873.00,0.1119
2872.00,0.1125
2871.00,0.1138
2870.00,0.1154
2869.00,0.1168
2868.00,0.1176
2867.00,0.1170
2866.00,0.1146
2865.00,0.1102
2864.00,0.1043
2863.00,0.0977
2862.00,0.0912
2861.00,0.0856
2860.00,0.0813
2859.00,0.0785
2858.00,0.0771
2857.00,0.0769
2856.00,0.0775
2855.00,0.0789
2854.00,0.0807
2853.00,0.0827
2852.00,0.0848
2851.00,0.0866
2850.00,0.0880
2849.00,0.0888
2848.00,0.0895
2847.00,0.0905
2846.00,0.0923
2845.00,0.0953
2844.00,0.0994
2843.00,0.1045
2842.00,0.1099
2841.00,0.1152
2840.00,0.1194
2839.00,0.1218
2838.00,0.1215
2837.00,0.1182
2836.00,0.1119
2835.00,0.1031
2834.00,0.0928
2833.00,0.0821
2832.00,0.0718
2831.00,0.0627
2830.00,0.0550
2829.00,0.0486
2828.00,0.0434
2827.00,0.0393
2826.00,0.0359
2825.00,0.0331
2824.00,0.0308
2823.00,0.0288
2822.00,0.0271
2821.00,0.0256
2820.00,0.0243
2819.00,0.0232
2818.00,0.0222
2817.00,0.0213
2816.00,0.0206
2815.00,0.0199
2814.00,0.0193
2813.00,0.0188
2812.00,0.0182
2811.00,0.0177
2810.00,0.0172
2809.00,0.0167
2808.00,0.0161
2807.00,0.0155
2806.00,0.0149
2805.00,0.0142
2804.00,0.0136
2803.00,0.0130
2802.00,0.0125
2801.00,0.0121
2800.00,0.0117
2799.00,0.0114
2798.00,0.0112
2797.00,0.0110
2796.00,0.0107
2795.00,0.0105
2794.00,0.0102
2793.00,0.0100
2792.00,0.0097
2791.00,0.0093
2790.00,0.0090
2789.00,0.0087
2788.00,0.0083
2787.00,0.0080
2786.00,0.0077
2785.00,0.0075
2784.00,0.0072
2783.00,0.0069
2782.00,0.0067
2781.00,0.0065
2780.00,0.0064
2779.00,0.0062
2778.00,0.0061
2777.00,0.0060
2776.00,0.0059
2775.00,0.0058
2774.00,0.0057
2773.00,0.0056
2772.00,0.0055
2771.00,0.0055
2770.00,0.0054
2769.00,0.0054
2768.00,0.0053
2767.00,0.0053
2766.00,0.0053
2765.00,0.0052
2764.00,0.0052
2763.00,0.0052
2762.00,0.0051
2761.00,0.0051
2760.00,0.0051
2759.00,0.0051
2758.00,0.0051
2757.00,0.0050
2756.00,0.0050
2755.00,0.0050
2754.00,0.0049
2753.00,0.0049
2752.00,0.0049
2751.00,0.0049
2750.00,0.0049
2749.00,0.0049
2748.00,0.0049
2747.00,0.0049
2746.00,0.0050
2745.00,0.0050
2744.00,0.0051
2743.00,0.0052
2742.00,0.0052
2741.00,0.0053
2740.00,0.0055
2739.00,0.0056
2738.00,0.0058
2737.00,0.0059
2736.00,0.0060
2735.00,0.0061
2734.00,0.0062
2733.00,0.0064
2732.00,0.0065
2731.00,0.0067
2730.00,0.0069
2729.00,0.0071
2728.00,0.0074
2727.00,0.0076
2726.00,0.0079
2725.00,0.0081
2724.00,0.0083
2723.00,0.0083
2722.00,0.0082
2721.00,0.0080
2720.00,0.0078
2719.00,0.0075
2718.00,0.0072
2717.00,0.0069
2716.00,0.0066
2715.00,0.0064
2714.00,0.0062
2713.00,0.0060
2712.00,0.0058
2711.00,0.0056
2710.00,0.0054
2709.00,0.0053
2708.00,0.0052
2707.00,0.0051
2706.00,0.0050
2705.00,0.0049
2704.00,0.0048
2703.00,0.0047
2702.00,0.0046
2701.00,0.0045
2700.00,0.0044
2699.00,0.0044
2698.00,0.0043
2697.00,0.0043
2696.00,0.0043
2695.00,0.0043
2694.00,0.0043
2693.00,0.0044
2692.00,0.0043
2691.00,0.0043
2690.00,0.0043
2689.00,0.0044
2688.00,0.0044
2687.00,0.0043
2686.00,0.0043
2685.00,0.0043
2684.00,0.0043
2683.00,0.0043
2682.00,0.0044
2681.00,0.0044
2680.00,0.0044
2679.00,0.0044
2678.00,0.0044
2677.00,0.0044
2676.00,0.0044
2675.00,0.0044
2674.00,0.0044
2673.00,0.0043
2672.00,0.0043
2671.00,0.0042
2670.00,0.0042
2669.00,0.0042
2668.00,0.0042
2667.00,0.0042
2666.00,0.0042
2665.00,0.0043
2664.00,0.0044
2663.00,0.0045
2662.00,0.0045
2661.00,0.0046
2660.00,0.0046
2659.00,0.0046
2658.00,0.0046
2657.00,0.0046
2656.00,0.0045
2655.00,0.0045
2654.00,0.0044
2653.00,0.0044
2652.00,0.0044
2651.00,0.0043
2650.00,0.0043
2649.00,0.0042
2648.00,0.0042
2647.00,0.0041
2646.00,0.0041
2645.00,0.0040
2644.00,0.0040
2643.00,0.0040
2642.00,0.0039
2641.00,0.0039
2640.00,0.0038
2639.00,0.0038
2638.00,0.0038
2637.00,0.0038
2636.00,0.0037
2635.00,0.0037
2634.00,0.0037
2633.00,0.0036
2632.00,0.0036
2631.00,0.0036
2630.00,0.0037
2629.00,0.0038
2628.00,0.0038
2627.00,0.0039
2626.00,0.0039
2625.00,0.0039
2624.00,0.0039
2623.00,0.0039
2622.00,0.0038
2621.00,0.0038
2620.00,0.0039
2619.00,0.0039
2618.00,0.0039
2617.00,0.0039
2616.00,0.0038
2615.00,0.0038
2614.00,0.0038
2613.00,0.0038
2612.00,0.0037
2611.00,0.0037
2610.00,0.0036
2609.00,0.0035
2608.00,0.0034
2607.00,0.0034
2606.00,0.0033
2605.00,0.0033
2604.00,0.0032
2603.00,0.0031
2602.00,0.0030
2601.00,0.0030
2600.00,0.0030
2599.00,0.0030
2598.00,0.0030
2597.00,0.0030
2596.00,0.0030
2595.00,0.0030
2594.00,0.0031
2593.00,0.0031
2592.00,0.0031
2591.00,0.0031
2590.00,0.0032
2589.00,0.0032
2588.00,0.0033
2587.00,0.0033
2586.00,0.0034
2585.00,0.0035
2584.00,0.0036
2583.00,0.0037
2582.00,0.0037
2581.00,0.0037
2580.00,0.0036
2579.00,0.0035
2578.00,0.0034
2577.00,0.0033
2576.00,0.0032
2575.00,0.0030
2574.00,0.0029
2573.00,0.0028
2572.00,0.0028
2571.00,0.0027
2570.00,0.0026
2569.00,0.0025
2568.00,0.0025
2567.00,0.0024
2566.00,0.0023
2565.00,0.0023
2564.00,0.0023
2563.00,0.0023
2562.00,0.0023
2561.00,0.0022
2560.00,0.0022
2559.00,0.0021
2558.00,0.0021
2557.00,0.0021
2556.00,0.0021
2555.00,0.0021
2554.00,0.0022
2553.00,0.0021
2552.00,0.0020
2551.00,0.0019
2550.00,0.0018
2549.00,0.0017
2548.00,0.0017
2547.00,0.0016
2546.00,0.0016
2545.00,0.0016
2544.00,0.0017
2543.00,0.0016
2542.00,0.0016
2541.00,0.0016
2540.00,0.0015
2539.00,0.0015
2538.00,0.0015
2537.00,0.0014
2536.00,0.0014
2535.00,0.0014
2534.00,0.0014
2533.00,0.0014
2532.00,0.0013
2531.00,0.0013
2530.00,0.0012
2529.00,0.0012
2528.00,0.0012
2527.00,0.0012
2526.00,0.0012
2525.00,0.0012
2524.00,0.0012
2523.00,0.0012
2522.00,0.0012
2521.00,0.0012
2520.00,0.0012
2519.00,0.0012
2518.00,0.0012
2517.00,0.0012
2516.00,0.0011
2515.00,0.0010
2514.00,0.0009
2513.00,0.0009
2512.00,0.0009
2511.00,0.0009
2510.00,0.0009
2509.00,0.0010
2508.00,0.0010
2507.00,0.0010
2506.00,0.0010
2505.00,0.0010
2504.00,0.0010
2503.00,0.0010
2502.00,0.0010
2501.00,0.0010
2500.00,0.0011
2499.00,0.0011
2498.00,0.0012
2497.00,0.0011
2496.00,0.0011
2495.00,0.0010
2494.00,0.0010
2493.00,0.0010
2492.00,0.0010
2491.00,0.0010
2490.00,0.0009
2489.00,0.0009
2488.00,0.0008
2487.00,0.0007
2486.00,0.0007
2485.00,0.0007
2484.00,0.0008
2483.00,0.0008
2482.00,0.0008
2481.00,0.0008
2480.00,0.0008
2479.00,0.0009
2478.00,0.0009
2477.00,0.0010
2476.00,0.0010
2475.00,0.0010
2474.00,0.0010
2473.00,0.0010
2472.00,0.0009
2471.00,0.0009
2470.00,0.0009
2469.00,0.0009
2468.00,0.0009
2467.00,0.0009
2466.00,0.0009
2465.00,0.0009
2464.00,0.0009
2463.00,0.0008
2462.00,0.0008
2461.00,0.0007
2460.00,0.0007
2459.00,0.0008
2458.00,0.0008
2457.00,0.0009
2456.00,0.0010
2455.00,0.0011
2454.00,0.0011
2453.00,0.0011
2452.00,0.0011
2451.00,0.0012
2450.00,0.0012
2449.00,0.0012
2448.00,0.0011
2447.00,0.0010
2446.00,0.0010
2445.00,0.0010
2444.00,0.0010
2443.00,0.0010
2442.00,0.0010
2441.00,0.0010
2440.00,0.0009
2439.00,0.0009
2438.00,0.0009
2437.00,0.0009
2436.00,0.0010
2435.00,0.0010
2434.00,0.0011
2433.00,0.0011
2432.00,0.0011
2431.00,0.0011
2430.00,0.0011
2429.00,0.0011
2428.00,0.0011
2427.00,0.0010
2426.00,0.0010
2425.00,0.0009
2424.00,0.0009
2423.00,0.0009
2422.00,0.0009
2421.00,0.0009
2420.00,0.0009
2419.00,0.0009
2418.00,0.0009
2417.00,0.0009
2416.00,0.0009
2415.00,0.0009
2414.00,0.0010
2413.00,0.0010
2412.00,0.0010
2411.00,0.0010
2410.00,0.0009
2409.00,0.0009
2408.00,0.0009
2407.00,0.0008
2406.00,0.0008
2405.00,0.0008
2404.00,0.0008
2403.00,0.0008
2402.00,0.0008
2401.00,0.0008
2400.00,0.0008
2399.00,0.0009
2398.00,0.0009
2397.00,0.0009
2396.00,0.0008
2395.00,0.0007
2394.00,0.0007
2393.00,0.0006
2392.00,0.0006
2391.00,0.0006
2390.00,0.0006
2389.00,0.0007
2388.00,0.0007
2387.00,0.0007
2386.00,0.0006
2385.00,0.0005
2384.00,0.0005
2383.00,0.0004
2382.00,0.0003
2381.00,0.0003
2380.00,0.0002
2379.00,0.0001
2378.00,0.0000
2377.00,0.0000
2376.00,0.0000
2375.00,0.0000
2374.00,0.0001
2373.00,0.0001
2372.00,0.0001
2371.00,0.0001
2370.00,0.0000
2369.00,-0.0001
2368.00,-0.0002
2367.00,-0.0002
2366.00,-0.0002
2365.00,-0.0001
2364.00,-0.0000
2363.00,0.0001
2362.00,0.0001
2361.00,0.0001
2360.00,0.0000
2359.00,0.0000
2358.00,0.0000
2357.00,0.0001
2356.00,0.0001
2355.00,0.0000
2354.00,0.0000
2353.00,0.0001
2352.00,0.0001
2351.00,0.0001
2350.00,0.0001
2349.00,0.0000
2348.00,-0.0000
2347.00,0.0000
2346.00,0.0001
2345.00,0.0002
2344.00,0.0003
2343.00,0.0003
2342.00,0.0003
2341.00,0.0003
2340.00,0.0003
2339.00,0.0003
2338.00,0.0004
2337.00,0.0005
2336.00,0.0005
2335.00,0.0005
2334.00,0.0004
2333.00,0.0003
2332.00,0.0003
2331.00,0.0003
2330.00,0.0003
2329.00,0.0005
2328.00,0.0007
2327.00,0.0010
2326.00,0.0014
2325.00,0.0017
2324.00,0.0019
2323.00,0.0018
2322.00,0.0016
2321.00,0.0015
2320.00,0.0014
2319.00,0.0013
2318.00,0.0013
2317.00,0.0012
2316.00,0.0011
2315.00,0.0011
2314.00,0.0010
2313.00,0.0010
2312.00,0.0010
2311.00,0.0010
2310.00,0.0010
2309.00,0.0009
2308.00,0.0010
2307.00,0.0010
2306.00,0.0011
2305.00,0.0012
2304.00,0.0012
2303.00,0.0012
2302.00,0.0012
2301.00,0.0012
2300.00,0.0013
2299.00,0.0012
2298.00,0.0012
2297.00,0.0012
2296.00,0.0012
2295.00,0.0013
2294.00,0.0014
2293.00,0.0016
2292.00,0.0016
2291.00,0.0017
2290.00,0.0018
2289.00,0.0018
2288.00,0.0019
2287.00,0.0020
2286.00,0.0020
2285.00,0.0020
2284.00,0.0019
2283.00,0.0018
2282.00,0.0017
2281.00,0.0017
2280.00,0.0016
2279.00,0.0015
2278.00,0.0014
2277.00,0.0014
2276.00,0.0014
2275.00,0.0013
2274.00,0.0012
2273.00,0.0011
2272.00,0.0010
2271.00,0.0009
2270.00,0.0008
2269.00,0.0008
2268.00,0.0009
2267.00,0.0010
2266.00,0.0010
2265.00,0.0010
2264.00,0.0011
2263.00,0.0011
2262.00,0.0011
2261.00,0.0012
2260.00,0.0012
2259.00,0.0013
2258.00,0.0012
2257.00,0.0010
2256.00,0.0008
2255.00,0.0006
2254.00,0.0006
2253.00,0.0006
2252.00,0.0007
2251.00,0.0008
2250.00,0.0009
2249.00,0.0009
2248.00,0.0010
2247.00,0.0010
2246.00,0.0009
2245.00,0.0008
2244.00,0.0008
2243.00,0.0008
2242.00,0.0008
2241.00,0.0008
2240.00,0.0008
2239.00,0.0007
2238.00,0.0008
2237.00,0.0008
2236.00,0.0008
2235.00,0.0009
2234.00,0.0008
2233.00,0.0007
2232.00,0.0006
2231.00,0.0005
2230.00,0.0005
2229.00,0.0006
2228.00,0.0007
2227.00,0.0009
2226.00,0.0010
2225.00,0.0011
2224.00,0.0011
2223.00,0.0011
2222.00,0.0011
2221.00,0.0010
2220.00,0.0009
2219.00,0.0009
2218.00,0.0008
2217.00,0.0008
2216.00,0.0007
2215.00,0.0006
2214.00,0.0005
2213.00,0.0004
2212.00,0.0003
2211.00,0.0002
2210.00,0.0001
2209.00,-0.0000
2208.00,-0.0000
2207.00,0.0002
2206.00,0.0005
2205.00,0.0009
2204.00,0.0011
2203.00,0.0011
2202.00,0.0010
2201.00,0.0008
2200.00,0.0007
2199.00,0.0006
2198.00,0.0006
2197.00,0.0005
2196.00,0.0005
2195.00,0.0006
2194.00,0.0006
2193.00,0.0006
2192.00,0.0008
2191.00,0.0011
2190.00,0.0015
2189.00,0.0018
2188.00,0.0020
2187.00,0.0020
2186.00,0.0019
2185.00,0.0017
2184.00,0.0013
2183.00,0.0009
2182.00,0.0005
2181.00,0.0003
2180.00,0.0005
2179.00,0.0007
2178.00,0.0008
2177.00,0.0007
2176.00,0.0003
2175.00,0.0000
2174.00,-0.0002
2173.00,-0.0001
2172.00,0.0003
2171.00,0.0008
2170.00,0.0014
2169.00,0.0020
2168.00,0.0024
2167.00,0.0026
2166.00,0.0025
2165.00,0.0021
2164.00,0.0017
2163.00,0.0014
2162.00,0.0012
2161.00,0.0008
2160.00,-0.0001
2159.00,-0.0012
2158.00,-0.0022
2157.00,-0.0027
2156.00,-0.0028
2155.00,-0.0026
2154.00,-0.0023
2153.00,-0.0019
2152.00,-0.0016
2151.00,-0.0015
2150.00,-0.0015
2149.00,-0.0015
2148.00,-0.0016
2147.00,-0.0016
2146.00,-0.0016
2145.00,-0.0016
2144.00,-0.0015
2143.00,-0.0013
2142.00,-0.0012
2141.00,-0.0012
2140.00,-0.0010
2139.00,-0.0008
2138.00,-0.0007
2137.00,-0.0006
2136.00,-0.0007
2135.00,-0.0010
2134.00,-0.0013
2133.00,-0.0015
2132.00,-0.0015
2131.00,-0.0015
2130.00,-0.0015
2129.00,-0.0014
2128.00,-0.0012
2127.00,-0.0010
2126.00,-0.0008
2125.00,-0.0007
2124.00,-0.0008
2123.00,-0.0008
2122.00,-0.0009
2121.00,-0.0008
2120.00,-0.0006
2119.00,-0.0004
2118.00,-0.0001
2117.00,0.0001
2116.00,0.0002
2115.00,0.0003
2114.00,0.0003
2113.00,0.0003
2112.00,0.0003
2111.00,0.0003
2110.00,0.0003
2109.00,0.0002
2108.00,0.0002
2107.00,0.0001
2106.00,0.0000
2105.00,0.0000
2104.00,0.0001
2103.00,0.0002
2102.00,0.0003
2101.00,0.0003
2100.00,0.0003
2099.00,0.0003
2098.00,0.0003
2097.00,0.0002
2096.00,-0.0000
2095.00,-0.0002
2094.00,-0.0004
2093.00,-0.0005
2092.00,-0.0005
2091.00,-0.0004
2090.00,-0.0003
2089.00,-0.0002
2088.00,-0.0001
2087.00,0.0000
2086.00,0.0001
2085.00,0.0002
2084.00,0.0002
2083.00,0.0002
2082.00,0.0002
2081.00,0.0003
2080.00,0.0003
2079.00,0.0004
2078.00,0.0004
2077.00,0.0004
2076.00,0.0003
2075.00,0.0000
2074.00,-0.0001
2073.00,-0.0002
2072.00,-0.0001
2071.00,-0.0001
2070.00,0.0000
2069.00,0.0001
2068.00,0.0001
2067.00,0.0001
2066.00,0.0001
2065.00,0.0001
2064.00,0.0001
2063.00,0.0000
2062.00,-0.0000
2061.00,-0.0001
2060.00,-0.0001
2059.00,-0.0001
2058.00,-0.0001
2057.00,-0.0000
2056.00,0.0002
2055.00,0.0004
2054.00,0.0006
2053.00,0.0009
2052.00,0.0012
2051.00,0.0013
2050.00,0.0011
2049.00,0.0007
2048.00,0.0004
2047.00,0.0002
2046.00,0.0002
2045.00,0.0002
2044.00,0.0001
2043.00,0.0000
2042.00,0.0000
2041.00,0.0002
2040.00,0.0004
2039.00,0.0007
2038.00,0.0008
2037.00,0.0005
2036.00,-0.0002
2035.00,-0.0008
2034.00,-0.0011
2033.00,-0.0012
2032.00,-0.0010
2031.00,-0.0008
2030.00,-0.0007
2029.00,-0.0005
2028.00,-0.0004
2027.00,-0.0005
2026.00,-0.0006
2025.00,-0.0006
2024.00,-0.0005
2023.00,-0.0005
2022.00,-0.0005
2021.00,-0.0005
2020.00,-0.0003
2019.00,-0.0001
2018.00,-0.0000
2017.00,-0.0001
2016.00,-0.0003
2015.00,-0.0007
2014.00,-0.0010
2013.00,-0.0011
2012.00,-0.0011
2011.00,-0.0009
2010.00,-0.0008
2009.00,-0.0008
2008.00,-0.0008
2007.00,-0.0010
2006.00,-0.0012
2005.00,-0.0013
2004.00,-0.0013
2003.00,-0.0012
2002.00,-0.0011
2001.00,-0.0009
2000.00,-0.0009
1999.00,-0.0009
1998.00,-0.0010
1997.00,-0.0012
1996.00,-0.0013
1995.00,-0.0014
1994.00,-0.0015
1993.00,-0.0013
1992.00,-0.0009
1991.00,-0.0003
1990.00,0.0001
1989.00,0.0002
1988.00,0.0001
1987.00,-0.0002
1986.00,-0.0002
1985.00,-0.0000
1984.00,0.0003
1983.00,0.0007
1982.00,0.0010
1981.00,0.0012
1980.00,0.0013
1979.00,0.0009
1978.00,0.0003
1977.00,-0.0003
1976.00,-0.0008
1975.00,-0.0011
1974.00,-0.0014
1973.00,-0.0015
1972.00,-0.0015
1971.00,-0.0015
1970.00,-0.0016
1969.00,-0.0018
1968.00,-0.0018
1967.00,-0.0018
1966.00,-0.0015
1965.00,-0.0012
1964.00,-0.0010
1963.00,-0.0010
1962.00,-0.0012
1961.00,-0.0016
1960.00,-0.0019
1959.00,-0.0020
1958.00,-0.0019
1957.00,-0.0018
1956.00,-0.0018
1955.00,-0.0018
1954.00,-0.0018
1953.00,-0.0016
1952.00,-0.0015
1951.00,-0.0013
1950.00,-0.0011
1949.00,-0.0011
1948.00,-0.0011
1947.00,-0.0013
1946.00,-0.0015
1945.00,-0.0016
1944.00,-0.0016
1943.00,-0.0016
1942.00,-0.0015
1941.00,-0.0013
1940.00,-0.0011
1939.00,-0.0011
1938.00,-0.0011
1937.00,-0.0012
1936.00,-0.0011
1935.00,-0.0011
1934.00,-0.0011
1933.00,-0.0011
1932.00,-0.0010
1931.00,-0.0010
1930.00,-0.0009
1929.00,-0.0008
1928.00,-0.0007
1927.00,-0.0006
1926.00,-0.0006
1925.00,-0.0006
1924.00,-0.0007
1923.00,-0.0007
1922.00,-0.0006
1921.00,-0.0005
1920.00,-0.0004
1919.00,-0.0004
1918.00,-0.0004
1917.00,-0.0004
1916.00,-0.0004
1915.00,-0.0005
1914.00,-0.0006
1913.00,-0.0006
1912.00,-0.0006
1911.00,-0.0005
1910.00,-0.0004
1909.00,-0.0003
1908.00,-0.0002
1907.00,-0.0002
1906.00,-0.0003
1905.00,-0.0002
1904.00,-0.0002
1903.00,-0.0001
1902.00,-0.0001
1901.00,-0.0001
1900.00,-0.0001
1899.00,-0.0001
1898.00,-0.0001
1897.00,-0.0001
1896.00,-0.0001
1895.00,-0.0001
1894.00,-0.0001
1893.00,-0.0002
1892.00,-0.0002
1891.00,-0.0003
1890.00,-0.0003
1889.00,-0.0003
1888.00,-0.0003
1887.00,-0.0003
1886.00,-0.0004
1885.00,-0.0004
1884.00,-0.0004
1883.00,-0.0003
1882.00,-0.0003
1881.00,-0.0002
1880.00,-0.0002
1879.00,-0.0002
1878.00,-0.0002
1877.00,-0.0003
1876.00,-0.0003
1875.00,-0.0003
1874.00,-0.0003
1873.00,-0.0002
1872.00,-0.0002
1871.00,-0.0002
1870.00,-0.0002
1869.00,-0.0002
1868.00,-0.0002
1867.00,-0.0002
1866.00,-0.0002
1865.00,-0.0002
1864.00,-0.0002
1863.00,-0.0002
1862.00,-0.0002
1861.00,-0.0001
1860.00,-0.0001
1859.00,-0.0000
1858.00,-0.0000
1857.00,-0.0000
1856.00,-0.0000
1855.00,-0.0000
1854.00,-0.0001
1853.00,-0.0001
1852.00,-0.0001
1851.00,-0.0001
1850.00,-0.0001
1849.00,0.0000
1848.00,0.0001
1847.00,0.0001
1846.00,0.0001
1845.00,0.0000
1844.00,0.0000
1843.00,0.0001
1842.00,0.0001
1841.00,0.0001
1840.00,0.0001
1839.00,0.0000
1838.00,0.0000
1837.00,0.0000
1836.00,0.0001
1835.00,0.0003
1834.00,0.0003
1833.00,0.0004
1832.00,0.0003
1831.00,0.0002
1830.00,0.0002
1829.00,0.0002
1828.00,0.0001
1827.00,0.0001
1826.00,-0.0000
1825.00,-0.0001
1824.00,-0.0000
1823.00,0.0000
1822.00,0.0001
1821.00,0.0001
1820.00,0.0001
1819.00,0.0001
1818.00,0.0001
1817.00,0.0001
1816.00,0.0001
1815.00,0.0001
1814.00,0.0001
1813.00,0.0002
1812.00,0.0002
1811.00,0.0002
1810.00,0.0002
1809.00,0.0002
1808.00,0.0002
1807.00,0.0002
1806.00,0.0003
1805.00,0.0003
1804.00,0.0004
1803.00,0.0004
1802.00,0.0005
1801.00,0.0005
1800.00,0.0005
1799.00,0.0004
1798.00,0.0004
1797.00,0.0004
1796.00,0.0004
1795.00,0.0004
1794.00,0.0005
1793.00,0.0006
1792.00,0.0007
1791.00,0.0007
1790.00,0.0007
1789.00,0.0006
1788.00,0.0006
1787.00,0.0006
1786.00,0.0006
1785.00,0.0006
1784.00,0.0007
1783.00,0.0007
1782.00,0.0007
1781.00,0.0007
1780.00,0.0007
1779.00,0.0007
1778.00,0.0007
1777.00,0.0007
1776.00,0.0007
1775.00,0.0007
1774.00,0.0007
1773.00,0.0007
1772.00,0.0007
1771.00,0.0008
1770.00,0.0008
1769.00,0.0009
1768.00,0.0010
1767.00,0.0010
1766.00,0.0010
1765.00,0.0009
1764.00,0.0009
1763.00,0.0009
1762.00,0.0009
1761.00,0.0010
1760.00,0.0010
1759.00,0.0010
1758.00,0.0010
1757.00,0.0011
1756.00,0.0011
1755.00,0.0011
1754.00,0.0011
1753.00,0.0012
1752.00,0.0012
1751.00,0.0012
1750.00,0.0012
1749.00,0.0012
1748.00,0.0012
1747.00,0.0012
1746.00,0.0013
1745.00,0.0013
1744.00,0.0014
1743.00,0.0014
1742.00,0.0015
1741.00,0.0015
1740.00,0.0015
1739.00,0.0015
1738.00,0.0015
1737.00,0.0015
1736.00,0.0015
1735.00,0.0016
1734.00,0.0016
1733.00,0.0017
1732.00,0.0017
1731.00,0.0017
1730.00,0.0017
1729.00,0.0017
1728.00,0.0018
1727.00,0.0018
1726.00,0.0018
1725.00,0.0019
1724.00,0.0019
1723.00,0.0020
1722.00,0.0020
1721.00,0.0020
1720.00,0.0019
1719.00,0.0019
1718.00,0.0019
1717.00,0.0020
1716.00,0.0019
1715.00,0.0019
1714.00,0.0019
1713.00,0.0020
1712.00,0.0021
1711.00,0.0022
1710.00,0.0022
1709.00,0.0022
1708.00,0.0022
1707.00,0.0021
1706.00,0.0020
1705.00,0.0020
1704.00,0.0021
1703.00,0.0022
1702.00,0.0022
1701.00,0.0023
1700.00,0.0024
1699.00,0.0024
1698.00,0.0024
1697.00,0.0024
1696.00,0.0024
1695.00,0.0025
1694.00,0.0026
1693.00,0.0026
1692.00,0.0027
1691.00,0.0027
1690.00,0.0028
1689.00,0.0029
1688.00,0.0029
1687.00,0.0030
1686.00,0.0029
1685.00,0.0029
1684.00,0.0030
1683.00,0.0030
1682.00,0.0031
1681.00,0.0032
1680.00,0.0033
1679.00,0.0034
1678.00,0.0035
1677.00,0.0036
1676.00,0.0037
1675.00,0.0038
1674.00,0.0039
1673.00,0.0039
1672.00,0.0039
1671.00,0.0040
1670.00,0.0040
1669.00,0.0040
1668.00,0.0040
1667.00,0.0040
1666.00,0.0041
1665.00,0.0041
1664.00,0.0041
1663.00,0.0041
1662.00,0.0041
1661.00,0.0042
1660.00,0.0042
1659.00,0.0043
1658.00,0.0043
1657.00,0.0044
1656.00,0.0045
1655.00,0.0045
1654.00,0.0046
1653.00,0.0047
1652.00,0.0048
1651.00,0.0048
1650.00,0.0049
1649.00,0.0050
1648.00,0.0052
1647.00,0.0053
1646.00,0.0054
1645.00,0.0054
1644.00,0.0054
1643.00,0.0055
1642.00,0.0055
1641.00,0.0056
1640.00,0.0057
1639.00,0.0058
1638.00,0.0058
1637.00,0.0059
1636.00,0.0059
1635.00,0.0059
1634.00,0.0058
1633.00,0.0057
1632.00,0.0057
1631.00,0.0056
1630.00,0.0055
1629.00,0.0055
1628.00,0.0055
1627.00,0.0054
1626.00,0.0054
1625.00,0.0054
1624.00,0.0055
1623.00,0.0055
1622.00,0.0054
1621.00,0.0054
1620.00,0.0054
1619.00,0.0053
1618.00,0.0053
1617.00,0.0052
1616.00,0.0052
1615.00,0.0051
1614.00,0.0051
1613.00,0.0051
1612.00,0.0051
1611.00,0.0051
1610.00,0.0051
1609.00,0.0051
1608.00,0.0052
1607.00,0.0052
1606.00,0.0052
1605.00,0.0052
1604.00,0.0052
1603.00,0.0052
1602.00,0.0052
1601.00,0.0052
1600.00,0.0051
1599.00,0.0051
1598.00,0.0050
1597.00,0.0050
1596.00,0.0049
1595.00,0.0049
1594.00,0.0049
1593.00,0.0049
1592.00,0.0049
1591.00,0.0050
1590.00,0.0050
1589.00,0.0051
1588.00,0.0052
1587.00,0.0053
1586.00,0.0054
1585.00,0.0055
1584.00,0.0056
1583.00,0.0058
1582.00,0.0059
1581.00,0.0061
1580.00,0.0062
1579.00,0.0064
1578.00,0.0064
1577.00,0.0064
1576.00,0.0065
1575.00,0.0064
1574.00,0.0064
1573.00,0.0064
1572.00,0.0064
1571.00,0.0063
1570.00,0.0062
1569.00,0.0062
1568.00,0.0061
1567.00,0.0061
1566.00,0.0060
1565.00,0.0060
1564.00,0.0060
1563.00,0.0060
1562.00,0.0060
1561.00,0.0060
1560.00,0.0060
1559.00,0.0061
1558.00,0.0061
1557.00,0.0061
1556.00,0.0063
1555.00,0.0063
1554.00,0.0064
1553.00,0.0064
1552.00,0.0065
1551.00,0.0066
1550.00,0.0068
1549.00,0.0069
1548.00,0.0071
1547.00,0.0072
1546.00,0.0074
1545.00,0.0076
1544.00,0.0078
1543.00,0.0079
1542.00,0.0079
1541.00,0.0078
1540.00,0.0076
1539.00,0.0073
1538.00,0.0070
1537.00,0.0068
1536.00,0.0066
1535.00,0.0064
1534.00,0.0062
1533.00,0.0059
1532.00,0.0058
1531.00,0.0056
1530.00,0.0055
1529.00,0.0054
1528.00,0.0053
1527.00,0.0052
1526.00,0.0052
1525.00,0.0052
1524.00,0.0053
1523.00,0.0053
1522.00,0.0053
1521.00,0.0053
1520.00,0.0053
1519.00,0.0053
1518.00,0.0053
1517.00,0.0054
1516.00,0.0055
1515.00,0.0055
1514.00,0.0056
1513.00,0.0056
1512.00,0.0057
1511.00,0.0058
1510.00,0.0058
1509.00,0.0059
1508.00,0.0059
1507.00,0.0059
1506.00,0.0060
1505.00,0.0061
1504.00,0.0063
1503.00,0.0065
1502.00,0.0067
1501.00,0.0069
1500.00,0.0072
1499.00,0.0075
1498.00,0.0077
1497.00,0.0081
1496.00,0.0085
1495.00,0.0087
1494.00,0.0090
1493.00,0.0093
1492.00,0.0096
1491.00,0.0101
1490.00,0.0105
1489.00,0.0111
1488.00,0.0117
1487.00,0.0122
1486.00,0.0127
1485.00,0.0133
1484.00,0.0140
1483.00,0.0147
1482.00,0.0156
1481.00,0.0167
1480.00,0.0180
1479.00,0.0192
1478.00,0.0207
1477.00,0.0228
1476.00,0.0254
1475.00,0.0284
1474.00,0.0324
1473.00,0.0380
1472.00,0.0444
1471.00,0.0505
1470.00,0.0565
1469.00,0.0628
1468.00,0.0696
1467.00,0.0770
1466.00,0.0853
1465.00,0.0942
1464.00,0.1020
1463.00,0.1074
1462.00,0.1109
1461.00,0.1133
1460.00,0.1149
1459.00,0.1160
1458.00,0.1170
1457.00,0.1179
1456.00,0.1181
1455.00,0.1175
1454.00,0.1166
1453.00,0.1151
1452.00,0.1128
1451.00,0.1092
1450.00,0.1043
1449.00,0.0974
1448.00,0.0886
1447.00,0.0792
1446.00,0.0707
1445.00,0.0633
1444.00,0.0570
1443.00,0.0518
1442.00,0.0478
1441.00,0.0450
1440.00,0.0433
1439.00,0.0425
1438.00,0.0424
1437.00,0.0422
1436.00,0.0411
1435.00,0.0387
1434.00,0.0353
1433.00,0.0312
1432.00,0.0270
1431.00,0.0233
1430.00,0.0204
1429.00,0.0182
1428.00,0.0166
1427.00,0.0156
1426.00,0.0149
1425.00,0.0143
1424.00,0.0138
1423.00,0.0135
1422.00,0.0133
1421.00,0.0131
1420.00,0.0129
1419.00,0.0126
1418.00,0.0124
1417.00,0.0121
1416.00,0.0118
1415.00,0.0116
1414.00,0.0115
1413.00,0.0113
1412.00,0.0112
1411.00,0.0111
1410.00,0.0110
1409.00,0.0109
1408.00,0.0108
1407.00,0.0107
1406.00,0.0108
1405.00,0.0108
1404.00,0.0108
1403.00,0.0108
1402.00,0.0109
1401.00,0.0110
1400.00,0.0110
1399.00,0.0112
1398.00,0.0114
1397.00,0.0116
1396.00,0.0118
1395.00,0.0121
1394.00,0.0126
1393.00,0.0130
1392.00,0.0135
1391.00,0.0142
1390.00,0.0153
1389.00,0.0166
1388.00,0.0187
1387.00,0.0217
1386.00,0.0259
1385.00,0.0314
1384.00,0.0391
1383.00,0.0498
1382.00,0.0642
1381.00,0.0827
1380.00,0.1051
1379.00,0.1299
1378.00,0.1529
1377.00,0.1687
1376.00,0.1726
1375.00,0.1624
1374.00,0.1412
1373.00,0.1165
1372.00,0.0942
1371.00,0.0759
1370.00,0.0615
1369.00,0.0506
1368.00,0.0430
1367.00,0.0383
1366.00,0.0356
1365.00,0.0345
1364.00,0.0346
1363.00,0.0358
1362.00,0.0376
1361.00,0.0395
1360.00,0.0410
1359.00,0.0415
1358.00,0.0406
1357.00,0.0384
1356.00,0.0352
1355.00,0.0316
1354.00,0.0281
1353.00,0.0251
1352.00,0.0226
1351.00,0.0206
1350.00,0.0190
1349.00,0.0176
1348.00,0.0165
1347.00,0.0156
1346.00,0.0148
1345.00,0.0141
1344.00,0.0134
1343.00,0.0129
1342.00,0.0124
1341.00,0.0121
1340.00,0.0118
1339.00,0.0117
1338.00,0.0115
1337.00,0.0115
1336.00,0.0116
1335.00,0.0118
1334.00,0.0120
1333.00,0.0124
1332.00,0.0127
1331.00,0.0130
1330.00,0.0131
1329.00,0.0130
1328.00,0.0127
1327.00,0.0123
1326.00,0.0118
1325.00,0.0113
1324.00,0.0107
1323.00,0.0102
1322.00,0.0098
1321.00,0.0095
1320.00,0.0093
1319.00,0.0092
1318.00,0.0091
1317.00,0.0090
1316.00,0.0089
1315.00,0.0089
1314.00,0.0088
1313.00,0.0089
1312.00,0.0090
1311.00,0.0092
1310.00,0.0096
1309.00,0.0104
1308.00,0.0114
1307.00,0.0127
1306.00,0.0139
1305.00,0.0148
1304.00,0.0149
1303.00,0.0145
1302.00,0.0139
1301.00,0.0133
1300.00,0.0129
1299.00,0.0128
1298.00,0.0127
1297.00,0.0126
1296.00,0.0125
1295.00,0.0122
1294.00,0.0118
1293.00,0.0114
1292.00,0.0109
1291.00,0.0104
1290.00,0.0100
1289.00,0.0096
1288.00,0.0093
1287.00,0.0090
1286.00,0.0088
1285.00,0.0087
1284.00,0.0085
1283.00,0.0083
1282.00,0.0082
1281.00,0.0081
1280.00,0.0080
1279.00,0.0079
1278.00,0.0078
1277.00,0.0077
1276.00,0.0077
1275.00,0.0077
1274.00,0.0078
1273.00,0.0078
1272.00,0.0078
1271.00,0.0078
1270.00,0.0080
1269.00,0.0082
1268.00,0.0085
1267.00,0.0088
1266.00,0.0092
1265.00,0.0095
1264.00,0.0099
1263.00,0.0102
1262.00,0.0107
1261.00,0.0111
1260.00,0.0117
1259.00,0.0125
1258.00,0.0131
1257.00,0.0137
1256.00,0.0138
1255.00,0.0136
1254.00,0.0128
1253.00,0.0119
1252.00,0.0109
1251.00,0.0101
1250.00,0.0095
1249.00,0.0091
1248.00,0.0087
1247.00,0.0084
1246.00,0.0082
1245.00,0.0081
1244.00,0.0079
1243.00,0.0079
1242.00,0.0078
1241.00,0.0078
1240.00,0.0077
1239.00,0.0076
1238.00,0.0076
1237.00,0.0076
1236.00,0.0076
1235.00,0.0076
1234.00,0.0076
1233.00,0.0076
1232.00,0.0077
1231.00,0.0077
1230.00,0.0079
1229.00,0.0080
1228.00,0.0083
1227.00,0.0085
1226.00,0.0088
1225.00,0.0091
1224.00,0.0094
1223.00,0.0097
1222.00,0.0100
1221.00,0.0102
1220.00,0.0103
1219.00,0.0104
1218.00,0.0103
1217.00,0.0101
1216.00,0.0099
1215.00,0.0097
1214.00,0.0095
1213.00,0.0092
1212.00,0.0090
1211.00,0.0088
1210.00,0.0086
1209.00,0.0084
1208.00,0.0083
1207.00,0.0082
1206.00,0.0082
1205.00,0.0082
1204.00,0.0081
1203.00,0.0081
1202.00,0.0081
1201.00,0.0080
1200.00,0.0080
1199.00,0.0081
1198.00,0.0082
1197.00,0.0082
1196.00,0.0082
1195.00,0.0082
1194.00,0.0082
1193.00,0.0081
1192.00,0.0081
1191.00,0.0082
1190.00,0.0082
1189.00,0.0082
1188.00,0.0082
1187.00,0.0083
1186.00,0.0084
1185.00,0.0084
1184.00,0.0085
1183.00,0.0085
1182.00,0.0086
1181.00,0.0088
1180.00,0.0091
1179.00,0.0097
1178.00,0.0104
1177.00,0.0114
1176.00,0.0126
1175.00,0.0142
1174.00,0.0162
1173.00,0.0189
1172.00,0.0220
1171.00,0.0256
1170.00,0.0290
1169.00,0.0319
1168.00,0.0337
1167.00,0.0341
1166.00,0.0333
1165.00,0.0316
1164.00,0.0296
1163.00,0.0275
1162.00,0.0256
1161.00,0.0240
1160.00,0.0228
1159.00,0.0219
1158.00,0.0213
1157.00,0.0209
1156.00,0.0206
1155.00,0.0203
1154.00,0.0200
1153.00,0.0196
1152.00,0.0191
1151.00,0.0184
1150.00,0.0176
1149.00,0.0167
1148.00,0.0158
1147.00,0.0150
1146.00,0.0142
1145.00,0.0134
1144.00,0.0127
1143.00,0.0120
1142.00,0.0113
1141.00,0.0108
1140.00,0.0103
1139.00,0.0099
1138.00,0.0096
1137.00,0.0094
1136.00,0.0093
1135.00,0.0092
1134.00,0.0090
1133.00,0.0089
1132.00,0.0087
1131.00,0.0086
1130.00,0.0086
1129.00,0.0086
1128.00,0.0086
1127.00,0.0086
1126.00,0.0087
1125.00,0.0088
1124.00,0.0089
1123.00,0.0090
1122.00,0.0091
1121.00,0.0091
1120.00,0.0091
1119.00,0.0091
1118.00,0.0092
1117.00,0.0093
1116.00,0.0094
1115.00,0.0095
1114.00,0.0096
1113.00,0.0098
1112.00,0.0099
1111.00,0.0102
1110.00,0.0105
1109.00,0.0109
1108.00,0.0114
1107.00,0.0119
1106.00,0.0125
1105.00,0.0130
1104.00,0.0135
1103.00,0.0137
1102.00,0.0137
1101.00,0.0134
1100.00,0.0129
1099.00,0.0123
1098.00,0.0116
1097.00,0.0111
1096.00,0.0106
1095.00,0.0103
1094.00,0.0101
1093.00,0.0099
1092.00,0.0097
1091.00,0.0095
1090.00,0.0094
1089.00,0.0093
1088.00,0.0091
1087.00,0.0090
1086.00,0.0088
1085.00,0.0088
1084.00,0.0088
1083.00,0.0088
1082.00,0.0088
1081.00,0.0087
1080.00,0.0085
1079.00,0.0083
1078.00,0.0082
1077.00,0.0081
1076.00,0.0080
1075.00,0.0078
1074.00,0.0078
1073.00,0.0077
1072.00,0.0077
1071.00,0.0077
1070.00,0.0077
1069.00,0.0077
1068.00,0.0078
1067.00,0.0078
1066.00,0.0078
1065.00,0.0078
1064.00,0.0078
1063.00,0.0078
1062.00,0.0078
1061.00,0.0078
1060.00,0.0078
1059.00,0.0078
1058.00,0.0078
1057.00,0.0079
1056.00,0.0079
1055.00,0.0080
1054.00,0.0080
1053.00,0.0082
1052.00,0.0084
1051.00,0.0087
1050.00,0.0090
1049.00,0.0094
1048.00,0.0097
1047.00,0.0100
1046.00,0.0102
1045.00,0.0103
1044.00,0.0104
1043.00,0.0103
1042.00,0.0101
1041.00,0.0100
1040.00,0.0098
1039.00,0.0098
1038.00,0.0098
1037.00,0.0099
1036.00,0.0099
1035.00,0.0098
1034.00,0.0096
1033.00,0.0094
1032.00,0.0092
1031.00,0.0090
1030.00,0.0088
1029.00,0.0086
1028.00,0.0085
1027.00,0.0084
1026.00,0.0085
1025.00,0.0086
1024.00,0.0086
1023.00,0.0087
1022.00,0.0087
1021.00,0.0087
1020.00,0.0088
1019.00,0.0089
1018.00,0.0090
1017.00,0.0091
1016.00,0.0093
1015.00,0.0095
1014.00,0.0098
1013.00,0.0101
1012.00,0.0105
1011.00,0.0109
1010.00,0.0112
1009.00,0.0115
1008.00,0.0118
1007.00,0.0124
1006.00,0.0133
1005.00,0.0146
1004.00,0.0165
1003.00,0.0191
1002.00,0.0225
1001.00,0.0268
1000.00,0.0313
999.00,0.0353
998.00,0.0374
997.00,0.0370
996.00,0.0340
995.00,0.0296
994.00,0.0248
993.00,0.0207
992.00,0.0175
991.00,0.0152
990.00,0.0137
989.00,0.0126
988.00,0.0119
987.00,0.0115
986.00,0.0115
985.00,0.0116
984.00,0.0121
983.00,0.0128
982.00,0.0138
981.00,0.0154
980.00,0.0176
979.00,0.0207
978.00,0.0245
977.00,0.0291
976.00,0.0342
975.00,0.0391
974.00,0.0430
973.00,0.0445
972.00,0.0432
971.00,0.0391
970.00,0.0334
969.00,0.0276
968.00,0.0225
967.00,0.0187
966.00,0.0159
965.00,0.0140
964.00,0.0125
963.00,0.0115
962.00,0.0107
961.00,0.0101
960.00,0.0096
959.00,0.0093
958.00,0.0089
957.00,0.0086
956.00,0.0083
955.00,0.0080
954.00,0.0078
953.00,0.0076
952.00,0.0075
951.00,0.0074
950.00,0.0074
949.00,0.0074
948.00,0.0074
947.00,0.0075
946.00,0.0076
945.00,0.0079
944.00,0.0081
943.00,0.0084
942.00,0.0088
941.00,0.0091
940.00,0.0092
939.00,0.0090
938.00,0.0086
937.00,0.0081
936.00,0.0076
935.00,0.0071
934.00,0.0068
933.00,0.0066
932.00,0.0065
931.00,0.0065
930.00,0.0063
929.00,0.0062
928.00,0.0061
927.00,0.0061
926.00,0.0061
925.00,0.0062
924.00,0.0062
923.00,0.0061
922.00,0.0061
921.00,0.0061
920.00,0.0061
919.00,0.0062
918.00,0.0062
917.00,0.0062
916.00,0.0062
915.00,0.0063
914.00,0.0064
913.00,0.0065
912.00,0.0067
911.00,0.0069
910.00,0.0071
909.00,0.0074
908.00,0.0078
907.00,0.0082
906.00,0.0088
905.00,0.0096
904.00,0.0109
903.00,0.0125
902.00,0.0143
901.00,0.0160
900.00,0.0170
899.00,0.0172
898.00,0.0164
897.00,0.0150
896.00,0.0132
895.00,0.0116
894.00,0.0103
893.00,0.0093
892.00,0.0086
891.00,0.0081
890.00,0.0079
889.00,0.0077
888.00,0.0076
887.00,0.0075
886.00,0.0075
885.00,0.0074
884.00,0.0073
883.00,0.0073
882.00,0.0073
881.00,0.0074
880.00,0.0074
879.00,0.0074
878.00,0.0074
877.00,0.0074
876.00,0.0075
875.00,0.0077
874.00,0.0078
873.00,0.0078
872.00,0.0078
871.00,0.0078
870.00,0.0078
869.00,0.0077
868.00,0.0078
867.00,0.0078
866.00,0.0079
865.00,0.0080
864.00,0.0080
863.00,0.0080
862.00,0.0081
861.00,0.0083
860.00,0.0085
859.00,0.0088
858.00,0.0090
857.00,0.0092
856.00,0.0092
855.00,0.0093
854.00,0.0093
853.00,0.0095
852.00,0.0097
851.00,0.0101
850.00,0.0106
849.00,0.0113
848.00,0.0125
847.00,0.0141
846.00,0.0166
845.00,0.0204
844.00,0.0256
843.00,0.0317
842.00,0.0369
841.00,0.0388
840.00,0.0365
839.00,0.0311
838.00,0.0249
837.00,0.0198
836.00,0.0164
835.00,0.0144
834.00,0.0132
833.00,0.0125
832.00,0.0120
831.00,0.0117
830.00,0.0114
829.00,0.0111
828.00,0.0108
827.00,0.0106
826.00,0.0104
825.00,0.0103
824.00,0.0102
823.00,0.0101
822.00,0.0102
821.00,0.0103
820.00,0.0106
819.00,0.0110
818.00,0.0114
817.00,0.0119
816.00,0.0126
815.00,0.0136
814.00,0.0150
813.00,0.0168
812.00,0.0187
811.00,0.0204
810.00,0.0216
809.00,0.0221
808.00,0.0217
807.00,0.0206
806.00,0.0190
805.00,0.0173
804.00,0.0157
803.00,0.0145
802.00,0.0136
801.00,0.0129
800.00,0.0124
799.00,0.0118
798.00,0.0114
797.00,0.0111
796.00,0.0107
795.00,0.0104
794.00,0.0099
793.00,0.0096
792.00,0.0093
791.00,0.0090
790.00,0.0086
789.00,0.0082
788.00,0.0079
787.00,0.0076
786.00,0.0075
785.00,0.0073
784.00,0.0071
783.00,0.0069
782.00,0.0068
781.00,0.0067
780.00,0.0068
779.00,0.0068
778.00,0.0069
777.00,0.0069
776.00,0.0069
775.00,0.0070
774.00,0.0070
773.00,0.0069
772.00,0.0068
771.00,0.0067
770.00,0.0067
769.00,0.0066
768.00,0.0066
767.00,0.0065
766.00,0.0065
765.00,0.0065
764.00,0.0065
763.00,0.0066
762.00,0.0067
761.00,0.0068
760.00,0.0069
759.00,0.0068
758.00,0.0068
757.00,0.0067
756.00,0.0068
755.00,0.0070
754.00,0.0072
753.00,0.0074
752.00,0.0076
751.00,0.0078
750.00,0.0080
749.00,0.0082
748.00,0.0083
747.00,0.0084
746.00,0.0085
745.00,0.0087
744.00,0.0088
743.00,0.0090
742.00,0.0093
741.00,0.0097
740.00,0.0100
739.00,0.0103
738.00,0.0107
737.00,0.0111
736.00,0.0115
735.00,0.0119
734.00,0.0123
733.00,0.0129
732.00,0.0136
731.00,0.0145
730.00,0.0152
729.00,0.0157
728.00,0.0158
727.00,0.0157
726.00,0.0157
725.00,0.0159
724.00,0.0164
723.00,0.0170
722.00,0.0176
721.00,0.0181
720.00,0.0180
719.00,0.0172
718.00,0.0159
717.00,0.0146
716.00,0.0135
715.00,0.0127
714.00,0.0122
713.00,0.0118
712.00,0.0115
711.00,0.0112
710.00,0.0111
709.00,0.0109
708.00,0.0108
707.00,0.0106
706.00,0.0103
705.00,0.0100
704.00,0.0098
703.00,0.0098
702.00,0.0096
701.00,0.0094
700.00,0.0091
699.00,0.0089
698.00,0.0089
697.00,0.0091
696.00,0.0093
695.00,0.0094
694.00,0.0093
693.00,0.0092
692.00,0.0090
691.00,0.0089
690.00,0.0089
689.00,0.0089
688.00,0.0089
687.00,0.0089
686.00,0.0089
685.00,0.0090
684.00,0.0092
683.00,0.0094
682.00,0.0096
681.00,0.0096
680.00,0.0096
679.00,0.0096
678.00,0.0096
677.00,0.0095
676.00,0.0094
675.00,0.0092
674.00,0.0090
673.00,0.0089
672.00,0.0090
671.00,0.0091
670.00,0.0090
669.00,0.0087
668.00,0.0083
667.00,0.0082
666.00,0.0084
665.00,0.0085
664.00,0.0086
663.00,0.0086
662.00,0.0087
661.00,0.0087
660.00,0.0087
659.00,0.0085
658.00,0.0084
657.00,0.0083
656.00,0.0082
655.00,0.0081
654.00,0.0079
653.00,0.0078
652.00,0.0079
651.00,0.0080
650.00,0.0082
649.00,0.0084
648.00,0.0084
647.00,0.0083
646.00,0.0083
645.00,0.0085
644.00,0.0086
643.00,0.0087
642.00,0.0088
641.00,0.0087
640.00,0.0087
639.00,0.0088
638.00,0.0088
637.00,0.0087
636.00,0.0084
635.00,0.0081
634.00,0.0079
633.00,0.0080
632.00,0.0082
631.00,0.0085
630.00,0.0086
629.00,0.0085
628.00,0.0084
627.00,0.0084
626.00,0.0085
625.00,0.0087
624.00,0.0089
623.00,0.0090
622.00,0.0091
621.00,0.0092
620.00,0.0092
619.00,0.0092
618.00,0.0091
617.00,0.0090
616.00,0.0089
615.00,0.0088
614.00,0.0089
613.00,0.0090
612.00,0.0091
611.00,0.0091
610.00,0.0089
609.00,0.0086
608.00,0.0084
607.00,0.0084
606.00,0.0086
605.00,0.0090
604.00,0.0092
603.00,0.0091
602.00,0.0087
601.00,0.0083
600.00,0.0079
599.00,0.0077
598.00,0.0077
597.00,0.0080
596.00,0.0082
595.00,0.0082
594.00,0.0081
593.00,0.0080
592.00,0.0081
591.00,0.0082
590.00,0.0083
589.00,0.0085
588.00,0.0085
587.00,0.0085
586.00,0.0083
585.00,0.0082
584.00,0.0081
583.00,0.0082
582.00,0.0084
581.00,0.0088
580.00,0.0090
579.00,0.0090
578.00,0.0088
577.00,0.0086
576.00,0.0086
575.00,0.0087
574.00,0.0086
573.00,0.0083
572.00,0.0079
571.00,0.0077
570.00,0.0076
569.00,0.0077
568.00,0.0081
567.00,0.0085
566.00,0.0088
565.00,0.0090
564.00,0.0092
563.00,0.0095
562.00,0.0096
561.00,0.0094
560.00,0.0090
559.00,0.0085
558.00,0.0082
557.00,0.0082
556.00,0.0084
555.00,0.0086
554.00,0.0086
553.00,0.0084
552.00,0.0083
551.00,0.0084
550.00,0.0087
549.00,0.0091
548.00,0.0093
547.00,0.0095
546.00,0.0095
545.00,0.0091
544.00,0.0086
543.00,0.0081
542.00,0.0081
541.00,0.0086
540.00,0.0093
539.00,0.0099
538.00,0.0102
537.00,0.0102
536.00,0.0101
535.00,0.0099
534.00,0.0097
533.00,0.0097
532.00,0.0098
531.00,0.0099
530.00,0.0100
529.00,0.0102
528.00,0.0104
527.00,0.0107
526.00,0.0108
525.00,0.0104
524.00,0.0098
523.00,0.0092
522.00,0.0092
521.00,0.0096
520.00,0.0101
519.00,0.0102
518.00,0.0097
517.00,0.0088
516.00,0.0082
515.00,0.0080
514.00,0.0084
513.00,0.0089
512.00,0.0093
511.00,0.0095
510.00,0.0095
509.00,0.0093
508.00,0.0089
507.00,0.0084
506.00,0.0081
505.00,0.0082
504.00,0.0085
503.00,0.0091
502.00,0.0094
501.00,0.0093
500.00,0.0087
499.00,0.0082
498.00,0.0078
497.00,0.0078
496.00,0.0083
495.00,0.0088
494.00,0.0091
493.00,0.0086
492.00,0.0075
491.00,0.0066
490.00,0.0063
489.00,0.0069
488.00,0.0080
487.00,0.0090
486.00,0.0097
485.00,0.0100
484.00,0.0098
483.00,0.0094
482.00,0.0089
481.00,0.0088
480.00,0.0090
479.00,0.0095
478.00,0.0098
477.00,0.0099
476.00,0.0099
475.00,0.0098
474.00,0.0093
473.00,0.0082
472.00,0.0070
471.00,0.0065
470.00,0.0069
469.00,0.0076
468.00,0.0085
467.00,0.0096
466.00,0.0110
465.00,0.0122
464.00,0.0131
463.00,0.0136
462.00,0.0141
461.00,0.0146
460.00,0.0154
459.00,0.0162
458.00,0.0169
457.00,0.0172
456.00,0.0170
455.00,0.0161
454.00,0.0148
453.00,0.0129
452.00,0.0111
451.00,0.0098
450.00,0.0094
