Created as New Dataset,Sample 007 By Administrator Date Thursday, September 04 2025
cm-1,A
4000.00,0.0009
3999.00,0.0009
3998.00,0.0009
3997.00,0.0008
3996.00,0.0008
3995.00,0.0008
3994.00,0.0008
3993.00,0.0009
3992.00,0.0009
3991.00,0.0009
3990.00,0.0009
3989.00,0.0008
3988.00,0.0008
3987.00,0.0008
3986.00,0.0008
3985.00,0.0008
3984.00,0.0007
3983.00,0.0007
3982.00,0.0007
3981.00,0.0007
3980.00,0.0007
3979.00,0.0007
3978.00,0.0007
3977.00,0.0007
3976.00,0.0007
3975.00,0.0007
3974.00,0.0007
3973.00,0.0007
3972.00,0.0007
3971.00,0.0007
3970.00,0.0007
3969.00,0.0007
3968.00,0.0008
3967.00,0.0008
3966.00,0.0007
3965.00,0.0007
3964.00,0.0007
3963.00,0.0007
3962.00,0.0007
3961.00,0.0007
3960.00,0.0007
3959.00,0.0007
3958.00,0.0007
3957.00,0.0007
3956.00,0.0006
3955.00,0.0006
3954.00,0.0006
3953.00,0.0006
3952.00,0.0006
3951.00,0.0006
3950.00,0.0006
3949.00,0.0006
3948.00,0.0006
3947.00,0.0006
3946.00,0.0006
3945.00,0.0006
3944.00,0.0007
3943.00,0.0007
3942.00,0.0007
3941.00,0.0007
3940.00,0.0007
3939.00,0.0007
3938.00,0.0007
3937.00,0.0007
3936.00,0.0007
3935.00,0.0007
3934.00,0.0008
3933.00,0.0008
3932.00,0.0008
3931.00,0.0008
3930.00,0.0008
3929.00,0.0008
3928.00,0.0008
3927.00,0.0008
3926.00,0.0008
3925.00,0.0008
3924.00,0.0008
3923.00,0.0007
3922.00,0.0007
3921.00,0.0007
3920.00,0.0007
3919.00,0.0007
3918.00,0.0007
3917.00,0.0007
3916.00,0.0007
3915.00,0.0007
3914.00,0.0007
3913.00,0.0006
3912.00,0.0006
3911.00,0.0007
3910.00,0.0007
3909.00,0.0007
3908.00,0.0008
3907.00,0.0008
3906.00,0.0008
3905.00,0.0008
3904.00,0.0008
3903.00,0.0007
3902.00,0.0007
3901.00,0.0007
3900.00,0.0007
3899.00,0.0006
3898.00,0.0006
3897.00,0.0007
3896.00,0.0007
3895.00,0.0007
3894.00,0.0007
3893.00,0.0007
3892.00,0.0007
3891.00,0.0007
3890.00,0.0007
3889.00,0.0007
3888.00,0.0007
3887.00,0.0006
3886.00,0.0006
3885.00,0.0006
3884.00,0.0007
3883.00,0.0007
3882.00,0.0006
3881.00,0.0006
3880.00,0.0006
3879.00,0.0007
3878.00,0.0007
3877.00,0.0007
3876.00,0.0007
3875.00,0.0007
3874.00,0.0007
3873.00,0.0007
3872.00,0.0007
3871.00,0.0007
3870.00,0.0007
3869.00,0.0007
3868.00,0.0007
3867.00,0.0006
3866.00,0.0006
3865.00,0.0005
3864.00,0.0005
3863.00,0.0005
3862.00,0.0005
3861.00,0.0005
3860.00,0.0006
3859.00,0.0006
3858.00,0.0007
3857.00,0.0007
3856.00,0.0007
3855.00,0.0006
3854.00,0.0006
3853.00,0.0006
3852.00,0.0006
3851.00,0.0006
3850.00,0.0006
3849.00,0.0006
3848.00,0.0006
3847.00,0.0006
3846.00,0.0006
3845.00,0.0006
3844.00,0.0006
3843.00,0.0006
3842.00,0.0006
3841.00,0.0006
3840.00,0.0006
3839.00,0.0006
3838.00,0.0006
3837.00,0.0006
3836.00,0.0006
3835.00,0.0006
3834.00,0.0006
3833.00,0.0006
3832.00,0.0006
3831.00,0.0006
3830.00,0.0006
3829.00,0.0006
3828.00,0.0006
3827.00,0.0005
3826.00,0.0005
3825.00,0.0005
3824.00,0.0005
3823.00,0.0005
3822.00,0.0005
3821.00,0.0006
3820.00,0.0006
3819.00,0.0007
3818.00,0.0006
3817.00,0.0006
3816.00,0.0005
3815.00,0.0005
3814.00,0.0006
3813.00,0.0006
3812.00,0.0006
3811.00,0.0006
3810.00,0.0007
3809.00,0.0007
3808.00,0.0007
3807.00,0.0007
3806.00,0.0007
3805.00,0.0006
3804.00,0.0006
3803.00,0.0006
3802.00,0.0006
3801.00,0.0006
3800.00,0.0006
3799.00,0.0006
3798.00,0.0006
3797.00,0.0006
3796.00,0.0006
3795.00,0.0007
3794.00,0.0006
3793.00,0.0006
3792.00,0.0006
3791.00,0.0006
3790.00,0.0006
3789.00,0.0006
3788.00,0.0006
3787.00,0.0006
3786.00,0.0007
3785.00,0.0007
3784.00,0.0007
3783.00,0.0007
3782.00,0.0007
3781.00,0.0007
3780.00,0.0007
3779.00,0.0007
3778.00,0.0007
3777.00,0.0007
3776.00,0.0007
3775.00,0.0007
3774.00,0.0007
3773.00,0.0007
3772.00,0.0007
3771.00,0.0007
3770.00,0.0007
3769.00,0.0007
3768.00,0.0008
3767.00,0.0008
3766.00,0.0008
3765.00,0.0008
3764.00,0.0008
3763.00,0.0008
3762.00,0.0008
3761.00,0.0008
3760.00,0.0008
3759.00,0.0008
3758.00,0.0008
3757.00,0.0008
3756.00,0.0008
3755.00,0.0008
3754.00,0.0008
3753.00,0.0008
3752.00,0.0007
3751.00,0.0006
3750.00,0.0006
3749.00,0.0005
3748.00,0.0005
3747.00,0.0005
3746.00,0.0005
3745.00,0.0005
3744.00,0.0006
3743.00,0.0006
3742.00,0.0006
3741.00,0.0006
3740.00,0.0006
3739.00,0.0007
3738.00,0.0007
3737.00,0.0007
3736.00,0.0006
3735.00,0.0005
3734.00,0.0005
3733.00,0.0004
3732.00,0.0004
3731.00,0.0004
3730.00,0.0004
3729.00,0.0003
3728.00,0.0003
3727.00,0.0003
3726.00,0.0003
3725.00,0.0004
3724.00,0.0004
3723.00,0.0004
3722.00,0.0004
3721.00,0.0004
3720.00,0.0004
3719.00,0.0004
3718.00,0.0004
3717.00,0.0004
3716.00,0.0005
3715.00,0.0005
3714.00,0.0006
3713.00,0.0006
3712.00,0.0006
3711.00,0.0006
3710.00,0.0006
3709.00,0.0005
3708.00,0.0005
3707.00,0.0004
3706.00,0.0004
3705.00,0.0004
3704.00,0.0004
3703.00,0.0004
3702.00,0.0005
3701.00,0.0005
3700.00,0.0006
3699.00,0.0006
3698.00,0.0006
3697.00,0.0005
3696.00,0.0006
3695.00,0.0006
3694.00,0.0006
3693.00,0.0006
3692.00,0.0005
3691.00,0.0005
3690.00,0.0004
3689.00,0.0004
3688.00,0.0005
3687.00,0.0005
3686.00,0.0005
3685.00,0.0005
3684.00,0.0005
3683.00,0.0006
3682.00,0.0006
3681.00,0.0006
3680.00,0.0006
3679.00,0.0007
3678.00,0.0008
3677.00,0.0008
3676.00,0.0008
3675.00,0.0007
3674.00,0.0006
3673.00,0.0005
3672.00,0.0005
3671.00,0.0004
3670.00,0.0004
3669.00,0.0004
3668.00,0.0004
3667.00,0.0005
3666.00,0.0005
3665.00,0.0005
3664.00,0.0005
3663.00,0.0005
3662.00,0.0005
3661.00,0.0005
3660.00,0.0006
3659.00,0.0006
3658.00,0.0005
3657.00,0.0005
3656.00,0.0004
3655.00,0.0004
3654.00,0.0005
3653.00,0.0005
3652.00,0.0005
3651.00,0.0005
3650.00,0.0005
3649.00,0.0005
3648.00,0.0005
3647.00,0.0006
3646.00,0.0006
3645.00,0.0006
3644.00,0.0006
3643.00,0.0006
3642.00,0.0006
3641.00,0.0006
3640.00,0.0007
3639.00,0.0007
3638.00,0.0007
3637.00,0.0007
3636.00,0.0007
3635.00,0.0007
3634.00,0.0007
3633.00,0.0007
3632.00,0.0007
3631.00,0.0007
3630.00,0.0007
3629.00,0.0007
3628.00,0.0008
3627.00,0.0008
3626.00,0.0008
3625.00,0.0007
3624.00,0.0007
3623.00,0.0008
3622.00,0.0008
3621.00,0.0009
3620.00,0.0009
3619.00,0.0009
3618.00,0.0009
3617.00,0.0009
3616.00,0.0009
3615.00,0.0009
3614.00,0.0010
3613.00,0.0011
3612.00,0.0011
3611.00,0.0011
3610.00,0.0011
3609.00,0.0011
3608.00,0.0011
3607.00,0.0011
3606.00,0.0011
3605.00,0.0011
3604.00,0.0011
3603.00,0.0011
3602.00,0.0011
3601.00,0.0011
3600.00,0.0011
3599.00,0.0012
3598.00,0.0012
3597.00,0.0013
3596.00,0.0013
3595.00,0.0013
3594.00,0.0013
3593.00,0.0013
3592.00,0.0013
3591.00,0.0013
3590.00,0.0014
3589.00,0.0014
3588.00,0.0015
3587.00,0.0015
3586.00,0.0016
3585.00,0.0016
3584.00,0.0015
3583.00,0.0016
3582.00,0.0016
3581.00,0.0016
3580.00,0.0015
3579.00,0.0015
3578.00,0.0015
3577.00,0.0016
3576.00,0.0016
3575.00,0.0016
3574.00,0.0017
3573.00,0.0017
3572.00,0.0017
3571.00,0.0017
3570.00,0.0018
3569.00,0.0018
3568.00,0.0018
3567.00,0.0019
3566.00,0.0019
3565.00,0.0019
3564.00,0.0020
3563.00,0.0020
3562.00,0.0020
3561.00,0.0020
3560.00,0.0020
3559.00,0.0021
3558.00,0.0021
3557.00,0.0021
3556.00,0.0022
3555.00,0.0022
3554.00,0.0023
3553.00,0.0023
3552.00,0.0023
3551.00,0.0023
3550.00,0.0023
3549.00,0.0023
3548.00,0.0023
3547.00,0.0024
3546.00,0.0024
3545.00,0.0024
3544.00,0.0025
3543.00,0.0025
3542.00,0.0025
3541.00,0.0026
3540.00,0.0026
3539.00,0.0026
3538.00,0.0027
3537.00,0.0027
3536.00,0.0027
3535.00,0.0027
3534.00,0.0027
3533.00,0.0027
3532.00,0.0027
3531.00,0.0027
3530.00,0.0028
3529.00,0.0028
3528.00,0.0028
3527.00,0.0028
3526.00,0.0029
3525.00,0.0029
3524.00,0.0029
3523.00,0.0029
3522.00,0.0030
3521.00,0.0030
3520.00,0.0031
3519.00,0.0031
3518.00,0.0032
3517.00,0.0032
3516.00,0.0031
3515.00,0.0031
3514.00,0.0032
3513.00,0.0032
3512.00,0.0033
3511.00,0.0033
3510.00,0.0033
3509.00,0.0034
3508.00,0.0034
3507.00,0.0034
3506.00,0.0034
3505.00,0.0034
3504.00,0.0035
3503.00,0.0035
3502.00,0.0035
3501.00,0.0035
3500.00,0.0035
3499.00,0.0035
3498.00,0.0035
3497.00,0.0036
3496.00,0.0037
3495.00,0.0038
3494.00,0.0038
3493.00,0.0039
3492.00,0.0039
3491.00,0.0038
3490.00,0.0038
3489.00,0.0039
3488.00,0.0039
3487.00,0.0040
3486.00,0.0040
3485.00,0.0041
3484.00,0.0041
3483.00,0.0041
3482.00,0.0041
3481.00,0.0041
3480.00,0.0041
3479.00,0.0041
3478.00,0.0041
3477.00,0.0042
3476.00,0.0042
3475.00,0.0043
3474.00,0.0043
3473.00,0.0043
3472.00,0.0044
3471.00,0.0044
3470.00,0.0044
3469.00,0.0044
3468.00,0.0044
3467.00,0.0044
3466.00,0.0044
3465.00,0.0045
3464.00,0.0045
3463.00,0.0045
3462.00,0.0046
3461.00,0.0046
3460.00,0.0046
3459.00,0.0046
3458.00,0.0047
3457.00,0.0047
3456.00,0.0047
3455.00,0.0047
3454.00,0.0047
3453.00,0.0047
3452.00,0.0048
3451.00,0.0048
3450.00,0.0048
3449.00,0.0048
3448.00,0.0048
3447.00,0.0048
3446.00,0.0048
3445.00,0.0049
3444.00,0.0049
3443.00,0.0050
3442.00,0.0050
3441.00,0.0051
3440.00,0.0051
3439.00,0.0052
3438.00,0.0052
3437.00,0.0052
3436.00,0.0052
3435.00,0.0052
3434.00,0.0052
3433.00,0.0052
3432.00,0.0052
3431.00,0.0053
3430.00,0.0053
3429.00,0.0054
3428.00,0.0054
3427.00,0.0054
3426.00,0.0054
3425.00,0.0054
3424.00,0.0055
3423.00,0.0055
3422.00,0.0055
3421.00,0.0054
3420.00,0.0054
3419.00,0.0054
3418.00,0.0055
3417.00,0.0055
3416.00,0.0056
3415.00,0.0056
3414.00,0.0057
3413.00,0.0057
3412.00,0.0057
3411.00,0.0057
3410.00,0.0058
3409.00,0.0058
3408.00,0.0058
3407.00,0.0058
3406.00,0.0058
3405.00,0.0058
3404.00,0.0059
3403.00,0.0059
3402.00,0.0060
3401.00,0.0060
3400.00,0.0060
3399.00,0.0060
3398.00,0.0060
3397.00,0.0059
3396.00,0.0059
3395.00,0.0059
3394.00,0.0060
3393.00,0.0060
3392.00,0.0060
3391.00,0.0060
3390.00,0.0060
3389.00,0.0060
3388.00,0.0060
3387.00,0.0060
3386.00,0.0060
3385.00,0.0060
3384.00,0.0060
3383.00,0.0060
3382.00,0.0060
3381.00,0.0060
3380.00,0.0060
3379.00,0.0060
3378.00,0.0060
3377.00,0.0060
3376.00,0.0060
3375.00,0.0060
3374.00,0.0060
3373.00,0.0060
3372.00,0.0060
3371.00,0.0060
3370.00,0.0061
3369.00,0.0061
3368.00,0.0061
3367.00,0.0061
3366.00,0.0060
3365.00,0.0060
3364.00,0.0060
3363.00,0.0060
3362.00,0.0060
3361.00,0.0060
3360.00,0.0060
3359.00,0.0060
3358.00,0.0060
3357.00,0.0060
3356.00,0.0060
3355.00,0.0060
3354.00,0.0060
3353.00,0.0060
3352.00,0.0060
3351.00,0.0059
3350.00,0.0059
3349.00,0.0059
3348.00,0.0059
3347.00,0.0059
3346.00,0.0059
3345.00,0.0059
3344.00,0.0059
3343.00,0.0059
3342.00,0.0060
3341.00,0.0059
3340.00,0.0059
3339.00,0.0059
3338.00,0.0059
3337.00,0.0059
3336.00,0.0059
3335.00,0.0059
3334.00,0.0059
3333.00,0.0058
3332.00,0.0059
3331.00,0.0059
3330.00,0.0059
3329.00,0.0059
3328.00,0.0059
3327.00,0.0058
3326.00,0.0058
3325.00,0.0058
3324.00,0.0058
3323.00,0.0058
3322.00,0.0057
3321.00,0.0057
3320.00,0.0057
3319.00,0.0057
3318.00,0.0057
3317.00,0.0057
3316.00,0.0057
3315.00,0.0057
3314.00,0.0057
3313.00,0.0057
3312.00,0.0057
3311.00,0.0057
3310.00,0.0057
3309.00,0.0057
3308.00,0.0057
3307.00,0.0057
3306.00,0.0057
3305.00,0.0058
3304.00,0.0058
3303.00,0.0058
3302.00,0.0058
3301.00,0.0058
3300.00,0.0058
3299.00,0.0057
3298.00,0.0057
3297.00,0.0057
3296.00,0.0056
3295.00,0.0056
3294.00,0.0055
3293.00,0.0055
3292.00,0.0055
3291.00,0.0055
3290.00,0.0054
3289.00,0.0054
3288.00,0.0054
3287.00,0.0053
3286.00,0.0053
3285.00,0.0052
3284.00,0.0052
3283.00,0.0052
3282.00,0.0051
3281.00,0.0051
3280.00,0.0050
3279.00,0.0050
3278.00,0.0050
3277.00,0.0050
3276.00,0.0050
3275.00,0.0050
3274.00,0.0051
3273.00,0.0051
3272.00,0.0051
3271.00,0.0051
3270.00,0.0050
3269.00,0.0049
3268.00,0.0049
3267.00,0.0049
3266.00,0.0049
3265.00,0.0050
3264.00,0.0050
3263.00,0.0050
3262.00,0.0049
3261.00,0.0048
3260.00,0.0047
3259.00,0.0047
3258.00,0.0047
3257.00,0.0046
3256.00,0.0046
3255.00,0.0046
3254.00,0.0046
3253.00,0.0046
3252.00,0.0046
3251.00,0.0046
3250.00,0.0046
3249.00,0.0046
3248.00,0.0046
3247.00,0.0046
3246.00,0.0046
3245.00,0.0046
3244.00,0.0045
3243.00,0.0045
3242.00,0.0045
3241.00,0.0044
3240.00,0.0044
3239.00,0.0044
3238.00,0.0044
3237.00,0.0044
3236.00,0.0044
3235.00,0.0044
3234.00,0.0044
3233.00,0.0045
3232.00,0.0045
3231.00,0.0045
3230.00,0.0045
3229.00,0.0045
3228.00,0.0045
3227.00,0.0045
3226.00,0.0045
3225.00,0.0045
3224.00,0.0046
3223.00,0.0046
3222.00,0.0047
3221.00,0.0047
3220.00,0.0047
3219.00,0.0047
3218.00,0.0047
3217.00,0.0047
3216.00,0.0047
3215.00,0.0047
3214.00,0.0047
3213.00,0.0047
3212.00,0.0047
3211.00,0.0048
3210.00,0.0048
3209.00,0.0048
3208.00,0.0048
3207.00,0.0048
3206.00,0.0048
3205.00,0.0048
3204.00,0.0048
3203.00,0.0049
3202.00,0.0049
3201.00,0.0049
3200.00,0.0049
3199.00,0.0049
3198.00,0.0049
3197.00,0.0049
3196.00,0.0049
3195.00,0.0049
3194.00,0.0048
3193.00,0.0048
3192.00,0.0048
3191.00,0.0048
3190.00,0.0047
3189.00,0.0047
3188.00,0.0047
3187.00,0.0046
3186.00,0.0046
3185.00,0.0046
3184.00,0.0046
3183.00,0.0046
3182.00,0.0046
3181.00,0.0046
3180.00,0.0046
3179.00,0.0045
3178.00,0.0045
3177.00,0.0044
3176.00,0.0044
3175.00,0.0044
3174.00,0.0043
3173.00,0.0043
3172.00,0.0043
3171.00,0.0043
3170.00,0.0043
3169.00,0.0043
3168.00,0.0043
3167.00,0.0042
3166.00,0.0042
3165.00,0.0042
3164.00,0.0042
3163.00,0.0042
3162.00,0.0042
3161.00,0.0042
3160.00,0.0042
3159.00,0.0041
3158.00,0.0042
3157.00,0.0042
3156.00,0.0042
3155.00,0.0042
3154.00,0.0042
3153.00,0.0041
3152.00,0.0041
3151.00,0.0040
3150.00,0.0040
3149.00,0.0040
3148.00,0.0040
3147.00,0.0040
3146.00,0.0040
3145.00,0.0040
3144.00,0.0040
3143.00,0.0040
3142.00,0.0039
3141.00,0.0038
3140.00,0.0038
3139.00,0.0038
3138.00,0.0038
3137.00,0.0037
3136.00,0.0037
3135.00,0.0037
3134.00,0.0037
3133.00,0.0036
3132.00,0.0036
3131.00,0.0036
3130.00,0.0036
3129.00,0.0036
3128.00,0.0037
3127.00,0.0036
3126.00,0.0036
3125.00,0.0036
3124.00,0.0035
3123.00,0.0035
3122.00,0.0035
3121.00,0.0035
3120.00,0.0034
3119.00,0.0034
3118.00,0.0034
3117.00,0.0033
3116.00,0.0033
3115.00,0.0033
3114.00,0.0033
3113.00,0.0032
3112.00,0.0032
3111.00,0.0032
3110.00,0.0032
3109.00,0.0032
3108.00,0.0032
3107.00,0.0032
3106.00,0.0032
3105.00,0.0031
3104.00,0.0031
3103.00,0.0031
3102.00,0.0031
3101.00,0.0031
3100.00,0.0031
3099.00,0.0031
3098.00,0.0031
3097.00,0.0032
3096.00,0.0031
3095.00,0.0031
3094.00,0.0031
3093.00,0.0031
3092.00,0.0031
3091.00,0.0031
3090.00,0.0030
3089.00,0.0030
3088.00,0.0030
3087.00,0.0030
3086.00,0.0030
3085.00,0.0030
3084.00,0.0030
3083.00,0.0030
3082.00,0.0030
3081.00,0.0030
3080.00,0.0030
3079.00,0.0030
3078.00,0.0030
3077.00,0.0030
3076.00,0.0031
3075.00,0.0031
3074.00,0.0031
3073.00,0.0031
3072.00,0.0031
3071.00,0.0030
3070.00,0.0030
3069.00,0.0030
3068.00,0.0030
3067.00,0.0030
3066.00,0.0031
3065.00,0.0031
3064.00,0.0031
3063.00,0.0031
3062.00,0.0031
3061.00,0.0031
3060.00,0.0031
3059.00,0.0031
3058.00,0.0031
3057.00,0.0031
3056.00,0.0031
3055.00,0.0032
3054.00,0.0032
3053.00,0.0032
3052.00,0.0033
3051.00,0.0033
3050.00,0.0033
3049.00,0.0034
3048.00,0.0034
3047.00,0.0034
3046.00,0.0034
3045.00,0.0035
3044.00,0.0035
3043.00,0.0036
3042.00,0.0036
3041.00,0.0036
3040.00,0.0036
3039.00,0.0036
3038.00,0.0037
3037.00,0.0037
3036.00,0.0037
3035.00,0.0037
3034.00,0.0037
3033.00,0.0038
3032.00,0.0038
3031.00,0.0038
3030.00,0.0039
3029.00,0.0039
3028.00,0.0040
3027.00,0.0041
3026.00,0.0041
3025.00,0.0042
3024.00,0.0042
3023.00,0.0043
3022.00,0.0044
3021.00,0.0044
3020.00,0.0045
3019.00,0.0046
3018.00,0.0047
3017.00,0.0047
3016.00,0.0048
3015.00,0.0049
3014.00,0.0050
3013.00,0.0051
3012.00,0.0053
3011.00,0.0054
3010.00,0.0055
3009.00,0.0056
3008.00,0.0057
3007.00,0.0058
3006.00,0.0060
3005.00,0.0061
3004.00,0.0063
3003.00,0.0065
3002.00,0.0067
3001.00,0.0069
3000.00,0.0071
2999.00,0.0073
2998.00,0.0076
2997.00,0.0079
2996.00,0.0083
2995.00,0.0087
2994.00,0.0091
2993.00,0.0096
2992.00,0.0101
2991.00,0.0106
2990.00,0.0112
2989.00,0.0118
2988.00,0.0125
2987.00,0.0134
2986.00,0.0143
2985.00,0.0153
2984.00,0.0164
2983.00,0.0177
2982.00,0.0192
2981.00,0.0210
2980.00,0.0229
2979.00,0.0251
2978.00,0.0277
2977.00,0.0305
2976.00,0.0338
2975.00,0.0376
2974.00,0.0419
2973.00,0.0468
2972.00,0.0524
2971.00,0.0587
2970.00,0.0657
2969.00,0.0735
2968.00,0.0819
2967.00,0.0909
2966.00,0.1005
2965.00,0.1103
2964.00,0.1201
2963.00,0.1293
2962.00,0.1375
2961.00,0.1442
2960.00,0.1495
2959.00,0.1536
2958.00,0.1570
2957.00,0.1602
2956.00,0.1640
2955.00,0.1686
2954.00,0.1739
2953.00,0.1794
2952.00,0.1841
2951.00,0.1871
2950.00,0.1873
2949.00,0.1840
2948.00,0.1771
2947.00,0.1672
2946.00,0.1556
2945.00,0.1434
2944.00,0.1319
2943.00,0.1222
2942.00,0.1146
2941.00,0.1095
2940.00,0.1068
2939.00,0.1061
2938.00,0.1074
2937.00,0.1104
2936.00,0.1149
2935.00,0.1208
2934.00,0.1281
2933.00,0.1366
2932.00,0.1461
2931.00,0.1564
2930.00,0.1674
2929.00,0.1786
2928.00,0.1896
2927.00,0.2004
2926.00,0.2107
2925.00,0.2205
2924.00,0.2300
2923.00,0.2392
2922.00,0.2481
2921.00,0.2565
2920.00,0.2637
2919.00,0.2689
2918.00,0.2711
2917.00,0.2697
2916.00,0.2648
2915.00,0.2570
2914.00,0.2474
2913.00,0.2372
2912.00,0.2272
2911.00,0.2182
2910.00,0.2101
2909.00,0.2030
2908.00,0.1965
2907.00,0.1903
2906.00,0.1842
2905.00,0.1779
2904.00,0.1714
2903.00,0.1648
2902.00,0.1582
2901.00,0.1516
2900.00,0.1452
2899.00,0.1391
2898.00,0.1335
2897.00,0.1282
2896.00,0.1235
2895.00,0.1193
2894.00,0.1157
2893.00,0.1128
2892.00,0.1104
2891.00,0.1085
2890.00,0.1071
2889.00,0.1061
2888.00,0.1055
2887.00,0.1053
2886.00,0.1055
2885.00,0.1060
2884.00,0.1069
2883.00,0.1082
2882.00,0.1099
2881.00,0.1119
2880.00,0.1138
2879.00,0.1154
2878.00,0.1164
2877.00,0.1166
2876.00,0.1162
2875.00,0.1156
2874.00,0.1151
2873.00,0.1151
2872.00,0.1158
2871.00,0.1172
2870.00,0.1189
2869.00,0.1205
2868.00,0.1215
2867.00,0.1210
2866.00,0.1186
2865.00,0.1142
2864.00,0.1081
2863.00,0.1011
2862.00,0.0943
2861.00,0.0884
2860.00,0.0839
2859.00,0.0809
2858.00,0.0793
2857.00,0.0788
2856.00,0.0792
2855.00,0.0803
2854.00,0.0819
2853.00,0.0837
2852.00,0.0856
2851.00,0.0872
2850.00,0.0885
2849.00,0.0895
2848.00,0.0903
2847.00,0.0915
2846.00,0.0936
2845.00,0.0966
2844.00,0.1008
2843.00,0.1058
2842.00,0.1111
2841.00,0.1161
2840.00,0.1199
2839.00,0.1219
2838.00,0.1213
2837.00,0.1177
2836.00,0.1112
2835.00,0.1023
2834.00,0.0920
2833.00,0.0813
2832.00,0.0712
2831.00,0.0622
2830.00,0.0546
2829.00,0.0484
2828.00,0.0433
2827.00,0.0393
2826.00,0.0360
2825.00,0.0332
2824.00,0.0309
2823.00,0.0290
2822.00,0.0273
2821.00,0.0258
2820.00,0.0245
2819.00,0.0234
2818.00,0.0224
2817.00,0.0215
2816.00,0.0208
2815.00,0.0201
2814.00,0.0195
2813.00,0.0189
2812.00,0.0184
2811.00,0.0178
2810.00,0.0173
2809.00,0.0167
2808.00,0.0161
2807.00,0.0155
2806.00,0.0149
2805.00,0.0143
2804.00,0.0137
2803.00,0.0131
2802.00,0.0126
2801.00,0.0122
2800.00,0.0118
2799.00,0.0115
2798.00,0.0112
2797.00,0.0110
2796.00,0.0107
2795.00,0.0105
2794.00,0.0102
2793.00,0.0099
2792.00,0.0096
2791.00,0.0093
2790.00,0.0089
2789.00,0.0086
2788.00,0.0083
2787.00,0.0080
2786.00,0.0077
2785.00,0.0075
2784.00,0.0073
2783.00,0.0071
2782.00,0.0069
2781.00,0.0067
2780.00,0.0065
2779.00,0.0063
2778.00,0.0062
2777.00,0.0060
2776.00,0.0059
2775.00,0.0058
2774.00,0.0057
2773.00,0.0056
2772.00,0.0056
2771.00,0.0056
2770.00,0.0055
2769.00,0.0055
2768.00,0.0055
2767.00,0.0054
2766.00,0.0054
2765.00,0.0054
2764.00,0.0053
2763.00,0.0053
2762.00,0.0053
2761.00,0.0052
2760.00,0.0051
2759.00,0.0051
2758.00,0.0050
2757.00,0.0050
2756.00,0.0050
2755.00,0.0050
2754.00,0.0051
2753.00,0.0051
2752.00,0.0050
2751.00,0.0050
2750.00,0.0050
2749.00,0.0049
2748.00,0.0049
2747.00,0.0050
2746.00,0.0051
2745.00,0.0052
2744.00,0.0052
2743.00,0.0053
2742.00,0.0054
2741.00,0.0054
2740.00,0.0055
2739.00,0.0056
2738.00,0.0057
2737.00,0.0059
2736.00,0.0060
2735.00,0.0061
2734.00,0.0063
2733.00,0.0064
2732.00,0.0066
2731.00,0.0068
2730.00,0.0070
2729.00,0.0072
2728.00,0.0075
2727.00,0.0077
2726.00,0.0080
2725.00,0.0082
2724.00,0.0084
2723.00,0.0084
2722.00,0.0084
2721.00,0.0082
2720.00,0.0080
2719.00,0.0077
2718.00,0.0074
2717.00,0.0071
2716.00,0.0068
2715.00,0.0066
2714.00,0.0063
2713.00,0.0061
2712.00,0.0058
2711.00,0.0056
2710.00,0.0054
2709.00,0.0053
2708.00,0.0052
2707.00,0.0051
2706.00,0.0050
2705.00,0.0048
2704.00,0.0047
2703.00,0.0046
2702.00,0.0045
2701.00,0.0044
2700.00,0.0044
2699.00,0.0044
2698.00,0.0044
2697.00,0.0044
2696.00,0.0043
2695.00,0.0043
2694.00,0.0043
2693.00,0.0044
2692.00,0.0044
2691.00,0.0044
2690.00,0.0044
2689.00,0.0044
2688.00,0.0044
2687.00,0.0044
2686.00,0.0044
2685.00,0.0044
2684.00,0.0044
2683.00,0.0043
2682.00,0.0043
2681.00,0.0043
2680.00,0.0043
2679.00,0.0044
2678.00,0.0044
2677.00,0.0044
2676.00,0.0044
2675.00,0.0044
2674.00,0.0044
2673.00,0.0044
2672.00,0.0044
2671.00,0.0043
2670.00,0.0043
2669.00,0.0043
2668.00,0.0043
2667.00,0.0043
2666.00,0.0043
2665.00,0.0043
2664.00,0.0044
2663.00,0.0045
2662.00,0.0045
2661.00,0.0046
2660.00,0.0046
2659.00,0.0047
2658.00,0.0047
2657.00,0.0046
2656.00,0.0045
2655.00,0.0045
2654.00,0.0044
2653.00,0.0044
2652.00,0.0044
2651.00,0.0043
2650.00,0.0043
2649.00,0.0042
2648.00,0.0042
2647.00,0.0042
2646.00,0.0041
2645.00,0.0041
2644.00,0.0040
2643.00,0.0040
2642.00,0.0040
2641.00,0.0039
2640.00,0.0039
2639.00,0.0039
2638.00,0.0038
2637.00,0.0038
2636.00,0.0037
2635.00,0.0037
2634.00,0.0037
2633.00,0.0037
2632.00,0.0037
2631.00,0.0037
2630.00,0.0037
2629.00,0.0037
2628.00,0.0037
2627.00,0.0037
2626.00,0.0037
2625.00,0.0037
2624.00,0.0038
2623.00,0.0038
2622.00,0.0038
2621.00,0.0039
2620.00,0.0039
2619.00,0.0038
2618.00,0.0038
2617.00,0.0038
2616.00,0.0038
2615.00,0.0038
2614.00,0.0039
2613.00,0.0039
2612.00,0.0038
2611.00,0.0037
2610.00,0.0037
2609.00,0.0036
2608.00,0.0035
2607.00,0.0035
2606.00,0.0034
2605.00,0.0033
2604.00,0.0032
2603.00,0.0032
2602.00,0.0031
2601.00,0.0031
2600.00,0.0031
2599.00,0.0030
2598.00,0.0030
2597.00,0.0030
2596.00,0.0030
2595.00,0.0030
2594.00,0.0031
2593.00,0.0031
2592.00,0.0031
2591.00,0.0032
2590.00,0.0032
2589.00,0.0033
2588.00,0.0034
2587.00,0.0035
2586.00,0.0036
2585.00,0.0036
2584.00,0.0037
2583.00,0.0037
2582.00,0.0037
2581.00,0.0037
2580.00,0.0036
2579.00,0.0035
2578.00,0.0035
2577.00,0.0034
2576.00,0.0033
2575.00,0.0032
2574.00,0.0031
2573.00,0.0029
2572.00,0.0028
2571.00,0.0027
2570.00,0.0026
2569.00,0.0024
2568.00,0.0024
2567.00,0.0023
2566.00,0.0023
2565.00,0.0023
2564.00,0.0022
2563.00,0.0022
2562.00,0.0022
2561.00,0.0022
2560.00,0.0022
2559.00,0.0022
2558.00,0.0021
2557.00,0.0021
2556.00,0.0021
2555.00,0.0021
2554.00,0.0021
2553.00,0.0020
2552.00,0.0020
2551.00,0.0019
2550.00,0.0019
2549.00,0.0019
2548.00,0.0019
2547.00,0.0018
2546.00,0.0017
2545.00,0.0017
2544.00,0.0016
2543.00,0.0015
2542.00,0.0015
2541.00,0.0016
2540.00,0.0016
2539.00,0.0015
2538.00,0.0015
2537.00,0.0015
2536.00,0.0015
2535.00,0.0015
2534.00,0.0015
2533.00,0.0015
2532.00,0.0015
2531.00,0.0014
2530.00,0.0014
2529.00,0.0013
2528.00,0.0013
2527.00,0.0012
2526.00,0.0012
2525.00,0.0012
2524.00,0.0012
2523.00,0.0012
2522.00,0.0012
2521.00,0.0012
2520.00,0.0012
2519.00,0.0012
2518.00,0.0011
2517.00,0.0011
2516.00,0.0010
2515.00,0.0010
2514.00,0.0009
2513.00,0.0009
2512.00,0.0009
2511.00,0.0009
2510.00,0.0009
2509.00,0.0009
2508.00,0.0009
2507.00,0.0009
2506.00,0.0009
2505.00,0.0009
2504.00,0.0009
2503.00,0.0010
2502.00,0.0010
2501.00,0.0010
2500.00,0.0010
2499.00,0.0010
2498.00,0.0010
2497.00,0.0009
2496.00,0.0010
2495.00,0.0010
2494.00,0.0009
2493.00,0.0009
2492.00,0.0009
2491.00,0.0009
2490.00,0.0009
2489.00,0.0010
2488.00,0.0010
2487.00,0.0010
2486.00,0.0009
2485.00,0.0009
2484.00,0.0008
2483.00,0.0008
2482.00,0.0008
2481.00,0.0008
2480.00,0.0009
2479.00,0.0009
2478.00,0.0009
2477.00,0.0009
2476.00,0.0008
2475.00,0.0008
2474.00,0.0007
2473.00,0.0007
2472.00,0.0008
2471.00,0.0008
2470.00,0.0009
2469.00,0.0009
2468.00,0.0009
2467.00,0.0009
2466.00,0.0009
2465.00,0.0009
2464.00,0.0009
2463.00,0.0009
2462.00,0.0009
2461.00,0.0009
2460.00,0.0009
2459.00,0.0010
2458.00,0.0010
2457.00,0.0010
2456.00,0.0010
2455.00,0.0010
2454.00,0.0010
2453.00,0.0010
2452.00,0.0010
2451.00,0.0010
2450.00,0.0010
2449.00,0.0010
2448.00,0.0010
2447.00,0.0010
2446.00,0.0010
2445.00,0.0009
2444.00,0.0009
2443.00,0.0009
2442.00,0.0009
2441.00,0.0009
2440.00,0.0009
2439.00,0.0009
2438.00,0.0010
2437.00,0.0010
2436.00,0.0009
2435.00,0.0009
2434.00,0.0009
2433.00,0.0008
2432.00,0.0008
2431.00,0.0009
2430.00,0.0009
2429.00,0.0009
2428.00,0.0010
2427.00,0.0010
2426.00,0.0010
2425.00,0.0010
2424.00,0.0010
2423.00,0.0010
2422.00,0.0010
2421.00,0.0009
2420.00,0.0008
2419.00,0.0008
2418.00,0.0007
2417.00,0.0008
2416.00,0.0008
2415.00,0.0008
2414.00,0.0008
2413.00,0.0008
2412.00,0.0008
2411.00,0.0009
2410.00,0.0009
2409.00,0.0009
2408.00,0.0008
2407.00,0.0007
2406.00,0.0006
2405.00,0.0006
2404.00,0.0006
2403.00,0.0006
2402.00,0.0006
2401.00,0.0007
2400.00,0.0007
2399.00,0.0007
2398.00,0.0007
2397.00,0.0007
2396.00,0.0007
2395.00,0.0007
2394.00,0.0007
2393.00,0.0007
2392.00,0.0007
2391.00,0.0008
2390.00,0.0008
2389.00,0.0008
2388.00,0.0007
2387.00,0.0006
2386.00,0.0005
2385.00,0.0004
2384.00,0.0004
2383.00,0.0003
2382.00,0.0002
2381.00,0.0001
2380.00,0.0001
2379.00,0.0000
2378.00,0.0000
2377.00,-0.0000
2376.00,-0.0000
2375.00,-0.0000
2374.00,-0.0000
2373.00,-0.0000
2372.00,-0.0000
2371.00,-0.0001
2370.00,-0.0002
2369.00,-0.0002
2368.00,-0.0003
2367.00,-0.0003
2366.00,-0.0003
2365.00,-0.0002
2364.00,-0.0002
2363.00,-0.0001
2362.00,-0.0001
2361.00,-0.0000
2360.00,-0.0000
2359.00,-0.0000
2358.00,-0.0001
2357.00,-0.0001
2356.00,-0.0001
2355.00,-0.0001
2354.00,-0.0000
2353.00,-0.0000
2352.00,-0.0001
2351.00,-0.0001
2350.00,-0.0002
2349.00,-0.0001
2348.00,-0.0000
2347.00,0.0001
2346.00,0.0001
2345.00,0.0001
2344.00,0.0001
2343.00,0.0001
2342.00,0.0002
2341.00,0.0002
2340.00,0.0002
2339.00,0.0002
2338.00,0.0003
2337.00,0.0003
2336.00,0.0003
2335.00,0.0003
2334.00,0.0003
2333.00,0.0002
2332.00,0.0001
2331.00,0.0000
2330.00,0.0000
2329.00,0.0002
2328.00,0.0004
2327.00,0.0008
2326.00,0.0013
2325.00,0.0016
2324.00,0.0017
2323.00,0.0016
2322.00,0.0014
2321.00,0.0012
2320.00,0.0010
2319.00,0.0009
2318.00,0.0009
2317.00,0.0008
2316.00,0.0007
2315.00,0.0006
2314.00,0.0005
2313.00,0.0004
2312.00,0.0003
2311.00,0.0003
2310.00,0.0003
2309.00,0.0003
2308.00,0.0004
2307.00,0.0005
2306.00,0.0005
2305.00,0.0005
2304.00,0.0006
2303.00,0.0006
2302.00,0.0006
2301.00,0.0007
2300.00,0.0007
2299.00,0.0008
2298.00,0.0009
2297.00,0.0010
2296.00,0.0010
2295.00,0.0010
2294.00,0.0010
2293.00,0.0011
2292.00,0.0012
2291.00,0.0013
2290.00,0.0014
2289.00,0.0014
2288.00,0.0014
2287.00,0.0015
2286.00,0.0016
2285.00,0.0016
2284.00,0.0017
2283.00,0.0016
2282.00,0.0015
2281.00,0.0013
2280.00,0.0012
2279.00,0.0012
2278.00,0.0012
2277.00,0.0013
2276.00,0.0013
2275.00,0.0013
2274.00,0.0013
2273.00,0.0012
2272.00,0.0012
2271.00,0.0012
2270.00,0.0012
2269.00,0.0011
2268.00,0.0011
2267.00,0.0011
2266.00,0.0012
2265.00,0.0012
2264.00,0.0012
2263.00,0.0011
2262.00,0.0011
2261.00,0.0012
2260.00,0.0013
2259.00,0.0013
2258.00,0.0013
2257.00,0.0012
2256.00,0.0011
2255.00,0.0009
2254.00,0.0008
2253.00,0.0007
2252.00,0.0006
2251.00,0.0006
2250.00,0.0005
2249.00,0.0005
2248.00,0.0005
2247.00,0.0005
2246.00,0.0005
2245.00,0.0005
2244.00,0.0006
2243.00,0.0007
2242.00,0.0009
2241.00,0.0009
2240.00,0.0009
2239.00,0.0008
2238.00,0.0007
2237.00,0.0006
2236.00,0.0005
2235.00,0.0006
2234.00,0.0006
2233.00,0.0007
2232.00,0.0007
2231.00,0.0005
2230.00,0.0004
2229.00,0.0003
2228.00,0.0003
2227.00,0.0004
2226.00,0.0006
2225.00,0.0007
2224.00,0.0007
2223.00,0.0006
2222.00,0.0005
2221.00,0.0004
2220.00,0.0004
2219.00,0.0005
2218.00,0.0005
2217.00,0.0005
2216.00,0.0005
2215.00,0.0006
2214.00,0.0007
2213.00,0.0008
2212.00,0.0009
2211.00,0.0009
2210.00,0.0008
2209.00,0.0006
2208.00,0.0005
2207.00,0.0004
2206.00,0.0005
2205.00,0.0006
2204.00,0.0007
2203.00,0.0008
2202.00,0.0009
2201.00,0.0009
2200.00,0.0008
2199.00,0.0007
2198.00,0.0007
2197.00,0.0007
2196.00,0.0007
2195.00,0.0006
2194.00,0.0005
2193.00,0.0004
2192.00,0.0004
2191.00,0.0004
2190.00,0.0005
2189.00,0.0007
2188.00,0.0009
2187.00,0.0009
2186.00,0.0007
2185.00,0.0004
2184.00,0.0002
2183.00,0.0000
2182.00,-0.0001
2181.00,-0.0001
2180.00,0.0001
2179.00,0.0004
2178.00,0.0004
2177.00,0.0000
2176.00,-0.0005
2175.00,-0.0009
2174.00,-0.0009
2173.00,-0.0006
2172.00,-0.0000
2171.00,0.0005
2170.00,0.0008
2169.00,0.0011
2168.00,0.0012
2167.00,0.0013
2166.00,0.0014
2165.00,0.0015
2164.00,0.0015
2163.00,0.0017
2162.00,0.0018
2161.00,0.0014
2160.00,0.0003
2159.00,-0.0012
2158.00,-0.0026
2157.00,-0.0033
2156.00,-0.0035
2155.00,-0.0033
2154.00,-0.0030
2153.00,-0.0026
2152.00,-0.0023
2151.00,-0.0020
2150.00,-0.0017
2149.00,-0.0015
2148.00,-0.0013
2147.00,-0.0013
2146.00,-0.0012
2145.00,-0.0012
2144.00,-0.0013
2143.00,-0.0014
2142.00,-0.0015
2141.00,-0.0014
2140.00,-0.0013
2139.00,-0.0011
2138.00,-0.0011
2137.00,-0.0013
2136.00,-0.0016
2135.00,-0.0019
2134.00,-0.0021
2133.00,-0.0021
2132.00,-0.0018
2131.00,-0.0015
2130.00,-0.0012
2129.00,-0.0009
2128.00,-0.0008
2127.00,-0.0007
2126.00,-0.0007
2125.00,-0.0007
2124.00,-0.0006
2123.00,-0.0005
2122.00,-0.0004
2121.00,-0.0004
2120.00,-0.0004
2119.00,-0.0003
2118.00,-0.0002
2117.00,-0.0000
2116.00,0.0001
2115.00,0.0002
2114.00,0.0002
2113.00,0.0001
2112.00,0.0002
2111.00,0.0001
2110.00,0.0001
2109.00,-0.0000
2108.00,-0.0001
2107.00,-0.0003
2106.00,-0.0003
2105.00,-0.0004
2104.00,-0.0003
2103.00,-0.0002
2102.00,-0.0001
2101.00,-0.0000
2100.00,0.0000
2099.00,0.0000
2098.00,-0.0001
2097.00,-0.0003
2096.00,-0.0005
2095.00,-0.0007
2094.00,-0.0008
2093.00,-0.0007
2092.00,-0.0006
2091.00,-0.0003
2090.00,-0.0001
2089.00,0.0001
2088.00,0.0003
2087.00,0.0003
2086.00,0.0003
2085.00,0.0002
2084.00,0.0003
2083.00,0.0004
2082.00,0.0006
2081.00,0.0006
2080.00,0.0003
2079.00,0.0001
2078.00,-0.0001
2077.00,-0.0002
2076.00,-0.0001
2075.00,0.0000
2074.00,0.0001
2073.00,0.0001
2072.00,-0.0001
2071.00,-0.0004
2070.00,-0.0006
2069.00,-0.0007
2068.00,-0.0006
2067.00,-0.0004
2066.00,-0.0004
2065.00,-0.0004
2064.00,-0.0004
2063.00,-0.0004
2062.00,-0.0004
2061.00,-0.0004
2060.00,-0.0004
2059.00,-0.0004
2058.00,-0.0002
2057.00,-0.0001
2056.00,-0.0001
2055.00,-0.0001
2054.00,0.0001
2053.00,0.0004
2052.00,0.0009
2051.00,0.0011
2050.00,0.0010
2049.00,0.0007
2048.00,0.0004
2047.00,0.0003
2046.00,0.0002
2045.00,0.0002
2044.00,0.0002
2043.00,0.0002
2042.00,0.0001
2041.00,0.0002
2040.00,0.0003
2039.00,0.0004
2038.00,0.0005
2037.00,0.0003
2036.00,-0.0001
2035.00,-0.0006
2034.00,-0.0010
2033.00,-0.0011
2032.00,-0.0011
2031.00,-0.0011
2030.00,-0.0011
2029.00,-0.0011
2028.00,-0.0010
2027.00,-0.0011
2026.00,-0.0013
2025.00,-0.0013
2024.00,-0.0012
2023.00,-0.0011
2022.00,-0.0009
2021.00,-0.0006
2020.00,-0.0004
2019.00,-0.0002
2018.00,-0.0001
2017.00,-0.0002
2016.00,-0.0004
2015.00,-0.0006
2014.00,-0.0008
2013.00,-0.0008
2012.00,-0.0007
2011.00,-0.0008
2010.00,-0.0009
2009.00,-0.0011
2008.00,-0.0013
2007.00,-0.0017
2006.00,-0.0019
2005.00,-0.0018
2004.00,-0.0016
2003.00,-0.0013
2002.00,-0.0012
2001.00,-0.0012
2000.00,-0.0013
1999.00,-0.0013
1998.00,-0.0013
1997.00,-0.0013
1996.00,-0.0012
1995.00,-0.0012
1994.00,-0.0012
1993.00,-0.0011
1992.00,-0.0009
1991.00,-0.0007
1990.00,-0.0005
1989.00,-0.0004
1988.00,-0.0002
1987.00,-0.0002
1986.00,-0.0002
1985.00,-0.0002
1984.00,-0.0001
1983.00,0.0001
1982.00,0.0006
1981.00,0.0010
1980.00,0.0010
1979.00,0.0004
1978.00,-0.0005
1977.00,-0.0012
1976.00,-0.0017
1975.00,-0.0018
1974.00,-0.0018
1973.00,-0.0017
1972.00,-0.0016
1971.00,-0.0014
1970.00,-0.0014
1969.00,-0.0014
1968.00,-0.0015
1967.00,-0.0015
1966.00,-0.0015
1965.00,-0.0014
1964.00,-0.0012
1963.00,-0.0011
1962.00,-0.0012
1961.00,-0.0014
1960.00,-0.0016
1959.00,-0.0018
1958.00,-0.0018
1957.00,-0.0017
1956.00,-0.0017
1955.00,-0.0017
1954.00,-0.0016
1953.00,-0.0015
1952.00,-0.0016
1951.00,-0.0017
1950.00,-0.0019
1949.00,-0.0020
1948.00,-0.0019
1947.00,-0.0018
1946.00,-0.0017
1945.00,-0.0018
1944.00,-0.0018
1943.00,-0.0017
1942.00,-0.0015
1941.00,-0.0013
1940.00,-0.0011
1939.00,-0.0009
1938.00,-0.0009
1937.00,-0.0008
1936.00,-0.0008
1935.00,-0.0009
1934.00,-0.0009
1933.00,-0.0010
1932.00,-0.0010
1931.00,-0.0010
1930.00,-0.0010
1929.00,-0.0009
1928.00,-0.0008
1927.00,-0.0008
1926.00,-0.0009
1925.00,-0.0010
1924.00,-0.0010
1923.00,-0.0010
1922.00,-0.0008
1921.00,-0.0006
1920.00,-0.0005
1919.00,-0.0005
1918.00,-0.0005
1917.00,-0.0005
1916.00,-0.0004
1915.00,-0.0004
1914.00,-0.0003
1913.00,-0.0002
1912.00,-0.0002
1911.00,-0.0003
1910.00,-0.0004
1909.00,-0.0004
1908.00,-0.0004
1907.00,-0.0003
1906.00,-0.0003
1905.00,-0.0003
1904.00,-0.0003
1903.00,-0.0003
1902.00,-0.0003
1901.00,-0.0002
1900.00,-0.0002
1899.00,-0.0003
1898.00,-0.0003
1897.00,-0.0003
1896.00,-0.0002
1895.00,-0.0001
1894.00,-0.0001
1893.00,-0.0001
1892.00,-0.0002
1891.00,-0.0002
1890.00,-0.0003
1889.00,-0.0003
1888.00,-0.0002
1887.00,-0.0002
1886.00,-0.0001
1885.00,-0.0001
1884.00,-0.0001
1883.00,-0.0001
1882.00,-0.0002
1881.00,-0.0003
1880.00,-0.0003
1879.00,-0.0004
1878.00,-0.0004
1877.00,-0.0004
1876.00,-0.0004
1875.00,-0.0003
1874.00,-0.0003
1873.00,-0.0003
1872.00,-0.0003
1871.00,-0.0003
1870.00,-0.0003
1869.00,-0.0002
1868.00,-0.0002
1867.00,-0.0001
1866.00,-0.0001
1865.00,-0.0001
1864.00,-0.0000
1863.00,-0.0000
1862.00,0.0000
1861.00,0.0000
1860.00,0.0000
1859.00,0.0001
1858.00,0.0000
1857.00,0.0000
1856.00,0.0001
1855.00,0.0001
1854.00,0.0001
1853.00,0.0001
1852.00,0.0001
1851.00,-0.0000
1850.00,-0.0001
1849.00,-0.0002
1848.00,-0.0001
1847.00,-0.0000
1846.00,0.0000
1845.00,0.0001
1844.00,0.0001
1843.00,0.0001
1842.00,0.0001
1841.00,0.0000
1840.00,-0.0000
1839.00,-0.0000
1838.00,0.0000
1837.00,0.0001
1836.00,0.0001
1835.00,0.0002
1834.00,0.0002
1833.00,0.0002
1832.00,0.0002
1831.00,0.0002
1830.00,0.0002
1829.00,0.0003
1828.00,0.0004
1827.00,0.0004
1826.00,0.0004
1825.00,0.0003
1824.00,0.0003
1823.00,0.0003
1822.00,0.0003
1821.00,0.0003
1820.00,0.0002
1819.00,0.0001
1818.00,-0.0000
1817.00,-0.0001
1816.00,-0.0001
1815.00,-0.0000
1814.00,0.0000
1813.00,0.0001
1812.00,0.0001
1811.00,0.0001
1810.00,0.0001
1809.00,0.0002
1808.00,0.0002
1807.00,0.0002
1806.00,0.0002
1805.00,0.0002
1804.00,0.0002
1803.00,0.0002
1802.00,0.0003
1801.00,0.0003
1800.00,0.0004
1799.00,0.0004
1798.00,0.0005
1797.00,0.0005
1796.00,0.0005
1795.00,0.0005
1794.00,0.0006
1793.00,0.0006
1792.00,0.0006
1791.00,0.0006
1790.00,0.0006
1789.00,0.0006
1788.00,0.0006
1787.00,0.0005
1786.00,0.0006
1785.00,0.0006
1784.00,0.0006
1783.00,0.0006
1782.00,0.0006
1781.00,0.0007
1780.00,0.0007
1779.00,0.0007
1778.00,0.0008
1777.00,0.0008
1776.00,0.0008
1775.00,0.0008
1774.00,0.0008
1773.00,0.0008
1772.00,0.0008
1771.00,0.0009
1770.00,0.0009
1769.00,0.0009
1768.00,0.0009
1767.00,0.0009
1766.00,0.0009
1765.00,0.0009
1764.00,0.0009
1763.00,0.0009
1762.00,0.0010
1761.00,0.0010
1760.00,0.0011
1759.00,0.0011
1758.00,0.0011
1757.00,0.0011
1756.00,0.0012
1755.00,0.0013
1754.00,0.0014
1753.00,0.0014
1752.00,0.0014
1751.00,0.0015
1750.00,0.0017
1749.00,0.0018
1748.00,0.0019
1747.00,0.0019
1746.00,0.0020
1745.00,0.0021
1744.00,0.0022
1743.00,0.0022
1742.00,0.0023
1741.00,0.0023
1740.00,0.0023
1739.00,0.0023
1738.00,0.0024
1737.00,0.0025
1736.00,0.0026
1735.00,0.0026
1734.00,0.0027
1733.00,0.0027
1732.00,0.0027
1731.00,0.0026
1730.00,0.0025
1729.00,0.0025
1728.00,0.0026
1727.00,0.0026
1726.00,0.0026
1725.00,0.0027
1724.00,0.0027
1723.00,0.0027
1722.00,0.0026
1721.00,0.0026
1720.00,0.0026
1719.00,0.0025
1718.00,0.0023
1717.00,0.0022
1716.00,0.0022
1715.00,0.0022
1714.00,0.0022
1713.00,0.0022
1712.00,0.0022
1711.00,0.0022
1710.00,0.0022
1709.00,0.0022
1708.00,0.0023
1707.00,0.0023
1706.00,0.0023
1705.00,0.0023
1704.00,0.0023
1703.00,0.0023
1702.00,0.0023
1701.00,0.0024
1700.00,0.0025
1699.00,0.0026
1698.00,0.0026
1697.00,0.0026
1696.00,0.0026
1695.00,0.0027
1694.00,0.0027
1693.00,0.0028
1692.00,0.0029
1691.00,0.0029
1690.00,0.0029
1689.00,0.0030
1688.00,0.0030
1687.00,0.0030
1686.00,0.0030
1685.00,0.0030
1684.00,0.0031
1683.00,0.0033
1682.00,0.0034
1681.00,0.0035
1680.00,0.0035
1679.00,0.0036
1678.00,0.0037
1677.00,0.0039
1676.00,0.0040
1675.00,0.0040
1674.00,0.0041
1673.00,0.0041
1672.00,0.0042
1671.00,0.0042
1670.00,0.0042
1669.00,0.0043
1668.00,0.0044
1667.00,0.0045
1666.00,0.0046
1665.00,0.0046
1664.00,0.0046
1663.00,0.0047
1662.00,0.0047
1661.00,0.0048
1660.00,0.0049
1659.00,0.0049
1658.00,0.0049
1657.00,0.0050
1656.00,0.0050
1655.00,0.0051
1654.00,0.0051
1653.00,0.0053
1652.00,0.0056
1651.00,0.0057
1650.00,0.0058
1649.00,0.0060
1648.00,0.0061
1647.00,0.0062
1646.00,0.0063
1645.00,0.0064
1644.00,0.0064
1643.00,0.0064
1642.00,0.0064
1641.00,0.0064
1640.00,0.0064
1639.00,0.0064
1638.00,0.0065
1637.00,0.0065
1636.00,0.0065
1635.00,0.0065
1634.00,0.0064
1633.00,0.0064
1632.00,0.0064
1631.00,0.0064
1630.00,0.0063
1629.00,0.0063
1628.00,0.0062
1627.00,0.0061
1626.00,0.0060
1625.00,0.0059
1624.00,0.0058
1623.00,0.0057
1622.00,0.0057
1621.00,0.0057
1620.00,0.0058
1619.00,0.0058
1618.00,0.0057
1617.00,0.0057
1616.00,0.0057
1615.00,0.0057
1614.00,0.0057
1613.00,0.0056
1612.00,0.0056
1611.00,0.0056
1610.00,0.0056
1609.00,0.0056
1608.00,0.0055
1607.00,0.0055
1606.00,0.0055
1605.00,0.0055
1604.00,0.0055
1603.00,0.0055
1602.00,0.0055
1601.00,0.0055
1600.00,0.0054
1599.00,0.0054
1598.00,0.0053
1597.00,0.0053
1596.00,0.0053
1595.00,0.0053
1594.00,0.0053
1593.00,0.0053
1592.00,0.0053
1591.00,0.0053
1590.00,0.0053
1589.00,0.0054
1588.00,0.0054
1587.00,0.0055
1586.00,0.0056
1585.00,0.0057
1584.00,0.0058
1583.00,0.0059
1582.00,0.0061
1581.00,0.0062
1580.00,0.0064
1579.00,0.0066
1578.00,0.0066
1577.00,0.0066
1576.00,0.0066
1575.00,0.0066
1574.00,0.0066
1573.00,0.0065
1572.00,0.0065
1571.00,0.0065
1570.00,0.0064
1569.00,0.0064
1568.00,0.0064
1567.00,0.0064
1566.00,0.0063
1565.00,0.0062
1564.00,0.0062
1563.00,0.0062
1562.00,0.0062
1561.00,0.0063
1560.00,0.0063
1559.00,0.0063
1558.00,0.0063
1557.00,0.0063
1556.00,0.0064
1555.00,0.0065
1554.00,0.0065
1553.00,0.0066
1552.00,0.0067
1551.00,0.0067
1550.00,0.0068
1549.00,0.0069
1548.00,0.0071
1547.00,0.0072
1546.00,0.0073
1545.00,0.0075
1544.00,0.0076
1543.00,0.0077
1542.00,0.0078
1541.00,0.0078
1540.00,0.0076
1539.00,0.0074
1538.00,0.0072
1537.00,0.0071
1536.00,0.0070
1535.00,0.0067
1534.00,0.0065
1533.00,0.0062
1532.00,0.0061
1531.00,0.0061
1530.00,0.0060
1529.00,0.0059
1528.00,0.0058
1527.00,0.0056
1526.00,0.0055
1525.00,0.0055
1524.00,0.0055
1523.00,0.0054
1522.00,0.0053
1521.00,0.0053
1520.00,0.0054
1519.00,0.0054
1518.00,0.0054
1517.00,0.0054
1516.00,0.0055
1515.00,0.0055
1514.00,0.0055
1513.00,0.0055
1512.00,0.0056
1511.00,0.0056
1510.00,0.0056
1509.00,0.0057
1508.00,0.0059
1507.00,0.0060
1506.00,0.0061
1505.00,0.0063
1504.00,0.0064
1503.00,0.0066
1502.00,0.0067
1501.00,0.0069
1500.00,0.0071
1499.00,0.0074
1498.00,0.0077
1497.00,0.0082
1496.00,0.0087
1495.00,0.0091
1494.00,0.0094
1493.00,0.0098
1492.00,0.0101
1491.00,0.0103
1490.00,0.0106
1489.00,0.0111
1488.00,0.0116
1487.00,0.0121
1486.00,0.0126
1485.00,0.0132
1484.00,0.0138
1483.00,0.0145
1482.00,0.0154
1481.00,0.0165
1480.00,0.0177
1479.00,0.0189
1478.00,0.0204
1477.00,0.0223
1476.00,0.0248
1475.00,0.0278
1474.00,0.0318
1473.00,0.0375
1472.00,0.0443
1471.00,0.0508
1470.00,0.0570
1469.00,0.0635
1468.00,0.0704
1467.00,0.0780
1466.00,0.0866
1465.00,0.0958
1464.00,0.1039
1463.00,0.1094
1462.00,0.1129
1461.00,0.1153
1460.00,0.1169
1459.00,0.1180
1458.00,0.1187
1457.00,0.1193
1456.00,0.1192
1455.00,0.1184
1454.00,0.1172
1453.00,0.1155
1452.00,0.1127
1451.00,0.1090
1450.00,0.1039
1449.00,0.0969
1448.00,0.0880
1447.00,0.0786
1446.00,0.0702
1445.00,0.0630
1444.00,0.0568
1443.00,0.0517
1442.00,0.0478
1441.00,0.0451
1440.00,0.0434
1439.00,0.0425
1438.00,0.0424
1437.00,0.0422
1436.00,0.0411
1435.00,0.0388
1434.00,0.0354
1433.00,0.0313
1432.00,0.0271
1431.00,0.0232
1430.00,0.0202
1429.00,0.0179
1428.00,0.0164
1427.00,0.0154
1426.00,0.0147
1425.00,0.0141
1424.00,0.0136
1423.00,0.0133
1422.00,0.0132
1421.00,0.0129
1420.00,0.0126
1419.00,0.0123
1418.00,0.0122
1417.00,0.0120
1416.00,0.0117
1415.00,0.0116
1414.00,0.0115
1413.00,0.0113
1412.00,0.0111
1411.00,0.0110
1410.00,0.0110
1409.00,0.0109
1408.00,0.0108
1407.00,0.0108
1406.00,0.0108
1405.00,0.0108
1404.00,0.0107
1403.00,0.0108
1402.00,0.0109
1401.00,0.0109
1400.00,0.0110
1399.00,0.0112
1398.00,0.0114
1397.00,0.0115
1396.00,0.0117
1395.00,0.0120
1394.00,0.0125
1393.00,0.0130
1392.00,0.0135
1391.00,0.0143
1390.00,0.0153
1389.00,0.0167
1388.00,0.0188
1387.00,0.0219
1386.00,0.0262
1385.00,0.0318
1384.00,0.0395
1383.00,0.0504
1382.00,0.0650
1381.00,0.0839
1380.00,0.1069
1379.00,0.1328
1378.00,0.1573
1377.00,0.1747
1376.00,0.1798
1375.00,0.1698
1374.00,0.1478
1373.00,0.1217
1372.00,0.0983
1371.00,0.0792
1370.00,0.0640
1369.00,0.0524
1368.00,0.0444
1367.00,0.0395
1366.00,0.0367
1365.00,0.0356
1364.00,0.0358
1363.00,0.0370
1362.00,0.0389
1361.00,0.0409
1360.00,0.0425
1359.00,0.0429
1358.00,0.0420
1357.00,0.0396
1356.00,0.0363
1355.00,0.0326
1354.00,0.0290
1353.00,0.0259
1352.00,0.0234
1351.00,0.0213
1350.00,0.0196
1349.00,0.0182
1348.00,0.0171
1347.00,0.0161
1346.00,0.0152
1345.00,0.0145
1344.00,0.0138
1343.00,0.0133
1342.00,0.0129
1341.00,0.0125
1340.00,0.0123
1339.00,0.0120
1338.00,0.0119
1337.00,0.0119
1336.00,0.0120
1335.00,0.0122
1334.00,0.0125
1333.00,0.0128
1332.00,0.0132
1331.00,0.0135
1330.00,0.0136
1329.00,0.0135
1328.00,0.0132
1327.00,0.0127
1326.00,0.0122
1325.00,0.0117
1324.00,0.0111
1323.00,0.0107
1322.00,0.0103
1321.00,0.0099
1320.00,0.0097
1319.00,0.0095
1318.00,0.0093
1317.00,0.0092
1316.00,0.0091
1315.00,0.0090
1314.00,0.0090
1313.00,0.0091
1312.00,0.0092
1311.00,0.0095
1310.00,0.0098
1309.00,0.0105
1308.00,0.0114
1307.00,0.0126
1306.00,0.0138
1305.00,0.0146
1304.00,0.0148
1303.00,0.0146
1302.00,0.0140
1301.00,0.0135
1300.00,0.0131
1299.00,0.0130
1298.00,0.0130
1297.00,0.0130
1296.00,0.0129
1295.00,0.0126
1294.00,0.0122
1293.00,0.0117
1292.00,0.0112
1291.00,0.0108
1290.00,0.0103
1289.00,0.0099
1288.00,0.0095
1287.00,0.0093
1286.00,0.0091
1285.00,0.0089
1284.00,0.0088
1283.00,0.0086
1282.00,0.0085
1281.00,0.0084
1280.00,0.0083
1279.00,0.0082
1278.00,0.0082
1277.00,0.0081
1276.00,0.0081
1275.00,0.0080
1274.00,0.0080
1273.00,0.0080
1272.00,0.0080
1271.00,0.0081
1270.00,0.0083
1269.00,0.0085
1268.00,0.0087
1267.00,0.0090
1266.00,0.0093
1265.00,0.0096
1264.00,0.0100
1263.00,0.0103
1262.00,0.0107
1261.00,0.0111
1260.00,0.0116
1259.00,0.0123
1258.00,0.0130
1257.00,0.0136
1256.00,0.0138
1255.00,0.0135
1254.00,0.0129
1253.00,0.0120
1252.00,0.0112
1251.00,0.0104
1250.00,0.0099
1249.00,0.0095
1248.00,0.0092
1247.00,0.0089
1246.00,0.0087
1245.00,0.0085
1244.00,0.0083
1243.00,0.0081
1242.00,0.0080
1241.00,0.0079
1240.00,0.0078
1239.00,0.0078
1238.00,0.0078
1237.00,0.0078
1236.00,0.0078
1235.00,0.0077
1234.00,0.0077
1233.00,0.0078
1232.00,0.0078
1231.00,0.0080
1230.00,0.0081
1229.00,0.0082
1228.00,0.0083
1227.00,0.0085
1226.00,0.0086
1225.00,0.0089
1224.00,0.0092
1223.00,0.0096
1222.00,0.0099
1221.00,0.0102
1220.00,0.0103
1219.00,0.0103
1218.00,0.0103
1217.00,0.0101
1216.00,0.0099
1215.00,0.0095
1214.00,0.0093
1213.00,0.0090
1212.00,0.0088
1211.00,0.0087
1210.00,0.0085
1209.00,0.0084
1208.00,0.0083
1207.00,0.0082
1206.00,0.0081
1205.00,0.0081
1204.00,0.0080
1203.00,0.0080
1202.00,0.0080
1201.00,0.0080
1200.00,0.0080
1199.00,0.0079
1198.00,0.0079
1197.00,0.0079
1196.00,0.0080
1195.00,0.0081
1194.00,0.0081
1193.00,0.0081
1192.00,0.0081
1191.00,0.0082
1190.00,0.0083
1189.00,0.0083
1188.00,0.0083
1187.00,0.0083
1186.00,0.0084
1185.00,0.0084
1184.00,0.0085
1183.00,0.0087
1182.00,0.0088
1181.00,0.0090
1180.00,0.0093
1179.00,0.0097
1178.00,0.0104
1177.00,0.0113
1176.00,0.0124
1175.00,0.0140
1174.00,0.0160
1173.00,0.0185
1172.00,0.0215
1171.00,0.0248
1170.00,0.0279
1169.00,0.0305
1168.00,0.0320
1167.00,0.0324
1166.00,0.0316
1165.00,0.0300
1164.00,0.0281
1163.00,0.0263
1162.00,0.0248
1161.00,0.0235
1160.00,0.0225
1159.00,0.0217
1158.00,0.0211
1157.00,0.0207
1156.00,0.0203
1155.00,0.0201
1154.00,0.0200
1153.00,0.0198
1152.00,0.0194
1151.00,0.0187
1150.00,0.0178
1149.00,0.0169
1148.00,0.0159
1147.00,0.0150
1146.00,0.0142
1145.00,0.0134
1144.00,0.0127
1143.00,0.0121
1142.00,0.0114
1141.00,0.0108
1140.00,0.0103
1139.00,0.0099
1138.00,0.0095
1137.00,0.0092
1136.00,0.0090
1135.00,0.0088
1134.00,0.0087
1133.00,0.0086
1132.00,0.0086
1131.00,0.0086
1130.00,0.0086
1129.00,0.0086
1128.00,0.0086
1127.00,0.0086
1126.00,0.0087
1125.00,0.0087
1124.00,0.0087
1123.00,0.0087
1122.00,0.0088
1121.00,0.0089
1120.00,0.0091
1119.00,0.0093
1118.00,0.0095
1117.00,0.0096
1116.00,0.0097
1115.00,0.0098
1114.00,0.0100
1113.00,0.0102
1112.00,0.0104
1111.00,0.0107
1110.00,0.0110
1109.00,0.0114
1108.00,0.0119
1107.00,0.0125
1106.00,0.0131
1105.00,0.0136
1104.00,0.0140
1103.00,0.0142
1102.00,0.0141
1101.00,0.0138
1100.00,0.0133
1099.00,0.0127
1098.00,0.0122
1097.00,0.0117
1096.00,0.0113
1095.00,0.0109
1094.00,0.0106
1093.00,0.0103
1092.00,0.0100
1091.00,0.0098
1090.00,0.0096
1089.00,0.0095
1088.00,0.0094
1087.00,0.0094
1086.00,0.0094
1085.00,0.0094
1084.00,0.0094
1083.00,0.0093
1082.00,0.0093
1081.00,0.0092
1080.00,0.0090
1079.00,0.0089
1078.00,0.0088
1077.00,0.0087
1076.00,0.0087
1075.00,0.0086
1074.00,0.0086
1073.00,0.0086
1072.00,0.0087
1071.00,0.0087
1070.00,0.0087
1069.00,0.0087
1068.00,0.0087
1067.00,0.0087
1066.00,0.0087
1065.00,0.0087
1064.00,0.0087
1063.00,0.0087
1062.00,0.0087
1061.00,0.0088
1060.00,0.0089
1059.00,0.0090
1058.00,0.0092
1057.00,0.0094
1056.00,0.0097
1055.00,0.0099
1054.00,0.0102
1053.00,0.0104
1052.00,0.0107
1051.00,0.0110
1050.00,0.0115
1049.00,0.0120
1048.00,0.0125
1047.00,0.0130
1046.00,0.0134
1045.00,0.0136
1044.00,0.0137
1043.00,0.0136
1042.00,0.0134
1041.00,0.0132
1040.00,0.0130
1039.00,0.0128
1038.00,0.0127
1037.00,0.0126
1036.00,0.0125
1035.00,0.0124
1034.00,0.0122
1033.00,0.0121
1032.00,0.0119
1031.00,0.0119
1030.00,0.0119
1029.00,0.0119
1028.00,0.0121
1027.00,0.0122
1026.00,0.0124
1025.00,0.0126
1024.00,0.0128
1023.00,0.0130
1022.00,0.0132
1021.00,0.0135
1020.00,0.0136
1019.00,0.0138
1018.00,0.0139
1017.00,0.0140
1016.00,0.0141
1015.00,0.0140
1014.00,0.0139
1013.00,0.0138
1012.00,0.0138
1011.00,0.0139
1010.00,0.0139
1009.00,0.0140
1008.00,0.0143
1007.00,0.0147
1006.00,0.0154
1005.00,0.0165
1004.00,0.0180
1003.00,0.0201
1002.00,0.0232
1001.00,0.0272
1000.00,0.0313
999.00,0.0348
998.00,0.0365
997.00,0.0358
996.00,0.0331
995.00,0.0291
994.00,0.0248
993.00,0.0211
992.00,0.0182
991.00,0.0160
990.00,0.0145
989.00,0.0134
988.00,0.0128
987.00,0.0124
986.00,0.0123
985.00,0.0124
984.00,0.0129
983.00,0.0137
982.00,0.0148
981.00,0.0163
980.00,0.0184
979.00,0.0213
978.00,0.0249
977.00,0.0292
976.00,0.0339
975.00,0.0384
974.00,0.0417
973.00,0.0429
972.00,0.0415
971.00,0.0376
970.00,0.0322
969.00,0.0267
968.00,0.0219
967.00,0.0183
966.00,0.0157
965.00,0.0139
964.00,0.0126
963.00,0.0117
962.00,0.0110
961.00,0.0104
960.00,0.0100
959.00,0.0096
958.00,0.0092
957.00,0.0089
956.00,0.0087
955.00,0.0085
954.00,0.0084
953.00,0.0083
952.00,0.0082
951.00,0.0082
950.00,0.0081
949.00,0.0080
948.00,0.0080
947.00,0.0081
946.00,0.0082
945.00,0.0084
944.00,0.0086
943.00,0.0089
942.00,0.0093
941.00,0.0095
940.00,0.0095
939.00,0.0093
938.00,0.0089
937.00,0.0083
936.00,0.0078
935.00,0.0074
934.00,0.0071
933.00,0.0069
932.00,0.0069
931.00,0.0068
930.00,0.0068
929.00,0.0067
928.00,0.0066
927.00,0.0065
926.00,0.0064
925.00,0.0063
924.00,0.0063
923.00,0.0063
922.00,0.0064
921.00,0.0065
920.00,0.0065
919.00,0.0065
918.00,0.0065
917.00,0.0066
916.00,0.0067
915.00,0.0067
914.00,0.0067
913.00,0.0068
912.00,0.0069
911.00,0.0070
910.00,0.0072
909.00,0.0074
908.00,0.0078
907.00,0.0084
906.00,0.0092
905.00,0.0102
904.00,0.0115
903.00,0.0130
902.00,0.0148
901.00,0.0165
900.00,0.0176
899.00,0.0179
898.00,0.0172
897.00,0.0158
896.00,0.0140
895.00,0.0122
894.00,0.0108
893.00,0.0097
892.00,0.0090
891.00,0.0085
890.00,0.0083
889.00,0.0082
888.00,0.0081
887.00,0.0079
886.00,0.0077
885.00,0.0075
884.00,0.0075
883.00,0.0075
882.00,0.0075
881.00,0.0076
880.00,0.0076
879.00,0.0077
878.00,0.0078
877.00,0.0079
876.00,0.0079
875.00,0.0079
874.00,0.0078
873.00,0.0078
872.00,0.0078
871.00,0.0078
870.00,0.0078
869.00,0.0078
868.00,0.0078
867.00,0.0079
866.00,0.0080
865.00,0.0081
864.00,0.0082
863.00,0.0083
862.00,0.0084
861.00,0.0085
860.00,0.0086
859.00,0.0088
858.00,0.0090
857.00,0.0091
856.00,0.0092
855.00,0.0093
854.00,0.0094
853.00,0.0095
852.00,0.0098
851.00,0.0103
850.00,0.0108
849.00,0.0115
848.00,0.0125
847.00,0.0140
846.00,0.0161
845.00,0.0194
844.00,0.0240
843.00,0.0295
842.00,0.0341
841.00,0.0357
840.00,0.0333
839.00,0.0283
838.00,0.0228
837.00,0.0185
836.00,0.0157
835.00,0.0140
834.00,0.0129
833.00,0.0122
832.00,0.0117
831.00,0.0113
830.00,0.0112
829.00,0.0110
828.00,0.0108
827.00,0.0105
826.00,0.0103
825.00,0.0102
824.00,0.0101
823.00,0.0102
822.00,0.0102
821.00,0.0102
820.00,0.0104
819.00,0.0108
818.00,0.0113
817.00,0.0119
816.00,0.0127
815.00,0.0139
814.00,0.0153
813.00,0.0171
812.00,0.0189
811.00,0.0204
810.00,0.0216
809.00,0.0220
808.00,0.0216
807.00,0.0205
806.00,0.0189
805.00,0.0171
804.00,0.0155
803.00,0.0142
802.00,0.0133
801.00,0.0126
800.00,0.0122
799.00,0.0117
798.00,0.0113
797.00,0.0108
796.00,0.0105
795.00,0.0102
794.00,0.0099
793.00,0.0096
792.00,0.0093
791.00,0.0090
790.00,0.0087
789.00,0.0085
788.00,0.0082
787.00,0.0079
786.00,0.0076
785.00,0.0073
784.00,0.0071
783.00,0.0070
782.00,0.0069
781.00,0.0068
780.00,0.0067
779.00,0.0067
778.00,0.0068
777.00,0.0069
776.00,0.0070
775.00,0.0070
774.00,0.0068
773.00,0.0067
772.00,0.0067
771.00,0.0069
770.00,0.0070
769.00,0.0071
768.00,0.0071
767.00,0.0070
766.00,0.0070
765.00,0.0071
764.00,0.0071
763.00,0.0070
762.00,0.0069
761.00,0.0069
760.00,0.0069
759.00,0.0071
758.00,0.0074
757.00,0.0075
756.00,0.0075
755.00,0.0075
754.00,0.0074
753.00,0.0073
752.00,0.0073
751.00,0.0073
750.00,0.0075
749.00,0.0078
748.00,0.0081
747.00,0.0084
746.00,0.0087
745.00,0.0088
744.00,0.0090
743.00,0.0092
742.00,0.0096
741.00,0.0099
740.00,0.0103
739.00,0.0106
738.00,0.0109
737.00,0.0114
736.00,0.0119
735.00,0.0124
734.00,0.0130
733.00,0.0135
732.00,0.0142
731.00,0.0149
730.00,0.0156
729.00,0.0161
728.00,0.0163
727.00,0.0162
726.00,0.0163
725.00,0.0165
724.00,0.0169
723.00,0.0174
722.00,0.0180
721.00,0.0184
720.00,0.0182
719.00,0.0176
718.00,0.0165
717.00,0.0154
716.00,0.0143
715.00,0.0134
714.00,0.0127
713.00,0.0120
712.00,0.0116
711.00,0.0114
710.00,0.0113
709.00,0.0112
708.00,0.0110
707.00,0.0109
706.00,0.0109
705.00,0.0108
704.00,0.0105
703.00,0.0103
702.00,0.0101
701.00,0.0101
700.00,0.0100
699.00,0.0099
698.00,0.0099
697.00,0.0098
696.00,0.0099
695.00,0.0100
694.00,0.0099
693.00,0.0098
692.00,0.0095
691.00,0.0094
690.00,0.0093
689.00,0.0093
688.00,0.0094
687.00,0.0096
686.00,0.0096
685.00,0.0096
684.00,0.0094
683.00,0.0092
682.00,0.0092
681.00,0.0092
680.00,0.0093
679.00,0.0094
678.00,0.0094
677.00,0.0095
676.00,0.0096
675.00,0.0097
674.00,0.0098
673.00,0.0099
672.00,0.0100
671.00,0.0101
670.00,0.0103
669.00,0.0104
668.00,0.0105
667.00,0.0105
666.00,0.0104
665.00,0.0101
664.00,0.0100
663.00,0.0098
662.00,0.0097
661.00,0.0095
660.00,0.0093
659.00,0.0091
658.00,0.0090
657.00,0.0089
656.00,0.0088
655.00,0.0087
654.00,0.0087
653.00,0.0088
652.00,0.0089
651.00,0.0091
650.00,0.0093
649.00,0.0095
648.00,0.0095
647.00,0.0092
646.00,0.0088
645.00,0.0084
644.00,0.0083
643.00,0.0083
642.00,0.0084
641.00,0.0085
640.00,0.0085
639.00,0.0085
638.00,0.0086
637.00,0.0086
636.00,0.0085
635.00,0.0083
634.00,0.0082
633.00,0.0082
632.00,0.0083
631.00,0.0084
630.00,0.0084
629.00,0.0085
628.00,0.0087
627.00,0.0089
626.00,0.0090
625.00,0.0090
624.00,0.0088
623.00,0.0086
622.00,0.0084
621.00,0.0084
620.00,0.0084
619.00,0.0085
618.00,0.0084
617.00,0.0084
616.00,0.0085
615.00,0.0087
614.00,0.0089
613.00,0.0088
612.00,0.0086
611.00,0.0084
610.00,0.0084
609.00,0.0085
608.00,0.0088
607.00,0.0089
606.00,0.0090
605.00,0.0091
604.00,0.0090
603.00,0.0089
602.00,0.0088
601.00,0.0088
600.00,0.0088
599.00,0.0089
598.00,0.0091
597.00,0.0093
596.00,0.0093
595.00,0.0091
594.00,0.0089
593.00,0.0088
592.00,0.0088
591.00,0.0088
590.00,0.0087
589.00,0.0086
588.00,0.0086
587.00,0.0085
586.00,0.0083
585.00,0.0082
584.00,0.0082
583.00,0.0083
582.00,0.0085
581.00,0.0086
580.00,0.0086
579.00,0.0086
578.00,0.0086
577.00,0.0085
576.00,0.0086
575.00,0.0087
574.00,0.0088
573.00,0.0089
572.00,0.0090
571.00,0.0090
570.00,0.0090
569.00,0.0090
568.00,0.0088
567.00,0.0086
566.00,0.0083
565.00,0.0082
564.00,0.0084
563.00,0.0089
562.00,0.0095
561.00,0.0098
560.00,0.0099
559.00,0.0098
558.00,0.0098
557.00,0.0096
556.00,0.0094
555.00,0.0092
554.00,0.0090
553.00,0.0088
552.00,0.0085
551.00,0.0084
550.00,0.0084
549.00,0.0086
548.00,0.0089
547.00,0.0093
546.00,0.0097
545.00,0.0100
544.00,0.0100
543.00,0.0100
542.00,0.0100
541.00,0.0101
540.00,0.0102
539.00,0.0104
538.00,0.0107
537.00,0.0110
536.00,0.0111
535.00,0.0111
534.00,0.0111
533.00,0.0114
532.00,0.0118
531.00,0.0120
530.00,0.0118
529.00,0.0114
528.00,0.0109
527.00,0.0106
526.00,0.0104
525.00,0.0103
524.00,0.0102
523.00,0.0102
522.00,0.0104
521.00,0.0106
520.00,0.0106
519.00,0.0104
518.00,0.0099
517.00,0.0096
516.00,0.0095
515.00,0.0096
514.00,0.0096
513.00,0.0097
512.00,0.0098
511.00,0.0097
510.00,0.0093
509.00,0.0088
508.00,0.0084
507.00,0.0085
506.00,0.0090
505.00,0.0095
504.00,0.0101
503.00,0.0104
502.00,0.0104
501.00,0.0100
500.00,0.0094
499.00,0.0088
498.00,0.0086
497.00,0.0088
496.00,0.0092
495.00,0.0091
494.00,0.0085
493.00,0.0078
492.00,0.0073
491.00,0.0072
490.00,0.0076
489.00,0.0082
488.00,0.0090
487.00,0.0097
486.00,0.0101
485.00,0.0101
484.00,0.0101
483.00,0.0105
482.00,0.0112
481.00,0.0118
480.00,0.0123
479.00,0.0126
478.00,0.0129
477.00,0.0130
476.00,0.0131
475.00,0.0129
474.00,0.0122
473.00,0.0114
472.00,0.0110
471.00,0.0112
470.00,0.0117
469.00,0.0127
468.00,0.0144
467.00,0.0166
466.00,0.0184
465.00,0.0193
464.00,0.0197
463.00,0.0200
462.00,0.0205
461.00,0.0208
460.00,0.0210
459.00,0.0212
458.00,0.0212
457.00,0.0206
456.00,0.0200
455.00,0.0199
454.00,0.0199
453.00,0.0197
452.00,0.0190
451.00,0.0181
450.00,0.0172
