Created as New Dataset,Sample 002 By Administrator Date Thursday, September 04 2025
cm-1,A
4000.00,0.0007
3999.00,0.0007
3998.00,0.0007
3997.00,0.0008
3996.00,0.0008
3995.00,0.0008
3994.00,0.0008
3993.00,0.0008
3992.00,0.0008
3991.00,0.0008
3990.00,0.0008
3989.00,0.0007
3988.00,0.0007
3987.00,0.0007
3986.00,0.0007
3985.00,0.0007
3984.00,0.0007
3983.00,0.0007
3982.00,0.0007
3981.00,0.0007
3980.00,0.0007
3979.00,0.0007
3978.00,0.0007
3977.00,0.0006
3976.00,0.0006
3975.00,0.0006
3974.00,0.0006
3973.00,0.0006
3972.00,0.0006
3971.00,0.0006
3970.00,0.0006
3969.00,0.0006
3968.00,0.0006
3967.00,0.0006
3966.00,0.0006
3965.00,0.0006
3964.00,0.0006
3963.00,0.0006
3962.00,0.0006
3961.00,0.0006
3960.00,0.0006
3959.00,0.0006
3958.00,0.0006
3957.00,0.0006
3956.00,0.0006
3955.00,0.0006
3954.00,0.0006
3953.00,0.0006
3952.00,0.0006
3951.00,0.0006
3950.00,0.0006
3949.00,0.0006
3948.00,0.0006
3947.00,0.0006
3946.00,0.0006
3945.00,0.0006
3944.00,0.0006
3943.00,0.0006
3942.00,0.0006
3941.00,0.0006
3940.00,0.0006
3939.00,0.0006
3938.00,0.0006
3937.00,0.0007
3936.00,0.0007
3935.00,0.0007
3934.00,0.0007
3933.00,0.0006
3932.00,0.0006
3931.00,0.0006
3930.00,0.0005
3929.00,0.0005
3928.00,0.0006
3927.00,0.0006
3926.00,0.0006
3925.00,0.0007
3924.00,0.0006
3923.00,0.0006
3922.00,0.0006
3921.00,0.0006
3920.00,0.0005
3919.00,0.0005
3918.00,0.0005
3917.00,0.0005
3916.00,0.0005
3915.00,0.0005
3914.00,0.0005
3913.00,0.0006
3912.00,0.0006
3911.00,0.0006
3910.00,0.0006
3909.00,0.0006
3908.00,0.0006
3907.00,0.0006
3906.00,0.0005
3905.00,0.0005
3904.00,0.0005
3903.00,0.0005
3902.00,0.0005
3901.00,0.0005
3900.00,0.0005
3899.00,0.0006
3898.00,0.0006
3897.00,0.0006
3896.00,0.0006
3895.00,0.0005
3894.00,0.0005
3893.00,0.0006
3892.00,0.0006
3891.00,0.0006
3890.00,0.0006
3889.00,0.0005
3888.00,0.0005
3887.00,0.0005
3886.00,0.0005
3885.00,0.0005
3884.00,0.0005
3883.00,0.0005
3882.00,0.0005
3881.00,0.0005
3880.00,0.0006
3879.00,0.0006
3878.00,0.0006
3877.00,0.0006
3876.00,0.0006
3875.00,0.0006
3874.00,0.0005
3873.00,0.0005
3872.00,0.0005
3871.00,0.0005
3870.00,0.0006
3869.00,0.0006
3868.00,0.0006
3867.00,0.0005
3866.00,0.0005
3865.00,0.0005
3864.00,0.0005
3863.00,0.0005
3862.00,0.0005
3861.00,0.0005
3860.00,0.0005
3859.00,0.0005
3858.00,0.0005
3857.00,0.0005
3856.00,0.0005
3855.00,0.0005
3854.00,0.0006
3853.00,0.0006
3852.00,0.0006
3851.00,0.0005
3850.00,0.0005
3849.00,0.0005
3848.00,0.0005
3847.00,0.0005
3846.00,0.0005
3845.00,0.0005
3844.00,0.0005
3843.00,0.0005
3842.00,0.0005
3841.00,0.0005
3840.00,0.0006
3839.00,0.0006
3838.00,0.0006
3837.00,0.0005
3836.00,0.0005
3835.00,0.0005
3834.00,0.0005
3833.00,0.0005
3832.00,0.0005
3831.00,0.0005
3830.00,0.0005
3829.00,0.0005
3828.00,0.0005
3827.00,0.0005
3826.00,0.0006
3825.00,0.0006
3824.00,0.0006
3823.00,0.0006
3822.00,0.0006
3821.00,0.0005
3820.00,0.0005
3819.00,0.0005
3818.00,0.0004
3817.00,0.0005
3816.00,0.0005
3815.00,0.0005
3814.00,0.0005
3813.00,0.0005
3812.00,0.0005
3811.00,0.0005
3810.00,0.0005
3809.00,0.0005
3808.00,0.0006
3807.00,0.0006
3806.00,0.0006
3805.00,0.0005
3804.00,0.0005
3803.00,0.0005
3802.00,0.0005
3801.00,0.0005
3800.00,0.0005
3799.00,0.0005
3798.00,0.0005
3797.00,0.0005
3796.00,0.0005
3795.00,0.0005
3794.00,0.0005
3793.00,0.0005
3792.00,0.0005
3791.00,0.0005
3790.00,0.0005
3789.00,0.0005
3788.00,0.0005
3787.00,0.0005
3786.00,0.0006
3785.00,0.0006
3784.00,0.0006
3783.00,0.0006
3782.00,0.0005
3781.00,0.0005
3780.00,0.0005
3779.00,0.0005
3778.00,0.0005
3777.00,0.0005
3776.00,0.0005
3775.00,0.0005
3774.00,0.0006
3773.00,0.0006
3772.00,0.0006
3771.00,0.0006
3770.00,0.0006
3769.00,0.0005
3768.00,0.0005
3767.00,0.0005
3766.00,0.0006
3765.00,0.0006
3764.00,0.0006
3763.00,0.0006
3762.00,0.0006
3761.00,0.0006
3760.00,0.0006
3759.00,0.0006
3758.00,0.0006
3757.00,0.0006
3756.00,0.0006
3755.00,0.0006
3754.00,0.0005
3753.00,0.0005
3752.00,0.0005
3751.00,0.0005
3750.00,0.0006
3749.00,0.0006
3748.00,0.0005
3747.00,0.0005
3746.00,0.0005
3745.00,0.0004
3744.00,0.0004
3743.00,0.0004
3742.00,0.0003
3741.00,0.0003
3740.00,0.0003
3739.00,0.0003
3738.00,0.0003
3737.00,0.0003
3736.00,0.0003
3735.00,0.0003
3734.00,0.0003
3733.00,0.0004
3732.00,0.0004
3731.00,0.0004
3730.00,0.0004
3729.00,0.0004
3728.00,0.0004
3727.00,0.0004
3726.00,0.0004
3725.00,0.0004
3724.00,0.0004
3723.00,0.0004
3722.00,0.0004
3721.00,0.0004
3720.00,0.0004
3719.00,0.0004
3718.00,0.0004
3717.00,0.0004
3716.00,0.0004
3715.00,0.0004
3714.00,0.0004
3713.00,0.0004
3712.00,0.0004
3711.00,0.0004
3710.00,0.0004
3709.00,0.0003
3708.00,0.0003
3707.00,0.0003
3706.00,0.0003
3705.00,0.0004
3704.00,0.0004
3703.00,0.0004
3702.00,0.0004
3701.00,0.0004
3700.00,0.0004
3699.00,0.0003
3698.00,0.0003
3697.00,0.0003
3696.00,0.0003
3695.00,0.0003
3694.00,0.0003
3693.00,0.0003
3692.00,0.0003
3691.00,0.0003
3690.00,0.0003
3689.00,0.0003
3688.00,0.0003
3687.00,0.0003
3686.00,0.0004
3685.00,0.0004
3684.00,0.0004
3683.00,0.0004
3682.00,0.0004
3681.00,0.0004
3680.00,0.0004
3679.00,0.0004
3678.00,0.0003
3677.00,0.0004
3676.00,0.0004
3675.00,0.0004
3674.00,0.0004
3673.00,0.0004
3672.00,0.0003
3671.00,0.0003
3670.00,0.0002
3669.00,0.0002
3668.00,0.0002
3667.00,0.0003
3666.00,0.0003
3665.00,0.0003
3664.00,0.0003
3663.00,0.0003
3662.00,0.0003
3661.00,0.0003
3660.00,0.0002
3659.00,0.0002
3658.00,0.0003
3657.00,0.0003
3656.00,0.0003
3655.00,0.0003
3654.00,0.0003
3653.00,0.0003
3652.00,0.0003
3651.00,0.0003
3650.00,0.0003
3649.00,0.0003
3648.00,0.0003
3647.00,0.0003
3646.00,0.0003
3645.00,0.0003
3644.00,0.0004
3643.00,0.0004
3642.00,0.0004
3641.00,0.0004
3640.00,0.0004
3639.00,0.0004
3638.00,0.0004
3637.00,0.0004
3636.00,0.0004
3635.00,0.0003
3634.00,0.0003
3633.00,0.0003
3632.00,0.0003
3631.00,0.0003
3630.00,0.0004
3629.00,0.0004
3628.00,0.0004
3627.00,0.0004
3626.00,0.0003
3625.00,0.0003
3624.00,0.0003
3623.00,0.0003
3622.00,0.0003
3621.00,0.0003
3620.00,0.0003
3619.00,0.0003
3618.00,0.0003
3617.00,0.0003
3616.00,0.0003
3615.00,0.0003
3614.00,0.0003
3613.00,0.0003
3612.00,0.0004
3611.00,0.0004
3610.00,0.0004
3609.00,0.0005
3608.00,0.0005
3607.00,0.0005
3606.00,0.0005
3605.00,0.0004
3604.00,0.0004
3603.00,0.0004
3602.00,0.0004
3601.00,0.0004
3600.00,0.0004
3599.00,0.0005
3598.00,0.0004
3597.00,0.0004
3596.00,0.0004
3595.00,0.0004
3594.00,0.0005
3593.00,0.0005
3592.00,0.0005
3591.00,0.0005
3590.00,0.0005
3589.00,0.0005
3588.00,0.0005
3587.00,0.0005
3586.00,0.0005
3585.00,0.0005
3584.00,0.0005
3583.00,0.0006
3582.00,0.0006
3581.00,0.0006
3580.00,0.0006
3579.00,0.0006
3578.00,0.0006
3577.00,0.0006
3576.00,0.0006
3575.00,0.0006
3574.00,0.0006
3573.00,0.0006
3572.00,0.0007
3571.00,0.0007
3570.00,0.0007
3569.00,0.0007
3568.00,0.0008
3567.00,0.0008
3566.00,0.0008
3565.00,0.0008
3564.00,0.0008
3563.00,0.0008
3562.00,0.0008
3561.00,0.0008
3560.00,0.0008
3559.00,0.0008
3558.00,0.0008
3557.00,0.0009
3556.00,0.0009
3555.00,0.0009
3554.00,0.0009
3553.00,0.0010
3552.00,0.0010
3551.00,0.0010
3550.00,0.0010
3549.00,0.0010
3548.00,0.0010
3547.00,0.0010
3546.00,0.0011
3545.00,0.0011
3544.00,0.0011
3543.00,0.0011
3542.00,0.0011
3541.00,0.0011
3540.00,0.0011
3539.00,0.0011
3538.00,0.0011
3537.00,0.0011
3536.00,0.0012
3535.00,0.0012
3534.00,0.0012
3533.00,0.0012
3532.00,0.0012
3531.00,0.0012
3530.00,0.0012
3529.00,0.0012
3528.00,0.0012
3527.00,0.0012
3526.00,0.0012
3525.00,0.0012
3524.00,0.0013
3523.00,0.0013
3522.00,0.0013
3521.00,0.0014
3520.00,0.0014
3519.00,0.0014
3518.00,0.0015
3517.00,0.0015
3516.00,0.0015
3515.00,0.0015
3514.00,0.0015
3513.00,0.0016
3512.00,0.0016
3511.00,0.0017
3510.00,0.0017
3509.00,0.0017
3508.00,0.0017
3507.00,0.0017
3506.00,0.0017
3505.00,0.0017
3504.00,0.0017
3503.00,0.0017
3502.00,0.0018
3501.00,0.0018
3500.00,0.0018
3499.00,0.0018
3498.00,0.0018
3497.00,0.0018
3496.00,0.0018
3495.00,0.0018
3494.00,0.0019
3493.00,0.0019
3492.00,0.0019
3491.00,0.0019
3490.00,0.0019
3489.00,0.0019
3488.00,0.0020
3487.00,0.0020
3486.00,0.0020
3485.00,0.0020
3484.00,0.0021
3483.00,0.0021
3482.00,0.0021
3481.00,0.0021
3480.00,0.0021
3479.00,0.0020
3478.00,0.0021
3477.00,0.0021
3476.00,0.0021
3475.00,0.0021
3474.00,0.0021
3473.00,0.0021
3472.00,0.0021
3471.00,0.0021
3470.00,0.0021
3469.00,0.0022
3468.00,0.0022
3467.00,0.0023
3466.00,0.0023
3465.00,0.0023
3464.00,0.0023
3463.00,0.0023
3462.00,0.0023
3461.00,0.0023
3460.00,0.0023
3459.00,0.0023
3458.00,0.0023
3457.00,0.0023
3456.00,0.0023
3455.00,0.0023
3454.00,0.0024
3453.00,0.0024
3452.00,0.0024
3451.00,0.0024
3450.00,0.0024
3449.00,0.0025
3448.00,0.0025
3447.00,0.0025
3446.00,0.0026
3445.00,0.0026
3444.00,0.0026
3443.00,0.0025
3442.00,0.0025
3441.00,0.0025
3440.00,0.0025
3439.00,0.0025
3438.00,0.0025
3437.00,0.0025
3436.00,0.0025
3435.00,0.0025
3434.00,0.0026
3433.00,0.0026
3432.00,0.0026
3431.00,0.0026
3430.00,0.0026
3429.00,0.0026
3428.00,0.0027
3427.00,0.0027
3426.00,0.0028
3425.00,0.0028
3424.00,0.0028
3423.00,0.0028
3422.00,0.0028
3421.00,0.0028
3420.00,0.0028
3419.00,0.0028
3418.00,0.0028
3417.00,0.0028
3416.00,0.0028
3415.00,0.0028
3414.00,0.0028
3413.00,0.0029
3412.00,0.0029
3411.00,0.0029
3410.00,0.0030
3409.00,0.0030
3408.00,0.0030
3407.00,0.0030
3406.00,0.0030
3405.00,0.0030
3404.00,0.0030
3403.00,0.0030
3402.00,0.0029
3401.00,0.0029
3400.00,0.0028
3399.00,0.0028
3398.00,0.0029
3397.00,0.0029
3396.00,0.0029
3395.00,0.0029
3394.00,0.0029
3393.00,0.0029
3392.00,0.0029
3391.00,0.0029
3390.00,0.0029
3389.00,0.0029
3388.00,0.0029
3387.00,0.0029
3386.00,0.0029
3385.00,0.0029
3384.00,0.0029
3383.00,0.0029
3382.00,0.0029
3381.00,0.0029
3380.00,0.0029
3379.00,0.0029
3378.00,0.0030
3377.00,0.0030
3376.00,0.0030
3375.00,0.0030
3374.00,0.0030
3373.00,0.0030
3372.00,0.0030
3371.00,0.0030
3370.00,0.0030
3369.00,0.0030
3368.00,0.0030
3367.00,0.0030
3366.00,0.0030
3365.00,0.0030
3364.00,0.0030
3363.00,0.0030
3362.00,0.0030
3361.00,0.0030
3360.00,0.0030
3359.00,0.0030
3358.00,0.0030
3357.00,0.0030
3356.00,0.0030
3355.00,0.0030
3354.00,0.0030
3353.00,0.0030
3352.00,0.0030
3351.00,0.0030
3350.00,0.0030
3349.00,0.0030
3348.00,0.0030
3347.00,0.0030
3346.00,0.0030
3345.00,0.0030
3344.00,0.0030
3343.00,0.0030
3342.00,0.0030
3341.00,0.0030
3340.00,0.0030
3339.00,0.0030
3338.00,0.0030
3337.00,0.0030
3336.00,0.0030
3335.00,0.0029
3334.00,0.0029
3333.00,0.0028
3332.00,0.0028
3331.00,0.0028
3330.00,0.0028
3329.00,0.0028
3328.00,0.0028
3327.00,0.0028
3326.00,0.0028
3325.00,0.0028
3324.00,0.0028
3323.00,0.0028
3322.00,0.0028
3321.00,0.0028
3320.00,0.0028
3319.00,0.0028
3318.00,0.0028
3317.00,0.0028
3316.00,0.0028
3315.00,0.0028
3314.00,0.0028
3313.00,0.0028
3312.00,0.0028
3311.00,0.0028
3310.00,0.0028
3309.00,0.0028
3308.00,0.0028
3307.00,0.0028
3306.00,0.0028
3305.00,0.0028
3304.00,0.0028
3303.00,0.0029
3302.00,0.0029
3301.00,0.0029
3300.00,0.0029
3299.00,0.0029
3298.00,0.0028
3297.00,0.0028
3296.00,0.0027
3295.00,0.0027
3294.00,0.0027
3293.00,0.0027
3292.00,0.0027
3291.00,0.0027
3290.00,0.0027
3289.00,0.0027
3288.00,0.0026
3287.00,0.0026
3286.00,0.0026
3285.00,0.0025
3284.00,0.0025
3283.00,0.0025
3282.00,0.0025
3281.00,0.0025
3280.00,0.0025
3279.00,0.0025
3278.00,0.0026
3277.00,0.0026
3276.00,0.0025
3275.00,0.0025
3274.00,0.0025
3273.00,0.0025
3272.00,0.0025
3271.00,0.0026
3270.00,0.0026
3269.00,0.0025
3268.00,0.0025
3267.00,0.0025
3266.00,0.0025
3265.00,0.0025
3264.00,0.0025
3263.00,0.0025
3262.00,0.0025
3261.00,0.0024
3260.00,0.0024
3259.00,0.0024
3258.00,0.0023
3257.00,0.0023
3256.00,0.0023
3255.00,0.0023
3254.00,0.0023
3253.00,0.0023
3252.00,0.0023
3251.00,0.0023
3250.00,0.0023
3249.00,0.0022
3248.00,0.0022
3247.00,0.0023
3246.00,0.0023
3245.00,0.0023
3244.00,0.0023
3243.00,0.0023
3242.00,0.0023
3241.00,0.0023
3240.00,0.0023
3239.00,0.0023
3238.00,0.0023
3237.00,0.0023
3236.00,0.0023
3235.00,0.0023
3234.00,0.0023
3233.00,0.0023
3232.00,0.0023
3231.00,0.0023
3230.00,0.0023
3229.00,0.0024
3228.00,0.0025
3227.00,0.0025
3226.00,0.0025
3225.00,0.0025
3224.00,0.0024
3223.00,0.0024
3222.00,0.0024
3221.00,0.0025
3220.00,0.0025
3219.00,0.0026
3218.00,0.0026
3217.00,0.0027
3216.00,0.0027
3215.00,0.0027
3214.00,0.0027
3213.00,0.0027
3212.00,0.0027
3211.00,0.0028
3210.00,0.0028
3209.00,0.0027
3208.00,0.0027
3207.00,0.0027
3206.00,0.0027
3205.00,0.0028
3204.00,0.0028
3203.00,0.0028
3202.00,0.0028
3201.00,0.0027
3200.00,0.0027
3199.00,0.0028
3198.00,0.0028
3197.00,0.0028
3196.00,0.0028
3195.00,0.0028
3194.00,0.0028
3193.00,0.0027
3192.00,0.0027
3191.00,0.0027
3190.00,0.0027
3189.00,0.0027
3188.00,0.0027
3187.00,0.0027
3186.00,0.0027
3185.00,0.0027
3184.00,0.0026
3183.00,0.0026
3182.00,0.0026
3181.00,0.0026
3180.00,0.0026
3179.00,0.0026
3178.00,0.0026
3177.00,0.0026
3176.00,0.0026
3175.00,0.0025
3174.00,0.0025
3173.00,0.0025
3172.00,0.0025
3171.00,0.0025
3170.00,0.0025
3169.00,0.0025
3168.00,0.0025
3167.00,0.0025
3166.00,0.0025
3165.00,0.0025
3164.00,0.0024
3163.00,0.0024
3162.00,0.0024
3161.00,0.0024
3160.00,0.0024
3159.00,0.0024
3158.00,0.0024
3157.00,0.0024
3156.00,0.0025
3155.00,0.0025
3154.00,0.0025
3153.00,0.0025
3152.00,0.0025
3151.00,0.0025
3150.00,0.0025
3149.00,0.0025
3148.00,0.0025
3147.00,0.0025
3146.00,0.0025
3145.00,0.0025
3144.00,0.0024
3143.00,0.0024
3142.00,0.0024
3141.00,0.0024
3140.00,0.0024
3139.00,0.0024
3138.00,0.0024
3137.00,0.0024
3136.00,0.0024
3135.00,0.0024
3134.00,0.0023
3133.00,0.0023
3132.00,0.0023
3131.00,0.0023
3130.00,0.0022
3129.00,0.0022
3128.00,0.0023
3127.00,0.0023
3126.00,0.0022
3125.00,0.0022
3124.00,0.0022
3123.00,0.0022
3122.00,0.0022
3121.00,0.0022
3120.00,0.0022
3119.00,0.0021
3118.00,0.0021
3117.00,0.0021
3116.00,0.0020
3115.00,0.0020
3114.00,0.0020
3113.00,0.0020
3112.00,0.0020
3111.00,0.0020
3110.00,0.0020
3109.00,0.0020
3108.00,0.0020
3107.00,0.0020
3106.00,0.0020
3105.00,0.0020
3104.00,0.0020
3103.00,0.0020
3102.00,0.0020
3101.00,0.0020
3100.00,0.0020
3099.00,0.0020
3098.00,0.0020
3097.00,0.0020
3096.00,0.0020
3095.00,0.0020
3094.00,0.0020
3093.00,0.0020
3092.00,0.0020
3091.00,0.0020
3090.00,0.0020
3089.00,0.0020
3088.00,0.0020
3087.00,0.0020
3086.00,0.0020
3085.00,0.0020
3084.00,0.0020
3083.00,0.0020
3082.00,0.0020
3081.00,0.0020
3080.00,0.0020
3079.00,0.0021
3078.00,0.0021
3077.00,0.0021
3076.00,0.0020
3075.00,0.0020
3074.00,0.0020
3073.00,0.0021
3072.00,0.0021
3071.00,0.0022
3070.00,0.0022
3069.00,0.0022
3068.00,0.0022
3067.00,0.0023
3066.00,0.0023
3065.00,0.0023
3064.00,0.0023
3063.00,0.0023
3062.00,0.0024
3061.00,0.0024
3060.00,0.0024
3059.00,0.0024
3058.00,0.0024
3057.00,0.0024
3056.00,0.0024
3055.00,0.0024
3054.00,0.0024
3053.00,0.0025
3052.00,0.0025
3051.00,0.0025
3050.00,0.0025
3049.00,0.0026
3048.00,0.0026
3047.00,0.0026
3046.00,0.0027
3045.00,0.0027
3044.00,0.0027
3043.00,0.0027
3042.00,0.0027
3041.00,0.0028
3040.00,0.0028
3039.00,0.0028
3038.00,0.0028
3037.00,0.0029
3036.00,0.0029
3035.00,0.0029
3034.00,0.0030
3033.00,0.0030
3032.00,0.0031
3031.00,0.0031
3030.00,0.0031
3029.00,0.0032
3028.00,0.0032
3027.00,0.0033
3026.00,0.0033
3025.00,0.0034
3024.00,0.0035
3023.00,0.0036
3022.00,0.0037
3021.00,0.0038
3020.00,0.0039
3019.00,0.0039
3018.00,0.0040
3017.00,0.0041
3016.00,0.0042
3015.00,0.0043
3014.00,0.0044
3013.00,0.0045
3012.00,0.0046
3011.00,0.0048
3010.00,0.0049
3009.00,0.0051
3008.00,0.0053
3007.00,0.0055
3006.00,0.0057
3005.00,0.0058
3004.00,0.0060
3003.00,0.0062
3002.00,0.0065
3001.00,0.0067
3000.00,0.0070
2999.00,0.0073
2998.00,0.0076
2997.00,0.0080
2996.00,0.0083
2995.00,0.0087
2994.00,0.0091
2993.00,0.0096
2992.00,0.0101
2991.00,0.0107
2990.00,0.0114
2989.00,0.0121
2988.00,0.0129
2987.00,0.0137
2986.00,0.0147
2985.00,0.0157
2984.00,0.0170
2983.00,0.0183
2982.00,0.0199
2981.00,0.0216
2980.00,0.0234
2979.00,0.0255
2978.00,0.0280
2977.00,0.0307
2976.00,0.0339
2975.00,0.0376
2974.00,0.0418
2973.00,0.0466
2972.00,0.0520
2971.00,0.0580
2970.00,0.0647
2969.00,0.0721
2968.00,0.0800
2967.00,0.0884
2966.00,0.0971
2965.00,0.1059
2964.00,0.1145
2963.00,0.1223
2962.00,0.1291
2961.00,0.1347
2960.00,0.1392
2959.00,0.1431
2958.00,0.1469
2957.00,0.1513
2956.00,0.1568
2955.00,0.1635
2954.00,0.1713
2953.00,0.1794
2952.00,0.1867
2951.00,0.1919
2950.00,0.1938
2949.00,0.1914
2948.00,0.1848
2947.00,0.1746
2946.00,0.1621
2945.00,0.1487
2944.00,0.1361
2943.00,0.1251
2942.00,0.1166
2941.00,0.1107
2940.00,0.1073
2939.00,0.1063
2938.00,0.1073
2937.00,0.1102
2936.00,0.1147
2935.00,0.1208
2934.00,0.1284
2933.00,0.1372
2932.00,0.1473
2931.00,0.1584
2930.00,0.1701
2929.00,0.1822
2928.00,0.1944
2927.00,0.2064
2926.00,0.2180
2925.00,0.2292
2924.00,0.2403
2923.00,0.2513
2922.00,0.2622
2921.00,0.2728
2920.00,0.2822
2919.00,0.2894
2918.00,0.2931
2917.00,0.2925
2916.00,0.2876
2915.00,0.2789
2914.00,0.2678
2913.00,0.2557
2912.00,0.2437
2911.00,0.2327
2910.00,0.2227
2909.00,0.2139
2908.00,0.2058
2907.00,0.1982
2906.00,0.1908
2905.00,0.1835
2904.00,0.1762
2903.00,0.1689
2902.00,0.1618
2901.00,0.1548
2900.00,0.1482
2899.00,0.1419
2898.00,0.1360
2897.00,0.1307
2896.00,0.1258
2895.00,0.1217
2894.00,0.1181
2893.00,0.1152
2892.00,0.1130
2891.00,0.1113
2890.00,0.1101
2889.00,0.1094
2888.00,0.1091
2887.00,0.1091
2886.00,0.1095
2885.00,0.1102
2884.00,0.1114
2883.00,0.1131
2882.00,0.1152
2881.00,0.1175
2880.00,0.1199
2879.00,0.1219
2878.00,0.1232
2877.00,0.1236
2876.00,0.1231
2875.00,0.1224
2874.00,0.1217
2873.00,0.1216
2872.00,0.1223
2871.00,0.1238
2870.00,0.1258
2869.00,0.1277
2868.00,0.1289
2867.00,0.1285
2866.00,0.1259
2865.00,0.1209
2864.00,0.1138
2863.00,0.1058
2862.00,0.0977
2861.00,0.0906
2860.00,0.0851
2859.00,0.0812
2858.00,0.0790
2857.00,0.0781
2856.00,0.0783
2855.00,0.0794
2854.00,0.0810
2853.00,0.0830
2852.00,0.0851
2851.00,0.0870
2850.00,0.0884
2849.00,0.0896
2848.00,0.0907
2847.00,0.0922
2846.00,0.0945
2845.00,0.0980
2844.00,0.1025
2843.00,0.1078
2842.00,0.1133
2841.00,0.1185
2840.00,0.1226
2839.00,0.1246
2838.00,0.1241
2837.00,0.1204
2836.00,0.1137
2835.00,0.1046
2834.00,0.0940
2833.00,0.0830
2832.00,0.0726
2831.00,0.0633
2830.00,0.0555
2829.00,0.0491
2828.00,0.0439
2827.00,0.0396
2826.00,0.0362
2825.00,0.0334
2824.00,0.0310
2823.00,0.0290
2822.00,0.0273
2821.00,0.0258
2820.00,0.0246
2819.00,0.0235
2818.00,0.0225
2817.00,0.0217
2816.00,0.0210
2815.00,0.0203
2814.00,0.0197
2813.00,0.0191
2812.00,0.0185
2811.00,0.0179
2810.00,0.0173
2809.00,0.0166
2808.00,0.0160
2807.00,0.0153
2806.00,0.0147
2805.00,0.0140
2804.00,0.0134
2803.00,0.0129
2802.00,0.0124
2801.00,0.0120
2800.00,0.0116
2799.00,0.0112
2798.00,0.0109
2797.00,0.0106
2796.00,0.0104
2795.00,0.0102
2794.00,0.0100
2793.00,0.0097
2792.00,0.0094
2791.00,0.0090
2790.00,0.0087
2789.00,0.0084
2788.00,0.0081
2787.00,0.0078
2786.00,0.0075
2785.00,0.0072
2784.00,0.0070
2783.00,0.0068
2782.00,0.0066
2781.00,0.0064
2780.00,0.0062
2779.00,0.0061
2778.00,0.0060
2777.00,0.0059
2776.00,0.0058
2775.00,0.0056
2774.00,0.0055
2773.00,0.0054
2772.00,0.0054
2771.00,0.0053
2770.00,0.0053
2769.00,0.0053
2768.00,0.0053
2767.00,0.0052
2766.00,0.0052
2765.00,0.0051
2764.00,0.0051
2763.00,0.0051
2762.00,0.0050
2761.00,0.0050
2760.00,0.0050
2759.00,0.0050
2758.00,0.0049
2757.00,0.0049
2756.00,0.0049
2755.00,0.0049
2754.00,0.0049
2753.00,0.0049
2752.00,0.0048
2751.00,0.0048
2750.00,0.0048
2749.00,0.0048
2748.00,0.0048
2747.00,0.0048
2746.00,0.0049
2745.00,0.0049
2744.00,0.0050
2743.00,0.0051
2742.00,0.0052
2741.00,0.0053
2740.00,0.0054
2739.00,0.0056
2738.00,0.0057
2737.00,0.0058
2736.00,0.0060
2735.00,0.0061
2734.00,0.0063
2733.00,0.0064
2732.00,0.0066
2731.00,0.0068
2730.00,0.0070
2729.00,0.0073
2728.00,0.0075
2727.00,0.0078
2726.00,0.0081
2725.00,0.0083
2724.00,0.0085
2723.00,0.0085
2722.00,0.0084
2721.00,0.0082
2720.00,0.0080
2719.00,0.0077
2718.00,0.0074
2717.00,0.0071
2716.00,0.0068
2715.00,0.0065
2714.00,0.0062
2713.00,0.0059
2712.00,0.0057
2711.00,0.0055
2710.00,0.0054
2709.00,0.0053
2708.00,0.0051
2707.00,0.0050
2706.00,0.0049
2705.00,0.0048
2704.00,0.0047
2703.00,0.0046
2702.00,0.0045
2701.00,0.0044
2700.00,0.0043
2699.00,0.0043
2698.00,0.0042
2697.00,0.0042
2696.00,0.0042
2695.00,0.0042
2694.00,0.0042
2693.00,0.0042
2692.00,0.0042
2691.00,0.0042
2690.00,0.0042
2689.00,0.0042
2688.00,0.0042
2687.00,0.0043
2686.00,0.0043
2685.00,0.0043
2684.00,0.0043
2683.00,0.0043
2682.00,0.0043
2681.00,0.0043
2680.00,0.0043
2679.00,0.0043
2678.00,0.0043
2677.00,0.0043
2676.00,0.0043
2675.00,0.0043
2674.00,0.0043
2673.00,0.0042
2672.00,0.0042
2671.00,0.0042
2670.00,0.0042
2669.00,0.0042
2668.00,0.0042
2667.00,0.0042
2666.00,0.0043
2665.00,0.0043
2664.00,0.0044
2663.00,0.0045
2662.00,0.0046
2661.00,0.0046
2660.00,0.0047
2659.00,0.0046
2658.00,0.0046
2657.00,0.0045
2656.00,0.0045
2655.00,0.0044
2654.00,0.0044
2653.00,0.0043
2652.00,0.0043
2651.00,0.0042
2650.00,0.0042
2649.00,0.0042
2648.00,0.0041
2647.00,0.0040
2646.00,0.0040
2645.00,0.0039
2644.00,0.0039
2643.00,0.0039
2642.00,0.0038
2641.00,0.0038
2640.00,0.0037
2639.00,0.0037
2638.00,0.0037
2637.00,0.0037
2636.00,0.0037
2635.00,0.0036
2634.00,0.0036
2633.00,0.0037
2632.00,0.0037
2631.00,0.0037
2630.00,0.0037
2629.00,0.0037
2628.00,0.0037
2627.00,0.0038
2626.00,0.0038
2625.00,0.0038
2624.00,0.0038
2623.00,0.0039
2622.00,0.0039
2621.00,0.0039
2620.00,0.0039
2619.00,0.0038
2618.00,0.0038
2617.00,0.0038
2616.00,0.0038
2615.00,0.0038
2614.00,0.0038
2613.00,0.0038
2612.00,0.0037
2611.00,0.0037
2610.00,0.0036
2609.00,0.0035
2608.00,0.0034
2607.00,0.0034
2606.00,0.0034
2605.00,0.0033
2604.00,0.0032
2603.00,0.0031
2602.00,0.0030
2601.00,0.0029
2600.00,0.0029
2599.00,0.0029
2598.00,0.0029
2597.00,0.0029
2596.00,0.0029
2595.00,0.0029
2594.00,0.0030
2593.00,0.0031
2592.00,0.0032
2591.00,0.0032
2590.00,0.0033
2589.00,0.0034
2588.00,0.0035
2587.00,0.0035
2586.00,0.0036
2585.00,0.0037
2584.00,0.0037
2583.00,0.0037
2582.00,0.0037
2581.00,0.0037
2580.00,0.0036
2579.00,0.0035
2578.00,0.0035
2577.00,0.0034
2576.00,0.0032
2575.00,0.0031
2574.00,0.0030
2573.00,0.0028
2572.00,0.0027
2571.00,0.0026
2570.00,0.0026
2569.00,0.0025
2568.00,0.0025
2567.00,0.0025
2566.00,0.0024
2565.00,0.0023
2564.00,0.0023
2563.00,0.0022
2562.00,0.0022
2561.00,0.0022
2560.00,0.0022
2559.00,0.0021
2558.00,0.0021
2557.00,0.0020
2556.00,0.0020
2555.00,0.0020
2554.00,0.0020
2553.00,0.0020
2552.00,0.0019
2551.00,0.0019
2550.00,0.0019
2549.00,0.0018
2548.00,0.0018
2547.00,0.0017
2546.00,0.0017
2545.00,0.0017
2544.00,0.0016
2543.00,0.0016
2542.00,0.0015
2541.00,0.0015
2540.00,0.0014
2539.00,0.0014
2538.00,0.0014
2537.00,0.0014
2536.00,0.0014
2535.00,0.0014
2534.00,0.0014
2533.00,0.0014
2532.00,0.0013
2531.00,0.0013
2530.00,0.0013
2529.00,0.0013
2528.00,0.0013
2527.00,0.0013
2526.00,0.0012
2525.00,0.0012
2524.00,0.0012
2523.00,0.0011
2522.00,0.0011
2521.00,0.0011
2520.00,0.0010
2519.00,0.0010
2518.00,0.0009
2517.00,0.0008
2516.00,0.0008
2515.00,0.0009
2514.00,0.0009
2513.00,0.0009
2512.00,0.0009
2511.00,0.0008
2510.00,0.0008
2509.00,0.0008
2508.00,0.0008
2507.00,0.0008
2506.00,0.0008
2505.00,0.0008
2504.00,0.0008
2503.00,0.0008
2502.00,0.0008
2501.00,0.0007
2500.00,0.0007
2499.00,0.0007
2498.00,0.0008
2497.00,0.0009
2496.00,0.0009
2495.00,0.0009
2494.00,0.0010
2493.00,0.0010
2492.00,0.0010
2491.00,0.0010
2490.00,0.0009
2489.00,0.0009
2488.00,0.0008
2487.00,0.0008
2486.00,0.0007
2485.00,0.0006
2484.00,0.0006
2483.00,0.0006
2482.00,0.0006
2481.00,0.0007
2480.00,0.0007
2479.00,0.0008
2478.00,0.0008
2477.00,0.0008
2476.00,0.0008
2475.00,0.0008
2474.00,0.0008
2473.00,0.0007
2472.00,0.0007
2471.00,0.0007
2470.00,0.0007
2469.00,0.0007
2468.00,0.0007
2467.00,0.0007
2466.00,0.0007
2465.00,0.0007
2464.00,0.0007
2463.00,0.0007
2462.00,0.0007
2461.00,0.0007
2460.00,0.0007
2459.00,0.0007
2458.00,0.0008
2457.00,0.0008
2456.00,0.0008
2455.00,0.0008
2454.00,0.0008
2453.00,0.0008
2452.00,0.0008
2451.00,0.0008
2450.00,0.0007
2449.00,0.0007
2448.00,0.0007
2447.00,0.0007
2446.00,0.0008
2445.00,0.0009
2444.00,0.0009
2443.00,0.0010
2442.00,0.0009
2441.00,0.0009
2440.00,0.0009
2439.00,0.0009
2438.00,0.0009
2437.00,0.0010
2436.00,0.0010
2435.00,0.0010
2434.00,0.0010
2433.00,0.0010
2432.00,0.0010
2431.00,0.0010
2430.00,0.0010
2429.00,0.0010
2428.00,0.0010
2427.00,0.0010
2426.00,0.0010
2425.00,0.0010
2424.00,0.0010
2423.00,0.0010
2422.00,0.0009
2421.00,0.0008
2420.00,0.0008
2419.00,0.0008
2418.00,0.0008
2417.00,0.0008
2416.00,0.0008
2415.00,0.0008
2414.00,0.0008
2413.00,0.0009
2412.00,0.0009
2411.00,0.0009
2410.00,0.0009
2409.00,0.0008
2408.00,0.0008
2407.00,0.0007
2406.00,0.0007
2405.00,0.0007
2404.00,0.0007
2403.00,0.0008
2402.00,0.0007
2401.00,0.0007
2400.00,0.0007
2399.00,0.0007
2398.00,0.0006
2397.00,0.0006
2396.00,0.0006
2395.00,0.0005
2394.00,0.0006
2393.00,0.0006
2392.00,0.0006
2391.00,0.0005
2390.00,0.0005
2389.00,0.0005
2388.00,0.0005
2387.00,0.0006
2386.00,0.0006
2385.00,0.0005
2384.00,0.0005
2383.00,0.0004
2382.00,0.0003
2381.00,0.0003
2380.00,0.0003
2379.00,0.0003
2378.00,0.0002
2377.00,0.0002
2376.00,0.0002
2375.00,0.0003
2374.00,0.0003
2373.00,0.0002
2372.00,0.0002
2371.00,0.0002
2370.00,0.0002
2369.00,0.0002
2368.00,0.0001
2367.00,-0.0000
2366.00,-0.0001
2365.00,-0.0002
2364.00,-0.0001
2363.00,0.0000
2362.00,0.0002
2361.00,0.0002
2360.00,0.0003
2359.00,0.0003
2358.00,0.0002
2357.00,0.0002
2356.00,0.0002
2355.00,0.0003
2354.00,0.0003
2353.00,0.0003
2352.00,0.0003
2351.00,0.0002
2350.00,0.0002
2349.00,0.0003
2348.00,0.0003
2347.00,0.0004
2346.00,0.0004
2345.00,0.0004
2344.00,0.0003
2343.00,0.0003
2342.00,0.0004
2341.00,0.0005
2340.00,0.0006
2339.00,0.0006
2338.00,0.0007
2337.00,0.0007
2336.00,0.0006
2335.00,0.0006
2334.00,0.0006
2333.00,0.0006
2332.00,0.0005
2331.00,0.0005
2330.00,0.0005
2329.00,0.0005
2328.00,0.0007
2327.00,0.0011
2326.00,0.0015
2325.00,0.0019
2324.00,0.0021
2323.00,0.0020
2322.00,0.0017
2321.00,0.0015
2320.00,0.0013
2319.00,0.0012
2318.00,0.0011
2317.00,0.0011
2316.00,0.0010
2315.00,0.0010
2314.00,0.0009
2313.00,0.0009
2312.00,0.0008
2311.00,0.0007
2310.00,0.0007
2309.00,0.0006
2308.00,0.0006
2307.00,0.0006
2306.00,0.0007
2305.00,0.0008
2304.00,0.0009
2303.00,0.0010
2302.00,0.0010
2301.00,0.0009
2300.00,0.0009
2299.00,0.0010
2298.00,0.0010
2297.00,0.0011
2296.00,0.0012
2295.00,0.0012
2294.00,0.0013
2293.00,0.0014
2292.00,0.0014
2291.00,0.0015
2290.00,0.0016
2289.00,0.0016
2288.00,0.0016
2287.00,0.0015
2286.00,0.0016
2285.00,0.0016
2284.00,0.0017
2283.00,0.0017
2282.00,0.0017
2281.00,0.0016
2280.00,0.0016
2279.00,0.0015
2278.00,0.0014
2277.00,0.0013
2276.00,0.0012
2275.00,0.0012
2274.00,0.0012
2273.00,0.0013
2272.00,0.0014
2271.00,0.0014
2270.00,0.0013
2269.00,0.0012
2268.00,0.0010
2267.00,0.0009
2266.00,0.0008
2265.00,0.0008
2264.00,0.0009
2263.00,0.0010
2262.00,0.0011
2261.00,0.0012
2260.00,0.0012
2259.00,0.0012
2258.00,0.0012
2257.00,0.0011
2256.00,0.0010
2255.00,0.0009
2254.00,0.0007
2253.00,0.0005
2252.00,0.0004
2251.00,0.0004
2250.00,0.0005
2249.00,0.0007
2248.00,0.0008
2247.00,0.0008
2246.00,0.0007
2245.00,0.0006
2244.00,0.0007
2243.00,0.0007
2242.00,0.0007
2241.00,0.0006
2240.00,0.0006
2239.00,0.0006
2238.00,0.0006
2237.00,0.0006
2236.00,0.0007
2235.00,0.0007
2234.00,0.0009
2233.00,0.0010
2232.00,0.0010
2231.00,0.0009
2230.00,0.0006
2229.00,0.0005
2228.00,0.0004
2227.00,0.0004
2226.00,0.0005
2225.00,0.0005
2224.00,0.0005
2223.00,0.0006
2222.00,0.0006
2221.00,0.0006
2220.00,0.0006
2219.00,0.0005
2218.00,0.0004
2217.00,0.0004
2216.00,0.0003
2215.00,0.0003
2214.00,0.0003
2213.00,0.0002
2212.00,0.0002
2211.00,0.0001
2210.00,0.0001
2209.00,0.0002
2208.00,0.0003
2207.00,0.0004
2206.00,0.0006
2205.00,0.0009
2204.00,0.0011
2203.00,0.0012
2202.00,0.0011
2201.00,0.0010
2200.00,0.0009
2199.00,0.0009
2198.00,0.0008
2197.00,0.0008
2196.00,0.0009
2195.00,0.0011
2194.00,0.0013
2193.00,0.0014
2192.00,0.0014
2191.00,0.0014
2190.00,0.0014
2189.00,0.0015
2188.00,0.0015
2187.00,0.0013
2186.00,0.0009
2185.00,0.0005
2184.00,0.0002
2183.00,0.0000
2182.00,0.0000
2181.00,0.0003
2180.00,0.0005
2179.00,0.0007
2178.00,0.0006
2177.00,0.0003
2176.00,0.0001
2175.00,-0.0001
2174.00,-0.0001
2173.00,0.0000
2172.00,0.0002
2171.00,0.0005
2170.00,0.0009
2169.00,0.0012
2168.00,0.0014
2167.00,0.0015
2166.00,0.0015
2165.00,0.0015
2164.00,0.0017
2163.00,0.0021
2162.00,0.0023
2161.00,0.0018
2160.00,0.0006
2159.00,-0.0011
2158.00,-0.0024
2157.00,-0.0030
2156.00,-0.0029
2155.00,-0.0027
2154.00,-0.0026
2153.00,-0.0025
2152.00,-0.0024
2151.00,-0.0022
2150.00,-0.0020
2149.00,-0.0017
2148.00,-0.0016
2147.00,-0.0017
2146.00,-0.0017
2145.00,-0.0017
2144.00,-0.0017
2143.00,-0.0016
2142.00,-0.0015
2141.00,-0.0015
2140.00,-0.0014
2139.00,-0.0015
2138.00,-0.0016
2137.00,-0.0017
2136.00,-0.0020
2135.00,-0.0023
2134.00,-0.0026
2133.00,-0.0025
2132.00,-0.0023
2131.00,-0.0019
2130.00,-0.0016
2129.00,-0.0015
2128.00,-0.0015
2127.00,-0.0014
2126.00,-0.0012
2125.00,-0.0011
2124.00,-0.0009
2123.00,-0.0007
2122.00,-0.0005
2121.00,-0.0004
2120.00,-0.0004
2119.00,-0.0003
2118.00,-0.0002
2117.00,-0.0001
2116.00,0.0001
2115.00,0.0002
2114.00,0.0004
2113.00,0.0005
2112.00,0.0005
2111.00,0.0003
2110.00,0.0000
2109.00,-0.0002
2108.00,-0.0003
2107.00,-0.0003
2106.00,-0.0003
2105.00,-0.0002
2104.00,-0.0001
2103.00,-0.0002
2102.00,-0.0002
2101.00,-0.0003
2100.00,-0.0003
2099.00,-0.0003
2098.00,-0.0002
2097.00,-0.0002
2096.00,-0.0003
2095.00,-0.0003
2094.00,-0.0004
2093.00,-0.0005
2092.00,-0.0005
2091.00,-0.0004
2090.00,-0.0003
2089.00,-0.0002
2088.00,-0.0001
2087.00,-0.0001
2086.00,-0.0000
2085.00,0.0000
2084.00,0.0001
2083.00,0.0003
2082.00,0.0004
2081.00,0.0005
2080.00,0.0005
2079.00,0.0005
2078.00,0.0004
2077.00,0.0003
2076.00,0.0001
2075.00,-0.0001
2074.00,-0.0001
2073.00,-0.0001
2072.00,-0.0000
2071.00,0.0001
2070.00,0.0002
2069.00,0.0002
2068.00,0.0001
2067.00,0.0000
2066.00,-0.0001
2065.00,-0.0001
2064.00,-0.0001
2063.00,-0.0002
2062.00,-0.0003
2061.00,-0.0003
2060.00,-0.0002
2059.00,-0.0001
2058.00,-0.0000
2057.00,0.0000
2056.00,-0.0001
2055.00,-0.0002
2054.00,-0.0002
2053.00,0.0001
2052.00,0.0005
2051.00,0.0007
2050.00,0.0006
2049.00,0.0003
2048.00,0.0000
2047.00,-0.0002
2046.00,-0.0003
2045.00,-0.0003
2044.00,-0.0001
2043.00,0.0002
2042.00,0.0005
2041.00,0.0006
2040.00,0.0005
2039.00,0.0003
2038.00,0.0002
2037.00,0.0001
2036.00,0.0001
2035.00,-0.0001
2034.00,-0.0004
2033.00,-0.0007
2032.00,-0.0009
2031.00,-0.0012
2030.00,-0.0014
2029.00,-0.0014
2028.00,-0.0013
2027.00,-0.0012
2026.00,-0.0011
2025.00,-0.0010
2024.00,-0.0009
2023.00,-0.0008
2022.00,-0.0006
2021.00,-0.0004
2020.00,-0.0003
2019.00,-0.0005
2018.00,-0.0008
2017.00,-0.0011
2016.00,-0.0013
2015.00,-0.0013
2014.00,-0.0013
2013.00,-0.0013
2012.00,-0.0013
2011.00,-0.0013
2010.00,-0.0014
2009.00,-0.0014
2008.00,-0.0014
2007.00,-0.0014
2006.00,-0.0015
2005.00,-0.0016
2004.00,-0.0017
2003.00,-0.0018
2002.00,-0.0018
2001.00,-0.0018
2000.00,-0.0016
1999.00,-0.0014
1998.00,-0.0012
1997.00,-0.0012
1996.00,-0.0013
1995.00,-0.0014
1994.00,-0.0013
1993.00,-0.0010
1992.00,-0.0005
1991.00,-0.0002
1990.00,0.0001
1989.00,0.0003
1988.00,0.0003
1987.00,0.0002
1986.00,-0.0000
1985.00,-0.0001
1984.00,-0.0001
1983.00,0.0001
1982.00,0.0003
1981.00,0.0006
1980.00,0.0006
1979.00,0.0003
1978.00,-0.0004
1977.00,-0.0012
1976.00,-0.0017
1975.00,-0.0020
1974.00,-0.0019
1973.00,-0.0017
1972.00,-0.0016
1971.00,-0.0017
1970.00,-0.0017
1969.00,-0.0017
1968.00,-0.0015
1967.00,-0.0014
1966.00,-0.0014
1965.00,-0.0013
1964.00,-0.0011
1963.00,-0.0011
1962.00,-0.0013
1961.00,-0.0015
1960.00,-0.0016
1959.00,-0.0015
1958.00,-0.0015
1957.00,-0.0015
1956.00,-0.0016
1955.00,-0.0017
1954.00,-0.0019
1953.00,-0.0018
1952.00,-0.0017
1951.00,-0.0017
1950.00,-0.0017
1949.00,-0.0018
1948.00,-0.0018
1947.00,-0.0017
1946.00,-0.0017
1945.00,-0.0017
1944.00,-0.0017
1943.00,-0.0017
1942.00,-0.0017
1941.00,-0.0016
1940.00,-0.0015
1939.00,-0.0014
1938.00,-0.0014
1937.00,-0.0013
1936.00,-0.0013
1935.00,-0.0012
1934.00,-0.0011
1933.00,-0.0011
1932.00,-0.0011
1931.00,-0.0010
1930.00,-0.0010
1929.00,-0.0009
1928.00,-0.0009
1927.00,-0.0009
1926.00,-0.0009
1925.00,-0.0009
1924.00,-0.0009
1923.00,-0.0009
1922.00,-0.0009
1921.00,-0.0009
1920.00,-0.0008
1919.00,-0.0008
1918.00,-0.0006
1917.00,-0.0005
1916.00,-0.0003
1915.00,-0.0003
1914.00,-0.0003
1913.00,-0.0004
1912.00,-0.0004
1911.00,-0.0005
1910.00,-0.0005
1909.00,-0.0006
1908.00,-0.0006
1907.00,-0.0007
1906.00,-0.0007
1905.00,-0.0006
1904.00,-0.0006
1903.00,-0.0005
1902.00,-0.0004
1901.00,-0.0004
1900.00,-0.0004
1899.00,-0.0005
1898.00,-0.0005
1897.00,-0.0005
1896.00,-0.0004
1895.00,-0.0003
1894.00,-0.0002
1893.00,-0.0001
1892.00,-0.0001
1891.00,-0.0001
1890.00,-0.0002
1889.00,-0.0003
1888.00,-0.0004
1887.00,-0.0004
1886.00,-0.0004
1885.00,-0.0003
1884.00,-0.0003
1883.00,-0.0004
1882.00,-0.0004
1881.00,-0.0003
1880.00,-0.0003
1879.00,-0.0002
1878.00,-0.0002
1877.00,-0.0002
1876.00,-0.0001
1875.00,-0.0001
1874.00,-0.0002
1873.00,-0.0002
1872.00,-0.0003
1871.00,-0.0003
1870.00,-0.0003
1869.00,-0.0002
1868.00,-0.0002
1867.00,-0.0002
1866.00,-0.0002
1865.00,-0.0003
1864.00,-0.0003
1863.00,-0.0003
1862.00,-0.0002
1861.00,-0.0001
1860.00,-0.0001
1859.00,-0.0001
1858.00,-0.0001
1857.00,-0.0002
1856.00,-0.0002
1855.00,-0.0001
1854.00,-0.0001
1853.00,-0.0000
1852.00,-0.0000
1851.00,-0.0001
1850.00,-0.0001
1849.00,-0.0000
1848.00,-0.0000
1847.00,-0.0000
1846.00,-0.0001
1845.00,-0.0001
1844.00,-0.0001
1843.00,-0.0001
1842.00,-0.0001
1841.00,-0.0001
1840.00,-0.0001
1839.00,-0.0001
1838.00,-0.0000
1837.00,0.0000
1836.00,0.0001
1835.00,0.0000
1834.00,0.0000
1833.00,0.0000
1832.00,0.0001
1831.00,0.0000
1830.00,-0.0000
1829.00,-0.0001
1828.00,-0.0001
1827.00,-0.0001
1826.00,-0.0000
1825.00,-0.0000
1824.00,0.0000
1823.00,0.0001
1822.00,0.0001
1821.00,0.0001
1820.00,0.0000
1819.00,-0.0000
1818.00,-0.0001
1817.00,-0.0002
1816.00,-0.0003
1815.00,-0.0003
1814.00,-0.0002
1813.00,-0.0001
1812.00,-0.0001
1811.00,-0.0001
1810.00,-0.0000
1809.00,0.0000
1808.00,0.0000
1807.00,0.0001
1806.00,0.0001
1805.00,0.0001
1804.00,0.0002
1803.00,0.0002
1802.00,0.0002
1801.00,0.0002
1800.00,0.0002
1799.00,0.0002
1798.00,0.0002
1797.00,0.0002
1796.00,0.0003
1795.00,0.0003
1794.00,0.0003
1793.00,0.0003
1792.00,0.0003
1791.00,0.0003
1790.00,0.0004
1789.00,0.0004
1788.00,0.0004
1787.00,0.0004
1786.00,0.0004
1785.00,0.0004
1784.00,0.0004
1783.00,0.0005
1782.00,0.0005
1781.00,0.0005
1780.00,0.0005
1779.00,0.0005
1778.00,0.0005
1777.00,0.0005
1776.00,0.0005
1775.00,0.0005
1774.00,0.0005
1773.00,0.0006
1772.00,0.0006
1771.00,0.0006
1770.00,0.0006
1769.00,0.0006
1768.00,0.0006
1767.00,0.0007
1766.00,0.0008
1765.00,0.0009
1764.00,0.0010
1763.00,0.0009
1762.00,0.0009
1761.00,0.0008
1760.00,0.0008
1759.00,0.0009
1758.00,0.0008
1757.00,0.0008
1756.00,0.0008
1755.00,0.0009
1754.00,0.0009
1753.00,0.0010
1752.00,0.0010
1751.00,0.0010
1750.00,0.0010
1749.00,0.0011
1748.00,0.0011
1747.00,0.0011
1746.00,0.0012
1745.00,0.0012
1744.00,0.0012
1743.00,0.0013
1742.00,0.0013
1741.00,0.0013
1740.00,0.0012
1739.00,0.0012
1738.00,0.0013
1737.00,0.0013
1736.00,0.0014
1735.00,0.0015
1734.00,0.0015
1733.00,0.0015
1732.00,0.0014
1731.00,0.0014
1730.00,0.0013
1729.00,0.0013
1728.00,0.0014
1727.00,0.0014
1726.00,0.0015
1725.00,0.0016
1724.00,0.0016
1723.00,0.0016
1722.00,0.0017
1721.00,0.0017
1720.00,0.0017
1719.00,0.0017
1718.00,0.0017
1717.00,0.0017
1716.00,0.0017
1715.00,0.0017
1714.00,0.0017
1713.00,0.0017
1712.00,0.0017
1711.00,0.0017
1710.00,0.0018
1709.00,0.0017
1708.00,0.0017
1707.00,0.0017
1706.00,0.0017
1705.00,0.0017
1704.00,0.0018
1703.00,0.0019
1702.00,0.0019
1701.00,0.0019
1700.00,0.0019
1699.00,0.0019
1698.00,0.0019
1697.00,0.0020
1696.00,0.0020
1695.00,0.0020
1694.00,0.0020
1693.00,0.0020
1692.00,0.0021
1691.00,0.0021
1690.00,0.0021
1689.00,0.0021
1688.00,0.0021
1687.00,0.0021
1686.00,0.0021
1685.00,0.0022
1684.00,0.0022
1683.00,0.0023
1682.00,0.0023
1681.00,0.0023
1680.00,0.0023
1679.00,0.0023
1678.00,0.0024
1677.00,0.0024
1676.00,0.0025
1675.00,0.0026
1674.00,0.0026
1673.00,0.0026
1672.00,0.0026
1671.00,0.0026
1670.00,0.0026
1669.00,0.0026
1668.00,0.0027
1667.00,0.0027
1666.00,0.0026
1665.00,0.0026
1664.00,0.0026
1663.00,0.0026
1662.00,0.0026
1661.00,0.0027
1660.00,0.0028
1659.00,0.0028
1658.00,0.0029
1657.00,0.0030
1656.00,0.0030
1655.00,0.0030
1654.00,0.0031
1653.00,0.0032
1652.00,0.0032
1651.00,0.0033
1650.00,0.0033
1649.00,0.0033
1648.00,0.0034
1647.00,0.0034
1646.00,0.0034
1645.00,0.0035
1644.00,0.0036
1643.00,0.0036
1642.00,0.0037
1641.00,0.0038
1640.00,0.0039
1639.00,0.0039
1638.00,0.0040
1637.00,0.0040
1636.00,0.0040
1635.00,0.0039
1634.00,0.0038
1633.00,0.0038
1632.00,0.0038
1631.00,0.0037
1630.00,0.0037
1629.00,0.0037
1628.00,0.0037
1627.00,0.0037
1626.00,0.0036
1625.00,0.0036
1624.00,0.0036
1623.00,0.0035
1622.00,0.0034
1621.00,0.0034
1620.00,0.0034
1619.00,0.0034
1618.00,0.0034
1617.00,0.0034
1616.00,0.0033
1615.00,0.0033
1614.00,0.0033
1613.00,0.0033
1612.00,0.0033
1611.00,0.0033
1610.00,0.0033
1609.00,0.0034
1608.00,0.0034
1607.00,0.0034
1606.00,0.0033
1605.00,0.0033
1604.00,0.0033
1603.00,0.0032
1602.00,0.0032
1601.00,0.0032
1600.00,0.0032
1599.00,0.0031
1598.00,0.0032
1597.00,0.0032
1596.00,0.0032
1595.00,0.0032
1594.00,0.0032
1593.00,0.0032
1592.00,0.0032
1591.00,0.0032
1590.00,0.0031
1589.00,0.0032
1588.00,0.0032
1587.00,0.0032
1586.00,0.0032
1585.00,0.0032
1584.00,0.0032
1583.00,0.0032
1582.00,0.0032
1581.00,0.0032
1580.00,0.0032
1579.00,0.0031
1578.00,0.0031
1577.00,0.0031
1576.00,0.0032
1575.00,0.0032
1574.00,0.0033
1573.00,0.0033
1572.00,0.0034
1571.00,0.0034
1570.00,0.0035
1569.00,0.0035
1568.00,0.0036
1567.00,0.0037
1566.00,0.0037
1565.00,0.0037
1564.00,0.0038
1563.00,0.0037
1562.00,0.0037
1561.00,0.0037
1560.00,0.0037
1559.00,0.0038
1558.00,0.0038
1557.00,0.0038
1556.00,0.0039
1555.00,0.0039
1554.00,0.0039
1553.00,0.0039
1552.00,0.0039
1551.00,0.0039
1550.00,0.0039
1549.00,0.0039
1548.00,0.0039
1547.00,0.0039
1546.00,0.0039
1545.00,0.0039
1544.00,0.0039
1543.00,0.0038
1542.00,0.0038
1541.00,0.0037
1540.00,0.0037
1539.00,0.0037
1538.00,0.0037
1537.00,0.0037
1536.00,0.0037
1535.00,0.0037
1534.00,0.0036
1533.00,0.0035
1532.00,0.0036
1531.00,0.0036
1530.00,0.0036
1529.00,0.0037
1528.00,0.0038
1527.00,0.0039
1526.00,0.0039
1525.00,0.0039
1524.00,0.0040
1523.00,0.0041
1522.00,0.0041
1521.00,0.0041
1520.00,0.0042
1519.00,0.0041
1518.00,0.0042
1517.00,0.0043
1516.00,0.0044
1515.00,0.0044
1514.00,0.0044
1513.00,0.0045
1512.00,0.0046
1511.00,0.0046
1510.00,0.0046
1509.00,0.0047
1508.00,0.0049
1507.00,0.0050
1506.00,0.0051
1505.00,0.0053
1504.00,0.0055
1503.00,0.0057
1502.00,0.0059
1501.00,0.0061
1500.00,0.0064
1499.00,0.0065
1498.00,0.0067
1497.00,0.0069
1496.00,0.0072
1495.00,0.0075
1494.00,0.0077
1493.00,0.0080
1492.00,0.0084
1491.00,0.0087
1490.00,0.0090
1489.00,0.0095
1488.00,0.0100
1487.00,0.0105
1486.00,0.0109
1485.00,0.0115
1484.00,0.0121
1483.00,0.0128
1482.00,0.0136
1481.00,0.0147
1480.00,0.0158
1479.00,0.0170
1478.00,0.0185
1477.00,0.0206
1476.00,0.0232
1475.00,0.0263
1474.00,0.0305
1473.00,0.0364
1472.00,0.0433
1471.00,0.0499
1470.00,0.0563
1469.00,0.0631
1468.00,0.0705
1467.00,0.0785
1466.00,0.0877
1465.00,0.0975
1464.00,0.1060
1463.00,0.1119
1462.00,0.1155
1461.00,0.1178
1460.00,0.1192
1459.00,0.1200
1458.00,0.1205
1457.00,0.1206
1456.00,0.1199
1455.00,0.1188
1454.00,0.1174
1453.00,0.1154
1452.00,0.1126
1451.00,0.1086
1450.00,0.1032
1449.00,0.0958
1448.00,0.0866
1447.00,0.0770
1446.00,0.0684
1445.00,0.0612
1444.00,0.0551
1443.00,0.0501
1442.00,0.0463
1441.00,0.0437
1440.00,0.0421
1439.00,0.0414
1438.00,0.0416
1437.00,0.0418
1436.00,0.0411
1435.00,0.0388
1434.00,0.0353
1433.00,0.0310
1432.00,0.0264
1431.00,0.0224
1430.00,0.0192
1429.00,0.0169
1428.00,0.0152
1427.00,0.0142
1426.00,0.0135
1425.00,0.0128
1424.00,0.0122
1423.00,0.0118
1422.00,0.0116
1421.00,0.0113
1420.00,0.0110
1419.00,0.0108
1418.00,0.0106
1417.00,0.0104
1416.00,0.0102
1415.00,0.0101
1414.00,0.0101
1413.00,0.0099
1412.00,0.0098
1411.00,0.0097
1410.00,0.0097
1409.00,0.0096
1408.00,0.0096
1407.00,0.0096
1406.00,0.0097
1405.00,0.0097
1404.00,0.0097
1403.00,0.0098
1402.00,0.0101
1401.00,0.0102
1400.00,0.0103
1399.00,0.0105
1398.00,0.0107
1397.00,0.0108
1396.00,0.0110
1395.00,0.0115
1394.00,0.0120
1393.00,0.0126
1392.00,0.0131
1391.00,0.0139
1390.00,0.0149
1389.00,0.0163
1388.00,0.0184
1387.00,0.0216
1386.00,0.0259
1385.00,0.0316
1384.00,0.0396
1383.00,0.0508
1382.00,0.0660
1381.00,0.0858
1380.00,0.1106
1379.00,0.1391
1378.00,0.1668
1377.00,0.1875
1376.00,0.1947
1375.00,0.1850
1374.00,0.1613
1373.00,0.1326
1372.00,0.1063
1371.00,0.0846
1370.00,0.0675
1369.00,0.0546
1368.00,0.0457
1367.00,0.0403
1366.00,0.0373
1365.00,0.0362
1364.00,0.0364
1363.00,0.0378
1362.00,0.0399
1361.00,0.0423
1360.00,0.0441
1359.00,0.0447
1358.00,0.0437
1357.00,0.0411
1356.00,0.0374
1355.00,0.0333
1354.00,0.0293
1353.00,0.0259
1352.00,0.0232
1351.00,0.0209
1350.00,0.0190
1349.00,0.0175
1348.00,0.0163
1347.00,0.0153
1346.00,0.0144
1345.00,0.0136
1344.00,0.0130
1343.00,0.0125
1342.00,0.0120
1341.00,0.0116
1340.00,0.0113
1339.00,0.0111
1338.00,0.0110
1337.00,0.0110
1336.00,0.0111
1335.00,0.0112
1334.00,0.0116
1333.00,0.0120
1332.00,0.0124
1331.00,0.0128
1330.00,0.0130
1329.00,0.0128
1328.00,0.0125
1327.00,0.0120
1326.00,0.0114
1325.00,0.0108
1324.00,0.0102
1323.00,0.0097
1322.00,0.0093
1321.00,0.0090
1320.00,0.0087
1319.00,0.0085
1318.00,0.0084
1317.00,0.0083
1316.00,0.0082
1315.00,0.0081
1314.00,0.0081
1313.00,0.0081
1312.00,0.0082
1311.00,0.0084
1310.00,0.0087
1309.00,0.0092
1308.00,0.0100
1307.00,0.0109
1306.00,0.0119
1305.00,0.0126
1304.00,0.0129
1303.00,0.0127
1302.00,0.0123
1301.00,0.0120
1300.00,0.0118
1299.00,0.0118
1298.00,0.0119
1297.00,0.0120
1296.00,0.0120
1295.00,0.0117
1294.00,0.0114
1293.00,0.0109
1292.00,0.0104
1291.00,0.0099
1290.00,0.0094
1289.00,0.0091
1288.00,0.0088
1287.00,0.0085
1286.00,0.0083
1285.00,0.0081
1284.00,0.0079
1283.00,0.0077
1282.00,0.0076
1281.00,0.0075
1280.00,0.0074
1279.00,0.0072
1278.00,0.0071
1277.00,0.0070
1276.00,0.0070
1275.00,0.0070
1274.00,0.0070
1273.00,0.0070
1272.00,0.0071
1271.00,0.0071
1270.00,0.0072
1269.00,0.0073
1268.00,0.0075
1267.00,0.0077
1266.00,0.0080
1265.00,0.0082
1264.00,0.0085
1263.00,0.0088
1262.00,0.0092
1261.00,0.0096
1260.00,0.0100
1259.00,0.0105
1258.00,0.0110
1257.00,0.0115
1256.00,0.0117
1255.00,0.0115
1254.00,0.0110
1253.00,0.0103
1252.00,0.0096
1251.00,0.0090
1250.00,0.0085
1249.00,0.0081
1248.00,0.0078
1247.00,0.0076
1246.00,0.0074
1245.00,0.0073
1244.00,0.0071
1243.00,0.0070
1242.00,0.0069
1241.00,0.0068
1240.00,0.0067
1239.00,0.0067
1238.00,0.0068
1237.00,0.0067
1236.00,0.0067
1235.00,0.0068
1234.00,0.0068
1233.00,0.0069
1232.00,0.0069
1231.00,0.0069
1230.00,0.0070
1229.00,0.0071
1228.00,0.0072
1227.00,0.0073
1226.00,0.0075
1225.00,0.0077
1224.00,0.0080
1223.00,0.0084
1222.00,0.0088
1221.00,0.0091
1220.00,0.0093
1219.00,0.0093
1218.00,0.0092
1217.00,0.0090
1216.00,0.0088
1215.00,0.0085
1214.00,0.0082
1213.00,0.0079
1212.00,0.0076
1211.00,0.0074
1210.00,0.0072
1209.00,0.0070
1208.00,0.0069
1207.00,0.0068
1206.00,0.0068
1205.00,0.0067
1204.00,0.0066
1203.00,0.0066
1202.00,0.0066
1201.00,0.0066
1200.00,0.0065
1199.00,0.0065
1198.00,0.0065
1197.00,0.0065
1196.00,0.0064
1195.00,0.0064
1194.00,0.0064
1193.00,0.0064
1192.00,0.0064
1191.00,0.0064
1190.00,0.0063
1189.00,0.0063
1188.00,0.0063
1187.00,0.0063
1186.00,0.0063
1185.00,0.0064
1184.00,0.0065
1183.00,0.0066
1182.00,0.0068
1181.00,0.0070
1180.00,0.0073
1179.00,0.0078
1178.00,0.0084
1177.00,0.0091
1176.00,0.0101
1175.00,0.0114
1174.00,0.0131
1173.00,0.0153
1172.00,0.0179
1171.00,0.0207
1170.00,0.0235
1169.00,0.0258
1168.00,0.0271
1167.00,0.0274
1166.00,0.0268
1165.00,0.0255
1164.00,0.0241
1163.00,0.0227
1162.00,0.0215
1161.00,0.0205
1160.00,0.0198
1159.00,0.0193
1158.00,0.0189
1157.00,0.0187
1156.00,0.0185
1155.00,0.0185
1154.00,0.0185
1153.00,0.0183
1152.00,0.0179
1151.00,0.0173
1150.00,0.0164
1149.00,0.0155
1148.00,0.0145
1147.00,0.0136
1146.00,0.0128
1145.00,0.0119
1144.00,0.0112
1143.00,0.0105
1142.00,0.0100
1141.00,0.0095
1140.00,0.0091
1139.00,0.0086
1138.00,0.0083
1137.00,0.0079
1136.00,0.0077
1135.00,0.0075
1134.00,0.0073
1133.00,0.0072
1132.00,0.0071
1131.00,0.0070
1130.00,0.0069
1129.00,0.0069
1128.00,0.0068
1127.00,0.0069
1126.00,0.0069
1125.00,0.0070
1124.00,0.0070
1123.00,0.0070
1122.00,0.0070
1121.00,0.0070
1120.00,0.0071
1119.00,0.0072
1118.00,0.0074
1117.00,0.0075
1116.00,0.0076
1115.00,0.0077
1114.00,0.0079
1113.00,0.0080
1112.00,0.0081
1111.00,0.0083
1110.00,0.0086
1109.00,0.0090
1108.00,0.0095
1107.00,0.0100
1106.00,0.0107
1105.00,0.0114
1104.00,0.0119
1103.00,0.0122
1102.00,0.0122
1101.00,0.0118
1100.00,0.0113
1099.00,0.0106
1098.00,0.0100
1097.00,0.0094
1096.00,0.0090
1095.00,0.0086
1094.00,0.0083
1093.00,0.0079
1092.00,0.0077
1091.00,0.0075
1090.00,0.0075
1089.00,0.0075
1088.00,0.0075
1087.00,0.0074
1086.00,0.0073
1085.00,0.0072
1084.00,0.0071
1083.00,0.0071
1082.00,0.0071
1081.00,0.0071
1080.00,0.0071
1079.00,0.0070
1078.00,0.0069
1077.00,0.0068
1076.00,0.0067
1075.00,0.0066
1074.00,0.0066
1073.00,0.0066
1072.00,0.0065
1071.00,0.0065
1070.00,0.0065
1069.00,0.0065
1068.00,0.0065
1067.00,0.0064
1066.00,0.0064
1065.00,0.0065
1064.00,0.0066
1063.00,0.0066
1062.00,0.0066
1061.00,0.0066
1060.00,0.0065
1059.00,0.0065
1058.00,0.0065
1057.00,0.0065
1056.00,0.0065
1055.00,0.0064
1054.00,0.0064
1053.00,0.0064
1052.00,0.0065
1051.00,0.0066
1050.00,0.0069
1049.00,0.0071
1048.00,0.0074
1047.00,0.0076
1046.00,0.0079
1045.00,0.0080
1044.00,0.0081
1043.00,0.0081
1042.00,0.0080
1041.00,0.0078
1040.00,0.0077
1039.00,0.0076
1038.00,0.0077
1037.00,0.0077
1036.00,0.0076
1035.00,0.0076
1034.00,0.0074
1033.00,0.0073
1032.00,0.0071
1031.00,0.0070
1030.00,0.0068
1029.00,0.0067
1028.00,0.0066
1027.00,0.0066
1026.00,0.0066
1025.00,0.0067
1024.00,0.0068
1023.00,0.0069
1022.00,0.0070
1021.00,0.0071
1020.00,0.0072
1019.00,0.0072
1018.00,0.0072
1017.00,0.0073
1016.00,0.0075
1015.00,0.0077
1014.00,0.0079
1013.00,0.0081
1012.00,0.0083
1011.00,0.0086
1010.00,0.0088
1009.00,0.0091
1008.00,0.0095
1007.00,0.0101
1006.00,0.0108
1005.00,0.0119
1004.00,0.0133
1003.00,0.0153
1002.00,0.0180
1001.00,0.0213
1000.00,0.0248
999.00,0.0276
998.00,0.0290
997.00,0.0283
996.00,0.0259
995.00,0.0226
994.00,0.0191
993.00,0.0161
992.00,0.0139
991.00,0.0122
990.00,0.0111
989.00,0.0104
988.00,0.0099
987.00,0.0096
986.00,0.0095
985.00,0.0097
984.00,0.0102
983.00,0.0110
982.00,0.0122
981.00,0.0137
980.00,0.0157
979.00,0.0183
978.00,0.0215
977.00,0.0252
976.00,0.0292
975.00,0.0330
974.00,0.0357
973.00,0.0366
972.00,0.0352
971.00,0.0318
970.00,0.0274
969.00,0.0229
968.00,0.0191
967.00,0.0162
966.00,0.0141
965.00,0.0126
964.00,0.0115
963.00,0.0107
962.00,0.0100
961.00,0.0094
960.00,0.0089
959.00,0.0086
958.00,0.0085
957.00,0.0083
956.00,0.0082
955.00,0.0080
954.00,0.0078
953.00,0.0077
952.00,0.0076
951.00,0.0076
950.00,0.0075
949.00,0.0074
948.00,0.0075
947.00,0.0076
946.00,0.0079
945.00,0.0081
944.00,0.0084
943.00,0.0088
942.00,0.0091
941.00,0.0093
940.00,0.0092
939.00,0.0089
938.00,0.0084
937.00,0.0079
936.00,0.0073
935.00,0.0069
934.00,0.0065
933.00,0.0063
932.00,0.0061
931.00,0.0060
930.00,0.0060
929.00,0.0059
928.00,0.0058
927.00,0.0057
926.00,0.0057
925.00,0.0056
924.00,0.0055
923.00,0.0055
922.00,0.0055
921.00,0.0057
920.00,0.0058
919.00,0.0060
918.00,0.0060
917.00,0.0060
916.00,0.0059
915.00,0.0058
914.00,0.0059
913.00,0.0060
912.00,0.0063
911.00,0.0066
910.00,0.0069
909.00,0.0073
908.00,0.0077
907.00,0.0081
906.00,0.0088
905.00,0.0098
904.00,0.0112
903.00,0.0131
902.00,0.0151
901.00,0.0169
900.00,0.0181
899.00,0.0183
898.00,0.0175
897.00,0.0159
896.00,0.0140
895.00,0.0121
894.00,0.0105
893.00,0.0093
892.00,0.0084
891.00,0.0079
890.00,0.0075
889.00,0.0072
888.00,0.0071
887.00,0.0070
886.00,0.0069
885.00,0.0068
884.00,0.0068
883.00,0.0069
882.00,0.0068
881.00,0.0068
880.00,0.0067
879.00,0.0067
878.00,0.0068
877.00,0.0069
876.00,0.0070
875.00,0.0070
874.00,0.0070
873.00,0.0071
872.00,0.0071
871.00,0.0070
870.00,0.0070
869.00,0.0070
868.00,0.0069
867.00,0.0070
866.00,0.0070
865.00,0.0072
864.00,0.0074
863.00,0.0076
862.00,0.0076
861.00,0.0076
860.00,0.0077
859.00,0.0077
858.00,0.0079
857.00,0.0080
856.00,0.0082
855.00,0.0083
854.00,0.0085
853.00,0.0087
852.00,0.0090
851.00,0.0093
850.00,0.0098
849.00,0.0104
848.00,0.0112
847.00,0.0123
846.00,0.0141
845.00,0.0167
844.00,0.0204
843.00,0.0246
842.00,0.0280
841.00,0.0290
840.00,0.0270
839.00,0.0231
838.00,0.0188
837.00,0.0155
836.00,0.0134
835.00,0.0121
834.00,0.0113
833.00,0.0109
832.00,0.0105
831.00,0.0102
830.00,0.0099
829.00,0.0098
828.00,0.0097
827.00,0.0097
826.00,0.0097
825.00,0.0095
824.00,0.0093
823.00,0.0092
822.00,0.0092
821.00,0.0094
820.00,0.0097
819.00,0.0099
818.00,0.0103
817.00,0.0109
816.00,0.0118
815.00,0.0130
814.00,0.0147
813.00,0.0167
812.00,0.0187
811.00,0.0205
810.00,0.0218
809.00,0.0224
808.00,0.0221
807.00,0.0210
806.00,0.0192
805.00,0.0172
804.00,0.0153
803.00,0.0138
802.00,0.0126
801.00,0.0118
800.00,0.0113
799.00,0.0109
798.00,0.0105
797.00,0.0100
796.00,0.0096
795.00,0.0093
794.00,0.0089
793.00,0.0086
792.00,0.0083
791.00,0.0080
790.00,0.0077
789.00,0.0074
788.00,0.0072
787.00,0.0070
786.00,0.0070
785.00,0.0069
784.00,0.0068
783.00,0.0066
782.00,0.0064
781.00,0.0063
780.00,0.0062
779.00,0.0061
778.00,0.0061
777.00,0.0061
776.00,0.0059
775.00,0.0058
774.00,0.0056
773.00,0.0055
772.00,0.0056
771.00,0.0057
770.00,0.0059
769.00,0.0061
768.00,0.0062
767.00,0.0063
766.00,0.0063
765.00,0.0061
764.00,0.0059
763.00,0.0058
762.00,0.0059
761.00,0.0061
760.00,0.0063
759.00,0.0065
758.00,0.0067
757.00,0.0067
756.00,0.0068
755.00,0.0068
754.00,0.0067
753.00,0.0066
752.00,0.0066
751.00,0.0069
750.00,0.0072
749.00,0.0074
748.00,0.0075
747.00,0.0074
746.00,0.0075
745.00,0.0076
744.00,0.0079
743.00,0.0082
742.00,0.0086
741.00,0.0089
740.00,0.0092
739.00,0.0095
738.00,0.0099
737.00,0.0102
736.00,0.0104
735.00,0.0108
734.00,0.0113
733.00,0.0120
732.00,0.0128
731.00,0.0135
730.00,0.0141
729.00,0.0144
728.00,0.0146
727.00,0.0146
726.00,0.0147
725.00,0.0150
724.00,0.0155
723.00,0.0163
722.00,0.0172
721.00,0.0177
720.00,0.0175
719.00,0.0166
718.00,0.0152
717.00,0.0138
716.00,0.0127
715.00,0.0119
714.00,0.0114
713.00,0.0110
712.00,0.0106
711.00,0.0102
710.00,0.0099
709.00,0.0098
708.00,0.0096
707.00,0.0095
706.00,0.0093
705.00,0.0091
704.00,0.0090
703.00,0.0089
702.00,0.0087
701.00,0.0085
700.00,0.0082
699.00,0.0081
698.00,0.0079
697.00,0.0078
696.00,0.0078
695.00,0.0078
694.00,0.0079
693.00,0.0080
692.00,0.0081
691.00,0.0082
690.00,0.0082
689.00,0.0081
688.00,0.0080
687.00,0.0081
686.00,0.0084
685.00,0.0086
684.00,0.0085
683.00,0.0083
682.00,0.0081
681.00,0.0081
680.00,0.0081
679.00,0.0082
678.00,0.0083
677.00,0.0083
676.00,0.0083
675.00,0.0082
674.00,0.0081
673.00,0.0080
672.00,0.0079
671.00,0.0080
670.00,0.0082
669.00,0.0083
668.00,0.0083
667.00,0.0082
666.00,0.0079
665.00,0.0077
664.00,0.0075
663.00,0.0075
662.00,0.0075
661.00,0.0077
660.00,0.0078
659.00,0.0080
658.00,0.0080
657.00,0.0079
656.00,0.0077
655.00,0.0076
654.00,0.0076
653.00,0.0077
652.00,0.0078
651.00,0.0077
650.00,0.0077
649.00,0.0077
648.00,0.0078
647.00,0.0079
646.00,0.0080
645.00,0.0080
644.00,0.0078
643.00,0.0076
642.00,0.0074
641.00,0.0071
640.00,0.0071
639.00,0.0072
638.00,0.0074
637.00,0.0076
636.00,0.0077
635.00,0.0077
634.00,0.0078
633.00,0.0079
632.00,0.0079
631.00,0.0078
630.00,0.0077
629.00,0.0075
628.00,0.0073
627.00,0.0072
626.00,0.0071
625.00,0.0071
624.00,0.0071
623.00,0.0071
622.00,0.0071
621.00,0.0072
620.00,0.0072
619.00,0.0072
618.00,0.0072
617.00,0.0071
616.00,0.0070
615.00,0.0068
614.00,0.0066
613.00,0.0065
612.00,0.0065
611.00,0.0066
610.00,0.0066
609.00,0.0067
608.00,0.0067
607.00,0.0066
606.00,0.0065
605.00,0.0064
604.00,0.0063
603.00,0.0064
602.00,0.0066
601.00,0.0068
600.00,0.0070
599.00,0.0072
598.00,0.0074
597.00,0.0076
596.00,0.0075
595.00,0.0074
594.00,0.0074
593.00,0.0074
592.00,0.0072
591.00,0.0070
590.00,0.0069
589.00,0.0071
588.00,0.0075
587.00,0.0077
586.00,0.0076
585.00,0.0073
584.00,0.0070
583.00,0.0068
582.00,0.0069
581.00,0.0072
580.00,0.0076
579.00,0.0080
578.00,0.0082
577.00,0.0082
576.00,0.0080
575.00,0.0078
574.00,0.0077
573.00,0.0077
572.00,0.0077
571.00,0.0075
570.00,0.0073
569.00,0.0070
568.00,0.0071
567.00,0.0074
566.00,0.0079
565.00,0.0083
564.00,0.0085
563.00,0.0083
562.00,0.0079
561.00,0.0076
560.00,0.0075
559.00,0.0075
558.00,0.0076
557.00,0.0077
556.00,0.0077
555.00,0.0077
554.00,0.0074
553.00,0.0071
552.00,0.0068
551.00,0.0066
550.00,0.0066
549.00,0.0068
548.00,0.0070
547.00,0.0072
546.00,0.0073
545.00,0.0069
544.00,0.0062
543.00,0.0056
542.00,0.0056
541.00,0.0061
540.00,0.0067
539.00,0.0071
538.00,0.0074
537.00,0.0079
536.00,0.0085
535.00,0.0090
534.00,0.0090
533.00,0.0089
532.00,0.0089
531.00,0.0091
530.00,0.0092
529.00,0.0090
528.00,0.0089
527.00,0.0089
526.00,0.0090
525.00,0.0091
524.00,0.0091
523.00,0.0089
522.00,0.0085
521.00,0.0079
520.00,0.0073
519.00,0.0068
518.00,0.0067
517.00,0.0068
516.00,0.0071
515.00,0.0075
514.00,0.0076
513.00,0.0075
512.00,0.0072
511.00,0.0071
510.00,0.0074
509.00,0.0079
508.00,0.0083
507.00,0.0082
506.00,0.0080
505.00,0.0077
504.00,0.0078
503.00,0.0080
502.00,0.0079
501.00,0.0073
500.00,0.0066
499.00,0.0061
498.00,0.0059
497.00,0.0057
496.00,0.0057
495.00,0.0059
494.00,0.0065
493.00,0.0070
492.00,0.0072
491.00,0.0074
490.00,0.0076
489.00,0.0077
488.00,0.0074
487.00,0.0073
486.00,0.0074
485.00,0.0079
484.00,0.0080
483.00,0.0075
482.00,0.0062
481.00,0.0049
480.00,0.0041
479.00,0.0042
478.00,0.0054
477.00,0.0072
476.00,0.0089
475.00,0.0097
474.00,0.0097
473.00,0.0090
472.00,0.0083
471.00,0.0080
470.00,0.0080
469.00,0.0082
468.00,0.0083
467.00,0.0083
466.00,0.0083
465.00,0.0086
464.00,0.0094
463.00,0.0109
462.00,0.0123
461.00,0.0132
460.00,0.0134
459.00,0.0132
458.00,0.0128
457.00,0.0123
456.00,0.0120
455.00,0.0117
454.00,0.0115
453.00,0.0110
452.00,0.0103
451.00,0.0098
450.00,0.0099
