Created as New Dataset,Sample 005 By Administrator Date Thursday, September 04 2025
cm-1,A
4000.00,0.0013
3999.00,0.0013
3998.00,0.0013
3997.00,0.0012
3996.00,0.0012
3995.00,0.0012
3994.00,0.0012
3993.00,0.0012
3992.00,0.0012
3991.00,0.0012
3990.00,0.0012
3989.00,0.0011
3988.00,0.0011
3987.00,0.0011
3986.00,0.0011
3985.00,0.0011
3984.00,0.0011
3983.00,0.0010
3982.00,0.0010
3981.00,0.0010
3980.00,0.0010
3979.00,0.0010
3978.00,0.0010
3977.00,0.0011
3976.00,0.0011
3975.00,0.0011
3974.00,0.0011
3973.00,0.0011
3972.00,0.0011
3971.00,0.0011
3970.00,0.0011
3969.00,0.0011
3968.00,0.0010
3967.00,0.0010
3966.00,0.0010
3965.00,0.0010
3964.00,0.0010
3963.00,0.0010
3962.00,0.0010
3961.00,0.0010
3960.00,0.0010
3959.00,0.0010
3958.00,0.0010
3957.00,0.0010
3956.00,0.0010
3955.00,0.0010
3954.00,0.0010
3953.00,0.0010
3952.00,0.0010
3951.00,0.0010
3950.00,0.0010
3949.00,0.0010
3948.00,0.0010
3947.00,0.0010
3946.00,0.0010
3945.00,0.0010
3944.00,0.0010
3943.00,0.0010
3942.00,0.0010
3941.00,0.0010
3940.00,0.0010
3939.00,0.0010
3938.00,0.0010
3937.00,0.0010
3936.00,0.0010
3935.00,0.0010
3934.00,0.0010
3933.00,0.0010
3932.00,0.0010
3931.00,0.0010
3930.00,0.0010
3929.00,0.0010
3928.00,0.0011
3927.00,0.0011
3926.00,0.0010
3925.00,0.0010
3924.00,0.0010
3923.00,0.0010
3922.00,0.0010
3921.00,0.0010
3920.00,0.0010
3919.00,0.0010
3918.00,0.0010
3917.00,0.0010
3916.00,0.0010
3915.00,0.0010
3914.00,0.0010
3913.00,0.0010
3912.00,0.0010
3911.00,0.0010
3910.00,0.0010
3909.00,0.0010
3908.00,0.0011
3907.00,0.0011
3906.00,0.0011
3905.00,0.0011
3904.00,0.0011
3903.00,0.0011
3902.00,0.0010
3901.00,0.0010
3900.00,0.0010
3899.00,0.0010
3898.00,0.0010
3897.00,0.0010
3896.00,0.0010
3895.00,0.0010
3894.00,0.0010
3893.00,0.0010
3892.00,0.0009
3891.00,0.0009
3890.00,0.0009
3889.00,0.0009
3888.00,0.0009
3887.00,0.0010
3886.00,0.0010
3885.00,0.0010
3884.00,0.0010
3883.00,0.0010
3882.00,0.0010
3881.00,0.0010
3880.00,0.0010
3879.00,0.0010
3878.00,0.0010
3877.00,0.0011
3876.00,0.0011
3875.00,0.0011
3874.00,0.0011
3873.00,0.0011
3872.00,0.0010
3871.00,0.0010
3870.00,0.0010
3869.00,0.0010
3868.00,0.0010
3867.00,0.0010
3866.00,0.0010
3865.00,0.0010
3864.00,0.0010
3863.00,0.0010
3862.00,0.0010
3861.00,0.0010
3860.00,0.0010
3859.00,0.0010
3858.00,0.0011
3857.00,0.0011
3856.00,0.0011
3855.00,0.0011
3854.00,0.0011
3853.00,0.0011
3852.00,0.0010
3851.00,0.0010
3850.00,0.0009
3849.00,0.0009
3848.00,0.0010
3847.00,0.0010
3846.00,0.0010
3845.00,0.0010
3844.00,0.0011
3843.00,0.0011
3842.00,0.0011
3841.00,0.0011
3840.00,0.0010
3839.00,0.0010
3838.00,0.0010
3837.00,0.0011
3836.00,0.0011
3835.00,0.0011
3834.00,0.0011
3833.00,0.0011
3832.00,0.0011
3831.00,0.0011
3830.00,0.0010
3829.00,0.0010
3828.00,0.0009
3827.00,0.0009
3826.00,0.0009
3825.00,0.0010
3824.00,0.0010
3823.00,0.0010
3822.00,0.0010
3821.00,0.0010
3820.00,0.0010
3819.00,0.0010
3818.00,0.0010
3817.00,0.0010
3816.00,0.0011
3815.00,0.0011
3814.00,0.0010
3813.00,0.0010
3812.00,0.0010
3811.00,0.0010
3810.00,0.0009
3809.00,0.0009
3808.00,0.0009
3807.00,0.0010
3806.00,0.0010
3805.00,0.0010
3804.00,0.0010
3803.00,0.0010
3802.00,0.0010
3801.00,0.0010
3800.00,0.0010
3799.00,0.0010
3798.00,0.0010
3797.00,0.0010
3796.00,0.0010
3795.00,0.0010
3794.00,0.0010
3793.00,0.0010
3792.00,0.0010
3791.00,0.0010
3790.00,0.0010
3789.00,0.0010
3788.00,0.0010
3787.00,0.0009
3786.00,0.0009
3785.00,0.0009
3784.00,0.0009
3783.00,0.0009
3782.00,0.0009
3781.00,0.0009
3780.00,0.0009
3779.00,0.0010
3778.00,0.0010
3777.00,0.0010
3776.00,0.0010
3775.00,0.0010
3774.00,0.0010
3773.00,0.0010
3772.00,0.0010
3771.00,0.0009
3770.00,0.0010
3769.00,0.0010
3768.00,0.0011
3767.00,0.0011
3766.00,0.0010
3765.00,0.0010
3764.00,0.0010
3763.00,0.0010
3762.00,0.0010
3761.00,0.0011
3760.00,0.0011
3759.00,0.0011
3758.00,0.0012
3757.00,0.0012
3756.00,0.0012
3755.00,0.0011
3754.00,0.0011
3753.00,0.0011
3752.00,0.0011
3751.00,0.0011
3750.00,0.0011
3749.00,0.0011
3748.00,0.0010
3747.00,0.0010
3746.00,0.0010
3745.00,0.0010
3744.00,0.0010
3743.00,0.0010
3742.00,0.0009
3741.00,0.0009
3740.00,0.0009
3739.00,0.0008
3738.00,0.0008
3737.00,0.0007
3736.00,0.0007
3735.00,0.0007
3734.00,0.0008
3733.00,0.0008
3732.00,0.0008
3731.00,0.0008
3730.00,0.0008
3729.00,0.0009
3728.00,0.0009
3727.00,0.0009
3726.00,0.0009
3725.00,0.0009
3724.00,0.0009
3723.00,0.0009
3722.00,0.0009
3721.00,0.0009
3720.00,0.0009
3719.00,0.0009
3718.00,0.0009
3717.00,0.0009
3716.00,0.0009
3715.00,0.0009
3714.00,0.0009
3713.00,0.0010
3712.00,0.0010
3711.00,0.0010
3710.00,0.0009
3709.00,0.0009
3708.00,0.0008
3707.00,0.0008
3706.00,0.0008
3705.00,0.0008
3704.00,0.0008
3703.00,0.0008
3702.00,0.0008
3701.00,0.0008
3700.00,0.0008
3699.00,0.0008
3698.00,0.0008
3697.00,0.0008
3696.00,0.0008
3695.00,0.0008
3694.00,0.0009
3693.00,0.0009
3692.00,0.0009
3691.00,0.0009
3690.00,0.0009
3689.00,0.0009
3688.00,0.0009
3687.00,0.0009
3686.00,0.0009
3685.00,0.0009
3684.00,0.0009
3683.00,0.0009
3682.00,0.0009
3681.00,0.0010
3680.00,0.0011
3679.00,0.0011
3678.00,0.0012
3677.00,0.0012
3676.00,0.0012
3675.00,0.0013
3674.00,0.0013
3673.00,0.0014
3672.00,0.0014
3671.00,0.0013
3670.00,0.0013
3669.00,0.0012
3668.00,0.0012
3667.00,0.0012
3666.00,0.0012
3665.00,0.0012
3664.00,0.0012
3663.00,0.0012
3662.00,0.0012
3661.00,0.0012
3660.00,0.0012
3659.00,0.0012
3658.00,0.0012
3657.00,0.0013
3656.00,0.0013
3655.00,0.0014
3654.00,0.0014
3653.00,0.0014
3652.00,0.0014
3651.00,0.0014
3650.00,0.0013
3649.00,0.0013
3648.00,0.0013
3647.00,0.0013
3646.00,0.0012
3645.00,0.0012
3644.00,0.0011
3643.00,0.0011
3642.00,0.0011
3641.00,0.0011
3640.00,0.0012
3639.00,0.0012
3638.00,0.0012
3637.00,0.0012
3636.00,0.0011
3635.00,0.0011
3634.00,0.0010
3633.00,0.0010
3632.00,0.0010
3631.00,0.0010
3630.00,0.0010
3629.00,0.0010
3628.00,0.0010
3627.00,0.0010
3626.00,0.0010
3625.00,0.0010
3624.00,0.0010
3623.00,0.0010
3622.00,0.0010
3621.00,0.0009
3620.00,0.0009
3619.00,0.0009
3618.00,0.0009
3617.00,0.0009
3616.00,0.0009
3615.00,0.0009
3614.00,0.0009
3613.00,0.0009
3612.00,0.0009
3611.00,0.0009
3610.00,0.0009
3609.00,0.0010
3608.00,0.0010
3607.00,0.0010
3606.00,0.0010
3605.00,0.0010
3604.00,0.0010
3603.00,0.0010
3602.00,0.0010
3601.00,0.0010
3600.00,0.0010
3599.00,0.0010
3598.00,0.0010
3597.00,0.0010
3596.00,0.0010
3595.00,0.0010
3594.00,0.0010
3593.00,0.0010
3592.00,0.0010
3591.00,0.0009
3590.00,0.0010
3589.00,0.0010
3588.00,0.0010
3587.00,0.0011
3586.00,0.0011
3585.00,0.0010
3584.00,0.0010
3583.00,0.0010
3582.00,0.0010
3581.00,0.0010
3580.00,0.0010
3579.00,0.0010
3578.00,0.0011
3577.00,0.0011
3576.00,0.0011
3575.00,0.0012
3574.00,0.0012
3573.00,0.0012
3572.00,0.0012
3571.00,0.0013
3570.00,0.0013
3569.00,0.0013
3568.00,0.0013
3567.00,0.0014
3566.00,0.0014
3565.00,0.0014
3564.00,0.0014
3563.00,0.0014
3562.00,0.0014
3561.00,0.0013
3560.00,0.0013
3559.00,0.0013
3558.00,0.0013
3557.00,0.0014
3556.00,0.0014
3555.00,0.0014
3554.00,0.0015
3553.00,0.0015
3552.00,0.0016
3551.00,0.0016
3550.00,0.0016
3549.00,0.0016
3548.00,0.0016
3547.00,0.0016
3546.00,0.0016
3545.00,0.0017
3544.00,0.0017
3543.00,0.0017
3542.00,0.0017
3541.00,0.0017
3540.00,0.0017
3539.00,0.0017
3538.00,0.0017
3537.00,0.0017
3536.00,0.0017
3535.00,0.0017
3534.00,0.0018
3533.00,0.0018
3532.00,0.0018
3531.00,0.0018
3530.00,0.0018
3529.00,0.0018
3528.00,0.0018
3527.00,0.0019
3526.00,0.0019
3525.00,0.0020
3524.00,0.0020
3523.00,0.0020
3522.00,0.0020
3521.00,0.0020
3520.00,0.0020
3519.00,0.0020
3518.00,0.0020
3517.00,0.0020
3516.00,0.0020
3515.00,0.0020
3514.00,0.0020
3513.00,0.0020
3512.00,0.0021
3511.00,0.0021
3510.00,0.0021
3509.00,0.0022
3508.00,0.0022
3507.00,0.0022
3506.00,0.0022
3505.00,0.0023
3504.00,0.0023
3503.00,0.0023
3502.00,0.0023
3501.00,0.0023
3500.00,0.0023
3499.00,0.0023
3498.00,0.0023
3497.00,0.0023
3496.00,0.0023
3495.00,0.0023
3494.00,0.0023
3493.00,0.0024
3492.00,0.0024
3491.00,0.0024
3490.00,0.0024
3489.00,0.0024
3488.00,0.0025
3487.00,0.0025
3486.00,0.0025
3485.00,0.0025
3484.00,0.0025
3483.00,0.0025
3482.00,0.0025
3481.00,0.0025
3480.00,0.0025
3479.00,0.0025
3478.00,0.0025
3477.00,0.0026
3476.00,0.0026
3475.00,0.0026
3474.00,0.0026
3473.00,0.0026
3472.00,0.0026
3471.00,0.0026
3470.00,0.0026
3469.00,0.0027
3468.00,0.0027
3467.00,0.0027
3466.00,0.0027
3465.00,0.0028
3464.00,0.0028
3463.00,0.0028
3462.00,0.0028
3461.00,0.0028
3460.00,0.0028
3459.00,0.0028
3458.00,0.0028
3457.00,0.0028
3456.00,0.0028
3455.00,0.0029
3454.00,0.0029
3453.00,0.0029
3452.00,0.0029
3451.00,0.0029
3450.00,0.0029
3449.00,0.0029
3448.00,0.0029
3447.00,0.0029
3446.00,0.0030
3445.00,0.0030
3444.00,0.0030
3443.00,0.0031
3442.00,0.0031
3441.00,0.0031
3440.00,0.0031
3439.00,0.0031
3438.00,0.0031
3437.00,0.0031
3436.00,0.0031
3435.00,0.0030
3434.00,0.0030
3433.00,0.0030
3432.00,0.0031
3431.00,0.0031
3430.00,0.0031
3429.00,0.0031
3428.00,0.0031
3427.00,0.0032
3426.00,0.0032
3425.00,0.0032
3424.00,0.0033
3423.00,0.0033
3422.00,0.0033
3421.00,0.0032
3420.00,0.0032
3419.00,0.0032
3418.00,0.0032
3417.00,0.0033
3416.00,0.0033
3415.00,0.0034
3414.00,0.0034
3413.00,0.0034
3412.00,0.0034
3411.00,0.0034
3410.00,0.0033
3409.00,0.0033
3408.00,0.0033
3407.00,0.0033
3406.00,0.0032
3405.00,0.0032
3404.00,0.0032
3403.00,0.0032
3402.00,0.0032
3401.00,0.0033
3400.00,0.0033
3399.00,0.0033
3398.00,0.0033
3397.00,0.0033
3396.00,0.0033
3395.00,0.0033
3394.00,0.0033
3393.00,0.0033
3392.00,0.0033
3391.00,0.0032
3390.00,0.0032
3389.00,0.0032
3388.00,0.0032
3387.00,0.0033
3386.00,0.0033
3385.00,0.0033
3384.00,0.0033
3383.00,0.0033
3382.00,0.0033
3381.00,0.0034
3380.00,0.0034
3379.00,0.0034
3378.00,0.0034
3377.00,0.0034
3376.00,0.0034
3375.00,0.0034
3374.00,0.0034
3373.00,0.0034
3372.00,0.0034
3371.00,0.0034
3370.00,0.0034
3369.00,0.0034
3368.00,0.0034
3367.00,0.0034
3366.00,0.0034
3365.00,0.0034
3364.00,0.0034
3363.00,0.0034
3362.00,0.0034
3361.00,0.0034
3360.00,0.0034
3359.00,0.0034
3358.00,0.0034
3357.00,0.0034
3356.00,0.0034
3355.00,0.0034
3354.00,0.0034
3353.00,0.0035
3352.00,0.0035
3351.00,0.0034
3350.00,0.0034
3349.00,0.0034
3348.00,0.0034
3347.00,0.0034
3346.00,0.0034
3345.00,0.0034
3344.00,0.0033
3343.00,0.0033
3342.00,0.0033
3341.00,0.0033
3340.00,0.0033
3339.00,0.0033
3338.00,0.0034
3337.00,0.0034
3336.00,0.0034
3335.00,0.0033
3334.00,0.0033
3333.00,0.0033
3332.00,0.0032
3331.00,0.0032
3330.00,0.0032
3329.00,0.0031
3328.00,0.0031
3327.00,0.0031
3326.00,0.0031
3325.00,0.0031
3324.00,0.0031
3323.00,0.0031
3322.00,0.0031
3321.00,0.0031
3320.00,0.0031
3319.00,0.0031
3318.00,0.0031
3317.00,0.0031
3316.00,0.0031
3315.00,0.0031
3314.00,0.0031
3313.00,0.0031
3312.00,0.0031
3311.00,0.0031
3310.00,0.0031
3309.00,0.0031
3308.00,0.0031
3307.00,0.0032
3306.00,0.0032
3305.00,0.0032
3304.00,0.0031
3303.00,0.0031
3302.00,0.0031
3301.00,0.0031
3300.00,0.0031
3299.00,0.0030
3298.00,0.0030
3297.00,0.0030
3296.00,0.0030
3295.00,0.0030
3294.00,0.0030
3293.00,0.0030
3292.00,0.0030
3291.00,0.0029
3290.00,0.0029
3289.00,0.0029
3288.00,0.0029
3287.00,0.0029
3286.00,0.0029
3285.00,0.0029
3284.00,0.0030
3283.00,0.0029
3282.00,0.0029
3281.00,0.0029
3280.00,0.0029
3279.00,0.0029
3278.00,0.0029
3277.00,0.0029
3276.00,0.0029
3275.00,0.0029
3274.00,0.0028
3273.00,0.0028
3272.00,0.0028
3271.00,0.0028
3270.00,0.0028
3269.00,0.0028
3268.00,0.0028
3267.00,0.0028
3266.00,0.0028
3265.00,0.0028
3264.00,0.0028
3263.00,0.0028
3262.00,0.0027
3261.00,0.0027
3260.00,0.0026
3259.00,0.0025
3258.00,0.0025
3257.00,0.0025
3256.00,0.0025
3255.00,0.0026
3254.00,0.0026
3253.00,0.0026
3252.00,0.0026
3251.00,0.0026
3250.00,0.0026
3249.00,0.0026
3248.00,0.0026
3247.00,0.0026
3246.00,0.0026
3245.00,0.0026
3244.00,0.0027
3243.00,0.0027
3242.00,0.0027
3241.00,0.0027
3240.00,0.0027
3239.00,0.0027
3238.00,0.0026
3237.00,0.0026
3236.00,0.0025
3235.00,0.0026
3234.00,0.0026
3233.00,0.0027
3232.00,0.0027
3231.00,0.0028
3230.00,0.0028
3229.00,0.0028
3228.00,0.0027
3227.00,0.0027
3226.00,0.0027
3225.00,0.0027
3224.00,0.0027
3223.00,0.0027
3222.00,0.0028
3221.00,0.0028
3220.00,0.0028
3219.00,0.0029
3218.00,0.0029
3217.00,0.0029
3216.00,0.0029
3215.00,0.0030
3214.00,0.0030
3213.00,0.0030
3212.00,0.0031
3211.00,0.0031
3210.00,0.0031
3209.00,0.0031
3208.00,0.0031
3207.00,0.0031
3206.00,0.0031
3205.00,0.0031
3204.00,0.0031
3203.00,0.0030
3202.00,0.0030
3201.00,0.0031
3200.00,0.0031
3199.00,0.0031
3198.00,0.0031
3197.00,0.0030
3196.00,0.0030
3195.00,0.0030
3194.00,0.0030
3193.00,0.0031
3192.00,0.0031
3191.00,0.0031
3190.00,0.0031
3189.00,0.0032
3188.00,0.0031
3187.00,0.0031
3186.00,0.0031
3185.00,0.0030
3184.00,0.0030
3183.00,0.0029
3182.00,0.0029
3181.00,0.0029
3180.00,0.0029
3179.00,0.0029
3178.00,0.0028
3177.00,0.0028
3176.00,0.0028
3175.00,0.0028
3174.00,0.0028
3173.00,0.0027
3172.00,0.0027
3171.00,0.0027
3170.00,0.0027
3169.00,0.0027
3168.00,0.0027
3167.00,0.0027
3166.00,0.0026
3165.00,0.0026
3164.00,0.0027
3163.00,0.0027
3162.00,0.0027
3161.00,0.0027
3160.00,0.0027
3159.00,0.0027
3158.00,0.0027
3157.00,0.0026
3156.00,0.0026
3155.00,0.0027
3154.00,0.0027
3153.00,0.0027
3152.00,0.0027
3151.00,0.0027
3150.00,0.0027
3149.00,0.0027
3148.00,0.0027
3147.00,0.0027
3146.00,0.0027
3145.00,0.0026
3144.00,0.0027
3143.00,0.0027
3142.00,0.0027
3141.00,0.0027
3140.00,0.0027
3139.00,0.0027
3138.00,0.0027
3137.00,0.0027
3136.00,0.0027
3135.00,0.0026
3134.00,0.0026
3133.00,0.0026
3132.00,0.0026
3131.00,0.0025
3130.00,0.0025
3129.00,0.0025
3128.00,0.0025
3127.00,0.0025
3126.00,0.0025
3125.00,0.0024
3124.00,0.0024
3123.00,0.0024
3122.00,0.0024
3121.00,0.0024
3120.00,0.0023
3119.00,0.0023
3118.00,0.0023
3117.00,0.0023
3116.00,0.0023
3115.00,0.0023
3114.00,0.0023
3113.00,0.0023
3112.00,0.0023
3111.00,0.0023
3110.00,0.0023
3109.00,0.0023
3108.00,0.0023
3107.00,0.0023
3106.00,0.0023
3105.00,0.0022
3104.00,0.0022
3103.00,0.0022
3102.00,0.0022
3101.00,0.0022
3100.00,0.0022
3099.00,0.0022
3098.00,0.0023
3097.00,0.0023
3096.00,0.0023
3095.00,0.0023
3094.00,0.0023
3093.00,0.0022
3092.00,0.0022
3091.00,0.0022
3090.00,0.0022
3089.00,0.0021
3088.00,0.0021
3087.00,0.0021
3086.00,0.0022
3085.00,0.0022
3084.00,0.0022
3083.00,0.0022
3082.00,0.0023
3081.00,0.0023
3080.00,0.0023
3079.00,0.0023
3078.00,0.0023
3077.00,0.0023
3076.00,0.0023
3075.00,0.0023
3074.00,0.0023
3073.00,0.0023
3072.00,0.0024
3071.00,0.0024
3070.00,0.0024
3069.00,0.0025
3068.00,0.0025
3067.00,0.0025
3066.00,0.0025
3065.00,0.0025
3064.00,0.0024
3063.00,0.0024
3062.00,0.0024
3061.00,0.0025
3060.00,0.0025
3059.00,0.0025
3058.00,0.0026
3057.00,0.0026
3056.00,0.0027
3055.00,0.0027
3054.00,0.0027
3053.00,0.0027
3052.00,0.0027
3051.00,0.0027
3050.00,0.0027
3049.00,0.0028
3048.00,0.0028
3047.00,0.0028
3046.00,0.0028
3045.00,0.0029
3044.00,0.0029
3043.00,0.0029
3042.00,0.0029
3041.00,0.0030
3040.00,0.0030
3039.00,0.0031
3038.00,0.0031
3037.00,0.0032
3036.00,0.0032
3035.00,0.0032
3034.00,0.0032
3033.00,0.0033
3032.00,0.0033
3031.00,0.0033
3030.00,0.0034
3029.00,0.0034
3028.00,0.0035
3027.00,0.0036
3026.00,0.0036
3025.00,0.0036
3024.00,0.0037
3023.00,0.0038
3022.00,0.0039
3021.00,0.0040
3020.00,0.0041
3019.00,0.0043
3018.00,0.0044
3017.00,0.0045
3016.00,0.0046
3015.00,0.0048
3014.00,0.0050
3013.00,0.0052
3012.00,0.0054
3011.00,0.0057
3010.00,0.0059
3009.00,0.0061
3008.00,0.0064
3007.00,0.0067
3006.00,0.0070
3005.00,0.0074
3004.00,0.0077
3003.00,0.0081
3002.00,0.0085
3001.00,0.0089
3000.00,0.0093
2999.00,0.0097
2998.00,0.0101
2997.00,0.0105
2996.00,0.0109
2995.00,0.0113
2994.00,0.0118
2993.00,0.0123
2992.00,0.0129
2991.00,0.0135
2990.00,0.0143
2989.00,0.0150
2988.00,0.0159
2987.00,0.0168
2986.00,0.0180
2985.00,0.0194
2984.00,0.0210
2983.00,0.0227
2982.00,0.0245
2981.00,0.0262
2980.00,0.0279
2979.00,0.0297
2978.00,0.0318
2977.00,0.0342
2976.00,0.0371
2975.00,0.0405
2974.00,0.0445
2973.00,0.0490
2972.00,0.0541
2971.00,0.0597
2970.00,0.0658
2969.00,0.0724
2968.00,0.0794
2967.00,0.0870
2966.00,0.0948
2965.00,0.1025
2964.00,0.1100
2963.00,0.1169
2962.00,0.1229
2961.00,0.1282
2960.00,0.1328
2959.00,0.1372
2958.00,0.1418
2957.00,0.1470
2956.00,0.1534
2955.00,0.1609
2954.00,0.1694
2953.00,0.1781
2952.00,0.1862
2951.00,0.1922
2950.00,0.1951
2949.00,0.1939
2948.00,0.1882
2947.00,0.1786
2946.00,0.1663
2945.00,0.1529
2944.00,0.1400
2943.00,0.1288
2942.00,0.1201
2941.00,0.1141
2940.00,0.1107
2939.00,0.1098
2938.00,0.1109
2937.00,0.1139
2936.00,0.1187
2935.00,0.1252
2934.00,0.1331
2933.00,0.1424
2932.00,0.1528
2931.00,0.1642
2930.00,0.1762
2929.00,0.1886
2928.00,0.2011
2927.00,0.2133
2926.00,0.2252
2925.00,0.2368
2924.00,0.2481
2923.00,0.2594
2922.00,0.2708
2921.00,0.2819
2920.00,0.2922
2919.00,0.3004
2918.00,0.3053
2917.00,0.3058
2916.00,0.3015
2915.00,0.2931
2914.00,0.2817
2913.00,0.2688
2912.00,0.2557
2911.00,0.2433
2910.00,0.2320
2909.00,0.2218
2908.00,0.2125
2907.00,0.2038
2906.00,0.1955
2905.00,0.1874
2904.00,0.1795
2903.00,0.1719
2902.00,0.1645
2901.00,0.1574
2900.00,0.1507
2899.00,0.1444
2898.00,0.1386
2897.00,0.1332
2896.00,0.1285
2895.00,0.1243
2894.00,0.1208
2893.00,0.1179
2892.00,0.1157
2891.00,0.1141
2890.00,0.1130
2889.00,0.1124
2888.00,0.1122
2887.00,0.1124
2886.00,0.1129
2885.00,0.1138
2884.00,0.1152
2883.00,0.1171
2882.00,0.1196
2881.00,0.1224
2880.00,0.1254
2879.00,0.1280
2878.00,0.1298
2877.00,0.1305
2876.00,0.1303
2875.00,0.1294
2874.00,0.1286
2873.00,0.1282
2872.00,0.1287
2871.00,0.1300
2870.00,0.1319
2869.00,0.1338
2868.00,0.1351
2867.00,0.1347
2866.00,0.1321
2865.00,0.1269
2864.00,0.1196
2863.00,0.1111
2862.00,0.1026
2861.00,0.0950
2860.00,0.0890
2859.00,0.0847
2858.00,0.0822
2857.00,0.0811
2856.00,0.0811
2855.00,0.0819
2854.00,0.0834
2853.00,0.0852
2852.00,0.0871
2851.00,0.0888
2850.00,0.0900
2849.00,0.0908
2848.00,0.0915
2847.00,0.0927
2846.00,0.0947
2845.00,0.0979
2844.00,0.1022
2843.00,0.1073
2842.00,0.1130
2841.00,0.1184
2840.00,0.1229
2839.00,0.1255
2838.00,0.1255
2837.00,0.1223
2836.00,0.1161
2835.00,0.1071
2834.00,0.0965
2833.00,0.0854
2832.00,0.0747
2831.00,0.0651
2830.00,0.0570
2829.00,0.0503
2828.00,0.0449
2827.00,0.0405
2826.00,0.0370
2825.00,0.0341
2824.00,0.0317
2823.00,0.0296
2822.00,0.0279
2821.00,0.0264
2820.00,0.0251
2819.00,0.0240
2818.00,0.0231
2817.00,0.0222
2816.00,0.0215
2815.00,0.0208
2814.00,0.0202
2813.00,0.0196
2812.00,0.0190
2811.00,0.0184
2810.00,0.0179
2809.00,0.0172
2808.00,0.0166
2807.00,0.0159
2806.00,0.0152
2805.00,0.0145
2804.00,0.0139
2803.00,0.0133
2802.00,0.0127
2801.00,0.0123
2800.00,0.0119
2799.00,0.0115
2798.00,0.0112
2797.00,0.0109
2796.00,0.0107
2795.00,0.0104
2794.00,0.0101
2793.00,0.0098
2792.00,0.0095
2791.00,0.0092
2790.00,0.0090
2789.00,0.0088
2788.00,0.0085
2787.00,0.0083
2786.00,0.0080
2785.00,0.0077
2784.00,0.0075
2783.00,0.0072
2782.00,0.0070
2781.00,0.0068
2780.00,0.0066
2779.00,0.0065
2778.00,0.0063
2777.00,0.0062
2776.00,0.0061
2775.00,0.0060
2774.00,0.0059
2773.00,0.0058
2772.00,0.0058
2771.00,0.0058
2770.00,0.0058
2769.00,0.0057
2768.00,0.0057
2767.00,0.0056
2766.00,0.0056
2765.00,0.0055
2764.00,0.0055
2763.00,0.0055
2762.00,0.0054
2761.00,0.0054
2760.00,0.0054
2759.00,0.0054
2758.00,0.0054
2757.00,0.0053
2756.00,0.0053
2755.00,0.0053
2754.00,0.0052
2753.00,0.0052
2752.00,0.0052
2751.00,0.0052
2750.00,0.0051
2749.00,0.0051
2748.00,0.0052
2747.00,0.0052
2746.00,0.0053
2745.00,0.0054
2744.00,0.0054
2743.00,0.0055
2742.00,0.0056
2741.00,0.0057
2740.00,0.0058
2739.00,0.0059
2738.00,0.0061
2737.00,0.0062
2736.00,0.0064
2735.00,0.0066
2734.00,0.0067
2733.00,0.0069
2732.00,0.0071
2731.00,0.0073
2730.00,0.0075
2729.00,0.0078
2728.00,0.0081
2727.00,0.0084
2726.00,0.0087
2725.00,0.0089
2724.00,0.0091
2723.00,0.0092
2722.00,0.0091
2721.00,0.0088
2720.00,0.0085
2719.00,0.0082
2718.00,0.0078
2717.00,0.0075
2716.00,0.0072
2715.00,0.0069
2714.00,0.0066
2713.00,0.0064
2712.00,0.0062
2711.00,0.0060
2710.00,0.0058
2709.00,0.0057
2708.00,0.0055
2707.00,0.0054
2706.00,0.0052
2705.00,0.0051
2704.00,0.0050
2703.00,0.0049
2702.00,0.0048
2701.00,0.0047
2700.00,0.0047
2699.00,0.0046
2698.00,0.0046
2697.00,0.0046
2696.00,0.0045
2695.00,0.0045
2694.00,0.0045
2693.00,0.0045
2692.00,0.0045
2691.00,0.0045
2690.00,0.0046
2689.00,0.0046
2688.00,0.0046
2687.00,0.0046
2686.00,0.0045
2685.00,0.0045
2684.00,0.0046
2683.00,0.0046
2682.00,0.0046
2681.00,0.0046
2680.00,0.0047
2679.00,0.0047
2678.00,0.0047
2677.00,0.0047
2676.00,0.0047
2675.00,0.0047
2674.00,0.0047
2673.00,0.0047
2672.00,0.0047
2671.00,0.0047
2670.00,0.0046
2669.00,0.0046
2668.00,0.0047
2667.00,0.0047
2666.00,0.0047
2665.00,0.0048
2664.00,0.0048
2663.00,0.0049
2662.00,0.0050
2661.00,0.0050
2660.00,0.0051
2659.00,0.0051
2658.00,0.0050
2657.00,0.0050
2656.00,0.0049
2655.00,0.0049
2654.00,0.0048
2653.00,0.0048
2652.00,0.0047
2651.00,0.0047
2650.00,0.0046
2649.00,0.0046
2648.00,0.0045
2647.00,0.0045
2646.00,0.0044
2645.00,0.0043
2644.00,0.0043
2643.00,0.0043
2642.00,0.0042
2641.00,0.0042
2640.00,0.0041
2639.00,0.0041
2638.00,0.0040
2637.00,0.0040
2636.00,0.0040
2635.00,0.0040
2634.00,0.0041
2633.00,0.0041
2632.00,0.0042
2631.00,0.0042
2630.00,0.0042
2629.00,0.0042
2628.00,0.0042
2627.00,0.0042
2626.00,0.0041
2625.00,0.0042
2624.00,0.0042
2623.00,0.0042
2622.00,0.0042
2621.00,0.0042
2620.00,0.0042
2619.00,0.0042
2618.00,0.0042
2617.00,0.0042
2616.00,0.0042
2615.00,0.0042
2614.00,0.0041
2613.00,0.0041
2612.00,0.0040
2611.00,0.0039
2610.00,0.0038
2609.00,0.0038
2608.00,0.0037
2607.00,0.0037
2606.00,0.0036
2605.00,0.0036
2604.00,0.0036
2603.00,0.0035
2602.00,0.0035
2601.00,0.0034
2600.00,0.0034
2599.00,0.0034
2598.00,0.0034
2597.00,0.0034
2596.00,0.0034
2595.00,0.0034
2594.00,0.0035
2593.00,0.0035
2592.00,0.0035
2591.00,0.0035
2590.00,0.0036
2589.00,0.0037
2588.00,0.0038
2587.00,0.0040
2586.00,0.0041
2585.00,0.0041
2584.00,0.0041
2583.00,0.0041
2582.00,0.0042
2581.00,0.0042
2580.00,0.0041
2579.00,0.0041
2578.00,0.0040
2577.00,0.0038
2576.00,0.0037
2575.00,0.0036
2574.00,0.0034
2573.00,0.0033
2572.00,0.0032
2571.00,0.0031
2570.00,0.0030
2569.00,0.0030
2568.00,0.0029
2567.00,0.0028
2566.00,0.0028
2565.00,0.0027
2564.00,0.0026
2563.00,0.0025
2562.00,0.0024
2561.00,0.0024
2560.00,0.0024
2559.00,0.0024
2558.00,0.0024
2557.00,0.0024
2556.00,0.0024
2555.00,0.0024
2554.00,0.0024
2553.00,0.0024
2552.00,0.0023
2551.00,0.0023
2550.00,0.0023
2549.00,0.0022
2548.00,0.0022
2547.00,0.0021
2546.00,0.0021
2545.00,0.0020
2544.00,0.0019
2543.00,0.0018
2542.00,0.0017
2541.00,0.0017
2540.00,0.0018
2539.00,0.0018
2538.00,0.0018
2537.00,0.0019
2536.00,0.0019
2535.00,0.0018
2534.00,0.0018
2533.00,0.0018
2532.00,0.0017
2531.00,0.0017
2530.00,0.0016
2529.00,0.0016
2528.00,0.0016
2527.00,0.0016
2526.00,0.0016
2525.00,0.0016
2524.00,0.0015
2523.00,0.0015
2522.00,0.0014
2521.00,0.0014
2520.00,0.0014
2519.00,0.0014
2518.00,0.0014
2517.00,0.0014
2516.00,0.0014
2515.00,0.0014
2514.00,0.0014
2513.00,0.0013
2512.00,0.0013
2511.00,0.0013
2510.00,0.0013
2509.00,0.0013
2508.00,0.0013
2507.00,0.0012
2506.00,0.0012
2505.00,0.0012
2504.00,0.0012
2503.00,0.0012
2502.00,0.0012
2501.00,0.0011
2500.00,0.0011
2499.00,0.0011
2498.00,0.0012
2497.00,0.0012
2496.00,0.0012
2495.00,0.0012
2494.00,0.0011
2493.00,0.0011
2492.00,0.0011
2491.00,0.0012
2490.00,0.0012
2489.00,0.0012
2488.00,0.0012
2487.00,0.0011
2486.00,0.0011
2485.00,0.0011
2484.00,0.0011
2483.00,0.0011
2482.00,0.0011
2481.00,0.0011
2480.00,0.0011
2479.00,0.0011
2478.00,0.0012
2477.00,0.0012
2476.00,0.0012
2475.00,0.0012
2474.00,0.0011
2473.00,0.0011
2472.00,0.0010
2471.00,0.0010
2470.00,0.0010
2469.00,0.0010
2468.00,0.0010
2467.00,0.0009
2466.00,0.0009
2465.00,0.0009
2464.00,0.0009
2463.00,0.0010
2462.00,0.0010
2461.00,0.0011
2460.00,0.0012
2459.00,0.0012
2458.00,0.0012
2457.00,0.0012
2456.00,0.0012
2455.00,0.0013
2454.00,0.0014
2453.00,0.0014
2452.00,0.0013
2451.00,0.0013
2450.00,0.0012
2449.00,0.0011
2448.00,0.0011
2447.00,0.0011
2446.00,0.0011
2445.00,0.0012
2444.00,0.0012
2443.00,0.0013
2442.00,0.0013
2441.00,0.0013
2440.00,0.0013
2439.00,0.0012
2438.00,0.0011
2437.00,0.0011
2436.00,0.0012
2435.00,0.0012
2434.00,0.0012
2433.00,0.0012
2432.00,0.0012
2431.00,0.0012
2430.00,0.0013
2429.00,0.0014
2428.00,0.0014
2427.00,0.0014
2426.00,0.0014
2425.00,0.0013
2424.00,0.0013
2423.00,0.0012
2422.00,0.0012
2421.00,0.0012
2420.00,0.0012
2419.00,0.0012
2418.00,0.0012
2417.00,0.0012
2416.00,0.0012
2415.00,0.0012
2414.00,0.0011
2413.00,0.0011
2412.00,0.0011
2411.00,0.0011
2410.00,0.0011
2409.00,0.0011
2408.00,0.0010
2407.00,0.0010
2406.00,0.0010
2405.00,0.0010
2404.00,0.0009
2403.00,0.0009
2402.00,0.0009
2401.00,0.0009
2400.00,0.0009
2399.00,0.0009
2398.00,0.0009
2397.00,0.0009
2396.00,0.0009
2395.00,0.0009
2394.00,0.0009
2393.00,0.0009
2392.00,0.0009
2391.00,0.0008
2390.00,0.0008
2389.00,0.0008
2388.00,0.0008
2387.00,0.0008
2386.00,0.0007
2385.00,0.0007
2384.00,0.0006
2383.00,0.0006
2382.00,0.0005
2381.00,0.0005
2380.00,0.0005
2379.00,0.0005
2378.00,0.0005
2377.00,0.0005
2376.00,0.0004
2375.00,0.0003
2374.00,0.0003
2373.00,0.0002
2372.00,0.0003
2371.00,0.0003
2370.00,0.0004
2369.00,0.0005
2368.00,0.0005
2367.00,0.0004
2366.00,0.0004
2365.00,0.0003
2364.00,0.0004
2363.00,0.0004
2362.00,0.0005
2361.00,0.0005
2360.00,0.0005
2359.00,0.0005
2358.00,0.0005
2357.00,0.0005
2356.00,0.0005
2355.00,0.0005
2354.00,0.0005
2353.00,0.0005
2352.00,0.0005
2351.00,0.0005
2350.00,0.0006
2349.00,0.0006
2348.00,0.0006
2347.00,0.0006
2346.00,0.0006
2345.00,0.0007
2344.00,0.0008
2343.00,0.0008
2342.00,0.0009
2341.00,0.0008
2340.00,0.0008
2339.00,0.0008
2338.00,0.0009
2337.00,0.0009
2336.00,0.0008
2335.00,0.0008
2334.00,0.0008
2333.00,0.0008
2332.00,0.0008
2331.00,0.0009
2330.00,0.0009
2329.00,0.0010
2328.00,0.0012
2327.00,0.0015
2326.00,0.0019
2325.00,0.0023
2324.00,0.0024
2323.00,0.0023
2322.00,0.0021
2321.00,0.0019
2320.00,0.0017
2319.00,0.0016
2318.00,0.0015
2317.00,0.0015
2316.00,0.0014
2315.00,0.0013
2314.00,0.0012
2313.00,0.0012
2312.00,0.0012
2311.00,0.0013
2310.00,0.0013
2309.00,0.0013
2308.00,0.0013
2307.00,0.0012
2306.00,0.0012
2305.00,0.0013
2304.00,0.0013
2303.00,0.0013
2302.00,0.0013
2301.00,0.0013
2300.00,0.0013
2299.00,0.0013
2298.00,0.0013
2297.00,0.0014
2296.00,0.0015
2295.00,0.0016
2294.00,0.0016
2293.00,0.0017
2292.00,0.0017
2291.00,0.0017
2290.00,0.0018
2289.00,0.0019
2288.00,0.0020
2287.00,0.0020
2286.00,0.0020
2285.00,0.0020
2284.00,0.0019
2283.00,0.0018
2282.00,0.0018
2281.00,0.0017
2280.00,0.0017
2279.00,0.0016
2278.00,0.0016
2277.00,0.0016
2276.00,0.0016
2275.00,0.0016
2274.00,0.0016
2273.00,0.0017
2272.00,0.0016
2271.00,0.0016
2270.00,0.0015
2269.00,0.0015
2268.00,0.0015
2267.00,0.0014
2266.00,0.0013
2265.00,0.0013
2264.00,0.0014
2263.00,0.0015
2262.00,0.0016
2261.00,0.0015
2260.00,0.0014
2259.00,0.0014
2258.00,0.0014
2257.00,0.0013
2256.00,0.0011
2255.00,0.0009
2254.00,0.0008
2253.00,0.0008
2252.00,0.0009
2251.00,0.0010
2250.00,0.0011
2249.00,0.0011
2248.00,0.0010
2247.00,0.0008
2246.00,0.0008
2245.00,0.0009
2244.00,0.0010
2243.00,0.0010
2242.00,0.0010
2241.00,0.0009
2240.00,0.0009
2239.00,0.0009
2238.00,0.0009
2237.00,0.0010
2236.00,0.0011
2235.00,0.0012
2234.00,0.0012
2233.00,0.0011
2232.00,0.0010
2231.00,0.0009
2230.00,0.0009
2229.00,0.0009
2228.00,0.0010
2227.00,0.0010
2226.00,0.0011
2225.00,0.0011
2224.00,0.0011
2223.00,0.0009
2222.00,0.0008
2221.00,0.0008
2220.00,0.0010
2219.00,0.0011
2218.00,0.0011
2217.00,0.0011
2216.00,0.0011
2215.00,0.0010
2214.00,0.0008
2213.00,0.0008
2212.00,0.0008
2211.00,0.0009
2210.00,0.0009
2209.00,0.0009
2208.00,0.0009
2207.00,0.0008
2206.00,0.0007
2205.00,0.0008
2204.00,0.0010
2203.00,0.0012
2202.00,0.0013
2201.00,0.0012
2200.00,0.0011
2199.00,0.0011
2198.00,0.0012
2197.00,0.0012
2196.00,0.0013
2195.00,0.0014
2194.00,0.0016
2193.00,0.0016
2192.00,0.0014
2191.00,0.0012
2190.00,0.0010
2189.00,0.0010
2188.00,0.0011
2187.00,0.0013
2186.00,0.0014
2185.00,0.0015
2184.00,0.0015
2183.00,0.0013
2182.00,0.0010
2181.00,0.0007
2180.00,0.0006
2179.00,0.0006
2178.00,0.0008
2177.00,0.0009
2176.00,0.0007
2175.00,0.0004
2174.00,0.0001
2173.00,-0.0000
2172.00,0.0001
2171.00,0.0004
2170.00,0.0007
2169.00,0.0011
2168.00,0.0015
2167.00,0.0018
2166.00,0.0019
2165.00,0.0020
2164.00,0.0020
2163.00,0.0020
2162.00,0.0019
2161.00,0.0014
2160.00,0.0003
2159.00,-0.0012
2158.00,-0.0025
2157.00,-0.0030
2156.00,-0.0029
2155.00,-0.0023
2154.00,-0.0017
2153.00,-0.0013
2152.00,-0.0011
2151.00,-0.0011
2150.00,-0.0013
2149.00,-0.0014
2148.00,-0.0014
2147.00,-0.0014
2146.00,-0.0014
2145.00,-0.0013
2144.00,-0.0012
2143.00,-0.0011
2142.00,-0.0011
2141.00,-0.0010
2140.00,-0.0010
2139.00,-0.0010
2138.00,-0.0010
2137.00,-0.0011
2136.00,-0.0013
2135.00,-0.0016
2134.00,-0.0017
2133.00,-0.0017
2132.00,-0.0015
2131.00,-0.0012
2130.00,-0.0010
2129.00,-0.0009
2128.00,-0.0008
2127.00,-0.0007
2126.00,-0.0006
2125.00,-0.0005
2124.00,-0.0004
2123.00,-0.0003
2122.00,-0.0003
2121.00,-0.0002
2120.00,-0.0002
2119.00,-0.0002
2118.00,-0.0002
2117.00,-0.0002
2116.00,-0.0000
2115.00,0.0001
2114.00,0.0002
2113.00,0.0003
2112.00,0.0004
2111.00,0.0004
2110.00,0.0003
2109.00,0.0003
2108.00,0.0003
2107.00,0.0003
2106.00,0.0004
2105.00,0.0005
2104.00,0.0005
2103.00,0.0005
2102.00,0.0004
2101.00,0.0004
2100.00,0.0003
2099.00,0.0002
2098.00,0.0000
2097.00,-0.0002
2096.00,-0.0004
2095.00,-0.0006
2094.00,-0.0006
2093.00,-0.0004
2092.00,-0.0001
2091.00,0.0000
2090.00,0.0001
2089.00,0.0002
2088.00,0.0003
2087.00,0.0004
2086.00,0.0004
2085.00,0.0003
2084.00,0.0002
2083.00,0.0002
2082.00,0.0002
2081.00,0.0002
2080.00,0.0003
2079.00,0.0004
2078.00,0.0005
2077.00,0.0006
2076.00,0.0007
2075.00,0.0006
2074.00,0.0004
2073.00,0.0003
2072.00,0.0002
2071.00,0.0001
2070.00,0.0001
2069.00,0.0002
2068.00,0.0003
2067.00,0.0004
2066.00,0.0003
2065.00,0.0003
2064.00,0.0003
2063.00,0.0003
2062.00,0.0004
2061.00,0.0004
2060.00,0.0003
2059.00,0.0002
2058.00,0.0001
2057.00,0.0002
2056.00,0.0003
2055.00,0.0004
2054.00,0.0006
2053.00,0.0009
2052.00,0.0012
2051.00,0.0014
2050.00,0.0012
2049.00,0.0009
2048.00,0.0006
2047.00,0.0004
2046.00,0.0002
2045.00,0.0000
2044.00,-0.0001
2043.00,-0.0001
2042.00,0.0001
2041.00,0.0002
2040.00,0.0004
2039.00,0.0006
2038.00,0.0007
2037.00,0.0008
2036.00,0.0008
2035.00,0.0005
2034.00,0.0002
2033.00,-0.0001
2032.00,-0.0005
2031.00,-0.0008
2030.00,-0.0011
2029.00,-0.0013
2028.00,-0.0013
2027.00,-0.0012
2026.00,-0.0011
2025.00,-0.0010
2024.00,-0.0009
2023.00,-0.0008
2022.00,-0.0007
2021.00,-0.0008
2020.00,-0.0010
2019.00,-0.0013
2018.00,-0.0015
2017.00,-0.0013
2016.00,-0.0010
2015.00,-0.0007
2014.00,-0.0005
2013.00,-0.0004
2012.00,-0.0003
2011.00,-0.0004
2010.00,-0.0005
2009.00,-0.0007
2008.00,-0.0011
2007.00,-0.0014
2006.00,-0.0017
2005.00,-0.0018
2004.00,-0.0016
2003.00,-0.0012
2002.00,-0.0009
2001.00,-0.0007
2000.00,-0.0007
1999.00,-0.0008
1998.00,-0.0009
1997.00,-0.0009
1996.00,-0.0008
1995.00,-0.0007
1994.00,-0.0005
1993.00,-0.0002
1992.00,0.0001
1991.00,0.0003
1990.00,0.0002
1989.00,0.0001
1988.00,-0.0002
1987.00,-0.0005
1986.00,-0.0007
1985.00,-0.0006
1984.00,-0.0002
1983.00,0.0003
1982.00,0.0008
1981.00,0.0012
1980.00,0.0013
1979.00,0.0009
1978.00,0.0001
1977.00,-0.0006
1976.00,-0.0011
1975.00,-0.0013
1974.00,-0.0014
1973.00,-0.0013
1972.00,-0.0012
1971.00,-0.0013
1970.00,-0.0015
1969.00,-0.0018
1968.00,-0.0019
1967.00,-0.0018
1966.00,-0.0015
1965.00,-0.0013
1964.00,-0.0011
1963.00,-0.0011
1962.00,-0.0012
1961.00,-0.0013
1960.00,-0.0015
1959.00,-0.0017
1958.00,-0.0019
1957.00,-0.0018
1956.00,-0.0018
1955.00,-0.0018
1954.00,-0.0017
1953.00,-0.0017
1952.00,-0.0015
1951.00,-0.0015
1950.00,-0.0014
1949.00,-0.0014
1948.00,-0.0014
1947.00,-0.0014
1946.00,-0.0014
1945.00,-0.0013
1944.00,-0.0012
1943.00,-0.0011
1942.00,-0.0010
1941.00,-0.0009
1940.00,-0.0009
1939.00,-0.0009
1938.00,-0.0009
1937.00,-0.0009
1936.00,-0.0008
1935.00,-0.0007
1934.00,-0.0007
1933.00,-0.0007
1932.00,-0.0007
1931.00,-0.0007
1930.00,-0.0006
1929.00,-0.0006
1928.00,-0.0006
1927.00,-0.0006
1926.00,-0.0006
1925.00,-0.0006
1924.00,-0.0006
1923.00,-0.0006
1922.00,-0.0006
1921.00,-0.0005
1920.00,-0.0004
1919.00,-0.0003
1918.00,-0.0003
1917.00,-0.0002
1916.00,-0.0002
1915.00,-0.0002
1914.00,-0.0002
1913.00,-0.0001
1912.00,-0.0001
1911.00,-0.0000
1910.00,-0.0001
1909.00,-0.0001
1908.00,-0.0002
1907.00,-0.0004
1906.00,-0.0005
1905.00,-0.0005
1904.00,-0.0004
1903.00,-0.0003
1902.00,-0.0002
1901.00,-0.0001
1900.00,-0.0000
1899.00,-0.0000
1898.00,-0.0001
1897.00,-0.0002
1896.00,-0.0002
1895.00,-0.0003
1894.00,-0.0002
1893.00,-0.0002
1892.00,-0.0001
1891.00,-0.0000
1890.00,0.0001
1889.00,0.0002
1888.00,0.0003
1887.00,0.0003
1886.00,0.0002
1885.00,0.0001
1884.00,0.0001
1883.00,0.0001
1882.00,0.0001
1881.00,0.0001
1880.00,0.0000
1879.00,-0.0000
1878.00,-0.0001
1877.00,-0.0000
1876.00,-0.0000
1875.00,-0.0001
1874.00,-0.0001
1873.00,-0.0001
1872.00,-0.0000
1871.00,0.0001
1870.00,0.0002
1869.00,0.0003
1868.00,0.0003
1867.00,0.0002
1866.00,0.0001
1865.00,0.0001
1864.00,0.0000
1863.00,-0.0000
1862.00,-0.0000
1861.00,0.0000
1860.00,0.0001
1859.00,0.0001
1858.00,0.0002
1857.00,0.0002
1856.00,0.0002
1855.00,0.0001
1854.00,0.0001
1853.00,0.0000
1852.00,0.0000
1851.00,0.0001
1850.00,0.0001
1849.00,0.0002
1848.00,0.0002
1847.00,0.0003
1846.00,0.0002
1845.00,0.0002
1844.00,0.0002
1843.00,0.0002
1842.00,0.0002
1841.00,0.0002
1840.00,0.0002
1839.00,0.0002
1838.00,0.0002
1837.00,0.0003
1836.00,0.0003
1835.00,0.0004
1834.00,0.0004
1833.00,0.0004
1832.00,0.0005
1831.00,0.0005
1830.00,0.0005
1829.00,0.0004
1828.00,0.0004
1827.00,0.0004
1826.00,0.0004
1825.00,0.0004
1824.00,0.0004
1823.00,0.0004
1822.00,0.0004
1821.00,0.0004
1820.00,0.0004
1819.00,0.0003
1818.00,0.0002
1817.00,0.0002
1816.00,0.0001
1815.00,0.0000
1814.00,0.0000
1813.00,0.0000
1812.00,0.0001
1811.00,0.0002
1810.00,0.0003
1809.00,0.0003
1808.00,0.0003
1807.00,0.0003
1806.00,0.0004
1805.00,0.0004
1804.00,0.0005
1803.00,0.0005
1802.00,0.0005
1801.00,0.0005
1800.00,0.0006
1799.00,0.0006
1798.00,0.0007
1797.00,0.0007
1796.00,0.0008
1795.00,0.0008
1794.00,0.0007
1793.00,0.0007
1792.00,0.0008
1791.00,0.0008
1790.00,0.0008
1789.00,0.0008
1788.00,0.0008
1787.00,0.0008
1786.00,0.0008
1785.00,0.0008
1784.00,0.0008
1783.00,0.0008
1782.00,0.0008
1781.00,0.0008
1780.00,0.0008
1779.00,0.0008
1778.00,0.0008
1777.00,0.0008
1776.00,0.0008
1775.00,0.0009
1774.00,0.0009
1773.00,0.0010
1772.00,0.0011
1771.00,0.0011
1770.00,0.0011
1769.00,0.0011
1768.00,0.0011
1767.00,0.0010
1766.00,0.0010
1765.00,0.0010
1764.00,0.0010
1763.00,0.0010
1762.00,0.0011
1761.00,0.0011
1760.00,0.0012
1759.00,0.0013
1758.00,0.0014
1757.00,0.0014
1756.00,0.0014
1755.00,0.0014
1754.00,0.0014
1753.00,0.0014
1752.00,0.0015
1751.00,0.0016
1750.00,0.0017
1749.00,0.0019
1748.00,0.0019
1747.00,0.0019
1746.00,0.0018
1745.00,0.0018
1744.00,0.0018
1743.00,0.0019
1742.00,0.0019
1741.00,0.0020
1740.00,0.0021
1739.00,0.0021
1738.00,0.0021
1737.00,0.0021
1736.00,0.0020
1735.00,0.0020
1734.00,0.0020
1733.00,0.0020
1732.00,0.0021
1731.00,0.0021
1730.00,0.0021
1729.00,0.0022
1728.00,0.0022
1727.00,0.0022
1726.00,0.0022
1725.00,0.0023
1724.00,0.0023
1723.00,0.0023
1722.00,0.0024
1721.00,0.0023
1720.00,0.0023
1719.00,0.0022
1718.00,0.0021
1717.00,0.0021
1716.00,0.0021
1715.00,0.0020
1714.00,0.0020
1713.00,0.0020
1712.00,0.0021
1711.00,0.0021
1710.00,0.0021
1709.00,0.0022
1708.00,0.0022
1707.00,0.0023
1706.00,0.0023
1705.00,0.0023
1704.00,0.0023
1703.00,0.0023
1702.00,0.0024
1701.00,0.0024
1700.00,0.0024
1699.00,0.0025
1698.00,0.0025
1697.00,0.0026
1696.00,0.0026
1695.00,0.0025
1694.00,0.0025
1693.00,0.0024
1692.00,0.0024
1691.00,0.0024
1690.00,0.0025
1689.00,0.0025
1688.00,0.0025
1687.00,0.0025
1686.00,0.0025
1685.00,0.0025
1684.00,0.0026
1683.00,0.0026
1682.00,0.0026
1681.00,0.0027
1680.00,0.0027
1679.00,0.0027
1678.00,0.0027
1677.00,0.0027
1676.00,0.0027
1675.00,0.0027
1674.00,0.0028
1673.00,0.0028
1672.00,0.0028
1671.00,0.0028
1670.00,0.0027
1669.00,0.0027
1668.00,0.0028
1667.00,0.0028
1666.00,0.0029
1665.00,0.0029
1664.00,0.0030
1663.00,0.0030
1662.00,0.0031
1661.00,0.0031
1660.00,0.0032
1659.00,0.0032
1658.00,0.0032
1657.00,0.0032
1656.00,0.0032
1655.00,0.0032
1654.00,0.0032
1653.00,0.0032
1652.00,0.0033
1651.00,0.0033
1650.00,0.0033
1649.00,0.0034
1648.00,0.0035
1647.00,0.0036
1646.00,0.0036
1645.00,0.0036
1644.00,0.0036
1643.00,0.0036
1642.00,0.0037
1641.00,0.0038
1640.00,0.0038
1639.00,0.0039
1638.00,0.0039
1637.00,0.0040
1636.00,0.0040
1635.00,0.0039
1634.00,0.0039
1633.00,0.0039
1632.00,0.0038
1631.00,0.0038
1630.00,0.0038
1629.00,0.0037
1628.00,0.0037
1627.00,0.0036
1626.00,0.0036
1625.00,0.0036
1624.00,0.0036
1623.00,0.0035
1622.00,0.0035
1621.00,0.0035
1620.00,0.0035
1619.00,0.0035
1618.00,0.0034
1617.00,0.0034
1616.00,0.0034
1615.00,0.0034
1614.00,0.0035
1613.00,0.0035
1612.00,0.0035
1611.00,0.0035
1610.00,0.0034
1609.00,0.0034
1608.00,0.0034
1607.00,0.0034
1606.00,0.0033
1605.00,0.0033
1604.00,0.0033
1603.00,0.0033
1602.00,0.0033
1601.00,0.0033
1600.00,0.0032
1599.00,0.0032
1598.00,0.0032
1597.00,0.0033
1596.00,0.0033
1595.00,0.0033
1594.00,0.0033
1593.00,0.0033
1592.00,0.0033
1591.00,0.0033
1590.00,0.0032
1589.00,0.0033
1588.00,0.0033
1587.00,0.0033
1586.00,0.0033
1585.00,0.0033
1584.00,0.0034
1583.00,0.0034
1582.00,0.0034
1581.00,0.0034
1580.00,0.0034
1579.00,0.0035
1578.00,0.0035
1577.00,0.0035
1576.00,0.0035
1575.00,0.0036
1574.00,0.0036
1573.00,0.0037
1572.00,0.0037
1571.00,0.0037
1570.00,0.0036
1569.00,0.0036
1568.00,0.0037
1567.00,0.0037
1566.00,0.0037
1565.00,0.0037
1564.00,0.0038
1563.00,0.0038
1562.00,0.0038
1561.00,0.0038
1560.00,0.0039
1559.00,0.0040
1558.00,0.0040
1557.00,0.0040
1556.00,0.0041
1555.00,0.0042
1554.00,0.0041
1553.00,0.0041
1552.00,0.0041
1551.00,0.0041
1550.00,0.0041
1549.00,0.0041
1548.00,0.0042
1547.00,0.0042
1546.00,0.0042
1545.00,0.0043
1544.00,0.0043
1543.00,0.0043
1542.00,0.0043
1541.00,0.0044
1540.00,0.0045
1539.00,0.0044
1538.00,0.0043
1537.00,0.0043
1536.00,0.0043
1535.00,0.0042
1534.00,0.0042
1533.00,0.0042
1532.00,0.0042
1531.00,0.0042
1530.00,0.0042
1529.00,0.0043
1528.00,0.0043
1527.00,0.0043
1526.00,0.0043
1525.00,0.0043
1524.00,0.0043
1523.00,0.0044
1522.00,0.0045
1521.00,0.0045
1520.00,0.0046
1519.00,0.0047
1518.00,0.0047
1517.00,0.0048
1516.00,0.0049
1515.00,0.0049
1514.00,0.0049
1513.00,0.0050
1512.00,0.0051
1511.00,0.0052
1510.00,0.0053
1509.00,0.0054
1508.00,0.0056
1507.00,0.0056
1506.00,0.0056
1505.00,0.0058
1504.00,0.0060
1503.00,0.0061
1502.00,0.0063
1501.00,0.0065
1500.00,0.0068
1499.00,0.0070
1498.00,0.0072
1497.00,0.0075
1496.00,0.0079
1495.00,0.0081
1494.00,0.0084
1493.00,0.0087
1492.00,0.0090
1491.00,0.0093
1490.00,0.0097
1489.00,0.0102
1488.00,0.0107
1487.00,0.0112
1486.00,0.0117
1485.00,0.0123
1484.00,0.0130
1483.00,0.0136
1482.00,0.0144
1481.00,0.0155
1480.00,0.0167
1479.00,0.0179
1478.00,0.0194
1477.00,0.0216
1476.00,0.0243
1475.00,0.0275
1474.00,0.0317
1473.00,0.0377
1472.00,0.0448
1471.00,0.0515
1470.00,0.0580
1469.00,0.0649
1468.00,0.0724
1467.00,0.0807
1466.00,0.0902
1465.00,0.1006
1464.00,0.1096
1463.00,0.1157
1462.00,0.1194
1461.00,0.1217
1460.00,0.1231
1459.00,0.1237
1458.00,0.1239
1457.00,0.1236
1456.00,0.1227
1455.00,0.1213
1454.00,0.1195
1453.00,0.1172
1452.00,0.1139
1451.00,0.1095
1450.00,0.1037
1449.00,0.0961
1448.00,0.0867
1447.00,0.0770
1446.00,0.0685
1445.00,0.0614
1444.00,0.0553
1443.00,0.0505
1442.00,0.0468
1441.00,0.0444
1440.00,0.0431
1439.00,0.0427
1438.00,0.0432
1437.00,0.0438
1436.00,0.0431
1435.00,0.0408
1434.00,0.0372
1433.00,0.0328
1432.00,0.0281
1431.00,0.0238
1430.00,0.0205
1429.00,0.0181
1428.00,0.0164
1427.00,0.0154
1426.00,0.0148
1425.00,0.0141
1424.00,0.0134
1423.00,0.0130
1422.00,0.0128
1421.00,0.0126
1420.00,0.0123
1419.00,0.0121
1418.00,0.0119
1417.00,0.0117
1416.00,0.0115
1415.00,0.0114
1414.00,0.0114
1413.00,0.0113
1412.00,0.0111
1411.00,0.0111
1410.00,0.0112
1409.00,0.0111
1408.00,0.0110
1407.00,0.0111
1406.00,0.0112
1405.00,0.0113
1404.00,0.0113
1403.00,0.0115
1402.00,0.0118
1401.00,0.0119
1400.00,0.0121
1399.00,0.0124
1398.00,0.0127
1397.00,0.0131
1396.00,0.0134
1395.00,0.0138
1394.00,0.0144
1393.00,0.0150
1392.00,0.0155
1391.00,0.0163
1390.00,0.0174
1389.00,0.0188
1388.00,0.0209
1387.00,0.0241
1386.00,0.0285
1385.00,0.0342
1384.00,0.0422
1383.00,0.0537
1382.00,0.0696
1381.00,0.0906
1380.00,0.1171
1379.00,0.1477
1378.00,0.1776
1377.00,0.1998
1376.00,0.2076
1375.00,0.1970
1374.00,0.1714
1373.00,0.1405
1372.00,0.1125
1371.00,0.0897
1370.00,0.0715
1369.00,0.0578
1368.00,0.0484
1367.00,0.0427
1366.00,0.0396
1365.00,0.0383
1364.00,0.0386
1363.00,0.0401
1362.00,0.0424
1361.00,0.0449
1360.00,0.0468
1359.00,0.0474
1358.00,0.0463
1357.00,0.0435
1356.00,0.0396
1355.00,0.0351
1354.00,0.0309
1353.00,0.0272
1352.00,0.0242
1351.00,0.0219
1350.00,0.0200
1349.00,0.0184
1348.00,0.0172
1347.00,0.0161
1346.00,0.0152
1345.00,0.0144
1344.00,0.0137
1343.00,0.0132
1342.00,0.0128
1341.00,0.0124
1340.00,0.0121
1339.00,0.0119
1338.00,0.0117
1337.00,0.0117
1336.00,0.0118
1335.00,0.0121
1334.00,0.0125
1333.00,0.0129
1332.00,0.0134
1331.00,0.0138
1330.00,0.0139
1329.00,0.0138
1328.00,0.0134
1327.00,0.0128
1326.00,0.0121
1325.00,0.0113
1324.00,0.0107
1323.00,0.0101
1322.00,0.0096
1321.00,0.0093
1320.00,0.0091
1319.00,0.0089
1318.00,0.0088
1317.00,0.0087
1316.00,0.0085
1315.00,0.0085
1314.00,0.0085
1313.00,0.0085
1312.00,0.0086
1311.00,0.0088
1310.00,0.0090
1309.00,0.0095
1308.00,0.0101
1307.00,0.0109
1306.00,0.0117
1305.00,0.0122
1304.00,0.0124
1303.00,0.0124
1302.00,0.0122
1301.00,0.0121
1300.00,0.0122
1299.00,0.0124
1298.00,0.0126
1297.00,0.0128
1296.00,0.0128
1295.00,0.0126
1294.00,0.0122
1293.00,0.0117
1292.00,0.0111
1291.00,0.0105
1290.00,0.0101
1289.00,0.0097
1288.00,0.0094
1287.00,0.0091
1286.00,0.0089
1285.00,0.0087
1284.00,0.0085
1283.00,0.0084
1282.00,0.0083
1281.00,0.0082
1280.00,0.0081
1279.00,0.0081
1278.00,0.0081
1277.00,0.0081
1276.00,0.0081
1275.00,0.0081
1274.00,0.0081
1273.00,0.0082
1272.00,0.0082
1271.00,0.0084
1270.00,0.0085
1269.00,0.0087
1268.00,0.0089
1267.00,0.0091
1266.00,0.0093
1265.00,0.0096
1264.00,0.0099
1263.00,0.0102
1262.00,0.0104
1261.00,0.0107
1260.00,0.0110
1259.00,0.0115
1258.00,0.0120
1257.00,0.0124
1256.00,0.0126
1255.00,0.0124
1254.00,0.0120
1253.00,0.0114
1252.00,0.0108
1251.00,0.0103
1250.00,0.0099
1249.00,0.0095
1248.00,0.0092
1247.00,0.0090
1246.00,0.0088
1245.00,0.0086
1244.00,0.0084
1243.00,0.0083
1242.00,0.0083
1241.00,0.0082
1240.00,0.0081
1239.00,0.0081
1238.00,0.0080
1237.00,0.0080
1236.00,0.0079
1235.00,0.0079
1234.00,0.0079
1233.00,0.0079
1232.00,0.0080
1231.00,0.0080
1230.00,0.0080
1229.00,0.0080
1228.00,0.0080
1227.00,0.0081
1226.00,0.0083
1225.00,0.0086
1224.00,0.0089
1223.00,0.0094
1222.00,0.0098
1221.00,0.0101
1220.00,0.0103
1219.00,0.0103
1218.00,0.0101
1217.00,0.0098
1216.00,0.0094
1215.00,0.0091
1214.00,0.0087
1213.00,0.0084
1212.00,0.0081
1211.00,0.0079
1210.00,0.0077
1209.00,0.0076
1208.00,0.0074
1207.00,0.0073
1206.00,0.0072
1205.00,0.0071
1204.00,0.0071
1203.00,0.0070
1202.00,0.0070
1201.00,0.0070
1200.00,0.0070
1199.00,0.0070
1198.00,0.0070
1197.00,0.0070
1196.00,0.0070
1195.00,0.0071
1194.00,0.0071
1193.00,0.0071
1192.00,0.0070
1191.00,0.0070
1190.00,0.0071
1189.00,0.0071
1188.00,0.0072
1187.00,0.0072
1186.00,0.0073
1185.00,0.0074
1184.00,0.0076
1183.00,0.0078
1182.00,0.0080
1181.00,0.0082
1180.00,0.0085
1179.00,0.0089
1178.00,0.0094
1177.00,0.0101
1176.00,0.0110
1175.00,0.0122
1174.00,0.0137
1173.00,0.0155
1172.00,0.0177
1171.00,0.0200
1170.00,0.0223
1169.00,0.0241
1168.00,0.0252
1167.00,0.0255
1166.00,0.0251
1165.00,0.0242
1164.00,0.0232
1163.00,0.0222
1162.00,0.0214
1161.00,0.0208
1160.00,0.0204
1159.00,0.0201
1158.00,0.0199
1157.00,0.0198
1156.00,0.0196
1155.00,0.0196
1154.00,0.0195
1153.00,0.0194
1152.00,0.0191
1151.00,0.0185
1150.00,0.0177
1149.00,0.0168
1148.00,0.0159
1147.00,0.0149
1146.00,0.0141
1145.00,0.0132
1144.00,0.0124
1143.00,0.0117
1142.00,0.0111
1141.00,0.0106
1140.00,0.0101
1139.00,0.0097
1138.00,0.0093
1137.00,0.0090
1136.00,0.0088
1135.00,0.0086
1134.00,0.0084
1133.00,0.0082
1132.00,0.0081
1131.00,0.0081
1130.00,0.0081
1129.00,0.0081
1128.00,0.0081
1127.00,0.0081
1126.00,0.0081
1125.00,0.0080
1124.00,0.0080
1123.00,0.0080
1122.00,0.0080
1121.00,0.0081
1120.00,0.0081
1119.00,0.0081
1118.00,0.0082
1117.00,0.0082
1116.00,0.0083
1115.00,0.0084
1114.00,0.0085
1113.00,0.0086
1112.00,0.0089
1111.00,0.0092
1110.00,0.0095
1109.00,0.0099
1108.00,0.0103
1107.00,0.0110
1106.00,0.0117
1105.00,0.0124
1104.00,0.0130
1103.00,0.0134
1102.00,0.0134
1101.00,0.0131
1100.00,0.0126
1099.00,0.0119
1098.00,0.0112
1097.00,0.0107
1096.00,0.0103
1095.00,0.0100
1094.00,0.0097
1093.00,0.0095
1092.00,0.0093
1091.00,0.0091
1090.00,0.0089
1089.00,0.0088
1088.00,0.0088
1087.00,0.0088
1086.00,0.0089
1085.00,0.0090
1084.00,0.0091
1083.00,0.0091
1082.00,0.0089
1081.00,0.0088
1080.00,0.0086
1079.00,0.0085
1078.00,0.0085
1077.00,0.0084
1076.00,0.0083
1075.00,0.0083
1074.00,0.0083
1073.00,0.0083
1072.00,0.0084
1071.00,0.0084
1070.00,0.0084
1069.00,0.0083
1068.00,0.0082
1067.00,0.0082
1066.00,0.0081
1065.00,0.0082
1064.00,0.0082
1063.00,0.0082
1062.00,0.0082
1061.00,0.0083
1060.00,0.0084
1059.00,0.0084
1058.00,0.0084
1057.00,0.0084
1056.00,0.0085
1055.00,0.0087
1054.00,0.0089
1053.00,0.0092
1052.00,0.0094
1051.00,0.0097
1050.00,0.0100
1049.00,0.0104
1048.00,0.0108
1047.00,0.0111
1046.00,0.0115
1045.00,0.0117
1044.00,0.0118
1043.00,0.0118
1042.00,0.0117
1041.00,0.0115
1040.00,0.0113
1039.00,0.0111
1038.00,0.0110
1037.00,0.0110
1036.00,0.0109
1035.00,0.0108
1034.00,0.0107
1033.00,0.0106
1032.00,0.0105
1031.00,0.0104
1030.00,0.0105
1029.00,0.0105
1028.00,0.0106
1027.00,0.0107
1026.00,0.0108
1025.00,0.0110
1024.00,0.0112
1023.00,0.0115
1022.00,0.0118
1021.00,0.0120
1020.00,0.0121
1019.00,0.0122
1018.00,0.0122
1017.00,0.0123
1016.00,0.0123
1015.00,0.0123
1014.00,0.0122
1013.00,0.0121
1012.00,0.0120
1011.00,0.0120
1010.00,0.0120
1009.00,0.0121
1008.00,0.0123
1007.00,0.0126
1006.00,0.0131
1005.00,0.0138
1004.00,0.0148
1003.00,0.0163
1002.00,0.0184
1001.00,0.0209
1000.00,0.0236
999.00,0.0257
998.00,0.0266
997.00,0.0259
996.00,0.0239
995.00,0.0212
994.00,0.0184
993.00,0.0159
992.00,0.0140
991.00,0.0126
990.00,0.0116
989.00,0.0109
988.00,0.0106
987.00,0.0104
986.00,0.0105
985.00,0.0107
984.00,0.0111
983.00,0.0117
982.00,0.0126
981.00,0.0140
980.00,0.0159
979.00,0.0184
978.00,0.0214
977.00,0.0248
976.00,0.0282
975.00,0.0314
974.00,0.0335
973.00,0.0340
972.00,0.0326
971.00,0.0297
970.00,0.0261
969.00,0.0225
968.00,0.0194
967.00,0.0170
966.00,0.0153
965.00,0.0140
964.00,0.0131
963.00,0.0123
962.00,0.0117
961.00,0.0112
960.00,0.0108
959.00,0.0106
958.00,0.0104
957.00,0.0102
956.00,0.0101
955.00,0.0099
954.00,0.0098
953.00,0.0097
952.00,0.0096
951.00,0.0095
950.00,0.0093
949.00,0.0092
948.00,0.0092
947.00,0.0093
946.00,0.0094
945.00,0.0097
944.00,0.0101
943.00,0.0106
942.00,0.0111
941.00,0.0113
940.00,0.0112
939.00,0.0108
938.00,0.0101
937.00,0.0094
936.00,0.0087
935.00,0.0082
934.00,0.0078
933.00,0.0075
932.00,0.0072
931.00,0.0070
930.00,0.0069
929.00,0.0067
928.00,0.0066
927.00,0.0065
926.00,0.0065
925.00,0.0064
924.00,0.0065
923.00,0.0065
922.00,0.0065
921.00,0.0064
920.00,0.0062
919.00,0.0061
918.00,0.0060
917.00,0.0061
916.00,0.0062
915.00,0.0063
914.00,0.0065
913.00,0.0067
912.00,0.0069
911.00,0.0071
910.00,0.0072
909.00,0.0074
908.00,0.0078
907.00,0.0084
906.00,0.0092
905.00,0.0104
904.00,0.0120
903.00,0.0139
902.00,0.0160
901.00,0.0180
900.00,0.0193
899.00,0.0195
898.00,0.0186
897.00,0.0167
896.00,0.0145
895.00,0.0123
894.00,0.0107
893.00,0.0095
892.00,0.0088
891.00,0.0083
890.00,0.0080
889.00,0.0076
888.00,0.0073
887.00,0.0071
886.00,0.0070
885.00,0.0070
884.00,0.0069
883.00,0.0069
882.00,0.0070
881.00,0.0070
880.00,0.0071
879.00,0.0071
878.00,0.0072
877.00,0.0072
876.00,0.0073
875.00,0.0073
874.00,0.0074
873.00,0.0075
872.00,0.0075
871.00,0.0076
870.00,0.0076
869.00,0.0075
868.00,0.0074
867.00,0.0074
866.00,0.0074
865.00,0.0075
864.00,0.0076
863.00,0.0077
862.00,0.0077
861.00,0.0077
860.00,0.0078
859.00,0.0080
858.00,0.0082
857.00,0.0083
856.00,0.0085
855.00,0.0086
854.00,0.0087
853.00,0.0087
852.00,0.0089
851.00,0.0092
850.00,0.0096
849.00,0.0101
848.00,0.0107
847.00,0.0116
846.00,0.0130
845.00,0.0151
844.00,0.0181
843.00,0.0215
842.00,0.0242
841.00,0.0249
840.00,0.0233
839.00,0.0200
838.00,0.0166
837.00,0.0140
836.00,0.0124
835.00,0.0114
834.00,0.0108
833.00,0.0103
832.00,0.0099
831.00,0.0097
830.00,0.0096
829.00,0.0095
828.00,0.0095
827.00,0.0095
826.00,0.0095
825.00,0.0095
824.00,0.0096
823.00,0.0097
822.00,0.0099
821.00,0.0102
820.00,0.0105
819.00,0.0109
818.00,0.0114
817.00,0.0120
816.00,0.0129
815.00,0.0141
814.00,0.0158
813.00,0.0180
812.00,0.0204
811.00,0.0227
810.00,0.0243
809.00,0.0249
808.00,0.0243
807.00,0.0228
806.00,0.0206
805.00,0.0184
804.00,0.0164
803.00,0.0147
802.00,0.0135
801.00,0.0126
800.00,0.0121
799.00,0.0116
798.00,0.0111
797.00,0.0107
796.00,0.0102
795.00,0.0098
794.00,0.0095
793.00,0.0092
792.00,0.0089
791.00,0.0087
790.00,0.0084
789.00,0.0081
788.00,0.0077
787.00,0.0075
786.00,0.0073
785.00,0.0071
784.00,0.0070
783.00,0.0069
782.00,0.0067
781.00,0.0065
780.00,0.0064
779.00,0.0063
778.00,0.0064
777.00,0.0063
776.00,0.0062
775.00,0.0061
774.00,0.0061
773.00,0.0062
772.00,0.0065
771.00,0.0067
770.00,0.0068
769.00,0.0069
768.00,0.0068
767.00,0.0066
766.00,0.0065
765.00,0.0063
764.00,0.0061
763.00,0.0061
762.00,0.0060
761.00,0.0061
760.00,0.0061
759.00,0.0062
758.00,0.0063
757.00,0.0065
756.00,0.0067
755.00,0.0068
754.00,0.0069
753.00,0.0070
752.00,0.0071
751.00,0.0072
750.00,0.0074
749.00,0.0076
748.00,0.0079
747.00,0.0081
746.00,0.0082
745.00,0.0083
744.00,0.0084
743.00,0.0086
742.00,0.0088
741.00,0.0090
740.00,0.0094
739.00,0.0098
738.00,0.0103
737.00,0.0107
736.00,0.0111
735.00,0.0115
734.00,0.0119
733.00,0.0124
732.00,0.0130
731.00,0.0137
730.00,0.0143
729.00,0.0147
728.00,0.0149
727.00,0.0151
726.00,0.0152
725.00,0.0155
724.00,0.0159
723.00,0.0164
722.00,0.0170
721.00,0.0175
720.00,0.0174
719.00,0.0166
718.00,0.0154
717.00,0.0140
716.00,0.0128
715.00,0.0120
714.00,0.0115
713.00,0.0111
712.00,0.0107
711.00,0.0103
710.00,0.0100
709.00,0.0099
708.00,0.0098
707.00,0.0098
706.00,0.0097
705.00,0.0096
704.00,0.0095
703.00,0.0093
702.00,0.0092
701.00,0.0091
700.00,0.0091
699.00,0.0091
698.00,0.0091
697.00,0.0090
696.00,0.0090
695.00,0.0091
694.00,0.0091
693.00,0.0091
692.00,0.0089
691.00,0.0088
690.00,0.0087
689.00,0.0087
688.00,0.0088
687.00,0.0089
686.00,0.0087
685.00,0.0085
684.00,0.0084
683.00,0.0085
682.00,0.0088
681.00,0.0091
680.00,0.0092
679.00,0.0092
678.00,0.0091
677.00,0.0090
676.00,0.0089
675.00,0.0090
674.00,0.0091
673.00,0.0093
672.00,0.0095
671.00,0.0096
670.00,0.0097
669.00,0.0097
668.00,0.0095
667.00,0.0093
666.00,0.0090
665.00,0.0088
664.00,0.0086
663.00,0.0086
662.00,0.0085
661.00,0.0083
660.00,0.0082
659.00,0.0081
658.00,0.0081
657.00,0.0083
656.00,0.0085
655.00,0.0086
654.00,0.0085
653.00,0.0083
652.00,0.0080
651.00,0.0077
650.00,0.0076
649.00,0.0077
648.00,0.0078
647.00,0.0079
646.00,0.0079
645.00,0.0078
644.00,0.0077
643.00,0.0077
642.00,0.0078
641.00,0.0079
640.00,0.0079
639.00,0.0080
638.00,0.0080
637.00,0.0079
636.00,0.0078
635.00,0.0077
634.00,0.0077
633.00,0.0079
632.00,0.0081
631.00,0.0081
630.00,0.0080
629.00,0.0077
628.00,0.0075
627.00,0.0075
626.00,0.0075
625.00,0.0075
624.00,0.0076
623.00,0.0077
622.00,0.0079
621.00,0.0081
620.00,0.0082
619.00,0.0081
618.00,0.0079
617.00,0.0077
616.00,0.0075
615.00,0.0075
614.00,0.0075
613.00,0.0075
612.00,0.0076
611.00,0.0076
610.00,0.0077
609.00,0.0077
608.00,0.0076
607.00,0.0075
606.00,0.0074
605.00,0.0074
604.00,0.0076
603.00,0.0079
602.00,0.0080
601.00,0.0078
600.00,0.0074
599.00,0.0072
598.00,0.0072
597.00,0.0073
596.00,0.0075
595.00,0.0076
594.00,0.0077
593.00,0.0078
592.00,0.0078
591.00,0.0078
590.00,0.0076
589.00,0.0073
588.00,0.0071
587.00,0.0071
586.00,0.0072
585.00,0.0074
584.00,0.0075
583.00,0.0076
582.00,0.0077
581.00,0.0079
580.00,0.0079
579.00,0.0079
578.00,0.0078
577.00,0.0078
576.00,0.0078
575.00,0.0078
574.00,0.0079
573.00,0.0079
572.00,0.0078
571.00,0.0078
570.00,0.0080
569.00,0.0082
568.00,0.0083
567.00,0.0081
566.00,0.0077
565.00,0.0073
564.00,0.0073
563.00,0.0076
562.00,0.0080
561.00,0.0084
560.00,0.0085
559.00,0.0084
558.00,0.0083
557.00,0.0083
556.00,0.0084
555.00,0.0086
554.00,0.0086
553.00,0.0084
552.00,0.0081
551.00,0.0080
550.00,0.0079
549.00,0.0080
548.00,0.0082
547.00,0.0085
546.00,0.0088
545.00,0.0093
544.00,0.0097
543.00,0.0100
542.00,0.0101
541.00,0.0100
540.00,0.0099
539.00,0.0099
538.00,0.0101
537.00,0.0104
536.00,0.0106
535.00,0.0108
534.00,0.0108
533.00,0.0109
532.00,0.0111
531.00,0.0115
530.00,0.0119
529.00,0.0121
528.00,0.0121
527.00,0.0117
526.00,0.0113
525.00,0.0111
524.00,0.0111
523.00,0.0111
522.00,0.0108
521.00,0.0101
520.00,0.0092
519.00,0.0086
518.00,0.0084
517.00,0.0083
516.00,0.0081
515.00,0.0078
514.00,0.0075
513.00,0.0075
512.00,0.0076
511.00,0.0079
510.00,0.0081
509.00,0.0084
508.00,0.0086
507.00,0.0087
506.00,0.0088
505.00,0.0088
504.00,0.0089
503.00,0.0090
502.00,0.0089
501.00,0.0085
500.00,0.0079
499.00,0.0075
498.00,0.0071
497.00,0.0069
496.00,0.0067
495.00,0.0065
494.00,0.0065
493.00,0.0068
492.00,0.0075
491.00,0.0086
490.00,0.0097
489.00,0.0102
488.00,0.0099
487.00,0.0092
486.00,0.0087
485.00,0.0087
484.00,0.0091
483.00,0.0092
482.00,0.0092
481.00,0.0091
480.00,0.0088
479.00,0.0082
478.00,0.0075
477.00,0.0070
476.00,0.0072
475.00,0.0082
474.00,0.0096
473.00,0.0110
472.00,0.0120
471.00,0.0127
470.00,0.0135
469.00,0.0142
468.00,0.0148
467.00,0.0152
466.00,0.0158
465.00,0.0169
464.00,0.0184
463.00,0.0197
462.00,0.0202
461.00,0.0202
460.00,0.0201
459.00,0.0203
458.00,0.0204
457.00,0.0203
456.00,0.0196
455.00,0.0186
454.00,0.0173
453.00,0.0158
452.00,0.0147
451.00,0.0144
450.00,0.0145
