Created as New Dataset,Sample 230 By Administrator Date Wednesday, September 03 2025
cm-1,A
4000.00,0.0011
3999.00,0.0011
3998.00,0.0011
3997.00,0.0011
3996.00,0.0011
3995.00,0.0011
3994.00,0.0011
3993.00,0.0011
3992.00,0.0011
3991.00,0.0011
3990.00,0.0011
3989.00,0.0010
3988.00,0.0010
3987.00,0.0010
3986.00,0.0010
3985.00,0.0010
3984.00,0.0010
3983.00,0.0010
3982.00,0.0010
3981.00,0.0010
3980.00,0.0010
3979.00,0.0010
3978.00,0.0010
3977.00,0.0010
3976.00,0.0009
3975.00,0.0009
3974.00,0.0009
3973.00,0.0009
3972.00,0.0009
3971.00,0.0009
3970.00,0.0009
3969.00,0.0009
3968.00,0.0009
3967.00,0.0009
3966.00,0.0009
3965.00,0.0009
3964.00,0.0010
3963.00,0.0010
3962.00,0.0010
3961.00,0.0010
3960.00,0.0010
3959.00,0.0009
3958.00,0.0009
3957.00,0.0009
3956.00,0.0009
3955.00,0.0009
3954.00,0.0008
3953.00,0.0008
3952.00,0.0008
3951.00,0.0008
3950.00,0.0009
3949.00,0.0009
3948.00,0.0009
3947.00,0.0009
3946.00,0.0009
3945.00,0.0009
3944.00,0.0008
3943.00,0.0008
3942.00,0.0008
3941.00,0.0008
3940.00,0.0008
3939.00,0.0009
3938.00,0.0009
3937.00,0.0010
3936.00,0.0010
3935.00,0.0011
3934.00,0.0011
3933.00,0.0011
3932.00,0.0010
3931.00,0.0010
3930.00,0.0011
3929.00,0.0011
3928.00,0.0011
3927.00,0.0011
3926.00,0.0010
3925.00,0.0010
3924.00,0.0010
3923.00,0.0010
3922.00,0.0010
3921.00,0.0010
3920.00,0.0010
3919.00,0.0010
3918.00,0.0010
3917.00,0.0010
3916.00,0.0010
3915.00,0.0010
3914.00,0.0010
3913.00,0.0010
3912.00,0.0010
3911.00,0.0010
3910.00,0.0010
3909.00,0.0010
3908.00,0.0010
3907.00,0.0010
3906.00,0.0010
3905.00,0.0011
3904.00,0.0011
3903.00,0.0012
3902.00,0.0012
3901.00,0.0012
3900.00,0.0012
3899.00,0.0011
3898.00,0.0011
3897.00,0.0011
3896.00,0.0011
3895.00,0.0011
3894.00,0.0010
3893.00,0.0010
3892.00,0.0010
3891.00,0.0010
3890.00,0.0010
3889.00,0.0010
3888.00,0.0010
3887.00,0.0010
3886.00,0.0011
3885.00,0.0011
3884.00,0.0011
3883.00,0.0011
3882.00,0.0011
3881.00,0.0010
3880.00,0.0010
3879.00,0.0011
3878.00,0.0011
3877.00,0.0011
3876.00,0.0011
3875.00,0.0010
3874.00,0.0011
3873.00,0.0011
3872.00,0.0012
3871.00,0.0012
3870.00,0.0012
3869.00,0.0012
3868.00,0.0011
3867.00,0.0011
3866.00,0.0011
3865.00,0.0011
3864.00,0.0011
3863.00,0.0011
3862.00,0.0011
3861.00,0.0011
3860.00,0.0011
3859.00,0.0011
3858.00,0.0011
3857.00,0.0010
3856.00,0.0010
3855.00,0.0010
3854.00,0.0011
3853.00,0.0011
3852.00,0.0011
3851.00,0.0011
3850.00,0.0011
3849.00,0.0011
3848.00,0.0011
3847.00,0.0010
3846.00,0.0010
3845.00,0.0010
3844.00,0.0010
3843.00,0.0010
3842.00,0.0011
3841.00,0.0012
3840.00,0.0012
3839.00,0.0012
3838.00,0.0012
3837.00,0.0012
3836.00,0.0012
3835.00,0.0011
3834.00,0.0011
3833.00,0.0011
3832.00,0.0011
3831.00,0.0010
3830.00,0.0010
3829.00,0.0010
3828.00,0.0010
3827.00,0.0010
3826.00,0.0011
3825.00,0.0012
3824.00,0.0012
3823.00,0.0012
3822.00,0.0012
3821.00,0.0011
3820.00,0.0012
3819.00,0.0012
3818.00,0.0012
3817.00,0.0011
3816.00,0.0010
3815.00,0.0010
3814.00,0.0010
3813.00,0.0010
3812.00,0.0010
3811.00,0.0010
3810.00,0.0010
3809.00,0.0011
3808.00,0.0011
3807.00,0.0011
3806.00,0.0011
3805.00,0.0011
3804.00,0.0010
3803.00,0.0010
3802.00,0.0009
3801.00,0.0009
3800.00,0.0010
3799.00,0.0010
3798.00,0.0009
3797.00,0.0009
3796.00,0.0009
3795.00,0.0009
3794.00,0.0009
3793.00,0.0009
3792.00,0.0008
3791.00,0.0008
3790.00,0.0009
3789.00,0.0009
3788.00,0.0009
3787.00,0.0009
3786.00,0.0009
3785.00,0.0009
3784.00,0.0009
3783.00,0.0009
3782.00,0.0009
3781.00,0.0009
3780.00,0.0009
3779.00,0.0009
3778.00,0.0009
3777.00,0.0009
3776.00,0.0009
3775.00,0.0009
3774.00,0.0009
3773.00,0.0010
3772.00,0.0010
3771.00,0.0010
3770.00,0.0010
3769.00,0.0010
3768.00,0.0010
3767.00,0.0010
3766.00,0.0010
3765.00,0.0011
3764.00,0.0011
3763.00,0.0010
3762.00,0.0010
3761.00,0.0010
3760.00,0.0010
3759.00,0.0010
3758.00,0.0011
3757.00,0.0012
3756.00,0.0012
3755.00,0.0012
3754.00,0.0013
3753.00,0.0013
3752.00,0.0014
3751.00,0.0015
3750.00,0.0015
3749.00,0.0015
3748.00,0.0015
3747.00,0.0014
3746.00,0.0013
3745.00,0.0012
3744.00,0.0012
3743.00,0.0012
3742.00,0.0012
3741.00,0.0013
3740.00,0.0013
3739.00,0.0013
3738.00,0.0013
3737.00,0.0013
3736.00,0.0013
3735.00,0.0013
3734.00,0.0012
3733.00,0.0012
3732.00,0.0012
3731.00,0.0011
3730.00,0.0011
3729.00,0.0011
3728.00,0.0011
3727.00,0.0011
3726.00,0.0011
3725.00,0.0010
3724.00,0.0010
3723.00,0.0009
3722.00,0.0009
3721.00,0.0008
3720.00,0.0008
3719.00,0.0008
3718.00,0.0008
3717.00,0.0009
3716.00,0.0009
3715.00,0.0010
3714.00,0.0011
3713.00,0.0011
3712.00,0.0011
3711.00,0.0011
3710.00,0.0010
3709.00,0.0010
3708.00,0.0009
3707.00,0.0009
3706.00,0.0009
3705.00,0.0009
3704.00,0.0008
3703.00,0.0008
3702.00,0.0008
3701.00,0.0008
3700.00,0.0008
3699.00,0.0009
3698.00,0.0009
3697.00,0.0009
3696.00,0.0009
3695.00,0.0010
3694.00,0.0010
3693.00,0.0010
3692.00,0.0010
3691.00,0.0010
3690.00,0.0010
3689.00,0.0010
3688.00,0.0010
3687.00,0.0010
3686.00,0.0009
3685.00,0.0009
3684.00,0.0009
3683.00,0.0009
3682.00,0.0010
3681.00,0.0010
3680.00,0.0010
3679.00,0.0011
3678.00,0.0012
3677.00,0.0012
3676.00,0.0012
3675.00,0.0011
3674.00,0.0011
3673.00,0.0011
3672.00,0.0011
3671.00,0.0010
3670.00,0.0010
3669.00,0.0009
3668.00,0.0009
3667.00,0.0009
3666.00,0.0008
3665.00,0.0008
3664.00,0.0008
3663.00,0.0008
3662.00,0.0008
3661.00,0.0009
3660.00,0.0009
3659.00,0.0010
3658.00,0.0011
3657.00,0.0011
3656.00,0.0010
3655.00,0.0011
3654.00,0.0011
3653.00,0.0011
3652.00,0.0012
3651.00,0.0012
3650.00,0.0012
3649.00,0.0012
3648.00,0.0012
3647.00,0.0011
3646.00,0.0010
3645.00,0.0010
3644.00,0.0009
3643.00,0.0009
3642.00,0.0009
3641.00,0.0009
3640.00,0.0009
3639.00,0.0009
3638.00,0.0010
3637.00,0.0010
3636.00,0.0010
3635.00,0.0010
3634.00,0.0011
3633.00,0.0012
3632.00,0.0012
3631.00,0.0013
3630.00,0.0013
3629.00,0.0014
3628.00,0.0013
3627.00,0.0013
3626.00,0.0013
3625.00,0.0013
3624.00,0.0013
3623.00,0.0013
3622.00,0.0013
3621.00,0.0013
3620.00,0.0013
3619.00,0.0013
3618.00,0.0013
3617.00,0.0014
3616.00,0.0014
3615.00,0.0014
3614.00,0.0014
3613.00,0.0014
3612.00,0.0015
3611.00,0.0016
3610.00,0.0016
3609.00,0.0016
3608.00,0.0015
3607.00,0.0014
3606.00,0.0014
3605.00,0.0014
3604.00,0.0014
3603.00,0.0014
3602.00,0.0013
3601.00,0.0013
3600.00,0.0013
3599.00,0.0014
3598.00,0.0014
3597.00,0.0014
3596.00,0.0015
3595.00,0.0015
3594.00,0.0015
3593.00,0.0016
3592.00,0.0016
3591.00,0.0017
3590.00,0.0017
3589.00,0.0017
3588.00,0.0016
3587.00,0.0015
3586.00,0.0015
3585.00,0.0016
3584.00,0.0016
3583.00,0.0016
3582.00,0.0016
3581.00,0.0016
3580.00,0.0016
3579.00,0.0016
3578.00,0.0017
3577.00,0.0017
3576.00,0.0017
3575.00,0.0018
3574.00,0.0018
3573.00,0.0018
3572.00,0.0018
3571.00,0.0018
3570.00,0.0018
3569.00,0.0019
3568.00,0.0019
3567.00,0.0019
3566.00,0.0020
3565.00,0.0020
3564.00,0.0020
3563.00,0.0020
3562.00,0.0020
3561.00,0.0020
3560.00,0.0020
3559.00,0.0020
3558.00,0.0021
3557.00,0.0021
3556.00,0.0022
3555.00,0.0022
3554.00,0.0022
3553.00,0.0023
3552.00,0.0023
3551.00,0.0023
3550.00,0.0024
3549.00,0.0024
3548.00,0.0025
3547.00,0.0026
3546.00,0.0026
3545.00,0.0026
3544.00,0.0026
3543.00,0.0026
3542.00,0.0025
3541.00,0.0025
3540.00,0.0025
3539.00,0.0025
3538.00,0.0025
3537.00,0.0026
3536.00,0.0026
3535.00,0.0027
3534.00,0.0027
3533.00,0.0028
3532.00,0.0028
3531.00,0.0028
3530.00,0.0029
3529.00,0.0029
3528.00,0.0030
3527.00,0.0030
3526.00,0.0031
3525.00,0.0031
3524.00,0.0031
3523.00,0.0030
3522.00,0.0030
3521.00,0.0030
3520.00,0.0030
3519.00,0.0030
3518.00,0.0030
3517.00,0.0031
3516.00,0.0031
3515.00,0.0031
3514.00,0.0031
3513.00,0.0032
3512.00,0.0033
3511.00,0.0033
3510.00,0.0033
3509.00,0.0034
3508.00,0.0034
3507.00,0.0034
3506.00,0.0034
3505.00,0.0035
3504.00,0.0035
3503.00,0.0035
3502.00,0.0035
3501.00,0.0036
3500.00,0.0036
3499.00,0.0036
3498.00,0.0036
3497.00,0.0036
3496.00,0.0036
3495.00,0.0036
3494.00,0.0037
3493.00,0.0037
3492.00,0.0038
3491.00,0.0038
3490.00,0.0038
3489.00,0.0039
3488.00,0.0039
3487.00,0.0040
3486.00,0.0040
3485.00,0.0040
3484.00,0.0041
3483.00,0.0042
3482.00,0.0042
3481.00,0.0042
3480.00,0.0042
3479.00,0.0042
3478.00,0.0042
3477.00,0.0042
3476.00,0.0042
3475.00,0.0042
3474.00,0.0042
3473.00,0.0043
3472.00,0.0044
3471.00,0.0044
3470.00,0.0044
3469.00,0.0044
3468.00,0.0045
3467.00,0.0045
3466.00,0.0045
3465.00,0.0046
3464.00,0.0046
3463.00,0.0046
3462.00,0.0046
3461.00,0.0047
3460.00,0.0047
3459.00,0.0047
3458.00,0.0048
3457.00,0.0048
3456.00,0.0048
3455.00,0.0048
3454.00,0.0048
3453.00,0.0048
3452.00,0.0048
3451.00,0.0048
3450.00,0.0049
3449.00,0.0049
3448.00,0.0049
3447.00,0.0049
3446.00,0.0049
3445.00,0.0049
3444.00,0.0049
3443.00,0.0050
3442.00,0.0051
3441.00,0.0051
3440.00,0.0052
3439.00,0.0052
3438.00,0.0052
3437.00,0.0052
3436.00,0.0052
3435.00,0.0052
3434.00,0.0052
3433.00,0.0052
3432.00,0.0053
3431.00,0.0053
3430.00,0.0052
3429.00,0.0052
3428.00,0.0052
3427.00,0.0052
3426.00,0.0053
3425.00,0.0053
3424.00,0.0053
3423.00,0.0054
3422.00,0.0054
3421.00,0.0054
3420.00,0.0054
3419.00,0.0055
3418.00,0.0055
3417.00,0.0055
3416.00,0.0055
3415.00,0.0055
3414.00,0.0055
3413.00,0.0055
3412.00,0.0055
3411.00,0.0055
3410.00,0.0055
3409.00,0.0056
3408.00,0.0056
3407.00,0.0056
3406.00,0.0057
3405.00,0.0057
3404.00,0.0057
3403.00,0.0057
3402.00,0.0057
3401.00,0.0058
3400.00,0.0058
3399.00,0.0058
3398.00,0.0058
3397.00,0.0058
3396.00,0.0058
3395.00,0.0057
3394.00,0.0057
3393.00,0.0057
3392.00,0.0057
3391.00,0.0058
3390.00,0.0058
3389.00,0.0058
3388.00,0.0059
3387.00,0.0059
3386.00,0.0059
3385.00,0.0059
3384.00,0.0059
3383.00,0.0059
3382.00,0.0058
3381.00,0.0058
3380.00,0.0058
3379.00,0.0059
3378.00,0.0059
3377.00,0.0059
3376.00,0.0059
3375.00,0.0059
3374.00,0.0059
3373.00,0.0059
3372.00,0.0059
3371.00,0.0059
3370.00,0.0059
3369.00,0.0059
3368.00,0.0059
3367.00,0.0060
3366.00,0.0060
3365.00,0.0060
3364.00,0.0060
3363.00,0.0060
3362.00,0.0059
3361.00,0.0059
3360.00,0.0059
3359.00,0.0059
3358.00,0.0059
3357.00,0.0059
3356.00,0.0059
3355.00,0.0059
3354.00,0.0059
3353.00,0.0059
3352.00,0.0059
3351.00,0.0059
3350.00,0.0059
3349.00,0.0059
3348.00,0.0059
3347.00,0.0059
3346.00,0.0059
3345.00,0.0059
3344.00,0.0059
3343.00,0.0059
3342.00,0.0059
3341.00,0.0059
3340.00,0.0059
3339.00,0.0058
3338.00,0.0058
3337.00,0.0058
3336.00,0.0058
3335.00,0.0058
3334.00,0.0058
3333.00,0.0058
3332.00,0.0058
3331.00,0.0057
3330.00,0.0057
3329.00,0.0057
3328.00,0.0057
3327.00,0.0057
3326.00,0.0057
3325.00,0.0057
3324.00,0.0057
3323.00,0.0056
3322.00,0.0056
3321.00,0.0056
3320.00,0.0056
3319.00,0.0057
3318.00,0.0057
3317.00,0.0057
3316.00,0.0057
3315.00,0.0057
3314.00,0.0057
3313.00,0.0057
3312.00,0.0057
3311.00,0.0057
3310.00,0.0057
3309.00,0.0058
3308.00,0.0058
3307.00,0.0058
3306.00,0.0058
3305.00,0.0058
3304.00,0.0058
3303.00,0.0057
3302.00,0.0057
3301.00,0.0057
3300.00,0.0057
3299.00,0.0057
3298.00,0.0057
3297.00,0.0057
3296.00,0.0056
3295.00,0.0055
3294.00,0.0055
3293.00,0.0055
3292.00,0.0054
3291.00,0.0054
3290.00,0.0054
3289.00,0.0054
3288.00,0.0054
3287.00,0.0054
3286.00,0.0055
3285.00,0.0055
3284.00,0.0054
3283.00,0.0054
3282.00,0.0053
3281.00,0.0053
3280.00,0.0053
3279.00,0.0052
3278.00,0.0052
3277.00,0.0051
3276.00,0.0051
3275.00,0.0051
3274.00,0.0051
3273.00,0.0051
3272.00,0.0051
3271.00,0.0051
3270.00,0.0051
3269.00,0.0051
3268.00,0.0051
3267.00,0.0051
3266.00,0.0050
3265.00,0.0050
3264.00,0.0050
3263.00,0.0050
3262.00,0.0049
3261.00,0.0049
3260.00,0.0049
3259.00,0.0049
3258.00,0.0049
3257.00,0.0049
3256.00,0.0049
3255.00,0.0048
3254.00,0.0048
3253.00,0.0048
3252.00,0.0047
3251.00,0.0047
3250.00,0.0047
3249.00,0.0047
3248.00,0.0047
3247.00,0.0047
3246.00,0.0047
3245.00,0.0047
3244.00,0.0046
3243.00,0.0046
3242.00,0.0046
3241.00,0.0046
3240.00,0.0046
3239.00,0.0046
3238.00,0.0046
3237.00,0.0046
3236.00,0.0046
3235.00,0.0046
3234.00,0.0046
3233.00,0.0046
3232.00,0.0046
3231.00,0.0046
3230.00,0.0047
3229.00,0.0047
3228.00,0.0047
3227.00,0.0047
3226.00,0.0047
3225.00,0.0047
3224.00,0.0047
3223.00,0.0047
3222.00,0.0047
3221.00,0.0047
3220.00,0.0047
3219.00,0.0047
3218.00,0.0047
3217.00,0.0047
3216.00,0.0047
3215.00,0.0048
3214.00,0.0048
3213.00,0.0048
3212.00,0.0049
3211.00,0.0049
3210.00,0.0049
3209.00,0.0049
3208.00,0.0049
3207.00,0.0049
3206.00,0.0048
3205.00,0.0048
3204.00,0.0049
3203.00,0.0049
3202.00,0.0049
3201.00,0.0049
3200.00,0.0049
3199.00,0.0049
3198.00,0.0049
3197.00,0.0049
3196.00,0.0048
3195.00,0.0048
3194.00,0.0048
3193.00,0.0049
3192.00,0.0049
3191.00,0.0049
3190.00,0.0049
3189.00,0.0048
3188.00,0.0048
3187.00,0.0048
3186.00,0.0048
3185.00,0.0048
3184.00,0.0048
3183.00,0.0048
3182.00,0.0048
3181.00,0.0048
3180.00,0.0048
3179.00,0.0047
3178.00,0.0047
3177.00,0.0046
3176.00,0.0046
3175.00,0.0046
3174.00,0.0046
3173.00,0.0045
3172.00,0.0045
3171.00,0.0045
3170.00,0.0045
3169.00,0.0045
3168.00,0.0045
3167.00,0.0044
3166.00,0.0044
3165.00,0.0044
3164.00,0.0044
3163.00,0.0044
3162.00,0.0044
3161.00,0.0044
3160.00,0.0044
3159.00,0.0044
3158.00,0.0043
3157.00,0.0043
3156.00,0.0043
3155.00,0.0043
3154.00,0.0043
3153.00,0.0043
3152.00,0.0043
3151.00,0.0043
3150.00,0.0043
3149.00,0.0044
3148.00,0.0044
3147.00,0.0044
3146.00,0.0044
3145.00,0.0044
3144.00,0.0043
3143.00,0.0042
3142.00,0.0042
3141.00,0.0042
3140.00,0.0042
3139.00,0.0042
3138.00,0.0042
3137.00,0.0042
3136.00,0.0041
3135.00,0.0041
3134.00,0.0041
3133.00,0.0041
3132.00,0.0041
3131.00,0.0041
3130.00,0.0040
3129.00,0.0040
3128.00,0.0040
3127.00,0.0039
3126.00,0.0039
3125.00,0.0039
3124.00,0.0039
3123.00,0.0038
3122.00,0.0038
3121.00,0.0038
3120.00,0.0038
3119.00,0.0038
3118.00,0.0037
3117.00,0.0037
3116.00,0.0037
3115.00,0.0037
3114.00,0.0037
3113.00,0.0037
3112.00,0.0036
3111.00,0.0036
3110.00,0.0036
3109.00,0.0035
3108.00,0.0035
3107.00,0.0035
3106.00,0.0035
3105.00,0.0036
3104.00,0.0036
3103.00,0.0035
3102.00,0.0035
3101.00,0.0034
3100.00,0.0034
3099.00,0.0034
3098.00,0.0034
3097.00,0.0034
3096.00,0.0035
3095.00,0.0035
3094.00,0.0035
3093.00,0.0034
3092.00,0.0034
3091.00,0.0033
3090.00,0.0033
3089.00,0.0033
3088.00,0.0033
3087.00,0.0033
3086.00,0.0033
3085.00,0.0033
3084.00,0.0033
3083.00,0.0033
3082.00,0.0033
3081.00,0.0033
3080.00,0.0033
3079.00,0.0033
3078.00,0.0033
3077.00,0.0033
3076.00,0.0034
3075.00,0.0034
3074.00,0.0034
3073.00,0.0034
3072.00,0.0034
3071.00,0.0034
3070.00,0.0034
3069.00,0.0034
3068.00,0.0035
3067.00,0.0035
3066.00,0.0035
3065.00,0.0035
3064.00,0.0035
3063.00,0.0035
3062.00,0.0035
3061.00,0.0036
3060.00,0.0036
3059.00,0.0036
3058.00,0.0036
3057.00,0.0036
3056.00,0.0036
3055.00,0.0036
3054.00,0.0036
3053.00,0.0036
3052.00,0.0036
3051.00,0.0036
3050.00,0.0036
3049.00,0.0036
3048.00,0.0037
3047.00,0.0037
3046.00,0.0037
3045.00,0.0037
3044.00,0.0038
3043.00,0.0038
3042.00,0.0039
3041.00,0.0039
3040.00,0.0039
3039.00,0.0040
3038.00,0.0040
3037.00,0.0040
3036.00,0.0041
3035.00,0.0042
3034.00,0.0042
3033.00,0.0042
3032.00,0.0042
3031.00,0.0042
3030.00,0.0042
3029.00,0.0042
3028.00,0.0043
3027.00,0.0043
3026.00,0.0044
3025.00,0.0045
3024.00,0.0046
3023.00,0.0046
3022.00,0.0047
3021.00,0.0048
3020.00,0.0049
3019.00,0.0050
3018.00,0.0051
3017.00,0.0052
3016.00,0.0052
3015.00,0.0053
3014.00,0.0053
3013.00,0.0054
3012.00,0.0055
3011.00,0.0056
3010.00,0.0057
3009.00,0.0059
3008.00,0.0060
3007.00,0.0061
3006.00,0.0063
3005.00,0.0064
3004.00,0.0066
3003.00,0.0068
3002.00,0.0069
3001.00,0.0071
3000.00,0.0073
2999.00,0.0076
2998.00,0.0078
2997.00,0.0081
2996.00,0.0085
2995.00,0.0089
2994.00,0.0093
2993.00,0.0098
2992.00,0.0104
2991.00,0.0109
2990.00,0.0116
2989.00,0.0122
2988.00,0.0130
2987.00,0.0138
2986.00,0.0148
2985.00,0.0158
2984.00,0.0169
2983.00,0.0182
2982.00,0.0197
2981.00,0.0215
2980.00,0.0235
2979.00,0.0259
2978.00,0.0286
2977.00,0.0316
2976.00,0.0350
2975.00,0.0389
2974.00,0.0433
2973.00,0.0484
2972.00,0.0543
2971.00,0.0609
2970.00,0.0683
2969.00,0.0766
2968.00,0.0856
2967.00,0.0955
2966.00,0.1060
2965.00,0.1170
2964.00,0.1282
2963.00,0.1391
2962.00,0.1491
2961.00,0.1576
2960.00,0.1644
2959.00,0.1695
2958.00,0.1730
2957.00,0.1757
2956.00,0.1779
2955.00,0.1803
2954.00,0.1831
2953.00,0.1858
2952.00,0.1880
2951.00,0.1886
2950.00,0.1868
2949.00,0.1820
2948.00,0.1743
2947.00,0.1641
2946.00,0.1525
2945.00,0.1406
2944.00,0.1295
2943.00,0.1200
2942.00,0.1128
2941.00,0.1079
2940.00,0.1052
2939.00,0.1046
2938.00,0.1058
2937.00,0.1087
2936.00,0.1130
2935.00,0.1187
2934.00,0.1257
2933.00,0.1337
2932.00,0.1427
2931.00,0.1524
2930.00,0.1626
2929.00,0.1729
2928.00,0.1831
2927.00,0.1929
2926.00,0.2021
2925.00,0.2109
2924.00,0.2192
2923.00,0.2271
2922.00,0.2347
2921.00,0.2417
2920.00,0.2475
2919.00,0.2516
2918.00,0.2532
2917.00,0.2520
2916.00,0.2479
2915.00,0.2415
2914.00,0.2337
2913.00,0.2254
2912.00,0.2173
2911.00,0.2100
2910.00,0.2035
2909.00,0.1978
2908.00,0.1925
2907.00,0.1874
2906.00,0.1822
2905.00,0.1765
2904.00,0.1706
2903.00,0.1643
2902.00,0.1579
2901.00,0.1515
2900.00,0.1451
2899.00,0.1390
2898.00,0.1332
2897.00,0.1279
2896.00,0.1230
2895.00,0.1188
2894.00,0.1152
2893.00,0.1121
2892.00,0.1097
2891.00,0.1078
2890.00,0.1063
2889.00,0.1053
2888.00,0.1046
2887.00,0.1043
2886.00,0.1043
2885.00,0.1046
2884.00,0.1053
2883.00,0.1064
2882.00,0.1078
2881.00,0.1094
2880.00,0.1110
2879.00,0.1123
2878.00,0.1129
2877.00,0.1129
2876.00,0.1123
2875.00,0.1116
2874.00,0.1111
2873.00,0.1111
2872.00,0.1118
2871.00,0.1131
2870.00,0.1148
2869.00,0.1163
2868.00,0.1170
2867.00,0.1164
2866.00,0.1139
2865.00,0.1096
2864.00,0.1038
2863.00,0.0973
2862.00,0.0910
2861.00,0.0855
2860.00,0.0814
2859.00,0.0787
2858.00,0.0774
2857.00,0.0773
2856.00,0.0780
2855.00,0.0794
2854.00,0.0811
2853.00,0.0830
2852.00,0.0850
2851.00,0.0866
2850.00,0.0879
2849.00,0.0889
2848.00,0.0899
2847.00,0.0913
2846.00,0.0936
2845.00,0.0970
2844.00,0.1015
2843.00,0.1068
2842.00,0.1124
2841.00,0.1177
2840.00,0.1218
2839.00,0.1240
2838.00,0.1235
2837.00,0.1200
2836.00,0.1134
2835.00,0.1044
2834.00,0.0939
2833.00,0.0831
2832.00,0.0728
2831.00,0.0636
2830.00,0.0559
2829.00,0.0495
2828.00,0.0444
2827.00,0.0403
2826.00,0.0369
2825.00,0.0340
2824.00,0.0316
2823.00,0.0296
2822.00,0.0278
2821.00,0.0263
2820.00,0.0250
2819.00,0.0239
2818.00,0.0229
2817.00,0.0220
2816.00,0.0212
2815.00,0.0205
2814.00,0.0199
2813.00,0.0193
2812.00,0.0188
2811.00,0.0182
2810.00,0.0177
2809.00,0.0172
2808.00,0.0166
2807.00,0.0160
2806.00,0.0154
2805.00,0.0148
2804.00,0.0142
2803.00,0.0136
2802.00,0.0131
2801.00,0.0126
2800.00,0.0122
2799.00,0.0119
2798.00,0.0117
2797.00,0.0115
2796.00,0.0112
2795.00,0.0110
2794.00,0.0108
2793.00,0.0105
2792.00,0.0102
2791.00,0.0099
2790.00,0.0095
2789.00,0.0091
2788.00,0.0088
2787.00,0.0084
2786.00,0.0081
2785.00,0.0079
2784.00,0.0076
2783.00,0.0073
2782.00,0.0071
2781.00,0.0069
2780.00,0.0068
2779.00,0.0066
2778.00,0.0065
2777.00,0.0063
2776.00,0.0062
2775.00,0.0061
2774.00,0.0060
2773.00,0.0060
2772.00,0.0059
2771.00,0.0058
2770.00,0.0058
2769.00,0.0057
2768.00,0.0057
2767.00,0.0057
2766.00,0.0057
2765.00,0.0056
2764.00,0.0056
2763.00,0.0055
2762.00,0.0054
2761.00,0.0054
2760.00,0.0054
2759.00,0.0054
2758.00,0.0054
2757.00,0.0054
2756.00,0.0054
2755.00,0.0054
2754.00,0.0054
2753.00,0.0054
2752.00,0.0053
2751.00,0.0053
2750.00,0.0053
2749.00,0.0053
2748.00,0.0053
2747.00,0.0053
2746.00,0.0053
2745.00,0.0054
2744.00,0.0054
2743.00,0.0055
2742.00,0.0056
2741.00,0.0057
2740.00,0.0058
2739.00,0.0059
2738.00,0.0061
2737.00,0.0062
2736.00,0.0063
2735.00,0.0064
2734.00,0.0065
2733.00,0.0067
2732.00,0.0068
2731.00,0.0070
2730.00,0.0072
2729.00,0.0074
2728.00,0.0077
2727.00,0.0079
2726.00,0.0082
2725.00,0.0084
2724.00,0.0086
2723.00,0.0086
2722.00,0.0085
2721.00,0.0083
2720.00,0.0081
2719.00,0.0078
2718.00,0.0075
2717.00,0.0072
2716.00,0.0069
2715.00,0.0067
2714.00,0.0064
2713.00,0.0062
2712.00,0.0060
2711.00,0.0059
2710.00,0.0057
2709.00,0.0055
2708.00,0.0054
2707.00,0.0053
2706.00,0.0053
2705.00,0.0052
2704.00,0.0051
2703.00,0.0050
2702.00,0.0049
2701.00,0.0048
2700.00,0.0048
2699.00,0.0047
2698.00,0.0047
2697.00,0.0046
2696.00,0.0047
2695.00,0.0047
2694.00,0.0047
2693.00,0.0047
2692.00,0.0047
2691.00,0.0047
2690.00,0.0047
2689.00,0.0047
2688.00,0.0047
2687.00,0.0047
2686.00,0.0047
2685.00,0.0047
2684.00,0.0047
2683.00,0.0047
2682.00,0.0047
2681.00,0.0047
2680.00,0.0047
2679.00,0.0047
2678.00,0.0047
2677.00,0.0047
2676.00,0.0047
2675.00,0.0046
2674.00,0.0046
2673.00,0.0046
2672.00,0.0046
2671.00,0.0045
2670.00,0.0045
2669.00,0.0045
2668.00,0.0045
2667.00,0.0046
2666.00,0.0046
2665.00,0.0046
2664.00,0.0046
2663.00,0.0047
2662.00,0.0047
2661.00,0.0048
2660.00,0.0049
2659.00,0.0049
2658.00,0.0049
2657.00,0.0049
2656.00,0.0049
2655.00,0.0048
2654.00,0.0047
2653.00,0.0047
2652.00,0.0046
2651.00,0.0046
2650.00,0.0045
2649.00,0.0045
2648.00,0.0044
2647.00,0.0044
2646.00,0.0043
2645.00,0.0043
2644.00,0.0043
2643.00,0.0042
2642.00,0.0042
2641.00,0.0041
2640.00,0.0040
2639.00,0.0040
2638.00,0.0040
2637.00,0.0040
2636.00,0.0040
2635.00,0.0040
2634.00,0.0040
2633.00,0.0040
2632.00,0.0040
2631.00,0.0040
2630.00,0.0040
2629.00,0.0040
2628.00,0.0041
2627.00,0.0042
2626.00,0.0042
2625.00,0.0042
2624.00,0.0042
2623.00,0.0042
2622.00,0.0042
2621.00,0.0041
2620.00,0.0041
2619.00,0.0041
2618.00,0.0042
2617.00,0.0042
2616.00,0.0042
2615.00,0.0041
2614.00,0.0041
2613.00,0.0040
2612.00,0.0040
2611.00,0.0039
2610.00,0.0038
2609.00,0.0038
2608.00,0.0037
2607.00,0.0036
2606.00,0.0035
2605.00,0.0034
2604.00,0.0034
2603.00,0.0033
2602.00,0.0032
2601.00,0.0032
2600.00,0.0032
2599.00,0.0033
2598.00,0.0032
2597.00,0.0032
2596.00,0.0033
2595.00,0.0033
2594.00,0.0033
2593.00,0.0033
2592.00,0.0033
2591.00,0.0033
2590.00,0.0033
2589.00,0.0034
2588.00,0.0035
2587.00,0.0036
2586.00,0.0038
2585.00,0.0039
2584.00,0.0039
2583.00,0.0039
2582.00,0.0039
2581.00,0.0038
2580.00,0.0037
2579.00,0.0036
2578.00,0.0035
2577.00,0.0034
2576.00,0.0032
2575.00,0.0031
2574.00,0.0030
2573.00,0.0030
2572.00,0.0030
2571.00,0.0030
2570.00,0.0030
2569.00,0.0029
2568.00,0.0028
2567.00,0.0026
2566.00,0.0025
2565.00,0.0025
2564.00,0.0025
2563.00,0.0025
2562.00,0.0025
2561.00,0.0024
2560.00,0.0024
2559.00,0.0024
2558.00,0.0023
2557.00,0.0023
2556.00,0.0023
2555.00,0.0024
2554.00,0.0023
2553.00,0.0023
2552.00,0.0022
2551.00,0.0022
2550.00,0.0021
2549.00,0.0020
2548.00,0.0020
2547.00,0.0020
2546.00,0.0020
2545.00,0.0020
2544.00,0.0020
2543.00,0.0019
2542.00,0.0019
2541.00,0.0019
2540.00,0.0019
2539.00,0.0018
2538.00,0.0018
2537.00,0.0017
2536.00,0.0017
2535.00,0.0017
2534.00,0.0016
2533.00,0.0016
2532.00,0.0015
2531.00,0.0014
2530.00,0.0014
2529.00,0.0014
2528.00,0.0014
2527.00,0.0014
2526.00,0.0015
2525.00,0.0015
2524.00,0.0014
2523.00,0.0013
2522.00,0.0013
2521.00,0.0013
2520.00,0.0013
2519.00,0.0013
2518.00,0.0012
2517.00,0.0012
2516.00,0.0012
2515.00,0.0011
2514.00,0.0011
2513.00,0.0011
2512.00,0.0011
2511.00,0.0012
2510.00,0.0012
2509.00,0.0013
2508.00,0.0013
2507.00,0.0012
2506.00,0.0012
2505.00,0.0012
2504.00,0.0012
2503.00,0.0012
2502.00,0.0012
2501.00,0.0012
2500.00,0.0012
2499.00,0.0012
2498.00,0.0012
2497.00,0.0013
2496.00,0.0013
2495.00,0.0013
2494.00,0.0013
2493.00,0.0013
2492.00,0.0013
2491.00,0.0012
2490.00,0.0011
2489.00,0.0010
2488.00,0.0009
2487.00,0.0009
2486.00,0.0009
2485.00,0.0009
2484.00,0.0010
2483.00,0.0010
2482.00,0.0011
2481.00,0.0011
2480.00,0.0011
2479.00,0.0011
2478.00,0.0011
2477.00,0.0010
2476.00,0.0010
2475.00,0.0010
2474.00,0.0010
2473.00,0.0010
2472.00,0.0010
2471.00,0.0010
2470.00,0.0010
2469.00,0.0011
2468.00,0.0011
2467.00,0.0011
2466.00,0.0011
2465.00,0.0011
2464.00,0.0011
2463.00,0.0011
2462.00,0.0010
2461.00,0.0009
2460.00,0.0010
2459.00,0.0010
2458.00,0.0011
2457.00,0.0012
2456.00,0.0013
2455.00,0.0014
2454.00,0.0013
2453.00,0.0013
2452.00,0.0013
2451.00,0.0012
2450.00,0.0012
2449.00,0.0012
2448.00,0.0012
2447.00,0.0012
2446.00,0.0012
2445.00,0.0012
2444.00,0.0012
2443.00,0.0012
2442.00,0.0012
2441.00,0.0012
2440.00,0.0012
2439.00,0.0013
2438.00,0.0013
2437.00,0.0013
2436.00,0.0014
2435.00,0.0014
2434.00,0.0014
2433.00,0.0013
2432.00,0.0013
2431.00,0.0012
2430.00,0.0012
2429.00,0.0012
2428.00,0.0012
2427.00,0.0012
2426.00,0.0012
2425.00,0.0012
2424.00,0.0011
2423.00,0.0011
2422.00,0.0011
2421.00,0.0011
2420.00,0.0011
2419.00,0.0011
2418.00,0.0011
2417.00,0.0010
2416.00,0.0010
2415.00,0.0010
2414.00,0.0010
2413.00,0.0010
2412.00,0.0010
2411.00,0.0011
2410.00,0.0011
2409.00,0.0010
2408.00,0.0010
2407.00,0.0010
2406.00,0.0009
2405.00,0.0009
2404.00,0.0009
2403.00,0.0009
2402.00,0.0010
2401.00,0.0010
2400.00,0.0010
2399.00,0.0010
2398.00,0.0011
2397.00,0.0010
2396.00,0.0010
2395.00,0.0009
2394.00,0.0008
2393.00,0.0008
2392.00,0.0007
2391.00,0.0008
2390.00,0.0008
2389.00,0.0008
2388.00,0.0008
2387.00,0.0007
2386.00,0.0007
2385.00,0.0007
2384.00,0.0007
2383.00,0.0007
2382.00,0.0007
2381.00,0.0006
2380.00,0.0006
2379.00,0.0005
2378.00,0.0005
2377.00,0.0004
2376.00,0.0004
2375.00,0.0005
2374.00,0.0006
2373.00,0.0006
2372.00,0.0007
2371.00,0.0006
2370.00,0.0005
2369.00,0.0004
2368.00,0.0004
2367.00,0.0005
2366.00,0.0005
2365.00,0.0006
2364.00,0.0007
2363.00,0.0007
2362.00,0.0007
2361.00,0.0007
2360.00,0.0007
2359.00,0.0007
2358.00,0.0007
2357.00,0.0008
2356.00,0.0008
2355.00,0.0008
2354.00,0.0008
2353.00,0.0008
2352.00,0.0008
2351.00,0.0008
2350.00,0.0008
2349.00,0.0008
2348.00,0.0008
2347.00,0.0008
2346.00,0.0009
2345.00,0.0010
2344.00,0.0010
2343.00,0.0010
2342.00,0.0010
2341.00,0.0010
2340.00,0.0010
2339.00,0.0011
2338.00,0.0011
2337.00,0.0012
2336.00,0.0012
2335.00,0.0011
2334.00,0.0010
2333.00,0.0009
2332.00,0.0008
2331.00,0.0008
2330.00,0.0009
2329.00,0.0009
2328.00,0.0012
2327.00,0.0015
2326.00,0.0019
2325.00,0.0022
2324.00,0.0023
2323.00,0.0023
2322.00,0.0021
2321.00,0.0019
2320.00,0.0018
2319.00,0.0017
2318.00,0.0017
2317.00,0.0016
2316.00,0.0015
2315.00,0.0015
2314.00,0.0015
2313.00,0.0015
2312.00,0.0016
2311.00,0.0015
2310.00,0.0014
2309.00,0.0013
2308.00,0.0013
2307.00,0.0013
2306.00,0.0014
2305.00,0.0014
2304.00,0.0015
2303.00,0.0015
2302.00,0.0015
2301.00,0.0015
2300.00,0.0015
2299.00,0.0015
2298.00,0.0015
2297.00,0.0014
2296.00,0.0015
2295.00,0.0015
2294.00,0.0017
2293.00,0.0018
2292.00,0.0019
2291.00,0.0020
2290.00,0.0020
2289.00,0.0021
2288.00,0.0021
2287.00,0.0021
2286.00,0.0022
2285.00,0.0022
2284.00,0.0022
2283.00,0.0021
2282.00,0.0020
2281.00,0.0019
2280.00,0.0018
2279.00,0.0017
2278.00,0.0017
2277.00,0.0017
2276.00,0.0017
2275.00,0.0016
2274.00,0.0015
2273.00,0.0015
2272.00,0.0014
2271.00,0.0013
2270.00,0.0012
2269.00,0.0012
2268.00,0.0013
2267.00,0.0013
2266.00,0.0012
2265.00,0.0012
2264.00,0.0012
2263.00,0.0013
2262.00,0.0014
2261.00,0.0015
2260.00,0.0016
2259.00,0.0016
2258.00,0.0015
2257.00,0.0014
2256.00,0.0012
2255.00,0.0010
2254.00,0.0009
2253.00,0.0009
2252.00,0.0009
2251.00,0.0010
2250.00,0.0012
2249.00,0.0013
2248.00,0.0014
2247.00,0.0014
2246.00,0.0012
2245.00,0.0011
2244.00,0.0010
2243.00,0.0010
2242.00,0.0010
2241.00,0.0011
2240.00,0.0011
2239.00,0.0011
2238.00,0.0012
2237.00,0.0013
2236.00,0.0012
2235.00,0.0011
2234.00,0.0009
2233.00,0.0007
2232.00,0.0005
2231.00,0.0005
2230.00,0.0006
2229.00,0.0008
2228.00,0.0009
2227.00,0.0011
2226.00,0.0011
2225.00,0.0012
2224.00,0.0013
2223.00,0.0012
2222.00,0.0011
2221.00,0.0009
2220.00,0.0009
2219.00,0.0008
2218.00,0.0008
2217.00,0.0007
2216.00,0.0007
2215.00,0.0007
2214.00,0.0007
2213.00,0.0007
2212.00,0.0007
2211.00,0.0006
2210.00,0.0006
2209.00,0.0006
2208.00,0.0006
2207.00,0.0008
2206.00,0.0009
2205.00,0.0011
2204.00,0.0012
2203.00,0.0012
2202.00,0.0011
2201.00,0.0011
2200.00,0.0010
2199.00,0.0010
2198.00,0.0009
2197.00,0.0008
2196.00,0.0006
2195.00,0.0005
2194.00,0.0006
2193.00,0.0008
2192.00,0.0009
2191.00,0.0011
2190.00,0.0013
2189.00,0.0014
2188.00,0.0013
2187.00,0.0011
2186.00,0.0009
2185.00,0.0009
2184.00,0.0009
2183.00,0.0008
2182.00,0.0006
2181.00,0.0006
2180.00,0.0008
2179.00,0.0011
2178.00,0.0012
2177.00,0.0010
2176.00,0.0006
2175.00,0.0002
2174.00,-0.0001
2173.00,-0.0001
2172.00,0.0002
2171.00,0.0007
2170.00,0.0014
2169.00,0.0020
2168.00,0.0024
2167.00,0.0026
2166.00,0.0025
2165.00,0.0023
2164.00,0.0022
2163.00,0.0020
2162.00,0.0019
2161.00,0.0013
2160.00,0.0003
2159.00,-0.0011
2158.00,-0.0023
2157.00,-0.0029
2156.00,-0.0029
2155.00,-0.0026
2154.00,-0.0022
2153.00,-0.0018
2152.00,-0.0016
2151.00,-0.0014
2150.00,-0.0014
2149.00,-0.0014
2148.00,-0.0014
2147.00,-0.0014
2146.00,-0.0014
2145.00,-0.0013
2144.00,-0.0013
2143.00,-0.0013
2142.00,-0.0014
2141.00,-0.0013
2140.00,-0.0012
2139.00,-0.0009
2138.00,-0.0008
2137.00,-0.0007
2136.00,-0.0007
2135.00,-0.0010
2134.00,-0.0012
2133.00,-0.0014
2132.00,-0.0015
2131.00,-0.0015
2130.00,-0.0014
2129.00,-0.0012
2128.00,-0.0010
2127.00,-0.0008
2126.00,-0.0007
2125.00,-0.0007
2124.00,-0.0007
2123.00,-0.0007
2122.00,-0.0007
2121.00,-0.0006
2120.00,-0.0005
2119.00,-0.0004
2118.00,-0.0001
2117.00,0.0001
2116.00,0.0003
2115.00,0.0003
2114.00,0.0003
2113.00,0.0003
2112.00,0.0004
2111.00,0.0004
2110.00,0.0004
2109.00,0.0003
2108.00,0.0002
2107.00,0.0002
2106.00,0.0002
2105.00,0.0003
2104.00,0.0003
2103.00,0.0004
2102.00,0.0003
2101.00,0.0003
2100.00,0.0003
2099.00,0.0003
2098.00,0.0003
2097.00,0.0002
2096.00,0.0000
2095.00,-0.0002
2094.00,-0.0003
2093.00,-0.0003
2092.00,-0.0002
2091.00,-0.0001
2090.00,-0.0000
2089.00,0.0001
2088.00,0.0001
2087.00,0.0000
2086.00,-0.0000
2085.00,0.0000
2084.00,0.0002
2083.00,0.0003
2082.00,0.0004
2081.00,0.0005
2080.00,0.0006
2079.00,0.0006
2078.00,0.0006
2077.00,0.0006
2076.00,0.0005
2075.00,0.0004
2074.00,0.0003
2073.00,0.0002
2072.00,0.0001
2071.00,0.0000
2070.00,-0.0000
2069.00,0.0000
2068.00,0.0000
2067.00,-0.0000
2066.00,-0.0001
2065.00,-0.0001
2064.00,-0.0000
2063.00,0.0000
2062.00,-0.0000
2061.00,-0.0001
2060.00,-0.0002
2059.00,-0.0003
2058.00,-0.0001
2057.00,0.0001
2056.00,0.0003
2055.00,0.0004
2054.00,0.0005
2053.00,0.0008
2052.00,0.0011
2051.00,0.0013
2050.00,0.0010
2049.00,0.0005
2048.00,0.0000
2047.00,-0.0003
2046.00,-0.0003
2045.00,-0.0003
2044.00,-0.0002
2043.00,-0.0001
2042.00,0.0002
2041.00,0.0007
2040.00,0.0012
2039.00,0.0014
2038.00,0.0013
2037.00,0.0009
2036.00,0.0004
2035.00,0.0000
2034.00,-0.0001
2033.00,-0.0001
2032.00,-0.0001
2031.00,-0.0000
2030.00,-0.0001
2029.00,-0.0002
2028.00,-0.0005
2027.00,-0.0008
2026.00,-0.0009
2025.00,-0.0007
2024.00,-0.0005
2023.00,-0.0005
2022.00,-0.0005
2021.00,-0.0006
2020.00,-0.0006
2019.00,-0.0006
2018.00,-0.0006
2017.00,-0.0006
2016.00,-0.0006
2015.00,-0.0006
2014.00,-0.0007
2013.00,-0.0008
2012.00,-0.0007
2011.00,-0.0006
2010.00,-0.0006
2009.00,-0.0006
2008.00,-0.0007
2007.00,-0.0010
2006.00,-0.0012
2005.00,-0.0014
2004.00,-0.0015
2003.00,-0.0015
2002.00,-0.0013
2001.00,-0.0011
2000.00,-0.0009
1999.00,-0.0008
1998.00,-0.0009
1997.00,-0.0010
1996.00,-0.0011
1995.00,-0.0012
1994.00,-0.0013
1993.00,-0.0012
1992.00,-0.0010
1991.00,-0.0007
1990.00,-0.0003
1989.00,0.0001
1988.00,0.0002
1987.00,0.0003
1986.00,0.0003
1985.00,0.0002
1984.00,0.0002
1983.00,0.0003
1982.00,0.0005
1981.00,0.0008
1980.00,0.0010
1979.00,0.0009
1978.00,0.0003
1977.00,-0.0003
1976.00,-0.0009
1975.00,-0.0013
1974.00,-0.0017
1973.00,-0.0020
1972.00,-0.0021
1971.00,-0.0022
1970.00,-0.0021
1969.00,-0.0021
1968.00,-0.0020
1967.00,-0.0020
1966.00,-0.0018
1965.00,-0.0015
1964.00,-0.0012
1963.00,-0.0010
1962.00,-0.0010
1961.00,-0.0011
1960.00,-0.0013
1959.00,-0.0016
1958.00,-0.0018
1957.00,-0.0019
1956.00,-0.0019
1955.00,-0.0019
1954.00,-0.0018
1953.00,-0.0015
1952.00,-0.0012
1951.00,-0.0009
1950.00,-0.0008
1949.00,-0.0009
1948.00,-0.0009
1947.00,-0.0010
1946.00,-0.0011
1945.00,-0.0011
1944.00,-0.0012
1943.00,-0.0013
1942.00,-0.0013
1941.00,-0.0011
1940.00,-0.0009
1939.00,-0.0009
1938.00,-0.0009
1937.00,-0.0010
1936.00,-0.0010
1935.00,-0.0010
1934.00,-0.0008
1933.00,-0.0007
1932.00,-0.0005
1931.00,-0.0004
1930.00,-0.0005
1929.00,-0.0006
1928.00,-0.0007
1927.00,-0.0007
1926.00,-0.0007
1925.00,-0.0007
1924.00,-0.0006
1923.00,-0.0006
1922.00,-0.0006
1921.00,-0.0005
1920.00,-0.0003
1919.00,-0.0003
1918.00,-0.0003
1917.00,-0.0003
1916.00,-0.0003
1915.00,-0.0002
1914.00,-0.0002
1913.00,-0.0002
1912.00,-0.0002
1911.00,-0.0003
1910.00,-0.0002
1909.00,-0.0001
1908.00,0.0001
1907.00,0.0002
1906.00,0.0002
1905.00,0.0001
1904.00,0.0000
1903.00,-0.0001
1902.00,-0.0002
1901.00,-0.0002
1900.00,-0.0002
1899.00,-0.0001
1898.00,-0.0001
1897.00,0.0000
1896.00,0.0001
1895.00,0.0001
1894.00,0.0000
1893.00,0.0000
1892.00,-0.0000
1891.00,-0.0000
1890.00,-0.0000
1889.00,-0.0000
1888.00,-0.0001
1887.00,-0.0001
1886.00,-0.0002
1885.00,-0.0002
1884.00,-0.0003
1883.00,-0.0003
1882.00,-0.0003
1881.00,-0.0002
1880.00,-0.0000
1879.00,0.0001
1878.00,0.0001
1877.00,0.0000
1876.00,-0.0000
1875.00,0.0000
1874.00,0.0001
1873.00,0.0001
1872.00,0.0001
1871.00,0.0001
1870.00,0.0001
1869.00,0.0001
1868.00,0.0001
1867.00,0.0001
1866.00,0.0001
1865.00,0.0001
1864.00,0.0001
1863.00,0.0000
1862.00,-0.0000
1861.00,-0.0000
1860.00,-0.0001
1859.00,-0.0001
1858.00,-0.0001
1857.00,-0.0001
1856.00,0.0000
1855.00,0.0001
1854.00,0.0001
1853.00,0.0001
1852.00,0.0001
1851.00,0.0001
1850.00,0.0001
1849.00,0.0002
1848.00,0.0002
1847.00,0.0002
1846.00,0.0002
1845.00,0.0001
1844.00,0.0001
1843.00,0.0001
1842.00,0.0001
1841.00,0.0001
1840.00,0.0001
1839.00,0.0002
1838.00,0.0002
1837.00,0.0003
1836.00,0.0004
1835.00,0.0005
1834.00,0.0005
1833.00,0.0005
1832.00,0.0004
1831.00,0.0003
1830.00,0.0003
1829.00,0.0003
1828.00,0.0003
1827.00,0.0002
1826.00,0.0002
1825.00,0.0001
1824.00,0.0002
1823.00,0.0003
1822.00,0.0003
1821.00,0.0003
1820.00,0.0003
1819.00,0.0003
1818.00,0.0002
1817.00,0.0002
1816.00,0.0002
1815.00,0.0002
1814.00,0.0003
1813.00,0.0003
1812.00,0.0004
1811.00,0.0005
1810.00,0.0005
1809.00,0.0005
1808.00,0.0004
1807.00,0.0004
1806.00,0.0004
1805.00,0.0004
1804.00,0.0004
1803.00,0.0005
1802.00,0.0005
1801.00,0.0006
1800.00,0.0006
1799.00,0.0006
1798.00,0.0006
1797.00,0.0006
1796.00,0.0006
1795.00,0.0006
1794.00,0.0007
1793.00,0.0007
1792.00,0.0008
1791.00,0.0008
1790.00,0.0008
1789.00,0.0008
1788.00,0.0008
1787.00,0.0008
1786.00,0.0008
1785.00,0.0008
1784.00,0.0008
1783.00,0.0008
1782.00,0.0008
1781.00,0.0008
1780.00,0.0008
1779.00,0.0008
1778.00,0.0008
1777.00,0.0009
1776.00,0.0009
1775.00,0.0008
1774.00,0.0008
1773.00,0.0008
1772.00,0.0009
1771.00,0.0009
1770.00,0.0010
1769.00,0.0010
1768.00,0.0011
1767.00,0.0011
1766.00,0.0011
1765.00,0.0011
1764.00,0.0011
1763.00,0.0011
1762.00,0.0011
1761.00,0.0012
1760.00,0.0012
1759.00,0.0012
1758.00,0.0013
1757.00,0.0013
1756.00,0.0014
1755.00,0.0014
1754.00,0.0014
1753.00,0.0014
1752.00,0.0014
1751.00,0.0015
1750.00,0.0014
1749.00,0.0015
1748.00,0.0016
1747.00,0.0016
1746.00,0.0017
1745.00,0.0017
1744.00,0.0017
1743.00,0.0017
1742.00,0.0017
1741.00,0.0018
1740.00,0.0018
1739.00,0.0018
1738.00,0.0018
1737.00,0.0019
1736.00,0.0019
1735.00,0.0019
1734.00,0.0020
1733.00,0.0020
1732.00,0.0020
1731.00,0.0020
1730.00,0.0020
1729.00,0.0021
1728.00,0.0021
1727.00,0.0022
1726.00,0.0022
1725.00,0.0022
1724.00,0.0022
1723.00,0.0022
1722.00,0.0022
1721.00,0.0022
1720.00,0.0022
1719.00,0.0022
1718.00,0.0023
1717.00,0.0023
1716.00,0.0023
1715.00,0.0024
1714.00,0.0024
1713.00,0.0025
1712.00,0.0025
1711.00,0.0025
1710.00,0.0025
1709.00,0.0025
1708.00,0.0025
1707.00,0.0025
1706.00,0.0025
1705.00,0.0025
1704.00,0.0025
1703.00,0.0026
1702.00,0.0027
1701.00,0.0027
1700.00,0.0028
1699.00,0.0028
1698.00,0.0028
1697.00,0.0029
1696.00,0.0029
1695.00,0.0030
1694.00,0.0032
1693.00,0.0033
1692.00,0.0034
1691.00,0.0034
1690.00,0.0035
1689.00,0.0036
1688.00,0.0037
1687.00,0.0037
1686.00,0.0037
1685.00,0.0038
1684.00,0.0038
1683.00,0.0039
1682.00,0.0041
1681.00,0.0042
1680.00,0.0043
1679.00,0.0044
1678.00,0.0045
1677.00,0.0046
1676.00,0.0048
1675.00,0.0049
1674.00,0.0050
1673.00,0.0050
1672.00,0.0050
1671.00,0.0051
1670.00,0.0051
1669.00,0.0051
1668.00,0.0052
1667.00,0.0053
1666.00,0.0054
1665.00,0.0054
1664.00,0.0055
1663.00,0.0055
1662.00,0.0055
1661.00,0.0055
1660.00,0.0056
1659.00,0.0056
1658.00,0.0056
1657.00,0.0056
1656.00,0.0056
1655.00,0.0057
1654.00,0.0057
1653.00,0.0059
1652.00,0.0060
1651.00,0.0061
1650.00,0.0062
1649.00,0.0063
1648.00,0.0064
1647.00,0.0065
1646.00,0.0066
1645.00,0.0066
1644.00,0.0067
1643.00,0.0068
1642.00,0.0068
1641.00,0.0069
1640.00,0.0069
1639.00,0.0070
1638.00,0.0071
1637.00,0.0072
1636.00,0.0072
1635.00,0.0071
1634.00,0.0070
1633.00,0.0070
1632.00,0.0070
1631.00,0.0069
1630.00,0.0069
1629.00,0.0068
1628.00,0.0067
1627.00,0.0067
1626.00,0.0067
1625.00,0.0067
1624.00,0.0066
1623.00,0.0066
1622.00,0.0065
1621.00,0.0065
1620.00,0.0065
1619.00,0.0066
1618.00,0.0065
1617.00,0.0065
1616.00,0.0065
1615.00,0.0064
1614.00,0.0064
1613.00,0.0063
1612.00,0.0064
1611.00,0.0064
1610.00,0.0064
1609.00,0.0063
1608.00,0.0063
1607.00,0.0063
1606.00,0.0063
1605.00,0.0063
1604.00,0.0063
1603.00,0.0063
1602.00,0.0063
1601.00,0.0063
1600.00,0.0063
1599.00,0.0063
1598.00,0.0062
1597.00,0.0062
1596.00,0.0061
1595.00,0.0061
1594.00,0.0060
1593.00,0.0060
1592.00,0.0060
1591.00,0.0060
1590.00,0.0060
1589.00,0.0060
1588.00,0.0060
1587.00,0.0060
1586.00,0.0060
1585.00,0.0060
1584.00,0.0060
1583.00,0.0060
1582.00,0.0060
1581.00,0.0061
1580.00,0.0061
1579.00,0.0062
1578.00,0.0062
1577.00,0.0062
1576.00,0.0062
1575.00,0.0062
1574.00,0.0062
1573.00,0.0063
1572.00,0.0063
1571.00,0.0064
1570.00,0.0064
1569.00,0.0064
1568.00,0.0065
1567.00,0.0065
1566.00,0.0065
1565.00,0.0065
1564.00,0.0066
1563.00,0.0066
1562.00,0.0066
1561.00,0.0067
1560.00,0.0068
1559.00,0.0070
1558.00,0.0070
1557.00,0.0071
1556.00,0.0071
1555.00,0.0072
1554.00,0.0072
1553.00,0.0072
1552.00,0.0072
1551.00,0.0072
1550.00,0.0073
1549.00,0.0074
1548.00,0.0075
1547.00,0.0075
1546.00,0.0075
1545.00,0.0076
1544.00,0.0077
1543.00,0.0077
1542.00,0.0076
1541.00,0.0075
1540.00,0.0072
1539.00,0.0069
1538.00,0.0067
1537.00,0.0066
1536.00,0.0066
1535.00,0.0065
1534.00,0.0064
1533.00,0.0063
1532.00,0.0062
1531.00,0.0061
1530.00,0.0060
1529.00,0.0059
1528.00,0.0058
1527.00,0.0058
1526.00,0.0058
1525.00,0.0058
1524.00,0.0058
1523.00,0.0058
1522.00,0.0058
1521.00,0.0058
1520.00,0.0058
1519.00,0.0058
1518.00,0.0059
1517.00,0.0059
1516.00,0.0060
1515.00,0.0060
1514.00,0.0060
1513.00,0.0061
1512.00,0.0062
1511.00,0.0063
1510.00,0.0063
1509.00,0.0063
1508.00,0.0064
1507.00,0.0064
1506.00,0.0064
1505.00,0.0065
1504.00,0.0067
1503.00,0.0069
1502.00,0.0071
1501.00,0.0073
1500.00,0.0076
1499.00,0.0078
1498.00,0.0080
1497.00,0.0084
1496.00,0.0087
1495.00,0.0089
1494.00,0.0091
1493.00,0.0094
1492.00,0.0098
1491.00,0.0102
1490.00,0.0106
1489.00,0.0110
1488.00,0.0115
1487.00,0.0119
1486.00,0.0124
1485.00,0.0130
1484.00,0.0137
1483.00,0.0144
1482.00,0.0151
1481.00,0.0162
1480.00,0.0173
1479.00,0.0184
1478.00,0.0199
1477.00,0.0219
1476.00,0.0244
1475.00,0.0275
1474.00,0.0315
1473.00,0.0371
1472.00,0.0437
1471.00,0.0500
1470.00,0.0561
1469.00,0.0625
1468.00,0.0693
1467.00,0.0767
1466.00,0.0850
1465.00,0.0940
1464.00,0.1017
1463.00,0.1072
1462.00,0.1108
1461.00,0.1133
1460.00,0.1152
1459.00,0.1166
1458.00,0.1179
1457.00,0.1190
1456.00,0.1192
1455.00,0.1188
1454.00,0.1179
1453.00,0.1166
1452.00,0.1143
1451.00,0.1108
1450.00,0.1059
1449.00,0.0991
1448.00,0.0903
1447.00,0.0809
1446.00,0.0722
1445.00,0.0647
1444.00,0.0582
1443.00,0.0529
1442.00,0.0487
1441.00,0.0458
1440.00,0.0439
1439.00,0.0430
1438.00,0.0427
1437.00,0.0423
1436.00,0.0409
1435.00,0.0383
1434.00,0.0349
1433.00,0.0310
1432.00,0.0269
1431.00,0.0232
1430.00,0.0203
1429.00,0.0181
1428.00,0.0165
1427.00,0.0155
1426.00,0.0148
1425.00,0.0142
1424.00,0.0137
1423.00,0.0134
1422.00,0.0132
1421.00,0.0130
1420.00,0.0127
1419.00,0.0124
1418.00,0.0122
1417.00,0.0119
1416.00,0.0117
1415.00,0.0115
1414.00,0.0115
1413.00,0.0113
1412.00,0.0112
1411.00,0.0111
1410.00,0.0110
1409.00,0.0109
1408.00,0.0108
1407.00,0.0108
1406.00,0.0109
1405.00,0.0109
1404.00,0.0109
1403.00,0.0109
1402.00,0.0110
1401.00,0.0111
1400.00,0.0111
1399.00,0.0113
1398.00,0.0116
1397.00,0.0118
1396.00,0.0120
1395.00,0.0123
1394.00,0.0127
1393.00,0.0132
1392.00,0.0137
1391.00,0.0144
1390.00,0.0154
1389.00,0.0167
1388.00,0.0188
1387.00,0.0220
1386.00,0.0263
1385.00,0.0319
1384.00,0.0396
1383.00,0.0504
1382.00,0.0647
1381.00,0.0829
1380.00,0.1046
1379.00,0.1285
1378.00,0.1505
1377.00,0.1655
1376.00,0.1689
1375.00,0.1589
1374.00,0.1384
1373.00,0.1144
1372.00,0.0929
1371.00,0.0752
1370.00,0.0612
1369.00,0.0505
1368.00,0.0431
1367.00,0.0385
1366.00,0.0359
1365.00,0.0347
1364.00,0.0348
1363.00,0.0358
1362.00,0.0376
1361.00,0.0395
1360.00,0.0410
1359.00,0.0414
1358.00,0.0405
1357.00,0.0383
1356.00,0.0352
1355.00,0.0317
1354.00,0.0284
1353.00,0.0255
1352.00,0.0231
1351.00,0.0211
1350.00,0.0195
1349.00,0.0181
1348.00,0.0170
1347.00,0.0161
1346.00,0.0153
1345.00,0.0146
1344.00,0.0140
1343.00,0.0134
1342.00,0.0130
1341.00,0.0126
1340.00,0.0123
1339.00,0.0121
1338.00,0.0120
1337.00,0.0119
1336.00,0.0120
1335.00,0.0121
1334.00,0.0124
1333.00,0.0127
1332.00,0.0130
1331.00,0.0133
1330.00,0.0134
1329.00,0.0134
1328.00,0.0131
1327.00,0.0128
1326.00,0.0123
1325.00,0.0118
1324.00,0.0113
1323.00,0.0108
1322.00,0.0104
1321.00,0.0101
1320.00,0.0099
1319.00,0.0097
1318.00,0.0095
1317.00,0.0094
1316.00,0.0094
1315.00,0.0093
1314.00,0.0093
1313.00,0.0094
1312.00,0.0095
1311.00,0.0098
1310.00,0.0103
1309.00,0.0111
1308.00,0.0122
1307.00,0.0135
1306.00,0.0148
1305.00,0.0157
1304.00,0.0159
1303.00,0.0155
1302.00,0.0148
1301.00,0.0141
1300.00,0.0136
1299.00,0.0134
1298.00,0.0132
1297.00,0.0131
1296.00,0.0129
1295.00,0.0127
1294.00,0.0123
1293.00,0.0119
1292.00,0.0114
1291.00,0.0110
1290.00,0.0106
1289.00,0.0102
1288.00,0.0099
1287.00,0.0097
1286.00,0.0095
1285.00,0.0093
1284.00,0.0091
1283.00,0.0089
1282.00,0.0088
1281.00,0.0086
1280.00,0.0085
1279.00,0.0085
1278.00,0.0084
1277.00,0.0084
1276.00,0.0084
1275.00,0.0084
1274.00,0.0084
1273.00,0.0084
1272.00,0.0084
1271.00,0.0084
1270.00,0.0086
1269.00,0.0088
1268.00,0.0091
1267.00,0.0094
1266.00,0.0098
1265.00,0.0102
1264.00,0.0106
1263.00,0.0110
1262.00,0.0114
1261.00,0.0119
1260.00,0.0126
1259.00,0.0134
1258.00,0.0142
1257.00,0.0148
1256.00,0.0150
1255.00,0.0147
1254.00,0.0139
1253.00,0.0128
1252.00,0.0118
1251.00,0.0108
1250.00,0.0101
1249.00,0.0096
1248.00,0.0092
1247.00,0.0089
1246.00,0.0086
1245.00,0.0085
1244.00,0.0083
1243.00,0.0081
1242.00,0.0080
1241.00,0.0080
1240.00,0.0079
1239.00,0.0079
1238.00,0.0078
1237.00,0.0078
1236.00,0.0077
1235.00,0.0076
1234.00,0.0076
1233.00,0.0076
1232.00,0.0077
1231.00,0.0077
1230.00,0.0078
1229.00,0.0079
1228.00,0.0081
1227.00,0.0083
1226.00,0.0085
1225.00,0.0087
1224.00,0.0090
1223.00,0.0093
1222.00,0.0095
1221.00,0.0097
1220.00,0.0099
1219.00,0.0099
1218.00,0.0098
1217.00,0.0096
1216.00,0.0094
1215.00,0.0091
1214.00,0.0089
1213.00,0.0086
1212.00,0.0084
1211.00,0.0083
1210.00,0.0082
1209.00,0.0081
1208.00,0.0080
1207.00,0.0079
1206.00,0.0079
1205.00,0.0078
1204.00,0.0078
1203.00,0.0077
1202.00,0.0077
1201.00,0.0077
1200.00,0.0076
1199.00,0.0076
1198.00,0.0076
1197.00,0.0076
1196.00,0.0076
1195.00,0.0076
1194.00,0.0077
1193.00,0.0078
1192.00,0.0078
1191.00,0.0078
1190.00,0.0077
1189.00,0.0077
1188.00,0.0077
1187.00,0.0078
1186.00,0.0078
1185.00,0.0079
1184.00,0.0080
1183.00,0.0082
1182.00,0.0084
1181.00,0.0087
1180.00,0.0091
1179.00,0.0096
1178.00,0.0104
1177.00,0.0115
1176.00,0.0128
1175.00,0.0146
1174.00,0.0169
1173.00,0.0199
1172.00,0.0234
1171.00,0.0273
1170.00,0.0311
1169.00,0.0342
1168.00,0.0360
1167.00,0.0364
1166.00,0.0354
1165.00,0.0335
1164.00,0.0312
1163.00,0.0289
1162.00,0.0270
1161.00,0.0253
1160.00,0.0240
1159.00,0.0231
1158.00,0.0223
1157.00,0.0218
1156.00,0.0215
1155.00,0.0212
1154.00,0.0209
1153.00,0.0204
1152.00,0.0199
1151.00,0.0191
1150.00,0.0184
1149.00,0.0176
1148.00,0.0167
1147.00,0.0159
1146.00,0.0151
1145.00,0.0143
1144.00,0.0135
1143.00,0.0127
1142.00,0.0121
1141.00,0.0116
1140.00,0.0111
1139.00,0.0106
1138.00,0.0103
1137.00,0.0100
1136.00,0.0097
1135.00,0.0095
1134.00,0.0094
1133.00,0.0093
1132.00,0.0093
1131.00,0.0092
1130.00,0.0092
1129.00,0.0091
1128.00,0.0091
1127.00,0.0092
1126.00,0.0092
1125.00,0.0094
1124.00,0.0095
1123.00,0.0098
1122.00,0.0099
1121.00,0.0100
1120.00,0.0100
1119.00,0.0101
1118.00,0.0102
1117.00,0.0103
1116.00,0.0105
1115.00,0.0106
1114.00,0.0106
1113.00,0.0108
1112.00,0.0109
1111.00,0.0112
1110.00,0.0115
1109.00,0.0119
1108.00,0.0124
1107.00,0.0129
1106.00,0.0134
1105.00,0.0140
1104.00,0.0144
1103.00,0.0147
1102.00,0.0147
1101.00,0.0143
1100.00,0.0138
1099.00,0.0131
1098.00,0.0125
1097.00,0.0119
1096.00,0.0115
1095.00,0.0112
1094.00,0.0110
1093.00,0.0109
1092.00,0.0107
1091.00,0.0105
1090.00,0.0103
1089.00,0.0101
1088.00,0.0099
1087.00,0.0098
1086.00,0.0097
1085.00,0.0097
1084.00,0.0097
1083.00,0.0098
1082.00,0.0097
1081.00,0.0096
1080.00,0.0093
1079.00,0.0091
1078.00,0.0089
1077.00,0.0088
1076.00,0.0087
1075.00,0.0086
1074.00,0.0086
1073.00,0.0086
1072.00,0.0086
1071.00,0.0085
1070.00,0.0085
1069.00,0.0085
1068.00,0.0085
1067.00,0.0085
1066.00,0.0085
1065.00,0.0085
1064.00,0.0085
1063.00,0.0085
1062.00,0.0085
1061.00,0.0085
1060.00,0.0085
1059.00,0.0085
1058.00,0.0086
1057.00,0.0087
1056.00,0.0087
1055.00,0.0087
1054.00,0.0088
1053.00,0.0089
1052.00,0.0092
1051.00,0.0095
1050.00,0.0099
1049.00,0.0102
1048.00,0.0105
1047.00,0.0108
1046.00,0.0110
1045.00,0.0113
1044.00,0.0113
1043.00,0.0112
1042.00,0.0110
1041.00,0.0107
1040.00,0.0105
1039.00,0.0103
1038.00,0.0102
1037.00,0.0101
1036.00,0.0100
1035.00,0.0099
1034.00,0.0098
1033.00,0.0098
1032.00,0.0097
1031.00,0.0097
1030.00,0.0096
1029.00,0.0095
1028.00,0.0094
1027.00,0.0093
1026.00,0.0094
1025.00,0.0094
1024.00,0.0094
1023.00,0.0094
1022.00,0.0094
1021.00,0.0095
1020.00,0.0095
1019.00,0.0096
1018.00,0.0097
1017.00,0.0098
1016.00,0.0099
1015.00,0.0100
1014.00,0.0102
1013.00,0.0104
1012.00,0.0107
1011.00,0.0111
1010.00,0.0115
1009.00,0.0119
1008.00,0.0125
1007.00,0.0131
1006.00,0.0141
1005.00,0.0155
1004.00,0.0175
1003.00,0.0203
1002.00,0.0242
1001.00,0.0289
1000.00,0.0339
999.00,0.0382
998.00,0.0406
997.00,0.0402
996.00,0.0371
995.00,0.0324
994.00,0.0273
993.00,0.0228
992.00,0.0193
991.00,0.0168
990.00,0.0150
989.00,0.0138
988.00,0.0130
987.00,0.0126
986.00,0.0124
985.00,0.0126
984.00,0.0130
983.00,0.0137
982.00,0.0148
981.00,0.0164
980.00,0.0188
979.00,0.0220
978.00,0.0261
977.00,0.0311
976.00,0.0365
975.00,0.0418
974.00,0.0460
973.00,0.0478
972.00,0.0465
971.00,0.0421
970.00,0.0360
969.00,0.0295
968.00,0.0240
967.00,0.0197
966.00,0.0168
965.00,0.0147
964.00,0.0132
963.00,0.0121
962.00,0.0114
961.00,0.0108
960.00,0.0103
959.00,0.0098
958.00,0.0094
957.00,0.0090
956.00,0.0086
955.00,0.0083
954.00,0.0081
953.00,0.0079
952.00,0.0078
951.00,0.0078
950.00,0.0078
949.00,0.0078
948.00,0.0078
947.00,0.0079
946.00,0.0080
945.00,0.0082
944.00,0.0084
943.00,0.0087
942.00,0.0091
941.00,0.0093
940.00,0.0094
939.00,0.0093
938.00,0.0089
937.00,0.0085
936.00,0.0080
935.00,0.0075
934.00,0.0072
933.00,0.0070
932.00,0.0070
931.00,0.0069
930.00,0.0069
929.00,0.0068
928.00,0.0067
927.00,0.0066
926.00,0.0066
925.00,0.0066
924.00,0.0066
923.00,0.0066
922.00,0.0065
921.00,0.0066
920.00,0.0067
919.00,0.0068
918.00,0.0068
917.00,0.0068
916.00,0.0067
915.00,0.0067
914.00,0.0068
913.00,0.0069
912.00,0.0071
911.00,0.0074
910.00,0.0076
909.00,0.0079
908.00,0.0081
907.00,0.0085
906.00,0.0091
905.00,0.0100
904.00,0.0112
903.00,0.0127
902.00,0.0144
901.00,0.0159
900.00,0.0170
899.00,0.0172
898.00,0.0165
897.00,0.0151
896.00,0.0134
895.00,0.0117
894.00,0.0104
893.00,0.0095
892.00,0.0089
891.00,0.0085
890.00,0.0083
889.00,0.0081
888.00,0.0080
887.00,0.0078
886.00,0.0077
885.00,0.0076
884.00,0.0074
883.00,0.0074
882.00,0.0075
881.00,0.0076
880.00,0.0077
879.00,0.0077
878.00,0.0077
877.00,0.0077
876.00,0.0077
875.00,0.0078
874.00,0.0079
873.00,0.0080
872.00,0.0081
871.00,0.0082
870.00,0.0082
869.00,0.0082
868.00,0.0082
867.00,0.0082
866.00,0.0083
865.00,0.0084
864.00,0.0085
863.00,0.0086
862.00,0.0087
861.00,0.0089
860.00,0.0091
859.00,0.0094
858.00,0.0096
857.00,0.0098
856.00,0.0099
855.00,0.0100
854.00,0.0101
853.00,0.0103
852.00,0.0106
851.00,0.0111
850.00,0.0117
849.00,0.0125
848.00,0.0136
847.00,0.0153
846.00,0.0179
845.00,0.0219
844.00,0.0277
843.00,0.0345
842.00,0.0401
841.00,0.0421
840.00,0.0394
839.00,0.0333
838.00,0.0265
837.00,0.0210
836.00,0.0174
835.00,0.0152
834.00,0.0139
833.00,0.0131
832.00,0.0126
831.00,0.0122
830.00,0.0118
829.00,0.0115
828.00,0.0112
827.00,0.0110
826.00,0.0109
825.00,0.0108
824.00,0.0107
823.00,0.0107
822.00,0.0107
821.00,0.0109
820.00,0.0112
819.00,0.0116
818.00,0.0120
817.00,0.0124
816.00,0.0130
815.00,0.0139
814.00,0.0153
813.00,0.0170
812.00,0.0188
811.00,0.0204
810.00,0.0215
809.00,0.0219
808.00,0.0216
807.00,0.0206
806.00,0.0192
805.00,0.0176
804.00,0.0161
803.00,0.0148
802.00,0.0139
801.00,0.0131
800.00,0.0125
799.00,0.0121
798.00,0.0118
797.00,0.0114
796.00,0.0110
795.00,0.0106
794.00,0.0103
793.00,0.0101
792.00,0.0098
791.00,0.0095
790.00,0.0092
789.00,0.0089
788.00,0.0087
787.00,0.0084
786.00,0.0082
785.00,0.0079
784.00,0.0075
783.00,0.0072
782.00,0.0069
781.00,0.0069
780.00,0.0070
779.00,0.0072
778.00,0.0072
777.00,0.0072
776.00,0.0072
775.00,0.0072
774.00,0.0071
773.00,0.0070
772.00,0.0068
771.00,0.0068
770.00,0.0069
769.00,0.0070
768.00,0.0071
767.00,0.0071
766.00,0.0071
765.00,0.0070
764.00,0.0070
763.00,0.0071
762.00,0.0072
761.00,0.0074
760.00,0.0074
759.00,0.0073
758.00,0.0072
757.00,0.0072
756.00,0.0073
755.00,0.0074
754.00,0.0077
753.00,0.0079
752.00,0.0081
751.00,0.0082
750.00,0.0083
749.00,0.0083
748.00,0.0084
747.00,0.0086
746.00,0.0088
745.00,0.0090
744.00,0.0091
743.00,0.0094
742.00,0.0097
741.00,0.0101
740.00,0.0105
739.00,0.0109
738.00,0.0112
737.00,0.0115
736.00,0.0119
735.00,0.0122
734.00,0.0125
733.00,0.0130
732.00,0.0137
731.00,0.0146
730.00,0.0155
729.00,0.0161
728.00,0.0163
727.00,0.0163
726.00,0.0164
725.00,0.0166
724.00,0.0170
723.00,0.0176
722.00,0.0183
721.00,0.0187
720.00,0.0186
719.00,0.0178
718.00,0.0165
717.00,0.0151
716.00,0.0139
715.00,0.0130
714.00,0.0124
713.00,0.0120
712.00,0.0118
711.00,0.0116
710.00,0.0114
709.00,0.0112
708.00,0.0111
707.00,0.0109
706.00,0.0106
705.00,0.0104
704.00,0.0102
703.00,0.0101
702.00,0.0101
701.00,0.0099
700.00,0.0097
699.00,0.0095
698.00,0.0095
697.00,0.0095
696.00,0.0095
695.00,0.0094
694.00,0.0093
693.00,0.0091
692.00,0.0091
691.00,0.0092
690.00,0.0093
689.00,0.0094
688.00,0.0093
687.00,0.0092
686.00,0.0092
685.00,0.0092
684.00,0.0094
683.00,0.0096
682.00,0.0097
681.00,0.0096
680.00,0.0095
679.00,0.0095
678.00,0.0095
677.00,0.0096
676.00,0.0095
675.00,0.0094
674.00,0.0093
673.00,0.0092
672.00,0.0091
671.00,0.0090
670.00,0.0087
669.00,0.0083
668.00,0.0080
667.00,0.0081
666.00,0.0085
665.00,0.0088
664.00,0.0089
663.00,0.0089
662.00,0.0089
661.00,0.0090
660.00,0.0090
659.00,0.0090
658.00,0.0089
657.00,0.0087
656.00,0.0086
655.00,0.0085
654.00,0.0085
653.00,0.0086
652.00,0.0087
651.00,0.0089
650.00,0.0089
649.00,0.0088
648.00,0.0088
647.00,0.0089
646.00,0.0090
645.00,0.0092
644.00,0.0092
643.00,0.0091
642.00,0.0089
641.00,0.0087
640.00,0.0087
639.00,0.0088
638.00,0.0090
637.00,0.0090
636.00,0.0089
635.00,0.0088
634.00,0.0088
633.00,0.0090
632.00,0.0092
631.00,0.0093
630.00,0.0092
629.00,0.0090
628.00,0.0090
627.00,0.0090
626.00,0.0092
625.00,0.0092
624.00,0.0093
623.00,0.0093
622.00,0.0093
621.00,0.0093
620.00,0.0092
619.00,0.0091
618.00,0.0091
617.00,0.0090
616.00,0.0088
615.00,0.0087
614.00,0.0087
613.00,0.0090
612.00,0.0093
611.00,0.0094
610.00,0.0092
609.00,0.0090
608.00,0.0088
607.00,0.0088
606.00,0.0090
605.00,0.0093
604.00,0.0094
603.00,0.0093
602.00,0.0091
601.00,0.0088
600.00,0.0085
599.00,0.0083
598.00,0.0084
597.00,0.0087
596.00,0.0090
595.00,0.0092
594.00,0.0092
593.00,0.0092
592.00,0.0092
591.00,0.0092
590.00,0.0092
589.00,0.0093
588.00,0.0095
587.00,0.0097
586.00,0.0096
585.00,0.0095
584.00,0.0095
583.00,0.0097
582.00,0.0099
581.00,0.0098
580.00,0.0095
579.00,0.0090
578.00,0.0087
577.00,0.0085
576.00,0.0086
575.00,0.0088
574.00,0.0089
573.00,0.0090
572.00,0.0091
571.00,0.0092
570.00,0.0094
569.00,0.0097
568.00,0.0097
567.00,0.0094
566.00,0.0092
565.00,0.0091
564.00,0.0093
563.00,0.0096
562.00,0.0099
561.00,0.0099
560.00,0.0096
559.00,0.0092
558.00,0.0091
557.00,0.0094
556.00,0.0098
555.00,0.0100
554.00,0.0097
553.00,0.0093
552.00,0.0091
551.00,0.0092
550.00,0.0093
549.00,0.0093
548.00,0.0095
547.00,0.0097
546.00,0.0098
545.00,0.0095
544.00,0.0090
543.00,0.0086
542.00,0.0087
541.00,0.0092
540.00,0.0099
539.00,0.0104
538.00,0.0107
537.00,0.0110
536.00,0.0110
535.00,0.0108
534.00,0.0105
533.00,0.0103
532.00,0.0101
531.00,0.0100
530.00,0.0101
529.00,0.0104
528.00,0.0110
527.00,0.0112
526.00,0.0107
525.00,0.0096
524.00,0.0085
523.00,0.0079
522.00,0.0081
521.00,0.0089
520.00,0.0098
519.00,0.0102
518.00,0.0102
517.00,0.0098
516.00,0.0093
515.00,0.0091
514.00,0.0089
513.00,0.0090
512.00,0.0094
511.00,0.0098
510.00,0.0100
509.00,0.0099
508.00,0.0095
507.00,0.0091
506.00,0.0086
505.00,0.0081
504.00,0.0078
503.00,0.0078
502.00,0.0081
501.00,0.0085
500.00,0.0088
499.00,0.0088
498.00,0.0087
497.00,0.0088
496.00,0.0091
495.00,0.0095
494.00,0.0098
493.00,0.0096
492.00,0.0090
491.00,0.0081
490.00,0.0073
489.00,0.0067
488.00,0.0067
487.00,0.0073
486.00,0.0080
485.00,0.0085
484.00,0.0084
483.00,0.0080
482.00,0.0078
481.00,0.0082
480.00,0.0091
479.00,0.0100
478.00,0.0104
477.00,0.0105
476.00,0.0103
475.00,0.0099
474.00,0.0091
473.00,0.0079
472.00,0.0069
471.00,0.0069
470.00,0.0076
469.00,0.0085
468.00,0.0092
467.00,0.0097
466.00,0.0103
465.00,0.0109
464.00,0.0117
463.00,0.0127
462.00,0.0136
461.00,0.0142
460.00,0.0147
459.00,0.0153
458.00,0.0159
457.00,0.0163
456.00,0.0159
455.00,0.0152
454.00,0.0145
453.00,0.0139
452.00,0.0128
451.00,0.0116
450.00,0.0107
