Created as New Dataset,Sample 072 By Administrator Date Thursday, September 04 2025
cm-1,A
4000.00,0.0009
3999.00,0.0009
3998.00,0.0009
3997.00,0.0010
3996.00,0.0011
3995.00,0.0011
3994.00,0.0010
3993.00,0.0010
3992.00,0.0010
3991.00,0.0009
3990.00,0.0009
3989.00,0.0009
3988.00,0.0009
3987.00,0.0009
3986.00,0.0009
3985.00,0.0009
3984.00,0.0009
3983.00,0.0008
3982.00,0.0009
3981.00,0.0009
3980.00,0.0009
3979.00,0.0009
3978.00,0.0009
3977.00,0.0009
3976.00,0.0009
3975.00,0.0008
3974.00,0.0008
3973.00,0.0008
3972.00,0.0008
3971.00,0.0008
3970.00,0.0008
3969.00,0.0008
3968.00,0.0008
3967.00,0.0008
3966.00,0.0008
3965.00,0.0009
3964.00,0.0009
3963.00,0.0009
3962.00,0.0009
3961.00,0.0009
3960.00,0.0009
3959.00,0.0009
3958.00,0.0008
3957.00,0.0008
3956.00,0.0008
3955.00,0.0009
3954.00,0.0009
3953.00,0.0009
3952.00,0.0009
3951.00,0.0009
3950.00,0.0009
3949.00,0.0008
3948.00,0.0007
3947.00,0.0007
3946.00,0.0007
3945.00,0.0007
3944.00,0.0007
3943.00,0.0007
3942.00,0.0007
3941.00,0.0007
3940.00,0.0007
3939.00,0.0007
3938.00,0.0008
3937.00,0.0008
3936.00,0.0008
3935.00,0.0008
3934.00,0.0008
3933.00,0.0008
3932.00,0.0008
3931.00,0.0008
3930.00,0.0008
3929.00,0.0007
3928.00,0.0008
3927.00,0.0008
3926.00,0.0008
3925.00,0.0008
3924.00,0.0008
3923.00,0.0007
3922.00,0.0007
3921.00,0.0007
3920.00,0.0007
3919.00,0.0007
3918.00,0.0008
3917.00,0.0008
3916.00,0.0008
3915.00,0.0007
3914.00,0.0007
3913.00,0.0007
3912.00,0.0007
3911.00,0.0007
3910.00,0.0007
3909.00,0.0008
3908.00,0.0008
3907.00,0.0007
3906.00,0.0007
3905.00,0.0006
3904.00,0.0006
3903.00,0.0006
3902.00,0.0006
3901.00,0.0006
3900.00,0.0006
3899.00,0.0006
3898.00,0.0006
3897.00,0.0007
3896.00,0.0007
3895.00,0.0007
3894.00,0.0007
3893.00,0.0007
3892.00,0.0007
3891.00,0.0006
3890.00,0.0006
3889.00,0.0006
3888.00,0.0006
3887.00,0.0006
3886.00,0.0006
3885.00,0.0007
3884.00,0.0007
3883.00,0.0007
3882.00,0.0006
3881.00,0.0006
3880.00,0.0006
3879.00,0.0006
3878.00,0.0006
3877.00,0.0006
3876.00,0.0007
3875.00,0.0007
3874.00,0.0007
3873.00,0.0007
3872.00,0.0006
3871.00,0.0005
3870.00,0.0005
3869.00,0.0005
3868.00,0.0006
3867.00,0.0006
3866.00,0.0006
3865.00,0.0006
3864.00,0.0006
3863.00,0.0006
3862.00,0.0006
3861.00,0.0006
3860.00,0.0006
3859.00,0.0006
3858.00,0.0006
3857.00,0.0006
3856.00,0.0006
3855.00,0.0006
3854.00,0.0006
3853.00,0.0006
3852.00,0.0006
3851.00,0.0006
3850.00,0.0005
3849.00,0.0005
3848.00,0.0005
3847.00,0.0005
3846.00,0.0005
3845.00,0.0005
3844.00,0.0005
3843.00,0.0005
3842.00,0.0005
3841.00,0.0005
3840.00,0.0006
3839.00,0.0006
3838.00,0.0006
3837.00,0.0006
3836.00,0.0006
3835.00,0.0006
3834.00,0.0006
3833.00,0.0006
3832.00,0.0006
3831.00,0.0006
3830.00,0.0006
3829.00,0.0006
3828.00,0.0006
3827.00,0.0006
3826.00,0.0006
3825.00,0.0006
3824.00,0.0006
3823.00,0.0006
3822.00,0.0005
3821.00,0.0005
3820.00,0.0005
3819.00,0.0006
3818.00,0.0006
3817.00,0.0006
3816.00,0.0006
3815.00,0.0007
3814.00,0.0007
3813.00,0.0007
3812.00,0.0007
3811.00,0.0007
3810.00,0.0007
3809.00,0.0007
3808.00,0.0007
3807.00,0.0007
3806.00,0.0007
3805.00,0.0007
3804.00,0.0006
3803.00,0.0006
3802.00,0.0006
3801.00,0.0005
3800.00,0.0006
3799.00,0.0006
3798.00,0.0006
3797.00,0.0006
3796.00,0.0007
3795.00,0.0007
3794.00,0.0008
3793.00,0.0008
3792.00,0.0008
3791.00,0.0009
3790.00,0.0008
3789.00,0.0008
3788.00,0.0007
3787.00,0.0007
3786.00,0.0007
3785.00,0.0006
3784.00,0.0006
3783.00,0.0006
3782.00,0.0006
3781.00,0.0006
3780.00,0.0006
3779.00,0.0007
3778.00,0.0007
3777.00,0.0007
3776.00,0.0007
3775.00,0.0007
3774.00,0.0007
3773.00,0.0007
3772.00,0.0007
3771.00,0.0007
3770.00,0.0007
3769.00,0.0007
3768.00,0.0007
3767.00,0.0007
3766.00,0.0007
3765.00,0.0007
3764.00,0.0007
3763.00,0.0006
3762.00,0.0006
3761.00,0.0006
3760.00,0.0006
3759.00,0.0006
3758.00,0.0005
3757.00,0.0005
3756.00,0.0005
3755.00,0.0005
3754.00,0.0005
3753.00,0.0004
3752.00,0.0003
3751.00,0.0002
3750.00,0.0001
3749.00,0.0001
3748.00,0.0001
3747.00,0.0001
3746.00,0.0002
3745.00,0.0003
3744.00,0.0004
3743.00,0.0004
3742.00,0.0005
3741.00,0.0004
3740.00,0.0004
3739.00,0.0004
3738.00,0.0003
3737.00,0.0003
3736.00,0.0003
3735.00,0.0003
3734.00,0.0003
3733.00,0.0003
3732.00,0.0003
3731.00,0.0003
3730.00,0.0004
3729.00,0.0004
3728.00,0.0004
3727.00,0.0004
3726.00,0.0004
3725.00,0.0004
3724.00,0.0004
3723.00,0.0004
3722.00,0.0004
3721.00,0.0004
3720.00,0.0004
3719.00,0.0004
3718.00,0.0004
3717.00,0.0004
3716.00,0.0004
3715.00,0.0004
3714.00,0.0004
3713.00,0.0004
3712.00,0.0004
3711.00,0.0005
3710.00,0.0004
3709.00,0.0004
3708.00,0.0005
3707.00,0.0005
3706.00,0.0005
3705.00,0.0005
3704.00,0.0005
3703.00,0.0005
3702.00,0.0005
3701.00,0.0005
3700.00,0.0006
3699.00,0.0006
3698.00,0.0006
3697.00,0.0006
3696.00,0.0006
3695.00,0.0005
3694.00,0.0005
3693.00,0.0005
3692.00,0.0005
3691.00,0.0005
3690.00,0.0005
3689.00,0.0005
3688.00,0.0005
3687.00,0.0005
3686.00,0.0005
3685.00,0.0005
3684.00,0.0004
3683.00,0.0004
3682.00,0.0004
3681.00,0.0003
3680.00,0.0003
3679.00,0.0003
3678.00,0.0003
3677.00,0.0002
3676.00,0.0002
3675.00,0.0002
3674.00,0.0002
3673.00,0.0002
3672.00,0.0001
3671.00,0.0001
3670.00,0.0001
3669.00,0.0001
3668.00,0.0002
3667.00,0.0002
3666.00,0.0002
3665.00,0.0003
3664.00,0.0003
3663.00,0.0003
3662.00,0.0003
3661.00,0.0003
3660.00,0.0003
3659.00,0.0003
3658.00,0.0003
3657.00,0.0002
3656.00,0.0002
3655.00,0.0002
3654.00,0.0002
3653.00,0.0002
3652.00,0.0001
3651.00,0.0001
3650.00,-0.0000
3649.00,-0.0001
3648.00,-0.0000
3647.00,0.0001
3646.00,0.0003
3645.00,0.0004
3644.00,0.0005
3643.00,0.0005
3642.00,0.0006
3641.00,0.0006
3640.00,0.0006
3639.00,0.0006
3638.00,0.0007
3637.00,0.0007
3636.00,0.0008
3635.00,0.0007
3634.00,0.0007
3633.00,0.0007
3632.00,0.0007
3631.00,0.0006
3630.00,0.0006
3629.00,0.0006
3628.00,0.0006
3627.00,0.0007
3626.00,0.0008
3625.00,0.0008
3624.00,0.0008
3623.00,0.0008
3622.00,0.0008
3621.00,0.0009
3620.00,0.0009
3619.00,0.0010
3618.00,0.0010
3617.00,0.0010
3616.00,0.0010
3615.00,0.0010
3614.00,0.0010
3613.00,0.0010
3612.00,0.0010
3611.00,0.0010
3610.00,0.0010
3609.00,0.0011
3608.00,0.0011
3607.00,0.0012
3606.00,0.0012
3605.00,0.0013
3604.00,0.0014
3603.00,0.0014
3602.00,0.0015
3601.00,0.0016
3600.00,0.0016
3599.00,0.0016
3598.00,0.0015
3597.00,0.0015
3596.00,0.0014
3595.00,0.0014
3594.00,0.0014
3593.00,0.0015
3592.00,0.0015
3591.00,0.0015
3590.00,0.0016
3589.00,0.0016
3588.00,0.0017
3587.00,0.0017
3586.00,0.0017
3585.00,0.0017
3584.00,0.0018
3583.00,0.0018
3582.00,0.0019
3581.00,0.0020
3580.00,0.0021
3579.00,0.0021
3578.00,0.0021
3577.00,0.0021
3576.00,0.0021
3575.00,0.0021
3574.00,0.0021
3573.00,0.0022
3572.00,0.0022
3571.00,0.0022
3570.00,0.0023
3569.00,0.0023
3568.00,0.0023
3567.00,0.0023
3566.00,0.0023
3565.00,0.0023
3564.00,0.0023
3563.00,0.0023
3562.00,0.0024
3561.00,0.0024
3560.00,0.0025
3559.00,0.0026
3558.00,0.0026
3557.00,0.0027
3556.00,0.0028
3555.00,0.0028
3554.00,0.0028
3553.00,0.0028
3552.00,0.0028
3551.00,0.0028
3550.00,0.0028
3549.00,0.0028
3548.00,0.0029
3547.00,0.0030
3546.00,0.0030
3545.00,0.0031
3544.00,0.0032
3543.00,0.0032
3542.00,0.0033
3541.00,0.0033
3540.00,0.0033
3539.00,0.0033
3538.00,0.0033
3537.00,0.0033
3536.00,0.0033
3535.00,0.0033
3534.00,0.0034
3533.00,0.0034
3532.00,0.0034
3531.00,0.0035
3530.00,0.0036
3529.00,0.0036
3528.00,0.0036
3527.00,0.0036
3526.00,0.0036
3525.00,0.0036
3524.00,0.0037
3523.00,0.0038
3522.00,0.0039
3521.00,0.0040
3520.00,0.0040
3519.00,0.0041
3518.00,0.0041
3517.00,0.0041
3516.00,0.0041
3515.00,0.0042
3514.00,0.0042
3513.00,0.0042
3512.00,0.0043
3511.00,0.0043
3510.00,0.0043
3509.00,0.0043
3508.00,0.0044
3507.00,0.0044
3506.00,0.0044
3505.00,0.0044
3504.00,0.0045
3503.00,0.0045
3502.00,0.0046
3501.00,0.0046
3500.00,0.0047
3499.00,0.0048
3498.00,0.0048
3497.00,0.0048
3496.00,0.0048
3495.00,0.0047
3494.00,0.0048
3493.00,0.0048
3492.00,0.0048
3491.00,0.0049
3490.00,0.0049
3489.00,0.0050
3488.00,0.0050
3487.00,0.0050
3486.00,0.0051
3485.00,0.0051
3484.00,0.0052
3483.00,0.0052
3482.00,0.0052
3481.00,0.0053
3480.00,0.0053
3479.00,0.0054
3478.00,0.0054
3477.00,0.0055
3476.00,0.0055
3475.00,0.0055
3474.00,0.0055
3473.00,0.0056
3472.00,0.0056
3471.00,0.0057
3470.00,0.0057
3469.00,0.0057
3468.00,0.0057
3467.00,0.0057
3466.00,0.0057
3465.00,0.0058
3464.00,0.0058
3463.00,0.0058
3462.00,0.0059
3461.00,0.0059
3460.00,0.0060
3459.00,0.0060
3458.00,0.0061
3457.00,0.0061
3456.00,0.0062
3455.00,0.0062
3454.00,0.0062
3453.00,0.0062
3452.00,0.0063
3451.00,0.0063
3450.00,0.0063
3449.00,0.0063
3448.00,0.0062
3447.00,0.0062
3446.00,0.0063
3445.00,0.0063
3444.00,0.0064
3443.00,0.0065
3442.00,0.0065
3441.00,0.0066
3440.00,0.0066
3439.00,0.0066
3438.00,0.0067
3437.00,0.0067
3436.00,0.0067
3435.00,0.0067
3434.00,0.0068
3433.00,0.0068
3432.00,0.0068
3431.00,0.0068
3430.00,0.0068
3429.00,0.0069
3428.00,0.0069
3427.00,0.0069
3426.00,0.0069
3425.00,0.0070
3424.00,0.0070
3423.00,0.0070
3422.00,0.0070
3421.00,0.0071
3420.00,0.0071
3419.00,0.0071
3418.00,0.0071
3417.00,0.0072
3416.00,0.0072
3415.00,0.0073
3414.00,0.0073
3413.00,0.0072
3412.00,0.0072
3411.00,0.0072
3410.00,0.0072
3409.00,0.0073
3408.00,0.0073
3407.00,0.0073
3406.00,0.0074
3405.00,0.0074
3404.00,0.0075
3403.00,0.0075
3402.00,0.0075
3401.00,0.0076
3400.00,0.0076
3399.00,0.0076
3398.00,0.0076
3397.00,0.0076
3396.00,0.0076
3395.00,0.0077
3394.00,0.0077
3393.00,0.0077
3392.00,0.0076
3391.00,0.0076
3390.00,0.0077
3389.00,0.0077
3388.00,0.0077
3387.00,0.0077
3386.00,0.0077
3385.00,0.0077
3384.00,0.0077
3383.00,0.0077
3382.00,0.0077
3381.00,0.0077
3380.00,0.0077
3379.00,0.0077
3378.00,0.0077
3377.00,0.0077
3376.00,0.0078
3375.00,0.0078
3374.00,0.0077
3373.00,0.0077
3372.00,0.0077
3371.00,0.0077
3370.00,0.0077
3369.00,0.0078
3368.00,0.0078
3367.00,0.0078
3366.00,0.0079
3365.00,0.0079
3364.00,0.0079
3363.00,0.0079
3362.00,0.0079
3361.00,0.0079
3360.00,0.0079
3359.00,0.0079
3358.00,0.0079
3357.00,0.0079
3356.00,0.0079
3355.00,0.0079
3354.00,0.0079
3353.00,0.0078
3352.00,0.0078
3351.00,0.0079
3350.00,0.0079
3349.00,0.0079
3348.00,0.0079
3347.00,0.0079
3346.00,0.0079
3345.00,0.0078
3344.00,0.0078
3343.00,0.0078
3342.00,0.0078
3341.00,0.0078
3340.00,0.0078
3339.00,0.0078
3338.00,0.0078
3337.00,0.0077
3336.00,0.0077
3335.00,0.0077
3334.00,0.0077
3333.00,0.0077
3332.00,0.0077
3331.00,0.0078
3330.00,0.0078
3329.00,0.0078
3328.00,0.0078
3327.00,0.0077
3326.00,0.0077
3325.00,0.0077
3324.00,0.0076
3323.00,0.0076
3322.00,0.0076
3321.00,0.0076
3320.00,0.0076
3319.00,0.0076
3318.00,0.0076
3317.00,0.0076
3316.00,0.0076
3315.00,0.0076
3314.00,0.0075
3313.00,0.0075
3312.00,0.0076
3311.00,0.0076
3310.00,0.0076
3309.00,0.0076
3308.00,0.0076
3307.00,0.0076
3306.00,0.0076
3305.00,0.0076
3304.00,0.0076
3303.00,0.0076
3302.00,0.0077
3301.00,0.0077
3300.00,0.0077
3299.00,0.0077
3298.00,0.0077
3297.00,0.0076
3296.00,0.0076
3295.00,0.0075
3294.00,0.0075
3293.00,0.0074
3292.00,0.0074
3291.00,0.0074
3290.00,0.0074
3289.00,0.0073
3288.00,0.0072
3287.00,0.0072
3286.00,0.0071
3285.00,0.0071
3284.00,0.0071
3283.00,0.0071
3282.00,0.0071
3281.00,0.0071
3280.00,0.0071
3279.00,0.0071
3278.00,0.0070
3277.00,0.0070
3276.00,0.0070
3275.00,0.0069
3274.00,0.0069
3273.00,0.0068
3272.00,0.0068
3271.00,0.0068
3270.00,0.0067
3269.00,0.0067
3268.00,0.0067
3267.00,0.0067
3266.00,0.0067
3265.00,0.0067
3264.00,0.0067
3263.00,0.0067
3262.00,0.0067
3261.00,0.0067
3260.00,0.0067
3259.00,0.0066
3258.00,0.0066
3257.00,0.0065
3256.00,0.0065
3255.00,0.0065
3254.00,0.0065
3253.00,0.0065
3252.00,0.0064
3251.00,0.0064
3250.00,0.0064
3249.00,0.0063
3248.00,0.0063
3247.00,0.0063
3246.00,0.0063
3245.00,0.0062
3244.00,0.0062
3243.00,0.0061
3242.00,0.0061
3241.00,0.0060
3240.00,0.0060
3239.00,0.0061
3238.00,0.0061
3237.00,0.0061
3236.00,0.0061
3235.00,0.0061
3234.00,0.0062
3233.00,0.0062
3232.00,0.0061
3231.00,0.0061
3230.00,0.0061
3229.00,0.0061
3228.00,0.0061
3227.00,0.0061
3226.00,0.0061
3225.00,0.0061
3224.00,0.0062
3223.00,0.0062
3222.00,0.0062
3221.00,0.0062
3220.00,0.0062
3219.00,0.0062
3218.00,0.0061
3217.00,0.0061
3216.00,0.0061
3215.00,0.0061
3214.00,0.0062
3213.00,0.0062
3212.00,0.0062
3211.00,0.0062
3210.00,0.0062
3209.00,0.0062
3208.00,0.0062
3207.00,0.0062
3206.00,0.0062
3205.00,0.0062
3204.00,0.0063
3203.00,0.0063
3202.00,0.0063
3201.00,0.0063
3200.00,0.0063
3199.00,0.0062
3198.00,0.0061
3197.00,0.0061
3196.00,0.0061
3195.00,0.0062
3194.00,0.0062
3193.00,0.0062
3192.00,0.0062
3191.00,0.0062
3190.00,0.0061
3189.00,0.0061
3188.00,0.0061
3187.00,0.0061
3186.00,0.0060
3185.00,0.0060
3184.00,0.0060
3183.00,0.0060
3182.00,0.0060
3181.00,0.0060
3180.00,0.0059
3179.00,0.0059
3178.00,0.0059
3177.00,0.0058
3176.00,0.0058
3175.00,0.0058
3174.00,0.0058
3173.00,0.0057
3172.00,0.0057
3171.00,0.0057
3170.00,0.0056
3169.00,0.0056
3168.00,0.0056
3167.00,0.0056
3166.00,0.0056
3165.00,0.0056
3164.00,0.0056
3163.00,0.0056
3162.00,0.0056
3161.00,0.0056
3160.00,0.0055
3159.00,0.0055
3158.00,0.0055
3157.00,0.0054
3156.00,0.0054
3155.00,0.0053
3154.00,0.0053
3153.00,0.0054
3152.00,0.0053
3151.00,0.0053
3150.00,0.0053
3149.00,0.0053
3148.00,0.0053
3147.00,0.0053
3146.00,0.0053
3145.00,0.0052
3144.00,0.0052
3143.00,0.0052
3142.00,0.0051
3141.00,0.0051
3140.00,0.0051
3139.00,0.0051
3138.00,0.0051
3137.00,0.0050
3136.00,0.0050
3135.00,0.0050
3134.00,0.0050
3133.00,0.0049
3132.00,0.0049
3131.00,0.0049
3130.00,0.0049
3129.00,0.0049
3128.00,0.0049
3127.00,0.0049
3126.00,0.0048
3125.00,0.0047
3124.00,0.0047
3123.00,0.0046
3122.00,0.0045
3121.00,0.0045
3120.00,0.0045
3119.00,0.0045
3118.00,0.0045
3117.00,0.0045
3116.00,0.0045
3115.00,0.0045
3114.00,0.0045
3113.00,0.0045
3112.00,0.0044
3111.00,0.0044
3110.00,0.0044
3109.00,0.0043
3108.00,0.0043
3107.00,0.0043
3106.00,0.0043
3105.00,0.0043
3104.00,0.0043
3103.00,0.0043
3102.00,0.0043
3101.00,0.0043
3100.00,0.0042
3099.00,0.0042
3098.00,0.0042
3097.00,0.0042
3096.00,0.0042
3095.00,0.0042
3094.00,0.0042
3093.00,0.0042
3092.00,0.0042
3091.00,0.0042
3090.00,0.0042
3089.00,0.0041
3088.00,0.0041
3087.00,0.0041
3086.00,0.0041
3085.00,0.0041
3084.00,0.0041
3083.00,0.0041
3082.00,0.0040
3081.00,0.0040
3080.00,0.0040
3079.00,0.0040
3078.00,0.0040
3077.00,0.0040
3076.00,0.0040
3075.00,0.0040
3074.00,0.0040
3073.00,0.0040
3072.00,0.0040
3071.00,0.0040
3070.00,0.0041
3069.00,0.0042
3068.00,0.0042
3067.00,0.0042
3066.00,0.0043
3065.00,0.0043
3064.00,0.0043
3063.00,0.0042
3062.00,0.0042
3061.00,0.0042
3060.00,0.0042
3059.00,0.0042
3058.00,0.0042
3057.00,0.0043
3056.00,0.0043
3055.00,0.0044
3054.00,0.0044
3053.00,0.0044
3052.00,0.0044
3051.00,0.0044
3050.00,0.0043
3049.00,0.0043
3048.00,0.0043
3047.00,0.0044
3046.00,0.0044
3045.00,0.0045
3044.00,0.0045
3043.00,0.0046
3042.00,0.0046
3041.00,0.0046
3040.00,0.0046
3039.00,0.0046
3038.00,0.0047
3037.00,0.0047
3036.00,0.0047
3035.00,0.0047
3034.00,0.0048
3033.00,0.0048
3032.00,0.0049
3031.00,0.0050
3030.00,0.0051
3029.00,0.0052
3028.00,0.0052
3027.00,0.0053
3026.00,0.0053
3025.00,0.0053
3024.00,0.0053
3023.00,0.0054
3022.00,0.0055
3021.00,0.0055
3020.00,0.0055
3019.00,0.0055
3018.00,0.0055
3017.00,0.0056
3016.00,0.0057
3015.00,0.0057
3014.00,0.0058
3013.00,0.0058
3012.00,0.0059
3011.00,0.0060
3010.00,0.0060
3009.00,0.0061
3008.00,0.0061
3007.00,0.0062
3006.00,0.0062
3005.00,0.0062
3004.00,0.0063
3003.00,0.0064
3002.00,0.0066
3001.00,0.0067
3000.00,0.0068
2999.00,0.0070
2998.00,0.0073
2997.00,0.0076
2996.00,0.0078
2995.00,0.0081
2994.00,0.0084
2993.00,0.0088
2992.00,0.0093
2991.00,0.0099
2990.00,0.0105
2989.00,0.0112
2988.00,0.0119
2987.00,0.0126
2986.00,0.0134
2985.00,0.0141
2984.00,0.0150
2983.00,0.0160
2982.00,0.0173
2981.00,0.0190
2980.00,0.0211
2979.00,0.0235
2978.00,0.0263
2977.00,0.0294
2976.00,0.0328
2975.00,0.0367
2974.00,0.0410
2973.00,0.0459
2972.00,0.0515
2971.00,0.0578
2970.00,0.0650
2969.00,0.0730
2968.00,0.0818
2967.00,0.0912
2966.00,0.1013
2965.00,0.1119
2964.00,0.1225
2963.00,0.1326
2962.00,0.1419
2961.00,0.1496
2960.00,0.1556
2959.00,0.1600
2958.00,0.1632
2957.00,0.1658
2956.00,0.1684
2955.00,0.1714
2954.00,0.1750
2953.00,0.1788
2952.00,0.1819
2951.00,0.1835
2950.00,0.1825
2949.00,0.1785
2948.00,0.1713
2947.00,0.1615
2946.00,0.1503
2945.00,0.1387
2944.00,0.1279
2943.00,0.1187
2942.00,0.1116
2941.00,0.1068
2940.00,0.1043
2939.00,0.1037
2938.00,0.1050
2937.00,0.1078
2936.00,0.1122
2935.00,0.1178
2934.00,0.1247
2933.00,0.1326
2932.00,0.1416
2931.00,0.1513
2930.00,0.1616
2929.00,0.1721
2928.00,0.1825
2927.00,0.1926
2926.00,0.2022
2925.00,0.2114
2924.00,0.2201
2923.00,0.2285
2922.00,0.2365
2921.00,0.2440
2920.00,0.2504
2919.00,0.2549
2918.00,0.2567
2917.00,0.2553
2916.00,0.2508
2915.00,0.2438
2914.00,0.2353
2913.00,0.2262
2912.00,0.2175
2911.00,0.2096
2910.00,0.2026
2909.00,0.1965
2908.00,0.1909
2907.00,0.1855
2906.00,0.1800
2905.00,0.1743
2904.00,0.1683
2903.00,0.1621
2902.00,0.1557
2901.00,0.1494
2900.00,0.1432
2899.00,0.1373
2898.00,0.1317
2897.00,0.1265
2896.00,0.1218
2895.00,0.1177
2894.00,0.1141
2893.00,0.1111
2892.00,0.1087
2891.00,0.1068
2890.00,0.1054
2889.00,0.1044
2888.00,0.1038
2887.00,0.1035
2886.00,0.1035
2885.00,0.1038
2884.00,0.1045
2883.00,0.1056
2882.00,0.1070
2881.00,0.1086
2880.00,0.1102
2879.00,0.1114
2878.00,0.1121
2877.00,0.1121
2876.00,0.1116
2875.00,0.1109
2874.00,0.1105
2873.00,0.1106
2872.00,0.1113
2871.00,0.1127
2870.00,0.1144
2869.00,0.1160
2868.00,0.1169
2867.00,0.1165
2866.00,0.1143
2865.00,0.1103
2864.00,0.1047
2863.00,0.0984
2862.00,0.0923
2861.00,0.0870
2860.00,0.0830
2859.00,0.0804
2858.00,0.0791
2857.00,0.0789
2856.00,0.0796
2855.00,0.0810
2854.00,0.0829
2853.00,0.0849
2852.00,0.0869
2851.00,0.0885
2850.00,0.0897
2849.00,0.0906
2848.00,0.0913
2847.00,0.0924
2846.00,0.0943
2845.00,0.0973
2844.00,0.1013
2843.00,0.1061
2842.00,0.1113
2841.00,0.1161
2840.00,0.1198
2839.00,0.1216
2838.00,0.1209
2837.00,0.1171
2836.00,0.1106
2835.00,0.1018
2834.00,0.0916
2833.00,0.0812
2832.00,0.0713
2831.00,0.0625
2830.00,0.0550
2829.00,0.0489
2828.00,0.0439
2827.00,0.0399
2826.00,0.0366
2825.00,0.0339
2824.00,0.0316
2823.00,0.0296
2822.00,0.0279
2821.00,0.0264
2820.00,0.0252
2819.00,0.0240
2818.00,0.0230
2817.00,0.0221
2816.00,0.0213
2815.00,0.0207
2814.00,0.0201
2813.00,0.0196
2812.00,0.0190
2811.00,0.0185
2810.00,0.0180
2809.00,0.0174
2808.00,0.0168
2807.00,0.0162
2806.00,0.0155
2805.00,0.0149
2804.00,0.0143
2803.00,0.0137
2802.00,0.0132
2801.00,0.0128
2800.00,0.0124
2799.00,0.0121
2798.00,0.0118
2797.00,0.0116
2796.00,0.0114
2795.00,0.0112
2794.00,0.0110
2793.00,0.0107
2792.00,0.0104
2791.00,0.0101
2790.00,0.0097
2789.00,0.0094
2788.00,0.0090
2787.00,0.0087
2786.00,0.0084
2785.00,0.0081
2784.00,0.0079
2783.00,0.0076
2782.00,0.0074
2781.00,0.0073
2780.00,0.0071
2779.00,0.0070
2778.00,0.0068
2777.00,0.0067
2776.00,0.0065
2775.00,0.0064
2774.00,0.0063
2773.00,0.0062
2772.00,0.0061
2771.00,0.0060
2770.00,0.0060
2769.00,0.0060
2768.00,0.0060
2767.00,0.0060
2766.00,0.0059
2765.00,0.0059
2764.00,0.0059
2763.00,0.0058
2762.00,0.0058
2761.00,0.0058
2760.00,0.0057
2759.00,0.0057
2758.00,0.0057
2757.00,0.0056
2756.00,0.0056
2755.00,0.0056
2754.00,0.0055
2753.00,0.0055
2752.00,0.0055
2751.00,0.0055
2750.00,0.0055
2749.00,0.0055
2748.00,0.0055
2747.00,0.0056
2746.00,0.0056
2745.00,0.0057
2744.00,0.0057
2743.00,0.0058
2742.00,0.0058
2741.00,0.0059
2740.00,0.0060
2739.00,0.0061
2738.00,0.0062
2737.00,0.0063
2736.00,0.0065
2735.00,0.0066
2734.00,0.0068
2733.00,0.0069
2732.00,0.0070
2731.00,0.0071
2730.00,0.0073
2729.00,0.0075
2728.00,0.0078
2727.00,0.0080
2726.00,0.0083
2725.00,0.0085
2724.00,0.0087
2723.00,0.0087
2722.00,0.0087
2721.00,0.0085
2720.00,0.0083
2719.00,0.0080
2718.00,0.0077
2717.00,0.0074
2716.00,0.0071
2715.00,0.0068
2714.00,0.0066
2713.00,0.0064
2712.00,0.0062
2711.00,0.0061
2710.00,0.0060
2709.00,0.0058
2708.00,0.0057
2707.00,0.0056
2706.00,0.0054
2705.00,0.0053
2704.00,0.0052
2703.00,0.0051
2702.00,0.0051
2701.00,0.0050
2700.00,0.0050
2699.00,0.0049
2698.00,0.0049
2697.00,0.0048
2696.00,0.0048
2695.00,0.0048
2694.00,0.0048
2693.00,0.0048
2692.00,0.0048
2691.00,0.0048
2690.00,0.0048
2689.00,0.0049
2688.00,0.0049
2687.00,0.0049
2686.00,0.0048
2685.00,0.0048
2684.00,0.0048
2683.00,0.0048
2682.00,0.0048
2681.00,0.0048
2680.00,0.0048
2679.00,0.0048
2678.00,0.0049
2677.00,0.0049
2676.00,0.0049
2675.00,0.0049
2674.00,0.0048
2673.00,0.0048
2672.00,0.0047
2671.00,0.0047
2670.00,0.0047
2669.00,0.0047
2668.00,0.0047
2667.00,0.0047
2666.00,0.0047
2665.00,0.0048
2664.00,0.0049
2663.00,0.0049
2662.00,0.0050
2661.00,0.0050
2660.00,0.0050
2659.00,0.0050
2658.00,0.0050
2657.00,0.0050
2656.00,0.0049
2655.00,0.0049
2654.00,0.0048
2653.00,0.0048
2652.00,0.0047
2651.00,0.0046
2650.00,0.0045
2649.00,0.0045
2648.00,0.0045
2647.00,0.0044
2646.00,0.0044
2645.00,0.0044
2644.00,0.0044
2643.00,0.0044
2642.00,0.0043
2641.00,0.0043
2640.00,0.0042
2639.00,0.0042
2638.00,0.0041
2637.00,0.0041
2636.00,0.0041
2635.00,0.0041
2634.00,0.0041
2633.00,0.0040
2632.00,0.0040
2631.00,0.0040
2630.00,0.0041
2629.00,0.0041
2628.00,0.0041
2627.00,0.0041
2626.00,0.0042
2625.00,0.0043
2624.00,0.0043
2623.00,0.0043
2622.00,0.0042
2621.00,0.0042
2620.00,0.0042
2619.00,0.0043
2618.00,0.0043
2617.00,0.0043
2616.00,0.0043
2615.00,0.0043
2614.00,0.0043
2613.00,0.0042
2612.00,0.0041
2611.00,0.0040
2610.00,0.0039
2609.00,0.0038
2608.00,0.0038
2607.00,0.0037
2606.00,0.0037
2605.00,0.0036
2604.00,0.0035
2603.00,0.0034
2602.00,0.0034
2601.00,0.0033
2600.00,0.0034
2599.00,0.0034
2598.00,0.0034
2597.00,0.0034
2596.00,0.0034
2595.00,0.0034
2594.00,0.0034
2593.00,0.0034
2592.00,0.0035
2591.00,0.0035
2590.00,0.0036
2589.00,0.0037
2588.00,0.0038
2587.00,0.0038
2586.00,0.0039
2585.00,0.0039
2584.00,0.0039
2583.00,0.0039
2582.00,0.0039
2581.00,0.0038
2580.00,0.0037
2579.00,0.0036
2578.00,0.0036
2577.00,0.0036
2576.00,0.0035
2575.00,0.0034
2574.00,0.0032
2573.00,0.0031
2572.00,0.0030
2571.00,0.0029
2570.00,0.0029
2569.00,0.0029
2568.00,0.0028
2567.00,0.0028
2566.00,0.0028
2565.00,0.0027
2564.00,0.0026
2563.00,0.0026
2562.00,0.0026
2561.00,0.0026
2560.00,0.0026
2559.00,0.0026
2558.00,0.0026
2557.00,0.0026
2556.00,0.0025
2555.00,0.0025
2554.00,0.0024
2553.00,0.0024
2552.00,0.0023
2551.00,0.0023
2550.00,0.0023
2549.00,0.0023
2548.00,0.0022
2547.00,0.0021
2546.00,0.0021
2545.00,0.0021
2544.00,0.0021
2543.00,0.0021
2542.00,0.0021
2541.00,0.0020
2540.00,0.0020
2539.00,0.0020
2538.00,0.0020
2537.00,0.0020
2536.00,0.0020
2535.00,0.0020
2534.00,0.0019
2533.00,0.0019
2532.00,0.0018
2531.00,0.0018
2530.00,0.0018
2529.00,0.0018
2528.00,0.0017
2527.00,0.0017
2526.00,0.0016
2525.00,0.0016
2524.00,0.0016
2523.00,0.0016
2522.00,0.0016
2521.00,0.0016
2520.00,0.0016
2519.00,0.0015
2518.00,0.0015
2517.00,0.0015
2516.00,0.0014
2515.00,0.0014
2514.00,0.0014
2513.00,0.0014
2512.00,0.0013
2511.00,0.0013
2510.00,0.0014
2509.00,0.0014
2508.00,0.0014
2507.00,0.0014
2506.00,0.0014
2505.00,0.0013
2504.00,0.0013
2503.00,0.0012
2502.00,0.0013
2501.00,0.0013
2500.00,0.0013
2499.00,0.0013
2498.00,0.0013
2497.00,0.0013
2496.00,0.0013
2495.00,0.0013
2494.00,0.0012
2493.00,0.0012
2492.00,0.0012
2491.00,0.0012
2490.00,0.0012
2489.00,0.0013
2488.00,0.0013
2487.00,0.0013
2486.00,0.0013
2485.00,0.0013
2484.00,0.0012
2483.00,0.0012
2482.00,0.0012
2481.00,0.0011
2480.00,0.0011
2479.00,0.0012
2478.00,0.0012
2477.00,0.0012
2476.00,0.0012
2475.00,0.0011
2474.00,0.0011
2473.00,0.0011
2472.00,0.0011
2471.00,0.0011
2470.00,0.0011
2469.00,0.0010
2468.00,0.0010
2467.00,0.0010
2466.00,0.0010
2465.00,0.0011
2464.00,0.0011
2463.00,0.0012
2462.00,0.0012
2461.00,0.0012
2460.00,0.0012
2459.00,0.0013
2458.00,0.0013
2457.00,0.0013
2456.00,0.0012
2455.00,0.0012
2454.00,0.0011
2453.00,0.0011
2452.00,0.0012
2451.00,0.0012
2450.00,0.0013
2449.00,0.0013
2448.00,0.0013
2447.00,0.0013
2446.00,0.0012
2445.00,0.0012
2444.00,0.0012
2443.00,0.0012
2442.00,0.0012
2441.00,0.0013
2440.00,0.0013
2439.00,0.0014
2438.00,0.0014
2437.00,0.0013
2436.00,0.0013
2435.00,0.0013
2434.00,0.0014
2433.00,0.0015
2432.00,0.0015
2431.00,0.0015
2430.00,0.0014
2429.00,0.0014
2428.00,0.0013
2427.00,0.0013
2426.00,0.0013
2425.00,0.0013
2424.00,0.0013
2423.00,0.0013
2422.00,0.0013
2421.00,0.0012
2420.00,0.0013
2419.00,0.0013
2418.00,0.0013
2417.00,0.0013
2416.00,0.0013
2415.00,0.0013
2414.00,0.0013
2413.00,0.0013
2412.00,0.0013
2411.00,0.0012
2410.00,0.0011
2409.00,0.0010
2408.00,0.0010
2407.00,0.0010
2406.00,0.0011
2405.00,0.0011
2404.00,0.0011
2403.00,0.0010
2402.00,0.0010
2401.00,0.0010
2400.00,0.0010
2399.00,0.0010
2398.00,0.0010
2397.00,0.0010
2396.00,0.0010
2395.00,0.0009
2394.00,0.0009
2393.00,0.0009
2392.00,0.0010
2391.00,0.0010
2390.00,0.0010
2389.00,0.0010
2388.00,0.0010
2387.00,0.0010
2386.00,0.0009
2385.00,0.0009
2384.00,0.0008
2383.00,0.0007
2382.00,0.0007
2381.00,0.0007
2380.00,0.0006
2379.00,0.0006
2378.00,0.0005
2377.00,0.0004
2376.00,0.0005
2375.00,0.0006
2374.00,0.0007
2373.00,0.0007
2372.00,0.0008
2371.00,0.0008
2370.00,0.0007
2369.00,0.0007
2368.00,0.0007
2367.00,0.0007
2366.00,0.0007
2365.00,0.0007
2364.00,0.0007
2363.00,0.0007
2362.00,0.0007
2361.00,0.0008
2360.00,0.0009
2359.00,0.0009
2358.00,0.0010
2357.00,0.0009
2356.00,0.0009
2355.00,0.0008
2354.00,0.0008
2353.00,0.0008
2352.00,0.0008
2351.00,0.0008
2350.00,0.0009
2349.00,0.0009
2348.00,0.0009
2347.00,0.0010
2346.00,0.0010
2345.00,0.0010
2344.00,0.0010
2343.00,0.0010
2342.00,0.0011
2341.00,0.0011
2340.00,0.0012
2339.00,0.0011
2338.00,0.0010
2337.00,0.0010
2336.00,0.0011
2335.00,0.0011
2334.00,0.0010
2333.00,0.0010
2332.00,0.0010
2331.00,0.0010
2330.00,0.0011
2329.00,0.0012
2328.00,0.0014
2327.00,0.0017
2326.00,0.0021
2325.00,0.0024
2324.00,0.0025
2323.00,0.0023
2322.00,0.0021
2321.00,0.0019
2320.00,0.0017
2319.00,0.0016
2318.00,0.0015
2317.00,0.0014
2316.00,0.0013
2315.00,0.0012
2314.00,0.0012
2313.00,0.0011
2312.00,0.0011
2311.00,0.0011
2310.00,0.0012
2309.00,0.0012
2308.00,0.0013
2307.00,0.0013
2306.00,0.0013
2305.00,0.0013
2304.00,0.0013
2303.00,0.0012
2302.00,0.0012
2301.00,0.0012
2300.00,0.0012
2299.00,0.0013
2298.00,0.0014
2297.00,0.0015
2296.00,0.0016
2295.00,0.0017
2294.00,0.0017
2293.00,0.0018
2292.00,0.0019
2291.00,0.0020
2290.00,0.0020
2289.00,0.0020
2288.00,0.0020
2287.00,0.0021
2286.00,0.0021
2285.00,0.0021
2284.00,0.0020
2283.00,0.0018
2282.00,0.0017
2281.00,0.0016
2280.00,0.0016
2279.00,0.0017
2278.00,0.0018
2277.00,0.0018
2276.00,0.0019
2275.00,0.0019
2274.00,0.0020
2273.00,0.0019
2272.00,0.0018
2271.00,0.0016
2270.00,0.0015
2269.00,0.0015
2268.00,0.0014
2267.00,0.0014
2266.00,0.0013
2265.00,0.0013
2264.00,0.0013
2263.00,0.0013
2262.00,0.0013
2261.00,0.0013
2260.00,0.0014
2259.00,0.0015
2258.00,0.0017
2257.00,0.0017
2256.00,0.0015
2255.00,0.0014
2254.00,0.0012
2253.00,0.0012
2252.00,0.0012
2251.00,0.0012
2250.00,0.0012
2249.00,0.0011
2248.00,0.0011
2247.00,0.0011
2246.00,0.0011
2245.00,0.0009
2244.00,0.0008
2243.00,0.0007
2242.00,0.0006
2241.00,0.0007
2240.00,0.0009
2239.00,0.0010
2238.00,0.0011
2237.00,0.0011
2236.00,0.0011
2235.00,0.0011
2234.00,0.0010
2233.00,0.0010
2232.00,0.0011
2231.00,0.0011
2230.00,0.0012
2229.00,0.0014
2228.00,0.0015
2227.00,0.0015
2226.00,0.0015
2225.00,0.0014
2224.00,0.0013
2223.00,0.0012
2222.00,0.0011
2221.00,0.0011
2220.00,0.0010
2219.00,0.0008
2218.00,0.0007
2217.00,0.0007
2216.00,0.0008
2215.00,0.0008
2214.00,0.0008
2213.00,0.0008
2212.00,0.0007
2211.00,0.0004
2210.00,0.0002
2209.00,0.0001
2208.00,0.0001
2207.00,0.0003
2206.00,0.0004
2205.00,0.0005
2204.00,0.0007
2203.00,0.0008
2202.00,0.0010
2201.00,0.0011
2200.00,0.0011
2199.00,0.0012
2198.00,0.0013
2197.00,0.0014
2196.00,0.0014
2195.00,0.0012
2194.00,0.0010
2193.00,0.0009
2192.00,0.0010
2191.00,0.0011
2190.00,0.0012
2189.00,0.0012
2188.00,0.0013
2187.00,0.0014
2186.00,0.0015
2185.00,0.0015
2184.00,0.0015
2183.00,0.0013
2182.00,0.0011
2181.00,0.0009
2180.00,0.0007
2179.00,0.0006
2178.00,0.0005
2177.00,0.0004
2176.00,0.0004
2175.00,0.0004
2174.00,0.0006
2173.00,0.0008
2172.00,0.0011
2171.00,0.0013
2170.00,0.0016
2169.00,0.0017
2168.00,0.0017
2167.00,0.0015
2166.00,0.0013
2165.00,0.0014
2164.00,0.0017
2163.00,0.0021
2162.00,0.0022
2161.00,0.0017
2160.00,0.0007
2159.00,-0.0007
2158.00,-0.0019
2157.00,-0.0026
2156.00,-0.0028
2155.00,-0.0027
2154.00,-0.0024
2153.00,-0.0021
2152.00,-0.0018
2151.00,-0.0017
2150.00,-0.0017
2149.00,-0.0016
2148.00,-0.0014
2147.00,-0.0011
2146.00,-0.0009
2145.00,-0.0008
2144.00,-0.0009
2143.00,-0.0011
2142.00,-0.0012
2141.00,-0.0014
2140.00,-0.0014
2139.00,-0.0014
2138.00,-0.0013
2137.00,-0.0013
2136.00,-0.0012
2135.00,-0.0012
2134.00,-0.0011
2133.00,-0.0011
2132.00,-0.0010
2131.00,-0.0010
2130.00,-0.0010
2129.00,-0.0009
2128.00,-0.0008
2127.00,-0.0008
2126.00,-0.0007
2125.00,-0.0007
2124.00,-0.0005
2123.00,-0.0003
2122.00,-0.0002
2121.00,-0.0001
2120.00,-0.0001
2119.00,-0.0001
2118.00,-0.0000
2117.00,0.0002
2116.00,0.0003
2115.00,0.0005
2114.00,0.0005
2113.00,0.0005
2112.00,0.0004
2111.00,0.0002
2110.00,0.0002
2109.00,0.0003
2108.00,0.0004
2107.00,0.0006
2106.00,0.0006
2105.00,0.0006
2104.00,0.0005
2103.00,0.0003
2102.00,0.0002
2101.00,0.0002
2100.00,0.0002
2099.00,0.0003
2098.00,0.0004
2097.00,0.0003
2096.00,0.0002
2095.00,0.0001
2094.00,-0.0000
2093.00,-0.0000
2092.00,0.0001
2091.00,0.0002
2090.00,0.0002
2089.00,0.0003
2088.00,0.0003
2087.00,0.0003
2086.00,0.0003
2085.00,0.0004
2084.00,0.0004
2083.00,0.0004
2082.00,0.0003
2081.00,0.0003
2080.00,0.0004
2079.00,0.0005
2078.00,0.0006
2077.00,0.0007
2076.00,0.0007
2075.00,0.0007
2074.00,0.0007
2073.00,0.0006
2072.00,0.0004
2071.00,0.0002
2070.00,0.0001
2069.00,0.0002
2068.00,0.0003
2067.00,0.0004
2066.00,0.0005
2065.00,0.0004
2064.00,0.0003
2063.00,0.0001
2062.00,-0.0000
2061.00,-0.0001
2060.00,-0.0001
2059.00,-0.0000
2058.00,0.0001
2057.00,0.0002
2056.00,0.0002
2055.00,0.0001
2054.00,0.0003
2053.00,0.0008
2052.00,0.0016
2051.00,0.0023
2050.00,0.0025
2049.00,0.0021
2048.00,0.0014
2047.00,0.0008
2046.00,0.0005
2045.00,0.0005
2044.00,0.0007
2043.00,0.0008
2042.00,0.0008
2041.00,0.0007
2040.00,0.0005
2039.00,0.0001
2038.00,-0.0003
2037.00,-0.0004
2036.00,-0.0002
2035.00,-0.0001
2034.00,-0.0001
2033.00,-0.0003
2032.00,-0.0005
2031.00,-0.0007
2030.00,-0.0007
2029.00,-0.0005
2028.00,-0.0003
2027.00,-0.0003
2026.00,-0.0003
2025.00,-0.0005
2024.00,-0.0005
2023.00,-0.0007
2022.00,-0.0009
2021.00,-0.0012
2020.00,-0.0015
2019.00,-0.0017
2018.00,-0.0017
2017.00,-0.0015
2016.00,-0.0012
2015.00,-0.0010
2014.00,-0.0009
2013.00,-0.0008
2012.00,-0.0007
2011.00,-0.0007
2010.00,-0.0008
2009.00,-0.0012
2008.00,-0.0016
2007.00,-0.0018
2006.00,-0.0018
2005.00,-0.0016
2004.00,-0.0013
2003.00,-0.0012
2002.00,-0.0012
2001.00,-0.0014
2000.00,-0.0015
1999.00,-0.0015
1998.00,-0.0014
1997.00,-0.0012
1996.00,-0.0010
1995.00,-0.0009
1994.00,-0.0009
1993.00,-0.0008
1992.00,-0.0006
1991.00,-0.0005
1990.00,-0.0004
1989.00,-0.0002
1988.00,-0.0000
1987.00,0.0002
1986.00,0.0004
1985.00,0.0006
1984.00,0.0007
1983.00,0.0008
1982.00,0.0010
1981.00,0.0012
1980.00,0.0014
1979.00,0.0013
1978.00,0.0007
1977.00,0.0000
1976.00,-0.0006
1975.00,-0.0011
1974.00,-0.0013
1973.00,-0.0013
1972.00,-0.0013
1971.00,-0.0014
1970.00,-0.0016
1969.00,-0.0017
1968.00,-0.0017
1967.00,-0.0016
1966.00,-0.0016
1965.00,-0.0016
1964.00,-0.0016
1963.00,-0.0015
1962.00,-0.0015
1961.00,-0.0017
1960.00,-0.0019
1959.00,-0.0020
1958.00,-0.0020
1957.00,-0.0017
1956.00,-0.0014
1955.00,-0.0012
1954.00,-0.0011
1953.00,-0.0011
1952.00,-0.0012
1951.00,-0.0013
1950.00,-0.0013
1949.00,-0.0013
1948.00,-0.0014
1947.00,-0.0014
1946.00,-0.0015
1945.00,-0.0014
1944.00,-0.0013
1943.00,-0.0012
1942.00,-0.0012
1941.00,-0.0011
1940.00,-0.0010
1939.00,-0.0010
1938.00,-0.0010
1937.00,-0.0010
1936.00,-0.0009
1935.00,-0.0008
1934.00,-0.0006
1933.00,-0.0006
1932.00,-0.0006
1931.00,-0.0006
1930.00,-0.0006
1929.00,-0.0006
1928.00,-0.0005
1927.00,-0.0005
1926.00,-0.0006
1925.00,-0.0005
1924.00,-0.0005
1923.00,-0.0004
1922.00,-0.0004
1921.00,-0.0003
1920.00,-0.0003
1919.00,-0.0003
1918.00,-0.0003
1917.00,-0.0003
1916.00,-0.0002
1915.00,-0.0001
1914.00,0.0000
1913.00,0.0001
1912.00,0.0000
1911.00,-0.0000
1910.00,-0.0001
1909.00,-0.0001
1908.00,-0.0000
1907.00,-0.0000
1906.00,-0.0000
1905.00,0.0000
1904.00,0.0001
1903.00,0.0001
1902.00,0.0001
1901.00,0.0001
1900.00,0.0001
1899.00,0.0001
1898.00,0.0001
1897.00,0.0002
1896.00,0.0001
1895.00,0.0000
1894.00,0.0000
1893.00,0.0000
1892.00,0.0001
1891.00,0.0002
1890.00,0.0002
1889.00,0.0002
1888.00,0.0002
1887.00,0.0003
1886.00,0.0003
1885.00,0.0004
1884.00,0.0004
1883.00,0.0003
1882.00,0.0002
1881.00,0.0001
1880.00,0.0001
1879.00,-0.0001
1878.00,-0.0002
1877.00,-0.0003
1876.00,-0.0002
1875.00,-0.0002
1874.00,-0.0001
1873.00,-0.0001
1872.00,0.0000
1871.00,0.0000
1870.00,0.0001
1869.00,0.0001
1868.00,0.0002
1867.00,0.0003
1866.00,0.0003
1865.00,0.0003
1864.00,0.0003
1863.00,0.0004
1862.00,0.0004
1861.00,0.0003
1860.00,0.0003
1859.00,0.0002
1858.00,0.0002
1857.00,0.0002
1856.00,0.0002
1855.00,0.0002
1854.00,0.0002
1853.00,0.0003
1852.00,0.0004
1851.00,0.0005
1850.00,0.0005
1849.00,0.0004
1848.00,0.0004
1847.00,0.0004
1846.00,0.0004
1845.00,0.0003
1844.00,0.0003
1843.00,0.0003
1842.00,0.0003
1841.00,0.0004
1840.00,0.0004
1839.00,0.0004
1838.00,0.0004
1837.00,0.0005
1836.00,0.0005
1835.00,0.0005
1834.00,0.0005
1833.00,0.0005
1832.00,0.0005
1831.00,0.0005
1830.00,0.0005
1829.00,0.0005
1828.00,0.0005
1827.00,0.0004
1826.00,0.0004
1825.00,0.0005
1824.00,0.0005
1823.00,0.0005
1822.00,0.0004
1821.00,0.0003
1820.00,0.0003
1819.00,0.0002
1818.00,0.0002
1817.00,0.0002
1816.00,0.0002
1815.00,0.0003
1814.00,0.0004
1813.00,0.0005
1812.00,0.0005
1811.00,0.0006
1810.00,0.0006
1809.00,0.0006
1808.00,0.0006
1807.00,0.0006
1806.00,0.0006
1805.00,0.0005
1804.00,0.0005
1803.00,0.0005
1802.00,0.0006
1801.00,0.0006
1800.00,0.0006
1799.00,0.0006
1798.00,0.0006
1797.00,0.0007
1796.00,0.0007
1795.00,0.0007
1794.00,0.0007
1793.00,0.0007
1792.00,0.0008
1791.00,0.0010
1790.00,0.0010
1789.00,0.0011
1788.00,0.0011
1787.00,0.0011
1786.00,0.0011
1785.00,0.0011
1784.00,0.0011
1783.00,0.0012
1782.00,0.0012
1781.00,0.0012
1780.00,0.0012
1779.00,0.0012
1778.00,0.0012
1777.00,0.0011
1776.00,0.0011
1775.00,0.0012
1774.00,0.0012
1773.00,0.0013
1772.00,0.0014
1771.00,0.0015
1770.00,0.0015
1769.00,0.0016
1768.00,0.0016
1767.00,0.0017
1766.00,0.0017
1765.00,0.0017
1764.00,0.0018
1763.00,0.0018
1762.00,0.0019
1761.00,0.0019
1760.00,0.0020
1759.00,0.0020
1758.00,0.0021
1757.00,0.0022
1756.00,0.0023
1755.00,0.0023
1754.00,0.0024
1753.00,0.0024
1752.00,0.0024
1751.00,0.0024
1750.00,0.0024
1749.00,0.0025
1748.00,0.0026
1747.00,0.0026
1746.00,0.0027
1745.00,0.0027
1744.00,0.0028
1743.00,0.0028
1742.00,0.0028
1741.00,0.0028
1740.00,0.0028
1739.00,0.0029
1738.00,0.0029
1737.00,0.0030
1736.00,0.0030
1735.00,0.0029
1734.00,0.0028
1733.00,0.0028
1732.00,0.0029
1731.00,0.0029
1730.00,0.0029
1729.00,0.0030
1728.00,0.0030
1727.00,0.0031
1726.00,0.0031
1725.00,0.0032
1724.00,0.0032
1723.00,0.0033
1722.00,0.0033
1721.00,0.0033
1720.00,0.0033
1719.00,0.0032
1718.00,0.0030
1717.00,0.0029
1716.00,0.0029
1715.00,0.0029
1714.00,0.0029
1713.00,0.0029
1712.00,0.0029
1711.00,0.0029
1710.00,0.0029
1709.00,0.0029
1708.00,0.0029
1707.00,0.0029
1706.00,0.0029
1705.00,0.0030
1704.00,0.0030
1703.00,0.0031
1702.00,0.0031
1701.00,0.0031
1700.00,0.0032
1699.00,0.0032
1698.00,0.0032
1697.00,0.0033
1696.00,0.0034
1695.00,0.0035
1694.00,0.0035
1693.00,0.0036
1692.00,0.0037
1691.00,0.0038
1690.00,0.0038
1689.00,0.0039
1688.00,0.0039
1687.00,0.0040
1686.00,0.0040
1685.00,0.0041
1684.00,0.0043
1683.00,0.0045
1682.00,0.0047
1681.00,0.0048
1680.00,0.0050
1679.00,0.0051
1678.00,0.0052
1677.00,0.0053
1676.00,0.0054
1675.00,0.0055
1674.00,0.0055
1673.00,0.0056
1672.00,0.0057
1671.00,0.0058
1670.00,0.0060
1669.00,0.0061
1668.00,0.0062
1667.00,0.0063
1666.00,0.0063
1665.00,0.0063
1664.00,0.0064
1663.00,0.0065
1662.00,0.0066
1661.00,0.0067
1660.00,0.0068
1659.00,0.0069
1658.00,0.0069
1657.00,0.0070
1656.00,0.0070
1655.00,0.0071
1654.00,0.0072
1653.00,0.0075
1652.00,0.0077
1651.00,0.0077
1650.00,0.0077
1649.00,0.0078
1648.00,0.0079
1647.00,0.0081
1646.00,0.0082
1645.00,0.0083
1644.00,0.0084
1643.00,0.0085
1642.00,0.0086
1641.00,0.0087
1640.00,0.0088
1639.00,0.0088
1638.00,0.0089
1637.00,0.0089
1636.00,0.0090
1635.00,0.0091
1634.00,0.0090
1633.00,0.0089
1632.00,0.0088
1631.00,0.0087
1630.00,0.0086
1629.00,0.0086
1628.00,0.0086
1627.00,0.0085
1626.00,0.0084
1625.00,0.0084
1624.00,0.0083
1623.00,0.0083
1622.00,0.0083
1621.00,0.0083
1620.00,0.0083
1619.00,0.0083
1618.00,0.0083
1617.00,0.0083
1616.00,0.0083
1615.00,0.0083
1614.00,0.0083
1613.00,0.0083
1612.00,0.0083
1611.00,0.0082
1610.00,0.0082
1609.00,0.0082
1608.00,0.0083
1607.00,0.0084
1606.00,0.0084
1605.00,0.0084
1604.00,0.0083
1603.00,0.0083
1602.00,0.0082
1601.00,0.0082
1600.00,0.0082
1599.00,0.0082
1598.00,0.0082
1597.00,0.0082
1596.00,0.0082
1595.00,0.0082
1594.00,0.0082
1593.00,0.0082
1592.00,0.0082
1591.00,0.0082
1590.00,0.0082
1589.00,0.0082
1588.00,0.0082
1587.00,0.0083
1586.00,0.0083
1585.00,0.0084
1584.00,0.0085
1583.00,0.0086
1582.00,0.0087
1581.00,0.0088
1580.00,0.0090
1579.00,0.0090
1578.00,0.0091
1577.00,0.0091
1576.00,0.0091
1575.00,0.0090
1574.00,0.0090
1573.00,0.0090
1572.00,0.0089
1571.00,0.0088
1570.00,0.0087
1569.00,0.0087
1568.00,0.0087
1567.00,0.0087
1566.00,0.0087
1565.00,0.0087
1564.00,0.0087
1563.00,0.0087
1562.00,0.0087
1561.00,0.0088
1560.00,0.0088
1559.00,0.0088
1558.00,0.0087
1557.00,0.0088
1556.00,0.0089
1555.00,0.0090
1554.00,0.0090
1553.00,0.0091
1552.00,0.0092
1551.00,0.0093
1550.00,0.0094
1549.00,0.0096
1548.00,0.0097
1547.00,0.0098
1546.00,0.0098
1545.00,0.0099
1544.00,0.0100
1543.00,0.0099
1542.00,0.0098
1541.00,0.0097
1540.00,0.0097
1539.00,0.0096
1538.00,0.0094
1537.00,0.0091
1536.00,0.0090
1535.00,0.0087
1534.00,0.0084
1533.00,0.0082
1532.00,0.0080
1531.00,0.0078
1530.00,0.0076
1529.00,0.0075
1528.00,0.0074
1527.00,0.0073
1526.00,0.0071
1525.00,0.0070
1524.00,0.0070
1523.00,0.0070
1522.00,0.0070
1521.00,0.0071
1520.00,0.0072
1519.00,0.0073
1518.00,0.0073
1517.00,0.0073
1516.00,0.0072
1515.00,0.0071
1514.00,0.0071
1513.00,0.0071
1512.00,0.0072
1511.00,0.0073
1510.00,0.0074
1509.00,0.0075
1508.00,0.0075
1507.00,0.0076
1506.00,0.0077
1505.00,0.0078
1504.00,0.0080
1503.00,0.0081
1502.00,0.0083
1501.00,0.0085
1500.00,0.0088
1499.00,0.0091
1498.00,0.0093
1497.00,0.0096
1496.00,0.0100
1495.00,0.0103
1494.00,0.0106
1493.00,0.0109
1492.00,0.0114
1491.00,0.0118
1490.00,0.0122
1489.00,0.0128
1488.00,0.0135
1487.00,0.0140
1486.00,0.0144
1485.00,0.0150
1484.00,0.0157
1483.00,0.0164
1482.00,0.0173
1481.00,0.0184
1480.00,0.0196
1479.00,0.0208
1478.00,0.0222
1477.00,0.0242
1476.00,0.0267
1475.00,0.0297
1474.00,0.0337
1473.00,0.0393
1472.00,0.0460
1471.00,0.0524
1470.00,0.0585
1469.00,0.0648
1468.00,0.0715
1467.00,0.0788
1466.00,0.0869
1465.00,0.0957
1464.00,0.1033
1463.00,0.1086
1462.00,0.1121
1461.00,0.1144
1460.00,0.1161
1459.00,0.1172
1458.00,0.1183
1457.00,0.1194
1456.00,0.1198
1455.00,0.1194
1454.00,0.1186
1453.00,0.1173
1452.00,0.1151
1451.00,0.1117
1450.00,0.1070
1449.00,0.1004
1448.00,0.0918
1447.00,0.0825
1446.00,0.0739
1445.00,0.0665
1444.00,0.0600
1443.00,0.0547
1442.00,0.0507
1441.00,0.0478
1440.00,0.0460
1439.00,0.0450
1438.00,0.0447
1437.00,0.0444
1436.00,0.0433
1435.00,0.0409
1434.00,0.0376
1433.00,0.0336
1432.00,0.0295
1431.00,0.0258
1430.00,0.0229
1429.00,0.0207
1428.00,0.0192
1427.00,0.0182
1426.00,0.0176
1425.00,0.0170
1424.00,0.0164
1423.00,0.0161
1422.00,0.0159
1421.00,0.0156
1420.00,0.0153
1419.00,0.0150
1418.00,0.0148
1417.00,0.0145
1416.00,0.0142
1415.00,0.0140
1414.00,0.0139
1413.00,0.0137
1412.00,0.0134
1411.00,0.0133
1410.00,0.0132
1409.00,0.0131
1408.00,0.0129
1407.00,0.0128
1406.00,0.0128
1405.00,0.0127
1404.00,0.0125
1403.00,0.0125
1402.00,0.0125
1401.00,0.0125
1400.00,0.0125
1399.00,0.0125
1398.00,0.0127
1397.00,0.0128
1396.00,0.0129
1395.00,0.0132
1394.00,0.0136
1393.00,0.0140
1392.00,0.0145
1391.00,0.0152
1390.00,0.0162
1389.00,0.0176
1388.00,0.0196
1387.00,0.0227
1386.00,0.0269
1385.00,0.0323
1384.00,0.0398
1383.00,0.0503
1382.00,0.0643
1381.00,0.0821
1380.00,0.1037
1379.00,0.1278
1378.00,0.1504
1377.00,0.1664
1376.00,0.1709
1375.00,0.1616
1374.00,0.1413
1373.00,0.1172
1372.00,0.0954
1371.00,0.0775
1370.00,0.0632
1369.00,0.0523
1368.00,0.0448
1367.00,0.0401
1366.00,0.0376
1365.00,0.0365
1364.00,0.0366
1363.00,0.0377
1362.00,0.0395
1361.00,0.0414
1360.00,0.0428
1359.00,0.0432
1358.00,0.0423
1357.00,0.0401
1356.00,0.0369
1355.00,0.0334
1354.00,0.0300
1353.00,0.0270
1352.00,0.0246
1351.00,0.0226
1350.00,0.0210
1349.00,0.0198
1348.00,0.0187
1347.00,0.0178
1346.00,0.0171
1345.00,0.0165
1344.00,0.0160
1343.00,0.0154
1342.00,0.0148
1341.00,0.0142
1340.00,0.0138
1339.00,0.0135
1338.00,0.0133
1337.00,0.0131
1336.00,0.0132
1335.00,0.0133
1334.00,0.0135
1333.00,0.0139
1332.00,0.0142
1331.00,0.0145
1330.00,0.0146
1329.00,0.0145
1328.00,0.0142
1327.00,0.0137
1326.00,0.0132
1325.00,0.0127
1324.00,0.0121
1323.00,0.0116
1322.00,0.0113
1321.00,0.0111
1320.00,0.0109
1319.00,0.0108
1318.00,0.0106
1317.00,0.0104
1316.00,0.0103
1315.00,0.0101
1314.00,0.0101
1313.00,0.0102
1312.00,0.0104
1311.00,0.0107
1310.00,0.0112
1309.00,0.0119
1308.00,0.0130
1307.00,0.0143
1306.00,0.0155
1305.00,0.0164
1304.00,0.0165
1303.00,0.0161
1302.00,0.0153
1301.00,0.0146
1300.00,0.0140
1299.00,0.0138
1298.00,0.0137
1297.00,0.0136
1296.00,0.0134
1295.00,0.0131
1294.00,0.0127
1293.00,0.0122
1292.00,0.0117
1291.00,0.0112
1290.00,0.0108
1289.00,0.0105
1288.00,0.0102
1287.00,0.0099
1286.00,0.0097
1285.00,0.0096
1284.00,0.0094
1283.00,0.0093
1282.00,0.0092
1281.00,0.0091
1280.00,0.0090
1279.00,0.0089
1278.00,0.0089
1277.00,0.0088
1276.00,0.0087
1275.00,0.0087
1274.00,0.0086
1273.00,0.0086
1272.00,0.0087
1271.00,0.0087
1270.00,0.0088
1269.00,0.0089
1268.00,0.0091
1267.00,0.0093
1266.00,0.0095
1265.00,0.0098
1264.00,0.0101
1263.00,0.0105
1262.00,0.0109
1261.00,0.0114
1260.00,0.0120
1259.00,0.0128
1258.00,0.0136
1257.00,0.0144
1256.00,0.0147
1255.00,0.0145
1254.00,0.0138
1253.00,0.0128
1252.00,0.0118
1251.00,0.0110
1250.00,0.0105
1249.00,0.0101
1248.00,0.0098
1247.00,0.0095
1246.00,0.0093
1245.00,0.0092
1244.00,0.0091
1243.00,0.0090
1242.00,0.0089
1241.00,0.0089
1240.00,0.0088
1239.00,0.0088
1238.00,0.0088
1237.00,0.0089
1236.00,0.0089
1235.00,0.0089
1234.00,0.0090
1233.00,0.0092
1232.00,0.0094
1231.00,0.0095
1230.00,0.0096
1229.00,0.0097
1228.00,0.0097
1227.00,0.0099
1226.00,0.0100
1225.00,0.0103
1224.00,0.0106
1223.00,0.0109
1222.00,0.0112
1221.00,0.0114
1220.00,0.0117
1219.00,0.0119
1218.00,0.0120
1217.00,0.0119
1216.00,0.0116
1215.00,0.0113
1214.00,0.0110
1213.00,0.0107
1212.00,0.0104
1211.00,0.0102
1210.00,0.0100
1209.00,0.0099
1208.00,0.0098
1207.00,0.0098
1206.00,0.0097
1205.00,0.0097
1204.00,0.0096
1203.00,0.0096
1202.00,0.0095
1201.00,0.0095
1200.00,0.0094
1199.00,0.0093
1198.00,0.0093
1197.00,0.0092
1196.00,0.0092
1195.00,0.0093
1194.00,0.0093
1193.00,0.0093
1192.00,0.0092
1191.00,0.0092
1190.00,0.0091
1189.00,0.0090
1188.00,0.0089
1187.00,0.0089
1186.00,0.0089
1185.00,0.0090
1184.00,0.0091
1183.00,0.0093
1182.00,0.0095
1181.00,0.0097
1180.00,0.0101
1179.00,0.0107
1178.00,0.0114
1177.00,0.0123
1176.00,0.0136
1175.00,0.0153
1174.00,0.0175
1173.00,0.0203
1172.00,0.0236
1171.00,0.0273
1170.00,0.0310
1169.00,0.0339
1168.00,0.0357
1167.00,0.0360
1166.00,0.0350
1165.00,0.0332
1164.00,0.0310
1163.00,0.0288
1162.00,0.0269
1161.00,0.0253
1160.00,0.0241
1159.00,0.0233
1158.00,0.0227
1157.00,0.0222
1156.00,0.0219
1155.00,0.0217
1154.00,0.0215
1153.00,0.0212
1152.00,0.0207
1151.00,0.0201
1150.00,0.0193
1149.00,0.0183
1148.00,0.0174
1147.00,0.0166
1146.00,0.0158
1145.00,0.0151
1144.00,0.0145
1143.00,0.0140
1142.00,0.0135
1141.00,0.0131
1140.00,0.0126
1139.00,0.0121
1138.00,0.0116
1137.00,0.0113
1136.00,0.0111
1135.00,0.0111
1134.00,0.0111
1133.00,0.0111
1132.00,0.0110
1131.00,0.0110
1130.00,0.0110
1129.00,0.0110
1128.00,0.0111
1127.00,0.0113
1126.00,0.0116
1125.00,0.0120
1124.00,0.0123
1123.00,0.0126
1122.00,0.0130
1121.00,0.0133
1120.00,0.0137
1119.00,0.0139
1118.00,0.0141
1117.00,0.0142
1116.00,0.0142
1115.00,0.0143
1114.00,0.0144
1113.00,0.0145
1112.00,0.0145
1111.00,0.0145
1110.00,0.0146
1109.00,0.0148
1108.00,0.0152
1107.00,0.0157
1106.00,0.0163
1105.00,0.0167
1104.00,0.0170
1103.00,0.0171
1102.00,0.0169
1101.00,0.0165
1100.00,0.0159
1099.00,0.0152
1098.00,0.0146
1097.00,0.0141
1096.00,0.0138
1095.00,0.0135
1094.00,0.0132
1093.00,0.0129
1092.00,0.0126
1091.00,0.0125
1090.00,0.0123
1089.00,0.0122
1088.00,0.0121
1087.00,0.0120
1086.00,0.0119
1085.00,0.0118
1084.00,0.0116
1083.00,0.0115
1082.00,0.0114
1081.00,0.0112
1080.00,0.0111
1079.00,0.0110
1078.00,0.0108
1077.00,0.0107
1076.00,0.0106
1075.00,0.0106
1074.00,0.0105
1073.00,0.0105
1072.00,0.0105
1071.00,0.0106
1070.00,0.0106
1069.00,0.0106
1068.00,0.0105
1067.00,0.0106
1066.00,0.0106
1065.00,0.0105
1064.00,0.0105
1063.00,0.0104
1062.00,0.0104
1061.00,0.0105
1060.00,0.0107
1059.00,0.0108
1058.00,0.0109
1057.00,0.0109
1056.00,0.0109
1055.00,0.0110
1054.00,0.0111
1053.00,0.0112
1052.00,0.0114
1051.00,0.0116
1050.00,0.0119
1049.00,0.0123
1048.00,0.0127
1047.00,0.0131
1046.00,0.0134
1045.00,0.0135
1044.00,0.0135
1043.00,0.0133
1042.00,0.0131
1041.00,0.0128
1040.00,0.0126
1039.00,0.0124
1038.00,0.0123
1037.00,0.0123
1036.00,0.0123
1035.00,0.0124
1034.00,0.0123
1033.00,0.0122
1032.00,0.0119
1031.00,0.0117
1030.00,0.0116
1029.00,0.0114
1028.00,0.0113
1027.00,0.0112
1026.00,0.0112
1025.00,0.0111
1024.00,0.0111
1023.00,0.0111
1022.00,0.0111
1021.00,0.0111
1020.00,0.0111
1019.00,0.0112
1018.00,0.0113
1017.00,0.0114
1016.00,0.0115
1015.00,0.0116
1014.00,0.0117
1013.00,0.0118
1012.00,0.0121
1011.00,0.0123
1010.00,0.0127
1009.00,0.0131
1008.00,0.0136
1007.00,0.0143
1006.00,0.0153
1005.00,0.0168
1004.00,0.0187
1003.00,0.0214
1002.00,0.0250
1001.00,0.0294
1000.00,0.0342
999.00,0.0384
998.00,0.0406
997.00,0.0401
996.00,0.0369
995.00,0.0323
994.00,0.0273
993.00,0.0231
992.00,0.0198
991.00,0.0175
990.00,0.0158
989.00,0.0147
988.00,0.0139
987.00,0.0136
986.00,0.0135
985.00,0.0136
984.00,0.0140
983.00,0.0145
982.00,0.0154
981.00,0.0170
980.00,0.0193
979.00,0.0223
978.00,0.0262
977.00,0.0308
976.00,0.0359
975.00,0.0409
974.00,0.0449
973.00,0.0467
972.00,0.0454
971.00,0.0412
970.00,0.0353
969.00,0.0291
968.00,0.0238
967.00,0.0198
966.00,0.0171
965.00,0.0151
964.00,0.0136
963.00,0.0125
962.00,0.0116
961.00,0.0109
960.00,0.0103
959.00,0.0097
958.00,0.0093
957.00,0.0090
956.00,0.0087
955.00,0.0085
954.00,0.0084
953.00,0.0083
952.00,0.0082
951.00,0.0082
950.00,0.0082
949.00,0.0083
948.00,0.0082
947.00,0.0082
946.00,0.0081
945.00,0.0082
944.00,0.0085
943.00,0.0089
942.00,0.0093
941.00,0.0095
940.00,0.0096
939.00,0.0094
938.00,0.0091
937.00,0.0086
936.00,0.0082
935.00,0.0079
934.00,0.0077
933.00,0.0076
932.00,0.0076
931.00,0.0076
930.00,0.0076
929.00,0.0075
928.00,0.0074
927.00,0.0073
926.00,0.0072
925.00,0.0073
924.00,0.0074
923.00,0.0075
922.00,0.0075
921.00,0.0075
920.00,0.0074
919.00,0.0074
918.00,0.0074
917.00,0.0075
916.00,0.0076
915.00,0.0077
914.00,0.0078
913.00,0.0079
912.00,0.0081
911.00,0.0082
910.00,0.0085
909.00,0.0087
908.00,0.0090
907.00,0.0095
906.00,0.0101
905.00,0.0110
904.00,0.0122
903.00,0.0137
902.00,0.0153
901.00,0.0168
900.00,0.0178
899.00,0.0181
898.00,0.0175
897.00,0.0162
896.00,0.0146
895.00,0.0130
894.00,0.0117
893.00,0.0107
892.00,0.0100
891.00,0.0096
890.00,0.0092
889.00,0.0090
888.00,0.0089
887.00,0.0088
886.00,0.0087
885.00,0.0086
884.00,0.0086
883.00,0.0087
882.00,0.0089
881.00,0.0091
880.00,0.0091
879.00,0.0092
878.00,0.0092
877.00,0.0092
876.00,0.0093
875.00,0.0094
874.00,0.0094
873.00,0.0094
872.00,0.0093
871.00,0.0092
870.00,0.0091
869.00,0.0091
868.00,0.0091
867.00,0.0092
866.00,0.0092
865.00,0.0091
864.00,0.0091
863.00,0.0093
862.00,0.0095
861.00,0.0097
860.00,0.0098
859.00,0.0099
858.00,0.0100
857.00,0.0101
856.00,0.0102
855.00,0.0103
854.00,0.0105
853.00,0.0108
852.00,0.0112
851.00,0.0117
850.00,0.0123
849.00,0.0130
848.00,0.0141
847.00,0.0158
846.00,0.0184
845.00,0.0224
844.00,0.0279
843.00,0.0343
842.00,0.0397
841.00,0.0415
840.00,0.0389
839.00,0.0330
838.00,0.0263
837.00,0.0210
836.00,0.0175
835.00,0.0155
834.00,0.0144
833.00,0.0137
832.00,0.0132
831.00,0.0129
830.00,0.0126
829.00,0.0123
828.00,0.0120
827.00,0.0118
826.00,0.0115
825.00,0.0114
824.00,0.0113
823.00,0.0113
822.00,0.0114
821.00,0.0116
820.00,0.0118
819.00,0.0120
818.00,0.0123
817.00,0.0127
816.00,0.0134
815.00,0.0144
814.00,0.0159
813.00,0.0176
812.00,0.0194
811.00,0.0210
810.00,0.0221
809.00,0.0226
808.00,0.0222
807.00,0.0211
806.00,0.0195
805.00,0.0179
804.00,0.0163
803.00,0.0152
802.00,0.0144
801.00,0.0138
800.00,0.0133
799.00,0.0128
798.00,0.0124
797.00,0.0121
796.00,0.0118
795.00,0.0116
794.00,0.0113
793.00,0.0109
792.00,0.0106
791.00,0.0102
790.00,0.0099
789.00,0.0097
788.00,0.0094
787.00,0.0092
786.00,0.0090
785.00,0.0088
784.00,0.0086
783.00,0.0084
782.00,0.0082
781.00,0.0082
780.00,0.0081
779.00,0.0081
778.00,0.0082
777.00,0.0083
776.00,0.0083
775.00,0.0084
774.00,0.0084
773.00,0.0084
772.00,0.0083
771.00,0.0083
770.00,0.0084
769.00,0.0085
768.00,0.0085
767.00,0.0085
766.00,0.0083
765.00,0.0082
764.00,0.0081
763.00,0.0081
762.00,0.0083
761.00,0.0085
760.00,0.0087
759.00,0.0089
758.00,0.0090
757.00,0.0090
756.00,0.0090
755.00,0.0091
754.00,0.0091
753.00,0.0091
752.00,0.0091
751.00,0.0092
750.00,0.0093
749.00,0.0095
748.00,0.0097
747.00,0.0100
746.00,0.0102
745.00,0.0103
744.00,0.0104
743.00,0.0105
742.00,0.0108
741.00,0.0112
740.00,0.0116
739.00,0.0120
738.00,0.0125
737.00,0.0131
736.00,0.0137
735.00,0.0143
734.00,0.0149
733.00,0.0156
732.00,0.0164
731.00,0.0172
730.00,0.0178
729.00,0.0181
728.00,0.0180
727.00,0.0177
726.00,0.0177
725.00,0.0180
724.00,0.0186
723.00,0.0194
722.00,0.0202
721.00,0.0206
720.00,0.0205
719.00,0.0196
718.00,0.0183
717.00,0.0170
716.00,0.0158
715.00,0.0149
714.00,0.0142
713.00,0.0137
712.00,0.0132
711.00,0.0129
710.00,0.0127
709.00,0.0126
708.00,0.0127
707.00,0.0127
706.00,0.0128
705.00,0.0128
704.00,0.0128
703.00,0.0126
702.00,0.0123
701.00,0.0120
700.00,0.0118
699.00,0.0117
698.00,0.0116
697.00,0.0116
696.00,0.0117
695.00,0.0117
694.00,0.0116
693.00,0.0114
692.00,0.0112
691.00,0.0110
690.00,0.0109
689.00,0.0108
688.00,0.0108
687.00,0.0109
686.00,0.0109
685.00,0.0108
684.00,0.0107
683.00,0.0106
682.00,0.0105
681.00,0.0105
680.00,0.0105
679.00,0.0106
678.00,0.0107
677.00,0.0107
676.00,0.0107
675.00,0.0108
674.00,0.0108
673.00,0.0109
672.00,0.0110
671.00,0.0111
670.00,0.0113
669.00,0.0114
668.00,0.0114
667.00,0.0112
666.00,0.0110
665.00,0.0110
664.00,0.0110
663.00,0.0110
662.00,0.0109
661.00,0.0107
660.00,0.0106
659.00,0.0105
658.00,0.0105
657.00,0.0106
656.00,0.0108
655.00,0.0108
654.00,0.0108
653.00,0.0108
652.00,0.0107
651.00,0.0106
650.00,0.0105
649.00,0.0105
648.00,0.0105
647.00,0.0105
646.00,0.0105
645.00,0.0105
644.00,0.0105
643.00,0.0106
642.00,0.0106
641.00,0.0105
640.00,0.0104
639.00,0.0102
638.00,0.0102
637.00,0.0102
636.00,0.0103
635.00,0.0103
634.00,0.0103
633.00,0.0102
632.00,0.0102
631.00,0.0102
630.00,0.0104
629.00,0.0105
628.00,0.0106
627.00,0.0108
626.00,0.0108
625.00,0.0109
624.00,0.0109
623.00,0.0109
622.00,0.0109
621.00,0.0109
620.00,0.0109
619.00,0.0108
618.00,0.0106
617.00,0.0105
616.00,0.0104
615.00,0.0103
614.00,0.0103
613.00,0.0104
612.00,0.0105
611.00,0.0105
610.00,0.0104
609.00,0.0103
608.00,0.0103
607.00,0.0104
606.00,0.0105
605.00,0.0107
604.00,0.0108
603.00,0.0108
602.00,0.0109
601.00,0.0109
600.00,0.0108
599.00,0.0107
598.00,0.0105
597.00,0.0104
596.00,0.0104
595.00,0.0105
594.00,0.0106
593.00,0.0107
592.00,0.0107
591.00,0.0106
590.00,0.0105
589.00,0.0105
588.00,0.0107
587.00,0.0108
586.00,0.0108
585.00,0.0107
584.00,0.0105
583.00,0.0104
582.00,0.0106
581.00,0.0108
580.00,0.0111
579.00,0.0113
578.00,0.0115
577.00,0.0116
576.00,0.0117
575.00,0.0119
574.00,0.0121
573.00,0.0121
572.00,0.0118
571.00,0.0112
570.00,0.0106
569.00,0.0102
568.00,0.0101
567.00,0.0103
566.00,0.0105
565.00,0.0109
564.00,0.0114
563.00,0.0118
562.00,0.0120
561.00,0.0119
560.00,0.0116
559.00,0.0112
558.00,0.0109
557.00,0.0107
556.00,0.0105
555.00,0.0103
554.00,0.0100
553.00,0.0098
552.00,0.0097
551.00,0.0100
550.00,0.0105
549.00,0.0110
548.00,0.0112
547.00,0.0110
546.00,0.0107
545.00,0.0106
544.00,0.0108
543.00,0.0111
542.00,0.0113
541.00,0.0117
540.00,0.0122
539.00,0.0128
538.00,0.0131
537.00,0.0129
536.00,0.0124
535.00,0.0120
534.00,0.0118
533.00,0.0118
532.00,0.0121
531.00,0.0123
530.00,0.0122
529.00,0.0118
528.00,0.0116
527.00,0.0120
526.00,0.0128
525.00,0.0136
524.00,0.0140
523.00,0.0141
522.00,0.0141
521.00,0.0139
520.00,0.0133
519.00,0.0125
518.00,0.0118
517.00,0.0114
516.00,0.0115
515.00,0.0118
514.00,0.0121
513.00,0.0120
512.00,0.0114
511.00,0.0107
510.00,0.0100
509.00,0.0096
508.00,0.0094
507.00,0.0094
506.00,0.0093
505.00,0.0092
504.00,0.0094
503.00,0.0099
502.00,0.0105
501.00,0.0108
500.00,0.0106
499.00,0.0103
498.00,0.0104
497.00,0.0108
496.00,0.0110
495.00,0.0106
494.00,0.0098
493.00,0.0093
492.00,0.0098
491.00,0.0108
490.00,0.0115
489.00,0.0112
488.00,0.0101
487.00,0.0092
486.00,0.0093
485.00,0.0104
484.00,0.0118
483.00,0.0125
482.00,0.0124
481.00,0.0116
480.00,0.0107
479.00,0.0100
478.00,0.0098
477.00,0.0099
476.00,0.0102
475.00,0.0105
474.00,0.0107
473.00,0.0109
472.00,0.0112
471.00,0.0116
470.00,0.0120
469.00,0.0125
468.00,0.0130
467.00,0.0137
466.00,0.0143
465.00,0.0147
464.00,0.0149
463.00,0.0155
462.00,0.0171
461.00,0.0191
460.00,0.0207
459.00,0.0208
458.00,0.0196
457.00,0.0183
456.00,0.0176
455.00,0.0172
454.00,0.0165
453.00,0.0155
452.00,0.0142
451.00,0.0136
450.00,0.0130
