Created as New Dataset,Sample 074 By Administrator Date Thursday, September 04 2025
cm-1,A
4000.00,0.0008
3999.00,0.0008
3998.00,0.0008
3997.00,0.0008
3996.00,0.0008
3995.00,0.0008
3994.00,0.0009
3993.00,0.0009
3992.00,0.0008
3991.00,0.0008
3990.00,0.0008
3989.00,0.0008
3988.00,0.0008
3987.00,0.0008
3986.00,0.0007
3985.00,0.0007
3984.00,0.0007
3983.00,0.0007
3982.00,0.0007
3981.00,0.0007
3980.00,0.0008
3979.00,0.0008
3978.00,0.0007
3977.00,0.0007
3976.00,0.0007
3975.00,0.0007
3974.00,0.0007
3973.00,0.0007
3972.00,0.0006
3971.00,0.0006
3970.00,0.0006
3969.00,0.0006
3968.00,0.0006
3967.00,0.0007
3966.00,0.0007
3965.00,0.0007
3964.00,0.0008
3963.00,0.0008
3962.00,0.0008
3961.00,0.0008
3960.00,0.0007
3959.00,0.0007
3958.00,0.0006
3957.00,0.0006
3956.00,0.0006
3955.00,0.0007
3954.00,0.0007
3953.00,0.0008
3952.00,0.0008
3951.00,0.0008
3950.00,0.0008
3949.00,0.0007
3948.00,0.0007
3947.00,0.0007
3946.00,0.0007
3945.00,0.0007
3944.00,0.0007
3943.00,0.0007
3942.00,0.0007
3941.00,0.0007
3940.00,0.0007
3939.00,0.0007
3938.00,0.0007
3937.00,0.0007
3936.00,0.0007
3935.00,0.0007
3934.00,0.0007
3933.00,0.0007
3932.00,0.0007
3931.00,0.0007
3930.00,0.0006
3929.00,0.0006
3928.00,0.0006
3927.00,0.0007
3926.00,0.0007
3925.00,0.0007
3924.00,0.0007
3923.00,0.0007
3922.00,0.0007
3921.00,0.0007
3920.00,0.0007
3919.00,0.0006
3918.00,0.0006
3917.00,0.0006
3916.00,0.0005
3915.00,0.0005
3914.00,0.0005
3913.00,0.0005
3912.00,0.0006
3911.00,0.0006
3910.00,0.0007
3909.00,0.0007
3908.00,0.0007
3907.00,0.0007
3906.00,0.0007
3905.00,0.0006
3904.00,0.0006
3903.00,0.0005
3902.00,0.0006
3901.00,0.0006
3900.00,0.0006
3899.00,0.0007
3898.00,0.0006
3897.00,0.0006
3896.00,0.0006
3895.00,0.0006
3894.00,0.0007
3893.00,0.0007
3892.00,0.0007
3891.00,0.0006
3890.00,0.0006
3889.00,0.0006
3888.00,0.0006
3887.00,0.0005
3886.00,0.0006
3885.00,0.0006
3884.00,0.0007
3883.00,0.0007
3882.00,0.0007
3881.00,0.0006
3880.00,0.0006
3879.00,0.0006
3878.00,0.0006
3877.00,0.0005
3876.00,0.0005
3875.00,0.0005
3874.00,0.0006
3873.00,0.0006
3872.00,0.0006
3871.00,0.0005
3870.00,0.0005
3869.00,0.0006
3868.00,0.0006
3867.00,0.0005
3866.00,0.0005
3865.00,0.0005
3864.00,0.0005
3863.00,0.0004
3862.00,0.0004
3861.00,0.0004
3860.00,0.0004
3859.00,0.0005
3858.00,0.0006
3857.00,0.0006
3856.00,0.0007
3855.00,0.0007
3854.00,0.0006
3853.00,0.0006
3852.00,0.0006
3851.00,0.0006
3850.00,0.0005
3849.00,0.0005
3848.00,0.0004
3847.00,0.0004
3846.00,0.0004
3845.00,0.0004
3844.00,0.0004
3843.00,0.0005
3842.00,0.0005
3841.00,0.0005
3840.00,0.0006
3839.00,0.0006
3838.00,0.0007
3837.00,0.0007
3836.00,0.0007
3835.00,0.0006
3834.00,0.0006
3833.00,0.0005
3832.00,0.0005
3831.00,0.0005
3830.00,0.0004
3829.00,0.0004
3828.00,0.0004
3827.00,0.0004
3826.00,0.0004
3825.00,0.0005
3824.00,0.0005
3823.00,0.0005
3822.00,0.0005
3821.00,0.0005
3820.00,0.0005
3819.00,0.0005
3818.00,0.0005
3817.00,0.0005
3816.00,0.0005
3815.00,0.0006
3814.00,0.0006
3813.00,0.0006
3812.00,0.0006
3811.00,0.0006
3810.00,0.0006
3809.00,0.0006
3808.00,0.0005
3807.00,0.0005
3806.00,0.0006
3805.00,0.0006
3804.00,0.0006
3803.00,0.0006
3802.00,0.0005
3801.00,0.0006
3800.00,0.0006
3799.00,0.0005
3798.00,0.0005
3797.00,0.0005
3796.00,0.0005
3795.00,0.0005
3794.00,0.0005
3793.00,0.0005
3792.00,0.0006
3791.00,0.0006
3790.00,0.0006
3789.00,0.0006
3788.00,0.0006
3787.00,0.0006
3786.00,0.0006
3785.00,0.0006
3784.00,0.0006
3783.00,0.0005
3782.00,0.0005
3781.00,0.0005
3780.00,0.0005
3779.00,0.0006
3778.00,0.0006
3777.00,0.0006
3776.00,0.0006
3775.00,0.0006
3774.00,0.0006
3773.00,0.0006
3772.00,0.0006
3771.00,0.0005
3770.00,0.0005
3769.00,0.0005
3768.00,0.0005
3767.00,0.0005
3766.00,0.0005
3765.00,0.0005
3764.00,0.0005
3763.00,0.0005
3762.00,0.0005
3761.00,0.0005
3760.00,0.0006
3759.00,0.0006
3758.00,0.0006
3757.00,0.0005
3756.00,0.0005
3755.00,0.0005
3754.00,0.0004
3753.00,0.0004
3752.00,0.0004
3751.00,0.0003
3750.00,0.0003
3749.00,0.0004
3748.00,0.0004
3747.00,0.0005
3746.00,0.0004
3745.00,0.0004
3744.00,0.0005
3743.00,0.0005
3742.00,0.0005
3741.00,0.0004
3740.00,0.0004
3739.00,0.0003
3738.00,0.0003
3737.00,0.0003
3736.00,0.0003
3735.00,0.0003
3734.00,0.0003
3733.00,0.0003
3732.00,0.0003
3731.00,0.0004
3730.00,0.0004
3729.00,0.0004
3728.00,0.0003
3727.00,0.0004
3726.00,0.0004
3725.00,0.0004
3724.00,0.0004
3723.00,0.0004
3722.00,0.0004
3721.00,0.0004
3720.00,0.0003
3719.00,0.0003
3718.00,0.0003
3717.00,0.0003
3716.00,0.0003
3715.00,0.0003
3714.00,0.0003
3713.00,0.0003
3712.00,0.0004
3711.00,0.0004
3710.00,0.0004
3709.00,0.0004
3708.00,0.0004
3707.00,0.0004
3706.00,0.0004
3705.00,0.0004
3704.00,0.0004
3703.00,0.0004
3702.00,0.0004
3701.00,0.0005
3700.00,0.0005
3699.00,0.0005
3698.00,0.0005
3697.00,0.0005
3696.00,0.0005
3695.00,0.0005
3694.00,0.0004
3693.00,0.0004
3692.00,0.0004
3691.00,0.0005
3690.00,0.0004
3689.00,0.0004
3688.00,0.0003
3687.00,0.0003
3686.00,0.0003
3685.00,0.0002
3684.00,0.0002
3683.00,0.0002
3682.00,0.0002
3681.00,0.0003
3680.00,0.0003
3679.00,0.0003
3678.00,0.0003
3677.00,0.0003
3676.00,0.0002
3675.00,0.0002
3674.00,0.0002
3673.00,0.0001
3672.00,-0.0000
3671.00,-0.0000
3670.00,0.0000
3669.00,0.0001
3668.00,0.0001
3667.00,0.0001
3666.00,0.0001
3665.00,0.0001
3664.00,0.0001
3663.00,0.0002
3662.00,0.0002
3661.00,0.0002
3660.00,0.0002
3659.00,0.0001
3658.00,0.0001
3657.00,0.0001
3656.00,0.0001
3655.00,0.0001
3654.00,0.0001
3653.00,0.0000
3652.00,-0.0000
3651.00,-0.0001
3650.00,-0.0001
3649.00,0.0000
3648.00,0.0001
3647.00,0.0003
3646.00,0.0003
3645.00,0.0003
3644.00,0.0003
3643.00,0.0004
3642.00,0.0004
3641.00,0.0004
3640.00,0.0004
3639.00,0.0005
3638.00,0.0005
3637.00,0.0005
3636.00,0.0005
3635.00,0.0005
3634.00,0.0006
3633.00,0.0006
3632.00,0.0006
3631.00,0.0005
3630.00,0.0005
3629.00,0.0005
3628.00,0.0005
3627.00,0.0005
3626.00,0.0006
3625.00,0.0006
3624.00,0.0006
3623.00,0.0007
3622.00,0.0007
3621.00,0.0008
3620.00,0.0008
3619.00,0.0009
3618.00,0.0009
3617.00,0.0010
3616.00,0.0010
3615.00,0.0010
3614.00,0.0009
3613.00,0.0009
3612.00,0.0009
3611.00,0.0009
3610.00,0.0009
3609.00,0.0010
3608.00,0.0010
3607.00,0.0011
3606.00,0.0011
3605.00,0.0011
3604.00,0.0012
3603.00,0.0012
3602.00,0.0013
3601.00,0.0014
3600.00,0.0014
3599.00,0.0014
3598.00,0.0013
3597.00,0.0013
3596.00,0.0012
3595.00,0.0012
3594.00,0.0012
3593.00,0.0012
3592.00,0.0013
3591.00,0.0013
3590.00,0.0013
3589.00,0.0014
3588.00,0.0014
3587.00,0.0014
3586.00,0.0015
3585.00,0.0015
3584.00,0.0016
3583.00,0.0016
3582.00,0.0017
3581.00,0.0018
3580.00,0.0018
3579.00,0.0019
3578.00,0.0019
3577.00,0.0018
3576.00,0.0018
3575.00,0.0018
3574.00,0.0019
3573.00,0.0019
3572.00,0.0020
3571.00,0.0020
3570.00,0.0020
3569.00,0.0020
3568.00,0.0020
3567.00,0.0021
3566.00,0.0021
3565.00,0.0021
3564.00,0.0021
3563.00,0.0021
3562.00,0.0022
3561.00,0.0023
3560.00,0.0023
3559.00,0.0024
3558.00,0.0024
3557.00,0.0024
3556.00,0.0025
3555.00,0.0025
3554.00,0.0025
3553.00,0.0025
3552.00,0.0025
3551.00,0.0025
3550.00,0.0025
3549.00,0.0025
3548.00,0.0026
3547.00,0.0026
3546.00,0.0027
3545.00,0.0027
3544.00,0.0028
3543.00,0.0029
3542.00,0.0029
3541.00,0.0029
3540.00,0.0030
3539.00,0.0030
3538.00,0.0030
3537.00,0.0030
3536.00,0.0031
3535.00,0.0031
3534.00,0.0031
3533.00,0.0031
3532.00,0.0032
3531.00,0.0032
3530.00,0.0032
3529.00,0.0033
3528.00,0.0033
3527.00,0.0033
3526.00,0.0033
3525.00,0.0034
3524.00,0.0034
3523.00,0.0035
3522.00,0.0036
3521.00,0.0036
3520.00,0.0037
3519.00,0.0037
3518.00,0.0037
3517.00,0.0038
3516.00,0.0038
3515.00,0.0038
3514.00,0.0039
3513.00,0.0040
3512.00,0.0040
3511.00,0.0040
3510.00,0.0040
3509.00,0.0040
3508.00,0.0040
3507.00,0.0040
3506.00,0.0040
3505.00,0.0040
3504.00,0.0040
3503.00,0.0041
3502.00,0.0041
3501.00,0.0042
3500.00,0.0043
3499.00,0.0043
3498.00,0.0043
3497.00,0.0044
3496.00,0.0044
3495.00,0.0044
3494.00,0.0044
3493.00,0.0044
3492.00,0.0045
3491.00,0.0045
3490.00,0.0045
3489.00,0.0046
3488.00,0.0047
3487.00,0.0047
3486.00,0.0048
3485.00,0.0048
3484.00,0.0049
3483.00,0.0049
3482.00,0.0049
3481.00,0.0049
3480.00,0.0050
3479.00,0.0050
3478.00,0.0051
3477.00,0.0051
3476.00,0.0051
3475.00,0.0051
3474.00,0.0051
3473.00,0.0052
3472.00,0.0053
3471.00,0.0053
3470.00,0.0053
3469.00,0.0053
3468.00,0.0053
3467.00,0.0053
3466.00,0.0053
3465.00,0.0054
3464.00,0.0054
3463.00,0.0055
3462.00,0.0056
3461.00,0.0056
3460.00,0.0056
3459.00,0.0057
3458.00,0.0057
3457.00,0.0058
3456.00,0.0058
3455.00,0.0058
3454.00,0.0058
3453.00,0.0059
3452.00,0.0059
3451.00,0.0059
3450.00,0.0059
3449.00,0.0059
3448.00,0.0059
3447.00,0.0059
3446.00,0.0059
3445.00,0.0060
3444.00,0.0060
3443.00,0.0060
3442.00,0.0061
3441.00,0.0061
3440.00,0.0061
3439.00,0.0062
3438.00,0.0062
3437.00,0.0062
3436.00,0.0062
3435.00,0.0063
3434.00,0.0063
3433.00,0.0063
3432.00,0.0063
3431.00,0.0064
3430.00,0.0064
3429.00,0.0064
3428.00,0.0064
3427.00,0.0064
3426.00,0.0065
3425.00,0.0065
3424.00,0.0065
3423.00,0.0065
3422.00,0.0066
3421.00,0.0066
3420.00,0.0067
3419.00,0.0067
3418.00,0.0068
3417.00,0.0068
3416.00,0.0068
3415.00,0.0068
3414.00,0.0068
3413.00,0.0068
3412.00,0.0068
3411.00,0.0068
3410.00,0.0068
3409.00,0.0069
3408.00,0.0069
3407.00,0.0069
3406.00,0.0070
3405.00,0.0071
3404.00,0.0071
3403.00,0.0072
3402.00,0.0073
3401.00,0.0074
3400.00,0.0074
3399.00,0.0074
3398.00,0.0074
3397.00,0.0074
3396.00,0.0075
3395.00,0.0075
3394.00,0.0075
3393.00,0.0075
3392.00,0.0075
3391.00,0.0075
3390.00,0.0075
3389.00,0.0075
3388.00,0.0074
3387.00,0.0074
3386.00,0.0074
3385.00,0.0074
3384.00,0.0074
3383.00,0.0073
3382.00,0.0074
3381.00,0.0074
3380.00,0.0074
3379.00,0.0074
3378.00,0.0074
3377.00,0.0074
3376.00,0.0074
3375.00,0.0074
3374.00,0.0074
3373.00,0.0073
3372.00,0.0073
3371.00,0.0073
3370.00,0.0073
3369.00,0.0073
3368.00,0.0074
3367.00,0.0074
3366.00,0.0074
3365.00,0.0075
3364.00,0.0075
3363.00,0.0075
3362.00,0.0075
3361.00,0.0074
3360.00,0.0074
3359.00,0.0074
3358.00,0.0074
3357.00,0.0074
3356.00,0.0074
3355.00,0.0074
3354.00,0.0074
3353.00,0.0074
3352.00,0.0074
3351.00,0.0074
3350.00,0.0074
3349.00,0.0074
3348.00,0.0074
3347.00,0.0073
3346.00,0.0073
3345.00,0.0073
3344.00,0.0073
3343.00,0.0073
3342.00,0.0073
3341.00,0.0072
3340.00,0.0072
3339.00,0.0072
3338.00,0.0072
3337.00,0.0073
3336.00,0.0073
3335.00,0.0073
3334.00,0.0073
3333.00,0.0073
3332.00,0.0073
3331.00,0.0073
3330.00,0.0073
3329.00,0.0073
3328.00,0.0073
3327.00,0.0073
3326.00,0.0073
3325.00,0.0072
3324.00,0.0072
3323.00,0.0072
3322.00,0.0072
3321.00,0.0072
3320.00,0.0071
3319.00,0.0071
3318.00,0.0071
3317.00,0.0071
3316.00,0.0071
3315.00,0.0072
3314.00,0.0072
3313.00,0.0072
3312.00,0.0072
3311.00,0.0072
3310.00,0.0072
3309.00,0.0072
3308.00,0.0072
3307.00,0.0072
3306.00,0.0072
3305.00,0.0072
3304.00,0.0072
3303.00,0.0072
3302.00,0.0072
3301.00,0.0072
3300.00,0.0072
3299.00,0.0072
3298.00,0.0072
3297.00,0.0072
3296.00,0.0071
3295.00,0.0071
3294.00,0.0071
3293.00,0.0070
3292.00,0.0070
3291.00,0.0070
3290.00,0.0070
3289.00,0.0070
3288.00,0.0069
3287.00,0.0068
3286.00,0.0068
3285.00,0.0067
3284.00,0.0067
3283.00,0.0067
3282.00,0.0067
3281.00,0.0067
3280.00,0.0067
3279.00,0.0067
3278.00,0.0066
3277.00,0.0066
3276.00,0.0066
3275.00,0.0066
3274.00,0.0065
3273.00,0.0064
3272.00,0.0064
3271.00,0.0063
3270.00,0.0063
3269.00,0.0063
3268.00,0.0063
3267.00,0.0063
3266.00,0.0063
3265.00,0.0063
3264.00,0.0063
3263.00,0.0063
3262.00,0.0062
3261.00,0.0062
3260.00,0.0062
3259.00,0.0062
3258.00,0.0062
3257.00,0.0061
3256.00,0.0061
3255.00,0.0061
3254.00,0.0060
3253.00,0.0059
3252.00,0.0059
3251.00,0.0059
3250.00,0.0059
3249.00,0.0059
3248.00,0.0059
3247.00,0.0058
3246.00,0.0058
3245.00,0.0058
3244.00,0.0057
3243.00,0.0057
3242.00,0.0057
3241.00,0.0057
3240.00,0.0057
3239.00,0.0057
3238.00,0.0057
3237.00,0.0058
3236.00,0.0058
3235.00,0.0058
3234.00,0.0058
3233.00,0.0058
3232.00,0.0058
3231.00,0.0058
3230.00,0.0058
3229.00,0.0058
3228.00,0.0058
3227.00,0.0059
3226.00,0.0059
3225.00,0.0059
3224.00,0.0059
3223.00,0.0059
3222.00,0.0059
3221.00,0.0059
3220.00,0.0059
3219.00,0.0058
3218.00,0.0058
3217.00,0.0058
3216.00,0.0058
3215.00,0.0058
3214.00,0.0058
3213.00,0.0059
3212.00,0.0059
3211.00,0.0059
3210.00,0.0060
3209.00,0.0060
3208.00,0.0060
3207.00,0.0060
3206.00,0.0060
3205.00,0.0060
3204.00,0.0060
3203.00,0.0060
3202.00,0.0060
3201.00,0.0060
3200.00,0.0060
3199.00,0.0060
3198.00,0.0060
3197.00,0.0060
3196.00,0.0060
3195.00,0.0059
3194.00,0.0059
3193.00,0.0059
3192.00,0.0059
3191.00,0.0059
3190.00,0.0059
3189.00,0.0059
3188.00,0.0059
3187.00,0.0059
3186.00,0.0059
3185.00,0.0059
3184.00,0.0059
3183.00,0.0058
3182.00,0.0058
3181.00,0.0057
3180.00,0.0057
3179.00,0.0057
3178.00,0.0057
3177.00,0.0056
3176.00,0.0056
3175.00,0.0056
3174.00,0.0056
3173.00,0.0056
3172.00,0.0055
3171.00,0.0054
3170.00,0.0054
3169.00,0.0054
3168.00,0.0054
3167.00,0.0054
3166.00,0.0053
3165.00,0.0053
3164.00,0.0053
3163.00,0.0053
3162.00,0.0052
3161.00,0.0052
3160.00,0.0052
3159.00,0.0052
3158.00,0.0052
3157.00,0.0051
3156.00,0.0051
3155.00,0.0051
3154.00,0.0050
3153.00,0.0050
3152.00,0.0050
3151.00,0.0050
3150.00,0.0050
3149.00,0.0050
3148.00,0.0050
3147.00,0.0050
3146.00,0.0050
3145.00,0.0049
3144.00,0.0049
3143.00,0.0049
3142.00,0.0048
3141.00,0.0048
3140.00,0.0048
3139.00,0.0048
3138.00,0.0047
3137.00,0.0047
3136.00,0.0047
3135.00,0.0047
3134.00,0.0046
3133.00,0.0046
3132.00,0.0046
3131.00,0.0045
3130.00,0.0045
3129.00,0.0045
3128.00,0.0046
3127.00,0.0046
3126.00,0.0045
3125.00,0.0045
3124.00,0.0044
3123.00,0.0043
3122.00,0.0043
3121.00,0.0042
3120.00,0.0042
3119.00,0.0042
3118.00,0.0042
3117.00,0.0042
3116.00,0.0042
3115.00,0.0042
3114.00,0.0042
3113.00,0.0042
3112.00,0.0041
3111.00,0.0041
3110.00,0.0041
3109.00,0.0040
3108.00,0.0040
3107.00,0.0040
3106.00,0.0040
3105.00,0.0040
3104.00,0.0040
3103.00,0.0039
3102.00,0.0039
3101.00,0.0039
3100.00,0.0039
3099.00,0.0039
3098.00,0.0039
3097.00,0.0039
3096.00,0.0039
3095.00,0.0039
3094.00,0.0039
3093.00,0.0039
3092.00,0.0039
3091.00,0.0038
3090.00,0.0038
3089.00,0.0038
3088.00,0.0038
3087.00,0.0038
3086.00,0.0039
3085.00,0.0039
3084.00,0.0038
3083.00,0.0038
3082.00,0.0037
3081.00,0.0036
3080.00,0.0036
3079.00,0.0036
3078.00,0.0036
3077.00,0.0037
3076.00,0.0037
3075.00,0.0037
3074.00,0.0037
3073.00,0.0037
3072.00,0.0038
3071.00,0.0038
3070.00,0.0038
3069.00,0.0039
3068.00,0.0039
3067.00,0.0040
3066.00,0.0040
3065.00,0.0041
3064.00,0.0041
3063.00,0.0041
3062.00,0.0040
3061.00,0.0040
3060.00,0.0039
3059.00,0.0039
3058.00,0.0039
3057.00,0.0040
3056.00,0.0040
3055.00,0.0040
3054.00,0.0041
3053.00,0.0041
3052.00,0.0040
3051.00,0.0040
3050.00,0.0040
3049.00,0.0040
3048.00,0.0041
3047.00,0.0041
3046.00,0.0042
3045.00,0.0042
3044.00,0.0043
3043.00,0.0043
3042.00,0.0043
3041.00,0.0043
3040.00,0.0044
3039.00,0.0044
3038.00,0.0044
3037.00,0.0044
3036.00,0.0045
3035.00,0.0045
3034.00,0.0046
3033.00,0.0046
3032.00,0.0047
3031.00,0.0047
3030.00,0.0048
3029.00,0.0048
3028.00,0.0049
3027.00,0.0049
3026.00,0.0049
3025.00,0.0050
3024.00,0.0050
3023.00,0.0051
3022.00,0.0052
3021.00,0.0053
3020.00,0.0054
3019.00,0.0054
3018.00,0.0054
3017.00,0.0055
3016.00,0.0055
3015.00,0.0055
3014.00,0.0056
3013.00,0.0056
3012.00,0.0057
3011.00,0.0058
3010.00,0.0058
3009.00,0.0059
3008.00,0.0059
3007.00,0.0059
3006.00,0.0059
3005.00,0.0060
3004.00,0.0060
3003.00,0.0061
3002.00,0.0062
3001.00,0.0063
3000.00,0.0064
2999.00,0.0066
2998.00,0.0068
2997.00,0.0071
2996.00,0.0074
2995.00,0.0077
2994.00,0.0081
2993.00,0.0085
2992.00,0.0089
2991.00,0.0095
2990.00,0.0100
2989.00,0.0107
2988.00,0.0113
2987.00,0.0120
2986.00,0.0127
2985.00,0.0135
2984.00,0.0143
2983.00,0.0153
2982.00,0.0165
2981.00,0.0181
2980.00,0.0202
2979.00,0.0225
2978.00,0.0252
2977.00,0.0282
2976.00,0.0315
2975.00,0.0352
2974.00,0.0393
2973.00,0.0440
2972.00,0.0494
2971.00,0.0556
2970.00,0.0625
2969.00,0.0701
2968.00,0.0784
2967.00,0.0873
2966.00,0.0967
2965.00,0.1063
2964.00,0.1159
2963.00,0.1249
2962.00,0.1328
2961.00,0.1394
2960.00,0.1445
2959.00,0.1484
2958.00,0.1515
2957.00,0.1547
2956.00,0.1585
2955.00,0.1632
2954.00,0.1687
2953.00,0.1745
2952.00,0.1796
2951.00,0.1829
2950.00,0.1833
2949.00,0.1802
2948.00,0.1735
2947.00,0.1639
2946.00,0.1524
2945.00,0.1405
2944.00,0.1294
2943.00,0.1198
2942.00,0.1124
2941.00,0.1074
2940.00,0.1046
2939.00,0.1040
2938.00,0.1053
2937.00,0.1083
2936.00,0.1128
2935.00,0.1186
2934.00,0.1257
2933.00,0.1340
2932.00,0.1433
2931.00,0.1535
2930.00,0.1644
2929.00,0.1756
2928.00,0.1868
2927.00,0.1977
2926.00,0.2082
2925.00,0.2184
2924.00,0.2282
2923.00,0.2378
2922.00,0.2471
2921.00,0.2558
2920.00,0.2633
2919.00,0.2687
2918.00,0.2710
2917.00,0.2696
2916.00,0.2645
2915.00,0.2565
2914.00,0.2466
2913.00,0.2361
2912.00,0.2259
2911.00,0.2166
2910.00,0.2084
2909.00,0.2011
2908.00,0.1945
2907.00,0.1883
2906.00,0.1821
2905.00,0.1758
2904.00,0.1693
2903.00,0.1628
2902.00,0.1562
2901.00,0.1498
2900.00,0.1435
2899.00,0.1375
2898.00,0.1319
2897.00,0.1267
2896.00,0.1220
2895.00,0.1179
2894.00,0.1143
2893.00,0.1114
2892.00,0.1090
2891.00,0.1072
2890.00,0.1058
2889.00,0.1050
2888.00,0.1044
2887.00,0.1043
2886.00,0.1044
2885.00,0.1048
2884.00,0.1057
2883.00,0.1069
2882.00,0.1086
2881.00,0.1105
2880.00,0.1124
2879.00,0.1139
2878.00,0.1148
2877.00,0.1150
2876.00,0.1146
2875.00,0.1140
2874.00,0.1135
2873.00,0.1136
2872.00,0.1143
2871.00,0.1157
2870.00,0.1175
2869.00,0.1193
2868.00,0.1204
2867.00,0.1201
2866.00,0.1179
2865.00,0.1136
2864.00,0.1077
2863.00,0.1010
2862.00,0.0944
2861.00,0.0887
2860.00,0.0843
2859.00,0.0815
2858.00,0.0801
2857.00,0.0798
2856.00,0.0805
2855.00,0.0819
2854.00,0.0837
2853.00,0.0858
2852.00,0.0878
2851.00,0.0896
2850.00,0.0908
2849.00,0.0917
2848.00,0.0922
2847.00,0.0931
2846.00,0.0947
2845.00,0.0974
2844.00,0.1012
2843.00,0.1058
2842.00,0.1108
2841.00,0.1155
2840.00,0.1191
2839.00,0.1208
2838.00,0.1200
2837.00,0.1164
2836.00,0.1099
2835.00,0.1012
2834.00,0.0911
2833.00,0.0807
2832.00,0.0708
2831.00,0.0620
2830.00,0.0545
2829.00,0.0484
2828.00,0.0435
2827.00,0.0395
2826.00,0.0362
2825.00,0.0335
2824.00,0.0312
2823.00,0.0292
2822.00,0.0275
2821.00,0.0261
2820.00,0.0248
2819.00,0.0237
2818.00,0.0228
2817.00,0.0219
2816.00,0.0212
2815.00,0.0205
2814.00,0.0199
2813.00,0.0193
2812.00,0.0188
2811.00,0.0182
2810.00,0.0177
2809.00,0.0171
2808.00,0.0165
2807.00,0.0159
2806.00,0.0152
2805.00,0.0146
2804.00,0.0139
2803.00,0.0134
2802.00,0.0129
2801.00,0.0124
2800.00,0.0121
2799.00,0.0117
2798.00,0.0115
2797.00,0.0113
2796.00,0.0110
2795.00,0.0108
2794.00,0.0105
2793.00,0.0103
2792.00,0.0100
2791.00,0.0097
2790.00,0.0093
2789.00,0.0090
2788.00,0.0087
2787.00,0.0084
2786.00,0.0081
2785.00,0.0078
2784.00,0.0075
2783.00,0.0073
2782.00,0.0072
2781.00,0.0070
2780.00,0.0068
2779.00,0.0067
2778.00,0.0065
2777.00,0.0064
2776.00,0.0062
2775.00,0.0061
2774.00,0.0060
2773.00,0.0059
2772.00,0.0058
2771.00,0.0058
2770.00,0.0057
2769.00,0.0057
2768.00,0.0057
2767.00,0.0057
2766.00,0.0057
2765.00,0.0056
2764.00,0.0055
2763.00,0.0055
2762.00,0.0055
2761.00,0.0055
2760.00,0.0055
2759.00,0.0054
2758.00,0.0054
2757.00,0.0054
2756.00,0.0054
2755.00,0.0053
2754.00,0.0053
2753.00,0.0053
2752.00,0.0053
2751.00,0.0053
2750.00,0.0053
2749.00,0.0053
2748.00,0.0053
2747.00,0.0053
2746.00,0.0053
2745.00,0.0054
2744.00,0.0054
2743.00,0.0055
2742.00,0.0056
2741.00,0.0057
2740.00,0.0058
2739.00,0.0059
2738.00,0.0060
2737.00,0.0061
2736.00,0.0063
2735.00,0.0064
2734.00,0.0066
2733.00,0.0067
2732.00,0.0068
2731.00,0.0070
2730.00,0.0071
2729.00,0.0073
2728.00,0.0076
2727.00,0.0079
2726.00,0.0081
2725.00,0.0084
2724.00,0.0086
2723.00,0.0086
2722.00,0.0086
2721.00,0.0084
2720.00,0.0082
2719.00,0.0079
2718.00,0.0076
2717.00,0.0072
2716.00,0.0069
2715.00,0.0066
2714.00,0.0064
2713.00,0.0062
2712.00,0.0060
2711.00,0.0059
2710.00,0.0058
2709.00,0.0056
2708.00,0.0055
2707.00,0.0054
2706.00,0.0052
2705.00,0.0051
2704.00,0.0050
2703.00,0.0049
2702.00,0.0049
2701.00,0.0048
2700.00,0.0047
2699.00,0.0047
2698.00,0.0046
2697.00,0.0045
2696.00,0.0045
2695.00,0.0045
2694.00,0.0045
2693.00,0.0045
2692.00,0.0045
2691.00,0.0045
2690.00,0.0045
2689.00,0.0046
2688.00,0.0046
2687.00,0.0046
2686.00,0.0045
2685.00,0.0045
2684.00,0.0045
2683.00,0.0045
2682.00,0.0045
2681.00,0.0045
2680.00,0.0046
2679.00,0.0046
2678.00,0.0046
2677.00,0.0046
2676.00,0.0046
2675.00,0.0045
2674.00,0.0045
2673.00,0.0045
2672.00,0.0044
2671.00,0.0044
2670.00,0.0044
2669.00,0.0044
2668.00,0.0044
2667.00,0.0045
2666.00,0.0045
2665.00,0.0045
2664.00,0.0046
2663.00,0.0047
2662.00,0.0047
2661.00,0.0047
2660.00,0.0048
2659.00,0.0048
2658.00,0.0047
2657.00,0.0047
2656.00,0.0047
2655.00,0.0046
2654.00,0.0046
2653.00,0.0045
2652.00,0.0045
2651.00,0.0045
2650.00,0.0044
2649.00,0.0044
2648.00,0.0043
2647.00,0.0043
2646.00,0.0042
2645.00,0.0042
2644.00,0.0042
2643.00,0.0041
2642.00,0.0041
2641.00,0.0041
2640.00,0.0040
2639.00,0.0040
2638.00,0.0040
2637.00,0.0039
2636.00,0.0039
2635.00,0.0038
2634.00,0.0038
2633.00,0.0038
2632.00,0.0038
2631.00,0.0039
2630.00,0.0039
2629.00,0.0039
2628.00,0.0039
2627.00,0.0040
2626.00,0.0040
2625.00,0.0041
2624.00,0.0041
2623.00,0.0041
2622.00,0.0041
2621.00,0.0040
2620.00,0.0040
2619.00,0.0040
2618.00,0.0041
2617.00,0.0041
2616.00,0.0041
2615.00,0.0040
2614.00,0.0040
2613.00,0.0040
2612.00,0.0039
2611.00,0.0038
2610.00,0.0037
2609.00,0.0036
2608.00,0.0036
2607.00,0.0035
2606.00,0.0035
2605.00,0.0034
2604.00,0.0033
2603.00,0.0032
2602.00,0.0032
2601.00,0.0032
2600.00,0.0032
2599.00,0.0033
2598.00,0.0033
2597.00,0.0032
2596.00,0.0032
2595.00,0.0032
2594.00,0.0033
2593.00,0.0033
2592.00,0.0034
2591.00,0.0034
2590.00,0.0035
2589.00,0.0035
2588.00,0.0035
2587.00,0.0036
2586.00,0.0036
2585.00,0.0037
2584.00,0.0038
2583.00,0.0038
2582.00,0.0038
2581.00,0.0038
2580.00,0.0036
2579.00,0.0035
2578.00,0.0035
2577.00,0.0034
2576.00,0.0033
2575.00,0.0031
2574.00,0.0030
2573.00,0.0028
2572.00,0.0027
2571.00,0.0027
2570.00,0.0026
2569.00,0.0026
2568.00,0.0026
2567.00,0.0026
2566.00,0.0025
2565.00,0.0025
2564.00,0.0024
2563.00,0.0024
2562.00,0.0023
2561.00,0.0023
2560.00,0.0023
2559.00,0.0023
2558.00,0.0023
2557.00,0.0022
2556.00,0.0021
2555.00,0.0021
2554.00,0.0021
2553.00,0.0020
2552.00,0.0020
2551.00,0.0020
2550.00,0.0020
2549.00,0.0020
2548.00,0.0020
2547.00,0.0019
2546.00,0.0019
2545.00,0.0019
2544.00,0.0019
2543.00,0.0019
2542.00,0.0019
2541.00,0.0018
2540.00,0.0018
2539.00,0.0018
2538.00,0.0017
2537.00,0.0017
2536.00,0.0017
2535.00,0.0017
2534.00,0.0017
2533.00,0.0016
2532.00,0.0016
2531.00,0.0016
2530.00,0.0015
2529.00,0.0015
2528.00,0.0014
2527.00,0.0014
2526.00,0.0013
2525.00,0.0013
2524.00,0.0014
2523.00,0.0014
2522.00,0.0014
2521.00,0.0014
2520.00,0.0013
2519.00,0.0013
2518.00,0.0013
2517.00,0.0013
2516.00,0.0013
2515.00,0.0014
2514.00,0.0014
2513.00,0.0014
2512.00,0.0013
2511.00,0.0012
2510.00,0.0012
2509.00,0.0011
2508.00,0.0011
2507.00,0.0011
2506.00,0.0011
2505.00,0.0010
2504.00,0.0009
2503.00,0.0009
2502.00,0.0009
2501.00,0.0010
2500.00,0.0010
2499.00,0.0010
2498.00,0.0010
2497.00,0.0010
2496.00,0.0010
2495.00,0.0010
2494.00,0.0010
2493.00,0.0010
2492.00,0.0010
2491.00,0.0010
2490.00,0.0010
2489.00,0.0010
2488.00,0.0009
2487.00,0.0009
2486.00,0.0008
2485.00,0.0008
2484.00,0.0008
2483.00,0.0008
2482.00,0.0008
2481.00,0.0008
2480.00,0.0009
2479.00,0.0010
2478.00,0.0010
2477.00,0.0010
2476.00,0.0010
2475.00,0.0009
2474.00,0.0008
2473.00,0.0009
2472.00,0.0009
2471.00,0.0009
2470.00,0.0008
2469.00,0.0008
2468.00,0.0007
2467.00,0.0007
2466.00,0.0007
2465.00,0.0008
2464.00,0.0009
2463.00,0.0010
2462.00,0.0010
2461.00,0.0010
2460.00,0.0010
2459.00,0.0010
2458.00,0.0010
2457.00,0.0010
2456.00,0.0010
2455.00,0.0010
2454.00,0.0009
2453.00,0.0009
2452.00,0.0009
2451.00,0.0010
2450.00,0.0010
2449.00,0.0010
2448.00,0.0010
2447.00,0.0010
2446.00,0.0009
2445.00,0.0008
2444.00,0.0009
2443.00,0.0009
2442.00,0.0009
2441.00,0.0010
2440.00,0.0010
2439.00,0.0009
2438.00,0.0009
2437.00,0.0009
2436.00,0.0009
2435.00,0.0010
2434.00,0.0011
2433.00,0.0011
2432.00,0.0012
2431.00,0.0012
2430.00,0.0011
2429.00,0.0011
2428.00,0.0011
2427.00,0.0011
2426.00,0.0011
2425.00,0.0011
2424.00,0.0010
2423.00,0.0010
2422.00,0.0009
2421.00,0.0009
2420.00,0.0009
2419.00,0.0009
2418.00,0.0010
2417.00,0.0010
2416.00,0.0010
2415.00,0.0010
2414.00,0.0010
2413.00,0.0010
2412.00,0.0011
2411.00,0.0010
2410.00,0.0009
2409.00,0.0009
2408.00,0.0008
2407.00,0.0008
2406.00,0.0008
2405.00,0.0008
2404.00,0.0007
2403.00,0.0007
2402.00,0.0007
2401.00,0.0006
2400.00,0.0006
2399.00,0.0007
2398.00,0.0007
2397.00,0.0007
2396.00,0.0008
2395.00,0.0008
2394.00,0.0007
2393.00,0.0007
2392.00,0.0008
2391.00,0.0008
2390.00,0.0008
2389.00,0.0008
2388.00,0.0007
2387.00,0.0007
2386.00,0.0007
2385.00,0.0006
2384.00,0.0006
2383.00,0.0005
2382.00,0.0005
2381.00,0.0004
2380.00,0.0003
2379.00,0.0003
2378.00,0.0002
2377.00,0.0002
2376.00,0.0003
2375.00,0.0004
2374.00,0.0005
2373.00,0.0005
2372.00,0.0005
2371.00,0.0004
2370.00,0.0003
2369.00,0.0002
2368.00,0.0001
2367.00,0.0001
2366.00,0.0001
2365.00,0.0001
2364.00,0.0002
2363.00,0.0003
2362.00,0.0004
2361.00,0.0004
2360.00,0.0005
2359.00,0.0005
2358.00,0.0005
2357.00,0.0005
2356.00,0.0005
2355.00,0.0005
2354.00,0.0004
2353.00,0.0004
2352.00,0.0005
2351.00,0.0005
2350.00,0.0005
2349.00,0.0006
2348.00,0.0006
2347.00,0.0006
2346.00,0.0007
2345.00,0.0007
2344.00,0.0008
2343.00,0.0008
2342.00,0.0008
2341.00,0.0008
2340.00,0.0009
2339.00,0.0009
2338.00,0.0009
2337.00,0.0009
2336.00,0.0008
2335.00,0.0008
2334.00,0.0007
2333.00,0.0007
2332.00,0.0007
2331.00,0.0007
2330.00,0.0008
2329.00,0.0009
2328.00,0.0011
2327.00,0.0014
2326.00,0.0018
2325.00,0.0021
2324.00,0.0022
2323.00,0.0021
2322.00,0.0019
2321.00,0.0017
2320.00,0.0015
2319.00,0.0014
2318.00,0.0013
2317.00,0.0012
2316.00,0.0011
2315.00,0.0011
2314.00,0.0010
2313.00,0.0009
2312.00,0.0009
2311.00,0.0008
2310.00,0.0008
2309.00,0.0008
2308.00,0.0007
2307.00,0.0007
2306.00,0.0008
2305.00,0.0009
2304.00,0.0009
2303.00,0.0010
2302.00,0.0010
2301.00,0.0010
2300.00,0.0010
2299.00,0.0010
2298.00,0.0010
2297.00,0.0011
2296.00,0.0012
2295.00,0.0012
2294.00,0.0013
2293.00,0.0014
2292.00,0.0015
2291.00,0.0016
2290.00,0.0016
2289.00,0.0017
2288.00,0.0018
2287.00,0.0018
2286.00,0.0019
2285.00,0.0018
2284.00,0.0017
2283.00,0.0015
2282.00,0.0014
2281.00,0.0013
2280.00,0.0014
2279.00,0.0014
2278.00,0.0015
2277.00,0.0016
2276.00,0.0017
2275.00,0.0017
2274.00,0.0016
2273.00,0.0015
2272.00,0.0013
2271.00,0.0012
2270.00,0.0011
2269.00,0.0011
2268.00,0.0011
2267.00,0.0011
2266.00,0.0012
2265.00,0.0012
2264.00,0.0012
2263.00,0.0012
2262.00,0.0012
2261.00,0.0011
2260.00,0.0011
2259.00,0.0012
2258.00,0.0012
2257.00,0.0012
2256.00,0.0011
2255.00,0.0010
2254.00,0.0009
2253.00,0.0008
2252.00,0.0007
2251.00,0.0007
2250.00,0.0007
2249.00,0.0007
2248.00,0.0008
2247.00,0.0008
2246.00,0.0008
2245.00,0.0008
2244.00,0.0008
2243.00,0.0009
2242.00,0.0010
2241.00,0.0011
2240.00,0.0012
2239.00,0.0011
2238.00,0.0010
2237.00,0.0009
2236.00,0.0008
2235.00,0.0008
2234.00,0.0008
2233.00,0.0008
2232.00,0.0009
2231.00,0.0009
2230.00,0.0010
2229.00,0.0011
2228.00,0.0012
2227.00,0.0011
2226.00,0.0009
2225.00,0.0007
2224.00,0.0006
2223.00,0.0006
2222.00,0.0007
2221.00,0.0008
2220.00,0.0008
2219.00,0.0007
2218.00,0.0006
2217.00,0.0006
2216.00,0.0007
2215.00,0.0008
2214.00,0.0009
2213.00,0.0008
2212.00,0.0006
2211.00,0.0004
2210.00,0.0001
2209.00,-0.0000
2208.00,-0.0000
2207.00,0.0001
2206.00,0.0002
2205.00,0.0002
2204.00,0.0003
2203.00,0.0004
2202.00,0.0004
2201.00,0.0005
2200.00,0.0006
2199.00,0.0008
2198.00,0.0010
2197.00,0.0010
2196.00,0.0010
2195.00,0.0008
2194.00,0.0008
2193.00,0.0008
2192.00,0.0008
2191.00,0.0008
2190.00,0.0008
2189.00,0.0009
2188.00,0.0012
2187.00,0.0015
2186.00,0.0016
2185.00,0.0016
2184.00,0.0014
2183.00,0.0011
2182.00,0.0008
2181.00,0.0005
2180.00,0.0003
2179.00,0.0001
2178.00,-0.0001
2177.00,-0.0002
2176.00,-0.0003
2175.00,-0.0003
2174.00,-0.0000
2173.00,0.0004
2172.00,0.0010
2171.00,0.0015
2170.00,0.0018
2169.00,0.0019
2168.00,0.0018
2167.00,0.0016
2166.00,0.0015
2165.00,0.0017
2164.00,0.0020
2163.00,0.0024
2162.00,0.0023
2161.00,0.0016
2160.00,0.0002
2159.00,-0.0016
2158.00,-0.0029
2157.00,-0.0034
2156.00,-0.0033
2155.00,-0.0030
2154.00,-0.0026
2153.00,-0.0022
2152.00,-0.0020
2151.00,-0.0018
2150.00,-0.0018
2149.00,-0.0017
2148.00,-0.0016
2147.00,-0.0015
2146.00,-0.0014
2145.00,-0.0012
2144.00,-0.0012
2143.00,-0.0012
2142.00,-0.0013
2141.00,-0.0014
2140.00,-0.0014
2139.00,-0.0014
2138.00,-0.0014
2137.00,-0.0014
2136.00,-0.0015
2135.00,-0.0016
2134.00,-0.0018
2133.00,-0.0017
2132.00,-0.0016
2131.00,-0.0014
2130.00,-0.0013
2129.00,-0.0011
2128.00,-0.0011
2127.00,-0.0011
2126.00,-0.0011
2125.00,-0.0010
2124.00,-0.0008
2123.00,-0.0006
2122.00,-0.0003
2121.00,-0.0002
2120.00,-0.0002
2119.00,-0.0002
2118.00,-0.0003
2117.00,-0.0002
2116.00,-0.0001
2115.00,0.0001
2114.00,0.0002
2113.00,0.0002
2112.00,0.0002
2111.00,0.0001
2110.00,0.0002
2109.00,0.0003
2108.00,0.0004
2107.00,0.0004
2106.00,0.0005
2105.00,0.0005
2104.00,0.0004
2103.00,0.0003
2102.00,0.0001
2101.00,0.0000
2100.00,0.0001
2099.00,0.0002
2098.00,0.0002
2097.00,0.0001
2096.00,-0.0001
2095.00,-0.0003
2094.00,-0.0004
2093.00,-0.0004
2092.00,-0.0002
2091.00,-0.0000
2090.00,0.0001
2089.00,0.0001
2088.00,-0.0000
2087.00,-0.0001
2086.00,-0.0000
2085.00,0.0001
2084.00,0.0003
2083.00,0.0003
2082.00,0.0002
2081.00,0.0001
2080.00,0.0001
2079.00,0.0001
2078.00,0.0002
2077.00,0.0002
2076.00,0.0002
2075.00,0.0003
2074.00,0.0003
2073.00,0.0003
2072.00,0.0002
2071.00,0.0000
2070.00,-0.0002
2069.00,-0.0003
2068.00,-0.0004
2067.00,-0.0003
2066.00,-0.0003
2065.00,-0.0002
2064.00,-0.0002
2063.00,-0.0002
2062.00,-0.0003
2061.00,-0.0003
2060.00,-0.0003
2059.00,-0.0003
2058.00,-0.0003
2057.00,-0.0003
2056.00,-0.0003
2055.00,-0.0003
2054.00,0.0001
2053.00,0.0007
2052.00,0.0015
2051.00,0.0020
2050.00,0.0020
2049.00,0.0015
2048.00,0.0009
2047.00,0.0004
2046.00,0.0002
2045.00,0.0002
2044.00,0.0001
2043.00,0.0001
2042.00,0.0001
2041.00,0.0001
2040.00,0.0001
2039.00,-0.0001
2038.00,-0.0003
2037.00,-0.0004
2036.00,-0.0003
2035.00,-0.0001
2034.00,0.0000
2033.00,-0.0001
2032.00,-0.0004
2031.00,-0.0007
2030.00,-0.0010
2029.00,-0.0011
2028.00,-0.0010
2027.00,-0.0009
2026.00,-0.0008
2025.00,-0.0008
2024.00,-0.0009
2023.00,-0.0013
2022.00,-0.0017
2021.00,-0.0020
2020.00,-0.0022
2019.00,-0.0023
2018.00,-0.0021
2017.00,-0.0016
2016.00,-0.0009
2015.00,-0.0006
2014.00,-0.0006
2013.00,-0.0009
2012.00,-0.0013
2011.00,-0.0016
2010.00,-0.0019
2009.00,-0.0020
2008.00,-0.0021
2007.00,-0.0022
2006.00,-0.0022
2005.00,-0.0021
2004.00,-0.0020
2003.00,-0.0018
2002.00,-0.0016
2001.00,-0.0014
2000.00,-0.0014
1999.00,-0.0015
1998.00,-0.0016
1997.00,-0.0014
1996.00,-0.0011
1995.00,-0.0009
1994.00,-0.0007
1993.00,-0.0006
1992.00,-0.0006
1991.00,-0.0008
1990.00,-0.0009
1989.00,-0.0008
1988.00,-0.0005
1987.00,-0.0001
1986.00,0.0001
1985.00,0.0003
1984.00,0.0002
1983.00,0.0001
1982.00,0.0002
1981.00,0.0003
1980.00,0.0004
1979.00,0.0002
1978.00,-0.0004
1977.00,-0.0011
1976.00,-0.0017
1975.00,-0.0020
1974.00,-0.0021
1973.00,-0.0019
1972.00,-0.0018
1971.00,-0.0018
1970.00,-0.0020
1969.00,-0.0021
1968.00,-0.0020
1967.00,-0.0018
1966.00,-0.0018
1965.00,-0.0018
1964.00,-0.0017
1963.00,-0.0017
1962.00,-0.0019
1961.00,-0.0021
1960.00,-0.0024
1959.00,-0.0026
1958.00,-0.0026
1957.00,-0.0024
1956.00,-0.0021
1955.00,-0.0018
1954.00,-0.0016
1953.00,-0.0015
1952.00,-0.0015
1951.00,-0.0017
1950.00,-0.0019
1949.00,-0.0019
1948.00,-0.0018
1947.00,-0.0017
1946.00,-0.0015
1945.00,-0.0013
1944.00,-0.0012
1943.00,-0.0012
1942.00,-0.0014
1941.00,-0.0015
1940.00,-0.0015
1939.00,-0.0014
1938.00,-0.0012
1937.00,-0.0012
1936.00,-0.0012
1935.00,-0.0012
1934.00,-0.0012
1933.00,-0.0012
1932.00,-0.0013
1931.00,-0.0013
1930.00,-0.0011
1929.00,-0.0009
1928.00,-0.0006
1927.00,-0.0005
1926.00,-0.0006
1925.00,-0.0007
1924.00,-0.0007
1923.00,-0.0007
1922.00,-0.0006
1921.00,-0.0005
1920.00,-0.0004
1919.00,-0.0004
1918.00,-0.0004
1917.00,-0.0004
1916.00,-0.0004
1915.00,-0.0004
1914.00,-0.0003
1913.00,-0.0003
1912.00,-0.0003
1911.00,-0.0003
1910.00,-0.0003
1909.00,-0.0003
1908.00,-0.0003
1907.00,-0.0003
1906.00,-0.0003
1905.00,-0.0004
1904.00,-0.0004
1903.00,-0.0003
1902.00,-0.0003
1901.00,-0.0003
1900.00,-0.0002
1899.00,-0.0002
1898.00,-0.0002
1897.00,-0.0002
1896.00,-0.0002
1895.00,-0.0002
1894.00,-0.0001
1893.00,0.0000
1892.00,0.0001
1891.00,0.0002
1890.00,0.0001
1889.00,-0.0000
1888.00,-0.0002
1887.00,-0.0002
1886.00,-0.0002
1885.00,-0.0001
1884.00,-0.0001
1883.00,-0.0001
1882.00,-0.0002
1881.00,-0.0002
1880.00,-0.0002
1879.00,-0.0002
1878.00,-0.0003
1877.00,-0.0004
1876.00,-0.0004
1875.00,-0.0004
1874.00,-0.0004
1873.00,-0.0004
1872.00,-0.0004
1871.00,-0.0004
1870.00,-0.0003
1869.00,-0.0002
1868.00,-0.0001
1867.00,-0.0000
1866.00,0.0000
1865.00,-0.0000
1864.00,-0.0001
1863.00,-0.0001
1862.00,-0.0000
1861.00,0.0001
1860.00,0.0002
1859.00,0.0002
1858.00,0.0003
1857.00,0.0002
1856.00,0.0002
1855.00,0.0001
1854.00,0.0000
1853.00,0.0001
1852.00,0.0002
1851.00,0.0002
1850.00,0.0001
1849.00,0.0000
1848.00,-0.0001
1847.00,-0.0001
1846.00,-0.0001
1845.00,-0.0000
1844.00,0.0001
1843.00,0.0001
1842.00,0.0001
1841.00,0.0001
1840.00,0.0001
1839.00,0.0002
1838.00,0.0002
1837.00,0.0003
1836.00,0.0003
1835.00,0.0003
1834.00,0.0002
1833.00,0.0001
1832.00,0.0001
1831.00,0.0002
1830.00,0.0002
1829.00,0.0002
1828.00,0.0001
1827.00,0.0001
1826.00,0.0001
1825.00,0.0002
1824.00,0.0002
1823.00,0.0002
1822.00,0.0001
1821.00,0.0001
1820.00,0.0000
1819.00,0.0000
1818.00,-0.0001
1817.00,-0.0001
1816.00,-0.0000
1815.00,0.0000
1814.00,0.0001
1813.00,0.0002
1812.00,0.0003
1811.00,0.0003
1810.00,0.0003
1809.00,0.0003
1808.00,0.0004
1807.00,0.0004
1806.00,0.0004
1805.00,0.0004
1804.00,0.0004
1803.00,0.0004
1802.00,0.0004
1801.00,0.0004
1800.00,0.0004
1799.00,0.0004
1798.00,0.0004
1797.00,0.0004
1796.00,0.0005
1795.00,0.0005
1794.00,0.0005
1793.00,0.0005
1792.00,0.0006
1791.00,0.0007
1790.00,0.0007
1789.00,0.0008
1788.00,0.0008
1787.00,0.0008
1786.00,0.0008
1785.00,0.0008
1784.00,0.0008
1783.00,0.0008
1782.00,0.0009
1781.00,0.0009
1780.00,0.0009
1779.00,0.0009
1778.00,0.0008
1777.00,0.0008
1776.00,0.0009
1775.00,0.0010
1774.00,0.0010
1773.00,0.0011
1772.00,0.0012
1771.00,0.0012
1770.00,0.0012
1769.00,0.0013
1768.00,0.0013
1767.00,0.0014
1766.00,0.0014
1765.00,0.0014
1764.00,0.0015
1763.00,0.0015
1762.00,0.0015
1761.00,0.0016
1760.00,0.0016
1759.00,0.0017
1758.00,0.0018
1757.00,0.0018
1756.00,0.0019
1755.00,0.0020
1754.00,0.0020
1753.00,0.0021
1752.00,0.0021
1751.00,0.0021
1750.00,0.0021
1749.00,0.0022
1748.00,0.0022
1747.00,0.0023
1746.00,0.0023
1745.00,0.0023
1744.00,0.0024
1743.00,0.0024
1742.00,0.0024
1741.00,0.0024
1740.00,0.0024
1739.00,0.0024
1738.00,0.0025
1737.00,0.0025
1736.00,0.0024
1735.00,0.0024
1734.00,0.0023
1733.00,0.0023
1732.00,0.0024
1731.00,0.0024
1730.00,0.0025
1729.00,0.0025
1728.00,0.0025
1727.00,0.0026
1726.00,0.0026
1725.00,0.0027
1724.00,0.0027
1723.00,0.0028
1722.00,0.0028
1721.00,0.0028
1720.00,0.0028
1719.00,0.0028
1718.00,0.0027
1717.00,0.0027
1716.00,0.0028
1715.00,0.0028
1714.00,0.0027
1713.00,0.0026
1712.00,0.0026
1711.00,0.0026
1710.00,0.0026
1709.00,0.0026
1708.00,0.0026
1707.00,0.0026
1706.00,0.0026
1705.00,0.0027
1704.00,0.0027
1703.00,0.0028
1702.00,0.0028
1701.00,0.0028
1700.00,0.0029
1699.00,0.0029
1698.00,0.0029
1697.00,0.0030
1696.00,0.0032
1695.00,0.0033
1694.00,0.0033
1693.00,0.0034
1692.00,0.0035
1691.00,0.0037
1690.00,0.0038
1689.00,0.0038
1688.00,0.0039
1687.00,0.0039
1686.00,0.0039
1685.00,0.0041
1684.00,0.0043
1683.00,0.0045
1682.00,0.0045
1681.00,0.0046
1680.00,0.0047
1679.00,0.0048
1678.00,0.0049
1677.00,0.0050
1676.00,0.0052
1675.00,0.0053
1674.00,0.0054
1673.00,0.0055
1672.00,0.0056
1671.00,0.0057
1670.00,0.0059
1669.00,0.0060
1668.00,0.0061
1667.00,0.0061
1666.00,0.0061
1665.00,0.0061
1664.00,0.0062
1663.00,0.0063
1662.00,0.0064
1661.00,0.0066
1660.00,0.0066
1659.00,0.0067
1658.00,0.0067
1657.00,0.0068
1656.00,0.0069
1655.00,0.0069
1654.00,0.0072
1653.00,0.0076
1652.00,0.0078
1651.00,0.0078
1650.00,0.0079
1649.00,0.0080
1648.00,0.0083
1647.00,0.0086
1646.00,0.0088
1645.00,0.0088
1644.00,0.0088
1643.00,0.0087
1642.00,0.0087
1641.00,0.0086
1640.00,0.0087
1639.00,0.0087
1638.00,0.0088
1637.00,0.0088
1636.00,0.0089
1635.00,0.0088
1634.00,0.0086
1633.00,0.0085
1632.00,0.0085
1631.00,0.0084
1630.00,0.0084
1629.00,0.0084
1628.00,0.0084
1627.00,0.0083
1626.00,0.0082
1625.00,0.0081
1624.00,0.0081
1623.00,0.0079
1622.00,0.0079
1621.00,0.0078
1620.00,0.0078
1619.00,0.0078
1618.00,0.0077
1617.00,0.0078
1616.00,0.0078
1615.00,0.0078
1614.00,0.0077
1613.00,0.0078
1612.00,0.0077
1611.00,0.0077
1610.00,0.0077
1609.00,0.0077
1608.00,0.0078
1607.00,0.0078
1606.00,0.0078
1605.00,0.0078
1604.00,0.0078
1603.00,0.0077
1602.00,0.0077
1601.00,0.0077
1600.00,0.0076
1599.00,0.0076
1598.00,0.0076
1597.00,0.0076
1596.00,0.0076
1595.00,0.0076
1594.00,0.0076
1593.00,0.0076
1592.00,0.0076
1591.00,0.0076
1590.00,0.0075
1589.00,0.0075
1588.00,0.0075
1587.00,0.0076
1586.00,0.0076
1585.00,0.0076
1584.00,0.0077
1583.00,0.0078
1582.00,0.0079
1581.00,0.0081
1580.00,0.0082
1579.00,0.0083
1578.00,0.0084
1577.00,0.0085
1576.00,0.0085
1575.00,0.0084
1574.00,0.0082
1573.00,0.0082
1572.00,0.0081
1571.00,0.0080
1570.00,0.0080
1569.00,0.0080
1568.00,0.0080
1567.00,0.0080
1566.00,0.0080
1565.00,0.0079
1564.00,0.0079
1563.00,0.0079
1562.00,0.0079
1561.00,0.0080
1560.00,0.0080
1559.00,0.0080
1558.00,0.0081
1557.00,0.0081
1556.00,0.0082
1555.00,0.0084
1554.00,0.0084
1553.00,0.0085
1552.00,0.0085
1551.00,0.0086
1550.00,0.0087
1549.00,0.0088
1548.00,0.0088
1547.00,0.0089
1546.00,0.0090
1545.00,0.0092
1544.00,0.0093
1543.00,0.0093
1542.00,0.0091
1541.00,0.0091
1540.00,0.0091
1539.00,0.0089
1538.00,0.0086
1537.00,0.0084
1536.00,0.0083
1535.00,0.0080
1534.00,0.0077
1533.00,0.0075
1532.00,0.0073
1531.00,0.0072
1530.00,0.0070
1529.00,0.0069
1528.00,0.0069
1527.00,0.0068
1526.00,0.0066
1525.00,0.0066
1524.00,0.0065
1523.00,0.0065
1522.00,0.0065
1521.00,0.0066
1520.00,0.0067
1519.00,0.0068
1518.00,0.0068
1517.00,0.0069
1516.00,0.0069
1515.00,0.0067
1514.00,0.0066
1513.00,0.0066
1512.00,0.0067
1511.00,0.0068
1510.00,0.0068
1509.00,0.0069
1508.00,0.0070
1507.00,0.0072
1506.00,0.0072
1505.00,0.0073
1504.00,0.0075
1503.00,0.0076
1502.00,0.0078
1501.00,0.0080
1500.00,0.0083
1499.00,0.0086
1498.00,0.0088
1497.00,0.0092
1496.00,0.0095
1495.00,0.0098
1494.00,0.0101
1493.00,0.0104
1492.00,0.0108
1491.00,0.0112
1490.00,0.0117
1489.00,0.0123
1488.00,0.0129
1487.00,0.0134
1486.00,0.0138
1485.00,0.0144
1484.00,0.0151
1483.00,0.0158
1482.00,0.0167
1481.00,0.0178
1480.00,0.0189
1479.00,0.0201
1478.00,0.0215
1477.00,0.0235
1476.00,0.0261
1475.00,0.0291
1474.00,0.0331
1473.00,0.0388
1472.00,0.0457
1471.00,0.0523
1470.00,0.0584
1469.00,0.0648
1468.00,0.0716
1467.00,0.0790
1466.00,0.0874
1465.00,0.0963
1464.00,0.1042
1463.00,0.1095
1462.00,0.1129
1461.00,0.1152
1460.00,0.1168
1459.00,0.1180
1458.00,0.1191
1457.00,0.1200
1456.00,0.1199
1455.00,0.1191
1454.00,0.1179
1453.00,0.1162
1452.00,0.1136
1451.00,0.1100
1450.00,0.1051
1449.00,0.0983
1448.00,0.0896
1447.00,0.0803
1446.00,0.0718
1445.00,0.0645
1444.00,0.0583
1443.00,0.0532
1442.00,0.0493
1441.00,0.0466
1440.00,0.0449
1439.00,0.0441
1438.00,0.0441
1437.00,0.0440
1436.00,0.0430
1435.00,0.0406
1434.00,0.0373
1433.00,0.0332
1432.00,0.0290
1431.00,0.0252
1430.00,0.0222
1429.00,0.0200
1428.00,0.0184
1427.00,0.0174
1426.00,0.0168
1425.00,0.0162
1424.00,0.0157
1423.00,0.0153
1422.00,0.0151
1421.00,0.0149
1420.00,0.0146
1419.00,0.0144
1418.00,0.0142
1417.00,0.0139
1416.00,0.0135
1415.00,0.0133
1414.00,0.0131
1413.00,0.0129
1412.00,0.0127
1411.00,0.0125
1410.00,0.0125
1409.00,0.0123
1408.00,0.0121
1407.00,0.0120
1406.00,0.0120
1405.00,0.0119
1404.00,0.0117
1403.00,0.0117
1402.00,0.0117
1401.00,0.0117
1400.00,0.0117
1399.00,0.0118
1398.00,0.0120
1397.00,0.0121
1396.00,0.0123
1395.00,0.0126
1394.00,0.0130
1393.00,0.0134
1392.00,0.0138
1391.00,0.0146
1390.00,0.0156
1389.00,0.0169
1388.00,0.0189
1387.00,0.0219
1386.00,0.0261
1385.00,0.0316
1384.00,0.0392
1383.00,0.0498
1382.00,0.0641
1381.00,0.0824
1380.00,0.1051
1379.00,0.1308
1378.00,0.1555
1377.00,0.1734
1376.00,0.1791
1375.00,0.1698
1374.00,0.1483
1373.00,0.1225
1372.00,0.0992
1371.00,0.0800
1370.00,0.0648
1369.00,0.0533
1368.00,0.0453
1367.00,0.0404
1366.00,0.0377
1365.00,0.0366
1364.00,0.0367
1363.00,0.0379
1362.00,0.0399
1361.00,0.0420
1360.00,0.0435
1359.00,0.0440
1358.00,0.0430
1357.00,0.0407
1356.00,0.0374
1355.00,0.0337
1354.00,0.0300
1353.00,0.0269
1352.00,0.0244
1351.00,0.0224
1350.00,0.0207
1349.00,0.0194
1348.00,0.0182
1347.00,0.0173
1346.00,0.0165
1345.00,0.0159
1344.00,0.0153
1343.00,0.0147
1342.00,0.0142
1341.00,0.0137
1340.00,0.0133
1339.00,0.0130
1338.00,0.0128
1337.00,0.0128
1336.00,0.0128
1335.00,0.0129
1334.00,0.0132
1333.00,0.0135
1332.00,0.0138
1331.00,0.0141
1330.00,0.0142
1329.00,0.0141
1328.00,0.0138
1327.00,0.0133
1326.00,0.0128
1325.00,0.0122
1324.00,0.0117
1323.00,0.0112
1322.00,0.0109
1321.00,0.0106
1320.00,0.0104
1319.00,0.0103
1318.00,0.0101
1317.00,0.0099
1316.00,0.0098
1315.00,0.0098
1314.00,0.0097
1313.00,0.0098
1312.00,0.0099
1311.00,0.0102
1310.00,0.0106
1309.00,0.0112
1308.00,0.0121
1307.00,0.0132
1306.00,0.0143
1305.00,0.0150
1304.00,0.0152
1303.00,0.0149
1302.00,0.0143
1301.00,0.0137
1300.00,0.0134
1299.00,0.0132
1298.00,0.0131
1297.00,0.0131
1296.00,0.0129
1295.00,0.0127
1294.00,0.0123
1293.00,0.0118
1292.00,0.0113
1291.00,0.0107
1290.00,0.0103
1289.00,0.0099
1288.00,0.0096
1287.00,0.0094
1286.00,0.0092
1285.00,0.0090
1284.00,0.0089
1283.00,0.0087
1282.00,0.0085
1281.00,0.0084
1280.00,0.0083
1279.00,0.0082
1278.00,0.0081
1277.00,0.0081
1276.00,0.0080
1275.00,0.0080
1274.00,0.0080
1273.00,0.0080
1272.00,0.0080
1271.00,0.0081
1270.00,0.0081
1269.00,0.0083
1268.00,0.0084
1267.00,0.0086
1266.00,0.0089
1265.00,0.0091
1264.00,0.0094
1263.00,0.0098
1262.00,0.0102
1261.00,0.0106
1260.00,0.0111
1259.00,0.0118
1258.00,0.0125
1257.00,0.0131
1256.00,0.0134
1255.00,0.0133
1254.00,0.0126
1253.00,0.0117
1252.00,0.0108
1251.00,0.0101
1250.00,0.0096
1249.00,0.0093
1248.00,0.0091
1247.00,0.0089
1246.00,0.0088
1245.00,0.0086
1244.00,0.0085
1243.00,0.0084
1242.00,0.0083
1241.00,0.0083
1240.00,0.0084
1239.00,0.0084
1238.00,0.0084
1237.00,0.0084
1236.00,0.0084
1235.00,0.0085
1234.00,0.0086
1233.00,0.0087
1232.00,0.0087
1231.00,0.0088
1230.00,0.0089
1229.00,0.0090
1228.00,0.0091
1227.00,0.0093
1226.00,0.0095
1225.00,0.0098
1224.00,0.0101
1223.00,0.0104
1222.00,0.0108
1221.00,0.0111
1220.00,0.0114
1219.00,0.0117
1218.00,0.0117
1217.00,0.0116
1216.00,0.0113
1215.00,0.0109
1214.00,0.0105
1213.00,0.0103
1212.00,0.0100
1211.00,0.0098
1210.00,0.0096
1209.00,0.0094
1208.00,0.0093
1207.00,0.0093
1206.00,0.0092
1205.00,0.0091
1204.00,0.0090
1203.00,0.0090
1202.00,0.0090
1201.00,0.0089
1200.00,0.0089
1199.00,0.0088
1198.00,0.0087
1197.00,0.0087
1196.00,0.0086
1195.00,0.0086
1194.00,0.0087
1193.00,0.0087
1192.00,0.0086
1191.00,0.0085
1190.00,0.0084
1189.00,0.0084
1188.00,0.0083
1187.00,0.0083
1186.00,0.0083
1185.00,0.0083
1184.00,0.0084
1183.00,0.0085
1182.00,0.0087
1181.00,0.0090
1180.00,0.0093
1179.00,0.0098
1178.00,0.0104
1177.00,0.0113
1176.00,0.0124
1175.00,0.0139
1174.00,0.0159
1173.00,0.0183
1172.00,0.0211
1171.00,0.0244
1170.00,0.0275
1169.00,0.0301
1168.00,0.0317
1167.00,0.0320
1166.00,0.0312
1165.00,0.0298
1164.00,0.0280
1163.00,0.0262
1162.00,0.0246
1161.00,0.0233
1160.00,0.0222
1159.00,0.0215
1158.00,0.0210
1157.00,0.0207
1156.00,0.0206
1155.00,0.0204
1154.00,0.0203
1153.00,0.0200
1152.00,0.0196
1151.00,0.0190
1150.00,0.0182
1149.00,0.0173
1148.00,0.0164
1147.00,0.0156
1146.00,0.0148
1145.00,0.0141
1144.00,0.0135
1143.00,0.0129
1142.00,0.0125
1141.00,0.0120
1140.00,0.0115
1139.00,0.0110
1138.00,0.0107
1137.00,0.0104
1136.00,0.0102
1135.00,0.0101
1134.00,0.0100
1133.00,0.0100
1132.00,0.0099
1131.00,0.0099
1130.00,0.0100
1129.00,0.0101
1128.00,0.0102
1127.00,0.0104
1126.00,0.0107
1125.00,0.0110
1124.00,0.0113
1123.00,0.0115
1122.00,0.0119
1121.00,0.0122
1120.00,0.0124
1119.00,0.0126
1118.00,0.0128
1117.00,0.0130
1116.00,0.0131
1115.00,0.0132
1114.00,0.0132
1113.00,0.0133
1112.00,0.0133
1111.00,0.0135
1110.00,0.0137
1109.00,0.0140
1108.00,0.0144
1107.00,0.0149
1106.00,0.0154
1105.00,0.0159
1104.00,0.0163
1103.00,0.0165
1102.00,0.0165
1101.00,0.0161
1100.00,0.0155
1099.00,0.0148
1098.00,0.0141
1097.00,0.0135
1096.00,0.0131
1095.00,0.0128
1094.00,0.0125
1093.00,0.0122
1092.00,0.0119
1091.00,0.0116
1090.00,0.0114
1089.00,0.0112
1088.00,0.0110
1087.00,0.0110
1086.00,0.0110
1085.00,0.0110
1084.00,0.0109
1083.00,0.0108
1082.00,0.0106
1081.00,0.0105
1080.00,0.0104
1079.00,0.0103
1078.00,0.0102
1077.00,0.0101
1076.00,0.0100
1075.00,0.0099
1074.00,0.0098
1073.00,0.0097
1072.00,0.0097
1071.00,0.0096
1070.00,0.0096
1069.00,0.0096
1068.00,0.0096
1067.00,0.0097
1066.00,0.0097
1065.00,0.0098
1064.00,0.0098
1063.00,0.0098
1062.00,0.0098
1061.00,0.0099
1060.00,0.0099
1059.00,0.0099
1058.00,0.0099
1057.00,0.0099
1056.00,0.0100
1055.00,0.0101
1054.00,0.0103
1053.00,0.0105
1052.00,0.0107
1051.00,0.0109
1050.00,0.0113
1049.00,0.0115
1048.00,0.0118
1047.00,0.0120
1046.00,0.0123
1045.00,0.0124
1044.00,0.0125
1043.00,0.0125
1042.00,0.0123
1041.00,0.0120
1040.00,0.0118
1039.00,0.0117
1038.00,0.0117
1037.00,0.0117
1036.00,0.0117
1035.00,0.0118
1034.00,0.0117
1033.00,0.0114
1032.00,0.0111
1031.00,0.0109
1030.00,0.0107
1029.00,0.0105
1028.00,0.0104
1027.00,0.0104
1026.00,0.0105
1025.00,0.0106
1024.00,0.0106
1023.00,0.0106
1022.00,0.0105
1021.00,0.0104
1020.00,0.0104
1019.00,0.0105
1018.00,0.0106
1017.00,0.0107
1016.00,0.0108
1015.00,0.0109
1014.00,0.0110
1013.00,0.0112
1012.00,0.0114
1011.00,0.0117
1010.00,0.0120
1009.00,0.0124
1008.00,0.0128
1007.00,0.0134
1006.00,0.0142
1005.00,0.0154
1004.00,0.0171
1003.00,0.0195
1002.00,0.0226
1001.00,0.0265
1000.00,0.0307
999.00,0.0342
998.00,0.0361
997.00,0.0355
996.00,0.0326
995.00,0.0285
994.00,0.0242
993.00,0.0205
992.00,0.0177
991.00,0.0157
990.00,0.0143
989.00,0.0133
988.00,0.0126
987.00,0.0123
986.00,0.0122
985.00,0.0123
984.00,0.0126
983.00,0.0132
982.00,0.0142
981.00,0.0157
980.00,0.0178
979.00,0.0206
978.00,0.0241
977.00,0.0283
976.00,0.0328
975.00,0.0372
974.00,0.0406
973.00,0.0419
972.00,0.0406
971.00,0.0367
970.00,0.0314
969.00,0.0260
968.00,0.0213
967.00,0.0178
966.00,0.0153
965.00,0.0136
964.00,0.0123
963.00,0.0113
962.00,0.0105
961.00,0.0099
960.00,0.0094
959.00,0.0089
958.00,0.0086
957.00,0.0083
956.00,0.0080
955.00,0.0079
954.00,0.0077
953.00,0.0076
952.00,0.0074
951.00,0.0073
950.00,0.0073
949.00,0.0073
948.00,0.0073
947.00,0.0074
946.00,0.0075
945.00,0.0078
944.00,0.0081
943.00,0.0084
942.00,0.0088
941.00,0.0090
940.00,0.0091
939.00,0.0089
938.00,0.0085
937.00,0.0081
936.00,0.0077
935.00,0.0074
934.00,0.0071
933.00,0.0069
932.00,0.0068
931.00,0.0068
930.00,0.0068
929.00,0.0068
928.00,0.0069
927.00,0.0069
926.00,0.0069
925.00,0.0069
924.00,0.0069
923.00,0.0069
922.00,0.0070
921.00,0.0070
920.00,0.0069
919.00,0.0069
918.00,0.0069
917.00,0.0069
916.00,0.0070
915.00,0.0071
914.00,0.0073
913.00,0.0076
912.00,0.0078
911.00,0.0080
910.00,0.0081
909.00,0.0083
908.00,0.0085
907.00,0.0090
906.00,0.0097
905.00,0.0107
904.00,0.0120
903.00,0.0137
902.00,0.0154
901.00,0.0170
900.00,0.0180
899.00,0.0182
898.00,0.0175
897.00,0.0161
896.00,0.0144
895.00,0.0127
894.00,0.0113
893.00,0.0102
892.00,0.0095
891.00,0.0090
890.00,0.0087
889.00,0.0084
888.00,0.0083
887.00,0.0082
886.00,0.0082
885.00,0.0082
884.00,0.0082
883.00,0.0082
882.00,0.0082
881.00,0.0082
880.00,0.0082
879.00,0.0083
878.00,0.0085
877.00,0.0086
876.00,0.0087
875.00,0.0087
874.00,0.0087
873.00,0.0086
872.00,0.0086
871.00,0.0085
870.00,0.0086
869.00,0.0086
868.00,0.0087
867.00,0.0088
866.00,0.0087
865.00,0.0087
864.00,0.0087
863.00,0.0088
862.00,0.0090
861.00,0.0091
860.00,0.0093
859.00,0.0095
858.00,0.0097
857.00,0.0098
856.00,0.0099
855.00,0.0099
854.00,0.0099
853.00,0.0101
852.00,0.0105
851.00,0.0109
850.00,0.0113
849.00,0.0118
848.00,0.0127
847.00,0.0142
846.00,0.0165
845.00,0.0200
844.00,0.0247
843.00,0.0301
842.00,0.0346
841.00,0.0362
840.00,0.0339
839.00,0.0288
838.00,0.0231
837.00,0.0186
836.00,0.0158
835.00,0.0142
834.00,0.0131
833.00,0.0124
832.00,0.0119
831.00,0.0117
830.00,0.0116
829.00,0.0115
828.00,0.0113
827.00,0.0111
826.00,0.0109
825.00,0.0108
824.00,0.0108
823.00,0.0109
822.00,0.0110
821.00,0.0112
820.00,0.0113
819.00,0.0116
818.00,0.0119
817.00,0.0124
816.00,0.0131
815.00,0.0141
814.00,0.0156
813.00,0.0174
812.00,0.0193
811.00,0.0211
810.00,0.0224
809.00,0.0230
808.00,0.0226
807.00,0.0213
806.00,0.0196
805.00,0.0177
804.00,0.0162
803.00,0.0150
802.00,0.0142
801.00,0.0135
800.00,0.0129
799.00,0.0124
798.00,0.0119
797.00,0.0116
796.00,0.0114
795.00,0.0112
794.00,0.0108
793.00,0.0104
792.00,0.0099
791.00,0.0096
790.00,0.0093
789.00,0.0090
788.00,0.0088
787.00,0.0085
786.00,0.0082
785.00,0.0081
784.00,0.0080
783.00,0.0079
782.00,0.0079
781.00,0.0079
780.00,0.0078
779.00,0.0077
778.00,0.0077
777.00,0.0077
776.00,0.0077
775.00,0.0077
774.00,0.0077
773.00,0.0075
772.00,0.0073
771.00,0.0073
770.00,0.0075
769.00,0.0077
768.00,0.0078
767.00,0.0077
766.00,0.0077
765.00,0.0076
764.00,0.0077
763.00,0.0077
762.00,0.0077
761.00,0.0078
760.00,0.0079
759.00,0.0082
758.00,0.0084
757.00,0.0085
756.00,0.0084
755.00,0.0084
754.00,0.0084
753.00,0.0084
752.00,0.0085
751.00,0.0086
750.00,0.0089
749.00,0.0092
748.00,0.0095
747.00,0.0097
746.00,0.0097
745.00,0.0098
744.00,0.0099
743.00,0.0101
742.00,0.0104
741.00,0.0108
740.00,0.0113
739.00,0.0116
738.00,0.0119
737.00,0.0122
736.00,0.0126
735.00,0.0131
734.00,0.0137
733.00,0.0145
732.00,0.0154
731.00,0.0163
730.00,0.0170
729.00,0.0174
728.00,0.0175
727.00,0.0175
726.00,0.0176
725.00,0.0180
724.00,0.0186
723.00,0.0193
722.00,0.0199
721.00,0.0202
720.00,0.0200
719.00,0.0192
718.00,0.0179
717.00,0.0165
716.00,0.0153
715.00,0.0143
714.00,0.0135
713.00,0.0128
712.00,0.0123
711.00,0.0120
710.00,0.0120
709.00,0.0121
708.00,0.0122
707.00,0.0123
706.00,0.0123
705.00,0.0123
704.00,0.0122
703.00,0.0119
702.00,0.0116
701.00,0.0113
700.00,0.0110
699.00,0.0110
698.00,0.0110
697.00,0.0110
696.00,0.0110
695.00,0.0110
694.00,0.0108
693.00,0.0107
692.00,0.0106
691.00,0.0106
690.00,0.0105
689.00,0.0103
688.00,0.0101
687.00,0.0101
686.00,0.0103
685.00,0.0105
684.00,0.0106
683.00,0.0106
682.00,0.0105
681.00,0.0103
680.00,0.0102
679.00,0.0102
678.00,0.0101
677.00,0.0102
676.00,0.0102
675.00,0.0103
674.00,0.0105
673.00,0.0107
672.00,0.0108
671.00,0.0109
670.00,0.0110
669.00,0.0111
668.00,0.0113
667.00,0.0114
666.00,0.0114
665.00,0.0111
664.00,0.0108
663.00,0.0105
662.00,0.0103
661.00,0.0103
660.00,0.0104
659.00,0.0105
658.00,0.0105
657.00,0.0105
656.00,0.0104
655.00,0.0104
654.00,0.0103
653.00,0.0103
652.00,0.0102
651.00,0.0101
650.00,0.0101
649.00,0.0101
648.00,0.0102
647.00,0.0103
646.00,0.0103
645.00,0.0102
644.00,0.0102
643.00,0.0103
642.00,0.0103
641.00,0.0102
640.00,0.0100
639.00,0.0099
638.00,0.0099
637.00,0.0098
636.00,0.0098
635.00,0.0098
634.00,0.0098
633.00,0.0099
632.00,0.0100
631.00,0.0100
630.00,0.0100
629.00,0.0101
628.00,0.0102
627.00,0.0102
626.00,0.0102
625.00,0.0101
624.00,0.0102
623.00,0.0103
622.00,0.0102
621.00,0.0101
620.00,0.0099
619.00,0.0098
618.00,0.0099
617.00,0.0101
616.00,0.0102
615.00,0.0103
614.00,0.0104
613.00,0.0104
612.00,0.0103
611.00,0.0100
610.00,0.0097
609.00,0.0094
608.00,0.0093
607.00,0.0093
606.00,0.0093
605.00,0.0093
604.00,0.0095
603.00,0.0096
602.00,0.0098
601.00,0.0098
600.00,0.0098
599.00,0.0097
598.00,0.0096
597.00,0.0095
596.00,0.0095
595.00,0.0095
594.00,0.0097
593.00,0.0100
592.00,0.0103
591.00,0.0103
590.00,0.0100
589.00,0.0097
588.00,0.0097
587.00,0.0099
586.00,0.0101
585.00,0.0101
584.00,0.0099
583.00,0.0097
582.00,0.0096
581.00,0.0096
580.00,0.0097
579.00,0.0098
578.00,0.0099
577.00,0.0101
576.00,0.0104
575.00,0.0105
574.00,0.0106
573.00,0.0104
572.00,0.0101
571.00,0.0097
570.00,0.0097
569.00,0.0099
568.00,0.0103
567.00,0.0105
566.00,0.0105
565.00,0.0105
564.00,0.0105
563.00,0.0104
562.00,0.0102
561.00,0.0100
560.00,0.0098
559.00,0.0098
558.00,0.0100
557.00,0.0103
556.00,0.0104
555.00,0.0104
554.00,0.0101
553.00,0.0097
552.00,0.0094
551.00,0.0094
550.00,0.0097
549.00,0.0101
548.00,0.0104
547.00,0.0103
546.00,0.0100
545.00,0.0096
544.00,0.0094
543.00,0.0094
542.00,0.0098
541.00,0.0103
540.00,0.0110
539.00,0.0115
538.00,0.0117
537.00,0.0115
536.00,0.0112
535.00,0.0109
534.00,0.0107
533.00,0.0107
532.00,0.0109
531.00,0.0112
530.00,0.0112
529.00,0.0109
528.00,0.0107
527.00,0.0110
526.00,0.0115
525.00,0.0117
524.00,0.0115
523.00,0.0112
522.00,0.0114
521.00,0.0116
520.00,0.0117
519.00,0.0114
518.00,0.0108
517.00,0.0101
516.00,0.0096
515.00,0.0095
514.00,0.0097
513.00,0.0098
512.00,0.0095
511.00,0.0088
510.00,0.0082
509.00,0.0080
508.00,0.0084
507.00,0.0093
506.00,0.0103
505.00,0.0106
504.00,0.0103
503.00,0.0100
502.00,0.0102
501.00,0.0104
500.00,0.0101
499.00,0.0094
498.00,0.0087
497.00,0.0084
496.00,0.0084
495.00,0.0083
494.00,0.0082
493.00,0.0083
492.00,0.0085
491.00,0.0088
490.00,0.0092
489.00,0.0093
488.00,0.0092
487.00,0.0089
486.00,0.0085
485.00,0.0083
484.00,0.0082
483.00,0.0080
482.00,0.0080
481.00,0.0083
480.00,0.0087
479.00,0.0090
478.00,0.0092
477.00,0.0096
476.00,0.0101
475.00,0.0103
474.00,0.0101
473.00,0.0096
472.00,0.0095
471.00,0.0099
470.00,0.0105
469.00,0.0109
468.00,0.0112
467.00,0.0114
466.00,0.0116
465.00,0.0120
464.00,0.0126
463.00,0.0137
462.00,0.0153
461.00,0.0169
460.00,0.0182
459.00,0.0188
458.00,0.0184
457.00,0.0173
456.00,0.0162
455.00,0.0153
454.00,0.0145
453.00,0.0134
452.00,0.0122
451.00,0.0111
450.00,0.0103
