Created as New Dataset,Sample 255 By Administrator Date Wednesday, September 03 2025
cm-1,A
4000.00,0.0011
3999.00,0.0011
3998.00,0.0010
3997.00,0.0010
3996.00,0.0010
3995.00,0.0010
3994.00,0.0010
3993.00,0.0011
3992.00,0.0011
3991.00,0.0011
3990.00,0.0011
3989.00,0.0011
3988.00,0.0011
3987.00,0.0011
3986.00,0.0010
3985.00,0.0010
3984.00,0.0009
3983.00,0.0009
3982.00,0.0009
3981.00,0.0009
3980.00,0.0009
3979.00,0.0009
3978.00,0.0009
3977.00,0.0009
3976.00,0.0009
3975.00,0.0009
3974.00,0.0009
3973.00,0.0009
3972.00,0.0009
3971.00,0.0009
3970.00,0.0009
3969.00,0.0009
3968.00,0.0009
3967.00,0.0009
3966.00,0.0009
3965.00,0.0010
3964.00,0.0009
3963.00,0.0009
3962.00,0.0009
3961.00,0.0009
3960.00,0.0009
3959.00,0.0008
3958.00,0.0008
3957.00,0.0008
3956.00,0.0008
3955.00,0.0008
3954.00,0.0009
3953.00,0.0009
3952.00,0.0009
3951.00,0.0009
3950.00,0.0009
3949.00,0.0009
3948.00,0.0009
3947.00,0.0009
3946.00,0.0009
3945.00,0.0009
3944.00,0.0009
3943.00,0.0009
3942.00,0.0009
3941.00,0.0009
3940.00,0.0009
3939.00,0.0009
3938.00,0.0009
3937.00,0.0009
3936.00,0.0009
3935.00,0.0009
3934.00,0.0009
3933.00,0.0009
3932.00,0.0009
3931.00,0.0009
3930.00,0.0009
3929.00,0.0009
3928.00,0.0009
3927.00,0.0009
3926.00,0.0009
3925.00,0.0009
3924.00,0.0009
3923.00,0.0009
3922.00,0.0009
3921.00,0.0009
3920.00,0.0009
3919.00,0.0009
3918.00,0.0009
3917.00,0.0009
3916.00,0.0009
3915.00,0.0009
3914.00,0.0009
3913.00,0.0009
3912.00,0.0008
3911.00,0.0008
3910.00,0.0008
3909.00,0.0008
3908.00,0.0009
3907.00,0.0009
3906.00,0.0009
3905.00,0.0010
3904.00,0.0010
3903.00,0.0010
3902.00,0.0009
3901.00,0.0009
3900.00,0.0009
3899.00,0.0009
3898.00,0.0009
3897.00,0.0010
3896.00,0.0010
3895.00,0.0009
3894.00,0.0009
3893.00,0.0009
3892.00,0.0009
3891.00,0.0009
3890.00,0.0009
3889.00,0.0009
3888.00,0.0009
3887.00,0.0008
3886.00,0.0008
3885.00,0.0008
3884.00,0.0008
3883.00,0.0008
3882.00,0.0008
3881.00,0.0008
3880.00,0.0008
3879.00,0.0009
3878.00,0.0009
3877.00,0.0009
3876.00,0.0009
3875.00,0.0009
3874.00,0.0009
3873.00,0.0009
3872.00,0.0008
3871.00,0.0008
3870.00,0.0008
3869.00,0.0008
3868.00,0.0009
3867.00,0.0009
3866.00,0.0009
3865.00,0.0009
3864.00,0.0009
3863.00,0.0009
3862.00,0.0009
3861.00,0.0008
3860.00,0.0008
3859.00,0.0008
3858.00,0.0008
3857.00,0.0007
3856.00,0.0007
3855.00,0.0007
3854.00,0.0007
3853.00,0.0007
3852.00,0.0007
3851.00,0.0007
3850.00,0.0007
3849.00,0.0007
3848.00,0.0008
3847.00,0.0008
3846.00,0.0008
3845.00,0.0008
3844.00,0.0007
3843.00,0.0007
3842.00,0.0007
3841.00,0.0006
3840.00,0.0006
3839.00,0.0006
3838.00,0.0007
3837.00,0.0007
3836.00,0.0007
3835.00,0.0008
3834.00,0.0008
3833.00,0.0008
3832.00,0.0008
3831.00,0.0008
3830.00,0.0008
3829.00,0.0008
3828.00,0.0008
3827.00,0.0008
3826.00,0.0008
3825.00,0.0007
3824.00,0.0007
3823.00,0.0007
3822.00,0.0007
3821.00,0.0008
3820.00,0.0008
3819.00,0.0008
3818.00,0.0008
3817.00,0.0008
3816.00,0.0008
3815.00,0.0008
3814.00,0.0008
3813.00,0.0008
3812.00,0.0008
3811.00,0.0008
3810.00,0.0009
3809.00,0.0009
3808.00,0.0009
3807.00,0.0009
3806.00,0.0009
3805.00,0.0008
3804.00,0.0008
3803.00,0.0008
3802.00,0.0008
3801.00,0.0008
3800.00,0.0008
3799.00,0.0009
3798.00,0.0009
3797.00,0.0009
3796.00,0.0009
3795.00,0.0008
3794.00,0.0008
3793.00,0.0007
3792.00,0.0007
3791.00,0.0008
3790.00,0.0008
3789.00,0.0008
3788.00,0.0008
3787.00,0.0008
3786.00,0.0008
3785.00,0.0008
3784.00,0.0008
3783.00,0.0008
3782.00,0.0008
3781.00,0.0008
3780.00,0.0008
3779.00,0.0008
3778.00,0.0008
3777.00,0.0008
3776.00,0.0009
3775.00,0.0009
3774.00,0.0009
3773.00,0.0009
3772.00,0.0009
3771.00,0.0008
3770.00,0.0009
3769.00,0.0009
3768.00,0.0009
3767.00,0.0009
3766.00,0.0009
3765.00,0.0009
3764.00,0.0010
3763.00,0.0010
3762.00,0.0009
3761.00,0.0009
3760.00,0.0009
3759.00,0.0009
3758.00,0.0009
3757.00,0.0009
3756.00,0.0008
3755.00,0.0008
3754.00,0.0008
3753.00,0.0008
3752.00,0.0007
3751.00,0.0007
3750.00,0.0007
3749.00,0.0007
3748.00,0.0007
3747.00,0.0007
3746.00,0.0007
3745.00,0.0008
3744.00,0.0008
3743.00,0.0008
3742.00,0.0008
3741.00,0.0008
3740.00,0.0009
3739.00,0.0009
3738.00,0.0009
3737.00,0.0008
3736.00,0.0008
3735.00,0.0008
3734.00,0.0008
3733.00,0.0008
3732.00,0.0007
3731.00,0.0008
3730.00,0.0008
3729.00,0.0008
3728.00,0.0008
3727.00,0.0008
3726.00,0.0008
3725.00,0.0008
3724.00,0.0007
3723.00,0.0007
3722.00,0.0007
3721.00,0.0007
3720.00,0.0008
3719.00,0.0008
3718.00,0.0008
3717.00,0.0008
3716.00,0.0008
3715.00,0.0008
3714.00,0.0007
3713.00,0.0007
3712.00,0.0007
3711.00,0.0007
3710.00,0.0006
3709.00,0.0006
3708.00,0.0006
3707.00,0.0006
3706.00,0.0006
3705.00,0.0007
3704.00,0.0007
3703.00,0.0007
3702.00,0.0008
3701.00,0.0008
3700.00,0.0008
3699.00,0.0008
3698.00,0.0008
3697.00,0.0008
3696.00,0.0008
3695.00,0.0007
3694.00,0.0007
3693.00,0.0007
3692.00,0.0007
3691.00,0.0007
3690.00,0.0007
3689.00,0.0006
3688.00,0.0006
3687.00,0.0006
3686.00,0.0006
3685.00,0.0007
3684.00,0.0007
3683.00,0.0008
3682.00,0.0008
3681.00,0.0008
3680.00,0.0009
3679.00,0.0009
3678.00,0.0009
3677.00,0.0009
3676.00,0.0009
3675.00,0.0008
3674.00,0.0008
3673.00,0.0007
3672.00,0.0007
3671.00,0.0007
3670.00,0.0007
3669.00,0.0007
3668.00,0.0008
3667.00,0.0008
3666.00,0.0008
3665.00,0.0008
3664.00,0.0007
3663.00,0.0007
3662.00,0.0008
3661.00,0.0008
3660.00,0.0008
3659.00,0.0008
3658.00,0.0009
3657.00,0.0009
3656.00,0.0009
3655.00,0.0009
3654.00,0.0009
3653.00,0.0009
3652.00,0.0009
3651.00,0.0009
3650.00,0.0009
3649.00,0.0010
3648.00,0.0010
3647.00,0.0010
3646.00,0.0010
3645.00,0.0010
3644.00,0.0010
3643.00,0.0009
3642.00,0.0009
3641.00,0.0009
3640.00,0.0009
3639.00,0.0010
3638.00,0.0010
3637.00,0.0011
3636.00,0.0011
3635.00,0.0011
3634.00,0.0012
3633.00,0.0012
3632.00,0.0012
3631.00,0.0011
3630.00,0.0011
3629.00,0.0011
3628.00,0.0011
3627.00,0.0011
3626.00,0.0011
3625.00,0.0012
3624.00,0.0012
3623.00,0.0012
3622.00,0.0013
3621.00,0.0013
3620.00,0.0013
3619.00,0.0013
3618.00,0.0013
3617.00,0.0013
3616.00,0.0014
3615.00,0.0014
3614.00,0.0015
3613.00,0.0015
3612.00,0.0016
3611.00,0.0016
3610.00,0.0016
3609.00,0.0015
3608.00,0.0016
3607.00,0.0016
3606.00,0.0016
3605.00,0.0016
3604.00,0.0016
3603.00,0.0016
3602.00,0.0016
3601.00,0.0016
3600.00,0.0017
3599.00,0.0017
3598.00,0.0017
3597.00,0.0017
3596.00,0.0017
3595.00,0.0017
3594.00,0.0017
3593.00,0.0017
3592.00,0.0017
3591.00,0.0017
3590.00,0.0017
3589.00,0.0018
3588.00,0.0018
3587.00,0.0018
3586.00,0.0018
3585.00,0.0019
3584.00,0.0019
3583.00,0.0019
3582.00,0.0020
3581.00,0.0020
3580.00,0.0020
3579.00,0.0020
3578.00,0.0020
3577.00,0.0021
3576.00,0.0021
3575.00,0.0022
3574.00,0.0022
3573.00,0.0023
3572.00,0.0023
3571.00,0.0023
3570.00,0.0024
3569.00,0.0024
3568.00,0.0024
3567.00,0.0024
3566.00,0.0024
3565.00,0.0024
3564.00,0.0024
3563.00,0.0024
3562.00,0.0024
3561.00,0.0024
3560.00,0.0025
3559.00,0.0025
3558.00,0.0026
3557.00,0.0026
3556.00,0.0026
3555.00,0.0026
3554.00,0.0026
3553.00,0.0027
3552.00,0.0027
3551.00,0.0028
3550.00,0.0029
3549.00,0.0029
3548.00,0.0030
3547.00,0.0030
3546.00,0.0030
3545.00,0.0031
3544.00,0.0031
3543.00,0.0031
3542.00,0.0031
3541.00,0.0031
3540.00,0.0031
3539.00,0.0031
3538.00,0.0032
3537.00,0.0032
3536.00,0.0032
3535.00,0.0032
3534.00,0.0032
3533.00,0.0032
3532.00,0.0032
3531.00,0.0032
3530.00,0.0033
3529.00,0.0034
3528.00,0.0034
3527.00,0.0035
3526.00,0.0035
3525.00,0.0035
3524.00,0.0035
3523.00,0.0036
3522.00,0.0036
3521.00,0.0036
3520.00,0.0037
3519.00,0.0037
3518.00,0.0038
3517.00,0.0038
3516.00,0.0038
3515.00,0.0039
3514.00,0.0039
3513.00,0.0040
3512.00,0.0040
3511.00,0.0040
3510.00,0.0041
3509.00,0.0041
3508.00,0.0041
3507.00,0.0041
3506.00,0.0041
3505.00,0.0041
3504.00,0.0042
3503.00,0.0042
3502.00,0.0042
3501.00,0.0043
3500.00,0.0044
3499.00,0.0044
3498.00,0.0044
3497.00,0.0045
3496.00,0.0045
3495.00,0.0045
3494.00,0.0046
3493.00,0.0046
3492.00,0.0046
3491.00,0.0046
3490.00,0.0046
3489.00,0.0046
3488.00,0.0046
3487.00,0.0047
3486.00,0.0047
3485.00,0.0047
3484.00,0.0048
3483.00,0.0048
3482.00,0.0048
3481.00,0.0048
3480.00,0.0049
3479.00,0.0050
3478.00,0.0050
3477.00,0.0051
3476.00,0.0051
3475.00,0.0052
3474.00,0.0052
3473.00,0.0052
3472.00,0.0052
3471.00,0.0052
3470.00,0.0052
3469.00,0.0052
3468.00,0.0052
3467.00,0.0052
3466.00,0.0052
3465.00,0.0053
3464.00,0.0053
3463.00,0.0054
3462.00,0.0054
3461.00,0.0054
3460.00,0.0055
3459.00,0.0054
3458.00,0.0054
3457.00,0.0055
3456.00,0.0055
3455.00,0.0055
3454.00,0.0056
3453.00,0.0056
3452.00,0.0057
3451.00,0.0057
3450.00,0.0057
3449.00,0.0058
3448.00,0.0058
3447.00,0.0058
3446.00,0.0058
3445.00,0.0058
3444.00,0.0059
3443.00,0.0059
3442.00,0.0060
3441.00,0.0060
3440.00,0.0061
3439.00,0.0061
3438.00,0.0062
3437.00,0.0062
3436.00,0.0062
3435.00,0.0062
3434.00,0.0063
3433.00,0.0063
3432.00,0.0063
3431.00,0.0063
3430.00,0.0063
3429.00,0.0063
3428.00,0.0063
3427.00,0.0064
3426.00,0.0065
3425.00,0.0065
3424.00,0.0065
3423.00,0.0065
3422.00,0.0065
3421.00,0.0065
3420.00,0.0065
3419.00,0.0065
3418.00,0.0065
3417.00,0.0066
3416.00,0.0066
3415.00,0.0066
3414.00,0.0067
3413.00,0.0067
3412.00,0.0068
3411.00,0.0068
3410.00,0.0068
3409.00,0.0068
3408.00,0.0068
3407.00,0.0069
3406.00,0.0069
3405.00,0.0070
3404.00,0.0070
3403.00,0.0070
3402.00,0.0070
3401.00,0.0070
3400.00,0.0071
3399.00,0.0071
3398.00,0.0072
3397.00,0.0072
3396.00,0.0072
3395.00,0.0072
3394.00,0.0072
3393.00,0.0072
3392.00,0.0072
3391.00,0.0073
3390.00,0.0073
3389.00,0.0073
3388.00,0.0073
3387.00,0.0073
3386.00,0.0073
3385.00,0.0073
3384.00,0.0073
3383.00,0.0073
3382.00,0.0072
3381.00,0.0072
3380.00,0.0072
3379.00,0.0072
3378.00,0.0073
3377.00,0.0073
3376.00,0.0074
3375.00,0.0074
3374.00,0.0074
3373.00,0.0074
3372.00,0.0074
3371.00,0.0074
3370.00,0.0073
3369.00,0.0073
3368.00,0.0073
3367.00,0.0073
3366.00,0.0073
3365.00,0.0073
3364.00,0.0074
3363.00,0.0074
3362.00,0.0074
3361.00,0.0074
3360.00,0.0074
3359.00,0.0074
3358.00,0.0074
3357.00,0.0075
3356.00,0.0075
3355.00,0.0075
3354.00,0.0075
3353.00,0.0075
3352.00,0.0076
3351.00,0.0076
3350.00,0.0076
3349.00,0.0076
3348.00,0.0076
3347.00,0.0075
3346.00,0.0075
3345.00,0.0074
3344.00,0.0074
3343.00,0.0074
3342.00,0.0075
3341.00,0.0075
3340.00,0.0075
3339.00,0.0075
3338.00,0.0075
3337.00,0.0075
3336.00,0.0075
3335.00,0.0075
3334.00,0.0075
3333.00,0.0074
3332.00,0.0074
3331.00,0.0074
3330.00,0.0074
3329.00,0.0074
3328.00,0.0074
3327.00,0.0074
3326.00,0.0074
3325.00,0.0074
3324.00,0.0074
3323.00,0.0074
3322.00,0.0074
3321.00,0.0074
3320.00,0.0074
3319.00,0.0074
3318.00,0.0074
3317.00,0.0074
3316.00,0.0074
3315.00,0.0074
3314.00,0.0074
3313.00,0.0074
3312.00,0.0074
3311.00,0.0074
3310.00,0.0074
3309.00,0.0074
3308.00,0.0074
3307.00,0.0074
3306.00,0.0074
3305.00,0.0075
3304.00,0.0075
3303.00,0.0075
3302.00,0.0076
3301.00,0.0076
3300.00,0.0075
3299.00,0.0075
3298.00,0.0074
3297.00,0.0074
3296.00,0.0073
3295.00,0.0073
3294.00,0.0073
3293.00,0.0073
3292.00,0.0073
3291.00,0.0072
3290.00,0.0072
3289.00,0.0071
3288.00,0.0071
3287.00,0.0070
3286.00,0.0070
3285.00,0.0070
3284.00,0.0070
3283.00,0.0070
3282.00,0.0070
3281.00,0.0070
3280.00,0.0069
3279.00,0.0069
3278.00,0.0068
3277.00,0.0068
3276.00,0.0068
3275.00,0.0067
3274.00,0.0067
3273.00,0.0066
3272.00,0.0066
3271.00,0.0066
3270.00,0.0065
3269.00,0.0065
3268.00,0.0065
3267.00,0.0065
3266.00,0.0065
3265.00,0.0065
3264.00,0.0065
3263.00,0.0065
3262.00,0.0065
3261.00,0.0064
3260.00,0.0064
3259.00,0.0064
3258.00,0.0063
3257.00,0.0063
3256.00,0.0062
3255.00,0.0062
3254.00,0.0062
3253.00,0.0062
3252.00,0.0062
3251.00,0.0062
3250.00,0.0062
3249.00,0.0062
3248.00,0.0062
3247.00,0.0061
3246.00,0.0061
3245.00,0.0061
3244.00,0.0060
3243.00,0.0060
3242.00,0.0059
3241.00,0.0059
3240.00,0.0059
3239.00,0.0059
3238.00,0.0059
3237.00,0.0059
3236.00,0.0059
3235.00,0.0059
3234.00,0.0059
3233.00,0.0060
3232.00,0.0060
3231.00,0.0061
3230.00,0.0061
3229.00,0.0061
3228.00,0.0061
3227.00,0.0061
3226.00,0.0061
3225.00,0.0060
3224.00,0.0060
3223.00,0.0060
3222.00,0.0060
3221.00,0.0060
3220.00,0.0060
3219.00,0.0060
3218.00,0.0060
3217.00,0.0061
3216.00,0.0061
3215.00,0.0061
3214.00,0.0061
3213.00,0.0061
3212.00,0.0061
3211.00,0.0061
3210.00,0.0062
3209.00,0.0062
3208.00,0.0062
3207.00,0.0062
3206.00,0.0062
3205.00,0.0063
3204.00,0.0063
3203.00,0.0063
3202.00,0.0063
3201.00,0.0063
3200.00,0.0063
3199.00,0.0063
3198.00,0.0063
3197.00,0.0063
3196.00,0.0063
3195.00,0.0064
3194.00,0.0063
3193.00,0.0063
3192.00,0.0063
3191.00,0.0063
3190.00,0.0063
3189.00,0.0063
3188.00,0.0063
3187.00,0.0063
3186.00,0.0063
3185.00,0.0062
3184.00,0.0062
3183.00,0.0061
3182.00,0.0061
3181.00,0.0061
3180.00,0.0060
3179.00,0.0060
3178.00,0.0060
3177.00,0.0060
3176.00,0.0060
3175.00,0.0060
3174.00,0.0059
3173.00,0.0059
3172.00,0.0059
3171.00,0.0059
3170.00,0.0058
3169.00,0.0058
3168.00,0.0058
3167.00,0.0058
3166.00,0.0058
3165.00,0.0057
3164.00,0.0057
3163.00,0.0057
3162.00,0.0057
3161.00,0.0056
3160.00,0.0056
3159.00,0.0056
3158.00,0.0055
3157.00,0.0055
3156.00,0.0055
3155.00,0.0055
3154.00,0.0055
3153.00,0.0055
3152.00,0.0055
3151.00,0.0055
3150.00,0.0055
3149.00,0.0054
3148.00,0.0054
3147.00,0.0054
3146.00,0.0054
3145.00,0.0054
3144.00,0.0054
3143.00,0.0054
3142.00,0.0054
3141.00,0.0054
3140.00,0.0053
3139.00,0.0053
3138.00,0.0053
3137.00,0.0052
3136.00,0.0052
3135.00,0.0052
3134.00,0.0052
3133.00,0.0052
3132.00,0.0051
3131.00,0.0051
3130.00,0.0050
3129.00,0.0050
3128.00,0.0050
3127.00,0.0050
3126.00,0.0049
3125.00,0.0049
3124.00,0.0049
3123.00,0.0048
3122.00,0.0048
3121.00,0.0047
3120.00,0.0047
3119.00,0.0047
3118.00,0.0047
3117.00,0.0047
3116.00,0.0046
3115.00,0.0046
3114.00,0.0046
3113.00,0.0046
3112.00,0.0045
3111.00,0.0045
3110.00,0.0045
3109.00,0.0045
3108.00,0.0044
3107.00,0.0044
3106.00,0.0044
3105.00,0.0044
3104.00,0.0044
3103.00,0.0044
3102.00,0.0044
3101.00,0.0043
3100.00,0.0043
3099.00,0.0043
3098.00,0.0042
3097.00,0.0042
3096.00,0.0042
3095.00,0.0042
3094.00,0.0042
3093.00,0.0042
3092.00,0.0042
3091.00,0.0042
3090.00,0.0041
3089.00,0.0041
3088.00,0.0040
3087.00,0.0040
3086.00,0.0040
3085.00,0.0040
3084.00,0.0040
3083.00,0.0040
3082.00,0.0040
3081.00,0.0040
3080.00,0.0040
3079.00,0.0040
3078.00,0.0041
3077.00,0.0041
3076.00,0.0041
3075.00,0.0041
3074.00,0.0041
3073.00,0.0041
3072.00,0.0040
3071.00,0.0040
3070.00,0.0040
3069.00,0.0040
3068.00,0.0041
3067.00,0.0041
3066.00,0.0041
3065.00,0.0041
3064.00,0.0042
3063.00,0.0042
3062.00,0.0042
3061.00,0.0041
3060.00,0.0041
3059.00,0.0041
3058.00,0.0041
3057.00,0.0041
3056.00,0.0041
3055.00,0.0041
3054.00,0.0042
3053.00,0.0042
3052.00,0.0042
3051.00,0.0042
3050.00,0.0042
3049.00,0.0042
3048.00,0.0043
3047.00,0.0043
3046.00,0.0043
3045.00,0.0043
3044.00,0.0043
3043.00,0.0043
3042.00,0.0044
3041.00,0.0044
3040.00,0.0044
3039.00,0.0045
3038.00,0.0045
3037.00,0.0046
3036.00,0.0046
3035.00,0.0046
3034.00,0.0046
3033.00,0.0046
3032.00,0.0047
3031.00,0.0047
3030.00,0.0047
3029.00,0.0048
3028.00,0.0048
3027.00,0.0048
3026.00,0.0049
3025.00,0.0050
3024.00,0.0051
3023.00,0.0052
3022.00,0.0052
3021.00,0.0053
3020.00,0.0053
3019.00,0.0053
3018.00,0.0054
3017.00,0.0055
3016.00,0.0056
3015.00,0.0057
3014.00,0.0058
3013.00,0.0059
3012.00,0.0061
3011.00,0.0062
3010.00,0.0063
3009.00,0.0064
3008.00,0.0065
3007.00,0.0066
3006.00,0.0068
3005.00,0.0070
3004.00,0.0072
3003.00,0.0073
3002.00,0.0075
3001.00,0.0077
3000.00,0.0079
2999.00,0.0082
2998.00,0.0084
2997.00,0.0088
2996.00,0.0091
2995.00,0.0095
2994.00,0.0099
2993.00,0.0103
2992.00,0.0109
2991.00,0.0114
2990.00,0.0120
2989.00,0.0127
2988.00,0.0135
2987.00,0.0143
2986.00,0.0152
2985.00,0.0163
2984.00,0.0174
2983.00,0.0187
2982.00,0.0202
2981.00,0.0219
2980.00,0.0238
2979.00,0.0260
2978.00,0.0286
2977.00,0.0316
2976.00,0.0350
2975.00,0.0388
2974.00,0.0432
2973.00,0.0482
2972.00,0.0539
2971.00,0.0604
2970.00,0.0676
2969.00,0.0757
2968.00,0.0846
2967.00,0.0942
2966.00,0.1047
2965.00,0.1157
2964.00,0.1270
2963.00,0.1382
2962.00,0.1487
2961.00,0.1580
2960.00,0.1656
2959.00,0.1715
2958.00,0.1756
2957.00,0.1784
2956.00,0.1804
2955.00,0.1821
2954.00,0.1838
2953.00,0.1854
2952.00,0.1864
2951.00,0.1861
2950.00,0.1837
2949.00,0.1786
2948.00,0.1710
2947.00,0.1611
2946.00,0.1499
2945.00,0.1385
2944.00,0.1279
2943.00,0.1190
2942.00,0.1121
2941.00,0.1074
2940.00,0.1050
2939.00,0.1045
2938.00,0.1058
2937.00,0.1087
2936.00,0.1131
2935.00,0.1187
2934.00,0.1256
2933.00,0.1335
2932.00,0.1423
2931.00,0.1518
2930.00,0.1616
2929.00,0.1716
2928.00,0.1815
2927.00,0.1909
2926.00,0.1998
2925.00,0.2082
2924.00,0.2161
2923.00,0.2236
2922.00,0.2308
2921.00,0.2374
2920.00,0.2429
2919.00,0.2467
2918.00,0.2483
2917.00,0.2471
2916.00,0.2432
2915.00,0.2371
2914.00,0.2296
2913.00,0.2215
2912.00,0.2137
2911.00,0.2065
2910.00,0.2002
2909.00,0.1946
2908.00,0.1894
2907.00,0.1844
2906.00,0.1794
2905.00,0.1740
2904.00,0.1682
2903.00,0.1622
2902.00,0.1559
2901.00,0.1496
2900.00,0.1434
2899.00,0.1374
2898.00,0.1317
2897.00,0.1265
2896.00,0.1218
2895.00,0.1176
2894.00,0.1141
2893.00,0.1110
2892.00,0.1086
2891.00,0.1067
2890.00,0.1052
2889.00,0.1042
2888.00,0.1035
2887.00,0.1031
2886.00,0.1031
2885.00,0.1034
2884.00,0.1041
2883.00,0.1052
2882.00,0.1067
2881.00,0.1083
2880.00,0.1099
2879.00,0.1112
2878.00,0.1120
2877.00,0.1121
2876.00,0.1116
2875.00,0.1110
2874.00,0.1105
2873.00,0.1104
2872.00,0.1110
2871.00,0.1122
2870.00,0.1137
2869.00,0.1151
2868.00,0.1159
2867.00,0.1154
2866.00,0.1133
2865.00,0.1093
2864.00,0.1039
2863.00,0.0978
2862.00,0.0918
2861.00,0.0866
2860.00,0.0827
2859.00,0.0802
2858.00,0.0789
2857.00,0.0787
2856.00,0.0794
2855.00,0.0807
2854.00,0.0823
2853.00,0.0842
2852.00,0.0861
2851.00,0.0876
2850.00,0.0887
2849.00,0.0895
2848.00,0.0901
2847.00,0.0912
2846.00,0.0931
2845.00,0.0962
2844.00,0.1004
2843.00,0.1055
2842.00,0.1111
2841.00,0.1165
2840.00,0.1210
2839.00,0.1235
2838.00,0.1234
2837.00,0.1203
2836.00,0.1140
2835.00,0.1052
2834.00,0.0948
2833.00,0.0840
2832.00,0.0737
2831.00,0.0644
2830.00,0.0566
2829.00,0.0501
2828.00,0.0449
2827.00,0.0407
2826.00,0.0373
2825.00,0.0345
2824.00,0.0321
2823.00,0.0301
2822.00,0.0283
2821.00,0.0267
2820.00,0.0254
2819.00,0.0242
2818.00,0.0232
2817.00,0.0223
2816.00,0.0215
2815.00,0.0208
2814.00,0.0202
2813.00,0.0196
2812.00,0.0190
2811.00,0.0185
2810.00,0.0180
2809.00,0.0174
2808.00,0.0169
2807.00,0.0163
2806.00,0.0157
2805.00,0.0151
2804.00,0.0145
2803.00,0.0139
2802.00,0.0134
2801.00,0.0129
2800.00,0.0125
2799.00,0.0122
2798.00,0.0120
2797.00,0.0118
2796.00,0.0115
2795.00,0.0113
2794.00,0.0110
2793.00,0.0108
2792.00,0.0104
2791.00,0.0101
2790.00,0.0098
2789.00,0.0095
2788.00,0.0091
2787.00,0.0088
2786.00,0.0085
2785.00,0.0082
2784.00,0.0079
2783.00,0.0076
2782.00,0.0074
2781.00,0.0072
2780.00,0.0070
2779.00,0.0069
2778.00,0.0067
2777.00,0.0066
2776.00,0.0065
2775.00,0.0064
2774.00,0.0062
2773.00,0.0061
2772.00,0.0061
2771.00,0.0060
2770.00,0.0060
2769.00,0.0060
2768.00,0.0059
2767.00,0.0059
2766.00,0.0058
2765.00,0.0058
2764.00,0.0057
2763.00,0.0057
2762.00,0.0057
2761.00,0.0056
2760.00,0.0055
2759.00,0.0055
2758.00,0.0055
2757.00,0.0055
2756.00,0.0055
2755.00,0.0054
2754.00,0.0054
2753.00,0.0054
2752.00,0.0054
2751.00,0.0054
2750.00,0.0054
2749.00,0.0054
2748.00,0.0054
2747.00,0.0054
2746.00,0.0055
2745.00,0.0055
2744.00,0.0056
2743.00,0.0057
2742.00,0.0058
2741.00,0.0059
2740.00,0.0060
2739.00,0.0061
2738.00,0.0062
2737.00,0.0063
2736.00,0.0064
2735.00,0.0065
2734.00,0.0066
2733.00,0.0068
2732.00,0.0069
2731.00,0.0071
2730.00,0.0073
2729.00,0.0075
2728.00,0.0078
2727.00,0.0080
2726.00,0.0083
2725.00,0.0085
2724.00,0.0086
2723.00,0.0086
2722.00,0.0085
2721.00,0.0083
2720.00,0.0081
2719.00,0.0079
2718.00,0.0076
2717.00,0.0073
2716.00,0.0071
2715.00,0.0068
2714.00,0.0065
2713.00,0.0063
2712.00,0.0061
2711.00,0.0060
2710.00,0.0058
2709.00,0.0057
2708.00,0.0055
2707.00,0.0054
2706.00,0.0053
2705.00,0.0052
2704.00,0.0052
2703.00,0.0051
2702.00,0.0050
2701.00,0.0049
2700.00,0.0048
2699.00,0.0048
2698.00,0.0048
2697.00,0.0047
2696.00,0.0047
2695.00,0.0047
2694.00,0.0047
2693.00,0.0047
2692.00,0.0047
2691.00,0.0047
2690.00,0.0047
2689.00,0.0047
2688.00,0.0047
2687.00,0.0047
2686.00,0.0047
2685.00,0.0047
2684.00,0.0048
2683.00,0.0048
2682.00,0.0048
2681.00,0.0048
2680.00,0.0048
2679.00,0.0047
2678.00,0.0047
2677.00,0.0047
2676.00,0.0047
2675.00,0.0047
2674.00,0.0046
2673.00,0.0046
2672.00,0.0046
2671.00,0.0045
2670.00,0.0045
2669.00,0.0045
2668.00,0.0045
2667.00,0.0045
2666.00,0.0046
2665.00,0.0047
2664.00,0.0048
2663.00,0.0048
2662.00,0.0049
2661.00,0.0049
2660.00,0.0050
2659.00,0.0050
2658.00,0.0049
2657.00,0.0049
2656.00,0.0048
2655.00,0.0048
2654.00,0.0047
2653.00,0.0047
2652.00,0.0046
2651.00,0.0046
2650.00,0.0045
2649.00,0.0045
2648.00,0.0045
2647.00,0.0044
2646.00,0.0044
2645.00,0.0044
2644.00,0.0043
2643.00,0.0042
2642.00,0.0042
2641.00,0.0041
2640.00,0.0041
2639.00,0.0041
2638.00,0.0041
2637.00,0.0040
2636.00,0.0040
2635.00,0.0040
2634.00,0.0040
2633.00,0.0040
2632.00,0.0040
2631.00,0.0040
2630.00,0.0040
2629.00,0.0040
2628.00,0.0041
2627.00,0.0041
2626.00,0.0041
2625.00,0.0042
2624.00,0.0042
2623.00,0.0042
2622.00,0.0042
2621.00,0.0042
2620.00,0.0042
2619.00,0.0041
2618.00,0.0041
2617.00,0.0041
2616.00,0.0042
2615.00,0.0042
2614.00,0.0042
2613.00,0.0042
2612.00,0.0041
2611.00,0.0040
2610.00,0.0038
2609.00,0.0037
2608.00,0.0036
2607.00,0.0036
2606.00,0.0035
2605.00,0.0035
2604.00,0.0034
2603.00,0.0034
2602.00,0.0033
2601.00,0.0033
2600.00,0.0032
2599.00,0.0032
2598.00,0.0032
2597.00,0.0032
2596.00,0.0032
2595.00,0.0033
2594.00,0.0033
2593.00,0.0033
2592.00,0.0033
2591.00,0.0033
2590.00,0.0033
2589.00,0.0034
2588.00,0.0035
2587.00,0.0036
2586.00,0.0036
2585.00,0.0036
2584.00,0.0036
2583.00,0.0037
2582.00,0.0037
2581.00,0.0037
2580.00,0.0037
2579.00,0.0036
2578.00,0.0035
2577.00,0.0035
2576.00,0.0034
2575.00,0.0033
2574.00,0.0032
2573.00,0.0031
2572.00,0.0030
2571.00,0.0030
2570.00,0.0029
2569.00,0.0028
2568.00,0.0028
2567.00,0.0027
2566.00,0.0026
2565.00,0.0025
2564.00,0.0025
2563.00,0.0024
2562.00,0.0024
2561.00,0.0024
2560.00,0.0023
2559.00,0.0023
2558.00,0.0023
2557.00,0.0024
2556.00,0.0024
2555.00,0.0025
2554.00,0.0025
2553.00,0.0024
2552.00,0.0024
2551.00,0.0023
2550.00,0.0022
2549.00,0.0021
2548.00,0.0020
2547.00,0.0020
2546.00,0.0019
2545.00,0.0019
2544.00,0.0019
2543.00,0.0019
2542.00,0.0019
2541.00,0.0019
2540.00,0.0019
2539.00,0.0019
2538.00,0.0019
2537.00,0.0018
2536.00,0.0018
2535.00,0.0017
2534.00,0.0018
2533.00,0.0018
2532.00,0.0018
2531.00,0.0018
2530.00,0.0017
2529.00,0.0017
2528.00,0.0016
2527.00,0.0015
2526.00,0.0015
2525.00,0.0015
2524.00,0.0015
2523.00,0.0016
2522.00,0.0016
2521.00,0.0016
2520.00,0.0016
2519.00,0.0015
2518.00,0.0015
2517.00,0.0014
2516.00,0.0014
2515.00,0.0013
2514.00,0.0013
2513.00,0.0012
2512.00,0.0012
2511.00,0.0012
2510.00,0.0013
2509.00,0.0013
2508.00,0.0013
2507.00,0.0013
2506.00,0.0013
2505.00,0.0013
2504.00,0.0012
2503.00,0.0011
2502.00,0.0011
2501.00,0.0011
2500.00,0.0011
2499.00,0.0012
2498.00,0.0012
2497.00,0.0011
2496.00,0.0011
2495.00,0.0011
2494.00,0.0011
2493.00,0.0011
2492.00,0.0011
2491.00,0.0011
2490.00,0.0010
2489.00,0.0011
2488.00,0.0011
2487.00,0.0012
2486.00,0.0012
2485.00,0.0012
2484.00,0.0012
2483.00,0.0012
2482.00,0.0011
2481.00,0.0010
2480.00,0.0010
2479.00,0.0010
2478.00,0.0010
2477.00,0.0010
2476.00,0.0010
2475.00,0.0010
2474.00,0.0010
2473.00,0.0009
2472.00,0.0009
2471.00,0.0009
2470.00,0.0009
2469.00,0.0009
2468.00,0.0010
2467.00,0.0010
2466.00,0.0010
2465.00,0.0010
2464.00,0.0010
2463.00,0.0011
2462.00,0.0012
2461.00,0.0012
2460.00,0.0012
2459.00,0.0012
2458.00,0.0012
2457.00,0.0013
2456.00,0.0013
2455.00,0.0013
2454.00,0.0012
2453.00,0.0012
2452.00,0.0011
2451.00,0.0011
2450.00,0.0011
2449.00,0.0011
2448.00,0.0011
2447.00,0.0010
2446.00,0.0010
2445.00,0.0010
2444.00,0.0010
2443.00,0.0011
2442.00,0.0012
2441.00,0.0012
2440.00,0.0013
2439.00,0.0012
2438.00,0.0012
2437.00,0.0013
2436.00,0.0013
2435.00,0.0014
2434.00,0.0014
2433.00,0.0015
2432.00,0.0015
2431.00,0.0015
2430.00,0.0015
2429.00,0.0015
2428.00,0.0015
2427.00,0.0014
2426.00,0.0014
2425.00,0.0014
2424.00,0.0013
2423.00,0.0012
2422.00,0.0011
2421.00,0.0011
2420.00,0.0010
2419.00,0.0011
2418.00,0.0012
2417.00,0.0012
2416.00,0.0012
2415.00,0.0011
2414.00,0.0011
2413.00,0.0010
2412.00,0.0010
2411.00,0.0011
2410.00,0.0011
2409.00,0.0011
2408.00,0.0011
2407.00,0.0011
2406.00,0.0010
2405.00,0.0010
2404.00,0.0010
2403.00,0.0010
2402.00,0.0009
2401.00,0.0009
2400.00,0.0009
2399.00,0.0009
2398.00,0.0009
2397.00,0.0009
2396.00,0.0010
2395.00,0.0010
2394.00,0.0010
2393.00,0.0010
2392.00,0.0010
2391.00,0.0010
2390.00,0.0010
2389.00,0.0009
2388.00,0.0009
2387.00,0.0009
2386.00,0.0009
2385.00,0.0009
2384.00,0.0008
2383.00,0.0008
2382.00,0.0007
2381.00,0.0007
2380.00,0.0007
2379.00,0.0006
2378.00,0.0006
2377.00,0.0006
2376.00,0.0005
2375.00,0.0005
2374.00,0.0005
2373.00,0.0006
2372.00,0.0006
2371.00,0.0006
2370.00,0.0006
2369.00,0.0006
2368.00,0.0005
2367.00,0.0006
2366.00,0.0006
2365.00,0.0007
2364.00,0.0007
2363.00,0.0007
2362.00,0.0007
2361.00,0.0006
2360.00,0.0006
2359.00,0.0006
2358.00,0.0006
2357.00,0.0007
2356.00,0.0007
2355.00,0.0007
2354.00,0.0006
2353.00,0.0006
2352.00,0.0005
2351.00,0.0006
2350.00,0.0007
2349.00,0.0008
2348.00,0.0009
2347.00,0.0008
2346.00,0.0008
2345.00,0.0007
2344.00,0.0007
2343.00,0.0007
2342.00,0.0008
2341.00,0.0009
2340.00,0.0009
2339.00,0.0009
2338.00,0.0010
2337.00,0.0010
2336.00,0.0010
2335.00,0.0010
2334.00,0.0010
2333.00,0.0010
2332.00,0.0009
2331.00,0.0008
2330.00,0.0007
2329.00,0.0008
2328.00,0.0010
2327.00,0.0013
2326.00,0.0018
2325.00,0.0022
2324.00,0.0024
2323.00,0.0024
2322.00,0.0021
2321.00,0.0019
2320.00,0.0017
2319.00,0.0016
2318.00,0.0015
2317.00,0.0014
2316.00,0.0014
2315.00,0.0013
2314.00,0.0012
2313.00,0.0011
2312.00,0.0010
2311.00,0.0009
2310.00,0.0009
2309.00,0.0009
2308.00,0.0009
2307.00,0.0010
2306.00,0.0010
2305.00,0.0011
2304.00,0.0011
2303.00,0.0011
2302.00,0.0010
2301.00,0.0010
2300.00,0.0010
2299.00,0.0010
2298.00,0.0011
2297.00,0.0012
2296.00,0.0013
2295.00,0.0013
2294.00,0.0014
2293.00,0.0014
2292.00,0.0015
2291.00,0.0016
2290.00,0.0018
2289.00,0.0019
2288.00,0.0020
2287.00,0.0021
2286.00,0.0021
2285.00,0.0020
2284.00,0.0020
2283.00,0.0019
2282.00,0.0018
2281.00,0.0017
2280.00,0.0017
2279.00,0.0016
2278.00,0.0015
2277.00,0.0015
2276.00,0.0015
2275.00,0.0015
2274.00,0.0015
2273.00,0.0015
2272.00,0.0015
2271.00,0.0015
2270.00,0.0014
2269.00,0.0014
2268.00,0.0014
2267.00,0.0013
2266.00,0.0013
2265.00,0.0013
2264.00,0.0014
2263.00,0.0015
2262.00,0.0016
2261.00,0.0015
2260.00,0.0014
2259.00,0.0013
2258.00,0.0012
2257.00,0.0012
2256.00,0.0011
2255.00,0.0011
2254.00,0.0011
2253.00,0.0010
2252.00,0.0010
2251.00,0.0009
2250.00,0.0008
2249.00,0.0009
2248.00,0.0009
2247.00,0.0009
2246.00,0.0009
2245.00,0.0009
2244.00,0.0010
2243.00,0.0011
2242.00,0.0011
2241.00,0.0010
2240.00,0.0010
2239.00,0.0011
2238.00,0.0012
2237.00,0.0013
2236.00,0.0013
2235.00,0.0012
2234.00,0.0011
2233.00,0.0011
2232.00,0.0012
2231.00,0.0012
2230.00,0.0012
2229.00,0.0011
2228.00,0.0010
2227.00,0.0009
2226.00,0.0008
2225.00,0.0008
2224.00,0.0009
2223.00,0.0009
2222.00,0.0008
2221.00,0.0006
2220.00,0.0006
2219.00,0.0006
2218.00,0.0006
2217.00,0.0007
2216.00,0.0009
2215.00,0.0010
2214.00,0.0012
2213.00,0.0014
2212.00,0.0014
2211.00,0.0012
2210.00,0.0010
2209.00,0.0008
2208.00,0.0006
2207.00,0.0005
2206.00,0.0004
2205.00,0.0004
2204.00,0.0005
2203.00,0.0006
2202.00,0.0007
2201.00,0.0008
2200.00,0.0009
2199.00,0.0009
2198.00,0.0009
2197.00,0.0009
2196.00,0.0010
2195.00,0.0011
2194.00,0.0011
2193.00,0.0011
2192.00,0.0012
2191.00,0.0011
2190.00,0.0010
2189.00,0.0009
2188.00,0.0009
2187.00,0.0012
2186.00,0.0015
2185.00,0.0016
2184.00,0.0015
2183.00,0.0011
2182.00,0.0006
2181.00,0.0004
2180.00,0.0003
2179.00,0.0004
2178.00,0.0005
2177.00,0.0005
2176.00,0.0006
2175.00,0.0007
2174.00,0.0008
2173.00,0.0010
2172.00,0.0012
2171.00,0.0014
2170.00,0.0016
2169.00,0.0018
2168.00,0.0019
2167.00,0.0019
2166.00,0.0018
2165.00,0.0018
2164.00,0.0018
2163.00,0.0018
2162.00,0.0017
2161.00,0.0010
2160.00,-0.0004
2159.00,-0.0021
2158.00,-0.0034
2157.00,-0.0037
2156.00,-0.0032
2155.00,-0.0024
2154.00,-0.0018
2153.00,-0.0014
2152.00,-0.0012
2151.00,-0.0013
2150.00,-0.0013
2149.00,-0.0013
2148.00,-0.0013
2147.00,-0.0013
2146.00,-0.0014
2145.00,-0.0014
2144.00,-0.0013
2143.00,-0.0012
2142.00,-0.0011
2141.00,-0.0011
2140.00,-0.0011
2139.00,-0.0011
2138.00,-0.0011
2137.00,-0.0011
2136.00,-0.0012
2135.00,-0.0014
2134.00,-0.0016
2133.00,-0.0017
2132.00,-0.0017
2131.00,-0.0016
2130.00,-0.0015
2129.00,-0.0013
2128.00,-0.0011
2127.00,-0.0009
2126.00,-0.0007
2125.00,-0.0006
2124.00,-0.0004
2123.00,-0.0002
2122.00,-0.0001
2121.00,0.0000
2120.00,0.0001
2119.00,0.0001
2118.00,0.0000
2117.00,0.0000
2116.00,0.0001
2115.00,0.0002
2114.00,0.0003
2113.00,0.0004
2112.00,0.0004
2111.00,0.0004
2110.00,0.0004
2109.00,0.0003
2108.00,0.0002
2107.00,0.0001
2106.00,0.0001
2105.00,0.0001
2104.00,0.0002
2103.00,0.0003
2102.00,0.0004
2101.00,0.0004
2100.00,0.0004
2099.00,0.0002
2098.00,0.0001
2097.00,-0.0001
2096.00,-0.0003
2095.00,-0.0005
2094.00,-0.0006
2093.00,-0.0005
2092.00,-0.0002
2091.00,0.0001
2090.00,0.0003
2089.00,0.0003
2088.00,0.0003
2087.00,0.0002
2086.00,0.0002
2085.00,0.0002
2084.00,0.0002
2083.00,0.0002
2082.00,0.0003
2081.00,0.0004
2080.00,0.0006
2079.00,0.0006
2078.00,0.0004
2077.00,0.0001
2076.00,-0.0002
2075.00,-0.0003
2074.00,-0.0004
2073.00,-0.0004
2072.00,-0.0003
2071.00,-0.0002
2070.00,-0.0001
2069.00,-0.0001
2068.00,-0.0001
2067.00,-0.0002
2066.00,-0.0003
2065.00,-0.0003
2064.00,-0.0003
2063.00,-0.0001
2062.00,0.0001
2061.00,0.0003
2060.00,0.0004
2059.00,0.0004
2058.00,0.0004
2057.00,0.0005
2056.00,0.0004
2055.00,0.0004
2054.00,0.0004
2053.00,0.0007
2052.00,0.0011
2051.00,0.0014
2050.00,0.0013
2049.00,0.0009
2048.00,0.0005
2047.00,0.0002
2046.00,0.0000
2045.00,0.0000
2044.00,0.0000
2043.00,0.0001
2042.00,0.0002
2041.00,0.0003
2040.00,0.0004
2039.00,0.0003
2038.00,0.0002
2037.00,0.0001
2036.00,0.0000
2035.00,-0.0000
2034.00,-0.0001
2033.00,-0.0001
2032.00,-0.0002
2031.00,-0.0005
2030.00,-0.0008
2029.00,-0.0009
2028.00,-0.0008
2027.00,-0.0007
2026.00,-0.0005
2025.00,-0.0003
2024.00,-0.0004
2023.00,-0.0007
2022.00,-0.0012
2021.00,-0.0015
2020.00,-0.0015
2019.00,-0.0013
2018.00,-0.0010
2017.00,-0.0009
2016.00,-0.0008
2015.00,-0.0007
2014.00,-0.0007
2013.00,-0.0008
2012.00,-0.0008
2011.00,-0.0010
2010.00,-0.0013
2009.00,-0.0015
2008.00,-0.0016
2007.00,-0.0015
2006.00,-0.0013
2005.00,-0.0013
2004.00,-0.0014
2003.00,-0.0016
2002.00,-0.0017
2001.00,-0.0016
2000.00,-0.0015
1999.00,-0.0013
1998.00,-0.0011
1997.00,-0.0010
1996.00,-0.0010
1995.00,-0.0011
1994.00,-0.0012
1993.00,-0.0011
1992.00,-0.0008
1991.00,-0.0006
1990.00,-0.0005
1989.00,-0.0004
1988.00,-0.0004
1987.00,-0.0004
1986.00,-0.0004
1985.00,-0.0004
1984.00,-0.0004
1983.00,-0.0002
1982.00,0.0002
1981.00,0.0008
1980.00,0.0012
1979.00,0.0012
1978.00,0.0007
1977.00,-0.0002
1976.00,-0.0010
1975.00,-0.0014
1974.00,-0.0016
1973.00,-0.0014
1972.00,-0.0012
1971.00,-0.0011
1970.00,-0.0010
1969.00,-0.0008
1968.00,-0.0007
1967.00,-0.0007
1966.00,-0.0008
1965.00,-0.0011
1964.00,-0.0014
1963.00,-0.0017
1962.00,-0.0021
1961.00,-0.0022
1960.00,-0.0022
1959.00,-0.0023
1958.00,-0.0022
1957.00,-0.0022
1956.00,-0.0020
1955.00,-0.0020
1954.00,-0.0020
1953.00,-0.0019
1952.00,-0.0018
1951.00,-0.0016
1950.00,-0.0014
1949.00,-0.0013
1948.00,-0.0014
1947.00,-0.0016
1946.00,-0.0018
1945.00,-0.0019
1944.00,-0.0020
1943.00,-0.0019
1942.00,-0.0018
1941.00,-0.0016
1940.00,-0.0014
1939.00,-0.0013
1938.00,-0.0013
1937.00,-0.0012
1936.00,-0.0010
1935.00,-0.0009
1934.00,-0.0008
1933.00,-0.0008
1932.00,-0.0008
1931.00,-0.0008
1930.00,-0.0008
1929.00,-0.0007
1928.00,-0.0007
1927.00,-0.0006
1926.00,-0.0006
1925.00,-0.0006
1924.00,-0.0005
1923.00,-0.0005
1922.00,-0.0005
1921.00,-0.0004
1920.00,-0.0003
1919.00,-0.0002
1918.00,-0.0001
1917.00,-0.0000
1916.00,-0.0001
1915.00,-0.0002
1914.00,-0.0004
1913.00,-0.0005
1912.00,-0.0006
1911.00,-0.0006
1910.00,-0.0006
1909.00,-0.0005
1908.00,-0.0004
1907.00,-0.0003
1906.00,-0.0002
1905.00,-0.0001
1904.00,-0.0001
1903.00,-0.0001
1902.00,-0.0001
1901.00,-0.0001
1900.00,-0.0002
1899.00,-0.0002
1898.00,-0.0003
1897.00,-0.0003
1896.00,-0.0002
1895.00,-0.0001
1894.00,-0.0000
1893.00,-0.0000
1892.00,-0.0001
1891.00,-0.0001
1890.00,-0.0000
1889.00,-0.0000
1888.00,-0.0001
1887.00,-0.0001
1886.00,-0.0002
1885.00,-0.0001
1884.00,-0.0001
1883.00,-0.0001
1882.00,-0.0001
1881.00,-0.0000
1880.00,0.0001
1879.00,0.0001
1878.00,0.0001
1877.00,0.0001
1876.00,0.0001
1875.00,0.0000
1874.00,-0.0000
1873.00,-0.0001
1872.00,-0.0000
1871.00,-0.0000
1870.00,-0.0000
1869.00,-0.0001
1868.00,-0.0001
1867.00,-0.0001
1866.00,-0.0001
1865.00,-0.0000
1864.00,0.0000
1863.00,0.0000
1862.00,-0.0000
1861.00,-0.0001
1860.00,-0.0001
1859.00,-0.0001
1858.00,-0.0000
1857.00,0.0001
1856.00,0.0002
1855.00,0.0002
1854.00,0.0001
1853.00,0.0000
1852.00,-0.0000
1851.00,-0.0000
1850.00,-0.0000
1849.00,0.0000
1848.00,0.0001
1847.00,0.0002
1846.00,0.0003
1845.00,0.0003
1844.00,0.0003
1843.00,0.0003
1842.00,0.0003
1841.00,0.0003
1840.00,0.0003
1839.00,0.0003
1838.00,0.0002
1837.00,0.0002
1836.00,0.0003
1835.00,0.0003
1834.00,0.0003
1833.00,0.0003
1832.00,0.0003
1831.00,0.0003
1830.00,0.0003
1829.00,0.0004
1828.00,0.0004
1827.00,0.0005
1826.00,0.0004
1825.00,0.0004
1824.00,0.0005
1823.00,0.0005
1822.00,0.0005
1821.00,0.0005
1820.00,0.0004
1819.00,0.0003
1818.00,0.0001
1817.00,0.0000
1816.00,-0.0000
1815.00,0.0000
1814.00,0.0001
1813.00,0.0002
1812.00,0.0002
1811.00,0.0002
1810.00,0.0002
1809.00,0.0002
1808.00,0.0003
1807.00,0.0003
1806.00,0.0003
1805.00,0.0003
1804.00,0.0004
1803.00,0.0004
1802.00,0.0005
1801.00,0.0005
1800.00,0.0005
1799.00,0.0006
1798.00,0.0006
1797.00,0.0006
1796.00,0.0006
1795.00,0.0006
1794.00,0.0007
1793.00,0.0007
1792.00,0.0008
1791.00,0.0008
1790.00,0.0008
1789.00,0.0008
1788.00,0.0008
1787.00,0.0008
1786.00,0.0009
1785.00,0.0009
1784.00,0.0009
1783.00,0.0009
1782.00,0.0008
1781.00,0.0008
1780.00,0.0009
1779.00,0.0009
1778.00,0.0009
1777.00,0.0009
1776.00,0.0010
1775.00,0.0010
1774.00,0.0010
1773.00,0.0010
1772.00,0.0011
1771.00,0.0011
1770.00,0.0012
1769.00,0.0012
1768.00,0.0013
1767.00,0.0013
1766.00,0.0012
1765.00,0.0012
1764.00,0.0012
1763.00,0.0012
1762.00,0.0012
1761.00,0.0012
1760.00,0.0013
1759.00,0.0013
1758.00,0.0013
1757.00,0.0014
1756.00,0.0014
1755.00,0.0014
1754.00,0.0015
1753.00,0.0016
1752.00,0.0017
1751.00,0.0017
1750.00,0.0018
1749.00,0.0019
1748.00,0.0019
1747.00,0.0020
1746.00,0.0021
1745.00,0.0021
1744.00,0.0022
1743.00,0.0022
1742.00,0.0024
1741.00,0.0025
1740.00,0.0027
1739.00,0.0028
1738.00,0.0028
1737.00,0.0028
1736.00,0.0028
1735.00,0.0027
1734.00,0.0027
1733.00,0.0027
1732.00,0.0027
1731.00,0.0027
1730.00,0.0027
1729.00,0.0027
1728.00,0.0028
1727.00,0.0028
1726.00,0.0029
1725.00,0.0029
1724.00,0.0030
1723.00,0.0030
1722.00,0.0030
1721.00,0.0030
1720.00,0.0030
1719.00,0.0029
1718.00,0.0029
1717.00,0.0029
1716.00,0.0029
1715.00,0.0029
1714.00,0.0028
1713.00,0.0028
1712.00,0.0027
1711.00,0.0027
1710.00,0.0028
1709.00,0.0028
1708.00,0.0029
1707.00,0.0029
1706.00,0.0029
1705.00,0.0029
1704.00,0.0030
1703.00,0.0030
1702.00,0.0031
1701.00,0.0031
1700.00,0.0032
1699.00,0.0033
1698.00,0.0034
1697.00,0.0035
1696.00,0.0035
1695.00,0.0036
1694.00,0.0036
1693.00,0.0037
1692.00,0.0038
1691.00,0.0039
1690.00,0.0041
1689.00,0.0042
1688.00,0.0044
1687.00,0.0045
1686.00,0.0045
1685.00,0.0046
1684.00,0.0048
1683.00,0.0050
1682.00,0.0051
1681.00,0.0053
1680.00,0.0054
1679.00,0.0056
1678.00,0.0057
1677.00,0.0059
1676.00,0.0060
1675.00,0.0062
1674.00,0.0063
1673.00,0.0064
1672.00,0.0065
1671.00,0.0065
1670.00,0.0066
1669.00,0.0068
1668.00,0.0069
1667.00,0.0069
1666.00,0.0070
1665.00,0.0070
1664.00,0.0071
1663.00,0.0072
1662.00,0.0073
1661.00,0.0074
1660.00,0.0076
1659.00,0.0077
1658.00,0.0077
1657.00,0.0078
1656.00,0.0079
1655.00,0.0079
1654.00,0.0079
1653.00,0.0080
1652.00,0.0082
1651.00,0.0083
1650.00,0.0084
1649.00,0.0085
1648.00,0.0087
1647.00,0.0090
1646.00,0.0091
1645.00,0.0092
1644.00,0.0092
1643.00,0.0092
1642.00,0.0093
1641.00,0.0093
1640.00,0.0094
1639.00,0.0095
1638.00,0.0095
1637.00,0.0095
1636.00,0.0095
1635.00,0.0094
1634.00,0.0094
1633.00,0.0094
1632.00,0.0094
1631.00,0.0093
1630.00,0.0092
1629.00,0.0092
1628.00,0.0091
1627.00,0.0091
1626.00,0.0091
1625.00,0.0091
1624.00,0.0090
1623.00,0.0090
1622.00,0.0089
1621.00,0.0089
1620.00,0.0089
1619.00,0.0088
1618.00,0.0088
1617.00,0.0088
1616.00,0.0088
1615.00,0.0088
1614.00,0.0088
1613.00,0.0088
1612.00,0.0089
1611.00,0.0089
1610.00,0.0089
1609.00,0.0090
1608.00,0.0090
1607.00,0.0090
1606.00,0.0090
1605.00,0.0090
1604.00,0.0090
1603.00,0.0090
1602.00,0.0090
1601.00,0.0090
1600.00,0.0090
1599.00,0.0090
1598.00,0.0090
1597.00,0.0090
1596.00,0.0090
1595.00,0.0089
1594.00,0.0089
1593.00,0.0089
1592.00,0.0089
1591.00,0.0089
1590.00,0.0089
1589.00,0.0089
1588.00,0.0090
1587.00,0.0090
1586.00,0.0091
1585.00,0.0093
1584.00,0.0094
1583.00,0.0096
1582.00,0.0097
1581.00,0.0099
1580.00,0.0101
1579.00,0.0102
1578.00,0.0102
1577.00,0.0102
1576.00,0.0101
1575.00,0.0100
1574.00,0.0099
1573.00,0.0099
1572.00,0.0099
1571.00,0.0099
1570.00,0.0098
1569.00,0.0097
1568.00,0.0096
1567.00,0.0095
1566.00,0.0095
1565.00,0.0095
1564.00,0.0096
1563.00,0.0097
1562.00,0.0097
1561.00,0.0098
1560.00,0.0098
1559.00,0.0100
1558.00,0.0100
1557.00,0.0100
1556.00,0.0101
1555.00,0.0102
1554.00,0.0103
1553.00,0.0104
1552.00,0.0105
1551.00,0.0106
1550.00,0.0106
1549.00,0.0107
1548.00,0.0109
1547.00,0.0110
1546.00,0.0112
1545.00,0.0114
1544.00,0.0115
1543.00,0.0116
1542.00,0.0116
1541.00,0.0114
1540.00,0.0110
1539.00,0.0105
1538.00,0.0101
1537.00,0.0099
1536.00,0.0097
1535.00,0.0094
1534.00,0.0089
1533.00,0.0085
1532.00,0.0082
1531.00,0.0080
1530.00,0.0078
1529.00,0.0077
1528.00,0.0076
1527.00,0.0075
1526.00,0.0074
1525.00,0.0073
1524.00,0.0073
1523.00,0.0073
1522.00,0.0073
1521.00,0.0073
1520.00,0.0072
1519.00,0.0070
1518.00,0.0070
1517.00,0.0070
1516.00,0.0072
1515.00,0.0072
1514.00,0.0072
1513.00,0.0073
1512.00,0.0073
1511.00,0.0073
1510.00,0.0073
1509.00,0.0074
1508.00,0.0075
1507.00,0.0075
1506.00,0.0076
1505.00,0.0077
1504.00,0.0078
1503.00,0.0080
1502.00,0.0082
1501.00,0.0084
1500.00,0.0087
1499.00,0.0089
1498.00,0.0091
1497.00,0.0094
1496.00,0.0097
1495.00,0.0100
1494.00,0.0102
1493.00,0.0106
1492.00,0.0110
1491.00,0.0114
1490.00,0.0118
1489.00,0.0124
1488.00,0.0129
1487.00,0.0134
1486.00,0.0140
1485.00,0.0146
1484.00,0.0153
1483.00,0.0160
1482.00,0.0169
1481.00,0.0181
1480.00,0.0194
1479.00,0.0207
1478.00,0.0223
1477.00,0.0243
1476.00,0.0269
1475.00,0.0299
1474.00,0.0339
1473.00,0.0394
1472.00,0.0458
1471.00,0.0520
1470.00,0.0580
1469.00,0.0644
1468.00,0.0712
1467.00,0.0785
1466.00,0.0867
1465.00,0.0953
1464.00,0.1029
1463.00,0.1081
1462.00,0.1116
1461.00,0.1141
1460.00,0.1158
1459.00,0.1172
1458.00,0.1185
1457.00,0.1198
1456.00,0.1204
1455.00,0.1202
1454.00,0.1195
1453.00,0.1183
1452.00,0.1163
1451.00,0.1131
1450.00,0.1085
1449.00,0.1018
1448.00,0.0930
1447.00,0.0835
1446.00,0.0747
1445.00,0.0670
1444.00,0.0605
1443.00,0.0550
1442.00,0.0508
1441.00,0.0479
1440.00,0.0460
1439.00,0.0450
1438.00,0.0448
1437.00,0.0445
1436.00,0.0432
1435.00,0.0407
1434.00,0.0373
1433.00,0.0334
1432.00,0.0293
1431.00,0.0256
1430.00,0.0227
1429.00,0.0205
1428.00,0.0189
1427.00,0.0179
1426.00,0.0173
1425.00,0.0167
1424.00,0.0162
1423.00,0.0159
1422.00,0.0157
1421.00,0.0155
1420.00,0.0152
1419.00,0.0150
1418.00,0.0148
1417.00,0.0144
1416.00,0.0141
1415.00,0.0138
1414.00,0.0137
1413.00,0.0136
1412.00,0.0134
1411.00,0.0133
1410.00,0.0132
1409.00,0.0131
1408.00,0.0129
1407.00,0.0129
1406.00,0.0129
1405.00,0.0128
1404.00,0.0127
1403.00,0.0127
1402.00,0.0128
1401.00,0.0129
1400.00,0.0130
1399.00,0.0131
1398.00,0.0133
1397.00,0.0134
1396.00,0.0136
1395.00,0.0138
1394.00,0.0142
1393.00,0.0147
1392.00,0.0152
1391.00,0.0159
1390.00,0.0170
1389.00,0.0184
1388.00,0.0205
1387.00,0.0236
1386.00,0.0277
1385.00,0.0331
1384.00,0.0406
1383.00,0.0512
1382.00,0.0653
1381.00,0.0833
1380.00,0.1048
1379.00,0.1283
1378.00,0.1497
1377.00,0.1639
1376.00,0.1669
1375.00,0.1570
1374.00,0.1369
1373.00,0.1136
1372.00,0.0926
1371.00,0.0753
1370.00,0.0616
1369.00,0.0511
1368.00,0.0438
1367.00,0.0392
1366.00,0.0367
1365.00,0.0356
1364.00,0.0357
1363.00,0.0368
1362.00,0.0385
1361.00,0.0404
1360.00,0.0418
1359.00,0.0422
1358.00,0.0413
1357.00,0.0391
1356.00,0.0360
1355.00,0.0326
1354.00,0.0293
1353.00,0.0264
1352.00,0.0241
1351.00,0.0221
1350.00,0.0205
1349.00,0.0191
1348.00,0.0180
1347.00,0.0171
1346.00,0.0164
1345.00,0.0158
1344.00,0.0153
1343.00,0.0147
1342.00,0.0143
1341.00,0.0138
1340.00,0.0134
1339.00,0.0131
1338.00,0.0129
1337.00,0.0129
1336.00,0.0130
1335.00,0.0132
1334.00,0.0134
1333.00,0.0137
1332.00,0.0141
1331.00,0.0143
1330.00,0.0144
1329.00,0.0144
1328.00,0.0141
1327.00,0.0137
1326.00,0.0132
1325.00,0.0127
1324.00,0.0122
1323.00,0.0117
1322.00,0.0114
1321.00,0.0111
1320.00,0.0109
1319.00,0.0107
1318.00,0.0105
1317.00,0.0103
1316.00,0.0102
1315.00,0.0102
1314.00,0.0102
1313.00,0.0103
1312.00,0.0105
1311.00,0.0109
1310.00,0.0114
1309.00,0.0122
1308.00,0.0134
1307.00,0.0148
1306.00,0.0162
1305.00,0.0171
1304.00,0.0173
1303.00,0.0168
1302.00,0.0160
1301.00,0.0152
1300.00,0.0147
1299.00,0.0144
1298.00,0.0143
1297.00,0.0142
1296.00,0.0141
1295.00,0.0138
1294.00,0.0134
1293.00,0.0129
1292.00,0.0124
1291.00,0.0119
1290.00,0.0114
1289.00,0.0111
1288.00,0.0108
1287.00,0.0106
1286.00,0.0104
1285.00,0.0102
1284.00,0.0100
1283.00,0.0099
1282.00,0.0098
1281.00,0.0097
1280.00,0.0096
1279.00,0.0095
1278.00,0.0094
1277.00,0.0093
1276.00,0.0093
1275.00,0.0093
1274.00,0.0093
1273.00,0.0094
1272.00,0.0094
1271.00,0.0095
1270.00,0.0096
1269.00,0.0097
1268.00,0.0099
1267.00,0.0102
1266.00,0.0105
1265.00,0.0109
1264.00,0.0112
1263.00,0.0116
1262.00,0.0121
1261.00,0.0126
1260.00,0.0133
1259.00,0.0142
1258.00,0.0151
1257.00,0.0159
1256.00,0.0162
1255.00,0.0159
1254.00,0.0151
1253.00,0.0140
1252.00,0.0129
1251.00,0.0119
1250.00,0.0112
1249.00,0.0107
1248.00,0.0103
1247.00,0.0100
1246.00,0.0098
1245.00,0.0096
1244.00,0.0094
1243.00,0.0093
1242.00,0.0092
1241.00,0.0091
1240.00,0.0090
1239.00,0.0089
1238.00,0.0088
1237.00,0.0088
1236.00,0.0088
1235.00,0.0088
1234.00,0.0088
1233.00,0.0089
1232.00,0.0089
1231.00,0.0089
1230.00,0.0090
1229.00,0.0091
1228.00,0.0092
1227.00,0.0094
1226.00,0.0096
1225.00,0.0099
1224.00,0.0102
1223.00,0.0106
1222.00,0.0109
1221.00,0.0112
1220.00,0.0114
1219.00,0.0114
1218.00,0.0113
1217.00,0.0111
1216.00,0.0109
1215.00,0.0106
1214.00,0.0103
1213.00,0.0100
1212.00,0.0097
1211.00,0.0095
1210.00,0.0093
1209.00,0.0092
1208.00,0.0091
1207.00,0.0091
1206.00,0.0090
1205.00,0.0090
1204.00,0.0089
1203.00,0.0089
1202.00,0.0090
1201.00,0.0090
1200.00,0.0091
1199.00,0.0091
1198.00,0.0092
1197.00,0.0092
1196.00,0.0092
1195.00,0.0093
1194.00,0.0093
1193.00,0.0093
1192.00,0.0093
1191.00,0.0094
1190.00,0.0094
1189.00,0.0094
1188.00,0.0094
1187.00,0.0095
1186.00,0.0096
1185.00,0.0097
1184.00,0.0098
1183.00,0.0099
1182.00,0.0102
1181.00,0.0105
1180.00,0.0110
1179.00,0.0116
1178.00,0.0124
1177.00,0.0134
1176.00,0.0148
1175.00,0.0166
1174.00,0.0190
1173.00,0.0221
1172.00,0.0258
1171.00,0.0299
1170.00,0.0339
1169.00,0.0371
1168.00,0.0390
1167.00,0.0393
1166.00,0.0381
1165.00,0.0360
1164.00,0.0336
1163.00,0.0312
1162.00,0.0291
1161.00,0.0273
1160.00,0.0260
1159.00,0.0249
1158.00,0.0241
1157.00,0.0236
1156.00,0.0233
1155.00,0.0230
1154.00,0.0228
1153.00,0.0225
1152.00,0.0220
1151.00,0.0213
1150.00,0.0204
1149.00,0.0195
1148.00,0.0186
1147.00,0.0177
1146.00,0.0169
1145.00,0.0161
1144.00,0.0154
1143.00,0.0149
1142.00,0.0144
1141.00,0.0140
1140.00,0.0135
1139.00,0.0131
1138.00,0.0127
1137.00,0.0124
1136.00,0.0121
1135.00,0.0120
1134.00,0.0118
1133.00,0.0117
1132.00,0.0117
1131.00,0.0117
1130.00,0.0118
1129.00,0.0119
1128.00,0.0120
1127.00,0.0122
1126.00,0.0124
1125.00,0.0125
1124.00,0.0127
1123.00,0.0128
1122.00,0.0129
1121.00,0.0130
1120.00,0.0132
1119.00,0.0133
1118.00,0.0134
1117.00,0.0134
1116.00,0.0135
1115.00,0.0136
1114.00,0.0138
1113.00,0.0138
1112.00,0.0140
1111.00,0.0141
1110.00,0.0144
1109.00,0.0147
1108.00,0.0151
1107.00,0.0156
1106.00,0.0162
1105.00,0.0167
1104.00,0.0171
1103.00,0.0173
1102.00,0.0172
1101.00,0.0169
1100.00,0.0164
1099.00,0.0158
1098.00,0.0152
1097.00,0.0146
1096.00,0.0140
1095.00,0.0136
1094.00,0.0132
1093.00,0.0128
1092.00,0.0126
1091.00,0.0125
1090.00,0.0123
1089.00,0.0122
1088.00,0.0121
1087.00,0.0120
1086.00,0.0120
1085.00,0.0120
1084.00,0.0120
1083.00,0.0120
1082.00,0.0118
1081.00,0.0116
1080.00,0.0113
1079.00,0.0112
1078.00,0.0112
1077.00,0.0112
1076.00,0.0112
1075.00,0.0110
1074.00,0.0109
1073.00,0.0108
1072.00,0.0108
1071.00,0.0108
1070.00,0.0108
1069.00,0.0107
1068.00,0.0106
1067.00,0.0106
1066.00,0.0106
1065.00,0.0107
1064.00,0.0108
1063.00,0.0108
1062.00,0.0108
1061.00,0.0109
1060.00,0.0110
1059.00,0.0111
1058.00,0.0112
1057.00,0.0113
1056.00,0.0115
1055.00,0.0117
1054.00,0.0119
1053.00,0.0122
1052.00,0.0125
1051.00,0.0129
1050.00,0.0135
1049.00,0.0141
1048.00,0.0147
1047.00,0.0152
1046.00,0.0157
1045.00,0.0161
1044.00,0.0161
1043.00,0.0160
1042.00,0.0156
1041.00,0.0153
1040.00,0.0150
1039.00,0.0147
1038.00,0.0146
1037.00,0.0146
1036.00,0.0146
1035.00,0.0146
1034.00,0.0145
1033.00,0.0143
1032.00,0.0141
1031.00,0.0138
1030.00,0.0137
1029.00,0.0136
1028.00,0.0136
1027.00,0.0137
1026.00,0.0138
1025.00,0.0141
1024.00,0.0143
1023.00,0.0146
1022.00,0.0148
1021.00,0.0150
1020.00,0.0152
1019.00,0.0153
1018.00,0.0154
1017.00,0.0155
1016.00,0.0155
1015.00,0.0156
1014.00,0.0156
1013.00,0.0156
1012.00,0.0156
1011.00,0.0157
1010.00,0.0158
1009.00,0.0160
1008.00,0.0163
1007.00,0.0168
1006.00,0.0176
1005.00,0.0189
1004.00,0.0209
1003.00,0.0237
1002.00,0.0275
1001.00,0.0323
1000.00,0.0376
999.00,0.0421
998.00,0.0446
997.00,0.0442
996.00,0.0409
995.00,0.0359
994.00,0.0304
993.00,0.0256
992.00,0.0219
991.00,0.0192
990.00,0.0173
989.00,0.0161
988.00,0.0152
987.00,0.0147
986.00,0.0145
985.00,0.0146
984.00,0.0149
983.00,0.0155
982.00,0.0166
981.00,0.0182
980.00,0.0205
979.00,0.0237
978.00,0.0278
977.00,0.0327
976.00,0.0383
975.00,0.0438
974.00,0.0482
973.00,0.0502
972.00,0.0488
971.00,0.0444
970.00,0.0381
969.00,0.0314
968.00,0.0257
967.00,0.0213
966.00,0.0182
965.00,0.0159
964.00,0.0143
963.00,0.0131
962.00,0.0122
961.00,0.0116
960.00,0.0111
959.00,0.0107
958.00,0.0104
957.00,0.0100
956.00,0.0098
955.00,0.0096
954.00,0.0094
953.00,0.0092
952.00,0.0091
951.00,0.0090
950.00,0.0089
949.00,0.0088
948.00,0.0088
947.00,0.0088
946.00,0.0089
945.00,0.0091
944.00,0.0093
943.00,0.0096
942.00,0.0099
941.00,0.0101
940.00,0.0101
939.00,0.0098
938.00,0.0094
937.00,0.0089
936.00,0.0085
935.00,0.0082
934.00,0.0079
933.00,0.0076
932.00,0.0073
931.00,0.0071
930.00,0.0071
929.00,0.0071
928.00,0.0072
927.00,0.0072
926.00,0.0071
925.00,0.0071
924.00,0.0071
923.00,0.0071
922.00,0.0071
921.00,0.0071
920.00,0.0072
919.00,0.0072
918.00,0.0073
917.00,0.0072
916.00,0.0072
915.00,0.0072
914.00,0.0073
913.00,0.0075
912.00,0.0077
911.00,0.0080
910.00,0.0081
909.00,0.0082
908.00,0.0084
907.00,0.0087
906.00,0.0093
905.00,0.0102
904.00,0.0115
903.00,0.0131
902.00,0.0148
901.00,0.0164
900.00,0.0174
899.00,0.0175
898.00,0.0168
897.00,0.0154
896.00,0.0137
895.00,0.0121
894.00,0.0108
893.00,0.0098
892.00,0.0091
891.00,0.0086
890.00,0.0084
889.00,0.0083
888.00,0.0082
887.00,0.0081
886.00,0.0080
885.00,0.0079
884.00,0.0078
883.00,0.0078
882.00,0.0078
881.00,0.0079
880.00,0.0081
879.00,0.0082
878.00,0.0083
877.00,0.0085
876.00,0.0086
875.00,0.0087
874.00,0.0087
873.00,0.0088
872.00,0.0087
871.00,0.0086
870.00,0.0085
869.00,0.0084
868.00,0.0083
867.00,0.0083
866.00,0.0085
865.00,0.0087
864.00,0.0088
863.00,0.0090
862.00,0.0092
861.00,0.0094
860.00,0.0095
859.00,0.0096
858.00,0.0097
857.00,0.0099
856.00,0.0100
855.00,0.0101
854.00,0.0103
853.00,0.0106
852.00,0.0110
851.00,0.0115
850.00,0.0122
849.00,0.0131
848.00,0.0142
847.00,0.0160
846.00,0.0188
845.00,0.0230
844.00,0.0291
843.00,0.0364
842.00,0.0426
841.00,0.0451
840.00,0.0425
839.00,0.0361
838.00,0.0287
837.00,0.0225
836.00,0.0183
835.00,0.0158
834.00,0.0143
833.00,0.0134
832.00,0.0129
831.00,0.0126
830.00,0.0123
829.00,0.0119
828.00,0.0117
827.00,0.0115
826.00,0.0113
825.00,0.0112
824.00,0.0110
823.00,0.0109
822.00,0.0109
821.00,0.0110
820.00,0.0112
819.00,0.0115
818.00,0.0120
817.00,0.0126
816.00,0.0134
815.00,0.0144
814.00,0.0156
813.00,0.0171
812.00,0.0189
811.00,0.0205
810.00,0.0218
809.00,0.0223
808.00,0.0220
807.00,0.0210
806.00,0.0195
805.00,0.0178
804.00,0.0162
803.00,0.0148
802.00,0.0137
801.00,0.0129
800.00,0.0124
799.00,0.0120
798.00,0.0116
797.00,0.0112
796.00,0.0108
795.00,0.0105
794.00,0.0103
793.00,0.0101
792.00,0.0099
791.00,0.0096
790.00,0.0092
789.00,0.0088
788.00,0.0085
787.00,0.0083
786.00,0.0081
785.00,0.0081
784.00,0.0080
783.00,0.0080
782.00,0.0080
781.00,0.0079
780.00,0.0078
779.00,0.0077
778.00,0.0076
777.00,0.0074
776.00,0.0074
775.00,0.0074
774.00,0.0075
773.00,0.0076
772.00,0.0077
771.00,0.0077
770.00,0.0078
769.00,0.0079
768.00,0.0080
767.00,0.0080
766.00,0.0079
765.00,0.0077
764.00,0.0075
763.00,0.0074
762.00,0.0075
761.00,0.0076
760.00,0.0078
759.00,0.0079
758.00,0.0081
757.00,0.0083
756.00,0.0084
755.00,0.0085
754.00,0.0085
753.00,0.0086
752.00,0.0086
751.00,0.0087
750.00,0.0088
749.00,0.0090
748.00,0.0092
747.00,0.0094
746.00,0.0097
745.00,0.0100
744.00,0.0103
743.00,0.0104
742.00,0.0106
741.00,0.0107
740.00,0.0110
739.00,0.0113
738.00,0.0117
737.00,0.0121
736.00,0.0125
735.00,0.0131
734.00,0.0136
733.00,0.0143
732.00,0.0151
731.00,0.0159
730.00,0.0165
729.00,0.0168
728.00,0.0170
727.00,0.0171
726.00,0.0174
725.00,0.0177
724.00,0.0181
723.00,0.0184
722.00,0.0187
721.00,0.0188
720.00,0.0185
719.00,0.0178
718.00,0.0168
717.00,0.0156
716.00,0.0144
715.00,0.0134
714.00,0.0128
713.00,0.0125
712.00,0.0125
711.00,0.0125
710.00,0.0124
709.00,0.0122
708.00,0.0120
707.00,0.0119
706.00,0.0119
705.00,0.0118
704.00,0.0116
703.00,0.0112
702.00,0.0109
701.00,0.0107
700.00,0.0107
699.00,0.0108
698.00,0.0108
697.00,0.0107
696.00,0.0105
695.00,0.0105
694.00,0.0106
693.00,0.0107
692.00,0.0108
691.00,0.0107
690.00,0.0107
689.00,0.0106
688.00,0.0107
687.00,0.0107
686.00,0.0107
685.00,0.0106
684.00,0.0106
683.00,0.0108
682.00,0.0110
681.00,0.0111
680.00,0.0111
679.00,0.0109
678.00,0.0107
677.00,0.0106
676.00,0.0107
675.00,0.0109
674.00,0.0112
673.00,0.0115
672.00,0.0116
671.00,0.0118
670.00,0.0121
669.00,0.0123
668.00,0.0122
667.00,0.0116
666.00,0.0110
665.00,0.0105
664.00,0.0103
663.00,0.0102
662.00,0.0101
661.00,0.0102
660.00,0.0102
659.00,0.0102
658.00,0.0102
657.00,0.0102
656.00,0.0102
655.00,0.0102
654.00,0.0102
653.00,0.0103
652.00,0.0103
651.00,0.0103
650.00,0.0103
649.00,0.0103
648.00,0.0103
647.00,0.0101
646.00,0.0099
645.00,0.0096
644.00,0.0095
643.00,0.0095
642.00,0.0096
641.00,0.0096
640.00,0.0095
639.00,0.0093
638.00,0.0093
637.00,0.0093
636.00,0.0094
635.00,0.0094
634.00,0.0093
633.00,0.0094
632.00,0.0096
631.00,0.0100
630.00,0.0104
629.00,0.0106
628.00,0.0106
627.00,0.0104
626.00,0.0102
625.00,0.0100
624.00,0.0100
623.00,0.0102
622.00,0.0104
621.00,0.0104
620.00,0.0103
619.00,0.0101
618.00,0.0098
617.00,0.0096
616.00,0.0096
615.00,0.0097
614.00,0.0099
613.00,0.0100
612.00,0.0101
611.00,0.0103
610.00,0.0105
609.00,0.0106
608.00,0.0107
607.00,0.0105
606.00,0.0103
605.00,0.0100
604.00,0.0099
603.00,0.0100
602.00,0.0102
601.00,0.0103
600.00,0.0103
599.00,0.0102
598.00,0.0101
597.00,0.0102
596.00,0.0102
595.00,0.0101
594.00,0.0101
593.00,0.0100
592.00,0.0100
591.00,0.0100
590.00,0.0102
589.00,0.0104
588.00,0.0104
587.00,0.0103
586.00,0.0101
585.00,0.0100
584.00,0.0099
583.00,0.0100
582.00,0.0101
581.00,0.0103
580.00,0.0103
579.00,0.0102
578.00,0.0101
577.00,0.0101
576.00,0.0100
575.00,0.0098
574.00,0.0095
573.00,0.0093
572.00,0.0093
571.00,0.0095
570.00,0.0096
569.00,0.0097
568.00,0.0097
567.00,0.0098
566.00,0.0099
565.00,0.0102
564.00,0.0102
563.00,0.0101
562.00,0.0097
561.00,0.0095
560.00,0.0094
559.00,0.0094
558.00,0.0095
557.00,0.0095
556.00,0.0096
555.00,0.0099
554.00,0.0102
553.00,0.0106
552.00,0.0109
551.00,0.0110
550.00,0.0109
549.00,0.0106
548.00,0.0104
547.00,0.0104
546.00,0.0104
545.00,0.0106
544.00,0.0108
543.00,0.0112
542.00,0.0115
541.00,0.0118
540.00,0.0119
539.00,0.0119
538.00,0.0120
537.00,0.0122
536.00,0.0126
535.00,0.0130
534.00,0.0132
533.00,0.0131
532.00,0.0129
531.00,0.0127
530.00,0.0127
529.00,0.0131
528.00,0.0137
527.00,0.0140
526.00,0.0137
525.00,0.0131
524.00,0.0124
523.00,0.0119
522.00,0.0115
521.00,0.0111
520.00,0.0108
519.00,0.0105
518.00,0.0105
517.00,0.0107
516.00,0.0110
515.00,0.0111
514.00,0.0109
513.00,0.0102
512.00,0.0094
511.00,0.0088
510.00,0.0086
509.00,0.0087
508.00,0.0087
507.00,0.0088
506.00,0.0090
505.00,0.0093
504.00,0.0097
503.00,0.0101
502.00,0.0106
501.00,0.0111
500.00,0.0116
499.00,0.0120
498.00,0.0120
497.00,0.0113
496.00,0.0101
495.00,0.0091
494.00,0.0088
493.00,0.0095
492.00,0.0106
491.00,0.0112
490.00,0.0108
489.00,0.0100
488.00,0.0093
487.00,0.0092
486.00,0.0098
485.00,0.0109
484.00,0.0121
483.00,0.0129
482.00,0.0128
481.00,0.0119
480.00,0.0107
479.00,0.0098
478.00,0.0098
477.00,0.0105
476.00,0.0112
475.00,0.0117
474.00,0.0117
473.00,0.0116
472.00,0.0117
471.00,0.0120
470.00,0.0124
469.00,0.0130
468.00,0.0138
467.00,0.0148
466.00,0.0154
465.00,0.0159
464.00,0.0167
463.00,0.0180
462.00,0.0194
461.00,0.0200
460.00,0.0197
459.00,0.0191
458.00,0.0191
457.00,0.0199
456.00,0.0207
455.00,0.0209
454.00,0.0205
453.00,0.0197
452.00,0.0188
451.00,0.0179
450.00,0.0170
