Created as New Dataset,Sample 006 By Administrator Date Thursday, September 04 2025
cm-1,A
4000.00,0.0010
3999.00,0.0010
3998.00,0.0010
3997.00,0.0010
3996.00,0.0010
3995.00,0.0010
3994.00,0.0010
3993.00,0.0010
3992.00,0.0010
3991.00,0.0010
3990.00,0.0010
3989.00,0.0009
3988.00,0.0009
3987.00,0.0009
3986.00,0.0009
3985.00,0.0009
3984.00,0.0009
3983.00,0.0009
3982.00,0.0009
3981.00,0.0009
3980.00,0.0009
3979.00,0.0009
3978.00,0.0008
3977.00,0.0009
3976.00,0.0009
3975.00,0.0009
3974.00,0.0009
3973.00,0.0009
3972.00,0.0009
3971.00,0.0009
3970.00,0.0009
3969.00,0.0009
3968.00,0.0008
3967.00,0.0008
3966.00,0.0008
3965.00,0.0008
3964.00,0.0008
3963.00,0.0008
3962.00,0.0008
3961.00,0.0008
3960.00,0.0008
3959.00,0.0008
3958.00,0.0008
3957.00,0.0008
3956.00,0.0008
3955.00,0.0008
3954.00,0.0008
3953.00,0.0008
3952.00,0.0008
3951.00,0.0008
3950.00,0.0008
3949.00,0.0008
3948.00,0.0008
3947.00,0.0008
3946.00,0.0008
3945.00,0.0008
3944.00,0.0008
3943.00,0.0008
3942.00,0.0008
3941.00,0.0007
3940.00,0.0007
3939.00,0.0008
3938.00,0.0008
3937.00,0.0008
3936.00,0.0008
3935.00,0.0008
3934.00,0.0008
3933.00,0.0008
3932.00,0.0008
3931.00,0.0009
3930.00,0.0009
3929.00,0.0009
3928.00,0.0009
3927.00,0.0009
3926.00,0.0009
3925.00,0.0009
3924.00,0.0009
3923.00,0.0009
3922.00,0.0009
3921.00,0.0009
3920.00,0.0009
3919.00,0.0009
3918.00,0.0009
3917.00,0.0009
3916.00,0.0009
3915.00,0.0009
3914.00,0.0008
3913.00,0.0008
3912.00,0.0008
3911.00,0.0008
3910.00,0.0008
3909.00,0.0008
3908.00,0.0008
3907.00,0.0008
3906.00,0.0009
3905.00,0.0009
3904.00,0.0009
3903.00,0.0009
3902.00,0.0008
3901.00,0.0008
3900.00,0.0008
3899.00,0.0008
3898.00,0.0008
3897.00,0.0008
3896.00,0.0008
3895.00,0.0008
3894.00,0.0007
3893.00,0.0007
3892.00,0.0008
3891.00,0.0008
3890.00,0.0007
3889.00,0.0007
3888.00,0.0007
3887.00,0.0007
3886.00,0.0008
3885.00,0.0008
3884.00,0.0008
3883.00,0.0007
3882.00,0.0007
3881.00,0.0008
3880.00,0.0008
3879.00,0.0009
3878.00,0.0009
3877.00,0.0008
3876.00,0.0008
3875.00,0.0008
3874.00,0.0008
3873.00,0.0007
3872.00,0.0007
3871.00,0.0007
3870.00,0.0007
3869.00,0.0008
3868.00,0.0008
3867.00,0.0008
3866.00,0.0008
3865.00,0.0008
3864.00,0.0008
3863.00,0.0007
3862.00,0.0007
3861.00,0.0007
3860.00,0.0007
3859.00,0.0007
3858.00,0.0007
3857.00,0.0006
3856.00,0.0006
3855.00,0.0006
3854.00,0.0007
3853.00,0.0007
3852.00,0.0007
3851.00,0.0006
3850.00,0.0006
3849.00,0.0006
3848.00,0.0007
3847.00,0.0007
3846.00,0.0007
3845.00,0.0007
3844.00,0.0007
3843.00,0.0007
3842.00,0.0007
3841.00,0.0007
3840.00,0.0007
3839.00,0.0007
3838.00,0.0007
3837.00,0.0007
3836.00,0.0007
3835.00,0.0007
3834.00,0.0007
3833.00,0.0007
3832.00,0.0008
3831.00,0.0008
3830.00,0.0008
3829.00,0.0007
3828.00,0.0007
3827.00,0.0007
3826.00,0.0007
3825.00,0.0007
3824.00,0.0007
3823.00,0.0007
3822.00,0.0007
3821.00,0.0007
3820.00,0.0007
3819.00,0.0007
3818.00,0.0007
3817.00,0.0007
3816.00,0.0008
3815.00,0.0008
3814.00,0.0008
3813.00,0.0008
3812.00,0.0008
3811.00,0.0008
3810.00,0.0008
3809.00,0.0008
3808.00,0.0007
3807.00,0.0007
3806.00,0.0007
3805.00,0.0006
3804.00,0.0006
3803.00,0.0006
3802.00,0.0006
3801.00,0.0007
3800.00,0.0007
3799.00,0.0007
3798.00,0.0007
3797.00,0.0007
3796.00,0.0008
3795.00,0.0007
3794.00,0.0007
3793.00,0.0007
3792.00,0.0007
3791.00,0.0007
3790.00,0.0007
3789.00,0.0008
3788.00,0.0008
3787.00,0.0008
3786.00,0.0008
3785.00,0.0008
3784.00,0.0007
3783.00,0.0007
3782.00,0.0007
3781.00,0.0008
3780.00,0.0008
3779.00,0.0008
3778.00,0.0008
3777.00,0.0008
3776.00,0.0007
3775.00,0.0007
3774.00,0.0007
3773.00,0.0007
3772.00,0.0007
3771.00,0.0007
3770.00,0.0007
3769.00,0.0007
3768.00,0.0007
3767.00,0.0007
3766.00,0.0007
3765.00,0.0007
3764.00,0.0008
3763.00,0.0008
3762.00,0.0008
3761.00,0.0008
3760.00,0.0008
3759.00,0.0008
3758.00,0.0008
3757.00,0.0008
3756.00,0.0008
3755.00,0.0008
3754.00,0.0008
3753.00,0.0007
3752.00,0.0007
3751.00,0.0007
3750.00,0.0007
3749.00,0.0007
3748.00,0.0007
3747.00,0.0006
3746.00,0.0006
3745.00,0.0007
3744.00,0.0007
3743.00,0.0006
3742.00,0.0006
3741.00,0.0006
3740.00,0.0007
3739.00,0.0006
3738.00,0.0006
3737.00,0.0005
3736.00,0.0005
3735.00,0.0005
3734.00,0.0005
3733.00,0.0006
3732.00,0.0006
3731.00,0.0007
3730.00,0.0007
3729.00,0.0007
3728.00,0.0007
3727.00,0.0007
3726.00,0.0007
3725.00,0.0006
3724.00,0.0006
3723.00,0.0005
3722.00,0.0005
3721.00,0.0005
3720.00,0.0005
3719.00,0.0006
3718.00,0.0006
3717.00,0.0007
3716.00,0.0007
3715.00,0.0006
3714.00,0.0006
3713.00,0.0006
3712.00,0.0006
3711.00,0.0006
3710.00,0.0006
3709.00,0.0006
3708.00,0.0006
3707.00,0.0006
3706.00,0.0006
3705.00,0.0006
3704.00,0.0006
3703.00,0.0006
3702.00,0.0006
3701.00,0.0006
3700.00,0.0006
3699.00,0.0006
3698.00,0.0006
3697.00,0.0006
3696.00,0.0006
3695.00,0.0006
3694.00,0.0006
3693.00,0.0007
3692.00,0.0007
3691.00,0.0007
3690.00,0.0007
3689.00,0.0006
3688.00,0.0006
3687.00,0.0006
3686.00,0.0006
3685.00,0.0007
3684.00,0.0008
3683.00,0.0008
3682.00,0.0009
3681.00,0.0009
3680.00,0.0010
3679.00,0.0010
3678.00,0.0010
3677.00,0.0011
3676.00,0.0012
3675.00,0.0013
3674.00,0.0013
3673.00,0.0013
3672.00,0.0012
3671.00,0.0012
3670.00,0.0011
3669.00,0.0011
3668.00,0.0012
3667.00,0.0012
3666.00,0.0012
3665.00,0.0012
3664.00,0.0012
3663.00,0.0012
3662.00,0.0013
3661.00,0.0013
3660.00,0.0013
3659.00,0.0013
3658.00,0.0013
3657.00,0.0013
3656.00,0.0013
3655.00,0.0013
3654.00,0.0013
3653.00,0.0013
3652.00,0.0012
3651.00,0.0012
3650.00,0.0012
3649.00,0.0011
3648.00,0.0011
3647.00,0.0011
3646.00,0.0011
3645.00,0.0011
3644.00,0.0011
3643.00,0.0011
3642.00,0.0011
3641.00,0.0011
3640.00,0.0011
3639.00,0.0012
3638.00,0.0012
3637.00,0.0012
3636.00,0.0011
3635.00,0.0010
3634.00,0.0010
3633.00,0.0009
3632.00,0.0008
3631.00,0.0008
3630.00,0.0009
3629.00,0.0009
3628.00,0.0010
3627.00,0.0009
3626.00,0.0009
3625.00,0.0008
3624.00,0.0008
3623.00,0.0008
3622.00,0.0008
3621.00,0.0008
3620.00,0.0008
3619.00,0.0008
3618.00,0.0008
3617.00,0.0008
3616.00,0.0008
3615.00,0.0008
3614.00,0.0008
3613.00,0.0008
3612.00,0.0008
3611.00,0.0008
3610.00,0.0009
3609.00,0.0009
3608.00,0.0009
3607.00,0.0009
3606.00,0.0008
3605.00,0.0008
3604.00,0.0008
3603.00,0.0008
3602.00,0.0008
3601.00,0.0009
3600.00,0.0009
3599.00,0.0009
3598.00,0.0009
3597.00,0.0009
3596.00,0.0009
3595.00,0.0009
3594.00,0.0009
3593.00,0.0009
3592.00,0.0009
3591.00,0.0009
3590.00,0.0009
3589.00,0.0010
3588.00,0.0010
3587.00,0.0010
3586.00,0.0010
3585.00,0.0011
3584.00,0.0011
3583.00,0.0011
3582.00,0.0011
3581.00,0.0011
3580.00,0.0011
3579.00,0.0012
3578.00,0.0012
3577.00,0.0012
3576.00,0.0012
3575.00,0.0012
3574.00,0.0011
3573.00,0.0011
3572.00,0.0011
3571.00,0.0012
3570.00,0.0012
3569.00,0.0013
3568.00,0.0013
3567.00,0.0014
3566.00,0.0014
3565.00,0.0015
3564.00,0.0015
3563.00,0.0015
3562.00,0.0015
3561.00,0.0015
3560.00,0.0015
3559.00,0.0015
3558.00,0.0015
3557.00,0.0015
3556.00,0.0015
3555.00,0.0016
3554.00,0.0016
3553.00,0.0016
3552.00,0.0016
3551.00,0.0016
3550.00,0.0016
3549.00,0.0016
3548.00,0.0017
3547.00,0.0017
3546.00,0.0018
3545.00,0.0018
3544.00,0.0019
3543.00,0.0019
3542.00,0.0019
3541.00,0.0019
3540.00,0.0019
3539.00,0.0019
3538.00,0.0019
3537.00,0.0019
3536.00,0.0019
3535.00,0.0020
3534.00,0.0020
3533.00,0.0020
3532.00,0.0020
3531.00,0.0020
3530.00,0.0020
3529.00,0.0020
3528.00,0.0020
3527.00,0.0021
3526.00,0.0022
3525.00,0.0022
3524.00,0.0022
3523.00,0.0022
3522.00,0.0021
3521.00,0.0021
3520.00,0.0021
3519.00,0.0022
3518.00,0.0022
3517.00,0.0022
3516.00,0.0023
3515.00,0.0023
3514.00,0.0023
3513.00,0.0023
3512.00,0.0023
3511.00,0.0024
3510.00,0.0024
3509.00,0.0024
3508.00,0.0024
3507.00,0.0025
3506.00,0.0025
3505.00,0.0025
3504.00,0.0026
3503.00,0.0026
3502.00,0.0026
3501.00,0.0026
3500.00,0.0026
3499.00,0.0027
3498.00,0.0027
3497.00,0.0027
3496.00,0.0027
3495.00,0.0027
3494.00,0.0027
3493.00,0.0028
3492.00,0.0028
3491.00,0.0028
3490.00,0.0028
3489.00,0.0028
3488.00,0.0028
3487.00,0.0028
3486.00,0.0028
3485.00,0.0028
3484.00,0.0029
3483.00,0.0029
3482.00,0.0029
3481.00,0.0029
3480.00,0.0029
3479.00,0.0029
3478.00,0.0029
3477.00,0.0030
3476.00,0.0030
3475.00,0.0030
3474.00,0.0030
3473.00,0.0030
3472.00,0.0030
3471.00,0.0030
3470.00,0.0030
3469.00,0.0031
3468.00,0.0031
3467.00,0.0031
3466.00,0.0032
3465.00,0.0033
3464.00,0.0033
3463.00,0.0033
3462.00,0.0033
3461.00,0.0033
3460.00,0.0034
3459.00,0.0034
3458.00,0.0033
3457.00,0.0033
3456.00,0.0033
3455.00,0.0033
3454.00,0.0034
3453.00,0.0034
3452.00,0.0034
3451.00,0.0034
3450.00,0.0034
3449.00,0.0034
3448.00,0.0034
3447.00,0.0035
3446.00,0.0035
3445.00,0.0035
3444.00,0.0036
3443.00,0.0036
3442.00,0.0036
3441.00,0.0037
3440.00,0.0037
3439.00,0.0036
3438.00,0.0036
3437.00,0.0036
3436.00,0.0036
3435.00,0.0037
3434.00,0.0037
3433.00,0.0037
3432.00,0.0038
3431.00,0.0038
3430.00,0.0038
3429.00,0.0038
3428.00,0.0038
3427.00,0.0038
3426.00,0.0038
3425.00,0.0039
3424.00,0.0039
3423.00,0.0039
3422.00,0.0038
3421.00,0.0038
3420.00,0.0038
3419.00,0.0038
3418.00,0.0038
3417.00,0.0038
3416.00,0.0039
3415.00,0.0040
3414.00,0.0041
3413.00,0.0041
3412.00,0.0041
3411.00,0.0041
3410.00,0.0041
3409.00,0.0041
3408.00,0.0041
3407.00,0.0041
3406.00,0.0041
3405.00,0.0040
3404.00,0.0040
3403.00,0.0040
3402.00,0.0040
3401.00,0.0041
3400.00,0.0041
3399.00,0.0041
3398.00,0.0041
3397.00,0.0041
3396.00,0.0041
3395.00,0.0041
3394.00,0.0041
3393.00,0.0041
3392.00,0.0040
3391.00,0.0040
3390.00,0.0040
3389.00,0.0040
3388.00,0.0040
3387.00,0.0040
3386.00,0.0041
3385.00,0.0041
3384.00,0.0041
3383.00,0.0041
3382.00,0.0041
3381.00,0.0042
3380.00,0.0042
3379.00,0.0042
3378.00,0.0042
3377.00,0.0041
3376.00,0.0041
3375.00,0.0041
3374.00,0.0042
3373.00,0.0042
3372.00,0.0041
3371.00,0.0041
3370.00,0.0041
3369.00,0.0040
3368.00,0.0040
3367.00,0.0040
3366.00,0.0040
3365.00,0.0040
3364.00,0.0041
3363.00,0.0041
3362.00,0.0041
3361.00,0.0041
3360.00,0.0041
3359.00,0.0041
3358.00,0.0041
3357.00,0.0041
3356.00,0.0041
3355.00,0.0041
3354.00,0.0042
3353.00,0.0041
3352.00,0.0041
3351.00,0.0041
3350.00,0.0040
3349.00,0.0040
3348.00,0.0040
3347.00,0.0040
3346.00,0.0040
3345.00,0.0040
3344.00,0.0040
3343.00,0.0040
3342.00,0.0040
3341.00,0.0041
3340.00,0.0041
3339.00,0.0041
3338.00,0.0040
3337.00,0.0040
3336.00,0.0040
3335.00,0.0040
3334.00,0.0039
3333.00,0.0039
3332.00,0.0038
3331.00,0.0038
3330.00,0.0039
3329.00,0.0039
3328.00,0.0039
3327.00,0.0038
3326.00,0.0038
3325.00,0.0038
3324.00,0.0038
3323.00,0.0038
3322.00,0.0038
3321.00,0.0038
3320.00,0.0038
3319.00,0.0037
3318.00,0.0037
3317.00,0.0037
3316.00,0.0037
3315.00,0.0037
3314.00,0.0036
3313.00,0.0036
3312.00,0.0037
3311.00,0.0037
3310.00,0.0037
3309.00,0.0037
3308.00,0.0038
3307.00,0.0038
3306.00,0.0038
3305.00,0.0038
3304.00,0.0038
3303.00,0.0038
3302.00,0.0038
3301.00,0.0038
3300.00,0.0037
3299.00,0.0037
3298.00,0.0037
3297.00,0.0037
3296.00,0.0036
3295.00,0.0036
3294.00,0.0036
3293.00,0.0036
3292.00,0.0036
3291.00,0.0035
3290.00,0.0035
3289.00,0.0035
3288.00,0.0035
3287.00,0.0035
3286.00,0.0035
3285.00,0.0035
3284.00,0.0034
3283.00,0.0034
3282.00,0.0034
3281.00,0.0034
3280.00,0.0033
3279.00,0.0033
3278.00,0.0033
3277.00,0.0033
3276.00,0.0034
3275.00,0.0034
3274.00,0.0033
3273.00,0.0033
3272.00,0.0033
3271.00,0.0033
3270.00,0.0033
3269.00,0.0033
3268.00,0.0033
3267.00,0.0033
3266.00,0.0033
3265.00,0.0033
3264.00,0.0033
3263.00,0.0032
3262.00,0.0032
3261.00,0.0031
3260.00,0.0031
3259.00,0.0031
3258.00,0.0030
3257.00,0.0030
3256.00,0.0030
3255.00,0.0030
3254.00,0.0031
3253.00,0.0030
3252.00,0.0030
3251.00,0.0030
3250.00,0.0030
3249.00,0.0031
3248.00,0.0030
3247.00,0.0030
3246.00,0.0030
3245.00,0.0030
3244.00,0.0031
3243.00,0.0031
3242.00,0.0031
3241.00,0.0031
3240.00,0.0031
3239.00,0.0031
3238.00,0.0030
3237.00,0.0030
3236.00,0.0029
3235.00,0.0029
3234.00,0.0030
3233.00,0.0030
3232.00,0.0030
3231.00,0.0031
3230.00,0.0031
3229.00,0.0031
3228.00,0.0031
3227.00,0.0032
3226.00,0.0032
3225.00,0.0032
3224.00,0.0031
3223.00,0.0031
3222.00,0.0031
3221.00,0.0032
3220.00,0.0032
3219.00,0.0033
3218.00,0.0033
3217.00,0.0033
3216.00,0.0033
3215.00,0.0034
3214.00,0.0034
3213.00,0.0034
3212.00,0.0034
3211.00,0.0034
3210.00,0.0035
3209.00,0.0034
3208.00,0.0034
3207.00,0.0034
3206.00,0.0034
3205.00,0.0034
3204.00,0.0034
3203.00,0.0034
3202.00,0.0034
3201.00,0.0034
3200.00,0.0034
3199.00,0.0034
3198.00,0.0034
3197.00,0.0034
3196.00,0.0034
3195.00,0.0034
3194.00,0.0034
3193.00,0.0035
3192.00,0.0035
3191.00,0.0035
3190.00,0.0035
3189.00,0.0035
3188.00,0.0035
3187.00,0.0034
3186.00,0.0034
3185.00,0.0033
3184.00,0.0033
3183.00,0.0033
3182.00,0.0033
3181.00,0.0033
3180.00,0.0032
3179.00,0.0032
3178.00,0.0032
3177.00,0.0032
3176.00,0.0031
3175.00,0.0031
3174.00,0.0031
3173.00,0.0031
3172.00,0.0031
3171.00,0.0031
3170.00,0.0031
3169.00,0.0031
3168.00,0.0031
3167.00,0.0030
3166.00,0.0030
3165.00,0.0029
3164.00,0.0029
3163.00,0.0029
3162.00,0.0029
3161.00,0.0029
3160.00,0.0029
3159.00,0.0029
3158.00,0.0029
3157.00,0.0029
3156.00,0.0029
3155.00,0.0029
3154.00,0.0030
3153.00,0.0030
3152.00,0.0030
3151.00,0.0029
3150.00,0.0029
3149.00,0.0029
3148.00,0.0029
3147.00,0.0029
3146.00,0.0029
3145.00,0.0029
3144.00,0.0029
3143.00,0.0029
3142.00,0.0029
3141.00,0.0029
3140.00,0.0029
3139.00,0.0028
3138.00,0.0028
3137.00,0.0028
3136.00,0.0028
3135.00,0.0028
3134.00,0.0027
3133.00,0.0027
3132.00,0.0027
3131.00,0.0027
3130.00,0.0027
3129.00,0.0027
3128.00,0.0027
3127.00,0.0027
3126.00,0.0026
3125.00,0.0026
3124.00,0.0026
3123.00,0.0026
3122.00,0.0025
3121.00,0.0025
3120.00,0.0025
3119.00,0.0025
3118.00,0.0025
3117.00,0.0025
3116.00,0.0024
3115.00,0.0024
3114.00,0.0024
3113.00,0.0024
3112.00,0.0024
3111.00,0.0024
3110.00,0.0024
3109.00,0.0024
3108.00,0.0024
3107.00,0.0023
3106.00,0.0023
3105.00,0.0023
3104.00,0.0023
3103.00,0.0023
3102.00,0.0023
3101.00,0.0023
3100.00,0.0023
3099.00,0.0023
3098.00,0.0023
3097.00,0.0023
3096.00,0.0023
3095.00,0.0023
3094.00,0.0023
3093.00,0.0023
3092.00,0.0023
3091.00,0.0023
3090.00,0.0023
3089.00,0.0023
3088.00,0.0022
3087.00,0.0022
3086.00,0.0022
3085.00,0.0022
3084.00,0.0022
3083.00,0.0022
3082.00,0.0022
3081.00,0.0023
3080.00,0.0023
3079.00,0.0024
3078.00,0.0024
3077.00,0.0023
3076.00,0.0023
3075.00,0.0023
3074.00,0.0023
3073.00,0.0024
3072.00,0.0024
3071.00,0.0025
3070.00,0.0025
3069.00,0.0025
3068.00,0.0025
3067.00,0.0025
3066.00,0.0025
3065.00,0.0025
3064.00,0.0025
3063.00,0.0025
3062.00,0.0025
3061.00,0.0025
3060.00,0.0026
3059.00,0.0026
3058.00,0.0026
3057.00,0.0027
3056.00,0.0027
3055.00,0.0027
3054.00,0.0028
3053.00,0.0027
3052.00,0.0027
3051.00,0.0027
3050.00,0.0028
3049.00,0.0028
3048.00,0.0029
3047.00,0.0029
3046.00,0.0029
3045.00,0.0029
3044.00,0.0029
3043.00,0.0029
3042.00,0.0029
3041.00,0.0030
3040.00,0.0030
3039.00,0.0031
3038.00,0.0032
3037.00,0.0032
3036.00,0.0032
3035.00,0.0033
3034.00,0.0033
3033.00,0.0033
3032.00,0.0033
3031.00,0.0033
3030.00,0.0033
3029.00,0.0034
3028.00,0.0035
3027.00,0.0036
3026.00,0.0037
3025.00,0.0037
3024.00,0.0038
3023.00,0.0039
3022.00,0.0039
3021.00,0.0040
3020.00,0.0042
3019.00,0.0043
3018.00,0.0045
3017.00,0.0046
3016.00,0.0048
3015.00,0.0049
3014.00,0.0051
3013.00,0.0054
3012.00,0.0056
3011.00,0.0059
3010.00,0.0061
3009.00,0.0064
3008.00,0.0067
3007.00,0.0070
3006.00,0.0074
3005.00,0.0078
3004.00,0.0082
3003.00,0.0086
3002.00,0.0090
3001.00,0.0095
3000.00,0.0100
2999.00,0.0104
2998.00,0.0108
2997.00,0.0112
2996.00,0.0117
2995.00,0.0121
2994.00,0.0126
2993.00,0.0132
2992.00,0.0138
2991.00,0.0144
2990.00,0.0151
2989.00,0.0158
2988.00,0.0167
2987.00,0.0177
2986.00,0.0190
2985.00,0.0205
2984.00,0.0223
2983.00,0.0242
2982.00,0.0260
2981.00,0.0277
2980.00,0.0294
2979.00,0.0312
2978.00,0.0332
2977.00,0.0356
2976.00,0.0385
2975.00,0.0419
2974.00,0.0460
2973.00,0.0507
2972.00,0.0559
2971.00,0.0617
2970.00,0.0681
2969.00,0.0750
2968.00,0.0824
2967.00,0.0904
2966.00,0.0987
2965.00,0.1071
2964.00,0.1153
2963.00,0.1230
2962.00,0.1298
2961.00,0.1356
2960.00,0.1406
2959.00,0.1449
2958.00,0.1491
2957.00,0.1536
2956.00,0.1590
2955.00,0.1653
2954.00,0.1725
2953.00,0.1799
2952.00,0.1866
2951.00,0.1915
2950.00,0.1935
2949.00,0.1915
2948.00,0.1855
2947.00,0.1758
2946.00,0.1637
2945.00,0.1506
2944.00,0.1381
2943.00,0.1273
2942.00,0.1190
2941.00,0.1132
2940.00,0.1100
2939.00,0.1090
2938.00,0.1102
2937.00,0.1132
2936.00,0.1180
2935.00,0.1244
2934.00,0.1321
2933.00,0.1412
2932.00,0.1514
2931.00,0.1625
2930.00,0.1742
2929.00,0.1863
2928.00,0.1983
2927.00,0.2101
2926.00,0.2214
2925.00,0.2322
2924.00,0.2428
2923.00,0.2532
2922.00,0.2636
2921.00,0.2737
2920.00,0.2827
2919.00,0.2898
2918.00,0.2937
2917.00,0.2936
2916.00,0.2892
2915.00,0.2812
2914.00,0.2706
2913.00,0.2587
2912.00,0.2467
2911.00,0.2354
2910.00,0.2251
2909.00,0.2158
2908.00,0.2073
2907.00,0.1994
2906.00,0.1918
2905.00,0.1843
2904.00,0.1769
2903.00,0.1696
2902.00,0.1625
2901.00,0.1556
2900.00,0.1490
2899.00,0.1428
2898.00,0.1370
2897.00,0.1317
2896.00,0.1269
2895.00,0.1227
2894.00,0.1192
2893.00,0.1164
2892.00,0.1142
2891.00,0.1125
2890.00,0.1114
2889.00,0.1107
2888.00,0.1104
2887.00,0.1105
2886.00,0.1110
2885.00,0.1118
2884.00,0.1131
2883.00,0.1148
2882.00,0.1171
2881.00,0.1197
2880.00,0.1224
2879.00,0.1249
2878.00,0.1266
2877.00,0.1273
2876.00,0.1270
2875.00,0.1262
2874.00,0.1254
2873.00,0.1250
2872.00,0.1254
2871.00,0.1266
2870.00,0.1283
2869.00,0.1301
2868.00,0.1312
2867.00,0.1308
2866.00,0.1282
2865.00,0.1233
2864.00,0.1163
2863.00,0.1083
2862.00,0.1003
2861.00,0.0932
2860.00,0.0877
2859.00,0.0838
2858.00,0.0815
2857.00,0.0806
2856.00,0.0807
2855.00,0.0816
2854.00,0.0831
2853.00,0.0849
2852.00,0.0867
2851.00,0.0882
2850.00,0.0894
2849.00,0.0901
2848.00,0.0907
2847.00,0.0918
2846.00,0.0938
2845.00,0.0969
2844.00,0.1011
2843.00,0.1063
2842.00,0.1120
2841.00,0.1176
2840.00,0.1222
2839.00,0.1251
2838.00,0.1253
2837.00,0.1224
2836.00,0.1163
2835.00,0.1075
2834.00,0.0969
2833.00,0.0858
2832.00,0.0750
2831.00,0.0654
2830.00,0.0572
2829.00,0.0504
2828.00,0.0449
2827.00,0.0405
2826.00,0.0370
2825.00,0.0340
2824.00,0.0316
2823.00,0.0296
2822.00,0.0279
2821.00,0.0264
2820.00,0.0251
2819.00,0.0240
2818.00,0.0230
2817.00,0.0221
2816.00,0.0213
2815.00,0.0206
2814.00,0.0200
2813.00,0.0194
2812.00,0.0188
2811.00,0.0182
2810.00,0.0177
2809.00,0.0171
2808.00,0.0165
2807.00,0.0158
2806.00,0.0151
2805.00,0.0145
2804.00,0.0138
2803.00,0.0132
2802.00,0.0127
2801.00,0.0123
2800.00,0.0119
2799.00,0.0115
2798.00,0.0112
2797.00,0.0110
2796.00,0.0107
2795.00,0.0104
2794.00,0.0101
2793.00,0.0099
2792.00,0.0096
2791.00,0.0093
2790.00,0.0090
2789.00,0.0087
2788.00,0.0085
2787.00,0.0082
2786.00,0.0079
2785.00,0.0077
2784.00,0.0074
2783.00,0.0072
2782.00,0.0069
2781.00,0.0067
2780.00,0.0066
2779.00,0.0064
2778.00,0.0063
2777.00,0.0061
2776.00,0.0060
2775.00,0.0058
2774.00,0.0057
2773.00,0.0057
2772.00,0.0056
2771.00,0.0056
2770.00,0.0056
2769.00,0.0056
2768.00,0.0056
2767.00,0.0055
2766.00,0.0055
2765.00,0.0054
2764.00,0.0054
2763.00,0.0053
2762.00,0.0053
2761.00,0.0053
2760.00,0.0053
2759.00,0.0052
2758.00,0.0052
2757.00,0.0052
2756.00,0.0052
2755.00,0.0052
2754.00,0.0052
2753.00,0.0051
2752.00,0.0051
2751.00,0.0050
2750.00,0.0050
2749.00,0.0050
2748.00,0.0050
2747.00,0.0050
2746.00,0.0051
2745.00,0.0052
2744.00,0.0052
2743.00,0.0053
2742.00,0.0054
2741.00,0.0056
2740.00,0.0057
2739.00,0.0058
2738.00,0.0060
2737.00,0.0061
2736.00,0.0063
2735.00,0.0065
2734.00,0.0066
2733.00,0.0067
2732.00,0.0069
2731.00,0.0071
2730.00,0.0073
2729.00,0.0076
2728.00,0.0078
2727.00,0.0081
2726.00,0.0085
2725.00,0.0087
2724.00,0.0089
2723.00,0.0089
2722.00,0.0088
2721.00,0.0086
2720.00,0.0083
2719.00,0.0080
2718.00,0.0076
2717.00,0.0073
2716.00,0.0070
2715.00,0.0068
2714.00,0.0065
2713.00,0.0063
2712.00,0.0060
2711.00,0.0058
2710.00,0.0056
2709.00,0.0055
2708.00,0.0053
2707.00,0.0052
2706.00,0.0051
2705.00,0.0050
2704.00,0.0049
2703.00,0.0048
2702.00,0.0047
2701.00,0.0046
2700.00,0.0045
2699.00,0.0045
2698.00,0.0044
2697.00,0.0044
2696.00,0.0044
2695.00,0.0044
2694.00,0.0044
2693.00,0.0044
2692.00,0.0044
2691.00,0.0044
2690.00,0.0044
2689.00,0.0045
2688.00,0.0045
2687.00,0.0045
2686.00,0.0045
2685.00,0.0045
2684.00,0.0045
2683.00,0.0045
2682.00,0.0045
2681.00,0.0046
2680.00,0.0046
2679.00,0.0046
2678.00,0.0046
2677.00,0.0046
2676.00,0.0046
2675.00,0.0046
2674.00,0.0045
2673.00,0.0045
2672.00,0.0045
2671.00,0.0045
2670.00,0.0045
2669.00,0.0045
2668.00,0.0045
2667.00,0.0045
2666.00,0.0046
2665.00,0.0047
2664.00,0.0047
2663.00,0.0048
2662.00,0.0048
2661.00,0.0048
2660.00,0.0048
2659.00,0.0048
2658.00,0.0048
2657.00,0.0048
2656.00,0.0048
2655.00,0.0047
2654.00,0.0047
2653.00,0.0046
2652.00,0.0046
2651.00,0.0045
2650.00,0.0045
2649.00,0.0044
2648.00,0.0044
2647.00,0.0043
2646.00,0.0043
2645.00,0.0042
2644.00,0.0042
2643.00,0.0042
2642.00,0.0042
2641.00,0.0041
2640.00,0.0041
2639.00,0.0040
2638.00,0.0040
2637.00,0.0039
2636.00,0.0039
2635.00,0.0039
2634.00,0.0039
2633.00,0.0039
2632.00,0.0039
2631.00,0.0040
2630.00,0.0040
2629.00,0.0039
2628.00,0.0039
2627.00,0.0039
2626.00,0.0039
2625.00,0.0040
2624.00,0.0040
2623.00,0.0041
2622.00,0.0041
2621.00,0.0041
2620.00,0.0040
2619.00,0.0040
2618.00,0.0040
2617.00,0.0040
2616.00,0.0040
2615.00,0.0040
2614.00,0.0040
2613.00,0.0040
2612.00,0.0039
2611.00,0.0038
2610.00,0.0037
2609.00,0.0036
2608.00,0.0036
2607.00,0.0035
2606.00,0.0035
2605.00,0.0035
2604.00,0.0035
2603.00,0.0034
2602.00,0.0033
2601.00,0.0032
2600.00,0.0032
2599.00,0.0032
2598.00,0.0032
2597.00,0.0032
2596.00,0.0032
2595.00,0.0031
2594.00,0.0031
2593.00,0.0031
2592.00,0.0031
2591.00,0.0032
2590.00,0.0033
2589.00,0.0034
2588.00,0.0036
2587.00,0.0038
2586.00,0.0039
2585.00,0.0040
2584.00,0.0040
2583.00,0.0040
2582.00,0.0039
2581.00,0.0039
2580.00,0.0038
2579.00,0.0037
2578.00,0.0037
2577.00,0.0036
2576.00,0.0035
2575.00,0.0034
2574.00,0.0032
2573.00,0.0030
2572.00,0.0029
2571.00,0.0028
2570.00,0.0027
2569.00,0.0027
2568.00,0.0026
2567.00,0.0025
2566.00,0.0025
2565.00,0.0024
2564.00,0.0023
2563.00,0.0022
2562.00,0.0021
2561.00,0.0022
2560.00,0.0022
2559.00,0.0022
2558.00,0.0023
2557.00,0.0023
2556.00,0.0023
2555.00,0.0023
2554.00,0.0022
2553.00,0.0022
2552.00,0.0022
2551.00,0.0021
2550.00,0.0021
2549.00,0.0020
2548.00,0.0019
2547.00,0.0018
2546.00,0.0016
2545.00,0.0016
2544.00,0.0016
2543.00,0.0016
2542.00,0.0016
2541.00,0.0016
2540.00,0.0016
2539.00,0.0016
2538.00,0.0017
2537.00,0.0017
2536.00,0.0016
2535.00,0.0016
2534.00,0.0015
2533.00,0.0015
2532.00,0.0014
2531.00,0.0014
2530.00,0.0014
2529.00,0.0014
2528.00,0.0014
2527.00,0.0014
2526.00,0.0014
2525.00,0.0013
2524.00,0.0013
2523.00,0.0013
2522.00,0.0013
2521.00,0.0012
2520.00,0.0012
2519.00,0.0012
2518.00,0.0012
2517.00,0.0012
2516.00,0.0011
2515.00,0.0011
2514.00,0.0011
2513.00,0.0011
2512.00,0.0011
2511.00,0.0011
2510.00,0.0011
2509.00,0.0011
2508.00,0.0010
2507.00,0.0010
2506.00,0.0009
2505.00,0.0009
2504.00,0.0009
2503.00,0.0010
2502.00,0.0010
2501.00,0.0010
2500.00,0.0010
2499.00,0.0010
2498.00,0.0011
2497.00,0.0011
2496.00,0.0010
2495.00,0.0010
2494.00,0.0009
2493.00,0.0010
2492.00,0.0010
2491.00,0.0011
2490.00,0.0011
2489.00,0.0010
2488.00,0.0010
2487.00,0.0009
2486.00,0.0008
2485.00,0.0008
2484.00,0.0008
2483.00,0.0008
2482.00,0.0009
2481.00,0.0010
2480.00,0.0010
2479.00,0.0011
2478.00,0.0010
2477.00,0.0010
2476.00,0.0009
2475.00,0.0009
2474.00,0.0009
2473.00,0.0009
2472.00,0.0009
2471.00,0.0009
2470.00,0.0008
2469.00,0.0008
2468.00,0.0008
2467.00,0.0007
2466.00,0.0007
2465.00,0.0008
2464.00,0.0008
2463.00,0.0009
2462.00,0.0010
2461.00,0.0010
2460.00,0.0010
2459.00,0.0010
2458.00,0.0010
2457.00,0.0010
2456.00,0.0010
2455.00,0.0011
2454.00,0.0011
2453.00,0.0011
2452.00,0.0011
2451.00,0.0010
2450.00,0.0010
2449.00,0.0010
2448.00,0.0010
2447.00,0.0011
2446.00,0.0011
2445.00,0.0011
2444.00,0.0010
2443.00,0.0010
2442.00,0.0010
2441.00,0.0010
2440.00,0.0010
2439.00,0.0010
2438.00,0.0010
2437.00,0.0010
2436.00,0.0010
2435.00,0.0011
2434.00,0.0011
2433.00,0.0011
2432.00,0.0010
2431.00,0.0010
2430.00,0.0011
2429.00,0.0011
2428.00,0.0011
2427.00,0.0011
2426.00,0.0011
2425.00,0.0010
2424.00,0.0010
2423.00,0.0009
2422.00,0.0009
2421.00,0.0009
2420.00,0.0009
2419.00,0.0009
2418.00,0.0009
2417.00,0.0010
2416.00,0.0010
2415.00,0.0010
2414.00,0.0009
2413.00,0.0009
2412.00,0.0009
2411.00,0.0009
2410.00,0.0009
2409.00,0.0009
2408.00,0.0009
2407.00,0.0008
2406.00,0.0008
2405.00,0.0008
2404.00,0.0008
2403.00,0.0008
2402.00,0.0008
2401.00,0.0007
2400.00,0.0007
2399.00,0.0007
2398.00,0.0007
2397.00,0.0007
2396.00,0.0007
2395.00,0.0008
2394.00,0.0008
2393.00,0.0008
2392.00,0.0008
2391.00,0.0007
2390.00,0.0007
2389.00,0.0007
2388.00,0.0007
2387.00,0.0007
2386.00,0.0006
2385.00,0.0006
2384.00,0.0005
2383.00,0.0005
2382.00,0.0005
2381.00,0.0004
2380.00,0.0004
2379.00,0.0005
2378.00,0.0005
2377.00,0.0005
2376.00,0.0004
2375.00,0.0003
2374.00,0.0002
2373.00,0.0001
2372.00,0.0001
2371.00,0.0001
2370.00,0.0001
2369.00,0.0002
2368.00,0.0003
2367.00,0.0003
2366.00,0.0003
2365.00,0.0003
2364.00,0.0003
2363.00,0.0003
2362.00,0.0004
2361.00,0.0004
2360.00,0.0004
2359.00,0.0004
2358.00,0.0004
2357.00,0.0004
2356.00,0.0004
2355.00,0.0003
2354.00,0.0003
2353.00,0.0003
2352.00,0.0004
2351.00,0.0004
2350.00,0.0004
2349.00,0.0004
2348.00,0.0003
2347.00,0.0002
2346.00,0.0002
2345.00,0.0004
2344.00,0.0005
2343.00,0.0007
2342.00,0.0008
2341.00,0.0009
2340.00,0.0009
2339.00,0.0009
2338.00,0.0009
2337.00,0.0008
2336.00,0.0008
2335.00,0.0007
2334.00,0.0007
2333.00,0.0007
2332.00,0.0008
2331.00,0.0009
2330.00,0.0010
2329.00,0.0011
2328.00,0.0012
2327.00,0.0015
2326.00,0.0019
2325.00,0.0022
2324.00,0.0024
2323.00,0.0023
2322.00,0.0021
2321.00,0.0019
2320.00,0.0018
2319.00,0.0017
2318.00,0.0016
2317.00,0.0015
2316.00,0.0014
2315.00,0.0013
2314.00,0.0013
2313.00,0.0012
2312.00,0.0013
2311.00,0.0013
2310.00,0.0013
2309.00,0.0012
2308.00,0.0011
2307.00,0.0011
2306.00,0.0011
2305.00,0.0011
2304.00,0.0011
2303.00,0.0011
2302.00,0.0012
2301.00,0.0012
2300.00,0.0012
2299.00,0.0013
2298.00,0.0014
2297.00,0.0015
2296.00,0.0015
2295.00,0.0016
2294.00,0.0016
2293.00,0.0016
2292.00,0.0017
2291.00,0.0017
2290.00,0.0017
2289.00,0.0018
2288.00,0.0018
2287.00,0.0019
2286.00,0.0020
2285.00,0.0019
2284.00,0.0018
2283.00,0.0017
2282.00,0.0015
2281.00,0.0014
2280.00,0.0014
2279.00,0.0014
2278.00,0.0014
2277.00,0.0014
2276.00,0.0014
2275.00,0.0014
2274.00,0.0014
2273.00,0.0014
2272.00,0.0015
2271.00,0.0015
2270.00,0.0015
2269.00,0.0015
2268.00,0.0015
2267.00,0.0014
2266.00,0.0013
2265.00,0.0012
2264.00,0.0011
2263.00,0.0011
2262.00,0.0010
2261.00,0.0010
2260.00,0.0011
2259.00,0.0012
2258.00,0.0012
2257.00,0.0012
2256.00,0.0011
2255.00,0.0010
2254.00,0.0009
2253.00,0.0009
2252.00,0.0008
2251.00,0.0008
2250.00,0.0009
2249.00,0.0009
2248.00,0.0009
2247.00,0.0008
2246.00,0.0008
2245.00,0.0008
2244.00,0.0009
2243.00,0.0010
2242.00,0.0009
2241.00,0.0007
2240.00,0.0006
2239.00,0.0005
2238.00,0.0005
2237.00,0.0006
2236.00,0.0008
2235.00,0.0009
2234.00,0.0009
2233.00,0.0009
2232.00,0.0009
2231.00,0.0009
2230.00,0.0008
2229.00,0.0007
2228.00,0.0006
2227.00,0.0006
2226.00,0.0005
2225.00,0.0005
2224.00,0.0005
2223.00,0.0004
2222.00,0.0005
2221.00,0.0005
2220.00,0.0006
2219.00,0.0007
2218.00,0.0007
2217.00,0.0005
2216.00,0.0004
2215.00,0.0004
2214.00,0.0006
2213.00,0.0008
2212.00,0.0009
2211.00,0.0009
2210.00,0.0008
2209.00,0.0008
2208.00,0.0007
2207.00,0.0006
2206.00,0.0006
2205.00,0.0007
2204.00,0.0008
2203.00,0.0009
2202.00,0.0009
2201.00,0.0009
2200.00,0.0008
2199.00,0.0007
2198.00,0.0006
2197.00,0.0005
2196.00,0.0005
2195.00,0.0006
2194.00,0.0007
2193.00,0.0007
2192.00,0.0006
2191.00,0.0005
2190.00,0.0005
2189.00,0.0007
2188.00,0.0009
2187.00,0.0012
2186.00,0.0013
2185.00,0.0012
2184.00,0.0011
2183.00,0.0009
2182.00,0.0007
2181.00,0.0007
2180.00,0.0008
2179.00,0.0008
2178.00,0.0007
2177.00,0.0005
2176.00,0.0003
2175.00,0.0002
2174.00,0.0001
2173.00,0.0001
2172.00,0.0002
2171.00,0.0003
2170.00,0.0005
2169.00,0.0009
2168.00,0.0012
2167.00,0.0013
2166.00,0.0013
2165.00,0.0012
2164.00,0.0013
2163.00,0.0015
2162.00,0.0015
2161.00,0.0009
2160.00,-0.0002
2159.00,-0.0018
2158.00,-0.0030
2157.00,-0.0036
2156.00,-0.0036
2155.00,-0.0033
2154.00,-0.0028
2153.00,-0.0022
2152.00,-0.0017
2151.00,-0.0014
2150.00,-0.0013
2149.00,-0.0013
2148.00,-0.0014
2147.00,-0.0015
2146.00,-0.0015
2145.00,-0.0016
2144.00,-0.0017
2143.00,-0.0017
2142.00,-0.0016
2141.00,-0.0013
2140.00,-0.0011
2139.00,-0.0009
2138.00,-0.0009
2137.00,-0.0012
2136.00,-0.0015
2135.00,-0.0018
2134.00,-0.0020
2133.00,-0.0019
2132.00,-0.0018
2131.00,-0.0015
2130.00,-0.0013
2129.00,-0.0011
2128.00,-0.0011
2127.00,-0.0011
2126.00,-0.0010
2125.00,-0.0009
2124.00,-0.0008
2123.00,-0.0006
2122.00,-0.0004
2121.00,-0.0002
2120.00,-0.0002
2119.00,-0.0002
2118.00,-0.0001
2117.00,-0.0000
2116.00,0.0002
2115.00,0.0003
2114.00,0.0004
2113.00,0.0003
2112.00,0.0003
2111.00,0.0002
2110.00,0.0001
2109.00,0.0001
2108.00,0.0000
2107.00,0.0000
2106.00,0.0001
2105.00,0.0001
2104.00,0.0002
2103.00,0.0001
2102.00,0.0001
2101.00,0.0001
2100.00,0.0001
2099.00,0.0000
2098.00,-0.0000
2097.00,-0.0002
2096.00,-0.0004
2095.00,-0.0006
2094.00,-0.0007
2093.00,-0.0005
2092.00,-0.0003
2091.00,-0.0002
2090.00,-0.0001
2089.00,-0.0001
2088.00,0.0001
2087.00,0.0003
2086.00,0.0004
2085.00,0.0003
2084.00,0.0003
2083.00,0.0002
2082.00,0.0002
2081.00,0.0002
2080.00,0.0003
2079.00,0.0004
2078.00,0.0004
2077.00,0.0004
2076.00,0.0003
2075.00,0.0001
2074.00,-0.0001
2073.00,-0.0002
2072.00,-0.0002
2071.00,-0.0000
2070.00,0.0000
2069.00,0.0001
2068.00,0.0000
2067.00,-0.0001
2066.00,-0.0002
2065.00,-0.0001
2064.00,-0.0001
2063.00,0.0000
2062.00,0.0001
2061.00,0.0001
2060.00,-0.0001
2059.00,-0.0002
2058.00,-0.0002
2057.00,-0.0001
2056.00,0.0000
2055.00,0.0001
2054.00,0.0001
2053.00,0.0004
2052.00,0.0008
2051.00,0.0011
2050.00,0.0011
2049.00,0.0009
2048.00,0.0007
2047.00,0.0005
2046.00,0.0003
2045.00,0.0001
2044.00,-0.0001
2043.00,-0.0001
2042.00,-0.0001
2041.00,0.0000
2040.00,0.0001
2039.00,0.0002
2038.00,0.0002
2037.00,0.0003
2036.00,0.0003
2035.00,0.0001
2034.00,-0.0001
2033.00,-0.0003
2032.00,-0.0004
2031.00,-0.0006
2030.00,-0.0008
2029.00,-0.0011
2028.00,-0.0013
2027.00,-0.0015
2026.00,-0.0017
2025.00,-0.0018
2024.00,-0.0018
2023.00,-0.0017
2022.00,-0.0016
2021.00,-0.0016
2020.00,-0.0015
2019.00,-0.0015
2018.00,-0.0014
2017.00,-0.0013
2016.00,-0.0011
2015.00,-0.0009
2014.00,-0.0007
2013.00,-0.0005
2012.00,-0.0003
2011.00,-0.0003
2010.00,-0.0004
2009.00,-0.0006
2008.00,-0.0008
2007.00,-0.0012
2006.00,-0.0016
2005.00,-0.0018
2004.00,-0.0019
2003.00,-0.0019
2002.00,-0.0018
2001.00,-0.0017
2000.00,-0.0016
1999.00,-0.0015
1998.00,-0.0012
1997.00,-0.0009
1996.00,-0.0007
1995.00,-0.0006
1994.00,-0.0006
1993.00,-0.0005
1992.00,-0.0004
1991.00,-0.0004
1990.00,-0.0005
1989.00,-0.0005
1988.00,-0.0005
1987.00,-0.0005
1986.00,-0.0005
1985.00,-0.0003
1984.00,0.0001
1983.00,0.0005
1982.00,0.0008
1981.00,0.0009
1980.00,0.0007
1979.00,0.0002
1978.00,-0.0005
1977.00,-0.0010
1976.00,-0.0011
1975.00,-0.0011
1974.00,-0.0010
1973.00,-0.0010
1972.00,-0.0010
1971.00,-0.0011
1970.00,-0.0012
1969.00,-0.0014
1968.00,-0.0014
1967.00,-0.0015
1966.00,-0.0016
1965.00,-0.0016
1964.00,-0.0016
1963.00,-0.0016
1962.00,-0.0016
1961.00,-0.0018
1960.00,-0.0019
1959.00,-0.0021
1958.00,-0.0021
1957.00,-0.0020
1956.00,-0.0018
1955.00,-0.0016
1954.00,-0.0016
1953.00,-0.0016
1952.00,-0.0016
1951.00,-0.0017
1950.00,-0.0016
1949.00,-0.0014
1948.00,-0.0012
1947.00,-0.0011
1946.00,-0.0011
1945.00,-0.0011
1944.00,-0.0011
1943.00,-0.0011
1942.00,-0.0011
1941.00,-0.0011
1940.00,-0.0010
1939.00,-0.0009
1938.00,-0.0009
1937.00,-0.0008
1936.00,-0.0008
1935.00,-0.0008
1934.00,-0.0008
1933.00,-0.0008
1932.00,-0.0009
1931.00,-0.0009
1930.00,-0.0009
1929.00,-0.0008
1928.00,-0.0007
1927.00,-0.0006
1926.00,-0.0006
1925.00,-0.0006
1924.00,-0.0005
1923.00,-0.0005
1922.00,-0.0005
1921.00,-0.0005
1920.00,-0.0005
1919.00,-0.0005
1918.00,-0.0004
1917.00,-0.0004
1916.00,-0.0003
1915.00,-0.0003
1914.00,-0.0003
1913.00,-0.0002
1912.00,-0.0001
1911.00,-0.0001
1910.00,-0.0001
1909.00,-0.0002
1908.00,-0.0002
1907.00,-0.0003
1906.00,-0.0004
1905.00,-0.0004
1904.00,-0.0004
1903.00,-0.0004
1902.00,-0.0003
1901.00,-0.0003
1900.00,-0.0003
1899.00,-0.0003
1898.00,-0.0003
1897.00,-0.0003
1896.00,-0.0002
1895.00,-0.0002
1894.00,-0.0002
1893.00,-0.0002
1892.00,-0.0003
1891.00,-0.0003
1890.00,-0.0001
1889.00,0.0000
1888.00,0.0001
1887.00,0.0001
1886.00,-0.0000
1885.00,-0.0001
1884.00,-0.0001
1883.00,-0.0001
1882.00,-0.0001
1881.00,-0.0001
1880.00,-0.0002
1879.00,-0.0003
1878.00,-0.0003
1877.00,-0.0003
1876.00,-0.0003
1875.00,-0.0002
1874.00,-0.0002
1873.00,-0.0002
1872.00,-0.0001
1871.00,-0.0001
1870.00,-0.0000
1869.00,0.0001
1868.00,0.0001
1867.00,0.0001
1866.00,-0.0000
1865.00,-0.0001
1864.00,-0.0002
1863.00,-0.0002
1862.00,-0.0002
1861.00,-0.0002
1860.00,-0.0002
1859.00,-0.0001
1858.00,-0.0001
1857.00,-0.0000
1856.00,-0.0000
1855.00,0.0000
1854.00,0.0000
1853.00,0.0001
1852.00,0.0001
1851.00,0.0001
1850.00,0.0001
1849.00,0.0001
1848.00,0.0002
1847.00,0.0001
1846.00,0.0001
1845.00,0.0000
1844.00,0.0000
1843.00,0.0000
1842.00,0.0001
1841.00,0.0002
1840.00,0.0003
1839.00,0.0003
1838.00,0.0003
1837.00,0.0002
1836.00,0.0002
1835.00,0.0001
1834.00,0.0001
1833.00,0.0001
1832.00,0.0002
1831.00,0.0003
1830.00,0.0003
1829.00,0.0004
1828.00,0.0004
1827.00,0.0004
1826.00,0.0004
1825.00,0.0004
1824.00,0.0004
1823.00,0.0004
1822.00,0.0003
1821.00,0.0003
1820.00,0.0002
1819.00,0.0001
1818.00,0.0000
1817.00,-0.0000
1816.00,-0.0000
1815.00,0.0000
1814.00,0.0001
1813.00,0.0000
1812.00,0.0000
1811.00,0.0000
1810.00,0.0001
1809.00,0.0001
1808.00,0.0002
1807.00,0.0002
1806.00,0.0003
1805.00,0.0003
1804.00,0.0004
1803.00,0.0004
1802.00,0.0004
1801.00,0.0005
1800.00,0.0005
1799.00,0.0006
1798.00,0.0006
1797.00,0.0006
1796.00,0.0005
1795.00,0.0005
1794.00,0.0005
1793.00,0.0005
1792.00,0.0006
1791.00,0.0006
1790.00,0.0007
1789.00,0.0007
1788.00,0.0008
1787.00,0.0008
1786.00,0.0008
1785.00,0.0007
1784.00,0.0007
1783.00,0.0007
1782.00,0.0006
1781.00,0.0006
1780.00,0.0006
1779.00,0.0006
1778.00,0.0006
1777.00,0.0006
1776.00,0.0007
1775.00,0.0008
1774.00,0.0008
1773.00,0.0009
1772.00,0.0009
1771.00,0.0010
1770.00,0.0010
1769.00,0.0010
1768.00,0.0010
1767.00,0.0009
1766.00,0.0009
1765.00,0.0009
1764.00,0.0009
1763.00,0.0010
1762.00,0.0011
1761.00,0.0012
1760.00,0.0012
1759.00,0.0013
1758.00,0.0013
1757.00,0.0013
1756.00,0.0013
1755.00,0.0013
1754.00,0.0013
1753.00,0.0014
1752.00,0.0015
1751.00,0.0016
1750.00,0.0017
1749.00,0.0018
1748.00,0.0018
1747.00,0.0018
1746.00,0.0018
1745.00,0.0018
1744.00,0.0018
1743.00,0.0018
1742.00,0.0019
1741.00,0.0020
1740.00,0.0020
1739.00,0.0021
1738.00,0.0021
1737.00,0.0020
1736.00,0.0020
1735.00,0.0020
1734.00,0.0019
1733.00,0.0019
1732.00,0.0019
1731.00,0.0020
1730.00,0.0020
1729.00,0.0021
1728.00,0.0021
1727.00,0.0022
1726.00,0.0022
1725.00,0.0022
1724.00,0.0023
1723.00,0.0023
1722.00,0.0023
1721.00,0.0023
1720.00,0.0023
1719.00,0.0021
1718.00,0.0019
1717.00,0.0018
1716.00,0.0018
1715.00,0.0019
1714.00,0.0019
1713.00,0.0019
1712.00,0.0020
1711.00,0.0020
1710.00,0.0021
1709.00,0.0021
1708.00,0.0021
1707.00,0.0021
1706.00,0.0021
1705.00,0.0021
1704.00,0.0022
1703.00,0.0022
1702.00,0.0022
1701.00,0.0023
1700.00,0.0023
1699.00,0.0023
1698.00,0.0023
1697.00,0.0023
1696.00,0.0024
1695.00,0.0025
1694.00,0.0024
1693.00,0.0024
1692.00,0.0024
1691.00,0.0024
1690.00,0.0025
1689.00,0.0025
1688.00,0.0026
1687.00,0.0026
1686.00,0.0026
1685.00,0.0026
1684.00,0.0026
1683.00,0.0027
1682.00,0.0027
1681.00,0.0027
1680.00,0.0028
1679.00,0.0028
1678.00,0.0028
1677.00,0.0028
1676.00,0.0028
1675.00,0.0028
1674.00,0.0028
1673.00,0.0029
1672.00,0.0029
1671.00,0.0029
1670.00,0.0030
1669.00,0.0030
1668.00,0.0031
1667.00,0.0031
1666.00,0.0032
1665.00,0.0032
1664.00,0.0032
1663.00,0.0033
1662.00,0.0033
1661.00,0.0034
1660.00,0.0034
1659.00,0.0035
1658.00,0.0035
1657.00,0.0035
1656.00,0.0035
1655.00,0.0035
1654.00,0.0036
1653.00,0.0037
1652.00,0.0037
1651.00,0.0038
1650.00,0.0038
1649.00,0.0039
1648.00,0.0041
1647.00,0.0042
1646.00,0.0042
1645.00,0.0042
1644.00,0.0042
1643.00,0.0042
1642.00,0.0043
1641.00,0.0043
1640.00,0.0044
1639.00,0.0044
1638.00,0.0045
1637.00,0.0045
1636.00,0.0044
1635.00,0.0043
1634.00,0.0042
1633.00,0.0042
1632.00,0.0043
1631.00,0.0043
1630.00,0.0043
1629.00,0.0042
1628.00,0.0042
1627.00,0.0041
1626.00,0.0040
1625.00,0.0040
1624.00,0.0039
1623.00,0.0039
1622.00,0.0038
1621.00,0.0039
1620.00,0.0039
1619.00,0.0038
1618.00,0.0038
1617.00,0.0038
1616.00,0.0038
1615.00,0.0038
1614.00,0.0038
1613.00,0.0038
1612.00,0.0037
1611.00,0.0037
1610.00,0.0037
1609.00,0.0036
1608.00,0.0036
1607.00,0.0036
1606.00,0.0036
1605.00,0.0036
1604.00,0.0036
1603.00,0.0036
1602.00,0.0035
1601.00,0.0035
1600.00,0.0035
1599.00,0.0035
1598.00,0.0036
1597.00,0.0036
1596.00,0.0036
1595.00,0.0036
1594.00,0.0036
1593.00,0.0035
1592.00,0.0035
1591.00,0.0035
1590.00,0.0035
1589.00,0.0035
1588.00,0.0035
1587.00,0.0036
1586.00,0.0036
1585.00,0.0037
1584.00,0.0038
1583.00,0.0039
1582.00,0.0039
1581.00,0.0040
1580.00,0.0041
1579.00,0.0042
1578.00,0.0042
1577.00,0.0042
1576.00,0.0042
1575.00,0.0042
1574.00,0.0042
1573.00,0.0042
1572.00,0.0043
1571.00,0.0043
1570.00,0.0042
1569.00,0.0042
1568.00,0.0042
1567.00,0.0042
1566.00,0.0041
1565.00,0.0042
1564.00,0.0042
1563.00,0.0042
1562.00,0.0042
1561.00,0.0042
1560.00,0.0043
1559.00,0.0043
1558.00,0.0043
1557.00,0.0043
1556.00,0.0044
1555.00,0.0044
1554.00,0.0044
1553.00,0.0045
1552.00,0.0045
1551.00,0.0045
1550.00,0.0045
1549.00,0.0046
1548.00,0.0047
1547.00,0.0047
1546.00,0.0047
1545.00,0.0047
1544.00,0.0047
1543.00,0.0047
1542.00,0.0047
1541.00,0.0047
1540.00,0.0048
1539.00,0.0048
1538.00,0.0047
1537.00,0.0047
1536.00,0.0047
1535.00,0.0046
1534.00,0.0044
1533.00,0.0043
1532.00,0.0043
1531.00,0.0043
1530.00,0.0043
1529.00,0.0043
1528.00,0.0043
1527.00,0.0043
1526.00,0.0042
1525.00,0.0042
1524.00,0.0043
1523.00,0.0043
1522.00,0.0043
1521.00,0.0044
1520.00,0.0045
1519.00,0.0045
1518.00,0.0045
1517.00,0.0046
1516.00,0.0047
1515.00,0.0047
1514.00,0.0048
1513.00,0.0048
1512.00,0.0050
1511.00,0.0051
1510.00,0.0051
1509.00,0.0053
1508.00,0.0055
1507.00,0.0055
1506.00,0.0055
1505.00,0.0056
1504.00,0.0058
1503.00,0.0060
1502.00,0.0062
1501.00,0.0064
1500.00,0.0066
1499.00,0.0068
1498.00,0.0070
1497.00,0.0073
1496.00,0.0077
1495.00,0.0079
1494.00,0.0082
1493.00,0.0086
1492.00,0.0090
1491.00,0.0094
1490.00,0.0099
1489.00,0.0104
1488.00,0.0109
1487.00,0.0113
1486.00,0.0118
1485.00,0.0124
1484.00,0.0130
1483.00,0.0138
1482.00,0.0146
1481.00,0.0158
1480.00,0.0170
1479.00,0.0182
1478.00,0.0197
1477.00,0.0219
1476.00,0.0245
1475.00,0.0276
1474.00,0.0318
1473.00,0.0378
1472.00,0.0447
1471.00,0.0513
1470.00,0.0576
1469.00,0.0644
1468.00,0.0717
1467.00,0.0798
1466.00,0.0891
1465.00,0.0991
1464.00,0.1078
1463.00,0.1137
1462.00,0.1173
1461.00,0.1196
1460.00,0.1210
1459.00,0.1218
1458.00,0.1221
1457.00,0.1221
1456.00,0.1214
1455.00,0.1203
1454.00,0.1188
1453.00,0.1167
1452.00,0.1137
1451.00,0.1095
1450.00,0.1039
1449.00,0.0965
1448.00,0.0871
1447.00,0.0774
1446.00,0.0687
1445.00,0.0615
1444.00,0.0553
1443.00,0.0503
1442.00,0.0466
1441.00,0.0441
1440.00,0.0426
1439.00,0.0422
1438.00,0.0426
1437.00,0.0431
1436.00,0.0423
1435.00,0.0399
1434.00,0.0363
1433.00,0.0320
1432.00,0.0274
1431.00,0.0233
1430.00,0.0200
1429.00,0.0177
1428.00,0.0160
1427.00,0.0150
1426.00,0.0143
1425.00,0.0137
1424.00,0.0131
1423.00,0.0128
1422.00,0.0126
1421.00,0.0124
1420.00,0.0121
1419.00,0.0118
1418.00,0.0117
1417.00,0.0114
1416.00,0.0112
1415.00,0.0111
1414.00,0.0111
1413.00,0.0110
1412.00,0.0109
1411.00,0.0109
1410.00,0.0110
1409.00,0.0110
1408.00,0.0110
1407.00,0.0111
1406.00,0.0112
1405.00,0.0113
1404.00,0.0114
1403.00,0.0115
1402.00,0.0118
1401.00,0.0120
1400.00,0.0123
1399.00,0.0126
1398.00,0.0131
1397.00,0.0134
1396.00,0.0137
1395.00,0.0141
1394.00,0.0147
1393.00,0.0153
1392.00,0.0159
1391.00,0.0167
1390.00,0.0177
1389.00,0.0192
1388.00,0.0213
1387.00,0.0245
1386.00,0.0288
1385.00,0.0345
1384.00,0.0425
1383.00,0.0539
1382.00,0.0696
1381.00,0.0902
1380.00,0.1161
1379.00,0.1455
1378.00,0.1737
1377.00,0.1939
1376.00,0.2000
1375.00,0.1888
1374.00,0.1637
1373.00,0.1341
1372.00,0.1077
1371.00,0.0861
1370.00,0.0691
1369.00,0.0562
1368.00,0.0473
1367.00,0.0419
1366.00,0.0389
1365.00,0.0377
1364.00,0.0379
1363.00,0.0393
1362.00,0.0414
1361.00,0.0438
1360.00,0.0456
1359.00,0.0461
1358.00,0.0450
1357.00,0.0424
1356.00,0.0386
1355.00,0.0344
1354.00,0.0304
1353.00,0.0269
1352.00,0.0241
1351.00,0.0218
1350.00,0.0199
1349.00,0.0183
1348.00,0.0171
1347.00,0.0160
1346.00,0.0151
1345.00,0.0144
1344.00,0.0138
1343.00,0.0133
1342.00,0.0128
1341.00,0.0125
1340.00,0.0122
1339.00,0.0120
1338.00,0.0118
1337.00,0.0118
1336.00,0.0119
1335.00,0.0121
1334.00,0.0124
1333.00,0.0129
1332.00,0.0134
1331.00,0.0138
1330.00,0.0139
1329.00,0.0138
1328.00,0.0134
1327.00,0.0128
1326.00,0.0121
1325.00,0.0114
1324.00,0.0108
1323.00,0.0102
1322.00,0.0098
1321.00,0.0094
1320.00,0.0092
1319.00,0.0091
1318.00,0.0090
1317.00,0.0088
1316.00,0.0087
1315.00,0.0087
1314.00,0.0086
1313.00,0.0087
1312.00,0.0087
1311.00,0.0089
1310.00,0.0092
1309.00,0.0098
1308.00,0.0106
1307.00,0.0115
1306.00,0.0124
1305.00,0.0131
1304.00,0.0133
1303.00,0.0131
1302.00,0.0127
1301.00,0.0125
1300.00,0.0124
1299.00,0.0126
1298.00,0.0128
1297.00,0.0129
1296.00,0.0129
1295.00,0.0127
1294.00,0.0123
1293.00,0.0117
1292.00,0.0111
1291.00,0.0106
1290.00,0.0101
1289.00,0.0097
1288.00,0.0094
1287.00,0.0091
1286.00,0.0089
1285.00,0.0087
1284.00,0.0085
1283.00,0.0084
1282.00,0.0083
1281.00,0.0083
1280.00,0.0082
1279.00,0.0082
1278.00,0.0082
1277.00,0.0081
1276.00,0.0081
1275.00,0.0081
1274.00,0.0082
1273.00,0.0083
1272.00,0.0084
1271.00,0.0086
1270.00,0.0088
1269.00,0.0091
1268.00,0.0093
1267.00,0.0096
1266.00,0.0100
1265.00,0.0103
1264.00,0.0107
1263.00,0.0110
1262.00,0.0114
1261.00,0.0117
1260.00,0.0121
1259.00,0.0126
1258.00,0.0132
1257.00,0.0137
1256.00,0.0138
1255.00,0.0136
1254.00,0.0131
1253.00,0.0123
1252.00,0.0116
1251.00,0.0110
1250.00,0.0105
1249.00,0.0101
1248.00,0.0097
1247.00,0.0095
1246.00,0.0092
1245.00,0.0091
1244.00,0.0089
1243.00,0.0088
1242.00,0.0087
1241.00,0.0086
1240.00,0.0085
1239.00,0.0085
1238.00,0.0084
1237.00,0.0083
1236.00,0.0083
1235.00,0.0083
1234.00,0.0083
1233.00,0.0083
1232.00,0.0083
1231.00,0.0083
1230.00,0.0083
1229.00,0.0082
1228.00,0.0083
1227.00,0.0084
1226.00,0.0085
1225.00,0.0088
1224.00,0.0091
1223.00,0.0095
1222.00,0.0099
1221.00,0.0102
1220.00,0.0103
1219.00,0.0103
1218.00,0.0102
1217.00,0.0100
1216.00,0.0097
1215.00,0.0093
1214.00,0.0090
1213.00,0.0088
1212.00,0.0085
1211.00,0.0082
1210.00,0.0080
1209.00,0.0078
1208.00,0.0077
1207.00,0.0076
1206.00,0.0075
1205.00,0.0074
1204.00,0.0073
1203.00,0.0072
1202.00,0.0072
1201.00,0.0072
1200.00,0.0071
1199.00,0.0071
1198.00,0.0072
1197.00,0.0072
1196.00,0.0074
1195.00,0.0075
1194.00,0.0076
1193.00,0.0076
1192.00,0.0076
1191.00,0.0075
1190.00,0.0075
1189.00,0.0076
1188.00,0.0076
1187.00,0.0077
1186.00,0.0079
1185.00,0.0081
1184.00,0.0083
1183.00,0.0085
1182.00,0.0087
1181.00,0.0090
1180.00,0.0093
1179.00,0.0097
1178.00,0.0104
1177.00,0.0112
1176.00,0.0122
1175.00,0.0135
1174.00,0.0152
1173.00,0.0173
1172.00,0.0198
1171.00,0.0226
1170.00,0.0253
1169.00,0.0275
1168.00,0.0288
1167.00,0.0290
1166.00,0.0285
1165.00,0.0274
1164.00,0.0260
1163.00,0.0247
1162.00,0.0236
1161.00,0.0227
1160.00,0.0221
1159.00,0.0217
1158.00,0.0214
1157.00,0.0212
1156.00,0.0211
1155.00,0.0210
1154.00,0.0209
1153.00,0.0206
1152.00,0.0202
1151.00,0.0196
1150.00,0.0188
1149.00,0.0179
1148.00,0.0169
1147.00,0.0159
1146.00,0.0151
1145.00,0.0142
1144.00,0.0135
1143.00,0.0128
1142.00,0.0122
1141.00,0.0116
1140.00,0.0111
1139.00,0.0106
1138.00,0.0102
1137.00,0.0099
1136.00,0.0096
1135.00,0.0094
1134.00,0.0092
1133.00,0.0090
1132.00,0.0089
1131.00,0.0089
1130.00,0.0089
1129.00,0.0089
1128.00,0.0089
1127.00,0.0089
1126.00,0.0089
1125.00,0.0088
1124.00,0.0088
1123.00,0.0089
1122.00,0.0089
1121.00,0.0090
1120.00,0.0090
1119.00,0.0090
1118.00,0.0090
1117.00,0.0090
1116.00,0.0090
1115.00,0.0091
1114.00,0.0093
1113.00,0.0095
1112.00,0.0097
1111.00,0.0101
1110.00,0.0104
1109.00,0.0108
1108.00,0.0113
1107.00,0.0119
1106.00,0.0127
1105.00,0.0134
1104.00,0.0140
1103.00,0.0144
1102.00,0.0144
1101.00,0.0141
1100.00,0.0135
1099.00,0.0127
1098.00,0.0120
1097.00,0.0115
1096.00,0.0112
1095.00,0.0109
1094.00,0.0106
1093.00,0.0104
1092.00,0.0103
1091.00,0.0101
1090.00,0.0100
1089.00,0.0099
1088.00,0.0099
1087.00,0.0099
1086.00,0.0099
1085.00,0.0099
1084.00,0.0100
1083.00,0.0099
1082.00,0.0098
1081.00,0.0097
1080.00,0.0096
1079.00,0.0096
1078.00,0.0095
1077.00,0.0095
1076.00,0.0095
1075.00,0.0095
1074.00,0.0096
1073.00,0.0096
1072.00,0.0095
1071.00,0.0094
1070.00,0.0093
1069.00,0.0092
1068.00,0.0091
1067.00,0.0090
1066.00,0.0090
1065.00,0.0090
1064.00,0.0090
1063.00,0.0091
1062.00,0.0091
1061.00,0.0092
1060.00,0.0092
1059.00,0.0093
1058.00,0.0093
1057.00,0.0094
1056.00,0.0095
1055.00,0.0097
1054.00,0.0100
1053.00,0.0103
1052.00,0.0105
1051.00,0.0108
1050.00,0.0111
1049.00,0.0114
1048.00,0.0118
1047.00,0.0122
1046.00,0.0126
1045.00,0.0128
1044.00,0.0129
1043.00,0.0129
1042.00,0.0128
1041.00,0.0126
1040.00,0.0124
1039.00,0.0122
1038.00,0.0120
1037.00,0.0119
1036.00,0.0118
1035.00,0.0118
1034.00,0.0117
1033.00,0.0116
1032.00,0.0116
1031.00,0.0115
1030.00,0.0115
1029.00,0.0115
1028.00,0.0115
1027.00,0.0116
1026.00,0.0118
1025.00,0.0120
1024.00,0.0123
1023.00,0.0126
1022.00,0.0129
1021.00,0.0131
1020.00,0.0133
1019.00,0.0133
1018.00,0.0133
1017.00,0.0133
1016.00,0.0133
1015.00,0.0133
1014.00,0.0133
1013.00,0.0133
1012.00,0.0132
1011.00,0.0131
1010.00,0.0131
1009.00,0.0131
1008.00,0.0133
1007.00,0.0137
1006.00,0.0143
1005.00,0.0152
1004.00,0.0165
1003.00,0.0183
1002.00,0.0208
1001.00,0.0239
1000.00,0.0271
999.00,0.0297
998.00,0.0309
997.00,0.0302
996.00,0.0278
995.00,0.0246
994.00,0.0212
993.00,0.0182
992.00,0.0159
991.00,0.0143
990.00,0.0131
989.00,0.0124
988.00,0.0119
987.00,0.0117
986.00,0.0117
985.00,0.0118
984.00,0.0121
983.00,0.0127
982.00,0.0137
981.00,0.0151
980.00,0.0172
979.00,0.0198
978.00,0.0231
977.00,0.0270
976.00,0.0310
975.00,0.0348
974.00,0.0375
973.00,0.0383
972.00,0.0369
971.00,0.0336
970.00,0.0293
969.00,0.0251
968.00,0.0214
967.00,0.0186
966.00,0.0165
965.00,0.0150
964.00,0.0140
963.00,0.0132
962.00,0.0125
961.00,0.0119
960.00,0.0115
959.00,0.0112
958.00,0.0111
957.00,0.0110
956.00,0.0108
955.00,0.0107
954.00,0.0106
953.00,0.0105
952.00,0.0104
951.00,0.0103
950.00,0.0101
949.00,0.0100
948.00,0.0100
947.00,0.0100
946.00,0.0101
945.00,0.0102
944.00,0.0105
943.00,0.0110
942.00,0.0115
941.00,0.0117
940.00,0.0117
939.00,0.0114
938.00,0.0108
937.00,0.0101
936.00,0.0094
935.00,0.0089
934.00,0.0084
933.00,0.0080
932.00,0.0077
931.00,0.0074
930.00,0.0072
929.00,0.0071
928.00,0.0069
927.00,0.0067
926.00,0.0065
925.00,0.0064
924.00,0.0064
923.00,0.0065
922.00,0.0065
921.00,0.0065
920.00,0.0063
919.00,0.0062
918.00,0.0061
917.00,0.0062
916.00,0.0063
915.00,0.0065
914.00,0.0066
913.00,0.0068
912.00,0.0069
911.00,0.0071
910.00,0.0073
909.00,0.0075
908.00,0.0079
907.00,0.0085
906.00,0.0094
905.00,0.0106
904.00,0.0121
903.00,0.0139
902.00,0.0159
901.00,0.0176
900.00,0.0187
899.00,0.0189
898.00,0.0181
897.00,0.0164
896.00,0.0143
895.00,0.0123
894.00,0.0107
893.00,0.0095
892.00,0.0089
891.00,0.0085
890.00,0.0083
889.00,0.0082
888.00,0.0079
887.00,0.0076
886.00,0.0073
885.00,0.0072
884.00,0.0071
883.00,0.0071
882.00,0.0072
881.00,0.0072
880.00,0.0072
879.00,0.0072
878.00,0.0073
877.00,0.0073
876.00,0.0074
875.00,0.0073
874.00,0.0073
873.00,0.0073
872.00,0.0072
871.00,0.0073
870.00,0.0075
869.00,0.0076
868.00,0.0076
867.00,0.0076
866.00,0.0077
865.00,0.0078
864.00,0.0078
863.00,0.0079
862.00,0.0079
861.00,0.0079
860.00,0.0080
859.00,0.0081
858.00,0.0082
857.00,0.0084
856.00,0.0085
855.00,0.0086
854.00,0.0088
853.00,0.0090
852.00,0.0092
851.00,0.0096
850.00,0.0100
849.00,0.0105
848.00,0.0112
847.00,0.0123
846.00,0.0140
845.00,0.0166
844.00,0.0203
843.00,0.0246
842.00,0.0281
841.00,0.0292
840.00,0.0274
839.00,0.0236
838.00,0.0193
837.00,0.0159
836.00,0.0136
835.00,0.0123
834.00,0.0115
833.00,0.0111
832.00,0.0107
831.00,0.0105
830.00,0.0102
829.00,0.0100
828.00,0.0099
827.00,0.0098
826.00,0.0098
825.00,0.0100
824.00,0.0102
823.00,0.0103
822.00,0.0104
821.00,0.0106
820.00,0.0108
819.00,0.0112
818.00,0.0117
817.00,0.0123
816.00,0.0131
815.00,0.0143
814.00,0.0160
813.00,0.0181
812.00,0.0205
811.00,0.0226
810.00,0.0241
809.00,0.0247
808.00,0.0241
807.00,0.0225
806.00,0.0204
805.00,0.0183
804.00,0.0166
803.00,0.0152
802.00,0.0142
801.00,0.0134
800.00,0.0127
799.00,0.0121
798.00,0.0115
797.00,0.0109
796.00,0.0104
795.00,0.0099
794.00,0.0095
793.00,0.0093
792.00,0.0091
791.00,0.0089
790.00,0.0087
789.00,0.0085
788.00,0.0082
787.00,0.0079
786.00,0.0077
785.00,0.0075
784.00,0.0073
783.00,0.0071
782.00,0.0069
781.00,0.0067
780.00,0.0066
779.00,0.0066
778.00,0.0066
777.00,0.0066
776.00,0.0066
775.00,0.0065
774.00,0.0063
773.00,0.0063
772.00,0.0064
771.00,0.0065
770.00,0.0066
769.00,0.0067
768.00,0.0067
767.00,0.0066
766.00,0.0065
765.00,0.0064
764.00,0.0063
763.00,0.0062
762.00,0.0061
761.00,0.0060
760.00,0.0060
759.00,0.0061
758.00,0.0063
757.00,0.0064
756.00,0.0066
755.00,0.0068
754.00,0.0069
753.00,0.0070
752.00,0.0071
751.00,0.0073
750.00,0.0075
749.00,0.0078
748.00,0.0080
747.00,0.0081
746.00,0.0082
745.00,0.0083
744.00,0.0085
743.00,0.0087
742.00,0.0091
741.00,0.0094
740.00,0.0098
739.00,0.0102
738.00,0.0107
737.00,0.0110
736.00,0.0113
735.00,0.0116
734.00,0.0120
733.00,0.0126
732.00,0.0134
731.00,0.0141
730.00,0.0146
729.00,0.0148
728.00,0.0148
727.00,0.0150
726.00,0.0152
725.00,0.0156
724.00,0.0161
723.00,0.0167
722.00,0.0173
721.00,0.0177
720.00,0.0176
719.00,0.0167
718.00,0.0153
717.00,0.0138
716.00,0.0127
715.00,0.0120
714.00,0.0116
713.00,0.0113
712.00,0.0108
711.00,0.0104
710.00,0.0101
709.00,0.0100
708.00,0.0100
707.00,0.0099
706.00,0.0098
705.00,0.0097
704.00,0.0096
703.00,0.0095
702.00,0.0094
701.00,0.0092
700.00,0.0092
699.00,0.0092
698.00,0.0092
697.00,0.0093
696.00,0.0094
695.00,0.0095
694.00,0.0095
693.00,0.0094
692.00,0.0091
691.00,0.0089
690.00,0.0088
689.00,0.0089
688.00,0.0090
687.00,0.0090
686.00,0.0089
685.00,0.0088
684.00,0.0087
683.00,0.0088
682.00,0.0089
681.00,0.0090
680.00,0.0092
679.00,0.0092
678.00,0.0092
677.00,0.0093
676.00,0.0094
675.00,0.0096
674.00,0.0098
673.00,0.0099
672.00,0.0101
671.00,0.0103
670.00,0.0105
669.00,0.0104
668.00,0.0100
667.00,0.0095
666.00,0.0091
665.00,0.0089
664.00,0.0089
663.00,0.0090
662.00,0.0091
661.00,0.0090
660.00,0.0088
659.00,0.0084
658.00,0.0083
657.00,0.0083
656.00,0.0085
655.00,0.0086
654.00,0.0087
653.00,0.0086
652.00,0.0085
651.00,0.0083
650.00,0.0083
649.00,0.0085
648.00,0.0086
647.00,0.0086
646.00,0.0084
645.00,0.0082
644.00,0.0081
643.00,0.0082
642.00,0.0083
641.00,0.0085
640.00,0.0086
639.00,0.0085
638.00,0.0082
637.00,0.0079
636.00,0.0078
635.00,0.0077
634.00,0.0079
633.00,0.0081
632.00,0.0082
631.00,0.0081
630.00,0.0080
629.00,0.0079
628.00,0.0080
627.00,0.0082
626.00,0.0083
625.00,0.0083
624.00,0.0083
623.00,0.0082
622.00,0.0083
621.00,0.0083
620.00,0.0081
619.00,0.0078
618.00,0.0074
617.00,0.0073
616.00,0.0075
615.00,0.0078
614.00,0.0080
613.00,0.0082
612.00,0.0082
611.00,0.0081
610.00,0.0080
609.00,0.0079
608.00,0.0079
607.00,0.0080
606.00,0.0080
605.00,0.0081
604.00,0.0082
603.00,0.0083
602.00,0.0084
601.00,0.0082
600.00,0.0079
599.00,0.0076
598.00,0.0076
597.00,0.0077
596.00,0.0079
595.00,0.0081
594.00,0.0082
593.00,0.0081
592.00,0.0080
591.00,0.0077
590.00,0.0076
589.00,0.0076
588.00,0.0077
587.00,0.0079
586.00,0.0081
585.00,0.0081
584.00,0.0081
583.00,0.0080
582.00,0.0080
581.00,0.0079
580.00,0.0078
579.00,0.0076
578.00,0.0076
577.00,0.0079
576.00,0.0083
575.00,0.0085
574.00,0.0084
573.00,0.0082
572.00,0.0081
571.00,0.0082
570.00,0.0082
569.00,0.0082
568.00,0.0081
567.00,0.0079
566.00,0.0078
565.00,0.0076
564.00,0.0076
563.00,0.0077
562.00,0.0078
561.00,0.0081
560.00,0.0084
559.00,0.0085
558.00,0.0084
557.00,0.0083
556.00,0.0083
555.00,0.0083
554.00,0.0082
553.00,0.0080
552.00,0.0078
551.00,0.0078
550.00,0.0080
549.00,0.0083
548.00,0.0086
547.00,0.0088
546.00,0.0088
545.00,0.0089
544.00,0.0092
543.00,0.0096
542.00,0.0099
541.00,0.0099
540.00,0.0098
539.00,0.0099
538.00,0.0101
537.00,0.0105
536.00,0.0108
535.00,0.0111
534.00,0.0113
533.00,0.0114
532.00,0.0113
531.00,0.0112
530.00,0.0110
529.00,0.0109
528.00,0.0108
527.00,0.0106
526.00,0.0105
525.00,0.0104
524.00,0.0105
523.00,0.0106
522.00,0.0105
521.00,0.0099
520.00,0.0090
519.00,0.0083
518.00,0.0081
517.00,0.0082
516.00,0.0082
515.00,0.0082
514.00,0.0084
513.00,0.0089
512.00,0.0094
511.00,0.0095
510.00,0.0091
509.00,0.0085
508.00,0.0081
507.00,0.0083
506.00,0.0087
505.00,0.0093
504.00,0.0097
503.00,0.0098
502.00,0.0098
501.00,0.0096
500.00,0.0093
499.00,0.0089
498.00,0.0084
497.00,0.0081
496.00,0.0081
495.00,0.0081
494.00,0.0080
493.00,0.0080
492.00,0.0085
491.00,0.0095
490.00,0.0102
489.00,0.0103
488.00,0.0098
487.00,0.0095
486.00,0.0097
485.00,0.0100
484.00,0.0102
483.00,0.0102
482.00,0.0100
481.00,0.0098
480.00,0.0097
479.00,0.0096
478.00,0.0096
477.00,0.0094
476.00,0.0093
475.00,0.0092
474.00,0.0095
473.00,0.0103
472.00,0.0117
471.00,0.0136
470.00,0.0155
469.00,0.0168
468.00,0.0173
467.00,0.0172
466.00,0.0170
465.00,0.0171
464.00,0.0174
463.00,0.0178
462.00,0.0179
461.00,0.0181
460.00,0.0186
459.00,0.0193
458.00,0.0198
457.00,0.0196
456.00,0.0188
455.00,0.0182
454.00,0.0176
453.00,0.0170
452.00,0.0162
451.00,0.0157
450.00,0.0156
