Created as New Dataset,Sample 059 By Administrator Date Thursday, September 04 2025
cm-1,A
4000.00,0.0008
3999.00,0.0008
3998.00,0.0008
3997.00,0.0008
3996.00,0.0009
3995.00,0.0009
3994.00,0.0009
3993.00,0.0008
3992.00,0.0008
3991.00,0.0008
3990.00,0.0008
3989.00,0.0008
3988.00,0.0008
3987.00,0.0008
3986.00,0.0007
3985.00,0.0007
3984.00,0.0007
3983.00,0.0007
3982.00,0.0007
3981.00,0.0007
3980.00,0.0007
3979.00,0.0008
3978.00,0.0008
3977.00,0.0007
3976.00,0.0007
3975.00,0.0007
3974.00,0.0007
3973.00,0.0006
3972.00,0.0006
3971.00,0.0006
3970.00,0.0006
3969.00,0.0006
3968.00,0.0006
3967.00,0.0006
3966.00,0.0007
3965.00,0.0007
3964.00,0.0007
3963.00,0.0007
3962.00,0.0007
3961.00,0.0007
3960.00,0.0007
3959.00,0.0006
3958.00,0.0006
3957.00,0.0006
3956.00,0.0006
3955.00,0.0006
3954.00,0.0007
3953.00,0.0007
3952.00,0.0007
3951.00,0.0007
3950.00,0.0007
3949.00,0.0007
3948.00,0.0007
3947.00,0.0006
3946.00,0.0006
3945.00,0.0006
3944.00,0.0006
3943.00,0.0006
3942.00,0.0006
3941.00,0.0006
3940.00,0.0006
3939.00,0.0006
3938.00,0.0006
3937.00,0.0006
3936.00,0.0006
3935.00,0.0006
3934.00,0.0007
3933.00,0.0007
3932.00,0.0007
3931.00,0.0007
3930.00,0.0007
3929.00,0.0006
3928.00,0.0006
3927.00,0.0006
3926.00,0.0007
3925.00,0.0007
3924.00,0.0006
3923.00,0.0006
3922.00,0.0006
3921.00,0.0006
3920.00,0.0006
3919.00,0.0007
3918.00,0.0007
3917.00,0.0007
3916.00,0.0006
3915.00,0.0006
3914.00,0.0006
3913.00,0.0006
3912.00,0.0005
3911.00,0.0006
3910.00,0.0006
3909.00,0.0006
3908.00,0.0006
3907.00,0.0006
3906.00,0.0006
3905.00,0.0006
3904.00,0.0006
3903.00,0.0006
3902.00,0.0006
3901.00,0.0006
3900.00,0.0006
3899.00,0.0006
3898.00,0.0006
3897.00,0.0006
3896.00,0.0006
3895.00,0.0006
3894.00,0.0006
3893.00,0.0006
3892.00,0.0006
3891.00,0.0007
3890.00,0.0007
3889.00,0.0007
3888.00,0.0006
3887.00,0.0006
3886.00,0.0006
3885.00,0.0006
3884.00,0.0006
3883.00,0.0006
3882.00,0.0006
3881.00,0.0006
3880.00,0.0006
3879.00,0.0006
3878.00,0.0007
3877.00,0.0006
3876.00,0.0006
3875.00,0.0006
3874.00,0.0006
3873.00,0.0006
3872.00,0.0006
3871.00,0.0006
3870.00,0.0006
3869.00,0.0006
3868.00,0.0006
3867.00,0.0006
3866.00,0.0006
3865.00,0.0006
3864.00,0.0006
3863.00,0.0006
3862.00,0.0006
3861.00,0.0005
3860.00,0.0005
3859.00,0.0005
3858.00,0.0005
3857.00,0.0005
3856.00,0.0006
3855.00,0.0005
3854.00,0.0005
3853.00,0.0006
3852.00,0.0006
3851.00,0.0006
3850.00,0.0006
3849.00,0.0005
3848.00,0.0005
3847.00,0.0005
3846.00,0.0005
3845.00,0.0004
3844.00,0.0004
3843.00,0.0004
3842.00,0.0005
3841.00,0.0005
3840.00,0.0005
3839.00,0.0006
3838.00,0.0006
3837.00,0.0006
3836.00,0.0006
3835.00,0.0006
3834.00,0.0005
3833.00,0.0005
3832.00,0.0005
3831.00,0.0004
3830.00,0.0004
3829.00,0.0004
3828.00,0.0004
3827.00,0.0004
3826.00,0.0004
3825.00,0.0005
3824.00,0.0006
3823.00,0.0006
3822.00,0.0005
3821.00,0.0005
3820.00,0.0006
3819.00,0.0006
3818.00,0.0007
3817.00,0.0006
3816.00,0.0007
3815.00,0.0007
3814.00,0.0007
3813.00,0.0006
3812.00,0.0006
3811.00,0.0006
3810.00,0.0006
3809.00,0.0006
3808.00,0.0006
3807.00,0.0006
3806.00,0.0007
3805.00,0.0007
3804.00,0.0007
3803.00,0.0006
3802.00,0.0005
3801.00,0.0005
3800.00,0.0006
3799.00,0.0006
3798.00,0.0006
3797.00,0.0007
3796.00,0.0007
3795.00,0.0007
3794.00,0.0007
3793.00,0.0006
3792.00,0.0006
3791.00,0.0006
3790.00,0.0006
3789.00,0.0006
3788.00,0.0006
3787.00,0.0005
3786.00,0.0005
3785.00,0.0005
3784.00,0.0004
3783.00,0.0004
3782.00,0.0004
3781.00,0.0004
3780.00,0.0004
3779.00,0.0005
3778.00,0.0005
3777.00,0.0006
3776.00,0.0005
3775.00,0.0005
3774.00,0.0005
3773.00,0.0005
3772.00,0.0005
3771.00,0.0006
3770.00,0.0006
3769.00,0.0006
3768.00,0.0006
3767.00,0.0006
3766.00,0.0006
3765.00,0.0006
3764.00,0.0006
3763.00,0.0006
3762.00,0.0006
3761.00,0.0005
3760.00,0.0005
3759.00,0.0006
3758.00,0.0006
3757.00,0.0005
3756.00,0.0005
3755.00,0.0005
3754.00,0.0005
3753.00,0.0006
3752.00,0.0006
3751.00,0.0006
3750.00,0.0006
3749.00,0.0006
3748.00,0.0006
3747.00,0.0006
3746.00,0.0006
3745.00,0.0006
3744.00,0.0005
3743.00,0.0005
3742.00,0.0005
3741.00,0.0005
3740.00,0.0005
3739.00,0.0005
3738.00,0.0006
3737.00,0.0006
3736.00,0.0006
3735.00,0.0006
3734.00,0.0005
3733.00,0.0005
3732.00,0.0005
3731.00,0.0005
3730.00,0.0005
3729.00,0.0005
3728.00,0.0005
3727.00,0.0004
3726.00,0.0004
3725.00,0.0005
3724.00,0.0005
3723.00,0.0005
3722.00,0.0005
3721.00,0.0005
3720.00,0.0005
3719.00,0.0004
3718.00,0.0004
3717.00,0.0004
3716.00,0.0004
3715.00,0.0004
3714.00,0.0004
3713.00,0.0004
3712.00,0.0004
3711.00,0.0005
3710.00,0.0005
3709.00,0.0005
3708.00,0.0005
3707.00,0.0004
3706.00,0.0004
3705.00,0.0004
3704.00,0.0004
3703.00,0.0005
3702.00,0.0005
3701.00,0.0005
3700.00,0.0005
3699.00,0.0005
3698.00,0.0005
3697.00,0.0004
3696.00,0.0004
3695.00,0.0004
3694.00,0.0003
3693.00,0.0003
3692.00,0.0003
3691.00,0.0004
3690.00,0.0005
3689.00,0.0005
3688.00,0.0005
3687.00,0.0005
3686.00,0.0005
3685.00,0.0004
3684.00,0.0004
3683.00,0.0004
3682.00,0.0003
3681.00,0.0004
3680.00,0.0004
3679.00,0.0005
3678.00,0.0005
3677.00,0.0005
3676.00,0.0005
3675.00,0.0005
3674.00,0.0005
3673.00,0.0004
3672.00,0.0004
3671.00,0.0003
3670.00,0.0003
3669.00,0.0004
3668.00,0.0005
3667.00,0.0004
3666.00,0.0004
3665.00,0.0004
3664.00,0.0004
3663.00,0.0004
3662.00,0.0004
3661.00,0.0004
3660.00,0.0005
3659.00,0.0005
3658.00,0.0004
3657.00,0.0004
3656.00,0.0004
3655.00,0.0004
3654.00,0.0005
3653.00,0.0004
3652.00,0.0004
3651.00,0.0003
3650.00,0.0002
3649.00,0.0003
3648.00,0.0004
3647.00,0.0005
3646.00,0.0005
3645.00,0.0005
3644.00,0.0005
3643.00,0.0005
3642.00,0.0005
3641.00,0.0005
3640.00,0.0005
3639.00,0.0006
3638.00,0.0006
3637.00,0.0006
3636.00,0.0006
3635.00,0.0006
3634.00,0.0006
3633.00,0.0007
3632.00,0.0007
3631.00,0.0007
3630.00,0.0007
3629.00,0.0007
3628.00,0.0007
3627.00,0.0007
3626.00,0.0007
3625.00,0.0007
3624.00,0.0007
3623.00,0.0007
3622.00,0.0007
3621.00,0.0007
3620.00,0.0008
3619.00,0.0008
3618.00,0.0009
3617.00,0.0010
3616.00,0.0010
3615.00,0.0010
3614.00,0.0009
3613.00,0.0010
3612.00,0.0010
3611.00,0.0010
3610.00,0.0010
3609.00,0.0010
3608.00,0.0010
3607.00,0.0010
3606.00,0.0010
3605.00,0.0010
3604.00,0.0010
3603.00,0.0011
3602.00,0.0011
3601.00,0.0012
3600.00,0.0012
3599.00,0.0012
3598.00,0.0012
3597.00,0.0011
3596.00,0.0011
3595.00,0.0011
3594.00,0.0011
3593.00,0.0012
3592.00,0.0012
3591.00,0.0012
3590.00,0.0012
3589.00,0.0012
3588.00,0.0013
3587.00,0.0014
3586.00,0.0014
3585.00,0.0014
3584.00,0.0014
3583.00,0.0014
3582.00,0.0014
3581.00,0.0015
3580.00,0.0015
3579.00,0.0015
3578.00,0.0015
3577.00,0.0016
3576.00,0.0016
3575.00,0.0016
3574.00,0.0016
3573.00,0.0017
3572.00,0.0017
3571.00,0.0017
3570.00,0.0017
3569.00,0.0017
3568.00,0.0017
3567.00,0.0017
3566.00,0.0018
3565.00,0.0018
3564.00,0.0018
3563.00,0.0019
3562.00,0.0019
3561.00,0.0020
3560.00,0.0021
3559.00,0.0021
3558.00,0.0021
3557.00,0.0021
3556.00,0.0021
3555.00,0.0021
3554.00,0.0022
3553.00,0.0022
3552.00,0.0022
3551.00,0.0023
3550.00,0.0023
3549.00,0.0023
3548.00,0.0024
3547.00,0.0024
3546.00,0.0024
3545.00,0.0024
3544.00,0.0025
3543.00,0.0025
3542.00,0.0025
3541.00,0.0026
3540.00,0.0026
3539.00,0.0026
3538.00,0.0027
3537.00,0.0027
3536.00,0.0027
3535.00,0.0027
3534.00,0.0027
3533.00,0.0027
3532.00,0.0028
3531.00,0.0028
3530.00,0.0028
3529.00,0.0028
3528.00,0.0029
3527.00,0.0029
3526.00,0.0029
3525.00,0.0030
3524.00,0.0030
3523.00,0.0031
3522.00,0.0031
3521.00,0.0032
3520.00,0.0032
3519.00,0.0033
3518.00,0.0033
3517.00,0.0033
3516.00,0.0034
3515.00,0.0034
3514.00,0.0034
3513.00,0.0035
3512.00,0.0035
3511.00,0.0035
3510.00,0.0035
3509.00,0.0035
3508.00,0.0036
3507.00,0.0036
3506.00,0.0036
3505.00,0.0036
3504.00,0.0036
3503.00,0.0037
3502.00,0.0037
3501.00,0.0038
3500.00,0.0039
3499.00,0.0039
3498.00,0.0039
3497.00,0.0039
3496.00,0.0039
3495.00,0.0039
3494.00,0.0040
3493.00,0.0040
3492.00,0.0040
3491.00,0.0041
3490.00,0.0041
3489.00,0.0041
3488.00,0.0042
3487.00,0.0042
3486.00,0.0042
3485.00,0.0043
3484.00,0.0043
3483.00,0.0043
3482.00,0.0043
3481.00,0.0044
3480.00,0.0044
3479.00,0.0045
3478.00,0.0045
3477.00,0.0045
3476.00,0.0046
3475.00,0.0046
3474.00,0.0046
3473.00,0.0047
3472.00,0.0047
3471.00,0.0047
3470.00,0.0047
3469.00,0.0047
3468.00,0.0047
3467.00,0.0047
3466.00,0.0048
3465.00,0.0048
3464.00,0.0048
3463.00,0.0049
3462.00,0.0049
3461.00,0.0049
3460.00,0.0050
3459.00,0.0050
3458.00,0.0050
3457.00,0.0051
3456.00,0.0051
3455.00,0.0052
3454.00,0.0052
3453.00,0.0052
3452.00,0.0053
3451.00,0.0053
3450.00,0.0053
3449.00,0.0053
3448.00,0.0053
3447.00,0.0054
3446.00,0.0054
3445.00,0.0054
3444.00,0.0053
3443.00,0.0053
3442.00,0.0053
3441.00,0.0054
3440.00,0.0054
3439.00,0.0054
3438.00,0.0055
3437.00,0.0055
3436.00,0.0055
3435.00,0.0056
3434.00,0.0056
3433.00,0.0056
3432.00,0.0056
3431.00,0.0056
3430.00,0.0056
3429.00,0.0057
3428.00,0.0057
3427.00,0.0057
3426.00,0.0058
3425.00,0.0058
3424.00,0.0058
3423.00,0.0058
3422.00,0.0058
3421.00,0.0059
3420.00,0.0059
3419.00,0.0060
3418.00,0.0060
3417.00,0.0060
3416.00,0.0061
3415.00,0.0061
3414.00,0.0061
3413.00,0.0061
3412.00,0.0061
3411.00,0.0061
3410.00,0.0061
3409.00,0.0061
3408.00,0.0061
3407.00,0.0062
3406.00,0.0062
3405.00,0.0062
3404.00,0.0063
3403.00,0.0063
3402.00,0.0064
3401.00,0.0064
3400.00,0.0065
3399.00,0.0065
3398.00,0.0066
3397.00,0.0066
3396.00,0.0066
3395.00,0.0066
3394.00,0.0066
3393.00,0.0066
3392.00,0.0066
3391.00,0.0066
3390.00,0.0066
3389.00,0.0066
3388.00,0.0066
3387.00,0.0066
3386.00,0.0065
3385.00,0.0065
3384.00,0.0065
3383.00,0.0065
3382.00,0.0065
3381.00,0.0065
3380.00,0.0065
3379.00,0.0065
3378.00,0.0065
3377.00,0.0065
3376.00,0.0065
3375.00,0.0064
3374.00,0.0064
3373.00,0.0063
3372.00,0.0063
3371.00,0.0064
3370.00,0.0064
3369.00,0.0064
3368.00,0.0065
3367.00,0.0065
3366.00,0.0065
3365.00,0.0065
3364.00,0.0066
3363.00,0.0065
3362.00,0.0065
3361.00,0.0065
3360.00,0.0064
3359.00,0.0064
3358.00,0.0064
3357.00,0.0064
3356.00,0.0065
3355.00,0.0065
3354.00,0.0065
3353.00,0.0065
3352.00,0.0065
3351.00,0.0065
3350.00,0.0064
3349.00,0.0064
3348.00,0.0063
3347.00,0.0063
3346.00,0.0063
3345.00,0.0063
3344.00,0.0063
3343.00,0.0063
3342.00,0.0064
3341.00,0.0064
3340.00,0.0064
3339.00,0.0063
3338.00,0.0063
3337.00,0.0063
3336.00,0.0064
3335.00,0.0064
3334.00,0.0063
3333.00,0.0063
3332.00,0.0063
3331.00,0.0063
3330.00,0.0063
3329.00,0.0063
3328.00,0.0063
3327.00,0.0063
3326.00,0.0062
3325.00,0.0062
3324.00,0.0061
3323.00,0.0061
3322.00,0.0061
3321.00,0.0061
3320.00,0.0061
3319.00,0.0061
3318.00,0.0061
3317.00,0.0062
3316.00,0.0061
3315.00,0.0061
3314.00,0.0061
3313.00,0.0062
3312.00,0.0062
3311.00,0.0062
3310.00,0.0062
3309.00,0.0062
3308.00,0.0062
3307.00,0.0062
3306.00,0.0062
3305.00,0.0062
3304.00,0.0062
3303.00,0.0062
3302.00,0.0062
3301.00,0.0062
3300.00,0.0062
3299.00,0.0062
3298.00,0.0062
3297.00,0.0061
3296.00,0.0061
3295.00,0.0060
3294.00,0.0060
3293.00,0.0059
3292.00,0.0059
3291.00,0.0059
3290.00,0.0059
3289.00,0.0059
3288.00,0.0059
3287.00,0.0058
3286.00,0.0057
3285.00,0.0057
3284.00,0.0056
3283.00,0.0056
3282.00,0.0056
3281.00,0.0056
3280.00,0.0056
3279.00,0.0056
3278.00,0.0056
3277.00,0.0056
3276.00,0.0055
3275.00,0.0055
3274.00,0.0055
3273.00,0.0055
3272.00,0.0055
3271.00,0.0055
3270.00,0.0055
3269.00,0.0055
3268.00,0.0055
3267.00,0.0054
3266.00,0.0054
3265.00,0.0054
3264.00,0.0053
3263.00,0.0053
3262.00,0.0053
3261.00,0.0053
3260.00,0.0053
3259.00,0.0052
3258.00,0.0052
3257.00,0.0052
3256.00,0.0051
3255.00,0.0051
3254.00,0.0050
3253.00,0.0050
3252.00,0.0050
3251.00,0.0050
3250.00,0.0050
3249.00,0.0050
3248.00,0.0050
3247.00,0.0050
3246.00,0.0049
3245.00,0.0049
3244.00,0.0049
3243.00,0.0049
3242.00,0.0048
3241.00,0.0048
3240.00,0.0048
3239.00,0.0049
3238.00,0.0049
3237.00,0.0049
3236.00,0.0049
3235.00,0.0049
3234.00,0.0049
3233.00,0.0049
3232.00,0.0049
3231.00,0.0049
3230.00,0.0049
3229.00,0.0050
3228.00,0.0050
3227.00,0.0050
3226.00,0.0051
3225.00,0.0051
3224.00,0.0051
3223.00,0.0051
3222.00,0.0051
3221.00,0.0051
3220.00,0.0051
3219.00,0.0051
3218.00,0.0051
3217.00,0.0051
3216.00,0.0051
3215.00,0.0051
3214.00,0.0052
3213.00,0.0052
3212.00,0.0053
3211.00,0.0053
3210.00,0.0053
3209.00,0.0053
3208.00,0.0053
3207.00,0.0053
3206.00,0.0053
3205.00,0.0053
3204.00,0.0053
3203.00,0.0054
3202.00,0.0054
3201.00,0.0054
3200.00,0.0054
3199.00,0.0054
3198.00,0.0054
3197.00,0.0053
3196.00,0.0053
3195.00,0.0053
3194.00,0.0053
3193.00,0.0053
3192.00,0.0053
3191.00,0.0053
3190.00,0.0053
3189.00,0.0054
3188.00,0.0053
3187.00,0.0053
3186.00,0.0053
3185.00,0.0053
3184.00,0.0053
3183.00,0.0053
3182.00,0.0052
3181.00,0.0051
3180.00,0.0051
3179.00,0.0050
3178.00,0.0050
3177.00,0.0050
3176.00,0.0049
3175.00,0.0049
3174.00,0.0049
3173.00,0.0049
3172.00,0.0049
3171.00,0.0049
3170.00,0.0048
3169.00,0.0048
3168.00,0.0048
3167.00,0.0047
3166.00,0.0047
3165.00,0.0047
3164.00,0.0047
3163.00,0.0047
3162.00,0.0047
3161.00,0.0047
3160.00,0.0047
3159.00,0.0047
3158.00,0.0047
3157.00,0.0046
3156.00,0.0046
3155.00,0.0045
3154.00,0.0045
3153.00,0.0045
3152.00,0.0045
3151.00,0.0045
3150.00,0.0045
3149.00,0.0045
3148.00,0.0045
3147.00,0.0045
3146.00,0.0045
3145.00,0.0045
3144.00,0.0045
3143.00,0.0044
3142.00,0.0044
3141.00,0.0043
3140.00,0.0043
3139.00,0.0043
3138.00,0.0043
3137.00,0.0043
3136.00,0.0043
3135.00,0.0043
3134.00,0.0043
3133.00,0.0042
3132.00,0.0041
3131.00,0.0041
3130.00,0.0041
3129.00,0.0041
3128.00,0.0041
3127.00,0.0040
3126.00,0.0040
3125.00,0.0039
3124.00,0.0039
3123.00,0.0038
3122.00,0.0038
3121.00,0.0038
3120.00,0.0038
3119.00,0.0038
3118.00,0.0038
3117.00,0.0038
3116.00,0.0037
3115.00,0.0037
3114.00,0.0037
3113.00,0.0036
3112.00,0.0036
3111.00,0.0036
3110.00,0.0035
3109.00,0.0035
3108.00,0.0035
3107.00,0.0035
3106.00,0.0035
3105.00,0.0035
3104.00,0.0036
3103.00,0.0036
3102.00,0.0036
3101.00,0.0036
3100.00,0.0035
3099.00,0.0035
3098.00,0.0035
3097.00,0.0035
3096.00,0.0034
3095.00,0.0034
3094.00,0.0034
3093.00,0.0034
3092.00,0.0034
3091.00,0.0034
3090.00,0.0034
3089.00,0.0034
3088.00,0.0034
3087.00,0.0034
3086.00,0.0034
3085.00,0.0034
3084.00,0.0033
3083.00,0.0033
3082.00,0.0033
3081.00,0.0032
3080.00,0.0032
3079.00,0.0033
3078.00,0.0033
3077.00,0.0033
3076.00,0.0034
3075.00,0.0034
3074.00,0.0034
3073.00,0.0034
3072.00,0.0034
3071.00,0.0035
3070.00,0.0035
3069.00,0.0035
3068.00,0.0036
3067.00,0.0036
3066.00,0.0036
3065.00,0.0036
3064.00,0.0036
3063.00,0.0036
3062.00,0.0036
3061.00,0.0036
3060.00,0.0036
3059.00,0.0035
3058.00,0.0035
3057.00,0.0036
3056.00,0.0037
3055.00,0.0037
3054.00,0.0038
3053.00,0.0037
3052.00,0.0037
3051.00,0.0037
3050.00,0.0037
3049.00,0.0037
3048.00,0.0038
3047.00,0.0038
3046.00,0.0039
3045.00,0.0039
3044.00,0.0040
3043.00,0.0040
3042.00,0.0040
3041.00,0.0040
3040.00,0.0040
3039.00,0.0041
3038.00,0.0041
3037.00,0.0042
3036.00,0.0042
3035.00,0.0043
3034.00,0.0043
3033.00,0.0044
3032.00,0.0044
3031.00,0.0045
3030.00,0.0045
3029.00,0.0046
3028.00,0.0047
3027.00,0.0047
3026.00,0.0047
3025.00,0.0048
3024.00,0.0048
3023.00,0.0049
3022.00,0.0050
3021.00,0.0051
3020.00,0.0051
3019.00,0.0052
3018.00,0.0053
3017.00,0.0053
3016.00,0.0054
3015.00,0.0055
3014.00,0.0056
3013.00,0.0056
3012.00,0.0058
3011.00,0.0059
3010.00,0.0060
3009.00,0.0061
3008.00,0.0062
3007.00,0.0064
3006.00,0.0065
3005.00,0.0066
3004.00,0.0068
3003.00,0.0069
3002.00,0.0071
3001.00,0.0072
3000.00,0.0074
2999.00,0.0077
2998.00,0.0080
2997.00,0.0084
2996.00,0.0088
2995.00,0.0092
2994.00,0.0096
2993.00,0.0101
2992.00,0.0106
2991.00,0.0111
2990.00,0.0118
2989.00,0.0125
2988.00,0.0132
2987.00,0.0141
2986.00,0.0150
2985.00,0.0160
2984.00,0.0171
2983.00,0.0183
2982.00,0.0198
2981.00,0.0216
2980.00,0.0236
2979.00,0.0260
2978.00,0.0286
2977.00,0.0317
2976.00,0.0351
2975.00,0.0390
2974.00,0.0434
2973.00,0.0484
2972.00,0.0542
2971.00,0.0608
2970.00,0.0682
2969.00,0.0763
2968.00,0.0853
2967.00,0.0951
2966.00,0.1056
2965.00,0.1166
2964.00,0.1278
2963.00,0.1387
2962.00,0.1486
2961.00,0.1571
2960.00,0.1637
2959.00,0.1685
2958.00,0.1718
2957.00,0.1742
2956.00,0.1763
2955.00,0.1787
2954.00,0.1815
2953.00,0.1844
2952.00,0.1867
2951.00,0.1875
2950.00,0.1858
2949.00,0.1811
2948.00,0.1734
2947.00,0.1633
2946.00,0.1517
2945.00,0.1399
2944.00,0.1290
2943.00,0.1196
2942.00,0.1125
2941.00,0.1076
2940.00,0.1049
2939.00,0.1043
2938.00,0.1056
2937.00,0.1084
2936.00,0.1127
2935.00,0.1184
2934.00,0.1252
2933.00,0.1331
2932.00,0.1420
2931.00,0.1516
2930.00,0.1618
2929.00,0.1723
2928.00,0.1826
2927.00,0.1926
2926.00,0.2021
2925.00,0.2111
2924.00,0.2197
2923.00,0.2279
2922.00,0.2357
2921.00,0.2429
2920.00,0.2490
2919.00,0.2532
2918.00,0.2548
2917.00,0.2534
2916.00,0.2490
2915.00,0.2422
2914.00,0.2340
2913.00,0.2253
2912.00,0.2170
2911.00,0.2094
2910.00,0.2028
2909.00,0.1969
2908.00,0.1915
2907.00,0.1863
2906.00,0.1809
2905.00,0.1753
2904.00,0.1693
2903.00,0.1630
2902.00,0.1566
2901.00,0.1501
2900.00,0.1438
2899.00,0.1377
2898.00,0.1320
2897.00,0.1267
2896.00,0.1220
2895.00,0.1178
2894.00,0.1143
2893.00,0.1113
2892.00,0.1089
2891.00,0.1070
2890.00,0.1056
2889.00,0.1046
2888.00,0.1040
2887.00,0.1036
2886.00,0.1037
2885.00,0.1040
2884.00,0.1047
2883.00,0.1057
2882.00,0.1071
2881.00,0.1086
2880.00,0.1101
2879.00,0.1112
2878.00,0.1118
2877.00,0.1118
2876.00,0.1112
2875.00,0.1106
2874.00,0.1101
2873.00,0.1102
2872.00,0.1109
2871.00,0.1122
2870.00,0.1139
2869.00,0.1155
2868.00,0.1163
2867.00,0.1159
2866.00,0.1137
2865.00,0.1096
2864.00,0.1040
2863.00,0.0976
2862.00,0.0914
2861.00,0.0860
2860.00,0.0820
2859.00,0.0794
2858.00,0.0781
2857.00,0.0779
2856.00,0.0786
2855.00,0.0800
2854.00,0.0817
2853.00,0.0837
2852.00,0.0856
2851.00,0.0873
2850.00,0.0886
2849.00,0.0896
2848.00,0.0905
2847.00,0.0917
2846.00,0.0938
2845.00,0.0970
2844.00,0.1013
2843.00,0.1065
2842.00,0.1120
2841.00,0.1171
2840.00,0.1211
2839.00,0.1230
2838.00,0.1223
2837.00,0.1186
2836.00,0.1120
2835.00,0.1030
2834.00,0.0927
2833.00,0.0820
2832.00,0.0719
2831.00,0.0629
2830.00,0.0553
2829.00,0.0491
2828.00,0.0441
2827.00,0.0400
2826.00,0.0366
2825.00,0.0338
2824.00,0.0314
2823.00,0.0294
2822.00,0.0277
2821.00,0.0263
2820.00,0.0250
2819.00,0.0238
2818.00,0.0228
2817.00,0.0219
2816.00,0.0212
2815.00,0.0205
2814.00,0.0198
2813.00,0.0193
2812.00,0.0187
2811.00,0.0181
2810.00,0.0176
2809.00,0.0171
2808.00,0.0165
2807.00,0.0159
2806.00,0.0153
2805.00,0.0147
2804.00,0.0141
2803.00,0.0135
2802.00,0.0130
2801.00,0.0126
2800.00,0.0122
2799.00,0.0119
2798.00,0.0116
2797.00,0.0114
2796.00,0.0112
2795.00,0.0110
2794.00,0.0107
2793.00,0.0105
2792.00,0.0102
2791.00,0.0098
2790.00,0.0095
2789.00,0.0091
2788.00,0.0088
2787.00,0.0084
2786.00,0.0081
2785.00,0.0078
2784.00,0.0075
2783.00,0.0073
2782.00,0.0071
2781.00,0.0069
2780.00,0.0067
2779.00,0.0066
2778.00,0.0064
2777.00,0.0063
2776.00,0.0061
2775.00,0.0060
2774.00,0.0059
2773.00,0.0059
2772.00,0.0058
2771.00,0.0057
2770.00,0.0057
2769.00,0.0057
2768.00,0.0057
2767.00,0.0056
2766.00,0.0056
2765.00,0.0056
2764.00,0.0055
2763.00,0.0055
2762.00,0.0054
2761.00,0.0054
2760.00,0.0054
2759.00,0.0054
2758.00,0.0053
2757.00,0.0053
2756.00,0.0053
2755.00,0.0052
2754.00,0.0052
2753.00,0.0052
2752.00,0.0052
2751.00,0.0052
2750.00,0.0052
2749.00,0.0052
2748.00,0.0052
2747.00,0.0053
2746.00,0.0053
2745.00,0.0053
2744.00,0.0054
2743.00,0.0054
2742.00,0.0055
2741.00,0.0056
2740.00,0.0057
2739.00,0.0058
2738.00,0.0059
2737.00,0.0060
2736.00,0.0062
2735.00,0.0064
2734.00,0.0065
2733.00,0.0067
2732.00,0.0068
2731.00,0.0069
2730.00,0.0071
2729.00,0.0073
2728.00,0.0075
2727.00,0.0077
2726.00,0.0080
2725.00,0.0082
2724.00,0.0083
2723.00,0.0084
2722.00,0.0084
2721.00,0.0083
2720.00,0.0081
2719.00,0.0078
2718.00,0.0074
2717.00,0.0071
2716.00,0.0068
2715.00,0.0065
2714.00,0.0063
2713.00,0.0061
2712.00,0.0059
2711.00,0.0058
2710.00,0.0057
2709.00,0.0056
2708.00,0.0054
2707.00,0.0053
2706.00,0.0052
2705.00,0.0051
2704.00,0.0050
2703.00,0.0049
2702.00,0.0048
2701.00,0.0048
2700.00,0.0047
2699.00,0.0046
2698.00,0.0046
2697.00,0.0046
2696.00,0.0045
2695.00,0.0045
2694.00,0.0045
2693.00,0.0046
2692.00,0.0046
2691.00,0.0046
2690.00,0.0046
2689.00,0.0046
2688.00,0.0046
2687.00,0.0045
2686.00,0.0045
2685.00,0.0045
2684.00,0.0045
2683.00,0.0046
2682.00,0.0046
2681.00,0.0046
2680.00,0.0046
2679.00,0.0046
2678.00,0.0046
2677.00,0.0046
2676.00,0.0045
2675.00,0.0045
2674.00,0.0045
2673.00,0.0044
2672.00,0.0044
2671.00,0.0044
2670.00,0.0044
2669.00,0.0044
2668.00,0.0045
2667.00,0.0045
2666.00,0.0045
2665.00,0.0045
2664.00,0.0046
2663.00,0.0046
2662.00,0.0047
2661.00,0.0047
2660.00,0.0047
2659.00,0.0047
2658.00,0.0047
2657.00,0.0047
2656.00,0.0046
2655.00,0.0046
2654.00,0.0046
2653.00,0.0045
2652.00,0.0045
2651.00,0.0044
2650.00,0.0044
2649.00,0.0043
2648.00,0.0043
2647.00,0.0042
2646.00,0.0042
2645.00,0.0042
2644.00,0.0041
2643.00,0.0041
2642.00,0.0041
2641.00,0.0040
2640.00,0.0040
2639.00,0.0039
2638.00,0.0039
2637.00,0.0038
2636.00,0.0038
2635.00,0.0037
2634.00,0.0037
2633.00,0.0037
2632.00,0.0037
2631.00,0.0038
2630.00,0.0038
2629.00,0.0039
2628.00,0.0039
2627.00,0.0039
2626.00,0.0040
2625.00,0.0040
2624.00,0.0040
2623.00,0.0040
2622.00,0.0040
2621.00,0.0039
2620.00,0.0040
2619.00,0.0040
2618.00,0.0040
2617.00,0.0040
2616.00,0.0040
2615.00,0.0040
2614.00,0.0039
2613.00,0.0039
2612.00,0.0038
2611.00,0.0037
2610.00,0.0036
2609.00,0.0036
2608.00,0.0035
2607.00,0.0035
2606.00,0.0034
2605.00,0.0034
2604.00,0.0033
2603.00,0.0032
2602.00,0.0031
2601.00,0.0031
2600.00,0.0031
2599.00,0.0031
2598.00,0.0031
2597.00,0.0031
2596.00,0.0031
2595.00,0.0031
2594.00,0.0031
2593.00,0.0031
2592.00,0.0031
2591.00,0.0032
2590.00,0.0033
2589.00,0.0033
2588.00,0.0034
2587.00,0.0035
2586.00,0.0036
2585.00,0.0036
2584.00,0.0037
2583.00,0.0037
2582.00,0.0037
2581.00,0.0036
2580.00,0.0035
2579.00,0.0034
2578.00,0.0033
2577.00,0.0033
2576.00,0.0032
2575.00,0.0031
2574.00,0.0029
2573.00,0.0027
2572.00,0.0026
2571.00,0.0026
2570.00,0.0026
2569.00,0.0026
2568.00,0.0026
2567.00,0.0026
2566.00,0.0026
2565.00,0.0025
2564.00,0.0024
2563.00,0.0023
2562.00,0.0023
2561.00,0.0022
2560.00,0.0022
2559.00,0.0022
2558.00,0.0023
2557.00,0.0022
2556.00,0.0022
2555.00,0.0022
2554.00,0.0021
2553.00,0.0021
2552.00,0.0020
2551.00,0.0020
2550.00,0.0020
2549.00,0.0021
2548.00,0.0021
2547.00,0.0021
2546.00,0.0020
2545.00,0.0020
2544.00,0.0019
2543.00,0.0019
2542.00,0.0018
2541.00,0.0018
2540.00,0.0017
2539.00,0.0017
2538.00,0.0017
2537.00,0.0017
2536.00,0.0017
2535.00,0.0016
2534.00,0.0016
2533.00,0.0016
2532.00,0.0016
2531.00,0.0016
2530.00,0.0015
2529.00,0.0015
2528.00,0.0014
2527.00,0.0014
2526.00,0.0013
2525.00,0.0013
2524.00,0.0013
2523.00,0.0014
2522.00,0.0014
2521.00,0.0014
2520.00,0.0014
2519.00,0.0013
2518.00,0.0013
2517.00,0.0013
2516.00,0.0013
2515.00,0.0013
2514.00,0.0012
2513.00,0.0012
2512.00,0.0011
2511.00,0.0011
2510.00,0.0011
2509.00,0.0012
2508.00,0.0012
2507.00,0.0011
2506.00,0.0011
2505.00,0.0010
2504.00,0.0009
2503.00,0.0010
2502.00,0.0010
2501.00,0.0011
2500.00,0.0011
2499.00,0.0011
2498.00,0.0011
2497.00,0.0011
2496.00,0.0010
2495.00,0.0010
2494.00,0.0009
2493.00,0.0009
2492.00,0.0009
2491.00,0.0009
2490.00,0.0010
2489.00,0.0010
2488.00,0.0010
2487.00,0.0010
2486.00,0.0009
2485.00,0.0009
2484.00,0.0008
2483.00,0.0008
2482.00,0.0007
2481.00,0.0008
2480.00,0.0008
2479.00,0.0009
2478.00,0.0010
2477.00,0.0009
2476.00,0.0009
2475.00,0.0008
2474.00,0.0008
2473.00,0.0008
2472.00,0.0009
2471.00,0.0008
2470.00,0.0008
2469.00,0.0008
2468.00,0.0007
2467.00,0.0007
2466.00,0.0008
2465.00,0.0008
2464.00,0.0009
2463.00,0.0010
2462.00,0.0010
2461.00,0.0010
2460.00,0.0009
2459.00,0.0009
2458.00,0.0009
2457.00,0.0010
2456.00,0.0010
2455.00,0.0010
2454.00,0.0009
2453.00,0.0009
2452.00,0.0009
2451.00,0.0010
2450.00,0.0010
2449.00,0.0010
2448.00,0.0009
2447.00,0.0009
2446.00,0.0008
2445.00,0.0008
2444.00,0.0008
2443.00,0.0008
2442.00,0.0009
2441.00,0.0010
2440.00,0.0010
2439.00,0.0011
2438.00,0.0010
2437.00,0.0010
2436.00,0.0010
2435.00,0.0010
2434.00,0.0011
2433.00,0.0011
2432.00,0.0011
2431.00,0.0011
2430.00,0.0011
2429.00,0.0011
2428.00,0.0011
2427.00,0.0011
2426.00,0.0011
2425.00,0.0011
2424.00,0.0011
2423.00,0.0011
2422.00,0.0010
2421.00,0.0010
2420.00,0.0010
2419.00,0.0010
2418.00,0.0010
2417.00,0.0011
2416.00,0.0011
2415.00,0.0011
2414.00,0.0010
2413.00,0.0010
2412.00,0.0010
2411.00,0.0010
2410.00,0.0009
2409.00,0.0009
2408.00,0.0009
2407.00,0.0008
2406.00,0.0008
2405.00,0.0007
2404.00,0.0006
2403.00,0.0006
2402.00,0.0006
2401.00,0.0006
2400.00,0.0007
2399.00,0.0008
2398.00,0.0008
2397.00,0.0008
2396.00,0.0008
2395.00,0.0007
2394.00,0.0007
2393.00,0.0006
2392.00,0.0007
2391.00,0.0007
2390.00,0.0007
2389.00,0.0007
2388.00,0.0007
2387.00,0.0007
2386.00,0.0007
2385.00,0.0007
2384.00,0.0007
2383.00,0.0006
2382.00,0.0005
2381.00,0.0004
2380.00,0.0004
2379.00,0.0003
2378.00,0.0003
2377.00,0.0003
2376.00,0.0004
2375.00,0.0005
2374.00,0.0005
2373.00,0.0005
2372.00,0.0005
2371.00,0.0005
2370.00,0.0004
2369.00,0.0004
2368.00,0.0004
2367.00,0.0005
2366.00,0.0005
2365.00,0.0005
2364.00,0.0005
2363.00,0.0006
2362.00,0.0006
2361.00,0.0006
2360.00,0.0005
2359.00,0.0005
2358.00,0.0006
2357.00,0.0006
2356.00,0.0006
2355.00,0.0006
2354.00,0.0006
2353.00,0.0006
2352.00,0.0006
2351.00,0.0006
2350.00,0.0006
2349.00,0.0007
2348.00,0.0007
2347.00,0.0008
2346.00,0.0008
2345.00,0.0008
2344.00,0.0008
2343.00,0.0008
2342.00,0.0009
2341.00,0.0009
2340.00,0.0009
2339.00,0.0009
2338.00,0.0009
2337.00,0.0009
2336.00,0.0010
2335.00,0.0010
2334.00,0.0009
2333.00,0.0008
2332.00,0.0008
2331.00,0.0008
2330.00,0.0009
2329.00,0.0009
2328.00,0.0011
2327.00,0.0013
2326.00,0.0017
2325.00,0.0020
2324.00,0.0021
2323.00,0.0020
2322.00,0.0018
2321.00,0.0016
2320.00,0.0014
2319.00,0.0014
2318.00,0.0013
2317.00,0.0012
2316.00,0.0011
2315.00,0.0011
2314.00,0.0010
2313.00,0.0009
2312.00,0.0009
2311.00,0.0009
2310.00,0.0010
2309.00,0.0010
2308.00,0.0010
2307.00,0.0011
2306.00,0.0011
2305.00,0.0011
2304.00,0.0011
2303.00,0.0011
2302.00,0.0011
2301.00,0.0011
2300.00,0.0012
2299.00,0.0013
2298.00,0.0013
2297.00,0.0014
2296.00,0.0014
2295.00,0.0014
2294.00,0.0015
2293.00,0.0015
2292.00,0.0016
2291.00,0.0017
2290.00,0.0017
2289.00,0.0018
2288.00,0.0018
2287.00,0.0019
2286.00,0.0019
2285.00,0.0019
2284.00,0.0018
2283.00,0.0017
2282.00,0.0015
2281.00,0.0014
2280.00,0.0014
2279.00,0.0015
2278.00,0.0015
2277.00,0.0015
2276.00,0.0015
2275.00,0.0015
2274.00,0.0015
2273.00,0.0015
2272.00,0.0015
2271.00,0.0014
2270.00,0.0014
2269.00,0.0014
2268.00,0.0013
2267.00,0.0013
2266.00,0.0012
2265.00,0.0012
2264.00,0.0012
2263.00,0.0012
2262.00,0.0011
2261.00,0.0011
2260.00,0.0011
2259.00,0.0012
2258.00,0.0013
2257.00,0.0013
2256.00,0.0012
2255.00,0.0011
2254.00,0.0010
2253.00,0.0010
2252.00,0.0010
2251.00,0.0010
2250.00,0.0009
2249.00,0.0009
2248.00,0.0009
2247.00,0.0009
2246.00,0.0009
2245.00,0.0009
2244.00,0.0007
2243.00,0.0006
2242.00,0.0005
2241.00,0.0005
2240.00,0.0006
2239.00,0.0006
2238.00,0.0007
2237.00,0.0007
2236.00,0.0007
2235.00,0.0007
2234.00,0.0008
2233.00,0.0009
2232.00,0.0010
2231.00,0.0010
2230.00,0.0009
2229.00,0.0009
2228.00,0.0009
2227.00,0.0008
2226.00,0.0007
2225.00,0.0006
2224.00,0.0005
2223.00,0.0005
2222.00,0.0005
2221.00,0.0005
2220.00,0.0005
2219.00,0.0004
2218.00,0.0005
2217.00,0.0006
2216.00,0.0007
2215.00,0.0008
2214.00,0.0008
2213.00,0.0007
2212.00,0.0006
2211.00,0.0004
2210.00,0.0003
2209.00,0.0003
2208.00,0.0003
2207.00,0.0005
2206.00,0.0005
2205.00,0.0005
2204.00,0.0004
2203.00,0.0003
2202.00,0.0003
2201.00,0.0004
2200.00,0.0005
2199.00,0.0007
2198.00,0.0008
2197.00,0.0008
2196.00,0.0009
2195.00,0.0010
2194.00,0.0012
2193.00,0.0013
2192.00,0.0014
2191.00,0.0013
2190.00,0.0011
2189.00,0.0009
2188.00,0.0009
2187.00,0.0011
2186.00,0.0012
2185.00,0.0012
2184.00,0.0011
2183.00,0.0009
2182.00,0.0006
2181.00,0.0003
2180.00,0.0001
2179.00,0.0000
2178.00,0.0001
2177.00,0.0002
2176.00,0.0002
2175.00,0.0002
2174.00,0.0001
2173.00,0.0002
2172.00,0.0003
2171.00,0.0006
2170.00,0.0008
2169.00,0.0010
2168.00,0.0010
2167.00,0.0010
2166.00,0.0010
2165.00,0.0011
2164.00,0.0014
2163.00,0.0018
2162.00,0.0021
2161.00,0.0018
2160.00,0.0008
2159.00,-0.0007
2158.00,-0.0019
2157.00,-0.0026
2156.00,-0.0027
2155.00,-0.0025
2154.00,-0.0021
2153.00,-0.0016
2152.00,-0.0013
2151.00,-0.0011
2150.00,-0.0011
2149.00,-0.0010
2148.00,-0.0009
2147.00,-0.0009
2146.00,-0.0010
2145.00,-0.0011
2144.00,-0.0012
2143.00,-0.0014
2142.00,-0.0016
2141.00,-0.0017
2140.00,-0.0017
2139.00,-0.0016
2138.00,-0.0014
2137.00,-0.0013
2136.00,-0.0014
2135.00,-0.0015
2134.00,-0.0016
2133.00,-0.0017
2132.00,-0.0017
2131.00,-0.0016
2130.00,-0.0014
2129.00,-0.0013
2128.00,-0.0012
2127.00,-0.0011
2126.00,-0.0010
2125.00,-0.0010
2124.00,-0.0008
2123.00,-0.0006
2122.00,-0.0005
2121.00,-0.0005
2120.00,-0.0004
2119.00,-0.0004
2118.00,-0.0003
2117.00,-0.0002
2116.00,-0.0001
2115.00,-0.0000
2114.00,0.0000
2113.00,0.0000
2112.00,0.0001
2111.00,0.0001
2110.00,0.0002
2109.00,0.0003
2108.00,0.0004
2107.00,0.0005
2106.00,0.0005
2105.00,0.0004
2104.00,0.0003
2103.00,0.0002
2102.00,0.0001
2101.00,0.0001
2100.00,0.0001
2099.00,0.0001
2098.00,0.0000
2097.00,-0.0001
2096.00,-0.0002
2095.00,-0.0004
2094.00,-0.0005
2093.00,-0.0005
2092.00,-0.0003
2091.00,-0.0002
2090.00,-0.0001
2089.00,-0.0002
2088.00,-0.0002
2087.00,-0.0000
2086.00,0.0002
2085.00,0.0004
2084.00,0.0005
2083.00,0.0004
2082.00,0.0003
2081.00,0.0001
2080.00,0.0001
2079.00,0.0002
2078.00,0.0004
2077.00,0.0005
2076.00,0.0006
2075.00,0.0006
2074.00,0.0006
2073.00,0.0005
2072.00,0.0003
2071.00,0.0002
2070.00,0.0000
2069.00,-0.0001
2068.00,-0.0001
2067.00,-0.0002
2066.00,-0.0003
2065.00,-0.0002
2064.00,-0.0002
2063.00,-0.0001
2062.00,-0.0002
2061.00,-0.0002
2060.00,-0.0002
2059.00,-0.0001
2058.00,0.0001
2057.00,0.0001
2056.00,-0.0000
2055.00,-0.0002
2054.00,-0.0000
2053.00,0.0006
2052.00,0.0013
2051.00,0.0018
2050.00,0.0018
2049.00,0.0013
2048.00,0.0006
2047.00,0.0001
2046.00,-0.0001
2045.00,-0.0001
2044.00,0.0002
2043.00,0.0004
2042.00,0.0004
2041.00,0.0003
2040.00,0.0001
2039.00,-0.0000
2038.00,-0.0001
2037.00,0.0000
2036.00,0.0001
2035.00,0.0001
2034.00,-0.0001
2033.00,-0.0004
2032.00,-0.0007
2031.00,-0.0010
2030.00,-0.0011
2029.00,-0.0010
2028.00,-0.0009
2027.00,-0.0006
2026.00,-0.0005
2025.00,-0.0004
2024.00,-0.0004
2023.00,-0.0006
2022.00,-0.0008
2021.00,-0.0011
2020.00,-0.0014
2019.00,-0.0017
2018.00,-0.0017
2017.00,-0.0015
2016.00,-0.0009
2015.00,-0.0004
2014.00,-0.0001
2013.00,-0.0002
2012.00,-0.0004
2011.00,-0.0008
2010.00,-0.0012
2009.00,-0.0016
2008.00,-0.0019
2007.00,-0.0022
2006.00,-0.0023
2005.00,-0.0022
2004.00,-0.0020
2003.00,-0.0018
2002.00,-0.0016
2001.00,-0.0015
2000.00,-0.0014
1999.00,-0.0013
1998.00,-0.0011
1997.00,-0.0010
1996.00,-0.0010
1995.00,-0.0011
1994.00,-0.0012
1993.00,-0.0011
1992.00,-0.0008
1991.00,-0.0006
1990.00,-0.0004
1989.00,-0.0003
1988.00,-0.0001
1987.00,0.0002
1986.00,0.0004
1985.00,0.0005
1984.00,0.0006
1983.00,0.0005
1982.00,0.0006
1981.00,0.0008
1980.00,0.0011
1979.00,0.0009
1978.00,0.0003
1977.00,-0.0006
1976.00,-0.0015
1975.00,-0.0021
1974.00,-0.0023
1973.00,-0.0021
1972.00,-0.0018
1971.00,-0.0017
1970.00,-0.0017
1969.00,-0.0017
1968.00,-0.0016
1967.00,-0.0016
1966.00,-0.0017
1965.00,-0.0018
1964.00,-0.0017
1963.00,-0.0016
1962.00,-0.0015
1961.00,-0.0015
1960.00,-0.0018
1959.00,-0.0021
1958.00,-0.0024
1957.00,-0.0023
1956.00,-0.0021
1955.00,-0.0018
1954.00,-0.0016
1953.00,-0.0016
1952.00,-0.0017
1951.00,-0.0018
1950.00,-0.0018
1949.00,-0.0018
1948.00,-0.0017
1947.00,-0.0016
1946.00,-0.0015
1945.00,-0.0015
1944.00,-0.0015
1943.00,-0.0015
1942.00,-0.0014
1941.00,-0.0011
1940.00,-0.0009
1939.00,-0.0008
1938.00,-0.0008
1937.00,-0.0009
1936.00,-0.0009
1935.00,-0.0010
1934.00,-0.0010
1933.00,-0.0010
1932.00,-0.0009
1931.00,-0.0008
1930.00,-0.0007
1929.00,-0.0006
1928.00,-0.0006
1927.00,-0.0007
1926.00,-0.0009
1925.00,-0.0010
1924.00,-0.0010
1923.00,-0.0009
1922.00,-0.0008
1921.00,-0.0007
1920.00,-0.0004
1919.00,-0.0003
1918.00,-0.0002
1917.00,-0.0003
1916.00,-0.0003
1915.00,-0.0003
1914.00,-0.0003
1913.00,-0.0002
1912.00,-0.0002
1911.00,-0.0002
1910.00,-0.0002
1909.00,-0.0002
1908.00,-0.0002
1907.00,-0.0002
1906.00,-0.0003
1905.00,-0.0003
1904.00,-0.0003
1903.00,-0.0003
1902.00,-0.0003
1901.00,-0.0002
1900.00,-0.0001
1899.00,-0.0000
1898.00,-0.0000
1897.00,0.0000
1896.00,0.0000
1895.00,0.0000
1894.00,0.0000
1893.00,-0.0000
1892.00,0.0000
1891.00,0.0000
1890.00,0.0000
1889.00,-0.0000
1888.00,-0.0001
1887.00,-0.0002
1886.00,-0.0002
1885.00,-0.0002
1884.00,-0.0001
1883.00,-0.0002
1882.00,-0.0002
1881.00,-0.0002
1880.00,-0.0002
1879.00,-0.0002
1878.00,-0.0003
1877.00,-0.0003
1876.00,-0.0004
1875.00,-0.0003
1874.00,-0.0002
1873.00,-0.0001
1872.00,-0.0001
1871.00,-0.0001
1870.00,-0.0002
1869.00,-0.0002
1868.00,-0.0001
1867.00,0.0000
1866.00,0.0000
1865.00,0.0001
1864.00,0.0001
1863.00,0.0001
1862.00,0.0002
1861.00,0.0002
1860.00,0.0002
1859.00,0.0001
1858.00,0.0001
1857.00,0.0000
1856.00,-0.0000
1855.00,-0.0000
1854.00,-0.0000
1853.00,0.0001
1852.00,0.0002
1851.00,0.0003
1850.00,0.0002
1849.00,0.0002
1848.00,0.0001
1847.00,-0.0000
1846.00,-0.0000
1845.00,-0.0000
1844.00,0.0001
1843.00,0.0001
1842.00,0.0002
1841.00,0.0002
1840.00,0.0002
1839.00,0.0002
1838.00,0.0002
1837.00,0.0002
1836.00,0.0003
1835.00,0.0003
1834.00,0.0002
1833.00,0.0002
1832.00,0.0002
1831.00,0.0002
1830.00,0.0002
1829.00,0.0002
1828.00,0.0002
1827.00,0.0002
1826.00,0.0002
1825.00,0.0002
1824.00,0.0002
1823.00,0.0002
1822.00,0.0002
1821.00,0.0002
1820.00,0.0001
1819.00,0.0001
1818.00,-0.0000
1817.00,-0.0001
1816.00,-0.0001
1815.00,0.0000
1814.00,0.0001
1813.00,0.0003
1812.00,0.0003
1811.00,0.0004
1810.00,0.0003
1809.00,0.0003
1808.00,0.0003
1807.00,0.0003
1806.00,0.0003
1805.00,0.0004
1804.00,0.0004
1803.00,0.0004
1802.00,0.0005
1801.00,0.0005
1800.00,0.0005
1799.00,0.0005
1798.00,0.0006
1797.00,0.0006
1796.00,0.0007
1795.00,0.0007
1794.00,0.0007
1793.00,0.0008
1792.00,0.0008
1791.00,0.0009
1790.00,0.0009
1789.00,0.0009
1788.00,0.0008
1787.00,0.0008
1786.00,0.0008
1785.00,0.0008
1784.00,0.0009
1783.00,0.0009
1782.00,0.0009
1781.00,0.0009
1780.00,0.0009
1779.00,0.0009
1778.00,0.0009
1777.00,0.0009
1776.00,0.0010
1775.00,0.0010
1774.00,0.0011
1773.00,0.0011
1772.00,0.0012
1771.00,0.0012
1770.00,0.0013
1769.00,0.0013
1768.00,0.0015
1767.00,0.0015
1766.00,0.0016
1765.00,0.0016
1764.00,0.0017
1763.00,0.0018
1762.00,0.0019
1761.00,0.0020
1760.00,0.0021
1759.00,0.0021
1758.00,0.0022
1757.00,0.0023
1756.00,0.0023
1755.00,0.0024
1754.00,0.0024
1753.00,0.0025
1752.00,0.0025
1751.00,0.0025
1750.00,0.0025
1749.00,0.0027
1748.00,0.0028
1747.00,0.0029
1746.00,0.0029
1745.00,0.0029
1744.00,0.0028
1743.00,0.0028
1742.00,0.0028
1741.00,0.0027
1740.00,0.0028
1739.00,0.0028
1738.00,0.0029
1737.00,0.0029
1736.00,0.0030
1735.00,0.0029
1734.00,0.0028
1733.00,0.0027
1732.00,0.0027
1731.00,0.0027
1730.00,0.0027
1729.00,0.0028
1728.00,0.0028
1727.00,0.0028
1726.00,0.0028
1725.00,0.0029
1724.00,0.0030
1723.00,0.0031
1722.00,0.0031
1721.00,0.0032
1720.00,0.0032
1719.00,0.0031
1718.00,0.0031
1717.00,0.0030
1716.00,0.0030
1715.00,0.0030
1714.00,0.0029
1713.00,0.0028
1712.00,0.0028
1711.00,0.0027
1710.00,0.0027
1709.00,0.0026
1708.00,0.0026
1707.00,0.0025
1706.00,0.0025
1705.00,0.0025
1704.00,0.0027
1703.00,0.0028
1702.00,0.0028
1701.00,0.0028
1700.00,0.0027
1699.00,0.0027
1698.00,0.0027
1697.00,0.0027
1696.00,0.0028
1695.00,0.0029
1694.00,0.0029
1693.00,0.0030
1692.00,0.0031
1691.00,0.0031
1690.00,0.0032
1689.00,0.0032
1688.00,0.0033
1687.00,0.0034
1686.00,0.0034
1685.00,0.0035
1684.00,0.0037
1683.00,0.0039
1682.00,0.0040
1681.00,0.0041
1680.00,0.0042
1679.00,0.0043
1678.00,0.0044
1677.00,0.0045
1676.00,0.0046
1675.00,0.0046
1674.00,0.0047
1673.00,0.0047
1672.00,0.0048
1671.00,0.0049
1670.00,0.0050
1669.00,0.0051
1668.00,0.0052
1667.00,0.0052
1666.00,0.0053
1665.00,0.0053
1664.00,0.0053
1663.00,0.0053
1662.00,0.0054
1661.00,0.0054
1660.00,0.0055
1659.00,0.0056
1658.00,0.0056
1657.00,0.0056
1656.00,0.0057
1655.00,0.0058
1654.00,0.0059
1653.00,0.0063
1652.00,0.0065
1651.00,0.0065
1650.00,0.0066
1649.00,0.0067
1648.00,0.0070
1647.00,0.0073
1646.00,0.0075
1645.00,0.0075
1644.00,0.0075
1643.00,0.0074
1642.00,0.0074
1641.00,0.0074
1640.00,0.0075
1639.00,0.0075
1638.00,0.0076
1637.00,0.0077
1636.00,0.0077
1635.00,0.0077
1634.00,0.0076
1633.00,0.0075
1632.00,0.0074
1631.00,0.0073
1630.00,0.0072
1629.00,0.0072
1628.00,0.0071
1627.00,0.0071
1626.00,0.0070
1625.00,0.0070
1624.00,0.0069
1623.00,0.0069
1622.00,0.0069
1621.00,0.0069
1620.00,0.0069
1619.00,0.0069
1618.00,0.0069
1617.00,0.0068
1616.00,0.0068
1615.00,0.0067
1614.00,0.0067
1613.00,0.0067
1612.00,0.0068
1611.00,0.0068
1610.00,0.0068
1609.00,0.0068
1608.00,0.0069
1607.00,0.0069
1606.00,0.0069
1605.00,0.0069
1604.00,0.0068
1603.00,0.0068
1602.00,0.0067
1601.00,0.0067
1600.00,0.0067
1599.00,0.0067
1598.00,0.0067
1597.00,0.0067
1596.00,0.0067
1595.00,0.0067
1594.00,0.0067
1593.00,0.0066
1592.00,0.0066
1591.00,0.0066
1590.00,0.0065
1589.00,0.0065
1588.00,0.0065
1587.00,0.0065
1586.00,0.0066
1585.00,0.0066
1584.00,0.0066
1583.00,0.0067
1582.00,0.0067
1581.00,0.0068
1580.00,0.0069
1579.00,0.0070
1578.00,0.0070
1577.00,0.0070
1576.00,0.0071
1575.00,0.0070
1574.00,0.0070
1573.00,0.0069
1572.00,0.0069
1571.00,0.0069
1570.00,0.0069
1569.00,0.0070
1568.00,0.0070
1567.00,0.0069
1566.00,0.0069
1565.00,0.0069
1564.00,0.0069
1563.00,0.0069
1562.00,0.0069
1561.00,0.0069
1560.00,0.0069
1559.00,0.0068
1558.00,0.0069
1557.00,0.0070
1556.00,0.0071
1555.00,0.0072
1554.00,0.0072
1553.00,0.0072
1552.00,0.0073
1551.00,0.0073
1550.00,0.0074
1549.00,0.0074
1548.00,0.0074
1547.00,0.0074
1546.00,0.0074
1545.00,0.0075
1544.00,0.0077
1543.00,0.0077
1542.00,0.0076
1541.00,0.0075
1540.00,0.0075
1539.00,0.0073
1538.00,0.0071
1537.00,0.0069
1536.00,0.0068
1535.00,0.0066
1534.00,0.0064
1533.00,0.0062
1532.00,0.0061
1531.00,0.0060
1530.00,0.0059
1529.00,0.0058
1528.00,0.0058
1527.00,0.0058
1526.00,0.0057
1525.00,0.0056
1524.00,0.0056
1523.00,0.0056
1522.00,0.0056
1521.00,0.0057
1520.00,0.0058
1519.00,0.0058
1518.00,0.0058
1517.00,0.0059
1516.00,0.0060
1515.00,0.0060
1514.00,0.0059
1513.00,0.0060
1512.00,0.0060
1511.00,0.0061
1510.00,0.0061
1509.00,0.0061
1508.00,0.0063
1507.00,0.0065
1506.00,0.0066
1505.00,0.0066
1504.00,0.0067
1503.00,0.0068
1502.00,0.0070
1501.00,0.0073
1500.00,0.0076
1499.00,0.0078
1498.00,0.0081
1497.00,0.0085
1496.00,0.0089
1495.00,0.0092
1494.00,0.0094
1493.00,0.0097
1492.00,0.0102
1491.00,0.0106
1490.00,0.0111
1489.00,0.0117
1488.00,0.0123
1487.00,0.0127
1486.00,0.0131
1485.00,0.0136
1484.00,0.0142
1483.00,0.0149
1482.00,0.0158
1481.00,0.0168
1480.00,0.0180
1479.00,0.0191
1478.00,0.0206
1477.00,0.0226
1476.00,0.0251
1475.00,0.0281
1474.00,0.0321
1473.00,0.0378
1472.00,0.0444
1471.00,0.0507
1470.00,0.0568
1469.00,0.0630
1468.00,0.0697
1467.00,0.0770
1466.00,0.0851
1465.00,0.0939
1464.00,0.1015
1463.00,0.1069
1462.00,0.1104
1461.00,0.1129
1460.00,0.1147
1459.00,0.1160
1458.00,0.1173
1457.00,0.1186
1456.00,0.1192
1455.00,0.1188
1454.00,0.1180
1453.00,0.1167
1452.00,0.1146
1451.00,0.1112
1450.00,0.1065
1449.00,0.0998
1448.00,0.0910
1447.00,0.0815
1446.00,0.0728
1445.00,0.0652
1444.00,0.0586
1443.00,0.0532
1442.00,0.0490
1441.00,0.0461
1440.00,0.0441
1439.00,0.0432
1438.00,0.0429
1437.00,0.0426
1436.00,0.0413
1435.00,0.0388
1434.00,0.0354
1433.00,0.0315
1432.00,0.0273
1431.00,0.0237
1430.00,0.0208
1429.00,0.0187
1428.00,0.0172
1427.00,0.0162
1426.00,0.0155
1425.00,0.0150
1424.00,0.0144
1423.00,0.0141
1422.00,0.0140
1421.00,0.0137
1420.00,0.0134
1419.00,0.0132
1418.00,0.0131
1417.00,0.0128
1416.00,0.0125
1415.00,0.0122
1414.00,0.0121
1413.00,0.0119
1412.00,0.0117
1411.00,0.0116
1410.00,0.0115
1409.00,0.0114
1408.00,0.0113
1407.00,0.0113
1406.00,0.0113
1405.00,0.0113
1404.00,0.0113
1403.00,0.0113
1402.00,0.0114
1401.00,0.0115
1400.00,0.0115
1399.00,0.0117
1398.00,0.0119
1397.00,0.0120
1396.00,0.0122
1395.00,0.0126
1394.00,0.0131
1393.00,0.0135
1392.00,0.0140
1391.00,0.0147
1390.00,0.0158
1389.00,0.0172
1388.00,0.0193
1387.00,0.0225
1386.00,0.0267
1385.00,0.0323
1384.00,0.0399
1383.00,0.0504
1382.00,0.0645
1381.00,0.0823
1380.00,0.1038
1379.00,0.1275
1378.00,0.1497
1377.00,0.1650
1376.00,0.1692
1375.00,0.1597
1374.00,0.1395
1373.00,0.1157
1372.00,0.0942
1371.00,0.0766
1370.00,0.0624
1369.00,0.0517
1368.00,0.0442
1367.00,0.0395
1366.00,0.0369
1365.00,0.0358
1364.00,0.0359
1363.00,0.0370
1362.00,0.0388
1361.00,0.0407
1360.00,0.0421
1359.00,0.0425
1358.00,0.0415
1357.00,0.0392
1356.00,0.0361
1355.00,0.0326
1354.00,0.0292
1353.00,0.0262
1352.00,0.0238
1351.00,0.0218
1350.00,0.0202
1349.00,0.0188
1348.00,0.0177
1347.00,0.0167
1346.00,0.0159
1345.00,0.0152
1344.00,0.0145
1343.00,0.0140
1342.00,0.0136
1341.00,0.0132
1340.00,0.0129
1339.00,0.0126
1338.00,0.0125
1337.00,0.0124
1336.00,0.0124
1335.00,0.0125
1334.00,0.0127
1333.00,0.0130
1332.00,0.0133
1331.00,0.0135
1330.00,0.0137
1329.00,0.0136
1328.00,0.0133
1327.00,0.0129
1326.00,0.0124
1325.00,0.0118
1324.00,0.0112
1323.00,0.0107
1322.00,0.0104
1321.00,0.0101
1320.00,0.0099
1319.00,0.0098
1318.00,0.0096
1317.00,0.0094
1316.00,0.0093
1315.00,0.0092
1314.00,0.0092
1313.00,0.0093
1312.00,0.0095
1311.00,0.0098
1310.00,0.0102
1309.00,0.0110
1308.00,0.0121
1307.00,0.0135
1306.00,0.0148
1305.00,0.0157
1304.00,0.0159
1303.00,0.0154
1302.00,0.0146
1301.00,0.0137
1300.00,0.0131
1299.00,0.0128
1298.00,0.0127
1297.00,0.0126
1296.00,0.0124
1295.00,0.0121
1294.00,0.0117
1293.00,0.0112
1292.00,0.0107
1291.00,0.0102
1290.00,0.0097
1289.00,0.0093
1288.00,0.0090
1287.00,0.0088
1286.00,0.0086
1285.00,0.0084
1284.00,0.0083
1283.00,0.0081
1282.00,0.0080
1281.00,0.0079
1280.00,0.0078
1279.00,0.0077
1278.00,0.0076
1277.00,0.0076
1276.00,0.0076
1275.00,0.0076
1274.00,0.0077
1273.00,0.0077
1272.00,0.0078
1271.00,0.0079
1270.00,0.0080
1269.00,0.0081
1268.00,0.0084
1267.00,0.0086
1266.00,0.0090
1265.00,0.0093
1264.00,0.0097
1263.00,0.0101
1262.00,0.0105
1261.00,0.0110
1260.00,0.0117
1259.00,0.0125
1258.00,0.0133
1257.00,0.0141
1256.00,0.0144
1255.00,0.0142
1254.00,0.0135
1253.00,0.0124
1252.00,0.0114
1251.00,0.0105
1250.00,0.0099
1249.00,0.0094
1248.00,0.0091
1247.00,0.0089
1246.00,0.0086
1245.00,0.0084
1244.00,0.0082
1243.00,0.0081
1242.00,0.0081
1241.00,0.0081
1240.00,0.0081
1239.00,0.0082
1238.00,0.0083
1237.00,0.0083
1236.00,0.0083
1235.00,0.0083
1234.00,0.0084
1233.00,0.0085
1232.00,0.0086
1231.00,0.0088
1230.00,0.0089
1229.00,0.0090
1228.00,0.0091
1227.00,0.0092
1226.00,0.0094
1225.00,0.0097
1224.00,0.0099
1223.00,0.0102
1222.00,0.0105
1221.00,0.0109
1220.00,0.0112
1219.00,0.0114
1218.00,0.0114
1217.00,0.0113
1216.00,0.0109
1215.00,0.0105
1214.00,0.0102
1213.00,0.0099
1212.00,0.0096
1211.00,0.0095
1210.00,0.0093
1209.00,0.0092
1208.00,0.0092
1207.00,0.0091
1206.00,0.0090
1205.00,0.0089
1204.00,0.0088
1203.00,0.0087
1202.00,0.0087
1201.00,0.0086
1200.00,0.0085
1199.00,0.0084
1198.00,0.0084
1197.00,0.0084
1196.00,0.0083
1195.00,0.0083
1194.00,0.0083
1193.00,0.0083
1192.00,0.0083
1191.00,0.0082
1190.00,0.0081
1189.00,0.0080
1188.00,0.0080
1187.00,0.0079
1186.00,0.0080
1185.00,0.0081
1184.00,0.0083
1183.00,0.0085
1182.00,0.0087
1181.00,0.0090
1180.00,0.0094
1179.00,0.0099
1178.00,0.0106
1177.00,0.0116
1176.00,0.0130
1175.00,0.0147
1174.00,0.0170
1173.00,0.0199
1172.00,0.0234
1171.00,0.0273
1170.00,0.0312
1169.00,0.0343
1168.00,0.0362
1167.00,0.0365
1166.00,0.0354
1165.00,0.0335
1164.00,0.0311
1163.00,0.0288
1162.00,0.0268
1161.00,0.0251
1160.00,0.0237
1159.00,0.0227
1158.00,0.0220
1157.00,0.0214
1156.00,0.0210
1155.00,0.0207
1154.00,0.0204
1153.00,0.0200
1152.00,0.0195
1151.00,0.0188
1150.00,0.0179
1149.00,0.0169
1148.00,0.0160
1147.00,0.0151
1146.00,0.0143
1145.00,0.0135
1144.00,0.0128
1143.00,0.0121
1142.00,0.0116
1141.00,0.0111
1140.00,0.0106
1139.00,0.0102
1138.00,0.0098
1137.00,0.0095
1136.00,0.0093
1135.00,0.0091
1134.00,0.0089
1133.00,0.0088
1132.00,0.0088
1131.00,0.0088
1130.00,0.0088
1129.00,0.0088
1128.00,0.0089
1127.00,0.0089
1126.00,0.0091
1125.00,0.0092
1124.00,0.0093
1123.00,0.0095
1122.00,0.0097
1121.00,0.0098
1120.00,0.0099
1119.00,0.0100
1118.00,0.0101
1117.00,0.0102
1116.00,0.0103
1115.00,0.0104
1114.00,0.0105
1113.00,0.0106
1112.00,0.0108
1111.00,0.0110
1110.00,0.0113
1109.00,0.0116
1108.00,0.0121
1107.00,0.0126
1106.00,0.0132
1105.00,0.0138
1104.00,0.0142
1103.00,0.0144
1102.00,0.0143
1101.00,0.0139
1100.00,0.0134
1099.00,0.0128
1098.00,0.0123
1097.00,0.0119
1096.00,0.0115
1095.00,0.0112
1094.00,0.0109
1093.00,0.0106
1092.00,0.0104
1091.00,0.0102
1090.00,0.0101
1089.00,0.0100
1088.00,0.0099
1087.00,0.0098
1086.00,0.0098
1085.00,0.0098
1084.00,0.0097
1083.00,0.0096
1082.00,0.0095
1081.00,0.0093
1080.00,0.0092
1079.00,0.0090
1078.00,0.0088
1077.00,0.0087
1076.00,0.0086
1075.00,0.0085
1074.00,0.0085
1073.00,0.0085
1072.00,0.0085
1071.00,0.0085
1070.00,0.0085
1069.00,0.0085
1068.00,0.0085
1067.00,0.0085
1066.00,0.0085
1065.00,0.0085
1064.00,0.0084
1063.00,0.0085
1062.00,0.0085
1061.00,0.0086
1060.00,0.0086
1059.00,0.0086
1058.00,0.0086
1057.00,0.0086
1056.00,0.0086
1055.00,0.0087
1054.00,0.0088
1053.00,0.0090
1052.00,0.0092
1051.00,0.0095
1050.00,0.0098
1049.00,0.0101
1048.00,0.0105
1047.00,0.0110
1046.00,0.0113
1045.00,0.0115
1044.00,0.0115
1043.00,0.0114
1042.00,0.0111
1041.00,0.0109
1040.00,0.0106
1039.00,0.0105
1038.00,0.0104
1037.00,0.0104
1036.00,0.0104
1035.00,0.0104
1034.00,0.0103
1033.00,0.0102
1032.00,0.0099
1031.00,0.0097
1030.00,0.0095
1029.00,0.0094
1028.00,0.0093
1027.00,0.0092
1026.00,0.0092
1025.00,0.0091
1024.00,0.0091
1023.00,0.0092
1022.00,0.0093
1021.00,0.0093
1020.00,0.0094
1019.00,0.0094
1018.00,0.0095
1017.00,0.0096
1016.00,0.0098
1015.00,0.0100
1014.00,0.0102
1013.00,0.0104
1012.00,0.0106
1011.00,0.0109
1010.00,0.0112
1009.00,0.0116
1008.00,0.0122
1007.00,0.0129
1006.00,0.0140
1005.00,0.0155
1004.00,0.0175
1003.00,0.0204
1002.00,0.0241
1001.00,0.0288
1000.00,0.0340
999.00,0.0385
998.00,0.0409
997.00,0.0405
996.00,0.0373
995.00,0.0324
994.00,0.0272
993.00,0.0227
992.00,0.0192
991.00,0.0167
990.00,0.0149
989.00,0.0137
988.00,0.0129
987.00,0.0125
986.00,0.0124
985.00,0.0126
984.00,0.0129
983.00,0.0136
982.00,0.0147
981.00,0.0163
980.00,0.0187
979.00,0.0217
978.00,0.0257
977.00,0.0304
976.00,0.0358
975.00,0.0413
974.00,0.0457
973.00,0.0477
972.00,0.0464
971.00,0.0422
970.00,0.0360
969.00,0.0295
968.00,0.0239
967.00,0.0196
966.00,0.0165
965.00,0.0143
964.00,0.0128
963.00,0.0117
962.00,0.0109
961.00,0.0103
960.00,0.0099
959.00,0.0094
958.00,0.0091
957.00,0.0088
956.00,0.0085
955.00,0.0083
954.00,0.0081
953.00,0.0079
952.00,0.0077
951.00,0.0076
950.00,0.0075
949.00,0.0075
948.00,0.0075
947.00,0.0076
946.00,0.0077
945.00,0.0079
944.00,0.0082
943.00,0.0086
942.00,0.0089
941.00,0.0091
940.00,0.0091
939.00,0.0090
938.00,0.0087
937.00,0.0082
936.00,0.0078
935.00,0.0074
934.00,0.0071
933.00,0.0068
932.00,0.0067
931.00,0.0067
930.00,0.0067
929.00,0.0066
928.00,0.0066
927.00,0.0065
926.00,0.0065
925.00,0.0065
924.00,0.0065
923.00,0.0065
922.00,0.0065
921.00,0.0065
920.00,0.0064
919.00,0.0064
918.00,0.0064
917.00,0.0065
916.00,0.0065
915.00,0.0066
914.00,0.0068
913.00,0.0070
912.00,0.0071
911.00,0.0072
910.00,0.0074
909.00,0.0075
908.00,0.0078
907.00,0.0082
906.00,0.0088
905.00,0.0098
904.00,0.0110
903.00,0.0126
902.00,0.0143
901.00,0.0158
900.00,0.0168
899.00,0.0169
898.00,0.0163
897.00,0.0151
896.00,0.0136
895.00,0.0122
894.00,0.0109
893.00,0.0099
892.00,0.0092
891.00,0.0086
890.00,0.0083
889.00,0.0081
888.00,0.0079
887.00,0.0079
886.00,0.0079
885.00,0.0079
884.00,0.0078
883.00,0.0077
882.00,0.0077
881.00,0.0077
880.00,0.0078
879.00,0.0079
878.00,0.0080
877.00,0.0081
876.00,0.0080
875.00,0.0080
874.00,0.0079
873.00,0.0079
872.00,0.0079
871.00,0.0080
870.00,0.0080
869.00,0.0080
868.00,0.0081
867.00,0.0083
866.00,0.0084
865.00,0.0084
864.00,0.0084
863.00,0.0085
862.00,0.0086
861.00,0.0087
860.00,0.0089
859.00,0.0090
858.00,0.0092
857.00,0.0093
856.00,0.0094
855.00,0.0096
854.00,0.0098
853.00,0.0102
852.00,0.0106
851.00,0.0111
850.00,0.0116
849.00,0.0123
848.00,0.0133
847.00,0.0150
846.00,0.0176
845.00,0.0217
844.00,0.0276
843.00,0.0345
842.00,0.0405
841.00,0.0429
840.00,0.0404
839.00,0.0343
838.00,0.0271
837.00,0.0212
836.00,0.0174
835.00,0.0152
834.00,0.0139
833.00,0.0131
832.00,0.0126
831.00,0.0123
830.00,0.0120
829.00,0.0118
828.00,0.0116
827.00,0.0114
826.00,0.0112
825.00,0.0110
824.00,0.0109
823.00,0.0109
822.00,0.0110
821.00,0.0111
820.00,0.0112
819.00,0.0114
818.00,0.0116
817.00,0.0120
816.00,0.0127
815.00,0.0138
814.00,0.0152
813.00,0.0170
812.00,0.0187
811.00,0.0204
810.00,0.0216
809.00,0.0221
808.00,0.0218
807.00,0.0206
806.00,0.0190
805.00,0.0172
804.00,0.0157
803.00,0.0145
802.00,0.0138
801.00,0.0132
800.00,0.0126
799.00,0.0120
798.00,0.0115
797.00,0.0111
796.00,0.0109
795.00,0.0105
794.00,0.0102
793.00,0.0098
792.00,0.0094
791.00,0.0090
790.00,0.0087
789.00,0.0084
788.00,0.0082
787.00,0.0079
786.00,0.0077
785.00,0.0074
784.00,0.0073
783.00,0.0072
782.00,0.0072
781.00,0.0072
780.00,0.0072
779.00,0.0072
778.00,0.0073
777.00,0.0074
776.00,0.0074
775.00,0.0074
774.00,0.0072
773.00,0.0070
772.00,0.0068
771.00,0.0069
770.00,0.0070
769.00,0.0071
768.00,0.0071
767.00,0.0070
766.00,0.0070
765.00,0.0071
764.00,0.0071
763.00,0.0071
762.00,0.0071
761.00,0.0071
760.00,0.0072
759.00,0.0073
758.00,0.0073
757.00,0.0074
756.00,0.0074
755.00,0.0074
754.00,0.0075
753.00,0.0076
752.00,0.0076
751.00,0.0076
750.00,0.0077
749.00,0.0079
748.00,0.0082
747.00,0.0084
746.00,0.0087
745.00,0.0089
744.00,0.0091
743.00,0.0094
742.00,0.0096
741.00,0.0099
740.00,0.0103
739.00,0.0106
738.00,0.0110
737.00,0.0115
736.00,0.0119
735.00,0.0123
734.00,0.0128
733.00,0.0135
732.00,0.0145
731.00,0.0155
730.00,0.0164
729.00,0.0168
728.00,0.0167
727.00,0.0165
726.00,0.0164
725.00,0.0166
724.00,0.0172
723.00,0.0179
722.00,0.0185
721.00,0.0189
720.00,0.0187
719.00,0.0178
718.00,0.0166
717.00,0.0154
716.00,0.0142
715.00,0.0133
714.00,0.0126
713.00,0.0121
712.00,0.0117
711.00,0.0115
710.00,0.0113
709.00,0.0111
708.00,0.0110
707.00,0.0109
706.00,0.0108
705.00,0.0108
704.00,0.0109
703.00,0.0108
702.00,0.0107
701.00,0.0105
700.00,0.0103
699.00,0.0101
698.00,0.0100
697.00,0.0099
696.00,0.0097
695.00,0.0096
694.00,0.0095
693.00,0.0095
692.00,0.0097
691.00,0.0098
690.00,0.0097
689.00,0.0095
688.00,0.0093
687.00,0.0093
686.00,0.0093
685.00,0.0093
684.00,0.0092
683.00,0.0091
682.00,0.0091
681.00,0.0092
680.00,0.0094
679.00,0.0095
678.00,0.0095
677.00,0.0095
676.00,0.0095
675.00,0.0095
674.00,0.0096
673.00,0.0097
672.00,0.0098
671.00,0.0099
670.00,0.0100
669.00,0.0100
668.00,0.0100
667.00,0.0100
666.00,0.0100
665.00,0.0099
664.00,0.0098
663.00,0.0097
662.00,0.0096
661.00,0.0095
660.00,0.0095
659.00,0.0095
658.00,0.0094
657.00,0.0094
656.00,0.0093
655.00,0.0093
654.00,0.0092
653.00,0.0091
652.00,0.0090
651.00,0.0088
650.00,0.0087
649.00,0.0088
648.00,0.0090
647.00,0.0093
646.00,0.0094
645.00,0.0094
644.00,0.0093
643.00,0.0093
642.00,0.0093
641.00,0.0093
640.00,0.0090
639.00,0.0086
638.00,0.0085
637.00,0.0086
636.00,0.0088
635.00,0.0091
634.00,0.0092
633.00,0.0092
632.00,0.0091
631.00,0.0090
630.00,0.0090
629.00,0.0090
628.00,0.0090
627.00,0.0090
626.00,0.0092
625.00,0.0093
624.00,0.0094
623.00,0.0094
622.00,0.0093
621.00,0.0092
620.00,0.0090
619.00,0.0088
618.00,0.0089
617.00,0.0089
616.00,0.0089
615.00,0.0089
614.00,0.0090
613.00,0.0092
612.00,0.0093
611.00,0.0092
610.00,0.0091
609.00,0.0089
608.00,0.0086
607.00,0.0084
606.00,0.0084
605.00,0.0086
604.00,0.0089
603.00,0.0090
602.00,0.0090
601.00,0.0090
600.00,0.0091
599.00,0.0092
598.00,0.0093
597.00,0.0094
596.00,0.0094
595.00,0.0094
594.00,0.0094
593.00,0.0094
592.00,0.0094
591.00,0.0093
590.00,0.0092
589.00,0.0091
588.00,0.0089
587.00,0.0089
586.00,0.0091
585.00,0.0093
584.00,0.0096
583.00,0.0098
582.00,0.0098
581.00,0.0098
580.00,0.0098
579.00,0.0096
578.00,0.0094
577.00,0.0094
576.00,0.0095
575.00,0.0097
574.00,0.0099
573.00,0.0098
572.00,0.0096
571.00,0.0093
570.00,0.0091
569.00,0.0092
568.00,0.0093
567.00,0.0094
566.00,0.0096
565.00,0.0097
564.00,0.0098
563.00,0.0099
562.00,0.0100
561.00,0.0100
560.00,0.0099
559.00,0.0099
558.00,0.0099
557.00,0.0099
556.00,0.0098
555.00,0.0097
554.00,0.0093
553.00,0.0089
552.00,0.0086
551.00,0.0085
550.00,0.0088
549.00,0.0091
548.00,0.0094
547.00,0.0094
546.00,0.0093
545.00,0.0094
544.00,0.0095
543.00,0.0096
542.00,0.0095
541.00,0.0096
540.00,0.0097
539.00,0.0098
538.00,0.0097
537.00,0.0096
536.00,0.0096
535.00,0.0099
534.00,0.0102
533.00,0.0103
532.00,0.0102
531.00,0.0103
530.00,0.0104
529.00,0.0104
528.00,0.0105
527.00,0.0105
526.00,0.0105
525.00,0.0104
524.00,0.0102
523.00,0.0103
522.00,0.0105
521.00,0.0106
520.00,0.0105
519.00,0.0099
518.00,0.0092
517.00,0.0087
516.00,0.0086
515.00,0.0089
514.00,0.0092
513.00,0.0092
512.00,0.0087
511.00,0.0080
510.00,0.0074
509.00,0.0070
508.00,0.0070
507.00,0.0075
506.00,0.0083
505.00,0.0090
504.00,0.0094
503.00,0.0096
502.00,0.0096
501.00,0.0093
500.00,0.0088
499.00,0.0085
498.00,0.0083
497.00,0.0082
496.00,0.0077
495.00,0.0069
494.00,0.0063
493.00,0.0064
492.00,0.0073
491.00,0.0084
490.00,0.0090
489.00,0.0091
488.00,0.0088
487.00,0.0085
486.00,0.0085
485.00,0.0086
484.00,0.0088
483.00,0.0089
482.00,0.0088
481.00,0.0085
480.00,0.0082
479.00,0.0081
478.00,0.0084
477.00,0.0092
476.00,0.0098
475.00,0.0100
474.00,0.0095
473.00,0.0090
472.00,0.0089
471.00,0.0093
470.00,0.0097
469.00,0.0100
468.00,0.0105
467.00,0.0115
466.00,0.0125
465.00,0.0130
464.00,0.0130
463.00,0.0132
462.00,0.0143
461.00,0.0160
460.00,0.0177
459.00,0.0188
458.00,0.0186
457.00,0.0171
456.00,0.0152
455.00,0.0136
454.00,0.0127
453.00,0.0126
452.00,0.0129
451.00,0.0132
450.00,0.0131
