Created as New Dataset,Sample 014 By Administrator Date Thursday, September 04 2025
cm-1,A
4000.00,0.0014
3999.00,0.0013
3998.00,0.0013
3997.00,0.0013
3996.00,0.0013
3995.00,0.0013
3994.00,0.0013
3993.00,0.0014
3992.00,0.0014
3991.00,0.0014
3990.00,0.0014
3989.00,0.0013
3988.00,0.0013
3987.00,0.0013
3986.00,0.0013
3985.00,0.0013
3984.00,0.0013
3983.00,0.0013
3982.00,0.0013
3981.00,0.0012
3980.00,0.0012
3979.00,0.0012
3978.00,0.0012
3977.00,0.0011
3976.00,0.0011
3975.00,0.0011
3974.00,0.0011
3973.00,0.0011
3972.00,0.0011
3971.00,0.0011
3970.00,0.0011
3969.00,0.0011
3968.00,0.0011
3967.00,0.0011
3966.00,0.0011
3965.00,0.0011
3964.00,0.0012
3963.00,0.0011
3962.00,0.0011
3961.00,0.0011
3960.00,0.0011
3959.00,0.0011
3958.00,0.0011
3957.00,0.0011
3956.00,0.0011
3955.00,0.0011
3954.00,0.0012
3953.00,0.0012
3952.00,0.0012
3951.00,0.0012
3950.00,0.0011
3949.00,0.0011
3948.00,0.0011
3947.00,0.0011
3946.00,0.0011
3945.00,0.0011
3944.00,0.0011
3943.00,0.0011
3942.00,0.0011
3941.00,0.0011
3940.00,0.0012
3939.00,0.0012
3938.00,0.0012
3937.00,0.0012
3936.00,0.0012
3935.00,0.0012
3934.00,0.0012
3933.00,0.0012
3932.00,0.0012
3931.00,0.0012
3930.00,0.0012
3929.00,0.0013
3928.00,0.0013
3927.00,0.0013
3926.00,0.0013
3925.00,0.0013
3924.00,0.0013
3923.00,0.0012
3922.00,0.0012
3921.00,0.0012
3920.00,0.0011
3919.00,0.0011
3918.00,0.0011
3917.00,0.0011
3916.00,0.0011
3915.00,0.0011
3914.00,0.0011
3913.00,0.0011
3912.00,0.0011
3911.00,0.0011
3910.00,0.0012
3909.00,0.0012
3908.00,0.0012
3907.00,0.0013
3906.00,0.0013
3905.00,0.0013
3904.00,0.0013
3903.00,0.0013
3902.00,0.0013
3901.00,0.0012
3900.00,0.0012
3899.00,0.0012
3898.00,0.0012
3897.00,0.0012
3896.00,0.0012
3895.00,0.0012
3894.00,0.0013
3893.00,0.0012
3892.00,0.0012
3891.00,0.0012
3890.00,0.0012
3889.00,0.0012
3888.00,0.0013
3887.00,0.0012
3886.00,0.0012
3885.00,0.0012
3884.00,0.0012
3883.00,0.0012
3882.00,0.0012
3881.00,0.0012
3880.00,0.0012
3879.00,0.0012
3878.00,0.0012
3877.00,0.0012
3876.00,0.0012
3875.00,0.0012
3874.00,0.0013
3873.00,0.0014
3872.00,0.0014
3871.00,0.0015
3870.00,0.0014
3869.00,0.0014
3868.00,0.0014
3867.00,0.0013
3866.00,0.0013
3865.00,0.0012
3864.00,0.0012
3863.00,0.0012
3862.00,0.0012
3861.00,0.0012
3860.00,0.0012
3859.00,0.0012
3858.00,0.0013
3857.00,0.0013
3856.00,0.0014
3855.00,0.0014
3854.00,0.0013
3853.00,0.0013
3852.00,0.0013
3851.00,0.0013
3850.00,0.0013
3849.00,0.0012
3848.00,0.0012
3847.00,0.0012
3846.00,0.0012
3845.00,0.0012
3844.00,0.0013
3843.00,0.0013
3842.00,0.0013
3841.00,0.0013
3840.00,0.0013
3839.00,0.0013
3838.00,0.0012
3837.00,0.0012
3836.00,0.0012
3835.00,0.0012
3834.00,0.0012
3833.00,0.0012
3832.00,0.0012
3831.00,0.0012
3830.00,0.0012
3829.00,0.0013
3828.00,0.0013
3827.00,0.0013
3826.00,0.0013
3825.00,0.0013
3824.00,0.0013
3823.00,0.0013
3822.00,0.0013
3821.00,0.0013
3820.00,0.0014
3819.00,0.0014
3818.00,0.0014
3817.00,0.0014
3816.00,0.0013
3815.00,0.0013
3814.00,0.0013
3813.00,0.0012
3812.00,0.0012
3811.00,0.0012
3810.00,0.0012
3809.00,0.0013
3808.00,0.0014
3807.00,0.0014
3806.00,0.0014
3805.00,0.0015
3804.00,0.0015
3803.00,0.0015
3802.00,0.0014
3801.00,0.0014
3800.00,0.0013
3799.00,0.0013
3798.00,0.0012
3797.00,0.0012
3796.00,0.0012
3795.00,0.0012
3794.00,0.0012
3793.00,0.0012
3792.00,0.0012
3791.00,0.0011
3790.00,0.0011
3789.00,0.0011
3788.00,0.0011
3787.00,0.0011
3786.00,0.0011
3785.00,0.0010
3784.00,0.0010
3783.00,0.0011
3782.00,0.0011
3781.00,0.0011
3780.00,0.0011
3779.00,0.0011
3778.00,0.0011
3777.00,0.0011
3776.00,0.0012
3775.00,0.0012
3774.00,0.0012
3773.00,0.0012
3772.00,0.0012
3771.00,0.0012
3770.00,0.0012
3769.00,0.0012
3768.00,0.0012
3767.00,0.0012
3766.00,0.0012
3765.00,0.0012
3764.00,0.0013
3763.00,0.0013
3762.00,0.0013
3761.00,0.0013
3760.00,0.0013
3759.00,0.0012
3758.00,0.0012
3757.00,0.0012
3756.00,0.0012
3755.00,0.0013
3754.00,0.0014
3753.00,0.0015
3752.00,0.0016
3751.00,0.0016
3750.00,0.0016
3749.00,0.0016
3748.00,0.0015
3747.00,0.0015
3746.00,0.0014
3745.00,0.0014
3744.00,0.0013
3743.00,0.0014
3742.00,0.0014
3741.00,0.0014
3740.00,0.0014
3739.00,0.0014
3738.00,0.0015
3737.00,0.0015
3736.00,0.0014
3735.00,0.0014
3734.00,0.0013
3733.00,0.0013
3732.00,0.0012
3731.00,0.0012
3730.00,0.0012
3729.00,0.0012
3728.00,0.0012
3727.00,0.0012
3726.00,0.0011
3725.00,0.0011
3724.00,0.0011
3723.00,0.0010
3722.00,0.0010
3721.00,0.0011
3720.00,0.0011
3719.00,0.0012
3718.00,0.0012
3717.00,0.0012
3716.00,0.0012
3715.00,0.0011
3714.00,0.0011
3713.00,0.0011
3712.00,0.0012
3711.00,0.0012
3710.00,0.0012
3709.00,0.0012
3708.00,0.0012
3707.00,0.0012
3706.00,0.0012
3705.00,0.0011
3704.00,0.0011
3703.00,0.0011
3702.00,0.0011
3701.00,0.0011
3700.00,0.0011
3699.00,0.0012
3698.00,0.0012
3697.00,0.0012
3696.00,0.0012
3695.00,0.0012
3694.00,0.0012
3693.00,0.0012
3692.00,0.0012
3691.00,0.0012
3690.00,0.0013
3689.00,0.0014
3688.00,0.0015
3687.00,0.0015
3686.00,0.0016
3685.00,0.0016
3684.00,0.0017
3683.00,0.0018
3682.00,0.0018
3681.00,0.0019
3680.00,0.0020
3679.00,0.0021
3678.00,0.0023
3677.00,0.0025
3676.00,0.0026
3675.00,0.0027
3674.00,0.0027
3673.00,0.0027
3672.00,0.0027
3671.00,0.0027
3670.00,0.0027
3669.00,0.0027
3668.00,0.0027
3667.00,0.0027
3666.00,0.0027
3665.00,0.0027
3664.00,0.0027
3663.00,0.0027
3662.00,0.0027
3661.00,0.0028
3660.00,0.0029
3659.00,0.0029
3658.00,0.0030
3657.00,0.0030
3656.00,0.0030
3655.00,0.0030
3654.00,0.0030
3653.00,0.0030
3652.00,0.0031
3651.00,0.0031
3650.00,0.0031
3649.00,0.0031
3648.00,0.0031
3647.00,0.0030
3646.00,0.0030
3645.00,0.0030
3644.00,0.0030
3643.00,0.0030
3642.00,0.0030
3641.00,0.0030
3640.00,0.0029
3639.00,0.0029
3638.00,0.0029
3637.00,0.0029
3636.00,0.0029
3635.00,0.0028
3634.00,0.0027
3633.00,0.0027
3632.00,0.0027
3631.00,0.0027
3630.00,0.0027
3629.00,0.0027
3628.00,0.0027
3627.00,0.0028
3626.00,0.0028
3625.00,0.0028
3624.00,0.0028
3623.00,0.0029
3622.00,0.0029
3621.00,0.0030
3620.00,0.0030
3619.00,0.0030
3618.00,0.0030
3617.00,0.0030
3616.00,0.0030
3615.00,0.0030
3614.00,0.0030
3613.00,0.0031
3612.00,0.0031
3611.00,0.0032
3610.00,0.0032
3609.00,0.0033
3608.00,0.0033
3607.00,0.0033
3606.00,0.0033
3605.00,0.0033
3604.00,0.0034
3603.00,0.0034
3602.00,0.0034
3601.00,0.0034
3600.00,0.0035
3599.00,0.0036
3598.00,0.0036
3597.00,0.0036
3596.00,0.0036
3595.00,0.0036
3594.00,0.0037
3593.00,0.0037
3592.00,0.0037
3591.00,0.0038
3590.00,0.0038
3589.00,0.0038
3588.00,0.0038
3587.00,0.0038
3586.00,0.0039
3585.00,0.0040
3584.00,0.0041
3583.00,0.0041
3582.00,0.0042
3581.00,0.0043
3580.00,0.0044
3579.00,0.0044
3578.00,0.0044
3577.00,0.0045
3576.00,0.0045
3575.00,0.0045
3574.00,0.0046
3573.00,0.0047
3572.00,0.0048
3571.00,0.0049
3570.00,0.0049
3569.00,0.0050
3568.00,0.0050
3567.00,0.0050
3566.00,0.0050
3565.00,0.0051
3564.00,0.0051
3563.00,0.0052
3562.00,0.0052
3561.00,0.0053
3560.00,0.0054
3559.00,0.0054
3558.00,0.0055
3557.00,0.0055
3556.00,0.0056
3555.00,0.0056
3554.00,0.0056
3553.00,0.0057
3552.00,0.0057
3551.00,0.0058
3550.00,0.0059
3549.00,0.0060
3548.00,0.0060
3547.00,0.0061
3546.00,0.0062
3545.00,0.0062
3544.00,0.0062
3543.00,0.0063
3542.00,0.0063
3541.00,0.0064
3540.00,0.0064
3539.00,0.0064
3538.00,0.0065
3537.00,0.0065
3536.00,0.0066
3535.00,0.0067
3534.00,0.0067
3533.00,0.0068
3532.00,0.0069
3531.00,0.0070
3530.00,0.0071
3529.00,0.0072
3528.00,0.0072
3527.00,0.0073
3526.00,0.0073
3525.00,0.0073
3524.00,0.0074
3523.00,0.0074
3522.00,0.0075
3521.00,0.0075
3520.00,0.0076
3519.00,0.0076
3518.00,0.0076
3517.00,0.0077
3516.00,0.0078
3515.00,0.0079
3514.00,0.0080
3513.00,0.0080
3512.00,0.0080
3511.00,0.0081
3510.00,0.0081
3509.00,0.0081
3508.00,0.0082
3507.00,0.0083
3506.00,0.0084
3505.00,0.0085
3504.00,0.0086
3503.00,0.0087
3502.00,0.0087
3501.00,0.0088
3500.00,0.0089
3499.00,0.0089
3498.00,0.0090
3497.00,0.0090
3496.00,0.0091
3495.00,0.0091
3494.00,0.0091
3493.00,0.0092
3492.00,0.0093
3491.00,0.0093
3490.00,0.0094
3489.00,0.0095
3488.00,0.0095
3487.00,0.0096
3486.00,0.0097
3485.00,0.0098
3484.00,0.0099
3483.00,0.0099
3482.00,0.0100
3481.00,0.0100
3480.00,0.0101
3479.00,0.0101
3478.00,0.0102
3477.00,0.0102
3476.00,0.0102
3475.00,0.0102
3474.00,0.0103
3473.00,0.0103
3472.00,0.0104
3471.00,0.0104
3470.00,0.0105
3469.00,0.0106
3468.00,0.0106
3467.00,0.0107
3466.00,0.0107
3465.00,0.0107
3464.00,0.0108
3463.00,0.0108
3462.00,0.0109
3461.00,0.0109
3460.00,0.0110
3459.00,0.0110
3458.00,0.0111
3457.00,0.0111
3456.00,0.0112
3455.00,0.0112
3454.00,0.0113
3453.00,0.0113
3452.00,0.0114
3451.00,0.0114
3450.00,0.0115
3449.00,0.0115
3448.00,0.0115
3447.00,0.0115
3446.00,0.0116
3445.00,0.0116
3444.00,0.0117
3443.00,0.0117
3442.00,0.0117
3441.00,0.0117
3440.00,0.0118
3439.00,0.0118
3438.00,0.0119
3437.00,0.0119
3436.00,0.0120
3435.00,0.0120
3434.00,0.0120
3433.00,0.0121
3432.00,0.0121
3431.00,0.0122
3430.00,0.0122
3429.00,0.0123
3428.00,0.0123
3427.00,0.0123
3426.00,0.0124
3425.00,0.0125
3424.00,0.0125
3423.00,0.0125
3422.00,0.0126
3421.00,0.0126
3420.00,0.0126
3419.00,0.0126
3418.00,0.0126
3417.00,0.0126
3416.00,0.0127
3415.00,0.0127
3414.00,0.0127
3413.00,0.0128
3412.00,0.0128
3411.00,0.0129
3410.00,0.0129
3409.00,0.0129
3408.00,0.0129
3407.00,0.0129
3406.00,0.0130
3405.00,0.0130
3404.00,0.0130
3403.00,0.0131
3402.00,0.0131
3401.00,0.0132
3400.00,0.0133
3399.00,0.0133
3398.00,0.0133
3397.00,0.0133
3396.00,0.0133
3395.00,0.0133
3394.00,0.0133
3393.00,0.0133
3392.00,0.0133
3391.00,0.0133
3390.00,0.0133
3389.00,0.0133
3388.00,0.0133
3387.00,0.0133
3386.00,0.0133
3385.00,0.0132
3384.00,0.0132
3383.00,0.0132
3382.00,0.0131
3381.00,0.0131
3380.00,0.0131
3379.00,0.0131
3378.00,0.0131
3377.00,0.0131
3376.00,0.0131
3375.00,0.0131
3374.00,0.0131
3373.00,0.0131
3372.00,0.0131
3371.00,0.0131
3370.00,0.0132
3369.00,0.0132
3368.00,0.0132
3367.00,0.0132
3366.00,0.0132
3365.00,0.0132
3364.00,0.0132
3363.00,0.0132
3362.00,0.0132
3361.00,0.0131
3360.00,0.0131
3359.00,0.0131
3358.00,0.0131
3357.00,0.0131
3356.00,0.0130
3355.00,0.0130
3354.00,0.0130
3353.00,0.0130
3352.00,0.0130
3351.00,0.0130
3350.00,0.0130
3349.00,0.0130
3348.00,0.0130
3347.00,0.0130
3346.00,0.0130
3345.00,0.0129
3344.00,0.0129
3343.00,0.0129
3342.00,0.0129
3341.00,0.0129
3340.00,0.0129
3339.00,0.0128
3338.00,0.0128
3337.00,0.0128
3336.00,0.0127
3335.00,0.0127
3334.00,0.0127
3333.00,0.0127
3332.00,0.0127
3331.00,0.0127
3330.00,0.0127
3329.00,0.0126
3328.00,0.0126
3327.00,0.0125
3326.00,0.0125
3325.00,0.0125
3324.00,0.0124
3323.00,0.0124
3322.00,0.0124
3321.00,0.0123
3320.00,0.0123
3319.00,0.0123
3318.00,0.0123
3317.00,0.0123
3316.00,0.0123
3315.00,0.0123
3314.00,0.0122
3313.00,0.0122
3312.00,0.0122
3311.00,0.0122
3310.00,0.0122
3309.00,0.0122
3308.00,0.0122
3307.00,0.0122
3306.00,0.0122
3305.00,0.0122
3304.00,0.0122
3303.00,0.0122
3302.00,0.0123
3301.00,0.0122
3300.00,0.0122
3299.00,0.0122
3298.00,0.0121
3297.00,0.0120
3296.00,0.0120
3295.00,0.0119
3294.00,0.0119
3293.00,0.0119
3292.00,0.0118
3291.00,0.0118
3290.00,0.0117
3289.00,0.0116
3288.00,0.0116
3287.00,0.0116
3286.00,0.0116
3285.00,0.0116
3284.00,0.0116
3283.00,0.0115
3282.00,0.0114
3281.00,0.0114
3280.00,0.0114
3279.00,0.0114
3278.00,0.0114
3277.00,0.0113
3276.00,0.0113
3275.00,0.0112
3274.00,0.0112
3273.00,0.0111
3272.00,0.0111
3271.00,0.0111
3270.00,0.0111
3269.00,0.0111
3268.00,0.0111
3267.00,0.0110
3266.00,0.0110
3265.00,0.0110
3264.00,0.0110
3263.00,0.0110
3262.00,0.0109
3261.00,0.0108
3260.00,0.0108
3259.00,0.0107
3258.00,0.0107
3257.00,0.0107
3256.00,0.0106
3255.00,0.0106
3254.00,0.0106
3253.00,0.0106
3252.00,0.0106
3251.00,0.0105
3250.00,0.0105
3249.00,0.0104
3248.00,0.0104
3247.00,0.0104
3246.00,0.0104
3245.00,0.0104
3244.00,0.0104
3243.00,0.0104
3242.00,0.0103
3241.00,0.0103
3240.00,0.0103
3239.00,0.0102
3238.00,0.0102
3237.00,0.0102
3236.00,0.0102
3235.00,0.0102
3234.00,0.0102
3233.00,0.0102
3232.00,0.0102
3231.00,0.0102
3230.00,0.0102
3229.00,0.0102
3228.00,0.0102
3227.00,0.0102
3226.00,0.0102
3225.00,0.0102
3224.00,0.0102
3223.00,0.0102
3222.00,0.0102
3221.00,0.0102
3220.00,0.0102
3219.00,0.0102
3218.00,0.0102
3217.00,0.0102
3216.00,0.0102
3215.00,0.0102
3214.00,0.0103
3213.00,0.0103
3212.00,0.0103
3211.00,0.0103
3210.00,0.0103
3209.00,0.0102
3208.00,0.0102
3207.00,0.0102
3206.00,0.0101
3205.00,0.0101
3204.00,0.0102
3203.00,0.0101
3202.00,0.0101
3201.00,0.0101
3200.00,0.0101
3199.00,0.0101
3198.00,0.0101
3197.00,0.0101
3196.00,0.0101
3195.00,0.0100
3194.00,0.0100
3193.00,0.0100
3192.00,0.0099
3191.00,0.0099
3190.00,0.0099
3189.00,0.0099
3188.00,0.0098
3187.00,0.0098
3186.00,0.0097
3185.00,0.0097
3184.00,0.0096
3183.00,0.0096
3182.00,0.0095
3181.00,0.0094
3180.00,0.0093
3179.00,0.0092
3178.00,0.0091
3177.00,0.0091
3176.00,0.0090
3175.00,0.0090
3174.00,0.0089
3173.00,0.0089
3172.00,0.0089
3171.00,0.0088
3170.00,0.0088
3169.00,0.0087
3168.00,0.0086
3167.00,0.0085
3166.00,0.0085
3165.00,0.0085
3164.00,0.0085
3163.00,0.0085
3162.00,0.0085
3161.00,0.0084
3160.00,0.0084
3159.00,0.0083
3158.00,0.0082
3157.00,0.0082
3156.00,0.0081
3155.00,0.0081
3154.00,0.0081
3153.00,0.0081
3152.00,0.0081
3151.00,0.0081
3150.00,0.0081
3149.00,0.0080
3148.00,0.0080
3147.00,0.0079
3146.00,0.0079
3145.00,0.0078
3144.00,0.0078
3143.00,0.0077
3142.00,0.0077
3141.00,0.0076
3140.00,0.0076
3139.00,0.0076
3138.00,0.0075
3137.00,0.0075
3136.00,0.0075
3135.00,0.0074
3134.00,0.0073
3133.00,0.0073
3132.00,0.0072
3131.00,0.0072
3130.00,0.0072
3129.00,0.0072
3128.00,0.0072
3127.00,0.0072
3126.00,0.0071
3125.00,0.0071
3124.00,0.0070
3123.00,0.0070
3122.00,0.0069
3121.00,0.0069
3120.00,0.0069
3119.00,0.0068
3118.00,0.0068
3117.00,0.0067
3116.00,0.0067
3115.00,0.0067
3114.00,0.0066
3113.00,0.0066
3112.00,0.0066
3111.00,0.0066
3110.00,0.0066
3109.00,0.0065
3108.00,0.0065
3107.00,0.0065
3106.00,0.0065
3105.00,0.0064
3104.00,0.0064
3103.00,0.0064
3102.00,0.0063
3101.00,0.0062
3100.00,0.0062
3099.00,0.0061
3098.00,0.0061
3097.00,0.0061
3096.00,0.0061
3095.00,0.0061
3094.00,0.0061
3093.00,0.0061
3092.00,0.0062
3091.00,0.0062
3090.00,0.0062
3089.00,0.0062
3088.00,0.0061
3087.00,0.0061
3086.00,0.0061
3085.00,0.0061
3084.00,0.0061
3083.00,0.0061
3082.00,0.0060
3081.00,0.0060
3080.00,0.0060
3079.00,0.0059
3078.00,0.0059
3077.00,0.0059
3076.00,0.0059
3075.00,0.0059
3074.00,0.0059
3073.00,0.0060
3072.00,0.0060
3071.00,0.0060
3070.00,0.0060
3069.00,0.0059
3068.00,0.0059
3067.00,0.0060
3066.00,0.0060
3065.00,0.0060
3064.00,0.0060
3063.00,0.0060
3062.00,0.0060
3061.00,0.0059
3060.00,0.0060
3059.00,0.0060
3058.00,0.0060
3057.00,0.0060
3056.00,0.0060
3055.00,0.0060
3054.00,0.0060
3053.00,0.0060
3052.00,0.0060
3051.00,0.0061
3050.00,0.0061
3049.00,0.0061
3048.00,0.0061
3047.00,0.0060
3046.00,0.0060
3045.00,0.0060
3044.00,0.0061
3043.00,0.0061
3042.00,0.0061
3041.00,0.0061
3040.00,0.0062
3039.00,0.0062
3038.00,0.0063
3037.00,0.0063
3036.00,0.0063
3035.00,0.0063
3034.00,0.0063
3033.00,0.0064
3032.00,0.0064
3031.00,0.0065
3030.00,0.0065
3029.00,0.0066
3028.00,0.0066
3027.00,0.0067
3026.00,0.0067
3025.00,0.0067
3024.00,0.0068
3023.00,0.0069
3022.00,0.0070
3021.00,0.0071
3020.00,0.0072
3019.00,0.0073
3018.00,0.0075
3017.00,0.0077
3016.00,0.0079
3015.00,0.0082
3014.00,0.0085
3013.00,0.0088
3012.00,0.0091
3011.00,0.0094
3010.00,0.0097
3009.00,0.0101
3008.00,0.0105
3007.00,0.0110
3006.00,0.0115
3005.00,0.0120
3004.00,0.0126
3003.00,0.0131
3002.00,0.0136
3001.00,0.0142
3000.00,0.0147
2999.00,0.0153
2998.00,0.0158
2997.00,0.0162
2996.00,0.0167
2995.00,0.0172
2994.00,0.0178
2993.00,0.0184
2992.00,0.0191
2991.00,0.0197
2990.00,0.0204
2989.00,0.0212
2988.00,0.0221
2987.00,0.0233
2986.00,0.0247
2985.00,0.0266
2984.00,0.0287
2983.00,0.0309
2982.00,0.0329
2981.00,0.0345
2980.00,0.0359
2979.00,0.0372
2978.00,0.0388
2977.00,0.0407
2976.00,0.0432
2975.00,0.0462
2974.00,0.0499
2973.00,0.0543
2972.00,0.0591
2971.00,0.0643
2970.00,0.0698
2969.00,0.0758
2968.00,0.0823
2967.00,0.0893
2966.00,0.0967
2965.00,0.1043
2964.00,0.1116
2963.00,0.1184
2962.00,0.1243
2961.00,0.1293
2960.00,0.1335
2959.00,0.1371
2958.00,0.1408
2957.00,0.1448
2956.00,0.1497
2955.00,0.1556
2954.00,0.1623
2953.00,0.1693
2952.00,0.1757
2951.00,0.1804
2950.00,0.1824
2949.00,0.1809
2948.00,0.1757
2947.00,0.1673
2946.00,0.1568
2945.00,0.1454
2944.00,0.1344
2943.00,0.1250
2942.00,0.1178
2941.00,0.1129
2940.00,0.1104
2939.00,0.1099
2938.00,0.1114
2937.00,0.1145
2936.00,0.1193
2935.00,0.1254
2934.00,0.1329
2933.00,0.1416
2932.00,0.1514
2931.00,0.1620
2930.00,0.1732
2929.00,0.1846
2928.00,0.1961
2927.00,0.2073
2926.00,0.2182
2925.00,0.2287
2924.00,0.2389
2923.00,0.2488
2922.00,0.2586
2921.00,0.2679
2920.00,0.2762
2919.00,0.2825
2918.00,0.2859
2917.00,0.2856
2916.00,0.2813
2915.00,0.2737
2914.00,0.2636
2913.00,0.2523
2912.00,0.2408
2911.00,0.2299
2910.00,0.2199
2909.00,0.2108
2908.00,0.2026
2907.00,0.1949
2906.00,0.1875
2905.00,0.1803
2904.00,0.1731
2903.00,0.1661
2902.00,0.1593
2901.00,0.1528
2900.00,0.1465
2899.00,0.1406
2898.00,0.1352
2897.00,0.1302
2896.00,0.1256
2895.00,0.1216
2894.00,0.1182
2893.00,0.1154
2892.00,0.1131
2891.00,0.1115
2890.00,0.1103
2889.00,0.1095
2888.00,0.1090
2887.00,0.1089
2886.00,0.1092
2885.00,0.1098
2884.00,0.1108
2883.00,0.1124
2882.00,0.1143
2881.00,0.1166
2880.00,0.1190
2879.00,0.1213
2878.00,0.1229
2877.00,0.1237
2876.00,0.1237
2875.00,0.1231
2874.00,0.1225
2873.00,0.1222
2872.00,0.1226
2871.00,0.1237
2870.00,0.1254
2869.00,0.1271
2868.00,0.1283
2867.00,0.1282
2866.00,0.1263
2865.00,0.1223
2864.00,0.1165
2863.00,0.1097
2862.00,0.1029
2861.00,0.0969
2860.00,0.0923
2859.00,0.0892
2858.00,0.0876
2857.00,0.0871
2856.00,0.0875
2855.00,0.0886
2854.00,0.0900
2853.00,0.0916
2852.00,0.0931
2851.00,0.0941
2850.00,0.0944
2849.00,0.0943
2848.00,0.0939
2847.00,0.0937
2846.00,0.0945
2845.00,0.0963
2844.00,0.0993
2843.00,0.1033
2842.00,0.1079
2841.00,0.1125
2840.00,0.1164
2839.00,0.1187
2838.00,0.1188
2837.00,0.1161
2836.00,0.1106
2835.00,0.1025
2834.00,0.0929
2833.00,0.0826
2832.00,0.0727
2831.00,0.0638
2830.00,0.0562
2829.00,0.0500
2828.00,0.0449
2827.00,0.0407
2826.00,0.0374
2825.00,0.0346
2824.00,0.0323
2823.00,0.0304
2822.00,0.0287
2821.00,0.0273
2820.00,0.0260
2819.00,0.0249
2818.00,0.0239
2817.00,0.0231
2816.00,0.0224
2815.00,0.0217
2814.00,0.0211
2813.00,0.0205
2812.00,0.0200
2811.00,0.0194
2810.00,0.0189
2809.00,0.0183
2808.00,0.0177
2807.00,0.0171
2806.00,0.0165
2805.00,0.0158
2804.00,0.0152
2803.00,0.0146
2802.00,0.0140
2801.00,0.0136
2800.00,0.0131
2799.00,0.0128
2798.00,0.0125
2797.00,0.0123
2796.00,0.0121
2795.00,0.0118
2794.00,0.0115
2793.00,0.0113
2792.00,0.0110
2791.00,0.0107
2790.00,0.0104
2789.00,0.0101
2788.00,0.0098
2787.00,0.0096
2786.00,0.0093
2785.00,0.0091
2784.00,0.0088
2783.00,0.0086
2782.00,0.0084
2781.00,0.0083
2780.00,0.0081
2779.00,0.0079
2778.00,0.0077
2777.00,0.0076
2776.00,0.0075
2775.00,0.0074
2774.00,0.0073
2773.00,0.0072
2772.00,0.0072
2771.00,0.0072
2770.00,0.0071
2769.00,0.0071
2768.00,0.0071
2767.00,0.0070
2766.00,0.0070
2765.00,0.0069
2764.00,0.0069
2763.00,0.0069
2762.00,0.0068
2761.00,0.0068
2760.00,0.0068
2759.00,0.0067
2758.00,0.0067
2757.00,0.0066
2756.00,0.0066
2755.00,0.0066
2754.00,0.0066
2753.00,0.0066
2752.00,0.0065
2751.00,0.0065
2750.00,0.0064
2749.00,0.0064
2748.00,0.0064
2747.00,0.0064
2746.00,0.0065
2745.00,0.0066
2744.00,0.0066
2743.00,0.0067
2742.00,0.0068
2741.00,0.0069
2740.00,0.0070
2739.00,0.0071
2738.00,0.0072
2737.00,0.0073
2736.00,0.0075
2735.00,0.0076
2734.00,0.0078
2733.00,0.0079
2732.00,0.0080
2731.00,0.0082
2730.00,0.0084
2729.00,0.0086
2728.00,0.0089
2727.00,0.0092
2726.00,0.0095
2725.00,0.0097
2724.00,0.0098
2723.00,0.0099
2722.00,0.0098
2721.00,0.0096
2720.00,0.0093
2719.00,0.0090
2718.00,0.0086
2717.00,0.0083
2716.00,0.0080
2715.00,0.0078
2714.00,0.0076
2713.00,0.0074
2712.00,0.0072
2711.00,0.0070
2710.00,0.0068
2709.00,0.0067
2708.00,0.0065
2707.00,0.0064
2706.00,0.0063
2705.00,0.0062
2704.00,0.0060
2703.00,0.0059
2702.00,0.0059
2701.00,0.0058
2700.00,0.0058
2699.00,0.0057
2698.00,0.0057
2697.00,0.0056
2696.00,0.0056
2695.00,0.0056
2694.00,0.0056
2693.00,0.0056
2692.00,0.0056
2691.00,0.0056
2690.00,0.0056
2689.00,0.0056
2688.00,0.0057
2687.00,0.0057
2686.00,0.0057
2685.00,0.0057
2684.00,0.0057
2683.00,0.0056
2682.00,0.0056
2681.00,0.0056
2680.00,0.0056
2679.00,0.0057
2678.00,0.0057
2677.00,0.0057
2676.00,0.0057
2675.00,0.0056
2674.00,0.0056
2673.00,0.0056
2672.00,0.0056
2671.00,0.0056
2670.00,0.0056
2669.00,0.0056
2668.00,0.0056
2667.00,0.0056
2666.00,0.0056
2665.00,0.0057
2664.00,0.0057
2663.00,0.0058
2662.00,0.0058
2661.00,0.0059
2660.00,0.0059
2659.00,0.0059
2658.00,0.0059
2657.00,0.0059
2656.00,0.0058
2655.00,0.0058
2654.00,0.0057
2653.00,0.0056
2652.00,0.0055
2651.00,0.0055
2650.00,0.0054
2649.00,0.0054
2648.00,0.0054
2647.00,0.0054
2646.00,0.0053
2645.00,0.0053
2644.00,0.0052
2643.00,0.0051
2642.00,0.0051
2641.00,0.0050
2640.00,0.0050
2639.00,0.0049
2638.00,0.0049
2637.00,0.0049
2636.00,0.0049
2635.00,0.0049
2634.00,0.0049
2633.00,0.0049
2632.00,0.0049
2631.00,0.0049
2630.00,0.0049
2629.00,0.0049
2628.00,0.0049
2627.00,0.0049
2626.00,0.0049
2625.00,0.0049
2624.00,0.0049
2623.00,0.0049
2622.00,0.0048
2621.00,0.0048
2620.00,0.0048
2619.00,0.0049
2618.00,0.0049
2617.00,0.0049
2616.00,0.0050
2615.00,0.0049
2614.00,0.0049
2613.00,0.0049
2612.00,0.0048
2611.00,0.0047
2610.00,0.0047
2609.00,0.0045
2608.00,0.0044
2607.00,0.0043
2606.00,0.0042
2605.00,0.0042
2604.00,0.0042
2603.00,0.0041
2602.00,0.0041
2601.00,0.0041
2600.00,0.0041
2599.00,0.0040
2598.00,0.0040
2597.00,0.0040
2596.00,0.0039
2595.00,0.0039
2594.00,0.0040
2593.00,0.0040
2592.00,0.0041
2591.00,0.0041
2590.00,0.0042
2589.00,0.0043
2588.00,0.0044
2587.00,0.0045
2586.00,0.0046
2585.00,0.0047
2584.00,0.0048
2583.00,0.0049
2582.00,0.0049
2581.00,0.0048
2580.00,0.0046
2579.00,0.0045
2578.00,0.0043
2577.00,0.0042
2576.00,0.0041
2575.00,0.0040
2574.00,0.0039
2573.00,0.0037
2572.00,0.0036
2571.00,0.0035
2570.00,0.0034
2569.00,0.0033
2568.00,0.0033
2567.00,0.0033
2566.00,0.0033
2565.00,0.0032
2564.00,0.0032
2563.00,0.0031
2562.00,0.0031
2561.00,0.0032
2560.00,0.0032
2559.00,0.0031
2558.00,0.0031
2557.00,0.0030
2556.00,0.0029
2555.00,0.0028
2554.00,0.0028
2553.00,0.0028
2552.00,0.0028
2551.00,0.0027
2550.00,0.0027
2549.00,0.0027
2548.00,0.0026
2547.00,0.0026
2546.00,0.0026
2545.00,0.0027
2544.00,0.0027
2543.00,0.0028
2542.00,0.0027
2541.00,0.0027
2540.00,0.0026
2539.00,0.0026
2538.00,0.0025
2537.00,0.0025
2536.00,0.0024
2535.00,0.0024
2534.00,0.0024
2533.00,0.0024
2532.00,0.0024
2531.00,0.0024
2530.00,0.0024
2529.00,0.0024
2528.00,0.0023
2527.00,0.0023
2526.00,0.0023
2525.00,0.0022
2524.00,0.0022
2523.00,0.0022
2522.00,0.0022
2521.00,0.0021
2520.00,0.0021
2519.00,0.0020
2518.00,0.0020
2517.00,0.0020
2516.00,0.0020
2515.00,0.0020
2514.00,0.0020
2513.00,0.0020
2512.00,0.0019
2511.00,0.0019
2510.00,0.0019
2509.00,0.0019
2508.00,0.0019
2507.00,0.0019
2506.00,0.0019
2505.00,0.0018
2504.00,0.0018
2503.00,0.0017
2502.00,0.0017
2501.00,0.0018
2500.00,0.0018
2499.00,0.0018
2498.00,0.0018
2497.00,0.0018
2496.00,0.0017
2495.00,0.0018
2494.00,0.0018
2493.00,0.0018
2492.00,0.0018
2491.00,0.0017
2490.00,0.0017
2489.00,0.0017
2488.00,0.0017
2487.00,0.0017
2486.00,0.0017
2485.00,0.0018
2484.00,0.0018
2483.00,0.0017
2482.00,0.0017
2481.00,0.0017
2480.00,0.0017
2479.00,0.0017
2478.00,0.0017
2477.00,0.0018
2476.00,0.0018
2475.00,0.0018
2474.00,0.0017
2473.00,0.0016
2472.00,0.0015
2471.00,0.0015
2470.00,0.0016
2469.00,0.0016
2468.00,0.0017
2467.00,0.0018
2466.00,0.0018
2465.00,0.0017
2464.00,0.0016
2463.00,0.0016
2462.00,0.0016
2461.00,0.0016
2460.00,0.0017
2459.00,0.0017
2458.00,0.0018
2457.00,0.0018
2456.00,0.0018
2455.00,0.0018
2454.00,0.0018
2453.00,0.0018
2452.00,0.0018
2451.00,0.0018
2450.00,0.0018
2449.00,0.0018
2448.00,0.0019
2447.00,0.0019
2446.00,0.0018
2445.00,0.0018
2444.00,0.0018
2443.00,0.0018
2442.00,0.0019
2441.00,0.0019
2440.00,0.0019
2439.00,0.0019
2438.00,0.0018
2437.00,0.0018
2436.00,0.0018
2435.00,0.0018
2434.00,0.0018
2433.00,0.0018
2432.00,0.0019
2431.00,0.0019
2430.00,0.0019
2429.00,0.0019
2428.00,0.0019
2427.00,0.0019
2426.00,0.0019
2425.00,0.0019
2424.00,0.0019
2423.00,0.0019
2422.00,0.0018
2421.00,0.0018
2420.00,0.0018
2419.00,0.0017
2418.00,0.0017
2417.00,0.0017
2416.00,0.0017
2415.00,0.0016
2414.00,0.0015
2413.00,0.0015
2412.00,0.0015
2411.00,0.0015
2410.00,0.0016
2409.00,0.0017
2408.00,0.0017
2407.00,0.0017
2406.00,0.0016
2405.00,0.0016
2404.00,0.0015
2403.00,0.0015
2402.00,0.0015
2401.00,0.0016
2400.00,0.0016
2399.00,0.0016
2398.00,0.0015
2397.00,0.0014
2396.00,0.0014
2395.00,0.0013
2394.00,0.0013
2393.00,0.0014
2392.00,0.0014
2391.00,0.0015
2390.00,0.0015
2389.00,0.0015
2388.00,0.0015
2387.00,0.0014
2386.00,0.0013
2385.00,0.0013
2384.00,0.0012
2383.00,0.0011
2382.00,0.0011
2381.00,0.0010
2380.00,0.0009
2379.00,0.0009
2378.00,0.0008
2377.00,0.0008
2376.00,0.0007
2375.00,0.0007
2374.00,0.0008
2373.00,0.0009
2372.00,0.0010
2371.00,0.0010
2370.00,0.0009
2369.00,0.0008
2368.00,0.0007
2367.00,0.0006
2366.00,0.0006
2365.00,0.0006
2364.00,0.0006
2363.00,0.0006
2362.00,0.0007
2361.00,0.0007
2360.00,0.0008
2359.00,0.0008
2358.00,0.0008
2357.00,0.0007
2356.00,0.0007
2355.00,0.0007
2354.00,0.0007
2353.00,0.0007
2352.00,0.0007
2351.00,0.0007
2350.00,0.0007
2349.00,0.0007
2348.00,0.0008
2347.00,0.0010
2346.00,0.0011
2345.00,0.0010
2344.00,0.0010
2343.00,0.0009
2342.00,0.0009
2341.00,0.0009
2340.00,0.0009
2339.00,0.0009
2338.00,0.0009
2337.00,0.0010
2336.00,0.0011
2335.00,0.0012
2334.00,0.0012
2333.00,0.0012
2332.00,0.0012
2331.00,0.0011
2330.00,0.0011
2329.00,0.0012
2328.00,0.0014
2327.00,0.0017
2326.00,0.0021
2325.00,0.0025
2324.00,0.0026
2323.00,0.0026
2322.00,0.0023
2321.00,0.0020
2320.00,0.0018
2319.00,0.0017
2318.00,0.0017
2317.00,0.0016
2316.00,0.0015
2315.00,0.0015
2314.00,0.0015
2313.00,0.0015
2312.00,0.0015
2311.00,0.0015
2310.00,0.0015
2309.00,0.0015
2308.00,0.0016
2307.00,0.0016
2306.00,0.0016
2305.00,0.0017
2304.00,0.0017
2303.00,0.0017
2302.00,0.0017
2301.00,0.0017
2300.00,0.0017
2299.00,0.0017
2298.00,0.0017
2297.00,0.0017
2296.00,0.0017
2295.00,0.0018
2294.00,0.0018
2293.00,0.0019
2292.00,0.0020
2291.00,0.0021
2290.00,0.0022
2289.00,0.0023
2288.00,0.0024
2287.00,0.0024
2286.00,0.0025
2285.00,0.0024
2284.00,0.0023
2283.00,0.0021
2282.00,0.0020
2281.00,0.0020
2280.00,0.0020
2279.00,0.0020
2278.00,0.0021
2277.00,0.0020
2276.00,0.0020
2275.00,0.0019
2274.00,0.0018
2273.00,0.0017
2272.00,0.0016
2271.00,0.0017
2270.00,0.0018
2269.00,0.0019
2268.00,0.0019
2267.00,0.0018
2266.00,0.0017
2265.00,0.0016
2264.00,0.0015
2263.00,0.0015
2262.00,0.0015
2261.00,0.0015
2260.00,0.0016
2259.00,0.0017
2258.00,0.0018
2257.00,0.0018
2256.00,0.0018
2255.00,0.0018
2254.00,0.0017
2253.00,0.0016
2252.00,0.0015
2251.00,0.0015
2250.00,0.0014
2249.00,0.0015
2248.00,0.0016
2247.00,0.0017
2246.00,0.0017
2245.00,0.0017
2244.00,0.0017
2243.00,0.0016
2242.00,0.0015
2241.00,0.0015
2240.00,0.0016
2239.00,0.0017
2238.00,0.0017
2237.00,0.0017
2236.00,0.0017
2235.00,0.0017
2234.00,0.0017
2233.00,0.0017
2232.00,0.0017
2231.00,0.0016
2230.00,0.0014
2229.00,0.0012
2228.00,0.0011
2227.00,0.0010
2226.00,0.0011
2225.00,0.0011
2224.00,0.0012
2223.00,0.0012
2222.00,0.0012
2221.00,0.0012
2220.00,0.0013
2219.00,0.0013
2218.00,0.0012
2217.00,0.0011
2216.00,0.0010
2215.00,0.0010
2214.00,0.0011
2213.00,0.0012
2212.00,0.0013
2211.00,0.0013
2210.00,0.0013
2209.00,0.0013
2208.00,0.0012
2207.00,0.0011
2206.00,0.0011
2205.00,0.0010
2204.00,0.0010
2203.00,0.0011
2202.00,0.0011
2201.00,0.0012
2200.00,0.0012
2199.00,0.0013
2198.00,0.0014
2197.00,0.0014
2196.00,0.0013
2195.00,0.0011
2194.00,0.0010
2193.00,0.0010
2192.00,0.0013
2191.00,0.0016
2190.00,0.0019
2189.00,0.0021
2188.00,0.0021
2187.00,0.0019
2186.00,0.0017
2185.00,0.0016
2184.00,0.0017
2183.00,0.0017
2182.00,0.0015
2181.00,0.0014
2180.00,0.0015
2179.00,0.0017
2178.00,0.0020
2177.00,0.0020
2176.00,0.0018
2175.00,0.0015
2174.00,0.0011
2173.00,0.0010
2172.00,0.0010
2171.00,0.0012
2170.00,0.0014
2169.00,0.0016
2168.00,0.0019
2167.00,0.0021
2166.00,0.0021
2165.00,0.0021
2164.00,0.0021
2163.00,0.0021
2162.00,0.0020
2161.00,0.0015
2160.00,0.0004
2159.00,-0.0009
2158.00,-0.0020
2157.00,-0.0025
2156.00,-0.0025
2155.00,-0.0022
2154.00,-0.0019
2153.00,-0.0015
2152.00,-0.0011
2151.00,-0.0007
2150.00,-0.0005
2149.00,-0.0004
2148.00,-0.0004
2147.00,-0.0004
2146.00,-0.0004
2145.00,-0.0004
2144.00,-0.0005
2143.00,-0.0006
2142.00,-0.0006
2141.00,-0.0005
2140.00,-0.0003
2139.00,-0.0001
2138.00,-0.0001
2137.00,-0.0003
2136.00,-0.0005
2135.00,-0.0008
2134.00,-0.0009
2133.00,-0.0009
2132.00,-0.0007
2131.00,-0.0005
2130.00,-0.0004
2129.00,-0.0002
2128.00,-0.0001
2127.00,0.0000
2126.00,0.0002
2125.00,0.0002
2124.00,0.0003
2123.00,0.0003
2122.00,0.0003
2121.00,0.0003
2120.00,0.0005
2119.00,0.0007
2118.00,0.0009
2117.00,0.0012
2116.00,0.0013
2115.00,0.0014
2114.00,0.0013
2113.00,0.0012
2112.00,0.0011
2111.00,0.0009
2110.00,0.0007
2109.00,0.0006
2108.00,0.0006
2107.00,0.0007
2106.00,0.0009
2105.00,0.0010
2104.00,0.0009
2103.00,0.0009
2102.00,0.0008
2101.00,0.0009
2100.00,0.0009
2099.00,0.0009
2098.00,0.0009
2097.00,0.0008
2096.00,0.0008
2095.00,0.0007
2094.00,0.0007
2093.00,0.0007
2092.00,0.0007
2091.00,0.0006
2090.00,0.0005
2089.00,0.0004
2088.00,0.0005
2087.00,0.0007
2086.00,0.0009
2085.00,0.0010
2084.00,0.0011
2083.00,0.0012
2082.00,0.0011
2081.00,0.0010
2080.00,0.0009
2079.00,0.0008
2078.00,0.0007
2077.00,0.0007
2076.00,0.0008
2075.00,0.0008
2074.00,0.0008
2073.00,0.0007
2072.00,0.0008
2071.00,0.0008
2070.00,0.0009
2069.00,0.0010
2068.00,0.0010
2067.00,0.0010
2066.00,0.0010
2065.00,0.0010
2064.00,0.0009
2063.00,0.0007
2062.00,0.0005
2061.00,0.0005
2060.00,0.0006
2059.00,0.0007
2058.00,0.0009
2057.00,0.0011
2056.00,0.0014
2055.00,0.0015
2054.00,0.0015
2053.00,0.0016
2052.00,0.0016
2051.00,0.0015
2050.00,0.0013
2049.00,0.0011
2048.00,0.0008
2047.00,0.0006
2046.00,0.0005
2045.00,0.0005
2044.00,0.0006
2043.00,0.0008
2042.00,0.0010
2041.00,0.0011
2040.00,0.0013
2039.00,0.0014
2038.00,0.0014
2037.00,0.0012
2036.00,0.0009
2035.00,0.0005
2034.00,0.0003
2033.00,0.0002
2032.00,0.0002
2031.00,0.0000
2030.00,-0.0002
2029.00,-0.0003
2028.00,-0.0004
2027.00,-0.0004
2026.00,-0.0003
2025.00,-0.0003
2024.00,-0.0002
2023.00,-0.0002
2022.00,-0.0001
2021.00,0.0002
2020.00,0.0004
2019.00,0.0005
2018.00,0.0004
2017.00,0.0003
2016.00,-0.0001
2015.00,-0.0004
2014.00,-0.0006
2013.00,-0.0005
2012.00,-0.0002
2011.00,-0.0000
2010.00,-0.0000
2009.00,-0.0002
2008.00,-0.0006
2007.00,-0.0011
2006.00,-0.0012
2005.00,-0.0009
2004.00,-0.0005
2003.00,-0.0002
2002.00,-0.0001
2001.00,-0.0001
2000.00,-0.0001
1999.00,-0.0002
1998.00,-0.0004
1997.00,-0.0006
1996.00,-0.0007
1995.00,-0.0008
1994.00,-0.0007
1993.00,-0.0003
1992.00,0.0001
1991.00,0.0004
1990.00,0.0006
1989.00,0.0007
1988.00,0.0008
1987.00,0.0008
1986.00,0.0008
1985.00,0.0008
1984.00,0.0009
1983.00,0.0011
1982.00,0.0014
1981.00,0.0019
1980.00,0.0023
1979.00,0.0020
1978.00,0.0013
1977.00,0.0004
1976.00,-0.0002
1975.00,-0.0005
1974.00,-0.0005
1973.00,-0.0004
1972.00,-0.0002
1971.00,-0.0000
1970.00,-0.0001
1969.00,-0.0003
1968.00,-0.0006
1967.00,-0.0007
1966.00,-0.0006
1965.00,-0.0004
1964.00,-0.0001
1963.00,0.0001
1962.00,0.0002
1961.00,0.0001
1960.00,-0.0002
1959.00,-0.0006
1958.00,-0.0008
1957.00,-0.0009
1956.00,-0.0008
1955.00,-0.0007
1954.00,-0.0006
1953.00,-0.0005
1952.00,-0.0004
1951.00,-0.0005
1950.00,-0.0007
1949.00,-0.0008
1948.00,-0.0009
1947.00,-0.0008
1946.00,-0.0008
1945.00,-0.0008
1944.00,-0.0008
1943.00,-0.0007
1942.00,-0.0006
1941.00,-0.0003
1940.00,-0.0001
1939.00,-0.0001
1938.00,-0.0000
1937.00,0.0001
1936.00,0.0003
1935.00,0.0004
1934.00,0.0004
1933.00,0.0003
1932.00,0.0002
1931.00,0.0001
1930.00,0.0000
1929.00,0.0000
1928.00,-0.0000
1927.00,-0.0000
1926.00,-0.0000
1925.00,0.0000
1924.00,0.0001
1923.00,0.0002
1922.00,0.0003
1921.00,0.0004
1920.00,0.0005
1919.00,0.0006
1918.00,0.0006
1917.00,0.0006
1916.00,0.0006
1915.00,0.0006
1914.00,0.0005
1913.00,0.0004
1912.00,0.0003
1911.00,0.0003
1910.00,0.0003
1909.00,0.0005
1908.00,0.0006
1907.00,0.0007
1906.00,0.0007
1905.00,0.0006
1904.00,0.0006
1903.00,0.0005
1902.00,0.0005
1901.00,0.0006
1900.00,0.0006
1899.00,0.0006
1898.00,0.0006
1897.00,0.0006
1896.00,0.0006
1895.00,0.0005
1894.00,0.0006
1893.00,0.0007
1892.00,0.0008
1891.00,0.0008
1890.00,0.0007
1889.00,0.0006
1888.00,0.0005
1887.00,0.0005
1886.00,0.0005
1885.00,0.0006
1884.00,0.0006
1883.00,0.0006
1882.00,0.0005
1881.00,0.0005
1880.00,0.0005
1879.00,0.0005
1878.00,0.0005
1877.00,0.0005
1876.00,0.0005
1875.00,0.0006
1874.00,0.0006
1873.00,0.0007
1872.00,0.0008
1871.00,0.0009
1870.00,0.0009
1869.00,0.0008
1868.00,0.0007
1867.00,0.0008
1866.00,0.0008
1865.00,0.0009
1864.00,0.0008
1863.00,0.0007
1862.00,0.0006
1861.00,0.0006
1860.00,0.0006
1859.00,0.0006
1858.00,0.0006
1857.00,0.0007
1856.00,0.0007
1855.00,0.0008
1854.00,0.0009
1853.00,0.0009
1852.00,0.0010
1851.00,0.0010
1850.00,0.0010
1849.00,0.0010
1848.00,0.0011
1847.00,0.0011
1846.00,0.0010
1845.00,0.0010
1844.00,0.0010
1843.00,0.0010
1842.00,0.0011
1841.00,0.0011
1840.00,0.0011
1839.00,0.0011
1838.00,0.0011
1837.00,0.0011
1836.00,0.0011
1835.00,0.0011
1834.00,0.0011
1833.00,0.0011
1832.00,0.0011
1831.00,0.0012
1830.00,0.0012
1829.00,0.0012
1828.00,0.0012
1827.00,0.0012
1826.00,0.0012
1825.00,0.0012
1824.00,0.0012
1823.00,0.0012
1822.00,0.0011
1821.00,0.0011
1820.00,0.0010
1819.00,0.0009
1818.00,0.0008
1817.00,0.0008
1816.00,0.0008
1815.00,0.0009
1814.00,0.0010
1813.00,0.0011
1812.00,0.0012
1811.00,0.0012
1810.00,0.0012
1809.00,0.0012
1808.00,0.0012
1807.00,0.0013
1806.00,0.0013
1805.00,0.0013
1804.00,0.0013
1803.00,0.0013
1802.00,0.0013
1801.00,0.0013
1800.00,0.0014
1799.00,0.0014
1798.00,0.0014
1797.00,0.0014
1796.00,0.0014
1795.00,0.0014
1794.00,0.0014
1793.00,0.0015
1792.00,0.0015
1791.00,0.0016
1790.00,0.0017
1789.00,0.0017
1788.00,0.0017
1787.00,0.0017
1786.00,0.0018
1785.00,0.0018
1784.00,0.0018
1783.00,0.0018
1782.00,0.0018
1781.00,0.0018
1780.00,0.0018
1779.00,0.0018
1778.00,0.0017
1777.00,0.0017
1776.00,0.0017
1775.00,0.0018
1774.00,0.0019
1773.00,0.0020
1772.00,0.0021
1771.00,0.0022
1770.00,0.0022
1769.00,0.0022
1768.00,0.0023
1767.00,0.0024
1766.00,0.0024
1765.00,0.0025
1764.00,0.0025
1763.00,0.0026
1762.00,0.0027
1761.00,0.0028
1760.00,0.0029
1759.00,0.0030
1758.00,0.0032
1757.00,0.0034
1756.00,0.0037
1755.00,0.0039
1754.00,0.0041
1753.00,0.0043
1752.00,0.0045
1751.00,0.0048
1750.00,0.0051
1749.00,0.0053
1748.00,0.0054
1747.00,0.0055
1746.00,0.0055
1745.00,0.0055
1744.00,0.0056
1743.00,0.0056
1742.00,0.0057
1741.00,0.0058
1740.00,0.0059
1739.00,0.0059
1738.00,0.0059
1737.00,0.0059
1736.00,0.0059
1735.00,0.0059
1734.00,0.0059
1733.00,0.0059
1732.00,0.0058
1731.00,0.0057
1730.00,0.0056
1729.00,0.0055
1728.00,0.0055
1727.00,0.0055
1726.00,0.0055
1725.00,0.0055
1724.00,0.0055
1723.00,0.0055
1722.00,0.0055
1721.00,0.0054
1720.00,0.0054
1719.00,0.0053
1718.00,0.0053
1717.00,0.0053
1716.00,0.0053
1715.00,0.0053
1714.00,0.0052
1713.00,0.0052
1712.00,0.0051
1711.00,0.0051
1710.00,0.0051
1709.00,0.0052
1708.00,0.0052
1707.00,0.0053
1706.00,0.0053
1705.00,0.0054
1704.00,0.0055
1703.00,0.0055
1702.00,0.0055
1701.00,0.0057
1700.00,0.0059
1699.00,0.0060
1698.00,0.0060
1697.00,0.0060
1696.00,0.0061
1695.00,0.0063
1694.00,0.0065
1693.00,0.0066
1692.00,0.0068
1691.00,0.0070
1690.00,0.0072
1689.00,0.0074
1688.00,0.0075
1687.00,0.0076
1686.00,0.0077
1685.00,0.0081
1684.00,0.0085
1683.00,0.0089
1682.00,0.0091
1681.00,0.0093
1680.00,0.0094
1679.00,0.0095
1678.00,0.0096
1677.00,0.0098
1676.00,0.0101
1675.00,0.0104
1674.00,0.0106
1673.00,0.0108
1672.00,0.0109
1671.00,0.0110
1670.00,0.0112
1669.00,0.0113
1668.00,0.0115
1667.00,0.0115
1666.00,0.0115
1665.00,0.0116
1664.00,0.0117
1663.00,0.0118
1662.00,0.0119
1661.00,0.0120
1660.00,0.0121
1659.00,0.0122
1658.00,0.0123
1657.00,0.0123
1656.00,0.0123
1655.00,0.0123
1654.00,0.0124
1653.00,0.0126
1652.00,0.0129
1651.00,0.0131
1650.00,0.0133
1649.00,0.0134
1648.00,0.0137
1647.00,0.0139
1646.00,0.0140
1645.00,0.0141
1644.00,0.0140
1643.00,0.0139
1642.00,0.0138
1641.00,0.0137
1640.00,0.0137
1639.00,0.0137
1638.00,0.0138
1637.00,0.0138
1636.00,0.0139
1635.00,0.0138
1634.00,0.0138
1633.00,0.0138
1632.00,0.0138
1631.00,0.0138
1630.00,0.0138
1629.00,0.0138
1628.00,0.0137
1627.00,0.0137
1626.00,0.0136
1625.00,0.0135
1624.00,0.0135
1623.00,0.0135
1622.00,0.0135
1621.00,0.0135
1620.00,0.0135
1619.00,0.0134
1618.00,0.0134
1617.00,0.0135
1616.00,0.0135
1615.00,0.0135
1614.00,0.0135
1613.00,0.0135
1612.00,0.0136
1611.00,0.0137
1610.00,0.0137
1609.00,0.0138
1608.00,0.0139
1607.00,0.0139
1606.00,0.0139
1605.00,0.0140
1604.00,0.0140
1603.00,0.0140
1602.00,0.0140
1601.00,0.0141
1600.00,0.0141
1599.00,0.0141
1598.00,0.0141
1597.00,0.0141
1596.00,0.0142
1595.00,0.0142
1594.00,0.0142
1593.00,0.0141
1592.00,0.0141
1591.00,0.0140
1590.00,0.0139
1589.00,0.0139
1588.00,0.0138
1587.00,0.0137
1586.00,0.0136
1585.00,0.0135
1584.00,0.0134
1583.00,0.0133
1582.00,0.0132
1581.00,0.0131
1580.00,0.0130
1579.00,0.0129
1578.00,0.0128
1577.00,0.0127
1576.00,0.0126
1575.00,0.0124
1574.00,0.0123
1573.00,0.0122
1572.00,0.0121
1571.00,0.0120
1570.00,0.0119
1569.00,0.0118
1568.00,0.0117
1567.00,0.0115
1566.00,0.0114
1565.00,0.0113
1564.00,0.0111
1563.00,0.0110
1562.00,0.0108
1561.00,0.0107
1560.00,0.0107
1559.00,0.0105
1558.00,0.0104
1557.00,0.0104
1556.00,0.0105
1555.00,0.0104
1554.00,0.0104
1553.00,0.0103
1552.00,0.0103
1551.00,0.0103
1550.00,0.0103
1549.00,0.0102
1548.00,0.0101
1547.00,0.0101
1546.00,0.0100
1545.00,0.0100
1544.00,0.0100
1543.00,0.0099
1542.00,0.0098
1541.00,0.0097
1540.00,0.0095
1539.00,0.0092
1538.00,0.0091
1537.00,0.0090
1536.00,0.0089
1535.00,0.0088
1534.00,0.0088
1533.00,0.0088
1532.00,0.0087
1531.00,0.0086
1530.00,0.0085
1529.00,0.0084
1528.00,0.0084
1527.00,0.0083
1526.00,0.0083
1525.00,0.0083
1524.00,0.0083
1523.00,0.0084
1522.00,0.0084
1521.00,0.0084
1520.00,0.0084
1519.00,0.0083
1518.00,0.0083
1517.00,0.0083
1516.00,0.0084
1515.00,0.0084
1514.00,0.0084
1513.00,0.0085
1512.00,0.0086
1511.00,0.0086
1510.00,0.0087
1509.00,0.0088
1508.00,0.0089
1507.00,0.0089
1506.00,0.0089
1505.00,0.0090
1504.00,0.0092
1503.00,0.0093
1502.00,0.0094
1501.00,0.0097
1500.00,0.0100
1499.00,0.0103
1498.00,0.0106
1497.00,0.0111
1496.00,0.0115
1495.00,0.0119
1494.00,0.0122
1493.00,0.0126
1492.00,0.0131
1491.00,0.0137
1490.00,0.0142
1489.00,0.0148
1488.00,0.0153
1487.00,0.0157
1486.00,0.0161
1485.00,0.0167
1484.00,0.0173
1483.00,0.0180
1482.00,0.0188
1481.00,0.0198
1480.00,0.0209
1479.00,0.0220
1478.00,0.0235
1477.00,0.0257
1476.00,0.0284
1475.00,0.0316
1474.00,0.0358
1473.00,0.0418
1472.00,0.0486
1471.00,0.0551
1470.00,0.0613
1469.00,0.0677
1468.00,0.0748
1467.00,0.0825
1466.00,0.0915
1465.00,0.1012
1464.00,0.1096
1463.00,0.1152
1462.00,0.1186
1461.00,0.1207
1460.00,0.1220
1459.00,0.1227
1458.00,0.1230
1457.00,0.1230
1456.00,0.1223
1455.00,0.1210
1454.00,0.1195
1453.00,0.1174
1452.00,0.1144
1451.00,0.1103
1450.00,0.1050
1449.00,0.0978
1448.00,0.0888
1447.00,0.0795
1446.00,0.0712
1445.00,0.0643
1444.00,0.0584
1443.00,0.0536
1442.00,0.0500
1441.00,0.0476
1440.00,0.0461
1439.00,0.0457
1438.00,0.0461
1437.00,0.0466
1436.00,0.0461
1435.00,0.0439
1434.00,0.0405
1433.00,0.0363
1432.00,0.0319
1431.00,0.0279
1430.00,0.0248
1429.00,0.0226
1428.00,0.0210
1427.00,0.0201
1426.00,0.0196
1425.00,0.0190
1424.00,0.0186
1423.00,0.0183
1422.00,0.0183
1421.00,0.0181
1420.00,0.0180
1419.00,0.0178
1418.00,0.0177
1417.00,0.0175
1416.00,0.0172
1415.00,0.0171
1414.00,0.0171
1413.00,0.0170
1412.00,0.0168
1411.00,0.0167
1410.00,0.0167
1409.00,0.0167
1408.00,0.0167
1407.00,0.0169
1406.00,0.0171
1405.00,0.0173
1404.00,0.0174
1403.00,0.0177
1402.00,0.0181
1401.00,0.0185
1400.00,0.0188
1399.00,0.0192
1398.00,0.0197
1397.00,0.0200
1396.00,0.0204
1395.00,0.0210
1394.00,0.0215
1393.00,0.0219
1392.00,0.0223
1391.00,0.0230
1390.00,0.0239
1389.00,0.0253
1388.00,0.0273
1387.00,0.0303
1386.00,0.0343
1385.00,0.0396
1384.00,0.0470
1383.00,0.0577
1382.00,0.0726
1381.00,0.0921
1380.00,0.1168
1379.00,0.1451
1378.00,0.1725
1377.00,0.1926
1376.00,0.1992
1375.00,0.1891
1374.00,0.1653
1373.00,0.1368
1372.00,0.1111
1371.00,0.0902
1370.00,0.0735
1369.00,0.0609
1368.00,0.0521
1367.00,0.0467
1366.00,0.0437
1365.00,0.0425
1364.00,0.0426
1363.00,0.0438
1362.00,0.0458
1361.00,0.0480
1360.00,0.0497
1359.00,0.0502
1358.00,0.0492
1357.00,0.0466
1356.00,0.0430
1355.00,0.0389
1354.00,0.0350
1353.00,0.0315
1352.00,0.0287
1351.00,0.0265
1350.00,0.0246
1349.00,0.0230
1348.00,0.0218
1347.00,0.0207
1346.00,0.0198
1345.00,0.0190
1344.00,0.0183
1343.00,0.0178
1342.00,0.0174
1341.00,0.0170
1340.00,0.0166
1339.00,0.0163
1338.00,0.0161
1337.00,0.0160
1336.00,0.0160
1335.00,0.0162
1334.00,0.0164
1333.00,0.0168
1332.00,0.0172
1331.00,0.0175
1330.00,0.0176
1329.00,0.0175
1328.00,0.0172
1327.00,0.0167
1326.00,0.0161
1325.00,0.0155
1324.00,0.0149
1323.00,0.0144
1322.00,0.0140
1321.00,0.0137
1320.00,0.0135
1319.00,0.0133
1318.00,0.0130
1317.00,0.0129
1316.00,0.0128
1315.00,0.0127
1314.00,0.0127
1313.00,0.0127
1312.00,0.0127
1311.00,0.0128
1310.00,0.0131
1309.00,0.0136
1308.00,0.0143
1307.00,0.0152
1306.00,0.0161
1305.00,0.0167
1304.00,0.0169
1303.00,0.0167
1302.00,0.0163
1301.00,0.0161
1300.00,0.0160
1299.00,0.0161
1298.00,0.0162
1297.00,0.0163
1296.00,0.0164
1295.00,0.0162
1294.00,0.0159
1293.00,0.0153
1292.00,0.0148
1291.00,0.0142
1290.00,0.0137
1289.00,0.0134
1288.00,0.0131
1287.00,0.0129
1286.00,0.0128
1285.00,0.0127
1284.00,0.0125
1283.00,0.0123
1282.00,0.0122
1281.00,0.0122
1280.00,0.0122
1279.00,0.0122
1278.00,0.0122
1277.00,0.0123
1276.00,0.0124
1275.00,0.0125
1274.00,0.0127
1273.00,0.0128
1272.00,0.0130
1271.00,0.0132
1270.00,0.0134
1269.00,0.0137
1268.00,0.0140
1267.00,0.0144
1266.00,0.0147
1265.00,0.0150
1264.00,0.0153
1263.00,0.0156
1262.00,0.0159
1261.00,0.0162
1260.00,0.0167
1259.00,0.0172
1258.00,0.0178
1257.00,0.0182
1256.00,0.0184
1255.00,0.0183
1254.00,0.0178
1253.00,0.0172
1252.00,0.0166
1251.00,0.0161
1250.00,0.0156
1249.00,0.0152
1248.00,0.0148
1247.00,0.0145
1246.00,0.0142
1245.00,0.0140
1244.00,0.0138
1243.00,0.0137
1242.00,0.0136
1241.00,0.0134
1240.00,0.0133
1239.00,0.0132
1238.00,0.0131
1237.00,0.0130
1236.00,0.0129
1235.00,0.0128
1234.00,0.0127
1233.00,0.0127
1232.00,0.0126
1231.00,0.0125
1230.00,0.0125
1229.00,0.0125
1228.00,0.0125
1227.00,0.0126
1226.00,0.0128
1225.00,0.0129
1224.00,0.0132
1223.00,0.0135
1222.00,0.0139
1221.00,0.0142
1220.00,0.0144
1219.00,0.0145
1218.00,0.0144
1217.00,0.0141
1216.00,0.0138
1215.00,0.0135
1214.00,0.0131
1213.00,0.0127
1212.00,0.0124
1211.00,0.0121
1210.00,0.0118
1209.00,0.0117
1208.00,0.0115
1207.00,0.0114
1206.00,0.0113
1205.00,0.0113
1204.00,0.0113
1203.00,0.0113
1202.00,0.0112
1201.00,0.0112
1200.00,0.0112
1199.00,0.0112
1198.00,0.0113
1197.00,0.0114
1196.00,0.0114
1195.00,0.0115
1194.00,0.0115
1193.00,0.0116
1192.00,0.0117
1191.00,0.0117
1190.00,0.0118
1189.00,0.0119
1188.00,0.0121
1187.00,0.0122
1186.00,0.0124
1185.00,0.0126
1184.00,0.0128
1183.00,0.0130
1182.00,0.0133
1181.00,0.0136
1180.00,0.0140
1179.00,0.0145
1178.00,0.0151
1177.00,0.0159
1176.00,0.0169
1175.00,0.0182
1174.00,0.0198
1173.00,0.0218
1172.00,0.0241
1171.00,0.0267
1170.00,0.0292
1169.00,0.0313
1168.00,0.0326
1167.00,0.0330
1166.00,0.0326
1165.00,0.0316
1164.00,0.0305
1163.00,0.0294
1162.00,0.0285
1161.00,0.0277
1160.00,0.0272
1159.00,0.0268
1158.00,0.0265
1157.00,0.0264
1156.00,0.0263
1155.00,0.0264
1154.00,0.0264
1153.00,0.0264
1152.00,0.0261
1151.00,0.0255
1150.00,0.0247
1149.00,0.0238
1148.00,0.0229
1147.00,0.0219
1146.00,0.0211
1145.00,0.0203
1144.00,0.0196
1143.00,0.0190
1142.00,0.0184
1141.00,0.0180
1140.00,0.0176
1139.00,0.0173
1138.00,0.0170
1137.00,0.0167
1136.00,0.0164
1135.00,0.0162
1134.00,0.0161
1133.00,0.0160
1132.00,0.0160
1131.00,0.0161
1130.00,0.0162
1129.00,0.0164
1128.00,0.0165
1127.00,0.0166
1126.00,0.0167
1125.00,0.0168
1124.00,0.0168
1123.00,0.0168
1122.00,0.0168
1121.00,0.0167
1120.00,0.0167
1119.00,0.0166
1118.00,0.0166
1117.00,0.0165
1116.00,0.0166
1115.00,0.0166
1114.00,0.0165
1113.00,0.0165
1112.00,0.0166
1111.00,0.0167
1110.00,0.0170
1109.00,0.0173
1108.00,0.0177
1107.00,0.0183
1106.00,0.0190
1105.00,0.0197
1104.00,0.0202
1103.00,0.0205
1102.00,0.0205
1101.00,0.0201
1100.00,0.0196
1099.00,0.0190
1098.00,0.0184
1097.00,0.0180
1096.00,0.0176
1095.00,0.0173
1094.00,0.0171
1093.00,0.0169
1092.00,0.0169
1091.00,0.0168
1090.00,0.0168
1089.00,0.0166
1088.00,0.0165
1087.00,0.0164
1086.00,0.0164
1085.00,0.0164
1084.00,0.0164
1083.00,0.0164
1082.00,0.0164
1081.00,0.0163
1080.00,0.0161
1079.00,0.0160
1078.00,0.0158
1077.00,0.0157
1076.00,0.0155
1075.00,0.0154
1074.00,0.0154
1073.00,0.0153
1072.00,0.0151
1071.00,0.0150
1070.00,0.0149
1069.00,0.0148
1068.00,0.0146
1067.00,0.0145
1066.00,0.0143
1065.00,0.0142
1064.00,0.0143
1063.00,0.0144
1062.00,0.0145
1061.00,0.0146
1060.00,0.0145
1059.00,0.0144
1058.00,0.0143
1057.00,0.0143
1056.00,0.0143
1055.00,0.0145
1054.00,0.0147
1053.00,0.0149
1052.00,0.0151
1051.00,0.0153
1050.00,0.0155
1049.00,0.0158
1048.00,0.0162
1047.00,0.0166
1046.00,0.0170
1045.00,0.0172
1044.00,0.0173
1043.00,0.0171
1042.00,0.0169
1041.00,0.0167
1040.00,0.0165
1039.00,0.0164
1038.00,0.0163
1037.00,0.0162
1036.00,0.0160
1035.00,0.0158
1034.00,0.0156
1033.00,0.0153
1032.00,0.0151
1031.00,0.0150
1030.00,0.0151
1029.00,0.0151
1028.00,0.0151
1027.00,0.0151
1026.00,0.0151
1025.00,0.0152
1024.00,0.0154
1023.00,0.0155
1022.00,0.0157
1021.00,0.0159
1020.00,0.0161
1019.00,0.0162
1018.00,0.0163
1017.00,0.0163
1016.00,0.0163
1015.00,0.0163
1014.00,0.0162
1013.00,0.0161
1012.00,0.0160
1011.00,0.0159
1010.00,0.0159
1009.00,0.0160
1008.00,0.0161
1007.00,0.0163
1006.00,0.0168
1005.00,0.0176
1004.00,0.0187
1003.00,0.0203
1002.00,0.0225
1001.00,0.0252
1000.00,0.0281
999.00,0.0304
998.00,0.0314
997.00,0.0308
996.00,0.0287
995.00,0.0256
994.00,0.0225
993.00,0.0197
992.00,0.0175
991.00,0.0160
990.00,0.0149
989.00,0.0142
988.00,0.0137
987.00,0.0134
986.00,0.0133
985.00,0.0134
984.00,0.0138
983.00,0.0144
982.00,0.0155
981.00,0.0169
980.00,0.0188
979.00,0.0214
978.00,0.0245
977.00,0.0281
976.00,0.0318
975.00,0.0353
974.00,0.0377
973.00,0.0386
972.00,0.0375
971.00,0.0347
970.00,0.0309
969.00,0.0271
968.00,0.0238
967.00,0.0212
966.00,0.0194
965.00,0.0181
964.00,0.0171
963.00,0.0163
962.00,0.0157
961.00,0.0152
960.00,0.0150
959.00,0.0149
958.00,0.0149
957.00,0.0147
956.00,0.0145
955.00,0.0143
954.00,0.0142
953.00,0.0142
952.00,0.0142
951.00,0.0141
950.00,0.0139
949.00,0.0136
948.00,0.0135
947.00,0.0134
946.00,0.0134
945.00,0.0135
944.00,0.0138
943.00,0.0141
942.00,0.0145
941.00,0.0147
940.00,0.0147
939.00,0.0144
938.00,0.0139
937.00,0.0132
936.00,0.0124
935.00,0.0118
934.00,0.0113
933.00,0.0109
932.00,0.0105
931.00,0.0102
930.00,0.0099
929.00,0.0098
928.00,0.0096
927.00,0.0095
926.00,0.0094
925.00,0.0093
924.00,0.0092
923.00,0.0090
922.00,0.0090
921.00,0.0089
920.00,0.0089
919.00,0.0089
918.00,0.0089
917.00,0.0088
916.00,0.0088
915.00,0.0089
914.00,0.0090
913.00,0.0091
912.00,0.0092
911.00,0.0093
910.00,0.0094
909.00,0.0096
908.00,0.0099
907.00,0.0104
906.00,0.0111
905.00,0.0122
904.00,0.0136
903.00,0.0155
902.00,0.0175
901.00,0.0194
900.00,0.0206
899.00,0.0208
898.00,0.0200
897.00,0.0182
896.00,0.0162
895.00,0.0143
894.00,0.0128
893.00,0.0116
892.00,0.0108
891.00,0.0102
890.00,0.0098
889.00,0.0096
888.00,0.0095
887.00,0.0093
886.00,0.0092
885.00,0.0092
884.00,0.0091
883.00,0.0091
882.00,0.0091
881.00,0.0092
880.00,0.0092
879.00,0.0093
878.00,0.0093
877.00,0.0093
876.00,0.0093
875.00,0.0094
874.00,0.0095
873.00,0.0096
872.00,0.0097
871.00,0.0098
870.00,0.0099
869.00,0.0098
868.00,0.0098
867.00,0.0100
866.00,0.0102
865.00,0.0103
864.00,0.0105
863.00,0.0105
862.00,0.0105
861.00,0.0106
860.00,0.0106
859.00,0.0108
858.00,0.0111
857.00,0.0114
856.00,0.0116
855.00,0.0116
854.00,0.0116
853.00,0.0116
852.00,0.0116
851.00,0.0117
850.00,0.0120
849.00,0.0124
848.00,0.0130
847.00,0.0141
846.00,0.0157
845.00,0.0183
844.00,0.0218
843.00,0.0257
842.00,0.0289
841.00,0.0299
840.00,0.0282
839.00,0.0246
838.00,0.0206
837.00,0.0174
836.00,0.0154
835.00,0.0143
834.00,0.0138
833.00,0.0135
832.00,0.0134
831.00,0.0132
830.00,0.0129
829.00,0.0126
828.00,0.0124
827.00,0.0123
826.00,0.0123
825.00,0.0124
824.00,0.0126
823.00,0.0128
822.00,0.0130
821.00,0.0132
820.00,0.0134
819.00,0.0137
818.00,0.0142
817.00,0.0148
816.00,0.0158
815.00,0.0171
814.00,0.0187
813.00,0.0207
812.00,0.0229
811.00,0.0249
810.00,0.0265
809.00,0.0272
808.00,0.0268
807.00,0.0254
806.00,0.0234
805.00,0.0213
804.00,0.0195
803.00,0.0179
802.00,0.0167
801.00,0.0159
800.00,0.0152
799.00,0.0146
798.00,0.0141
797.00,0.0136
796.00,0.0132
795.00,0.0129
794.00,0.0127
793.00,0.0124
792.00,0.0120
791.00,0.0117
790.00,0.0114
789.00,0.0111
788.00,0.0109
787.00,0.0107
786.00,0.0106
785.00,0.0105
784.00,0.0104
783.00,0.0104
782.00,0.0103
781.00,0.0102
780.00,0.0100
779.00,0.0099
778.00,0.0099
777.00,0.0099
776.00,0.0099
775.00,0.0098
774.00,0.0098
773.00,0.0099
772.00,0.0099
771.00,0.0100
770.00,0.0100
769.00,0.0099
768.00,0.0099
767.00,0.0098
766.00,0.0097
765.00,0.0097
764.00,0.0096
763.00,0.0097
762.00,0.0098
761.00,0.0099
760.00,0.0101
759.00,0.0103
758.00,0.0104
757.00,0.0105
756.00,0.0105
755.00,0.0105
754.00,0.0106
753.00,0.0108
752.00,0.0110
751.00,0.0112
750.00,0.0113
749.00,0.0113
748.00,0.0113
747.00,0.0113
746.00,0.0115
745.00,0.0118
744.00,0.0121
743.00,0.0124
742.00,0.0128
741.00,0.0132
740.00,0.0135
739.00,0.0138
738.00,0.0141
737.00,0.0144
736.00,0.0148
735.00,0.0153
734.00,0.0159
733.00,0.0168
732.00,0.0178
731.00,0.0187
730.00,0.0194
729.00,0.0198
728.00,0.0198
727.00,0.0197
726.00,0.0198
725.00,0.0202
724.00,0.0207
723.00,0.0213
722.00,0.0218
721.00,0.0220
720.00,0.0218
719.00,0.0211
718.00,0.0200
717.00,0.0187
716.00,0.0175
715.00,0.0166
714.00,0.0159
713.00,0.0154
712.00,0.0150
711.00,0.0148
710.00,0.0147
709.00,0.0147
708.00,0.0147
707.00,0.0147
706.00,0.0146
705.00,0.0145
704.00,0.0144
703.00,0.0143
702.00,0.0141
701.00,0.0138
700.00,0.0136
699.00,0.0135
698.00,0.0136
697.00,0.0137
696.00,0.0137
695.00,0.0137
694.00,0.0136
693.00,0.0135
692.00,0.0134
691.00,0.0134
690.00,0.0135
689.00,0.0135
688.00,0.0135
687.00,0.0134
686.00,0.0133
685.00,0.0132
684.00,0.0132
683.00,0.0135
682.00,0.0137
681.00,0.0137
680.00,0.0135
679.00,0.0133
678.00,0.0132
677.00,0.0133
676.00,0.0135
675.00,0.0139
674.00,0.0142
673.00,0.0144
672.00,0.0144
671.00,0.0143
670.00,0.0144
669.00,0.0143
668.00,0.0141
667.00,0.0139
666.00,0.0136
665.00,0.0133
664.00,0.0132
663.00,0.0132
662.00,0.0132
661.00,0.0132
660.00,0.0131
659.00,0.0130
658.00,0.0129
657.00,0.0129
656.00,0.0128
655.00,0.0128
654.00,0.0128
653.00,0.0128
652.00,0.0128
651.00,0.0127
650.00,0.0127
649.00,0.0125
648.00,0.0123
647.00,0.0121
646.00,0.0122
645.00,0.0124
644.00,0.0125
643.00,0.0126
642.00,0.0126
641.00,0.0127
640.00,0.0127
639.00,0.0127
638.00,0.0126
637.00,0.0125
636.00,0.0123
635.00,0.0124
634.00,0.0126
633.00,0.0128
632.00,0.0129
631.00,0.0129
630.00,0.0128
629.00,0.0127
628.00,0.0125
627.00,0.0124
626.00,0.0124
625.00,0.0124
624.00,0.0125
623.00,0.0126
622.00,0.0127
621.00,0.0127
620.00,0.0125
619.00,0.0124
618.00,0.0124
617.00,0.0124
616.00,0.0126
615.00,0.0128
614.00,0.0129
613.00,0.0129
612.00,0.0127
611.00,0.0125
610.00,0.0122
609.00,0.0121
608.00,0.0121
607.00,0.0123
606.00,0.0128
605.00,0.0132
604.00,0.0133
603.00,0.0130
602.00,0.0126
601.00,0.0123
600.00,0.0121
599.00,0.0120
598.00,0.0121
597.00,0.0122
596.00,0.0124
595.00,0.0125
594.00,0.0124
593.00,0.0123
592.00,0.0123
591.00,0.0123
590.00,0.0122
589.00,0.0121
588.00,0.0118
587.00,0.0116
586.00,0.0116
585.00,0.0118
584.00,0.0122
583.00,0.0126
582.00,0.0126
581.00,0.0126
580.00,0.0125
579.00,0.0125
578.00,0.0125
577.00,0.0126
576.00,0.0126
575.00,0.0126
574.00,0.0126
573.00,0.0127
572.00,0.0129
571.00,0.0130
570.00,0.0130
569.00,0.0129
568.00,0.0126
567.00,0.0124
566.00,0.0121
565.00,0.0119
564.00,0.0118
563.00,0.0117
562.00,0.0116
561.00,0.0115
560.00,0.0115
559.00,0.0118
558.00,0.0123
557.00,0.0126
556.00,0.0127
555.00,0.0125
554.00,0.0125
553.00,0.0127
552.00,0.0132
551.00,0.0135
550.00,0.0136
549.00,0.0136
548.00,0.0135
547.00,0.0136
546.00,0.0137
545.00,0.0139
544.00,0.0139
543.00,0.0139
542.00,0.0138
541.00,0.0138
540.00,0.0140
539.00,0.0144
538.00,0.0149
537.00,0.0153
536.00,0.0157
535.00,0.0160
534.00,0.0162
533.00,0.0162
532.00,0.0162
531.00,0.0161
530.00,0.0161
529.00,0.0160
528.00,0.0158
527.00,0.0154
526.00,0.0150
525.00,0.0145
524.00,0.0138
523.00,0.0132
522.00,0.0128
521.00,0.0127
520.00,0.0125
519.00,0.0122
518.00,0.0121
517.00,0.0124
516.00,0.0131
515.00,0.0135
514.00,0.0134
513.00,0.0127
512.00,0.0121
511.00,0.0120
510.00,0.0122
509.00,0.0127
508.00,0.0129
507.00,0.0130
506.00,0.0129
505.00,0.0129
504.00,0.0130
503.00,0.0133
502.00,0.0134
501.00,0.0132
500.00,0.0126
499.00,0.0118
498.00,0.0112
497.00,0.0109
496.00,0.0109
495.00,0.0108
494.00,0.0108
493.00,0.0109
492.00,0.0112
491.00,0.0115
490.00,0.0118
489.00,0.0121
488.00,0.0125
487.00,0.0130
486.00,0.0131
485.00,0.0126
484.00,0.0117
483.00,0.0110
482.00,0.0109
481.00,0.0113
480.00,0.0118
479.00,0.0122
478.00,0.0124
477.00,0.0124
476.00,0.0125
475.00,0.0128
474.00,0.0130
473.00,0.0133
472.00,0.0137
471.00,0.0145
470.00,0.0157
469.00,0.0171
468.00,0.0182
467.00,0.0188
466.00,0.0188
465.00,0.0185
464.00,0.0187
463.00,0.0198
462.00,0.0217
461.00,0.0238
460.00,0.0253
459.00,0.0260
458.00,0.0260
457.00,0.0254
456.00,0.0248
455.00,0.0241
454.00,0.0228
453.00,0.0210
452.00,0.0193
451.00,0.0183
450.00,0.0181
