Created as New Dataset,Sample 026 By Administrator Date Thursday, September 04 2025
cm-1,A
4000.00,0.0010
3999.00,0.0010
3998.00,0.0010
3997.00,0.0010
3996.00,0.0009
3995.00,0.0009
3994.00,0.0009
3993.00,0.0008
3992.00,0.0008
3991.00,0.0008
3990.00,0.0008
3989.00,0.0008
3988.00,0.0008
3987.00,0.0008
3986.00,0.0008
3985.00,0.0008
3984.00,0.0008
3983.00,0.0008
3982.00,0.0008
3981.00,0.0008
3980.00,0.0008
3979.00,0.0008
3978.00,0.0008
3977.00,0.0008
3976.00,0.0008
3975.00,0.0007
3974.00,0.0007
3973.00,0.0007
3972.00,0.0007
3971.00,0.0007
3970.00,0.0007
3969.00,0.0007
3968.00,0.0008
3967.00,0.0008
3966.00,0.0007
3965.00,0.0007
3964.00,0.0007
3963.00,0.0007
3962.00,0.0007
3961.00,0.0007
3960.00,0.0007
3959.00,0.0007
3958.00,0.0007
3957.00,0.0007
3956.00,0.0007
3955.00,0.0006
3954.00,0.0006
3953.00,0.0006
3952.00,0.0006
3951.00,0.0005
3950.00,0.0005
3949.00,0.0005
3948.00,0.0005
3947.00,0.0006
3946.00,0.0006
3945.00,0.0007
3944.00,0.0007
3943.00,0.0007
3942.00,0.0007
3941.00,0.0007
3940.00,0.0007
3939.00,0.0007
3938.00,0.0007
3937.00,0.0007
3936.00,0.0007
3935.00,0.0007
3934.00,0.0007
3933.00,0.0007
3932.00,0.0007
3931.00,0.0007
3930.00,0.0007
3929.00,0.0007
3928.00,0.0007
3927.00,0.0007
3926.00,0.0006
3925.00,0.0007
3924.00,0.0007
3923.00,0.0007
3922.00,0.0007
3921.00,0.0007
3920.00,0.0007
3919.00,0.0007
3918.00,0.0007
3917.00,0.0007
3916.00,0.0007
3915.00,0.0007
3914.00,0.0007
3913.00,0.0008
3912.00,0.0007
3911.00,0.0007
3910.00,0.0007
3909.00,0.0007
3908.00,0.0007
3907.00,0.0006
3906.00,0.0006
3905.00,0.0006
3904.00,0.0006
3903.00,0.0006
3902.00,0.0007
3901.00,0.0007
3900.00,0.0007
3899.00,0.0007
3898.00,0.0007
3897.00,0.0007
3896.00,0.0007
3895.00,0.0007
3894.00,0.0007
3893.00,0.0007
3892.00,0.0007
3891.00,0.0007
3890.00,0.0007
3889.00,0.0007
3888.00,0.0007
3887.00,0.0007
3886.00,0.0006
3885.00,0.0006
3884.00,0.0006
3883.00,0.0006
3882.00,0.0006
3881.00,0.0006
3880.00,0.0006
3879.00,0.0007
3878.00,0.0007
3877.00,0.0007
3876.00,0.0007
3875.00,0.0007
3874.00,0.0006
3873.00,0.0006
3872.00,0.0006
3871.00,0.0005
3870.00,0.0005
3869.00,0.0005
3868.00,0.0005
3867.00,0.0006
3866.00,0.0006
3865.00,0.0007
3864.00,0.0007
3863.00,0.0007
3862.00,0.0007
3861.00,0.0007
3860.00,0.0007
3859.00,0.0007
3858.00,0.0007
3857.00,0.0007
3856.00,0.0007
3855.00,0.0007
3854.00,0.0007
3853.00,0.0006
3852.00,0.0007
3851.00,0.0007
3850.00,0.0007
3849.00,0.0006
3848.00,0.0006
3847.00,0.0007
3846.00,0.0007
3845.00,0.0007
3844.00,0.0007
3843.00,0.0007
3842.00,0.0007
3841.00,0.0006
3840.00,0.0005
3839.00,0.0005
3838.00,0.0005
3837.00,0.0005
3836.00,0.0006
3835.00,0.0007
3834.00,0.0007
3833.00,0.0007
3832.00,0.0006
3831.00,0.0006
3830.00,0.0006
3829.00,0.0006
3828.00,0.0006
3827.00,0.0006
3826.00,0.0006
3825.00,0.0006
3824.00,0.0006
3823.00,0.0006
3822.00,0.0006
3821.00,0.0006
3820.00,0.0007
3819.00,0.0007
3818.00,0.0007
3817.00,0.0007
3816.00,0.0006
3815.00,0.0007
3814.00,0.0007
3813.00,0.0007
3812.00,0.0007
3811.00,0.0007
3810.00,0.0007
3809.00,0.0007
3808.00,0.0007
3807.00,0.0007
3806.00,0.0007
3805.00,0.0007
3804.00,0.0007
3803.00,0.0007
3802.00,0.0006
3801.00,0.0006
3800.00,0.0006
3799.00,0.0006
3798.00,0.0006
3797.00,0.0006
3796.00,0.0006
3795.00,0.0006
3794.00,0.0007
3793.00,0.0007
3792.00,0.0006
3791.00,0.0007
3790.00,0.0007
3789.00,0.0007
3788.00,0.0007
3787.00,0.0007
3786.00,0.0007
3785.00,0.0006
3784.00,0.0006
3783.00,0.0006
3782.00,0.0006
3781.00,0.0006
3780.00,0.0007
3779.00,0.0007
3778.00,0.0007
3777.00,0.0007
3776.00,0.0007
3775.00,0.0007
3774.00,0.0007
3773.00,0.0007
3772.00,0.0007
3771.00,0.0007
3770.00,0.0007
3769.00,0.0008
3768.00,0.0008
3767.00,0.0008
3766.00,0.0007
3765.00,0.0007
3764.00,0.0008
3763.00,0.0008
3762.00,0.0008
3761.00,0.0008
3760.00,0.0008
3759.00,0.0008
3758.00,0.0007
3757.00,0.0007
3756.00,0.0007
3755.00,0.0007
3754.00,0.0007
3753.00,0.0007
3752.00,0.0007
3751.00,0.0007
3750.00,0.0007
3749.00,0.0006
3748.00,0.0006
3747.00,0.0006
3746.00,0.0005
3745.00,0.0005
3744.00,0.0004
3743.00,0.0005
3742.00,0.0005
3741.00,0.0005
3740.00,0.0005
3739.00,0.0005
3738.00,0.0005
3737.00,0.0005
3736.00,0.0005
3735.00,0.0005
3734.00,0.0005
3733.00,0.0004
3732.00,0.0004
3731.00,0.0004
3730.00,0.0004
3729.00,0.0004
3728.00,0.0004
3727.00,0.0004
3726.00,0.0004
3725.00,0.0005
3724.00,0.0005
3723.00,0.0005
3722.00,0.0005
3721.00,0.0004
3720.00,0.0004
3719.00,0.0004
3718.00,0.0004
3717.00,0.0004
3716.00,0.0004
3715.00,0.0004
3714.00,0.0004
3713.00,0.0004
3712.00,0.0004
3711.00,0.0004
3710.00,0.0004
3709.00,0.0004
3708.00,0.0004
3707.00,0.0004
3706.00,0.0005
3705.00,0.0005
3704.00,0.0005
3703.00,0.0005
3702.00,0.0005
3701.00,0.0005
3700.00,0.0004
3699.00,0.0004
3698.00,0.0003
3697.00,0.0003
3696.00,0.0003
3695.00,0.0003
3694.00,0.0003
3693.00,0.0004
3692.00,0.0004
3691.00,0.0005
3690.00,0.0005
3689.00,0.0006
3688.00,0.0006
3687.00,0.0006
3686.00,0.0006
3685.00,0.0006
3684.00,0.0006
3683.00,0.0005
3682.00,0.0005
3681.00,0.0005
3680.00,0.0005
3679.00,0.0005
3678.00,0.0005
3677.00,0.0005
3676.00,0.0005
3675.00,0.0005
3674.00,0.0005
3673.00,0.0005
3672.00,0.0005
3671.00,0.0005
3670.00,0.0005
3669.00,0.0006
3668.00,0.0006
3667.00,0.0006
3666.00,0.0006
3665.00,0.0006
3664.00,0.0006
3663.00,0.0006
3662.00,0.0006
3661.00,0.0006
3660.00,0.0005
3659.00,0.0005
3658.00,0.0005
3657.00,0.0006
3656.00,0.0006
3655.00,0.0006
3654.00,0.0006
3653.00,0.0006
3652.00,0.0005
3651.00,0.0005
3650.00,0.0004
3649.00,0.0004
3648.00,0.0004
3647.00,0.0005
3646.00,0.0005
3645.00,0.0005
3644.00,0.0006
3643.00,0.0006
3642.00,0.0006
3641.00,0.0006
3640.00,0.0006
3639.00,0.0006
3638.00,0.0005
3637.00,0.0005
3636.00,0.0004
3635.00,0.0004
3634.00,0.0004
3633.00,0.0004
3632.00,0.0004
3631.00,0.0004
3630.00,0.0004
3629.00,0.0004
3628.00,0.0005
3627.00,0.0005
3626.00,0.0005
3625.00,0.0005
3624.00,0.0005
3623.00,0.0004
3622.00,0.0004
3621.00,0.0004
3620.00,0.0004
3619.00,0.0004
3618.00,0.0004
3617.00,0.0004
3616.00,0.0004
3615.00,0.0005
3614.00,0.0005
3613.00,0.0005
3612.00,0.0005
3611.00,0.0005
3610.00,0.0005
3609.00,0.0005
3608.00,0.0006
3607.00,0.0006
3606.00,0.0006
3605.00,0.0006
3604.00,0.0006
3603.00,0.0006
3602.00,0.0006
3601.00,0.0006
3600.00,0.0006
3599.00,0.0007
3598.00,0.0007
3597.00,0.0006
3596.00,0.0006
3595.00,0.0006
3594.00,0.0006
3593.00,0.0006
3592.00,0.0006
3591.00,0.0006
3590.00,0.0006
3589.00,0.0006
3588.00,0.0006
3587.00,0.0006
3586.00,0.0006
3585.00,0.0006
3584.00,0.0006
3583.00,0.0007
3582.00,0.0007
3581.00,0.0007
3580.00,0.0007
3579.00,0.0007
3578.00,0.0007
3577.00,0.0008
3576.00,0.0008
3575.00,0.0008
3574.00,0.0008
3573.00,0.0008
3572.00,0.0008
3571.00,0.0008
3570.00,0.0008
3569.00,0.0008
3568.00,0.0008
3567.00,0.0008
3566.00,0.0007
3565.00,0.0007
3564.00,0.0008
3563.00,0.0008
3562.00,0.0008
3561.00,0.0009
3560.00,0.0009
3559.00,0.0009
3558.00,0.0009
3557.00,0.0010
3556.00,0.0010
3555.00,0.0011
3554.00,0.0011
3553.00,0.0011
3552.00,0.0011
3551.00,0.0011
3550.00,0.0010
3549.00,0.0010
3548.00,0.0010
3547.00,0.0010
3546.00,0.0011
3545.00,0.0011
3544.00,0.0011
3543.00,0.0011
3542.00,0.0011
3541.00,0.0011
3540.00,0.0011
3539.00,0.0011
3538.00,0.0012
3537.00,0.0012
3536.00,0.0012
3535.00,0.0012
3534.00,0.0012
3533.00,0.0012
3532.00,0.0012
3531.00,0.0012
3530.00,0.0012
3529.00,0.0012
3528.00,0.0013
3527.00,0.0013
3526.00,0.0013
3525.00,0.0014
3524.00,0.0014
3523.00,0.0014
3522.00,0.0014
3521.00,0.0014
3520.00,0.0014
3519.00,0.0014
3518.00,0.0014
3517.00,0.0014
3516.00,0.0014
3515.00,0.0014
3514.00,0.0015
3513.00,0.0015
3512.00,0.0015
3511.00,0.0015
3510.00,0.0015
3509.00,0.0015
3508.00,0.0014
3507.00,0.0014
3506.00,0.0014
3505.00,0.0013
3504.00,0.0014
3503.00,0.0015
3502.00,0.0015
3501.00,0.0016
3500.00,0.0016
3499.00,0.0016
3498.00,0.0016
3497.00,0.0015
3496.00,0.0015
3495.00,0.0016
3494.00,0.0016
3493.00,0.0016
3492.00,0.0016
3491.00,0.0016
3490.00,0.0017
3489.00,0.0017
3488.00,0.0017
3487.00,0.0017
3486.00,0.0017
3485.00,0.0017
3484.00,0.0017
3483.00,0.0017
3482.00,0.0017
3481.00,0.0018
3480.00,0.0018
3479.00,0.0018
3478.00,0.0018
3477.00,0.0018
3476.00,0.0018
3475.00,0.0018
3474.00,0.0018
3473.00,0.0018
3472.00,0.0018
3471.00,0.0018
3470.00,0.0018
3469.00,0.0018
3468.00,0.0018
3467.00,0.0018
3466.00,0.0018
3465.00,0.0019
3464.00,0.0019
3463.00,0.0019
3462.00,0.0020
3461.00,0.0020
3460.00,0.0020
3459.00,0.0020
3458.00,0.0020
3457.00,0.0020
3456.00,0.0021
3455.00,0.0021
3454.00,0.0021
3453.00,0.0021
3452.00,0.0021
3451.00,0.0021
3450.00,0.0021
3449.00,0.0021
3448.00,0.0021
3447.00,0.0021
3446.00,0.0021
3445.00,0.0021
3444.00,0.0022
3443.00,0.0022
3442.00,0.0022
3441.00,0.0022
3440.00,0.0022
3439.00,0.0022
3438.00,0.0022
3437.00,0.0022
3436.00,0.0022
3435.00,0.0022
3434.00,0.0022
3433.00,0.0022
3432.00,0.0022
3431.00,0.0023
3430.00,0.0023
3429.00,0.0023
3428.00,0.0023
3427.00,0.0023
3426.00,0.0023
3425.00,0.0023
3424.00,0.0023
3423.00,0.0024
3422.00,0.0024
3421.00,0.0025
3420.00,0.0025
3419.00,0.0025
3418.00,0.0026
3417.00,0.0026
3416.00,0.0025
3415.00,0.0025
3414.00,0.0025
3413.00,0.0025
3412.00,0.0025
3411.00,0.0025
3410.00,0.0026
3409.00,0.0026
3408.00,0.0026
3407.00,0.0027
3406.00,0.0027
3405.00,0.0028
3404.00,0.0028
3403.00,0.0027
3402.00,0.0027
3401.00,0.0027
3400.00,0.0027
3399.00,0.0027
3398.00,0.0028
3397.00,0.0028
3396.00,0.0028
3395.00,0.0028
3394.00,0.0028
3393.00,0.0028
3392.00,0.0028
3391.00,0.0027
3390.00,0.0027
3389.00,0.0027
3388.00,0.0027
3387.00,0.0026
3386.00,0.0026
3385.00,0.0026
3384.00,0.0026
3383.00,0.0026
3382.00,0.0026
3381.00,0.0026
3380.00,0.0026
3379.00,0.0026
3378.00,0.0026
3377.00,0.0026
3376.00,0.0026
3375.00,0.0026
3374.00,0.0026
3373.00,0.0027
3372.00,0.0027
3371.00,0.0026
3370.00,0.0026
3369.00,0.0025
3368.00,0.0025
3367.00,0.0025
3366.00,0.0025
3365.00,0.0026
3364.00,0.0026
3363.00,0.0026
3362.00,0.0026
3361.00,0.0025
3360.00,0.0025
3359.00,0.0025
3358.00,0.0025
3357.00,0.0025
3356.00,0.0026
3355.00,0.0026
3354.00,0.0026
3353.00,0.0025
3352.00,0.0025
3351.00,0.0025
3350.00,0.0025
3349.00,0.0026
3348.00,0.0026
3347.00,0.0026
3346.00,0.0026
3345.00,0.0026
3344.00,0.0026
3343.00,0.0026
3342.00,0.0026
3341.00,0.0025
3340.00,0.0025
3339.00,0.0025
3338.00,0.0025
3337.00,0.0025
3336.00,0.0026
3335.00,0.0026
3334.00,0.0026
3333.00,0.0026
3332.00,0.0025
3331.00,0.0025
3330.00,0.0025
3329.00,0.0024
3328.00,0.0024
3327.00,0.0024
3326.00,0.0024
3325.00,0.0024
3324.00,0.0024
3323.00,0.0024
3322.00,0.0024
3321.00,0.0024
3320.00,0.0024
3319.00,0.0024
3318.00,0.0023
3317.00,0.0023
3316.00,0.0023
3315.00,0.0023
3314.00,0.0024
3313.00,0.0024
3312.00,0.0024
3311.00,0.0024
3310.00,0.0024
3309.00,0.0024
3308.00,0.0024
3307.00,0.0024
3306.00,0.0025
3305.00,0.0025
3304.00,0.0025
3303.00,0.0025
3302.00,0.0025
3301.00,0.0025
3300.00,0.0024
3299.00,0.0024
3298.00,0.0024
3297.00,0.0024
3296.00,0.0024
3295.00,0.0024
3294.00,0.0024
3293.00,0.0023
3292.00,0.0023
3291.00,0.0022
3290.00,0.0022
3289.00,0.0022
3288.00,0.0023
3287.00,0.0023
3286.00,0.0023
3285.00,0.0022
3284.00,0.0022
3283.00,0.0022
3282.00,0.0022
3281.00,0.0021
3280.00,0.0021
3279.00,0.0021
3278.00,0.0021
3277.00,0.0022
3276.00,0.0022
3275.00,0.0022
3274.00,0.0022
3273.00,0.0022
3272.00,0.0022
3271.00,0.0022
3270.00,0.0022
3269.00,0.0021
3268.00,0.0021
3267.00,0.0021
3266.00,0.0021
3265.00,0.0021
3264.00,0.0021
3263.00,0.0021
3262.00,0.0021
3261.00,0.0021
3260.00,0.0021
3259.00,0.0021
3258.00,0.0020
3257.00,0.0020
3256.00,0.0020
3255.00,0.0020
3254.00,0.0019
3253.00,0.0019
3252.00,0.0019
3251.00,0.0019
3250.00,0.0019
3249.00,0.0019
3248.00,0.0019
3247.00,0.0019
3246.00,0.0020
3245.00,0.0020
3244.00,0.0020
3243.00,0.0020
3242.00,0.0020
3241.00,0.0021
3240.00,0.0021
3239.00,0.0021
3238.00,0.0021
3237.00,0.0020
3236.00,0.0020
3235.00,0.0020
3234.00,0.0020
3233.00,0.0020
3232.00,0.0020
3231.00,0.0021
3230.00,0.0021
3229.00,0.0022
3228.00,0.0022
3227.00,0.0023
3226.00,0.0023
3225.00,0.0024
3224.00,0.0025
3223.00,0.0025
3222.00,0.0025
3221.00,0.0024
3220.00,0.0024
3219.00,0.0024
3218.00,0.0024
3217.00,0.0024
3216.00,0.0024
3215.00,0.0024
3214.00,0.0025
3213.00,0.0025
3212.00,0.0026
3211.00,0.0027
3210.00,0.0027
3209.00,0.0028
3208.00,0.0028
3207.00,0.0027
3206.00,0.0027
3205.00,0.0027
3204.00,0.0027
3203.00,0.0027
3202.00,0.0027
3201.00,0.0028
3200.00,0.0028
3199.00,0.0028
3198.00,0.0028
3197.00,0.0028
3196.00,0.0028
3195.00,0.0028
3194.00,0.0028
3193.00,0.0028
3192.00,0.0028
3191.00,0.0028
3190.00,0.0028
3189.00,0.0028
3188.00,0.0028
3187.00,0.0028
3186.00,0.0028
3185.00,0.0028
3184.00,0.0028
3183.00,0.0028
3182.00,0.0028
3181.00,0.0028
3180.00,0.0028
3179.00,0.0027
3178.00,0.0027
3177.00,0.0027
3176.00,0.0026
3175.00,0.0026
3174.00,0.0026
3173.00,0.0025
3172.00,0.0025
3171.00,0.0024
3170.00,0.0024
3169.00,0.0024
3168.00,0.0025
3167.00,0.0025
3166.00,0.0025
3165.00,0.0025
3164.00,0.0025
3163.00,0.0024
3162.00,0.0024
3161.00,0.0024
3160.00,0.0024
3159.00,0.0024
3158.00,0.0024
3157.00,0.0024
3156.00,0.0024
3155.00,0.0025
3154.00,0.0025
3153.00,0.0025
3152.00,0.0025
3151.00,0.0024
3150.00,0.0024
3149.00,0.0024
3148.00,0.0024
3147.00,0.0024
3146.00,0.0023
3145.00,0.0023
3144.00,0.0023
3143.00,0.0024
3142.00,0.0024
3141.00,0.0025
3140.00,0.0025
3139.00,0.0025
3138.00,0.0025
3137.00,0.0025
3136.00,0.0024
3135.00,0.0024
3134.00,0.0023
3133.00,0.0023
3132.00,0.0023
3131.00,0.0023
3130.00,0.0023
3129.00,0.0023
3128.00,0.0022
3127.00,0.0022
3126.00,0.0021
3125.00,0.0021
3124.00,0.0021
3123.00,0.0021
3122.00,0.0021
3121.00,0.0021
3120.00,0.0021
3119.00,0.0021
3118.00,0.0020
3117.00,0.0020
3116.00,0.0021
3115.00,0.0021
3114.00,0.0021
3113.00,0.0020
3112.00,0.0020
3111.00,0.0020
3110.00,0.0019
3109.00,0.0019
3108.00,0.0019
3107.00,0.0019
3106.00,0.0019
3105.00,0.0019
3104.00,0.0019
3103.00,0.0019
3102.00,0.0019
3101.00,0.0020
3100.00,0.0020
3099.00,0.0020
3098.00,0.0020
3097.00,0.0020
3096.00,0.0019
3095.00,0.0019
3094.00,0.0019
3093.00,0.0019
3092.00,0.0019
3091.00,0.0020
3090.00,0.0020
3089.00,0.0020
3088.00,0.0020
3087.00,0.0020
3086.00,0.0020
3085.00,0.0019
3084.00,0.0020
3083.00,0.0020
3082.00,0.0020
3081.00,0.0020
3080.00,0.0020
3079.00,0.0020
3078.00,0.0020
3077.00,0.0020
3076.00,0.0020
3075.00,0.0020
3074.00,0.0020
3073.00,0.0020
3072.00,0.0021
3071.00,0.0021
3070.00,0.0021
3069.00,0.0021
3068.00,0.0021
3067.00,0.0021
3066.00,0.0022
3065.00,0.0022
3064.00,0.0022
3063.00,0.0022
3062.00,0.0023
3061.00,0.0023
3060.00,0.0024
3059.00,0.0024
3058.00,0.0024
3057.00,0.0024
3056.00,0.0025
3055.00,0.0025
3054.00,0.0024
3053.00,0.0024
3052.00,0.0024
3051.00,0.0025
3050.00,0.0025
3049.00,0.0026
3048.00,0.0026
3047.00,0.0026
3046.00,0.0026
3045.00,0.0025
3044.00,0.0026
3043.00,0.0026
3042.00,0.0027
3041.00,0.0027
3040.00,0.0027
3039.00,0.0027
3038.00,0.0027
3037.00,0.0027
3036.00,0.0027
3035.00,0.0028
3034.00,0.0028
3033.00,0.0029
3032.00,0.0029
3031.00,0.0030
3030.00,0.0030
3029.00,0.0031
3028.00,0.0031
3027.00,0.0032
3026.00,0.0032
3025.00,0.0033
3024.00,0.0033
3023.00,0.0034
3022.00,0.0035
3021.00,0.0036
3020.00,0.0037
3019.00,0.0038
3018.00,0.0039
3017.00,0.0040
3016.00,0.0041
3015.00,0.0042
3014.00,0.0044
3013.00,0.0045
3012.00,0.0046
3011.00,0.0048
3010.00,0.0050
3009.00,0.0052
3008.00,0.0054
3007.00,0.0056
3006.00,0.0058
3005.00,0.0061
3004.00,0.0063
3003.00,0.0065
3002.00,0.0067
3001.00,0.0070
3000.00,0.0073
2999.00,0.0076
2998.00,0.0079
2997.00,0.0083
2996.00,0.0086
2995.00,0.0090
2994.00,0.0095
2993.00,0.0100
2992.00,0.0106
2991.00,0.0112
2990.00,0.0118
2989.00,0.0125
2988.00,0.0133
2987.00,0.0143
2986.00,0.0153
2985.00,0.0164
2984.00,0.0178
2983.00,0.0192
2982.00,0.0208
2981.00,0.0226
2980.00,0.0245
2979.00,0.0266
2978.00,0.0291
2977.00,0.0319
2976.00,0.0351
2975.00,0.0389
2974.00,0.0432
2973.00,0.0481
2972.00,0.0536
2971.00,0.0598
2970.00,0.0667
2969.00,0.0743
2968.00,0.0825
2967.00,0.0913
2966.00,0.1005
2965.00,0.1099
2964.00,0.1191
2963.00,0.1276
2962.00,0.1350
2961.00,0.1411
2960.00,0.1460
2959.00,0.1499
2958.00,0.1535
2957.00,0.1573
2956.00,0.1620
2955.00,0.1676
2954.00,0.1742
2953.00,0.1810
2952.00,0.1871
2951.00,0.1912
2950.00,0.1922
2949.00,0.1893
2948.00,0.1825
2947.00,0.1723
2946.00,0.1600
2945.00,0.1470
2944.00,0.1347
2943.00,0.1241
2942.00,0.1158
2941.00,0.1100
2940.00,0.1068
2939.00,0.1058
2938.00,0.1068
2937.00,0.1096
2936.00,0.1141
2935.00,0.1202
2934.00,0.1277
2933.00,0.1365
2932.00,0.1464
2931.00,0.1573
2930.00,0.1687
2929.00,0.1805
2928.00,0.1922
2927.00,0.2037
2926.00,0.2149
2925.00,0.2257
2924.00,0.2363
2923.00,0.2468
2922.00,0.2572
2921.00,0.2671
2920.00,0.2758
2919.00,0.2823
2918.00,0.2854
2917.00,0.2846
2916.00,0.2797
2915.00,0.2714
2914.00,0.2608
2913.00,0.2494
2912.00,0.2381
2911.00,0.2278
2910.00,0.2187
2909.00,0.2105
2908.00,0.2031
2907.00,0.1961
2906.00,0.1892
2905.00,0.1823
2904.00,0.1754
2903.00,0.1684
2902.00,0.1614
2901.00,0.1546
2900.00,0.1480
2899.00,0.1418
2898.00,0.1359
2897.00,0.1305
2896.00,0.1257
2895.00,0.1214
2894.00,0.1178
2893.00,0.1149
2892.00,0.1126
2891.00,0.1108
2890.00,0.1096
2889.00,0.1088
2888.00,0.1083
2887.00,0.1083
2886.00,0.1085
2885.00,0.1092
2884.00,0.1102
2883.00,0.1117
2882.00,0.1136
2881.00,0.1158
2880.00,0.1180
2879.00,0.1198
2878.00,0.1209
2877.00,0.1211
2876.00,0.1206
2875.00,0.1198
2874.00,0.1191
2873.00,0.1191
2872.00,0.1198
2871.00,0.1212
2870.00,0.1230
2869.00,0.1248
2868.00,0.1258
2867.00,0.1252
2866.00,0.1226
2865.00,0.1176
2864.00,0.1108
2863.00,0.1030
2862.00,0.0953
2861.00,0.0886
2860.00,0.0834
2859.00,0.0799
2858.00,0.0779
2857.00,0.0773
2856.00,0.0778
2855.00,0.0792
2854.00,0.0811
2853.00,0.0834
2852.00,0.0858
2851.00,0.0879
2850.00,0.0895
2849.00,0.0907
2848.00,0.0917
2847.00,0.0931
2846.00,0.0952
2845.00,0.0984
2844.00,0.1028
2843.00,0.1080
2842.00,0.1135
2841.00,0.1187
2840.00,0.1228
2839.00,0.1249
2838.00,0.1243
2837.00,0.1207
2836.00,0.1140
2835.00,0.1049
2834.00,0.0943
2833.00,0.0833
2832.00,0.0728
2831.00,0.0635
2830.00,0.0557
2829.00,0.0492
2828.00,0.0440
2827.00,0.0398
2826.00,0.0364
2825.00,0.0335
2824.00,0.0312
2823.00,0.0292
2822.00,0.0275
2821.00,0.0260
2820.00,0.0247
2819.00,0.0236
2818.00,0.0226
2817.00,0.0218
2816.00,0.0210
2815.00,0.0203
2814.00,0.0196
2813.00,0.0190
2812.00,0.0184
2811.00,0.0179
2810.00,0.0174
2809.00,0.0168
2808.00,0.0162
2807.00,0.0156
2806.00,0.0149
2805.00,0.0142
2804.00,0.0136
2803.00,0.0130
2802.00,0.0125
2801.00,0.0120
2800.00,0.0116
2799.00,0.0113
2798.00,0.0110
2797.00,0.0108
2796.00,0.0106
2795.00,0.0103
2794.00,0.0101
2793.00,0.0098
2792.00,0.0095
2791.00,0.0092
2790.00,0.0088
2789.00,0.0085
2788.00,0.0082
2787.00,0.0079
2786.00,0.0076
2785.00,0.0073
2784.00,0.0071
2783.00,0.0069
2782.00,0.0067
2781.00,0.0065
2780.00,0.0063
2779.00,0.0062
2778.00,0.0060
2777.00,0.0059
2776.00,0.0057
2775.00,0.0056
2774.00,0.0055
2773.00,0.0055
2772.00,0.0054
2771.00,0.0054
2770.00,0.0054
2769.00,0.0053
2768.00,0.0053
2767.00,0.0052
2766.00,0.0052
2765.00,0.0052
2764.00,0.0052
2763.00,0.0052
2762.00,0.0052
2761.00,0.0052
2760.00,0.0051
2759.00,0.0051
2758.00,0.0050
2757.00,0.0050
2756.00,0.0050
2755.00,0.0049
2754.00,0.0049
2753.00,0.0049
2752.00,0.0049
2751.00,0.0049
2750.00,0.0048
2749.00,0.0048
2748.00,0.0048
2747.00,0.0049
2746.00,0.0049
2745.00,0.0050
2744.00,0.0050
2743.00,0.0051
2742.00,0.0052
2741.00,0.0053
2740.00,0.0054
2739.00,0.0056
2738.00,0.0057
2737.00,0.0059
2736.00,0.0060
2735.00,0.0061
2734.00,0.0063
2733.00,0.0064
2732.00,0.0066
2731.00,0.0068
2730.00,0.0071
2729.00,0.0073
2728.00,0.0076
2727.00,0.0079
2726.00,0.0081
2725.00,0.0084
2724.00,0.0085
2723.00,0.0086
2722.00,0.0085
2721.00,0.0083
2720.00,0.0080
2719.00,0.0077
2718.00,0.0073
2717.00,0.0070
2716.00,0.0068
2715.00,0.0066
2714.00,0.0063
2713.00,0.0061
2712.00,0.0059
2711.00,0.0057
2710.00,0.0055
2709.00,0.0053
2708.00,0.0051
2707.00,0.0050
2706.00,0.0049
2705.00,0.0048
2704.00,0.0047
2703.00,0.0046
2702.00,0.0045
2701.00,0.0044
2700.00,0.0043
2699.00,0.0043
2698.00,0.0042
2697.00,0.0042
2696.00,0.0042
2695.00,0.0043
2694.00,0.0043
2693.00,0.0043
2692.00,0.0043
2691.00,0.0043
2690.00,0.0043
2689.00,0.0043
2688.00,0.0044
2687.00,0.0044
2686.00,0.0043
2685.00,0.0043
2684.00,0.0043
2683.00,0.0043
2682.00,0.0044
2681.00,0.0044
2680.00,0.0044
2679.00,0.0044
2678.00,0.0044
2677.00,0.0043
2676.00,0.0043
2675.00,0.0043
2674.00,0.0043
2673.00,0.0043
2672.00,0.0043
2671.00,0.0043
2670.00,0.0042
2669.00,0.0042
2668.00,0.0043
2667.00,0.0043
2666.00,0.0044
2665.00,0.0044
2664.00,0.0045
2663.00,0.0045
2662.00,0.0046
2661.00,0.0046
2660.00,0.0046
2659.00,0.0046
2658.00,0.0046
2657.00,0.0046
2656.00,0.0046
2655.00,0.0045
2654.00,0.0045
2653.00,0.0044
2652.00,0.0044
2651.00,0.0043
2650.00,0.0043
2649.00,0.0042
2648.00,0.0042
2647.00,0.0041
2646.00,0.0041
2645.00,0.0040
2644.00,0.0040
2643.00,0.0040
2642.00,0.0040
2641.00,0.0040
2640.00,0.0039
2639.00,0.0039
2638.00,0.0038
2637.00,0.0037
2636.00,0.0037
2635.00,0.0037
2634.00,0.0037
2633.00,0.0037
2632.00,0.0037
2631.00,0.0037
2630.00,0.0037
2629.00,0.0037
2628.00,0.0038
2627.00,0.0038
2626.00,0.0039
2625.00,0.0039
2624.00,0.0039
2623.00,0.0039
2622.00,0.0038
2621.00,0.0038
2620.00,0.0039
2619.00,0.0039
2618.00,0.0039
2617.00,0.0039
2616.00,0.0039
2615.00,0.0039
2614.00,0.0038
2613.00,0.0038
2612.00,0.0038
2611.00,0.0037
2610.00,0.0036
2609.00,0.0035
2608.00,0.0034
2607.00,0.0033
2606.00,0.0032
2605.00,0.0032
2604.00,0.0032
2603.00,0.0032
2602.00,0.0032
2601.00,0.0031
2600.00,0.0031
2599.00,0.0031
2598.00,0.0031
2597.00,0.0031
2596.00,0.0031
2595.00,0.0030
2594.00,0.0030
2593.00,0.0030
2592.00,0.0031
2591.00,0.0032
2590.00,0.0033
2589.00,0.0034
2588.00,0.0035
2587.00,0.0035
2586.00,0.0036
2585.00,0.0036
2584.00,0.0037
2583.00,0.0037
2582.00,0.0038
2581.00,0.0038
2580.00,0.0038
2579.00,0.0037
2578.00,0.0036
2577.00,0.0035
2576.00,0.0034
2575.00,0.0032
2574.00,0.0030
2573.00,0.0029
2572.00,0.0028
2571.00,0.0027
2570.00,0.0026
2569.00,0.0026
2568.00,0.0025
2567.00,0.0025
2566.00,0.0024
2565.00,0.0024
2564.00,0.0023
2563.00,0.0022
2562.00,0.0022
2561.00,0.0021
2560.00,0.0021
2559.00,0.0021
2558.00,0.0021
2557.00,0.0020
2556.00,0.0020
2555.00,0.0020
2554.00,0.0020
2553.00,0.0020
2552.00,0.0020
2551.00,0.0019
2550.00,0.0019
2549.00,0.0019
2548.00,0.0018
2547.00,0.0018
2546.00,0.0018
2545.00,0.0018
2544.00,0.0017
2543.00,0.0016
2542.00,0.0016
2541.00,0.0016
2540.00,0.0016
2539.00,0.0016
2538.00,0.0016
2537.00,0.0016
2536.00,0.0015
2535.00,0.0015
2534.00,0.0014
2533.00,0.0014
2532.00,0.0014
2531.00,0.0014
2530.00,0.0014
2529.00,0.0014
2528.00,0.0014
2527.00,0.0014
2526.00,0.0013
2525.00,0.0013
2524.00,0.0013
2523.00,0.0013
2522.00,0.0013
2521.00,0.0012
2520.00,0.0012
2519.00,0.0011
2518.00,0.0011
2517.00,0.0011
2516.00,0.0011
2515.00,0.0011
2514.00,0.0010
2513.00,0.0010
2512.00,0.0009
2511.00,0.0009
2510.00,0.0009
2509.00,0.0009
2508.00,0.0009
2507.00,0.0009
2506.00,0.0009
2505.00,0.0009
2504.00,0.0009
2503.00,0.0008
2502.00,0.0008
2501.00,0.0008
2500.00,0.0008
2499.00,0.0008
2498.00,0.0008
2497.00,0.0008
2496.00,0.0008
2495.00,0.0008
2494.00,0.0008
2493.00,0.0009
2492.00,0.0009
2491.00,0.0009
2490.00,0.0009
2489.00,0.0009
2488.00,0.0009
2487.00,0.0009
2486.00,0.0009
2485.00,0.0010
2484.00,0.0010
2483.00,0.0010
2482.00,0.0010
2481.00,0.0010
2480.00,0.0009
2479.00,0.0009
2478.00,0.0008
2477.00,0.0008
2476.00,0.0007
2475.00,0.0007
2474.00,0.0008
2473.00,0.0008
2472.00,0.0008
2471.00,0.0008
2470.00,0.0008
2469.00,0.0008
2468.00,0.0008
2467.00,0.0008
2466.00,0.0008
2465.00,0.0009
2464.00,0.0009
2463.00,0.0009
2462.00,0.0009
2461.00,0.0010
2460.00,0.0010
2459.00,0.0010
2458.00,0.0010
2457.00,0.0010
2456.00,0.0011
2455.00,0.0011
2454.00,0.0011
2453.00,0.0011
2452.00,0.0010
2451.00,0.0009
2450.00,0.0009
2449.00,0.0009
2448.00,0.0009
2447.00,0.0009
2446.00,0.0009
2445.00,0.0010
2444.00,0.0010
2443.00,0.0010
2442.00,0.0010
2441.00,0.0010
2440.00,0.0010
2439.00,0.0010
2438.00,0.0010
2437.00,0.0009
2436.00,0.0010
2435.00,0.0010
2434.00,0.0011
2433.00,0.0011
2432.00,0.0011
2431.00,0.0010
2430.00,0.0009
2429.00,0.0009
2428.00,0.0008
2427.00,0.0008
2426.00,0.0008
2425.00,0.0008
2424.00,0.0008
2423.00,0.0009
2422.00,0.0009
2421.00,0.0009
2420.00,0.0009
2419.00,0.0008
2418.00,0.0008
2417.00,0.0008
2416.00,0.0008
2415.00,0.0008
2414.00,0.0008
2413.00,0.0008
2412.00,0.0008
2411.00,0.0008
2410.00,0.0008
2409.00,0.0008
2408.00,0.0008
2407.00,0.0008
2406.00,0.0007
2405.00,0.0007
2404.00,0.0007
2403.00,0.0006
2402.00,0.0006
2401.00,0.0006
2400.00,0.0006
2399.00,0.0007
2398.00,0.0007
2397.00,0.0008
2396.00,0.0008
2395.00,0.0007
2394.00,0.0007
2393.00,0.0007
2392.00,0.0007
2391.00,0.0007
2390.00,0.0006
2389.00,0.0006
2388.00,0.0005
2387.00,0.0005
2386.00,0.0004
2385.00,0.0004
2384.00,0.0003
2383.00,0.0002
2382.00,0.0001
2381.00,0.0001
2380.00,0.0000
2379.00,0.0000
2378.00,0.0001
2377.00,0.0001
2376.00,0.0001
2375.00,0.0001
2374.00,0.0001
2373.00,0.0001
2372.00,0.0001
2371.00,0.0002
2370.00,0.0002
2369.00,0.0001
2368.00,0.0001
2367.00,0.0000
2366.00,0.0000
2365.00,0.0001
2364.00,0.0001
2363.00,0.0001
2362.00,0.0001
2361.00,0.0001
2360.00,0.0002
2359.00,0.0002
2358.00,0.0002
2357.00,0.0003
2356.00,0.0004
2355.00,0.0004
2354.00,0.0005
2353.00,0.0005
2352.00,0.0005
2351.00,0.0004
2350.00,0.0003
2349.00,0.0003
2348.00,0.0003
2347.00,0.0003
2346.00,0.0004
2345.00,0.0004
2344.00,0.0004
2343.00,0.0003
2342.00,0.0004
2341.00,0.0004
2340.00,0.0004
2339.00,0.0005
2338.00,0.0006
2337.00,0.0006
2336.00,0.0007
2335.00,0.0007
2334.00,0.0008
2333.00,0.0007
2332.00,0.0006
2331.00,0.0005
2330.00,0.0004
2329.00,0.0005
2328.00,0.0007
2327.00,0.0010
2326.00,0.0015
2325.00,0.0020
2324.00,0.0022
2323.00,0.0021
2322.00,0.0019
2321.00,0.0016
2320.00,0.0014
2319.00,0.0013
2318.00,0.0012
2317.00,0.0011
2316.00,0.0011
2315.00,0.0010
2314.00,0.0009
2313.00,0.0009
2312.00,0.0008
2311.00,0.0007
2310.00,0.0006
2309.00,0.0006
2308.00,0.0007
2307.00,0.0007
2306.00,0.0008
2305.00,0.0009
2304.00,0.0009
2303.00,0.0009
2302.00,0.0009
2301.00,0.0010
2300.00,0.0010
2299.00,0.0010
2298.00,0.0011
2297.00,0.0011
2296.00,0.0012
2295.00,0.0012
2294.00,0.0012
2293.00,0.0012
2292.00,0.0012
2291.00,0.0013
2290.00,0.0014
2289.00,0.0015
2288.00,0.0016
2287.00,0.0016
2286.00,0.0016
2285.00,0.0016
2284.00,0.0015
2283.00,0.0015
2282.00,0.0014
2281.00,0.0015
2280.00,0.0015
2279.00,0.0015
2278.00,0.0015
2277.00,0.0014
2276.00,0.0014
2275.00,0.0014
2274.00,0.0014
2273.00,0.0014
2272.00,0.0014
2271.00,0.0014
2270.00,0.0013
2269.00,0.0012
2268.00,0.0011
2267.00,0.0010
2266.00,0.0009
2265.00,0.0010
2264.00,0.0010
2263.00,0.0012
2262.00,0.0013
2261.00,0.0014
2260.00,0.0014
2259.00,0.0014
2258.00,0.0013
2257.00,0.0012
2256.00,0.0011
2255.00,0.0010
2254.00,0.0009
2253.00,0.0009
2252.00,0.0009
2251.00,0.0009
2250.00,0.0009
2249.00,0.0009
2248.00,0.0009
2247.00,0.0009
2246.00,0.0010
2245.00,0.0009
2244.00,0.0008
2243.00,0.0008
2242.00,0.0008
2241.00,0.0010
2240.00,0.0011
2239.00,0.0011
2238.00,0.0011
2237.00,0.0011
2236.00,0.0011
2235.00,0.0010
2234.00,0.0008
2233.00,0.0007
2232.00,0.0007
2231.00,0.0008
2230.00,0.0009
2229.00,0.0009
2228.00,0.0008
2227.00,0.0006
2226.00,0.0005
2225.00,0.0005
2224.00,0.0005
2223.00,0.0006
2222.00,0.0007
2221.00,0.0007
2220.00,0.0008
2219.00,0.0007
2218.00,0.0007
2217.00,0.0008
2216.00,0.0008
2215.00,0.0009
2214.00,0.0009
2213.00,0.0009
2212.00,0.0008
2211.00,0.0007
2210.00,0.0007
2209.00,0.0006
2208.00,0.0005
2207.00,0.0004
2206.00,0.0004
2205.00,0.0004
2204.00,0.0003
2203.00,0.0003
2202.00,0.0002
2201.00,0.0003
2200.00,0.0004
2199.00,0.0004
2198.00,0.0006
2197.00,0.0007
2196.00,0.0009
2195.00,0.0009
2194.00,0.0008
2193.00,0.0006
2192.00,0.0006
2191.00,0.0006
2190.00,0.0006
2189.00,0.0007
2188.00,0.0007
2187.00,0.0008
2186.00,0.0009
2185.00,0.0010
2184.00,0.0010
2183.00,0.0007
2182.00,0.0004
2181.00,0.0002
2180.00,0.0002
2179.00,0.0001
2178.00,-0.0000
2177.00,-0.0002
2176.00,-0.0004
2175.00,-0.0005
2174.00,-0.0003
2173.00,0.0001
2172.00,0.0004
2171.00,0.0008
2170.00,0.0012
2169.00,0.0015
2168.00,0.0017
2167.00,0.0016
2166.00,0.0016
2165.00,0.0017
2164.00,0.0019
2163.00,0.0019
2162.00,0.0017
2161.00,0.0011
2160.00,-0.0000
2159.00,-0.0014
2158.00,-0.0025
2157.00,-0.0031
2156.00,-0.0031
2155.00,-0.0028
2154.00,-0.0024
2153.00,-0.0020
2152.00,-0.0016
2151.00,-0.0012
2150.00,-0.0009
2149.00,-0.0008
2148.00,-0.0008
2147.00,-0.0009
2146.00,-0.0011
2145.00,-0.0011
2144.00,-0.0011
2143.00,-0.0011
2142.00,-0.0012
2141.00,-0.0013
2140.00,-0.0013
2139.00,-0.0014
2138.00,-0.0015
2137.00,-0.0015
2136.00,-0.0016
2135.00,-0.0018
2134.00,-0.0020
2133.00,-0.0020
2132.00,-0.0020
2131.00,-0.0019
2130.00,-0.0017
2129.00,-0.0015
2128.00,-0.0014
2127.00,-0.0012
2126.00,-0.0012
2125.00,-0.0010
2124.00,-0.0009
2123.00,-0.0007
2122.00,-0.0006
2121.00,-0.0005
2120.00,-0.0004
2119.00,-0.0004
2118.00,-0.0003
2117.00,-0.0002
2116.00,-0.0002
2115.00,-0.0001
2114.00,-0.0002
2113.00,-0.0002
2112.00,-0.0001
2111.00,-0.0001
2110.00,-0.0002
2109.00,-0.0002
2108.00,-0.0002
2107.00,-0.0001
2106.00,0.0000
2105.00,0.0001
2104.00,0.0001
2103.00,-0.0001
2102.00,-0.0002
2101.00,-0.0002
2100.00,-0.0001
2099.00,-0.0001
2098.00,-0.0001
2097.00,-0.0002
2096.00,-0.0004
2095.00,-0.0006
2094.00,-0.0007
2093.00,-0.0006
2092.00,-0.0004
2091.00,-0.0002
2090.00,-0.0000
2089.00,0.0001
2088.00,0.0002
2087.00,0.0002
2086.00,0.0002
2085.00,0.0001
2084.00,0.0001
2083.00,0.0001
2082.00,0.0002
2081.00,0.0003
2080.00,0.0004
2079.00,0.0004
2078.00,0.0003
2077.00,0.0001
2076.00,-0.0001
2075.00,-0.0003
2074.00,-0.0004
2073.00,-0.0003
2072.00,-0.0003
2071.00,-0.0002
2070.00,-0.0002
2069.00,-0.0001
2068.00,-0.0001
2067.00,-0.0002
2066.00,-0.0004
2065.00,-0.0004
2064.00,-0.0005
2063.00,-0.0004
2062.00,-0.0004
2061.00,-0.0003
2060.00,-0.0003
2059.00,-0.0002
2058.00,0.0000
2057.00,0.0002
2056.00,0.0003
2055.00,0.0003
2054.00,0.0004
2053.00,0.0006
2052.00,0.0009
2051.00,0.0010
2050.00,0.0008
2049.00,0.0006
2048.00,0.0004
2047.00,0.0005
2046.00,0.0006
2045.00,0.0008
2044.00,0.0008
2043.00,0.0006
2042.00,0.0003
2041.00,-0.0002
2040.00,-0.0004
2039.00,-0.0005
2038.00,-0.0005
2037.00,-0.0005
2036.00,-0.0006
2035.00,-0.0007
2034.00,-0.0009
2033.00,-0.0010
2032.00,-0.0010
2031.00,-0.0011
2030.00,-0.0012
2029.00,-0.0013
2028.00,-0.0014
2027.00,-0.0014
2026.00,-0.0014
2025.00,-0.0012
2024.00,-0.0011
2023.00,-0.0011
2022.00,-0.0013
2021.00,-0.0014
2020.00,-0.0014
2019.00,-0.0013
2018.00,-0.0012
2017.00,-0.0012
2016.00,-0.0013
2015.00,-0.0015
2014.00,-0.0015
2013.00,-0.0015
2012.00,-0.0014
2011.00,-0.0014
2010.00,-0.0014
2009.00,-0.0015
2008.00,-0.0018
2007.00,-0.0021
2006.00,-0.0025
2005.00,-0.0026
2004.00,-0.0026
2003.00,-0.0024
2002.00,-0.0021
2001.00,-0.0017
2000.00,-0.0015
1999.00,-0.0014
1998.00,-0.0016
1997.00,-0.0017
1996.00,-0.0018
1995.00,-0.0018
1994.00,-0.0016
1993.00,-0.0013
1992.00,-0.0009
1991.00,-0.0006
1990.00,-0.0005
1989.00,-0.0004
1988.00,-0.0003
1987.00,-0.0002
1986.00,-0.0000
1985.00,0.0002
1984.00,0.0006
1983.00,0.0008
1982.00,0.0009
1981.00,0.0008
1980.00,0.0005
1979.00,0.0001
1978.00,-0.0004
1977.00,-0.0009
1976.00,-0.0014
1975.00,-0.0018
1974.00,-0.0019
1973.00,-0.0017
1972.00,-0.0015
1971.00,-0.0012
1970.00,-0.0010
1969.00,-0.0009
1968.00,-0.0009
1967.00,-0.0009
1966.00,-0.0010
1965.00,-0.0011
1964.00,-0.0012
1963.00,-0.0015
1962.00,-0.0019
1961.00,-0.0021
1960.00,-0.0023
1959.00,-0.0025
1958.00,-0.0025
1957.00,-0.0024
1956.00,-0.0022
1955.00,-0.0020
1954.00,-0.0019
1953.00,-0.0019
1952.00,-0.0020
1951.00,-0.0021
1950.00,-0.0021
1949.00,-0.0021
1948.00,-0.0020
1947.00,-0.0018
1946.00,-0.0016
1945.00,-0.0015
1944.00,-0.0015
1943.00,-0.0016
1942.00,-0.0017
1941.00,-0.0017
1940.00,-0.0016
1939.00,-0.0016
1938.00,-0.0016
1937.00,-0.0016
1936.00,-0.0016
1935.00,-0.0016
1934.00,-0.0015
1933.00,-0.0013
1932.00,-0.0013
1931.00,-0.0012
1930.00,-0.0013
1929.00,-0.0012
1928.00,-0.0012
1927.00,-0.0011
1926.00,-0.0010
1925.00,-0.0009
1924.00,-0.0008
1923.00,-0.0006
1922.00,-0.0005
1921.00,-0.0005
1920.00,-0.0005
1919.00,-0.0006
1918.00,-0.0007
1917.00,-0.0007
1916.00,-0.0005
1915.00,-0.0004
1914.00,-0.0004
1913.00,-0.0003
1912.00,-0.0003
1911.00,-0.0003
1910.00,-0.0003
1909.00,-0.0002
1908.00,-0.0002
1907.00,-0.0003
1906.00,-0.0003
1905.00,-0.0003
1904.00,-0.0003
1903.00,-0.0003
1902.00,-0.0003
1901.00,-0.0003
1900.00,-0.0004
1899.00,-0.0004
1898.00,-0.0005
1897.00,-0.0005
1896.00,-0.0005
1895.00,-0.0005
1894.00,-0.0004
1893.00,-0.0003
1892.00,-0.0003
1891.00,-0.0003
1890.00,-0.0004
1889.00,-0.0005
1888.00,-0.0005
1887.00,-0.0005
1886.00,-0.0004
1885.00,-0.0004
1884.00,-0.0004
1883.00,-0.0004
1882.00,-0.0003
1881.00,-0.0003
1880.00,-0.0003
1879.00,-0.0003
1878.00,-0.0003
1877.00,-0.0003
1876.00,-0.0003
1875.00,-0.0003
1874.00,-0.0003
1873.00,-0.0003
1872.00,-0.0004
1871.00,-0.0004
1870.00,-0.0004
1869.00,-0.0003
1868.00,-0.0003
1867.00,-0.0003
1866.00,-0.0003
1865.00,-0.0003
1864.00,-0.0003
1863.00,-0.0003
1862.00,-0.0003
1861.00,-0.0003
1860.00,-0.0003
1859.00,-0.0002
1858.00,-0.0002
1857.00,-0.0002
1856.00,-0.0002
1855.00,-0.0002
1854.00,-0.0003
1853.00,-0.0003
1852.00,-0.0003
1851.00,-0.0002
1850.00,-0.0002
1849.00,-0.0001
1848.00,-0.0001
1847.00,-0.0001
1846.00,-0.0002
1845.00,-0.0002
1844.00,-0.0002
1843.00,-0.0003
1842.00,-0.0003
1841.00,-0.0003
1840.00,-0.0002
1839.00,-0.0001
1838.00,-0.0000
1837.00,0.0000
1836.00,0.0000
1835.00,0.0001
1834.00,0.0001
1833.00,0.0002
1832.00,0.0002
1831.00,0.0002
1830.00,0.0002
1829.00,0.0002
1828.00,0.0001
1827.00,0.0001
1826.00,0.0001
1825.00,0.0001
1824.00,0.0001
1823.00,0.0001
1822.00,-0.0000
1821.00,-0.0001
1820.00,-0.0001
1819.00,-0.0002
1818.00,-0.0002
1817.00,-0.0002
1816.00,-0.0002
1815.00,-0.0001
1814.00,-0.0001
1813.00,-0.0001
1812.00,-0.0001
1811.00,-0.0001
1810.00,-0.0001
1809.00,-0.0001
1808.00,-0.0000
1807.00,0.0000
1806.00,0.0001
1805.00,0.0001
1804.00,0.0002
1803.00,0.0002
1802.00,0.0002
1801.00,0.0002
1800.00,0.0002
1799.00,0.0002
1798.00,0.0002
1797.00,0.0002
1796.00,0.0002
1795.00,0.0002
1794.00,0.0002
1793.00,0.0003
1792.00,0.0003
1791.00,0.0004
1790.00,0.0004
1789.00,0.0005
1788.00,0.0005
1787.00,0.0005
1786.00,0.0005
1785.00,0.0005
1784.00,0.0005
1783.00,0.0004
1782.00,0.0005
1781.00,0.0005
1780.00,0.0005
1779.00,0.0005
1778.00,0.0005
1777.00,0.0005
1776.00,0.0005
1775.00,0.0005
1774.00,0.0005
1773.00,0.0005
1772.00,0.0006
1771.00,0.0006
1770.00,0.0007
1769.00,0.0007
1768.00,0.0007
1767.00,0.0007
1766.00,0.0008
1765.00,0.0008
1764.00,0.0009
1763.00,0.0009
1762.00,0.0009
1761.00,0.0009
1760.00,0.0009
1759.00,0.0009
1758.00,0.0009
1757.00,0.0009
1756.00,0.0010
1755.00,0.0010
1754.00,0.0011
1753.00,0.0012
1752.00,0.0012
1751.00,0.0013
1750.00,0.0013
1749.00,0.0014
1748.00,0.0014
1747.00,0.0014
1746.00,0.0014
1745.00,0.0014
1744.00,0.0014
1743.00,0.0014
1742.00,0.0015
1741.00,0.0015
1740.00,0.0014
1739.00,0.0014
1738.00,0.0014
1737.00,0.0014
1736.00,0.0014
1735.00,0.0014
1734.00,0.0013
1733.00,0.0014
1732.00,0.0015
1731.00,0.0016
1730.00,0.0016
1729.00,0.0017
1728.00,0.0017
1727.00,0.0017
1726.00,0.0017
1725.00,0.0017
1724.00,0.0017
1723.00,0.0018
1722.00,0.0018
1721.00,0.0018
1720.00,0.0019
1719.00,0.0019
1718.00,0.0018
1717.00,0.0018
1716.00,0.0018
1715.00,0.0018
1714.00,0.0017
1713.00,0.0017
1712.00,0.0017
1711.00,0.0017
1710.00,0.0017
1709.00,0.0017
1708.00,0.0017
1707.00,0.0018
1706.00,0.0018
1705.00,0.0019
1704.00,0.0020
1703.00,0.0020
1702.00,0.0020
1701.00,0.0021
1700.00,0.0022
1699.00,0.0022
1698.00,0.0021
1697.00,0.0020
1696.00,0.0020
1695.00,0.0020
1694.00,0.0021
1693.00,0.0021
1692.00,0.0021
1691.00,0.0022
1690.00,0.0022
1689.00,0.0022
1688.00,0.0022
1687.00,0.0022
1686.00,0.0022
1685.00,0.0022
1684.00,0.0022
1683.00,0.0022
1682.00,0.0023
1681.00,0.0023
1680.00,0.0024
1679.00,0.0024
1678.00,0.0024
1677.00,0.0024
1676.00,0.0024
1675.00,0.0024
1674.00,0.0024
1673.00,0.0024
1672.00,0.0025
1671.00,0.0025
1670.00,0.0025
1669.00,0.0026
1668.00,0.0026
1667.00,0.0027
1666.00,0.0027
1665.00,0.0028
1664.00,0.0028
1663.00,0.0028
1662.00,0.0028
1661.00,0.0029
1660.00,0.0029
1659.00,0.0030
1658.00,0.0030
1657.00,0.0030
1656.00,0.0030
1655.00,0.0031
1654.00,0.0032
1653.00,0.0034
1652.00,0.0036
1651.00,0.0037
1650.00,0.0038
1649.00,0.0039
1648.00,0.0041
1647.00,0.0042
1646.00,0.0042
1645.00,0.0042
1644.00,0.0042
1643.00,0.0042
1642.00,0.0041
1641.00,0.0041
1640.00,0.0040
1639.00,0.0039
1638.00,0.0039
1637.00,0.0039
1636.00,0.0039
1635.00,0.0039
1634.00,0.0039
1633.00,0.0038
1632.00,0.0038
1631.00,0.0038
1630.00,0.0038
1629.00,0.0038
1628.00,0.0038
1627.00,0.0037
1626.00,0.0037
1625.00,0.0037
1624.00,0.0037
1623.00,0.0036
1622.00,0.0035
1621.00,0.0034
1620.00,0.0034
1619.00,0.0034
1618.00,0.0034
1617.00,0.0034
1616.00,0.0034
1615.00,0.0033
1614.00,0.0033
1613.00,0.0033
1612.00,0.0033
1611.00,0.0033
1610.00,0.0032
1609.00,0.0032
1608.00,0.0032
1607.00,0.0031
1606.00,0.0031
1605.00,0.0031
1604.00,0.0031
1603.00,0.0031
1602.00,0.0030
1601.00,0.0030
1600.00,0.0031
1599.00,0.0031
1598.00,0.0031
1597.00,0.0031
1596.00,0.0031
1595.00,0.0031
1594.00,0.0031
1593.00,0.0031
1592.00,0.0031
1591.00,0.0032
1590.00,0.0032
1589.00,0.0033
1588.00,0.0034
1587.00,0.0035
1586.00,0.0036
1585.00,0.0036
1584.00,0.0037
1583.00,0.0038
1582.00,0.0039
1581.00,0.0040
1580.00,0.0042
1579.00,0.0043
1578.00,0.0045
1577.00,0.0045
1576.00,0.0045
1575.00,0.0045
1574.00,0.0044
1573.00,0.0043
1572.00,0.0043
1571.00,0.0042
1570.00,0.0041
1569.00,0.0040
1568.00,0.0040
1567.00,0.0039
1566.00,0.0039
1565.00,0.0039
1564.00,0.0039
1563.00,0.0039
1562.00,0.0038
1561.00,0.0039
1560.00,0.0039
1559.00,0.0038
1558.00,0.0037
1557.00,0.0037
1556.00,0.0038
1555.00,0.0038
1554.00,0.0038
1553.00,0.0039
1552.00,0.0040
1551.00,0.0040
1550.00,0.0041
1549.00,0.0042
1548.00,0.0043
1547.00,0.0044
1546.00,0.0046
1545.00,0.0047
1544.00,0.0049
1543.00,0.0050
1542.00,0.0051
1541.00,0.0051
1540.00,0.0052
1539.00,0.0051
1538.00,0.0050
1537.00,0.0049
1536.00,0.0048
1535.00,0.0046
1534.00,0.0045
1533.00,0.0043
1532.00,0.0042
1531.00,0.0041
1530.00,0.0040
1529.00,0.0040
1528.00,0.0041
1527.00,0.0041
1526.00,0.0041
1525.00,0.0041
1524.00,0.0041
1523.00,0.0041
1522.00,0.0041
1521.00,0.0042
1520.00,0.0043
1519.00,0.0043
1518.00,0.0043
1517.00,0.0043
1516.00,0.0044
1515.00,0.0045
1514.00,0.0045
1513.00,0.0046
1512.00,0.0047
1511.00,0.0047
1510.00,0.0048
1509.00,0.0049
1508.00,0.0051
1507.00,0.0052
1506.00,0.0053
1505.00,0.0054
1504.00,0.0055
1503.00,0.0056
1502.00,0.0057
1501.00,0.0059
1500.00,0.0062
1499.00,0.0063
1498.00,0.0065
1497.00,0.0068
1496.00,0.0072
1495.00,0.0075
1494.00,0.0077
1493.00,0.0080
1492.00,0.0083
1491.00,0.0086
1490.00,0.0089
1489.00,0.0094
1488.00,0.0099
1487.00,0.0104
1486.00,0.0110
1485.00,0.0116
1484.00,0.0123
1483.00,0.0131
1482.00,0.0139
1481.00,0.0151
1480.00,0.0163
1479.00,0.0176
1478.00,0.0191
1477.00,0.0212
1476.00,0.0238
1475.00,0.0268
1474.00,0.0309
1473.00,0.0369
1472.00,0.0438
1471.00,0.0505
1470.00,0.0568
1469.00,0.0634
1468.00,0.0706
1467.00,0.0784
1466.00,0.0873
1465.00,0.0969
1464.00,0.1053
1463.00,0.1110
1462.00,0.1145
1461.00,0.1168
1460.00,0.1183
1459.00,0.1191
1458.00,0.1198
1457.00,0.1201
1456.00,0.1197
1455.00,0.1187
1454.00,0.1173
1453.00,0.1153
1452.00,0.1125
1451.00,0.1085
1450.00,0.1032
1449.00,0.0960
1448.00,0.0869
1447.00,0.0774
1446.00,0.0688
1445.00,0.0616
1444.00,0.0554
1443.00,0.0504
1442.00,0.0466
1441.00,0.0440
1440.00,0.0424
1439.00,0.0417
1438.00,0.0419
1437.00,0.0421
1436.00,0.0412
1435.00,0.0388
1434.00,0.0353
1433.00,0.0310
1432.00,0.0266
1431.00,0.0226
1430.00,0.0195
1429.00,0.0172
1428.00,0.0156
1427.00,0.0146
1426.00,0.0140
1425.00,0.0134
1424.00,0.0129
1423.00,0.0125
1422.00,0.0124
1421.00,0.0121
1420.00,0.0117
1419.00,0.0114
1418.00,0.0112
1417.00,0.0109
1416.00,0.0107
1415.00,0.0106
1414.00,0.0105
1413.00,0.0104
1412.00,0.0102
1411.00,0.0101
1410.00,0.0101
1409.00,0.0100
1408.00,0.0098
1407.00,0.0099
1406.00,0.0099
1405.00,0.0100
1404.00,0.0100
1403.00,0.0101
1402.00,0.0102
1401.00,0.0104
1400.00,0.0105
1399.00,0.0107
1398.00,0.0110
1397.00,0.0111
1396.00,0.0113
1395.00,0.0117
1394.00,0.0123
1393.00,0.0128
1392.00,0.0134
1391.00,0.0142
1390.00,0.0152
1389.00,0.0165
1388.00,0.0186
1387.00,0.0218
1386.00,0.0262
1385.00,0.0319
1384.00,0.0398
1383.00,0.0511
1382.00,0.0662
1381.00,0.0858
1380.00,0.1099
1379.00,0.1373
1378.00,0.1636
1377.00,0.1826
1376.00,0.1885
1375.00,0.1783
1374.00,0.1550
1373.00,0.1273
1372.00,0.1023
1371.00,0.0819
1370.00,0.0657
1369.00,0.0535
1368.00,0.0450
1367.00,0.0398
1366.00,0.0369
1365.00,0.0357
1364.00,0.0359
1363.00,0.0373
1362.00,0.0393
1361.00,0.0415
1360.00,0.0431
1359.00,0.0435
1358.00,0.0425
1357.00,0.0400
1356.00,0.0365
1355.00,0.0325
1354.00,0.0287
1353.00,0.0254
1352.00,0.0227
1351.00,0.0205
1350.00,0.0188
1349.00,0.0173
1348.00,0.0161
1347.00,0.0151
1346.00,0.0142
1345.00,0.0135
1344.00,0.0129
1343.00,0.0124
1342.00,0.0119
1341.00,0.0116
1340.00,0.0113
1339.00,0.0111
1338.00,0.0110
1337.00,0.0109
1336.00,0.0110
1335.00,0.0112
1334.00,0.0115
1333.00,0.0119
1332.00,0.0123
1331.00,0.0126
1330.00,0.0128
1329.00,0.0127
1328.00,0.0124
1327.00,0.0119
1326.00,0.0113
1325.00,0.0107
1324.00,0.0102
1323.00,0.0097
1322.00,0.0094
1321.00,0.0090
1320.00,0.0088
1319.00,0.0085
1318.00,0.0083
1317.00,0.0082
1316.00,0.0081
1315.00,0.0081
1314.00,0.0081
1313.00,0.0082
1312.00,0.0083
1311.00,0.0085
1310.00,0.0088
1309.00,0.0094
1308.00,0.0102
1307.00,0.0113
1306.00,0.0124
1305.00,0.0131
1304.00,0.0134
1303.00,0.0132
1302.00,0.0127
1301.00,0.0123
1300.00,0.0120
1299.00,0.0120
1298.00,0.0120
1297.00,0.0120
1296.00,0.0119
1295.00,0.0117
1294.00,0.0114
1293.00,0.0109
1292.00,0.0104
1291.00,0.0100
1290.00,0.0095
1289.00,0.0092
1288.00,0.0088
1287.00,0.0086
1286.00,0.0083
1285.00,0.0081
1284.00,0.0080
1283.00,0.0078
1282.00,0.0077
1281.00,0.0076
1280.00,0.0075
1279.00,0.0074
1278.00,0.0073
1277.00,0.0073
1276.00,0.0073
1275.00,0.0074
1274.00,0.0073
1273.00,0.0073
1272.00,0.0073
1271.00,0.0074
1270.00,0.0076
1269.00,0.0078
1268.00,0.0080
1267.00,0.0082
1266.00,0.0085
1265.00,0.0088
1264.00,0.0091
1263.00,0.0094
1262.00,0.0098
1261.00,0.0102
1260.00,0.0106
1259.00,0.0112
1258.00,0.0118
1257.00,0.0123
1256.00,0.0125
1255.00,0.0123
1254.00,0.0117
1253.00,0.0109
1252.00,0.0101
1251.00,0.0095
1250.00,0.0090
1249.00,0.0086
1248.00,0.0083
1247.00,0.0080
1246.00,0.0078
1245.00,0.0077
1244.00,0.0076
1243.00,0.0075
1242.00,0.0074
1241.00,0.0073
1240.00,0.0071
1239.00,0.0070
1238.00,0.0070
1237.00,0.0069
1236.00,0.0069
1235.00,0.0069
1234.00,0.0070
1233.00,0.0070
1232.00,0.0071
1231.00,0.0071
1230.00,0.0072
1229.00,0.0073
1228.00,0.0074
1227.00,0.0076
1226.00,0.0078
1225.00,0.0081
1224.00,0.0083
1223.00,0.0087
1222.00,0.0090
1221.00,0.0092
1220.00,0.0094
1219.00,0.0094
1218.00,0.0093
1217.00,0.0091
1216.00,0.0089
1215.00,0.0086
1214.00,0.0084
1213.00,0.0081
1212.00,0.0079
1211.00,0.0077
1210.00,0.0075
1209.00,0.0073
1208.00,0.0072
1207.00,0.0071
1206.00,0.0071
1205.00,0.0070
1204.00,0.0070
1203.00,0.0070
1202.00,0.0070
1201.00,0.0069
1200.00,0.0069
1199.00,0.0069
1198.00,0.0069
1197.00,0.0069
1196.00,0.0070
1195.00,0.0070
1194.00,0.0070
1193.00,0.0070
1192.00,0.0070
1191.00,0.0070
1190.00,0.0070
1189.00,0.0070
1188.00,0.0071
1187.00,0.0071
1186.00,0.0072
1185.00,0.0072
1184.00,0.0073
1183.00,0.0075
1182.00,0.0077
1181.00,0.0080
1180.00,0.0082
1179.00,0.0086
1178.00,0.0092
1177.00,0.0100
1176.00,0.0112
1175.00,0.0127
1174.00,0.0147
1173.00,0.0171
1172.00,0.0199
1171.00,0.0230
1170.00,0.0259
1169.00,0.0283
1168.00,0.0296
1167.00,0.0299
1166.00,0.0291
1165.00,0.0277
1164.00,0.0261
1163.00,0.0245
1162.00,0.0232
1161.00,0.0221
1160.00,0.0212
1159.00,0.0206
1158.00,0.0201
1157.00,0.0197
1156.00,0.0195
1155.00,0.0194
1154.00,0.0192
1153.00,0.0189
1152.00,0.0184
1151.00,0.0178
1150.00,0.0170
1149.00,0.0160
1148.00,0.0150
1147.00,0.0141
1146.00,0.0132
1145.00,0.0124
1144.00,0.0117
1143.00,0.0110
1142.00,0.0104
1141.00,0.0098
1140.00,0.0093
1139.00,0.0088
1138.00,0.0084
1137.00,0.0080
1136.00,0.0077
1135.00,0.0075
1134.00,0.0074
1133.00,0.0073
1132.00,0.0072
1131.00,0.0072
1130.00,0.0072
1129.00,0.0072
1128.00,0.0072
1127.00,0.0072
1126.00,0.0072
1125.00,0.0072
1124.00,0.0072
1123.00,0.0073
1122.00,0.0073
1121.00,0.0074
1120.00,0.0074
1119.00,0.0075
1118.00,0.0075
1117.00,0.0076
1116.00,0.0077
1115.00,0.0078
1114.00,0.0080
1113.00,0.0081
1112.00,0.0083
1111.00,0.0085
1110.00,0.0089
1109.00,0.0092
1108.00,0.0097
1107.00,0.0103
1106.00,0.0110
1105.00,0.0116
1104.00,0.0121
1103.00,0.0123
1102.00,0.0123
1101.00,0.0120
1100.00,0.0115
1099.00,0.0109
1098.00,0.0103
1097.00,0.0098
1096.00,0.0094
1095.00,0.0090
1094.00,0.0087
1093.00,0.0084
1092.00,0.0081
1091.00,0.0079
1090.00,0.0078
1089.00,0.0078
1088.00,0.0078
1087.00,0.0077
1086.00,0.0076
1085.00,0.0076
1084.00,0.0076
1083.00,0.0077
1082.00,0.0078
1081.00,0.0078
1080.00,0.0078
1079.00,0.0077
1078.00,0.0075
1077.00,0.0074
1076.00,0.0072
1075.00,0.0070
1074.00,0.0069
1073.00,0.0069
1072.00,0.0068
1071.00,0.0069
1070.00,0.0069
1069.00,0.0070
1068.00,0.0070
1067.00,0.0070
1066.00,0.0070
1065.00,0.0069
1064.00,0.0068
1063.00,0.0068
1062.00,0.0067
1061.00,0.0067
1060.00,0.0067
1059.00,0.0068
1058.00,0.0069
1057.00,0.0070
1056.00,0.0069
1055.00,0.0069
1054.00,0.0069
1053.00,0.0069
1052.00,0.0071
1051.00,0.0072
1050.00,0.0074
1049.00,0.0076
1048.00,0.0078
1047.00,0.0081
1046.00,0.0083
1045.00,0.0085
1044.00,0.0086
1043.00,0.0086
1042.00,0.0084
1041.00,0.0082
1040.00,0.0080
1039.00,0.0080
1038.00,0.0080
1037.00,0.0080
1036.00,0.0080
1035.00,0.0078
1034.00,0.0077
1033.00,0.0075
1032.00,0.0073
1031.00,0.0072
1030.00,0.0072
1029.00,0.0073
1028.00,0.0073
1027.00,0.0073
1026.00,0.0073
1025.00,0.0072
1024.00,0.0072
1023.00,0.0072
1022.00,0.0073
1021.00,0.0073
1020.00,0.0074
1019.00,0.0074
1018.00,0.0075
1017.00,0.0076
1016.00,0.0078
1015.00,0.0080
1014.00,0.0082
1013.00,0.0083
1012.00,0.0085
1011.00,0.0088
1010.00,0.0091
1009.00,0.0094
1008.00,0.0099
1007.00,0.0105
1006.00,0.0113
1005.00,0.0125
1004.00,0.0141
1003.00,0.0163
1002.00,0.0193
1001.00,0.0229
1000.00,0.0267
999.00,0.0299
998.00,0.0314
997.00,0.0307
996.00,0.0281
995.00,0.0243
994.00,0.0205
993.00,0.0172
992.00,0.0147
991.00,0.0130
990.00,0.0118
989.00,0.0110
988.00,0.0104
987.00,0.0101
986.00,0.0100
985.00,0.0101
984.00,0.0105
983.00,0.0112
982.00,0.0124
981.00,0.0140
980.00,0.0163
979.00,0.0192
978.00,0.0228
977.00,0.0270
976.00,0.0315
975.00,0.0356
974.00,0.0385
973.00,0.0395
972.00,0.0379
971.00,0.0343
970.00,0.0295
969.00,0.0246
968.00,0.0205
967.00,0.0174
966.00,0.0150
965.00,0.0132
964.00,0.0120
963.00,0.0111
962.00,0.0104
961.00,0.0099
960.00,0.0095
959.00,0.0091
958.00,0.0089
957.00,0.0086
956.00,0.0084
955.00,0.0081
954.00,0.0079
953.00,0.0077
952.00,0.0076
951.00,0.0075
950.00,0.0075
949.00,0.0074
948.00,0.0074
947.00,0.0074
946.00,0.0075
945.00,0.0077
944.00,0.0081
943.00,0.0085
942.00,0.0089
941.00,0.0091
940.00,0.0092
939.00,0.0089
938.00,0.0085
937.00,0.0079
936.00,0.0074
935.00,0.0069
934.00,0.0066
933.00,0.0063
932.00,0.0061
931.00,0.0060
930.00,0.0060
929.00,0.0059
928.00,0.0059
927.00,0.0058
926.00,0.0057
925.00,0.0055
924.00,0.0054
923.00,0.0053
922.00,0.0052
921.00,0.0053
920.00,0.0054
919.00,0.0055
918.00,0.0057
917.00,0.0058
916.00,0.0059
915.00,0.0059
914.00,0.0061
913.00,0.0062
912.00,0.0064
911.00,0.0065
910.00,0.0067
909.00,0.0069
908.00,0.0072
907.00,0.0076
906.00,0.0083
905.00,0.0093
904.00,0.0107
903.00,0.0125
902.00,0.0145
901.00,0.0163
900.00,0.0175
899.00,0.0176
898.00,0.0167
897.00,0.0151
896.00,0.0132
895.00,0.0114
894.00,0.0100
893.00,0.0090
892.00,0.0082
891.00,0.0077
890.00,0.0073
889.00,0.0070
888.00,0.0069
887.00,0.0067
886.00,0.0066
885.00,0.0065
884.00,0.0065
883.00,0.0066
882.00,0.0067
881.00,0.0069
880.00,0.0069
879.00,0.0069
878.00,0.0068
877.00,0.0068
876.00,0.0068
875.00,0.0068
874.00,0.0068
873.00,0.0069
872.00,0.0070
871.00,0.0072
870.00,0.0072
869.00,0.0073
868.00,0.0073
867.00,0.0074
866.00,0.0074
865.00,0.0075
864.00,0.0075
863.00,0.0075
862.00,0.0075
861.00,0.0076
860.00,0.0077
859.00,0.0080
858.00,0.0082
857.00,0.0084
856.00,0.0085
855.00,0.0086
854.00,0.0087
853.00,0.0089
852.00,0.0092
851.00,0.0096
850.00,0.0101
849.00,0.0107
848.00,0.0116
847.00,0.0129
846.00,0.0148
845.00,0.0178
844.00,0.0221
843.00,0.0269
842.00,0.0308
841.00,0.0319
840.00,0.0297
839.00,0.0253
838.00,0.0205
837.00,0.0167
836.00,0.0141
835.00,0.0125
834.00,0.0116
833.00,0.0110
832.00,0.0107
831.00,0.0105
830.00,0.0104
829.00,0.0102
828.00,0.0100
827.00,0.0098
826.00,0.0097
825.00,0.0097
824.00,0.0098
823.00,0.0099
822.00,0.0102
821.00,0.0104
820.00,0.0107
819.00,0.0109
818.00,0.0113
817.00,0.0118
816.00,0.0126
815.00,0.0136
814.00,0.0150
813.00,0.0168
812.00,0.0188
811.00,0.0207
810.00,0.0221
809.00,0.0227
808.00,0.0223
807.00,0.0211
806.00,0.0194
805.00,0.0175
804.00,0.0157
803.00,0.0141
802.00,0.0128
801.00,0.0120
800.00,0.0115
799.00,0.0111
798.00,0.0107
797.00,0.0103
796.00,0.0099
795.00,0.0096
794.00,0.0092
793.00,0.0088
792.00,0.0084
791.00,0.0080
790.00,0.0076
789.00,0.0073
788.00,0.0071
787.00,0.0070
786.00,0.0068
785.00,0.0067
784.00,0.0066
783.00,0.0064
782.00,0.0062
781.00,0.0060
780.00,0.0057
779.00,0.0056
778.00,0.0057
777.00,0.0058
776.00,0.0059
775.00,0.0059
774.00,0.0059
773.00,0.0060
772.00,0.0060
771.00,0.0061
770.00,0.0061
769.00,0.0061
768.00,0.0061
767.00,0.0060
766.00,0.0060
765.00,0.0060
764.00,0.0060
763.00,0.0061
762.00,0.0061
761.00,0.0062
760.00,0.0063
759.00,0.0063
758.00,0.0063
757.00,0.0063
756.00,0.0064
755.00,0.0065
754.00,0.0067
753.00,0.0069
752.00,0.0070
751.00,0.0071
750.00,0.0072
749.00,0.0073
748.00,0.0073
747.00,0.0074
746.00,0.0074
745.00,0.0076
744.00,0.0078
743.00,0.0080
742.00,0.0083
741.00,0.0087
740.00,0.0090
739.00,0.0093
738.00,0.0096
737.00,0.0098
736.00,0.0101
735.00,0.0104
734.00,0.0109
733.00,0.0116
732.00,0.0125
731.00,0.0133
730.00,0.0139
729.00,0.0143
728.00,0.0146
727.00,0.0148
726.00,0.0150
725.00,0.0154
724.00,0.0159
723.00,0.0167
722.00,0.0174
721.00,0.0178
720.00,0.0176
719.00,0.0167
718.00,0.0155
717.00,0.0141
716.00,0.0130
715.00,0.0120
714.00,0.0113
713.00,0.0107
712.00,0.0102
711.00,0.0099
710.00,0.0096
709.00,0.0095
708.00,0.0095
707.00,0.0095
706.00,0.0094
705.00,0.0093
704.00,0.0091
703.00,0.0089
702.00,0.0087
701.00,0.0085
700.00,0.0085
699.00,0.0085
698.00,0.0085
697.00,0.0085
696.00,0.0084
695.00,0.0084
694.00,0.0084
693.00,0.0084
692.00,0.0084
691.00,0.0082
690.00,0.0080
689.00,0.0078
688.00,0.0077
687.00,0.0078
686.00,0.0080
685.00,0.0082
684.00,0.0082
683.00,0.0082
682.00,0.0082
681.00,0.0081
680.00,0.0080
679.00,0.0081
678.00,0.0082
677.00,0.0084
676.00,0.0085
675.00,0.0084
674.00,0.0082
673.00,0.0082
672.00,0.0082
671.00,0.0082
670.00,0.0081
669.00,0.0082
668.00,0.0084
667.00,0.0087
666.00,0.0088
665.00,0.0087
664.00,0.0084
663.00,0.0081
662.00,0.0079
661.00,0.0077
660.00,0.0076
659.00,0.0076
658.00,0.0076
657.00,0.0075
656.00,0.0076
655.00,0.0077
654.00,0.0079
653.00,0.0080
652.00,0.0079
651.00,0.0077
650.00,0.0075
649.00,0.0074
648.00,0.0074
647.00,0.0074
646.00,0.0074
645.00,0.0074
644.00,0.0074
643.00,0.0075
642.00,0.0075
641.00,0.0073
640.00,0.0072
639.00,0.0071
638.00,0.0072
637.00,0.0073
636.00,0.0074
635.00,0.0074
634.00,0.0074
633.00,0.0075
632.00,0.0076
631.00,0.0078
630.00,0.0080
629.00,0.0082
628.00,0.0081
627.00,0.0078
626.00,0.0075
625.00,0.0073
624.00,0.0073
623.00,0.0074
622.00,0.0074
621.00,0.0074
620.00,0.0073
619.00,0.0071
618.00,0.0070
617.00,0.0071
616.00,0.0073
615.00,0.0075
614.00,0.0076
613.00,0.0075
612.00,0.0074
611.00,0.0075
610.00,0.0075
609.00,0.0074
608.00,0.0071
607.00,0.0067
606.00,0.0066
605.00,0.0068
604.00,0.0072
603.00,0.0075
602.00,0.0076
601.00,0.0075
600.00,0.0074
599.00,0.0072
598.00,0.0071
597.00,0.0070
596.00,0.0068
595.00,0.0066
594.00,0.0065
593.00,0.0065
592.00,0.0066
591.00,0.0068
590.00,0.0071
589.00,0.0074
588.00,0.0076
587.00,0.0077
586.00,0.0076
585.00,0.0072
584.00,0.0069
583.00,0.0067
582.00,0.0068
581.00,0.0071
580.00,0.0074
579.00,0.0074
578.00,0.0072
577.00,0.0069
576.00,0.0067
575.00,0.0067
574.00,0.0070
573.00,0.0073
572.00,0.0075
571.00,0.0076
570.00,0.0077
569.00,0.0079
568.00,0.0079
567.00,0.0078
566.00,0.0075
565.00,0.0074
564.00,0.0075
563.00,0.0077
562.00,0.0078
561.00,0.0078
560.00,0.0078
559.00,0.0078
558.00,0.0078
557.00,0.0076
556.00,0.0073
555.00,0.0071
554.00,0.0072
553.00,0.0074
552.00,0.0075
551.00,0.0074
550.00,0.0073
549.00,0.0073
548.00,0.0075
547.00,0.0076
546.00,0.0076
545.00,0.0075
544.00,0.0076
543.00,0.0076
542.00,0.0073
541.00,0.0069
540.00,0.0066
539.00,0.0066
538.00,0.0069
537.00,0.0074
536.00,0.0079
535.00,0.0085
534.00,0.0087
533.00,0.0087
532.00,0.0084
531.00,0.0083
530.00,0.0085
529.00,0.0088
528.00,0.0088
527.00,0.0087
526.00,0.0085
525.00,0.0083
524.00,0.0081
523.00,0.0078
522.00,0.0076
521.00,0.0077
520.00,0.0079
519.00,0.0080
518.00,0.0080
517.00,0.0080
516.00,0.0078
515.00,0.0075
514.00,0.0070
513.00,0.0066
512.00,0.0062
511.00,0.0060
510.00,0.0059
509.00,0.0059
508.00,0.0061
507.00,0.0064
506.00,0.0066
505.00,0.0068
504.00,0.0069
503.00,0.0069
502.00,0.0064
501.00,0.0058
500.00,0.0055
499.00,0.0056
498.00,0.0061
497.00,0.0064
496.00,0.0064
495.00,0.0062
494.00,0.0061
493.00,0.0061
492.00,0.0061
491.00,0.0058
490.00,0.0053
489.00,0.0051
488.00,0.0055
487.00,0.0062
486.00,0.0066
485.00,0.0065
484.00,0.0066
483.00,0.0071
482.00,0.0076
481.00,0.0075
480.00,0.0066
479.00,0.0053
478.00,0.0042
477.00,0.0035
476.00,0.0035
475.00,0.0040
474.00,0.0048
473.00,0.0055
472.00,0.0058
471.00,0.0060
470.00,0.0065
469.00,0.0072
468.00,0.0078
467.00,0.0082
466.00,0.0086
465.00,0.0089
464.00,0.0093
463.00,0.0104
462.00,0.0122
461.00,0.0143
460.00,0.0159
459.00,0.0161
458.00,0.0150
457.00,0.0135
456.00,0.0124
455.00,0.0117
454.00,0.0111
453.00,0.0110
452.00,0.0114
451.00,0.0120
450.00,0.0121
