Created as New Dataset,Sample 018 By Administrator Date Thursday, September 04 2025
cm-1,A
4000.00,0.0009
3999.00,0.0009
3998.00,0.0008
3997.00,0.0008
3996.00,0.0008
3995.00,0.0008
3994.00,0.0008
3993.00,0.0008
3992.00,0.0008
3991.00,0.0008
3990.00,0.0008
3989.00,0.0008
3988.00,0.0008
3987.00,0.0008
3986.00,0.0008
3985.00,0.0008
3984.00,0.0008
3983.00,0.0008
3982.00,0.0008
3981.00,0.0008
3980.00,0.0008
3979.00,0.0008
3978.00,0.0007
3977.00,0.0007
3976.00,0.0007
3975.00,0.0007
3974.00,0.0007
3973.00,0.0008
3972.00,0.0008
3971.00,0.0008
3970.00,0.0008
3969.00,0.0008
3968.00,0.0008
3967.00,0.0007
3966.00,0.0007
3965.00,0.0007
3964.00,0.0007
3963.00,0.0007
3962.00,0.0006
3961.00,0.0006
3960.00,0.0007
3959.00,0.0007
3958.00,0.0007
3957.00,0.0007
3956.00,0.0006
3955.00,0.0006
3954.00,0.0006
3953.00,0.0007
3952.00,0.0007
3951.00,0.0007
3950.00,0.0007
3949.00,0.0007
3948.00,0.0006
3947.00,0.0006
3946.00,0.0006
3945.00,0.0007
3944.00,0.0007
3943.00,0.0007
3942.00,0.0008
3941.00,0.0008
3940.00,0.0008
3939.00,0.0008
3938.00,0.0008
3937.00,0.0008
3936.00,0.0008
3935.00,0.0008
3934.00,0.0007
3933.00,0.0007
3932.00,0.0007
3931.00,0.0007
3930.00,0.0007
3929.00,0.0007
3928.00,0.0007
3927.00,0.0007
3926.00,0.0007
3925.00,0.0007
3924.00,0.0008
3923.00,0.0008
3922.00,0.0008
3921.00,0.0008
3920.00,0.0008
3919.00,0.0007
3918.00,0.0007
3917.00,0.0007
3916.00,0.0007
3915.00,0.0007
3914.00,0.0007
3913.00,0.0007
3912.00,0.0007
3911.00,0.0007
3910.00,0.0007
3909.00,0.0008
3908.00,0.0008
3907.00,0.0008
3906.00,0.0009
3905.00,0.0009
3904.00,0.0009
3903.00,0.0009
3902.00,0.0008
3901.00,0.0008
3900.00,0.0007
3899.00,0.0007
3898.00,0.0007
3897.00,0.0007
3896.00,0.0007
3895.00,0.0007
3894.00,0.0007
3893.00,0.0008
3892.00,0.0008
3891.00,0.0008
3890.00,0.0008
3889.00,0.0008
3888.00,0.0007
3887.00,0.0007
3886.00,0.0007
3885.00,0.0006
3884.00,0.0007
3883.00,0.0007
3882.00,0.0007
3881.00,0.0007
3880.00,0.0007
3879.00,0.0007
3878.00,0.0007
3877.00,0.0007
3876.00,0.0008
3875.00,0.0008
3874.00,0.0008
3873.00,0.0008
3872.00,0.0008
3871.00,0.0008
3870.00,0.0008
3869.00,0.0008
3868.00,0.0007
3867.00,0.0007
3866.00,0.0006
3865.00,0.0006
3864.00,0.0006
3863.00,0.0006
3862.00,0.0007
3861.00,0.0007
3860.00,0.0007
3859.00,0.0008
3858.00,0.0008
3857.00,0.0009
3856.00,0.0009
3855.00,0.0009
3854.00,0.0008
3853.00,0.0008
3852.00,0.0008
3851.00,0.0008
3850.00,0.0007
3849.00,0.0007
3848.00,0.0006
3847.00,0.0006
3846.00,0.0006
3845.00,0.0007
3844.00,0.0007
3843.00,0.0007
3842.00,0.0007
3841.00,0.0007
3840.00,0.0007
3839.00,0.0007
3838.00,0.0007
3837.00,0.0007
3836.00,0.0007
3835.00,0.0007
3834.00,0.0006
3833.00,0.0006
3832.00,0.0006
3831.00,0.0006
3830.00,0.0006
3829.00,0.0006
3828.00,0.0006
3827.00,0.0006
3826.00,0.0006
3825.00,0.0006
3824.00,0.0006
3823.00,0.0006
3822.00,0.0006
3821.00,0.0007
3820.00,0.0007
3819.00,0.0007
3818.00,0.0007
3817.00,0.0007
3816.00,0.0007
3815.00,0.0007
3814.00,0.0007
3813.00,0.0007
3812.00,0.0007
3811.00,0.0007
3810.00,0.0007
3809.00,0.0008
3808.00,0.0008
3807.00,0.0007
3806.00,0.0007
3805.00,0.0007
3804.00,0.0007
3803.00,0.0007
3802.00,0.0008
3801.00,0.0008
3800.00,0.0008
3799.00,0.0008
3798.00,0.0008
3797.00,0.0008
3796.00,0.0007
3795.00,0.0007
3794.00,0.0007
3793.00,0.0007
3792.00,0.0007
3791.00,0.0006
3790.00,0.0006
3789.00,0.0006
3788.00,0.0006
3787.00,0.0006
3786.00,0.0006
3785.00,0.0006
3784.00,0.0006
3783.00,0.0006
3782.00,0.0007
3781.00,0.0007
3780.00,0.0007
3779.00,0.0007
3778.00,0.0007
3777.00,0.0007
3776.00,0.0007
3775.00,0.0007
3774.00,0.0007
3773.00,0.0007
3772.00,0.0008
3771.00,0.0008
3770.00,0.0008
3769.00,0.0008
3768.00,0.0008
3767.00,0.0009
3766.00,0.0009
3765.00,0.0009
3764.00,0.0008
3763.00,0.0008
3762.00,0.0008
3761.00,0.0007
3760.00,0.0007
3759.00,0.0007
3758.00,0.0007
3757.00,0.0007
3756.00,0.0007
3755.00,0.0008
3754.00,0.0008
3753.00,0.0008
3752.00,0.0008
3751.00,0.0008
3750.00,0.0007
3749.00,0.0006
3748.00,0.0006
3747.00,0.0006
3746.00,0.0006
3745.00,0.0006
3744.00,0.0006
3743.00,0.0005
3742.00,0.0005
3741.00,0.0005
3740.00,0.0006
3739.00,0.0006
3738.00,0.0006
3737.00,0.0006
3736.00,0.0006
3735.00,0.0006
3734.00,0.0006
3733.00,0.0006
3732.00,0.0006
3731.00,0.0005
3730.00,0.0005
3729.00,0.0004
3728.00,0.0004
3727.00,0.0004
3726.00,0.0004
3725.00,0.0004
3724.00,0.0004
3723.00,0.0004
3722.00,0.0005
3721.00,0.0005
3720.00,0.0005
3719.00,0.0005
3718.00,0.0005
3717.00,0.0005
3716.00,0.0006
3715.00,0.0006
3714.00,0.0007
3713.00,0.0007
3712.00,0.0006
3711.00,0.0006
3710.00,0.0006
3709.00,0.0006
3708.00,0.0006
3707.00,0.0006
3706.00,0.0006
3705.00,0.0006
3704.00,0.0006
3703.00,0.0007
3702.00,0.0007
3701.00,0.0007
3700.00,0.0007
3699.00,0.0006
3698.00,0.0006
3697.00,0.0005
3696.00,0.0005
3695.00,0.0006
3694.00,0.0006
3693.00,0.0006
3692.00,0.0006
3691.00,0.0006
3690.00,0.0006
3689.00,0.0006
3688.00,0.0006
3687.00,0.0005
3686.00,0.0005
3685.00,0.0006
3684.00,0.0006
3683.00,0.0006
3682.00,0.0005
3681.00,0.0005
3680.00,0.0006
3679.00,0.0006
3678.00,0.0007
3677.00,0.0007
3676.00,0.0007
3675.00,0.0006
3674.00,0.0006
3673.00,0.0005
3672.00,0.0005
3671.00,0.0004
3670.00,0.0004
3669.00,0.0004
3668.00,0.0003
3667.00,0.0003
3666.00,0.0002
3665.00,0.0002
3664.00,0.0002
3663.00,0.0003
3662.00,0.0003
3661.00,0.0003
3660.00,0.0003
3659.00,0.0002
3658.00,0.0002
3657.00,0.0002
3656.00,0.0001
3655.00,0.0002
3654.00,0.0002
3653.00,0.0002
3652.00,0.0002
3651.00,0.0002
3650.00,0.0003
3649.00,0.0004
3648.00,0.0005
3647.00,0.0005
3646.00,0.0005
3645.00,0.0005
3644.00,0.0005
3643.00,0.0004
3642.00,0.0005
3641.00,0.0005
3640.00,0.0006
3639.00,0.0006
3638.00,0.0006
3637.00,0.0007
3636.00,0.0007
3635.00,0.0007
3634.00,0.0008
3633.00,0.0008
3632.00,0.0008
3631.00,0.0008
3630.00,0.0008
3629.00,0.0009
3628.00,0.0009
3627.00,0.0010
3626.00,0.0010
3625.00,0.0010
3624.00,0.0010
3623.00,0.0010
3622.00,0.0011
3621.00,0.0011
3620.00,0.0011
3619.00,0.0011
3618.00,0.0011
3617.00,0.0011
3616.00,0.0012
3615.00,0.0012
3614.00,0.0012
3613.00,0.0013
3612.00,0.0013
3611.00,0.0012
3610.00,0.0012
3609.00,0.0012
3608.00,0.0013
3607.00,0.0013
3606.00,0.0014
3605.00,0.0014
3604.00,0.0015
3603.00,0.0015
3602.00,0.0014
3601.00,0.0014
3600.00,0.0014
3599.00,0.0014
3598.00,0.0015
3597.00,0.0015
3596.00,0.0015
3595.00,0.0016
3594.00,0.0016
3593.00,0.0015
3592.00,0.0016
3591.00,0.0016
3590.00,0.0017
3589.00,0.0017
3588.00,0.0018
3587.00,0.0018
3586.00,0.0018
3585.00,0.0019
3584.00,0.0019
3583.00,0.0019
3582.00,0.0019
3581.00,0.0019
3580.00,0.0019
3579.00,0.0019
3578.00,0.0019
3577.00,0.0019
3576.00,0.0019
3575.00,0.0020
3574.00,0.0020
3573.00,0.0020
3572.00,0.0021
3571.00,0.0022
3570.00,0.0022
3569.00,0.0023
3568.00,0.0023
3567.00,0.0024
3566.00,0.0024
3565.00,0.0024
3564.00,0.0025
3563.00,0.0025
3562.00,0.0025
3561.00,0.0025
3560.00,0.0025
3559.00,0.0025
3558.00,0.0025
3557.00,0.0025
3556.00,0.0026
3555.00,0.0026
3554.00,0.0027
3553.00,0.0027
3552.00,0.0028
3551.00,0.0028
3550.00,0.0028
3549.00,0.0029
3548.00,0.0029
3547.00,0.0029
3546.00,0.0029
3545.00,0.0029
3544.00,0.0029
3543.00,0.0029
3542.00,0.0029
3541.00,0.0030
3540.00,0.0030
3539.00,0.0031
3538.00,0.0032
3537.00,0.0032
3536.00,0.0032
3535.00,0.0032
3534.00,0.0032
3533.00,0.0032
3532.00,0.0032
3531.00,0.0032
3530.00,0.0033
3529.00,0.0033
3528.00,0.0034
3527.00,0.0034
3526.00,0.0035
3525.00,0.0036
3524.00,0.0036
3523.00,0.0037
3522.00,0.0037
3521.00,0.0037
3520.00,0.0037
3519.00,0.0038
3518.00,0.0038
3517.00,0.0038
3516.00,0.0038
3515.00,0.0038
3514.00,0.0039
3513.00,0.0039
3512.00,0.0040
3511.00,0.0040
3510.00,0.0041
3509.00,0.0041
3508.00,0.0041
3507.00,0.0041
3506.00,0.0041
3505.00,0.0042
3504.00,0.0042
3503.00,0.0043
3502.00,0.0043
3501.00,0.0044
3500.00,0.0044
3499.00,0.0044
3498.00,0.0044
3497.00,0.0044
3496.00,0.0045
3495.00,0.0046
3494.00,0.0047
3493.00,0.0047
3492.00,0.0047
3491.00,0.0047
3490.00,0.0047
3489.00,0.0047
3488.00,0.0048
3487.00,0.0048
3486.00,0.0049
3485.00,0.0049
3484.00,0.0050
3483.00,0.0050
3482.00,0.0050
3481.00,0.0050
3480.00,0.0050
3479.00,0.0051
3478.00,0.0051
3477.00,0.0052
3476.00,0.0053
3475.00,0.0054
3474.00,0.0054
3473.00,0.0054
3472.00,0.0055
3471.00,0.0055
3470.00,0.0054
3469.00,0.0054
3468.00,0.0054
3467.00,0.0054
3466.00,0.0054
3465.00,0.0054
3464.00,0.0055
3463.00,0.0055
3462.00,0.0056
3461.00,0.0056
3460.00,0.0056
3459.00,0.0056
3458.00,0.0057
3457.00,0.0057
3456.00,0.0058
3455.00,0.0058
3454.00,0.0058
3453.00,0.0058
3452.00,0.0058
3451.00,0.0058
3450.00,0.0059
3449.00,0.0060
3448.00,0.0060
3447.00,0.0061
3446.00,0.0061
3445.00,0.0061
3444.00,0.0061
3443.00,0.0062
3442.00,0.0062
3441.00,0.0062
3440.00,0.0063
3439.00,0.0063
3438.00,0.0064
3437.00,0.0064
3436.00,0.0064
3435.00,0.0064
3434.00,0.0065
3433.00,0.0065
3432.00,0.0066
3431.00,0.0066
3430.00,0.0067
3429.00,0.0067
3428.00,0.0067
3427.00,0.0067
3426.00,0.0067
3425.00,0.0067
3424.00,0.0067
3423.00,0.0068
3422.00,0.0068
3421.00,0.0068
3420.00,0.0069
3419.00,0.0069
3418.00,0.0069
3417.00,0.0069
3416.00,0.0069
3415.00,0.0070
3414.00,0.0070
3413.00,0.0070
3412.00,0.0071
3411.00,0.0071
3410.00,0.0072
3409.00,0.0072
3408.00,0.0072
3407.00,0.0072
3406.00,0.0072
3405.00,0.0072
3404.00,0.0072
3403.00,0.0073
3402.00,0.0073
3401.00,0.0073
3400.00,0.0073
3399.00,0.0073
3398.00,0.0073
3397.00,0.0074
3396.00,0.0074
3395.00,0.0074
3394.00,0.0075
3393.00,0.0075
3392.00,0.0075
3391.00,0.0076
3390.00,0.0075
3389.00,0.0075
3388.00,0.0075
3387.00,0.0075
3386.00,0.0075
3385.00,0.0076
3384.00,0.0076
3383.00,0.0076
3382.00,0.0076
3381.00,0.0076
3380.00,0.0076
3379.00,0.0076
3378.00,0.0076
3377.00,0.0076
3376.00,0.0076
3375.00,0.0076
3374.00,0.0077
3373.00,0.0077
3372.00,0.0077
3371.00,0.0077
3370.00,0.0077
3369.00,0.0077
3368.00,0.0077
3367.00,0.0077
3366.00,0.0078
3365.00,0.0078
3364.00,0.0078
3363.00,0.0078
3362.00,0.0078
3361.00,0.0078
3360.00,0.0078
3359.00,0.0078
3358.00,0.0078
3357.00,0.0079
3356.00,0.0079
3355.00,0.0079
3354.00,0.0079
3353.00,0.0078
3352.00,0.0078
3351.00,0.0078
3350.00,0.0078
3349.00,0.0078
3348.00,0.0078
3347.00,0.0078
3346.00,0.0079
3345.00,0.0079
3344.00,0.0079
3343.00,0.0079
3342.00,0.0079
3341.00,0.0079
3340.00,0.0079
3339.00,0.0079
3338.00,0.0080
3337.00,0.0080
3336.00,0.0079
3335.00,0.0079
3334.00,0.0079
3333.00,0.0079
3332.00,0.0079
3331.00,0.0079
3330.00,0.0080
3329.00,0.0079
3328.00,0.0079
3327.00,0.0079
3326.00,0.0078
3325.00,0.0078
3324.00,0.0078
3323.00,0.0078
3322.00,0.0078
3321.00,0.0078
3320.00,0.0078
3319.00,0.0078
3318.00,0.0078
3317.00,0.0078
3316.00,0.0078
3315.00,0.0078
3314.00,0.0079
3313.00,0.0079
3312.00,0.0079
3311.00,0.0079
3310.00,0.0079
3309.00,0.0078
3308.00,0.0078
3307.00,0.0079
3306.00,0.0079
3305.00,0.0079
3304.00,0.0080
3303.00,0.0080
3302.00,0.0080
3301.00,0.0080
3300.00,0.0080
3299.00,0.0080
3298.00,0.0080
3297.00,0.0079
3296.00,0.0079
3295.00,0.0078
3294.00,0.0077
3293.00,0.0077
3292.00,0.0076
3291.00,0.0076
3290.00,0.0075
3289.00,0.0075
3288.00,0.0075
3287.00,0.0075
3286.00,0.0075
3285.00,0.0075
3284.00,0.0074
3283.00,0.0074
3282.00,0.0074
3281.00,0.0073
3280.00,0.0073
3279.00,0.0073
3278.00,0.0073
3277.00,0.0072
3276.00,0.0072
3275.00,0.0071
3274.00,0.0071
3273.00,0.0071
3272.00,0.0071
3271.00,0.0071
3270.00,0.0071
3269.00,0.0071
3268.00,0.0070
3267.00,0.0070
3266.00,0.0069
3265.00,0.0070
3264.00,0.0070
3263.00,0.0070
3262.00,0.0069
3261.00,0.0069
3260.00,0.0068
3259.00,0.0067
3258.00,0.0067
3257.00,0.0067
3256.00,0.0067
3255.00,0.0067
3254.00,0.0067
3253.00,0.0067
3252.00,0.0067
3251.00,0.0066
3250.00,0.0066
3249.00,0.0066
3248.00,0.0066
3247.00,0.0065
3246.00,0.0065
3245.00,0.0065
3244.00,0.0065
3243.00,0.0064
3242.00,0.0064
3241.00,0.0064
3240.00,0.0064
3239.00,0.0064
3238.00,0.0064
3237.00,0.0064
3236.00,0.0064
3235.00,0.0064
3234.00,0.0064
3233.00,0.0064
3232.00,0.0063
3231.00,0.0064
3230.00,0.0064
3229.00,0.0064
3228.00,0.0064
3227.00,0.0064
3226.00,0.0064
3225.00,0.0064
3224.00,0.0065
3223.00,0.0065
3222.00,0.0065
3221.00,0.0065
3220.00,0.0065
3219.00,0.0065
3218.00,0.0065
3217.00,0.0065
3216.00,0.0065
3215.00,0.0065
3214.00,0.0065
3213.00,0.0066
3212.00,0.0066
3211.00,0.0066
3210.00,0.0066
3209.00,0.0066
3208.00,0.0065
3207.00,0.0065
3206.00,0.0066
3205.00,0.0066
3204.00,0.0066
3203.00,0.0067
3202.00,0.0067
3201.00,0.0067
3200.00,0.0067
3199.00,0.0067
3198.00,0.0067
3197.00,0.0067
3196.00,0.0066
3195.00,0.0066
3194.00,0.0066
3193.00,0.0066
3192.00,0.0065
3191.00,0.0065
3190.00,0.0064
3189.00,0.0063
3188.00,0.0063
3187.00,0.0063
3186.00,0.0063
3185.00,0.0063
3184.00,0.0063
3183.00,0.0062
3182.00,0.0062
3181.00,0.0062
3180.00,0.0062
3179.00,0.0062
3178.00,0.0062
3177.00,0.0062
3176.00,0.0061
3175.00,0.0060
3174.00,0.0060
3173.00,0.0060
3172.00,0.0059
3171.00,0.0059
3170.00,0.0059
3169.00,0.0058
3168.00,0.0058
3167.00,0.0058
3166.00,0.0058
3165.00,0.0058
3164.00,0.0058
3163.00,0.0058
3162.00,0.0058
3161.00,0.0057
3160.00,0.0057
3159.00,0.0057
3158.00,0.0057
3157.00,0.0057
3156.00,0.0057
3155.00,0.0056
3154.00,0.0056
3153.00,0.0056
3152.00,0.0055
3151.00,0.0055
3150.00,0.0055
3149.00,0.0055
3148.00,0.0055
3147.00,0.0055
3146.00,0.0055
3145.00,0.0056
3144.00,0.0055
3143.00,0.0055
3142.00,0.0054
3141.00,0.0053
3140.00,0.0053
3139.00,0.0052
3138.00,0.0052
3137.00,0.0052
3136.00,0.0052
3135.00,0.0052
3134.00,0.0052
3133.00,0.0051
3132.00,0.0051
3131.00,0.0050
3130.00,0.0050
3129.00,0.0050
3128.00,0.0050
3127.00,0.0050
3126.00,0.0049
3125.00,0.0049
3124.00,0.0049
3123.00,0.0048
3122.00,0.0048
3121.00,0.0048
3120.00,0.0047
3119.00,0.0047
3118.00,0.0047
3117.00,0.0046
3116.00,0.0046
3115.00,0.0046
3114.00,0.0046
3113.00,0.0046
3112.00,0.0046
3111.00,0.0045
3110.00,0.0045
3109.00,0.0045
3108.00,0.0045
3107.00,0.0045
3106.00,0.0045
3105.00,0.0044
3104.00,0.0044
3103.00,0.0044
3102.00,0.0043
3101.00,0.0043
3100.00,0.0044
3099.00,0.0044
3098.00,0.0044
3097.00,0.0044
3096.00,0.0044
3095.00,0.0043
3094.00,0.0043
3093.00,0.0043
3092.00,0.0043
3091.00,0.0043
3090.00,0.0043
3089.00,0.0043
3088.00,0.0043
3087.00,0.0043
3086.00,0.0042
3085.00,0.0042
3084.00,0.0042
3083.00,0.0042
3082.00,0.0042
3081.00,0.0041
3080.00,0.0041
3079.00,0.0041
3078.00,0.0042
3077.00,0.0042
3076.00,0.0042
3075.00,0.0042
3074.00,0.0043
3073.00,0.0043
3072.00,0.0042
3071.00,0.0042
3070.00,0.0042
3069.00,0.0042
3068.00,0.0042
3067.00,0.0042
3066.00,0.0042
3065.00,0.0043
3064.00,0.0043
3063.00,0.0043
3062.00,0.0042
3061.00,0.0042
3060.00,0.0042
3059.00,0.0042
3058.00,0.0042
3057.00,0.0042
3056.00,0.0042
3055.00,0.0042
3054.00,0.0042
3053.00,0.0042
3052.00,0.0043
3051.00,0.0043
3050.00,0.0043
3049.00,0.0043
3048.00,0.0043
3047.00,0.0044
3046.00,0.0044
3045.00,0.0045
3044.00,0.0045
3043.00,0.0045
3042.00,0.0045
3041.00,0.0045
3040.00,0.0045
3039.00,0.0046
3038.00,0.0046
3037.00,0.0046
3036.00,0.0046
3035.00,0.0046
3034.00,0.0047
3033.00,0.0047
3032.00,0.0047
3031.00,0.0047
3030.00,0.0047
3029.00,0.0048
3028.00,0.0049
3027.00,0.0049
3026.00,0.0050
3025.00,0.0050
3024.00,0.0051
3023.00,0.0051
3022.00,0.0051
3021.00,0.0052
3020.00,0.0052
3019.00,0.0053
3018.00,0.0054
3017.00,0.0054
3016.00,0.0055
3015.00,0.0055
3014.00,0.0056
3013.00,0.0056
3012.00,0.0057
3011.00,0.0057
3010.00,0.0058
3009.00,0.0058
3008.00,0.0058
3007.00,0.0058
3006.00,0.0058
3005.00,0.0058
3004.00,0.0058
3003.00,0.0059
3002.00,0.0060
3001.00,0.0061
3000.00,0.0062
2999.00,0.0064
2998.00,0.0066
2997.00,0.0069
2996.00,0.0071
2995.00,0.0074
2994.00,0.0077
2993.00,0.0081
2992.00,0.0085
2991.00,0.0090
2990.00,0.0095
2989.00,0.0100
2988.00,0.0106
2987.00,0.0113
2986.00,0.0120
2985.00,0.0127
2984.00,0.0134
2983.00,0.0143
2982.00,0.0155
2981.00,0.0170
2980.00,0.0189
2979.00,0.0211
2978.00,0.0236
2977.00,0.0263
2976.00,0.0294
2975.00,0.0328
2974.00,0.0365
2973.00,0.0408
2972.00,0.0457
2971.00,0.0512
2970.00,0.0573
2969.00,0.0640
2968.00,0.0711
2967.00,0.0786
2966.00,0.0862
2965.00,0.0937
2964.00,0.1009
2963.00,0.1074
2962.00,0.1131
2961.00,0.1179
2960.00,0.1221
2959.00,0.1261
2958.00,0.1304
2957.00,0.1355
2956.00,0.1419
2955.00,0.1497
2954.00,0.1584
2953.00,0.1676
2952.00,0.1760
2951.00,0.1825
2950.00,0.1856
2949.00,0.1847
2948.00,0.1794
2947.00,0.1704
2946.00,0.1588
2945.00,0.1463
2944.00,0.1343
2943.00,0.1239
2942.00,0.1158
2941.00,0.1103
2940.00,0.1072
2939.00,0.1063
2938.00,0.1075
2937.00,0.1105
2936.00,0.1151
2935.00,0.1213
2934.00,0.1288
2933.00,0.1376
2932.00,0.1477
2931.00,0.1587
2930.00,0.1705
2929.00,0.1827
2928.00,0.1950
2927.00,0.2072
2926.00,0.2190
2925.00,0.2306
2924.00,0.2420
2923.00,0.2534
2922.00,0.2649
2921.00,0.2760
2920.00,0.2861
2919.00,0.2938
2918.00,0.2980
2917.00,0.2976
2916.00,0.2924
2915.00,0.2832
2914.00,0.2713
2913.00,0.2583
2912.00,0.2453
2911.00,0.2332
2910.00,0.2222
2909.00,0.2124
2908.00,0.2035
2907.00,0.1952
2906.00,0.1873
2905.00,0.1796
2904.00,0.1721
2903.00,0.1648
2902.00,0.1577
2901.00,0.1509
2900.00,0.1445
2899.00,0.1385
2898.00,0.1329
2897.00,0.1278
2896.00,0.1231
2895.00,0.1191
2894.00,0.1156
2893.00,0.1128
2892.00,0.1106
2891.00,0.1089
2890.00,0.1078
2889.00,0.1071
2888.00,0.1068
2887.00,0.1069
2886.00,0.1072
2885.00,0.1080
2884.00,0.1093
2883.00,0.1111
2882.00,0.1134
2881.00,0.1161
2880.00,0.1188
2879.00,0.1211
2878.00,0.1227
2877.00,0.1234
2876.00,0.1232
2875.00,0.1226
2874.00,0.1220
2873.00,0.1220
2872.00,0.1227
2871.00,0.1242
2870.00,0.1262
2869.00,0.1283
2868.00,0.1297
2867.00,0.1296
2866.00,0.1274
2865.00,0.1228
2864.00,0.1162
2863.00,0.1084
2862.00,0.1006
2861.00,0.0938
2860.00,0.0884
2859.00,0.0846
2858.00,0.0824
2857.00,0.0816
2856.00,0.0817
2855.00,0.0827
2854.00,0.0842
2853.00,0.0860
2852.00,0.0879
2851.00,0.0896
2850.00,0.0908
2849.00,0.0915
2848.00,0.0920
2847.00,0.0928
2846.00,0.0943
2845.00,0.0968
2844.00,0.1005
2843.00,0.1049
2842.00,0.1097
2841.00,0.1143
2840.00,0.1179
2839.00,0.1197
2838.00,0.1191
2837.00,0.1156
2836.00,0.1093
2835.00,0.1007
2834.00,0.0907
2833.00,0.0803
2832.00,0.0704
2831.00,0.0616
2830.00,0.0541
2829.00,0.0479
2828.00,0.0429
2827.00,0.0389
2826.00,0.0356
2825.00,0.0329
2824.00,0.0307
2823.00,0.0288
2822.00,0.0272
2821.00,0.0258
2820.00,0.0246
2819.00,0.0236
2818.00,0.0227
2817.00,0.0218
2816.00,0.0211
2815.00,0.0204
2814.00,0.0198
2813.00,0.0192
2812.00,0.0187
2811.00,0.0181
2810.00,0.0176
2809.00,0.0170
2808.00,0.0164
2807.00,0.0157
2806.00,0.0150
2805.00,0.0143
2804.00,0.0137
2803.00,0.0131
2802.00,0.0127
2801.00,0.0122
2800.00,0.0119
2799.00,0.0115
2798.00,0.0112
2797.00,0.0110
2796.00,0.0107
2795.00,0.0105
2794.00,0.0102
2793.00,0.0099
2792.00,0.0096
2791.00,0.0094
2790.00,0.0091
2789.00,0.0089
2788.00,0.0086
2787.00,0.0083
2786.00,0.0081
2785.00,0.0078
2784.00,0.0076
2783.00,0.0074
2782.00,0.0072
2781.00,0.0070
2780.00,0.0069
2779.00,0.0067
2778.00,0.0065
2777.00,0.0064
2776.00,0.0063
2775.00,0.0062
2774.00,0.0061
2773.00,0.0060
2772.00,0.0059
2771.00,0.0058
2770.00,0.0058
2769.00,0.0058
2768.00,0.0058
2767.00,0.0058
2766.00,0.0058
2765.00,0.0058
2764.00,0.0058
2763.00,0.0057
2762.00,0.0057
2761.00,0.0056
2760.00,0.0055
2759.00,0.0055
2758.00,0.0054
2757.00,0.0054
2756.00,0.0054
2755.00,0.0054
2754.00,0.0055
2753.00,0.0054
2752.00,0.0054
2751.00,0.0054
2750.00,0.0054
2749.00,0.0053
2748.00,0.0053
2747.00,0.0054
2746.00,0.0054
2745.00,0.0055
2744.00,0.0056
2743.00,0.0056
2742.00,0.0057
2741.00,0.0058
2740.00,0.0059
2739.00,0.0060
2738.00,0.0061
2737.00,0.0063
2736.00,0.0064
2735.00,0.0066
2734.00,0.0067
2733.00,0.0069
2732.00,0.0071
2731.00,0.0073
2730.00,0.0075
2729.00,0.0078
2728.00,0.0080
2727.00,0.0083
2726.00,0.0085
2725.00,0.0088
2724.00,0.0089
2723.00,0.0090
2722.00,0.0089
2721.00,0.0087
2720.00,0.0085
2719.00,0.0082
2718.00,0.0079
2717.00,0.0075
2716.00,0.0072
2715.00,0.0070
2714.00,0.0067
2713.00,0.0065
2712.00,0.0062
2711.00,0.0060
2710.00,0.0058
2709.00,0.0057
2708.00,0.0055
2707.00,0.0054
2706.00,0.0053
2705.00,0.0051
2704.00,0.0050
2703.00,0.0049
2702.00,0.0048
2701.00,0.0048
2700.00,0.0048
2699.00,0.0047
2698.00,0.0047
2697.00,0.0046
2696.00,0.0046
2695.00,0.0046
2694.00,0.0046
2693.00,0.0047
2692.00,0.0047
2691.00,0.0047
2690.00,0.0046
2689.00,0.0046
2688.00,0.0046
2687.00,0.0046
2686.00,0.0046
2685.00,0.0046
2684.00,0.0046
2683.00,0.0046
2682.00,0.0046
2681.00,0.0046
2680.00,0.0046
2679.00,0.0047
2678.00,0.0047
2677.00,0.0047
2676.00,0.0047
2675.00,0.0047
2674.00,0.0047
2673.00,0.0046
2672.00,0.0046
2671.00,0.0046
2670.00,0.0046
2669.00,0.0046
2668.00,0.0046
2667.00,0.0046
2666.00,0.0046
2665.00,0.0046
2664.00,0.0047
2663.00,0.0047
2662.00,0.0048
2661.00,0.0049
2660.00,0.0049
2659.00,0.0049
2658.00,0.0049
2657.00,0.0048
2656.00,0.0047
2655.00,0.0047
2654.00,0.0046
2653.00,0.0046
2652.00,0.0045
2651.00,0.0045
2650.00,0.0044
2649.00,0.0044
2648.00,0.0043
2647.00,0.0043
2646.00,0.0042
2645.00,0.0042
2644.00,0.0041
2643.00,0.0041
2642.00,0.0041
2641.00,0.0041
2640.00,0.0041
2639.00,0.0040
2638.00,0.0040
2637.00,0.0040
2636.00,0.0040
2635.00,0.0040
2634.00,0.0040
2633.00,0.0039
2632.00,0.0040
2631.00,0.0040
2630.00,0.0040
2629.00,0.0040
2628.00,0.0040
2627.00,0.0039
2626.00,0.0039
2625.00,0.0039
2624.00,0.0040
2623.00,0.0040
2622.00,0.0041
2621.00,0.0041
2620.00,0.0041
2619.00,0.0041
2618.00,0.0041
2617.00,0.0041
2616.00,0.0041
2615.00,0.0041
2614.00,0.0042
2613.00,0.0042
2612.00,0.0041
2611.00,0.0040
2610.00,0.0039
2609.00,0.0038
2608.00,0.0037
2607.00,0.0036
2606.00,0.0036
2605.00,0.0035
2604.00,0.0034
2603.00,0.0033
2602.00,0.0033
2601.00,0.0033
2600.00,0.0034
2599.00,0.0034
2598.00,0.0033
2597.00,0.0033
2596.00,0.0033
2595.00,0.0033
2594.00,0.0034
2593.00,0.0034
2592.00,0.0034
2591.00,0.0035
2590.00,0.0035
2589.00,0.0037
2588.00,0.0038
2587.00,0.0039
2586.00,0.0039
2585.00,0.0040
2584.00,0.0040
2583.00,0.0040
2582.00,0.0040
2581.00,0.0040
2580.00,0.0040
2579.00,0.0040
2578.00,0.0039
2577.00,0.0038
2576.00,0.0036
2575.00,0.0035
2574.00,0.0034
2573.00,0.0032
2572.00,0.0031
2571.00,0.0030
2570.00,0.0029
2569.00,0.0027
2568.00,0.0027
2567.00,0.0026
2566.00,0.0026
2565.00,0.0026
2564.00,0.0026
2563.00,0.0026
2562.00,0.0026
2561.00,0.0025
2560.00,0.0025
2559.00,0.0024
2558.00,0.0024
2557.00,0.0024
2556.00,0.0024
2555.00,0.0024
2554.00,0.0024
2553.00,0.0023
2552.00,0.0023
2551.00,0.0022
2550.00,0.0023
2549.00,0.0022
2548.00,0.0022
2547.00,0.0021
2546.00,0.0020
2545.00,0.0019
2544.00,0.0018
2543.00,0.0018
2542.00,0.0018
2541.00,0.0017
2540.00,0.0017
2539.00,0.0017
2538.00,0.0017
2537.00,0.0017
2536.00,0.0017
2535.00,0.0016
2534.00,0.0016
2533.00,0.0016
2532.00,0.0016
2531.00,0.0015
2530.00,0.0015
2529.00,0.0015
2528.00,0.0015
2527.00,0.0015
2526.00,0.0015
2525.00,0.0015
2524.00,0.0015
2523.00,0.0015
2522.00,0.0014
2521.00,0.0013
2520.00,0.0013
2519.00,0.0013
2518.00,0.0013
2517.00,0.0013
2516.00,0.0013
2515.00,0.0012
2514.00,0.0012
2513.00,0.0012
2512.00,0.0012
2511.00,0.0012
2510.00,0.0011
2509.00,0.0011
2508.00,0.0010
2507.00,0.0010
2506.00,0.0010
2505.00,0.0011
2504.00,0.0011
2503.00,0.0011
2502.00,0.0011
2501.00,0.0011
2500.00,0.0011
2499.00,0.0011
2498.00,0.0012
2497.00,0.0012
2496.00,0.0012
2495.00,0.0012
2494.00,0.0012
2493.00,0.0012
2492.00,0.0011
2491.00,0.0011
2490.00,0.0011
2489.00,0.0011
2488.00,0.0011
2487.00,0.0011
2486.00,0.0011
2485.00,0.0011
2484.00,0.0010
2483.00,0.0010
2482.00,0.0010
2481.00,0.0010
2480.00,0.0010
2479.00,0.0010
2478.00,0.0010
2477.00,0.0010
2476.00,0.0009
2475.00,0.0009
2474.00,0.0009
2473.00,0.0009
2472.00,0.0010
2471.00,0.0010
2470.00,0.0010
2469.00,0.0011
2468.00,0.0011
2467.00,0.0011
2466.00,0.0011
2465.00,0.0011
2464.00,0.0011
2463.00,0.0011
2462.00,0.0010
2461.00,0.0010
2460.00,0.0011
2459.00,0.0011
2458.00,0.0011
2457.00,0.0012
2456.00,0.0012
2455.00,0.0012
2454.00,0.0012
2453.00,0.0012
2452.00,0.0012
2451.00,0.0012
2450.00,0.0011
2449.00,0.0011
2448.00,0.0011
2447.00,0.0012
2446.00,0.0012
2445.00,0.0012
2444.00,0.0011
2443.00,0.0011
2442.00,0.0011
2441.00,0.0010
2440.00,0.0010
2439.00,0.0010
2438.00,0.0010
2437.00,0.0010
2436.00,0.0010
2435.00,0.0010
2434.00,0.0010
2433.00,0.0010
2432.00,0.0010
2431.00,0.0010
2430.00,0.0011
2429.00,0.0011
2428.00,0.0012
2427.00,0.0012
2426.00,0.0011
2425.00,0.0011
2424.00,0.0011
2423.00,0.0011
2422.00,0.0011
2421.00,0.0011
2420.00,0.0010
2419.00,0.0010
2418.00,0.0011
2417.00,0.0011
2416.00,0.0011
2415.00,0.0011
2414.00,0.0011
2413.00,0.0010
2412.00,0.0010
2411.00,0.0010
2410.00,0.0010
2409.00,0.0010
2408.00,0.0010
2407.00,0.0010
2406.00,0.0010
2405.00,0.0009
2404.00,0.0009
2403.00,0.0008
2402.00,0.0008
2401.00,0.0008
2400.00,0.0008
2399.00,0.0007
2398.00,0.0007
2397.00,0.0007
2396.00,0.0008
2395.00,0.0008
2394.00,0.0009
2393.00,0.0009
2392.00,0.0009
2391.00,0.0008
2390.00,0.0008
2389.00,0.0007
2388.00,0.0007
2387.00,0.0007
2386.00,0.0006
2385.00,0.0006
2384.00,0.0005
2383.00,0.0005
2382.00,0.0004
2381.00,0.0004
2380.00,0.0004
2379.00,0.0004
2378.00,0.0004
2377.00,0.0004
2376.00,0.0004
2375.00,0.0004
2374.00,0.0004
2373.00,0.0003
2372.00,0.0003
2371.00,0.0002
2370.00,0.0002
2369.00,0.0001
2368.00,0.0001
2367.00,0.0000
2366.00,0.0001
2365.00,0.0001
2364.00,0.0002
2363.00,0.0003
2362.00,0.0003
2361.00,0.0003
2360.00,0.0003
2359.00,0.0003
2358.00,0.0003
2357.00,0.0003
2356.00,0.0003
2355.00,0.0003
2354.00,0.0003
2353.00,0.0003
2352.00,0.0003
2351.00,0.0003
2350.00,0.0003
2349.00,0.0004
2348.00,0.0005
2347.00,0.0006
2346.00,0.0006
2345.00,0.0006
2344.00,0.0005
2343.00,0.0006
2342.00,0.0006
2341.00,0.0005
2340.00,0.0005
2339.00,0.0005
2338.00,0.0006
2337.00,0.0007
2336.00,0.0008
2335.00,0.0008
2334.00,0.0007
2333.00,0.0006
2332.00,0.0005
2331.00,0.0004
2330.00,0.0004
2329.00,0.0006
2328.00,0.0008
2327.00,0.0012
2326.00,0.0016
2325.00,0.0019
2324.00,0.0021
2323.00,0.0020
2322.00,0.0018
2321.00,0.0016
2320.00,0.0016
2319.00,0.0015
2318.00,0.0014
2317.00,0.0013
2316.00,0.0012
2315.00,0.0011
2314.00,0.0011
2313.00,0.0010
2312.00,0.0008
2311.00,0.0007
2310.00,0.0007
2309.00,0.0007
2308.00,0.0008
2307.00,0.0008
2306.00,0.0008
2305.00,0.0009
2304.00,0.0009
2303.00,0.0009
2302.00,0.0010
2301.00,0.0010
2300.00,0.0010
2299.00,0.0011
2298.00,0.0012
2297.00,0.0012
2296.00,0.0012
2295.00,0.0012
2294.00,0.0012
2293.00,0.0013
2292.00,0.0014
2291.00,0.0015
2290.00,0.0016
2289.00,0.0017
2288.00,0.0017
2287.00,0.0017
2286.00,0.0018
2285.00,0.0019
2284.00,0.0019
2283.00,0.0019
2282.00,0.0018
2281.00,0.0016
2280.00,0.0015
2279.00,0.0014
2278.00,0.0014
2277.00,0.0014
2276.00,0.0014
2275.00,0.0014
2274.00,0.0014
2273.00,0.0015
2272.00,0.0014
2271.00,0.0014
2270.00,0.0013
2269.00,0.0012
2268.00,0.0011
2267.00,0.0010
2266.00,0.0010
2265.00,0.0010
2264.00,0.0010
2263.00,0.0010
2262.00,0.0010
2261.00,0.0010
2260.00,0.0011
2259.00,0.0011
2258.00,0.0012
2257.00,0.0011
2256.00,0.0010
2255.00,0.0009
2254.00,0.0008
2253.00,0.0007
2252.00,0.0007
2251.00,0.0006
2250.00,0.0005
2249.00,0.0004
2248.00,0.0003
2247.00,0.0003
2246.00,0.0004
2245.00,0.0006
2244.00,0.0007
2243.00,0.0009
2242.00,0.0010
2241.00,0.0010
2240.00,0.0008
2239.00,0.0006
2238.00,0.0004
2237.00,0.0003
2236.00,0.0003
2235.00,0.0004
2234.00,0.0005
2233.00,0.0006
2232.00,0.0006
2231.00,0.0006
2230.00,0.0006
2229.00,0.0006
2228.00,0.0006
2227.00,0.0007
2226.00,0.0007
2225.00,0.0008
2224.00,0.0008
2223.00,0.0007
2222.00,0.0007
2221.00,0.0006
2220.00,0.0006
2219.00,0.0006
2218.00,0.0006
2217.00,0.0007
2216.00,0.0008
2215.00,0.0008
2214.00,0.0009
2213.00,0.0009
2212.00,0.0008
2211.00,0.0008
2210.00,0.0007
2209.00,0.0007
2208.00,0.0007
2207.00,0.0006
2206.00,0.0006
2205.00,0.0006
2204.00,0.0007
2203.00,0.0008
2202.00,0.0008
2201.00,0.0007
2200.00,0.0007
2199.00,0.0007
2198.00,0.0008
2197.00,0.0008
2196.00,0.0009
2195.00,0.0008
2194.00,0.0008
2193.00,0.0008
2192.00,0.0008
2191.00,0.0009
2190.00,0.0010
2189.00,0.0011
2188.00,0.0011
2187.00,0.0012
2186.00,0.0011
2185.00,0.0010
2184.00,0.0008
2183.00,0.0006
2182.00,0.0005
2181.00,0.0005
2180.00,0.0004
2179.00,0.0003
2178.00,0.0003
2177.00,0.0001
2176.00,-0.0002
2175.00,-0.0005
2174.00,-0.0006
2173.00,-0.0004
2172.00,-0.0001
2171.00,0.0002
2170.00,0.0006
2169.00,0.0009
2168.00,0.0012
2167.00,0.0013
2166.00,0.0013
2165.00,0.0013
2164.00,0.0014
2163.00,0.0015
2162.00,0.0015
2161.00,0.0012
2160.00,0.0006
2159.00,-0.0004
2158.00,-0.0014
2157.00,-0.0021
2156.00,-0.0024
2155.00,-0.0023
2154.00,-0.0021
2153.00,-0.0020
2152.00,-0.0019
2151.00,-0.0018
2150.00,-0.0016
2149.00,-0.0014
2148.00,-0.0013
2147.00,-0.0011
2146.00,-0.0011
2145.00,-0.0012
2144.00,-0.0014
2143.00,-0.0016
2142.00,-0.0017
2141.00,-0.0015
2140.00,-0.0012
2139.00,-0.0010
2138.00,-0.0009
2137.00,-0.0009
2136.00,-0.0010
2135.00,-0.0012
2134.00,-0.0013
2133.00,-0.0014
2132.00,-0.0013
2131.00,-0.0012
2130.00,-0.0010
2129.00,-0.0008
2128.00,-0.0006
2127.00,-0.0005
2126.00,-0.0005
2125.00,-0.0005
2124.00,-0.0004
2123.00,-0.0003
2122.00,-0.0002
2121.00,-0.0002
2120.00,-0.0002
2119.00,-0.0002
2118.00,-0.0001
2117.00,0.0000
2116.00,0.0001
2115.00,0.0002
2114.00,0.0002
2113.00,0.0002
2112.00,0.0003
2111.00,0.0004
2110.00,0.0003
2109.00,0.0003
2108.00,0.0002
2107.00,0.0002
2106.00,0.0001
2105.00,-0.0000
2104.00,-0.0001
2103.00,-0.0001
2102.00,0.0000
2101.00,0.0002
2100.00,0.0002
2099.00,0.0001
2098.00,-0.0002
2097.00,-0.0005
2096.00,-0.0008
2095.00,-0.0009
2094.00,-0.0009
2093.00,-0.0007
2092.00,-0.0005
2091.00,-0.0002
2090.00,0.0001
2089.00,0.0003
2088.00,0.0003
2087.00,0.0002
2086.00,0.0001
2085.00,0.0001
2084.00,0.0001
2083.00,0.0003
2082.00,0.0004
2081.00,0.0004
2080.00,0.0004
2079.00,0.0003
2078.00,0.0002
2077.00,0.0002
2076.00,0.0002
2075.00,0.0002
2074.00,0.0002
2073.00,0.0001
2072.00,-0.0001
2071.00,-0.0004
2070.00,-0.0005
2069.00,-0.0005
2068.00,-0.0004
2067.00,-0.0003
2066.00,-0.0003
2065.00,-0.0002
2064.00,0.0000
2063.00,0.0001
2062.00,0.0001
2061.00,0.0000
2060.00,-0.0002
2059.00,-0.0002
2058.00,-0.0001
2057.00,0.0002
2056.00,0.0002
2055.00,0.0002
2054.00,0.0002
2053.00,0.0004
2052.00,0.0009
2051.00,0.0012
2050.00,0.0011
2049.00,0.0009
2048.00,0.0005
2047.00,0.0003
2046.00,0.0002
2045.00,0.0002
2044.00,0.0003
2043.00,0.0004
2042.00,0.0005
2041.00,0.0007
2040.00,0.0009
2039.00,0.0010
2038.00,0.0008
2037.00,0.0002
2036.00,-0.0004
2035.00,-0.0009
2034.00,-0.0011
2033.00,-0.0009
2032.00,-0.0008
2031.00,-0.0007
2030.00,-0.0007
2029.00,-0.0006
2028.00,-0.0005
2027.00,-0.0004
2026.00,-0.0005
2025.00,-0.0008
2024.00,-0.0011
2023.00,-0.0014
2022.00,-0.0016
2021.00,-0.0015
2020.00,-0.0013
2019.00,-0.0011
2018.00,-0.0009
2017.00,-0.0007
2016.00,-0.0006
2015.00,-0.0006
2014.00,-0.0007
2013.00,-0.0009
2012.00,-0.0010
2011.00,-0.0010
2010.00,-0.0009
2009.00,-0.0010
2008.00,-0.0012
2007.00,-0.0016
2006.00,-0.0020
2005.00,-0.0019
2004.00,-0.0016
2003.00,-0.0013
2002.00,-0.0010
2001.00,-0.0008
2000.00,-0.0007
1999.00,-0.0007
1998.00,-0.0009
1997.00,-0.0011
1996.00,-0.0012
1995.00,-0.0012
1994.00,-0.0011
1993.00,-0.0009
1992.00,-0.0008
1991.00,-0.0008
1990.00,-0.0007
1989.00,-0.0004
1988.00,-0.0001
1987.00,0.0001
1986.00,0.0002
1985.00,0.0001
1984.00,0.0002
1983.00,0.0003
1982.00,0.0006
1981.00,0.0010
1980.00,0.0010
1979.00,0.0006
1978.00,-0.0001
1977.00,-0.0007
1976.00,-0.0011
1975.00,-0.0013
1974.00,-0.0012
1973.00,-0.0011
1972.00,-0.0010
1971.00,-0.0012
1970.00,-0.0014
1969.00,-0.0015
1968.00,-0.0016
1967.00,-0.0017
1966.00,-0.0018
1965.00,-0.0018
1964.00,-0.0017
1963.00,-0.0016
1962.00,-0.0015
1961.00,-0.0015
1960.00,-0.0015
1959.00,-0.0016
1958.00,-0.0016
1957.00,-0.0015
1956.00,-0.0014
1955.00,-0.0012
1954.00,-0.0010
1953.00,-0.0010
1952.00,-0.0010
1951.00,-0.0012
1950.00,-0.0013
1949.00,-0.0013
1948.00,-0.0012
1947.00,-0.0011
1946.00,-0.0010
1945.00,-0.0009
1944.00,-0.0009
1943.00,-0.0009
1942.00,-0.0008
1941.00,-0.0008
1940.00,-0.0008
1939.00,-0.0008
1938.00,-0.0008
1937.00,-0.0008
1936.00,-0.0008
1935.00,-0.0007
1934.00,-0.0006
1933.00,-0.0006
1932.00,-0.0006
1931.00,-0.0006
1930.00,-0.0006
1929.00,-0.0006
1928.00,-0.0007
1927.00,-0.0007
1926.00,-0.0008
1925.00,-0.0008
1924.00,-0.0007
1923.00,-0.0005
1922.00,-0.0003
1921.00,-0.0001
1920.00,0.0000
1919.00,-0.0000
1918.00,-0.0001
1917.00,-0.0001
1916.00,-0.0000
1915.00,0.0000
1914.00,0.0001
1913.00,0.0002
1912.00,0.0001
1911.00,-0.0001
1910.00,-0.0004
1909.00,-0.0004
1908.00,-0.0003
1907.00,-0.0001
1906.00,0.0001
1905.00,0.0002
1904.00,0.0001
1903.00,0.0001
1902.00,0.0001
1901.00,0.0001
1900.00,0.0001
1899.00,0.0000
1898.00,-0.0001
1897.00,-0.0001
1896.00,-0.0001
1895.00,0.0000
1894.00,0.0001
1893.00,0.0001
1892.00,0.0000
1891.00,-0.0000
1890.00,-0.0000
1889.00,-0.0000
1888.00,-0.0000
1887.00,-0.0001
1886.00,-0.0001
1885.00,-0.0001
1884.00,-0.0000
1883.00,0.0001
1882.00,0.0001
1881.00,0.0000
1880.00,-0.0001
1879.00,-0.0001
1878.00,-0.0002
1877.00,-0.0002
1876.00,-0.0001
1875.00,-0.0001
1874.00,-0.0001
1873.00,-0.0000
1872.00,-0.0000
1871.00,0.0000
1870.00,0.0000
1869.00,0.0001
1868.00,0.0002
1867.00,0.0002
1866.00,0.0002
1865.00,0.0001
1864.00,0.0001
1863.00,0.0000
1862.00,0.0000
1861.00,0.0000
1860.00,0.0001
1859.00,0.0001
1858.00,0.0001
1857.00,0.0001
1856.00,0.0001
1855.00,0.0002
1854.00,0.0002
1853.00,0.0002
1852.00,0.0002
1851.00,0.0001
1850.00,0.0001
1849.00,0.0001
1848.00,0.0001
1847.00,0.0002
1846.00,0.0002
1845.00,0.0002
1844.00,0.0002
1843.00,0.0002
1842.00,0.0002
1841.00,0.0001
1840.00,0.0001
1839.00,0.0001
1838.00,0.0001
1837.00,0.0002
1836.00,0.0003
1835.00,0.0004
1834.00,0.0004
1833.00,0.0004
1832.00,0.0004
1831.00,0.0004
1830.00,0.0004
1829.00,0.0005
1828.00,0.0005
1827.00,0.0004
1826.00,0.0004
1825.00,0.0004
1824.00,0.0005
1823.00,0.0006
1822.00,0.0006
1821.00,0.0005
1820.00,0.0004
1819.00,0.0002
1818.00,0.0001
1817.00,-0.0000
1816.00,0.0000
1815.00,0.0001
1814.00,0.0002
1813.00,0.0003
1812.00,0.0003
1811.00,0.0003
1810.00,0.0004
1809.00,0.0004
1808.00,0.0004
1807.00,0.0004
1806.00,0.0004
1805.00,0.0004
1804.00,0.0005
1803.00,0.0005
1802.00,0.0005
1801.00,0.0006
1800.00,0.0006
1799.00,0.0005
1798.00,0.0005
1797.00,0.0005
1796.00,0.0005
1795.00,0.0005
1794.00,0.0006
1793.00,0.0007
1792.00,0.0008
1791.00,0.0008
1790.00,0.0009
1789.00,0.0009
1788.00,0.0009
1787.00,0.0008
1786.00,0.0008
1785.00,0.0008
1784.00,0.0008
1783.00,0.0008
1782.00,0.0008
1781.00,0.0008
1780.00,0.0009
1779.00,0.0009
1778.00,0.0009
1777.00,0.0008
1776.00,0.0008
1775.00,0.0008
1774.00,0.0008
1773.00,0.0008
1772.00,0.0009
1771.00,0.0010
1770.00,0.0010
1769.00,0.0011
1768.00,0.0012
1767.00,0.0012
1766.00,0.0011
1765.00,0.0011
1764.00,0.0011
1763.00,0.0011
1762.00,0.0012
1761.00,0.0013
1760.00,0.0014
1759.00,0.0014
1758.00,0.0014
1757.00,0.0015
1756.00,0.0015
1755.00,0.0016
1754.00,0.0016
1753.00,0.0016
1752.00,0.0017
1751.00,0.0018
1750.00,0.0019
1749.00,0.0020
1748.00,0.0022
1747.00,0.0023
1746.00,0.0024
1745.00,0.0025
1744.00,0.0026
1743.00,0.0026
1742.00,0.0027
1741.00,0.0027
1740.00,0.0028
1739.00,0.0028
1738.00,0.0028
1737.00,0.0029
1736.00,0.0030
1735.00,0.0030
1734.00,0.0031
1733.00,0.0031
1732.00,0.0032
1731.00,0.0031
1730.00,0.0031
1729.00,0.0032
1728.00,0.0032
1727.00,0.0032
1726.00,0.0033
1725.00,0.0033
1724.00,0.0033
1723.00,0.0033
1722.00,0.0033
1721.00,0.0033
1720.00,0.0032
1719.00,0.0031
1718.00,0.0029
1717.00,0.0028
1716.00,0.0028
1715.00,0.0028
1714.00,0.0028
1713.00,0.0028
1712.00,0.0028
1711.00,0.0029
1710.00,0.0029
1709.00,0.0030
1708.00,0.0030
1707.00,0.0031
1706.00,0.0032
1705.00,0.0032
1704.00,0.0033
1703.00,0.0033
1702.00,0.0034
1701.00,0.0034
1700.00,0.0035
1699.00,0.0035
1698.00,0.0036
1697.00,0.0037
1696.00,0.0038
1695.00,0.0040
1694.00,0.0041
1693.00,0.0042
1692.00,0.0043
1691.00,0.0043
1690.00,0.0044
1689.00,0.0045
1688.00,0.0046
1687.00,0.0047
1686.00,0.0047
1685.00,0.0049
1684.00,0.0051
1683.00,0.0054
1682.00,0.0055
1681.00,0.0057
1680.00,0.0058
1679.00,0.0059
1678.00,0.0061
1677.00,0.0062
1676.00,0.0063
1675.00,0.0064
1674.00,0.0065
1673.00,0.0066
1672.00,0.0066
1671.00,0.0067
1670.00,0.0069
1669.00,0.0071
1668.00,0.0072
1667.00,0.0073
1666.00,0.0074
1665.00,0.0074
1664.00,0.0075
1663.00,0.0076
1662.00,0.0078
1661.00,0.0079
1660.00,0.0080
1659.00,0.0081
1658.00,0.0082
1657.00,0.0083
1656.00,0.0084
1655.00,0.0084
1654.00,0.0085
1653.00,0.0088
1652.00,0.0090
1651.00,0.0091
1650.00,0.0092
1649.00,0.0093
1648.00,0.0094
1647.00,0.0096
1646.00,0.0098
1645.00,0.0099
1644.00,0.0099
1643.00,0.0099
1642.00,0.0100
1641.00,0.0100
1640.00,0.0101
1639.00,0.0101
1638.00,0.0101
1637.00,0.0102
1636.00,0.0103
1635.00,0.0104
1634.00,0.0103
1633.00,0.0103
1632.00,0.0102
1631.00,0.0101
1630.00,0.0099
1629.00,0.0099
1628.00,0.0098
1627.00,0.0098
1626.00,0.0097
1625.00,0.0096
1624.00,0.0095
1623.00,0.0095
1622.00,0.0095
1621.00,0.0095
1620.00,0.0094
1619.00,0.0093
1618.00,0.0092
1617.00,0.0093
1616.00,0.0094
1615.00,0.0094
1614.00,0.0094
1613.00,0.0094
1612.00,0.0094
1611.00,0.0094
1610.00,0.0095
1609.00,0.0095
1608.00,0.0095
1607.00,0.0095
1606.00,0.0095
1605.00,0.0095
1604.00,0.0095
1603.00,0.0095
1602.00,0.0096
1601.00,0.0096
1600.00,0.0095
1599.00,0.0095
1598.00,0.0094
1597.00,0.0093
1596.00,0.0093
1595.00,0.0093
1594.00,0.0092
1593.00,0.0092
1592.00,0.0092
1591.00,0.0092
1590.00,0.0092
1589.00,0.0092
1588.00,0.0092
1587.00,0.0092
1586.00,0.0093
1585.00,0.0093
1584.00,0.0095
1583.00,0.0096
1582.00,0.0096
1581.00,0.0097
1580.00,0.0098
1579.00,0.0099
1578.00,0.0099
1577.00,0.0098
1576.00,0.0097
1575.00,0.0097
1574.00,0.0096
1573.00,0.0096
1572.00,0.0096
1571.00,0.0095
1570.00,0.0094
1569.00,0.0093
1568.00,0.0093
1567.00,0.0093
1566.00,0.0092
1565.00,0.0092
1564.00,0.0092
1563.00,0.0091
1562.00,0.0091
1561.00,0.0092
1560.00,0.0092
1559.00,0.0092
1558.00,0.0092
1557.00,0.0092
1556.00,0.0092
1555.00,0.0093
1554.00,0.0093
1553.00,0.0094
1552.00,0.0096
1551.00,0.0096
1550.00,0.0097
1549.00,0.0097
1548.00,0.0098
1547.00,0.0099
1546.00,0.0100
1545.00,0.0101
1544.00,0.0103
1543.00,0.0104
1542.00,0.0104
1541.00,0.0103
1540.00,0.0102
1539.00,0.0100
1538.00,0.0098
1537.00,0.0096
1536.00,0.0095
1535.00,0.0092
1534.00,0.0089
1533.00,0.0086
1532.00,0.0084
1531.00,0.0083
1530.00,0.0081
1529.00,0.0080
1528.00,0.0080
1527.00,0.0079
1526.00,0.0077
1525.00,0.0076
1524.00,0.0076
1523.00,0.0074
1522.00,0.0072
1521.00,0.0072
1520.00,0.0073
1519.00,0.0073
1518.00,0.0073
1517.00,0.0073
1516.00,0.0074
1515.00,0.0073
1514.00,0.0073
1513.00,0.0073
1512.00,0.0073
1511.00,0.0073
1510.00,0.0073
1509.00,0.0074
1508.00,0.0074
1507.00,0.0075
1506.00,0.0075
1505.00,0.0076
1504.00,0.0078
1503.00,0.0079
1502.00,0.0080
1501.00,0.0081
1500.00,0.0084
1499.00,0.0086
1498.00,0.0088
1497.00,0.0093
1496.00,0.0098
1495.00,0.0102
1494.00,0.0105
1493.00,0.0108
1492.00,0.0112
1491.00,0.0114
1490.00,0.0118
1489.00,0.0123
1488.00,0.0128
1487.00,0.0133
1486.00,0.0137
1485.00,0.0142
1484.00,0.0148
1483.00,0.0155
1482.00,0.0164
1481.00,0.0175
1480.00,0.0188
1479.00,0.0200
1478.00,0.0215
1477.00,0.0235
1476.00,0.0260
1475.00,0.0290
1474.00,0.0330
1473.00,0.0388
1472.00,0.0458
1471.00,0.0525
1470.00,0.0589
1469.00,0.0656
1468.00,0.0728
1467.00,0.0808
1466.00,0.0899
1465.00,0.0998
1464.00,0.1084
1463.00,0.1142
1462.00,0.1177
1461.00,0.1199
1460.00,0.1213
1459.00,0.1220
1458.00,0.1222
1457.00,0.1219
1456.00,0.1209
1455.00,0.1193
1454.00,0.1174
1453.00,0.1150
1452.00,0.1116
1451.00,0.1073
1450.00,0.1018
1449.00,0.0945
1448.00,0.0856
1447.00,0.0764
1446.00,0.0683
1445.00,0.0616
1444.00,0.0559
1443.00,0.0512
1442.00,0.0477
1441.00,0.0454
1440.00,0.0440
1439.00,0.0436
1438.00,0.0440
1437.00,0.0445
1436.00,0.0439
1435.00,0.0417
1434.00,0.0381
1433.00,0.0338
1432.00,0.0293
1431.00,0.0252
1430.00,0.0220
1429.00,0.0197
1428.00,0.0181
1427.00,0.0171
1426.00,0.0165
1425.00,0.0159
1424.00,0.0154
1423.00,0.0151
1422.00,0.0149
1421.00,0.0147
1420.00,0.0144
1419.00,0.0142
1418.00,0.0140
1417.00,0.0138
1416.00,0.0135
1415.00,0.0133
1414.00,0.0132
1413.00,0.0130
1412.00,0.0127
1411.00,0.0126
1410.00,0.0126
1409.00,0.0124
1408.00,0.0123
1407.00,0.0123
1406.00,0.0122
1405.00,0.0121
1404.00,0.0119
1403.00,0.0119
1402.00,0.0119
1401.00,0.0119
1400.00,0.0119
1399.00,0.0120
1398.00,0.0122
1397.00,0.0123
1396.00,0.0124
1395.00,0.0127
1394.00,0.0131
1393.00,0.0135
1392.00,0.0140
1391.00,0.0148
1390.00,0.0158
1389.00,0.0172
1388.00,0.0192
1387.00,0.0223
1386.00,0.0265
1385.00,0.0319
1384.00,0.0395
1383.00,0.0503
1382.00,0.0653
1381.00,0.0851
1380.00,0.1101
1379.00,0.1393
1378.00,0.1681
1377.00,0.1902
1376.00,0.1987
1375.00,0.1897
1374.00,0.1659
1373.00,0.1365
1372.00,0.1096
1371.00,0.0876
1370.00,0.0701
1369.00,0.0570
1368.00,0.0480
1367.00,0.0425
1366.00,0.0395
1365.00,0.0383
1364.00,0.0386
1363.00,0.0401
1362.00,0.0424
1361.00,0.0448
1360.00,0.0465
1359.00,0.0471
1358.00,0.0460
1357.00,0.0434
1356.00,0.0397
1355.00,0.0356
1354.00,0.0315
1353.00,0.0281
1352.00,0.0253
1351.00,0.0231
1350.00,0.0212
1349.00,0.0197
1348.00,0.0184
1347.00,0.0173
1346.00,0.0164
1345.00,0.0156
1344.00,0.0150
1343.00,0.0145
1342.00,0.0141
1341.00,0.0137
1340.00,0.0135
1339.00,0.0133
1338.00,0.0131
1337.00,0.0131
1336.00,0.0131
1335.00,0.0133
1334.00,0.0136
1333.00,0.0141
1332.00,0.0145
1331.00,0.0149
1330.00,0.0150
1329.00,0.0148
1328.00,0.0144
1327.00,0.0139
1326.00,0.0133
1325.00,0.0127
1324.00,0.0122
1323.00,0.0117
1322.00,0.0113
1321.00,0.0110
1320.00,0.0108
1319.00,0.0107
1318.00,0.0105
1317.00,0.0104
1316.00,0.0102
1315.00,0.0101
1314.00,0.0101
1313.00,0.0101
1312.00,0.0101
1311.00,0.0103
1310.00,0.0105
1309.00,0.0109
1308.00,0.0116
1307.00,0.0123
1306.00,0.0130
1305.00,0.0136
1304.00,0.0138
1303.00,0.0138
1302.00,0.0136
1301.00,0.0135
1300.00,0.0135
1299.00,0.0137
1298.00,0.0139
1297.00,0.0140
1296.00,0.0140
1295.00,0.0137
1294.00,0.0134
1293.00,0.0129
1292.00,0.0123
1291.00,0.0118
1290.00,0.0113
1289.00,0.0109
1288.00,0.0106
1287.00,0.0103
1286.00,0.0101
1285.00,0.0100
1284.00,0.0099
1283.00,0.0097
1282.00,0.0096
1281.00,0.0094
1280.00,0.0092
1279.00,0.0091
1278.00,0.0091
1277.00,0.0090
1276.00,0.0090
1275.00,0.0090
1274.00,0.0089
1273.00,0.0089
1272.00,0.0089
1271.00,0.0089
1270.00,0.0090
1269.00,0.0091
1268.00,0.0093
1267.00,0.0095
1266.00,0.0097
1265.00,0.0099
1264.00,0.0101
1263.00,0.0104
1262.00,0.0107
1261.00,0.0110
1260.00,0.0113
1259.00,0.0117
1258.00,0.0120
1257.00,0.0123
1256.00,0.0123
1255.00,0.0121
1254.00,0.0117
1253.00,0.0112
1252.00,0.0107
1251.00,0.0102
1250.00,0.0099
1249.00,0.0096
1248.00,0.0094
1247.00,0.0092
1246.00,0.0090
1245.00,0.0089
1244.00,0.0088
1243.00,0.0086
1242.00,0.0085
1241.00,0.0084
1240.00,0.0083
1239.00,0.0082
1238.00,0.0082
1237.00,0.0083
1236.00,0.0083
1235.00,0.0083
1234.00,0.0083
1233.00,0.0083
1232.00,0.0083
1231.00,0.0085
1230.00,0.0086
1229.00,0.0088
1228.00,0.0090
1227.00,0.0092
1226.00,0.0094
1225.00,0.0097
1224.00,0.0101
1223.00,0.0105
1222.00,0.0109
1221.00,0.0112
1220.00,0.0113
1219.00,0.0114
1218.00,0.0113
1217.00,0.0111
1216.00,0.0108
1215.00,0.0105
1214.00,0.0103
1213.00,0.0100
1212.00,0.0098
1211.00,0.0096
1210.00,0.0095
1209.00,0.0093
1208.00,0.0092
1207.00,0.0090
1206.00,0.0089
1205.00,0.0088
1204.00,0.0087
1203.00,0.0087
1202.00,0.0088
1201.00,0.0088
1200.00,0.0087
1199.00,0.0087
1198.00,0.0086
1197.00,0.0087
1196.00,0.0087
1195.00,0.0087
1194.00,0.0087
1193.00,0.0087
1192.00,0.0087
1191.00,0.0088
1190.00,0.0087
1189.00,0.0087
1188.00,0.0085
1187.00,0.0085
1186.00,0.0084
1185.00,0.0084
1184.00,0.0084
1183.00,0.0085
1182.00,0.0086
1181.00,0.0087
1180.00,0.0089
1179.00,0.0092
1178.00,0.0097
1177.00,0.0104
1176.00,0.0112
1175.00,0.0123
1174.00,0.0137
1173.00,0.0153
1172.00,0.0172
1171.00,0.0193
1170.00,0.0212
1169.00,0.0228
1168.00,0.0238
1167.00,0.0240
1166.00,0.0236
1165.00,0.0229
1164.00,0.0220
1163.00,0.0211
1162.00,0.0205
1161.00,0.0199
1160.00,0.0195
1159.00,0.0191
1158.00,0.0189
1157.00,0.0187
1156.00,0.0187
1155.00,0.0187
1154.00,0.0188
1153.00,0.0187
1152.00,0.0185
1151.00,0.0180
1150.00,0.0173
1149.00,0.0164
1148.00,0.0155
1147.00,0.0147
1146.00,0.0139
1145.00,0.0132
1144.00,0.0125
1143.00,0.0120
1142.00,0.0114
1141.00,0.0109
1140.00,0.0104
1139.00,0.0100
1138.00,0.0098
1137.00,0.0096
1136.00,0.0094
1135.00,0.0094
1134.00,0.0094
1133.00,0.0094
1132.00,0.0095
1131.00,0.0097
1130.00,0.0098
1129.00,0.0098
1128.00,0.0099
1127.00,0.0100
1126.00,0.0102
1125.00,0.0103
1124.00,0.0103
1123.00,0.0104
1122.00,0.0105
1121.00,0.0106
1120.00,0.0107
1119.00,0.0108
1118.00,0.0109
1117.00,0.0110
1116.00,0.0111
1115.00,0.0113
1114.00,0.0114
1113.00,0.0117
1112.00,0.0119
1111.00,0.0122
1110.00,0.0125
1109.00,0.0129
1108.00,0.0133
1107.00,0.0139
1106.00,0.0145
1105.00,0.0151
1104.00,0.0156
1103.00,0.0159
1102.00,0.0159
1101.00,0.0155
1100.00,0.0149
1099.00,0.0142
1098.00,0.0136
1097.00,0.0131
1096.00,0.0127
1095.00,0.0122
1094.00,0.0119
1093.00,0.0116
1092.00,0.0114
1091.00,0.0112
1090.00,0.0110
1089.00,0.0108
1088.00,0.0106
1087.00,0.0105
1086.00,0.0105
1085.00,0.0104
1084.00,0.0104
1083.00,0.0103
1082.00,0.0102
1081.00,0.0100
1080.00,0.0099
1079.00,0.0098
1078.00,0.0096
1077.00,0.0095
1076.00,0.0094
1075.00,0.0092
1074.00,0.0091
1073.00,0.0091
1072.00,0.0092
1071.00,0.0092
1070.00,0.0093
1069.00,0.0093
1068.00,0.0092
1067.00,0.0091
1066.00,0.0092
1065.00,0.0092
1064.00,0.0093
1063.00,0.0094
1062.00,0.0095
1061.00,0.0096
1060.00,0.0097
1059.00,0.0099
1058.00,0.0101
1057.00,0.0104
1056.00,0.0106
1055.00,0.0108
1054.00,0.0110
1053.00,0.0112
1052.00,0.0115
1051.00,0.0118
1050.00,0.0122
1049.00,0.0126
1048.00,0.0130
1047.00,0.0135
1046.00,0.0139
1045.00,0.0141
1044.00,0.0142
1043.00,0.0141
1042.00,0.0141
1041.00,0.0140
1040.00,0.0140
1039.00,0.0140
1038.00,0.0140
1037.00,0.0139
1036.00,0.0139
1035.00,0.0138
1034.00,0.0137
1033.00,0.0136
1032.00,0.0134
1031.00,0.0133
1030.00,0.0132
1029.00,0.0132
1028.00,0.0133
1027.00,0.0134
1026.00,0.0135
1025.00,0.0137
1024.00,0.0139
1023.00,0.0141
1022.00,0.0143
1021.00,0.0145
1020.00,0.0146
1019.00,0.0146
1018.00,0.0146
1017.00,0.0146
1016.00,0.0146
1015.00,0.0145
1014.00,0.0144
1013.00,0.0142
1012.00,0.0141
1011.00,0.0140
1010.00,0.0139
1009.00,0.0138
1008.00,0.0139
1007.00,0.0141
1006.00,0.0144
1005.00,0.0150
1004.00,0.0158
1003.00,0.0171
1002.00,0.0189
1001.00,0.0212
1000.00,0.0236
999.00,0.0256
998.00,0.0264
997.00,0.0257
996.00,0.0239
995.00,0.0213
994.00,0.0187
993.00,0.0164
992.00,0.0146
991.00,0.0134
990.00,0.0126
989.00,0.0119
988.00,0.0115
987.00,0.0113
986.00,0.0112
985.00,0.0113
984.00,0.0117
983.00,0.0123
982.00,0.0133
981.00,0.0146
980.00,0.0164
979.00,0.0186
978.00,0.0213
977.00,0.0244
976.00,0.0275
975.00,0.0303
974.00,0.0320
973.00,0.0321
972.00,0.0306
971.00,0.0276
970.00,0.0239
969.00,0.0203
968.00,0.0172
967.00,0.0149
966.00,0.0131
965.00,0.0118
964.00,0.0109
963.00,0.0103
962.00,0.0098
961.00,0.0093
960.00,0.0089
959.00,0.0085
958.00,0.0082
957.00,0.0079
956.00,0.0078
955.00,0.0076
954.00,0.0075
953.00,0.0075
952.00,0.0074
951.00,0.0073
950.00,0.0072
949.00,0.0072
948.00,0.0073
947.00,0.0074
946.00,0.0076
945.00,0.0078
944.00,0.0080
943.00,0.0084
942.00,0.0089
941.00,0.0092
940.00,0.0093
939.00,0.0092
938.00,0.0087
937.00,0.0081
936.00,0.0076
935.00,0.0072
934.00,0.0069
933.00,0.0067
932.00,0.0066
931.00,0.0066
930.00,0.0066
929.00,0.0066
928.00,0.0066
927.00,0.0066
926.00,0.0067
925.00,0.0067
924.00,0.0067
923.00,0.0067
922.00,0.0067
921.00,0.0067
920.00,0.0068
919.00,0.0069
918.00,0.0070
917.00,0.0071
916.00,0.0072
915.00,0.0072
914.00,0.0072
913.00,0.0073
912.00,0.0073
911.00,0.0074
910.00,0.0076
909.00,0.0079
908.00,0.0083
907.00,0.0090
906.00,0.0098
905.00,0.0108
904.00,0.0122
903.00,0.0141
902.00,0.0162
901.00,0.0183
900.00,0.0196
899.00,0.0199
898.00,0.0190
897.00,0.0173
896.00,0.0152
895.00,0.0131
894.00,0.0114
893.00,0.0103
892.00,0.0096
891.00,0.0091
890.00,0.0088
889.00,0.0086
888.00,0.0084
887.00,0.0082
886.00,0.0080
885.00,0.0079
884.00,0.0079
883.00,0.0079
882.00,0.0079
881.00,0.0078
880.00,0.0078
879.00,0.0078
878.00,0.0079
877.00,0.0080
876.00,0.0081
875.00,0.0082
874.00,0.0082
873.00,0.0083
872.00,0.0083
871.00,0.0084
870.00,0.0085
869.00,0.0085
868.00,0.0084
867.00,0.0083
866.00,0.0083
865.00,0.0084
864.00,0.0085
863.00,0.0087
862.00,0.0088
861.00,0.0089
860.00,0.0091
859.00,0.0093
858.00,0.0095
857.00,0.0097
856.00,0.0097
855.00,0.0098
854.00,0.0098
853.00,0.0099
852.00,0.0099
851.00,0.0101
850.00,0.0104
849.00,0.0109
848.00,0.0115
847.00,0.0123
846.00,0.0135
845.00,0.0154
844.00,0.0181
843.00,0.0211
842.00,0.0234
841.00,0.0240
840.00,0.0224
839.00,0.0195
838.00,0.0165
837.00,0.0143
836.00,0.0129
835.00,0.0121
834.00,0.0116
833.00,0.0112
832.00,0.0110
831.00,0.0108
830.00,0.0108
829.00,0.0107
828.00,0.0107
827.00,0.0106
826.00,0.0106
825.00,0.0107
824.00,0.0108
823.00,0.0107
822.00,0.0106
821.00,0.0107
820.00,0.0109
819.00,0.0115
818.00,0.0121
817.00,0.0127
816.00,0.0136
815.00,0.0147
814.00,0.0162
813.00,0.0182
812.00,0.0203
811.00,0.0224
810.00,0.0238
809.00,0.0243
808.00,0.0238
807.00,0.0225
806.00,0.0207
805.00,0.0188
804.00,0.0171
803.00,0.0155
802.00,0.0143
801.00,0.0134
800.00,0.0127
799.00,0.0122
798.00,0.0117
797.00,0.0113
796.00,0.0110
795.00,0.0108
794.00,0.0106
793.00,0.0104
792.00,0.0101
791.00,0.0098
790.00,0.0095
789.00,0.0092
788.00,0.0089
787.00,0.0087
786.00,0.0085
785.00,0.0083
784.00,0.0081
783.00,0.0080
782.00,0.0078
781.00,0.0076
780.00,0.0075
779.00,0.0073
778.00,0.0073
777.00,0.0074
776.00,0.0075
775.00,0.0075
774.00,0.0076
773.00,0.0076
772.00,0.0077
771.00,0.0078
770.00,0.0079
769.00,0.0080
768.00,0.0080
767.00,0.0080
766.00,0.0080
765.00,0.0080
764.00,0.0080
763.00,0.0079
762.00,0.0078
761.00,0.0078
760.00,0.0079
759.00,0.0080
758.00,0.0082
757.00,0.0083
756.00,0.0084
755.00,0.0084
754.00,0.0084
753.00,0.0084
752.00,0.0085
751.00,0.0086
750.00,0.0088
749.00,0.0090
748.00,0.0093
747.00,0.0095
746.00,0.0097
745.00,0.0098
744.00,0.0099
743.00,0.0102
742.00,0.0105
741.00,0.0109
740.00,0.0112
739.00,0.0115
738.00,0.0119
737.00,0.0123
736.00,0.0128
735.00,0.0133
734.00,0.0139
733.00,0.0145
732.00,0.0152
731.00,0.0161
730.00,0.0169
729.00,0.0173
728.00,0.0174
727.00,0.0173
726.00,0.0173
725.00,0.0175
724.00,0.0180
723.00,0.0187
722.00,0.0195
721.00,0.0199
720.00,0.0198
719.00,0.0189
718.00,0.0177
717.00,0.0164
716.00,0.0154
715.00,0.0146
714.00,0.0139
713.00,0.0133
712.00,0.0130
711.00,0.0128
710.00,0.0127
709.00,0.0126
708.00,0.0124
707.00,0.0122
706.00,0.0120
705.00,0.0119
704.00,0.0118
703.00,0.0118
702.00,0.0118
701.00,0.0117
700.00,0.0115
699.00,0.0114
698.00,0.0112
697.00,0.0111
696.00,0.0109
695.00,0.0108
694.00,0.0108
693.00,0.0109
692.00,0.0110
691.00,0.0110
690.00,0.0111
689.00,0.0111
688.00,0.0111
687.00,0.0110
686.00,0.0109
685.00,0.0107
684.00,0.0106
683.00,0.0106
682.00,0.0107
681.00,0.0108
680.00,0.0108
679.00,0.0109
678.00,0.0110
677.00,0.0111
676.00,0.0111
675.00,0.0112
674.00,0.0114
673.00,0.0115
672.00,0.0117
671.00,0.0118
670.00,0.0119
669.00,0.0120
668.00,0.0119
667.00,0.0118
666.00,0.0116
665.00,0.0114
664.00,0.0113
663.00,0.0113
662.00,0.0112
661.00,0.0110
660.00,0.0108
659.00,0.0107
658.00,0.0106
657.00,0.0105
656.00,0.0103
655.00,0.0101
654.00,0.0100
653.00,0.0100
652.00,0.0102
651.00,0.0105
650.00,0.0108
649.00,0.0108
648.00,0.0106
647.00,0.0104
646.00,0.0101
645.00,0.0099
644.00,0.0099
643.00,0.0098
642.00,0.0098
641.00,0.0097
640.00,0.0095
639.00,0.0094
638.00,0.0095
637.00,0.0097
636.00,0.0098
635.00,0.0098
634.00,0.0097
633.00,0.0097
632.00,0.0097
631.00,0.0097
630.00,0.0097
629.00,0.0096
628.00,0.0096
627.00,0.0097
626.00,0.0098
625.00,0.0099
624.00,0.0099
623.00,0.0096
622.00,0.0093
621.00,0.0091
620.00,0.0091
619.00,0.0093
618.00,0.0095
617.00,0.0096
616.00,0.0097
615.00,0.0099
614.00,0.0100
613.00,0.0100
612.00,0.0099
611.00,0.0098
610.00,0.0098
609.00,0.0099
608.00,0.0101
607.00,0.0103
606.00,0.0104
605.00,0.0105
604.00,0.0103
603.00,0.0100
602.00,0.0097
601.00,0.0096
600.00,0.0096
599.00,0.0097
598.00,0.0099
597.00,0.0100
596.00,0.0101
595.00,0.0101
594.00,0.0101
593.00,0.0101
592.00,0.0100
591.00,0.0099
590.00,0.0097
589.00,0.0093
588.00,0.0091
587.00,0.0090
586.00,0.0092
585.00,0.0093
584.00,0.0094
583.00,0.0095
582.00,0.0096
581.00,0.0097
580.00,0.0098
579.00,0.0097
578.00,0.0096
577.00,0.0095
576.00,0.0094
575.00,0.0094
574.00,0.0095
573.00,0.0095
572.00,0.0094
571.00,0.0094
570.00,0.0095
569.00,0.0098
568.00,0.0099
567.00,0.0097
566.00,0.0092
565.00,0.0089
564.00,0.0090
563.00,0.0093
562.00,0.0098
561.00,0.0100
560.00,0.0099
559.00,0.0098
558.00,0.0097
557.00,0.0097
556.00,0.0096
555.00,0.0094
554.00,0.0089
553.00,0.0085
552.00,0.0082
551.00,0.0084
550.00,0.0088
549.00,0.0092
548.00,0.0095
547.00,0.0098
546.00,0.0102
545.00,0.0107
544.00,0.0111
543.00,0.0114
542.00,0.0115
541.00,0.0115
540.00,0.0115
539.00,0.0116
538.00,0.0118
537.00,0.0119
536.00,0.0118
535.00,0.0118
534.00,0.0121
533.00,0.0124
532.00,0.0125
531.00,0.0123
530.00,0.0119
529.00,0.0116
528.00,0.0112
527.00,0.0107
526.00,0.0103
525.00,0.0101
524.00,0.0102
523.00,0.0103
522.00,0.0104
521.00,0.0104
520.00,0.0103
519.00,0.0099
518.00,0.0092
517.00,0.0087
516.00,0.0085
515.00,0.0086
514.00,0.0088
513.00,0.0090
512.00,0.0093
511.00,0.0095
510.00,0.0096
509.00,0.0096
508.00,0.0098
507.00,0.0102
506.00,0.0105
505.00,0.0104
504.00,0.0101
503.00,0.0097
502.00,0.0093
501.00,0.0090
500.00,0.0090
499.00,0.0093
498.00,0.0099
497.00,0.0104
496.00,0.0106
495.00,0.0103
494.00,0.0094
493.00,0.0085
492.00,0.0078
491.00,0.0076
490.00,0.0077
489.00,0.0080
488.00,0.0087
487.00,0.0096
486.00,0.0105
485.00,0.0108
484.00,0.0106
483.00,0.0106
482.00,0.0111
481.00,0.0120
480.00,0.0130
479.00,0.0138
478.00,0.0140
477.00,0.0137
476.00,0.0134
475.00,0.0137
474.00,0.0146
473.00,0.0154
472.00,0.0158
471.00,0.0157
470.00,0.0156
469.00,0.0160
468.00,0.0169
467.00,0.0180
466.00,0.0189
465.00,0.0189
464.00,0.0186
463.00,0.0187
462.00,0.0196
461.00,0.0209
460.00,0.0218
459.00,0.0218
458.00,0.0209
457.00,0.0194
456.00,0.0180
455.00,0.0175
454.00,0.0178
453.00,0.0183
452.00,0.0182
451.00,0.0175
450.00,0.0168
